Created as New Dataset,Sample 218 By Administrator Date Tuesday, September 09 2025
cm-1,A
4000.00,0.0012
3999.00,0.0012
3998.00,0.0012
3997.00,0.0012
3996.00,0.0012
3995.00,0.0012
3994.00,0.0012
3993.00,0.0012
3992.00,0.0012
3991.00,0.0012
3990.00,0.0012
3989.00,0.0011
3988.00,0.0011
3987.00,0.0011
3986.00,0.0011
3985.00,0.0011
3984.00,0.0011
3983.00,0.0011
3982.00,0.0011
3981.00,0.0010
3980.00,0.0010
3979.00,0.0010
3978.00,0.0010
3977.00,0.0010
3976.00,0.0010
3975.00,0.0010
3974.00,0.0010
3973.00,0.0010
3972.00,0.0010
3971.00,0.0010
3970.00,0.0010
3969.00,0.0010
3968.00,0.0010
3967.00,0.0011
3966.00,0.0011
3965.00,0.0011
3964.00,0.0011
3963.00,0.0010
3962.00,0.0010
3961.00,0.0010
3960.00,0.0010
3959.00,0.0010
3958.00,0.0010
3957.00,0.0010
3956.00,0.0010
3955.00,0.0010
3954.00,0.0010
3953.00,0.0010
3952.00,0.0010
3951.00,0.0010
3950.00,0.0010
3949.00,0.0010
3948.00,0.0009
3947.00,0.0009
3946.00,0.0009
3945.00,0.0009
3944.00,0.0009
3943.00,0.0009
3942.00,0.0010
3941.00,0.0010
3940.00,0.0010
3939.00,0.0010
3938.00,0.0010
3937.00,0.0010
3936.00,0.0010
3935.00,0.0010
3934.00,0.0010
3933.00,0.0010
3932.00,0.0010
3931.00,0.0010
3930.00,0.0011
3929.00,0.0011
3928.00,0.0011
3927.00,0.0011
3926.00,0.0010
3925.00,0.0010
3924.00,0.0010
3923.00,0.0010
3922.00,0.0010
3921.00,0.0010
3920.00,0.0010
3919.00,0.0010
3918.00,0.0011
3917.00,0.0011
3916.00,0.0011
3915.00,0.0011
3914.00,0.0010
3913.00,0.0010
3912.00,0.0010
3911.00,0.0010
3910.00,0.0010
3909.00,0.0010
3908.00,0.0010
3907.00,0.0010
3906.00,0.0010
3905.00,0.0009
3904.00,0.0009
3903.00,0.0009
3902.00,0.0009
3901.00,0.0010
3900.00,0.0010
3899.00,0.0010
3898.00,0.0009
3897.00,0.0009
3896.00,0.0009
3895.00,0.0009
3894.00,0.0009
3893.00,0.0010
3892.00,0.0010
3891.00,0.0010
3890.00,0.0011
3889.00,0.0011
3888.00,0.0011
3887.00,0.0011
3886.00,0.0011
3885.00,0.0010
3884.00,0.0010
3883.00,0.0009
3882.00,0.0009
3881.00,0.0010
3880.00,0.0010
3879.00,0.0010
3878.00,0.0010
3877.00,0.0010
3876.00,0.0010
3875.00,0.0010
3874.00,0.0010
3873.00,0.0010
3872.00,0.0010
3871.00,0.0009
3870.00,0.0009
3869.00,0.0009
3868.00,0.0008
3867.00,0.0008
3866.00,0.0009
3865.00,0.0009
3864.00,0.0008
3863.00,0.0009
3862.00,0.0009
3861.00,0.0009
3860.00,0.0010
3859.00,0.0010
3858.00,0.0010
3857.00,0.0010
3856.00,0.0010
3855.00,0.0010
3854.00,0.0010
3853.00,0.0009
3852.00,0.0008
3851.00,0.0008
3850.00,0.0008
3849.00,0.0008
3848.00,0.0008
3847.00,0.0009
3846.00,0.0009
3845.00,0.0009
3844.00,0.0009
3843.00,0.0009
3842.00,0.0009
3841.00,0.0009
3840.00,0.0009
3839.00,0.0009
3838.00,0.0010
3837.00,0.0010
3836.00,0.0010
3835.00,0.0010
3834.00,0.0010
3833.00,0.0010
3832.00,0.0010
3831.00,0.0010
3830.00,0.0009
3829.00,0.0009
3828.00,0.0009
3827.00,0.0009
3826.00,0.0009
3825.00,0.0009
3824.00,0.0009
3823.00,0.0010
3822.00,0.0010
3821.00,0.0010
3820.00,0.0010
3819.00,0.0010
3818.00,0.0009
3817.00,0.0009
3816.00,0.0009
3815.00,0.0009
3814.00,0.0009
3813.00,0.0009
3812.00,0.0010
3811.00,0.0010
3810.00,0.0011
3809.00,0.0011
3808.00,0.0011
3807.00,0.0011
3806.00,0.0010
3805.00,0.0009
3804.00,0.0009
3803.00,0.0009
3802.00,0.0009
3801.00,0.0008
3800.00,0.0008
3799.00,0.0008
3798.00,0.0008
3797.00,0.0009
3796.00,0.0009
3795.00,0.0009
3794.00,0.0009
3793.00,0.0009
3792.00,0.0010
3791.00,0.0010
3790.00,0.0010
3789.00,0.0010
3788.00,0.0010
3787.00,0.0010
3786.00,0.0011
3785.00,0.0011
3784.00,0.0011
3783.00,0.0011
3782.00,0.0010
3781.00,0.0010
3780.00,0.0010
3779.00,0.0010
3778.00,0.0010
3777.00,0.0009
3776.00,0.0009
3775.00,0.0009
3774.00,0.0009
3773.00,0.0010
3772.00,0.0010
3771.00,0.0010
3770.00,0.0010
3769.00,0.0010
3768.00,0.0010
3767.00,0.0010
3766.00,0.0010
3765.00,0.0010
3764.00,0.0010
3763.00,0.0010
3762.00,0.0010
3761.00,0.0010
3760.00,0.0010
3759.00,0.0010
3758.00,0.0010
3757.00,0.0010
3756.00,0.0010
3755.00,0.0010
3754.00,0.0009
3753.00,0.0009
3752.00,0.0008
3751.00,0.0008
3750.00,0.0008
3749.00,0.0008
3748.00,0.0008
3747.00,0.0008
3746.00,0.0008
3745.00,0.0008
3744.00,0.0009
3743.00,0.0009
3742.00,0.0009
3741.00,0.0009
3740.00,0.0009
3739.00,0.0009
3738.00,0.0009
3737.00,0.0008
3736.00,0.0008
3735.00,0.0007
3734.00,0.0007
3733.00,0.0008
3732.00,0.0008
3731.00,0.0009
3730.00,0.0009
3729.00,0.0009
3728.00,0.0009
3727.00,0.0009
3726.00,0.0009
3725.00,0.0009
3724.00,0.0010
3723.00,0.0010
3722.00,0.0010
3721.00,0.0009
3720.00,0.0009
3719.00,0.0009
3718.00,0.0008
3717.00,0.0008
3716.00,0.0009
3715.00,0.0009
3714.00,0.0009
3713.00,0.0010
3712.00,0.0010
3711.00,0.0010
3710.00,0.0009
3709.00,0.0009
3708.00,0.0009
3707.00,0.0009
3706.00,0.0009
3705.00,0.0009
3704.00,0.0009
3703.00,0.0009
3702.00,0.0009
3701.00,0.0010
3700.00,0.0010
3699.00,0.0010
3698.00,0.0011
3697.00,0.0011
3696.00,0.0011
3695.00,0.0011
3694.00,0.0011
3693.00,0.0011
3692.00,0.0011
3691.00,0.0012
3690.00,0.0013
3689.00,0.0015
3688.00,0.0017
3687.00,0.0018
3686.00,0.0019
3685.00,0.0020
3684.00,0.0021
3683.00,0.0023
3682.00,0.0024
3681.00,0.0026
3680.00,0.0028
3679.00,0.0029
3678.00,0.0031
3677.00,0.0032
3676.00,0.0035
3675.00,0.0036
3674.00,0.0037
3673.00,0.0037
3672.00,0.0037
3671.00,0.0038
3670.00,0.0038
3669.00,0.0039
3668.00,0.0040
3667.00,0.0041
3666.00,0.0041
3665.00,0.0042
3664.00,0.0043
3663.00,0.0043
3662.00,0.0044
3661.00,0.0044
3660.00,0.0044
3659.00,0.0044
3658.00,0.0045
3657.00,0.0045
3656.00,0.0046
3655.00,0.0046
3654.00,0.0045
3653.00,0.0045
3652.00,0.0044
3651.00,0.0044
3650.00,0.0044
3649.00,0.0043
3648.00,0.0043
3647.00,0.0043
3646.00,0.0043
3645.00,0.0043
3644.00,0.0042
3643.00,0.0041
3642.00,0.0041
3641.00,0.0041
3640.00,0.0041
3639.00,0.0041
3638.00,0.0041
3637.00,0.0041
3636.00,0.0040
3635.00,0.0037
3634.00,0.0035
3633.00,0.0034
3632.00,0.0033
3631.00,0.0032
3630.00,0.0032
3629.00,0.0033
3628.00,0.0033
3627.00,0.0033
3626.00,0.0033
3625.00,0.0032
3624.00,0.0032
3623.00,0.0032
3622.00,0.0032
3621.00,0.0032
3620.00,0.0032
3619.00,0.0032
3618.00,0.0033
3617.00,0.0033
3616.00,0.0033
3615.00,0.0033
3614.00,0.0034
3613.00,0.0035
3612.00,0.0036
3611.00,0.0036
3610.00,0.0037
3609.00,0.0037
3608.00,0.0037
3607.00,0.0037
3606.00,0.0037
3605.00,0.0037
3604.00,0.0038
3603.00,0.0038
3602.00,0.0038
3601.00,0.0039
3600.00,0.0039
3599.00,0.0040
3598.00,0.0041
3597.00,0.0042
3596.00,0.0043
3595.00,0.0044
3594.00,0.0044
3593.00,0.0045
3592.00,0.0045
3591.00,0.0046
3590.00,0.0046
3589.00,0.0047
3588.00,0.0048
3587.00,0.0049
3586.00,0.0050
3585.00,0.0050
3584.00,0.0050
3583.00,0.0051
3582.00,0.0051
3581.00,0.0052
3580.00,0.0053
3579.00,0.0053
3578.00,0.0054
3577.00,0.0054
3576.00,0.0055
3575.00,0.0056
3574.00,0.0056
3573.00,0.0057
3572.00,0.0058
3571.00,0.0059
3570.00,0.0059
3569.00,0.0060
3568.00,0.0062
3567.00,0.0063
3566.00,0.0065
3565.00,0.0066
3564.00,0.0066
3563.00,0.0067
3562.00,0.0067
3561.00,0.0068
3560.00,0.0069
3559.00,0.0070
3558.00,0.0071
3557.00,0.0072
3556.00,0.0073
3555.00,0.0073
3554.00,0.0074
3553.00,0.0074
3552.00,0.0075
3551.00,0.0076
3550.00,0.0077
3549.00,0.0077
3548.00,0.0078
3547.00,0.0080
3546.00,0.0081
3545.00,0.0082
3544.00,0.0083
3543.00,0.0084
3542.00,0.0085
3541.00,0.0086
3540.00,0.0087
3539.00,0.0088
3538.00,0.0089
3537.00,0.0090
3536.00,0.0090
3535.00,0.0091
3534.00,0.0092
3533.00,0.0093
3532.00,0.0094
3531.00,0.0095
3530.00,0.0096
3529.00,0.0097
3528.00,0.0098
3527.00,0.0100
3526.00,0.0101
3525.00,0.0102
3524.00,0.0103
3523.00,0.0104
3522.00,0.0105
3521.00,0.0106
3520.00,0.0107
3519.00,0.0108
3518.00,0.0108
3517.00,0.0109
3516.00,0.0110
3515.00,0.0111
3514.00,0.0112
3513.00,0.0113
3512.00,0.0114
3511.00,0.0115
3510.00,0.0116
3509.00,0.0117
3508.00,0.0118
3507.00,0.0119
3506.00,0.0120
3505.00,0.0121
3504.00,0.0123
3503.00,0.0124
3502.00,0.0126
3501.00,0.0127
3500.00,0.0128
3499.00,0.0129
3498.00,0.0130
3497.00,0.0131
3496.00,0.0133
3495.00,0.0134
3494.00,0.0135
3493.00,0.0135
3492.00,0.0136
3491.00,0.0137
3490.00,0.0138
3489.00,0.0139
3488.00,0.0140
3487.00,0.0141
3486.00,0.0141
3485.00,0.0143
3484.00,0.0144
3483.00,0.0145
3482.00,0.0147
3481.00,0.0148
3480.00,0.0150
3479.00,0.0150
3478.00,0.0151
3477.00,0.0152
3476.00,0.0153
3475.00,0.0154
3474.00,0.0155
3473.00,0.0156
3472.00,0.0156
3471.00,0.0157
3470.00,0.0158
3469.00,0.0159
3468.00,0.0160
3467.00,0.0161
3466.00,0.0161
3465.00,0.0162
3464.00,0.0162
3463.00,0.0163
3462.00,0.0164
3461.00,0.0165
3460.00,0.0166
3459.00,0.0167
3458.00,0.0168
3457.00,0.0169
3456.00,0.0169
3455.00,0.0169
3454.00,0.0170
3453.00,0.0171
3452.00,0.0172
3451.00,0.0173
3450.00,0.0174
3449.00,0.0174
3448.00,0.0175
3447.00,0.0176
3446.00,0.0177
3445.00,0.0178
3444.00,0.0179
3443.00,0.0180
3442.00,0.0180
3441.00,0.0181
3440.00,0.0181
3439.00,0.0182
3438.00,0.0183
3437.00,0.0183
3436.00,0.0184
3435.00,0.0184
3434.00,0.0185
3433.00,0.0185
3432.00,0.0186
3431.00,0.0186
3430.00,0.0187
3429.00,0.0187
3428.00,0.0188
3427.00,0.0188
3426.00,0.0188
3425.00,0.0189
3424.00,0.0190
3423.00,0.0190
3422.00,0.0191
3421.00,0.0192
3420.00,0.0193
3419.00,0.0193
3418.00,0.0193
3417.00,0.0194
3416.00,0.0194
3415.00,0.0195
3414.00,0.0195
3413.00,0.0196
3412.00,0.0196
3411.00,0.0197
3410.00,0.0197
3409.00,0.0198
3408.00,0.0198
3407.00,0.0199
3406.00,0.0199
3405.00,0.0199
3404.00,0.0200
3403.00,0.0200
3402.00,0.0201
3401.00,0.0201
3400.00,0.0201
3399.00,0.0201
3398.00,0.0201
3397.00,0.0201
3396.00,0.0202
3395.00,0.0202
3394.00,0.0202
3393.00,0.0203
3392.00,0.0203
3391.00,0.0203
3390.00,0.0203
3389.00,0.0202
3388.00,0.0202
3387.00,0.0203
3386.00,0.0203
3385.00,0.0203
3384.00,0.0204
3383.00,0.0204
3382.00,0.0204
3381.00,0.0204
3380.00,0.0204
3379.00,0.0204
3378.00,0.0203
3377.00,0.0203
3376.00,0.0203
3375.00,0.0203
3374.00,0.0203
3373.00,0.0204
3372.00,0.0204
3371.00,0.0204
3370.00,0.0203
3369.00,0.0203
3368.00,0.0203
3367.00,0.0203
3366.00,0.0204
3365.00,0.0204
3364.00,0.0204
3363.00,0.0204
3362.00,0.0204
3361.00,0.0203
3360.00,0.0203
3359.00,0.0203
3358.00,0.0202
3357.00,0.0202
3356.00,0.0202
3355.00,0.0202
3354.00,0.0202
3353.00,0.0202
3352.00,0.0202
3351.00,0.0202
3350.00,0.0202
3349.00,0.0201
3348.00,0.0201
3347.00,0.0200
3346.00,0.0200
3345.00,0.0199
3344.00,0.0199
3343.00,0.0199
3342.00,0.0199
3341.00,0.0198
3340.00,0.0197
3339.00,0.0196
3338.00,0.0196
3337.00,0.0195
3336.00,0.0195
3335.00,0.0195
3334.00,0.0195
3333.00,0.0195
3332.00,0.0194
3331.00,0.0194
3330.00,0.0193
3329.00,0.0193
3328.00,0.0192
3327.00,0.0191
3326.00,0.0190
3325.00,0.0190
3324.00,0.0189
3323.00,0.0189
3322.00,0.0188
3321.00,0.0188
3320.00,0.0188
3319.00,0.0187
3318.00,0.0187
3317.00,0.0186
3316.00,0.0186
3315.00,0.0185
3314.00,0.0185
3313.00,0.0184
3312.00,0.0184
3311.00,0.0183
3310.00,0.0183
3309.00,0.0182
3308.00,0.0182
3307.00,0.0181
3306.00,0.0181
3305.00,0.0180
3304.00,0.0180
3303.00,0.0179
3302.00,0.0179
3301.00,0.0178
3300.00,0.0177
3299.00,0.0176
3298.00,0.0176
3297.00,0.0175
3296.00,0.0175
3295.00,0.0174
3294.00,0.0174
3293.00,0.0173
3292.00,0.0172
3291.00,0.0172
3290.00,0.0171
3289.00,0.0171
3288.00,0.0170
3287.00,0.0169
3286.00,0.0168
3285.00,0.0168
3284.00,0.0167
3283.00,0.0167
3282.00,0.0166
3281.00,0.0165
3280.00,0.0165
3279.00,0.0164
3278.00,0.0163
3277.00,0.0163
3276.00,0.0163
3275.00,0.0162
3274.00,0.0162
3273.00,0.0161
3272.00,0.0160
3271.00,0.0159
3270.00,0.0158
3269.00,0.0158
3268.00,0.0157
3267.00,0.0157
3266.00,0.0157
3265.00,0.0156
3264.00,0.0156
3263.00,0.0155
3262.00,0.0154
3261.00,0.0154
3260.00,0.0153
3259.00,0.0152
3258.00,0.0152
3257.00,0.0151
3256.00,0.0151
3255.00,0.0150
3254.00,0.0150
3253.00,0.0150
3252.00,0.0150
3251.00,0.0149
3250.00,0.0149
3249.00,0.0148
3248.00,0.0147
3247.00,0.0146
3246.00,0.0145
3245.00,0.0145
3244.00,0.0145
3243.00,0.0144
3242.00,0.0144
3241.00,0.0144
3240.00,0.0143
3239.00,0.0142
3238.00,0.0142
3237.00,0.0141
3236.00,0.0140
3235.00,0.0140
3234.00,0.0139
3233.00,0.0139
3232.00,0.0139
3231.00,0.0140
3230.00,0.0139
3229.00,0.0139
3228.00,0.0138
3227.00,0.0138
3226.00,0.0137
3225.00,0.0136
3224.00,0.0136
3223.00,0.0135
3222.00,0.0135
3221.00,0.0134
3220.00,0.0134
3219.00,0.0134
3218.00,0.0133
3217.00,0.0133
3216.00,0.0133
3215.00,0.0133
3214.00,0.0133
3213.00,0.0132
3212.00,0.0132
3211.00,0.0132
3210.00,0.0132
3209.00,0.0132
3208.00,0.0131
3207.00,0.0131
3206.00,0.0131
3205.00,0.0130
3204.00,0.0130
3203.00,0.0130
3202.00,0.0130
3201.00,0.0130
3200.00,0.0130
3199.00,0.0130
3198.00,0.0129
3197.00,0.0128
3196.00,0.0128
3195.00,0.0127
3194.00,0.0126
3193.00,0.0126
3192.00,0.0126
3191.00,0.0126
3190.00,0.0126
3189.00,0.0126
3188.00,0.0125
3187.00,0.0124
3186.00,0.0124
3185.00,0.0123
3184.00,0.0123
3183.00,0.0122
3182.00,0.0121
3181.00,0.0120
3180.00,0.0119
3179.00,0.0118
3178.00,0.0117
3177.00,0.0117
3176.00,0.0116
3175.00,0.0115
3174.00,0.0114
3173.00,0.0114
3172.00,0.0114
3171.00,0.0113
3170.00,0.0113
3169.00,0.0112
3168.00,0.0111
3167.00,0.0110
3166.00,0.0109
3165.00,0.0108
3164.00,0.0108
3163.00,0.0107
3162.00,0.0107
3161.00,0.0107
3160.00,0.0107
3159.00,0.0106
3158.00,0.0105
3157.00,0.0105
3156.00,0.0104
3155.00,0.0103
3154.00,0.0103
3153.00,0.0103
3152.00,0.0102
3151.00,0.0102
3150.00,0.0101
3149.00,0.0101
3148.00,0.0100
3147.00,0.0100
3146.00,0.0100
3145.00,0.0099
3144.00,0.0099
3143.00,0.0098
3142.00,0.0098
3141.00,0.0097
3140.00,0.0096
3139.00,0.0096
3138.00,0.0095
3137.00,0.0095
3136.00,0.0094
3135.00,0.0094
3134.00,0.0093
3133.00,0.0093
3132.00,0.0092
3131.00,0.0091
3130.00,0.0091
3129.00,0.0090
3128.00,0.0090
3127.00,0.0089
3126.00,0.0089
3125.00,0.0088
3124.00,0.0087
3123.00,0.0087
3122.00,0.0086
3121.00,0.0085
3120.00,0.0085
3119.00,0.0085
3118.00,0.0084
3117.00,0.0084
3116.00,0.0083
3115.00,0.0083
3114.00,0.0082
3113.00,0.0082
3112.00,0.0081
3111.00,0.0081
3110.00,0.0080
3109.00,0.0079
3108.00,0.0079
3107.00,0.0078
3106.00,0.0078
3105.00,0.0078
3104.00,0.0078
3103.00,0.0078
3102.00,0.0078
3101.00,0.0077
3100.00,0.0077
3099.00,0.0076
3098.00,0.0076
3097.00,0.0075
3096.00,0.0075
3095.00,0.0075
3094.00,0.0075
3093.00,0.0074
3092.00,0.0074
3091.00,0.0073
3090.00,0.0073
3089.00,0.0073
3088.00,0.0072
3087.00,0.0072
3086.00,0.0072
3085.00,0.0072
3084.00,0.0071
3083.00,0.0071
3082.00,0.0070
3081.00,0.0069
3080.00,0.0069
3079.00,0.0069
3078.00,0.0069
3077.00,0.0069
3076.00,0.0069
3075.00,0.0069
3074.00,0.0070
3073.00,0.0070
3072.00,0.0071
3071.00,0.0071
3070.00,0.0072
3069.00,0.0072
3068.00,0.0072
3067.00,0.0072
3066.00,0.0072
3065.00,0.0072
3064.00,0.0072
3063.00,0.0072
3062.00,0.0072
3061.00,0.0072
3060.00,0.0072
3059.00,0.0072
3058.00,0.0072
3057.00,0.0072
3056.00,0.0072
3055.00,0.0071
3054.00,0.0071
3053.00,0.0071
3052.00,0.0071
3051.00,0.0071
3050.00,0.0072
3049.00,0.0072
3048.00,0.0072
3047.00,0.0073
3046.00,0.0073
3045.00,0.0073
3044.00,0.0074
3043.00,0.0074
3042.00,0.0074
3041.00,0.0075
3040.00,0.0076
3039.00,0.0077
3038.00,0.0077
3037.00,0.0078
3036.00,0.0078
3035.00,0.0079
3034.00,0.0079
3033.00,0.0080
3032.00,0.0081
3031.00,0.0081
3030.00,0.0082
3029.00,0.0082
3028.00,0.0082
3027.00,0.0083
3026.00,0.0084
3025.00,0.0085
3024.00,0.0086
3023.00,0.0087
3022.00,0.0088
3021.00,0.0090
3020.00,0.0092
3019.00,0.0094
3018.00,0.0097
3017.00,0.0100
3016.00,0.0103
3015.00,0.0107
3014.00,0.0111
3013.00,0.0115
3012.00,0.0120
3011.00,0.0126
3010.00,0.0133
3009.00,0.0141
3008.00,0.0149
3007.00,0.0158
3006.00,0.0167
3005.00,0.0177
3004.00,0.0187
3003.00,0.0197
3002.00,0.0207
3001.00,0.0217
3000.00,0.0226
2999.00,0.0236
2998.00,0.0244
2997.00,0.0253
2996.00,0.0262
2995.00,0.0270
2994.00,0.0278
2993.00,0.0287
2992.00,0.0296
2991.00,0.0305
2990.00,0.0315
2989.00,0.0326
2988.00,0.0339
2987.00,0.0356
2986.00,0.0379
2985.00,0.0409
2984.00,0.0445
2983.00,0.0482
2982.00,0.0511
2981.00,0.0530
2980.00,0.0540
2979.00,0.0546
2978.00,0.0555
2977.00,0.0569
2976.00,0.0590
2975.00,0.0619
2974.00,0.0658
2973.00,0.0703
2972.00,0.0753
2971.00,0.0804
2970.00,0.0856
2969.00,0.0912
2968.00,0.0975
2967.00,0.1047
2966.00,0.1126
2965.00,0.1211
2964.00,0.1299
2963.00,0.1387
2962.00,0.1472
2961.00,0.1548
2960.00,0.1614
2959.00,0.1666
2958.00,0.1704
2957.00,0.1731
2956.00,0.1750
2955.00,0.1765
2954.00,0.1780
2953.00,0.1795
2952.00,0.1807
2951.00,0.1812
2950.00,0.1803
2949.00,0.1774
2948.00,0.1722
2947.00,0.1649
2946.00,0.1559
2945.00,0.1462
2944.00,0.1368
2943.00,0.1285
2942.00,0.1219
2941.00,0.1175
2940.00,0.1150
2939.00,0.1144
2938.00,0.1155
2937.00,0.1181
2936.00,0.1220
2935.00,0.1272
2934.00,0.1335
2933.00,0.1407
2932.00,0.1487
2931.00,0.1572
2930.00,0.1659
2929.00,0.1747
2928.00,0.1832
2927.00,0.1912
2926.00,0.1985
2925.00,0.2051
2924.00,0.2110
2923.00,0.2163
2922.00,0.2211
2921.00,0.2253
2920.00,0.2287
2919.00,0.2309
2918.00,0.2316
2917.00,0.2304
2916.00,0.2272
2915.00,0.2224
2914.00,0.2163
2913.00,0.2096
2912.00,0.2027
2911.00,0.1962
2910.00,0.1903
2909.00,0.1848
2908.00,0.1797
2907.00,0.1749
2906.00,0.1699
2905.00,0.1648
2904.00,0.1594
2903.00,0.1538
2902.00,0.1481
2901.00,0.1424
2900.00,0.1368
2899.00,0.1314
2898.00,0.1263
2897.00,0.1217
2896.00,0.1175
2895.00,0.1139
2894.00,0.1110
2893.00,0.1086
2892.00,0.1067
2891.00,0.1054
2890.00,0.1045
2889.00,0.1039
2888.00,0.1036
2887.00,0.1036
2886.00,0.1039
2885.00,0.1047
2884.00,0.1057
2883.00,0.1069
2882.00,0.1084
2881.00,0.1100
2880.00,0.1117
2879.00,0.1132
2878.00,0.1143
2877.00,0.1149
2876.00,0.1148
2875.00,0.1145
2874.00,0.1140
2873.00,0.1139
2872.00,0.1142
2871.00,0.1150
2870.00,0.1162
2869.00,0.1175
2868.00,0.1186
2867.00,0.1188
2866.00,0.1176
2865.00,0.1148
2864.00,0.1105
2863.00,0.1052
2862.00,0.0996
2861.00,0.0944
2860.00,0.0900
2859.00,0.0866
2858.00,0.0840
2857.00,0.0822
2856.00,0.0809
2855.00,0.0799
2854.00,0.0791
2853.00,0.0783
2852.00,0.0776
2851.00,0.0771
2850.00,0.0768
2849.00,0.0768
2848.00,0.0774
2847.00,0.0787
2846.00,0.0808
2845.00,0.0838
2844.00,0.0878
2843.00,0.0925
2842.00,0.0977
2841.00,0.1029
2840.00,0.1074
2839.00,0.1106
2838.00,0.1116
2837.00,0.1098
2836.00,0.1052
2835.00,0.0980
2834.00,0.0892
2833.00,0.0798
2832.00,0.0706
2831.00,0.0622
2830.00,0.0551
2829.00,0.0492
2828.00,0.0444
2827.00,0.0404
2826.00,0.0372
2825.00,0.0345
2824.00,0.0323
2823.00,0.0304
2822.00,0.0288
2821.00,0.0273
2820.00,0.0260
2819.00,0.0249
2818.00,0.0239
2817.00,0.0231
2816.00,0.0223
2815.00,0.0216
2814.00,0.0210
2813.00,0.0205
2812.00,0.0199
2811.00,0.0194
2810.00,0.0189
2809.00,0.0184
2808.00,0.0179
2807.00,0.0174
2806.00,0.0168
2805.00,0.0162
2804.00,0.0156
2803.00,0.0151
2802.00,0.0145
2801.00,0.0141
2800.00,0.0137
2799.00,0.0134
2798.00,0.0132
2797.00,0.0129
2796.00,0.0127
2795.00,0.0125
2794.00,0.0123
2793.00,0.0120
2792.00,0.0117
2791.00,0.0113
2790.00,0.0110
2789.00,0.0106
2788.00,0.0103
2787.00,0.0100
2786.00,0.0098
2785.00,0.0095
2784.00,0.0092
2783.00,0.0090
2782.00,0.0088
2781.00,0.0086
2780.00,0.0084
2779.00,0.0082
2778.00,0.0081
2777.00,0.0080
2776.00,0.0078
2775.00,0.0077
2774.00,0.0076
2773.00,0.0075
2772.00,0.0074
2771.00,0.0073
2770.00,0.0073
2769.00,0.0073
2768.00,0.0072
2767.00,0.0072
2766.00,0.0071
2765.00,0.0071
2764.00,0.0070
2763.00,0.0070
2762.00,0.0070
2761.00,0.0069
2760.00,0.0069
2759.00,0.0068
2758.00,0.0067
2757.00,0.0067
2756.00,0.0066
2755.00,0.0066
2754.00,0.0065
2753.00,0.0065
2752.00,0.0065
2751.00,0.0065
2750.00,0.0065
2749.00,0.0065
2748.00,0.0065
2747.00,0.0066
2746.00,0.0066
2745.00,0.0067
2744.00,0.0067
2743.00,0.0068
2742.00,0.0068
2741.00,0.0069
2740.00,0.0070
2739.00,0.0072
2738.00,0.0073
2737.00,0.0074
2736.00,0.0076
2735.00,0.0077
2734.00,0.0078
2733.00,0.0078
2732.00,0.0079
2731.00,0.0080
2730.00,0.0081
2729.00,0.0083
2728.00,0.0085
2727.00,0.0087
2726.00,0.0089
2725.00,0.0091
2724.00,0.0092
2723.00,0.0093
2722.00,0.0092
2721.00,0.0090
2720.00,0.0088
2719.00,0.0085
2718.00,0.0082
2717.00,0.0079
2716.00,0.0076
2715.00,0.0074
2714.00,0.0072
2713.00,0.0070
2712.00,0.0068
2711.00,0.0067
2710.00,0.0065
2709.00,0.0064
2708.00,0.0063
2707.00,0.0062
2706.00,0.0061
2705.00,0.0060
2704.00,0.0059
2703.00,0.0058
2702.00,0.0057
2701.00,0.0056
2700.00,0.0055
2699.00,0.0055
2698.00,0.0055
2697.00,0.0055
2696.00,0.0055
2695.00,0.0055
2694.00,0.0055
2693.00,0.0055
2692.00,0.0055
2691.00,0.0055
2690.00,0.0055
2689.00,0.0055
2688.00,0.0055
2687.00,0.0055
2686.00,0.0055
2685.00,0.0055
2684.00,0.0055
2683.00,0.0055
2682.00,0.0055
2681.00,0.0055
2680.00,0.0055
2679.00,0.0055
2678.00,0.0055
2677.00,0.0055
2676.00,0.0055
2675.00,0.0055
2674.00,0.0055
2673.00,0.0055
2672.00,0.0055
2671.00,0.0055
2670.00,0.0055
2669.00,0.0055
2668.00,0.0055
2667.00,0.0055
2666.00,0.0055
2665.00,0.0056
2664.00,0.0056
2663.00,0.0057
2662.00,0.0057
2661.00,0.0057
2660.00,0.0057
2659.00,0.0057
2658.00,0.0057
2657.00,0.0057
2656.00,0.0056
2655.00,0.0056
2654.00,0.0055
2653.00,0.0054
2652.00,0.0054
2651.00,0.0053
2650.00,0.0053
2649.00,0.0052
2648.00,0.0052
2647.00,0.0051
2646.00,0.0051
2645.00,0.0051
2644.00,0.0050
2643.00,0.0050
2642.00,0.0049
2641.00,0.0048
2640.00,0.0047
2639.00,0.0047
2638.00,0.0046
2637.00,0.0046
2636.00,0.0046
2635.00,0.0046
2634.00,0.0046
2633.00,0.0046
2632.00,0.0046
2631.00,0.0046
2630.00,0.0046
2629.00,0.0046
2628.00,0.0046
2627.00,0.0046
2626.00,0.0046
2625.00,0.0046
2624.00,0.0046
2623.00,0.0046
2622.00,0.0045
2621.00,0.0045
2620.00,0.0045
2619.00,0.0046
2618.00,0.0046
2617.00,0.0046
2616.00,0.0046
2615.00,0.0046
2614.00,0.0045
2613.00,0.0044
2612.00,0.0043
2611.00,0.0043
2610.00,0.0042
2609.00,0.0042
2608.00,0.0042
2607.00,0.0041
2606.00,0.0040
2605.00,0.0039
2604.00,0.0038
2603.00,0.0038
2602.00,0.0038
2601.00,0.0038
2600.00,0.0038
2599.00,0.0038
2598.00,0.0038
2597.00,0.0038
2596.00,0.0037
2595.00,0.0037
2594.00,0.0037
2593.00,0.0037
2592.00,0.0038
2591.00,0.0039
2590.00,0.0039
2589.00,0.0040
2588.00,0.0041
2587.00,0.0041
2586.00,0.0041
2585.00,0.0041
2584.00,0.0041
2583.00,0.0042
2582.00,0.0042
2581.00,0.0041
2580.00,0.0041
2579.00,0.0041
2578.00,0.0040
2577.00,0.0040
2576.00,0.0039
2575.00,0.0038
2574.00,0.0037
2573.00,0.0035
2572.00,0.0034
2571.00,0.0033
2570.00,0.0033
2569.00,0.0033
2568.00,0.0032
2567.00,0.0032
2566.00,0.0031
2565.00,0.0030
2564.00,0.0029
2563.00,0.0029
2562.00,0.0028
2561.00,0.0028
2560.00,0.0028
2559.00,0.0028
2558.00,0.0028
2557.00,0.0027
2556.00,0.0027
2555.00,0.0026
2554.00,0.0026
2553.00,0.0025
2552.00,0.0025
2551.00,0.0024
2550.00,0.0024
2549.00,0.0024
2548.00,0.0024
2547.00,0.0025
2546.00,0.0024
2545.00,0.0024
2544.00,0.0024
2543.00,0.0023
2542.00,0.0023
2541.00,0.0023
2540.00,0.0022
2539.00,0.0022
2538.00,0.0022
2537.00,0.0023
2536.00,0.0023
2535.00,0.0022
2534.00,0.0022
2533.00,0.0021
2532.00,0.0020
2531.00,0.0020
2530.00,0.0020
2529.00,0.0020
2528.00,0.0020
2527.00,0.0019
2526.00,0.0019
2525.00,0.0019
2524.00,0.0019
2523.00,0.0019
2522.00,0.0019
2521.00,0.0019
2520.00,0.0018
2519.00,0.0018
2518.00,0.0017
2517.00,0.0017
2516.00,0.0017
2515.00,0.0017
2514.00,0.0017
2513.00,0.0016
2512.00,0.0016
2511.00,0.0016
2510.00,0.0016
2509.00,0.0016
2508.00,0.0016
2507.00,0.0017
2506.00,0.0016
2505.00,0.0016
2504.00,0.0016
2503.00,0.0016
2502.00,0.0016
2501.00,0.0016
2500.00,0.0016
2499.00,0.0017
2498.00,0.0017
2497.00,0.0017
2496.00,0.0016
2495.00,0.0016
2494.00,0.0016
2493.00,0.0016
2492.00,0.0016
2491.00,0.0015
2490.00,0.0015
2489.00,0.0016
2488.00,0.0016
2487.00,0.0015
2486.00,0.0015
2485.00,0.0015
2484.00,0.0014
2483.00,0.0015
2482.00,0.0015
2481.00,0.0015
2480.00,0.0015
2479.00,0.0015
2478.00,0.0015
2477.00,0.0015
2476.00,0.0015
2475.00,0.0015
2474.00,0.0015
2473.00,0.0014
2472.00,0.0014
2471.00,0.0013
2470.00,0.0013
2469.00,0.0012
2468.00,0.0012
2467.00,0.0012
2466.00,0.0012
2465.00,0.0013
2464.00,0.0013
2463.00,0.0014
2462.00,0.0014
2461.00,0.0015
2460.00,0.0015
2459.00,0.0015
2458.00,0.0014
2457.00,0.0014
2456.00,0.0015
2455.00,0.0015
2454.00,0.0015
2453.00,0.0015
2452.00,0.0015
2451.00,0.0015
2450.00,0.0014
2449.00,0.0014
2448.00,0.0015
2447.00,0.0016
2446.00,0.0016
2445.00,0.0017
2444.00,0.0017
2443.00,0.0016
2442.00,0.0016
2441.00,0.0015
2440.00,0.0015
2439.00,0.0016
2438.00,0.0016
2437.00,0.0016
2436.00,0.0016
2435.00,0.0016
2434.00,0.0017
2433.00,0.0017
2432.00,0.0017
2431.00,0.0017
2430.00,0.0016
2429.00,0.0016
2428.00,0.0016
2427.00,0.0016
2426.00,0.0016
2425.00,0.0016
2424.00,0.0016
2423.00,0.0015
2422.00,0.0015
2421.00,0.0014
2420.00,0.0014
2419.00,0.0014
2418.00,0.0014
2417.00,0.0014
2416.00,0.0014
2415.00,0.0014
2414.00,0.0015
2413.00,0.0015
2412.00,0.0015
2411.00,0.0015
2410.00,0.0014
2409.00,0.0013
2408.00,0.0013
2407.00,0.0012
2406.00,0.0012
2405.00,0.0012
2404.00,0.0012
2403.00,0.0012
2402.00,0.0012
2401.00,0.0012
2400.00,0.0012
2399.00,0.0012
2398.00,0.0012
2397.00,0.0012
2396.00,0.0012
2395.00,0.0012
2394.00,0.0012
2393.00,0.0013
2392.00,0.0013
2391.00,0.0013
2390.00,0.0012
2389.00,0.0012
2388.00,0.0012
2387.00,0.0012
2386.00,0.0013
2385.00,0.0013
2384.00,0.0013
2383.00,0.0013
2382.00,0.0013
2381.00,0.0013
2380.00,0.0013
2379.00,0.0013
2378.00,0.0014
2377.00,0.0014
2376.00,0.0013
2375.00,0.0013
2374.00,0.0014
2373.00,0.0014
2372.00,0.0014
2371.00,0.0014
2370.00,0.0014
2369.00,0.0014
2368.00,0.0014
2367.00,0.0014
2366.00,0.0014
2365.00,0.0015
2364.00,0.0015
2363.00,0.0015
2362.00,0.0016
2361.00,0.0016
2360.00,0.0016
2359.00,0.0016
2358.00,0.0016
2357.00,0.0016
2356.00,0.0016
2355.00,0.0016
2354.00,0.0017
2353.00,0.0017
2352.00,0.0017
2351.00,0.0017
2350.00,0.0017
2349.00,0.0017
2348.00,0.0017
2347.00,0.0017
2346.00,0.0017
2345.00,0.0017
2344.00,0.0017
2343.00,0.0018
2342.00,0.0019
2341.00,0.0021
2340.00,0.0021
2339.00,0.0021
2338.00,0.0021
2337.00,0.0021
2336.00,0.0021
2335.00,0.0021
2334.00,0.0021
2333.00,0.0021
2332.00,0.0020
2331.00,0.0019
2330.00,0.0019
2329.00,0.0019
2328.00,0.0021
2327.00,0.0024
2326.00,0.0028
2325.00,0.0031
2324.00,0.0032
2323.00,0.0032
2322.00,0.0030
2321.00,0.0028
2320.00,0.0027
2319.00,0.0027
2318.00,0.0026
2317.00,0.0025
2316.00,0.0024
2315.00,0.0023
2314.00,0.0022
2313.00,0.0021
2312.00,0.0020
2311.00,0.0019
2310.00,0.0018
2309.00,0.0018
2308.00,0.0018
2307.00,0.0018
2306.00,0.0018
2305.00,0.0019
2304.00,0.0019
2303.00,0.0019
2302.00,0.0019
2301.00,0.0019
2300.00,0.0019
2299.00,0.0019
2298.00,0.0019
2297.00,0.0019
2296.00,0.0019
2295.00,0.0019
2294.00,0.0019
2293.00,0.0020
2292.00,0.0020
2291.00,0.0021
2290.00,0.0022
2289.00,0.0022
2288.00,0.0023
2287.00,0.0023
2286.00,0.0023
2285.00,0.0023
2284.00,0.0023
2283.00,0.0021
2282.00,0.0020
2281.00,0.0020
2280.00,0.0020
2279.00,0.0020
2278.00,0.0020
2277.00,0.0019
2276.00,0.0018
2275.00,0.0018
2274.00,0.0017
2273.00,0.0016
2272.00,0.0015
2271.00,0.0014
2270.00,0.0014
2269.00,0.0014
2268.00,0.0014
2267.00,0.0013
2266.00,0.0013
2265.00,0.0012
2264.00,0.0012
2263.00,0.0012
2262.00,0.0013
2261.00,0.0014
2260.00,0.0015
2259.00,0.0016
2258.00,0.0016
2257.00,0.0016
2256.00,0.0015
2255.00,0.0014
2254.00,0.0013
2253.00,0.0012
2252.00,0.0012
2251.00,0.0012
2250.00,0.0012
2249.00,0.0013
2248.00,0.0015
2247.00,0.0015
2246.00,0.0015
2245.00,0.0014
2244.00,0.0013
2243.00,0.0011
2242.00,0.0011
2241.00,0.0011
2240.00,0.0012
2239.00,0.0012
2238.00,0.0012
2237.00,0.0011
2236.00,0.0010
2235.00,0.0011
2234.00,0.0011
2233.00,0.0013
2232.00,0.0014
2231.00,0.0014
2230.00,0.0014
2229.00,0.0014
2228.00,0.0014
2227.00,0.0014
2226.00,0.0013
2225.00,0.0013
2224.00,0.0013
2223.00,0.0013
2222.00,0.0013
2221.00,0.0014
2220.00,0.0014
2219.00,0.0013
2218.00,0.0012
2217.00,0.0013
2216.00,0.0013
2215.00,0.0013
2214.00,0.0013
2213.00,0.0012
2212.00,0.0012
2211.00,0.0012
2210.00,0.0012
2209.00,0.0012
2208.00,0.0011
2207.00,0.0011
2206.00,0.0010
2205.00,0.0010
2204.00,0.0010
2203.00,0.0011
2202.00,0.0011
2201.00,0.0010
2200.00,0.0009
2199.00,0.0007
2198.00,0.0006
2197.00,0.0007
2196.00,0.0011
2195.00,0.0014
2194.00,0.0017
2193.00,0.0018
2192.00,0.0019
2191.00,0.0018
2190.00,0.0017
2189.00,0.0016
2188.00,0.0016
2187.00,0.0017
2186.00,0.0019
2185.00,0.0020
2184.00,0.0020
2183.00,0.0017
2182.00,0.0014
2181.00,0.0013
2180.00,0.0013
2179.00,0.0013
2178.00,0.0014
2177.00,0.0015
2176.00,0.0015
2175.00,0.0015
2174.00,0.0014
2173.00,0.0012
2172.00,0.0011
2171.00,0.0011
2170.00,0.0013
2169.00,0.0015
2168.00,0.0017
2167.00,0.0018
2166.00,0.0019
2165.00,0.0021
2164.00,0.0024
2163.00,0.0025
2162.00,0.0023
2161.00,0.0015
2160.00,0.0003
2159.00,-0.0012
2158.00,-0.0023
2157.00,-0.0027
2156.00,-0.0026
2155.00,-0.0024
2154.00,-0.0023
2153.00,-0.0022
2152.00,-0.0019
2151.00,-0.0015
2150.00,-0.0011
2149.00,-0.0010
2148.00,-0.0011
2147.00,-0.0013
2146.00,-0.0014
2145.00,-0.0012
2144.00,-0.0009
2143.00,-0.0005
2142.00,-0.0003
2141.00,-0.0002
2140.00,-0.0002
2139.00,-0.0002
2138.00,-0.0003
2137.00,-0.0005
2136.00,-0.0006
2135.00,-0.0008
2134.00,-0.0011
2133.00,-0.0012
2132.00,-0.0011
2131.00,-0.0009
2130.00,-0.0005
2129.00,-0.0002
2128.00,-0.0000
2127.00,0.0001
2126.00,0.0001
2125.00,0.0001
2124.00,0.0002
2123.00,0.0002
2122.00,0.0003
2121.00,0.0003
2120.00,0.0004
2119.00,0.0005
2118.00,0.0006
2117.00,0.0007
2116.00,0.0008
2115.00,0.0009
2114.00,0.0010
2113.00,0.0010
2112.00,0.0011
2111.00,0.0011
2110.00,0.0012
2109.00,0.0012
2108.00,0.0012
2107.00,0.0012
2106.00,0.0011
2105.00,0.0011
2104.00,0.0011
2103.00,0.0011
2102.00,0.0011
2101.00,0.0012
2100.00,0.0012
2099.00,0.0013
2098.00,0.0012
2097.00,0.0009
2096.00,0.0006
2095.00,0.0003
2094.00,0.0001
2093.00,0.0002
2092.00,0.0003
2091.00,0.0004
2090.00,0.0006
2089.00,0.0008
2088.00,0.0010
2087.00,0.0012
2086.00,0.0012
2085.00,0.0012
2084.00,0.0011
2083.00,0.0010
2082.00,0.0009
2081.00,0.0009
2080.00,0.0010
2079.00,0.0010
2078.00,0.0010
2077.00,0.0011
2076.00,0.0011
2075.00,0.0010
2074.00,0.0010
2073.00,0.0010
2072.00,0.0011
2071.00,0.0011
2070.00,0.0012
2069.00,0.0012
2068.00,0.0012
2067.00,0.0010
2066.00,0.0009
2065.00,0.0008
2064.00,0.0006
2063.00,0.0005
2062.00,0.0003
2061.00,0.0003
2060.00,0.0005
2059.00,0.0007
2058.00,0.0009
2057.00,0.0010
2056.00,0.0011
2055.00,0.0011
2054.00,0.0011
2053.00,0.0014
2052.00,0.0017
2051.00,0.0020
2050.00,0.0019
2049.00,0.0013
2048.00,0.0007
2047.00,0.0005
2046.00,0.0006
2045.00,0.0009
2044.00,0.0011
2043.00,0.0009
2042.00,0.0007
2041.00,0.0006
2040.00,0.0008
2039.00,0.0009
2038.00,0.0009
2037.00,0.0008
2036.00,0.0007
2035.00,0.0007
2034.00,0.0006
2033.00,0.0007
2032.00,0.0006
2031.00,0.0005
2030.00,0.0001
2029.00,-0.0002
2028.00,-0.0002
2027.00,-0.0001
2026.00,0.0002
2025.00,0.0004
2024.00,0.0005
2023.00,0.0005
2022.00,0.0004
2021.00,0.0001
2020.00,-0.0002
2019.00,-0.0005
2018.00,-0.0009
2017.00,-0.0011
2016.00,-0.0010
2015.00,-0.0007
2014.00,-0.0003
2013.00,0.0001
2012.00,0.0002
2011.00,0.0001
2010.00,-0.0002
2009.00,-0.0005
2008.00,-0.0009
2007.00,-0.0013
2006.00,-0.0016
2005.00,-0.0017
2004.00,-0.0015
2003.00,-0.0014
2002.00,-0.0012
2001.00,-0.0010
2000.00,-0.0007
1999.00,-0.0004
1998.00,-0.0001
1997.00,-0.0000
1996.00,-0.0002
1995.00,-0.0006
1994.00,-0.0009
1993.00,-0.0011
1992.00,-0.0009
1991.00,-0.0006
1990.00,-0.0001
1989.00,0.0003
1988.00,0.0007
1987.00,0.0009
1986.00,0.0010
1985.00,0.0010
1984.00,0.0009
1983.00,0.0009
1982.00,0.0011
1981.00,0.0013
1980.00,0.0015
1979.00,0.0014
1978.00,0.0010
1977.00,0.0006
1976.00,0.0002
1975.00,-0.0000
1974.00,-0.0002
1973.00,-0.0002
1972.00,-0.0003
1971.00,-0.0005
1970.00,-0.0007
1969.00,-0.0008
1968.00,-0.0008
1967.00,-0.0007
1966.00,-0.0006
1965.00,-0.0006
1964.00,-0.0007
1963.00,-0.0009
1962.00,-0.0012
1961.00,-0.0016
1960.00,-0.0018
1959.00,-0.0018
1958.00,-0.0017
1957.00,-0.0015
1956.00,-0.0013
1955.00,-0.0013
1954.00,-0.0014
1953.00,-0.0015
1952.00,-0.0014
1951.00,-0.0013
1950.00,-0.0013
1949.00,-0.0014
1948.00,-0.0015
1947.00,-0.0016
1946.00,-0.0016
1945.00,-0.0015
1944.00,-0.0013
1943.00,-0.0011
1942.00,-0.0009
1941.00,-0.0008
1940.00,-0.0008
1939.00,-0.0009
1938.00,-0.0010
1937.00,-0.0011
1936.00,-0.0010
1935.00,-0.0008
1934.00,-0.0007
1933.00,-0.0006
1932.00,-0.0005
1931.00,-0.0005
1930.00,-0.0004
1929.00,-0.0004
1928.00,-0.0005
1927.00,-0.0007
1926.00,-0.0008
1925.00,-0.0007
1924.00,-0.0006
1923.00,-0.0003
1922.00,-0.0000
1921.00,0.0002
1920.00,0.0004
1919.00,0.0004
1918.00,0.0002
1917.00,0.0001
1916.00,0.0001
1915.00,0.0002
1914.00,0.0004
1913.00,0.0004
1912.00,0.0004
1911.00,0.0002
1910.00,0.0001
1909.00,-0.0000
1908.00,0.0001
1907.00,0.0002
1906.00,0.0003
1905.00,0.0002
1904.00,0.0001
1903.00,-0.0000
1902.00,-0.0001
1901.00,-0.0000
1900.00,0.0001
1899.00,0.0003
1898.00,0.0004
1897.00,0.0005
1896.00,0.0006
1895.00,0.0006
1894.00,0.0004
1893.00,0.0002
1892.00,0.0001
1891.00,0.0001
1890.00,0.0002
1889.00,0.0003
1888.00,0.0003
1887.00,0.0003
1886.00,0.0003
1885.00,0.0004
1884.00,0.0004
1883.00,0.0004
1882.00,0.0004
1881.00,0.0004
1880.00,0.0004
1879.00,0.0003
1878.00,0.0003
1877.00,0.0003
1876.00,0.0003
1875.00,0.0004
1874.00,0.0005
1873.00,0.0005
1872.00,0.0006
1871.00,0.0006
1870.00,0.0005
1869.00,0.0004
1868.00,0.0003
1867.00,0.0003
1866.00,0.0003
1865.00,0.0003
1864.00,0.0004
1863.00,0.0005
1862.00,0.0005
1861.00,0.0005
1860.00,0.0005
1859.00,0.0005
1858.00,0.0005
1857.00,0.0006
1856.00,0.0005
1855.00,0.0005
1854.00,0.0004
1853.00,0.0005
1852.00,0.0005
1851.00,0.0006
1850.00,0.0006
1849.00,0.0006
1848.00,0.0006
1847.00,0.0007
1846.00,0.0007
1845.00,0.0007
1844.00,0.0006
1843.00,0.0006
1842.00,0.0005
1841.00,0.0006
1840.00,0.0007
1839.00,0.0007
1838.00,0.0008
1837.00,0.0009
1836.00,0.0008
1835.00,0.0008
1834.00,0.0008
1833.00,0.0008
1832.00,0.0009
1831.00,0.0010
1830.00,0.0010
1829.00,0.0009
1828.00,0.0009
1827.00,0.0009
1826.00,0.0010
1825.00,0.0010
1824.00,0.0010
1823.00,0.0010
1822.00,0.0009
1821.00,0.0009
1820.00,0.0008
1819.00,0.0006
1818.00,0.0004
1817.00,0.0004
1816.00,0.0004
1815.00,0.0005
1814.00,0.0007
1813.00,0.0007
1812.00,0.0008
1811.00,0.0008
1810.00,0.0008
1809.00,0.0008
1808.00,0.0008
1807.00,0.0008
1806.00,0.0008
1805.00,0.0008
1804.00,0.0008
1803.00,0.0008
1802.00,0.0009
1801.00,0.0010
1800.00,0.0010
1799.00,0.0011
1798.00,0.0012
1797.00,0.0013
1796.00,0.0013
1795.00,0.0013
1794.00,0.0013
1793.00,0.0013
1792.00,0.0014
1791.00,0.0014
1790.00,0.0014
1789.00,0.0015
1788.00,0.0015
1787.00,0.0015
1786.00,0.0016
1785.00,0.0016
1784.00,0.0016
1783.00,0.0016
1782.00,0.0016
1781.00,0.0016
1780.00,0.0016
1779.00,0.0015
1778.00,0.0015
1777.00,0.0016
1776.00,0.0017
1775.00,0.0017
1774.00,0.0018
1773.00,0.0019
1772.00,0.0019
1771.00,0.0019
1770.00,0.0019
1769.00,0.0019
1768.00,0.0019
1767.00,0.0019
1766.00,0.0019
1765.00,0.0020
1764.00,0.0020
1763.00,0.0020
1762.00,0.0020
1761.00,0.0020
1760.00,0.0021
1759.00,0.0022
1758.00,0.0023
1757.00,0.0023
1756.00,0.0024
1755.00,0.0024
1754.00,0.0026
1753.00,0.0027
1752.00,0.0028
1751.00,0.0029
1750.00,0.0029
1749.00,0.0030
1748.00,0.0031
1747.00,0.0033
1746.00,0.0034
1745.00,0.0036
1744.00,0.0037
1743.00,0.0038
1742.00,0.0039
1741.00,0.0040
1740.00,0.0041
1739.00,0.0043
1738.00,0.0044
1737.00,0.0045
1736.00,0.0046
1735.00,0.0045
1734.00,0.0045
1733.00,0.0045
1732.00,0.0046
1731.00,0.0047
1730.00,0.0047
1729.00,0.0047
1728.00,0.0046
1727.00,0.0045
1726.00,0.0044
1725.00,0.0044
1724.00,0.0043
1723.00,0.0042
1722.00,0.0042
1721.00,0.0042
1720.00,0.0042
1719.00,0.0042
1718.00,0.0040
1717.00,0.0039
1716.00,0.0040
1715.00,0.0040
1714.00,0.0041
1713.00,0.0042
1712.00,0.0042
1711.00,0.0042
1710.00,0.0042
1709.00,0.0043
1708.00,0.0043
1707.00,0.0044
1706.00,0.0044
1705.00,0.0045
1704.00,0.0045
1703.00,0.0046
1702.00,0.0047
1701.00,0.0048
1700.00,0.0049
1699.00,0.0050
1698.00,0.0051
1697.00,0.0052
1696.00,0.0054
1695.00,0.0055
1694.00,0.0057
1693.00,0.0059
1692.00,0.0062
1691.00,0.0065
1690.00,0.0067
1689.00,0.0070
1688.00,0.0072
1687.00,0.0074
1686.00,0.0074
1685.00,0.0076
1684.00,0.0080
1683.00,0.0084
1682.00,0.0088
1681.00,0.0091
1680.00,0.0095
1679.00,0.0098
1678.00,0.0100
1677.00,0.0103
1676.00,0.0107
1675.00,0.0110
1674.00,0.0113
1673.00,0.0115
1672.00,0.0116
1671.00,0.0118
1670.00,0.0121
1669.00,0.0123
1668.00,0.0126
1667.00,0.0128
1666.00,0.0130
1665.00,0.0131
1664.00,0.0133
1663.00,0.0134
1662.00,0.0135
1661.00,0.0136
1660.00,0.0138
1659.00,0.0139
1658.00,0.0140
1657.00,0.0141
1656.00,0.0142
1655.00,0.0142
1654.00,0.0143
1653.00,0.0145
1652.00,0.0147
1651.00,0.0148
1650.00,0.0148
1649.00,0.0150
1648.00,0.0151
1647.00,0.0153
1646.00,0.0154
1645.00,0.0155
1644.00,0.0155
1643.00,0.0156
1642.00,0.0156
1641.00,0.0157
1640.00,0.0158
1639.00,0.0158
1638.00,0.0158
1637.00,0.0159
1636.00,0.0159
1635.00,0.0159
1634.00,0.0159
1633.00,0.0158
1632.00,0.0158
1631.00,0.0158
1630.00,0.0158
1629.00,0.0158
1628.00,0.0157
1627.00,0.0156
1626.00,0.0154
1625.00,0.0154
1624.00,0.0153
1623.00,0.0153
1622.00,0.0152
1621.00,0.0151
1620.00,0.0151
1619.00,0.0150
1618.00,0.0150
1617.00,0.0149
1616.00,0.0149
1615.00,0.0148
1614.00,0.0147
1613.00,0.0147
1612.00,0.0147
1611.00,0.0146
1610.00,0.0145
1609.00,0.0145
1608.00,0.0145
1607.00,0.0145
1606.00,0.0145
1605.00,0.0144
1604.00,0.0144
1603.00,0.0143
1602.00,0.0142
1601.00,0.0141
1600.00,0.0140
1599.00,0.0139
1598.00,0.0138
1597.00,0.0137
1596.00,0.0136
1595.00,0.0136
1594.00,0.0135
1593.00,0.0134
1592.00,0.0132
1591.00,0.0131
1590.00,0.0129
1589.00,0.0129
1588.00,0.0128
1587.00,0.0127
1586.00,0.0127
1585.00,0.0126
1584.00,0.0126
1583.00,0.0126
1582.00,0.0126
1581.00,0.0126
1580.00,0.0126
1579.00,0.0126
1578.00,0.0126
1577.00,0.0126
1576.00,0.0126
1575.00,0.0126
1574.00,0.0127
1573.00,0.0128
1572.00,0.0128
1571.00,0.0129
1570.00,0.0130
1569.00,0.0131
1568.00,0.0132
1567.00,0.0133
1566.00,0.0134
1565.00,0.0135
1564.00,0.0137
1563.00,0.0138
1562.00,0.0139
1561.00,0.0141
1560.00,0.0144
1559.00,0.0148
1558.00,0.0150
1557.00,0.0152
1556.00,0.0153
1555.00,0.0155
1554.00,0.0158
1553.00,0.0160
1552.00,0.0162
1551.00,0.0163
1550.00,0.0163
1549.00,0.0164
1548.00,0.0163
1547.00,0.0163
1546.00,0.0162
1545.00,0.0161
1544.00,0.0159
1543.00,0.0157
1542.00,0.0153
1541.00,0.0148
1540.00,0.0142
1539.00,0.0137
1538.00,0.0133
1537.00,0.0132
1536.00,0.0130
1535.00,0.0127
1534.00,0.0122
1533.00,0.0118
1532.00,0.0114
1531.00,0.0112
1530.00,0.0110
1529.00,0.0108
1528.00,0.0106
1527.00,0.0103
1526.00,0.0100
1525.00,0.0099
1524.00,0.0098
1523.00,0.0097
1522.00,0.0095
1521.00,0.0094
1520.00,0.0093
1519.00,0.0093
1518.00,0.0093
1517.00,0.0093
1516.00,0.0093
1515.00,0.0093
1514.00,0.0093
1513.00,0.0093
1512.00,0.0094
1511.00,0.0095
1510.00,0.0095
1509.00,0.0096
1508.00,0.0098
1507.00,0.0098
1506.00,0.0099
1505.00,0.0102
1504.00,0.0105
1503.00,0.0109
1502.00,0.0113
1501.00,0.0118
1500.00,0.0124
1499.00,0.0130
1498.00,0.0136
1497.00,0.0143
1496.00,0.0151
1495.00,0.0157
1494.00,0.0163
1493.00,0.0170
1492.00,0.0177
1491.00,0.0185
1490.00,0.0193
1489.00,0.0202
1488.00,0.0210
1487.00,0.0216
1486.00,0.0221
1485.00,0.0227
1484.00,0.0234
1483.00,0.0240
1482.00,0.0247
1481.00,0.0256
1480.00,0.0266
1479.00,0.0277
1478.00,0.0290
1477.00,0.0309
1476.00,0.0333
1475.00,0.0360
1474.00,0.0397
1473.00,0.0449
1472.00,0.0510
1471.00,0.0569
1470.00,0.0624
1469.00,0.0681
1468.00,0.0743
1467.00,0.0810
1466.00,0.0886
1465.00,0.0970
1464.00,0.1045
1463.00,0.1100
1462.00,0.1137
1461.00,0.1166
1460.00,0.1187
1459.00,0.1205
1458.00,0.1220
1457.00,0.1235
1456.00,0.1241
1455.00,0.1241
1454.00,0.1236
1453.00,0.1225
1452.00,0.1205
1451.00,0.1173
1450.00,0.1126
1449.00,0.1059
1448.00,0.0971
1447.00,0.0877
1446.00,0.0790
1445.00,0.0715
1444.00,0.0651
1443.00,0.0599
1442.00,0.0559
1441.00,0.0532
1440.00,0.0514
1439.00,0.0504
1438.00,0.0499
1437.00,0.0492
1436.00,0.0474
1435.00,0.0445
1434.00,0.0409
1433.00,0.0366
1432.00,0.0323
1431.00,0.0284
1430.00,0.0254
1429.00,0.0233
1428.00,0.0219
1427.00,0.0210
1426.00,0.0205
1425.00,0.0201
1424.00,0.0196
1423.00,0.0195
1422.00,0.0195
1421.00,0.0195
1420.00,0.0194
1419.00,0.0193
1418.00,0.0191
1417.00,0.0189
1416.00,0.0187
1415.00,0.0187
1414.00,0.0188
1413.00,0.0188
1412.00,0.0188
1411.00,0.0189
1410.00,0.0191
1409.00,0.0193
1408.00,0.0194
1407.00,0.0198
1406.00,0.0202
1405.00,0.0206
1404.00,0.0211
1403.00,0.0216
1402.00,0.0223
1401.00,0.0229
1400.00,0.0235
1399.00,0.0242
1398.00,0.0249
1397.00,0.0256
1396.00,0.0262
1395.00,0.0268
1394.00,0.0276
1393.00,0.0281
1392.00,0.0287
1391.00,0.0295
1390.00,0.0306
1389.00,0.0322
1388.00,0.0346
1387.00,0.0381
1386.00,0.0428
1385.00,0.0486
1384.00,0.0563
1383.00,0.0665
1382.00,0.0798
1381.00,0.0963
1380.00,0.1161
1379.00,0.1380
1378.00,0.1586
1377.00,0.1733
1376.00,0.1779
1375.00,0.1699
1374.00,0.1513
1373.00,0.1284
1372.00,0.1070
1371.00,0.0889
1370.00,0.0741
1369.00,0.0625
1368.00,0.0542
1367.00,0.0489
1366.00,0.0460
1365.00,0.0446
1364.00,0.0445
1363.00,0.0454
1362.00,0.0469
1361.00,0.0487
1360.00,0.0500
1359.00,0.0503
1358.00,0.0493
1357.00,0.0470
1356.00,0.0436
1355.00,0.0398
1354.00,0.0362
1353.00,0.0330
1352.00,0.0304
1351.00,0.0283
1350.00,0.0266
1349.00,0.0252
1348.00,0.0241
1347.00,0.0232
1346.00,0.0224
1345.00,0.0218
1344.00,0.0212
1343.00,0.0207
1342.00,0.0202
1341.00,0.0196
1340.00,0.0191
1339.00,0.0187
1338.00,0.0184
1337.00,0.0182
1336.00,0.0182
1335.00,0.0182
1334.00,0.0184
1333.00,0.0187
1332.00,0.0190
1331.00,0.0192
1330.00,0.0192
1329.00,0.0190
1328.00,0.0186
1327.00,0.0181
1326.00,0.0174
1325.00,0.0168
1324.00,0.0161
1323.00,0.0156
1322.00,0.0151
1321.00,0.0148
1320.00,0.0145
1319.00,0.0143
1318.00,0.0141
1317.00,0.0139
1316.00,0.0137
1315.00,0.0136
1314.00,0.0136
1313.00,0.0137
1312.00,0.0138
1311.00,0.0141
1310.00,0.0146
1309.00,0.0154
1308.00,0.0165
1307.00,0.0178
1306.00,0.0190
1305.00,0.0199
1304.00,0.0203
1303.00,0.0200
1302.00,0.0194
1301.00,0.0187
1300.00,0.0183
1299.00,0.0180
1298.00,0.0179
1297.00,0.0179
1296.00,0.0177
1295.00,0.0175
1294.00,0.0171
1293.00,0.0167
1292.00,0.0163
1291.00,0.0158
1290.00,0.0154
1289.00,0.0150
1288.00,0.0147
1287.00,0.0145
1286.00,0.0144
1285.00,0.0142
1284.00,0.0141
1283.00,0.0140
1282.00,0.0139
1281.00,0.0139
1280.00,0.0139
1279.00,0.0140
1278.00,0.0141
1277.00,0.0142
1276.00,0.0144
1275.00,0.0146
1274.00,0.0148
1273.00,0.0151
1272.00,0.0154
1271.00,0.0158
1270.00,0.0161
1269.00,0.0165
1268.00,0.0170
1267.00,0.0176
1266.00,0.0181
1265.00,0.0187
1264.00,0.0193
1263.00,0.0198
1262.00,0.0203
1261.00,0.0210
1260.00,0.0217
1259.00,0.0227
1258.00,0.0238
1257.00,0.0247
1256.00,0.0252
1255.00,0.0253
1254.00,0.0248
1253.00,0.0239
1252.00,0.0230
1251.00,0.0222
1250.00,0.0215
1249.00,0.0208
1248.00,0.0203
1247.00,0.0199
1246.00,0.0196
1245.00,0.0193
1244.00,0.0191
1243.00,0.0190
1242.00,0.0189
1241.00,0.0187
1240.00,0.0184
1239.00,0.0182
1238.00,0.0179
1237.00,0.0177
1236.00,0.0174
1235.00,0.0171
1234.00,0.0168
1233.00,0.0165
1232.00,0.0162
1231.00,0.0160
1230.00,0.0158
1229.00,0.0157
1228.00,0.0156
1227.00,0.0154
1226.00,0.0154
1225.00,0.0154
1224.00,0.0155
1223.00,0.0158
1222.00,0.0161
1221.00,0.0163
1220.00,0.0165
1219.00,0.0166
1218.00,0.0164
1217.00,0.0161
1216.00,0.0157
1215.00,0.0152
1214.00,0.0147
1213.00,0.0143
1212.00,0.0138
1211.00,0.0134
1210.00,0.0131
1209.00,0.0128
1208.00,0.0127
1207.00,0.0125
1206.00,0.0123
1205.00,0.0122
1204.00,0.0121
1203.00,0.0121
1202.00,0.0121
1201.00,0.0121
1200.00,0.0121
1199.00,0.0122
1198.00,0.0123
1197.00,0.0124
1196.00,0.0125
1195.00,0.0127
1194.00,0.0128
1193.00,0.0130
1192.00,0.0132
1191.00,0.0135
1190.00,0.0137
1189.00,0.0140
1188.00,0.0142
1187.00,0.0145
1186.00,0.0148
1185.00,0.0151
1184.00,0.0155
1183.00,0.0160
1182.00,0.0165
1181.00,0.0172
1180.00,0.0179
1179.00,0.0187
1178.00,0.0197
1177.00,0.0210
1176.00,0.0225
1175.00,0.0245
1174.00,0.0271
1173.00,0.0302
1172.00,0.0340
1171.00,0.0381
1170.00,0.0421
1169.00,0.0455
1168.00,0.0478
1167.00,0.0486
1166.00,0.0482
1165.00,0.0468
1164.00,0.0450
1163.00,0.0432
1162.00,0.0415
1161.00,0.0401
1160.00,0.0390
1159.00,0.0381
1158.00,0.0375
1157.00,0.0371
1156.00,0.0369
1155.00,0.0368
1154.00,0.0367
1153.00,0.0366
1152.00,0.0363
1151.00,0.0358
1150.00,0.0351
1149.00,0.0342
1148.00,0.0333
1147.00,0.0323
1146.00,0.0314
1145.00,0.0305
1144.00,0.0297
1143.00,0.0290
1142.00,0.0283
1141.00,0.0276
1140.00,0.0270
1139.00,0.0265
1138.00,0.0261
1137.00,0.0257
1136.00,0.0253
1135.00,0.0249
1134.00,0.0247
1133.00,0.0246
1132.00,0.0245
1131.00,0.0245
1130.00,0.0244
1129.00,0.0244
1128.00,0.0244
1127.00,0.0245
1126.00,0.0246
1125.00,0.0248
1124.00,0.0249
1123.00,0.0250
1122.00,0.0251
1121.00,0.0252
1120.00,0.0253
1119.00,0.0253
1118.00,0.0253
1117.00,0.0252
1116.00,0.0252
1115.00,0.0251
1114.00,0.0250
1113.00,0.0250
1112.00,0.0250
1111.00,0.0251
1110.00,0.0252
1109.00,0.0254
1108.00,0.0257
1107.00,0.0262
1106.00,0.0268
1105.00,0.0274
1104.00,0.0279
1103.00,0.0282
1102.00,0.0282
1101.00,0.0280
1100.00,0.0276
1099.00,0.0272
1098.00,0.0267
1097.00,0.0264
1096.00,0.0260
1095.00,0.0257
1094.00,0.0255
1093.00,0.0253
1092.00,0.0252
1091.00,0.0251
1090.00,0.0251
1089.00,0.0249
1088.00,0.0248
1087.00,0.0246
1086.00,0.0245
1085.00,0.0244
1084.00,0.0243
1083.00,0.0242
1082.00,0.0240
1081.00,0.0238
1080.00,0.0236
1079.00,0.0234
1078.00,0.0232
1077.00,0.0231
1076.00,0.0230
1075.00,0.0230
1074.00,0.0230
1073.00,0.0229
1072.00,0.0228
1071.00,0.0226
1070.00,0.0223
1069.00,0.0219
1068.00,0.0215
1067.00,0.0212
1066.00,0.0209
1065.00,0.0206
1064.00,0.0204
1063.00,0.0202
1062.00,0.0200
1061.00,0.0199
1060.00,0.0197
1059.00,0.0195
1058.00,0.0193
1057.00,0.0190
1056.00,0.0187
1055.00,0.0184
1054.00,0.0182
1053.00,0.0180
1052.00,0.0179
1051.00,0.0178
1050.00,0.0178
1049.00,0.0179
1048.00,0.0180
1047.00,0.0181
1046.00,0.0182
1045.00,0.0182
1044.00,0.0180
1043.00,0.0177
1042.00,0.0174
1041.00,0.0171
1040.00,0.0168
1039.00,0.0166
1038.00,0.0165
1037.00,0.0164
1036.00,0.0164
1035.00,0.0164
1034.00,0.0163
1033.00,0.0161
1032.00,0.0158
1031.00,0.0156
1030.00,0.0154
1029.00,0.0153
1028.00,0.0150
1027.00,0.0148
1026.00,0.0147
1025.00,0.0147
1024.00,0.0146
1023.00,0.0146
1022.00,0.0145
1021.00,0.0145
1020.00,0.0145
1019.00,0.0146
1018.00,0.0148
1017.00,0.0149
1016.00,0.0151
1015.00,0.0153
1014.00,0.0156
1013.00,0.0159
1012.00,0.0163
1011.00,0.0167
1010.00,0.0171
1009.00,0.0175
1008.00,0.0181
1007.00,0.0189
1006.00,0.0200
1005.00,0.0214
1004.00,0.0232
1003.00,0.0257
1002.00,0.0290
1001.00,0.0331
1000.00,0.0376
999.00,0.0415
998.00,0.0437
997.00,0.0434
996.00,0.0406
995.00,0.0363
994.00,0.0315
993.00,0.0271
992.00,0.0236
991.00,0.0210
990.00,0.0191
989.00,0.0180
988.00,0.0173
987.00,0.0169
986.00,0.0168
985.00,0.0170
984.00,0.0176
983.00,0.0185
982.00,0.0198
981.00,0.0216
980.00,0.0241
979.00,0.0274
978.00,0.0316
977.00,0.0367
976.00,0.0425
975.00,0.0482
974.00,0.0528
973.00,0.0554
972.00,0.0550
971.00,0.0519
970.00,0.0469
969.00,0.0415
968.00,0.0366
967.00,0.0327
966.00,0.0296
965.00,0.0273
964.00,0.0255
963.00,0.0242
962.00,0.0232
961.00,0.0227
960.00,0.0224
959.00,0.0223
958.00,0.0223
957.00,0.0221
956.00,0.0219
955.00,0.0216
954.00,0.0214
953.00,0.0214
952.00,0.0213
951.00,0.0211
950.00,0.0208
949.00,0.0205
948.00,0.0201
947.00,0.0200
946.00,0.0200
945.00,0.0202
944.00,0.0204
943.00,0.0206
942.00,0.0207
941.00,0.0206
940.00,0.0203
939.00,0.0198
938.00,0.0192
937.00,0.0184
936.00,0.0177
935.00,0.0169
934.00,0.0162
933.00,0.0155
932.00,0.0149
931.00,0.0144
930.00,0.0139
929.00,0.0135
928.00,0.0131
927.00,0.0127
926.00,0.0125
925.00,0.0123
924.00,0.0122
923.00,0.0121
922.00,0.0121
921.00,0.0120
920.00,0.0120
919.00,0.0119
918.00,0.0118
917.00,0.0118
916.00,0.0118
915.00,0.0118
914.00,0.0119
913.00,0.0121
912.00,0.0122
911.00,0.0124
910.00,0.0125
909.00,0.0126
908.00,0.0126
907.00,0.0129
906.00,0.0134
905.00,0.0143
904.00,0.0157
903.00,0.0174
902.00,0.0192
901.00,0.0208
900.00,0.0218
899.00,0.0221
898.00,0.0215
897.00,0.0202
896.00,0.0185
895.00,0.0168
894.00,0.0154
893.00,0.0143
892.00,0.0135
891.00,0.0130
890.00,0.0126
889.00,0.0121
888.00,0.0118
887.00,0.0116
886.00,0.0116
885.00,0.0117
884.00,0.0118
883.00,0.0118
882.00,0.0119
881.00,0.0119
880.00,0.0118
879.00,0.0118
878.00,0.0118
877.00,0.0118
876.00,0.0118
875.00,0.0118
874.00,0.0118
873.00,0.0118
872.00,0.0117
871.00,0.0117
870.00,0.0117
869.00,0.0117
868.00,0.0117
867.00,0.0117
866.00,0.0116
865.00,0.0116
864.00,0.0116
863.00,0.0116
862.00,0.0116
861.00,0.0116
860.00,0.0116
859.00,0.0117
858.00,0.0117
857.00,0.0119
856.00,0.0121
855.00,0.0124
854.00,0.0127
853.00,0.0131
852.00,0.0136
851.00,0.0142
850.00,0.0148
849.00,0.0155
848.00,0.0167
847.00,0.0185
846.00,0.0212
845.00,0.0252
844.00,0.0306
843.00,0.0366
842.00,0.0414
841.00,0.0429
840.00,0.0406
839.00,0.0355
838.00,0.0298
837.00,0.0252
836.00,0.0221
835.00,0.0201
834.00,0.0189
833.00,0.0181
832.00,0.0175
831.00,0.0171
830.00,0.0169
829.00,0.0168
828.00,0.0166
827.00,0.0163
826.00,0.0160
825.00,0.0158
824.00,0.0156
823.00,0.0156
822.00,0.0156
821.00,0.0158
820.00,0.0160
819.00,0.0162
818.00,0.0166
817.00,0.0172
816.00,0.0180
815.00,0.0191
814.00,0.0203
813.00,0.0217
812.00,0.0231
811.00,0.0244
810.00,0.0253
809.00,0.0258
808.00,0.0257
807.00,0.0250
806.00,0.0237
805.00,0.0223
804.00,0.0208
803.00,0.0194
802.00,0.0183
801.00,0.0174
800.00,0.0169
799.00,0.0165
798.00,0.0160
797.00,0.0155
796.00,0.0149
795.00,0.0143
794.00,0.0139
793.00,0.0136
792.00,0.0134
791.00,0.0132
790.00,0.0131
789.00,0.0129
788.00,0.0128
787.00,0.0128
786.00,0.0127
785.00,0.0126
784.00,0.0125
783.00,0.0123
782.00,0.0120
781.00,0.0117
780.00,0.0115
779.00,0.0113
778.00,0.0112
777.00,0.0111
776.00,0.0112
775.00,0.0114
774.00,0.0116
773.00,0.0118
772.00,0.0120
771.00,0.0122
770.00,0.0124
769.00,0.0127
768.00,0.0129
767.00,0.0129
766.00,0.0129
765.00,0.0127
764.00,0.0125
763.00,0.0123
762.00,0.0121
761.00,0.0118
760.00,0.0115
759.00,0.0112
758.00,0.0111
757.00,0.0111
756.00,0.0112
755.00,0.0113
754.00,0.0112
753.00,0.0111
752.00,0.0111
751.00,0.0111
750.00,0.0111
749.00,0.0112
748.00,0.0113
747.00,0.0115
746.00,0.0119
745.00,0.0123
744.00,0.0126
743.00,0.0128
742.00,0.0130
741.00,0.0132
740.00,0.0135
739.00,0.0139
738.00,0.0144
737.00,0.0149
736.00,0.0155
735.00,0.0160
734.00,0.0164
733.00,0.0167
732.00,0.0169
731.00,0.0171
730.00,0.0173
729.00,0.0173
728.00,0.0173
727.00,0.0172
726.00,0.0171
725.00,0.0170
724.00,0.0170
723.00,0.0169
722.00,0.0166
721.00,0.0162
720.00,0.0157
719.00,0.0152
718.00,0.0147
717.00,0.0143
716.00,0.0140
715.00,0.0139
714.00,0.0137
713.00,0.0136
712.00,0.0135
711.00,0.0136
710.00,0.0139
709.00,0.0142
708.00,0.0145
707.00,0.0149
706.00,0.0152
705.00,0.0154
704.00,0.0154
703.00,0.0152
702.00,0.0148
701.00,0.0143
700.00,0.0137
699.00,0.0132
698.00,0.0127
697.00,0.0124
696.00,0.0122
695.00,0.0121
694.00,0.0120
693.00,0.0119
692.00,0.0118
691.00,0.0117
690.00,0.0116
689.00,0.0116
688.00,0.0116
687.00,0.0117
686.00,0.0120
685.00,0.0122
684.00,0.0122
683.00,0.0121
682.00,0.0119
681.00,0.0120
680.00,0.0120
679.00,0.0121
678.00,0.0120
677.00,0.0119
676.00,0.0116
675.00,0.0114
674.00,0.0113
673.00,0.0114
672.00,0.0116
671.00,0.0120
670.00,0.0124
669.00,0.0128
668.00,0.0129
667.00,0.0126
666.00,0.0122
665.00,0.0120
664.00,0.0119
663.00,0.0118
662.00,0.0118
661.00,0.0119
660.00,0.0119
659.00,0.0119
658.00,0.0119
657.00,0.0119
656.00,0.0120
655.00,0.0121
654.00,0.0122
653.00,0.0122
652.00,0.0122
651.00,0.0123
650.00,0.0124
649.00,0.0127
648.00,0.0128
647.00,0.0127
646.00,0.0126
645.00,0.0125
644.00,0.0125
643.00,0.0125
642.00,0.0124
641.00,0.0123
640.00,0.0123
639.00,0.0125
638.00,0.0129
637.00,0.0132
636.00,0.0133
635.00,0.0133
634.00,0.0133
633.00,0.0133
632.00,0.0133
631.00,0.0132
630.00,0.0131
629.00,0.0130
628.00,0.0130
627.00,0.0131
626.00,0.0132
625.00,0.0133
624.00,0.0134
623.00,0.0135
622.00,0.0138
621.00,0.0140
620.00,0.0142
619.00,0.0142
618.00,0.0140
617.00,0.0136
616.00,0.0132
615.00,0.0129
614.00,0.0128
613.00,0.0129
612.00,0.0131
611.00,0.0132
610.00,0.0131
609.00,0.0129
608.00,0.0128
607.00,0.0127
606.00,0.0127
605.00,0.0128
604.00,0.0130
603.00,0.0134
602.00,0.0137
601.00,0.0137
600.00,0.0135
599.00,0.0130
598.00,0.0127
597.00,0.0128
596.00,0.0130
595.00,0.0133
594.00,0.0133
593.00,0.0132
592.00,0.0131
591.00,0.0130
590.00,0.0130
589.00,0.0132
588.00,0.0134
587.00,0.0136
586.00,0.0137
585.00,0.0137
584.00,0.0138
583.00,0.0140
582.00,0.0143
581.00,0.0145
580.00,0.0145
579.00,0.0143
578.00,0.0142
577.00,0.0141
576.00,0.0139
575.00,0.0138
574.00,0.0138
573.00,0.0138
572.00,0.0136
571.00,0.0135
570.00,0.0134
569.00,0.0134
568.00,0.0136
567.00,0.0138
566.00,0.0139
565.00,0.0138
564.00,0.0137
563.00,0.0134
562.00,0.0133
561.00,0.0132
560.00,0.0132
559.00,0.0132
558.00,0.0132
557.00,0.0132
556.00,0.0134
555.00,0.0138
554.00,0.0140
553.00,0.0139
552.00,0.0137
551.00,0.0135
550.00,0.0134
549.00,0.0135
548.00,0.0137
547.00,0.0139
546.00,0.0142
545.00,0.0143
544.00,0.0142
543.00,0.0142
542.00,0.0143
541.00,0.0145
540.00,0.0147
539.00,0.0149
538.00,0.0150
537.00,0.0151
536.00,0.0152
535.00,0.0152
534.00,0.0152
533.00,0.0151
532.00,0.0149
531.00,0.0148
530.00,0.0150
529.00,0.0153
528.00,0.0154
527.00,0.0154
526.00,0.0155
525.00,0.0159
524.00,0.0161
523.00,0.0163
522.00,0.0162
521.00,0.0159
520.00,0.0151
519.00,0.0140
518.00,0.0131
517.00,0.0128
516.00,0.0129
515.00,0.0131
514.00,0.0131
513.00,0.0130
512.00,0.0130
511.00,0.0131
510.00,0.0134
509.00,0.0136
508.00,0.0138
507.00,0.0137
506.00,0.0134
505.00,0.0129
504.00,0.0124
503.00,0.0121
502.00,0.0120
501.00,0.0120
500.00,0.0120
499.00,0.0117
498.00,0.0116
497.00,0.0120
496.00,0.0131
495.00,0.0141
494.00,0.0146
493.00,0.0143
492.00,0.0137
491.00,0.0134
490.00,0.0133
489.00,0.0132
488.00,0.0130
487.00,0.0129
486.00,0.0132
485.00,0.0136
484.00,0.0138
483.00,0.0140
482.00,0.0142
481.00,0.0145
480.00,0.0148
479.00,0.0150
478.00,0.0150
477.00,0.0147
476.00,0.0143
475.00,0.0142
474.00,0.0147
473.00,0.0156
472.00,0.0162
471.00,0.0161
470.00,0.0157
469.00,0.0156
468.00,0.0160
467.00,0.0166
466.00,0.0171
465.00,0.0175
464.00,0.0179
463.00,0.0186
462.00,0.0195
461.00,0.0207
460.00,0.0218
459.00,0.0223
458.00,0.0222
457.00,0.0217
456.00,0.0210
455.00,0.0202
454.00,0.0192
453.00,0.0179
452.00,0.0165
451.00,0.0153
450.00,0.0145
