Created as New Dataset,Sample 061 By Administrator Date Friday, September 05 2025
cm-1,A
4000.00,0.0024
3999.00,0.0024
3998.00,0.0024
3997.00,0.0024
3996.00,0.0024
3995.00,0.0024
3994.00,0.0024
3993.00,0.0024
3992.00,0.0024
3991.00,0.0024
3990.00,0.0024
3989.00,0.0024
3988.00,0.0024
3987.00,0.0024
3986.00,0.0024
3985.00,0.0024
3984.00,0.0024
3983.00,0.0024
3982.00,0.0023
3981.00,0.0023
3980.00,0.0022
3979.00,0.0022
3978.00,0.0022
3977.00,0.0022
3976.00,0.0023
3975.00,0.0023
3974.00,0.0023
3973.00,0.0023
3972.00,0.0023
3971.00,0.0023
3970.00,0.0023
3969.00,0.0023
3968.00,0.0023
3967.00,0.0023
3966.00,0.0023
3965.00,0.0023
3964.00,0.0023
3963.00,0.0023
3962.00,0.0022
3961.00,0.0023
3960.00,0.0023
3959.00,0.0023
3958.00,0.0023
3957.00,0.0023
3956.00,0.0023
3955.00,0.0022
3954.00,0.0022
3953.00,0.0022
3952.00,0.0023
3951.00,0.0023
3950.00,0.0023
3949.00,0.0023
3948.00,0.0022
3947.00,0.0022
3946.00,0.0022
3945.00,0.0022
3944.00,0.0022
3943.00,0.0022
3942.00,0.0022
3941.00,0.0022
3940.00,0.0023
3939.00,0.0023
3938.00,0.0023
3937.00,0.0023
3936.00,0.0023
3935.00,0.0023
3934.00,0.0023
3933.00,0.0024
3932.00,0.0024
3931.00,0.0023
3930.00,0.0023
3929.00,0.0023
3928.00,0.0023
3927.00,0.0023
3926.00,0.0023
3925.00,0.0023
3924.00,0.0023
3923.00,0.0023
3922.00,0.0023
3921.00,0.0023
3920.00,0.0023
3919.00,0.0023
3918.00,0.0023
3917.00,0.0022
3916.00,0.0022
3915.00,0.0022
3914.00,0.0022
3913.00,0.0023
3912.00,0.0023
3911.00,0.0023
3910.00,0.0023
3909.00,0.0023
3908.00,0.0023
3907.00,0.0023
3906.00,0.0023
3905.00,0.0023
3904.00,0.0023
3903.00,0.0022
3902.00,0.0022
3901.00,0.0022
3900.00,0.0022
3899.00,0.0022
3898.00,0.0022
3897.00,0.0022
3896.00,0.0022
3895.00,0.0023
3894.00,0.0023
3893.00,0.0023
3892.00,0.0023
3891.00,0.0023
3890.00,0.0022
3889.00,0.0022
3888.00,0.0021
3887.00,0.0021
3886.00,0.0021
3885.00,0.0022
3884.00,0.0021
3883.00,0.0021
3882.00,0.0021
3881.00,0.0021
3880.00,0.0021
3879.00,0.0021
3878.00,0.0022
3877.00,0.0022
3876.00,0.0022
3875.00,0.0023
3874.00,0.0023
3873.00,0.0023
3872.00,0.0023
3871.00,0.0023
3870.00,0.0022
3869.00,0.0022
3868.00,0.0022
3867.00,0.0021
3866.00,0.0021
3865.00,0.0021
3864.00,0.0021
3863.00,0.0021
3862.00,0.0021
3861.00,0.0021
3860.00,0.0021
3859.00,0.0021
3858.00,0.0021
3857.00,0.0021
3856.00,0.0021
3855.00,0.0021
3854.00,0.0021
3853.00,0.0021
3852.00,0.0021
3851.00,0.0021
3850.00,0.0021
3849.00,0.0021
3848.00,0.0021
3847.00,0.0021
3846.00,0.0022
3845.00,0.0022
3844.00,0.0022
3843.00,0.0021
3842.00,0.0021
3841.00,0.0021
3840.00,0.0021
3839.00,0.0020
3838.00,0.0020
3837.00,0.0020
3836.00,0.0020
3835.00,0.0020
3834.00,0.0020
3833.00,0.0020
3832.00,0.0020
3831.00,0.0021
3830.00,0.0021
3829.00,0.0021
3828.00,0.0021
3827.00,0.0021
3826.00,0.0021
3825.00,0.0021
3824.00,0.0022
3823.00,0.0022
3822.00,0.0022
3821.00,0.0022
3820.00,0.0021
3819.00,0.0021
3818.00,0.0021
3817.00,0.0020
3816.00,0.0020
3815.00,0.0021
3814.00,0.0021
3813.00,0.0021
3812.00,0.0021
3811.00,0.0022
3810.00,0.0022
3809.00,0.0022
3808.00,0.0021
3807.00,0.0021
3806.00,0.0021
3805.00,0.0020
3804.00,0.0020
3803.00,0.0020
3802.00,0.0020
3801.00,0.0020
3800.00,0.0021
3799.00,0.0021
3798.00,0.0021
3797.00,0.0021
3796.00,0.0021
3795.00,0.0021
3794.00,0.0021
3793.00,0.0021
3792.00,0.0021
3791.00,0.0021
3790.00,0.0022
3789.00,0.0022
3788.00,0.0022
3787.00,0.0022
3786.00,0.0022
3785.00,0.0022
3784.00,0.0022
3783.00,0.0022
3782.00,0.0022
3781.00,0.0021
3780.00,0.0021
3779.00,0.0021
3778.00,0.0021
3777.00,0.0021
3776.00,0.0021
3775.00,0.0021
3774.00,0.0021
3773.00,0.0021
3772.00,0.0021
3771.00,0.0021
3770.00,0.0021
3769.00,0.0021
3768.00,0.0021
3767.00,0.0021
3766.00,0.0021
3765.00,0.0021
3764.00,0.0021
3763.00,0.0021
3762.00,0.0021
3761.00,0.0021
3760.00,0.0021
3759.00,0.0021
3758.00,0.0021
3757.00,0.0021
3756.00,0.0021
3755.00,0.0021
3754.00,0.0021
3753.00,0.0021
3752.00,0.0021
3751.00,0.0021
3750.00,0.0020
3749.00,0.0020
3748.00,0.0020
3747.00,0.0019
3746.00,0.0019
3745.00,0.0019
3744.00,0.0019
3743.00,0.0019
3742.00,0.0019
3741.00,0.0019
3740.00,0.0019
3739.00,0.0020
3738.00,0.0020
3737.00,0.0020
3736.00,0.0020
3735.00,0.0020
3734.00,0.0019
3733.00,0.0019
3732.00,0.0019
3731.00,0.0019
3730.00,0.0019
3729.00,0.0019
3728.00,0.0019
3727.00,0.0019
3726.00,0.0019
3725.00,0.0018
3724.00,0.0018
3723.00,0.0018
3722.00,0.0019
3721.00,0.0019
3720.00,0.0019
3719.00,0.0019
3718.00,0.0019
3717.00,0.0020
3716.00,0.0020
3715.00,0.0020
3714.00,0.0020
3713.00,0.0019
3712.00,0.0018
3711.00,0.0017
3710.00,0.0017
3709.00,0.0017
3708.00,0.0018
3707.00,0.0018
3706.00,0.0018
3705.00,0.0019
3704.00,0.0019
3703.00,0.0020
3702.00,0.0020
3701.00,0.0020
3700.00,0.0020
3699.00,0.0020
3698.00,0.0020
3697.00,0.0020
3696.00,0.0020
3695.00,0.0020
3694.00,0.0020
3693.00,0.0020
3692.00,0.0020
3691.00,0.0021
3690.00,0.0021
3689.00,0.0021
3688.00,0.0021
3687.00,0.0021
3686.00,0.0021
3685.00,0.0021
3684.00,0.0022
3683.00,0.0022
3682.00,0.0022
3681.00,0.0022
3680.00,0.0022
3679.00,0.0022
3678.00,0.0022
3677.00,0.0022
3676.00,0.0021
3675.00,0.0021
3674.00,0.0021
3673.00,0.0021
3672.00,0.0021
3671.00,0.0021
3670.00,0.0022
3669.00,0.0022
3668.00,0.0023
3667.00,0.0023
3666.00,0.0023
3665.00,0.0024
3664.00,0.0024
3663.00,0.0024
3662.00,0.0024
3661.00,0.0024
3660.00,0.0024
3659.00,0.0024
3658.00,0.0024
3657.00,0.0025
3656.00,0.0025
3655.00,0.0025
3654.00,0.0025
3653.00,0.0026
3652.00,0.0026
3651.00,0.0026
3650.00,0.0026
3649.00,0.0026
3648.00,0.0027
3647.00,0.0027
3646.00,0.0027
3645.00,0.0027
3644.00,0.0027
3643.00,0.0028
3642.00,0.0029
3641.00,0.0029
3640.00,0.0030
3639.00,0.0030
3638.00,0.0031
3637.00,0.0031
3636.00,0.0031
3635.00,0.0032
3634.00,0.0032
3633.00,0.0032
3632.00,0.0032
3631.00,0.0032
3630.00,0.0032
3629.00,0.0033
3628.00,0.0034
3627.00,0.0035
3626.00,0.0035
3625.00,0.0036
3624.00,0.0036
3623.00,0.0036
3622.00,0.0036
3621.00,0.0036
3620.00,0.0036
3619.00,0.0037
3618.00,0.0039
3617.00,0.0039
3616.00,0.0040
3615.00,0.0040
3614.00,0.0041
3613.00,0.0041
3612.00,0.0041
3611.00,0.0042
3610.00,0.0042
3609.00,0.0043
3608.00,0.0043
3607.00,0.0044
3606.00,0.0044
3605.00,0.0045
3604.00,0.0045
3603.00,0.0046
3602.00,0.0046
3601.00,0.0046
3600.00,0.0046
3599.00,0.0046
3598.00,0.0047
3597.00,0.0048
3596.00,0.0049
3595.00,0.0049
3594.00,0.0050
3593.00,0.0050
3592.00,0.0051
3591.00,0.0051
3590.00,0.0052
3589.00,0.0052
3588.00,0.0053
3587.00,0.0054
3586.00,0.0055
3585.00,0.0056
3584.00,0.0056
3583.00,0.0056
3582.00,0.0057
3581.00,0.0057
3580.00,0.0057
3579.00,0.0058
3578.00,0.0059
3577.00,0.0060
3576.00,0.0061
3575.00,0.0061
3574.00,0.0062
3573.00,0.0063
3572.00,0.0063
3571.00,0.0063
3570.00,0.0063
3569.00,0.0064
3568.00,0.0065
3567.00,0.0066
3566.00,0.0067
3565.00,0.0068
3564.00,0.0068
3563.00,0.0069
3562.00,0.0069
3561.00,0.0069
3560.00,0.0070
3559.00,0.0071
3558.00,0.0071
3557.00,0.0072
3556.00,0.0072
3555.00,0.0073
3554.00,0.0074
3553.00,0.0075
3552.00,0.0076
3551.00,0.0077
3550.00,0.0077
3549.00,0.0078
3548.00,0.0079
3547.00,0.0079
3546.00,0.0080
3545.00,0.0081
3544.00,0.0082
3543.00,0.0082
3542.00,0.0083
3541.00,0.0083
3540.00,0.0084
3539.00,0.0085
3538.00,0.0085
3537.00,0.0086
3536.00,0.0087
3535.00,0.0088
3534.00,0.0088
3533.00,0.0089
3532.00,0.0089
3531.00,0.0090
3530.00,0.0091
3529.00,0.0092
3528.00,0.0093
3527.00,0.0094
3526.00,0.0095
3525.00,0.0095
3524.00,0.0096
3523.00,0.0097
3522.00,0.0098
3521.00,0.0098
3520.00,0.0099
3519.00,0.0100
3518.00,0.0101
3517.00,0.0101
3516.00,0.0102
3515.00,0.0103
3514.00,0.0104
3513.00,0.0105
3512.00,0.0106
3511.00,0.0107
3510.00,0.0108
3509.00,0.0109
3508.00,0.0109
3507.00,0.0110
3506.00,0.0111
3505.00,0.0112
3504.00,0.0113
3503.00,0.0114
3502.00,0.0115
3501.00,0.0115
3500.00,0.0116
3499.00,0.0117
3498.00,0.0118
3497.00,0.0119
3496.00,0.0121
3495.00,0.0122
3494.00,0.0122
3493.00,0.0123
3492.00,0.0124
3491.00,0.0124
3490.00,0.0125
3489.00,0.0126
3488.00,0.0127
3487.00,0.0128
3486.00,0.0129
3485.00,0.0129
3484.00,0.0130
3483.00,0.0131
3482.00,0.0132
3481.00,0.0133
3480.00,0.0134
3479.00,0.0134
3478.00,0.0135
3477.00,0.0135
3476.00,0.0136
3475.00,0.0137
3474.00,0.0137
3473.00,0.0138
3472.00,0.0139
3471.00,0.0140
3470.00,0.0140
3469.00,0.0141
3468.00,0.0141
3467.00,0.0142
3466.00,0.0142
3465.00,0.0142
3464.00,0.0143
3463.00,0.0143
3462.00,0.0143
3461.00,0.0144
3460.00,0.0144
3459.00,0.0145
3458.00,0.0145
3457.00,0.0145
3456.00,0.0146
3455.00,0.0146
3454.00,0.0146
3453.00,0.0147
3452.00,0.0147
3451.00,0.0147
3450.00,0.0147
3449.00,0.0148
3448.00,0.0148
3447.00,0.0149
3446.00,0.0149
3445.00,0.0149
3444.00,0.0149
3443.00,0.0149
3442.00,0.0150
3441.00,0.0150
3440.00,0.0151
3439.00,0.0151
3438.00,0.0151
3437.00,0.0152
3436.00,0.0152
3435.00,0.0152
3434.00,0.0152
3433.00,0.0152
3432.00,0.0152
3431.00,0.0151
3430.00,0.0151
3429.00,0.0151
3428.00,0.0151
3427.00,0.0151
3426.00,0.0152
3425.00,0.0152
3424.00,0.0152
3423.00,0.0152
3422.00,0.0151
3421.00,0.0151
3420.00,0.0151
3419.00,0.0152
3418.00,0.0152
3417.00,0.0152
3416.00,0.0152
3415.00,0.0152
3414.00,0.0152
3413.00,0.0152
3412.00,0.0152
3411.00,0.0152
3410.00,0.0152
3409.00,0.0152
3408.00,0.0152
3407.00,0.0153
3406.00,0.0153
3405.00,0.0153
3404.00,0.0154
3403.00,0.0154
3402.00,0.0154
3401.00,0.0154
3400.00,0.0154
3399.00,0.0154
3398.00,0.0153
3397.00,0.0153
3396.00,0.0153
3395.00,0.0152
3394.00,0.0152
3393.00,0.0153
3392.00,0.0153
3391.00,0.0153
3390.00,0.0153
3389.00,0.0153
3388.00,0.0152
3387.00,0.0152
3386.00,0.0151
3385.00,0.0151
3384.00,0.0151
3383.00,0.0151
3382.00,0.0151
3381.00,0.0150
3380.00,0.0150
3379.00,0.0150
3378.00,0.0149
3377.00,0.0149
3376.00,0.0149
3375.00,0.0149
3374.00,0.0149
3373.00,0.0149
3372.00,0.0149
3371.00,0.0148
3370.00,0.0148
3369.00,0.0148
3368.00,0.0148
3367.00,0.0147
3366.00,0.0147
3365.00,0.0146
3364.00,0.0146
3363.00,0.0146
3362.00,0.0145
3361.00,0.0145
3360.00,0.0145
3359.00,0.0145
3358.00,0.0144
3357.00,0.0144
3356.00,0.0143
3355.00,0.0143
3354.00,0.0143
3353.00,0.0143
3352.00,0.0143
3351.00,0.0143
3350.00,0.0143
3349.00,0.0143
3348.00,0.0142
3347.00,0.0141
3346.00,0.0141
3345.00,0.0140
3344.00,0.0139
3343.00,0.0139
3342.00,0.0139
3341.00,0.0139
3340.00,0.0139
3339.00,0.0139
3338.00,0.0139
3337.00,0.0138
3336.00,0.0137
3335.00,0.0137
3334.00,0.0136
3333.00,0.0136
3332.00,0.0135
3331.00,0.0135
3330.00,0.0135
3329.00,0.0135
3328.00,0.0134
3327.00,0.0134
3326.00,0.0134
3325.00,0.0133
3324.00,0.0133
3323.00,0.0133
3322.00,0.0133
3321.00,0.0132
3320.00,0.0132
3319.00,0.0131
3318.00,0.0130
3317.00,0.0130
3316.00,0.0130
3315.00,0.0130
3314.00,0.0130
3313.00,0.0129
3312.00,0.0129
3311.00,0.0128
3310.00,0.0128
3309.00,0.0127
3308.00,0.0127
3307.00,0.0126
3306.00,0.0126
3305.00,0.0126
3304.00,0.0125
3303.00,0.0125
3302.00,0.0125
3301.00,0.0125
3300.00,0.0125
3299.00,0.0125
3298.00,0.0125
3297.00,0.0125
3296.00,0.0124
3295.00,0.0124
3294.00,0.0124
3293.00,0.0123
3292.00,0.0123
3291.00,0.0123
3290.00,0.0123
3289.00,0.0122
3288.00,0.0122
3287.00,0.0121
3286.00,0.0120
3285.00,0.0120
3284.00,0.0120
3283.00,0.0119
3282.00,0.0119
3281.00,0.0119
3280.00,0.0119
3279.00,0.0118
3278.00,0.0118
3277.00,0.0117
3276.00,0.0117
3275.00,0.0117
3274.00,0.0117
3273.00,0.0117
3272.00,0.0117
3271.00,0.0116
3270.00,0.0116
3269.00,0.0115
3268.00,0.0115
3267.00,0.0114
3266.00,0.0114
3265.00,0.0113
3264.00,0.0113
3263.00,0.0113
3262.00,0.0112
3261.00,0.0112
3260.00,0.0112
3259.00,0.0111
3258.00,0.0111
3257.00,0.0111
3256.00,0.0111
3255.00,0.0110
3254.00,0.0110
3253.00,0.0110
3252.00,0.0109
3251.00,0.0109
3250.00,0.0109
3249.00,0.0108
3248.00,0.0108
3247.00,0.0107
3246.00,0.0107
3245.00,0.0107
3244.00,0.0106
3243.00,0.0106
3242.00,0.0107
3241.00,0.0106
3240.00,0.0106
3239.00,0.0105
3238.00,0.0105
3237.00,0.0104
3236.00,0.0104
3235.00,0.0104
3234.00,0.0103
3233.00,0.0103
3232.00,0.0103
3231.00,0.0103
3230.00,0.0103
3229.00,0.0103
3228.00,0.0103
3227.00,0.0103
3226.00,0.0102
3225.00,0.0102
3224.00,0.0102
3223.00,0.0102
3222.00,0.0102
3221.00,0.0102
3220.00,0.0102
3219.00,0.0102
3218.00,0.0102
3217.00,0.0102
3216.00,0.0102
3215.00,0.0101
3214.00,0.0101
3213.00,0.0100
3212.00,0.0100
3211.00,0.0099
3210.00,0.0099
3209.00,0.0099
3208.00,0.0099
3207.00,0.0099
3206.00,0.0099
3205.00,0.0099
3204.00,0.0099
3203.00,0.0099
3202.00,0.0098
3201.00,0.0097
3200.00,0.0097
3199.00,0.0097
3198.00,0.0096
3197.00,0.0096
3196.00,0.0096
3195.00,0.0096
3194.00,0.0096
3193.00,0.0095
3192.00,0.0095
3191.00,0.0094
3190.00,0.0094
3189.00,0.0094
3188.00,0.0093
3187.00,0.0093
3186.00,0.0093
3185.00,0.0093
3184.00,0.0092
3183.00,0.0091
3182.00,0.0090
3181.00,0.0089
3180.00,0.0089
3179.00,0.0089
3178.00,0.0088
3177.00,0.0088
3176.00,0.0087
3175.00,0.0087
3174.00,0.0086
3173.00,0.0085
3172.00,0.0085
3171.00,0.0084
3170.00,0.0084
3169.00,0.0084
3168.00,0.0083
3167.00,0.0083
3166.00,0.0083
3165.00,0.0082
3164.00,0.0082
3163.00,0.0081
3162.00,0.0081
3161.00,0.0081
3160.00,0.0081
3159.00,0.0081
3158.00,0.0080
3157.00,0.0080
3156.00,0.0079
3155.00,0.0079
3154.00,0.0078
3153.00,0.0078
3152.00,0.0078
3151.00,0.0077
3150.00,0.0077
3149.00,0.0076
3148.00,0.0076
3147.00,0.0076
3146.00,0.0076
3145.00,0.0076
3144.00,0.0076
3143.00,0.0075
3142.00,0.0075
3141.00,0.0074
3140.00,0.0074
3139.00,0.0074
3138.00,0.0073
3137.00,0.0073
3136.00,0.0072
3135.00,0.0072
3134.00,0.0071
3133.00,0.0071
3132.00,0.0070
3131.00,0.0070
3130.00,0.0069
3129.00,0.0069
3128.00,0.0068
3127.00,0.0068
3126.00,0.0067
3125.00,0.0067
3124.00,0.0066
3123.00,0.0066
3122.00,0.0066
3121.00,0.0065
3120.00,0.0065
3119.00,0.0065
3118.00,0.0065
3117.00,0.0065
3116.00,0.0065
3115.00,0.0064
3114.00,0.0064
3113.00,0.0063
3112.00,0.0062
3111.00,0.0062
3110.00,0.0062
3109.00,0.0062
3108.00,0.0062
3107.00,0.0062
3106.00,0.0061
3105.00,0.0061
3104.00,0.0060
3103.00,0.0060
3102.00,0.0060
3101.00,0.0060
3100.00,0.0060
3099.00,0.0059
3098.00,0.0059
3097.00,0.0059
3096.00,0.0059
3095.00,0.0059
3094.00,0.0059
3093.00,0.0058
3092.00,0.0058
3091.00,0.0057
3090.00,0.0057
3089.00,0.0057
3088.00,0.0057
3087.00,0.0057
3086.00,0.0057
3085.00,0.0056
3084.00,0.0056
3083.00,0.0056
3082.00,0.0056
3081.00,0.0056
3080.00,0.0056
3079.00,0.0056
3078.00,0.0055
3077.00,0.0055
3076.00,0.0055
3075.00,0.0056
3074.00,0.0056
3073.00,0.0056
3072.00,0.0056
3071.00,0.0056
3070.00,0.0056
3069.00,0.0056
3068.00,0.0056
3067.00,0.0056
3066.00,0.0056
3065.00,0.0056
3064.00,0.0056
3063.00,0.0056
3062.00,0.0056
3061.00,0.0056
3060.00,0.0056
3059.00,0.0056
3058.00,0.0056
3057.00,0.0056
3056.00,0.0057
3055.00,0.0057
3054.00,0.0057
3053.00,0.0057
3052.00,0.0057
3051.00,0.0057
3050.00,0.0057
3049.00,0.0057
3048.00,0.0057
3047.00,0.0057
3046.00,0.0057
3045.00,0.0057
3044.00,0.0057
3043.00,0.0057
3042.00,0.0057
3041.00,0.0058
3040.00,0.0059
3039.00,0.0059
3038.00,0.0059
3037.00,0.0059
3036.00,0.0059
3035.00,0.0059
3034.00,0.0059
3033.00,0.0059
3032.00,0.0060
3031.00,0.0060
3030.00,0.0060
3029.00,0.0061
3028.00,0.0061
3027.00,0.0062
3026.00,0.0063
3025.00,0.0063
3024.00,0.0064
3023.00,0.0064
3022.00,0.0065
3021.00,0.0065
3020.00,0.0066
3019.00,0.0066
3018.00,0.0067
3017.00,0.0068
3016.00,0.0068
3015.00,0.0069
3014.00,0.0071
3013.00,0.0072
3012.00,0.0073
3011.00,0.0075
3010.00,0.0076
3009.00,0.0077
3008.00,0.0079
3007.00,0.0080
3006.00,0.0082
3005.00,0.0084
3004.00,0.0086
3003.00,0.0088
3002.00,0.0090
3001.00,0.0093
3000.00,0.0095
2999.00,0.0098
2998.00,0.0101
2997.00,0.0105
2996.00,0.0108
2995.00,0.0111
2994.00,0.0115
2993.00,0.0119
2992.00,0.0124
2991.00,0.0129
2990.00,0.0134
2989.00,0.0140
2988.00,0.0147
2987.00,0.0154
2986.00,0.0161
2985.00,0.0169
2984.00,0.0177
2983.00,0.0187
2982.00,0.0197
2981.00,0.0210
2980.00,0.0224
2979.00,0.0239
2978.00,0.0257
2977.00,0.0277
2976.00,0.0299
2975.00,0.0325
2974.00,0.0354
2973.00,0.0388
2972.00,0.0426
2971.00,0.0468
2970.00,0.0516
2969.00,0.0567
2968.00,0.0623
2967.00,0.0682
2966.00,0.0744
2965.00,0.0807
2964.00,0.0867
2963.00,0.0922
2962.00,0.0967
2961.00,0.1002
2960.00,0.1027
2959.00,0.1045
2958.00,0.1060
2957.00,0.1078
2956.00,0.1102
2955.00,0.1133
2954.00,0.1171
2953.00,0.1212
2952.00,0.1248
2951.00,0.1271
2950.00,0.1275
2949.00,0.1256
2948.00,0.1214
2947.00,0.1152
2946.00,0.1079
2945.00,0.1002
2944.00,0.0931
2943.00,0.0870
2942.00,0.0823
2941.00,0.0791
2940.00,0.0773
2939.00,0.0769
2938.00,0.0777
2937.00,0.0796
2936.00,0.0824
2935.00,0.0862
2934.00,0.0907
2933.00,0.0960
2932.00,0.1018
2931.00,0.1082
2930.00,0.1148
2929.00,0.1217
2928.00,0.1285
2927.00,0.1351
2926.00,0.1416
2925.00,0.1477
2924.00,0.1538
2923.00,0.1597
2922.00,0.1655
2921.00,0.1709
2920.00,0.1754
2919.00,0.1786
2918.00,0.1798
2917.00,0.1787
2916.00,0.1753
2915.00,0.1702
2914.00,0.1639
2913.00,0.1573
2912.00,0.1510
2911.00,0.1454
2910.00,0.1405
2909.00,0.1363
2908.00,0.1325
2907.00,0.1288
2906.00,0.1252
2905.00,0.1214
2904.00,0.1175
2903.00,0.1136
2902.00,0.1096
2901.00,0.1056
2900.00,0.1017
2899.00,0.0980
2898.00,0.0944
2897.00,0.0912
2896.00,0.0882
2895.00,0.0856
2894.00,0.0834
2893.00,0.0816
2892.00,0.0802
2891.00,0.0792
2890.00,0.0785
2889.00,0.0780
2888.00,0.0777
2887.00,0.0777
2886.00,0.0778
2885.00,0.0782
2884.00,0.0787
2883.00,0.0796
2882.00,0.0806
2881.00,0.0818
2880.00,0.0829
2879.00,0.0837
2878.00,0.0841
2877.00,0.0839
2876.00,0.0834
2875.00,0.0828
2874.00,0.0824
2873.00,0.0824
2872.00,0.0828
2871.00,0.0837
2870.00,0.0848
2869.00,0.0858
2868.00,0.0863
2867.00,0.0858
2866.00,0.0840
2865.00,0.0808
2864.00,0.0766
2863.00,0.0718
2862.00,0.0671
2861.00,0.0630
2860.00,0.0597
2859.00,0.0574
2858.00,0.0561
2857.00,0.0556
2856.00,0.0558
2855.00,0.0566
2854.00,0.0578
2853.00,0.0593
2852.00,0.0609
2851.00,0.0624
2850.00,0.0636
2849.00,0.0645
2848.00,0.0653
2847.00,0.0662
2846.00,0.0677
2845.00,0.0699
2844.00,0.0727
2843.00,0.0761
2842.00,0.0795
2841.00,0.0827
2840.00,0.0851
2839.00,0.0862
2838.00,0.0856
2837.00,0.0832
2836.00,0.0790
2835.00,0.0733
2834.00,0.0668
2833.00,0.0601
2832.00,0.0537
2831.00,0.0481
2830.00,0.0432
2829.00,0.0392
2828.00,0.0359
2827.00,0.0332
2826.00,0.0310
2825.00,0.0291
2824.00,0.0275
2823.00,0.0261
2822.00,0.0249
2821.00,0.0239
2820.00,0.0230
2819.00,0.0222
2818.00,0.0215
2817.00,0.0208
2816.00,0.0202
2815.00,0.0196
2814.00,0.0191
2813.00,0.0186
2812.00,0.0181
2811.00,0.0176
2810.00,0.0171
2809.00,0.0166
2808.00,0.0160
2807.00,0.0154
2806.00,0.0149
2805.00,0.0143
2804.00,0.0138
2803.00,0.0133
2802.00,0.0128
2801.00,0.0124
2800.00,0.0121
2799.00,0.0118
2798.00,0.0115
2797.00,0.0113
2796.00,0.0110
2795.00,0.0108
2794.00,0.0106
2793.00,0.0104
2792.00,0.0101
2791.00,0.0099
2790.00,0.0096
2789.00,0.0094
2788.00,0.0092
2787.00,0.0089
2786.00,0.0088
2785.00,0.0086
2784.00,0.0083
2783.00,0.0082
2782.00,0.0080
2781.00,0.0078
2780.00,0.0077
2779.00,0.0076
2778.00,0.0075
2777.00,0.0075
2776.00,0.0074
2775.00,0.0073
2774.00,0.0072
2773.00,0.0071
2772.00,0.0070
2771.00,0.0069
2770.00,0.0069
2769.00,0.0068
2768.00,0.0068
2767.00,0.0068
2766.00,0.0068
2765.00,0.0067
2764.00,0.0067
2763.00,0.0067
2762.00,0.0067
2761.00,0.0067
2760.00,0.0066
2759.00,0.0066
2758.00,0.0066
2757.00,0.0066
2756.00,0.0065
2755.00,0.0065
2754.00,0.0065
2753.00,0.0064
2752.00,0.0064
2751.00,0.0064
2750.00,0.0064
2749.00,0.0064
2748.00,0.0064
2747.00,0.0064
2746.00,0.0064
2745.00,0.0064
2744.00,0.0065
2743.00,0.0065
2742.00,0.0065
2741.00,0.0066
2740.00,0.0066
2739.00,0.0067
2738.00,0.0068
2737.00,0.0069
2736.00,0.0070
2735.00,0.0070
2734.00,0.0071
2733.00,0.0072
2732.00,0.0073
2731.00,0.0074
2730.00,0.0075
2729.00,0.0076
2728.00,0.0078
2727.00,0.0080
2726.00,0.0081
2725.00,0.0083
2724.00,0.0084
2723.00,0.0084
2722.00,0.0083
2721.00,0.0082
2720.00,0.0081
2719.00,0.0079
2718.00,0.0077
2717.00,0.0075
2716.00,0.0073
2715.00,0.0071
2714.00,0.0069
2713.00,0.0068
2712.00,0.0066
2711.00,0.0065
2710.00,0.0063
2709.00,0.0062
2708.00,0.0061
2707.00,0.0060
2706.00,0.0060
2705.00,0.0059
2704.00,0.0058
2703.00,0.0058
2702.00,0.0057
2701.00,0.0057
2700.00,0.0057
2699.00,0.0057
2698.00,0.0056
2697.00,0.0056
2696.00,0.0055
2695.00,0.0055
2694.00,0.0055
2693.00,0.0055
2692.00,0.0055
2691.00,0.0055
2690.00,0.0055
2689.00,0.0055
2688.00,0.0055
2687.00,0.0055
2686.00,0.0055
2685.00,0.0055
2684.00,0.0055
2683.00,0.0055
2682.00,0.0055
2681.00,0.0055
2680.00,0.0055
2679.00,0.0055
2678.00,0.0055
2677.00,0.0055
2676.00,0.0055
2675.00,0.0055
2674.00,0.0055
2673.00,0.0055
2672.00,0.0055
2671.00,0.0054
2670.00,0.0054
2669.00,0.0054
2668.00,0.0054
2667.00,0.0055
2666.00,0.0055
2665.00,0.0055
2664.00,0.0056
2663.00,0.0056
2662.00,0.0057
2661.00,0.0057
2660.00,0.0057
2659.00,0.0057
2658.00,0.0057
2657.00,0.0057
2656.00,0.0056
2655.00,0.0056
2654.00,0.0056
2653.00,0.0055
2652.00,0.0055
2651.00,0.0055
2650.00,0.0055
2649.00,0.0054
2648.00,0.0054
2647.00,0.0053
2646.00,0.0053
2645.00,0.0052
2644.00,0.0052
2643.00,0.0052
2642.00,0.0052
2641.00,0.0052
2640.00,0.0051
2639.00,0.0051
2638.00,0.0050
2637.00,0.0050
2636.00,0.0050
2635.00,0.0050
2634.00,0.0050
2633.00,0.0050
2632.00,0.0050
2631.00,0.0050
2630.00,0.0050
2629.00,0.0050
2628.00,0.0051
2627.00,0.0050
2626.00,0.0050
2625.00,0.0050
2624.00,0.0049
2623.00,0.0049
2622.00,0.0050
2621.00,0.0050
2620.00,0.0050
2619.00,0.0050
2618.00,0.0050
2617.00,0.0050
2616.00,0.0050
2615.00,0.0050
2614.00,0.0049
2613.00,0.0049
2612.00,0.0049
2611.00,0.0048
2610.00,0.0048
2609.00,0.0047
2608.00,0.0046
2607.00,0.0045
2606.00,0.0045
2605.00,0.0045
2604.00,0.0044
2603.00,0.0044
2602.00,0.0044
2601.00,0.0044
2600.00,0.0044
2599.00,0.0044
2598.00,0.0044
2597.00,0.0044
2596.00,0.0044
2595.00,0.0044
2594.00,0.0045
2593.00,0.0045
2592.00,0.0045
2591.00,0.0045
2590.00,0.0045
2589.00,0.0045
2588.00,0.0045
2587.00,0.0046
2586.00,0.0046
2585.00,0.0047
2584.00,0.0047
2583.00,0.0047
2582.00,0.0046
2581.00,0.0046
2580.00,0.0046
2579.00,0.0045
2578.00,0.0045
2577.00,0.0045
2576.00,0.0044
2575.00,0.0043
2574.00,0.0042
2573.00,0.0042
2572.00,0.0041
2571.00,0.0039
2570.00,0.0038
2569.00,0.0038
2568.00,0.0037
2567.00,0.0037
2566.00,0.0036
2565.00,0.0036
2564.00,0.0036
2563.00,0.0036
2562.00,0.0036
2561.00,0.0036
2560.00,0.0037
2559.00,0.0037
2558.00,0.0037
2557.00,0.0038
2556.00,0.0037
2555.00,0.0037
2554.00,0.0036
2553.00,0.0035
2552.00,0.0034
2551.00,0.0033
2550.00,0.0033
2549.00,0.0032
2548.00,0.0032
2547.00,0.0032
2546.00,0.0032
2545.00,0.0032
2544.00,0.0032
2543.00,0.0032
2542.00,0.0032
2541.00,0.0032
2540.00,0.0032
2539.00,0.0032
2538.00,0.0031
2537.00,0.0031
2536.00,0.0030
2535.00,0.0030
2534.00,0.0030
2533.00,0.0030
2532.00,0.0030
2531.00,0.0029
2530.00,0.0028
2529.00,0.0027
2528.00,0.0027
2527.00,0.0028
2526.00,0.0028
2525.00,0.0028
2524.00,0.0028
2523.00,0.0029
2522.00,0.0029
2521.00,0.0029
2520.00,0.0029
2519.00,0.0028
2518.00,0.0027
2517.00,0.0026
2516.00,0.0026
2515.00,0.0025
2514.00,0.0025
2513.00,0.0025
2512.00,0.0025
2511.00,0.0025
2510.00,0.0026
2509.00,0.0026
2508.00,0.0027
2507.00,0.0027
2506.00,0.0027
2505.00,0.0028
2504.00,0.0028
2503.00,0.0028
2502.00,0.0028
2501.00,0.0027
2500.00,0.0027
2499.00,0.0027
2498.00,0.0026
2497.00,0.0026
2496.00,0.0026
2495.00,0.0026
2494.00,0.0026
2493.00,0.0026
2492.00,0.0026
2491.00,0.0026
2490.00,0.0026
2489.00,0.0026
2488.00,0.0026
2487.00,0.0026
2486.00,0.0026
2485.00,0.0026
2484.00,0.0026
2483.00,0.0025
2482.00,0.0025
2481.00,0.0025
2480.00,0.0024
2479.00,0.0024
2478.00,0.0024
2477.00,0.0024
2476.00,0.0025
2475.00,0.0025
2474.00,0.0025
2473.00,0.0025
2472.00,0.0025
2471.00,0.0026
2470.00,0.0026
2469.00,0.0025
2468.00,0.0024
2467.00,0.0024
2466.00,0.0023
2465.00,0.0023
2464.00,0.0023
2463.00,0.0023
2462.00,0.0023
2461.00,0.0024
2460.00,0.0024
2459.00,0.0024
2458.00,0.0025
2457.00,0.0026
2456.00,0.0026
2455.00,0.0026
2454.00,0.0026
2453.00,0.0026
2452.00,0.0025
2451.00,0.0025
2450.00,0.0025
2449.00,0.0025
2448.00,0.0025
2447.00,0.0024
2446.00,0.0024
2445.00,0.0023
2444.00,0.0023
2443.00,0.0023
2442.00,0.0024
2441.00,0.0025
2440.00,0.0025
2439.00,0.0025
2438.00,0.0025
2437.00,0.0025
2436.00,0.0025
2435.00,0.0025
2434.00,0.0025
2433.00,0.0025
2432.00,0.0025
2431.00,0.0025
2430.00,0.0026
2429.00,0.0026
2428.00,0.0026
2427.00,0.0026
2426.00,0.0026
2425.00,0.0026
2424.00,0.0026
2423.00,0.0025
2422.00,0.0025
2421.00,0.0026
2420.00,0.0026
2419.00,0.0025
2418.00,0.0025
2417.00,0.0025
2416.00,0.0024
2415.00,0.0024
2414.00,0.0024
2413.00,0.0024
2412.00,0.0025
2411.00,0.0025
2410.00,0.0024
2409.00,0.0024
2408.00,0.0023
2407.00,0.0023
2406.00,0.0022
2405.00,0.0022
2404.00,0.0022
2403.00,0.0022
2402.00,0.0022
2401.00,0.0023
2400.00,0.0023
2399.00,0.0023
2398.00,0.0023
2397.00,0.0023
2396.00,0.0022
2395.00,0.0022
2394.00,0.0021
2393.00,0.0021
2392.00,0.0020
2391.00,0.0020
2390.00,0.0020
2389.00,0.0021
2388.00,0.0021
2387.00,0.0022
2386.00,0.0022
2385.00,0.0021
2384.00,0.0021
2383.00,0.0020
2382.00,0.0019
2381.00,0.0018
2380.00,0.0018
2379.00,0.0018
2378.00,0.0018
2377.00,0.0018
2376.00,0.0018
2375.00,0.0018
2374.00,0.0018
2373.00,0.0017
2372.00,0.0017
2371.00,0.0016
2370.00,0.0016
2369.00,0.0016
2368.00,0.0015
2367.00,0.0015
2366.00,0.0015
2365.00,0.0015
2364.00,0.0016
2363.00,0.0016
2362.00,0.0017
2361.00,0.0017
2360.00,0.0017
2359.00,0.0017
2358.00,0.0017
2357.00,0.0017
2356.00,0.0017
2355.00,0.0017
2354.00,0.0017
2353.00,0.0017
2352.00,0.0017
2351.00,0.0017
2350.00,0.0017
2349.00,0.0017
2348.00,0.0017
2347.00,0.0018
2346.00,0.0018
2345.00,0.0018
2344.00,0.0018
2343.00,0.0018
2342.00,0.0019
2341.00,0.0020
2340.00,0.0020
2339.00,0.0020
2338.00,0.0019
2337.00,0.0019
2336.00,0.0020
2335.00,0.0020
2334.00,0.0020
2333.00,0.0020
2332.00,0.0019
2331.00,0.0019
2330.00,0.0019
2329.00,0.0019
2328.00,0.0021
2327.00,0.0023
2326.00,0.0027
2325.00,0.0030
2324.00,0.0032
2323.00,0.0031
2322.00,0.0030
2321.00,0.0029
2320.00,0.0027
2319.00,0.0026
2318.00,0.0024
2317.00,0.0022
2316.00,0.0021
2315.00,0.0020
2314.00,0.0019
2313.00,0.0019
2312.00,0.0020
2311.00,0.0021
2310.00,0.0022
2309.00,0.0022
2308.00,0.0022
2307.00,0.0022
2306.00,0.0021
2305.00,0.0021
2304.00,0.0022
2303.00,0.0022
2302.00,0.0022
2301.00,0.0022
2300.00,0.0023
2299.00,0.0023
2298.00,0.0024
2297.00,0.0024
2296.00,0.0024
2295.00,0.0024
2294.00,0.0024
2293.00,0.0025
2292.00,0.0026
2291.00,0.0027
2290.00,0.0028
2289.00,0.0029
2288.00,0.0030
2287.00,0.0030
2286.00,0.0030
2285.00,0.0030
2284.00,0.0030
2283.00,0.0030
2282.00,0.0029
2281.00,0.0028
2280.00,0.0028
2279.00,0.0027
2278.00,0.0026
2277.00,0.0025
2276.00,0.0025
2275.00,0.0025
2274.00,0.0025
2273.00,0.0025
2272.00,0.0025
2271.00,0.0023
2270.00,0.0022
2269.00,0.0022
2268.00,0.0022
2267.00,0.0022
2266.00,0.0023
2265.00,0.0023
2264.00,0.0023
2263.00,0.0023
2262.00,0.0022
2261.00,0.0022
2260.00,0.0021
2259.00,0.0022
2258.00,0.0022
2257.00,0.0022
2256.00,0.0022
2255.00,0.0022
2254.00,0.0021
2253.00,0.0021
2252.00,0.0020
2251.00,0.0020
2250.00,0.0019
2249.00,0.0019
2248.00,0.0019
2247.00,0.0019
2246.00,0.0019
2245.00,0.0020
2244.00,0.0021
2243.00,0.0021
2242.00,0.0021
2241.00,0.0021
2240.00,0.0021
2239.00,0.0020
2238.00,0.0020
2237.00,0.0020
2236.00,0.0020
2235.00,0.0020
2234.00,0.0019
2233.00,0.0019
2232.00,0.0019
2231.00,0.0019
2230.00,0.0017
2229.00,0.0016
2228.00,0.0016
2227.00,0.0017
2226.00,0.0017
2225.00,0.0018
2224.00,0.0018
2223.00,0.0018
2222.00,0.0018
2221.00,0.0019
2220.00,0.0020
2219.00,0.0021
2218.00,0.0021
2217.00,0.0021
2216.00,0.0020
2215.00,0.0019
2214.00,0.0019
2213.00,0.0019
2212.00,0.0019
2211.00,0.0019
2210.00,0.0018
2209.00,0.0017
2208.00,0.0016
2207.00,0.0015
2206.00,0.0014
2205.00,0.0013
2204.00,0.0013
2203.00,0.0013
2202.00,0.0014
2201.00,0.0015
2200.00,0.0016
2199.00,0.0017
2198.00,0.0017
2197.00,0.0016
2196.00,0.0017
2195.00,0.0018
2194.00,0.0019
2193.00,0.0020
2192.00,0.0020
2191.00,0.0020
2190.00,0.0020
2189.00,0.0019
2188.00,0.0018
2187.00,0.0018
2186.00,0.0018
2185.00,0.0019
2184.00,0.0021
2183.00,0.0021
2182.00,0.0019
2181.00,0.0016
2180.00,0.0013
2179.00,0.0012
2178.00,0.0011
2177.00,0.0011
2176.00,0.0012
2175.00,0.0013
2174.00,0.0015
2173.00,0.0017
2172.00,0.0017
2171.00,0.0016
2170.00,0.0016
2169.00,0.0017
2168.00,0.0019
2167.00,0.0018
2166.00,0.0016
2165.00,0.0015
2164.00,0.0017
2163.00,0.0021
2162.00,0.0022
2161.00,0.0018
2160.00,0.0007
2159.00,-0.0006
2158.00,-0.0015
2157.00,-0.0018
2156.00,-0.0016
2155.00,-0.0014
2154.00,-0.0011
2153.00,-0.0008
2152.00,-0.0005
2151.00,-0.0004
2150.00,-0.0004
2149.00,-0.0005
2148.00,-0.0005
2147.00,-0.0003
2146.00,-0.0002
2145.00,-0.0001
2144.00,-0.0001
2143.00,-0.0001
2142.00,0.0001
2141.00,0.0004
2140.00,0.0006
2139.00,0.0007
2138.00,0.0006
2137.00,0.0004
2136.00,0.0002
2135.00,-0.0001
2134.00,-0.0004
2133.00,-0.0005
2132.00,-0.0004
2131.00,-0.0002
2130.00,-0.0001
2129.00,0.0000
2128.00,0.0002
2127.00,0.0003
2126.00,0.0006
2125.00,0.0008
2124.00,0.0011
2123.00,0.0012
2122.00,0.0013
2121.00,0.0013
2120.00,0.0012
2119.00,0.0013
2118.00,0.0014
2117.00,0.0015
2116.00,0.0016
2115.00,0.0016
2114.00,0.0016
2113.00,0.0015
2112.00,0.0015
2111.00,0.0014
2110.00,0.0013
2109.00,0.0013
2108.00,0.0013
2107.00,0.0014
2106.00,0.0014
2105.00,0.0014
2104.00,0.0015
2103.00,0.0015
2102.00,0.0014
2101.00,0.0014
2100.00,0.0015
2099.00,0.0015
2098.00,0.0015
2097.00,0.0015
2096.00,0.0013
2095.00,0.0011
2094.00,0.0010
2093.00,0.0010
2092.00,0.0011
2091.00,0.0012
2090.00,0.0013
2089.00,0.0013
2088.00,0.0012
2087.00,0.0011
2086.00,0.0010
2085.00,0.0012
2084.00,0.0015
2083.00,0.0018
2082.00,0.0019
2081.00,0.0019
2080.00,0.0019
2079.00,0.0019
2078.00,0.0019
2077.00,0.0019
2076.00,0.0018
2075.00,0.0018
2074.00,0.0017
2073.00,0.0015
2072.00,0.0014
2071.00,0.0014
2070.00,0.0015
2069.00,0.0016
2068.00,0.0016
2067.00,0.0016
2066.00,0.0017
2065.00,0.0017
2064.00,0.0016
2063.00,0.0015
2062.00,0.0014
2061.00,0.0012
2060.00,0.0010
2059.00,0.0009
2058.00,0.0010
2057.00,0.0011
2056.00,0.0012
2055.00,0.0014
2054.00,0.0016
2053.00,0.0021
2052.00,0.0026
2051.00,0.0029
2050.00,0.0027
2049.00,0.0022
2048.00,0.0016
2047.00,0.0013
2046.00,0.0012
2045.00,0.0011
2044.00,0.0011
2043.00,0.0009
2042.00,0.0007
2041.00,0.0006
2040.00,0.0007
2039.00,0.0009
2038.00,0.0011
2037.00,0.0013
2036.00,0.0014
2035.00,0.0013
2034.00,0.0012
2033.00,0.0010
2032.00,0.0006
2031.00,0.0003
2030.00,0.0001
2029.00,0.0002
2028.00,0.0004
2027.00,0.0006
2026.00,0.0005
2025.00,0.0004
2024.00,0.0003
2023.00,0.0002
2022.00,0.0001
2021.00,0.0000
2020.00,-0.0001
2019.00,-0.0002
2018.00,-0.0003
2017.00,-0.0002
2016.00,-0.0000
2015.00,0.0002
2014.00,0.0003
2013.00,0.0003
2012.00,0.0002
2011.00,0.0002
2010.00,0.0001
2009.00,0.0000
2008.00,-0.0002
2007.00,-0.0005
2006.00,-0.0007
2005.00,-0.0007
2004.00,-0.0007
2003.00,-0.0007
2002.00,-0.0007
2001.00,-0.0006
2000.00,-0.0005
1999.00,-0.0003
1998.00,-0.0001
1997.00,0.0001
1996.00,0.0001
1995.00,0.0001
1994.00,0.0000
1993.00,0.0001
1992.00,0.0003
1991.00,0.0005
1990.00,0.0005
1989.00,0.0005
1988.00,0.0005
1987.00,0.0005
1986.00,0.0007
1985.00,0.0009
1984.00,0.0013
1983.00,0.0016
1982.00,0.0018
1981.00,0.0018
1980.00,0.0015
1979.00,0.0009
1978.00,0.0003
1977.00,-0.0001
1976.00,-0.0000
1975.00,0.0003
1974.00,0.0007
1973.00,0.0010
1972.00,0.0010
1971.00,0.0007
1970.00,0.0004
1969.00,0.0002
1968.00,0.0002
1967.00,0.0002
1966.00,0.0002
1965.00,0.0003
1964.00,0.0003
1963.00,0.0003
1962.00,0.0001
1961.00,-0.0000
1960.00,-0.0001
1959.00,-0.0002
1958.00,-0.0002
1957.00,-0.0000
1956.00,0.0001
1955.00,0.0000
1954.00,0.0000
1953.00,0.0001
1952.00,0.0002
1951.00,0.0001
1950.00,-0.0001
1949.00,-0.0002
1948.00,-0.0002
1947.00,-0.0002
1946.00,-0.0002
1945.00,-0.0003
1944.00,-0.0003
1943.00,-0.0002
1942.00,-0.0001
1941.00,0.0001
1940.00,0.0003
1939.00,0.0005
1938.00,0.0006
1937.00,0.0006
1936.00,0.0005
1935.00,0.0004
1934.00,0.0004
1933.00,0.0005
1932.00,0.0005
1931.00,0.0006
1930.00,0.0005
1929.00,0.0005
1928.00,0.0005
1927.00,0.0004
1926.00,0.0005
1925.00,0.0005
1924.00,0.0005
1923.00,0.0005
1922.00,0.0006
1921.00,0.0006
1920.00,0.0006
1919.00,0.0006
1918.00,0.0006
1917.00,0.0007
1916.00,0.0008
1915.00,0.0009
1914.00,0.0009
1913.00,0.0008
1912.00,0.0007
1911.00,0.0007
1910.00,0.0007
1909.00,0.0009
1908.00,0.0010
1907.00,0.0010
1906.00,0.0010
1905.00,0.0009
1904.00,0.0009
1903.00,0.0008
1902.00,0.0007
1901.00,0.0007
1900.00,0.0008
1899.00,0.0008
1898.00,0.0009
1897.00,0.0009
1896.00,0.0009
1895.00,0.0009
1894.00,0.0009
1893.00,0.0009
1892.00,0.0010
1891.00,0.0011
1890.00,0.0011
1889.00,0.0010
1888.00,0.0010
1887.00,0.0010
1886.00,0.0009
1885.00,0.0010
1884.00,0.0010
1883.00,0.0011
1882.00,0.0011
1881.00,0.0011
1880.00,0.0011
1879.00,0.0012
1878.00,0.0012
1877.00,0.0011
1876.00,0.0011
1875.00,0.0011
1874.00,0.0011
1873.00,0.0012
1872.00,0.0012
1871.00,0.0011
1870.00,0.0010
1869.00,0.0010
1868.00,0.0010
1867.00,0.0011
1866.00,0.0012
1865.00,0.0012
1864.00,0.0013
1863.00,0.0013
1862.00,0.0014
1861.00,0.0014
1860.00,0.0014
1859.00,0.0012
1858.00,0.0011
1857.00,0.0011
1856.00,0.0011
1855.00,0.0012
1854.00,0.0012
1853.00,0.0013
1852.00,0.0013
1851.00,0.0013
1850.00,0.0013
1849.00,0.0014
1848.00,0.0014
1847.00,0.0013
1846.00,0.0012
1845.00,0.0012
1844.00,0.0013
1843.00,0.0013
1842.00,0.0013
1841.00,0.0013
1840.00,0.0013
1839.00,0.0013
1838.00,0.0013
1837.00,0.0014
1836.00,0.0015
1835.00,0.0016
1834.00,0.0016
1833.00,0.0017
1832.00,0.0017
1831.00,0.0017
1830.00,0.0016
1829.00,0.0016
1828.00,0.0016
1827.00,0.0017
1826.00,0.0017
1825.00,0.0017
1824.00,0.0017
1823.00,0.0017
1822.00,0.0016
1821.00,0.0016
1820.00,0.0015
1819.00,0.0014
1818.00,0.0013
1817.00,0.0013
1816.00,0.0013
1815.00,0.0014
1814.00,0.0015
1813.00,0.0015
1812.00,0.0015
1811.00,0.0015
1810.00,0.0015
1809.00,0.0015
1808.00,0.0015
1807.00,0.0016
1806.00,0.0016
1805.00,0.0018
1804.00,0.0019
1803.00,0.0019
1802.00,0.0019
1801.00,0.0018
1800.00,0.0018
1799.00,0.0018
1798.00,0.0018
1797.00,0.0018
1796.00,0.0019
1795.00,0.0019
1794.00,0.0020
1793.00,0.0020
1792.00,0.0020
1791.00,0.0020
1790.00,0.0021
1789.00,0.0021
1788.00,0.0021
1787.00,0.0021
1786.00,0.0021
1785.00,0.0022
1784.00,0.0022
1783.00,0.0023
1782.00,0.0023
1781.00,0.0022
1780.00,0.0022
1779.00,0.0021
1778.00,0.0021
1777.00,0.0021
1776.00,0.0021
1775.00,0.0021
1774.00,0.0021
1773.00,0.0021
1772.00,0.0022
1771.00,0.0022
1770.00,0.0023
1769.00,0.0024
1768.00,0.0024
1767.00,0.0024
1766.00,0.0024
1765.00,0.0024
1764.00,0.0024
1763.00,0.0024
1762.00,0.0024
1761.00,0.0025
1760.00,0.0025
1759.00,0.0026
1758.00,0.0026
1757.00,0.0026
1756.00,0.0026
1755.00,0.0026
1754.00,0.0026
1753.00,0.0026
1752.00,0.0027
1751.00,0.0027
1750.00,0.0027
1749.00,0.0028
1748.00,0.0029
1747.00,0.0030
1746.00,0.0030
1745.00,0.0031
1744.00,0.0032
1743.00,0.0033
1742.00,0.0033
1741.00,0.0034
1740.00,0.0034
1739.00,0.0035
1738.00,0.0035
1737.00,0.0035
1736.00,0.0035
1735.00,0.0035
1734.00,0.0034
1733.00,0.0034
1732.00,0.0035
1731.00,0.0036
1730.00,0.0036
1729.00,0.0036
1728.00,0.0036
1727.00,0.0036
1726.00,0.0036
1725.00,0.0036
1724.00,0.0036
1723.00,0.0036
1722.00,0.0036
1721.00,0.0037
1720.00,0.0038
1719.00,0.0038
1718.00,0.0038
1717.00,0.0038
1716.00,0.0038
1715.00,0.0038
1714.00,0.0038
1713.00,0.0038
1712.00,0.0038
1711.00,0.0038
1710.00,0.0039
1709.00,0.0040
1708.00,0.0042
1707.00,0.0043
1706.00,0.0044
1705.00,0.0046
1704.00,0.0047
1703.00,0.0048
1702.00,0.0050
1701.00,0.0051
1700.00,0.0053
1699.00,0.0053
1698.00,0.0054
1697.00,0.0054
1696.00,0.0056
1695.00,0.0059
1694.00,0.0060
1693.00,0.0062
1692.00,0.0063
1691.00,0.0064
1690.00,0.0065
1689.00,0.0066
1688.00,0.0067
1687.00,0.0067
1686.00,0.0068
1685.00,0.0068
1684.00,0.0070
1683.00,0.0071
1682.00,0.0071
1681.00,0.0072
1680.00,0.0072
1679.00,0.0073
1678.00,0.0074
1677.00,0.0075
1676.00,0.0076
1675.00,0.0076
1674.00,0.0077
1673.00,0.0077
1672.00,0.0078
1671.00,0.0079
1670.00,0.0080
1669.00,0.0080
1668.00,0.0081
1667.00,0.0081
1666.00,0.0081
1665.00,0.0082
1664.00,0.0083
1663.00,0.0084
1662.00,0.0084
1661.00,0.0084
1660.00,0.0085
1659.00,0.0085
1658.00,0.0086
1657.00,0.0087
1656.00,0.0088
1655.00,0.0089
1654.00,0.0091
1653.00,0.0094
1652.00,0.0095
1651.00,0.0095
1650.00,0.0095
1649.00,0.0096
1648.00,0.0097
1647.00,0.0099
1646.00,0.0101
1645.00,0.0101
1644.00,0.0101
1643.00,0.0100
1642.00,0.0099
1641.00,0.0099
1640.00,0.0098
1639.00,0.0098
1638.00,0.0097
1637.00,0.0096
1636.00,0.0096
1635.00,0.0097
1634.00,0.0097
1633.00,0.0096
1632.00,0.0096
1631.00,0.0095
1630.00,0.0095
1629.00,0.0094
1628.00,0.0093
1627.00,0.0092
1626.00,0.0091
1625.00,0.0090
1624.00,0.0089
1623.00,0.0088
1622.00,0.0088
1621.00,0.0087
1620.00,0.0087
1619.00,0.0085
1618.00,0.0084
1617.00,0.0082
1616.00,0.0082
1615.00,0.0082
1614.00,0.0082
1613.00,0.0082
1612.00,0.0081
1611.00,0.0081
1610.00,0.0081
1609.00,0.0081
1608.00,0.0081
1607.00,0.0081
1606.00,0.0081
1605.00,0.0080
1604.00,0.0079
1603.00,0.0078
1602.00,0.0078
1601.00,0.0078
1600.00,0.0078
1599.00,0.0078
1598.00,0.0077
1597.00,0.0077
1596.00,0.0077
1595.00,0.0077
1594.00,0.0077
1593.00,0.0077
1592.00,0.0077
1591.00,0.0078
1590.00,0.0078
1589.00,0.0079
1588.00,0.0081
1587.00,0.0082
1586.00,0.0083
1585.00,0.0085
1584.00,0.0088
1583.00,0.0090
1582.00,0.0093
1581.00,0.0096
1580.00,0.0098
1579.00,0.0099
1578.00,0.0099
1577.00,0.0099
1576.00,0.0099
1575.00,0.0099
1574.00,0.0098
1573.00,0.0097
1572.00,0.0096
1571.00,0.0093
1570.00,0.0090
1569.00,0.0088
1568.00,0.0087
1567.00,0.0086
1566.00,0.0085
1565.00,0.0085
1564.00,0.0085
1563.00,0.0085
1562.00,0.0085
1561.00,0.0085
1560.00,0.0085
1559.00,0.0086
1558.00,0.0087
1557.00,0.0089
1556.00,0.0090
1555.00,0.0090
1554.00,0.0091
1553.00,0.0092
1552.00,0.0093
1551.00,0.0095
1550.00,0.0097
1549.00,0.0099
1548.00,0.0101
1547.00,0.0104
1546.00,0.0106
1545.00,0.0110
1544.00,0.0114
1543.00,0.0117
1542.00,0.0118
1541.00,0.0119
1540.00,0.0119
1539.00,0.0116
1538.00,0.0113
1537.00,0.0111
1536.00,0.0108
1535.00,0.0104
1534.00,0.0100
1533.00,0.0095
1532.00,0.0092
1531.00,0.0089
1530.00,0.0088
1529.00,0.0087
1528.00,0.0087
1527.00,0.0086
1526.00,0.0084
1525.00,0.0083
1524.00,0.0082
1523.00,0.0081
1522.00,0.0080
1521.00,0.0081
1520.00,0.0082
1519.00,0.0083
1518.00,0.0083
1517.00,0.0084
1516.00,0.0084
1515.00,0.0084
1514.00,0.0084
1513.00,0.0085
1512.00,0.0086
1511.00,0.0087
1510.00,0.0088
1509.00,0.0089
1508.00,0.0090
1507.00,0.0090
1506.00,0.0089
1505.00,0.0089
1504.00,0.0089
1503.00,0.0091
1502.00,0.0093
1501.00,0.0095
1500.00,0.0098
1499.00,0.0101
1498.00,0.0103
1497.00,0.0106
1496.00,0.0110
1495.00,0.0113
1494.00,0.0116
1493.00,0.0120
1492.00,0.0124
1491.00,0.0129
1490.00,0.0134
1489.00,0.0140
1488.00,0.0147
1487.00,0.0152
1486.00,0.0158
1485.00,0.0165
1484.00,0.0172
1483.00,0.0180
1482.00,0.0191
1481.00,0.0203
1480.00,0.0216
1479.00,0.0228
1478.00,0.0242
1477.00,0.0260
1476.00,0.0280
1475.00,0.0303
1474.00,0.0333
1473.00,0.0376
1472.00,0.0425
1471.00,0.0470
1470.00,0.0510
1469.00,0.0551
1468.00,0.0595
1467.00,0.0643
1466.00,0.0701
1465.00,0.0766
1464.00,0.0821
1463.00,0.0857
1462.00,0.0878
1461.00,0.0889
1460.00,0.0897
1459.00,0.0904
1458.00,0.0916
1457.00,0.0932
1456.00,0.0940
1455.00,0.0936
1454.00,0.0926
1453.00,0.0912
1452.00,0.0894
1451.00,0.0869
1450.00,0.0835
1449.00,0.0789
1448.00,0.0731
1447.00,0.0669
1446.00,0.0612
1445.00,0.0561
1444.00,0.0517
1443.00,0.0481
1442.00,0.0453
1441.00,0.0432
1440.00,0.0418
1439.00,0.0411
1438.00,0.0409
1437.00,0.0408
1436.00,0.0401
1435.00,0.0384
1434.00,0.0358
1433.00,0.0329
1432.00,0.0299
1431.00,0.0273
1430.00,0.0253
1429.00,0.0238
1428.00,0.0228
1427.00,0.0222
1426.00,0.0218
1425.00,0.0215
1424.00,0.0212
1423.00,0.0210
1422.00,0.0208
1421.00,0.0207
1420.00,0.0206
1419.00,0.0205
1418.00,0.0204
1417.00,0.0202
1416.00,0.0198
1415.00,0.0196
1414.00,0.0194
1413.00,0.0191
1412.00,0.0188
1411.00,0.0187
1410.00,0.0185
1409.00,0.0183
1408.00,0.0181
1407.00,0.0179
1406.00,0.0178
1405.00,0.0176
1404.00,0.0175
1403.00,0.0174
1402.00,0.0173
1401.00,0.0172
1400.00,0.0171
1399.00,0.0172
1398.00,0.0174
1397.00,0.0175
1396.00,0.0177
1395.00,0.0179
1394.00,0.0182
1393.00,0.0184
1392.00,0.0187
1391.00,0.0191
1390.00,0.0198
1389.00,0.0208
1388.00,0.0224
1387.00,0.0248
1386.00,0.0279
1385.00,0.0319
1384.00,0.0374
1383.00,0.0450
1382.00,0.0551
1381.00,0.0680
1380.00,0.0837
1379.00,0.1012
1378.00,0.1178
1377.00,0.1294
1376.00,0.1328
1375.00,0.1264
1374.00,0.1120
1373.00,0.0946
1372.00,0.0786
1371.00,0.0653
1370.00,0.0547
1369.00,0.0465
1368.00,0.0409
1367.00,0.0373
1366.00,0.0352
1365.00,0.0343
1364.00,0.0343
1363.00,0.0350
1362.00,0.0362
1361.00,0.0374
1360.00,0.0381
1359.00,0.0381
1358.00,0.0372
1357.00,0.0355
1356.00,0.0331
1355.00,0.0305
1354.00,0.0280
1353.00,0.0259
1352.00,0.0242
1351.00,0.0229
1350.00,0.0218
1349.00,0.0209
1348.00,0.0202
1347.00,0.0195
1346.00,0.0190
1345.00,0.0185
1344.00,0.0182
1343.00,0.0179
1342.00,0.0177
1341.00,0.0175
1340.00,0.0175
1339.00,0.0175
1338.00,0.0175
1337.00,0.0175
1336.00,0.0175
1335.00,0.0176
1334.00,0.0177
1333.00,0.0179
1332.00,0.0182
1331.00,0.0183
1330.00,0.0184
1329.00,0.0183
1328.00,0.0181
1327.00,0.0178
1326.00,0.0175
1325.00,0.0172
1324.00,0.0169
1323.00,0.0167
1322.00,0.0165
1321.00,0.0164
1320.00,0.0163
1319.00,0.0163
1318.00,0.0162
1317.00,0.0162
1316.00,0.0161
1315.00,0.0161
1314.00,0.0161
1313.00,0.0161
1312.00,0.0161
1311.00,0.0161
1310.00,0.0164
1309.00,0.0167
1308.00,0.0173
1307.00,0.0180
1306.00,0.0187
1305.00,0.0191
1304.00,0.0191
1303.00,0.0188
1302.00,0.0183
1301.00,0.0178
1300.00,0.0175
1299.00,0.0174
1298.00,0.0173
1297.00,0.0172
1296.00,0.0171
1295.00,0.0169
1294.00,0.0167
1293.00,0.0164
1292.00,0.0160
1291.00,0.0157
1290.00,0.0154
1289.00,0.0151
1288.00,0.0148
1287.00,0.0146
1286.00,0.0145
1285.00,0.0143
1284.00,0.0142
1283.00,0.0140
1282.00,0.0138
1281.00,0.0137
1280.00,0.0136
1279.00,0.0135
1278.00,0.0134
1277.00,0.0133
1276.00,0.0133
1275.00,0.0132
1274.00,0.0133
1273.00,0.0133
1272.00,0.0134
1271.00,0.0135
1270.00,0.0136
1269.00,0.0138
1268.00,0.0140
1267.00,0.0142
1266.00,0.0144
1265.00,0.0146
1264.00,0.0147
1263.00,0.0148
1262.00,0.0149
1261.00,0.0151
1260.00,0.0154
1259.00,0.0158
1258.00,0.0163
1257.00,0.0166
1256.00,0.0167
1255.00,0.0164
1254.00,0.0158
1253.00,0.0151
1252.00,0.0143
1251.00,0.0138
1250.00,0.0134
1249.00,0.0131
1248.00,0.0130
1247.00,0.0128
1246.00,0.0127
1245.00,0.0125
1244.00,0.0124
1243.00,0.0123
1242.00,0.0122
1241.00,0.0122
1240.00,0.0121
1239.00,0.0121
1238.00,0.0120
1237.00,0.0120
1236.00,0.0120
1235.00,0.0120
1234.00,0.0120
1233.00,0.0120
1232.00,0.0120
1231.00,0.0120
1230.00,0.0121
1229.00,0.0121
1228.00,0.0123
1227.00,0.0124
1226.00,0.0127
1225.00,0.0130
1224.00,0.0133
1223.00,0.0138
1222.00,0.0142
1221.00,0.0146
1220.00,0.0150
1219.00,0.0153
1218.00,0.0155
1217.00,0.0157
1216.00,0.0158
1215.00,0.0159
1214.00,0.0159
1213.00,0.0158
1212.00,0.0158
1211.00,0.0157
1210.00,0.0157
1209.00,0.0156
1208.00,0.0156
1207.00,0.0156
1206.00,0.0157
1205.00,0.0157
1204.00,0.0159
1203.00,0.0160
1202.00,0.0162
1201.00,0.0163
1200.00,0.0164
1199.00,0.0165
1198.00,0.0166
1197.00,0.0167
1196.00,0.0169
1195.00,0.0170
1194.00,0.0171
1193.00,0.0172
1192.00,0.0172
1191.00,0.0172
1190.00,0.0172
1189.00,0.0172
1188.00,0.0172
1187.00,0.0172
1186.00,0.0173
1185.00,0.0173
1184.00,0.0173
1183.00,0.0174
1182.00,0.0176
1181.00,0.0178
1180.00,0.0182
1179.00,0.0187
1178.00,0.0194
1177.00,0.0202
1176.00,0.0212
1175.00,0.0226
1174.00,0.0243
1173.00,0.0264
1172.00,0.0289
1171.00,0.0317
1170.00,0.0344
1169.00,0.0366
1168.00,0.0381
1167.00,0.0387
1166.00,0.0385
1165.00,0.0378
1164.00,0.0370
1163.00,0.0362
1162.00,0.0357
1161.00,0.0353
1160.00,0.0351
1159.00,0.0351
1158.00,0.0353
1157.00,0.0356
1156.00,0.0360
1155.00,0.0365
1154.00,0.0368
1153.00,0.0370
1152.00,0.0370
1151.00,0.0368
1150.00,0.0364
1149.00,0.0359
1148.00,0.0355
1147.00,0.0351
1146.00,0.0347
1145.00,0.0343
1144.00,0.0341
1143.00,0.0339
1142.00,0.0337
1141.00,0.0337
1140.00,0.0337
1139.00,0.0338
1138.00,0.0340
1137.00,0.0343
1136.00,0.0348
1135.00,0.0353
1134.00,0.0360
1133.00,0.0367
1132.00,0.0375
1131.00,0.0383
1130.00,0.0391
1129.00,0.0398
1128.00,0.0405
1127.00,0.0412
1126.00,0.0418
1125.00,0.0425
1124.00,0.0431
1123.00,0.0436
1122.00,0.0440
1121.00,0.0444
1120.00,0.0447
1119.00,0.0451
1118.00,0.0453
1117.00,0.0456
1116.00,0.0458
1115.00,0.0460
1114.00,0.0462
1113.00,0.0464
1112.00,0.0465
1111.00,0.0466
1110.00,0.0468
1109.00,0.0470
1108.00,0.0473
1107.00,0.0477
1106.00,0.0480
1105.00,0.0484
1104.00,0.0487
1103.00,0.0489
1102.00,0.0488
1101.00,0.0486
1100.00,0.0483
1099.00,0.0479
1098.00,0.0476
1097.00,0.0473
1096.00,0.0470
1095.00,0.0467
1094.00,0.0466
1093.00,0.0465
1092.00,0.0466
1091.00,0.0468
1090.00,0.0470
1089.00,0.0472
1088.00,0.0476
1087.00,0.0480
1086.00,0.0485
1085.00,0.0490
1084.00,0.0496
1083.00,0.0501
1082.00,0.0505
1081.00,0.0508
1080.00,0.0510
1079.00,0.0513
1078.00,0.0516
1077.00,0.0520
1076.00,0.0524
1075.00,0.0528
1074.00,0.0531
1073.00,0.0533
1072.00,0.0535
1071.00,0.0536
1070.00,0.0538
1069.00,0.0540
1068.00,0.0541
1067.00,0.0543
1066.00,0.0544
1065.00,0.0546
1064.00,0.0548
1063.00,0.0549
1062.00,0.0548
1061.00,0.0548
1060.00,0.0548
1059.00,0.0546
1058.00,0.0544
1057.00,0.0540
1056.00,0.0537
1055.00,0.0533
1054.00,0.0530
1053.00,0.0526
1052.00,0.0523
1051.00,0.0519
1050.00,0.0514
1049.00,0.0508
1048.00,0.0503
1047.00,0.0499
1046.00,0.0495
1045.00,0.0491
1044.00,0.0485
1043.00,0.0477
1042.00,0.0469
1041.00,0.0462
1040.00,0.0455
1039.00,0.0449
1038.00,0.0443
1037.00,0.0438
1036.00,0.0432
1035.00,0.0427
1034.00,0.0421
1033.00,0.0415
1032.00,0.0408
1031.00,0.0401
1030.00,0.0395
1029.00,0.0389
1028.00,0.0384
1027.00,0.0379
1026.00,0.0374
1025.00,0.0369
1024.00,0.0364
1023.00,0.0359
1022.00,0.0353
1021.00,0.0348
1020.00,0.0343
1019.00,0.0338
1018.00,0.0334
1017.00,0.0330
1016.00,0.0326
1015.00,0.0323
1014.00,0.0319
1013.00,0.0315
1012.00,0.0312
1011.00,0.0308
1010.00,0.0305
1009.00,0.0302
1008.00,0.0300
1007.00,0.0298
1006.00,0.0299
1005.00,0.0302
1004.00,0.0310
1003.00,0.0323
1002.00,0.0342
1001.00,0.0367
1000.00,0.0395
999.00,0.0417
998.00,0.0426
997.00,0.0416
996.00,0.0390
995.00,0.0354
994.00,0.0318
993.00,0.0285
992.00,0.0259
991.00,0.0239
990.00,0.0224
989.00,0.0212
988.00,0.0204
987.00,0.0198
986.00,0.0195
985.00,0.0193
984.00,0.0193
983.00,0.0197
982.00,0.0203
981.00,0.0214
980.00,0.0230
979.00,0.0252
978.00,0.0280
977.00,0.0313
976.00,0.0350
975.00,0.0384
974.00,0.0409
973.00,0.0417
972.00,0.0404
971.00,0.0374
970.00,0.0334
969.00,0.0294
968.00,0.0261
967.00,0.0238
966.00,0.0222
965.00,0.0212
964.00,0.0206
963.00,0.0202
962.00,0.0200
961.00,0.0199
960.00,0.0200
959.00,0.0202
958.00,0.0204
957.00,0.0206
956.00,0.0207
955.00,0.0208
954.00,0.0208
953.00,0.0209
952.00,0.0209
951.00,0.0211
950.00,0.0213
949.00,0.0215
948.00,0.0215
947.00,0.0215
946.00,0.0214
945.00,0.0213
944.00,0.0212
943.00,0.0211
942.00,0.0210
941.00,0.0207
940.00,0.0202
939.00,0.0196
938.00,0.0190
937.00,0.0182
936.00,0.0175
935.00,0.0168
934.00,0.0163
933.00,0.0159
932.00,0.0157
931.00,0.0155
930.00,0.0154
929.00,0.0153
928.00,0.0152
927.00,0.0150
926.00,0.0148
925.00,0.0146
924.00,0.0143
923.00,0.0141
922.00,0.0138
921.00,0.0137
920.00,0.0136
919.00,0.0135
918.00,0.0134
917.00,0.0132
916.00,0.0131
915.00,0.0130
914.00,0.0130
913.00,0.0130
912.00,0.0130
911.00,0.0132
910.00,0.0133
909.00,0.0134
908.00,0.0136
907.00,0.0139
906.00,0.0143
905.00,0.0149
904.00,0.0157
903.00,0.0168
902.00,0.0180
901.00,0.0191
900.00,0.0199
899.00,0.0201
898.00,0.0195
897.00,0.0185
896.00,0.0171
895.00,0.0159
894.00,0.0149
893.00,0.0141
892.00,0.0137
891.00,0.0133
890.00,0.0130
889.00,0.0127
888.00,0.0125
887.00,0.0123
886.00,0.0123
885.00,0.0122
884.00,0.0120
883.00,0.0119
882.00,0.0118
881.00,0.0118
880.00,0.0118
879.00,0.0120
878.00,0.0121
877.00,0.0123
876.00,0.0124
875.00,0.0124
874.00,0.0124
873.00,0.0123
872.00,0.0121
871.00,0.0117
870.00,0.0114
869.00,0.0111
868.00,0.0110
867.00,0.0108
866.00,0.0107
865.00,0.0107
864.00,0.0108
863.00,0.0110
862.00,0.0112
861.00,0.0114
860.00,0.0116
859.00,0.0119
858.00,0.0121
857.00,0.0123
856.00,0.0124
855.00,0.0125
854.00,0.0125
853.00,0.0126
852.00,0.0128
851.00,0.0131
850.00,0.0135
849.00,0.0141
848.00,0.0150
847.00,0.0162
846.00,0.0180
845.00,0.0206
844.00,0.0243
843.00,0.0284
842.00,0.0316
841.00,0.0323
840.00,0.0302
839.00,0.0263
838.00,0.0222
837.00,0.0190
836.00,0.0169
835.00,0.0157
834.00,0.0149
833.00,0.0144
832.00,0.0140
831.00,0.0136
830.00,0.0133
829.00,0.0130
828.00,0.0129
827.00,0.0129
826.00,0.0129
825.00,0.0130
824.00,0.0130
823.00,0.0131
822.00,0.0132
821.00,0.0132
820.00,0.0133
819.00,0.0134
818.00,0.0135
817.00,0.0139
816.00,0.0145
815.00,0.0153
814.00,0.0164
813.00,0.0176
812.00,0.0189
811.00,0.0202
810.00,0.0212
809.00,0.0216
808.00,0.0214
807.00,0.0206
806.00,0.0194
805.00,0.0182
804.00,0.0171
803.00,0.0161
802.00,0.0154
801.00,0.0148
800.00,0.0144
799.00,0.0141
798.00,0.0138
797.00,0.0136
796.00,0.0134
795.00,0.0132
794.00,0.0129
793.00,0.0126
792.00,0.0124
791.00,0.0123
790.00,0.0122
789.00,0.0121
788.00,0.0120
787.00,0.0118
786.00,0.0118
785.00,0.0117
784.00,0.0116
783.00,0.0115
782.00,0.0115
781.00,0.0115
780.00,0.0113
779.00,0.0111
778.00,0.0111
777.00,0.0111
776.00,0.0112
775.00,0.0113
774.00,0.0113
773.00,0.0111
772.00,0.0110
771.00,0.0109
770.00,0.0110
769.00,0.0111
768.00,0.0111
767.00,0.0110
766.00,0.0108
765.00,0.0106
764.00,0.0105
763.00,0.0106
762.00,0.0108
761.00,0.0109
760.00,0.0109
759.00,0.0109
758.00,0.0109
757.00,0.0110
756.00,0.0110
755.00,0.0111
754.00,0.0112
753.00,0.0113
752.00,0.0113
751.00,0.0113
750.00,0.0113
749.00,0.0114
748.00,0.0115
747.00,0.0116
746.00,0.0118
745.00,0.0120
744.00,0.0121
743.00,0.0122
742.00,0.0124
741.00,0.0127
740.00,0.0130
739.00,0.0134
738.00,0.0137
737.00,0.0140
736.00,0.0143
735.00,0.0145
734.00,0.0148
733.00,0.0153
732.00,0.0159
731.00,0.0166
730.00,0.0171
729.00,0.0174
728.00,0.0175
727.00,0.0176
726.00,0.0178
725.00,0.0180
724.00,0.0184
723.00,0.0188
722.00,0.0193
721.00,0.0196
720.00,0.0195
719.00,0.0189
718.00,0.0181
717.00,0.0172
716.00,0.0165
715.00,0.0161
714.00,0.0159
713.00,0.0158
712.00,0.0157
711.00,0.0155
710.00,0.0152
709.00,0.0149
708.00,0.0148
707.00,0.0146
706.00,0.0145
705.00,0.0144
704.00,0.0142
703.00,0.0141
702.00,0.0140
701.00,0.0140
700.00,0.0139
699.00,0.0139
698.00,0.0138
697.00,0.0138
696.00,0.0136
695.00,0.0134
694.00,0.0132
693.00,0.0132
692.00,0.0132
691.00,0.0133
690.00,0.0135
689.00,0.0136
688.00,0.0138
687.00,0.0140
686.00,0.0140
685.00,0.0139
684.00,0.0138
683.00,0.0139
682.00,0.0140
681.00,0.0141
680.00,0.0141
679.00,0.0142
678.00,0.0145
677.00,0.0149
676.00,0.0152
675.00,0.0154
674.00,0.0156
673.00,0.0159
672.00,0.0162
671.00,0.0164
670.00,0.0165
669.00,0.0167
668.00,0.0170
667.00,0.0172
666.00,0.0171
665.00,0.0169
664.00,0.0168
663.00,0.0168
662.00,0.0169
661.00,0.0169
660.00,0.0170
659.00,0.0169
658.00,0.0169
657.00,0.0167
656.00,0.0166
655.00,0.0166
654.00,0.0167
653.00,0.0169
652.00,0.0171
651.00,0.0173
650.00,0.0174
649.00,0.0173
648.00,0.0171
647.00,0.0169
646.00,0.0169
645.00,0.0169
644.00,0.0170
643.00,0.0170
642.00,0.0169
641.00,0.0169
640.00,0.0170
639.00,0.0171
638.00,0.0172
637.00,0.0173
636.00,0.0174
635.00,0.0175
634.00,0.0177
633.00,0.0179
632.00,0.0181
631.00,0.0181
630.00,0.0180
629.00,0.0178
628.00,0.0178
627.00,0.0179
626.00,0.0181
625.00,0.0183
624.00,0.0186
623.00,0.0189
622.00,0.0190
621.00,0.0190
620.00,0.0188
619.00,0.0185
618.00,0.0183
617.00,0.0183
616.00,0.0187
615.00,0.0192
614.00,0.0195
613.00,0.0196
612.00,0.0195
611.00,0.0194
610.00,0.0193
609.00,0.0193
608.00,0.0194
607.00,0.0196
606.00,0.0197
605.00,0.0197
604.00,0.0196
603.00,0.0196
602.00,0.0194
601.00,0.0192
600.00,0.0190
599.00,0.0190
598.00,0.0194
597.00,0.0200
596.00,0.0204
595.00,0.0205
594.00,0.0204
593.00,0.0201
592.00,0.0200
591.00,0.0202
590.00,0.0204
589.00,0.0206
588.00,0.0207
587.00,0.0204
586.00,0.0201
585.00,0.0198
584.00,0.0197
583.00,0.0198
582.00,0.0199
581.00,0.0201
580.00,0.0202
579.00,0.0202
578.00,0.0202
577.00,0.0202
576.00,0.0203
575.00,0.0203
574.00,0.0203
573.00,0.0201
572.00,0.0200
571.00,0.0202
570.00,0.0205
569.00,0.0208
568.00,0.0208
567.00,0.0208
566.00,0.0208
565.00,0.0209
564.00,0.0209
563.00,0.0206
562.00,0.0202
561.00,0.0198
560.00,0.0198
559.00,0.0201
558.00,0.0205
557.00,0.0205
556.00,0.0203
555.00,0.0201
554.00,0.0199
553.00,0.0198
552.00,0.0195
551.00,0.0192
550.00,0.0189
549.00,0.0189
548.00,0.0192
547.00,0.0199
546.00,0.0204
545.00,0.0207
544.00,0.0204
543.00,0.0200
542.00,0.0197
541.00,0.0197
540.00,0.0202
539.00,0.0208
538.00,0.0214
537.00,0.0216
536.00,0.0213
535.00,0.0208
534.00,0.0206
533.00,0.0205
532.00,0.0206
531.00,0.0207
530.00,0.0206
529.00,0.0202
528.00,0.0199
527.00,0.0197
526.00,0.0196
525.00,0.0196
524.00,0.0196
523.00,0.0195
522.00,0.0195
521.00,0.0195
520.00,0.0194
519.00,0.0191
518.00,0.0187
517.00,0.0184
516.00,0.0183
515.00,0.0185
514.00,0.0187
513.00,0.0187
512.00,0.0184
511.00,0.0179
510.00,0.0176
509.00,0.0175
508.00,0.0177
507.00,0.0182
506.00,0.0188
505.00,0.0191
504.00,0.0190
503.00,0.0186
502.00,0.0181
501.00,0.0180
500.00,0.0183
499.00,0.0187
498.00,0.0187
497.00,0.0181
496.00,0.0171
495.00,0.0163
494.00,0.0162
493.00,0.0168
492.00,0.0173
491.00,0.0174
490.00,0.0172
489.00,0.0171
488.00,0.0171
487.00,0.0173
486.00,0.0173
485.00,0.0172
484.00,0.0171
483.00,0.0171
482.00,0.0174
481.00,0.0180
480.00,0.0185
479.00,0.0187
478.00,0.0188
477.00,0.0191
476.00,0.0195
475.00,0.0198
474.00,0.0194
473.00,0.0188
472.00,0.0187
471.00,0.0191
470.00,0.0196
469.00,0.0199
468.00,0.0202
467.00,0.0207
466.00,0.0212
465.00,0.0215
464.00,0.0211
463.00,0.0203
462.00,0.0197
461.00,0.0199
460.00,0.0207
459.00,0.0212
458.00,0.0210
457.00,0.0207
456.00,0.0213
455.00,0.0222
454.00,0.0226
453.00,0.0224
452.00,0.0220
451.00,0.0217
450.00,0.0211
