Created as New Dataset,Sample 087 By Administrator Date Tuesday, September 09 2025
cm-1,A
4000.00,0.0012
3999.00,0.0012
3998.00,0.0012
3997.00,0.0012
3996.00,0.0011
3995.00,0.0011
3994.00,0.0012
3993.00,0.0012
3992.00,0.0011
3991.00,0.0011
3990.00,0.0011
3989.00,0.0011
3988.00,0.0010
3987.00,0.0010
3986.00,0.0010
3985.00,0.0010
3984.00,0.0010
3983.00,0.0010
3982.00,0.0010
3981.00,0.0011
3980.00,0.0011
3979.00,0.0011
3978.00,0.0011
3977.00,0.0011
3976.00,0.0011
3975.00,0.0011
3974.00,0.0011
3973.00,0.0010
3972.00,0.0010
3971.00,0.0010
3970.00,0.0010
3969.00,0.0010
3968.00,0.0010
3967.00,0.0010
3966.00,0.0010
3965.00,0.0010
3964.00,0.0010
3963.00,0.0010
3962.00,0.0010
3961.00,0.0009
3960.00,0.0009
3959.00,0.0009
3958.00,0.0009
3957.00,0.0009
3956.00,0.0009
3955.00,0.0009
3954.00,0.0009
3953.00,0.0009
3952.00,0.0009
3951.00,0.0009
3950.00,0.0009
3949.00,0.0009
3948.00,0.0009
3947.00,0.0009
3946.00,0.0009
3945.00,0.0009
3944.00,0.0010
3943.00,0.0010
3942.00,0.0010
3941.00,0.0010
3940.00,0.0010
3939.00,0.0010
3938.00,0.0010
3937.00,0.0010
3936.00,0.0010
3935.00,0.0010
3934.00,0.0010
3933.00,0.0010
3932.00,0.0009
3931.00,0.0009
3930.00,0.0009
3929.00,0.0009
3928.00,0.0009
3927.00,0.0010
3926.00,0.0010
3925.00,0.0010
3924.00,0.0010
3923.00,0.0010
3922.00,0.0010
3921.00,0.0010
3920.00,0.0009
3919.00,0.0009
3918.00,0.0009
3917.00,0.0009
3916.00,0.0009
3915.00,0.0009
3914.00,0.0009
3913.00,0.0010
3912.00,0.0010
3911.00,0.0010
3910.00,0.0010
3909.00,0.0010
3908.00,0.0009
3907.00,0.0009
3906.00,0.0009
3905.00,0.0009
3904.00,0.0009
3903.00,0.0009
3902.00,0.0009
3901.00,0.0009
3900.00,0.0009
3899.00,0.0009
3898.00,0.0009
3897.00,0.0009
3896.00,0.0009
3895.00,0.0009
3894.00,0.0010
3893.00,0.0010
3892.00,0.0010
3891.00,0.0010
3890.00,0.0009
3889.00,0.0009
3888.00,0.0009
3887.00,0.0010
3886.00,0.0010
3885.00,0.0010
3884.00,0.0010
3883.00,0.0009
3882.00,0.0010
3881.00,0.0010
3880.00,0.0010
3879.00,0.0010
3878.00,0.0009
3877.00,0.0009
3876.00,0.0009
3875.00,0.0009
3874.00,0.0009
3873.00,0.0009
3872.00,0.0009
3871.00,0.0010
3870.00,0.0010
3869.00,0.0010
3868.00,0.0010
3867.00,0.0010
3866.00,0.0010
3865.00,0.0010
3864.00,0.0010
3863.00,0.0010
3862.00,0.0009
3861.00,0.0009
3860.00,0.0008
3859.00,0.0008
3858.00,0.0008
3857.00,0.0007
3856.00,0.0007
3855.00,0.0007
3854.00,0.0007
3853.00,0.0008
3852.00,0.0008
3851.00,0.0009
3850.00,0.0009
3849.00,0.0009
3848.00,0.0008
3847.00,0.0008
3846.00,0.0008
3845.00,0.0009
3844.00,0.0009
3843.00,0.0009
3842.00,0.0009
3841.00,0.0009
3840.00,0.0008
3839.00,0.0008
3838.00,0.0008
3837.00,0.0009
3836.00,0.0009
3835.00,0.0010
3834.00,0.0010
3833.00,0.0010
3832.00,0.0010
3831.00,0.0010
3830.00,0.0010
3829.00,0.0010
3828.00,0.0010
3827.00,0.0009
3826.00,0.0009
3825.00,0.0009
3824.00,0.0008
3823.00,0.0008
3822.00,0.0007
3821.00,0.0007
3820.00,0.0007
3819.00,0.0008
3818.00,0.0009
3817.00,0.0009
3816.00,0.0010
3815.00,0.0010
3814.00,0.0010
3813.00,0.0010
3812.00,0.0010
3811.00,0.0009
3810.00,0.0009
3809.00,0.0009
3808.00,0.0008
3807.00,0.0008
3806.00,0.0008
3805.00,0.0008
3804.00,0.0008
3803.00,0.0008
3802.00,0.0008
3801.00,0.0008
3800.00,0.0008
3799.00,0.0009
3798.00,0.0009
3797.00,0.0009
3796.00,0.0009
3795.00,0.0009
3794.00,0.0009
3793.00,0.0009
3792.00,0.0009
3791.00,0.0009
3790.00,0.0009
3789.00,0.0009
3788.00,0.0009
3787.00,0.0009
3786.00,0.0009
3785.00,0.0008
3784.00,0.0008
3783.00,0.0009
3782.00,0.0009
3781.00,0.0009
3780.00,0.0009
3779.00,0.0009
3778.00,0.0009
3777.00,0.0009
3776.00,0.0009
3775.00,0.0009
3774.00,0.0009
3773.00,0.0009
3772.00,0.0009
3771.00,0.0009
3770.00,0.0009
3769.00,0.0009
3768.00,0.0009
3767.00,0.0009
3766.00,0.0009
3765.00,0.0009
3764.00,0.0009
3763.00,0.0010
3762.00,0.0010
3761.00,0.0010
3760.00,0.0010
3759.00,0.0010
3758.00,0.0010
3757.00,0.0010
3756.00,0.0010
3755.00,0.0010
3754.00,0.0010
3753.00,0.0009
3752.00,0.0009
3751.00,0.0009
3750.00,0.0009
3749.00,0.0009
3748.00,0.0009
3747.00,0.0008
3746.00,0.0008
3745.00,0.0008
3744.00,0.0008
3743.00,0.0008
3742.00,0.0007
3741.00,0.0007
3740.00,0.0007
3739.00,0.0007
3738.00,0.0007
3737.00,0.0008
3736.00,0.0009
3735.00,0.0009
3734.00,0.0009
3733.00,0.0009
3732.00,0.0009
3731.00,0.0009
3730.00,0.0009
3729.00,0.0009
3728.00,0.0009
3727.00,0.0009
3726.00,0.0010
3725.00,0.0010
3724.00,0.0009
3723.00,0.0009
3722.00,0.0008
3721.00,0.0008
3720.00,0.0008
3719.00,0.0008
3718.00,0.0008
3717.00,0.0008
3716.00,0.0008
3715.00,0.0008
3714.00,0.0008
3713.00,0.0008
3712.00,0.0008
3711.00,0.0008
3710.00,0.0009
3709.00,0.0009
3708.00,0.0009
3707.00,0.0009
3706.00,0.0008
3705.00,0.0008
3704.00,0.0008
3703.00,0.0008
3702.00,0.0008
3701.00,0.0007
3700.00,0.0007
3699.00,0.0007
3698.00,0.0007
3697.00,0.0007
3696.00,0.0007
3695.00,0.0007
3694.00,0.0007
3693.00,0.0007
3692.00,0.0007
3691.00,0.0007
3690.00,0.0008
3689.00,0.0008
3688.00,0.0008
3687.00,0.0008
3686.00,0.0008
3685.00,0.0008
3684.00,0.0007
3683.00,0.0007
3682.00,0.0007
3681.00,0.0007
3680.00,0.0007
3679.00,0.0006
3678.00,0.0006
3677.00,0.0006
3676.00,0.0006
3675.00,0.0007
3674.00,0.0008
3673.00,0.0008
3672.00,0.0008
3671.00,0.0008
3670.00,0.0007
3669.00,0.0007
3668.00,0.0007
3667.00,0.0007
3666.00,0.0007
3665.00,0.0007
3664.00,0.0006
3663.00,0.0006
3662.00,0.0007
3661.00,0.0007
3660.00,0.0006
3659.00,0.0006
3658.00,0.0006
3657.00,0.0006
3656.00,0.0006
3655.00,0.0006
3654.00,0.0006
3653.00,0.0006
3652.00,0.0006
3651.00,0.0006
3650.00,0.0005
3649.00,0.0005
3648.00,0.0005
3647.00,0.0006
3646.00,0.0006
3645.00,0.0007
3644.00,0.0007
3643.00,0.0008
3642.00,0.0008
3641.00,0.0009
3640.00,0.0009
3639.00,0.0009
3638.00,0.0009
3637.00,0.0008
3636.00,0.0008
3635.00,0.0008
3634.00,0.0008
3633.00,0.0008
3632.00,0.0008
3631.00,0.0009
3630.00,0.0009
3629.00,0.0009
3628.00,0.0009
3627.00,0.0009
3626.00,0.0009
3625.00,0.0009
3624.00,0.0009
3623.00,0.0009
3622.00,0.0010
3621.00,0.0010
3620.00,0.0010
3619.00,0.0011
3618.00,0.0011
3617.00,0.0011
3616.00,0.0011
3615.00,0.0011
3614.00,0.0011
3613.00,0.0011
3612.00,0.0011
3611.00,0.0011
3610.00,0.0012
3609.00,0.0012
3608.00,0.0012
3607.00,0.0012
3606.00,0.0013
3605.00,0.0013
3604.00,0.0013
3603.00,0.0013
3602.00,0.0013
3601.00,0.0013
3600.00,0.0013
3599.00,0.0013
3598.00,0.0013
3597.00,0.0013
3596.00,0.0013
3595.00,0.0013
3594.00,0.0013
3593.00,0.0014
3592.00,0.0014
3591.00,0.0014
3590.00,0.0014
3589.00,0.0014
3588.00,0.0014
3587.00,0.0014
3586.00,0.0015
3585.00,0.0015
3584.00,0.0015
3583.00,0.0015
3582.00,0.0015
3581.00,0.0016
3580.00,0.0016
3579.00,0.0016
3578.00,0.0017
3577.00,0.0017
3576.00,0.0017
3575.00,0.0017
3574.00,0.0017
3573.00,0.0017
3572.00,0.0017
3571.00,0.0017
3570.00,0.0018
3569.00,0.0018
3568.00,0.0019
3567.00,0.0019
3566.00,0.0020
3565.00,0.0020
3564.00,0.0020
3563.00,0.0020
3562.00,0.0020
3561.00,0.0020
3560.00,0.0020
3559.00,0.0021
3558.00,0.0021
3557.00,0.0021
3556.00,0.0021
3555.00,0.0022
3554.00,0.0022
3553.00,0.0022
3552.00,0.0022
3551.00,0.0022
3550.00,0.0022
3549.00,0.0022
3548.00,0.0022
3547.00,0.0023
3546.00,0.0023
3545.00,0.0024
3544.00,0.0024
3543.00,0.0024
3542.00,0.0024
3541.00,0.0025
3540.00,0.0025
3539.00,0.0025
3538.00,0.0025
3537.00,0.0025
3536.00,0.0025
3535.00,0.0025
3534.00,0.0026
3533.00,0.0026
3532.00,0.0026
3531.00,0.0026
3530.00,0.0026
3529.00,0.0027
3528.00,0.0027
3527.00,0.0028
3526.00,0.0028
3525.00,0.0028
3524.00,0.0028
3523.00,0.0028
3522.00,0.0029
3521.00,0.0029
3520.00,0.0029
3519.00,0.0030
3518.00,0.0030
3517.00,0.0029
3516.00,0.0029
3515.00,0.0029
3514.00,0.0029
3513.00,0.0030
3512.00,0.0030
3511.00,0.0031
3510.00,0.0032
3509.00,0.0032
3508.00,0.0033
3507.00,0.0033
3506.00,0.0033
3505.00,0.0033
3504.00,0.0033
3503.00,0.0033
3502.00,0.0033
3501.00,0.0033
3500.00,0.0033
3499.00,0.0033
3498.00,0.0033
3497.00,0.0033
3496.00,0.0034
3495.00,0.0034
3494.00,0.0034
3493.00,0.0035
3492.00,0.0035
3491.00,0.0035
3490.00,0.0035
3489.00,0.0035
3488.00,0.0035
3487.00,0.0035
3486.00,0.0035
3485.00,0.0036
3484.00,0.0036
3483.00,0.0036
3482.00,0.0036
3481.00,0.0036
3480.00,0.0037
3479.00,0.0037
3478.00,0.0037
3477.00,0.0037
3476.00,0.0038
3475.00,0.0038
3474.00,0.0038
3473.00,0.0039
3472.00,0.0039
3471.00,0.0039
3470.00,0.0039
3469.00,0.0038
3468.00,0.0039
3467.00,0.0039
3466.00,0.0039
3465.00,0.0039
3464.00,0.0040
3463.00,0.0040
3462.00,0.0041
3461.00,0.0041
3460.00,0.0041
3459.00,0.0041
3458.00,0.0041
3457.00,0.0041
3456.00,0.0042
3455.00,0.0042
3454.00,0.0042
3453.00,0.0042
3452.00,0.0042
3451.00,0.0042
3450.00,0.0042
3449.00,0.0042
3448.00,0.0042
3447.00,0.0042
3446.00,0.0042
3445.00,0.0042
3444.00,0.0042
3443.00,0.0043
3442.00,0.0043
3441.00,0.0043
3440.00,0.0043
3439.00,0.0043
3438.00,0.0044
3437.00,0.0044
3436.00,0.0044
3435.00,0.0044
3434.00,0.0044
3433.00,0.0044
3432.00,0.0045
3431.00,0.0045
3430.00,0.0045
3429.00,0.0046
3428.00,0.0046
3427.00,0.0046
3426.00,0.0046
3425.00,0.0045
3424.00,0.0045
3423.00,0.0045
3422.00,0.0045
3421.00,0.0045
3420.00,0.0046
3419.00,0.0046
3418.00,0.0046
3417.00,0.0047
3416.00,0.0047
3415.00,0.0047
3414.00,0.0047
3413.00,0.0047
3412.00,0.0047
3411.00,0.0047
3410.00,0.0047
3409.00,0.0048
3408.00,0.0048
3407.00,0.0048
3406.00,0.0048
3405.00,0.0048
3404.00,0.0048
3403.00,0.0048
3402.00,0.0048
3401.00,0.0048
3400.00,0.0047
3399.00,0.0047
3398.00,0.0048
3397.00,0.0048
3396.00,0.0048
3395.00,0.0048
3394.00,0.0048
3393.00,0.0047
3392.00,0.0047
3391.00,0.0047
3390.00,0.0047
3389.00,0.0048
3388.00,0.0048
3387.00,0.0048
3386.00,0.0048
3385.00,0.0048
3384.00,0.0048
3383.00,0.0048
3382.00,0.0047
3381.00,0.0047
3380.00,0.0047
3379.00,0.0047
3378.00,0.0047
3377.00,0.0047
3376.00,0.0048
3375.00,0.0048
3374.00,0.0048
3373.00,0.0049
3372.00,0.0049
3371.00,0.0049
3370.00,0.0048
3369.00,0.0048
3368.00,0.0048
3367.00,0.0048
3366.00,0.0048
3365.00,0.0048
3364.00,0.0048
3363.00,0.0048
3362.00,0.0048
3361.00,0.0048
3360.00,0.0048
3359.00,0.0047
3358.00,0.0047
3357.00,0.0047
3356.00,0.0047
3355.00,0.0047
3354.00,0.0048
3353.00,0.0048
3352.00,0.0048
3351.00,0.0048
3350.00,0.0048
3349.00,0.0048
3348.00,0.0048
3347.00,0.0048
3346.00,0.0048
3345.00,0.0048
3344.00,0.0048
3343.00,0.0048
3342.00,0.0048
3341.00,0.0048
3340.00,0.0047
3339.00,0.0047
3338.00,0.0047
3337.00,0.0046
3336.00,0.0046
3335.00,0.0046
3334.00,0.0046
3333.00,0.0046
3332.00,0.0046
3331.00,0.0046
3330.00,0.0046
3329.00,0.0046
3328.00,0.0046
3327.00,0.0046
3326.00,0.0046
3325.00,0.0046
3324.00,0.0045
3323.00,0.0045
3322.00,0.0045
3321.00,0.0045
3320.00,0.0045
3319.00,0.0044
3318.00,0.0044
3317.00,0.0044
3316.00,0.0044
3315.00,0.0044
3314.00,0.0044
3313.00,0.0044
3312.00,0.0044
3311.00,0.0044
3310.00,0.0044
3309.00,0.0044
3308.00,0.0044
3307.00,0.0044
3306.00,0.0044
3305.00,0.0043
3304.00,0.0043
3303.00,0.0043
3302.00,0.0043
3301.00,0.0044
3300.00,0.0044
3299.00,0.0044
3298.00,0.0043
3297.00,0.0043
3296.00,0.0043
3295.00,0.0043
3294.00,0.0042
3293.00,0.0042
3292.00,0.0042
3291.00,0.0042
3290.00,0.0042
3289.00,0.0042
3288.00,0.0042
3287.00,0.0042
3286.00,0.0042
3285.00,0.0041
3284.00,0.0041
3283.00,0.0041
3282.00,0.0041
3281.00,0.0041
3280.00,0.0041
3279.00,0.0041
3278.00,0.0041
3277.00,0.0040
3276.00,0.0041
3275.00,0.0041
3274.00,0.0041
3273.00,0.0041
3272.00,0.0041
3271.00,0.0041
3270.00,0.0041
3269.00,0.0040
3268.00,0.0040
3267.00,0.0040
3266.00,0.0040
3265.00,0.0040
3264.00,0.0040
3263.00,0.0040
3262.00,0.0040
3261.00,0.0039
3260.00,0.0039
3259.00,0.0039
3258.00,0.0039
3257.00,0.0038
3256.00,0.0038
3255.00,0.0038
3254.00,0.0038
3253.00,0.0038
3252.00,0.0038
3251.00,0.0038
3250.00,0.0038
3249.00,0.0038
3248.00,0.0037
3247.00,0.0037
3246.00,0.0037
3245.00,0.0037
3244.00,0.0037
3243.00,0.0037
3242.00,0.0037
3241.00,0.0037
3240.00,0.0038
3239.00,0.0038
3238.00,0.0037
3237.00,0.0037
3236.00,0.0037
3235.00,0.0037
3234.00,0.0037
3233.00,0.0037
3232.00,0.0037
3231.00,0.0038
3230.00,0.0038
3229.00,0.0038
3228.00,0.0038
3227.00,0.0038
3226.00,0.0039
3225.00,0.0039
3224.00,0.0039
3223.00,0.0039
3222.00,0.0039
3221.00,0.0039
3220.00,0.0039
3219.00,0.0039
3218.00,0.0039
3217.00,0.0039
3216.00,0.0039
3215.00,0.0039
3214.00,0.0040
3213.00,0.0040
3212.00,0.0040
3211.00,0.0040
3210.00,0.0040
3209.00,0.0040
3208.00,0.0040
3207.00,0.0041
3206.00,0.0041
3205.00,0.0041
3204.00,0.0040
3203.00,0.0040
3202.00,0.0040
3201.00,0.0040
3200.00,0.0040
3199.00,0.0040
3198.00,0.0040
3197.00,0.0040
3196.00,0.0040
3195.00,0.0040
3194.00,0.0040
3193.00,0.0040
3192.00,0.0040
3191.00,0.0040
3190.00,0.0039
3189.00,0.0039
3188.00,0.0039
3187.00,0.0039
3186.00,0.0039
3185.00,0.0038
3184.00,0.0038
3183.00,0.0038
3182.00,0.0038
3181.00,0.0038
3180.00,0.0037
3179.00,0.0037
3178.00,0.0036
3177.00,0.0036
3176.00,0.0036
3175.00,0.0036
3174.00,0.0037
3173.00,0.0037
3172.00,0.0037
3171.00,0.0037
3170.00,0.0037
3169.00,0.0037
3168.00,0.0037
3167.00,0.0036
3166.00,0.0036
3165.00,0.0035
3164.00,0.0035
3163.00,0.0035
3162.00,0.0034
3161.00,0.0034
3160.00,0.0034
3159.00,0.0034
3158.00,0.0035
3157.00,0.0035
3156.00,0.0036
3155.00,0.0036
3154.00,0.0036
3153.00,0.0036
3152.00,0.0036
3151.00,0.0035
3150.00,0.0035
3149.00,0.0035
3148.00,0.0035
3147.00,0.0035
3146.00,0.0035
3145.00,0.0035
3144.00,0.0035
3143.00,0.0035
3142.00,0.0035
3141.00,0.0034
3140.00,0.0034
3139.00,0.0033
3138.00,0.0033
3137.00,0.0033
3136.00,0.0033
3135.00,0.0033
3134.00,0.0033
3133.00,0.0033
3132.00,0.0032
3131.00,0.0032
3130.00,0.0032
3129.00,0.0032
3128.00,0.0032
3127.00,0.0032
3126.00,0.0031
3125.00,0.0031
3124.00,0.0030
3123.00,0.0030
3122.00,0.0030
3121.00,0.0030
3120.00,0.0030
3119.00,0.0030
3118.00,0.0030
3117.00,0.0029
3116.00,0.0029
3115.00,0.0029
3114.00,0.0029
3113.00,0.0029
3112.00,0.0029
3111.00,0.0029
3110.00,0.0029
3109.00,0.0029
3108.00,0.0029
3107.00,0.0029
3106.00,0.0028
3105.00,0.0028
3104.00,0.0027
3103.00,0.0027
3102.00,0.0027
3101.00,0.0027
3100.00,0.0027
3099.00,0.0027
3098.00,0.0028
3097.00,0.0028
3096.00,0.0028
3095.00,0.0028
3094.00,0.0028
3093.00,0.0028
3092.00,0.0028
3091.00,0.0028
3090.00,0.0028
3089.00,0.0028
3088.00,0.0028
3087.00,0.0028
3086.00,0.0028
3085.00,0.0027
3084.00,0.0027
3083.00,0.0026
3082.00,0.0026
3081.00,0.0027
3080.00,0.0027
3079.00,0.0028
3078.00,0.0028
3077.00,0.0028
3076.00,0.0028
3075.00,0.0028
3074.00,0.0028
3073.00,0.0028
3072.00,0.0028
3071.00,0.0028
3070.00,0.0028
3069.00,0.0029
3068.00,0.0029
3067.00,0.0029
3066.00,0.0029
3065.00,0.0029
3064.00,0.0029
3063.00,0.0029
3062.00,0.0029
3061.00,0.0029
3060.00,0.0029
3059.00,0.0029
3058.00,0.0029
3057.00,0.0030
3056.00,0.0030
3055.00,0.0030
3054.00,0.0030
3053.00,0.0030
3052.00,0.0030
3051.00,0.0031
3050.00,0.0031
3049.00,0.0031
3048.00,0.0031
3047.00,0.0032
3046.00,0.0032
3045.00,0.0032
3044.00,0.0032
3043.00,0.0033
3042.00,0.0033
3041.00,0.0033
3040.00,0.0033
3039.00,0.0034
3038.00,0.0034
3037.00,0.0034
3036.00,0.0034
3035.00,0.0034
3034.00,0.0035
3033.00,0.0036
3032.00,0.0036
3031.00,0.0037
3030.00,0.0037
3029.00,0.0037
3028.00,0.0038
3027.00,0.0038
3026.00,0.0039
3025.00,0.0039
3024.00,0.0039
3023.00,0.0040
3022.00,0.0041
3021.00,0.0041
3020.00,0.0042
3019.00,0.0043
3018.00,0.0044
3017.00,0.0045
3016.00,0.0046
3015.00,0.0047
3014.00,0.0048
3013.00,0.0049
3012.00,0.0050
3011.00,0.0051
3010.00,0.0052
3009.00,0.0053
3008.00,0.0054
3007.00,0.0055
3006.00,0.0057
3005.00,0.0059
3004.00,0.0061
3003.00,0.0063
3002.00,0.0065
3001.00,0.0067
3000.00,0.0069
2999.00,0.0072
2998.00,0.0076
2997.00,0.0079
2996.00,0.0082
2995.00,0.0086
2994.00,0.0090
2993.00,0.0094
2992.00,0.0099
2991.00,0.0105
2990.00,0.0111
2989.00,0.0118
2988.00,0.0126
2987.00,0.0135
2986.00,0.0144
2985.00,0.0155
2984.00,0.0166
2983.00,0.0179
2982.00,0.0194
2981.00,0.0211
2980.00,0.0232
2979.00,0.0255
2978.00,0.0281
2977.00,0.0311
2976.00,0.0344
2975.00,0.0381
2974.00,0.0424
2973.00,0.0472
2972.00,0.0527
2971.00,0.0589
2970.00,0.0659
2969.00,0.0735
2968.00,0.0819
2967.00,0.0909
2966.00,0.1005
2965.00,0.1103
2964.00,0.1201
2963.00,0.1293
2962.00,0.1376
2961.00,0.1447
2960.00,0.1503
2959.00,0.1547
2958.00,0.1583
2957.00,0.1617
2956.00,0.1653
2955.00,0.1697
2954.00,0.1748
2953.00,0.1804
2952.00,0.1856
2951.00,0.1896
2950.00,0.1912
2949.00,0.1895
2948.00,0.1839
2947.00,0.1748
2946.00,0.1630
2945.00,0.1498
2944.00,0.1368
2943.00,0.1251
2942.00,0.1157
2941.00,0.1088
2940.00,0.1044
2939.00,0.1025
2938.00,0.1026
2937.00,0.1046
2936.00,0.1084
2935.00,0.1136
2934.00,0.1201
2933.00,0.1279
2932.00,0.1366
2931.00,0.1462
2930.00,0.1563
2929.00,0.1666
2928.00,0.1767
2927.00,0.1863
2926.00,0.1955
2925.00,0.2042
2924.00,0.2125
2923.00,0.2205
2922.00,0.2282
2921.00,0.2356
2920.00,0.2421
2919.00,0.2470
2918.00,0.2497
2917.00,0.2496
2916.00,0.2465
2915.00,0.2407
2914.00,0.2329
2913.00,0.2241
2912.00,0.2152
2911.00,0.2066
2910.00,0.1987
2909.00,0.1914
2908.00,0.1847
2907.00,0.1782
2906.00,0.1717
2905.00,0.1652
2904.00,0.1585
2903.00,0.1517
2902.00,0.1449
2901.00,0.1381
2900.00,0.1316
2899.00,0.1254
2898.00,0.1197
2897.00,0.1146
2896.00,0.1101
2895.00,0.1063
2894.00,0.1033
2893.00,0.1009
2892.00,0.0992
2891.00,0.0982
2890.00,0.0977
2889.00,0.0976
2888.00,0.0979
2887.00,0.0986
2886.00,0.0997
2885.00,0.1012
2884.00,0.1031
2883.00,0.1055
2882.00,0.1083
2881.00,0.1114
2880.00,0.1144
2879.00,0.1169
2878.00,0.1186
2877.00,0.1192
2876.00,0.1189
2875.00,0.1180
2874.00,0.1171
2873.00,0.1166
2872.00,0.1170
2871.00,0.1181
2870.00,0.1198
2869.00,0.1217
2868.00,0.1230
2867.00,0.1227
2866.00,0.1202
2865.00,0.1151
2864.00,0.1077
2863.00,0.0989
2862.00,0.0896
2861.00,0.0809
2860.00,0.0734
2859.00,0.0674
2858.00,0.0628
2857.00,0.0595
2856.00,0.0572
2855.00,0.0559
2854.00,0.0553
2853.00,0.0554
2852.00,0.0561
2851.00,0.0574
2850.00,0.0594
2849.00,0.0620
2848.00,0.0654
2847.00,0.0695
2846.00,0.0746
2845.00,0.0805
2844.00,0.0873
2843.00,0.0946
2842.00,0.1023
2841.00,0.1096
2840.00,0.1157
2839.00,0.1199
2838.00,0.1212
2837.00,0.1190
2836.00,0.1133
2835.00,0.1046
2834.00,0.0941
2833.00,0.0829
2832.00,0.0723
2831.00,0.0628
2830.00,0.0548
2829.00,0.0483
2828.00,0.0431
2827.00,0.0388
2826.00,0.0354
2825.00,0.0326
2824.00,0.0302
2823.00,0.0283
2822.00,0.0266
2821.00,0.0252
2820.00,0.0239
2819.00,0.0227
2818.00,0.0218
2817.00,0.0209
2816.00,0.0201
2815.00,0.0195
2814.00,0.0190
2813.00,0.0185
2812.00,0.0180
2811.00,0.0175
2810.00,0.0170
2809.00,0.0164
2808.00,0.0159
2807.00,0.0153
2806.00,0.0146
2805.00,0.0140
2804.00,0.0133
2803.00,0.0128
2802.00,0.0123
2801.00,0.0118
2800.00,0.0114
2799.00,0.0111
2798.00,0.0108
2797.00,0.0106
2796.00,0.0104
2795.00,0.0102
2794.00,0.0099
2793.00,0.0096
2792.00,0.0093
2791.00,0.0090
2790.00,0.0086
2789.00,0.0083
2788.00,0.0080
2787.00,0.0077
2786.00,0.0075
2785.00,0.0072
2784.00,0.0070
2783.00,0.0068
2782.00,0.0066
2781.00,0.0064
2780.00,0.0063
2779.00,0.0061
2778.00,0.0060
2777.00,0.0059
2776.00,0.0058
2775.00,0.0057
2774.00,0.0056
2773.00,0.0056
2772.00,0.0055
2771.00,0.0055
2770.00,0.0054
2769.00,0.0054
2768.00,0.0054
2767.00,0.0054
2766.00,0.0053
2765.00,0.0052
2764.00,0.0052
2763.00,0.0051
2762.00,0.0051
2761.00,0.0051
2760.00,0.0051
2759.00,0.0050
2758.00,0.0050
2757.00,0.0050
2756.00,0.0050
2755.00,0.0050
2754.00,0.0050
2753.00,0.0050
2752.00,0.0050
2751.00,0.0050
2750.00,0.0050
2749.00,0.0049
2748.00,0.0049
2747.00,0.0050
2746.00,0.0050
2745.00,0.0051
2744.00,0.0052
2743.00,0.0053
2742.00,0.0054
2741.00,0.0055
2740.00,0.0056
2739.00,0.0058
2738.00,0.0059
2737.00,0.0061
2736.00,0.0062
2735.00,0.0064
2734.00,0.0065
2733.00,0.0067
2732.00,0.0068
2731.00,0.0070
2730.00,0.0072
2729.00,0.0074
2728.00,0.0077
2727.00,0.0080
2726.00,0.0083
2725.00,0.0085
2724.00,0.0087
2723.00,0.0087
2722.00,0.0086
2721.00,0.0084
2720.00,0.0081
2719.00,0.0078
2718.00,0.0074
2717.00,0.0071
2716.00,0.0069
2715.00,0.0066
2714.00,0.0064
2713.00,0.0062
2712.00,0.0060
2711.00,0.0058
2710.00,0.0056
2709.00,0.0054
2708.00,0.0053
2707.00,0.0051
2706.00,0.0050
2705.00,0.0049
2704.00,0.0048
2703.00,0.0047
2702.00,0.0046
2701.00,0.0046
2700.00,0.0045
2699.00,0.0045
2698.00,0.0044
2697.00,0.0044
2696.00,0.0044
2695.00,0.0043
2694.00,0.0044
2693.00,0.0044
2692.00,0.0044
2691.00,0.0044
2690.00,0.0044
2689.00,0.0044
2688.00,0.0043
2687.00,0.0043
2686.00,0.0043
2685.00,0.0043
2684.00,0.0044
2683.00,0.0044
2682.00,0.0044
2681.00,0.0044
2680.00,0.0044
2679.00,0.0044
2678.00,0.0044
2677.00,0.0044
2676.00,0.0044
2675.00,0.0044
2674.00,0.0043
2673.00,0.0043
2672.00,0.0043
2671.00,0.0043
2670.00,0.0043
2669.00,0.0043
2668.00,0.0043
2667.00,0.0043
2666.00,0.0043
2665.00,0.0044
2664.00,0.0045
2663.00,0.0045
2662.00,0.0046
2661.00,0.0046
2660.00,0.0046
2659.00,0.0046
2658.00,0.0046
2657.00,0.0045
2656.00,0.0045
2655.00,0.0045
2654.00,0.0044
2653.00,0.0044
2652.00,0.0043
2651.00,0.0042
2650.00,0.0042
2649.00,0.0041
2648.00,0.0041
2647.00,0.0041
2646.00,0.0040
2645.00,0.0040
2644.00,0.0040
2643.00,0.0039
2642.00,0.0039
2641.00,0.0038
2640.00,0.0038
2639.00,0.0037
2638.00,0.0036
2637.00,0.0036
2636.00,0.0036
2635.00,0.0036
2634.00,0.0036
2633.00,0.0036
2632.00,0.0036
2631.00,0.0037
2630.00,0.0037
2629.00,0.0037
2628.00,0.0038
2627.00,0.0038
2626.00,0.0038
2625.00,0.0038
2624.00,0.0038
2623.00,0.0039
2622.00,0.0039
2621.00,0.0039
2620.00,0.0039
2619.00,0.0039
2618.00,0.0038
2617.00,0.0039
2616.00,0.0039
2615.00,0.0039
2614.00,0.0039
2613.00,0.0039
2612.00,0.0039
2611.00,0.0038
2610.00,0.0037
2609.00,0.0036
2608.00,0.0035
2607.00,0.0034
2606.00,0.0034
2605.00,0.0033
2604.00,0.0033
2603.00,0.0032
2602.00,0.0032
2601.00,0.0032
2600.00,0.0031
2599.00,0.0031
2598.00,0.0031
2597.00,0.0032
2596.00,0.0032
2595.00,0.0032
2594.00,0.0032
2593.00,0.0032
2592.00,0.0033
2591.00,0.0033
2590.00,0.0034
2589.00,0.0035
2588.00,0.0036
2587.00,0.0037
2586.00,0.0038
2585.00,0.0039
2584.00,0.0040
2583.00,0.0040
2582.00,0.0040
2581.00,0.0039
2580.00,0.0038
2579.00,0.0037
2578.00,0.0036
2577.00,0.0035
2576.00,0.0034
2575.00,0.0033
2574.00,0.0033
2573.00,0.0032
2572.00,0.0031
2571.00,0.0030
2570.00,0.0029
2569.00,0.0029
2568.00,0.0028
2567.00,0.0028
2566.00,0.0027
2565.00,0.0026
2564.00,0.0025
2563.00,0.0024
2562.00,0.0024
2561.00,0.0024
2560.00,0.0024
2559.00,0.0024
2558.00,0.0024
2557.00,0.0024
2556.00,0.0023
2555.00,0.0023
2554.00,0.0023
2553.00,0.0022
2552.00,0.0022
2551.00,0.0022
2550.00,0.0021
2549.00,0.0020
2548.00,0.0020
2547.00,0.0020
2546.00,0.0019
2545.00,0.0019
2544.00,0.0019
2543.00,0.0018
2542.00,0.0018
2541.00,0.0018
2540.00,0.0018
2539.00,0.0017
2538.00,0.0018
2537.00,0.0018
2536.00,0.0018
2535.00,0.0018
2534.00,0.0018
2533.00,0.0017
2532.00,0.0016
2531.00,0.0015
2530.00,0.0014
2529.00,0.0013
2528.00,0.0013
2527.00,0.0013
2526.00,0.0013
2525.00,0.0013
2524.00,0.0013
2523.00,0.0013
2522.00,0.0013
2521.00,0.0012
2520.00,0.0012
2519.00,0.0013
2518.00,0.0013
2517.00,0.0014
2516.00,0.0014
2515.00,0.0014
2514.00,0.0013
2513.00,0.0012
2512.00,0.0012
2511.00,0.0011
2510.00,0.0011
2509.00,0.0010
2508.00,0.0011
2507.00,0.0011
2506.00,0.0012
2505.00,0.0012
2504.00,0.0011
2503.00,0.0011
2502.00,0.0010
2501.00,0.0010
2500.00,0.0010
2499.00,0.0010
2498.00,0.0010
2497.00,0.0010
2496.00,0.0010
2495.00,0.0010
2494.00,0.0011
2493.00,0.0011
2492.00,0.0010
2491.00,0.0010
2490.00,0.0010
2489.00,0.0011
2488.00,0.0011
2487.00,0.0012
2486.00,0.0012
2485.00,0.0012
2484.00,0.0011
2483.00,0.0010
2482.00,0.0010
2481.00,0.0010
2480.00,0.0010
2479.00,0.0011
2478.00,0.0011
2477.00,0.0011
2476.00,0.0011
2475.00,0.0010
2474.00,0.0010
2473.00,0.0010
2472.00,0.0010
2471.00,0.0010
2470.00,0.0010
2469.00,0.0009
2468.00,0.0009
2467.00,0.0009
2466.00,0.0009
2465.00,0.0010
2464.00,0.0010
2463.00,0.0010
2462.00,0.0010
2461.00,0.0010
2460.00,0.0011
2459.00,0.0011
2458.00,0.0011
2457.00,0.0012
2456.00,0.0012
2455.00,0.0012
2454.00,0.0012
2453.00,0.0012
2452.00,0.0011
2451.00,0.0011
2450.00,0.0011
2449.00,0.0011
2448.00,0.0012
2447.00,0.0012
2446.00,0.0012
2445.00,0.0011
2444.00,0.0011
2443.00,0.0012
2442.00,0.0012
2441.00,0.0011
2440.00,0.0011
2439.00,0.0011
2438.00,0.0012
2437.00,0.0012
2436.00,0.0012
2435.00,0.0012
2434.00,0.0012
2433.00,0.0012
2432.00,0.0012
2431.00,0.0012
2430.00,0.0012
2429.00,0.0012
2428.00,0.0013
2427.00,0.0013
2426.00,0.0013
2425.00,0.0013
2424.00,0.0013
2423.00,0.0013
2422.00,0.0013
2421.00,0.0012
2420.00,0.0012
2419.00,0.0012
2418.00,0.0012
2417.00,0.0011
2416.00,0.0011
2415.00,0.0011
2414.00,0.0011
2413.00,0.0011
2412.00,0.0011
2411.00,0.0011
2410.00,0.0011
2409.00,0.0011
2408.00,0.0011
2407.00,0.0011
2406.00,0.0010
2405.00,0.0010
2404.00,0.0010
2403.00,0.0010
2402.00,0.0010
2401.00,0.0010
2400.00,0.0010
2399.00,0.0009
2398.00,0.0009
2397.00,0.0008
2396.00,0.0008
2395.00,0.0008
2394.00,0.0008
2393.00,0.0008
2392.00,0.0008
2391.00,0.0008
2390.00,0.0008
2389.00,0.0008
2388.00,0.0008
2387.00,0.0008
2386.00,0.0008
2385.00,0.0007
2384.00,0.0007
2383.00,0.0006
2382.00,0.0006
2381.00,0.0005
2380.00,0.0006
2379.00,0.0006
2378.00,0.0006
2377.00,0.0006
2376.00,0.0005
2375.00,0.0005
2374.00,0.0005
2373.00,0.0005
2372.00,0.0005
2371.00,0.0005
2370.00,0.0005
2369.00,0.0005
2368.00,0.0005
2367.00,0.0005
2366.00,0.0005
2365.00,0.0005
2364.00,0.0006
2363.00,0.0005
2362.00,0.0005
2361.00,0.0005
2360.00,0.0005
2359.00,0.0005
2358.00,0.0005
2357.00,0.0005
2356.00,0.0005
2355.00,0.0005
2354.00,0.0005
2353.00,0.0005
2352.00,0.0004
2351.00,0.0004
2350.00,0.0003
2349.00,0.0004
2348.00,0.0007
2347.00,0.0010
2346.00,0.0013
2345.00,0.0012
2344.00,0.0010
2343.00,0.0008
2342.00,0.0007
2341.00,0.0006
2340.00,0.0007
2339.00,0.0007
2338.00,0.0007
2337.00,0.0007
2336.00,0.0007
2335.00,0.0007
2334.00,0.0007
2333.00,0.0006
2332.00,0.0006
2331.00,0.0006
2330.00,0.0005
2329.00,0.0005
2328.00,0.0006
2327.00,0.0009
2326.00,0.0013
2325.00,0.0016
2324.00,0.0018
2323.00,0.0017
2322.00,0.0015
2321.00,0.0013
2320.00,0.0010
2319.00,0.0009
2318.00,0.0007
2317.00,0.0006
2316.00,0.0005
2315.00,0.0005
2314.00,0.0005
2313.00,0.0005
2312.00,0.0006
2311.00,0.0005
2310.00,0.0005
2309.00,0.0005
2308.00,0.0006
2307.00,0.0007
2306.00,0.0007
2305.00,0.0008
2304.00,0.0009
2303.00,0.0009
2302.00,0.0009
2301.00,0.0009
2300.00,0.0009
2299.00,0.0010
2298.00,0.0011
2297.00,0.0011
2296.00,0.0012
2295.00,0.0012
2294.00,0.0012
2293.00,0.0013
2292.00,0.0014
2291.00,0.0015
2290.00,0.0015
2289.00,0.0016
2288.00,0.0017
2287.00,0.0018
2286.00,0.0019
2285.00,0.0019
2284.00,0.0019
2283.00,0.0018
2282.00,0.0016
2281.00,0.0015
2280.00,0.0014
2279.00,0.0013
2278.00,0.0013
2277.00,0.0014
2276.00,0.0015
2275.00,0.0016
2274.00,0.0016
2273.00,0.0015
2272.00,0.0014
2271.00,0.0013
2270.00,0.0012
2269.00,0.0011
2268.00,0.0011
2267.00,0.0012
2266.00,0.0013
2265.00,0.0013
2264.00,0.0013
2263.00,0.0013
2262.00,0.0011
2261.00,0.0010
2260.00,0.0009
2259.00,0.0010
2258.00,0.0012
2257.00,0.0012
2256.00,0.0011
2255.00,0.0008
2254.00,0.0006
2253.00,0.0005
2252.00,0.0004
2251.00,0.0004
2250.00,0.0005
2249.00,0.0006
2248.00,0.0008
2247.00,0.0008
2246.00,0.0009
2245.00,0.0009
2244.00,0.0008
2243.00,0.0008
2242.00,0.0008
2241.00,0.0008
2240.00,0.0009
2239.00,0.0009
2238.00,0.0008
2237.00,0.0008
2236.00,0.0008
2235.00,0.0009
2234.00,0.0010
2233.00,0.0010
2232.00,0.0010
2231.00,0.0010
2230.00,0.0009
2229.00,0.0009
2228.00,0.0008
2227.00,0.0008
2226.00,0.0008
2225.00,0.0008
2224.00,0.0008
2223.00,0.0007
2222.00,0.0005
2221.00,0.0005
2220.00,0.0006
2219.00,0.0008
2218.00,0.0009
2217.00,0.0009
2216.00,0.0008
2215.00,0.0007
2214.00,0.0007
2213.00,0.0007
2212.00,0.0007
2211.00,0.0007
2210.00,0.0006
2209.00,0.0006
2208.00,0.0006
2207.00,0.0007
2206.00,0.0008
2205.00,0.0008
2204.00,0.0007
2203.00,0.0006
2202.00,0.0006
2201.00,0.0007
2200.00,0.0008
2199.00,0.0009
2198.00,0.0009
2197.00,0.0010
2196.00,0.0010
2195.00,0.0011
2194.00,0.0011
2193.00,0.0012
2192.00,0.0013
2191.00,0.0014
2190.00,0.0013
2189.00,0.0010
2188.00,0.0008
2187.00,0.0007
2186.00,0.0006
2185.00,0.0006
2184.00,0.0005
2183.00,0.0004
2182.00,0.0004
2181.00,0.0006
2180.00,0.0007
2179.00,0.0006
2178.00,0.0004
2177.00,0.0002
2176.00,0.0001
2175.00,0.0003
2174.00,0.0006
2173.00,0.0009
2172.00,0.0012
2171.00,0.0015
2170.00,0.0018
2169.00,0.0020
2168.00,0.0022
2167.00,0.0023
2166.00,0.0023
2165.00,0.0021
2164.00,0.0019
2163.00,0.0017
2162.00,0.0015
2161.00,0.0008
2160.00,-0.0003
2159.00,-0.0018
2158.00,-0.0028
2157.00,-0.0031
2156.00,-0.0027
2155.00,-0.0022
2154.00,-0.0017
2153.00,-0.0012
2152.00,-0.0008
2151.00,-0.0006
2150.00,-0.0007
2149.00,-0.0010
2148.00,-0.0013
2147.00,-0.0014
2146.00,-0.0013
2145.00,-0.0011
2144.00,-0.0009
2143.00,-0.0008
2142.00,-0.0007
2141.00,-0.0006
2140.00,-0.0006
2139.00,-0.0006
2138.00,-0.0007
2137.00,-0.0008
2136.00,-0.0009
2135.00,-0.0011
2134.00,-0.0014
2133.00,-0.0015
2132.00,-0.0014
2131.00,-0.0012
2130.00,-0.0009
2129.00,-0.0007
2128.00,-0.0006
2127.00,-0.0004
2126.00,-0.0003
2125.00,-0.0002
2124.00,-0.0002
2123.00,-0.0002
2122.00,-0.0002
2121.00,-0.0001
2120.00,-0.0001
2119.00,-0.0000
2118.00,0.0001
2117.00,0.0002
2116.00,0.0003
2115.00,0.0003
2114.00,0.0003
2113.00,0.0003
2112.00,0.0004
2111.00,0.0005
2110.00,0.0006
2109.00,0.0005
2108.00,0.0004
2107.00,0.0003
2106.00,0.0003
2105.00,0.0003
2104.00,0.0003
2103.00,0.0003
2102.00,0.0002
2101.00,0.0002
2100.00,0.0003
2099.00,0.0002
2098.00,0.0001
2097.00,-0.0000
2096.00,-0.0002
2095.00,-0.0003
2094.00,-0.0003
2093.00,-0.0001
2092.00,0.0000
2091.00,0.0002
2090.00,0.0003
2089.00,0.0005
2088.00,0.0007
2087.00,0.0008
2086.00,0.0007
2085.00,0.0006
2084.00,0.0006
2083.00,0.0005
2082.00,0.0005
2081.00,0.0006
2080.00,0.0007
2079.00,0.0007
2078.00,0.0006
2077.00,0.0007
2076.00,0.0007
2075.00,0.0007
2074.00,0.0005
2073.00,0.0002
2072.00,0.0001
2071.00,-0.0000
2070.00,-0.0000
2069.00,0.0001
2068.00,0.0001
2067.00,0.0000
2066.00,-0.0001
2065.00,-0.0001
2064.00,-0.0001
2063.00,0.0001
2062.00,0.0002
2061.00,0.0003
2060.00,0.0003
2059.00,0.0003
2058.00,0.0003
2057.00,0.0004
2056.00,0.0004
2055.00,0.0004
2054.00,0.0003
2053.00,0.0005
2052.00,0.0008
2051.00,0.0011
2050.00,0.0012
2049.00,0.0010
2048.00,0.0007
2047.00,0.0006
2046.00,0.0005
2045.00,0.0004
2044.00,0.0003
2043.00,0.0002
2042.00,0.0002
2041.00,0.0003
2040.00,0.0005
2039.00,0.0006
2038.00,0.0007
2037.00,0.0007
2036.00,0.0005
2035.00,0.0001
2034.00,-0.0005
2033.00,-0.0009
2032.00,-0.0013
2031.00,-0.0015
2030.00,-0.0015
2029.00,-0.0014
2028.00,-0.0012
2027.00,-0.0009
2026.00,-0.0006
2025.00,-0.0002
2024.00,-0.0000
2023.00,-0.0001
2022.00,-0.0002
2021.00,-0.0003
2020.00,-0.0002
2019.00,-0.0002
2018.00,-0.0002
2017.00,-0.0004
2016.00,-0.0006
2015.00,-0.0008
2014.00,-0.0009
2013.00,-0.0009
2012.00,-0.0009
2011.00,-0.0008
2010.00,-0.0008
2009.00,-0.0008
2008.00,-0.0009
2007.00,-0.0012
2006.00,-0.0014
2005.00,-0.0016
2004.00,-0.0017
2003.00,-0.0017
2002.00,-0.0016
2001.00,-0.0016
2000.00,-0.0016
1999.00,-0.0016
1998.00,-0.0015
1997.00,-0.0012
1996.00,-0.0010
1995.00,-0.0010
1994.00,-0.0009
1993.00,-0.0007
1992.00,-0.0006
1991.00,-0.0004
1990.00,-0.0004
1989.00,-0.0003
1988.00,-0.0002
1987.00,-0.0002
1986.00,-0.0003
1985.00,-0.0005
1984.00,-0.0005
1983.00,-0.0003
1982.00,0.0001
1981.00,0.0005
1980.00,0.0007
1979.00,0.0005
1978.00,0.0002
1977.00,-0.0000
1976.00,-0.0001
1975.00,-0.0002
1974.00,-0.0004
1973.00,-0.0007
1972.00,-0.0010
1971.00,-0.0013
1970.00,-0.0014
1969.00,-0.0014
1968.00,-0.0013
1967.00,-0.0012
1966.00,-0.0012
1965.00,-0.0012
1964.00,-0.0013
1963.00,-0.0013
1962.00,-0.0014
1961.00,-0.0014
1960.00,-0.0013
1959.00,-0.0013
1958.00,-0.0014
1957.00,-0.0015
1956.00,-0.0015
1955.00,-0.0014
1954.00,-0.0013
1953.00,-0.0011
1952.00,-0.0010
1951.00,-0.0010
1950.00,-0.0010
1949.00,-0.0009
1948.00,-0.0009
1947.00,-0.0009
1946.00,-0.0010
1945.00,-0.0011
1944.00,-0.0012
1943.00,-0.0014
1942.00,-0.0014
1941.00,-0.0014
1940.00,-0.0013
1939.00,-0.0011
1938.00,-0.0009
1937.00,-0.0007
1936.00,-0.0007
1935.00,-0.0007
1934.00,-0.0007
1933.00,-0.0008
1932.00,-0.0009
1931.00,-0.0010
1930.00,-0.0011
1929.00,-0.0010
1928.00,-0.0009
1927.00,-0.0007
1926.00,-0.0005
1925.00,-0.0004
1924.00,-0.0003
1923.00,-0.0003
1922.00,-0.0002
1921.00,-0.0002
1920.00,-0.0003
1919.00,-0.0004
1918.00,-0.0004
1917.00,-0.0004
1916.00,-0.0004
1915.00,-0.0003
1914.00,-0.0003
1913.00,-0.0002
1912.00,-0.0001
1911.00,-0.0000
1910.00,-0.0000
1909.00,-0.0001
1908.00,-0.0001
1907.00,-0.0001
1906.00,-0.0001
1905.00,-0.0001
1904.00,-0.0000
1903.00,-0.0001
1902.00,-0.0002
1901.00,-0.0003
1900.00,-0.0003
1899.00,-0.0003
1898.00,-0.0002
1897.00,-0.0000
1896.00,0.0001
1895.00,0.0001
1894.00,0.0002
1893.00,0.0002
1892.00,0.0001
1891.00,0.0000
1890.00,-0.0001
1889.00,-0.0002
1888.00,-0.0002
1887.00,-0.0001
1886.00,-0.0001
1885.00,0.0000
1884.00,0.0000
1883.00,0.0000
1882.00,0.0000
1881.00,0.0000
1880.00,0.0001
1879.00,0.0002
1878.00,0.0002
1877.00,0.0003
1876.00,0.0003
1875.00,0.0002
1874.00,0.0000
1873.00,-0.0000
1872.00,-0.0000
1871.00,0.0000
1870.00,0.0001
1869.00,0.0002
1868.00,0.0002
1867.00,0.0001
1866.00,0.0001
1865.00,0.0001
1864.00,0.0002
1863.00,0.0002
1862.00,0.0002
1861.00,0.0001
1860.00,0.0001
1859.00,0.0002
1858.00,0.0002
1857.00,0.0003
1856.00,0.0003
1855.00,0.0003
1854.00,0.0003
1853.00,0.0003
1852.00,0.0003
1851.00,0.0003
1850.00,0.0002
1849.00,0.0002
1848.00,0.0002
1847.00,0.0002
1846.00,0.0002
1845.00,0.0002
1844.00,0.0002
1843.00,0.0003
1842.00,0.0003
1841.00,0.0003
1840.00,0.0002
1839.00,0.0002
1838.00,0.0002
1837.00,0.0002
1836.00,0.0003
1835.00,0.0003
1834.00,0.0003
1833.00,0.0003
1832.00,0.0004
1831.00,0.0005
1830.00,0.0005
1829.00,0.0005
1828.00,0.0005
1827.00,0.0005
1826.00,0.0004
1825.00,0.0003
1824.00,0.0003
1823.00,0.0004
1822.00,0.0004
1821.00,0.0004
1820.00,0.0003
1819.00,0.0002
1818.00,0.0000
1817.00,0.0000
1816.00,0.0000
1815.00,0.0001
1814.00,0.0002
1813.00,0.0003
1812.00,0.0004
1811.00,0.0004
1810.00,0.0004
1809.00,0.0004
1808.00,0.0005
1807.00,0.0005
1806.00,0.0005
1805.00,0.0005
1804.00,0.0005
1803.00,0.0005
1802.00,0.0005
1801.00,0.0006
1800.00,0.0007
1799.00,0.0007
1798.00,0.0007
1797.00,0.0007
1796.00,0.0007
1795.00,0.0006
1794.00,0.0006
1793.00,0.0007
1792.00,0.0008
1791.00,0.0008
1790.00,0.0008
1789.00,0.0008
1788.00,0.0008
1787.00,0.0008
1786.00,0.0007
1785.00,0.0007
1784.00,0.0007
1783.00,0.0007
1782.00,0.0007
1781.00,0.0008
1780.00,0.0008
1779.00,0.0008
1778.00,0.0008
1777.00,0.0008
1776.00,0.0008
1775.00,0.0008
1774.00,0.0008
1773.00,0.0008
1772.00,0.0009
1771.00,0.0010
1770.00,0.0010
1769.00,0.0011
1768.00,0.0011
1767.00,0.0011
1766.00,0.0011
1765.00,0.0011
1764.00,0.0012
1763.00,0.0012
1762.00,0.0012
1761.00,0.0011
1760.00,0.0012
1759.00,0.0012
1758.00,0.0013
1757.00,0.0013
1756.00,0.0014
1755.00,0.0014
1754.00,0.0014
1753.00,0.0014
1752.00,0.0014
1751.00,0.0014
1750.00,0.0015
1749.00,0.0015
1748.00,0.0016
1747.00,0.0017
1746.00,0.0017
1745.00,0.0017
1744.00,0.0017
1743.00,0.0017
1742.00,0.0017
1741.00,0.0017
1740.00,0.0018
1739.00,0.0018
1738.00,0.0019
1737.00,0.0019
1736.00,0.0020
1735.00,0.0020
1734.00,0.0020
1733.00,0.0020
1732.00,0.0021
1731.00,0.0021
1730.00,0.0021
1729.00,0.0021
1728.00,0.0022
1727.00,0.0022
1726.00,0.0022
1725.00,0.0022
1724.00,0.0022
1723.00,0.0022
1722.00,0.0022
1721.00,0.0021
1720.00,0.0021
1719.00,0.0020
1718.00,0.0020
1717.00,0.0020
1716.00,0.0021
1715.00,0.0022
1714.00,0.0022
1713.00,0.0022
1712.00,0.0023
1711.00,0.0023
1710.00,0.0024
1709.00,0.0025
1708.00,0.0025
1707.00,0.0026
1706.00,0.0026
1705.00,0.0026
1704.00,0.0027
1703.00,0.0028
1702.00,0.0028
1701.00,0.0029
1700.00,0.0030
1699.00,0.0031
1698.00,0.0032
1697.00,0.0034
1696.00,0.0036
1695.00,0.0037
1694.00,0.0039
1693.00,0.0041
1692.00,0.0043
1691.00,0.0045
1690.00,0.0047
1689.00,0.0049
1688.00,0.0051
1687.00,0.0052
1686.00,0.0054
1685.00,0.0056
1684.00,0.0059
1683.00,0.0061
1682.00,0.0063
1681.00,0.0066
1680.00,0.0068
1679.00,0.0069
1678.00,0.0071
1677.00,0.0072
1676.00,0.0073
1675.00,0.0074
1674.00,0.0074
1673.00,0.0075
1672.00,0.0076
1671.00,0.0077
1670.00,0.0077
1669.00,0.0078
1668.00,0.0079
1667.00,0.0080
1666.00,0.0080
1665.00,0.0080
1664.00,0.0080
1663.00,0.0080
1662.00,0.0079
1661.00,0.0079
1660.00,0.0079
1659.00,0.0079
1658.00,0.0078
1657.00,0.0077
1656.00,0.0077
1655.00,0.0076
1654.00,0.0073
1653.00,0.0071
1652.00,0.0069
1651.00,0.0069
1650.00,0.0069
1649.00,0.0069
1648.00,0.0069
1647.00,0.0068
1646.00,0.0067
1645.00,0.0066
1644.00,0.0065
1643.00,0.0065
1642.00,0.0064
1641.00,0.0063
1640.00,0.0062
1639.00,0.0062
1638.00,0.0061
1637.00,0.0060
1636.00,0.0059
1635.00,0.0057
1634.00,0.0056
1633.00,0.0056
1632.00,0.0056
1631.00,0.0056
1630.00,0.0056
1629.00,0.0055
1628.00,0.0055
1627.00,0.0054
1626.00,0.0053
1625.00,0.0052
1624.00,0.0051
1623.00,0.0050
1622.00,0.0050
1621.00,0.0050
1620.00,0.0051
1619.00,0.0051
1618.00,0.0050
1617.00,0.0050
1616.00,0.0049
1615.00,0.0049
1614.00,0.0048
1613.00,0.0048
1612.00,0.0048
1611.00,0.0048
1610.00,0.0048
1609.00,0.0047
1608.00,0.0047
1607.00,0.0047
1606.00,0.0047
1605.00,0.0047
1604.00,0.0047
1603.00,0.0046
1602.00,0.0046
1601.00,0.0046
1600.00,0.0046
1599.00,0.0046
1598.00,0.0046
1597.00,0.0046
1596.00,0.0046
1595.00,0.0045
1594.00,0.0045
1593.00,0.0045
1592.00,0.0046
1591.00,0.0046
1590.00,0.0046
1589.00,0.0046
1588.00,0.0046
1587.00,0.0046
1586.00,0.0046
1585.00,0.0047
1584.00,0.0047
1583.00,0.0048
1582.00,0.0049
1581.00,0.0050
1580.00,0.0052
1579.00,0.0052
1578.00,0.0053
1577.00,0.0053
1576.00,0.0052
1575.00,0.0052
1574.00,0.0051
1573.00,0.0051
1572.00,0.0051
1571.00,0.0049
1570.00,0.0047
1569.00,0.0046
1568.00,0.0046
1567.00,0.0046
1566.00,0.0046
1565.00,0.0046
1564.00,0.0046
1563.00,0.0047
1562.00,0.0047
1561.00,0.0047
1560.00,0.0048
1559.00,0.0048
1558.00,0.0048
1557.00,0.0048
1556.00,0.0049
1555.00,0.0049
1554.00,0.0049
1553.00,0.0050
1552.00,0.0051
1551.00,0.0052
1550.00,0.0052
1549.00,0.0053
1548.00,0.0054
1547.00,0.0055
1546.00,0.0055
1545.00,0.0057
1544.00,0.0058
1543.00,0.0058
1542.00,0.0058
1541.00,0.0058
1540.00,0.0056
1539.00,0.0054
1538.00,0.0053
1537.00,0.0053
1536.00,0.0053
1535.00,0.0053
1534.00,0.0052
1533.00,0.0051
1532.00,0.0050
1531.00,0.0049
1530.00,0.0048
1529.00,0.0048
1528.00,0.0048
1527.00,0.0048
1526.00,0.0047
1525.00,0.0047
1524.00,0.0047
1523.00,0.0046
1522.00,0.0045
1521.00,0.0045
1520.00,0.0046
1519.00,0.0047
1518.00,0.0047
1517.00,0.0048
1516.00,0.0049
1515.00,0.0049
1514.00,0.0049
1513.00,0.0050
1512.00,0.0052
1511.00,0.0053
1510.00,0.0053
1509.00,0.0054
1508.00,0.0056
1507.00,0.0056
1506.00,0.0057
1505.00,0.0059
1504.00,0.0061
1503.00,0.0063
1502.00,0.0064
1501.00,0.0067
1500.00,0.0069
1499.00,0.0071
1498.00,0.0073
1497.00,0.0077
1496.00,0.0081
1495.00,0.0083
1494.00,0.0086
1493.00,0.0089
1492.00,0.0092
1491.00,0.0095
1490.00,0.0099
1489.00,0.0104
1488.00,0.0109
1487.00,0.0113
1486.00,0.0118
1485.00,0.0124
1484.00,0.0130
1483.00,0.0137
1482.00,0.0145
1481.00,0.0155
1480.00,0.0167
1479.00,0.0178
1478.00,0.0192
1477.00,0.0209
1476.00,0.0230
1475.00,0.0255
1474.00,0.0289
1473.00,0.0340
1472.00,0.0403
1471.00,0.0466
1470.00,0.0526
1469.00,0.0590
1468.00,0.0659
1467.00,0.0734
1466.00,0.0822
1465.00,0.0918
1464.00,0.1004
1463.00,0.1066
1462.00,0.1106
1461.00,0.1135
1460.00,0.1155
1459.00,0.1171
1458.00,0.1187
1457.00,0.1204
1456.00,0.1213
1455.00,0.1212
1454.00,0.1205
1453.00,0.1193
1452.00,0.1170
1451.00,0.1134
1450.00,0.1081
1449.00,0.1008
1448.00,0.0914
1447.00,0.0814
1446.00,0.0724
1445.00,0.0646
1444.00,0.0581
1443.00,0.0529
1442.00,0.0490
1441.00,0.0465
1440.00,0.0449
1439.00,0.0443
1438.00,0.0444
1437.00,0.0445
1436.00,0.0435
1435.00,0.0408
1434.00,0.0369
1433.00,0.0322
1432.00,0.0275
1431.00,0.0234
1430.00,0.0204
1429.00,0.0182
1428.00,0.0167
1427.00,0.0158
1426.00,0.0153
1425.00,0.0148
1424.00,0.0142
1423.00,0.0139
1422.00,0.0136
1421.00,0.0133
1420.00,0.0130
1419.00,0.0126
1418.00,0.0124
1417.00,0.0120
1416.00,0.0117
1415.00,0.0115
1414.00,0.0114
1413.00,0.0112
1412.00,0.0110
1411.00,0.0109
1410.00,0.0109
1409.00,0.0107
1408.00,0.0106
1407.00,0.0106
1406.00,0.0107
1405.00,0.0107
1404.00,0.0106
1403.00,0.0107
1402.00,0.0108
1401.00,0.0109
1400.00,0.0110
1399.00,0.0112
1398.00,0.0114
1397.00,0.0116
1396.00,0.0118
1395.00,0.0122
1394.00,0.0128
1393.00,0.0133
1392.00,0.0140
1391.00,0.0148
1390.00,0.0161
1389.00,0.0178
1388.00,0.0204
1387.00,0.0243
1386.00,0.0293
1385.00,0.0357
1384.00,0.0441
1383.00,0.0554
1382.00,0.0703
1381.00,0.0894
1380.00,0.1130
1379.00,0.1398
1378.00,0.1658
1377.00,0.1851
1376.00,0.1919
1375.00,0.1830
1374.00,0.1607
1373.00,0.1331
1372.00,0.1073
1371.00,0.0859
1370.00,0.0687
1369.00,0.0557
1368.00,0.0467
1367.00,0.0412
1366.00,0.0382
1365.00,0.0370
1364.00,0.0373
1363.00,0.0388
1362.00,0.0411
1361.00,0.0435
1360.00,0.0453
1359.00,0.0458
1358.00,0.0446
1357.00,0.0419
1356.00,0.0379
1355.00,0.0335
1354.00,0.0293
1353.00,0.0258
1352.00,0.0229
1351.00,0.0206
1350.00,0.0187
1349.00,0.0173
1348.00,0.0161
1347.00,0.0152
1346.00,0.0144
1345.00,0.0138
1344.00,0.0133
1343.00,0.0130
1342.00,0.0126
1341.00,0.0124
1340.00,0.0121
1339.00,0.0119
1338.00,0.0118
1337.00,0.0118
1336.00,0.0119
1335.00,0.0121
1334.00,0.0124
1333.00,0.0129
1332.00,0.0134
1331.00,0.0138
1330.00,0.0139
1329.00,0.0138
1328.00,0.0135
1327.00,0.0130
1326.00,0.0123
1325.00,0.0117
1324.00,0.0110
1323.00,0.0105
1322.00,0.0101
1321.00,0.0098
1320.00,0.0096
1319.00,0.0094
1318.00,0.0092
1317.00,0.0090
1316.00,0.0089
1315.00,0.0087
1314.00,0.0087
1313.00,0.0087
1312.00,0.0088
1311.00,0.0090
1310.00,0.0095
1309.00,0.0103
1308.00,0.0113
1307.00,0.0125
1306.00,0.0136
1305.00,0.0144
1304.00,0.0147
1303.00,0.0145
1302.00,0.0141
1301.00,0.0137
1300.00,0.0135
1299.00,0.0136
1298.00,0.0138
1297.00,0.0140
1296.00,0.0141
1295.00,0.0139
1294.00,0.0136
1293.00,0.0131
1292.00,0.0125
1291.00,0.0119
1290.00,0.0114
1289.00,0.0109
1288.00,0.0105
1287.00,0.0101
1286.00,0.0099
1285.00,0.0096
1284.00,0.0094
1283.00,0.0092
1282.00,0.0091
1281.00,0.0089
1280.00,0.0087
1279.00,0.0086
1278.00,0.0085
1277.00,0.0085
1276.00,0.0084
1275.00,0.0084
1274.00,0.0083
1273.00,0.0083
1272.00,0.0082
1271.00,0.0082
1270.00,0.0083
1269.00,0.0083
1268.00,0.0084
1267.00,0.0086
1266.00,0.0087
1265.00,0.0089
1264.00,0.0091
1263.00,0.0093
1262.00,0.0097
1261.00,0.0101
1260.00,0.0107
1259.00,0.0114
1258.00,0.0121
1257.00,0.0128
1256.00,0.0131
1255.00,0.0129
1254.00,0.0123
1253.00,0.0114
1252.00,0.0105
1251.00,0.0098
1250.00,0.0093
1249.00,0.0090
1248.00,0.0087
1247.00,0.0085
1246.00,0.0084
1245.00,0.0083
1244.00,0.0082
1243.00,0.0082
1242.00,0.0082
1241.00,0.0081
1240.00,0.0081
1239.00,0.0081
1238.00,0.0080
1237.00,0.0079
1236.00,0.0079
1235.00,0.0078
1234.00,0.0077
1233.00,0.0077
1232.00,0.0077
1231.00,0.0077
1230.00,0.0078
1229.00,0.0079
1228.00,0.0081
1227.00,0.0082
1226.00,0.0084
1225.00,0.0086
1224.00,0.0088
1223.00,0.0091
1222.00,0.0095
1221.00,0.0098
1220.00,0.0100
1219.00,0.0101
1218.00,0.0101
1217.00,0.0099
1216.00,0.0096
1215.00,0.0094
1214.00,0.0091
1213.00,0.0087
1212.00,0.0084
1211.00,0.0081
1210.00,0.0078
1209.00,0.0076
1208.00,0.0074
1207.00,0.0073
1206.00,0.0072
1205.00,0.0072
1204.00,0.0072
1203.00,0.0071
1202.00,0.0071
1201.00,0.0071
1200.00,0.0070
1199.00,0.0070
1198.00,0.0070
1197.00,0.0071
1196.00,0.0071
1195.00,0.0071
1194.00,0.0071
1193.00,0.0071
1192.00,0.0070
1191.00,0.0070
1190.00,0.0070
1189.00,0.0070
1188.00,0.0070
1187.00,0.0071
1186.00,0.0073
1185.00,0.0074
1184.00,0.0075
1183.00,0.0075
1182.00,0.0077
1181.00,0.0080
1180.00,0.0083
1179.00,0.0089
1178.00,0.0095
1177.00,0.0104
1176.00,0.0115
1175.00,0.0131
1174.00,0.0153
1173.00,0.0180
1172.00,0.0212
1171.00,0.0246
1170.00,0.0279
1169.00,0.0305
1168.00,0.0320
1167.00,0.0323
1166.00,0.0315
1165.00,0.0300
1164.00,0.0281
1163.00,0.0261
1162.00,0.0244
1161.00,0.0229
1160.00,0.0217
1159.00,0.0208
1158.00,0.0201
1157.00,0.0196
1156.00,0.0193
1155.00,0.0191
1154.00,0.0189
1153.00,0.0186
1152.00,0.0181
1151.00,0.0174
1150.00,0.0166
1149.00,0.0157
1148.00,0.0147
1147.00,0.0138
1146.00,0.0130
1145.00,0.0123
1144.00,0.0117
1143.00,0.0112
1142.00,0.0106
1141.00,0.0101
1140.00,0.0095
1139.00,0.0091
1138.00,0.0088
1137.00,0.0085
1136.00,0.0083
1135.00,0.0082
1134.00,0.0080
1133.00,0.0079
1132.00,0.0078
1131.00,0.0077
1130.00,0.0078
1129.00,0.0078
1128.00,0.0079
1127.00,0.0079
1126.00,0.0080
1125.00,0.0081
1124.00,0.0082
1123.00,0.0082
1122.00,0.0082
1121.00,0.0081
1120.00,0.0082
1119.00,0.0083
1118.00,0.0084
1117.00,0.0085
1116.00,0.0086
1115.00,0.0087
1114.00,0.0089
1113.00,0.0091
1112.00,0.0094
1111.00,0.0097
1110.00,0.0100
1109.00,0.0104
1108.00,0.0110
1107.00,0.0116
1106.00,0.0124
1105.00,0.0131
1104.00,0.0136
1103.00,0.0140
1102.00,0.0140
1101.00,0.0137
1100.00,0.0132
1099.00,0.0125
1098.00,0.0118
1097.00,0.0111
1096.00,0.0105
1095.00,0.0101
1094.00,0.0097
1093.00,0.0094
1092.00,0.0091
1091.00,0.0090
1090.00,0.0089
1089.00,0.0088
1088.00,0.0086
1087.00,0.0084
1086.00,0.0082
1085.00,0.0080
1084.00,0.0079
1083.00,0.0078
1082.00,0.0077
1081.00,0.0075
1080.00,0.0073
1079.00,0.0072
1078.00,0.0072
1077.00,0.0072
1076.00,0.0072
1075.00,0.0071
1074.00,0.0070
1073.00,0.0070
1072.00,0.0070
1071.00,0.0071
1070.00,0.0071
1069.00,0.0071
1068.00,0.0072
1067.00,0.0072
1066.00,0.0072
1065.00,0.0072
1064.00,0.0073
1063.00,0.0073
1062.00,0.0074
1061.00,0.0074
1060.00,0.0075
1059.00,0.0075
1058.00,0.0076
1057.00,0.0077
1056.00,0.0077
1055.00,0.0078
1054.00,0.0079
1053.00,0.0079
1052.00,0.0080
1051.00,0.0082
1050.00,0.0083
1049.00,0.0085
1048.00,0.0088
1047.00,0.0091
1046.00,0.0094
1045.00,0.0096
1044.00,0.0097
1043.00,0.0096
1042.00,0.0095
1041.00,0.0093
1040.00,0.0091
1039.00,0.0090
1038.00,0.0090
1037.00,0.0090
1036.00,0.0090
1035.00,0.0089
1034.00,0.0088
1033.00,0.0087
1032.00,0.0086
1031.00,0.0084
1030.00,0.0084
1029.00,0.0084
1028.00,0.0084
1027.00,0.0085
1026.00,0.0085
1025.00,0.0085
1024.00,0.0085
1023.00,0.0087
1022.00,0.0088
1021.00,0.0089
1020.00,0.0089
1019.00,0.0089
1018.00,0.0090
1017.00,0.0092
1016.00,0.0094
1015.00,0.0097
1014.00,0.0101
1013.00,0.0104
1012.00,0.0107
1011.00,0.0111
1010.00,0.0114
1009.00,0.0118
1008.00,0.0124
1007.00,0.0131
1006.00,0.0141
1005.00,0.0153
1004.00,0.0171
1003.00,0.0194
1002.00,0.0225
1001.00,0.0262
1000.00,0.0301
999.00,0.0333
998.00,0.0348
997.00,0.0341
996.00,0.0313
995.00,0.0273
994.00,0.0231
993.00,0.0194
992.00,0.0166
991.00,0.0146
990.00,0.0132
989.00,0.0121
988.00,0.0114
987.00,0.0110
986.00,0.0110
985.00,0.0112
984.00,0.0116
983.00,0.0124
982.00,0.0135
981.00,0.0150
980.00,0.0172
979.00,0.0200
978.00,0.0237
977.00,0.0280
976.00,0.0327
975.00,0.0372
974.00,0.0405
973.00,0.0419
972.00,0.0406
971.00,0.0369
970.00,0.0319
969.00,0.0266
968.00,0.0220
967.00,0.0184
966.00,0.0157
965.00,0.0138
964.00,0.0125
963.00,0.0114
962.00,0.0106
961.00,0.0100
960.00,0.0095
959.00,0.0091
958.00,0.0086
957.00,0.0083
956.00,0.0080
955.00,0.0079
954.00,0.0078
953.00,0.0077
952.00,0.0076
951.00,0.0075
950.00,0.0075
949.00,0.0075
948.00,0.0075
947.00,0.0076
946.00,0.0078
945.00,0.0080
944.00,0.0083
943.00,0.0087
942.00,0.0091
941.00,0.0093
940.00,0.0093
939.00,0.0090
938.00,0.0086
937.00,0.0082
936.00,0.0077
935.00,0.0072
934.00,0.0069
933.00,0.0067
932.00,0.0065
931.00,0.0063
930.00,0.0061
929.00,0.0060
928.00,0.0060
927.00,0.0060
926.00,0.0061
925.00,0.0061
924.00,0.0061
923.00,0.0061
922.00,0.0062
921.00,0.0063
920.00,0.0065
919.00,0.0067
918.00,0.0068
917.00,0.0068
916.00,0.0069
915.00,0.0069
914.00,0.0070
913.00,0.0071
912.00,0.0073
911.00,0.0074
910.00,0.0076
909.00,0.0077
908.00,0.0080
907.00,0.0084
906.00,0.0090
905.00,0.0101
904.00,0.0117
903.00,0.0136
902.00,0.0157
901.00,0.0175
900.00,0.0188
899.00,0.0191
898.00,0.0184
897.00,0.0168
896.00,0.0148
895.00,0.0129
894.00,0.0112
893.00,0.0099
892.00,0.0090
891.00,0.0083
890.00,0.0078
889.00,0.0075
888.00,0.0073
887.00,0.0073
886.00,0.0072
885.00,0.0071
884.00,0.0070
883.00,0.0069
882.00,0.0069
881.00,0.0069
880.00,0.0068
879.00,0.0068
878.00,0.0067
877.00,0.0066
876.00,0.0066
875.00,0.0067
874.00,0.0069
873.00,0.0070
872.00,0.0071
871.00,0.0070
870.00,0.0070
869.00,0.0069
868.00,0.0069
867.00,0.0070
866.00,0.0071
865.00,0.0072
864.00,0.0073
863.00,0.0075
862.00,0.0076
861.00,0.0077
860.00,0.0078
859.00,0.0080
858.00,0.0081
857.00,0.0083
856.00,0.0085
855.00,0.0087
854.00,0.0090
853.00,0.0093
852.00,0.0097
851.00,0.0101
850.00,0.0106
849.00,0.0114
848.00,0.0125
847.00,0.0141
846.00,0.0165
845.00,0.0200
844.00,0.0246
843.00,0.0297
842.00,0.0335
841.00,0.0344
840.00,0.0320
839.00,0.0275
838.00,0.0227
837.00,0.0188
836.00,0.0162
835.00,0.0146
834.00,0.0135
833.00,0.0128
832.00,0.0123
831.00,0.0118
830.00,0.0114
829.00,0.0111
828.00,0.0110
827.00,0.0109
826.00,0.0108
825.00,0.0108
824.00,0.0107
823.00,0.0106
822.00,0.0105
821.00,0.0104
820.00,0.0105
819.00,0.0109
818.00,0.0113
817.00,0.0119
816.00,0.0126
815.00,0.0136
814.00,0.0150
813.00,0.0167
812.00,0.0186
811.00,0.0204
810.00,0.0218
809.00,0.0225
808.00,0.0223
807.00,0.0213
806.00,0.0197
805.00,0.0178
804.00,0.0161
803.00,0.0146
802.00,0.0134
801.00,0.0126
800.00,0.0119
799.00,0.0113
798.00,0.0107
797.00,0.0102
796.00,0.0098
795.00,0.0095
794.00,0.0092
793.00,0.0090
792.00,0.0088
791.00,0.0087
790.00,0.0085
789.00,0.0082
788.00,0.0079
787.00,0.0077
786.00,0.0074
785.00,0.0072
784.00,0.0071
783.00,0.0069
782.00,0.0067
781.00,0.0065
780.00,0.0063
779.00,0.0061
778.00,0.0061
777.00,0.0062
776.00,0.0063
775.00,0.0064
774.00,0.0065
773.00,0.0068
772.00,0.0071
771.00,0.0075
770.00,0.0078
769.00,0.0080
768.00,0.0080
767.00,0.0080
766.00,0.0078
765.00,0.0076
764.00,0.0073
763.00,0.0070
762.00,0.0068
761.00,0.0065
760.00,0.0063
759.00,0.0060
758.00,0.0057
757.00,0.0056
756.00,0.0054
755.00,0.0054
754.00,0.0053
753.00,0.0053
752.00,0.0053
751.00,0.0053
750.00,0.0054
749.00,0.0054
748.00,0.0055
747.00,0.0057
746.00,0.0059
745.00,0.0060
744.00,0.0060
743.00,0.0060
742.00,0.0060
741.00,0.0060
740.00,0.0061
739.00,0.0062
738.00,0.0064
737.00,0.0067
736.00,0.0069
735.00,0.0071
734.00,0.0070
733.00,0.0069
732.00,0.0069
731.00,0.0069
730.00,0.0070
729.00,0.0071
728.00,0.0071
727.00,0.0070
726.00,0.0069
725.00,0.0067
724.00,0.0067
723.00,0.0067
722.00,0.0067
721.00,0.0067
720.00,0.0064
719.00,0.0062
718.00,0.0060
717.00,0.0058
716.00,0.0057
715.00,0.0056
714.00,0.0056
713.00,0.0057
712.00,0.0058
711.00,0.0060
710.00,0.0060
709.00,0.0060
708.00,0.0059
707.00,0.0059
706.00,0.0059
705.00,0.0059
704.00,0.0059
703.00,0.0059
702.00,0.0058
701.00,0.0057
700.00,0.0056
699.00,0.0055
698.00,0.0054
697.00,0.0054
696.00,0.0054
695.00,0.0054
694.00,0.0054
693.00,0.0053
692.00,0.0052
691.00,0.0051
690.00,0.0051
689.00,0.0050
688.00,0.0049
687.00,0.0048
686.00,0.0049
685.00,0.0049
684.00,0.0049
683.00,0.0049
682.00,0.0049
681.00,0.0050
680.00,0.0052
679.00,0.0055
678.00,0.0058
677.00,0.0059
676.00,0.0059
675.00,0.0058
674.00,0.0058
673.00,0.0060
672.00,0.0061
671.00,0.0061
670.00,0.0058
669.00,0.0053
668.00,0.0047
667.00,0.0044
666.00,0.0047
665.00,0.0053
664.00,0.0057
663.00,0.0059
662.00,0.0059
661.00,0.0058
660.00,0.0056
659.00,0.0054
658.00,0.0052
657.00,0.0050
656.00,0.0050
655.00,0.0052
654.00,0.0055
653.00,0.0057
652.00,0.0058
651.00,0.0057
650.00,0.0056
649.00,0.0056
648.00,0.0058
647.00,0.0060
646.00,0.0063
645.00,0.0064
644.00,0.0064
643.00,0.0062
642.00,0.0059
641.00,0.0055
640.00,0.0053
639.00,0.0052
638.00,0.0052
637.00,0.0053
636.00,0.0054
635.00,0.0056
634.00,0.0058
633.00,0.0060
632.00,0.0061
631.00,0.0061
630.00,0.0060
629.00,0.0059
628.00,0.0060
627.00,0.0061
626.00,0.0061
625.00,0.0060
624.00,0.0058
623.00,0.0058
622.00,0.0058
621.00,0.0058
620.00,0.0059
619.00,0.0059
618.00,0.0060
617.00,0.0059
616.00,0.0057
615.00,0.0056
614.00,0.0057
613.00,0.0058
612.00,0.0058
611.00,0.0057
610.00,0.0058
609.00,0.0059
608.00,0.0060
607.00,0.0059
606.00,0.0057
605.00,0.0055
604.00,0.0054
603.00,0.0054
602.00,0.0055
601.00,0.0058
600.00,0.0060
599.00,0.0061
598.00,0.0060
597.00,0.0057
596.00,0.0054
595.00,0.0054
594.00,0.0056
593.00,0.0057
592.00,0.0059
591.00,0.0060
590.00,0.0062
589.00,0.0063
588.00,0.0064
587.00,0.0065
586.00,0.0068
585.00,0.0071
584.00,0.0072
583.00,0.0070
582.00,0.0068
581.00,0.0066
580.00,0.0065
579.00,0.0065
578.00,0.0064
577.00,0.0062
576.00,0.0062
575.00,0.0063
574.00,0.0065
573.00,0.0066
572.00,0.0065
571.00,0.0063
570.00,0.0061
569.00,0.0061
568.00,0.0061
567.00,0.0061
566.00,0.0062
565.00,0.0064
564.00,0.0067
563.00,0.0069
562.00,0.0070
561.00,0.0069
560.00,0.0067
559.00,0.0066
558.00,0.0066
557.00,0.0066
556.00,0.0067
555.00,0.0069
554.00,0.0070
553.00,0.0067
552.00,0.0061
551.00,0.0056
550.00,0.0055
549.00,0.0058
548.00,0.0063
547.00,0.0067
546.00,0.0068
545.00,0.0065
544.00,0.0060
543.00,0.0057
542.00,0.0059
541.00,0.0065
540.00,0.0071
539.00,0.0073
538.00,0.0072
537.00,0.0070
536.00,0.0071
535.00,0.0073
534.00,0.0076
533.00,0.0080
532.00,0.0085
531.00,0.0089
530.00,0.0091
529.00,0.0089
528.00,0.0084
527.00,0.0079
526.00,0.0079
525.00,0.0081
524.00,0.0082
523.00,0.0079
522.00,0.0072
521.00,0.0064
520.00,0.0059
519.00,0.0059
518.00,0.0064
517.00,0.0068
516.00,0.0069
515.00,0.0066
514.00,0.0062
513.00,0.0057
512.00,0.0054
511.00,0.0051
510.00,0.0049
509.00,0.0049
508.00,0.0051
507.00,0.0058
506.00,0.0065
505.00,0.0069
504.00,0.0067
503.00,0.0062
502.00,0.0058
501.00,0.0056
500.00,0.0055
499.00,0.0056
498.00,0.0059
497.00,0.0064
496.00,0.0069
495.00,0.0071
494.00,0.0072
493.00,0.0076
492.00,0.0081
491.00,0.0086
490.00,0.0086
489.00,0.0082
488.00,0.0074
487.00,0.0063
486.00,0.0053
485.00,0.0045
484.00,0.0045
483.00,0.0053
482.00,0.0064
481.00,0.0073
480.00,0.0074
479.00,0.0071
478.00,0.0069
477.00,0.0071
476.00,0.0077
475.00,0.0085
474.00,0.0093
473.00,0.0100
472.00,0.0101
471.00,0.0096
470.00,0.0088
469.00,0.0080
468.00,0.0076
467.00,0.0077
466.00,0.0086
465.00,0.0101
464.00,0.0120
463.00,0.0140
462.00,0.0153
461.00,0.0158
460.00,0.0155
459.00,0.0149
458.00,0.0148
457.00,0.0151
456.00,0.0151
455.00,0.0148
454.00,0.0143
453.00,0.0139
452.00,0.0132
451.00,0.0119
450.00,0.0103
