Created as New Dataset,Sample 080 By Administrator Date Wednesday, September 10 2025
cm-1,A
4000.00,0.0008
3999.00,0.0008
3998.00,0.0008
3997.00,0.0008
3996.00,0.0008
3995.00,0.0008
3994.00,0.0008
3993.00,0.0008
3992.00,0.0009
3991.00,0.0009
3990.00,0.0008
3989.00,0.0008
3988.00,0.0008
3987.00,0.0008
3986.00,0.0008
3985.00,0.0008
3984.00,0.0008
3983.00,0.0008
3982.00,0.0008
3981.00,0.0007
3980.00,0.0007
3979.00,0.0008
3978.00,0.0008
3977.00,0.0008
3976.00,0.0007
3975.00,0.0007
3974.00,0.0007
3973.00,0.0007
3972.00,0.0007
3971.00,0.0007
3970.00,0.0007
3969.00,0.0007
3968.00,0.0007
3967.00,0.0007
3966.00,0.0007
3965.00,0.0007
3964.00,0.0007
3963.00,0.0007
3962.00,0.0007
3961.00,0.0007
3960.00,0.0007
3959.00,0.0007
3958.00,0.0007
3957.00,0.0007
3956.00,0.0007
3955.00,0.0007
3954.00,0.0007
3953.00,0.0007
3952.00,0.0007
3951.00,0.0007
3950.00,0.0007
3949.00,0.0007
3948.00,0.0007
3947.00,0.0007
3946.00,0.0008
3945.00,0.0008
3944.00,0.0008
3943.00,0.0008
3942.00,0.0008
3941.00,0.0008
3940.00,0.0008
3939.00,0.0007
3938.00,0.0007
3937.00,0.0007
3936.00,0.0007
3935.00,0.0008
3934.00,0.0008
3933.00,0.0008
3932.00,0.0008
3931.00,0.0007
3930.00,0.0007
3929.00,0.0008
3928.00,0.0008
3927.00,0.0008
3926.00,0.0009
3925.00,0.0009
3924.00,0.0009
3923.00,0.0008
3922.00,0.0008
3921.00,0.0008
3920.00,0.0008
3919.00,0.0008
3918.00,0.0008
3917.00,0.0007
3916.00,0.0007
3915.00,0.0007
3914.00,0.0007
3913.00,0.0007
3912.00,0.0007
3911.00,0.0006
3910.00,0.0006
3909.00,0.0005
3908.00,0.0005
3907.00,0.0005
3906.00,0.0006
3905.00,0.0007
3904.00,0.0008
3903.00,0.0008
3902.00,0.0008
3901.00,0.0008
3900.00,0.0007
3899.00,0.0007
3898.00,0.0007
3897.00,0.0008
3896.00,0.0008
3895.00,0.0008
3894.00,0.0008
3893.00,0.0007
3892.00,0.0007
3891.00,0.0007
3890.00,0.0006
3889.00,0.0007
3888.00,0.0007
3887.00,0.0007
3886.00,0.0006
3885.00,0.0006
3884.00,0.0006
3883.00,0.0007
3882.00,0.0007
3881.00,0.0007
3880.00,0.0007
3879.00,0.0007
3878.00,0.0007
3877.00,0.0007
3876.00,0.0007
3875.00,0.0007
3874.00,0.0008
3873.00,0.0008
3872.00,0.0008
3871.00,0.0008
3870.00,0.0008
3869.00,0.0008
3868.00,0.0008
3867.00,0.0007
3866.00,0.0007
3865.00,0.0007
3864.00,0.0007
3863.00,0.0006
3862.00,0.0006
3861.00,0.0006
3860.00,0.0006
3859.00,0.0007
3858.00,0.0007
3857.00,0.0008
3856.00,0.0008
3855.00,0.0009
3854.00,0.0009
3853.00,0.0008
3852.00,0.0008
3851.00,0.0008
3850.00,0.0008
3849.00,0.0007
3848.00,0.0007
3847.00,0.0007
3846.00,0.0007
3845.00,0.0006
3844.00,0.0006
3843.00,0.0006
3842.00,0.0007
3841.00,0.0006
3840.00,0.0006
3839.00,0.0006
3838.00,0.0006
3837.00,0.0007
3836.00,0.0007
3835.00,0.0007
3834.00,0.0007
3833.00,0.0006
3832.00,0.0006
3831.00,0.0006
3830.00,0.0006
3829.00,0.0006
3828.00,0.0006
3827.00,0.0006
3826.00,0.0006
3825.00,0.0006
3824.00,0.0007
3823.00,0.0007
3822.00,0.0007
3821.00,0.0007
3820.00,0.0007
3819.00,0.0007
3818.00,0.0007
3817.00,0.0007
3816.00,0.0006
3815.00,0.0006
3814.00,0.0007
3813.00,0.0007
3812.00,0.0007
3811.00,0.0007
3810.00,0.0007
3809.00,0.0007
3808.00,0.0007
3807.00,0.0007
3806.00,0.0007
3805.00,0.0007
3804.00,0.0007
3803.00,0.0007
3802.00,0.0007
3801.00,0.0007
3800.00,0.0007
3799.00,0.0007
3798.00,0.0007
3797.00,0.0007
3796.00,0.0007
3795.00,0.0007
3794.00,0.0007
3793.00,0.0007
3792.00,0.0007
3791.00,0.0006
3790.00,0.0006
3789.00,0.0006
3788.00,0.0006
3787.00,0.0006
3786.00,0.0006
3785.00,0.0006
3784.00,0.0006
3783.00,0.0006
3782.00,0.0006
3781.00,0.0006
3780.00,0.0006
3779.00,0.0006
3778.00,0.0006
3777.00,0.0006
3776.00,0.0006
3775.00,0.0006
3774.00,0.0007
3773.00,0.0007
3772.00,0.0007
3771.00,0.0007
3770.00,0.0007
3769.00,0.0007
3768.00,0.0007
3767.00,0.0007
3766.00,0.0007
3765.00,0.0007
3764.00,0.0008
3763.00,0.0008
3762.00,0.0008
3761.00,0.0008
3760.00,0.0008
3759.00,0.0008
3758.00,0.0008
3757.00,0.0009
3756.00,0.0009
3755.00,0.0009
3754.00,0.0009
3753.00,0.0009
3752.00,0.0009
3751.00,0.0008
3750.00,0.0008
3749.00,0.0008
3748.00,0.0007
3747.00,0.0007
3746.00,0.0007
3745.00,0.0006
3744.00,0.0007
3743.00,0.0007
3742.00,0.0008
3741.00,0.0008
3740.00,0.0008
3739.00,0.0009
3738.00,0.0009
3737.00,0.0009
3736.00,0.0009
3735.00,0.0008
3734.00,0.0008
3733.00,0.0008
3732.00,0.0007
3731.00,0.0007
3730.00,0.0006
3729.00,0.0006
3728.00,0.0006
3727.00,0.0006
3726.00,0.0006
3725.00,0.0006
3724.00,0.0006
3723.00,0.0006
3722.00,0.0006
3721.00,0.0007
3720.00,0.0007
3719.00,0.0007
3718.00,0.0006
3717.00,0.0006
3716.00,0.0006
3715.00,0.0005
3714.00,0.0005
3713.00,0.0006
3712.00,0.0006
3711.00,0.0006
3710.00,0.0006
3709.00,0.0006
3708.00,0.0007
3707.00,0.0006
3706.00,0.0006
3705.00,0.0005
3704.00,0.0005
3703.00,0.0005
3702.00,0.0005
3701.00,0.0005
3700.00,0.0005
3699.00,0.0006
3698.00,0.0006
3697.00,0.0006
3696.00,0.0006
3695.00,0.0005
3694.00,0.0005
3693.00,0.0005
3692.00,0.0006
3691.00,0.0006
3690.00,0.0006
3689.00,0.0006
3688.00,0.0006
3687.00,0.0007
3686.00,0.0007
3685.00,0.0006
3684.00,0.0006
3683.00,0.0006
3682.00,0.0006
3681.00,0.0007
3680.00,0.0007
3679.00,0.0007
3678.00,0.0008
3677.00,0.0008
3676.00,0.0008
3675.00,0.0008
3674.00,0.0008
3673.00,0.0007
3672.00,0.0007
3671.00,0.0007
3670.00,0.0007
3669.00,0.0007
3668.00,0.0007
3667.00,0.0007
3666.00,0.0007
3665.00,0.0006
3664.00,0.0006
3663.00,0.0006
3662.00,0.0006
3661.00,0.0006
3660.00,0.0006
3659.00,0.0006
3658.00,0.0006
3657.00,0.0007
3656.00,0.0007
3655.00,0.0007
3654.00,0.0007
3653.00,0.0007
3652.00,0.0008
3651.00,0.0008
3650.00,0.0008
3649.00,0.0008
3648.00,0.0008
3647.00,0.0009
3646.00,0.0009
3645.00,0.0009
3644.00,0.0008
3643.00,0.0008
3642.00,0.0007
3641.00,0.0007
3640.00,0.0007
3639.00,0.0007
3638.00,0.0007
3637.00,0.0008
3636.00,0.0008
3635.00,0.0008
3634.00,0.0008
3633.00,0.0008
3632.00,0.0008
3631.00,0.0008
3630.00,0.0008
3629.00,0.0008
3628.00,0.0008
3627.00,0.0008
3626.00,0.0008
3625.00,0.0008
3624.00,0.0008
3623.00,0.0009
3622.00,0.0009
3621.00,0.0009
3620.00,0.0009
3619.00,0.0010
3618.00,0.0010
3617.00,0.0011
3616.00,0.0011
3615.00,0.0011
3614.00,0.0010
3613.00,0.0010
3612.00,0.0010
3611.00,0.0010
3610.00,0.0011
3609.00,0.0011
3608.00,0.0011
3607.00,0.0010
3606.00,0.0011
3605.00,0.0011
3604.00,0.0011
3603.00,0.0011
3602.00,0.0011
3601.00,0.0012
3600.00,0.0012
3599.00,0.0013
3598.00,0.0013
3597.00,0.0013
3596.00,0.0013
3595.00,0.0013
3594.00,0.0013
3593.00,0.0013
3592.00,0.0013
3591.00,0.0014
3590.00,0.0014
3589.00,0.0015
3588.00,0.0015
3587.00,0.0015
3586.00,0.0016
3585.00,0.0016
3584.00,0.0016
3583.00,0.0016
3582.00,0.0016
3581.00,0.0015
3580.00,0.0015
3579.00,0.0015
3578.00,0.0016
3577.00,0.0016
3576.00,0.0016
3575.00,0.0016
3574.00,0.0016
3573.00,0.0017
3572.00,0.0017
3571.00,0.0017
3570.00,0.0018
3569.00,0.0018
3568.00,0.0019
3567.00,0.0020
3566.00,0.0020
3565.00,0.0021
3564.00,0.0021
3563.00,0.0021
3562.00,0.0020
3561.00,0.0020
3560.00,0.0020
3559.00,0.0020
3558.00,0.0021
3557.00,0.0022
3556.00,0.0022
3555.00,0.0023
3554.00,0.0023
3553.00,0.0023
3552.00,0.0023
3551.00,0.0023
3550.00,0.0024
3549.00,0.0024
3548.00,0.0025
3547.00,0.0025
3546.00,0.0026
3545.00,0.0026
3544.00,0.0027
3543.00,0.0027
3542.00,0.0027
3541.00,0.0027
3540.00,0.0027
3539.00,0.0027
3538.00,0.0027
3537.00,0.0027
3536.00,0.0028
3535.00,0.0029
3534.00,0.0029
3533.00,0.0029
3532.00,0.0030
3531.00,0.0030
3530.00,0.0030
3529.00,0.0030
3528.00,0.0030
3527.00,0.0030
3526.00,0.0030
3525.00,0.0031
3524.00,0.0031
3523.00,0.0032
3522.00,0.0033
3521.00,0.0033
3520.00,0.0034
3519.00,0.0033
3518.00,0.0033
3517.00,0.0033
3516.00,0.0033
3515.00,0.0034
3514.00,0.0034
3513.00,0.0035
3512.00,0.0035
3511.00,0.0036
3510.00,0.0036
3509.00,0.0036
3508.00,0.0037
3507.00,0.0037
3506.00,0.0038
3505.00,0.0038
3504.00,0.0038
3503.00,0.0038
3502.00,0.0038
3501.00,0.0038
3500.00,0.0038
3499.00,0.0038
3498.00,0.0038
3497.00,0.0038
3496.00,0.0039
3495.00,0.0039
3494.00,0.0040
3493.00,0.0040
3492.00,0.0041
3491.00,0.0041
3490.00,0.0042
3489.00,0.0042
3488.00,0.0042
3487.00,0.0042
3486.00,0.0042
3485.00,0.0042
3484.00,0.0043
3483.00,0.0043
3482.00,0.0043
3481.00,0.0044
3480.00,0.0044
3479.00,0.0045
3478.00,0.0045
3477.00,0.0045
3476.00,0.0045
3475.00,0.0045
3474.00,0.0045
3473.00,0.0045
3472.00,0.0045
3471.00,0.0046
3470.00,0.0046
3469.00,0.0047
3468.00,0.0047
3467.00,0.0047
3466.00,0.0047
3465.00,0.0048
3464.00,0.0048
3463.00,0.0048
3462.00,0.0049
3461.00,0.0049
3460.00,0.0049
3459.00,0.0049
3458.00,0.0050
3457.00,0.0050
3456.00,0.0050
3455.00,0.0050
3454.00,0.0051
3453.00,0.0051
3452.00,0.0051
3451.00,0.0051
3450.00,0.0052
3449.00,0.0052
3448.00,0.0052
3447.00,0.0052
3446.00,0.0052
3445.00,0.0053
3444.00,0.0053
3443.00,0.0053
3442.00,0.0053
3441.00,0.0053
3440.00,0.0054
3439.00,0.0054
3438.00,0.0054
3437.00,0.0054
3436.00,0.0055
3435.00,0.0055
3434.00,0.0055
3433.00,0.0056
3432.00,0.0056
3431.00,0.0056
3430.00,0.0057
3429.00,0.0057
3428.00,0.0057
3427.00,0.0058
3426.00,0.0058
3425.00,0.0058
3424.00,0.0058
3423.00,0.0058
3422.00,0.0059
3421.00,0.0059
3420.00,0.0059
3419.00,0.0059
3418.00,0.0059
3417.00,0.0059
3416.00,0.0060
3415.00,0.0060
3414.00,0.0060
3413.00,0.0060
3412.00,0.0060
3411.00,0.0060
3410.00,0.0060
3409.00,0.0060
3408.00,0.0060
3407.00,0.0060
3406.00,0.0060
3405.00,0.0060
3404.00,0.0061
3403.00,0.0061
3402.00,0.0061
3401.00,0.0061
3400.00,0.0061
3399.00,0.0061
3398.00,0.0061
3397.00,0.0061
3396.00,0.0061
3395.00,0.0061
3394.00,0.0062
3393.00,0.0062
3392.00,0.0062
3391.00,0.0062
3390.00,0.0062
3389.00,0.0062
3388.00,0.0062
3387.00,0.0061
3386.00,0.0061
3385.00,0.0061
3384.00,0.0061
3383.00,0.0062
3382.00,0.0062
3381.00,0.0062
3380.00,0.0062
3379.00,0.0062
3378.00,0.0062
3377.00,0.0062
3376.00,0.0062
3375.00,0.0062
3374.00,0.0062
3373.00,0.0062
3372.00,0.0062
3371.00,0.0062
3370.00,0.0062
3369.00,0.0062
3368.00,0.0062
3367.00,0.0062
3366.00,0.0062
3365.00,0.0062
3364.00,0.0062
3363.00,0.0062
3362.00,0.0062
3361.00,0.0062
3360.00,0.0062
3359.00,0.0063
3358.00,0.0063
3357.00,0.0063
3356.00,0.0063
3355.00,0.0063
3354.00,0.0063
3353.00,0.0063
3352.00,0.0063
3351.00,0.0062
3350.00,0.0062
3349.00,0.0063
3348.00,0.0063
3347.00,0.0062
3346.00,0.0062
3345.00,0.0062
3344.00,0.0062
3343.00,0.0062
3342.00,0.0062
3341.00,0.0062
3340.00,0.0062
3339.00,0.0062
3338.00,0.0062
3337.00,0.0062
3336.00,0.0062
3335.00,0.0062
3334.00,0.0062
3333.00,0.0062
3332.00,0.0062
3331.00,0.0061
3330.00,0.0061
3329.00,0.0060
3328.00,0.0060
3327.00,0.0060
3326.00,0.0060
3325.00,0.0060
3324.00,0.0060
3323.00,0.0060
3322.00,0.0060
3321.00,0.0060
3320.00,0.0059
3319.00,0.0059
3318.00,0.0059
3317.00,0.0058
3316.00,0.0058
3315.00,0.0058
3314.00,0.0058
3313.00,0.0059
3312.00,0.0059
3311.00,0.0058
3310.00,0.0058
3309.00,0.0058
3308.00,0.0058
3307.00,0.0058
3306.00,0.0058
3305.00,0.0058
3304.00,0.0057
3303.00,0.0057
3302.00,0.0057
3301.00,0.0057
3300.00,0.0057
3299.00,0.0057
3298.00,0.0057
3297.00,0.0057
3296.00,0.0057
3295.00,0.0056
3294.00,0.0056
3293.00,0.0056
3292.00,0.0056
3291.00,0.0056
3290.00,0.0056
3289.00,0.0056
3288.00,0.0056
3287.00,0.0055
3286.00,0.0054
3285.00,0.0054
3284.00,0.0054
3283.00,0.0054
3282.00,0.0055
3281.00,0.0055
3280.00,0.0055
3279.00,0.0055
3278.00,0.0054
3277.00,0.0054
3276.00,0.0054
3275.00,0.0053
3274.00,0.0053
3273.00,0.0053
3272.00,0.0053
3271.00,0.0053
3270.00,0.0053
3269.00,0.0053
3268.00,0.0052
3267.00,0.0052
3266.00,0.0051
3265.00,0.0051
3264.00,0.0051
3263.00,0.0050
3262.00,0.0050
3261.00,0.0050
3260.00,0.0050
3259.00,0.0050
3258.00,0.0049
3257.00,0.0049
3256.00,0.0049
3255.00,0.0049
3254.00,0.0049
3253.00,0.0049
3252.00,0.0049
3251.00,0.0049
3250.00,0.0049
3249.00,0.0049
3248.00,0.0049
3247.00,0.0048
3246.00,0.0048
3245.00,0.0048
3244.00,0.0048
3243.00,0.0048
3242.00,0.0048
3241.00,0.0048
3240.00,0.0048
3239.00,0.0048
3238.00,0.0048
3237.00,0.0048
3236.00,0.0048
3235.00,0.0048
3234.00,0.0048
3233.00,0.0048
3232.00,0.0048
3231.00,0.0048
3230.00,0.0047
3229.00,0.0047
3228.00,0.0047
3227.00,0.0047
3226.00,0.0047
3225.00,0.0048
3224.00,0.0048
3223.00,0.0048
3222.00,0.0049
3221.00,0.0049
3220.00,0.0049
3219.00,0.0049
3218.00,0.0049
3217.00,0.0050
3216.00,0.0050
3215.00,0.0050
3214.00,0.0051
3213.00,0.0051
3212.00,0.0051
3211.00,0.0051
3210.00,0.0050
3209.00,0.0050
3208.00,0.0050
3207.00,0.0050
3206.00,0.0050
3205.00,0.0051
3204.00,0.0051
3203.00,0.0051
3202.00,0.0051
3201.00,0.0050
3200.00,0.0050
3199.00,0.0050
3198.00,0.0050
3197.00,0.0050
3196.00,0.0050
3195.00,0.0050
3194.00,0.0051
3193.00,0.0051
3192.00,0.0051
3191.00,0.0051
3190.00,0.0051
3189.00,0.0051
3188.00,0.0050
3187.00,0.0050
3186.00,0.0049
3185.00,0.0049
3184.00,0.0049
3183.00,0.0049
3182.00,0.0048
3181.00,0.0048
3180.00,0.0047
3179.00,0.0046
3178.00,0.0046
3177.00,0.0045
3176.00,0.0045
3175.00,0.0045
3174.00,0.0045
3173.00,0.0045
3172.00,0.0045
3171.00,0.0045
3170.00,0.0045
3169.00,0.0044
3168.00,0.0044
3167.00,0.0044
3166.00,0.0043
3165.00,0.0043
3164.00,0.0043
3163.00,0.0043
3162.00,0.0043
3161.00,0.0043
3160.00,0.0043
3159.00,0.0043
3158.00,0.0043
3157.00,0.0043
3156.00,0.0043
3155.00,0.0043
3154.00,0.0043
3153.00,0.0043
3152.00,0.0043
3151.00,0.0043
3150.00,0.0042
3149.00,0.0042
3148.00,0.0042
3147.00,0.0042
3146.00,0.0042
3145.00,0.0042
3144.00,0.0041
3143.00,0.0041
3142.00,0.0042
3141.00,0.0042
3140.00,0.0042
3139.00,0.0042
3138.00,0.0041
3137.00,0.0040
3136.00,0.0040
3135.00,0.0039
3134.00,0.0039
3133.00,0.0039
3132.00,0.0039
3131.00,0.0039
3130.00,0.0039
3129.00,0.0038
3128.00,0.0038
3127.00,0.0038
3126.00,0.0037
3125.00,0.0037
3124.00,0.0037
3123.00,0.0036
3122.00,0.0036
3121.00,0.0036
3120.00,0.0035
3119.00,0.0035
3118.00,0.0035
3117.00,0.0035
3116.00,0.0035
3115.00,0.0035
3114.00,0.0035
3113.00,0.0035
3112.00,0.0034
3111.00,0.0034
3110.00,0.0034
3109.00,0.0034
3108.00,0.0034
3107.00,0.0034
3106.00,0.0033
3105.00,0.0033
3104.00,0.0033
3103.00,0.0033
3102.00,0.0032
3101.00,0.0032
3100.00,0.0032
3099.00,0.0032
3098.00,0.0033
3097.00,0.0033
3096.00,0.0033
3095.00,0.0032
3094.00,0.0032
3093.00,0.0031
3092.00,0.0031
3091.00,0.0031
3090.00,0.0031
3089.00,0.0031
3088.00,0.0031
3087.00,0.0031
3086.00,0.0031
3085.00,0.0031
3084.00,0.0030
3083.00,0.0030
3082.00,0.0029
3081.00,0.0029
3080.00,0.0029
3079.00,0.0030
3078.00,0.0030
3077.00,0.0030
3076.00,0.0030
3075.00,0.0031
3074.00,0.0031
3073.00,0.0031
3072.00,0.0031
3071.00,0.0031
3070.00,0.0031
3069.00,0.0031
3068.00,0.0031
3067.00,0.0031
3066.00,0.0031
3065.00,0.0031
3064.00,0.0032
3063.00,0.0032
3062.00,0.0033
3061.00,0.0033
3060.00,0.0033
3059.00,0.0033
3058.00,0.0033
3057.00,0.0033
3056.00,0.0033
3055.00,0.0033
3054.00,0.0033
3053.00,0.0033
3052.00,0.0033
3051.00,0.0033
3050.00,0.0033
3049.00,0.0033
3048.00,0.0033
3047.00,0.0034
3046.00,0.0034
3045.00,0.0034
3044.00,0.0034
3043.00,0.0035
3042.00,0.0035
3041.00,0.0036
3040.00,0.0036
3039.00,0.0037
3038.00,0.0037
3037.00,0.0037
3036.00,0.0038
3035.00,0.0038
3034.00,0.0038
3033.00,0.0038
3032.00,0.0039
3031.00,0.0039
3030.00,0.0039
3029.00,0.0040
3028.00,0.0040
3027.00,0.0041
3026.00,0.0042
3025.00,0.0043
3024.00,0.0043
3023.00,0.0044
3022.00,0.0045
3021.00,0.0046
3020.00,0.0047
3019.00,0.0048
3018.00,0.0049
3017.00,0.0050
3016.00,0.0051
3015.00,0.0051
3014.00,0.0052
3013.00,0.0053
3012.00,0.0055
3011.00,0.0057
3010.00,0.0058
3009.00,0.0060
3008.00,0.0062
3007.00,0.0064
3006.00,0.0066
3005.00,0.0068
3004.00,0.0071
3003.00,0.0073
3002.00,0.0076
3001.00,0.0078
3000.00,0.0081
2999.00,0.0085
2998.00,0.0088
2997.00,0.0092
2996.00,0.0095
2995.00,0.0100
2994.00,0.0105
2993.00,0.0111
2992.00,0.0117
2991.00,0.0124
2990.00,0.0131
2989.00,0.0139
2988.00,0.0148
2987.00,0.0158
2986.00,0.0169
2985.00,0.0182
2984.00,0.0196
2983.00,0.0212
2982.00,0.0229
2981.00,0.0248
2980.00,0.0270
2979.00,0.0294
2978.00,0.0322
2977.00,0.0354
2976.00,0.0390
2975.00,0.0432
2974.00,0.0479
2973.00,0.0534
2972.00,0.0595
2971.00,0.0665
2970.00,0.0742
2969.00,0.0828
2968.00,0.0924
2967.00,0.1029
2966.00,0.1142
2965.00,0.1262
2964.00,0.1387
2963.00,0.1513
2962.00,0.1633
2961.00,0.1743
2960.00,0.1835
2959.00,0.1908
2958.00,0.1960
2957.00,0.1994
2956.00,0.2014
2955.00,0.2027
2954.00,0.2038
2953.00,0.2048
2952.00,0.2054
2951.00,0.2050
2950.00,0.2028
2949.00,0.1980
2948.00,0.1902
2947.00,0.1797
2946.00,0.1671
2945.00,0.1536
2944.00,0.1406
2943.00,0.1289
2942.00,0.1195
2941.00,0.1126
2940.00,0.1082
2939.00,0.1061
2938.00,0.1061
2937.00,0.1079
2936.00,0.1113
2935.00,0.1161
2934.00,0.1222
2933.00,0.1294
2932.00,0.1375
2931.00,0.1464
2930.00,0.1555
2929.00,0.1648
2928.00,0.1737
2927.00,0.1822
2926.00,0.1901
2925.00,0.1974
2924.00,0.2043
2923.00,0.2108
2922.00,0.2171
2921.00,0.2230
2920.00,0.2282
2919.00,0.2322
2918.00,0.2346
2917.00,0.2349
2916.00,0.2329
2915.00,0.2289
2914.00,0.2233
2913.00,0.2170
2912.00,0.2106
2911.00,0.2045
2910.00,0.1988
2909.00,0.1936
2908.00,0.1886
2907.00,0.1836
2906.00,0.1784
2905.00,0.1727
2904.00,0.1666
2903.00,0.1600
2902.00,0.1532
2901.00,0.1463
2900.00,0.1395
2899.00,0.1330
2898.00,0.1269
2897.00,0.1213
2896.00,0.1164
2895.00,0.1122
2894.00,0.1088
2893.00,0.1062
2892.00,0.1042
2891.00,0.1029
2890.00,0.1021
2889.00,0.1018
2888.00,0.1019
2887.00,0.1023
2886.00,0.1031
2885.00,0.1043
2884.00,0.1059
2883.00,0.1079
2882.00,0.1101
2881.00,0.1125
2880.00,0.1147
2879.00,0.1165
2878.00,0.1176
2877.00,0.1178
2876.00,0.1173
2875.00,0.1164
2874.00,0.1155
2873.00,0.1152
2872.00,0.1155
2871.00,0.1166
2870.00,0.1183
2869.00,0.1199
2868.00,0.1209
2867.00,0.1205
2866.00,0.1179
2865.00,0.1131
2864.00,0.1061
2863.00,0.0978
2862.00,0.0891
2861.00,0.0810
2860.00,0.0739
2859.00,0.0682
2858.00,0.0639
2857.00,0.0608
2856.00,0.0587
2855.00,0.0575
2854.00,0.0570
2853.00,0.0571
2852.00,0.0578
2851.00,0.0591
2850.00,0.0612
2849.00,0.0641
2848.00,0.0679
2847.00,0.0726
2846.00,0.0783
2845.00,0.0849
2844.00,0.0924
2843.00,0.1006
2842.00,0.1091
2841.00,0.1171
2840.00,0.1240
2839.00,0.1285
2838.00,0.1299
2837.00,0.1276
2836.00,0.1215
2835.00,0.1123
2834.00,0.1011
2833.00,0.0892
2832.00,0.0778
2831.00,0.0677
2830.00,0.0591
2829.00,0.0521
2828.00,0.0465
2827.00,0.0420
2826.00,0.0383
2825.00,0.0352
2824.00,0.0327
2823.00,0.0305
2822.00,0.0287
2821.00,0.0270
2820.00,0.0257
2819.00,0.0244
2818.00,0.0234
2817.00,0.0224
2816.00,0.0216
2815.00,0.0209
2814.00,0.0203
2813.00,0.0197
2812.00,0.0192
2811.00,0.0187
2810.00,0.0182
2809.00,0.0176
2808.00,0.0171
2807.00,0.0165
2806.00,0.0158
2805.00,0.0152
2804.00,0.0145
2803.00,0.0139
2802.00,0.0133
2801.00,0.0128
2800.00,0.0125
2799.00,0.0122
2798.00,0.0119
2797.00,0.0117
2796.00,0.0115
2795.00,0.0113
2794.00,0.0110
2793.00,0.0107
2792.00,0.0103
2791.00,0.0099
2790.00,0.0095
2789.00,0.0091
2788.00,0.0088
2787.00,0.0085
2786.00,0.0082
2785.00,0.0079
2784.00,0.0076
2783.00,0.0073
2782.00,0.0071
2781.00,0.0069
2780.00,0.0067
2779.00,0.0065
2778.00,0.0064
2777.00,0.0063
2776.00,0.0062
2775.00,0.0061
2774.00,0.0060
2773.00,0.0059
2772.00,0.0058
2771.00,0.0057
2770.00,0.0057
2769.00,0.0057
2768.00,0.0057
2767.00,0.0056
2766.00,0.0056
2765.00,0.0055
2764.00,0.0055
2763.00,0.0055
2762.00,0.0054
2761.00,0.0054
2760.00,0.0053
2759.00,0.0053
2758.00,0.0052
2757.00,0.0052
2756.00,0.0052
2755.00,0.0052
2754.00,0.0051
2753.00,0.0051
2752.00,0.0051
2751.00,0.0051
2750.00,0.0051
2749.00,0.0051
2748.00,0.0052
2747.00,0.0052
2746.00,0.0053
2745.00,0.0053
2744.00,0.0054
2743.00,0.0055
2742.00,0.0056
2741.00,0.0057
2740.00,0.0059
2739.00,0.0060
2738.00,0.0061
2737.00,0.0062
2736.00,0.0064
2735.00,0.0065
2734.00,0.0066
2733.00,0.0068
2732.00,0.0070
2731.00,0.0071
2730.00,0.0074
2729.00,0.0076
2728.00,0.0079
2727.00,0.0081
2726.00,0.0084
2725.00,0.0087
2724.00,0.0088
2723.00,0.0089
2722.00,0.0088
2721.00,0.0086
2720.00,0.0083
2719.00,0.0079
2718.00,0.0076
2717.00,0.0072
2716.00,0.0070
2715.00,0.0067
2714.00,0.0066
2713.00,0.0064
2712.00,0.0062
2711.00,0.0060
2710.00,0.0058
2709.00,0.0056
2708.00,0.0055
2707.00,0.0054
2706.00,0.0052
2705.00,0.0051
2704.00,0.0050
2703.00,0.0049
2702.00,0.0048
2701.00,0.0048
2700.00,0.0047
2699.00,0.0046
2698.00,0.0046
2697.00,0.0045
2696.00,0.0045
2695.00,0.0045
2694.00,0.0045
2693.00,0.0045
2692.00,0.0046
2691.00,0.0046
2690.00,0.0046
2689.00,0.0046
2688.00,0.0046
2687.00,0.0046
2686.00,0.0045
2685.00,0.0045
2684.00,0.0046
2683.00,0.0046
2682.00,0.0046
2681.00,0.0046
2680.00,0.0046
2679.00,0.0046
2678.00,0.0046
2677.00,0.0046
2676.00,0.0046
2675.00,0.0045
2674.00,0.0045
2673.00,0.0044
2672.00,0.0044
2671.00,0.0044
2670.00,0.0044
2669.00,0.0044
2668.00,0.0044
2667.00,0.0044
2666.00,0.0045
2665.00,0.0046
2664.00,0.0047
2663.00,0.0047
2662.00,0.0048
2661.00,0.0048
2660.00,0.0048
2659.00,0.0048
2658.00,0.0047
2657.00,0.0047
2656.00,0.0046
2655.00,0.0046
2654.00,0.0045
2653.00,0.0045
2652.00,0.0044
2651.00,0.0043
2650.00,0.0043
2649.00,0.0042
2648.00,0.0042
2647.00,0.0042
2646.00,0.0041
2645.00,0.0041
2644.00,0.0041
2643.00,0.0041
2642.00,0.0041
2641.00,0.0041
2640.00,0.0040
2639.00,0.0039
2638.00,0.0038
2637.00,0.0038
2636.00,0.0037
2635.00,0.0037
2634.00,0.0037
2633.00,0.0038
2632.00,0.0038
2631.00,0.0039
2630.00,0.0039
2629.00,0.0039
2628.00,0.0039
2627.00,0.0039
2626.00,0.0040
2625.00,0.0040
2624.00,0.0040
2623.00,0.0040
2622.00,0.0040
2621.00,0.0040
2620.00,0.0041
2619.00,0.0041
2618.00,0.0040
2617.00,0.0040
2616.00,0.0040
2615.00,0.0040
2614.00,0.0040
2613.00,0.0040
2612.00,0.0039
2611.00,0.0039
2610.00,0.0038
2609.00,0.0037
2608.00,0.0036
2607.00,0.0035
2606.00,0.0035
2605.00,0.0034
2604.00,0.0033
2603.00,0.0032
2602.00,0.0032
2601.00,0.0031
2600.00,0.0031
2599.00,0.0031
2598.00,0.0031
2597.00,0.0031
2596.00,0.0032
2595.00,0.0032
2594.00,0.0032
2593.00,0.0032
2592.00,0.0032
2591.00,0.0032
2590.00,0.0033
2589.00,0.0034
2588.00,0.0035
2587.00,0.0036
2586.00,0.0037
2585.00,0.0037
2584.00,0.0038
2583.00,0.0039
2582.00,0.0039
2581.00,0.0038
2580.00,0.0038
2579.00,0.0037
2578.00,0.0037
2577.00,0.0036
2576.00,0.0035
2575.00,0.0033
2574.00,0.0032
2573.00,0.0031
2572.00,0.0030
2571.00,0.0029
2570.00,0.0028
2569.00,0.0027
2568.00,0.0027
2567.00,0.0026
2566.00,0.0025
2565.00,0.0024
2564.00,0.0024
2563.00,0.0023
2562.00,0.0023
2561.00,0.0023
2560.00,0.0024
2559.00,0.0024
2558.00,0.0024
2557.00,0.0024
2556.00,0.0023
2555.00,0.0023
2554.00,0.0022
2553.00,0.0021
2552.00,0.0021
2551.00,0.0020
2550.00,0.0020
2549.00,0.0020
2548.00,0.0020
2547.00,0.0020
2546.00,0.0020
2545.00,0.0019
2544.00,0.0018
2543.00,0.0018
2542.00,0.0017
2541.00,0.0017
2540.00,0.0017
2539.00,0.0017
2538.00,0.0016
2537.00,0.0015
2536.00,0.0015
2535.00,0.0015
2534.00,0.0015
2533.00,0.0016
2532.00,0.0016
2531.00,0.0015
2530.00,0.0015
2529.00,0.0014
2528.00,0.0014
2527.00,0.0014
2526.00,0.0015
2525.00,0.0015
2524.00,0.0014
2523.00,0.0014
2522.00,0.0013
2521.00,0.0013
2520.00,0.0013
2519.00,0.0012
2518.00,0.0012
2517.00,0.0012
2516.00,0.0012
2515.00,0.0012
2514.00,0.0011
2513.00,0.0010
2512.00,0.0010
2511.00,0.0009
2510.00,0.0010
2509.00,0.0011
2508.00,0.0012
2507.00,0.0012
2506.00,0.0012
2505.00,0.0011
2504.00,0.0010
2503.00,0.0010
2502.00,0.0010
2501.00,0.0010
2500.00,0.0010
2499.00,0.0010
2498.00,0.0010
2497.00,0.0010
2496.00,0.0010
2495.00,0.0010
2494.00,0.0010
2493.00,0.0011
2492.00,0.0011
2491.00,0.0012
2490.00,0.0012
2489.00,0.0011
2488.00,0.0010
2487.00,0.0009
2486.00,0.0008
2485.00,0.0008
2484.00,0.0008
2483.00,0.0009
2482.00,0.0009
2481.00,0.0010
2480.00,0.0010
2479.00,0.0009
2478.00,0.0009
2477.00,0.0008
2476.00,0.0008
2475.00,0.0008
2474.00,0.0008
2473.00,0.0008
2472.00,0.0008
2471.00,0.0008
2470.00,0.0008
2469.00,0.0009
2468.00,0.0009
2467.00,0.0009
2466.00,0.0009
2465.00,0.0009
2464.00,0.0009
2463.00,0.0009
2462.00,0.0009
2461.00,0.0009
2460.00,0.0010
2459.00,0.0010
2458.00,0.0010
2457.00,0.0010
2456.00,0.0010
2455.00,0.0011
2454.00,0.0011
2453.00,0.0012
2452.00,0.0012
2451.00,0.0012
2450.00,0.0011
2449.00,0.0011
2448.00,0.0011
2447.00,0.0011
2446.00,0.0010
2445.00,0.0009
2444.00,0.0009
2443.00,0.0009
2442.00,0.0009
2441.00,0.0010
2440.00,0.0010
2439.00,0.0011
2438.00,0.0011
2437.00,0.0010
2436.00,0.0010
2435.00,0.0010
2434.00,0.0010
2433.00,0.0011
2432.00,0.0011
2431.00,0.0012
2430.00,0.0012
2429.00,0.0012
2428.00,0.0012
2427.00,0.0012
2426.00,0.0012
2425.00,0.0012
2424.00,0.0011
2423.00,0.0011
2422.00,0.0010
2421.00,0.0010
2420.00,0.0010
2419.00,0.0010
2418.00,0.0010
2417.00,0.0010
2416.00,0.0010
2415.00,0.0010
2414.00,0.0010
2413.00,0.0009
2412.00,0.0009
2411.00,0.0010
2410.00,0.0010
2409.00,0.0010
2408.00,0.0010
2407.00,0.0010
2406.00,0.0009
2405.00,0.0009
2404.00,0.0010
2403.00,0.0010
2402.00,0.0010
2401.00,0.0010
2400.00,0.0010
2399.00,0.0009
2398.00,0.0009
2397.00,0.0009
2396.00,0.0009
2395.00,0.0009
2394.00,0.0009
2393.00,0.0009
2392.00,0.0009
2391.00,0.0009
2390.00,0.0008
2389.00,0.0008
2388.00,0.0008
2387.00,0.0007
2386.00,0.0007
2385.00,0.0006
2384.00,0.0006
2383.00,0.0005
2382.00,0.0005
2381.00,0.0005
2380.00,0.0005
2379.00,0.0005
2378.00,0.0004
2377.00,0.0004
2376.00,0.0004
2375.00,0.0004
2374.00,0.0004
2373.00,0.0003
2372.00,0.0003
2371.00,0.0003
2370.00,0.0003
2369.00,0.0002
2368.00,0.0002
2367.00,0.0002
2366.00,0.0002
2365.00,0.0003
2364.00,0.0004
2363.00,0.0005
2362.00,0.0005
2361.00,0.0004
2360.00,0.0004
2359.00,0.0003
2358.00,0.0003
2357.00,0.0003
2356.00,0.0003
2355.00,0.0002
2354.00,0.0002
2353.00,0.0003
2352.00,0.0003
2351.00,0.0003
2350.00,0.0003
2349.00,0.0003
2348.00,0.0003
2347.00,0.0004
2346.00,0.0006
2345.00,0.0007
2344.00,0.0007
2343.00,0.0007
2342.00,0.0006
2341.00,0.0005
2340.00,0.0005
2339.00,0.0005
2338.00,0.0006
2337.00,0.0006
2336.00,0.0006
2335.00,0.0007
2334.00,0.0006
2333.00,0.0005
2332.00,0.0004
2331.00,0.0004
2330.00,0.0004
2329.00,0.0005
2328.00,0.0007
2327.00,0.0010
2326.00,0.0015
2325.00,0.0018
2324.00,0.0020
2323.00,0.0020
2322.00,0.0018
2321.00,0.0015
2320.00,0.0012
2319.00,0.0011
2318.00,0.0010
2317.00,0.0009
2316.00,0.0009
2315.00,0.0008
2314.00,0.0008
2313.00,0.0007
2312.00,0.0007
2311.00,0.0006
2310.00,0.0006
2309.00,0.0006
2308.00,0.0006
2307.00,0.0005
2306.00,0.0005
2305.00,0.0006
2304.00,0.0007
2303.00,0.0008
2302.00,0.0009
2301.00,0.0009
2300.00,0.0010
2299.00,0.0010
2298.00,0.0010
2297.00,0.0010
2296.00,0.0010
2295.00,0.0010
2294.00,0.0010
2293.00,0.0011
2292.00,0.0013
2291.00,0.0014
2290.00,0.0016
2289.00,0.0017
2288.00,0.0018
2287.00,0.0018
2286.00,0.0019
2285.00,0.0018
2284.00,0.0018
2283.00,0.0017
2282.00,0.0017
2281.00,0.0017
2280.00,0.0017
2279.00,0.0015
2278.00,0.0014
2277.00,0.0013
2276.00,0.0013
2275.00,0.0013
2274.00,0.0013
2273.00,0.0013
2272.00,0.0013
2271.00,0.0012
2270.00,0.0013
2269.00,0.0013
2268.00,0.0013
2267.00,0.0012
2266.00,0.0011
2265.00,0.0010
2264.00,0.0009
2263.00,0.0009
2262.00,0.0010
2261.00,0.0011
2260.00,0.0011
2259.00,0.0012
2258.00,0.0012
2257.00,0.0013
2256.00,0.0012
2255.00,0.0012
2254.00,0.0011
2253.00,0.0011
2252.00,0.0011
2251.00,0.0011
2250.00,0.0010
2249.00,0.0009
2248.00,0.0008
2247.00,0.0007
2246.00,0.0007
2245.00,0.0007
2244.00,0.0007
2243.00,0.0007
2242.00,0.0006
2241.00,0.0007
2240.00,0.0007
2239.00,0.0007
2238.00,0.0007
2237.00,0.0007
2236.00,0.0009
2235.00,0.0010
2234.00,0.0012
2233.00,0.0012
2232.00,0.0011
2231.00,0.0011
2230.00,0.0010
2229.00,0.0010
2228.00,0.0010
2227.00,0.0010
2226.00,0.0010
2225.00,0.0010
2224.00,0.0009
2223.00,0.0008
2222.00,0.0007
2221.00,0.0007
2220.00,0.0008
2219.00,0.0009
2218.00,0.0009
2217.00,0.0007
2216.00,0.0006
2215.00,0.0004
2214.00,0.0003
2213.00,0.0003
2212.00,0.0005
2211.00,0.0006
2210.00,0.0006
2209.00,0.0006
2208.00,0.0006
2207.00,0.0007
2206.00,0.0008
2205.00,0.0009
2204.00,0.0008
2203.00,0.0008
2202.00,0.0008
2201.00,0.0008
2200.00,0.0008
2199.00,0.0008
2198.00,0.0008
2197.00,0.0008
2196.00,0.0008
2195.00,0.0008
2194.00,0.0009
2193.00,0.0011
2192.00,0.0011
2191.00,0.0010
2190.00,0.0007
2189.00,0.0005
2188.00,0.0005
2187.00,0.0006
2186.00,0.0008
2185.00,0.0011
2184.00,0.0011
2183.00,0.0009
2182.00,0.0006
2181.00,0.0004
2180.00,0.0004
2179.00,0.0005
2178.00,0.0007
2177.00,0.0009
2176.00,0.0009
2175.00,0.0007
2174.00,0.0006
2173.00,0.0006
2172.00,0.0008
2171.00,0.0010
2170.00,0.0012
2169.00,0.0012
2168.00,0.0013
2167.00,0.0014
2166.00,0.0017
2165.00,0.0019
2164.00,0.0022
2163.00,0.0023
2162.00,0.0022
2161.00,0.0017
2160.00,0.0008
2159.00,-0.0005
2158.00,-0.0016
2157.00,-0.0022
2156.00,-0.0024
2155.00,-0.0023
2154.00,-0.0021
2153.00,-0.0019
2152.00,-0.0016
2151.00,-0.0013
2150.00,-0.0011
2149.00,-0.0010
2148.00,-0.0010
2147.00,-0.0011
2146.00,-0.0012
2145.00,-0.0013
2144.00,-0.0013
2143.00,-0.0013
2142.00,-0.0013
2141.00,-0.0011
2140.00,-0.0009
2139.00,-0.0008
2138.00,-0.0008
2137.00,-0.0009
2136.00,-0.0012
2135.00,-0.0015
2134.00,-0.0017
2133.00,-0.0018
2132.00,-0.0016
2131.00,-0.0014
2130.00,-0.0013
2129.00,-0.0012
2128.00,-0.0011
2127.00,-0.0009
2126.00,-0.0007
2125.00,-0.0006
2124.00,-0.0006
2123.00,-0.0006
2122.00,-0.0006
2121.00,-0.0006
2120.00,-0.0006
2119.00,-0.0006
2118.00,-0.0005
2117.00,-0.0003
2116.00,0.0001
2115.00,0.0003
2114.00,0.0003
2113.00,0.0002
2112.00,0.0001
2111.00,0.0001
2110.00,0.0001
2109.00,0.0001
2108.00,0.0002
2107.00,0.0003
2106.00,0.0004
2105.00,0.0004
2104.00,0.0004
2103.00,0.0004
2102.00,0.0003
2101.00,0.0003
2100.00,0.0003
2099.00,0.0002
2098.00,0.0002
2097.00,0.0001
2096.00,-0.0001
2095.00,-0.0003
2094.00,-0.0005
2093.00,-0.0005
2092.00,-0.0004
2091.00,-0.0002
2090.00,-0.0001
2089.00,-0.0000
2088.00,-0.0000
2087.00,-0.0000
2086.00,0.0000
2085.00,0.0001
2084.00,0.0002
2083.00,0.0003
2082.00,0.0004
2081.00,0.0005
2080.00,0.0006
2079.00,0.0006
2078.00,0.0005
2077.00,0.0004
2076.00,0.0002
2075.00,0.0001
2074.00,-0.0001
2073.00,-0.0001
2072.00,-0.0000
2071.00,-0.0000
2070.00,-0.0001
2069.00,-0.0002
2068.00,-0.0002
2067.00,-0.0001
2066.00,-0.0001
2065.00,-0.0002
2064.00,-0.0003
2063.00,-0.0004
2062.00,-0.0004
2061.00,-0.0003
2060.00,-0.0001
2059.00,0.0001
2058.00,0.0003
2057.00,0.0004
2056.00,0.0004
2055.00,0.0005
2054.00,0.0006
2053.00,0.0009
2052.00,0.0013
2051.00,0.0015
2050.00,0.0015
2049.00,0.0012
2048.00,0.0009
2047.00,0.0006
2046.00,0.0004
2045.00,0.0004
2044.00,0.0004
2043.00,0.0003
2042.00,0.0002
2041.00,0.0000
2040.00,-0.0002
2039.00,-0.0003
2038.00,-0.0003
2037.00,-0.0002
2036.00,-0.0000
2035.00,0.0001
2034.00,0.0000
2033.00,-0.0001
2032.00,-0.0003
2031.00,-0.0005
2030.00,-0.0007
2029.00,-0.0008
2028.00,-0.0009
2027.00,-0.0009
2026.00,-0.0007
2025.00,-0.0004
2024.00,-0.0003
2023.00,-0.0003
2022.00,-0.0005
2021.00,-0.0006
2020.00,-0.0009
2019.00,-0.0013
2018.00,-0.0016
2017.00,-0.0018
2016.00,-0.0017
2015.00,-0.0014
2014.00,-0.0011
2013.00,-0.0008
2012.00,-0.0007
2011.00,-0.0006
2010.00,-0.0008
2009.00,-0.0010
2008.00,-0.0013
2007.00,-0.0016
2006.00,-0.0018
2005.00,-0.0018
2004.00,-0.0018
2003.00,-0.0018
2002.00,-0.0019
2001.00,-0.0019
2000.00,-0.0019
1999.00,-0.0019
1998.00,-0.0018
1997.00,-0.0017
1996.00,-0.0014
1995.00,-0.0011
1994.00,-0.0009
1993.00,-0.0007
1992.00,-0.0006
1991.00,-0.0006
1990.00,-0.0006
1989.00,-0.0006
1988.00,-0.0004
1987.00,-0.0003
1986.00,-0.0001
1985.00,-0.0001
1984.00,-0.0000
1983.00,0.0001
1982.00,0.0004
1981.00,0.0007
1980.00,0.0007
1979.00,0.0004
1978.00,-0.0002
1977.00,-0.0007
1976.00,-0.0008
1975.00,-0.0007
1974.00,-0.0005
1973.00,-0.0004
1972.00,-0.0003
1971.00,-0.0003
1970.00,-0.0003
1969.00,-0.0004
1968.00,-0.0008
1967.00,-0.0012
1966.00,-0.0015
1965.00,-0.0016
1964.00,-0.0015
1963.00,-0.0015
1962.00,-0.0016
1961.00,-0.0019
1960.00,-0.0023
1959.00,-0.0025
1958.00,-0.0026
1957.00,-0.0026
1956.00,-0.0024
1955.00,-0.0021
1954.00,-0.0019
1953.00,-0.0018
1952.00,-0.0017
1951.00,-0.0018
1950.00,-0.0018
1949.00,-0.0018
1948.00,-0.0018
1947.00,-0.0019
1946.00,-0.0020
1945.00,-0.0021
1944.00,-0.0022
1943.00,-0.0021
1942.00,-0.0020
1941.00,-0.0018
1940.00,-0.0016
1939.00,-0.0015
1938.00,-0.0014
1937.00,-0.0013
1936.00,-0.0012
1935.00,-0.0012
1934.00,-0.0013
1933.00,-0.0013
1932.00,-0.0013
1931.00,-0.0012
1930.00,-0.0010
1929.00,-0.0007
1928.00,-0.0005
1927.00,-0.0005
1926.00,-0.0005
1925.00,-0.0006
1924.00,-0.0005
1923.00,-0.0005
1922.00,-0.0005
1921.00,-0.0004
1920.00,-0.0005
1919.00,-0.0005
1918.00,-0.0005
1917.00,-0.0005
1916.00,-0.0004
1915.00,-0.0004
1914.00,-0.0004
1913.00,-0.0004
1912.00,-0.0004
1911.00,-0.0005
1910.00,-0.0006
1909.00,-0.0006
1908.00,-0.0006
1907.00,-0.0005
1906.00,-0.0004
1905.00,-0.0004
1904.00,-0.0004
1903.00,-0.0005
1902.00,-0.0005
1901.00,-0.0004
1900.00,-0.0003
1899.00,-0.0002
1898.00,-0.0001
1897.00,-0.0001
1896.00,-0.0001
1895.00,-0.0001
1894.00,-0.0001
1893.00,-0.0001
1892.00,-0.0002
1891.00,-0.0003
1890.00,-0.0004
1889.00,-0.0004
1888.00,-0.0003
1887.00,-0.0003
1886.00,-0.0003
1885.00,-0.0003
1884.00,-0.0003
1883.00,-0.0003
1882.00,-0.0003
1881.00,-0.0003
1880.00,-0.0003
1879.00,-0.0003
1878.00,-0.0003
1877.00,-0.0002
1876.00,-0.0001
1875.00,-0.0001
1874.00,-0.0001
1873.00,-0.0000
1872.00,-0.0000
1871.00,0.0000
1870.00,0.0001
1869.00,0.0001
1868.00,0.0001
1867.00,0.0001
1866.00,0.0000
1865.00,-0.0000
1864.00,-0.0000
1863.00,0.0000
1862.00,0.0001
1861.00,0.0001
1860.00,0.0001
1859.00,0.0001
1858.00,0.0001
1857.00,0.0000
1856.00,-0.0000
1855.00,-0.0001
1854.00,-0.0002
1853.00,-0.0002
1852.00,-0.0002
1851.00,-0.0001
1850.00,0.0000
1849.00,0.0001
1848.00,0.0001
1847.00,0.0001
1846.00,0.0001
1845.00,0.0001
1844.00,-0.0000
1843.00,-0.0001
1842.00,-0.0001
1841.00,-0.0001
1840.00,0.0000
1839.00,0.0000
1838.00,0.0001
1837.00,0.0001
1836.00,0.0001
1835.00,0.0001
1834.00,0.0002
1833.00,0.0002
1832.00,0.0002
1831.00,0.0002
1830.00,0.0002
1829.00,0.0002
1828.00,0.0002
1827.00,0.0002
1826.00,0.0002
1825.00,0.0002
1824.00,0.0002
1823.00,0.0002
1822.00,0.0002
1821.00,0.0002
1820.00,0.0002
1819.00,0.0001
1818.00,0.0000
1817.00,-0.0001
1816.00,-0.0001
1815.00,-0.0001
1814.00,-0.0000
1813.00,0.0001
1812.00,0.0002
1811.00,0.0002
1810.00,0.0003
1809.00,0.0004
1808.00,0.0004
1807.00,0.0003
1806.00,0.0002
1805.00,0.0002
1804.00,0.0003
1803.00,0.0004
1802.00,0.0004
1801.00,0.0004
1800.00,0.0004
1799.00,0.0004
1798.00,0.0004
1797.00,0.0005
1796.00,0.0005
1795.00,0.0005
1794.00,0.0004
1793.00,0.0004
1792.00,0.0005
1791.00,0.0006
1790.00,0.0007
1789.00,0.0007
1788.00,0.0008
1787.00,0.0008
1786.00,0.0008
1785.00,0.0007
1784.00,0.0007
1783.00,0.0007
1782.00,0.0008
1781.00,0.0008
1780.00,0.0008
1779.00,0.0007
1778.00,0.0007
1777.00,0.0007
1776.00,0.0008
1775.00,0.0009
1774.00,0.0009
1773.00,0.0009
1772.00,0.0009
1771.00,0.0010
1770.00,0.0010
1769.00,0.0010
1768.00,0.0010
1767.00,0.0009
1766.00,0.0009
1765.00,0.0009
1764.00,0.0009
1763.00,0.0009
1762.00,0.0010
1761.00,0.0010
1760.00,0.0011
1759.00,0.0011
1758.00,0.0012
1757.00,0.0012
1756.00,0.0012
1755.00,0.0012
1754.00,0.0013
1753.00,0.0014
1752.00,0.0014
1751.00,0.0015
1750.00,0.0015
1749.00,0.0015
1748.00,0.0016
1747.00,0.0016
1746.00,0.0016
1745.00,0.0016
1744.00,0.0017
1743.00,0.0017
1742.00,0.0018
1741.00,0.0018
1740.00,0.0019
1739.00,0.0019
1738.00,0.0019
1737.00,0.0020
1736.00,0.0020
1735.00,0.0020
1734.00,0.0020
1733.00,0.0021
1732.00,0.0021
1731.00,0.0021
1730.00,0.0020
1729.00,0.0020
1728.00,0.0020
1727.00,0.0020
1726.00,0.0020
1725.00,0.0020
1724.00,0.0020
1723.00,0.0020
1722.00,0.0020
1721.00,0.0020
1720.00,0.0020
1719.00,0.0021
1718.00,0.0021
1717.00,0.0021
1716.00,0.0021
1715.00,0.0022
1714.00,0.0021
1713.00,0.0021
1712.00,0.0022
1711.00,0.0022
1710.00,0.0023
1709.00,0.0023
1708.00,0.0023
1707.00,0.0023
1706.00,0.0023
1705.00,0.0023
1704.00,0.0024
1703.00,0.0024
1702.00,0.0025
1701.00,0.0025
1700.00,0.0026
1699.00,0.0026
1698.00,0.0026
1697.00,0.0027
1696.00,0.0027
1695.00,0.0027
1694.00,0.0028
1693.00,0.0028
1692.00,0.0028
1691.00,0.0028
1690.00,0.0029
1689.00,0.0029
1688.00,0.0030
1687.00,0.0030
1686.00,0.0030
1685.00,0.0031
1684.00,0.0032
1683.00,0.0033
1682.00,0.0033
1681.00,0.0033
1680.00,0.0034
1679.00,0.0034
1678.00,0.0035
1677.00,0.0035
1676.00,0.0036
1675.00,0.0037
1674.00,0.0038
1673.00,0.0039
1672.00,0.0040
1671.00,0.0041
1670.00,0.0041
1669.00,0.0042
1668.00,0.0042
1667.00,0.0043
1666.00,0.0044
1665.00,0.0044
1664.00,0.0045
1663.00,0.0045
1662.00,0.0045
1661.00,0.0046
1660.00,0.0046
1659.00,0.0047
1658.00,0.0048
1657.00,0.0049
1656.00,0.0050
1655.00,0.0050
1654.00,0.0051
1653.00,0.0052
1652.00,0.0053
1651.00,0.0055
1650.00,0.0055
1649.00,0.0055
1648.00,0.0056
1647.00,0.0057
1646.00,0.0057
1645.00,0.0058
1644.00,0.0057
1643.00,0.0057
1642.00,0.0057
1641.00,0.0057
1640.00,0.0058
1639.00,0.0059
1638.00,0.0059
1637.00,0.0060
1636.00,0.0059
1635.00,0.0059
1634.00,0.0059
1633.00,0.0059
1632.00,0.0059
1631.00,0.0058
1630.00,0.0058
1629.00,0.0058
1628.00,0.0057
1627.00,0.0057
1626.00,0.0057
1625.00,0.0056
1624.00,0.0056
1623.00,0.0056
1622.00,0.0056
1621.00,0.0057
1620.00,0.0057
1619.00,0.0057
1618.00,0.0057
1617.00,0.0057
1616.00,0.0057
1615.00,0.0056
1614.00,0.0056
1613.00,0.0055
1612.00,0.0055
1611.00,0.0055
1610.00,0.0055
1609.00,0.0055
1608.00,0.0055
1607.00,0.0055
1606.00,0.0055
1605.00,0.0055
1604.00,0.0055
1603.00,0.0055
1602.00,0.0055
1601.00,0.0054
1600.00,0.0054
1599.00,0.0053
1598.00,0.0053
1597.00,0.0052
1596.00,0.0052
1595.00,0.0052
1594.00,0.0052
1593.00,0.0052
1592.00,0.0052
1591.00,0.0051
1590.00,0.0051
1589.00,0.0050
1588.00,0.0050
1587.00,0.0050
1586.00,0.0049
1585.00,0.0049
1584.00,0.0049
1583.00,0.0049
1582.00,0.0049
1581.00,0.0049
1580.00,0.0049
1579.00,0.0049
1578.00,0.0049
1577.00,0.0049
1576.00,0.0049
1575.00,0.0049
1574.00,0.0049
1573.00,0.0049
1572.00,0.0050
1571.00,0.0051
1570.00,0.0051
1569.00,0.0051
1568.00,0.0051
1567.00,0.0052
1566.00,0.0052
1565.00,0.0053
1564.00,0.0054
1563.00,0.0055
1562.00,0.0055
1561.00,0.0056
1560.00,0.0057
1559.00,0.0056
1558.00,0.0056
1557.00,0.0056
1556.00,0.0056
1555.00,0.0056
1554.00,0.0056
1553.00,0.0057
1552.00,0.0057
1551.00,0.0058
1550.00,0.0058
1549.00,0.0058
1548.00,0.0059
1547.00,0.0059
1546.00,0.0059
1545.00,0.0058
1544.00,0.0058
1543.00,0.0059
1542.00,0.0059
1541.00,0.0059
1540.00,0.0059
1539.00,0.0058
1538.00,0.0057
1537.00,0.0057
1536.00,0.0057
1535.00,0.0056
1534.00,0.0056
1533.00,0.0055
1532.00,0.0055
1531.00,0.0054
1530.00,0.0054
1529.00,0.0054
1528.00,0.0053
1527.00,0.0053
1526.00,0.0052
1525.00,0.0052
1524.00,0.0052
1523.00,0.0052
1522.00,0.0052
1521.00,0.0051
1520.00,0.0051
1519.00,0.0050
1518.00,0.0050
1517.00,0.0050
1516.00,0.0051
1515.00,0.0051
1514.00,0.0051
1513.00,0.0052
1512.00,0.0053
1511.00,0.0054
1510.00,0.0055
1509.00,0.0057
1508.00,0.0059
1507.00,0.0060
1506.00,0.0059
1505.00,0.0060
1504.00,0.0061
1503.00,0.0062
1502.00,0.0064
1501.00,0.0066
1500.00,0.0069
1499.00,0.0072
1498.00,0.0075
1497.00,0.0079
1496.00,0.0083
1495.00,0.0086
1494.00,0.0089
1493.00,0.0093
1492.00,0.0097
1491.00,0.0100
1490.00,0.0102
1489.00,0.0106
1488.00,0.0110
1487.00,0.0114
1486.00,0.0119
1485.00,0.0124
1484.00,0.0130
1483.00,0.0137
1482.00,0.0145
1481.00,0.0155
1480.00,0.0166
1479.00,0.0177
1478.00,0.0191
1477.00,0.0209
1476.00,0.0230
1475.00,0.0255
1474.00,0.0289
1473.00,0.0341
1472.00,0.0404
1471.00,0.0467
1470.00,0.0526
1469.00,0.0589
1468.00,0.0658
1467.00,0.0733
1466.00,0.0819
1465.00,0.0913
1464.00,0.0998
1463.00,0.1059
1462.00,0.1102
1461.00,0.1135
1460.00,0.1161
1459.00,0.1183
1458.00,0.1207
1457.00,0.1232
1456.00,0.1249
1455.00,0.1256
1454.00,0.1257
1453.00,0.1253
1452.00,0.1238
1451.00,0.1208
1450.00,0.1160
1449.00,0.1086
1448.00,0.0987
1447.00,0.0880
1446.00,0.0781
1445.00,0.0696
1444.00,0.0623
1443.00,0.0563
1442.00,0.0518
1441.00,0.0488
1440.00,0.0468
1439.00,0.0458
1438.00,0.0454
1437.00,0.0449
1436.00,0.0432
1435.00,0.0402
1434.00,0.0362
1433.00,0.0318
1432.00,0.0272
1431.00,0.0231
1430.00,0.0200
1429.00,0.0178
1428.00,0.0162
1427.00,0.0153
1426.00,0.0148
1425.00,0.0142
1424.00,0.0137
1423.00,0.0134
1422.00,0.0132
1421.00,0.0130
1420.00,0.0127
1419.00,0.0125
1418.00,0.0123
1417.00,0.0121
1416.00,0.0119
1415.00,0.0118
1414.00,0.0118
1413.00,0.0117
1412.00,0.0115
1411.00,0.0115
1410.00,0.0115
1409.00,0.0114
1408.00,0.0114
1407.00,0.0114
1406.00,0.0115
1405.00,0.0115
1404.00,0.0115
1403.00,0.0117
1402.00,0.0119
1401.00,0.0120
1400.00,0.0121
1399.00,0.0122
1398.00,0.0124
1397.00,0.0127
1396.00,0.0129
1395.00,0.0134
1394.00,0.0140
1393.00,0.0146
1392.00,0.0153
1391.00,0.0162
1390.00,0.0175
1389.00,0.0193
1388.00,0.0220
1387.00,0.0259
1386.00,0.0312
1385.00,0.0377
1384.00,0.0462
1383.00,0.0574
1382.00,0.0719
1381.00,0.0899
1380.00,0.1115
1379.00,0.1353
1378.00,0.1577
1377.00,0.1738
1376.00,0.1790
1375.00,0.1705
1374.00,0.1503
1373.00,0.1257
1372.00,0.1027
1371.00,0.0833
1370.00,0.0675
1369.00,0.0553
1368.00,0.0467
1367.00,0.0413
1366.00,0.0384
1365.00,0.0372
1364.00,0.0374
1363.00,0.0387
1362.00,0.0408
1361.00,0.0429
1360.00,0.0445
1359.00,0.0450
1358.00,0.0439
1357.00,0.0413
1356.00,0.0377
1355.00,0.0335
1354.00,0.0295
1353.00,0.0261
1352.00,0.0233
1351.00,0.0211
1350.00,0.0193
1349.00,0.0179
1348.00,0.0167
1347.00,0.0158
1346.00,0.0151
1345.00,0.0145
1344.00,0.0140
1343.00,0.0136
1342.00,0.0132
1341.00,0.0129
1340.00,0.0126
1339.00,0.0124
1338.00,0.0122
1337.00,0.0122
1336.00,0.0122
1335.00,0.0124
1334.00,0.0127
1333.00,0.0131
1332.00,0.0136
1331.00,0.0140
1330.00,0.0141
1329.00,0.0140
1328.00,0.0136
1327.00,0.0131
1326.00,0.0125
1325.00,0.0119
1324.00,0.0113
1323.00,0.0108
1322.00,0.0104
1321.00,0.0100
1320.00,0.0098
1319.00,0.0095
1318.00,0.0093
1317.00,0.0092
1316.00,0.0090
1315.00,0.0089
1314.00,0.0089
1313.00,0.0090
1312.00,0.0092
1311.00,0.0096
1310.00,0.0102
1309.00,0.0111
1308.00,0.0124
1307.00,0.0141
1306.00,0.0156
1305.00,0.0167
1304.00,0.0170
1303.00,0.0166
1302.00,0.0157
1301.00,0.0149
1300.00,0.0142
1299.00,0.0139
1298.00,0.0137
1297.00,0.0136
1296.00,0.0134
1295.00,0.0130
1294.00,0.0125
1293.00,0.0120
1292.00,0.0115
1291.00,0.0110
1290.00,0.0105
1289.00,0.0100
1288.00,0.0096
1287.00,0.0093
1286.00,0.0090
1285.00,0.0088
1284.00,0.0087
1283.00,0.0085
1282.00,0.0084
1281.00,0.0083
1280.00,0.0082
1279.00,0.0081
1278.00,0.0080
1277.00,0.0080
1276.00,0.0080
1275.00,0.0080
1274.00,0.0080
1273.00,0.0080
1272.00,0.0081
1271.00,0.0081
1270.00,0.0081
1269.00,0.0082
1268.00,0.0083
1267.00,0.0084
1266.00,0.0086
1265.00,0.0089
1264.00,0.0093
1263.00,0.0097
1262.00,0.0102
1261.00,0.0108
1260.00,0.0116
1259.00,0.0127
1258.00,0.0138
1257.00,0.0148
1256.00,0.0154
1255.00,0.0152
1254.00,0.0145
1253.00,0.0134
1252.00,0.0123
1251.00,0.0113
1250.00,0.0107
1249.00,0.0102
1248.00,0.0099
1247.00,0.0096
1246.00,0.0094
1245.00,0.0093
1244.00,0.0091
1243.00,0.0091
1242.00,0.0090
1241.00,0.0090
1240.00,0.0089
1239.00,0.0088
1238.00,0.0086
1237.00,0.0085
1236.00,0.0084
1235.00,0.0083
1234.00,0.0082
1233.00,0.0081
1232.00,0.0080
1231.00,0.0080
1230.00,0.0080
1229.00,0.0081
1228.00,0.0081
1227.00,0.0081
1226.00,0.0083
1225.00,0.0085
1224.00,0.0087
1223.00,0.0091
1222.00,0.0094
1221.00,0.0097
1220.00,0.0099
1219.00,0.0099
1218.00,0.0098
1217.00,0.0097
1216.00,0.0094
1215.00,0.0091
1214.00,0.0088
1213.00,0.0085
1212.00,0.0082
1211.00,0.0080
1210.00,0.0079
1209.00,0.0077
1208.00,0.0075
1207.00,0.0074
1206.00,0.0074
1205.00,0.0073
1204.00,0.0072
1203.00,0.0072
1202.00,0.0071
1201.00,0.0071
1200.00,0.0071
1199.00,0.0072
1198.00,0.0073
1197.00,0.0073
1196.00,0.0073
1195.00,0.0073
1194.00,0.0074
1193.00,0.0074
1192.00,0.0074
1191.00,0.0074
1190.00,0.0074
1189.00,0.0075
1188.00,0.0076
1187.00,0.0077
1186.00,0.0078
1185.00,0.0079
1184.00,0.0081
1183.00,0.0083
1182.00,0.0086
1181.00,0.0090
1180.00,0.0094
1179.00,0.0101
1178.00,0.0110
1177.00,0.0123
1176.00,0.0139
1175.00,0.0159
1174.00,0.0187
1173.00,0.0221
1172.00,0.0262
1171.00,0.0308
1170.00,0.0353
1169.00,0.0391
1168.00,0.0415
1167.00,0.0423
1166.00,0.0414
1165.00,0.0392
1164.00,0.0365
1163.00,0.0337
1162.00,0.0311
1161.00,0.0289
1160.00,0.0270
1159.00,0.0255
1158.00,0.0244
1157.00,0.0236
1156.00,0.0230
1155.00,0.0225
1154.00,0.0222
1153.00,0.0217
1152.00,0.0212
1151.00,0.0204
1150.00,0.0195
1149.00,0.0186
1148.00,0.0175
1147.00,0.0165
1146.00,0.0156
1145.00,0.0147
1144.00,0.0140
1143.00,0.0133
1142.00,0.0127
1141.00,0.0121
1140.00,0.0116
1139.00,0.0111
1138.00,0.0106
1137.00,0.0102
1136.00,0.0098
1135.00,0.0096
1134.00,0.0094
1133.00,0.0094
1132.00,0.0094
1131.00,0.0095
1130.00,0.0095
1129.00,0.0095
1128.00,0.0095
1127.00,0.0095
1126.00,0.0095
1125.00,0.0096
1124.00,0.0098
1123.00,0.0099
1122.00,0.0100
1121.00,0.0100
1120.00,0.0099
1119.00,0.0100
1118.00,0.0101
1117.00,0.0102
1116.00,0.0103
1115.00,0.0103
1114.00,0.0104
1113.00,0.0106
1112.00,0.0107
1111.00,0.0110
1110.00,0.0113
1109.00,0.0117
1108.00,0.0123
1107.00,0.0130
1106.00,0.0138
1105.00,0.0144
1104.00,0.0150
1103.00,0.0152
1102.00,0.0152
1101.00,0.0149
1100.00,0.0145
1099.00,0.0139
1098.00,0.0132
1097.00,0.0127
1096.00,0.0121
1095.00,0.0117
1094.00,0.0113
1093.00,0.0110
1092.00,0.0107
1091.00,0.0105
1090.00,0.0102
1089.00,0.0101
1088.00,0.0100
1087.00,0.0099
1086.00,0.0099
1085.00,0.0098
1084.00,0.0097
1083.00,0.0096
1082.00,0.0095
1081.00,0.0095
1080.00,0.0094
1079.00,0.0092
1078.00,0.0091
1077.00,0.0089
1076.00,0.0088
1075.00,0.0087
1074.00,0.0086
1073.00,0.0086
1072.00,0.0086
1071.00,0.0087
1070.00,0.0088
1069.00,0.0089
1068.00,0.0089
1067.00,0.0089
1066.00,0.0088
1065.00,0.0088
1064.00,0.0087
1063.00,0.0087
1062.00,0.0088
1061.00,0.0089
1060.00,0.0089
1059.00,0.0090
1058.00,0.0090
1057.00,0.0091
1056.00,0.0091
1055.00,0.0091
1054.00,0.0092
1053.00,0.0094
1052.00,0.0096
1051.00,0.0099
1050.00,0.0102
1049.00,0.0106
1048.00,0.0109
1047.00,0.0112
1046.00,0.0115
1045.00,0.0116
1044.00,0.0116
1043.00,0.0115
1042.00,0.0112
1041.00,0.0109
1040.00,0.0106
1039.00,0.0104
1038.00,0.0101
1037.00,0.0099
1036.00,0.0098
1035.00,0.0097
1034.00,0.0097
1033.00,0.0097
1032.00,0.0097
1031.00,0.0098
1030.00,0.0098
1029.00,0.0098
1028.00,0.0097
1027.00,0.0097
1026.00,0.0096
1025.00,0.0095
1024.00,0.0095
1023.00,0.0096
1022.00,0.0097
1021.00,0.0098
1020.00,0.0098
1019.00,0.0099
1018.00,0.0100
1017.00,0.0102
1016.00,0.0105
1015.00,0.0109
1014.00,0.0114
1013.00,0.0118
1012.00,0.0123
1011.00,0.0127
1010.00,0.0131
1009.00,0.0137
1008.00,0.0144
1007.00,0.0153
1006.00,0.0167
1005.00,0.0185
1004.00,0.0209
1003.00,0.0240
1002.00,0.0279
1001.00,0.0328
1000.00,0.0380
999.00,0.0426
998.00,0.0452
997.00,0.0448
996.00,0.0416
995.00,0.0364
994.00,0.0307
993.00,0.0255
992.00,0.0214
991.00,0.0184
990.00,0.0164
989.00,0.0150
988.00,0.0142
987.00,0.0136
986.00,0.0135
985.00,0.0136
984.00,0.0142
983.00,0.0151
982.00,0.0165
981.00,0.0184
980.00,0.0210
979.00,0.0244
978.00,0.0288
977.00,0.0341
976.00,0.0401
975.00,0.0462
974.00,0.0512
973.00,0.0538
972.00,0.0530
971.00,0.0488
970.00,0.0424
969.00,0.0353
968.00,0.0289
967.00,0.0238
966.00,0.0200
965.00,0.0173
964.00,0.0154
963.00,0.0139
962.00,0.0129
961.00,0.0120
960.00,0.0114
959.00,0.0108
958.00,0.0103
957.00,0.0099
956.00,0.0096
955.00,0.0093
954.00,0.0091
953.00,0.0090
952.00,0.0089
951.00,0.0088
950.00,0.0087
949.00,0.0086
948.00,0.0086
947.00,0.0087
946.00,0.0089
945.00,0.0092
944.00,0.0095
943.00,0.0098
942.00,0.0099
941.00,0.0099
940.00,0.0098
939.00,0.0095
938.00,0.0091
937.00,0.0087
936.00,0.0083
935.00,0.0079
934.00,0.0075
933.00,0.0072
932.00,0.0070
931.00,0.0068
930.00,0.0066
929.00,0.0065
928.00,0.0065
927.00,0.0065
926.00,0.0066
925.00,0.0067
924.00,0.0068
923.00,0.0069
922.00,0.0069
921.00,0.0069
920.00,0.0070
919.00,0.0071
918.00,0.0072
917.00,0.0073
916.00,0.0075
915.00,0.0075
914.00,0.0076
913.00,0.0076
912.00,0.0076
911.00,0.0077
910.00,0.0078
909.00,0.0079
908.00,0.0081
907.00,0.0085
906.00,0.0092
905.00,0.0102
904.00,0.0116
903.00,0.0134
902.00,0.0154
901.00,0.0171
900.00,0.0183
899.00,0.0185
898.00,0.0178
897.00,0.0163
896.00,0.0144
895.00,0.0126
894.00,0.0111
893.00,0.0100
892.00,0.0092
891.00,0.0087
890.00,0.0084
889.00,0.0082
888.00,0.0081
887.00,0.0080
886.00,0.0079
885.00,0.0077
884.00,0.0076
883.00,0.0075
882.00,0.0075
881.00,0.0074
880.00,0.0074
879.00,0.0073
878.00,0.0074
877.00,0.0075
876.00,0.0076
875.00,0.0077
874.00,0.0078
873.00,0.0078
872.00,0.0077
871.00,0.0075
870.00,0.0074
869.00,0.0073
868.00,0.0074
867.00,0.0075
866.00,0.0076
865.00,0.0078
864.00,0.0079
863.00,0.0080
862.00,0.0082
861.00,0.0084
860.00,0.0086
859.00,0.0089
858.00,0.0091
857.00,0.0094
856.00,0.0096
855.00,0.0098
854.00,0.0101
853.00,0.0104
852.00,0.0108
851.00,0.0113
850.00,0.0120
849.00,0.0130
848.00,0.0145
847.00,0.0166
846.00,0.0197
845.00,0.0243
844.00,0.0305
843.00,0.0376
842.00,0.0434
841.00,0.0455
840.00,0.0429
839.00,0.0369
838.00,0.0301
837.00,0.0244
836.00,0.0205
835.00,0.0179
834.00,0.0162
833.00,0.0151
832.00,0.0143
831.00,0.0136
830.00,0.0131
829.00,0.0126
828.00,0.0123
827.00,0.0121
826.00,0.0120
825.00,0.0118
824.00,0.0116
823.00,0.0115
822.00,0.0113
821.00,0.0113
820.00,0.0114
819.00,0.0115
818.00,0.0117
817.00,0.0122
816.00,0.0130
815.00,0.0140
814.00,0.0152
813.00,0.0167
812.00,0.0182
811.00,0.0196
810.00,0.0206
809.00,0.0211
808.00,0.0209
807.00,0.0201
806.00,0.0188
805.00,0.0173
804.00,0.0159
803.00,0.0146
802.00,0.0135
801.00,0.0126
800.00,0.0118
799.00,0.0112
798.00,0.0107
797.00,0.0103
796.00,0.0100
795.00,0.0097
794.00,0.0094
793.00,0.0091
792.00,0.0089
791.00,0.0088
790.00,0.0086
789.00,0.0083
788.00,0.0080
787.00,0.0077
786.00,0.0074
785.00,0.0072
784.00,0.0070
783.00,0.0068
782.00,0.0068
781.00,0.0068
780.00,0.0067
779.00,0.0067
778.00,0.0066
777.00,0.0066
776.00,0.0067
775.00,0.0068
774.00,0.0070
773.00,0.0073
772.00,0.0077
771.00,0.0081
770.00,0.0084
769.00,0.0087
768.00,0.0090
767.00,0.0090
766.00,0.0089
765.00,0.0086
764.00,0.0082
763.00,0.0079
762.00,0.0076
761.00,0.0072
760.00,0.0068
759.00,0.0065
758.00,0.0062
757.00,0.0062
756.00,0.0061
755.00,0.0061
754.00,0.0059
753.00,0.0058
752.00,0.0057
751.00,0.0056
750.00,0.0056
749.00,0.0055
748.00,0.0054
747.00,0.0055
746.00,0.0057
745.00,0.0060
744.00,0.0061
743.00,0.0062
742.00,0.0062
741.00,0.0063
740.00,0.0064
739.00,0.0065
738.00,0.0065
737.00,0.0065
736.00,0.0066
735.00,0.0069
734.00,0.0072
733.00,0.0074
732.00,0.0075
731.00,0.0074
730.00,0.0073
729.00,0.0071
728.00,0.0070
727.00,0.0070
726.00,0.0070
725.00,0.0071
724.00,0.0071
723.00,0.0071
722.00,0.0070
721.00,0.0069
720.00,0.0069
719.00,0.0068
718.00,0.0067
717.00,0.0065
716.00,0.0064
715.00,0.0063
714.00,0.0062
713.00,0.0062
712.00,0.0063
711.00,0.0064
710.00,0.0065
709.00,0.0066
708.00,0.0066
707.00,0.0065
706.00,0.0063
705.00,0.0062
704.00,0.0062
703.00,0.0063
702.00,0.0064
701.00,0.0064
700.00,0.0063
699.00,0.0061
698.00,0.0058
697.00,0.0056
696.00,0.0055
695.00,0.0055
694.00,0.0056
693.00,0.0057
692.00,0.0057
691.00,0.0057
690.00,0.0056
689.00,0.0056
688.00,0.0055
687.00,0.0054
686.00,0.0054
685.00,0.0054
684.00,0.0054
683.00,0.0055
682.00,0.0056
681.00,0.0057
680.00,0.0056
679.00,0.0056
678.00,0.0057
677.00,0.0057
676.00,0.0057
675.00,0.0058
674.00,0.0058
673.00,0.0059
672.00,0.0059
671.00,0.0059
670.00,0.0058
669.00,0.0056
668.00,0.0055
667.00,0.0056
666.00,0.0056
665.00,0.0057
664.00,0.0058
663.00,0.0059
662.00,0.0059
661.00,0.0058
660.00,0.0058
659.00,0.0058
658.00,0.0058
657.00,0.0058
656.00,0.0058
655.00,0.0058
654.00,0.0058
653.00,0.0058
652.00,0.0056
651.00,0.0054
650.00,0.0052
649.00,0.0052
648.00,0.0053
647.00,0.0055
646.00,0.0057
645.00,0.0058
644.00,0.0058
643.00,0.0057
642.00,0.0055
641.00,0.0053
640.00,0.0051
639.00,0.0050
638.00,0.0050
637.00,0.0053
636.00,0.0057
635.00,0.0060
634.00,0.0062
633.00,0.0063
632.00,0.0065
631.00,0.0065
630.00,0.0066
629.00,0.0065
628.00,0.0065
627.00,0.0065
626.00,0.0066
625.00,0.0067
624.00,0.0067
623.00,0.0066
622.00,0.0065
621.00,0.0064
620.00,0.0063
619.00,0.0062
618.00,0.0062
617.00,0.0063
616.00,0.0063
615.00,0.0063
614.00,0.0061
613.00,0.0060
612.00,0.0058
611.00,0.0058
610.00,0.0059
609.00,0.0059
608.00,0.0059
607.00,0.0059
606.00,0.0059
605.00,0.0059
604.00,0.0059
603.00,0.0060
602.00,0.0061
601.00,0.0062
600.00,0.0062
599.00,0.0063
598.00,0.0064
597.00,0.0064
596.00,0.0063
595.00,0.0063
594.00,0.0064
593.00,0.0063
592.00,0.0062
591.00,0.0060
590.00,0.0058
589.00,0.0058
588.00,0.0060
587.00,0.0062
586.00,0.0065
585.00,0.0066
584.00,0.0066
583.00,0.0065
582.00,0.0065
581.00,0.0067
580.00,0.0070
579.00,0.0072
578.00,0.0074
577.00,0.0074
576.00,0.0074
575.00,0.0072
574.00,0.0068
573.00,0.0064
572.00,0.0062
571.00,0.0063
570.00,0.0065
569.00,0.0067
568.00,0.0068
567.00,0.0069
566.00,0.0069
565.00,0.0069
564.00,0.0069
563.00,0.0070
562.00,0.0071
561.00,0.0075
560.00,0.0079
559.00,0.0083
558.00,0.0086
557.00,0.0085
556.00,0.0082
555.00,0.0079
554.00,0.0077
553.00,0.0077
552.00,0.0077
551.00,0.0074
550.00,0.0069
549.00,0.0063
548.00,0.0060
547.00,0.0062
546.00,0.0066
545.00,0.0071
544.00,0.0076
543.00,0.0080
542.00,0.0082
541.00,0.0079
540.00,0.0073
539.00,0.0069
538.00,0.0069
537.00,0.0073
536.00,0.0076
535.00,0.0078
534.00,0.0078
533.00,0.0077
532.00,0.0078
531.00,0.0080
530.00,0.0085
529.00,0.0089
528.00,0.0091
527.00,0.0090
526.00,0.0085
525.00,0.0079
524.00,0.0075
523.00,0.0077
522.00,0.0084
521.00,0.0089
520.00,0.0089
519.00,0.0083
518.00,0.0075
517.00,0.0070
516.00,0.0070
515.00,0.0074
514.00,0.0077
513.00,0.0076
512.00,0.0072
511.00,0.0071
510.00,0.0075
509.00,0.0082
508.00,0.0088
507.00,0.0089
506.00,0.0088
505.00,0.0087
504.00,0.0086
503.00,0.0083
502.00,0.0075
501.00,0.0063
500.00,0.0053
499.00,0.0052
498.00,0.0062
497.00,0.0076
496.00,0.0085
495.00,0.0084
494.00,0.0078
493.00,0.0072
492.00,0.0068
491.00,0.0066
490.00,0.0063
489.00,0.0061
488.00,0.0063
487.00,0.0066
486.00,0.0067
485.00,0.0065
484.00,0.0061
483.00,0.0058
482.00,0.0059
481.00,0.0062
480.00,0.0066
479.00,0.0069
478.00,0.0072
477.00,0.0073
476.00,0.0073
475.00,0.0071
474.00,0.0071
473.00,0.0072
472.00,0.0074
471.00,0.0078
470.00,0.0082
469.00,0.0089
468.00,0.0096
467.00,0.0101
466.00,0.0101
465.00,0.0098
464.00,0.0095
463.00,0.0098
462.00,0.0109
461.00,0.0125
460.00,0.0141
459.00,0.0148
458.00,0.0147
457.00,0.0144
456.00,0.0147
455.00,0.0155
454.00,0.0159
453.00,0.0156
452.00,0.0143
451.00,0.0125
450.00,0.0108
