Created as New Dataset,Sample 197 By Administrator Date Tuesday, September 09 2025
cm-1,A
4000.00,0.0003
3999.00,0.0002
3998.00,0.0002
3997.00,0.0002
3996.00,0.0002
3995.00,0.0002
3994.00,0.0002
3993.00,0.0002
3992.00,0.0002
3991.00,0.0002
3990.00,0.0001
3989.00,0.0001
3988.00,0.0001
3987.00,0.0001
3986.00,0.0001
3985.00,0.0001
3984.00,0.0001
3983.00,0.0001
3982.00,0.0001
3981.00,0.0001
3980.00,0.0001
3979.00,0.0000
3978.00,0.0000
3977.00,0.0000
3976.00,0.0001
3975.00,0.0001
3974.00,0.0001
3973.00,0.0001
3972.00,0.0001
3971.00,0.0001
3970.00,0.0001
3969.00,0.0001
3968.00,0.0001
3967.00,0.0001
3966.00,0.0001
3965.00,0.0001
3964.00,0.0001
3963.00,0.0001
3962.00,0.0001
3961.00,0.0001
3960.00,0.0000
3959.00,0.0000
3958.00,0.0000
3957.00,0.0000
3956.00,0.0000
3955.00,0.0000
3954.00,0.0000
3953.00,0.0001
3952.00,0.0001
3951.00,0.0001
3950.00,0.0001
3949.00,0.0001
3948.00,0.0001
3947.00,0.0000
3946.00,0.0000
3945.00,0.0000
3944.00,0.0000
3943.00,0.0000
3942.00,0.0000
3941.00,0.0001
3940.00,0.0001
3939.00,0.0001
3938.00,0.0001
3937.00,0.0001
3936.00,0.0001
3935.00,0.0001
3934.00,0.0001
3933.00,0.0001
3932.00,0.0001
3931.00,0.0001
3930.00,0.0001
3929.00,0.0001
3928.00,0.0001
3927.00,0.0001
3926.00,0.0001
3925.00,0.0001
3924.00,0.0001
3923.00,0.0001
3922.00,0.0000
3921.00,0.0000
3920.00,0.0000
3919.00,0.0001
3918.00,0.0001
3917.00,0.0001
3916.00,0.0001
3915.00,0.0001
3914.00,0.0001
3913.00,0.0001
3912.00,0.0001
3911.00,0.0001
3910.00,0.0001
3909.00,0.0001
3908.00,0.0001
3907.00,0.0001
3906.00,0.0001
3905.00,0.0001
3904.00,0.0001
3903.00,0.0001
3902.00,0.0002
3901.00,0.0002
3900.00,0.0001
3899.00,0.0001
3898.00,0.0001
3897.00,0.0001
3896.00,0.0001
3895.00,0.0001
3894.00,0.0001
3893.00,0.0001
3892.00,0.0001
3891.00,0.0001
3890.00,0.0001
3889.00,0.0001
3888.00,0.0001
3887.00,0.0002
3886.00,0.0002
3885.00,0.0002
3884.00,0.0002
3883.00,0.0001
3882.00,0.0001
3881.00,0.0000
3880.00,0.0000
3879.00,0.0001
3878.00,0.0001
3877.00,0.0001
3876.00,0.0001
3875.00,0.0001
3874.00,0.0001
3873.00,0.0002
3872.00,0.0002
3871.00,0.0002
3870.00,0.0002
3869.00,0.0001
3868.00,0.0001
3867.00,0.0001
3866.00,0.0001
3865.00,0.0001
3864.00,0.0001
3863.00,0.0001
3862.00,0.0001
3861.00,0.0002
3860.00,0.0002
3859.00,0.0002
3858.00,0.0002
3857.00,0.0001
3856.00,0.0001
3855.00,0.0001
3854.00,0.0001
3853.00,0.0000
3852.00,0.0000
3851.00,0.0000
3850.00,-0.0000
3849.00,-0.0000
3848.00,-0.0000
3847.00,0.0000
3846.00,0.0001
3845.00,0.0001
3844.00,0.0001
3843.00,0.0002
3842.00,0.0002
3841.00,0.0002
3840.00,0.0002
3839.00,0.0001
3838.00,0.0001
3837.00,0.0001
3836.00,0.0001
3835.00,0.0001
3834.00,0.0001
3833.00,0.0001
3832.00,0.0000
3831.00,0.0000
3830.00,0.0000
3829.00,0.0001
3828.00,0.0001
3827.00,0.0001
3826.00,0.0001
3825.00,0.0002
3824.00,0.0002
3823.00,0.0002
3822.00,0.0002
3821.00,0.0001
3820.00,0.0001
3819.00,0.0001
3818.00,0.0001
3817.00,0.0001
3816.00,0.0000
3815.00,0.0001
3814.00,0.0001
3813.00,0.0001
3812.00,0.0001
3811.00,0.0001
3810.00,0.0001
3809.00,0.0001
3808.00,0.0001
3807.00,0.0000
3806.00,0.0000
3805.00,0.0000
3804.00,0.0000
3803.00,-0.0000
3802.00,-0.0000
3801.00,0.0000
3800.00,0.0001
3799.00,0.0001
3798.00,0.0001
3797.00,0.0001
3796.00,0.0001
3795.00,0.0001
3794.00,0.0001
3793.00,0.0001
3792.00,0.0001
3791.00,0.0001
3790.00,0.0000
3789.00,0.0000
3788.00,0.0000
3787.00,0.0000
3786.00,0.0000
3785.00,0.0000
3784.00,0.0000
3783.00,0.0000
3782.00,0.0001
3781.00,0.0001
3780.00,0.0001
3779.00,0.0001
3778.00,0.0001
3777.00,0.0002
3776.00,0.0002
3775.00,0.0002
3774.00,0.0002
3773.00,0.0001
3772.00,0.0001
3771.00,0.0001
3770.00,0.0000
3769.00,0.0001
3768.00,0.0001
3767.00,0.0001
3766.00,0.0001
3765.00,0.0001
3764.00,0.0002
3763.00,0.0002
3762.00,0.0002
3761.00,0.0002
3760.00,0.0003
3759.00,0.0003
3758.00,0.0003
3757.00,0.0003
3756.00,0.0003
3755.00,0.0003
3754.00,0.0003
3753.00,0.0003
3752.00,0.0002
3751.00,0.0001
3750.00,0.0001
3749.00,0.0000
3748.00,0.0000
3747.00,-0.0000
3746.00,-0.0001
3745.00,-0.0001
3744.00,-0.0000
3743.00,0.0000
3742.00,0.0001
3741.00,0.0001
3740.00,0.0001
3739.00,0.0001
3738.00,0.0002
3737.00,0.0002
3736.00,0.0002
3735.00,0.0001
3734.00,0.0001
3733.00,0.0001
3732.00,0.0001
3731.00,0.0001
3730.00,0.0001
3729.00,0.0001
3728.00,0.0000
3727.00,0.0000
3726.00,0.0000
3725.00,0.0001
3724.00,0.0002
3723.00,0.0002
3722.00,0.0002
3721.00,0.0001
3720.00,0.0001
3719.00,0.0000
3718.00,0.0000
3717.00,0.0000
3716.00,0.0001
3715.00,0.0001
3714.00,0.0001
3713.00,0.0001
3712.00,-0.0000
3711.00,-0.0001
3710.00,-0.0001
3709.00,-0.0000
3708.00,0.0000
3707.00,0.0001
3706.00,0.0001
3705.00,0.0001
3704.00,0.0000
3703.00,0.0001
3702.00,0.0001
3701.00,0.0000
3700.00,0.0000
3699.00,0.0000
3698.00,0.0000
3697.00,0.0000
3696.00,0.0001
3695.00,0.0001
3694.00,0.0001
3693.00,0.0002
3692.00,0.0002
3691.00,0.0002
3690.00,0.0001
3689.00,0.0001
3688.00,0.0000
3687.00,0.0000
3686.00,0.0001
3685.00,0.0001
3684.00,0.0001
3683.00,0.0001
3682.00,0.0001
3681.00,0.0001
3680.00,0.0001
3679.00,0.0001
3678.00,0.0001
3677.00,0.0002
3676.00,0.0002
3675.00,0.0002
3674.00,0.0002
3673.00,0.0002
3672.00,0.0001
3671.00,0.0001
3670.00,0.0001
3669.00,0.0000
3668.00,-0.0000
3667.00,-0.0000
3666.00,-0.0001
3665.00,-0.0000
3664.00,-0.0000
3663.00,-0.0000
3662.00,-0.0000
3661.00,-0.0000
3660.00,-0.0000
3659.00,-0.0000
3658.00,-0.0000
3657.00,-0.0000
3656.00,-0.0000
3655.00,0.0000
3654.00,0.0001
3653.00,0.0001
3652.00,0.0001
3651.00,0.0002
3650.00,0.0002
3649.00,0.0003
3648.00,0.0003
3647.00,0.0003
3646.00,0.0003
3645.00,0.0002
3644.00,0.0001
3643.00,0.0001
3642.00,0.0001
3641.00,0.0002
3640.00,0.0002
3639.00,0.0002
3638.00,0.0002
3637.00,0.0002
3636.00,0.0002
3635.00,0.0002
3634.00,0.0002
3633.00,0.0003
3632.00,0.0003
3631.00,0.0004
3630.00,0.0004
3629.00,0.0004
3628.00,0.0004
3627.00,0.0004
3626.00,0.0003
3625.00,0.0003
3624.00,0.0003
3623.00,0.0003
3622.00,0.0003
3621.00,0.0004
3620.00,0.0005
3619.00,0.0005
3618.00,0.0006
3617.00,0.0006
3616.00,0.0006
3615.00,0.0005
3614.00,0.0005
3613.00,0.0005
3612.00,0.0005
3611.00,0.0005
3610.00,0.0005
3609.00,0.0005
3608.00,0.0005
3607.00,0.0005
3606.00,0.0006
3605.00,0.0006
3604.00,0.0006
3603.00,0.0006
3602.00,0.0006
3601.00,0.0006
3600.00,0.0006
3599.00,0.0006
3598.00,0.0006
3597.00,0.0006
3596.00,0.0006
3595.00,0.0007
3594.00,0.0007
3593.00,0.0008
3592.00,0.0008
3591.00,0.0008
3590.00,0.0008
3589.00,0.0008
3588.00,0.0009
3587.00,0.0009
3586.00,0.0009
3585.00,0.0009
3584.00,0.0009
3583.00,0.0009
3582.00,0.0009
3581.00,0.0009
3580.00,0.0010
3579.00,0.0010
3578.00,0.0011
3577.00,0.0011
3576.00,0.0011
3575.00,0.0011
3574.00,0.0011
3573.00,0.0011
3572.00,0.0011
3571.00,0.0012
3570.00,0.0012
3569.00,0.0013
3568.00,0.0013
3567.00,0.0014
3566.00,0.0014
3565.00,0.0014
3564.00,0.0014
3563.00,0.0014
3562.00,0.0014
3561.00,0.0014
3560.00,0.0015
3559.00,0.0015
3558.00,0.0015
3557.00,0.0016
3556.00,0.0016
3555.00,0.0016
3554.00,0.0016
3553.00,0.0017
3552.00,0.0017
3551.00,0.0017
3550.00,0.0017
3549.00,0.0018
3548.00,0.0018
3547.00,0.0018
3546.00,0.0019
3545.00,0.0019
3544.00,0.0019
3543.00,0.0019
3542.00,0.0019
3541.00,0.0019
3540.00,0.0019
3539.00,0.0019
3538.00,0.0019
3537.00,0.0020
3536.00,0.0020
3535.00,0.0020
3534.00,0.0020
3533.00,0.0021
3532.00,0.0021
3531.00,0.0022
3530.00,0.0022
3529.00,0.0023
3528.00,0.0023
3527.00,0.0023
3526.00,0.0023
3525.00,0.0023
3524.00,0.0024
3523.00,0.0024
3522.00,0.0024
3521.00,0.0024
3520.00,0.0024
3519.00,0.0023
3518.00,0.0024
3517.00,0.0024
3516.00,0.0024
3515.00,0.0024
3514.00,0.0025
3513.00,0.0025
3512.00,0.0026
3511.00,0.0027
3510.00,0.0027
3509.00,0.0027
3508.00,0.0027
3507.00,0.0027
3506.00,0.0027
3505.00,0.0027
3504.00,0.0028
3503.00,0.0028
3502.00,0.0028
3501.00,0.0029
3500.00,0.0029
3499.00,0.0029
3498.00,0.0030
3497.00,0.0030
3496.00,0.0030
3495.00,0.0030
3494.00,0.0031
3493.00,0.0031
3492.00,0.0031
3491.00,0.0031
3490.00,0.0031
3489.00,0.0031
3488.00,0.0031
3487.00,0.0031
3486.00,0.0032
3485.00,0.0032
3484.00,0.0033
3483.00,0.0033
3482.00,0.0034
3481.00,0.0034
3480.00,0.0034
3479.00,0.0033
3478.00,0.0034
3477.00,0.0034
3476.00,0.0035
3475.00,0.0035
3474.00,0.0036
3473.00,0.0036
3472.00,0.0036
3471.00,0.0036
3470.00,0.0036
3469.00,0.0036
3468.00,0.0036
3467.00,0.0036
3466.00,0.0036
3465.00,0.0036
3464.00,0.0036
3463.00,0.0037
3462.00,0.0037
3461.00,0.0038
3460.00,0.0039
3459.00,0.0039
3458.00,0.0039
3457.00,0.0039
3456.00,0.0039
3455.00,0.0039
3454.00,0.0040
3453.00,0.0040
3452.00,0.0040
3451.00,0.0040
3450.00,0.0041
3449.00,0.0041
3448.00,0.0041
3447.00,0.0042
3446.00,0.0042
3445.00,0.0042
3444.00,0.0042
3443.00,0.0042
3442.00,0.0043
3441.00,0.0043
3440.00,0.0043
3439.00,0.0043
3438.00,0.0043
3437.00,0.0043
3436.00,0.0044
3435.00,0.0044
3434.00,0.0045
3433.00,0.0045
3432.00,0.0045
3431.00,0.0045
3430.00,0.0045
3429.00,0.0045
3428.00,0.0045
3427.00,0.0046
3426.00,0.0046
3425.00,0.0046
3424.00,0.0047
3423.00,0.0047
3422.00,0.0047
3421.00,0.0048
3420.00,0.0048
3419.00,0.0048
3418.00,0.0049
3417.00,0.0050
3416.00,0.0050
3415.00,0.0050
3414.00,0.0051
3413.00,0.0051
3412.00,0.0051
3411.00,0.0051
3410.00,0.0051
3409.00,0.0051
3408.00,0.0052
3407.00,0.0052
3406.00,0.0052
3405.00,0.0052
3404.00,0.0053
3403.00,0.0053
3402.00,0.0053
3401.00,0.0054
3400.00,0.0054
3399.00,0.0055
3398.00,0.0055
3397.00,0.0055
3396.00,0.0055
3395.00,0.0054
3394.00,0.0054
3393.00,0.0054
3392.00,0.0054
3391.00,0.0054
3390.00,0.0054
3389.00,0.0054
3388.00,0.0054
3387.00,0.0055
3386.00,0.0055
3385.00,0.0055
3384.00,0.0055
3383.00,0.0055
3382.00,0.0055
3381.00,0.0055
3380.00,0.0055
3379.00,0.0055
3378.00,0.0055
3377.00,0.0055
3376.00,0.0055
3375.00,0.0055
3374.00,0.0055
3373.00,0.0055
3372.00,0.0055
3371.00,0.0055
3370.00,0.0055
3369.00,0.0055
3368.00,0.0055
3367.00,0.0056
3366.00,0.0056
3365.00,0.0056
3364.00,0.0056
3363.00,0.0055
3362.00,0.0055
3361.00,0.0055
3360.00,0.0055
3359.00,0.0055
3358.00,0.0055
3357.00,0.0055
3356.00,0.0056
3355.00,0.0056
3354.00,0.0057
3353.00,0.0057
3352.00,0.0057
3351.00,0.0057
3350.00,0.0057
3349.00,0.0057
3348.00,0.0057
3347.00,0.0057
3346.00,0.0057
3345.00,0.0057
3344.00,0.0057
3343.00,0.0057
3342.00,0.0057
3341.00,0.0057
3340.00,0.0057
3339.00,0.0057
3338.00,0.0057
3337.00,0.0057
3336.00,0.0056
3335.00,0.0056
3334.00,0.0057
3333.00,0.0057
3332.00,0.0056
3331.00,0.0056
3330.00,0.0056
3329.00,0.0056
3328.00,0.0056
3327.00,0.0056
3326.00,0.0056
3325.00,0.0056
3324.00,0.0056
3323.00,0.0056
3322.00,0.0056
3321.00,0.0056
3320.00,0.0055
3319.00,0.0055
3318.00,0.0055
3317.00,0.0055
3316.00,0.0055
3315.00,0.0055
3314.00,0.0055
3313.00,0.0055
3312.00,0.0055
3311.00,0.0055
3310.00,0.0055
3309.00,0.0055
3308.00,0.0055
3307.00,0.0055
3306.00,0.0055
3305.00,0.0055
3304.00,0.0055
3303.00,0.0055
3302.00,0.0055
3301.00,0.0055
3300.00,0.0055
3299.00,0.0055
3298.00,0.0055
3297.00,0.0055
3296.00,0.0055
3295.00,0.0054
3294.00,0.0054
3293.00,0.0054
3292.00,0.0054
3291.00,0.0054
3290.00,0.0054
3289.00,0.0054
3288.00,0.0053
3287.00,0.0053
3286.00,0.0052
3285.00,0.0052
3284.00,0.0052
3283.00,0.0052
3282.00,0.0052
3281.00,0.0052
3280.00,0.0052
3279.00,0.0051
3278.00,0.0051
3277.00,0.0052
3276.00,0.0052
3275.00,0.0052
3274.00,0.0052
3273.00,0.0051
3272.00,0.0051
3271.00,0.0050
3270.00,0.0050
3269.00,0.0050
3268.00,0.0050
3267.00,0.0050
3266.00,0.0050
3265.00,0.0050
3264.00,0.0049
3263.00,0.0049
3262.00,0.0049
3261.00,0.0049
3260.00,0.0049
3259.00,0.0049
3258.00,0.0048
3257.00,0.0048
3256.00,0.0048
3255.00,0.0047
3254.00,0.0047
3253.00,0.0047
3252.00,0.0047
3251.00,0.0047
3250.00,0.0047
3249.00,0.0047
3248.00,0.0047
3247.00,0.0047
3246.00,0.0046
3245.00,0.0046
3244.00,0.0046
3243.00,0.0046
3242.00,0.0046
3241.00,0.0046
3240.00,0.0046
3239.00,0.0046
3238.00,0.0046
3237.00,0.0046
3236.00,0.0046
3235.00,0.0046
3234.00,0.0047
3233.00,0.0047
3232.00,0.0047
3231.00,0.0047
3230.00,0.0047
3229.00,0.0047
3228.00,0.0047
3227.00,0.0047
3226.00,0.0047
3225.00,0.0047
3224.00,0.0047
3223.00,0.0047
3222.00,0.0048
3221.00,0.0048
3220.00,0.0048
3219.00,0.0049
3218.00,0.0049
3217.00,0.0049
3216.00,0.0049
3215.00,0.0049
3214.00,0.0049
3213.00,0.0050
3212.00,0.0050
3211.00,0.0050
3210.00,0.0051
3209.00,0.0051
3208.00,0.0051
3207.00,0.0051
3206.00,0.0051
3205.00,0.0051
3204.00,0.0051
3203.00,0.0051
3202.00,0.0052
3201.00,0.0052
3200.00,0.0052
3199.00,0.0052
3198.00,0.0052
3197.00,0.0052
3196.00,0.0052
3195.00,0.0052
3194.00,0.0052
3193.00,0.0052
3192.00,0.0052
3191.00,0.0052
3190.00,0.0051
3189.00,0.0051
3188.00,0.0050
3187.00,0.0050
3186.00,0.0050
3185.00,0.0049
3184.00,0.0049
3183.00,0.0049
3182.00,0.0049
3181.00,0.0049
3180.00,0.0048
3179.00,0.0048
3178.00,0.0047
3177.00,0.0047
3176.00,0.0046
3175.00,0.0046
3174.00,0.0046
3173.00,0.0046
3172.00,0.0045
3171.00,0.0045
3170.00,0.0045
3169.00,0.0045
3168.00,0.0045
3167.00,0.0045
3166.00,0.0045
3165.00,0.0045
3164.00,0.0045
3163.00,0.0044
3162.00,0.0044
3161.00,0.0044
3160.00,0.0043
3159.00,0.0043
3158.00,0.0043
3157.00,0.0043
3156.00,0.0043
3155.00,0.0043
3154.00,0.0043
3153.00,0.0043
3152.00,0.0043
3151.00,0.0043
3150.00,0.0043
3149.00,0.0043
3148.00,0.0043
3147.00,0.0043
3146.00,0.0043
3145.00,0.0043
3144.00,0.0043
3143.00,0.0042
3142.00,0.0042
3141.00,0.0042
3140.00,0.0041
3139.00,0.0041
3138.00,0.0041
3137.00,0.0041
3136.00,0.0041
3135.00,0.0040
3134.00,0.0040
3133.00,0.0039
3132.00,0.0039
3131.00,0.0039
3130.00,0.0039
3129.00,0.0039
3128.00,0.0039
3127.00,0.0039
3126.00,0.0039
3125.00,0.0038
3124.00,0.0038
3123.00,0.0038
3122.00,0.0037
3121.00,0.0037
3120.00,0.0036
3119.00,0.0036
3118.00,0.0036
3117.00,0.0036
3116.00,0.0036
3115.00,0.0035
3114.00,0.0035
3113.00,0.0035
3112.00,0.0034
3111.00,0.0034
3110.00,0.0034
3109.00,0.0034
3108.00,0.0034
3107.00,0.0033
3106.00,0.0033
3105.00,0.0033
3104.00,0.0032
3103.00,0.0032
3102.00,0.0033
3101.00,0.0033
3100.00,0.0033
3099.00,0.0033
3098.00,0.0033
3097.00,0.0033
3096.00,0.0033
3095.00,0.0032
3094.00,0.0032
3093.00,0.0032
3092.00,0.0031
3091.00,0.0031
3090.00,0.0031
3089.00,0.0031
3088.00,0.0030
3087.00,0.0030
3086.00,0.0030
3085.00,0.0030
3084.00,0.0030
3083.00,0.0030
3082.00,0.0030
3081.00,0.0030
3080.00,0.0030
3079.00,0.0030
3078.00,0.0030
3077.00,0.0030
3076.00,0.0030
3075.00,0.0031
3074.00,0.0031
3073.00,0.0031
3072.00,0.0031
3071.00,0.0031
3070.00,0.0031
3069.00,0.0032
3068.00,0.0032
3067.00,0.0031
3066.00,0.0031
3065.00,0.0031
3064.00,0.0032
3063.00,0.0032
3062.00,0.0033
3061.00,0.0032
3060.00,0.0032
3059.00,0.0032
3058.00,0.0032
3057.00,0.0032
3056.00,0.0032
3055.00,0.0032
3054.00,0.0032
3053.00,0.0032
3052.00,0.0033
3051.00,0.0033
3050.00,0.0034
3049.00,0.0034
3048.00,0.0034
3047.00,0.0034
3046.00,0.0034
3045.00,0.0034
3044.00,0.0035
3043.00,0.0035
3042.00,0.0035
3041.00,0.0035
3040.00,0.0036
3039.00,0.0036
3038.00,0.0037
3037.00,0.0037
3036.00,0.0037
3035.00,0.0037
3034.00,0.0037
3033.00,0.0038
3032.00,0.0038
3031.00,0.0039
3030.00,0.0039
3029.00,0.0040
3028.00,0.0041
3027.00,0.0041
3026.00,0.0041
3025.00,0.0042
3024.00,0.0042
3023.00,0.0043
3022.00,0.0043
3021.00,0.0044
3020.00,0.0045
3019.00,0.0046
3018.00,0.0046
3017.00,0.0047
3016.00,0.0048
3015.00,0.0050
3014.00,0.0051
3013.00,0.0053
3012.00,0.0054
3011.00,0.0055
3010.00,0.0056
3009.00,0.0057
3008.00,0.0058
3007.00,0.0059
3006.00,0.0061
3005.00,0.0063
3004.00,0.0065
3003.00,0.0067
3002.00,0.0070
3001.00,0.0072
3000.00,0.0074
2999.00,0.0077
2998.00,0.0080
2997.00,0.0083
2996.00,0.0087
2995.00,0.0091
2994.00,0.0096
2993.00,0.0100
2992.00,0.0106
2991.00,0.0112
2990.00,0.0118
2989.00,0.0126
2988.00,0.0134
2987.00,0.0142
2986.00,0.0152
2985.00,0.0163
2984.00,0.0176
2983.00,0.0190
2982.00,0.0205
2981.00,0.0223
2980.00,0.0243
2979.00,0.0266
2978.00,0.0291
2977.00,0.0321
2976.00,0.0354
2975.00,0.0393
2974.00,0.0436
2973.00,0.0486
2972.00,0.0541
2971.00,0.0604
2970.00,0.0675
2969.00,0.0752
2968.00,0.0838
2967.00,0.0930
2966.00,0.1028
2965.00,0.1129
2964.00,0.1230
2963.00,0.1326
2962.00,0.1412
2961.00,0.1485
2960.00,0.1541
2959.00,0.1583
2958.00,0.1617
2957.00,0.1648
2956.00,0.1683
2955.00,0.1727
2954.00,0.1780
2953.00,0.1839
2952.00,0.1896
2951.00,0.1938
2950.00,0.1955
2949.00,0.1938
2948.00,0.1882
2947.00,0.1789
2946.00,0.1670
2945.00,0.1536
2944.00,0.1404
2943.00,0.1285
2942.00,0.1189
2941.00,0.1117
2940.00,0.1071
2939.00,0.1049
2938.00,0.1048
2937.00,0.1065
2936.00,0.1100
2935.00,0.1150
2934.00,0.1214
2933.00,0.1291
2932.00,0.1379
2931.00,0.1476
2930.00,0.1579
2929.00,0.1685
2928.00,0.1790
2927.00,0.1893
2926.00,0.1991
2925.00,0.2084
2924.00,0.2174
2923.00,0.2261
2922.00,0.2345
2921.00,0.2426
2920.00,0.2497
2919.00,0.2551
2918.00,0.2580
2917.00,0.2578
2916.00,0.2545
2915.00,0.2484
2914.00,0.2402
2913.00,0.2311
2912.00,0.2218
2911.00,0.2131
2910.00,0.2051
2909.00,0.1979
2908.00,0.1912
2907.00,0.1847
2906.00,0.1781
2905.00,0.1715
2904.00,0.1646
2903.00,0.1577
2902.00,0.1507
2901.00,0.1437
2900.00,0.1370
2899.00,0.1307
2898.00,0.1248
2897.00,0.1195
2896.00,0.1148
2895.00,0.1108
2894.00,0.1075
2893.00,0.1049
2892.00,0.1030
2891.00,0.1018
2890.00,0.1012
2889.00,0.1010
2888.00,0.1013
2887.00,0.1019
2886.00,0.1028
2885.00,0.1041
2884.00,0.1058
2883.00,0.1079
2882.00,0.1104
2881.00,0.1131
2880.00,0.1157
2879.00,0.1179
2878.00,0.1193
2877.00,0.1198
2876.00,0.1194
2875.00,0.1186
2874.00,0.1178
2873.00,0.1176
2872.00,0.1181
2871.00,0.1194
2870.00,0.1213
2869.00,0.1233
2868.00,0.1247
2867.00,0.1247
2866.00,0.1224
2865.00,0.1176
2864.00,0.1104
2863.00,0.1018
2862.00,0.0927
2861.00,0.0840
2860.00,0.0765
2859.00,0.0705
2858.00,0.0659
2857.00,0.0627
2856.00,0.0605
2855.00,0.0592
2854.00,0.0587
2853.00,0.0588
2852.00,0.0594
2851.00,0.0607
2850.00,0.0625
2849.00,0.0650
2848.00,0.0683
2847.00,0.0725
2846.00,0.0777
2845.00,0.0838
2844.00,0.0906
2843.00,0.0981
2842.00,0.1056
2841.00,0.1127
2840.00,0.1186
2839.00,0.1222
2838.00,0.1229
2837.00,0.1202
2836.00,0.1141
2835.00,0.1052
2834.00,0.0946
2833.00,0.0835
2832.00,0.0730
2831.00,0.0636
2830.00,0.0556
2829.00,0.0491
2828.00,0.0439
2827.00,0.0396
2826.00,0.0362
2825.00,0.0333
2824.00,0.0310
2823.00,0.0290
2822.00,0.0273
2821.00,0.0258
2820.00,0.0245
2819.00,0.0233
2818.00,0.0223
2817.00,0.0215
2816.00,0.0207
2815.00,0.0201
2814.00,0.0195
2813.00,0.0189
2812.00,0.0184
2811.00,0.0179
2810.00,0.0173
2809.00,0.0168
2808.00,0.0162
2807.00,0.0155
2806.00,0.0149
2805.00,0.0142
2804.00,0.0136
2803.00,0.0130
2802.00,0.0125
2801.00,0.0120
2800.00,0.0117
2799.00,0.0114
2798.00,0.0111
2797.00,0.0108
2796.00,0.0106
2795.00,0.0103
2794.00,0.0100
2793.00,0.0097
2792.00,0.0094
2791.00,0.0091
2790.00,0.0088
2789.00,0.0085
2788.00,0.0082
2787.00,0.0079
2786.00,0.0077
2785.00,0.0074
2784.00,0.0072
2783.00,0.0069
2782.00,0.0067
2781.00,0.0065
2780.00,0.0063
2779.00,0.0062
2778.00,0.0061
2777.00,0.0059
2776.00,0.0058
2775.00,0.0057
2774.00,0.0056
2773.00,0.0055
2772.00,0.0055
2771.00,0.0054
2770.00,0.0054
2769.00,0.0053
2768.00,0.0053
2767.00,0.0053
2766.00,0.0052
2765.00,0.0052
2764.00,0.0052
2763.00,0.0051
2762.00,0.0051
2761.00,0.0051
2760.00,0.0050
2759.00,0.0050
2758.00,0.0049
2757.00,0.0049
2756.00,0.0049
2755.00,0.0049
2754.00,0.0050
2753.00,0.0050
2752.00,0.0049
2751.00,0.0049
2750.00,0.0048
2749.00,0.0048
2748.00,0.0049
2747.00,0.0049
2746.00,0.0050
2745.00,0.0050
2744.00,0.0051
2743.00,0.0052
2742.00,0.0053
2741.00,0.0054
2740.00,0.0056
2739.00,0.0057
2738.00,0.0059
2737.00,0.0060
2736.00,0.0061
2735.00,0.0063
2734.00,0.0064
2733.00,0.0066
2732.00,0.0067
2731.00,0.0069
2730.00,0.0071
2729.00,0.0073
2728.00,0.0075
2727.00,0.0078
2726.00,0.0081
2725.00,0.0084
2724.00,0.0086
2723.00,0.0087
2722.00,0.0086
2721.00,0.0084
2720.00,0.0081
2719.00,0.0078
2718.00,0.0075
2717.00,0.0072
2716.00,0.0068
2715.00,0.0066
2714.00,0.0063
2713.00,0.0061
2712.00,0.0059
2711.00,0.0057
2710.00,0.0055
2709.00,0.0054
2708.00,0.0052
2707.00,0.0051
2706.00,0.0050
2705.00,0.0048
2704.00,0.0047
2703.00,0.0046
2702.00,0.0045
2701.00,0.0044
2700.00,0.0044
2699.00,0.0043
2698.00,0.0043
2697.00,0.0042
2696.00,0.0042
2695.00,0.0042
2694.00,0.0042
2693.00,0.0042
2692.00,0.0042
2691.00,0.0043
2690.00,0.0043
2689.00,0.0043
2688.00,0.0043
2687.00,0.0043
2686.00,0.0043
2685.00,0.0043
2684.00,0.0043
2683.00,0.0043
2682.00,0.0043
2681.00,0.0043
2680.00,0.0043
2679.00,0.0043
2678.00,0.0043
2677.00,0.0043
2676.00,0.0043
2675.00,0.0043
2674.00,0.0043
2673.00,0.0043
2672.00,0.0043
2671.00,0.0042
2670.00,0.0042
2669.00,0.0042
2668.00,0.0042
2667.00,0.0043
2666.00,0.0043
2665.00,0.0043
2664.00,0.0044
2663.00,0.0044
2662.00,0.0045
2661.00,0.0045
2660.00,0.0046
2659.00,0.0046
2658.00,0.0046
2657.00,0.0046
2656.00,0.0045
2655.00,0.0045
2654.00,0.0044
2653.00,0.0043
2652.00,0.0042
2651.00,0.0041
2650.00,0.0041
2649.00,0.0041
2648.00,0.0040
2647.00,0.0040
2646.00,0.0039
2645.00,0.0039
2644.00,0.0039
2643.00,0.0038
2642.00,0.0038
2641.00,0.0037
2640.00,0.0036
2639.00,0.0036
2638.00,0.0035
2637.00,0.0035
2636.00,0.0035
2635.00,0.0035
2634.00,0.0035
2633.00,0.0035
2632.00,0.0036
2631.00,0.0036
2630.00,0.0037
2629.00,0.0037
2628.00,0.0037
2627.00,0.0037
2626.00,0.0036
2625.00,0.0036
2624.00,0.0036
2623.00,0.0036
2622.00,0.0037
2621.00,0.0038
2620.00,0.0038
2619.00,0.0038
2618.00,0.0039
2617.00,0.0039
2616.00,0.0038
2615.00,0.0038
2614.00,0.0037
2613.00,0.0036
2612.00,0.0036
2611.00,0.0036
2610.00,0.0035
2609.00,0.0034
2608.00,0.0034
2607.00,0.0033
2606.00,0.0032
2605.00,0.0032
2604.00,0.0031
2603.00,0.0031
2602.00,0.0031
2601.00,0.0030
2600.00,0.0030
2599.00,0.0030
2598.00,0.0030
2597.00,0.0030
2596.00,0.0030
2595.00,0.0030
2594.00,0.0030
2593.00,0.0030
2592.00,0.0031
2591.00,0.0031
2590.00,0.0032
2589.00,0.0033
2588.00,0.0034
2587.00,0.0035
2586.00,0.0036
2585.00,0.0037
2584.00,0.0037
2583.00,0.0037
2582.00,0.0037
2581.00,0.0037
2580.00,0.0037
2579.00,0.0036
2578.00,0.0035
2577.00,0.0034
2576.00,0.0033
2575.00,0.0032
2574.00,0.0030
2573.00,0.0029
2572.00,0.0028
2571.00,0.0027
2570.00,0.0027
2569.00,0.0026
2568.00,0.0025
2567.00,0.0025
2566.00,0.0024
2565.00,0.0024
2564.00,0.0023
2563.00,0.0023
2562.00,0.0022
2561.00,0.0022
2560.00,0.0021
2559.00,0.0021
2558.00,0.0021
2557.00,0.0020
2556.00,0.0020
2555.00,0.0020
2554.00,0.0019
2553.00,0.0019
2552.00,0.0019
2551.00,0.0019
2550.00,0.0018
2549.00,0.0018
2548.00,0.0018
2547.00,0.0018
2546.00,0.0017
2545.00,0.0017
2544.00,0.0017
2543.00,0.0017
2542.00,0.0017
2541.00,0.0017
2540.00,0.0016
2539.00,0.0016
2538.00,0.0016
2537.00,0.0016
2536.00,0.0015
2535.00,0.0015
2534.00,0.0015
2533.00,0.0014
2532.00,0.0014
2531.00,0.0013
2530.00,0.0012
2529.00,0.0012
2528.00,0.0012
2527.00,0.0012
2526.00,0.0012
2525.00,0.0012
2524.00,0.0011
2523.00,0.0011
2522.00,0.0011
2521.00,0.0010
2520.00,0.0010
2519.00,0.0010
2518.00,0.0010
2517.00,0.0010
2516.00,0.0010
2515.00,0.0010
2514.00,0.0010
2513.00,0.0010
2512.00,0.0009
2511.00,0.0009
2510.00,0.0008
2509.00,0.0008
2508.00,0.0008
2507.00,0.0008
2506.00,0.0007
2505.00,0.0007
2504.00,0.0007
2503.00,0.0007
2502.00,0.0007
2501.00,0.0008
2500.00,0.0009
2499.00,0.0010
2498.00,0.0010
2497.00,0.0010
2496.00,0.0010
2495.00,0.0010
2494.00,0.0009
2493.00,0.0009
2492.00,0.0009
2491.00,0.0009
2490.00,0.0009
2489.00,0.0009
2488.00,0.0009
2487.00,0.0009
2486.00,0.0009
2485.00,0.0009
2484.00,0.0009
2483.00,0.0009
2482.00,0.0008
2481.00,0.0007
2480.00,0.0007
2479.00,0.0007
2478.00,0.0007
2477.00,0.0007
2476.00,0.0007
2475.00,0.0007
2474.00,0.0007
2473.00,0.0007
2472.00,0.0007
2471.00,0.0007
2470.00,0.0007
2469.00,0.0007
2468.00,0.0007
2467.00,0.0006
2466.00,0.0006
2465.00,0.0007
2464.00,0.0007
2463.00,0.0008
2462.00,0.0008
2461.00,0.0008
2460.00,0.0008
2459.00,0.0008
2458.00,0.0009
2457.00,0.0009
2456.00,0.0009
2455.00,0.0009
2454.00,0.0008
2453.00,0.0008
2452.00,0.0008
2451.00,0.0009
2450.00,0.0009
2449.00,0.0008
2448.00,0.0008
2447.00,0.0009
2446.00,0.0009
2445.00,0.0009
2444.00,0.0009
2443.00,0.0009
2442.00,0.0008
2441.00,0.0009
2440.00,0.0009
2439.00,0.0010
2438.00,0.0010
2437.00,0.0010
2436.00,0.0011
2435.00,0.0011
2434.00,0.0011
2433.00,0.0010
2432.00,0.0010
2431.00,0.0010
2430.00,0.0010
2429.00,0.0010
2428.00,0.0009
2427.00,0.0009
2426.00,0.0009
2425.00,0.0009
2424.00,0.0009
2423.00,0.0010
2422.00,0.0010
2421.00,0.0009
2420.00,0.0009
2419.00,0.0008
2418.00,0.0008
2417.00,0.0009
2416.00,0.0009
2415.00,0.0009
2414.00,0.0009
2413.00,0.0008
2412.00,0.0008
2411.00,0.0007
2410.00,0.0007
2409.00,0.0007
2408.00,0.0007
2407.00,0.0006
2406.00,0.0005
2405.00,0.0005
2404.00,0.0006
2403.00,0.0006
2402.00,0.0007
2401.00,0.0007
2400.00,0.0008
2399.00,0.0007
2398.00,0.0007
2397.00,0.0007
2396.00,0.0006
2395.00,0.0006
2394.00,0.0007
2393.00,0.0007
2392.00,0.0007
2391.00,0.0008
2390.00,0.0008
2389.00,0.0008
2388.00,0.0007
2387.00,0.0007
2386.00,0.0006
2385.00,0.0006
2384.00,0.0006
2383.00,0.0006
2382.00,0.0006
2381.00,0.0005
2380.00,0.0005
2379.00,0.0005
2378.00,0.0005
2377.00,0.0005
2376.00,0.0005
2375.00,0.0005
2374.00,0.0006
2373.00,0.0006
2372.00,0.0006
2371.00,0.0005
2370.00,0.0005
2369.00,0.0005
2368.00,0.0005
2367.00,0.0005
2366.00,0.0005
2365.00,0.0005
2364.00,0.0005
2363.00,0.0006
2362.00,0.0006
2361.00,0.0006
2360.00,0.0006
2359.00,0.0006
2358.00,0.0007
2357.00,0.0007
2356.00,0.0008
2355.00,0.0008
2354.00,0.0007
2353.00,0.0007
2352.00,0.0007
2351.00,0.0006
2350.00,0.0007
2349.00,0.0007
2348.00,0.0007
2347.00,0.0007
2346.00,0.0007
2345.00,0.0007
2344.00,0.0007
2343.00,0.0007
2342.00,0.0007
2341.00,0.0007
2340.00,0.0008
2339.00,0.0009
2338.00,0.0010
2337.00,0.0010
2336.00,0.0010
2335.00,0.0010
2334.00,0.0009
2333.00,0.0009
2332.00,0.0009
2331.00,0.0009
2330.00,0.0009
2329.00,0.0010
2328.00,0.0011
2327.00,0.0014
2326.00,0.0018
2325.00,0.0022
2324.00,0.0024
2323.00,0.0024
2322.00,0.0022
2321.00,0.0019
2320.00,0.0017
2319.00,0.0015
2318.00,0.0014
2317.00,0.0014
2316.00,0.0013
2315.00,0.0013
2314.00,0.0013
2313.00,0.0013
2312.00,0.0012
2311.00,0.0012
2310.00,0.0012
2309.00,0.0012
2308.00,0.0011
2307.00,0.0011
2306.00,0.0011
2305.00,0.0012
2304.00,0.0012
2303.00,0.0012
2302.00,0.0012
2301.00,0.0011
2300.00,0.0011
2299.00,0.0011
2298.00,0.0012
2297.00,0.0012
2296.00,0.0012
2295.00,0.0012
2294.00,0.0012
2293.00,0.0013
2292.00,0.0013
2291.00,0.0013
2290.00,0.0013
2289.00,0.0014
2288.00,0.0015
2287.00,0.0016
2286.00,0.0017
2285.00,0.0017
2284.00,0.0016
2283.00,0.0015
2282.00,0.0015
2281.00,0.0014
2280.00,0.0014
2279.00,0.0014
2278.00,0.0013
2277.00,0.0012
2276.00,0.0011
2275.00,0.0011
2274.00,0.0010
2273.00,0.0010
2272.00,0.0011
2271.00,0.0012
2270.00,0.0012
2269.00,0.0012
2268.00,0.0012
2267.00,0.0011
2266.00,0.0010
2265.00,0.0010
2264.00,0.0010
2263.00,0.0011
2262.00,0.0012
2261.00,0.0013
2260.00,0.0013
2259.00,0.0013
2258.00,0.0012
2257.00,0.0010
2256.00,0.0009
2255.00,0.0007
2254.00,0.0005
2253.00,0.0005
2252.00,0.0004
2251.00,0.0003
2250.00,0.0003
2249.00,0.0004
2248.00,0.0006
2247.00,0.0007
2246.00,0.0007
2245.00,0.0006
2244.00,0.0006
2243.00,0.0007
2242.00,0.0008
2241.00,0.0009
2240.00,0.0009
2239.00,0.0009
2238.00,0.0008
2237.00,0.0007
2236.00,0.0006
2235.00,0.0005
2234.00,0.0004
2233.00,0.0003
2232.00,0.0004
2231.00,0.0005
2230.00,0.0008
2229.00,0.0010
2228.00,0.0011
2227.00,0.0010
2226.00,0.0008
2225.00,0.0006
2224.00,0.0006
2223.00,0.0007
2222.00,0.0008
2221.00,0.0009
2220.00,0.0009
2219.00,0.0008
2218.00,0.0007
2217.00,0.0006
2216.00,0.0005
2215.00,0.0004
2214.00,0.0003
2213.00,0.0003
2212.00,0.0002
2211.00,0.0002
2210.00,0.0002
2209.00,0.0002
2208.00,0.0003
2207.00,0.0004
2206.00,0.0005
2205.00,0.0007
2204.00,0.0008
2203.00,0.0009
2202.00,0.0010
2201.00,0.0011
2200.00,0.0012
2199.00,0.0013
2198.00,0.0011
2197.00,0.0009
2196.00,0.0008
2195.00,0.0008
2194.00,0.0009
2193.00,0.0010
2192.00,0.0011
2191.00,0.0010
2190.00,0.0009
2189.00,0.0009
2188.00,0.0009
2187.00,0.0008
2186.00,0.0006
2185.00,0.0004
2184.00,0.0003
2183.00,0.0003
2182.00,0.0002
2181.00,0.0001
2180.00,0.0002
2179.00,0.0003
2178.00,0.0005
2177.00,0.0007
2176.00,0.0007
2175.00,0.0004
2174.00,0.0000
2173.00,-0.0002
2172.00,-0.0002
2171.00,0.0001
2170.00,0.0007
2169.00,0.0012
2168.00,0.0014
2167.00,0.0013
2166.00,0.0010
2165.00,0.0010
2164.00,0.0013
2163.00,0.0018
2162.00,0.0020
2161.00,0.0016
2160.00,0.0005
2159.00,-0.0010
2158.00,-0.0021
2157.00,-0.0025
2156.00,-0.0024
2155.00,-0.0023
2154.00,-0.0023
2153.00,-0.0021
2152.00,-0.0018
2151.00,-0.0015
2150.00,-0.0013
2149.00,-0.0012
2148.00,-0.0012
2147.00,-0.0014
2146.00,-0.0016
2145.00,-0.0018
2144.00,-0.0018
2143.00,-0.0018
2142.00,-0.0017
2141.00,-0.0016
2140.00,-0.0014
2139.00,-0.0013
2138.00,-0.0013
2137.00,-0.0014
2136.00,-0.0015
2135.00,-0.0017
2134.00,-0.0018
2133.00,-0.0017
2132.00,-0.0014
2131.00,-0.0011
2130.00,-0.0010
2129.00,-0.0010
2128.00,-0.0010
2127.00,-0.0009
2126.00,-0.0008
2125.00,-0.0007
2124.00,-0.0006
2123.00,-0.0006
2122.00,-0.0007
2121.00,-0.0008
2120.00,-0.0008
2119.00,-0.0006
2118.00,-0.0003
2117.00,0.0000
2116.00,0.0002
2115.00,0.0003
2114.00,0.0003
2113.00,0.0001
2112.00,0.0000
2111.00,-0.0000
2110.00,0.0000
2109.00,0.0001
2108.00,0.0002
2107.00,0.0002
2106.00,0.0002
2105.00,0.0003
2104.00,0.0003
2103.00,0.0002
2102.00,0.0001
2101.00,0.0000
2100.00,-0.0001
2099.00,-0.0002
2098.00,-0.0003
2097.00,-0.0004
2096.00,-0.0006
2095.00,-0.0008
2094.00,-0.0008
2093.00,-0.0008
2092.00,-0.0006
2091.00,-0.0004
2090.00,-0.0002
2089.00,-0.0000
2088.00,0.0001
2087.00,0.0001
2086.00,0.0002
2085.00,0.0003
2084.00,0.0004
2083.00,0.0004
2082.00,0.0003
2081.00,0.0002
2080.00,0.0001
2079.00,0.0001
2078.00,0.0001
2077.00,0.0000
2076.00,-0.0001
2075.00,-0.0001
2074.00,-0.0000
2073.00,0.0000
2072.00,0.0001
2071.00,0.0002
2070.00,0.0002
2069.00,0.0003
2068.00,0.0003
2067.00,0.0002
2066.00,0.0002
2065.00,0.0002
2064.00,0.0002
2063.00,0.0001
2062.00,0.0001
2061.00,0.0001
2060.00,0.0001
2059.00,0.0002
2058.00,0.0002
2057.00,0.0002
2056.00,0.0001
2055.00,-0.0001
2054.00,-0.0000
2053.00,0.0003
2052.00,0.0007
2051.00,0.0010
2050.00,0.0009
2049.00,0.0005
2048.00,0.0001
2047.00,-0.0003
2046.00,-0.0005
2045.00,-0.0004
2044.00,-0.0003
2043.00,-0.0002
2042.00,-0.0001
2041.00,0.0001
2040.00,0.0003
2039.00,0.0003
2038.00,0.0003
2037.00,0.0002
2036.00,0.0000
2035.00,-0.0002
2034.00,-0.0005
2033.00,-0.0005
2032.00,-0.0004
2031.00,-0.0004
2030.00,-0.0004
2029.00,-0.0005
2028.00,-0.0007
2027.00,-0.0011
2026.00,-0.0015
2025.00,-0.0018
2024.00,-0.0020
2023.00,-0.0021
2022.00,-0.0021
2021.00,-0.0020
2020.00,-0.0017
2019.00,-0.0016
2018.00,-0.0015
2017.00,-0.0014
2016.00,-0.0012
2015.00,-0.0010
2014.00,-0.0009
2013.00,-0.0010
2012.00,-0.0011
2011.00,-0.0011
2010.00,-0.0011
2009.00,-0.0012
2008.00,-0.0014
2007.00,-0.0017
2006.00,-0.0020
2005.00,-0.0020
2004.00,-0.0018
2003.00,-0.0017
2002.00,-0.0018
2001.00,-0.0018
2000.00,-0.0017
1999.00,-0.0014
1998.00,-0.0012
1997.00,-0.0010
1996.00,-0.0009
1995.00,-0.0009
1994.00,-0.0009
1993.00,-0.0008
1992.00,-0.0006
1991.00,-0.0005
1990.00,-0.0005
1989.00,-0.0004
1988.00,-0.0003
1987.00,-0.0002
1986.00,-0.0001
1985.00,0.0001
1984.00,0.0004
1983.00,0.0009
1982.00,0.0013
1981.00,0.0016
1980.00,0.0015
1979.00,0.0008
1978.00,-0.0001
1977.00,-0.0009
1976.00,-0.0015
1975.00,-0.0019
1974.00,-0.0021
1973.00,-0.0021
1972.00,-0.0019
1971.00,-0.0014
1970.00,-0.0010
1969.00,-0.0006
1968.00,-0.0006
1967.00,-0.0008
1966.00,-0.0012
1965.00,-0.0014
1964.00,-0.0015
1963.00,-0.0016
1962.00,-0.0017
1961.00,-0.0018
1960.00,-0.0019
1959.00,-0.0019
1958.00,-0.0019
1957.00,-0.0018
1956.00,-0.0017
1955.00,-0.0017
1954.00,-0.0018
1953.00,-0.0018
1952.00,-0.0017
1951.00,-0.0016
1950.00,-0.0015
1949.00,-0.0016
1948.00,-0.0017
1947.00,-0.0018
1946.00,-0.0018
1945.00,-0.0018
1944.00,-0.0018
1943.00,-0.0017
1942.00,-0.0016
1941.00,-0.0015
1940.00,-0.0013
1939.00,-0.0012
1938.00,-0.0012
1937.00,-0.0011
1936.00,-0.0010
1935.00,-0.0010
1934.00,-0.0009
1933.00,-0.0009
1932.00,-0.0009
1931.00,-0.0010
1930.00,-0.0010
1929.00,-0.0009
1928.00,-0.0008
1927.00,-0.0007
1926.00,-0.0008
1925.00,-0.0008
1924.00,-0.0009
1923.00,-0.0009
1922.00,-0.0008
1921.00,-0.0006
1920.00,-0.0005
1919.00,-0.0004
1918.00,-0.0004
1917.00,-0.0003
1916.00,-0.0003
1915.00,-0.0004
1914.00,-0.0005
1913.00,-0.0005
1912.00,-0.0005
1911.00,-0.0004
1910.00,-0.0002
1909.00,-0.0002
1908.00,-0.0002
1907.00,-0.0003
1906.00,-0.0003
1905.00,-0.0003
1904.00,-0.0003
1903.00,-0.0003
1902.00,-0.0003
1901.00,-0.0002
1900.00,-0.0002
1899.00,-0.0001
1898.00,-0.0001
1897.00,-0.0001
1896.00,-0.0000
1895.00,-0.0000
1894.00,-0.0000
1893.00,-0.0000
1892.00,0.0000
1891.00,0.0000
1890.00,-0.0000
1889.00,-0.0001
1888.00,-0.0001
1887.00,-0.0000
1886.00,0.0000
1885.00,0.0000
1884.00,-0.0001
1883.00,-0.0002
1882.00,-0.0003
1881.00,-0.0003
1880.00,-0.0003
1879.00,-0.0003
1878.00,-0.0002
1877.00,-0.0002
1876.00,-0.0002
1875.00,-0.0001
1874.00,-0.0001
1873.00,-0.0001
1872.00,-0.0001
1871.00,-0.0002
1870.00,-0.0002
1869.00,-0.0002
1868.00,-0.0002
1867.00,-0.0001
1866.00,-0.0001
1865.00,-0.0000
1864.00,0.0000
1863.00,0.0000
1862.00,0.0000
1861.00,0.0000
1860.00,0.0000
1859.00,0.0001
1858.00,0.0001
1857.00,0.0001
1856.00,0.0000
1855.00,-0.0000
1854.00,-0.0000
1853.00,0.0001
1852.00,0.0002
1851.00,0.0002
1850.00,0.0002
1849.00,0.0002
1848.00,0.0002
1847.00,0.0002
1846.00,0.0003
1845.00,0.0003
1844.00,0.0003
1843.00,0.0003
1842.00,0.0002
1841.00,0.0002
1840.00,0.0002
1839.00,0.0002
1838.00,0.0002
1837.00,0.0002
1836.00,0.0002
1835.00,0.0002
1834.00,0.0003
1833.00,0.0003
1832.00,0.0003
1831.00,0.0003
1830.00,0.0003
1829.00,0.0004
1828.00,0.0004
1827.00,0.0003
1826.00,0.0002
1825.00,0.0002
1824.00,0.0002
1823.00,0.0003
1822.00,0.0003
1821.00,0.0003
1820.00,0.0003
1819.00,0.0002
1818.00,0.0000
1817.00,-0.0000
1816.00,-0.0000
1815.00,0.0000
1814.00,0.0001
1813.00,0.0001
1812.00,0.0002
1811.00,0.0003
1810.00,0.0004
1809.00,0.0004
1808.00,0.0005
1807.00,0.0005
1806.00,0.0005
1805.00,0.0004
1804.00,0.0004
1803.00,0.0004
1802.00,0.0004
1801.00,0.0005
1800.00,0.0005
1799.00,0.0005
1798.00,0.0005
1797.00,0.0005
1796.00,0.0005
1795.00,0.0005
1794.00,0.0005
1793.00,0.0005
1792.00,0.0005
1791.00,0.0006
1790.00,0.0007
1789.00,0.0007
1788.00,0.0007
1787.00,0.0007
1786.00,0.0007
1785.00,0.0007
1784.00,0.0008
1783.00,0.0008
1782.00,0.0008
1781.00,0.0008
1780.00,0.0008
1779.00,0.0008
1778.00,0.0008
1777.00,0.0008
1776.00,0.0009
1775.00,0.0010
1774.00,0.0010
1773.00,0.0010
1772.00,0.0011
1771.00,0.0011
1770.00,0.0011
1769.00,0.0012
1768.00,0.0012
1767.00,0.0012
1766.00,0.0012
1765.00,0.0012
1764.00,0.0012
1763.00,0.0012
1762.00,0.0013
1761.00,0.0013
1760.00,0.0013
1759.00,0.0013
1758.00,0.0014
1757.00,0.0014
1756.00,0.0014
1755.00,0.0015
1754.00,0.0015
1753.00,0.0015
1752.00,0.0015
1751.00,0.0015
1750.00,0.0016
1749.00,0.0016
1748.00,0.0016
1747.00,0.0017
1746.00,0.0017
1745.00,0.0017
1744.00,0.0017
1743.00,0.0017
1742.00,0.0017
1741.00,0.0017
1740.00,0.0016
1739.00,0.0016
1738.00,0.0015
1737.00,0.0014
1736.00,0.0013
1735.00,0.0012
1734.00,0.0011
1733.00,0.0011
1732.00,0.0011
1731.00,0.0011
1730.00,0.0011
1729.00,0.0011
1728.00,0.0012
1727.00,0.0012
1726.00,0.0013
1725.00,0.0014
1724.00,0.0015
1723.00,0.0016
1722.00,0.0016
1721.00,0.0016
1720.00,0.0016
1719.00,0.0017
1718.00,0.0018
1717.00,0.0020
1716.00,0.0022
1715.00,0.0022
1714.00,0.0022
1713.00,0.0022
1712.00,0.0023
1711.00,0.0024
1710.00,0.0024
1709.00,0.0025
1708.00,0.0025
1707.00,0.0025
1706.00,0.0025
1705.00,0.0026
1704.00,0.0027
1703.00,0.0027
1702.00,0.0028
1701.00,0.0028
1700.00,0.0029
1699.00,0.0030
1698.00,0.0031
1697.00,0.0032
1696.00,0.0033
1695.00,0.0034
1694.00,0.0035
1693.00,0.0035
1692.00,0.0036
1691.00,0.0037
1690.00,0.0038
1689.00,0.0039
1688.00,0.0040
1687.00,0.0040
1686.00,0.0041
1685.00,0.0042
1684.00,0.0044
1683.00,0.0045
1682.00,0.0046
1681.00,0.0046
1680.00,0.0047
1679.00,0.0048
1678.00,0.0049
1677.00,0.0050
1676.00,0.0051
1675.00,0.0052
1674.00,0.0052
1673.00,0.0053
1672.00,0.0053
1671.00,0.0054
1670.00,0.0054
1669.00,0.0055
1668.00,0.0056
1667.00,0.0056
1666.00,0.0057
1665.00,0.0057
1664.00,0.0058
1663.00,0.0059
1662.00,0.0059
1661.00,0.0060
1660.00,0.0061
1659.00,0.0062
1658.00,0.0063
1657.00,0.0064
1656.00,0.0065
1655.00,0.0065
1654.00,0.0066
1653.00,0.0068
1652.00,0.0071
1651.00,0.0072
1650.00,0.0073
1649.00,0.0075
1648.00,0.0077
1647.00,0.0078
1646.00,0.0079
1645.00,0.0079
1644.00,0.0079
1643.00,0.0078
1642.00,0.0078
1641.00,0.0078
1640.00,0.0078
1639.00,0.0078
1638.00,0.0078
1637.00,0.0077
1636.00,0.0077
1635.00,0.0077
1634.00,0.0077
1633.00,0.0077
1632.00,0.0077
1631.00,0.0077
1630.00,0.0077
1629.00,0.0076
1628.00,0.0076
1627.00,0.0075
1626.00,0.0074
1625.00,0.0074
1624.00,0.0073
1623.00,0.0073
1622.00,0.0073
1621.00,0.0072
1620.00,0.0072
1619.00,0.0072
1618.00,0.0072
1617.00,0.0072
1616.00,0.0071
1615.00,0.0071
1614.00,0.0071
1613.00,0.0071
1612.00,0.0071
1611.00,0.0072
1610.00,0.0072
1609.00,0.0072
1608.00,0.0073
1607.00,0.0073
1606.00,0.0073
1605.00,0.0073
1604.00,0.0073
1603.00,0.0072
1602.00,0.0072
1601.00,0.0072
1600.00,0.0071
1599.00,0.0071
1598.00,0.0071
1597.00,0.0070
1596.00,0.0070
1595.00,0.0071
1594.00,0.0071
1593.00,0.0071
1592.00,0.0071
1591.00,0.0071
1590.00,0.0072
1589.00,0.0073
1588.00,0.0074
1587.00,0.0075
1586.00,0.0077
1585.00,0.0079
1584.00,0.0081
1583.00,0.0084
1582.00,0.0087
1581.00,0.0090
1580.00,0.0093
1579.00,0.0095
1578.00,0.0096
1577.00,0.0097
1576.00,0.0096
1575.00,0.0094
1574.00,0.0092
1573.00,0.0091
1572.00,0.0089
1571.00,0.0087
1570.00,0.0084
1569.00,0.0081
1568.00,0.0080
1567.00,0.0079
1566.00,0.0079
1565.00,0.0078
1564.00,0.0078
1563.00,0.0078
1562.00,0.0078
1561.00,0.0078
1560.00,0.0079
1559.00,0.0080
1558.00,0.0080
1557.00,0.0081
1556.00,0.0082
1555.00,0.0083
1554.00,0.0084
1553.00,0.0085
1552.00,0.0086
1551.00,0.0087
1550.00,0.0089
1549.00,0.0091
1548.00,0.0093
1547.00,0.0095
1546.00,0.0097
1545.00,0.0101
1544.00,0.0105
1543.00,0.0108
1542.00,0.0110
1541.00,0.0112
1540.00,0.0111
1539.00,0.0107
1538.00,0.0103
1537.00,0.0098
1536.00,0.0095
1535.00,0.0090
1534.00,0.0085
1533.00,0.0081
1532.00,0.0078
1531.00,0.0076
1530.00,0.0074
1529.00,0.0072
1528.00,0.0071
1527.00,0.0069
1526.00,0.0068
1525.00,0.0067
1524.00,0.0066
1523.00,0.0065
1522.00,0.0064
1521.00,0.0063
1520.00,0.0063
1519.00,0.0063
1518.00,0.0063
1517.00,0.0063
1516.00,0.0062
1515.00,0.0062
1514.00,0.0061
1513.00,0.0062
1512.00,0.0063
1511.00,0.0064
1510.00,0.0064
1509.00,0.0064
1508.00,0.0064
1507.00,0.0064
1506.00,0.0065
1505.00,0.0066
1504.00,0.0068
1503.00,0.0070
1502.00,0.0071
1501.00,0.0073
1500.00,0.0076
1499.00,0.0079
1498.00,0.0082
1497.00,0.0086
1496.00,0.0091
1495.00,0.0094
1494.00,0.0097
1493.00,0.0100
1492.00,0.0104
1491.00,0.0107
1490.00,0.0111
1489.00,0.0116
1488.00,0.0122
1487.00,0.0128
1486.00,0.0133
1485.00,0.0140
1484.00,0.0148
1483.00,0.0156
1482.00,0.0166
1481.00,0.0178
1480.00,0.0190
1479.00,0.0203
1478.00,0.0217
1477.00,0.0236
1476.00,0.0258
1475.00,0.0282
1474.00,0.0316
1473.00,0.0367
1472.00,0.0430
1471.00,0.0492
1470.00,0.0552
1469.00,0.0615
1468.00,0.0683
1467.00,0.0758
1466.00,0.0843
1465.00,0.0937
1464.00,0.1021
1463.00,0.1083
1462.00,0.1125
1461.00,0.1157
1460.00,0.1182
1459.00,0.1201
1458.00,0.1218
1457.00,0.1234
1456.00,0.1241
1455.00,0.1240
1454.00,0.1234
1453.00,0.1223
1452.00,0.1202
1451.00,0.1167
1450.00,0.1116
1449.00,0.1042
1448.00,0.0946
1447.00,0.0843
1446.00,0.0750
1445.00,0.0670
1444.00,0.0602
1443.00,0.0547
1442.00,0.0507
1441.00,0.0479
1440.00,0.0463
1439.00,0.0456
1438.00,0.0457
1437.00,0.0457
1436.00,0.0446
1435.00,0.0419
1434.00,0.0380
1433.00,0.0334
1432.00,0.0286
1431.00,0.0244
1430.00,0.0212
1429.00,0.0189
1428.00,0.0174
1427.00,0.0165
1426.00,0.0160
1425.00,0.0155
1424.00,0.0150
1423.00,0.0148
1422.00,0.0146
1421.00,0.0144
1420.00,0.0141
1419.00,0.0139
1418.00,0.0137
1417.00,0.0134
1416.00,0.0131
1415.00,0.0129
1414.00,0.0128
1413.00,0.0127
1412.00,0.0124
1411.00,0.0122
1410.00,0.0121
1409.00,0.0120
1408.00,0.0119
1407.00,0.0119
1406.00,0.0120
1405.00,0.0120
1404.00,0.0119
1403.00,0.0120
1402.00,0.0121
1401.00,0.0122
1400.00,0.0124
1399.00,0.0126
1398.00,0.0128
1397.00,0.0130
1396.00,0.0132
1395.00,0.0136
1394.00,0.0141
1393.00,0.0146
1392.00,0.0152
1391.00,0.0160
1390.00,0.0173
1389.00,0.0191
1388.00,0.0217
1387.00,0.0256
1386.00,0.0307
1385.00,0.0370
1384.00,0.0452
1383.00,0.0564
1382.00,0.0709
1381.00,0.0895
1380.00,0.1125
1379.00,0.1390
1378.00,0.1654
1377.00,0.1858
1376.00,0.1944
1375.00,0.1870
1374.00,0.1654
1373.00,0.1379
1372.00,0.1118
1371.00,0.0899
1370.00,0.0723
1369.00,0.0588
1368.00,0.0494
1367.00,0.0437
1366.00,0.0405
1365.00,0.0393
1364.00,0.0395
1363.00,0.0409
1362.00,0.0432
1361.00,0.0456
1360.00,0.0473
1359.00,0.0478
1358.00,0.0466
1357.00,0.0438
1356.00,0.0399
1355.00,0.0354
1354.00,0.0311
1353.00,0.0275
1352.00,0.0245
1351.00,0.0221
1350.00,0.0202
1349.00,0.0187
1348.00,0.0175
1347.00,0.0165
1346.00,0.0157
1345.00,0.0151
1344.00,0.0147
1343.00,0.0143
1342.00,0.0139
1341.00,0.0136
1340.00,0.0133
1339.00,0.0131
1338.00,0.0129
1337.00,0.0128
1336.00,0.0128
1335.00,0.0130
1334.00,0.0134
1333.00,0.0138
1332.00,0.0143
1331.00,0.0147
1330.00,0.0148
1329.00,0.0147
1328.00,0.0143
1327.00,0.0137
1326.00,0.0130
1325.00,0.0123
1324.00,0.0116
1323.00,0.0111
1322.00,0.0107
1321.00,0.0104
1320.00,0.0101
1319.00,0.0099
1318.00,0.0097
1317.00,0.0095
1316.00,0.0093
1315.00,0.0093
1314.00,0.0093
1313.00,0.0093
1312.00,0.0095
1311.00,0.0097
1310.00,0.0101
1309.00,0.0109
1308.00,0.0119
1307.00,0.0131
1306.00,0.0142
1305.00,0.0151
1304.00,0.0154
1303.00,0.0151
1302.00,0.0145
1301.00,0.0139
1300.00,0.0135
1299.00,0.0133
1298.00,0.0133
1297.00,0.0132
1296.00,0.0131
1295.00,0.0129
1294.00,0.0124
1293.00,0.0119
1292.00,0.0113
1291.00,0.0106
1290.00,0.0101
1289.00,0.0096
1288.00,0.0093
1287.00,0.0089
1286.00,0.0087
1285.00,0.0085
1284.00,0.0083
1283.00,0.0081
1282.00,0.0080
1281.00,0.0079
1280.00,0.0078
1279.00,0.0076
1278.00,0.0075
1277.00,0.0074
1276.00,0.0074
1275.00,0.0074
1274.00,0.0073
1273.00,0.0073
1272.00,0.0074
1271.00,0.0074
1270.00,0.0075
1269.00,0.0077
1268.00,0.0079
1267.00,0.0082
1266.00,0.0086
1265.00,0.0089
1264.00,0.0092
1263.00,0.0095
1262.00,0.0099
1261.00,0.0105
1260.00,0.0111
1259.00,0.0119
1258.00,0.0127
1257.00,0.0133
1256.00,0.0136
1255.00,0.0135
1254.00,0.0129
1253.00,0.0120
1252.00,0.0111
1251.00,0.0103
1250.00,0.0098
1249.00,0.0095
1248.00,0.0093
1247.00,0.0092
1246.00,0.0091
1245.00,0.0091
1244.00,0.0090
1243.00,0.0089
1242.00,0.0088
1241.00,0.0088
1240.00,0.0086
1239.00,0.0085
1238.00,0.0085
1237.00,0.0085
1236.00,0.0085
1235.00,0.0085
1234.00,0.0085
1233.00,0.0084
1232.00,0.0084
1231.00,0.0084
1230.00,0.0085
1229.00,0.0085
1228.00,0.0086
1227.00,0.0088
1226.00,0.0091
1225.00,0.0094
1224.00,0.0098
1223.00,0.0102
1222.00,0.0106
1221.00,0.0108
1220.00,0.0110
1219.00,0.0110
1218.00,0.0110
1217.00,0.0108
1216.00,0.0106
1215.00,0.0103
1214.00,0.0099
1213.00,0.0096
1212.00,0.0092
1211.00,0.0089
1210.00,0.0087
1209.00,0.0085
1208.00,0.0083
1207.00,0.0083
1206.00,0.0082
1205.00,0.0082
1204.00,0.0082
1203.00,0.0082
1202.00,0.0082
1201.00,0.0082
1200.00,0.0082
1199.00,0.0082
1198.00,0.0082
1197.00,0.0083
1196.00,0.0083
1195.00,0.0084
1194.00,0.0084
1193.00,0.0084
1192.00,0.0084
1191.00,0.0084
1190.00,0.0083
1189.00,0.0083
1188.00,0.0083
1187.00,0.0084
1186.00,0.0085
1185.00,0.0086
1184.00,0.0088
1183.00,0.0089
1182.00,0.0090
1181.00,0.0092
1180.00,0.0095
1179.00,0.0100
1178.00,0.0106
1177.00,0.0115
1176.00,0.0128
1175.00,0.0144
1174.00,0.0166
1173.00,0.0193
1172.00,0.0226
1171.00,0.0262
1170.00,0.0298
1169.00,0.0327
1168.00,0.0345
1167.00,0.0351
1166.00,0.0344
1165.00,0.0328
1164.00,0.0309
1163.00,0.0288
1162.00,0.0270
1161.00,0.0254
1160.00,0.0241
1159.00,0.0231
1158.00,0.0223
1157.00,0.0218
1156.00,0.0214
1155.00,0.0210
1154.00,0.0207
1153.00,0.0203
1152.00,0.0198
1151.00,0.0192
1150.00,0.0184
1149.00,0.0175
1148.00,0.0166
1147.00,0.0156
1146.00,0.0147
1145.00,0.0139
1144.00,0.0131
1143.00,0.0124
1142.00,0.0119
1141.00,0.0113
1140.00,0.0108
1139.00,0.0104
1138.00,0.0101
1137.00,0.0097
1136.00,0.0095
1135.00,0.0093
1134.00,0.0091
1133.00,0.0090
1132.00,0.0088
1131.00,0.0088
1130.00,0.0088
1129.00,0.0090
1128.00,0.0091
1127.00,0.0092
1126.00,0.0093
1125.00,0.0094
1124.00,0.0094
1123.00,0.0094
1122.00,0.0094
1121.00,0.0095
1120.00,0.0096
1119.00,0.0099
1118.00,0.0101
1117.00,0.0103
1116.00,0.0104
1115.00,0.0106
1114.00,0.0108
1113.00,0.0110
1112.00,0.0113
1111.00,0.0115
1110.00,0.0118
1109.00,0.0121
1108.00,0.0127
1107.00,0.0134
1106.00,0.0142
1105.00,0.0149
1104.00,0.0155
1103.00,0.0158
1102.00,0.0157
1101.00,0.0154
1100.00,0.0148
1099.00,0.0142
1098.00,0.0136
1097.00,0.0130
1096.00,0.0125
1095.00,0.0120
1094.00,0.0116
1093.00,0.0113
1092.00,0.0110
1091.00,0.0107
1090.00,0.0105
1089.00,0.0103
1088.00,0.0102
1087.00,0.0101
1086.00,0.0100
1085.00,0.0099
1084.00,0.0097
1083.00,0.0096
1082.00,0.0095
1081.00,0.0094
1080.00,0.0093
1079.00,0.0092
1078.00,0.0089
1077.00,0.0086
1076.00,0.0083
1075.00,0.0081
1074.00,0.0080
1073.00,0.0081
1072.00,0.0082
1071.00,0.0082
1070.00,0.0083
1069.00,0.0083
1068.00,0.0083
1067.00,0.0084
1066.00,0.0084
1065.00,0.0085
1064.00,0.0085
1063.00,0.0085
1062.00,0.0085
1061.00,0.0086
1060.00,0.0086
1059.00,0.0087
1058.00,0.0088
1057.00,0.0088
1056.00,0.0088
1055.00,0.0088
1054.00,0.0089
1053.00,0.0090
1052.00,0.0092
1051.00,0.0094
1050.00,0.0097
1049.00,0.0099
1048.00,0.0102
1047.00,0.0105
1046.00,0.0108
1045.00,0.0110
1044.00,0.0109
1043.00,0.0107
1042.00,0.0105
1041.00,0.0103
1040.00,0.0102
1039.00,0.0101
1038.00,0.0102
1037.00,0.0103
1036.00,0.0104
1035.00,0.0105
1034.00,0.0105
1033.00,0.0104
1032.00,0.0103
1031.00,0.0102
1030.00,0.0101
1029.00,0.0101
1028.00,0.0100
1027.00,0.0099
1026.00,0.0098
1025.00,0.0098
1024.00,0.0098
1023.00,0.0098
1022.00,0.0099
1021.00,0.0099
1020.00,0.0100
1019.00,0.0102
1018.00,0.0104
1017.00,0.0106
1016.00,0.0108
1015.00,0.0110
1014.00,0.0113
1013.00,0.0118
1012.00,0.0122
1011.00,0.0125
1010.00,0.0128
1009.00,0.0131
1008.00,0.0136
1007.00,0.0142
1006.00,0.0152
1005.00,0.0165
1004.00,0.0182
1003.00,0.0205
1002.00,0.0235
1001.00,0.0273
1000.00,0.0314
999.00,0.0350
998.00,0.0368
997.00,0.0363
996.00,0.0335
995.00,0.0292
994.00,0.0248
993.00,0.0208
992.00,0.0178
991.00,0.0155
990.00,0.0140
989.00,0.0129
988.00,0.0123
987.00,0.0119
986.00,0.0119
985.00,0.0121
984.00,0.0126
983.00,0.0133
982.00,0.0145
981.00,0.0162
980.00,0.0185
979.00,0.0216
978.00,0.0254
977.00,0.0299
976.00,0.0347
975.00,0.0394
974.00,0.0431
973.00,0.0447
972.00,0.0436
971.00,0.0398
970.00,0.0345
969.00,0.0289
968.00,0.0239
967.00,0.0200
966.00,0.0170
965.00,0.0149
964.00,0.0133
963.00,0.0122
962.00,0.0113
961.00,0.0107
960.00,0.0102
959.00,0.0097
958.00,0.0093
957.00,0.0090
956.00,0.0088
955.00,0.0086
954.00,0.0084
953.00,0.0083
952.00,0.0082
951.00,0.0080
950.00,0.0080
949.00,0.0080
948.00,0.0081
947.00,0.0083
946.00,0.0086
945.00,0.0089
944.00,0.0091
943.00,0.0094
942.00,0.0097
941.00,0.0099
940.00,0.0099
939.00,0.0096
938.00,0.0092
937.00,0.0087
936.00,0.0082
935.00,0.0079
934.00,0.0076
933.00,0.0074
932.00,0.0071
931.00,0.0069
930.00,0.0067
929.00,0.0065
928.00,0.0065
927.00,0.0065
926.00,0.0065
925.00,0.0065
924.00,0.0065
923.00,0.0066
922.00,0.0067
921.00,0.0069
920.00,0.0071
919.00,0.0072
918.00,0.0073
917.00,0.0074
916.00,0.0075
915.00,0.0076
914.00,0.0077
913.00,0.0077
912.00,0.0078
911.00,0.0079
910.00,0.0081
909.00,0.0082
908.00,0.0084
907.00,0.0088
906.00,0.0095
905.00,0.0105
904.00,0.0120
903.00,0.0139
902.00,0.0159
901.00,0.0177
900.00,0.0189
899.00,0.0192
898.00,0.0185
897.00,0.0170
896.00,0.0151
895.00,0.0132
894.00,0.0118
893.00,0.0106
892.00,0.0098
891.00,0.0093
890.00,0.0089
889.00,0.0085
888.00,0.0082
887.00,0.0079
886.00,0.0076
885.00,0.0074
884.00,0.0074
883.00,0.0074
882.00,0.0075
881.00,0.0075
880.00,0.0075
879.00,0.0075
878.00,0.0076
877.00,0.0076
876.00,0.0077
875.00,0.0076
874.00,0.0076
873.00,0.0076
872.00,0.0076
871.00,0.0077
870.00,0.0078
869.00,0.0078
868.00,0.0078
867.00,0.0079
866.00,0.0080
865.00,0.0081
864.00,0.0081
863.00,0.0081
862.00,0.0082
861.00,0.0084
860.00,0.0086
859.00,0.0089
858.00,0.0091
857.00,0.0093
856.00,0.0095
855.00,0.0097
854.00,0.0099
853.00,0.0101
852.00,0.0103
851.00,0.0108
850.00,0.0114
849.00,0.0121
848.00,0.0132
847.00,0.0147
846.00,0.0171
845.00,0.0207
844.00,0.0256
843.00,0.0310
842.00,0.0351
841.00,0.0362
840.00,0.0337
839.00,0.0290
838.00,0.0239
837.00,0.0198
836.00,0.0171
835.00,0.0154
834.00,0.0144
833.00,0.0136
832.00,0.0130
831.00,0.0126
830.00,0.0123
829.00,0.0121
828.00,0.0120
827.00,0.0119
826.00,0.0118
825.00,0.0118
824.00,0.0117
823.00,0.0116
822.00,0.0115
821.00,0.0115
820.00,0.0117
819.00,0.0120
818.00,0.0126
817.00,0.0133
816.00,0.0141
815.00,0.0151
814.00,0.0164
813.00,0.0180
812.00,0.0197
811.00,0.0212
810.00,0.0224
809.00,0.0229
808.00,0.0227
807.00,0.0218
806.00,0.0204
805.00,0.0187
804.00,0.0170
803.00,0.0155
802.00,0.0144
801.00,0.0134
800.00,0.0125
799.00,0.0118
798.00,0.0113
797.00,0.0110
796.00,0.0106
795.00,0.0103
794.00,0.0099
793.00,0.0096
792.00,0.0093
791.00,0.0092
790.00,0.0092
789.00,0.0091
788.00,0.0089
787.00,0.0085
786.00,0.0080
785.00,0.0076
784.00,0.0073
783.00,0.0072
782.00,0.0071
781.00,0.0070
780.00,0.0068
779.00,0.0067
778.00,0.0066
777.00,0.0066
776.00,0.0067
775.00,0.0069
774.00,0.0072
773.00,0.0074
772.00,0.0077
771.00,0.0080
770.00,0.0082
769.00,0.0084
768.00,0.0085
767.00,0.0085
766.00,0.0085
765.00,0.0085
764.00,0.0085
763.00,0.0083
762.00,0.0081
761.00,0.0078
760.00,0.0074
759.00,0.0071
758.00,0.0068
757.00,0.0065
756.00,0.0062
755.00,0.0061
754.00,0.0060
753.00,0.0061
752.00,0.0062
751.00,0.0062
750.00,0.0063
749.00,0.0062
748.00,0.0061
747.00,0.0060
746.00,0.0059
745.00,0.0060
744.00,0.0061
743.00,0.0062
742.00,0.0063
741.00,0.0064
740.00,0.0066
739.00,0.0069
738.00,0.0072
737.00,0.0074
736.00,0.0075
735.00,0.0076
734.00,0.0075
733.00,0.0075
732.00,0.0076
731.00,0.0077
730.00,0.0078
729.00,0.0079
728.00,0.0079
727.00,0.0079
726.00,0.0080
725.00,0.0080
724.00,0.0080
723.00,0.0079
722.00,0.0078
721.00,0.0076
720.00,0.0073
719.00,0.0072
718.00,0.0070
717.00,0.0069
716.00,0.0068
715.00,0.0066
714.00,0.0065
713.00,0.0064
712.00,0.0065
711.00,0.0066
710.00,0.0067
709.00,0.0068
708.00,0.0069
707.00,0.0071
706.00,0.0071
705.00,0.0072
704.00,0.0071
703.00,0.0069
702.00,0.0068
701.00,0.0067
700.00,0.0066
699.00,0.0066
698.00,0.0065
697.00,0.0064
696.00,0.0063
695.00,0.0062
694.00,0.0062
693.00,0.0063
692.00,0.0063
691.00,0.0063
690.00,0.0063
689.00,0.0062
688.00,0.0062
687.00,0.0062
686.00,0.0062
685.00,0.0063
684.00,0.0064
683.00,0.0064
682.00,0.0063
681.00,0.0062
680.00,0.0062
679.00,0.0062
678.00,0.0063
677.00,0.0064
676.00,0.0066
675.00,0.0068
674.00,0.0069
673.00,0.0069
672.00,0.0069
671.00,0.0070
670.00,0.0073
669.00,0.0075
668.00,0.0076
667.00,0.0073
666.00,0.0069
665.00,0.0065
664.00,0.0063
663.00,0.0063
662.00,0.0063
661.00,0.0064
660.00,0.0064
659.00,0.0063
658.00,0.0061
657.00,0.0061
656.00,0.0060
655.00,0.0060
654.00,0.0061
653.00,0.0062
652.00,0.0063
651.00,0.0063
650.00,0.0062
649.00,0.0062
648.00,0.0062
647.00,0.0063
646.00,0.0064
645.00,0.0064
644.00,0.0063
643.00,0.0063
642.00,0.0063
641.00,0.0063
640.00,0.0063
639.00,0.0063
638.00,0.0063
637.00,0.0063
636.00,0.0064
635.00,0.0064
634.00,0.0065
633.00,0.0065
632.00,0.0066
631.00,0.0068
630.00,0.0070
629.00,0.0072
628.00,0.0073
627.00,0.0072
626.00,0.0070
625.00,0.0068
624.00,0.0067
623.00,0.0065
622.00,0.0064
621.00,0.0063
620.00,0.0062
619.00,0.0062
618.00,0.0063
617.00,0.0063
616.00,0.0063
615.00,0.0063
614.00,0.0064
613.00,0.0065
612.00,0.0066
611.00,0.0066
610.00,0.0066
609.00,0.0065
608.00,0.0065
607.00,0.0064
606.00,0.0064
605.00,0.0064
604.00,0.0064
603.00,0.0065
602.00,0.0065
601.00,0.0066
600.00,0.0068
599.00,0.0069
598.00,0.0069
597.00,0.0068
596.00,0.0067
595.00,0.0067
594.00,0.0067
593.00,0.0068
592.00,0.0068
591.00,0.0067
590.00,0.0064
589.00,0.0062
588.00,0.0061
587.00,0.0061
586.00,0.0061
585.00,0.0063
584.00,0.0066
583.00,0.0069
582.00,0.0071
581.00,0.0070
580.00,0.0069
579.00,0.0070
578.00,0.0072
577.00,0.0074
576.00,0.0076
575.00,0.0077
574.00,0.0076
573.00,0.0075
572.00,0.0074
571.00,0.0073
570.00,0.0071
569.00,0.0070
568.00,0.0068
567.00,0.0068
566.00,0.0069
565.00,0.0070
564.00,0.0069
563.00,0.0067
562.00,0.0063
561.00,0.0061
560.00,0.0060
559.00,0.0060
558.00,0.0062
557.00,0.0065
556.00,0.0068
555.00,0.0071
554.00,0.0072
553.00,0.0069
552.00,0.0065
551.00,0.0063
550.00,0.0064
549.00,0.0067
548.00,0.0070
547.00,0.0071
546.00,0.0070
545.00,0.0070
544.00,0.0070
543.00,0.0071
542.00,0.0072
541.00,0.0072
540.00,0.0070
539.00,0.0070
538.00,0.0071
537.00,0.0075
536.00,0.0079
535.00,0.0084
534.00,0.0088
533.00,0.0088
532.00,0.0085
531.00,0.0082
530.00,0.0081
529.00,0.0082
528.00,0.0084
527.00,0.0083
526.00,0.0079
525.00,0.0075
524.00,0.0075
523.00,0.0078
522.00,0.0082
521.00,0.0081
520.00,0.0077
519.00,0.0071
518.00,0.0066
517.00,0.0063
516.00,0.0063
515.00,0.0067
514.00,0.0073
513.00,0.0076
512.00,0.0075
511.00,0.0073
510.00,0.0074
509.00,0.0078
508.00,0.0080
507.00,0.0079
506.00,0.0076
505.00,0.0075
504.00,0.0075
503.00,0.0075
502.00,0.0076
501.00,0.0077
500.00,0.0081
499.00,0.0085
498.00,0.0086
497.00,0.0083
496.00,0.0079
495.00,0.0077
494.00,0.0077
493.00,0.0077
492.00,0.0074
491.00,0.0069
490.00,0.0062
489.00,0.0054
488.00,0.0049
487.00,0.0047
486.00,0.0051
485.00,0.0058
484.00,0.0063
483.00,0.0062
482.00,0.0056
481.00,0.0050
480.00,0.0049
479.00,0.0055
478.00,0.0068
477.00,0.0082
476.00,0.0092
475.00,0.0093
474.00,0.0090
473.00,0.0087
472.00,0.0087
471.00,0.0091
470.00,0.0094
469.00,0.0095
468.00,0.0096
467.00,0.0098
466.00,0.0103
465.00,0.0113
464.00,0.0127
463.00,0.0142
462.00,0.0156
461.00,0.0165
460.00,0.0173
459.00,0.0179
458.00,0.0179
457.00,0.0170
456.00,0.0157
455.00,0.0144
454.00,0.0132
453.00,0.0120
452.00,0.0107
451.00,0.0093
450.00,0.0078
