Created as New Dataset,Sample 158 By Administrator Date Tuesday, September 09 2025
cm-1,A
4000.00,0.0012
3999.00,0.0012
3998.00,0.0012
3997.00,0.0012
3996.00,0.0012
3995.00,0.0012
3994.00,0.0012
3993.00,0.0012
3992.00,0.0012
3991.00,0.0012
3990.00,0.0011
3989.00,0.0011
3988.00,0.0011
3987.00,0.0011
3986.00,0.0011
3985.00,0.0011
3984.00,0.0011
3983.00,0.0011
3982.00,0.0011
3981.00,0.0011
3980.00,0.0011
3979.00,0.0010
3978.00,0.0010
3977.00,0.0010
3976.00,0.0010
3975.00,0.0010
3974.00,0.0010
3973.00,0.0010
3972.00,0.0010
3971.00,0.0010
3970.00,0.0010
3969.00,0.0010
3968.00,0.0010
3967.00,0.0009
3966.00,0.0009
3965.00,0.0009
3964.00,0.0010
3963.00,0.0010
3962.00,0.0010
3961.00,0.0010
3960.00,0.0010
3959.00,0.0010
3958.00,0.0010
3957.00,0.0010
3956.00,0.0010
3955.00,0.0010
3954.00,0.0010
3953.00,0.0010
3952.00,0.0010
3951.00,0.0010
3950.00,0.0010
3949.00,0.0010
3948.00,0.0010
3947.00,0.0010
3946.00,0.0010
3945.00,0.0010
3944.00,0.0010
3943.00,0.0010
3942.00,0.0010
3941.00,0.0010
3940.00,0.0009
3939.00,0.0009
3938.00,0.0010
3937.00,0.0010
3936.00,0.0010
3935.00,0.0010
3934.00,0.0010
3933.00,0.0010
3932.00,0.0010
3931.00,0.0010
3930.00,0.0010
3929.00,0.0010
3928.00,0.0010
3927.00,0.0010
3926.00,0.0010
3925.00,0.0011
3924.00,0.0011
3923.00,0.0011
3922.00,0.0011
3921.00,0.0011
3920.00,0.0010
3919.00,0.0010
3918.00,0.0009
3917.00,0.0009
3916.00,0.0009
3915.00,0.0009
3914.00,0.0009
3913.00,0.0009
3912.00,0.0009
3911.00,0.0009
3910.00,0.0009
3909.00,0.0010
3908.00,0.0010
3907.00,0.0010
3906.00,0.0011
3905.00,0.0011
3904.00,0.0011
3903.00,0.0010
3902.00,0.0010
3901.00,0.0009
3900.00,0.0009
3899.00,0.0009
3898.00,0.0010
3897.00,0.0010
3896.00,0.0010
3895.00,0.0010
3894.00,0.0010
3893.00,0.0010
3892.00,0.0010
3891.00,0.0010
3890.00,0.0009
3889.00,0.0009
3888.00,0.0009
3887.00,0.0009
3886.00,0.0009
3885.00,0.0010
3884.00,0.0010
3883.00,0.0010
3882.00,0.0010
3881.00,0.0010
3880.00,0.0010
3879.00,0.0010
3878.00,0.0009
3877.00,0.0009
3876.00,0.0009
3875.00,0.0010
3874.00,0.0010
3873.00,0.0010
3872.00,0.0010
3871.00,0.0009
3870.00,0.0009
3869.00,0.0009
3868.00,0.0009
3867.00,0.0009
3866.00,0.0009
3865.00,0.0009
3864.00,0.0009
3863.00,0.0009
3862.00,0.0009
3861.00,0.0009
3860.00,0.0009
3859.00,0.0009
3858.00,0.0008
3857.00,0.0008
3856.00,0.0007
3855.00,0.0007
3854.00,0.0007
3853.00,0.0007
3852.00,0.0007
3851.00,0.0007
3850.00,0.0007
3849.00,0.0008
3848.00,0.0008
3847.00,0.0009
3846.00,0.0009
3845.00,0.0009
3844.00,0.0009
3843.00,0.0009
3842.00,0.0009
3841.00,0.0009
3840.00,0.0009
3839.00,0.0009
3838.00,0.0009
3837.00,0.0008
3836.00,0.0008
3835.00,0.0008
3834.00,0.0008
3833.00,0.0008
3832.00,0.0008
3831.00,0.0009
3830.00,0.0009
3829.00,0.0009
3828.00,0.0009
3827.00,0.0009
3826.00,0.0009
3825.00,0.0009
3824.00,0.0008
3823.00,0.0008
3822.00,0.0008
3821.00,0.0008
3820.00,0.0008
3819.00,0.0007
3818.00,0.0007
3817.00,0.0007
3816.00,0.0008
3815.00,0.0008
3814.00,0.0008
3813.00,0.0008
3812.00,0.0008
3811.00,0.0008
3810.00,0.0008
3809.00,0.0008
3808.00,0.0009
3807.00,0.0009
3806.00,0.0009
3805.00,0.0008
3804.00,0.0008
3803.00,0.0008
3802.00,0.0008
3801.00,0.0008
3800.00,0.0008
3799.00,0.0008
3798.00,0.0008
3797.00,0.0008
3796.00,0.0008
3795.00,0.0009
3794.00,0.0009
3793.00,0.0009
3792.00,0.0009
3791.00,0.0010
3790.00,0.0010
3789.00,0.0010
3788.00,0.0010
3787.00,0.0010
3786.00,0.0010
3785.00,0.0010
3784.00,0.0010
3783.00,0.0010
3782.00,0.0009
3781.00,0.0009
3780.00,0.0009
3779.00,0.0009
3778.00,0.0009
3777.00,0.0009
3776.00,0.0009
3775.00,0.0009
3774.00,0.0009
3773.00,0.0009
3772.00,0.0009
3771.00,0.0009
3770.00,0.0010
3769.00,0.0010
3768.00,0.0010
3767.00,0.0011
3766.00,0.0011
3765.00,0.0011
3764.00,0.0011
3763.00,0.0011
3762.00,0.0011
3761.00,0.0011
3760.00,0.0011
3759.00,0.0011
3758.00,0.0011
3757.00,0.0010
3756.00,0.0010
3755.00,0.0009
3754.00,0.0009
3753.00,0.0009
3752.00,0.0009
3751.00,0.0009
3750.00,0.0009
3749.00,0.0009
3748.00,0.0009
3747.00,0.0008
3746.00,0.0008
3745.00,0.0008
3744.00,0.0008
3743.00,0.0008
3742.00,0.0008
3741.00,0.0008
3740.00,0.0009
3739.00,0.0009
3738.00,0.0009
3737.00,0.0009
3736.00,0.0009
3735.00,0.0009
3734.00,0.0009
3733.00,0.0009
3732.00,0.0009
3731.00,0.0009
3730.00,0.0008
3729.00,0.0008
3728.00,0.0008
3727.00,0.0008
3726.00,0.0008
3725.00,0.0008
3724.00,0.0007
3723.00,0.0007
3722.00,0.0008
3721.00,0.0008
3720.00,0.0009
3719.00,0.0009
3718.00,0.0009
3717.00,0.0009
3716.00,0.0008
3715.00,0.0008
3714.00,0.0008
3713.00,0.0007
3712.00,0.0007
3711.00,0.0008
3710.00,0.0008
3709.00,0.0008
3708.00,0.0008
3707.00,0.0008
3706.00,0.0008
3705.00,0.0008
3704.00,0.0008
3703.00,0.0008
3702.00,0.0008
3701.00,0.0008
3700.00,0.0008
3699.00,0.0008
3698.00,0.0008
3697.00,0.0008
3696.00,0.0008
3695.00,0.0008
3694.00,0.0008
3693.00,0.0008
3692.00,0.0009
3691.00,0.0009
3690.00,0.0009
3689.00,0.0009
3688.00,0.0009
3687.00,0.0009
3686.00,0.0009
3685.00,0.0009
3684.00,0.0009
3683.00,0.0009
3682.00,0.0009
3681.00,0.0009
3680.00,0.0009
3679.00,0.0009
3678.00,0.0009
3677.00,0.0009
3676.00,0.0009
3675.00,0.0008
3674.00,0.0007
3673.00,0.0007
3672.00,0.0007
3671.00,0.0007
3670.00,0.0008
3669.00,0.0008
3668.00,0.0009
3667.00,0.0009
3666.00,0.0009
3665.00,0.0010
3664.00,0.0010
3663.00,0.0010
3662.00,0.0010
3661.00,0.0010
3660.00,0.0010
3659.00,0.0009
3658.00,0.0009
3657.00,0.0009
3656.00,0.0008
3655.00,0.0008
3654.00,0.0008
3653.00,0.0008
3652.00,0.0009
3651.00,0.0009
3650.00,0.0009
3649.00,0.0009
3648.00,0.0008
3647.00,0.0008
3646.00,0.0009
3645.00,0.0009
3644.00,0.0010
3643.00,0.0011
3642.00,0.0011
3641.00,0.0011
3640.00,0.0011
3639.00,0.0011
3638.00,0.0011
3637.00,0.0011
3636.00,0.0012
3635.00,0.0012
3634.00,0.0011
3633.00,0.0011
3632.00,0.0010
3631.00,0.0009
3630.00,0.0008
3629.00,0.0009
3628.00,0.0009
3627.00,0.0010
3626.00,0.0010
3625.00,0.0011
3624.00,0.0011
3623.00,0.0011
3622.00,0.0010
3621.00,0.0010
3620.00,0.0010
3619.00,0.0011
3618.00,0.0012
3617.00,0.0012
3616.00,0.0013
3615.00,0.0013
3614.00,0.0012
3613.00,0.0012
3612.00,0.0012
3611.00,0.0012
3610.00,0.0012
3609.00,0.0013
3608.00,0.0014
3607.00,0.0014
3606.00,0.0014
3605.00,0.0014
3604.00,0.0014
3603.00,0.0014
3602.00,0.0015
3601.00,0.0015
3600.00,0.0015
3599.00,0.0015
3598.00,0.0015
3597.00,0.0015
3596.00,0.0015
3595.00,0.0016
3594.00,0.0016
3593.00,0.0016
3592.00,0.0016
3591.00,0.0016
3590.00,0.0016
3589.00,0.0016
3588.00,0.0016
3587.00,0.0016
3586.00,0.0016
3585.00,0.0016
3584.00,0.0016
3583.00,0.0017
3582.00,0.0017
3581.00,0.0018
3580.00,0.0018
3579.00,0.0019
3578.00,0.0019
3577.00,0.0020
3576.00,0.0020
3575.00,0.0020
3574.00,0.0020
3573.00,0.0020
3572.00,0.0021
3571.00,0.0021
3570.00,0.0021
3569.00,0.0021
3568.00,0.0021
3567.00,0.0021
3566.00,0.0021
3565.00,0.0021
3564.00,0.0022
3563.00,0.0022
3562.00,0.0023
3561.00,0.0023
3560.00,0.0024
3559.00,0.0024
3558.00,0.0025
3557.00,0.0025
3556.00,0.0025
3555.00,0.0025
3554.00,0.0025
3553.00,0.0025
3552.00,0.0025
3551.00,0.0026
3550.00,0.0026
3549.00,0.0027
3548.00,0.0027
3547.00,0.0027
3546.00,0.0027
3545.00,0.0027
3544.00,0.0027
3543.00,0.0027
3542.00,0.0028
3541.00,0.0028
3540.00,0.0029
3539.00,0.0030
3538.00,0.0031
3537.00,0.0031
3536.00,0.0031
3535.00,0.0031
3534.00,0.0031
3533.00,0.0031
3532.00,0.0031
3531.00,0.0032
3530.00,0.0032
3529.00,0.0033
3528.00,0.0033
3527.00,0.0033
3526.00,0.0034
3525.00,0.0034
3524.00,0.0035
3523.00,0.0035
3522.00,0.0035
3521.00,0.0036
3520.00,0.0036
3519.00,0.0036
3518.00,0.0036
3517.00,0.0036
3516.00,0.0037
3515.00,0.0037
3514.00,0.0037
3513.00,0.0038
3512.00,0.0038
3511.00,0.0039
3510.00,0.0039
3509.00,0.0039
3508.00,0.0039
3507.00,0.0040
3506.00,0.0040
3505.00,0.0041
3504.00,0.0041
3503.00,0.0041
3502.00,0.0042
3501.00,0.0042
3500.00,0.0042
3499.00,0.0043
3498.00,0.0043
3497.00,0.0043
3496.00,0.0043
3495.00,0.0044
3494.00,0.0044
3493.00,0.0045
3492.00,0.0045
3491.00,0.0045
3490.00,0.0045
3489.00,0.0045
3488.00,0.0046
3487.00,0.0046
3486.00,0.0047
3485.00,0.0047
3484.00,0.0047
3483.00,0.0047
3482.00,0.0047
3481.00,0.0047
3480.00,0.0048
3479.00,0.0049
3478.00,0.0050
3477.00,0.0050
3476.00,0.0050
3475.00,0.0051
3474.00,0.0051
3473.00,0.0051
3472.00,0.0052
3471.00,0.0052
3470.00,0.0052
3469.00,0.0052
3468.00,0.0052
3467.00,0.0052
3466.00,0.0053
3465.00,0.0053
3464.00,0.0053
3463.00,0.0054
3462.00,0.0054
3461.00,0.0054
3460.00,0.0055
3459.00,0.0055
3458.00,0.0055
3457.00,0.0055
3456.00,0.0055
3455.00,0.0056
3454.00,0.0056
3453.00,0.0056
3452.00,0.0057
3451.00,0.0058
3450.00,0.0059
3449.00,0.0059
3448.00,0.0059
3447.00,0.0060
3446.00,0.0059
3445.00,0.0059
3444.00,0.0060
3443.00,0.0060
3442.00,0.0060
3441.00,0.0061
3440.00,0.0061
3439.00,0.0062
3438.00,0.0062
3437.00,0.0063
3436.00,0.0063
3435.00,0.0063
3434.00,0.0064
3433.00,0.0064
3432.00,0.0064
3431.00,0.0064
3430.00,0.0065
3429.00,0.0065
3428.00,0.0066
3427.00,0.0067
3426.00,0.0068
3425.00,0.0068
3424.00,0.0068
3423.00,0.0068
3422.00,0.0068
3421.00,0.0068
3420.00,0.0069
3419.00,0.0069
3418.00,0.0070
3417.00,0.0070
3416.00,0.0070
3415.00,0.0071
3414.00,0.0071
3413.00,0.0071
3412.00,0.0072
3411.00,0.0072
3410.00,0.0073
3409.00,0.0073
3408.00,0.0074
3407.00,0.0074
3406.00,0.0074
3405.00,0.0074
3404.00,0.0075
3403.00,0.0075
3402.00,0.0075
3401.00,0.0076
3400.00,0.0076
3399.00,0.0076
3398.00,0.0077
3397.00,0.0077
3396.00,0.0077
3395.00,0.0077
3394.00,0.0077
3393.00,0.0077
3392.00,0.0077
3391.00,0.0076
3390.00,0.0076
3389.00,0.0076
3388.00,0.0077
3387.00,0.0077
3386.00,0.0077
3385.00,0.0077
3384.00,0.0077
3383.00,0.0078
3382.00,0.0078
3381.00,0.0078
3380.00,0.0078
3379.00,0.0078
3378.00,0.0078
3377.00,0.0078
3376.00,0.0079
3375.00,0.0079
3374.00,0.0079
3373.00,0.0079
3372.00,0.0079
3371.00,0.0079
3370.00,0.0079
3369.00,0.0079
3368.00,0.0079
3367.00,0.0079
3366.00,0.0079
3365.00,0.0080
3364.00,0.0080
3363.00,0.0080
3362.00,0.0081
3361.00,0.0081
3360.00,0.0081
3359.00,0.0081
3358.00,0.0081
3357.00,0.0081
3356.00,0.0081
3355.00,0.0081
3354.00,0.0082
3353.00,0.0082
3352.00,0.0082
3351.00,0.0082
3350.00,0.0082
3349.00,0.0082
3348.00,0.0082
3347.00,0.0082
3346.00,0.0082
3345.00,0.0083
3344.00,0.0083
3343.00,0.0084
3342.00,0.0084
3341.00,0.0085
3340.00,0.0085
3339.00,0.0085
3338.00,0.0084
3337.00,0.0084
3336.00,0.0085
3335.00,0.0085
3334.00,0.0086
3333.00,0.0086
3332.00,0.0086
3331.00,0.0086
3330.00,0.0086
3329.00,0.0086
3328.00,0.0087
3327.00,0.0087
3326.00,0.0087
3325.00,0.0088
3324.00,0.0088
3323.00,0.0089
3322.00,0.0089
3321.00,0.0090
3320.00,0.0090
3319.00,0.0090
3318.00,0.0090
3317.00,0.0090
3316.00,0.0090
3315.00,0.0090
3314.00,0.0090
3313.00,0.0091
3312.00,0.0091
3311.00,0.0091
3310.00,0.0091
3309.00,0.0090
3308.00,0.0090
3307.00,0.0090
3306.00,0.0089
3305.00,0.0089
3304.00,0.0089
3303.00,0.0089
3302.00,0.0089
3301.00,0.0089
3300.00,0.0089
3299.00,0.0088
3298.00,0.0088
3297.00,0.0087
3296.00,0.0087
3295.00,0.0087
3294.00,0.0086
3293.00,0.0086
3292.00,0.0086
3291.00,0.0086
3290.00,0.0086
3289.00,0.0086
3288.00,0.0085
3287.00,0.0085
3286.00,0.0085
3285.00,0.0084
3284.00,0.0084
3283.00,0.0084
3282.00,0.0084
3281.00,0.0084
3280.00,0.0084
3279.00,0.0084
3278.00,0.0084
3277.00,0.0083
3276.00,0.0083
3275.00,0.0082
3274.00,0.0081
3273.00,0.0081
3272.00,0.0081
3271.00,0.0081
3270.00,0.0080
3269.00,0.0080
3268.00,0.0079
3267.00,0.0079
3266.00,0.0079
3265.00,0.0079
3264.00,0.0078
3263.00,0.0078
3262.00,0.0078
3261.00,0.0078
3260.00,0.0078
3259.00,0.0078
3258.00,0.0077
3257.00,0.0077
3256.00,0.0076
3255.00,0.0076
3254.00,0.0076
3253.00,0.0075
3252.00,0.0075
3251.00,0.0074
3250.00,0.0074
3249.00,0.0074
3248.00,0.0074
3247.00,0.0074
3246.00,0.0074
3245.00,0.0073
3244.00,0.0073
3243.00,0.0073
3242.00,0.0073
3241.00,0.0073
3240.00,0.0073
3239.00,0.0072
3238.00,0.0072
3237.00,0.0072
3236.00,0.0072
3235.00,0.0073
3234.00,0.0073
3233.00,0.0073
3232.00,0.0073
3231.00,0.0073
3230.00,0.0073
3229.00,0.0073
3228.00,0.0073
3227.00,0.0073
3226.00,0.0073
3225.00,0.0074
3224.00,0.0074
3223.00,0.0074
3222.00,0.0074
3221.00,0.0075
3220.00,0.0075
3219.00,0.0076
3218.00,0.0077
3217.00,0.0077
3216.00,0.0078
3215.00,0.0078
3214.00,0.0078
3213.00,0.0078
3212.00,0.0078
3211.00,0.0079
3210.00,0.0079
3209.00,0.0080
3208.00,0.0081
3207.00,0.0082
3206.00,0.0082
3205.00,0.0082
3204.00,0.0082
3203.00,0.0081
3202.00,0.0081
3201.00,0.0080
3200.00,0.0080
3199.00,0.0080
3198.00,0.0080
3197.00,0.0081
3196.00,0.0081
3195.00,0.0081
3194.00,0.0081
3193.00,0.0080
3192.00,0.0080
3191.00,0.0079
3190.00,0.0079
3189.00,0.0078
3188.00,0.0078
3187.00,0.0077
3186.00,0.0077
3185.00,0.0077
3184.00,0.0077
3183.00,0.0077
3182.00,0.0076
3181.00,0.0076
3180.00,0.0075
3179.00,0.0074
3178.00,0.0074
3177.00,0.0073
3176.00,0.0073
3175.00,0.0073
3174.00,0.0072
3173.00,0.0071
3172.00,0.0071
3171.00,0.0070
3170.00,0.0070
3169.00,0.0069
3168.00,0.0069
3167.00,0.0068
3166.00,0.0067
3165.00,0.0067
3164.00,0.0067
3163.00,0.0067
3162.00,0.0067
3161.00,0.0067
3160.00,0.0067
3159.00,0.0066
3158.00,0.0066
3157.00,0.0066
3156.00,0.0066
3155.00,0.0065
3154.00,0.0065
3153.00,0.0065
3152.00,0.0065
3151.00,0.0065
3150.00,0.0065
3149.00,0.0065
3148.00,0.0065
3147.00,0.0064
3146.00,0.0064
3145.00,0.0063
3144.00,0.0063
3143.00,0.0063
3142.00,0.0063
3141.00,0.0063
3140.00,0.0063
3139.00,0.0063
3138.00,0.0063
3137.00,0.0062
3136.00,0.0062
3135.00,0.0061
3134.00,0.0061
3133.00,0.0061
3132.00,0.0061
3131.00,0.0061
3130.00,0.0060
3129.00,0.0060
3128.00,0.0060
3127.00,0.0060
3126.00,0.0060
3125.00,0.0060
3124.00,0.0060
3123.00,0.0060
3122.00,0.0059
3121.00,0.0059
3120.00,0.0058
3119.00,0.0058
3118.00,0.0058
3117.00,0.0057
3116.00,0.0057
3115.00,0.0057
3114.00,0.0056
3113.00,0.0055
3112.00,0.0055
3111.00,0.0054
3110.00,0.0054
3109.00,0.0054
3108.00,0.0054
3107.00,0.0053
3106.00,0.0053
3105.00,0.0052
3104.00,0.0052
3103.00,0.0052
3102.00,0.0053
3101.00,0.0053
3100.00,0.0052
3099.00,0.0052
3098.00,0.0051
3097.00,0.0051
3096.00,0.0050
3095.00,0.0050
3094.00,0.0050
3093.00,0.0049
3092.00,0.0049
3091.00,0.0049
3090.00,0.0048
3089.00,0.0048
3088.00,0.0048
3087.00,0.0048
3086.00,0.0047
3085.00,0.0047
3084.00,0.0047
3083.00,0.0046
3082.00,0.0046
3081.00,0.0046
3080.00,0.0046
3079.00,0.0046
3078.00,0.0046
3077.00,0.0047
3076.00,0.0047
3075.00,0.0047
3074.00,0.0048
3073.00,0.0048
3072.00,0.0048
3071.00,0.0047
3070.00,0.0047
3069.00,0.0047
3068.00,0.0047
3067.00,0.0047
3066.00,0.0047
3065.00,0.0047
3064.00,0.0048
3063.00,0.0048
3062.00,0.0048
3061.00,0.0047
3060.00,0.0047
3059.00,0.0047
3058.00,0.0047
3057.00,0.0047
3056.00,0.0047
3055.00,0.0047
3054.00,0.0047
3053.00,0.0047
3052.00,0.0047
3051.00,0.0048
3050.00,0.0048
3049.00,0.0048
3048.00,0.0047
3047.00,0.0047
3046.00,0.0047
3045.00,0.0047
3044.00,0.0048
3043.00,0.0048
3042.00,0.0048
3041.00,0.0048
3040.00,0.0048
3039.00,0.0048
3038.00,0.0049
3037.00,0.0049
3036.00,0.0049
3035.00,0.0049
3034.00,0.0050
3033.00,0.0050
3032.00,0.0051
3031.00,0.0051
3030.00,0.0052
3029.00,0.0052
3028.00,0.0052
3027.00,0.0053
3026.00,0.0053
3025.00,0.0053
3024.00,0.0054
3023.00,0.0054
3022.00,0.0055
3021.00,0.0056
3020.00,0.0057
3019.00,0.0058
3018.00,0.0059
3017.00,0.0060
3016.00,0.0060
3015.00,0.0061
3014.00,0.0062
3013.00,0.0063
3012.00,0.0065
3011.00,0.0067
3010.00,0.0068
3009.00,0.0070
3008.00,0.0072
3007.00,0.0073
3006.00,0.0075
3005.00,0.0077
3004.00,0.0078
3003.00,0.0080
3002.00,0.0083
3001.00,0.0085
3000.00,0.0088
2999.00,0.0090
2998.00,0.0093
2997.00,0.0097
2996.00,0.0100
2995.00,0.0103
2994.00,0.0107
2993.00,0.0112
2992.00,0.0117
2991.00,0.0123
2990.00,0.0129
2989.00,0.0135
2988.00,0.0143
2987.00,0.0151
2986.00,0.0161
2985.00,0.0171
2984.00,0.0183
2983.00,0.0197
2982.00,0.0211
2981.00,0.0227
2980.00,0.0246
2979.00,0.0266
2978.00,0.0290
2977.00,0.0316
2976.00,0.0346
2975.00,0.0380
2974.00,0.0418
2973.00,0.0462
2972.00,0.0511
2971.00,0.0566
2970.00,0.0627
2969.00,0.0693
2968.00,0.0765
2967.00,0.0840
2966.00,0.0917
2965.00,0.0993
2964.00,0.1066
2963.00,0.1132
2962.00,0.1190
2961.00,0.1239
2960.00,0.1281
2959.00,0.1321
2958.00,0.1363
2957.00,0.1415
2956.00,0.1479
2955.00,0.1558
2954.00,0.1649
2953.00,0.1746
2952.00,0.1840
2951.00,0.1919
2950.00,0.1969
2949.00,0.1981
2948.00,0.1945
2947.00,0.1865
2946.00,0.1748
2945.00,0.1611
2944.00,0.1471
2943.00,0.1343
2942.00,0.1237
2941.00,0.1159
2940.00,0.1109
2939.00,0.1085
2938.00,0.1083
2937.00,0.1102
2936.00,0.1140
2935.00,0.1194
2934.00,0.1264
2933.00,0.1348
2932.00,0.1445
2931.00,0.1552
2930.00,0.1667
2929.00,0.1786
2928.00,0.1907
2927.00,0.2025
2926.00,0.2139
2925.00,0.2248
2924.00,0.2354
2923.00,0.2459
2922.00,0.2564
2921.00,0.2667
2920.00,0.2762
2919.00,0.2838
2918.00,0.2883
2917.00,0.2889
2916.00,0.2852
2915.00,0.2776
2914.00,0.2672
2913.00,0.2553
2912.00,0.2430
2911.00,0.2311
2910.00,0.2200
2909.00,0.2098
2908.00,0.2004
2907.00,0.1915
2906.00,0.1829
2905.00,0.1746
2904.00,0.1666
2903.00,0.1587
2902.00,0.1512
2901.00,0.1440
2900.00,0.1373
2899.00,0.1309
2898.00,0.1252
2897.00,0.1200
2896.00,0.1155
2895.00,0.1117
2894.00,0.1086
2893.00,0.1063
2892.00,0.1047
2891.00,0.1037
2890.00,0.1034
2889.00,0.1036
2888.00,0.1042
2887.00,0.1051
2886.00,0.1064
2885.00,0.1081
2884.00,0.1103
2883.00,0.1130
2882.00,0.1163
2881.00,0.1200
2880.00,0.1236
2879.00,0.1268
2878.00,0.1291
2877.00,0.1302
2876.00,0.1302
2875.00,0.1294
2874.00,0.1285
2873.00,0.1281
2872.00,0.1285
2871.00,0.1300
2870.00,0.1322
2869.00,0.1346
2868.00,0.1365
2867.00,0.1369
2866.00,0.1347
2865.00,0.1296
2864.00,0.1217
2863.00,0.1118
2862.00,0.1012
2861.00,0.0911
2860.00,0.0823
2859.00,0.0750
2858.00,0.0695
2857.00,0.0653
2856.00,0.0624
2855.00,0.0605
2854.00,0.0594
2853.00,0.0590
2852.00,0.0593
2851.00,0.0603
2850.00,0.0620
2849.00,0.0644
2848.00,0.0676
2847.00,0.0717
2846.00,0.0766
2845.00,0.0824
2844.00,0.0891
2843.00,0.0963
2842.00,0.1037
2841.00,0.1108
2840.00,0.1168
2839.00,0.1208
2838.00,0.1219
2837.00,0.1197
2836.00,0.1140
2835.00,0.1055
2834.00,0.0951
2833.00,0.0840
2832.00,0.0734
2831.00,0.0640
2830.00,0.0560
2829.00,0.0494
2828.00,0.0441
2827.00,0.0398
2826.00,0.0364
2825.00,0.0336
2824.00,0.0312
2823.00,0.0292
2822.00,0.0276
2821.00,0.0261
2820.00,0.0249
2819.00,0.0238
2818.00,0.0228
2817.00,0.0220
2816.00,0.0213
2815.00,0.0207
2814.00,0.0201
2813.00,0.0195
2812.00,0.0190
2811.00,0.0184
2810.00,0.0179
2809.00,0.0173
2808.00,0.0167
2807.00,0.0160
2806.00,0.0153
2805.00,0.0146
2804.00,0.0140
2803.00,0.0134
2802.00,0.0129
2801.00,0.0124
2800.00,0.0120
2799.00,0.0116
2798.00,0.0113
2797.00,0.0111
2796.00,0.0109
2795.00,0.0106
2794.00,0.0104
2793.00,0.0101
2792.00,0.0098
2791.00,0.0096
2790.00,0.0093
2789.00,0.0090
2788.00,0.0088
2787.00,0.0086
2786.00,0.0083
2785.00,0.0081
2784.00,0.0078
2783.00,0.0076
2782.00,0.0074
2781.00,0.0072
2780.00,0.0070
2779.00,0.0069
2778.00,0.0067
2777.00,0.0066
2776.00,0.0065
2775.00,0.0064
2774.00,0.0063
2773.00,0.0062
2772.00,0.0062
2771.00,0.0061
2770.00,0.0061
2769.00,0.0060
2768.00,0.0060
2767.00,0.0060
2766.00,0.0060
2765.00,0.0060
2764.00,0.0059
2763.00,0.0059
2762.00,0.0058
2761.00,0.0058
2760.00,0.0058
2759.00,0.0057
2758.00,0.0057
2757.00,0.0057
2756.00,0.0057
2755.00,0.0057
2754.00,0.0057
2753.00,0.0057
2752.00,0.0057
2751.00,0.0057
2750.00,0.0057
2749.00,0.0056
2748.00,0.0056
2747.00,0.0056
2746.00,0.0057
2745.00,0.0057
2744.00,0.0058
2743.00,0.0059
2742.00,0.0061
2741.00,0.0062
2740.00,0.0063
2739.00,0.0065
2738.00,0.0066
2737.00,0.0068
2736.00,0.0069
2735.00,0.0071
2734.00,0.0072
2733.00,0.0074
2732.00,0.0076
2731.00,0.0078
2730.00,0.0080
2729.00,0.0083
2728.00,0.0086
2727.00,0.0089
2726.00,0.0092
2725.00,0.0094
2724.00,0.0096
2723.00,0.0096
2722.00,0.0095
2721.00,0.0093
2720.00,0.0091
2719.00,0.0087
2718.00,0.0083
2717.00,0.0079
2716.00,0.0076
2715.00,0.0073
2714.00,0.0071
2713.00,0.0068
2712.00,0.0066
2711.00,0.0065
2710.00,0.0063
2709.00,0.0061
2708.00,0.0060
2707.00,0.0058
2706.00,0.0057
2705.00,0.0056
2704.00,0.0054
2703.00,0.0053
2702.00,0.0052
2701.00,0.0051
2700.00,0.0051
2699.00,0.0050
2698.00,0.0049
2697.00,0.0049
2696.00,0.0048
2695.00,0.0048
2694.00,0.0048
2693.00,0.0047
2692.00,0.0047
2691.00,0.0047
2690.00,0.0047
2689.00,0.0048
2688.00,0.0048
2687.00,0.0048
2686.00,0.0048
2685.00,0.0049
2684.00,0.0049
2683.00,0.0049
2682.00,0.0049
2681.00,0.0049
2680.00,0.0049
2679.00,0.0049
2678.00,0.0049
2677.00,0.0049
2676.00,0.0049
2675.00,0.0049
2674.00,0.0049
2673.00,0.0048
2672.00,0.0048
2671.00,0.0048
2670.00,0.0048
2669.00,0.0048
2668.00,0.0048
2667.00,0.0048
2666.00,0.0048
2665.00,0.0049
2664.00,0.0050
2663.00,0.0050
2662.00,0.0051
2661.00,0.0052
2660.00,0.0052
2659.00,0.0052
2658.00,0.0051
2657.00,0.0051
2656.00,0.0051
2655.00,0.0050
2654.00,0.0050
2653.00,0.0049
2652.00,0.0049
2651.00,0.0048
2650.00,0.0047
2649.00,0.0046
2648.00,0.0046
2647.00,0.0045
2646.00,0.0045
2645.00,0.0044
2644.00,0.0044
2643.00,0.0043
2642.00,0.0042
2641.00,0.0042
2640.00,0.0041
2639.00,0.0041
2638.00,0.0042
2637.00,0.0042
2636.00,0.0042
2635.00,0.0042
2634.00,0.0041
2633.00,0.0041
2632.00,0.0041
2631.00,0.0041
2630.00,0.0041
2629.00,0.0041
2628.00,0.0042
2627.00,0.0042
2626.00,0.0042
2625.00,0.0042
2624.00,0.0042
2623.00,0.0042
2622.00,0.0042
2621.00,0.0042
2620.00,0.0042
2619.00,0.0042
2618.00,0.0043
2617.00,0.0043
2616.00,0.0043
2615.00,0.0043
2614.00,0.0043
2613.00,0.0043
2612.00,0.0043
2611.00,0.0042
2610.00,0.0042
2609.00,0.0041
2608.00,0.0040
2607.00,0.0039
2606.00,0.0038
2605.00,0.0038
2604.00,0.0037
2603.00,0.0037
2602.00,0.0036
2601.00,0.0035
2600.00,0.0035
2599.00,0.0034
2598.00,0.0034
2597.00,0.0035
2596.00,0.0036
2595.00,0.0036
2594.00,0.0037
2593.00,0.0037
2592.00,0.0037
2591.00,0.0038
2590.00,0.0039
2589.00,0.0040
2588.00,0.0040
2587.00,0.0041
2586.00,0.0041
2585.00,0.0042
2584.00,0.0043
2583.00,0.0043
2582.00,0.0043
2581.00,0.0043
2580.00,0.0043
2579.00,0.0043
2578.00,0.0042
2577.00,0.0040
2576.00,0.0039
2575.00,0.0038
2574.00,0.0036
2573.00,0.0035
2572.00,0.0033
2571.00,0.0032
2570.00,0.0031
2569.00,0.0030
2568.00,0.0030
2567.00,0.0029
2566.00,0.0029
2565.00,0.0029
2564.00,0.0029
2563.00,0.0028
2562.00,0.0028
2561.00,0.0028
2560.00,0.0028
2559.00,0.0028
2558.00,0.0028
2557.00,0.0027
2556.00,0.0026
2555.00,0.0026
2554.00,0.0026
2553.00,0.0025
2552.00,0.0025
2551.00,0.0025
2550.00,0.0024
2549.00,0.0024
2548.00,0.0023
2547.00,0.0023
2546.00,0.0022
2545.00,0.0021
2544.00,0.0021
2543.00,0.0020
2542.00,0.0020
2541.00,0.0020
2540.00,0.0019
2539.00,0.0019
2538.00,0.0019
2537.00,0.0019
2536.00,0.0018
2535.00,0.0018
2534.00,0.0018
2533.00,0.0017
2532.00,0.0017
2531.00,0.0016
2530.00,0.0016
2529.00,0.0015
2528.00,0.0016
2527.00,0.0016
2526.00,0.0016
2525.00,0.0016
2524.00,0.0016
2523.00,0.0016
2522.00,0.0015
2521.00,0.0014
2520.00,0.0013
2519.00,0.0013
2518.00,0.0013
2517.00,0.0013
2516.00,0.0013
2515.00,0.0013
2514.00,0.0013
2513.00,0.0013
2512.00,0.0013
2511.00,0.0013
2510.00,0.0013
2509.00,0.0013
2508.00,0.0013
2507.00,0.0012
2506.00,0.0012
2505.00,0.0012
2504.00,0.0012
2503.00,0.0012
2502.00,0.0012
2501.00,0.0013
2500.00,0.0013
2499.00,0.0013
2498.00,0.0013
2497.00,0.0013
2496.00,0.0014
2495.00,0.0014
2494.00,0.0013
2493.00,0.0013
2492.00,0.0013
2491.00,0.0013
2490.00,0.0013
2489.00,0.0013
2488.00,0.0013
2487.00,0.0013
2486.00,0.0013
2485.00,0.0014
2484.00,0.0014
2483.00,0.0014
2482.00,0.0013
2481.00,0.0012
2480.00,0.0012
2479.00,0.0011
2478.00,0.0011
2477.00,0.0012
2476.00,0.0013
2475.00,0.0013
2474.00,0.0014
2473.00,0.0014
2472.00,0.0014
2471.00,0.0013
2470.00,0.0012
2469.00,0.0012
2468.00,0.0011
2467.00,0.0011
2466.00,0.0011
2465.00,0.0011
2464.00,0.0012
2463.00,0.0012
2462.00,0.0012
2461.00,0.0013
2460.00,0.0013
2459.00,0.0014
2458.00,0.0014
2457.00,0.0013
2456.00,0.0013
2455.00,0.0012
2454.00,0.0012
2453.00,0.0012
2452.00,0.0012
2451.00,0.0012
2450.00,0.0012
2449.00,0.0012
2448.00,0.0013
2447.00,0.0013
2446.00,0.0012
2445.00,0.0012
2444.00,0.0011
2443.00,0.0011
2442.00,0.0010
2441.00,0.0011
2440.00,0.0011
2439.00,0.0012
2438.00,0.0012
2437.00,0.0013
2436.00,0.0013
2435.00,0.0013
2434.00,0.0014
2433.00,0.0014
2432.00,0.0014
2431.00,0.0014
2430.00,0.0014
2429.00,0.0014
2428.00,0.0013
2427.00,0.0013
2426.00,0.0013
2425.00,0.0012
2424.00,0.0012
2423.00,0.0012
2422.00,0.0012
2421.00,0.0012
2420.00,0.0012
2419.00,0.0012
2418.00,0.0012
2417.00,0.0012
2416.00,0.0012
2415.00,0.0012
2414.00,0.0011
2413.00,0.0011
2412.00,0.0012
2411.00,0.0013
2410.00,0.0013
2409.00,0.0013
2408.00,0.0012
2407.00,0.0011
2406.00,0.0011
2405.00,0.0010
2404.00,0.0010
2403.00,0.0010
2402.00,0.0010
2401.00,0.0011
2400.00,0.0011
2399.00,0.0011
2398.00,0.0011
2397.00,0.0011
2396.00,0.0012
2395.00,0.0012
2394.00,0.0011
2393.00,0.0011
2392.00,0.0011
2391.00,0.0011
2390.00,0.0010
2389.00,0.0010
2388.00,0.0010
2387.00,0.0010
2386.00,0.0009
2385.00,0.0009
2384.00,0.0009
2383.00,0.0008
2382.00,0.0007
2381.00,0.0007
2380.00,0.0006
2379.00,0.0006
2378.00,0.0006
2377.00,0.0007
2376.00,0.0007
2375.00,0.0007
2374.00,0.0008
2373.00,0.0008
2372.00,0.0008
2371.00,0.0008
2370.00,0.0008
2369.00,0.0008
2368.00,0.0007
2367.00,0.0007
2366.00,0.0006
2365.00,0.0007
2364.00,0.0007
2363.00,0.0008
2362.00,0.0008
2361.00,0.0008
2360.00,0.0009
2359.00,0.0010
2358.00,0.0011
2357.00,0.0011
2356.00,0.0011
2355.00,0.0010
2354.00,0.0009
2353.00,0.0009
2352.00,0.0009
2351.00,0.0009
2350.00,0.0009
2349.00,0.0008
2348.00,0.0008
2347.00,0.0008
2346.00,0.0009
2345.00,0.0010
2344.00,0.0011
2343.00,0.0011
2342.00,0.0011
2341.00,0.0011
2340.00,0.0011
2339.00,0.0011
2338.00,0.0010
2337.00,0.0010
2336.00,0.0010
2335.00,0.0010
2334.00,0.0009
2333.00,0.0009
2332.00,0.0009
2331.00,0.0009
2330.00,0.0009
2329.00,0.0010
2328.00,0.0012
2327.00,0.0015
2326.00,0.0019
2325.00,0.0023
2324.00,0.0025
2323.00,0.0024
2322.00,0.0022
2321.00,0.0020
2320.00,0.0019
2319.00,0.0018
2318.00,0.0018
2317.00,0.0017
2316.00,0.0017
2315.00,0.0016
2314.00,0.0015
2313.00,0.0014
2312.00,0.0013
2311.00,0.0013
2310.00,0.0012
2309.00,0.0012
2308.00,0.0013
2307.00,0.0014
2306.00,0.0014
2305.00,0.0015
2304.00,0.0016
2303.00,0.0016
2302.00,0.0015
2301.00,0.0015
2300.00,0.0014
2299.00,0.0013
2298.00,0.0014
2297.00,0.0014
2296.00,0.0015
2295.00,0.0015
2294.00,0.0015
2293.00,0.0016
2292.00,0.0017
2291.00,0.0017
2290.00,0.0018
2289.00,0.0019
2288.00,0.0020
2287.00,0.0020
2286.00,0.0021
2285.00,0.0020
2284.00,0.0020
2283.00,0.0019
2282.00,0.0019
2281.00,0.0019
2280.00,0.0019
2279.00,0.0018
2278.00,0.0018
2277.00,0.0016
2276.00,0.0015
2275.00,0.0014
2274.00,0.0014
2273.00,0.0015
2272.00,0.0016
2271.00,0.0017
2270.00,0.0017
2269.00,0.0016
2268.00,0.0014
2267.00,0.0011
2266.00,0.0010
2265.00,0.0010
2264.00,0.0011
2263.00,0.0012
2262.00,0.0013
2261.00,0.0014
2260.00,0.0015
2259.00,0.0016
2258.00,0.0016
2257.00,0.0015
2256.00,0.0014
2255.00,0.0013
2254.00,0.0012
2253.00,0.0012
2252.00,0.0011
2251.00,0.0010
2250.00,0.0009
2249.00,0.0009
2248.00,0.0009
2247.00,0.0009
2246.00,0.0009
2245.00,0.0009
2244.00,0.0011
2243.00,0.0013
2242.00,0.0013
2241.00,0.0012
2240.00,0.0010
2239.00,0.0009
2238.00,0.0010
2237.00,0.0011
2236.00,0.0012
2235.00,0.0013
2234.00,0.0013
2233.00,0.0012
2232.00,0.0011
2231.00,0.0010
2230.00,0.0010
2229.00,0.0010
2228.00,0.0010
2227.00,0.0009
2226.00,0.0008
2225.00,0.0008
2224.00,0.0008
2223.00,0.0008
2222.00,0.0008
2221.00,0.0009
2220.00,0.0010
2219.00,0.0010
2218.00,0.0008
2217.00,0.0007
2216.00,0.0006
2215.00,0.0005
2214.00,0.0005
2213.00,0.0005
2212.00,0.0004
2211.00,0.0004
2210.00,0.0004
2209.00,0.0006
2208.00,0.0007
2207.00,0.0008
2206.00,0.0007
2205.00,0.0006
2204.00,0.0006
2203.00,0.0007
2202.00,0.0008
2201.00,0.0009
2200.00,0.0009
2199.00,0.0009
2198.00,0.0008
2197.00,0.0007
2196.00,0.0008
2195.00,0.0009
2194.00,0.0010
2193.00,0.0010
2192.00,0.0010
2191.00,0.0009
2190.00,0.0010
2189.00,0.0010
2188.00,0.0010
2187.00,0.0011
2186.00,0.0011
2185.00,0.0010
2184.00,0.0007
2183.00,0.0003
2182.00,-0.0000
2181.00,-0.0001
2180.00,0.0001
2179.00,0.0003
2178.00,0.0006
2177.00,0.0007
2176.00,0.0007
2175.00,0.0006
2174.00,0.0006
2173.00,0.0007
2172.00,0.0008
2171.00,0.0009
2170.00,0.0011
2169.00,0.0013
2168.00,0.0014
2167.00,0.0013
2166.00,0.0011
2165.00,0.0011
2164.00,0.0012
2163.00,0.0015
2162.00,0.0016
2161.00,0.0012
2160.00,0.0002
2159.00,-0.0013
2158.00,-0.0027
2157.00,-0.0034
2156.00,-0.0035
2155.00,-0.0032
2154.00,-0.0028
2153.00,-0.0024
2152.00,-0.0019
2151.00,-0.0016
2150.00,-0.0014
2149.00,-0.0012
2148.00,-0.0010
2147.00,-0.0008
2146.00,-0.0007
2145.00,-0.0008
2144.00,-0.0009
2143.00,-0.0010
2142.00,-0.0010
2141.00,-0.0009
2140.00,-0.0009
2139.00,-0.0010
2138.00,-0.0012
2137.00,-0.0014
2136.00,-0.0014
2135.00,-0.0015
2134.00,-0.0015
2133.00,-0.0015
2132.00,-0.0014
2131.00,-0.0012
2130.00,-0.0010
2129.00,-0.0008
2128.00,-0.0008
2127.00,-0.0007
2126.00,-0.0006
2125.00,-0.0005
2124.00,-0.0003
2123.00,-0.0002
2122.00,-0.0002
2121.00,-0.0002
2120.00,-0.0002
2119.00,-0.0002
2118.00,-0.0001
2117.00,-0.0000
2116.00,0.0001
2115.00,0.0003
2114.00,0.0004
2113.00,0.0005
2112.00,0.0005
2111.00,0.0004
2110.00,0.0003
2109.00,0.0003
2108.00,0.0003
2107.00,0.0002
2106.00,0.0001
2105.00,0.0001
2104.00,0.0003
2103.00,0.0004
2102.00,0.0005
2101.00,0.0005
2100.00,0.0004
2099.00,0.0002
2098.00,0.0001
2097.00,-0.0001
2096.00,-0.0002
2095.00,-0.0002
2094.00,-0.0002
2093.00,-0.0001
2092.00,0.0001
2091.00,0.0003
2090.00,0.0004
2089.00,0.0005
2088.00,0.0004
2087.00,0.0004
2086.00,0.0004
2085.00,0.0004
2084.00,0.0005
2083.00,0.0006
2082.00,0.0006
2081.00,0.0007
2080.00,0.0007
2079.00,0.0006
2078.00,0.0005
2077.00,0.0005
2076.00,0.0005
2075.00,0.0006
2074.00,0.0006
2073.00,0.0005
2072.00,0.0005
2071.00,0.0004
2070.00,0.0004
2069.00,0.0003
2068.00,0.0003
2067.00,0.0001
2066.00,-0.0001
2065.00,-0.0002
2064.00,-0.0000
2063.00,0.0001
2062.00,0.0002
2061.00,0.0002
2060.00,0.0000
2059.00,-0.0001
2058.00,-0.0000
2057.00,0.0002
2056.00,0.0003
2055.00,0.0003
2054.00,0.0003
2053.00,0.0006
2052.00,0.0011
2051.00,0.0016
2050.00,0.0017
2049.00,0.0013
2048.00,0.0007
2047.00,0.0003
2046.00,0.0001
2045.00,0.0002
2044.00,0.0002
2043.00,0.0002
2042.00,0.0002
2041.00,0.0003
2040.00,0.0004
2039.00,0.0006
2038.00,0.0007
2037.00,0.0008
2036.00,0.0007
2035.00,0.0005
2034.00,0.0001
2033.00,-0.0001
2032.00,-0.0002
2031.00,-0.0002
2030.00,-0.0003
2029.00,-0.0004
2028.00,-0.0005
2027.00,-0.0006
2026.00,-0.0007
2025.00,-0.0007
2024.00,-0.0007
2023.00,-0.0009
2022.00,-0.0011
2021.00,-0.0013
2020.00,-0.0013
2019.00,-0.0012
2018.00,-0.0009
2017.00,-0.0004
2016.00,-0.0001
2015.00,-0.0002
2014.00,-0.0007
2013.00,-0.0012
2012.00,-0.0016
2011.00,-0.0017
2010.00,-0.0017
2009.00,-0.0017
2008.00,-0.0017
2007.00,-0.0019
2006.00,-0.0018
2005.00,-0.0015
2004.00,-0.0011
2003.00,-0.0008
2002.00,-0.0009
2001.00,-0.0012
2000.00,-0.0014
1999.00,-0.0014
1998.00,-0.0013
1997.00,-0.0011
1996.00,-0.0010
1995.00,-0.0011
1994.00,-0.0011
1993.00,-0.0009
1992.00,-0.0007
1991.00,-0.0005
1990.00,-0.0005
1989.00,-0.0004
1988.00,-0.0005
1987.00,-0.0005
1986.00,-0.0005
1985.00,-0.0003
1984.00,0.0001
1983.00,0.0006
1982.00,0.0009
1981.00,0.0011
1980.00,0.0009
1979.00,0.0005
1978.00,-0.0002
1977.00,-0.0007
1976.00,-0.0012
1975.00,-0.0016
1974.00,-0.0018
1973.00,-0.0019
1972.00,-0.0016
1971.00,-0.0011
1970.00,-0.0008
1969.00,-0.0008
1968.00,-0.0010
1967.00,-0.0013
1966.00,-0.0016
1965.00,-0.0016
1964.00,-0.0016
1963.00,-0.0015
1962.00,-0.0016
1961.00,-0.0018
1960.00,-0.0021
1959.00,-0.0023
1958.00,-0.0023
1957.00,-0.0021
1956.00,-0.0018
1955.00,-0.0015
1954.00,-0.0014
1953.00,-0.0014
1952.00,-0.0014
1951.00,-0.0015
1950.00,-0.0015
1949.00,-0.0014
1948.00,-0.0013
1947.00,-0.0013
1946.00,-0.0013
1945.00,-0.0013
1944.00,-0.0012
1943.00,-0.0011
1942.00,-0.0010
1941.00,-0.0010
1940.00,-0.0011
1939.00,-0.0012
1938.00,-0.0014
1937.00,-0.0015
1936.00,-0.0013
1935.00,-0.0011
1934.00,-0.0009
1933.00,-0.0007
1932.00,-0.0007
1931.00,-0.0007
1930.00,-0.0008
1929.00,-0.0009
1928.00,-0.0010
1927.00,-0.0010
1926.00,-0.0009
1925.00,-0.0009
1924.00,-0.0009
1923.00,-0.0008
1922.00,-0.0007
1921.00,-0.0006
1920.00,-0.0005
1919.00,-0.0004
1918.00,-0.0003
1917.00,-0.0004
1916.00,-0.0004
1915.00,-0.0004
1914.00,-0.0003
1913.00,-0.0002
1912.00,-0.0001
1911.00,-0.0001
1910.00,-0.0001
1909.00,-0.0002
1908.00,-0.0003
1907.00,-0.0004
1906.00,-0.0004
1905.00,-0.0003
1904.00,-0.0002
1903.00,-0.0001
1902.00,-0.0002
1901.00,-0.0002
1900.00,-0.0002
1899.00,-0.0002
1898.00,-0.0003
1897.00,-0.0003
1896.00,-0.0003
1895.00,-0.0002
1894.00,-0.0001
1893.00,-0.0000
1892.00,-0.0001
1891.00,-0.0001
1890.00,-0.0001
1889.00,-0.0001
1888.00,-0.0000
1887.00,-0.0001
1886.00,-0.0001
1885.00,-0.0002
1884.00,-0.0002
1883.00,-0.0003
1882.00,-0.0003
1881.00,-0.0004
1880.00,-0.0004
1879.00,-0.0003
1878.00,-0.0002
1877.00,-0.0001
1876.00,0.0000
1875.00,0.0001
1874.00,0.0001
1873.00,0.0000
1872.00,-0.0000
1871.00,-0.0001
1870.00,-0.0000
1869.00,0.0001
1868.00,0.0002
1867.00,0.0002
1866.00,0.0002
1865.00,0.0002
1864.00,0.0002
1863.00,0.0002
1862.00,0.0002
1861.00,0.0003
1860.00,0.0003
1859.00,0.0003
1858.00,0.0003
1857.00,0.0003
1856.00,0.0003
1855.00,0.0003
1854.00,0.0002
1853.00,0.0002
1852.00,0.0002
1851.00,0.0002
1850.00,0.0002
1849.00,0.0002
1848.00,0.0002
1847.00,0.0002
1846.00,0.0002
1845.00,0.0002
1844.00,0.0003
1843.00,0.0004
1842.00,0.0004
1841.00,0.0004
1840.00,0.0004
1839.00,0.0003
1838.00,0.0003
1837.00,0.0003
1836.00,0.0004
1835.00,0.0004
1834.00,0.0004
1833.00,0.0004
1832.00,0.0005
1831.00,0.0005
1830.00,0.0005
1829.00,0.0005
1828.00,0.0005
1827.00,0.0005
1826.00,0.0004
1825.00,0.0004
1824.00,0.0004
1823.00,0.0004
1822.00,0.0004
1821.00,0.0003
1820.00,0.0003
1819.00,0.0001
1818.00,0.0001
1817.00,0.0000
1816.00,0.0001
1815.00,0.0001
1814.00,0.0002
1813.00,0.0003
1812.00,0.0003
1811.00,0.0004
1810.00,0.0004
1809.00,0.0004
1808.00,0.0004
1807.00,0.0004
1806.00,0.0005
1805.00,0.0005
1804.00,0.0005
1803.00,0.0005
1802.00,0.0005
1801.00,0.0006
1800.00,0.0006
1799.00,0.0007
1798.00,0.0007
1797.00,0.0007
1796.00,0.0007
1795.00,0.0007
1794.00,0.0007
1793.00,0.0008
1792.00,0.0009
1791.00,0.0009
1790.00,0.0010
1789.00,0.0010
1788.00,0.0010
1787.00,0.0009
1786.00,0.0009
1785.00,0.0009
1784.00,0.0009
1783.00,0.0010
1782.00,0.0010
1781.00,0.0010
1780.00,0.0009
1779.00,0.0009
1778.00,0.0009
1777.00,0.0009
1776.00,0.0009
1775.00,0.0009
1774.00,0.0008
1773.00,0.0008
1772.00,0.0009
1771.00,0.0009
1770.00,0.0010
1769.00,0.0010
1768.00,0.0010
1767.00,0.0011
1766.00,0.0011
1765.00,0.0011
1764.00,0.0011
1763.00,0.0012
1762.00,0.0012
1761.00,0.0013
1760.00,0.0013
1759.00,0.0013
1758.00,0.0013
1757.00,0.0014
1756.00,0.0014
1755.00,0.0015
1754.00,0.0015
1753.00,0.0015
1752.00,0.0016
1751.00,0.0016
1750.00,0.0016
1749.00,0.0017
1748.00,0.0017
1747.00,0.0017
1746.00,0.0016
1745.00,0.0016
1744.00,0.0016
1743.00,0.0016
1742.00,0.0016
1741.00,0.0017
1740.00,0.0018
1739.00,0.0018
1738.00,0.0019
1737.00,0.0019
1736.00,0.0019
1735.00,0.0019
1734.00,0.0019
1733.00,0.0019
1732.00,0.0018
1731.00,0.0017
1730.00,0.0017
1729.00,0.0017
1728.00,0.0017
1727.00,0.0018
1726.00,0.0018
1725.00,0.0019
1724.00,0.0019
1723.00,0.0020
1722.00,0.0020
1721.00,0.0020
1720.00,0.0021
1719.00,0.0022
1718.00,0.0023
1717.00,0.0024
1716.00,0.0024
1715.00,0.0024
1714.00,0.0024
1713.00,0.0024
1712.00,0.0025
1711.00,0.0025
1710.00,0.0025
1709.00,0.0025
1708.00,0.0026
1707.00,0.0026
1706.00,0.0027
1705.00,0.0028
1704.00,0.0028
1703.00,0.0029
1702.00,0.0030
1701.00,0.0031
1700.00,0.0034
1699.00,0.0036
1698.00,0.0036
1697.00,0.0037
1696.00,0.0037
1695.00,0.0038
1694.00,0.0038
1693.00,0.0039
1692.00,0.0039
1691.00,0.0040
1690.00,0.0041
1689.00,0.0043
1688.00,0.0044
1687.00,0.0045
1686.00,0.0045
1685.00,0.0045
1684.00,0.0046
1683.00,0.0047
1682.00,0.0048
1681.00,0.0050
1680.00,0.0051
1679.00,0.0053
1678.00,0.0054
1677.00,0.0055
1676.00,0.0057
1675.00,0.0058
1674.00,0.0059
1673.00,0.0060
1672.00,0.0061
1671.00,0.0062
1670.00,0.0064
1669.00,0.0066
1668.00,0.0067
1667.00,0.0069
1666.00,0.0070
1665.00,0.0071
1664.00,0.0072
1663.00,0.0074
1662.00,0.0076
1661.00,0.0078
1660.00,0.0081
1659.00,0.0083
1658.00,0.0085
1657.00,0.0087
1656.00,0.0089
1655.00,0.0092
1654.00,0.0096
1653.00,0.0102
1652.00,0.0106
1651.00,0.0107
1650.00,0.0107
1649.00,0.0108
1648.00,0.0111
1647.00,0.0115
1646.00,0.0119
1645.00,0.0122
1644.00,0.0124
1643.00,0.0125
1642.00,0.0125
1641.00,0.0126
1640.00,0.0127
1639.00,0.0127
1638.00,0.0127
1637.00,0.0127
1636.00,0.0128
1635.00,0.0128
1634.00,0.0127
1633.00,0.0125
1632.00,0.0123
1631.00,0.0121
1630.00,0.0119
1629.00,0.0118
1628.00,0.0116
1627.00,0.0115
1626.00,0.0114
1625.00,0.0112
1624.00,0.0111
1623.00,0.0110
1622.00,0.0109
1621.00,0.0108
1620.00,0.0107
1619.00,0.0106
1618.00,0.0105
1617.00,0.0105
1616.00,0.0105
1615.00,0.0105
1614.00,0.0104
1613.00,0.0104
1612.00,0.0104
1611.00,0.0105
1610.00,0.0105
1609.00,0.0105
1608.00,0.0105
1607.00,0.0105
1606.00,0.0105
1605.00,0.0105
1604.00,0.0105
1603.00,0.0103
1602.00,0.0102
1601.00,0.0101
1600.00,0.0100
1599.00,0.0099
1598.00,0.0097
1597.00,0.0096
1596.00,0.0094
1595.00,0.0092
1594.00,0.0091
1593.00,0.0090
1592.00,0.0089
1591.00,0.0089
1590.00,0.0089
1589.00,0.0089
1588.00,0.0090
1587.00,0.0090
1586.00,0.0091
1585.00,0.0092
1584.00,0.0093
1583.00,0.0094
1582.00,0.0094
1581.00,0.0093
1580.00,0.0092
1579.00,0.0091
1578.00,0.0090
1577.00,0.0088
1576.00,0.0088
1575.00,0.0087
1574.00,0.0086
1573.00,0.0085
1572.00,0.0084
1571.00,0.0083
1570.00,0.0083
1569.00,0.0083
1568.00,0.0084
1567.00,0.0085
1566.00,0.0085
1565.00,0.0085
1564.00,0.0085
1563.00,0.0085
1562.00,0.0085
1561.00,0.0086
1560.00,0.0087
1559.00,0.0088
1558.00,0.0088
1557.00,0.0088
1556.00,0.0089
1555.00,0.0089
1554.00,0.0091
1553.00,0.0092
1552.00,0.0094
1551.00,0.0095
1550.00,0.0097
1549.00,0.0100
1548.00,0.0102
1547.00,0.0104
1546.00,0.0107
1545.00,0.0110
1544.00,0.0114
1543.00,0.0118
1542.00,0.0121
1541.00,0.0125
1540.00,0.0130
1539.00,0.0134
1538.00,0.0136
1537.00,0.0137
1536.00,0.0137
1535.00,0.0137
1534.00,0.0137
1533.00,0.0137
1532.00,0.0135
1531.00,0.0133
1530.00,0.0131
1529.00,0.0128
1528.00,0.0125
1527.00,0.0121
1526.00,0.0118
1525.00,0.0115
1524.00,0.0113
1523.00,0.0110
1522.00,0.0106
1521.00,0.0103
1520.00,0.0101
1519.00,0.0098
1518.00,0.0095
1517.00,0.0093
1516.00,0.0092
1515.00,0.0091
1514.00,0.0090
1513.00,0.0090
1512.00,0.0089
1511.00,0.0089
1510.00,0.0088
1509.00,0.0088
1508.00,0.0088
1507.00,0.0088
1506.00,0.0087
1505.00,0.0089
1504.00,0.0090
1503.00,0.0091
1502.00,0.0093
1501.00,0.0096
1500.00,0.0100
1499.00,0.0106
1498.00,0.0114
1497.00,0.0125
1496.00,0.0136
1495.00,0.0143
1494.00,0.0148
1493.00,0.0150
1492.00,0.0151
1491.00,0.0149
1490.00,0.0146
1489.00,0.0144
1488.00,0.0144
1487.00,0.0145
1486.00,0.0147
1485.00,0.0151
1484.00,0.0156
1483.00,0.0162
1482.00,0.0169
1481.00,0.0178
1480.00,0.0189
1479.00,0.0200
1478.00,0.0214
1477.00,0.0232
1476.00,0.0254
1475.00,0.0280
1474.00,0.0315
1473.00,0.0368
1472.00,0.0433
1471.00,0.0498
1470.00,0.0562
1469.00,0.0629
1468.00,0.0703
1467.00,0.0784
1466.00,0.0878
1465.00,0.0981
1464.00,0.1073
1463.00,0.1140
1462.00,0.1184
1461.00,0.1216
1460.00,0.1238
1459.00,0.1253
1458.00,0.1264
1457.00,0.1269
1456.00,0.1265
1455.00,0.1255
1454.00,0.1242
1453.00,0.1223
1452.00,0.1193
1451.00,0.1152
1450.00,0.1094
1449.00,0.1016
1448.00,0.0919
1447.00,0.0818
1446.00,0.0728
1445.00,0.0654
1444.00,0.0591
1443.00,0.0542
1442.00,0.0506
1441.00,0.0483
1440.00,0.0470
1439.00,0.0468
1438.00,0.0474
1437.00,0.0481
1436.00,0.0475
1435.00,0.0449
1434.00,0.0408
1433.00,0.0359
1432.00,0.0309
1431.00,0.0266
1430.00,0.0233
1429.00,0.0209
1428.00,0.0193
1427.00,0.0184
1426.00,0.0179
1425.00,0.0174
1424.00,0.0170
1423.00,0.0169
1422.00,0.0169
1421.00,0.0168
1420.00,0.0167
1419.00,0.0167
1418.00,0.0167
1417.00,0.0165
1416.00,0.0163
1415.00,0.0161
1414.00,0.0160
1413.00,0.0157
1412.00,0.0154
1411.00,0.0152
1410.00,0.0150
1409.00,0.0149
1408.00,0.0147
1407.00,0.0146
1406.00,0.0146
1405.00,0.0145
1404.00,0.0145
1403.00,0.0145
1402.00,0.0146
1401.00,0.0147
1400.00,0.0147
1399.00,0.0149
1398.00,0.0151
1397.00,0.0152
1396.00,0.0154
1395.00,0.0158
1394.00,0.0163
1393.00,0.0169
1392.00,0.0175
1391.00,0.0184
1390.00,0.0197
1389.00,0.0214
1388.00,0.0240
1387.00,0.0279
1386.00,0.0330
1385.00,0.0395
1384.00,0.0480
1383.00,0.0595
1382.00,0.0749
1381.00,0.0949
1380.00,0.1205
1379.00,0.1509
1378.00,0.1822
1377.00,0.2078
1376.00,0.2200
1375.00,0.2133
1374.00,0.1891
1373.00,0.1571
1372.00,0.1266
1371.00,0.1009
1370.00,0.0803
1369.00,0.0648
1368.00,0.0541
1367.00,0.0475
1366.00,0.0440
1365.00,0.0427
1364.00,0.0430
1363.00,0.0447
1362.00,0.0474
1361.00,0.0502
1360.00,0.0524
1359.00,0.0532
1358.00,0.0519
1357.00,0.0488
1356.00,0.0444
1355.00,0.0393
1354.00,0.0344
1353.00,0.0302
1352.00,0.0268
1351.00,0.0242
1350.00,0.0220
1349.00,0.0203
1348.00,0.0190
1347.00,0.0180
1346.00,0.0171
1345.00,0.0164
1344.00,0.0159
1343.00,0.0155
1342.00,0.0152
1341.00,0.0149
1340.00,0.0146
1339.00,0.0143
1338.00,0.0140
1337.00,0.0139
1336.00,0.0139
1335.00,0.0140
1334.00,0.0144
1333.00,0.0149
1332.00,0.0155
1331.00,0.0159
1330.00,0.0160
1329.00,0.0158
1328.00,0.0154
1327.00,0.0147
1326.00,0.0139
1325.00,0.0131
1324.00,0.0124
1323.00,0.0119
1322.00,0.0114
1321.00,0.0111
1320.00,0.0108
1319.00,0.0106
1318.00,0.0103
1317.00,0.0101
1316.00,0.0099
1315.00,0.0098
1314.00,0.0098
1313.00,0.0097
1312.00,0.0098
1311.00,0.0100
1310.00,0.0103
1309.00,0.0107
1308.00,0.0114
1307.00,0.0122
1306.00,0.0130
1305.00,0.0136
1304.00,0.0139
1303.00,0.0140
1302.00,0.0139
1301.00,0.0138
1300.00,0.0139
1299.00,0.0140
1298.00,0.0142
1297.00,0.0143
1296.00,0.0143
1295.00,0.0141
1294.00,0.0137
1293.00,0.0131
1292.00,0.0125
1291.00,0.0119
1290.00,0.0113
1289.00,0.0109
1288.00,0.0105
1287.00,0.0101
1286.00,0.0098
1285.00,0.0096
1284.00,0.0094
1283.00,0.0092
1282.00,0.0091
1281.00,0.0089
1280.00,0.0087
1279.00,0.0086
1278.00,0.0085
1277.00,0.0084
1276.00,0.0083
1275.00,0.0083
1274.00,0.0083
1273.00,0.0083
1272.00,0.0083
1271.00,0.0083
1270.00,0.0084
1269.00,0.0084
1268.00,0.0085
1267.00,0.0086
1266.00,0.0088
1265.00,0.0090
1264.00,0.0092
1263.00,0.0095
1262.00,0.0098
1261.00,0.0101
1260.00,0.0105
1259.00,0.0111
1258.00,0.0117
1257.00,0.0122
1256.00,0.0125
1255.00,0.0125
1254.00,0.0122
1253.00,0.0117
1252.00,0.0112
1251.00,0.0108
1250.00,0.0104
1249.00,0.0102
1248.00,0.0101
1247.00,0.0100
1246.00,0.0100
1245.00,0.0099
1244.00,0.0098
1243.00,0.0097
1242.00,0.0096
1241.00,0.0095
1240.00,0.0094
1239.00,0.0093
1238.00,0.0092
1237.00,0.0092
1236.00,0.0091
1235.00,0.0090
1234.00,0.0089
1233.00,0.0089
1232.00,0.0088
1231.00,0.0088
1230.00,0.0089
1229.00,0.0090
1228.00,0.0091
1227.00,0.0093
1226.00,0.0096
1225.00,0.0099
1224.00,0.0103
1223.00,0.0106
1222.00,0.0110
1221.00,0.0113
1220.00,0.0115
1219.00,0.0116
1218.00,0.0115
1217.00,0.0113
1216.00,0.0109
1215.00,0.0105
1214.00,0.0102
1213.00,0.0098
1212.00,0.0095
1211.00,0.0093
1210.00,0.0090
1209.00,0.0088
1208.00,0.0085
1207.00,0.0083
1206.00,0.0081
1205.00,0.0080
1204.00,0.0080
1203.00,0.0080
1202.00,0.0079
1201.00,0.0079
1200.00,0.0079
1199.00,0.0078
1198.00,0.0078
1197.00,0.0078
1196.00,0.0077
1195.00,0.0077
1194.00,0.0076
1193.00,0.0076
1192.00,0.0076
1191.00,0.0076
1190.00,0.0076
1189.00,0.0077
1188.00,0.0077
1187.00,0.0078
1186.00,0.0078
1185.00,0.0079
1184.00,0.0081
1183.00,0.0082
1182.00,0.0083
1181.00,0.0085
1180.00,0.0088
1179.00,0.0091
1178.00,0.0096
1177.00,0.0102
1176.00,0.0110
1175.00,0.0122
1174.00,0.0137
1173.00,0.0155
1172.00,0.0177
1171.00,0.0200
1170.00,0.0223
1169.00,0.0241
1168.00,0.0253
1167.00,0.0257
1166.00,0.0254
1165.00,0.0247
1164.00,0.0237
1163.00,0.0228
1162.00,0.0219
1161.00,0.0212
1160.00,0.0206
1159.00,0.0202
1158.00,0.0199
1157.00,0.0197
1156.00,0.0196
1155.00,0.0196
1154.00,0.0196
1153.00,0.0195
1152.00,0.0192
1151.00,0.0187
1150.00,0.0180
1149.00,0.0171
1148.00,0.0162
1147.00,0.0154
1146.00,0.0146
1145.00,0.0138
1144.00,0.0132
1143.00,0.0126
1142.00,0.0120
1141.00,0.0115
1140.00,0.0110
1139.00,0.0106
1138.00,0.0103
1137.00,0.0099
1136.00,0.0096
1135.00,0.0093
1134.00,0.0091
1133.00,0.0090
1132.00,0.0089
1131.00,0.0089
1130.00,0.0089
1129.00,0.0090
1128.00,0.0092
1127.00,0.0094
1126.00,0.0096
1125.00,0.0096
1124.00,0.0096
1123.00,0.0095
1122.00,0.0096
1121.00,0.0096
1120.00,0.0097
1119.00,0.0098
1118.00,0.0099
1117.00,0.0101
1116.00,0.0102
1115.00,0.0103
1114.00,0.0105
1113.00,0.0107
1112.00,0.0109
1111.00,0.0113
1110.00,0.0117
1109.00,0.0122
1108.00,0.0128
1107.00,0.0135
1106.00,0.0143
1105.00,0.0151
1104.00,0.0158
1103.00,0.0163
1102.00,0.0164
1101.00,0.0162
1100.00,0.0157
1099.00,0.0151
1098.00,0.0144
1097.00,0.0137
1096.00,0.0132
1095.00,0.0128
1094.00,0.0125
1093.00,0.0122
1092.00,0.0119
1091.00,0.0116
1090.00,0.0113
1089.00,0.0110
1088.00,0.0108
1087.00,0.0106
1086.00,0.0106
1085.00,0.0106
1084.00,0.0106
1083.00,0.0106
1082.00,0.0105
1081.00,0.0103
1080.00,0.0101
1079.00,0.0098
1078.00,0.0096
1077.00,0.0094
1076.00,0.0093
1075.00,0.0093
1074.00,0.0093
1073.00,0.0093
1072.00,0.0092
1071.00,0.0093
1070.00,0.0093
1069.00,0.0093
1068.00,0.0093
1067.00,0.0092
1066.00,0.0091
1065.00,0.0090
1064.00,0.0090
1063.00,0.0089
1062.00,0.0089
1061.00,0.0089
1060.00,0.0090
1059.00,0.0090
1058.00,0.0091
1057.00,0.0092
1056.00,0.0093
1055.00,0.0093
1054.00,0.0093
1053.00,0.0093
1052.00,0.0094
1051.00,0.0095
1050.00,0.0096
1049.00,0.0097
1048.00,0.0099
1047.00,0.0101
1046.00,0.0103
1045.00,0.0105
1044.00,0.0105
1043.00,0.0105
1042.00,0.0103
1041.00,0.0101
1040.00,0.0099
1039.00,0.0098
1038.00,0.0098
1037.00,0.0099
1036.00,0.0099
1035.00,0.0099
1034.00,0.0098
1033.00,0.0097
1032.00,0.0096
1031.00,0.0096
1030.00,0.0097
1029.00,0.0097
1028.00,0.0097
1027.00,0.0096
1026.00,0.0095
1025.00,0.0094
1024.00,0.0093
1023.00,0.0093
1022.00,0.0093
1021.00,0.0093
1020.00,0.0093
1019.00,0.0095
1018.00,0.0097
1017.00,0.0098
1016.00,0.0100
1015.00,0.0101
1014.00,0.0103
1013.00,0.0106
1012.00,0.0109
1011.00,0.0112
1010.00,0.0114
1009.00,0.0115
1008.00,0.0118
1007.00,0.0122
1006.00,0.0128
1005.00,0.0136
1004.00,0.0146
1003.00,0.0160
1002.00,0.0179
1001.00,0.0201
1000.00,0.0225
999.00,0.0245
998.00,0.0253
997.00,0.0248
996.00,0.0230
995.00,0.0206
994.00,0.0180
993.00,0.0157
992.00,0.0139
991.00,0.0125
990.00,0.0114
989.00,0.0108
988.00,0.0104
987.00,0.0103
986.00,0.0103
985.00,0.0106
984.00,0.0110
983.00,0.0117
982.00,0.0126
981.00,0.0139
980.00,0.0157
979.00,0.0181
978.00,0.0210
977.00,0.0243
976.00,0.0277
975.00,0.0307
974.00,0.0327
973.00,0.0331
972.00,0.0319
971.00,0.0291
970.00,0.0255
969.00,0.0218
968.00,0.0187
967.00,0.0162
966.00,0.0144
965.00,0.0130
964.00,0.0120
963.00,0.0113
962.00,0.0108
961.00,0.0103
960.00,0.0097
959.00,0.0093
958.00,0.0090
957.00,0.0089
956.00,0.0089
955.00,0.0088
954.00,0.0087
953.00,0.0086
952.00,0.0085
951.00,0.0084
950.00,0.0083
949.00,0.0083
948.00,0.0083
947.00,0.0085
946.00,0.0087
945.00,0.0090
944.00,0.0094
943.00,0.0099
942.00,0.0103
941.00,0.0106
940.00,0.0106
939.00,0.0103
938.00,0.0099
937.00,0.0093
936.00,0.0087
935.00,0.0082
934.00,0.0079
933.00,0.0076
932.00,0.0074
931.00,0.0073
930.00,0.0071
929.00,0.0070
928.00,0.0069
927.00,0.0069
926.00,0.0069
925.00,0.0070
924.00,0.0070
923.00,0.0071
922.00,0.0072
921.00,0.0073
920.00,0.0075
919.00,0.0076
918.00,0.0077
917.00,0.0077
916.00,0.0077
915.00,0.0075
914.00,0.0074
913.00,0.0074
912.00,0.0074
911.00,0.0077
910.00,0.0080
909.00,0.0084
908.00,0.0087
907.00,0.0092
906.00,0.0099
905.00,0.0110
904.00,0.0127
903.00,0.0149
902.00,0.0174
901.00,0.0197
900.00,0.0212
899.00,0.0216
898.00,0.0207
897.00,0.0188
896.00,0.0164
895.00,0.0141
894.00,0.0123
893.00,0.0110
892.00,0.0101
891.00,0.0094
890.00,0.0089
889.00,0.0084
888.00,0.0081
887.00,0.0080
886.00,0.0079
885.00,0.0078
884.00,0.0077
883.00,0.0076
882.00,0.0076
881.00,0.0077
880.00,0.0078
879.00,0.0078
878.00,0.0078
877.00,0.0079
876.00,0.0080
875.00,0.0080
874.00,0.0080
873.00,0.0080
872.00,0.0080
871.00,0.0080
870.00,0.0080
869.00,0.0079
868.00,0.0079
867.00,0.0078
866.00,0.0079
865.00,0.0079
864.00,0.0080
863.00,0.0082
862.00,0.0085
861.00,0.0088
860.00,0.0090
859.00,0.0092
858.00,0.0092
857.00,0.0090
856.00,0.0090
855.00,0.0091
854.00,0.0093
853.00,0.0096
852.00,0.0098
851.00,0.0100
850.00,0.0103
849.00,0.0107
848.00,0.0115
847.00,0.0126
846.00,0.0141
845.00,0.0163
844.00,0.0189
843.00,0.0217
842.00,0.0235
841.00,0.0237
840.00,0.0221
839.00,0.0196
838.00,0.0170
837.00,0.0150
836.00,0.0138
835.00,0.0132
834.00,0.0128
833.00,0.0125
832.00,0.0123
831.00,0.0121
830.00,0.0119
829.00,0.0118
828.00,0.0117
827.00,0.0116
826.00,0.0116
825.00,0.0115
824.00,0.0115
823.00,0.0115
822.00,0.0115
821.00,0.0115
820.00,0.0117
819.00,0.0119
818.00,0.0124
817.00,0.0131
816.00,0.0141
815.00,0.0154
814.00,0.0170
813.00,0.0188
812.00,0.0206
811.00,0.0224
810.00,0.0238
809.00,0.0245
808.00,0.0243
807.00,0.0231
806.00,0.0213
805.00,0.0193
804.00,0.0174
803.00,0.0158
802.00,0.0145
801.00,0.0136
800.00,0.0128
799.00,0.0122
798.00,0.0117
797.00,0.0112
796.00,0.0108
795.00,0.0105
794.00,0.0102
793.00,0.0098
792.00,0.0095
791.00,0.0093
790.00,0.0092
789.00,0.0091
788.00,0.0088
787.00,0.0086
786.00,0.0084
785.00,0.0082
784.00,0.0080
783.00,0.0078
782.00,0.0076
781.00,0.0074
780.00,0.0072
779.00,0.0072
778.00,0.0073
777.00,0.0073
776.00,0.0074
775.00,0.0075
774.00,0.0076
773.00,0.0077
772.00,0.0078
771.00,0.0079
770.00,0.0081
769.00,0.0083
768.00,0.0084
767.00,0.0085
766.00,0.0086
765.00,0.0087
764.00,0.0088
763.00,0.0087
762.00,0.0085
761.00,0.0082
760.00,0.0079
759.00,0.0076
758.00,0.0074
757.00,0.0072
756.00,0.0070
755.00,0.0070
754.00,0.0070
753.00,0.0071
752.00,0.0072
751.00,0.0072
750.00,0.0072
749.00,0.0072
748.00,0.0072
747.00,0.0071
746.00,0.0070
745.00,0.0069
744.00,0.0069
743.00,0.0069
742.00,0.0070
741.00,0.0072
740.00,0.0075
739.00,0.0078
738.00,0.0080
737.00,0.0082
736.00,0.0084
735.00,0.0084
734.00,0.0085
733.00,0.0085
732.00,0.0085
731.00,0.0086
730.00,0.0087
729.00,0.0088
728.00,0.0088
727.00,0.0087
726.00,0.0087
725.00,0.0087
724.00,0.0087
723.00,0.0087
722.00,0.0087
721.00,0.0086
720.00,0.0085
719.00,0.0084
718.00,0.0082
717.00,0.0080
716.00,0.0077
715.00,0.0074
714.00,0.0072
713.00,0.0072
712.00,0.0072
711.00,0.0073
710.00,0.0074
709.00,0.0075
708.00,0.0075
707.00,0.0074
706.00,0.0073
705.00,0.0073
704.00,0.0073
703.00,0.0074
702.00,0.0074
701.00,0.0074
700.00,0.0072
699.00,0.0069
698.00,0.0066
697.00,0.0064
696.00,0.0064
695.00,0.0065
694.00,0.0066
693.00,0.0066
692.00,0.0066
691.00,0.0067
690.00,0.0069
689.00,0.0073
688.00,0.0076
687.00,0.0075
686.00,0.0073
685.00,0.0069
684.00,0.0067
683.00,0.0066
682.00,0.0065
681.00,0.0065
680.00,0.0066
679.00,0.0066
678.00,0.0067
677.00,0.0065
676.00,0.0062
675.00,0.0060
674.00,0.0059
673.00,0.0060
672.00,0.0062
671.00,0.0064
670.00,0.0065
669.00,0.0066
668.00,0.0067
667.00,0.0067
666.00,0.0066
665.00,0.0064
664.00,0.0062
663.00,0.0060
662.00,0.0060
661.00,0.0062
660.00,0.0064
659.00,0.0065
658.00,0.0064
657.00,0.0063
656.00,0.0062
655.00,0.0062
654.00,0.0062
653.00,0.0062
652.00,0.0062
651.00,0.0063
650.00,0.0064
649.00,0.0064
648.00,0.0063
647.00,0.0063
646.00,0.0064
645.00,0.0065
644.00,0.0068
643.00,0.0070
642.00,0.0071
641.00,0.0070
640.00,0.0069
639.00,0.0069
638.00,0.0069
637.00,0.0069
636.00,0.0067
635.00,0.0065
634.00,0.0063
633.00,0.0063
632.00,0.0063
631.00,0.0064
630.00,0.0064
629.00,0.0064
628.00,0.0063
627.00,0.0063
626.00,0.0063
625.00,0.0065
624.00,0.0067
623.00,0.0068
622.00,0.0069
621.00,0.0069
620.00,0.0069
619.00,0.0068
618.00,0.0067
617.00,0.0067
616.00,0.0069
615.00,0.0070
614.00,0.0071
613.00,0.0070
612.00,0.0068
611.00,0.0067
610.00,0.0066
609.00,0.0067
608.00,0.0069
607.00,0.0069
606.00,0.0067
605.00,0.0066
604.00,0.0066
603.00,0.0068
602.00,0.0071
601.00,0.0071
600.00,0.0068
599.00,0.0065
598.00,0.0063
597.00,0.0065
596.00,0.0067
595.00,0.0069
594.00,0.0070
593.00,0.0071
592.00,0.0072
591.00,0.0073
590.00,0.0073
589.00,0.0073
588.00,0.0073
587.00,0.0074
586.00,0.0074
585.00,0.0073
584.00,0.0072
583.00,0.0072
582.00,0.0074
581.00,0.0077
580.00,0.0079
579.00,0.0079
578.00,0.0078
577.00,0.0077
576.00,0.0076
575.00,0.0075
574.00,0.0075
573.00,0.0073
572.00,0.0072
571.00,0.0071
570.00,0.0072
569.00,0.0074
568.00,0.0076
567.00,0.0076
566.00,0.0075
565.00,0.0075
564.00,0.0076
563.00,0.0077
562.00,0.0077
561.00,0.0078
560.00,0.0077
559.00,0.0074
558.00,0.0072
557.00,0.0070
556.00,0.0070
555.00,0.0069
554.00,0.0069
553.00,0.0070
552.00,0.0073
551.00,0.0076
550.00,0.0077
549.00,0.0077
548.00,0.0077
547.00,0.0076
546.00,0.0074
545.00,0.0072
544.00,0.0072
543.00,0.0074
542.00,0.0077
541.00,0.0081
540.00,0.0083
539.00,0.0084
538.00,0.0085
537.00,0.0086
536.00,0.0088
535.00,0.0092
534.00,0.0093
533.00,0.0093
532.00,0.0092
531.00,0.0093
530.00,0.0096
529.00,0.0099
528.00,0.0102
527.00,0.0103
526.00,0.0101
525.00,0.0098
524.00,0.0096
523.00,0.0095
522.00,0.0094
521.00,0.0091
520.00,0.0084
519.00,0.0078
518.00,0.0073
517.00,0.0070
516.00,0.0069
515.00,0.0070
514.00,0.0073
513.00,0.0079
512.00,0.0085
511.00,0.0087
510.00,0.0084
509.00,0.0079
508.00,0.0075
507.00,0.0073
506.00,0.0075
505.00,0.0080
504.00,0.0085
503.00,0.0087
502.00,0.0083
501.00,0.0075
500.00,0.0068
499.00,0.0065
498.00,0.0064
497.00,0.0064
496.00,0.0068
495.00,0.0073
494.00,0.0078
493.00,0.0079
492.00,0.0074
491.00,0.0066
490.00,0.0057
489.00,0.0051
488.00,0.0049
487.00,0.0051
486.00,0.0054
485.00,0.0057
484.00,0.0060
483.00,0.0066
482.00,0.0074
481.00,0.0081
480.00,0.0082
479.00,0.0080
478.00,0.0079
477.00,0.0080
476.00,0.0084
475.00,0.0090
474.00,0.0096
473.00,0.0100
472.00,0.0100
471.00,0.0097
470.00,0.0093
469.00,0.0091
468.00,0.0093
467.00,0.0099
466.00,0.0106
465.00,0.0112
464.00,0.0117
463.00,0.0125
462.00,0.0139
461.00,0.0159
460.00,0.0186
459.00,0.0213
458.00,0.0229
457.00,0.0222
456.00,0.0196
455.00,0.0166
454.00,0.0141
453.00,0.0125
452.00,0.0112
451.00,0.0099
450.00,0.0085
