Created as New Dataset,Sample 119 By Administrator Date Tuesday, September 09 2025
cm-1,A
4000.00,0.0007
3999.00,0.0007
3998.00,0.0007
3997.00,0.0007
3996.00,0.0007
3995.00,0.0006
3994.00,0.0006
3993.00,0.0006
3992.00,0.0006
3991.00,0.0006
3990.00,0.0006
3989.00,0.0006
3988.00,0.0006
3987.00,0.0006
3986.00,0.0006
3985.00,0.0006
3984.00,0.0006
3983.00,0.0006
3982.00,0.0006
3981.00,0.0006
3980.00,0.0006
3979.00,0.0006
3978.00,0.0006
3977.00,0.0006
3976.00,0.0005
3975.00,0.0005
3974.00,0.0005
3973.00,0.0005
3972.00,0.0005
3971.00,0.0005
3970.00,0.0005
3969.00,0.0005
3968.00,0.0005
3967.00,0.0005
3966.00,0.0004
3965.00,0.0004
3964.00,0.0004
3963.00,0.0004
3962.00,0.0005
3961.00,0.0005
3960.00,0.0005
3959.00,0.0005
3958.00,0.0005
3957.00,0.0005
3956.00,0.0005
3955.00,0.0005
3954.00,0.0005
3953.00,0.0005
3952.00,0.0004
3951.00,0.0005
3950.00,0.0005
3949.00,0.0005
3948.00,0.0005
3947.00,0.0005
3946.00,0.0005
3945.00,0.0005
3944.00,0.0005
3943.00,0.0005
3942.00,0.0005
3941.00,0.0005
3940.00,0.0005
3939.00,0.0005
3938.00,0.0005
3937.00,0.0005
3936.00,0.0006
3935.00,0.0006
3934.00,0.0006
3933.00,0.0006
3932.00,0.0006
3931.00,0.0006
3930.00,0.0005
3929.00,0.0005
3928.00,0.0005
3927.00,0.0005
3926.00,0.0005
3925.00,0.0005
3924.00,0.0006
3923.00,0.0006
3922.00,0.0006
3921.00,0.0006
3920.00,0.0006
3919.00,0.0005
3918.00,0.0005
3917.00,0.0005
3916.00,0.0005
3915.00,0.0004
3914.00,0.0004
3913.00,0.0004
3912.00,0.0004
3911.00,0.0005
3910.00,0.0005
3909.00,0.0005
3908.00,0.0005
3907.00,0.0005
3906.00,0.0005
3905.00,0.0006
3904.00,0.0006
3903.00,0.0006
3902.00,0.0006
3901.00,0.0006
3900.00,0.0006
3899.00,0.0006
3898.00,0.0006
3897.00,0.0006
3896.00,0.0006
3895.00,0.0005
3894.00,0.0005
3893.00,0.0005
3892.00,0.0004
3891.00,0.0004
3890.00,0.0005
3889.00,0.0005
3888.00,0.0005
3887.00,0.0005
3886.00,0.0005
3885.00,0.0005
3884.00,0.0005
3883.00,0.0005
3882.00,0.0004
3881.00,0.0004
3880.00,0.0005
3879.00,0.0005
3878.00,0.0005
3877.00,0.0004
3876.00,0.0004
3875.00,0.0004
3874.00,0.0004
3873.00,0.0004
3872.00,0.0004
3871.00,0.0004
3870.00,0.0004
3869.00,0.0005
3868.00,0.0005
3867.00,0.0005
3866.00,0.0005
3865.00,0.0005
3864.00,0.0005
3863.00,0.0005
3862.00,0.0004
3861.00,0.0004
3860.00,0.0004
3859.00,0.0004
3858.00,0.0005
3857.00,0.0005
3856.00,0.0005
3855.00,0.0004
3854.00,0.0004
3853.00,0.0004
3852.00,0.0004
3851.00,0.0004
3850.00,0.0004
3849.00,0.0004
3848.00,0.0004
3847.00,0.0004
3846.00,0.0004
3845.00,0.0005
3844.00,0.0005
3843.00,0.0005
3842.00,0.0005
3841.00,0.0005
3840.00,0.0005
3839.00,0.0005
3838.00,0.0004
3837.00,0.0004
3836.00,0.0004
3835.00,0.0004
3834.00,0.0004
3833.00,0.0004
3832.00,0.0005
3831.00,0.0005
3830.00,0.0005
3829.00,0.0005
3828.00,0.0004
3827.00,0.0004
3826.00,0.0004
3825.00,0.0004
3824.00,0.0004
3823.00,0.0004
3822.00,0.0004
3821.00,0.0004
3820.00,0.0004
3819.00,0.0004
3818.00,0.0004
3817.00,0.0004
3816.00,0.0004
3815.00,0.0004
3814.00,0.0004
3813.00,0.0004
3812.00,0.0004
3811.00,0.0005
3810.00,0.0005
3809.00,0.0005
3808.00,0.0005
3807.00,0.0005
3806.00,0.0005
3805.00,0.0005
3804.00,0.0004
3803.00,0.0004
3802.00,0.0004
3801.00,0.0004
3800.00,0.0004
3799.00,0.0004
3798.00,0.0004
3797.00,0.0004
3796.00,0.0004
3795.00,0.0004
3794.00,0.0004
3793.00,0.0004
3792.00,0.0004
3791.00,0.0004
3790.00,0.0005
3789.00,0.0005
3788.00,0.0005
3787.00,0.0004
3786.00,0.0004
3785.00,0.0004
3784.00,0.0004
3783.00,0.0004
3782.00,0.0004
3781.00,0.0004
3780.00,0.0004
3779.00,0.0004
3778.00,0.0004
3777.00,0.0004
3776.00,0.0004
3775.00,0.0005
3774.00,0.0005
3773.00,0.0006
3772.00,0.0006
3771.00,0.0005
3770.00,0.0005
3769.00,0.0005
3768.00,0.0005
3767.00,0.0005
3766.00,0.0005
3765.00,0.0005
3764.00,0.0005
3763.00,0.0005
3762.00,0.0005
3761.00,0.0005
3760.00,0.0005
3759.00,0.0005
3758.00,0.0005
3757.00,0.0005
3756.00,0.0005
3755.00,0.0005
3754.00,0.0005
3753.00,0.0005
3752.00,0.0005
3751.00,0.0005
3750.00,0.0004
3749.00,0.0005
3748.00,0.0005
3747.00,0.0005
3746.00,0.0005
3745.00,0.0005
3744.00,0.0005
3743.00,0.0005
3742.00,0.0005
3741.00,0.0005
3740.00,0.0004
3739.00,0.0004
3738.00,0.0004
3737.00,0.0004
3736.00,0.0004
3735.00,0.0004
3734.00,0.0004
3733.00,0.0004
3732.00,0.0005
3731.00,0.0005
3730.00,0.0005
3729.00,0.0005
3728.00,0.0004
3727.00,0.0004
3726.00,0.0004
3725.00,0.0004
3724.00,0.0004
3723.00,0.0004
3722.00,0.0003
3721.00,0.0003
3720.00,0.0004
3719.00,0.0004
3718.00,0.0004
3717.00,0.0005
3716.00,0.0005
3715.00,0.0005
3714.00,0.0004
3713.00,0.0004
3712.00,0.0004
3711.00,0.0004
3710.00,0.0003
3709.00,0.0003
3708.00,0.0002
3707.00,0.0002
3706.00,0.0003
3705.00,0.0003
3704.00,0.0003
3703.00,0.0003
3702.00,0.0002
3701.00,0.0003
3700.00,0.0003
3699.00,0.0003
3698.00,0.0004
3697.00,0.0004
3696.00,0.0004
3695.00,0.0003
3694.00,0.0003
3693.00,0.0003
3692.00,0.0003
3691.00,0.0003
3690.00,0.0003
3689.00,0.0003
3688.00,0.0003
3687.00,0.0003
3686.00,0.0003
3685.00,0.0003
3684.00,0.0003
3683.00,0.0003
3682.00,0.0003
3681.00,0.0003
3680.00,0.0004
3679.00,0.0005
3678.00,0.0005
3677.00,0.0005
3676.00,0.0005
3675.00,0.0004
3674.00,0.0004
3673.00,0.0004
3672.00,0.0003
3671.00,0.0003
3670.00,0.0004
3669.00,0.0004
3668.00,0.0003
3667.00,0.0003
3666.00,0.0003
3665.00,0.0003
3664.00,0.0004
3663.00,0.0004
3662.00,0.0004
3661.00,0.0004
3660.00,0.0004
3659.00,0.0003
3658.00,0.0003
3657.00,0.0003
3656.00,0.0003
3655.00,0.0003
3654.00,0.0004
3653.00,0.0004
3652.00,0.0004
3651.00,0.0003
3650.00,0.0003
3649.00,0.0004
3648.00,0.0004
3647.00,0.0004
3646.00,0.0004
3645.00,0.0004
3644.00,0.0004
3643.00,0.0004
3642.00,0.0004
3641.00,0.0003
3640.00,0.0003
3639.00,0.0003
3638.00,0.0003
3637.00,0.0004
3636.00,0.0004
3635.00,0.0004
3634.00,0.0005
3633.00,0.0005
3632.00,0.0005
3631.00,0.0006
3630.00,0.0006
3629.00,0.0006
3628.00,0.0006
3627.00,0.0006
3626.00,0.0005
3625.00,0.0005
3624.00,0.0005
3623.00,0.0005
3622.00,0.0005
3621.00,0.0005
3620.00,0.0006
3619.00,0.0006
3618.00,0.0006
3617.00,0.0005
3616.00,0.0005
3615.00,0.0005
3614.00,0.0006
3613.00,0.0006
3612.00,0.0007
3611.00,0.0008
3610.00,0.0008
3609.00,0.0008
3608.00,0.0007
3607.00,0.0007
3606.00,0.0007
3605.00,0.0007
3604.00,0.0007
3603.00,0.0007
3602.00,0.0007
3601.00,0.0007
3600.00,0.0008
3599.00,0.0009
3598.00,0.0009
3597.00,0.0009
3596.00,0.0009
3595.00,0.0008
3594.00,0.0007
3593.00,0.0007
3592.00,0.0007
3591.00,0.0007
3590.00,0.0008
3589.00,0.0008
3588.00,0.0009
3587.00,0.0010
3586.00,0.0010
3585.00,0.0010
3584.00,0.0010
3583.00,0.0010
3582.00,0.0010
3581.00,0.0011
3580.00,0.0010
3579.00,0.0010
3578.00,0.0010
3577.00,0.0010
3576.00,0.0010
3575.00,0.0011
3574.00,0.0011
3573.00,0.0012
3572.00,0.0012
3571.00,0.0013
3570.00,0.0013
3569.00,0.0013
3568.00,0.0013
3567.00,0.0014
3566.00,0.0014
3565.00,0.0014
3564.00,0.0014
3563.00,0.0014
3562.00,0.0014
3561.00,0.0015
3560.00,0.0015
3559.00,0.0015
3558.00,0.0015
3557.00,0.0015
3556.00,0.0016
3555.00,0.0016
3554.00,0.0016
3553.00,0.0017
3552.00,0.0017
3551.00,0.0018
3550.00,0.0018
3549.00,0.0018
3548.00,0.0018
3547.00,0.0018
3546.00,0.0019
3545.00,0.0018
3544.00,0.0018
3543.00,0.0018
3542.00,0.0018
3541.00,0.0018
3540.00,0.0019
3539.00,0.0019
3538.00,0.0019
3537.00,0.0019
3536.00,0.0019
3535.00,0.0019
3534.00,0.0020
3533.00,0.0020
3532.00,0.0021
3531.00,0.0021
3530.00,0.0021
3529.00,0.0020
3528.00,0.0020
3527.00,0.0021
3526.00,0.0021
3525.00,0.0022
3524.00,0.0022
3523.00,0.0022
3522.00,0.0022
3521.00,0.0022
3520.00,0.0021
3519.00,0.0021
3518.00,0.0021
3517.00,0.0021
3516.00,0.0022
3515.00,0.0023
3514.00,0.0023
3513.00,0.0024
3512.00,0.0024
3511.00,0.0024
3510.00,0.0025
3509.00,0.0025
3508.00,0.0025
3507.00,0.0025
3506.00,0.0026
3505.00,0.0026
3504.00,0.0026
3503.00,0.0026
3502.00,0.0026
3501.00,0.0027
3500.00,0.0027
3499.00,0.0028
3498.00,0.0027
3497.00,0.0027
3496.00,0.0028
3495.00,0.0028
3494.00,0.0028
3493.00,0.0029
3492.00,0.0029
3491.00,0.0029
3490.00,0.0029
3489.00,0.0029
3488.00,0.0029
3487.00,0.0029
3486.00,0.0029
3485.00,0.0029
3484.00,0.0029
3483.00,0.0029
3482.00,0.0030
3481.00,0.0030
3480.00,0.0031
3479.00,0.0031
3478.00,0.0031
3477.00,0.0031
3476.00,0.0031
3475.00,0.0032
3474.00,0.0032
3473.00,0.0032
3472.00,0.0032
3471.00,0.0032
3470.00,0.0033
3469.00,0.0033
3468.00,0.0033
3467.00,0.0033
3466.00,0.0033
3465.00,0.0033
3464.00,0.0033
3463.00,0.0033
3462.00,0.0033
3461.00,0.0034
3460.00,0.0035
3459.00,0.0035
3458.00,0.0036
3457.00,0.0036
3456.00,0.0036
3455.00,0.0036
3454.00,0.0036
3453.00,0.0036
3452.00,0.0036
3451.00,0.0036
3450.00,0.0036
3449.00,0.0036
3448.00,0.0037
3447.00,0.0037
3446.00,0.0038
3445.00,0.0038
3444.00,0.0038
3443.00,0.0038
3442.00,0.0038
3441.00,0.0038
3440.00,0.0038
3439.00,0.0038
3438.00,0.0038
3437.00,0.0038
3436.00,0.0039
3435.00,0.0039
3434.00,0.0039
3433.00,0.0040
3432.00,0.0041
3431.00,0.0041
3430.00,0.0042
3429.00,0.0042
3428.00,0.0042
3427.00,0.0042
3426.00,0.0041
3425.00,0.0041
3424.00,0.0041
3423.00,0.0041
3422.00,0.0041
3421.00,0.0041
3420.00,0.0042
3419.00,0.0042
3418.00,0.0042
3417.00,0.0042
3416.00,0.0043
3415.00,0.0043
3414.00,0.0044
3413.00,0.0044
3412.00,0.0044
3411.00,0.0044
3410.00,0.0044
3409.00,0.0044
3408.00,0.0045
3407.00,0.0045
3406.00,0.0046
3405.00,0.0046
3404.00,0.0046
3403.00,0.0046
3402.00,0.0046
3401.00,0.0047
3400.00,0.0047
3399.00,0.0047
3398.00,0.0047
3397.00,0.0047
3396.00,0.0047
3395.00,0.0048
3394.00,0.0048
3393.00,0.0048
3392.00,0.0048
3391.00,0.0048
3390.00,0.0048
3389.00,0.0048
3388.00,0.0048
3387.00,0.0048
3386.00,0.0048
3385.00,0.0048
3384.00,0.0048
3383.00,0.0048
3382.00,0.0048
3381.00,0.0048
3380.00,0.0048
3379.00,0.0048
3378.00,0.0048
3377.00,0.0049
3376.00,0.0049
3375.00,0.0048
3374.00,0.0048
3373.00,0.0048
3372.00,0.0048
3371.00,0.0049
3370.00,0.0049
3369.00,0.0049
3368.00,0.0049
3367.00,0.0049
3366.00,0.0049
3365.00,0.0049
3364.00,0.0049
3363.00,0.0049
3362.00,0.0049
3361.00,0.0049
3360.00,0.0049
3359.00,0.0050
3358.00,0.0050
3357.00,0.0050
3356.00,0.0050
3355.00,0.0050
3354.00,0.0050
3353.00,0.0050
3352.00,0.0050
3351.00,0.0050
3350.00,0.0050
3349.00,0.0050
3348.00,0.0050
3347.00,0.0050
3346.00,0.0051
3345.00,0.0051
3344.00,0.0051
3343.00,0.0051
3342.00,0.0051
3341.00,0.0051
3340.00,0.0051
3339.00,0.0051
3338.00,0.0051
3337.00,0.0051
3336.00,0.0051
3335.00,0.0051
3334.00,0.0051
3333.00,0.0052
3332.00,0.0052
3331.00,0.0052
3330.00,0.0051
3329.00,0.0051
3328.00,0.0051
3327.00,0.0050
3326.00,0.0050
3325.00,0.0050
3324.00,0.0049
3323.00,0.0049
3322.00,0.0049
3321.00,0.0049
3320.00,0.0050
3319.00,0.0050
3318.00,0.0050
3317.00,0.0050
3316.00,0.0050
3315.00,0.0050
3314.00,0.0050
3313.00,0.0050
3312.00,0.0051
3311.00,0.0051
3310.00,0.0051
3309.00,0.0051
3308.00,0.0050
3307.00,0.0050
3306.00,0.0050
3305.00,0.0050
3304.00,0.0050
3303.00,0.0050
3302.00,0.0050
3301.00,0.0050
3300.00,0.0050
3299.00,0.0050
3298.00,0.0049
3297.00,0.0049
3296.00,0.0049
3295.00,0.0049
3294.00,0.0049
3293.00,0.0049
3292.00,0.0049
3291.00,0.0049
3290.00,0.0049
3289.00,0.0049
3288.00,0.0049
3287.00,0.0049
3286.00,0.0049
3285.00,0.0049
3284.00,0.0049
3283.00,0.0048
3282.00,0.0048
3281.00,0.0048
3280.00,0.0048
3279.00,0.0049
3278.00,0.0048
3277.00,0.0048
3276.00,0.0047
3275.00,0.0047
3274.00,0.0047
3273.00,0.0047
3272.00,0.0047
3271.00,0.0046
3270.00,0.0046
3269.00,0.0046
3268.00,0.0046
3267.00,0.0046
3266.00,0.0045
3265.00,0.0045
3264.00,0.0044
3263.00,0.0044
3262.00,0.0044
3261.00,0.0044
3260.00,0.0044
3259.00,0.0044
3258.00,0.0043
3257.00,0.0043
3256.00,0.0043
3255.00,0.0043
3254.00,0.0043
3253.00,0.0043
3252.00,0.0043
3251.00,0.0043
3250.00,0.0043
3249.00,0.0043
3248.00,0.0042
3247.00,0.0042
3246.00,0.0042
3245.00,0.0042
3244.00,0.0042
3243.00,0.0042
3242.00,0.0042
3241.00,0.0042
3240.00,0.0042
3239.00,0.0042
3238.00,0.0041
3237.00,0.0041
3236.00,0.0041
3235.00,0.0041
3234.00,0.0041
3233.00,0.0042
3232.00,0.0042
3231.00,0.0042
3230.00,0.0042
3229.00,0.0042
3228.00,0.0042
3227.00,0.0042
3226.00,0.0042
3225.00,0.0041
3224.00,0.0042
3223.00,0.0042
3222.00,0.0042
3221.00,0.0043
3220.00,0.0043
3219.00,0.0043
3218.00,0.0044
3217.00,0.0044
3216.00,0.0044
3215.00,0.0045
3214.00,0.0045
3213.00,0.0045
3212.00,0.0044
3211.00,0.0044
3210.00,0.0044
3209.00,0.0045
3208.00,0.0045
3207.00,0.0045
3206.00,0.0046
3205.00,0.0046
3204.00,0.0047
3203.00,0.0047
3202.00,0.0047
3201.00,0.0048
3200.00,0.0048
3199.00,0.0047
3198.00,0.0047
3197.00,0.0047
3196.00,0.0047
3195.00,0.0047
3194.00,0.0047
3193.00,0.0046
3192.00,0.0046
3191.00,0.0046
3190.00,0.0046
3189.00,0.0046
3188.00,0.0046
3187.00,0.0046
3186.00,0.0045
3185.00,0.0045
3184.00,0.0045
3183.00,0.0045
3182.00,0.0045
3181.00,0.0045
3180.00,0.0045
3179.00,0.0045
3178.00,0.0045
3177.00,0.0044
3176.00,0.0043
3175.00,0.0043
3174.00,0.0042
3173.00,0.0042
3172.00,0.0042
3171.00,0.0042
3170.00,0.0042
3169.00,0.0042
3168.00,0.0042
3167.00,0.0042
3166.00,0.0041
3165.00,0.0041
3164.00,0.0041
3163.00,0.0040
3162.00,0.0040
3161.00,0.0039
3160.00,0.0039
3159.00,0.0039
3158.00,0.0039
3157.00,0.0040
3156.00,0.0040
3155.00,0.0040
3154.00,0.0039
3153.00,0.0039
3152.00,0.0038
3151.00,0.0038
3150.00,0.0038
3149.00,0.0038
3148.00,0.0039
3147.00,0.0039
3146.00,0.0039
3145.00,0.0039
3144.00,0.0038
3143.00,0.0038
3142.00,0.0038
3141.00,0.0038
3140.00,0.0038
3139.00,0.0038
3138.00,0.0038
3137.00,0.0037
3136.00,0.0037
3135.00,0.0036
3134.00,0.0036
3133.00,0.0036
3132.00,0.0036
3131.00,0.0036
3130.00,0.0036
3129.00,0.0035
3128.00,0.0035
3127.00,0.0035
3126.00,0.0035
3125.00,0.0035
3124.00,0.0035
3123.00,0.0034
3122.00,0.0033
3121.00,0.0033
3120.00,0.0032
3119.00,0.0032
3118.00,0.0032
3117.00,0.0032
3116.00,0.0032
3115.00,0.0032
3114.00,0.0033
3113.00,0.0032
3112.00,0.0032
3111.00,0.0032
3110.00,0.0032
3109.00,0.0031
3108.00,0.0031
3107.00,0.0031
3106.00,0.0030
3105.00,0.0030
3104.00,0.0030
3103.00,0.0030
3102.00,0.0030
3101.00,0.0030
3100.00,0.0030
3099.00,0.0029
3098.00,0.0029
3097.00,0.0028
3096.00,0.0028
3095.00,0.0028
3094.00,0.0029
3093.00,0.0029
3092.00,0.0029
3091.00,0.0029
3090.00,0.0029
3089.00,0.0028
3088.00,0.0028
3087.00,0.0028
3086.00,0.0028
3085.00,0.0028
3084.00,0.0028
3083.00,0.0028
3082.00,0.0028
3081.00,0.0028
3080.00,0.0028
3079.00,0.0028
3078.00,0.0029
3077.00,0.0029
3076.00,0.0029
3075.00,0.0029
3074.00,0.0028
3073.00,0.0028
3072.00,0.0028
3071.00,0.0028
3070.00,0.0028
3069.00,0.0028
3068.00,0.0028
3067.00,0.0028
3066.00,0.0029
3065.00,0.0029
3064.00,0.0030
3063.00,0.0030
3062.00,0.0030
3061.00,0.0031
3060.00,0.0031
3059.00,0.0031
3058.00,0.0031
3057.00,0.0031
3056.00,0.0031
3055.00,0.0031
3054.00,0.0031
3053.00,0.0031
3052.00,0.0031
3051.00,0.0031
3050.00,0.0032
3049.00,0.0032
3048.00,0.0032
3047.00,0.0032
3046.00,0.0032
3045.00,0.0032
3044.00,0.0032
3043.00,0.0033
3042.00,0.0033
3041.00,0.0033
3040.00,0.0034
3039.00,0.0034
3038.00,0.0034
3037.00,0.0034
3036.00,0.0035
3035.00,0.0035
3034.00,0.0035
3033.00,0.0036
3032.00,0.0037
3031.00,0.0037
3030.00,0.0038
3029.00,0.0038
3028.00,0.0039
3027.00,0.0039
3026.00,0.0040
3025.00,0.0040
3024.00,0.0041
3023.00,0.0041
3022.00,0.0041
3021.00,0.0042
3020.00,0.0043
3019.00,0.0043
3018.00,0.0044
3017.00,0.0045
3016.00,0.0046
3015.00,0.0047
3014.00,0.0048
3013.00,0.0050
3012.00,0.0051
3011.00,0.0052
3010.00,0.0054
3009.00,0.0055
3008.00,0.0057
3007.00,0.0058
3006.00,0.0060
3005.00,0.0062
3004.00,0.0064
3003.00,0.0066
3002.00,0.0068
3001.00,0.0071
3000.00,0.0074
2999.00,0.0077
2998.00,0.0080
2997.00,0.0083
2996.00,0.0087
2995.00,0.0092
2994.00,0.0096
2993.00,0.0102
2992.00,0.0107
2991.00,0.0114
2990.00,0.0120
2989.00,0.0128
2988.00,0.0137
2987.00,0.0146
2986.00,0.0157
2985.00,0.0169
2984.00,0.0182
2983.00,0.0197
2982.00,0.0214
2981.00,0.0233
2980.00,0.0254
2979.00,0.0278
2978.00,0.0306
2977.00,0.0337
2976.00,0.0373
2975.00,0.0414
2974.00,0.0461
2973.00,0.0513
2972.00,0.0572
2971.00,0.0639
2970.00,0.0713
2969.00,0.0795
2968.00,0.0886
2967.00,0.0986
2966.00,0.1093
2965.00,0.1205
2964.00,0.1320
2963.00,0.1433
2962.00,0.1539
2961.00,0.1634
2960.00,0.1713
2959.00,0.1775
2958.00,0.1820
2957.00,0.1853
2956.00,0.1878
2955.00,0.1901
2954.00,0.1924
2953.00,0.1947
2952.00,0.1966
2951.00,0.1972
2950.00,0.1959
2949.00,0.1919
2948.00,0.1848
2947.00,0.1750
2946.00,0.1630
2945.00,0.1501
2944.00,0.1375
2943.00,0.1262
2942.00,0.1170
2941.00,0.1102
2940.00,0.1058
2939.00,0.1037
2938.00,0.1037
2937.00,0.1055
2936.00,0.1089
2935.00,0.1137
2934.00,0.1197
2933.00,0.1269
2932.00,0.1351
2931.00,0.1439
2930.00,0.1531
2929.00,0.1623
2928.00,0.1714
2927.00,0.1800
2926.00,0.1881
2925.00,0.1957
2924.00,0.2027
2923.00,0.2093
2922.00,0.2157
2921.00,0.2217
2920.00,0.2270
2919.00,0.2310
2918.00,0.2332
2917.00,0.2333
2916.00,0.2311
2915.00,0.2270
2914.00,0.2215
2913.00,0.2152
2912.00,0.2087
2911.00,0.2024
2910.00,0.1965
2909.00,0.1911
2908.00,0.1859
2907.00,0.1807
2906.00,0.1753
2905.00,0.1696
2904.00,0.1635
2903.00,0.1570
2902.00,0.1504
2901.00,0.1436
2900.00,0.1371
2899.00,0.1308
2898.00,0.1249
2897.00,0.1195
2896.00,0.1148
2895.00,0.1107
2894.00,0.1074
2893.00,0.1047
2892.00,0.1026
2891.00,0.1012
2890.00,0.1003
2889.00,0.1000
2888.00,0.1000
2887.00,0.1004
2886.00,0.1011
2885.00,0.1022
2884.00,0.1037
2883.00,0.1056
2882.00,0.1078
2881.00,0.1102
2880.00,0.1125
2879.00,0.1144
2878.00,0.1157
2877.00,0.1160
2876.00,0.1157
2875.00,0.1149
2874.00,0.1142
2873.00,0.1138
2872.00,0.1141
2871.00,0.1151
2870.00,0.1166
2869.00,0.1181
2868.00,0.1189
2867.00,0.1183
2866.00,0.1155
2865.00,0.1105
2864.00,0.1035
2863.00,0.0953
2862.00,0.0867
2861.00,0.0787
2860.00,0.0717
2859.00,0.0661
2858.00,0.0619
2857.00,0.0589
2856.00,0.0568
2855.00,0.0556
2854.00,0.0550
2853.00,0.0551
2852.00,0.0558
2851.00,0.0571
2850.00,0.0592
2849.00,0.0620
2848.00,0.0658
2847.00,0.0705
2846.00,0.0761
2845.00,0.0826
2844.00,0.0898
2843.00,0.0975
2842.00,0.1054
2841.00,0.1128
2840.00,0.1191
2839.00,0.1234
2838.00,0.1247
2837.00,0.1225
2836.00,0.1168
2835.00,0.1079
2834.00,0.0972
2833.00,0.0858
2832.00,0.0748
2831.00,0.0650
2830.00,0.0568
2829.00,0.0500
2828.00,0.0445
2827.00,0.0401
2826.00,0.0366
2825.00,0.0336
2824.00,0.0311
2823.00,0.0290
2822.00,0.0273
2821.00,0.0257
2820.00,0.0244
2819.00,0.0232
2818.00,0.0222
2817.00,0.0213
2816.00,0.0206
2815.00,0.0199
2814.00,0.0193
2813.00,0.0187
2812.00,0.0182
2811.00,0.0177
2810.00,0.0172
2809.00,0.0166
2808.00,0.0161
2807.00,0.0155
2806.00,0.0149
2805.00,0.0143
2804.00,0.0136
2803.00,0.0130
2802.00,0.0125
2801.00,0.0121
2800.00,0.0117
2799.00,0.0114
2798.00,0.0111
2797.00,0.0109
2796.00,0.0107
2795.00,0.0105
2794.00,0.0102
2793.00,0.0099
2792.00,0.0096
2791.00,0.0092
2790.00,0.0088
2789.00,0.0084
2788.00,0.0081
2787.00,0.0078
2786.00,0.0075
2785.00,0.0073
2784.00,0.0071
2783.00,0.0069
2782.00,0.0067
2781.00,0.0065
2780.00,0.0063
2779.00,0.0061
2778.00,0.0060
2777.00,0.0058
2776.00,0.0057
2775.00,0.0056
2774.00,0.0055
2773.00,0.0055
2772.00,0.0054
2771.00,0.0054
2770.00,0.0053
2769.00,0.0053
2768.00,0.0052
2767.00,0.0052
2766.00,0.0051
2765.00,0.0051
2764.00,0.0051
2763.00,0.0051
2762.00,0.0050
2761.00,0.0050
2760.00,0.0050
2759.00,0.0049
2758.00,0.0049
2757.00,0.0049
2756.00,0.0049
2755.00,0.0048
2754.00,0.0048
2753.00,0.0048
2752.00,0.0048
2751.00,0.0048
2750.00,0.0048
2749.00,0.0048
2748.00,0.0048
2747.00,0.0048
2746.00,0.0049
2745.00,0.0049
2744.00,0.0050
2743.00,0.0051
2742.00,0.0052
2741.00,0.0053
2740.00,0.0055
2739.00,0.0056
2738.00,0.0058
2737.00,0.0059
2736.00,0.0061
2735.00,0.0062
2734.00,0.0064
2733.00,0.0065
2732.00,0.0066
2731.00,0.0068
2730.00,0.0070
2729.00,0.0072
2728.00,0.0075
2727.00,0.0078
2726.00,0.0080
2725.00,0.0083
2724.00,0.0084
2723.00,0.0085
2722.00,0.0084
2721.00,0.0082
2720.00,0.0079
2719.00,0.0076
2718.00,0.0072
2717.00,0.0069
2716.00,0.0066
2715.00,0.0064
2714.00,0.0061
2713.00,0.0059
2712.00,0.0057
2711.00,0.0055
2710.00,0.0054
2709.00,0.0053
2708.00,0.0052
2707.00,0.0051
2706.00,0.0049
2705.00,0.0048
2704.00,0.0047
2703.00,0.0046
2702.00,0.0045
2701.00,0.0044
2700.00,0.0044
2699.00,0.0043
2698.00,0.0043
2697.00,0.0043
2696.00,0.0042
2695.00,0.0042
2694.00,0.0042
2693.00,0.0042
2692.00,0.0043
2691.00,0.0043
2690.00,0.0043
2689.00,0.0043
2688.00,0.0043
2687.00,0.0043
2686.00,0.0042
2685.00,0.0042
2684.00,0.0041
2683.00,0.0041
2682.00,0.0042
2681.00,0.0042
2680.00,0.0042
2679.00,0.0042
2678.00,0.0042
2677.00,0.0043
2676.00,0.0043
2675.00,0.0042
2674.00,0.0042
2673.00,0.0041
2672.00,0.0041
2671.00,0.0041
2670.00,0.0041
2669.00,0.0041
2668.00,0.0041
2667.00,0.0041
2666.00,0.0041
2665.00,0.0042
2664.00,0.0043
2663.00,0.0043
2662.00,0.0044
2661.00,0.0044
2660.00,0.0044
2659.00,0.0044
2658.00,0.0044
2657.00,0.0044
2656.00,0.0044
2655.00,0.0044
2654.00,0.0043
2653.00,0.0043
2652.00,0.0042
2651.00,0.0041
2650.00,0.0040
2649.00,0.0040
2648.00,0.0039
2647.00,0.0039
2646.00,0.0039
2645.00,0.0039
2644.00,0.0039
2643.00,0.0038
2642.00,0.0038
2641.00,0.0037
2640.00,0.0036
2639.00,0.0036
2638.00,0.0035
2637.00,0.0035
2636.00,0.0035
2635.00,0.0035
2634.00,0.0035
2633.00,0.0035
2632.00,0.0035
2631.00,0.0035
2630.00,0.0035
2629.00,0.0035
2628.00,0.0035
2627.00,0.0035
2626.00,0.0036
2625.00,0.0036
2624.00,0.0037
2623.00,0.0037
2622.00,0.0037
2621.00,0.0037
2620.00,0.0037
2619.00,0.0037
2618.00,0.0037
2617.00,0.0037
2616.00,0.0037
2615.00,0.0037
2614.00,0.0036
2613.00,0.0036
2612.00,0.0036
2611.00,0.0036
2610.00,0.0035
2609.00,0.0035
2608.00,0.0033
2607.00,0.0032
2606.00,0.0031
2605.00,0.0031
2604.00,0.0030
2603.00,0.0030
2602.00,0.0029
2601.00,0.0029
2600.00,0.0028
2599.00,0.0028
2598.00,0.0029
2597.00,0.0029
2596.00,0.0029
2595.00,0.0029
2594.00,0.0029
2593.00,0.0030
2592.00,0.0030
2591.00,0.0031
2590.00,0.0031
2589.00,0.0032
2588.00,0.0032
2587.00,0.0033
2586.00,0.0034
2585.00,0.0034
2584.00,0.0035
2583.00,0.0035
2582.00,0.0035
2581.00,0.0035
2580.00,0.0035
2579.00,0.0035
2578.00,0.0035
2577.00,0.0034
2576.00,0.0032
2575.00,0.0031
2574.00,0.0030
2573.00,0.0028
2572.00,0.0027
2571.00,0.0026
2570.00,0.0025
2569.00,0.0025
2568.00,0.0024
2567.00,0.0024
2566.00,0.0023
2565.00,0.0022
2564.00,0.0022
2563.00,0.0022
2562.00,0.0022
2561.00,0.0022
2560.00,0.0021
2559.00,0.0021
2558.00,0.0020
2557.00,0.0019
2556.00,0.0019
2555.00,0.0019
2554.00,0.0019
2553.00,0.0019
2552.00,0.0019
2551.00,0.0019
2550.00,0.0019
2549.00,0.0019
2548.00,0.0019
2547.00,0.0018
2546.00,0.0017
2545.00,0.0016
2544.00,0.0016
2543.00,0.0015
2542.00,0.0015
2541.00,0.0015
2540.00,0.0015
2539.00,0.0015
2538.00,0.0015
2537.00,0.0015
2536.00,0.0015
2535.00,0.0015
2534.00,0.0014
2533.00,0.0013
2532.00,0.0013
2531.00,0.0013
2530.00,0.0013
2529.00,0.0013
2528.00,0.0013
2527.00,0.0013
2526.00,0.0012
2525.00,0.0012
2524.00,0.0012
2523.00,0.0011
2522.00,0.0011
2521.00,0.0010
2520.00,0.0010
2519.00,0.0009
2518.00,0.0009
2517.00,0.0009
2516.00,0.0009
2515.00,0.0009
2514.00,0.0009
2513.00,0.0010
2512.00,0.0010
2511.00,0.0009
2510.00,0.0009
2509.00,0.0008
2508.00,0.0008
2507.00,0.0007
2506.00,0.0007
2505.00,0.0007
2504.00,0.0007
2503.00,0.0008
2502.00,0.0008
2501.00,0.0008
2500.00,0.0008
2499.00,0.0007
2498.00,0.0007
2497.00,0.0007
2496.00,0.0007
2495.00,0.0007
2494.00,0.0007
2493.00,0.0007
2492.00,0.0008
2491.00,0.0008
2490.00,0.0008
2489.00,0.0007
2488.00,0.0007
2487.00,0.0007
2486.00,0.0008
2485.00,0.0008
2484.00,0.0008
2483.00,0.0007
2482.00,0.0007
2481.00,0.0007
2480.00,0.0006
2479.00,0.0007
2478.00,0.0007
2477.00,0.0007
2476.00,0.0007
2475.00,0.0007
2474.00,0.0007
2473.00,0.0006
2472.00,0.0007
2471.00,0.0007
2470.00,0.0007
2469.00,0.0008
2468.00,0.0008
2467.00,0.0008
2466.00,0.0008
2465.00,0.0007
2464.00,0.0007
2463.00,0.0007
2462.00,0.0007
2461.00,0.0008
2460.00,0.0008
2459.00,0.0009
2458.00,0.0009
2457.00,0.0009
2456.00,0.0009
2455.00,0.0009
2454.00,0.0009
2453.00,0.0009
2452.00,0.0009
2451.00,0.0009
2450.00,0.0009
2449.00,0.0009
2448.00,0.0009
2447.00,0.0009
2446.00,0.0009
2445.00,0.0008
2444.00,0.0008
2443.00,0.0008
2442.00,0.0008
2441.00,0.0008
2440.00,0.0008
2439.00,0.0009
2438.00,0.0009
2437.00,0.0010
2436.00,0.0011
2435.00,0.0011
2434.00,0.0011
2433.00,0.0010
2432.00,0.0010
2431.00,0.0009
2430.00,0.0009
2429.00,0.0009
2428.00,0.0009
2427.00,0.0009
2426.00,0.0010
2425.00,0.0010
2424.00,0.0010
2423.00,0.0009
2422.00,0.0008
2421.00,0.0008
2420.00,0.0008
2419.00,0.0009
2418.00,0.0009
2417.00,0.0010
2416.00,0.0010
2415.00,0.0009
2414.00,0.0009
2413.00,0.0008
2412.00,0.0008
2411.00,0.0008
2410.00,0.0008
2409.00,0.0008
2408.00,0.0008
2407.00,0.0008
2406.00,0.0007
2405.00,0.0007
2404.00,0.0008
2403.00,0.0008
2402.00,0.0008
2401.00,0.0008
2400.00,0.0008
2399.00,0.0008
2398.00,0.0008
2397.00,0.0008
2396.00,0.0008
2395.00,0.0007
2394.00,0.0007
2393.00,0.0007
2392.00,0.0007
2391.00,0.0007
2390.00,0.0006
2389.00,0.0006
2388.00,0.0006
2387.00,0.0006
2386.00,0.0005
2385.00,0.0005
2384.00,0.0004
2383.00,0.0004
2382.00,0.0002
2381.00,0.0001
2380.00,0.0001
2379.00,0.0000
2378.00,-0.0000
2377.00,-0.0001
2376.00,-0.0001
2375.00,-0.0001
2374.00,-0.0001
2373.00,-0.0001
2372.00,-0.0000
2371.00,0.0000
2370.00,-0.0000
2369.00,-0.0001
2368.00,-0.0002
2367.00,-0.0003
2366.00,-0.0002
2365.00,-0.0002
2364.00,-0.0002
2363.00,-0.0002
2362.00,-0.0002
2361.00,-0.0001
2360.00,-0.0001
2359.00,-0.0001
2358.00,-0.0001
2357.00,-0.0001
2356.00,-0.0001
2355.00,-0.0002
2354.00,-0.0001
2353.00,-0.0001
2352.00,-0.0001
2351.00,-0.0002
2350.00,-0.0002
2349.00,-0.0001
2348.00,-0.0000
2347.00,0.0000
2346.00,-0.0000
2345.00,-0.0000
2344.00,-0.0001
2343.00,-0.0001
2342.00,-0.0000
2341.00,0.0001
2340.00,0.0002
2339.00,0.0002
2338.00,0.0002
2337.00,0.0002
2336.00,0.0002
2335.00,0.0002
2334.00,0.0001
2333.00,0.0001
2332.00,-0.0000
2331.00,-0.0001
2330.00,-0.0000
2329.00,0.0002
2328.00,0.0005
2327.00,0.0009
2326.00,0.0013
2325.00,0.0016
2324.00,0.0017
2323.00,0.0016
2322.00,0.0014
2321.00,0.0011
2320.00,0.0009
2319.00,0.0008
2318.00,0.0008
2317.00,0.0008
2316.00,0.0008
2315.00,0.0008
2314.00,0.0007
2313.00,0.0007
2312.00,0.0006
2311.00,0.0006
2310.00,0.0007
2309.00,0.0007
2308.00,0.0008
2307.00,0.0008
2306.00,0.0008
2305.00,0.0008
2304.00,0.0008
2303.00,0.0009
2302.00,0.0009
2301.00,0.0010
2300.00,0.0011
2299.00,0.0011
2298.00,0.0011
2297.00,0.0010
2296.00,0.0010
2295.00,0.0011
2294.00,0.0012
2293.00,0.0012
2292.00,0.0013
2291.00,0.0014
2290.00,0.0015
2289.00,0.0017
2288.00,0.0018
2287.00,0.0019
2286.00,0.0019
2285.00,0.0019
2284.00,0.0018
2283.00,0.0017
2282.00,0.0017
2281.00,0.0016
2280.00,0.0015
2279.00,0.0014
2278.00,0.0012
2277.00,0.0012
2276.00,0.0011
2275.00,0.0012
2274.00,0.0012
2273.00,0.0012
2272.00,0.0011
2271.00,0.0011
2270.00,0.0012
2269.00,0.0012
2268.00,0.0012
2267.00,0.0011
2266.00,0.0009
2265.00,0.0008
2264.00,0.0007
2263.00,0.0007
2262.00,0.0008
2261.00,0.0009
2260.00,0.0010
2259.00,0.0012
2258.00,0.0012
2257.00,0.0011
2256.00,0.0010
2255.00,0.0008
2254.00,0.0008
2253.00,0.0008
2252.00,0.0009
2251.00,0.0009
2250.00,0.0009
2249.00,0.0008
2248.00,0.0007
2247.00,0.0007
2246.00,0.0008
2245.00,0.0008
2244.00,0.0008
2243.00,0.0007
2242.00,0.0007
2241.00,0.0007
2240.00,0.0007
2239.00,0.0006
2238.00,0.0006
2237.00,0.0006
2236.00,0.0006
2235.00,0.0006
2234.00,0.0005
2233.00,0.0006
2232.00,0.0006
2231.00,0.0006
2230.00,0.0007
2229.00,0.0009
2228.00,0.0011
2227.00,0.0013
2226.00,0.0012
2225.00,0.0010
2224.00,0.0008
2223.00,0.0007
2222.00,0.0008
2221.00,0.0010
2220.00,0.0011
2219.00,0.0010
2218.00,0.0009
2217.00,0.0009
2216.00,0.0008
2215.00,0.0007
2214.00,0.0007
2213.00,0.0005
2212.00,0.0004
2211.00,0.0002
2210.00,0.0002
2209.00,0.0002
2208.00,0.0003
2207.00,0.0003
2206.00,0.0003
2205.00,0.0003
2204.00,0.0003
2203.00,0.0003
2202.00,0.0003
2201.00,0.0004
2200.00,0.0005
2199.00,0.0006
2198.00,0.0006
2197.00,0.0005
2196.00,0.0005
2195.00,0.0004
2194.00,0.0004
2193.00,0.0004
2192.00,0.0006
2191.00,0.0008
2190.00,0.0008
2189.00,0.0008
2188.00,0.0007
2187.00,0.0007
2186.00,0.0009
2185.00,0.0009
2184.00,0.0008
2183.00,0.0006
2182.00,0.0005
2181.00,0.0005
2180.00,0.0007
2179.00,0.0010
2178.00,0.0011
2177.00,0.0012
2176.00,0.0011
2175.00,0.0011
2174.00,0.0010
2173.00,0.0011
2172.00,0.0011
2171.00,0.0011
2170.00,0.0011
2169.00,0.0011
2168.00,0.0012
2167.00,0.0013
2166.00,0.0012
2165.00,0.0010
2164.00,0.0009
2163.00,0.0009
2162.00,0.0010
2161.00,0.0008
2160.00,-0.0001
2159.00,-0.0015
2158.00,-0.0027
2157.00,-0.0032
2156.00,-0.0031
2155.00,-0.0027
2154.00,-0.0024
2153.00,-0.0022
2152.00,-0.0020
2151.00,-0.0017
2150.00,-0.0015
2149.00,-0.0014
2148.00,-0.0014
2147.00,-0.0015
2146.00,-0.0016
2145.00,-0.0016
2144.00,-0.0015
2143.00,-0.0014
2142.00,-0.0013
2141.00,-0.0012
2140.00,-0.0010
2139.00,-0.0008
2138.00,-0.0008
2137.00,-0.0009
2136.00,-0.0012
2135.00,-0.0015
2134.00,-0.0017
2133.00,-0.0017
2132.00,-0.0017
2131.00,-0.0016
2130.00,-0.0016
2129.00,-0.0015
2128.00,-0.0013
2127.00,-0.0010
2126.00,-0.0008
2125.00,-0.0007
2124.00,-0.0006
2123.00,-0.0006
2122.00,-0.0006
2121.00,-0.0005
2120.00,-0.0004
2119.00,-0.0003
2118.00,-0.0002
2117.00,-0.0002
2116.00,-0.0001
2115.00,-0.0000
2114.00,0.0001
2113.00,0.0002
2112.00,0.0002
2111.00,0.0002
2110.00,0.0002
2109.00,0.0002
2108.00,0.0002
2107.00,0.0002
2106.00,0.0002
2105.00,0.0002
2104.00,0.0002
2103.00,0.0001
2102.00,-0.0001
2101.00,-0.0002
2100.00,-0.0003
2099.00,-0.0003
2098.00,-0.0003
2097.00,-0.0002
2096.00,-0.0003
2095.00,-0.0005
2094.00,-0.0005
2093.00,-0.0005
2092.00,-0.0003
2091.00,-0.0001
2090.00,-0.0000
2089.00,0.0000
2088.00,-0.0000
2087.00,-0.0001
2086.00,-0.0000
2085.00,0.0001
2084.00,0.0004
2083.00,0.0006
2082.00,0.0007
2081.00,0.0007
2080.00,0.0005
2079.00,0.0003
2078.00,0.0001
2077.00,0.0000
2076.00,-0.0000
2075.00,-0.0001
2074.00,-0.0002
2073.00,-0.0002
2072.00,-0.0001
2071.00,-0.0001
2070.00,-0.0000
2069.00,0.0000
2068.00,0.0001
2067.00,0.0001
2066.00,0.0001
2065.00,0.0000
2064.00,-0.0001
2063.00,-0.0002
2062.00,-0.0003
2061.00,-0.0003
2060.00,-0.0003
2059.00,-0.0003
2058.00,-0.0002
2057.00,-0.0002
2056.00,-0.0003
2055.00,-0.0004
2054.00,-0.0005
2053.00,-0.0003
2052.00,0.0000
2051.00,0.0004
2050.00,0.0005
2049.00,0.0003
2048.00,0.0001
2047.00,-0.0001
2046.00,-0.0003
2045.00,-0.0004
2044.00,-0.0004
2043.00,-0.0003
2042.00,-0.0002
2041.00,-0.0001
2040.00,0.0001
2039.00,0.0002
2038.00,0.0003
2037.00,0.0005
2036.00,0.0006
2035.00,0.0006
2034.00,0.0005
2033.00,0.0002
2032.00,-0.0001
2031.00,-0.0004
2030.00,-0.0006
2029.00,-0.0007
2028.00,-0.0010
2027.00,-0.0013
2026.00,-0.0014
2025.00,-0.0013
2024.00,-0.0012
2023.00,-0.0011
2022.00,-0.0011
2021.00,-0.0011
2020.00,-0.0010
2019.00,-0.0009
2018.00,-0.0008
2017.00,-0.0009
2016.00,-0.0010
2015.00,-0.0013
2014.00,-0.0016
2013.00,-0.0017
2012.00,-0.0015
2011.00,-0.0012
2010.00,-0.0008
2009.00,-0.0007
2008.00,-0.0008
2007.00,-0.0012
2006.00,-0.0017
2005.00,-0.0020
2004.00,-0.0021
2003.00,-0.0020
2002.00,-0.0017
2001.00,-0.0013
2000.00,-0.0010
1999.00,-0.0010
1998.00,-0.0010
1997.00,-0.0010
1996.00,-0.0009
1995.00,-0.0008
1994.00,-0.0008
1993.00,-0.0007
1992.00,-0.0005
1991.00,-0.0002
1990.00,-0.0001
1989.00,-0.0000
1988.00,-0.0001
1987.00,-0.0003
1986.00,-0.0004
1985.00,-0.0003
1984.00,-0.0003
1983.00,-0.0002
1982.00,-0.0001
1981.00,0.0002
1980.00,0.0003
1979.00,0.0002
1978.00,-0.0002
1977.00,-0.0005
1976.00,-0.0008
1975.00,-0.0011
1974.00,-0.0014
1973.00,-0.0016
1972.00,-0.0016
1971.00,-0.0016
1970.00,-0.0015
1969.00,-0.0013
1968.00,-0.0012
1967.00,-0.0013
1966.00,-0.0014
1965.00,-0.0014
1964.00,-0.0014
1963.00,-0.0013
1962.00,-0.0014
1961.00,-0.0015
1960.00,-0.0017
1959.00,-0.0019
1958.00,-0.0021
1957.00,-0.0020
1956.00,-0.0017
1955.00,-0.0014
1954.00,-0.0012
1953.00,-0.0012
1952.00,-0.0014
1951.00,-0.0015
1950.00,-0.0016
1949.00,-0.0015
1948.00,-0.0013
1947.00,-0.0012
1946.00,-0.0011
1945.00,-0.0012
1944.00,-0.0014
1943.00,-0.0016
1942.00,-0.0016
1941.00,-0.0015
1940.00,-0.0014
1939.00,-0.0013
1938.00,-0.0014
1937.00,-0.0014
1936.00,-0.0014
1935.00,-0.0013
1934.00,-0.0012
1933.00,-0.0011
1932.00,-0.0011
1931.00,-0.0010
1930.00,-0.0010
1929.00,-0.0009
1928.00,-0.0007
1927.00,-0.0006
1926.00,-0.0005
1925.00,-0.0006
1924.00,-0.0005
1923.00,-0.0004
1922.00,-0.0002
1921.00,-0.0001
1920.00,-0.0003
1919.00,-0.0006
1918.00,-0.0008
1917.00,-0.0008
1916.00,-0.0007
1915.00,-0.0004
1914.00,-0.0003
1913.00,-0.0003
1912.00,-0.0004
1911.00,-0.0005
1910.00,-0.0005
1909.00,-0.0005
1908.00,-0.0004
1907.00,-0.0004
1906.00,-0.0004
1905.00,-0.0004
1904.00,-0.0004
1903.00,-0.0004
1902.00,-0.0004
1901.00,-0.0003
1900.00,-0.0003
1899.00,-0.0003
1898.00,-0.0003
1897.00,-0.0003
1896.00,-0.0003
1895.00,-0.0003
1894.00,-0.0002
1893.00,-0.0002
1892.00,-0.0002
1891.00,-0.0003
1890.00,-0.0003
1889.00,-0.0002
1888.00,-0.0001
1887.00,-0.0001
1886.00,-0.0002
1885.00,-0.0003
1884.00,-0.0003
1883.00,-0.0003
1882.00,-0.0003
1881.00,-0.0003
1880.00,-0.0002
1879.00,-0.0003
1878.00,-0.0002
1877.00,-0.0002
1876.00,-0.0001
1875.00,-0.0000
1874.00,0.0000
1873.00,-0.0000
1872.00,-0.0001
1871.00,-0.0001
1870.00,-0.0002
1869.00,-0.0002
1868.00,-0.0002
1867.00,-0.0001
1866.00,-0.0001
1865.00,-0.0001
1864.00,-0.0000
1863.00,0.0001
1862.00,0.0001
1861.00,0.0001
1860.00,0.0001
1859.00,0.0000
1858.00,-0.0000
1857.00,0.0000
1856.00,0.0001
1855.00,0.0001
1854.00,0.0001
1853.00,0.0000
1852.00,-0.0000
1851.00,-0.0001
1850.00,-0.0001
1849.00,-0.0001
1848.00,-0.0000
1847.00,0.0000
1846.00,0.0001
1845.00,0.0002
1844.00,0.0002
1843.00,0.0003
1842.00,0.0003
1841.00,0.0002
1840.00,0.0002
1839.00,0.0002
1838.00,0.0002
1837.00,0.0002
1836.00,0.0002
1835.00,0.0002
1834.00,0.0002
1833.00,0.0002
1832.00,0.0002
1831.00,0.0002
1830.00,0.0002
1829.00,0.0002
1828.00,0.0002
1827.00,0.0002
1826.00,0.0002
1825.00,0.0002
1824.00,0.0002
1823.00,0.0002
1822.00,0.0002
1821.00,0.0002
1820.00,0.0001
1819.00,-0.0000
1818.00,-0.0002
1817.00,-0.0003
1816.00,-0.0003
1815.00,-0.0002
1814.00,-0.0002
1813.00,-0.0001
1812.00,0.0000
1811.00,0.0001
1810.00,0.0001
1809.00,0.0001
1808.00,0.0001
1807.00,0.0001
1806.00,0.0002
1805.00,0.0002
1804.00,0.0003
1803.00,0.0003
1802.00,0.0003
1801.00,0.0002
1800.00,0.0002
1799.00,0.0003
1798.00,0.0003
1797.00,0.0004
1796.00,0.0004
1795.00,0.0004
1794.00,0.0004
1793.00,0.0004
1792.00,0.0004
1791.00,0.0004
1790.00,0.0004
1789.00,0.0004
1788.00,0.0004
1787.00,0.0004
1786.00,0.0004
1785.00,0.0004
1784.00,0.0004
1783.00,0.0004
1782.00,0.0004
1781.00,0.0004
1780.00,0.0004
1779.00,0.0003
1778.00,0.0002
1777.00,0.0001
1776.00,0.0001
1775.00,0.0001
1774.00,0.0001
1773.00,0.0001
1772.00,0.0001
1771.00,0.0001
1770.00,0.0001
1769.00,0.0002
1768.00,0.0002
1767.00,0.0002
1766.00,0.0002
1765.00,0.0002
1764.00,0.0003
1763.00,0.0004
1762.00,0.0005
1761.00,0.0006
1760.00,0.0006
1759.00,0.0006
1758.00,0.0007
1757.00,0.0007
1756.00,0.0006
1755.00,0.0006
1754.00,0.0006
1753.00,0.0006
1752.00,0.0006
1751.00,0.0006
1750.00,0.0005
1749.00,0.0005
1748.00,0.0005
1747.00,0.0005
1746.00,0.0005
1745.00,0.0006
1744.00,0.0006
1743.00,0.0005
1742.00,0.0005
1741.00,0.0005
1740.00,0.0005
1739.00,0.0005
1738.00,0.0005
1737.00,0.0005
1736.00,0.0005
1735.00,0.0005
1734.00,0.0005
1733.00,0.0005
1732.00,0.0005
1731.00,0.0005
1730.00,0.0006
1729.00,0.0006
1728.00,0.0007
1727.00,0.0007
1726.00,0.0007
1725.00,0.0007
1724.00,0.0007
1723.00,0.0006
1722.00,0.0006
1721.00,0.0007
1720.00,0.0007
1719.00,0.0007
1718.00,0.0007
1717.00,0.0008
1716.00,0.0009
1715.00,0.0010
1714.00,0.0011
1713.00,0.0011
1712.00,0.0011
1711.00,0.0011
1710.00,0.0012
1709.00,0.0013
1708.00,0.0014
1707.00,0.0014
1706.00,0.0015
1705.00,0.0016
1704.00,0.0017
1703.00,0.0018
1702.00,0.0019
1701.00,0.0021
1700.00,0.0024
1699.00,0.0024
1698.00,0.0024
1697.00,0.0025
1696.00,0.0026
1695.00,0.0028
1694.00,0.0030
1693.00,0.0032
1692.00,0.0033
1691.00,0.0034
1690.00,0.0036
1689.00,0.0037
1688.00,0.0038
1687.00,0.0039
1686.00,0.0039
1685.00,0.0040
1684.00,0.0043
1683.00,0.0046
1682.00,0.0048
1681.00,0.0050
1680.00,0.0052
1679.00,0.0054
1678.00,0.0056
1677.00,0.0058
1676.00,0.0059
1675.00,0.0060
1674.00,0.0061
1673.00,0.0062
1672.00,0.0063
1671.00,0.0064
1670.00,0.0065
1669.00,0.0067
1668.00,0.0068
1667.00,0.0069
1666.00,0.0070
1665.00,0.0071
1664.00,0.0072
1663.00,0.0073
1662.00,0.0074
1661.00,0.0073
1660.00,0.0073
1659.00,0.0074
1658.00,0.0074
1657.00,0.0075
1656.00,0.0076
1655.00,0.0076
1654.00,0.0076
1653.00,0.0076
1652.00,0.0076
1651.00,0.0077
1650.00,0.0078
1649.00,0.0078
1648.00,0.0078
1647.00,0.0079
1646.00,0.0079
1645.00,0.0079
1644.00,0.0079
1643.00,0.0078
1642.00,0.0077
1641.00,0.0076
1640.00,0.0075
1639.00,0.0075
1638.00,0.0074
1637.00,0.0073
1636.00,0.0073
1635.00,0.0073
1634.00,0.0073
1633.00,0.0073
1632.00,0.0073
1631.00,0.0072
1630.00,0.0072
1629.00,0.0072
1628.00,0.0071
1627.00,0.0071
1626.00,0.0070
1625.00,0.0069
1624.00,0.0068
1623.00,0.0067
1622.00,0.0066
1621.00,0.0065
1620.00,0.0065
1619.00,0.0064
1618.00,0.0063
1617.00,0.0062
1616.00,0.0062
1615.00,0.0061
1614.00,0.0061
1613.00,0.0060
1612.00,0.0060
1611.00,0.0059
1610.00,0.0059
1609.00,0.0058
1608.00,0.0058
1607.00,0.0058
1606.00,0.0058
1605.00,0.0058
1604.00,0.0058
1603.00,0.0059
1602.00,0.0059
1601.00,0.0059
1600.00,0.0059
1599.00,0.0059
1598.00,0.0059
1597.00,0.0059
1596.00,0.0059
1595.00,0.0060
1594.00,0.0060
1593.00,0.0060
1592.00,0.0060
1591.00,0.0060
1590.00,0.0060
1589.00,0.0061
1588.00,0.0062
1587.00,0.0064
1586.00,0.0065
1585.00,0.0067
1584.00,0.0069
1583.00,0.0071
1582.00,0.0073
1581.00,0.0075
1580.00,0.0077
1579.00,0.0079
1578.00,0.0080
1577.00,0.0080
1576.00,0.0081
1575.00,0.0081
1574.00,0.0080
1573.00,0.0079
1572.00,0.0078
1571.00,0.0077
1570.00,0.0075
1569.00,0.0074
1568.00,0.0073
1567.00,0.0071
1566.00,0.0070
1565.00,0.0070
1564.00,0.0070
1563.00,0.0069
1562.00,0.0070
1561.00,0.0070
1560.00,0.0071
1559.00,0.0072
1558.00,0.0073
1557.00,0.0074
1556.00,0.0075
1555.00,0.0076
1554.00,0.0077
1553.00,0.0078
1552.00,0.0079
1551.00,0.0080
1550.00,0.0081
1549.00,0.0083
1548.00,0.0085
1547.00,0.0087
1546.00,0.0089
1545.00,0.0092
1544.00,0.0095
1543.00,0.0097
1542.00,0.0097
1541.00,0.0097
1540.00,0.0094
1539.00,0.0091
1538.00,0.0088
1537.00,0.0087
1536.00,0.0086
1535.00,0.0083
1534.00,0.0079
1533.00,0.0076
1532.00,0.0073
1531.00,0.0071
1530.00,0.0070
1529.00,0.0069
1528.00,0.0069
1527.00,0.0067
1526.00,0.0066
1525.00,0.0066
1524.00,0.0066
1523.00,0.0066
1522.00,0.0065
1521.00,0.0064
1520.00,0.0064
1519.00,0.0064
1518.00,0.0064
1517.00,0.0064
1516.00,0.0065
1515.00,0.0065
1514.00,0.0065
1513.00,0.0065
1512.00,0.0066
1511.00,0.0066
1510.00,0.0066
1509.00,0.0066
1508.00,0.0066
1507.00,0.0066
1506.00,0.0066
1505.00,0.0068
1504.00,0.0070
1503.00,0.0071
1502.00,0.0073
1501.00,0.0075
1500.00,0.0076
1499.00,0.0077
1498.00,0.0078
1497.00,0.0081
1496.00,0.0085
1495.00,0.0088
1494.00,0.0091
1493.00,0.0095
1492.00,0.0098
1491.00,0.0101
1490.00,0.0105
1489.00,0.0109
1488.00,0.0115
1487.00,0.0119
1486.00,0.0123
1485.00,0.0130
1484.00,0.0137
1483.00,0.0145
1482.00,0.0154
1481.00,0.0166
1480.00,0.0178
1479.00,0.0191
1478.00,0.0205
1477.00,0.0224
1476.00,0.0245
1475.00,0.0269
1474.00,0.0302
1473.00,0.0352
1472.00,0.0414
1471.00,0.0476
1470.00,0.0535
1469.00,0.0598
1468.00,0.0665
1467.00,0.0739
1466.00,0.0823
1465.00,0.0914
1464.00,0.0996
1463.00,0.1057
1462.00,0.1100
1461.00,0.1134
1460.00,0.1161
1459.00,0.1182
1458.00,0.1202
1457.00,0.1223
1456.00,0.1236
1455.00,0.1240
1454.00,0.1238
1453.00,0.1229
1452.00,0.1210
1451.00,0.1176
1450.00,0.1125
1449.00,0.1051
1448.00,0.0954
1447.00,0.0852
1446.00,0.0758
1445.00,0.0678
1444.00,0.0610
1443.00,0.0555
1442.00,0.0514
1441.00,0.0486
1440.00,0.0468
1439.00,0.0459
1438.00,0.0456
1437.00,0.0452
1436.00,0.0436
1435.00,0.0407
1434.00,0.0368
1433.00,0.0323
1432.00,0.0277
1431.00,0.0236
1430.00,0.0206
1429.00,0.0184
1428.00,0.0169
1427.00,0.0160
1426.00,0.0154
1425.00,0.0149
1424.00,0.0144
1423.00,0.0141
1422.00,0.0139
1421.00,0.0137
1420.00,0.0133
1419.00,0.0130
1418.00,0.0128
1417.00,0.0124
1416.00,0.0121
1415.00,0.0119
1414.00,0.0119
1413.00,0.0117
1412.00,0.0116
1411.00,0.0115
1410.00,0.0115
1409.00,0.0114
1408.00,0.0113
1407.00,0.0113
1406.00,0.0113
1405.00,0.0113
1404.00,0.0112
1403.00,0.0113
1402.00,0.0115
1401.00,0.0116
1400.00,0.0118
1399.00,0.0120
1398.00,0.0122
1397.00,0.0124
1396.00,0.0126
1395.00,0.0130
1394.00,0.0136
1393.00,0.0142
1392.00,0.0148
1391.00,0.0157
1390.00,0.0170
1389.00,0.0187
1388.00,0.0214
1387.00,0.0253
1386.00,0.0305
1385.00,0.0370
1384.00,0.0455
1383.00,0.0569
1382.00,0.0716
1381.00,0.0899
1380.00,0.1118
1379.00,0.1359
1378.00,0.1586
1377.00,0.1748
1376.00,0.1798
1375.00,0.1710
1374.00,0.1504
1373.00,0.1253
1372.00,0.1020
1371.00,0.0825
1370.00,0.0668
1369.00,0.0547
1368.00,0.0462
1367.00,0.0410
1366.00,0.0381
1365.00,0.0370
1364.00,0.0372
1363.00,0.0385
1362.00,0.0404
1361.00,0.0425
1360.00,0.0440
1359.00,0.0443
1358.00,0.0432
1357.00,0.0406
1356.00,0.0370
1355.00,0.0329
1354.00,0.0291
1353.00,0.0258
1352.00,0.0232
1351.00,0.0210
1350.00,0.0193
1349.00,0.0178
1348.00,0.0166
1347.00,0.0157
1346.00,0.0149
1345.00,0.0143
1344.00,0.0139
1343.00,0.0135
1342.00,0.0132
1341.00,0.0130
1340.00,0.0127
1339.00,0.0126
1338.00,0.0125
1337.00,0.0124
1336.00,0.0124
1335.00,0.0125
1334.00,0.0128
1333.00,0.0132
1332.00,0.0136
1331.00,0.0140
1330.00,0.0141
1329.00,0.0139
1328.00,0.0136
1327.00,0.0130
1326.00,0.0124
1325.00,0.0118
1324.00,0.0113
1323.00,0.0108
1322.00,0.0104
1321.00,0.0101
1320.00,0.0098
1319.00,0.0095
1318.00,0.0092
1317.00,0.0090
1316.00,0.0088
1315.00,0.0087
1314.00,0.0087
1313.00,0.0087
1312.00,0.0089
1311.00,0.0093
1310.00,0.0098
1309.00,0.0106
1308.00,0.0117
1307.00,0.0130
1306.00,0.0143
1305.00,0.0153
1304.00,0.0156
1303.00,0.0153
1302.00,0.0146
1301.00,0.0139
1300.00,0.0134
1299.00,0.0131
1298.00,0.0130
1297.00,0.0129
1296.00,0.0127
1295.00,0.0124
1294.00,0.0120
1293.00,0.0114
1292.00,0.0109
1291.00,0.0104
1290.00,0.0099
1289.00,0.0096
1288.00,0.0093
1287.00,0.0090
1286.00,0.0087
1285.00,0.0084
1284.00,0.0081
1283.00,0.0079
1282.00,0.0077
1281.00,0.0075
1280.00,0.0074
1279.00,0.0073
1278.00,0.0072
1277.00,0.0072
1276.00,0.0071
1275.00,0.0072
1274.00,0.0072
1273.00,0.0073
1272.00,0.0074
1271.00,0.0075
1270.00,0.0076
1269.00,0.0077
1268.00,0.0079
1267.00,0.0081
1266.00,0.0084
1265.00,0.0087
1264.00,0.0090
1263.00,0.0094
1262.00,0.0099
1261.00,0.0104
1260.00,0.0111
1259.00,0.0120
1258.00,0.0129
1257.00,0.0137
1256.00,0.0140
1255.00,0.0138
1254.00,0.0131
1253.00,0.0121
1252.00,0.0110
1251.00,0.0102
1250.00,0.0095
1249.00,0.0091
1248.00,0.0088
1247.00,0.0086
1246.00,0.0085
1245.00,0.0084
1244.00,0.0084
1243.00,0.0083
1242.00,0.0082
1241.00,0.0081
1240.00,0.0081
1239.00,0.0080
1238.00,0.0078
1237.00,0.0077
1236.00,0.0076
1235.00,0.0076
1234.00,0.0075
1233.00,0.0075
1232.00,0.0075
1231.00,0.0074
1230.00,0.0074
1229.00,0.0074
1228.00,0.0074
1227.00,0.0075
1226.00,0.0077
1225.00,0.0080
1224.00,0.0083
1223.00,0.0087
1222.00,0.0090
1221.00,0.0093
1220.00,0.0094
1219.00,0.0095
1218.00,0.0095
1217.00,0.0094
1216.00,0.0091
1215.00,0.0089
1214.00,0.0086
1213.00,0.0083
1212.00,0.0079
1211.00,0.0076
1210.00,0.0073
1209.00,0.0071
1208.00,0.0069
1207.00,0.0067
1206.00,0.0065
1205.00,0.0063
1204.00,0.0062
1203.00,0.0061
1202.00,0.0060
1201.00,0.0060
1200.00,0.0059
1199.00,0.0059
1198.00,0.0059
1197.00,0.0059
1196.00,0.0060
1195.00,0.0060
1194.00,0.0060
1193.00,0.0060
1192.00,0.0060
1191.00,0.0061
1190.00,0.0062
1189.00,0.0063
1188.00,0.0065
1187.00,0.0067
1186.00,0.0069
1185.00,0.0071
1184.00,0.0074
1183.00,0.0076
1182.00,0.0079
1181.00,0.0082
1180.00,0.0086
1179.00,0.0092
1178.00,0.0101
1177.00,0.0113
1176.00,0.0127
1175.00,0.0146
1174.00,0.0171
1173.00,0.0202
1172.00,0.0239
1171.00,0.0280
1170.00,0.0320
1169.00,0.0353
1168.00,0.0374
1167.00,0.0381
1166.00,0.0373
1165.00,0.0356
1164.00,0.0332
1163.00,0.0308
1162.00,0.0286
1161.00,0.0267
1160.00,0.0251
1159.00,0.0239
1158.00,0.0229
1157.00,0.0221
1156.00,0.0216
1155.00,0.0212
1154.00,0.0208
1153.00,0.0204
1152.00,0.0199
1151.00,0.0192
1150.00,0.0183
1149.00,0.0173
1148.00,0.0163
1147.00,0.0153
1146.00,0.0144
1145.00,0.0135
1144.00,0.0128
1143.00,0.0121
1142.00,0.0115
1141.00,0.0108
1140.00,0.0103
1139.00,0.0098
1138.00,0.0093
1137.00,0.0090
1136.00,0.0087
1135.00,0.0084
1134.00,0.0082
1133.00,0.0080
1132.00,0.0079
1131.00,0.0079
1130.00,0.0079
1129.00,0.0080
1128.00,0.0081
1127.00,0.0083
1126.00,0.0084
1125.00,0.0085
1124.00,0.0086
1123.00,0.0086
1122.00,0.0085
1121.00,0.0085
1120.00,0.0086
1119.00,0.0087
1118.00,0.0089
1117.00,0.0091
1116.00,0.0093
1115.00,0.0095
1114.00,0.0096
1113.00,0.0098
1112.00,0.0100
1111.00,0.0102
1110.00,0.0106
1109.00,0.0110
1108.00,0.0115
1107.00,0.0121
1106.00,0.0128
1105.00,0.0135
1104.00,0.0141
1103.00,0.0145
1102.00,0.0146
1101.00,0.0143
1100.00,0.0139
1099.00,0.0132
1098.00,0.0126
1097.00,0.0119
1096.00,0.0114
1095.00,0.0109
1094.00,0.0106
1093.00,0.0103
1092.00,0.0101
1091.00,0.0098
1090.00,0.0095
1089.00,0.0093
1088.00,0.0091
1087.00,0.0089
1086.00,0.0088
1085.00,0.0087
1084.00,0.0087
1083.00,0.0086
1082.00,0.0085
1081.00,0.0083
1080.00,0.0081
1079.00,0.0079
1078.00,0.0078
1077.00,0.0078
1076.00,0.0077
1075.00,0.0077
1074.00,0.0077
1073.00,0.0077
1072.00,0.0078
1071.00,0.0079
1070.00,0.0080
1069.00,0.0080
1068.00,0.0080
1067.00,0.0081
1066.00,0.0081
1065.00,0.0082
1064.00,0.0083
1063.00,0.0084
1062.00,0.0084
1061.00,0.0084
1060.00,0.0084
1059.00,0.0085
1058.00,0.0085
1057.00,0.0085
1056.00,0.0086
1055.00,0.0087
1054.00,0.0088
1053.00,0.0088
1052.00,0.0089
1051.00,0.0091
1050.00,0.0093
1049.00,0.0096
1048.00,0.0099
1047.00,0.0102
1046.00,0.0104
1045.00,0.0106
1044.00,0.0106
1043.00,0.0105
1042.00,0.0103
1041.00,0.0100
1040.00,0.0098
1039.00,0.0097
1038.00,0.0097
1037.00,0.0098
1036.00,0.0098
1035.00,0.0099
1034.00,0.0099
1033.00,0.0099
1032.00,0.0098
1031.00,0.0096
1030.00,0.0095
1029.00,0.0095
1028.00,0.0094
1027.00,0.0093
1026.00,0.0093
1025.00,0.0093
1024.00,0.0093
1023.00,0.0093
1022.00,0.0094
1021.00,0.0095
1020.00,0.0096
1019.00,0.0097
1018.00,0.0098
1017.00,0.0099
1016.00,0.0101
1015.00,0.0104
1014.00,0.0108
1013.00,0.0113
1012.00,0.0118
1011.00,0.0123
1010.00,0.0128
1009.00,0.0132
1008.00,0.0138
1007.00,0.0146
1006.00,0.0157
1005.00,0.0171
1004.00,0.0191
1003.00,0.0218
1002.00,0.0253
1001.00,0.0296
1000.00,0.0342
999.00,0.0382
998.00,0.0404
997.00,0.0400
996.00,0.0370
995.00,0.0324
994.00,0.0274
993.00,0.0229
992.00,0.0194
991.00,0.0168
990.00,0.0151
989.00,0.0139
988.00,0.0132
987.00,0.0128
986.00,0.0126
985.00,0.0128
984.00,0.0132
983.00,0.0141
982.00,0.0154
981.00,0.0173
980.00,0.0198
979.00,0.0232
978.00,0.0274
977.00,0.0325
976.00,0.0380
975.00,0.0433
974.00,0.0476
973.00,0.0495
972.00,0.0485
971.00,0.0445
970.00,0.0386
969.00,0.0322
968.00,0.0265
967.00,0.0220
966.00,0.0186
965.00,0.0162
964.00,0.0144
963.00,0.0131
962.00,0.0120
961.00,0.0112
960.00,0.0106
959.00,0.0100
958.00,0.0096
957.00,0.0092
956.00,0.0089
955.00,0.0087
954.00,0.0085
953.00,0.0083
952.00,0.0082
951.00,0.0081
950.00,0.0080
949.00,0.0080
948.00,0.0082
947.00,0.0084
946.00,0.0087
945.00,0.0089
944.00,0.0091
943.00,0.0093
942.00,0.0094
941.00,0.0095
940.00,0.0094
939.00,0.0091
938.00,0.0088
937.00,0.0083
936.00,0.0078
935.00,0.0074
934.00,0.0072
933.00,0.0070
932.00,0.0068
931.00,0.0067
930.00,0.0066
929.00,0.0065
928.00,0.0064
927.00,0.0063
926.00,0.0063
925.00,0.0063
924.00,0.0063
923.00,0.0064
922.00,0.0065
921.00,0.0066
920.00,0.0067
919.00,0.0068
918.00,0.0069
917.00,0.0069
916.00,0.0070
915.00,0.0071
914.00,0.0072
913.00,0.0073
912.00,0.0074
911.00,0.0075
910.00,0.0076
909.00,0.0078
908.00,0.0079
907.00,0.0083
906.00,0.0089
905.00,0.0098
904.00,0.0112
903.00,0.0129
902.00,0.0147
901.00,0.0165
900.00,0.0177
899.00,0.0180
898.00,0.0174
897.00,0.0160
896.00,0.0143
895.00,0.0126
894.00,0.0113
893.00,0.0102
892.00,0.0093
891.00,0.0085
890.00,0.0081
889.00,0.0078
888.00,0.0077
887.00,0.0076
886.00,0.0074
885.00,0.0073
884.00,0.0072
883.00,0.0072
882.00,0.0073
881.00,0.0075
880.00,0.0076
879.00,0.0076
878.00,0.0076
877.00,0.0075
876.00,0.0075
875.00,0.0074
874.00,0.0074
873.00,0.0074
872.00,0.0074
871.00,0.0074
870.00,0.0074
869.00,0.0074
868.00,0.0075
867.00,0.0076
866.00,0.0077
865.00,0.0078
864.00,0.0079
863.00,0.0080
862.00,0.0081
861.00,0.0082
860.00,0.0083
859.00,0.0086
858.00,0.0088
857.00,0.0091
856.00,0.0093
855.00,0.0095
854.00,0.0098
853.00,0.0102
852.00,0.0106
851.00,0.0111
850.00,0.0117
849.00,0.0125
848.00,0.0137
847.00,0.0156
846.00,0.0185
845.00,0.0228
844.00,0.0284
843.00,0.0346
842.00,0.0393
841.00,0.0406
840.00,0.0379
839.00,0.0326
838.00,0.0268
837.00,0.0221
836.00,0.0189
835.00,0.0170
834.00,0.0158
833.00,0.0150
832.00,0.0144
831.00,0.0138
830.00,0.0133
829.00,0.0130
828.00,0.0127
827.00,0.0125
826.00,0.0123
825.00,0.0121
824.00,0.0119
823.00,0.0118
822.00,0.0118
821.00,0.0118
820.00,0.0118
819.00,0.0119
818.00,0.0123
817.00,0.0129
816.00,0.0137
815.00,0.0146
814.00,0.0157
813.00,0.0170
812.00,0.0184
811.00,0.0197
810.00,0.0206
809.00,0.0210
808.00,0.0209
807.00,0.0202
806.00,0.0191
805.00,0.0179
804.00,0.0166
803.00,0.0153
802.00,0.0142
801.00,0.0133
800.00,0.0126
799.00,0.0119
798.00,0.0113
797.00,0.0109
796.00,0.0105
795.00,0.0101
794.00,0.0097
793.00,0.0093
792.00,0.0090
791.00,0.0087
790.00,0.0085
789.00,0.0083
788.00,0.0081
787.00,0.0079
786.00,0.0076
785.00,0.0072
784.00,0.0069
783.00,0.0067
782.00,0.0066
781.00,0.0065
780.00,0.0064
779.00,0.0063
778.00,0.0063
777.00,0.0062
776.00,0.0062
775.00,0.0064
774.00,0.0067
773.00,0.0072
772.00,0.0076
771.00,0.0080
770.00,0.0084
769.00,0.0087
768.00,0.0088
767.00,0.0087
766.00,0.0086
765.00,0.0084
764.00,0.0081
763.00,0.0077
762.00,0.0072
761.00,0.0069
760.00,0.0067
759.00,0.0065
758.00,0.0064
757.00,0.0062
756.00,0.0059
755.00,0.0056
754.00,0.0054
753.00,0.0054
752.00,0.0054
751.00,0.0054
750.00,0.0055
749.00,0.0055
748.00,0.0056
747.00,0.0057
746.00,0.0058
745.00,0.0059
744.00,0.0060
743.00,0.0059
742.00,0.0059
741.00,0.0060
740.00,0.0061
739.00,0.0063
738.00,0.0064
737.00,0.0066
736.00,0.0068
735.00,0.0072
734.00,0.0076
733.00,0.0078
732.00,0.0079
731.00,0.0077
730.00,0.0074
729.00,0.0071
728.00,0.0069
727.00,0.0068
726.00,0.0067
725.00,0.0068
724.00,0.0068
723.00,0.0069
722.00,0.0069
721.00,0.0069
720.00,0.0069
719.00,0.0069
718.00,0.0069
717.00,0.0067
716.00,0.0066
715.00,0.0064
714.00,0.0063
713.00,0.0063
712.00,0.0062
711.00,0.0061
710.00,0.0060
709.00,0.0059
708.00,0.0059
707.00,0.0059
706.00,0.0060
705.00,0.0062
704.00,0.0064
703.00,0.0065
702.00,0.0066
701.00,0.0066
700.00,0.0065
699.00,0.0063
698.00,0.0061
697.00,0.0060
696.00,0.0059
695.00,0.0059
694.00,0.0059
693.00,0.0059
692.00,0.0058
691.00,0.0058
690.00,0.0059
689.00,0.0059
688.00,0.0059
687.00,0.0059
686.00,0.0058
685.00,0.0059
684.00,0.0059
683.00,0.0057
682.00,0.0054
681.00,0.0052
680.00,0.0051
679.00,0.0051
678.00,0.0053
677.00,0.0054
676.00,0.0055
675.00,0.0056
674.00,0.0056
673.00,0.0055
672.00,0.0054
671.00,0.0052
670.00,0.0051
669.00,0.0051
668.00,0.0052
667.00,0.0056
666.00,0.0060
665.00,0.0062
664.00,0.0062
663.00,0.0061
662.00,0.0060
661.00,0.0060
660.00,0.0060
659.00,0.0060
658.00,0.0060
657.00,0.0059
656.00,0.0057
655.00,0.0056
654.00,0.0057
653.00,0.0059
652.00,0.0062
651.00,0.0063
650.00,0.0062
649.00,0.0060
648.00,0.0057
647.00,0.0057
646.00,0.0057
645.00,0.0056
644.00,0.0056
643.00,0.0055
642.00,0.0057
641.00,0.0059
640.00,0.0061
639.00,0.0063
638.00,0.0065
637.00,0.0065
636.00,0.0065
635.00,0.0064
634.00,0.0062
633.00,0.0061
632.00,0.0061
631.00,0.0062
630.00,0.0064
629.00,0.0066
628.00,0.0066
627.00,0.0065
626.00,0.0064
625.00,0.0065
624.00,0.0065
623.00,0.0064
622.00,0.0063
621.00,0.0062
620.00,0.0061
619.00,0.0062
618.00,0.0061
617.00,0.0061
616.00,0.0061
615.00,0.0062
614.00,0.0062
613.00,0.0060
612.00,0.0057
611.00,0.0055
610.00,0.0056
609.00,0.0060
608.00,0.0064
607.00,0.0066
606.00,0.0067
605.00,0.0065
604.00,0.0064
603.00,0.0065
602.00,0.0066
601.00,0.0067
600.00,0.0067
599.00,0.0067
598.00,0.0067
597.00,0.0066
596.00,0.0066
595.00,0.0065
594.00,0.0063
593.00,0.0062
592.00,0.0061
591.00,0.0061
590.00,0.0061
589.00,0.0060
588.00,0.0060
587.00,0.0061
586.00,0.0060
585.00,0.0059
584.00,0.0058
583.00,0.0059
582.00,0.0062
581.00,0.0065
580.00,0.0065
579.00,0.0063
578.00,0.0063
577.00,0.0064
576.00,0.0066
575.00,0.0069
574.00,0.0072
573.00,0.0072
572.00,0.0070
571.00,0.0066
570.00,0.0063
569.00,0.0063
568.00,0.0064
567.00,0.0065
566.00,0.0065
565.00,0.0064
564.00,0.0063
563.00,0.0062
562.00,0.0064
561.00,0.0066
560.00,0.0069
559.00,0.0071
558.00,0.0070
557.00,0.0069
556.00,0.0069
555.00,0.0070
554.00,0.0070
553.00,0.0068
552.00,0.0064
551.00,0.0062
550.00,0.0062
549.00,0.0062
548.00,0.0063
547.00,0.0062
546.00,0.0061
545.00,0.0061
544.00,0.0061
543.00,0.0065
542.00,0.0069
541.00,0.0073
540.00,0.0073
539.00,0.0071
538.00,0.0070
537.00,0.0071
536.00,0.0075
535.00,0.0078
534.00,0.0081
533.00,0.0084
532.00,0.0087
531.00,0.0090
530.00,0.0092
529.00,0.0092
528.00,0.0092
527.00,0.0091
526.00,0.0088
525.00,0.0083
524.00,0.0076
523.00,0.0070
522.00,0.0068
521.00,0.0069
520.00,0.0072
519.00,0.0073
518.00,0.0071
517.00,0.0067
516.00,0.0063
515.00,0.0061
514.00,0.0061
513.00,0.0064
512.00,0.0069
511.00,0.0075
510.00,0.0078
509.00,0.0077
508.00,0.0072
507.00,0.0067
506.00,0.0067
505.00,0.0069
504.00,0.0070
503.00,0.0067
502.00,0.0063
501.00,0.0060
500.00,0.0058
499.00,0.0054
498.00,0.0051
497.00,0.0051
496.00,0.0051
495.00,0.0047
494.00,0.0039
493.00,0.0034
492.00,0.0035
491.00,0.0044
490.00,0.0055
489.00,0.0060
488.00,0.0059
487.00,0.0057
486.00,0.0059
485.00,0.0064
484.00,0.0071
483.00,0.0076
482.00,0.0080
481.00,0.0084
480.00,0.0087
479.00,0.0087
478.00,0.0079
477.00,0.0066
476.00,0.0056
475.00,0.0055
474.00,0.0062
473.00,0.0069
472.00,0.0069
471.00,0.0066
470.00,0.0069
469.00,0.0080
468.00,0.0099
467.00,0.0119
466.00,0.0135
465.00,0.0146
464.00,0.0152
463.00,0.0157
462.00,0.0161
461.00,0.0165
460.00,0.0166
459.00,0.0165
458.00,0.0164
457.00,0.0160
456.00,0.0152
455.00,0.0140
454.00,0.0127
453.00,0.0117
452.00,0.0110
451.00,0.0103
450.00,0.0097
