Created as New Dataset,Sample 079 By Administrator Date Tuesday, September 09 2025
cm-1,A
4000.00,0.0008
3999.00,0.0008
3998.00,0.0009
3997.00,0.0009
3996.00,0.0009
3995.00,0.0009
3994.00,0.0009
3993.00,0.0009
3992.00,0.0009
3991.00,0.0009
3990.00,0.0009
3989.00,0.0009
3988.00,0.0009
3987.00,0.0009
3986.00,0.0008
3985.00,0.0008
3984.00,0.0008
3983.00,0.0008
3982.00,0.0007
3981.00,0.0007
3980.00,0.0007
3979.00,0.0007
3978.00,0.0007
3977.00,0.0007
3976.00,0.0007
3975.00,0.0007
3974.00,0.0007
3973.00,0.0007
3972.00,0.0007
3971.00,0.0007
3970.00,0.0007
3969.00,0.0007
3968.00,0.0007
3967.00,0.0007
3966.00,0.0007
3965.00,0.0007
3964.00,0.0007
3963.00,0.0006
3962.00,0.0006
3961.00,0.0006
3960.00,0.0006
3959.00,0.0006
3958.00,0.0006
3957.00,0.0006
3956.00,0.0006
3955.00,0.0006
3954.00,0.0006
3953.00,0.0006
3952.00,0.0006
3951.00,0.0007
3950.00,0.0007
3949.00,0.0007
3948.00,0.0007
3947.00,0.0007
3946.00,0.0007
3945.00,0.0006
3944.00,0.0006
3943.00,0.0006
3942.00,0.0006
3941.00,0.0007
3940.00,0.0007
3939.00,0.0007
3938.00,0.0007
3937.00,0.0007
3936.00,0.0006
3935.00,0.0006
3934.00,0.0007
3933.00,0.0007
3932.00,0.0007
3931.00,0.0008
3930.00,0.0007
3929.00,0.0007
3928.00,0.0007
3927.00,0.0007
3926.00,0.0007
3925.00,0.0007
3924.00,0.0007
3923.00,0.0007
3922.00,0.0007
3921.00,0.0007
3920.00,0.0006
3919.00,0.0006
3918.00,0.0006
3917.00,0.0006
3916.00,0.0007
3915.00,0.0007
3914.00,0.0007
3913.00,0.0007
3912.00,0.0007
3911.00,0.0007
3910.00,0.0007
3909.00,0.0007
3908.00,0.0007
3907.00,0.0007
3906.00,0.0007
3905.00,0.0007
3904.00,0.0007
3903.00,0.0007
3902.00,0.0007
3901.00,0.0007
3900.00,0.0007
3899.00,0.0007
3898.00,0.0007
3897.00,0.0007
3896.00,0.0007
3895.00,0.0008
3894.00,0.0007
3893.00,0.0007
3892.00,0.0007
3891.00,0.0007
3890.00,0.0007
3889.00,0.0007
3888.00,0.0007
3887.00,0.0007
3886.00,0.0007
3885.00,0.0007
3884.00,0.0007
3883.00,0.0006
3882.00,0.0006
3881.00,0.0007
3880.00,0.0007
3879.00,0.0007
3878.00,0.0007
3877.00,0.0007
3876.00,0.0008
3875.00,0.0008
3874.00,0.0008
3873.00,0.0007
3872.00,0.0007
3871.00,0.0007
3870.00,0.0007
3869.00,0.0006
3868.00,0.0006
3867.00,0.0006
3866.00,0.0005
3865.00,0.0005
3864.00,0.0005
3863.00,0.0005
3862.00,0.0006
3861.00,0.0006
3860.00,0.0007
3859.00,0.0007
3858.00,0.0007
3857.00,0.0007
3856.00,0.0008
3855.00,0.0008
3854.00,0.0008
3853.00,0.0007
3852.00,0.0006
3851.00,0.0006
3850.00,0.0006
3849.00,0.0006
3848.00,0.0006
3847.00,0.0007
3846.00,0.0007
3845.00,0.0007
3844.00,0.0007
3843.00,0.0007
3842.00,0.0006
3841.00,0.0006
3840.00,0.0006
3839.00,0.0006
3838.00,0.0007
3837.00,0.0007
3836.00,0.0007
3835.00,0.0007
3834.00,0.0007
3833.00,0.0007
3832.00,0.0007
3831.00,0.0007
3830.00,0.0007
3829.00,0.0007
3828.00,0.0008
3827.00,0.0008
3826.00,0.0008
3825.00,0.0009
3824.00,0.0008
3823.00,0.0008
3822.00,0.0008
3821.00,0.0007
3820.00,0.0007
3819.00,0.0007
3818.00,0.0007
3817.00,0.0007
3816.00,0.0007
3815.00,0.0007
3814.00,0.0007
3813.00,0.0007
3812.00,0.0007
3811.00,0.0007
3810.00,0.0007
3809.00,0.0008
3808.00,0.0008
3807.00,0.0008
3806.00,0.0009
3805.00,0.0009
3804.00,0.0008
3803.00,0.0008
3802.00,0.0008
3801.00,0.0008
3800.00,0.0007
3799.00,0.0007
3798.00,0.0007
3797.00,0.0007
3796.00,0.0007
3795.00,0.0007
3794.00,0.0006
3793.00,0.0006
3792.00,0.0006
3791.00,0.0006
3790.00,0.0006
3789.00,0.0006
3788.00,0.0006
3787.00,0.0006
3786.00,0.0006
3785.00,0.0006
3784.00,0.0006
3783.00,0.0006
3782.00,0.0006
3781.00,0.0006
3780.00,0.0006
3779.00,0.0006
3778.00,0.0006
3777.00,0.0006
3776.00,0.0006
3775.00,0.0007
3774.00,0.0007
3773.00,0.0007
3772.00,0.0008
3771.00,0.0008
3770.00,0.0008
3769.00,0.0008
3768.00,0.0008
3767.00,0.0008
3766.00,0.0008
3765.00,0.0007
3764.00,0.0007
3763.00,0.0007
3762.00,0.0007
3761.00,0.0008
3760.00,0.0008
3759.00,0.0008
3758.00,0.0008
3757.00,0.0008
3756.00,0.0008
3755.00,0.0008
3754.00,0.0008
3753.00,0.0008
3752.00,0.0008
3751.00,0.0008
3750.00,0.0008
3749.00,0.0008
3748.00,0.0008
3747.00,0.0008
3746.00,0.0007
3745.00,0.0007
3744.00,0.0007
3743.00,0.0006
3742.00,0.0006
3741.00,0.0007
3740.00,0.0007
3739.00,0.0007
3738.00,0.0007
3737.00,0.0007
3736.00,0.0007
3735.00,0.0006
3734.00,0.0006
3733.00,0.0006
3732.00,0.0005
3731.00,0.0005
3730.00,0.0005
3729.00,0.0005
3728.00,0.0004
3727.00,0.0004
3726.00,0.0004
3725.00,0.0005
3724.00,0.0005
3723.00,0.0006
3722.00,0.0006
3721.00,0.0006
3720.00,0.0005
3719.00,0.0005
3718.00,0.0005
3717.00,0.0005
3716.00,0.0005
3715.00,0.0005
3714.00,0.0005
3713.00,0.0005
3712.00,0.0005
3711.00,0.0005
3710.00,0.0005
3709.00,0.0005
3708.00,0.0005
3707.00,0.0005
3706.00,0.0005
3705.00,0.0005
3704.00,0.0005
3703.00,0.0005
3702.00,0.0005
3701.00,0.0005
3700.00,0.0005
3699.00,0.0005
3698.00,0.0005
3697.00,0.0006
3696.00,0.0006
3695.00,0.0006
3694.00,0.0006
3693.00,0.0006
3692.00,0.0006
3691.00,0.0006
3690.00,0.0006
3689.00,0.0006
3688.00,0.0005
3687.00,0.0005
3686.00,0.0004
3685.00,0.0004
3684.00,0.0005
3683.00,0.0005
3682.00,0.0006
3681.00,0.0006
3680.00,0.0006
3679.00,0.0006
3678.00,0.0006
3677.00,0.0006
3676.00,0.0007
3675.00,0.0007
3674.00,0.0006
3673.00,0.0006
3672.00,0.0005
3671.00,0.0005
3670.00,0.0005
3669.00,0.0005
3668.00,0.0005
3667.00,0.0005
3666.00,0.0005
3665.00,0.0005
3664.00,0.0005
3663.00,0.0005
3662.00,0.0006
3661.00,0.0006
3660.00,0.0006
3659.00,0.0006
3658.00,0.0006
3657.00,0.0006
3656.00,0.0006
3655.00,0.0006
3654.00,0.0006
3653.00,0.0006
3652.00,0.0006
3651.00,0.0007
3650.00,0.0007
3649.00,0.0006
3648.00,0.0006
3647.00,0.0006
3646.00,0.0005
3645.00,0.0005
3644.00,0.0005
3643.00,0.0005
3642.00,0.0005
3641.00,0.0005
3640.00,0.0005
3639.00,0.0005
3638.00,0.0005
3637.00,0.0006
3636.00,0.0007
3635.00,0.0007
3634.00,0.0007
3633.00,0.0006
3632.00,0.0006
3631.00,0.0005
3630.00,0.0005
3629.00,0.0005
3628.00,0.0005
3627.00,0.0005
3626.00,0.0005
3625.00,0.0006
3624.00,0.0006
3623.00,0.0007
3622.00,0.0007
3621.00,0.0007
3620.00,0.0006
3619.00,0.0006
3618.00,0.0005
3617.00,0.0005
3616.00,0.0005
3615.00,0.0005
3614.00,0.0005
3613.00,0.0005
3612.00,0.0006
3611.00,0.0006
3610.00,0.0006
3609.00,0.0007
3608.00,0.0007
3607.00,0.0007
3606.00,0.0007
3605.00,0.0007
3604.00,0.0007
3603.00,0.0007
3602.00,0.0006
3601.00,0.0006
3600.00,0.0007
3599.00,0.0007
3598.00,0.0008
3597.00,0.0008
3596.00,0.0008
3595.00,0.0008
3594.00,0.0008
3593.00,0.0008
3592.00,0.0008
3591.00,0.0008
3590.00,0.0008
3589.00,0.0008
3588.00,0.0009
3587.00,0.0009
3586.00,0.0009
3585.00,0.0009
3584.00,0.0009
3583.00,0.0009
3582.00,0.0009
3581.00,0.0009
3580.00,0.0009
3579.00,0.0009
3578.00,0.0010
3577.00,0.0010
3576.00,0.0010
3575.00,0.0011
3574.00,0.0011
3573.00,0.0010
3572.00,0.0010
3571.00,0.0010
3570.00,0.0010
3569.00,0.0011
3568.00,0.0012
3567.00,0.0012
3566.00,0.0012
3565.00,0.0012
3564.00,0.0012
3563.00,0.0012
3562.00,0.0011
3561.00,0.0011
3560.00,0.0012
3559.00,0.0012
3558.00,0.0012
3557.00,0.0013
3556.00,0.0013
3555.00,0.0013
3554.00,0.0014
3553.00,0.0014
3552.00,0.0014
3551.00,0.0015
3550.00,0.0015
3549.00,0.0015
3548.00,0.0015
3547.00,0.0015
3546.00,0.0015
3545.00,0.0015
3544.00,0.0015
3543.00,0.0015
3542.00,0.0015
3541.00,0.0015
3540.00,0.0015
3539.00,0.0016
3538.00,0.0016
3537.00,0.0016
3536.00,0.0017
3535.00,0.0017
3534.00,0.0017
3533.00,0.0017
3532.00,0.0017
3531.00,0.0017
3530.00,0.0018
3529.00,0.0018
3528.00,0.0018
3527.00,0.0018
3526.00,0.0018
3525.00,0.0018
3524.00,0.0018
3523.00,0.0018
3522.00,0.0018
3521.00,0.0018
3520.00,0.0018
3519.00,0.0019
3518.00,0.0019
3517.00,0.0019
3516.00,0.0019
3515.00,0.0019
3514.00,0.0020
3513.00,0.0020
3512.00,0.0020
3511.00,0.0021
3510.00,0.0021
3509.00,0.0021
3508.00,0.0021
3507.00,0.0021
3506.00,0.0021
3505.00,0.0022
3504.00,0.0022
3503.00,0.0022
3502.00,0.0022
3501.00,0.0022
3500.00,0.0022
3499.00,0.0022
3498.00,0.0023
3497.00,0.0023
3496.00,0.0024
3495.00,0.0024
3494.00,0.0025
3493.00,0.0025
3492.00,0.0025
3491.00,0.0025
3490.00,0.0025
3489.00,0.0025
3488.00,0.0025
3487.00,0.0025
3486.00,0.0025
3485.00,0.0025
3484.00,0.0025
3483.00,0.0025
3482.00,0.0025
3481.00,0.0025
3480.00,0.0026
3479.00,0.0026
3478.00,0.0026
3477.00,0.0026
3476.00,0.0026
3475.00,0.0027
3474.00,0.0027
3473.00,0.0028
3472.00,0.0028
3471.00,0.0028
3470.00,0.0028
3469.00,0.0028
3468.00,0.0029
3467.00,0.0029
3466.00,0.0029
3465.00,0.0029
3464.00,0.0029
3463.00,0.0029
3462.00,0.0029
3461.00,0.0029
3460.00,0.0030
3459.00,0.0030
3458.00,0.0031
3457.00,0.0032
3456.00,0.0032
3455.00,0.0031
3454.00,0.0031
3453.00,0.0031
3452.00,0.0031
3451.00,0.0031
3450.00,0.0031
3449.00,0.0032
3448.00,0.0033
3447.00,0.0033
3446.00,0.0033
3445.00,0.0033
3444.00,0.0033
3443.00,0.0032
3442.00,0.0032
3441.00,0.0033
3440.00,0.0033
3439.00,0.0033
3438.00,0.0033
3437.00,0.0033
3436.00,0.0033
3435.00,0.0033
3434.00,0.0033
3433.00,0.0033
3432.00,0.0033
3431.00,0.0033
3430.00,0.0033
3429.00,0.0034
3428.00,0.0035
3427.00,0.0035
3426.00,0.0036
3425.00,0.0036
3424.00,0.0036
3423.00,0.0036
3422.00,0.0036
3421.00,0.0036
3420.00,0.0036
3419.00,0.0036
3418.00,0.0037
3417.00,0.0036
3416.00,0.0036
3415.00,0.0036
3414.00,0.0036
3413.00,0.0036
3412.00,0.0036
3411.00,0.0036
3410.00,0.0036
3409.00,0.0036
3408.00,0.0036
3407.00,0.0036
3406.00,0.0036
3405.00,0.0036
3404.00,0.0036
3403.00,0.0037
3402.00,0.0037
3401.00,0.0037
3400.00,0.0037
3399.00,0.0037
3398.00,0.0037
3397.00,0.0036
3396.00,0.0036
3395.00,0.0036
3394.00,0.0036
3393.00,0.0037
3392.00,0.0037
3391.00,0.0037
3390.00,0.0037
3389.00,0.0037
3388.00,0.0037
3387.00,0.0037
3386.00,0.0037
3385.00,0.0037
3384.00,0.0037
3383.00,0.0037
3382.00,0.0038
3381.00,0.0038
3380.00,0.0038
3379.00,0.0038
3378.00,0.0038
3377.00,0.0038
3376.00,0.0037
3375.00,0.0037
3374.00,0.0037
3373.00,0.0037
3372.00,0.0037
3371.00,0.0037
3370.00,0.0037
3369.00,0.0038
3368.00,0.0038
3367.00,0.0038
3366.00,0.0038
3365.00,0.0039
3364.00,0.0039
3363.00,0.0039
3362.00,0.0039
3361.00,0.0039
3360.00,0.0039
3359.00,0.0039
3358.00,0.0039
3357.00,0.0039
3356.00,0.0039
3355.00,0.0039
3354.00,0.0039
3353.00,0.0039
3352.00,0.0039
3351.00,0.0039
3350.00,0.0038
3349.00,0.0038
3348.00,0.0038
3347.00,0.0038
3346.00,0.0038
3345.00,0.0038
3344.00,0.0038
3343.00,0.0038
3342.00,0.0038
3341.00,0.0038
3340.00,0.0038
3339.00,0.0038
3338.00,0.0037
3337.00,0.0037
3336.00,0.0037
3335.00,0.0038
3334.00,0.0038
3333.00,0.0038
3332.00,0.0037
3331.00,0.0037
3330.00,0.0037
3329.00,0.0037
3328.00,0.0037
3327.00,0.0037
3326.00,0.0036
3325.00,0.0036
3324.00,0.0036
3323.00,0.0036
3322.00,0.0035
3321.00,0.0035
3320.00,0.0035
3319.00,0.0034
3318.00,0.0034
3317.00,0.0034
3316.00,0.0034
3315.00,0.0034
3314.00,0.0035
3313.00,0.0035
3312.00,0.0034
3311.00,0.0034
3310.00,0.0033
3309.00,0.0033
3308.00,0.0033
3307.00,0.0033
3306.00,0.0034
3305.00,0.0034
3304.00,0.0034
3303.00,0.0035
3302.00,0.0035
3301.00,0.0035
3300.00,0.0035
3299.00,0.0035
3298.00,0.0035
3297.00,0.0035
3296.00,0.0035
3295.00,0.0035
3294.00,0.0035
3293.00,0.0035
3292.00,0.0035
3291.00,0.0034
3290.00,0.0034
3289.00,0.0034
3288.00,0.0034
3287.00,0.0034
3286.00,0.0034
3285.00,0.0033
3284.00,0.0033
3283.00,0.0034
3282.00,0.0034
3281.00,0.0034
3280.00,0.0034
3279.00,0.0033
3278.00,0.0033
3277.00,0.0033
3276.00,0.0033
3275.00,0.0033
3274.00,0.0033
3273.00,0.0033
3272.00,0.0033
3271.00,0.0033
3270.00,0.0033
3269.00,0.0033
3268.00,0.0033
3267.00,0.0033
3266.00,0.0033
3265.00,0.0033
3264.00,0.0033
3263.00,0.0033
3262.00,0.0033
3261.00,0.0033
3260.00,0.0033
3259.00,0.0033
3258.00,0.0033
3257.00,0.0032
3256.00,0.0032
3255.00,0.0032
3254.00,0.0032
3253.00,0.0032
3252.00,0.0032
3251.00,0.0031
3250.00,0.0031
3249.00,0.0031
3248.00,0.0031
3247.00,0.0031
3246.00,0.0031
3245.00,0.0032
3244.00,0.0031
3243.00,0.0031
3242.00,0.0031
3241.00,0.0030
3240.00,0.0030
3239.00,0.0031
3238.00,0.0031
3237.00,0.0031
3236.00,0.0032
3235.00,0.0032
3234.00,0.0032
3233.00,0.0032
3232.00,0.0032
3231.00,0.0032
3230.00,0.0032
3229.00,0.0032
3228.00,0.0033
3227.00,0.0033
3226.00,0.0034
3225.00,0.0034
3224.00,0.0034
3223.00,0.0034
3222.00,0.0034
3221.00,0.0034
3220.00,0.0034
3219.00,0.0034
3218.00,0.0035
3217.00,0.0035
3216.00,0.0035
3215.00,0.0035
3214.00,0.0035
3213.00,0.0035
3212.00,0.0035
3211.00,0.0035
3210.00,0.0036
3209.00,0.0036
3208.00,0.0036
3207.00,0.0036
3206.00,0.0036
3205.00,0.0036
3204.00,0.0036
3203.00,0.0036
3202.00,0.0036
3201.00,0.0037
3200.00,0.0037
3199.00,0.0037
3198.00,0.0038
3197.00,0.0038
3196.00,0.0038
3195.00,0.0038
3194.00,0.0037
3193.00,0.0037
3192.00,0.0037
3191.00,0.0037
3190.00,0.0037
3189.00,0.0036
3188.00,0.0036
3187.00,0.0036
3186.00,0.0036
3185.00,0.0036
3184.00,0.0036
3183.00,0.0036
3182.00,0.0036
3181.00,0.0036
3180.00,0.0035
3179.00,0.0035
3178.00,0.0035
3177.00,0.0034
3176.00,0.0034
3175.00,0.0034
3174.00,0.0034
3173.00,0.0034
3172.00,0.0033
3171.00,0.0033
3170.00,0.0033
3169.00,0.0033
3168.00,0.0033
3167.00,0.0034
3166.00,0.0033
3165.00,0.0033
3164.00,0.0033
3163.00,0.0033
3162.00,0.0033
3161.00,0.0033
3160.00,0.0033
3159.00,0.0033
3158.00,0.0032
3157.00,0.0032
3156.00,0.0032
3155.00,0.0032
3154.00,0.0032
3153.00,0.0032
3152.00,0.0032
3151.00,0.0032
3150.00,0.0032
3149.00,0.0032
3148.00,0.0032
3147.00,0.0032
3146.00,0.0032
3145.00,0.0032
3144.00,0.0031
3143.00,0.0031
3142.00,0.0031
3141.00,0.0031
3140.00,0.0031
3139.00,0.0031
3138.00,0.0031
3137.00,0.0030
3136.00,0.0030
3135.00,0.0030
3134.00,0.0030
3133.00,0.0030
3132.00,0.0030
3131.00,0.0029
3130.00,0.0029
3129.00,0.0029
3128.00,0.0029
3127.00,0.0029
3126.00,0.0029
3125.00,0.0029
3124.00,0.0028
3123.00,0.0028
3122.00,0.0027
3121.00,0.0027
3120.00,0.0026
3119.00,0.0026
3118.00,0.0026
3117.00,0.0027
3116.00,0.0027
3115.00,0.0027
3114.00,0.0027
3113.00,0.0026
3112.00,0.0026
3111.00,0.0026
3110.00,0.0026
3109.00,0.0026
3108.00,0.0026
3107.00,0.0026
3106.00,0.0026
3105.00,0.0025
3104.00,0.0025
3103.00,0.0025
3102.00,0.0025
3101.00,0.0025
3100.00,0.0025
3099.00,0.0025
3098.00,0.0025
3097.00,0.0025
3096.00,0.0025
3095.00,0.0024
3094.00,0.0024
3093.00,0.0024
3092.00,0.0024
3091.00,0.0024
3090.00,0.0024
3089.00,0.0024
3088.00,0.0024
3087.00,0.0024
3086.00,0.0024
3085.00,0.0024
3084.00,0.0024
3083.00,0.0024
3082.00,0.0024
3081.00,0.0024
3080.00,0.0024
3079.00,0.0024
3078.00,0.0024
3077.00,0.0024
3076.00,0.0024
3075.00,0.0024
3074.00,0.0024
3073.00,0.0024
3072.00,0.0025
3071.00,0.0025
3070.00,0.0025
3069.00,0.0025
3068.00,0.0025
3067.00,0.0025
3066.00,0.0025
3065.00,0.0025
3064.00,0.0025
3063.00,0.0025
3062.00,0.0026
3061.00,0.0026
3060.00,0.0026
3059.00,0.0026
3058.00,0.0026
3057.00,0.0026
3056.00,0.0027
3055.00,0.0027
3054.00,0.0028
3053.00,0.0029
3052.00,0.0029
3051.00,0.0029
3050.00,0.0029
3049.00,0.0030
3048.00,0.0030
3047.00,0.0030
3046.00,0.0030
3045.00,0.0030
3044.00,0.0030
3043.00,0.0030
3042.00,0.0029
3041.00,0.0030
3040.00,0.0030
3039.00,0.0030
3038.00,0.0031
3037.00,0.0031
3036.00,0.0031
3035.00,0.0032
3034.00,0.0032
3033.00,0.0032
3032.00,0.0032
3031.00,0.0033
3030.00,0.0034
3029.00,0.0035
3028.00,0.0036
3027.00,0.0037
3026.00,0.0038
3025.00,0.0038
3024.00,0.0038
3023.00,0.0039
3022.00,0.0040
3021.00,0.0041
3020.00,0.0042
3019.00,0.0043
3018.00,0.0043
3017.00,0.0044
3016.00,0.0045
3015.00,0.0046
3014.00,0.0047
3013.00,0.0049
3012.00,0.0050
3011.00,0.0051
3010.00,0.0053
3009.00,0.0054
3008.00,0.0056
3007.00,0.0058
3006.00,0.0060
3005.00,0.0062
3004.00,0.0065
3003.00,0.0067
3002.00,0.0070
3001.00,0.0073
3000.00,0.0076
2999.00,0.0080
2998.00,0.0083
2997.00,0.0087
2996.00,0.0091
2995.00,0.0095
2994.00,0.0099
2993.00,0.0104
2992.00,0.0110
2991.00,0.0116
2990.00,0.0123
2989.00,0.0131
2988.00,0.0140
2987.00,0.0150
2986.00,0.0162
2985.00,0.0174
2984.00,0.0188
2983.00,0.0203
2982.00,0.0220
2981.00,0.0239
2980.00,0.0260
2979.00,0.0284
2978.00,0.0312
2977.00,0.0343
2976.00,0.0379
2975.00,0.0421
2974.00,0.0468
2973.00,0.0522
2972.00,0.0582
2971.00,0.0650
2970.00,0.0726
2969.00,0.0811
2968.00,0.0903
2967.00,0.1003
2966.00,0.1110
2965.00,0.1221
2964.00,0.1333
2963.00,0.1441
2962.00,0.1540
2961.00,0.1623
2960.00,0.1690
2959.00,0.1741
2958.00,0.1779
2957.00,0.1811
2956.00,0.1843
2955.00,0.1882
2954.00,0.1928
2953.00,0.1980
2952.00,0.2027
2951.00,0.2061
2950.00,0.2069
2949.00,0.2043
2948.00,0.1977
2947.00,0.1875
2946.00,0.1744
2945.00,0.1601
2944.00,0.1459
2943.00,0.1332
2942.00,0.1229
2941.00,0.1153
2940.00,0.1103
2939.00,0.1079
2938.00,0.1077
2937.00,0.1095
2936.00,0.1130
2935.00,0.1182
2934.00,0.1248
2933.00,0.1328
2932.00,0.1418
2931.00,0.1517
2930.00,0.1622
2929.00,0.1728
2928.00,0.1834
2927.00,0.1935
2926.00,0.2030
2925.00,0.2120
2924.00,0.2206
2923.00,0.2290
2922.00,0.2372
2921.00,0.2449
2920.00,0.2518
2919.00,0.2570
2918.00,0.2598
2917.00,0.2596
2916.00,0.2564
2915.00,0.2505
2914.00,0.2427
2913.00,0.2340
2912.00,0.2253
2911.00,0.2170
2910.00,0.2094
2909.00,0.2025
2908.00,0.1960
2907.00,0.1897
2906.00,0.1833
2905.00,0.1766
2904.00,0.1697
2903.00,0.1625
2902.00,0.1553
2901.00,0.1481
2900.00,0.1411
2899.00,0.1344
2898.00,0.1283
2897.00,0.1227
2896.00,0.1178
2895.00,0.1137
2894.00,0.1104
2893.00,0.1078
2892.00,0.1059
2891.00,0.1047
2890.00,0.1041
2889.00,0.1039
2888.00,0.1042
2887.00,0.1049
2886.00,0.1058
2885.00,0.1072
2884.00,0.1090
2883.00,0.1113
2882.00,0.1140
2881.00,0.1169
2880.00,0.1197
2879.00,0.1219
2878.00,0.1234
2877.00,0.1238
2876.00,0.1233
2875.00,0.1223
2874.00,0.1214
2873.00,0.1210
2872.00,0.1215
2871.00,0.1227
2870.00,0.1246
2869.00,0.1265
2868.00,0.1278
2867.00,0.1274
2866.00,0.1248
2865.00,0.1194
2864.00,0.1116
2863.00,0.1023
2862.00,0.0925
2861.00,0.0832
2860.00,0.0751
2859.00,0.0686
2858.00,0.0636
2857.00,0.0600
2856.00,0.0576
2855.00,0.0562
2854.00,0.0556
2853.00,0.0558
2852.00,0.0566
2851.00,0.0582
2850.00,0.0606
2849.00,0.0637
2848.00,0.0678
2847.00,0.0727
2846.00,0.0785
2845.00,0.0853
2844.00,0.0929
2843.00,0.1011
2842.00,0.1095
2841.00,0.1174
2840.00,0.1241
2839.00,0.1285
2838.00,0.1297
2837.00,0.1271
2836.00,0.1208
2835.00,0.1114
2834.00,0.1002
2833.00,0.0883
2832.00,0.0770
2831.00,0.0669
2830.00,0.0584
2829.00,0.0515
2828.00,0.0459
2827.00,0.0414
2826.00,0.0377
2825.00,0.0347
2824.00,0.0322
2823.00,0.0300
2822.00,0.0282
2821.00,0.0266
2820.00,0.0253
2819.00,0.0241
2818.00,0.0231
2817.00,0.0222
2816.00,0.0214
2815.00,0.0207
2814.00,0.0201
2813.00,0.0195
2812.00,0.0189
2811.00,0.0184
2810.00,0.0178
2809.00,0.0173
2808.00,0.0167
2807.00,0.0160
2806.00,0.0154
2805.00,0.0148
2804.00,0.0141
2803.00,0.0135
2802.00,0.0129
2801.00,0.0124
2800.00,0.0121
2799.00,0.0118
2798.00,0.0115
2797.00,0.0113
2796.00,0.0111
2795.00,0.0108
2794.00,0.0105
2793.00,0.0102
2792.00,0.0099
2791.00,0.0095
2790.00,0.0092
2789.00,0.0088
2788.00,0.0085
2787.00,0.0082
2786.00,0.0079
2785.00,0.0076
2784.00,0.0074
2783.00,0.0071
2782.00,0.0069
2781.00,0.0067
2780.00,0.0066
2779.00,0.0064
2778.00,0.0062
2777.00,0.0060
2776.00,0.0059
2775.00,0.0058
2774.00,0.0057
2773.00,0.0057
2772.00,0.0056
2771.00,0.0056
2770.00,0.0055
2769.00,0.0055
2768.00,0.0055
2767.00,0.0054
2766.00,0.0054
2765.00,0.0054
2764.00,0.0053
2763.00,0.0053
2762.00,0.0053
2761.00,0.0052
2760.00,0.0052
2759.00,0.0051
2758.00,0.0051
2757.00,0.0050
2756.00,0.0050
2755.00,0.0050
2754.00,0.0050
2753.00,0.0050
2752.00,0.0050
2751.00,0.0050
2750.00,0.0050
2749.00,0.0050
2748.00,0.0050
2747.00,0.0051
2746.00,0.0051
2745.00,0.0052
2744.00,0.0053
2743.00,0.0054
2742.00,0.0055
2741.00,0.0056
2740.00,0.0057
2739.00,0.0059
2738.00,0.0060
2737.00,0.0062
2736.00,0.0063
2735.00,0.0065
2734.00,0.0067
2733.00,0.0069
2732.00,0.0071
2731.00,0.0073
2730.00,0.0075
2729.00,0.0078
2728.00,0.0080
2727.00,0.0083
2726.00,0.0086
2725.00,0.0088
2724.00,0.0090
2723.00,0.0091
2722.00,0.0090
2721.00,0.0088
2720.00,0.0085
2719.00,0.0081
2718.00,0.0077
2717.00,0.0074
2716.00,0.0071
2715.00,0.0068
2714.00,0.0065
2713.00,0.0063
2712.00,0.0061
2711.00,0.0059
2710.00,0.0058
2709.00,0.0056
2708.00,0.0055
2707.00,0.0053
2706.00,0.0052
2705.00,0.0051
2704.00,0.0049
2703.00,0.0048
2702.00,0.0047
2701.00,0.0046
2700.00,0.0046
2699.00,0.0045
2698.00,0.0045
2697.00,0.0045
2696.00,0.0045
2695.00,0.0045
2694.00,0.0044
2693.00,0.0044
2692.00,0.0044
2691.00,0.0044
2690.00,0.0044
2689.00,0.0044
2688.00,0.0044
2687.00,0.0044
2686.00,0.0044
2685.00,0.0044
2684.00,0.0044
2683.00,0.0045
2682.00,0.0045
2681.00,0.0045
2680.00,0.0045
2679.00,0.0045
2678.00,0.0045
2677.00,0.0045
2676.00,0.0045
2675.00,0.0044
2674.00,0.0044
2673.00,0.0044
2672.00,0.0045
2671.00,0.0045
2670.00,0.0045
2669.00,0.0045
2668.00,0.0045
2667.00,0.0045
2666.00,0.0046
2665.00,0.0046
2664.00,0.0047
2663.00,0.0047
2662.00,0.0047
2661.00,0.0047
2660.00,0.0047
2659.00,0.0048
2658.00,0.0048
2657.00,0.0048
2656.00,0.0047
2655.00,0.0047
2654.00,0.0046
2653.00,0.0045
2652.00,0.0044
2651.00,0.0044
2650.00,0.0043
2649.00,0.0042
2648.00,0.0041
2647.00,0.0041
2646.00,0.0041
2645.00,0.0041
2644.00,0.0040
2643.00,0.0040
2642.00,0.0040
2641.00,0.0039
2640.00,0.0039
2639.00,0.0039
2638.00,0.0038
2637.00,0.0037
2636.00,0.0037
2635.00,0.0037
2634.00,0.0037
2633.00,0.0037
2632.00,0.0038
2631.00,0.0038
2630.00,0.0038
2629.00,0.0038
2628.00,0.0038
2627.00,0.0039
2626.00,0.0039
2625.00,0.0039
2624.00,0.0039
2623.00,0.0039
2622.00,0.0039
2621.00,0.0039
2620.00,0.0039
2619.00,0.0040
2618.00,0.0040
2617.00,0.0040
2616.00,0.0040
2615.00,0.0040
2614.00,0.0040
2613.00,0.0039
2612.00,0.0039
2611.00,0.0038
2610.00,0.0038
2609.00,0.0037
2608.00,0.0036
2607.00,0.0035
2606.00,0.0035
2605.00,0.0034
2604.00,0.0033
2603.00,0.0033
2602.00,0.0033
2601.00,0.0033
2600.00,0.0033
2599.00,0.0033
2598.00,0.0032
2597.00,0.0032
2596.00,0.0032
2595.00,0.0033
2594.00,0.0033
2593.00,0.0034
2592.00,0.0034
2591.00,0.0034
2590.00,0.0034
2589.00,0.0035
2588.00,0.0035
2587.00,0.0036
2586.00,0.0038
2585.00,0.0039
2584.00,0.0039
2583.00,0.0040
2582.00,0.0040
2581.00,0.0040
2580.00,0.0039
2579.00,0.0039
2578.00,0.0038
2577.00,0.0037
2576.00,0.0035
2575.00,0.0034
2574.00,0.0032
2573.00,0.0031
2572.00,0.0031
2571.00,0.0030
2570.00,0.0029
2569.00,0.0029
2568.00,0.0028
2567.00,0.0027
2566.00,0.0026
2565.00,0.0026
2564.00,0.0026
2563.00,0.0025
2562.00,0.0024
2561.00,0.0024
2560.00,0.0023
2559.00,0.0023
2558.00,0.0023
2557.00,0.0022
2556.00,0.0022
2555.00,0.0022
2554.00,0.0022
2553.00,0.0022
2552.00,0.0021
2551.00,0.0019
2550.00,0.0019
2549.00,0.0018
2548.00,0.0019
2547.00,0.0019
2546.00,0.0019
2545.00,0.0019
2544.00,0.0019
2543.00,0.0018
2542.00,0.0017
2541.00,0.0017
2540.00,0.0016
2539.00,0.0016
2538.00,0.0016
2537.00,0.0016
2536.00,0.0015
2535.00,0.0015
2534.00,0.0015
2533.00,0.0015
2532.00,0.0016
2531.00,0.0016
2530.00,0.0016
2529.00,0.0017
2528.00,0.0016
2527.00,0.0016
2526.00,0.0015
2525.00,0.0014
2524.00,0.0014
2523.00,0.0014
2522.00,0.0013
2521.00,0.0012
2520.00,0.0012
2519.00,0.0011
2518.00,0.0011
2517.00,0.0011
2516.00,0.0011
2515.00,0.0011
2514.00,0.0011
2513.00,0.0011
2512.00,0.0011
2511.00,0.0010
2510.00,0.0010
2509.00,0.0010
2508.00,0.0010
2507.00,0.0010
2506.00,0.0010
2505.00,0.0010
2504.00,0.0010
2503.00,0.0010
2502.00,0.0010
2501.00,0.0010
2500.00,0.0010
2499.00,0.0010
2498.00,0.0010
2497.00,0.0011
2496.00,0.0011
2495.00,0.0011
2494.00,0.0011
2493.00,0.0011
2492.00,0.0011
2491.00,0.0010
2490.00,0.0010
2489.00,0.0011
2488.00,0.0011
2487.00,0.0011
2486.00,0.0010
2485.00,0.0010
2484.00,0.0010
2483.00,0.0010
2482.00,0.0010
2481.00,0.0010
2480.00,0.0010
2479.00,0.0009
2478.00,0.0009
2477.00,0.0008
2476.00,0.0008
2475.00,0.0008
2474.00,0.0008
2473.00,0.0008
2472.00,0.0009
2471.00,0.0009
2470.00,0.0009
2469.00,0.0009
2468.00,0.0009
2467.00,0.0009
2466.00,0.0009
2465.00,0.0010
2464.00,0.0010
2463.00,0.0009
2462.00,0.0009
2461.00,0.0010
2460.00,0.0010
2459.00,0.0010
2458.00,0.0011
2457.00,0.0011
2456.00,0.0011
2455.00,0.0011
2454.00,0.0011
2453.00,0.0011
2452.00,0.0011
2451.00,0.0011
2450.00,0.0011
2449.00,0.0010
2448.00,0.0010
2447.00,0.0010
2446.00,0.0010
2445.00,0.0010
2444.00,0.0010
2443.00,0.0009
2442.00,0.0009
2441.00,0.0009
2440.00,0.0009
2439.00,0.0010
2438.00,0.0010
2437.00,0.0010
2436.00,0.0010
2435.00,0.0011
2434.00,0.0011
2433.00,0.0012
2432.00,0.0012
2431.00,0.0012
2430.00,0.0012
2429.00,0.0012
2428.00,0.0012
2427.00,0.0012
2426.00,0.0012
2425.00,0.0011
2424.00,0.0011
2423.00,0.0010
2422.00,0.0010
2421.00,0.0009
2420.00,0.0009
2419.00,0.0009
2418.00,0.0009
2417.00,0.0009
2416.00,0.0009
2415.00,0.0010
2414.00,0.0010
2413.00,0.0010
2412.00,0.0010
2411.00,0.0010
2410.00,0.0009
2409.00,0.0009
2408.00,0.0009
2407.00,0.0009
2406.00,0.0008
2405.00,0.0008
2404.00,0.0007
2403.00,0.0007
2402.00,0.0008
2401.00,0.0008
2400.00,0.0008
2399.00,0.0008
2398.00,0.0008
2397.00,0.0008
2396.00,0.0008
2395.00,0.0008
2394.00,0.0008
2393.00,0.0008
2392.00,0.0009
2391.00,0.0009
2390.00,0.0008
2389.00,0.0008
2388.00,0.0008
2387.00,0.0008
2386.00,0.0007
2385.00,0.0007
2384.00,0.0006
2383.00,0.0005
2382.00,0.0004
2381.00,0.0003
2380.00,0.0003
2379.00,0.0002
2378.00,0.0001
2377.00,0.0001
2376.00,0.0001
2375.00,0.0001
2374.00,0.0001
2373.00,0.0002
2372.00,0.0003
2371.00,0.0003
2370.00,0.0003
2369.00,0.0002
2368.00,0.0002
2367.00,0.0001
2366.00,0.0001
2365.00,0.0001
2364.00,0.0002
2363.00,0.0002
2362.00,0.0003
2361.00,0.0003
2360.00,0.0004
2359.00,0.0004
2358.00,0.0004
2357.00,0.0004
2356.00,0.0004
2355.00,0.0003
2354.00,0.0003
2353.00,0.0002
2352.00,0.0003
2351.00,0.0003
2350.00,0.0004
2349.00,0.0004
2348.00,0.0004
2347.00,0.0004
2346.00,0.0004
2345.00,0.0004
2344.00,0.0005
2343.00,0.0005
2342.00,0.0006
2341.00,0.0006
2340.00,0.0006
2339.00,0.0007
2338.00,0.0007
2337.00,0.0007
2336.00,0.0006
2335.00,0.0006
2334.00,0.0005
2333.00,0.0005
2332.00,0.0005
2331.00,0.0006
2330.00,0.0006
2329.00,0.0007
2328.00,0.0008
2327.00,0.0012
2326.00,0.0016
2325.00,0.0019
2324.00,0.0021
2323.00,0.0020
2322.00,0.0017
2321.00,0.0016
2320.00,0.0015
2319.00,0.0014
2318.00,0.0013
2317.00,0.0013
2316.00,0.0012
2315.00,0.0011
2314.00,0.0011
2313.00,0.0011
2312.00,0.0011
2311.00,0.0011
2310.00,0.0010
2309.00,0.0011
2308.00,0.0011
2307.00,0.0011
2306.00,0.0012
2305.00,0.0012
2304.00,0.0012
2303.00,0.0012
2302.00,0.0012
2301.00,0.0013
2300.00,0.0013
2299.00,0.0013
2298.00,0.0014
2297.00,0.0014
2296.00,0.0015
2295.00,0.0015
2294.00,0.0016
2293.00,0.0017
2292.00,0.0018
2291.00,0.0019
2290.00,0.0019
2289.00,0.0020
2288.00,0.0020
2287.00,0.0020
2286.00,0.0020
2285.00,0.0019
2284.00,0.0018
2283.00,0.0016
2282.00,0.0015
2281.00,0.0014
2280.00,0.0014
2279.00,0.0014
2278.00,0.0014
2277.00,0.0014
2276.00,0.0013
2275.00,0.0012
2274.00,0.0012
2273.00,0.0012
2272.00,0.0012
2271.00,0.0012
2270.00,0.0012
2269.00,0.0013
2268.00,0.0013
2267.00,0.0013
2266.00,0.0013
2265.00,0.0014
2264.00,0.0014
2263.00,0.0014
2262.00,0.0014
2261.00,0.0013
2260.00,0.0013
2259.00,0.0012
2258.00,0.0012
2257.00,0.0011
2256.00,0.0010
2255.00,0.0008
2254.00,0.0006
2253.00,0.0006
2252.00,0.0005
2251.00,0.0006
2250.00,0.0006
2249.00,0.0006
2248.00,0.0007
2247.00,0.0008
2246.00,0.0009
2245.00,0.0008
2244.00,0.0008
2243.00,0.0006
2242.00,0.0006
2241.00,0.0006
2240.00,0.0006
2239.00,0.0006
2238.00,0.0007
2237.00,0.0008
2236.00,0.0009
2235.00,0.0009
2234.00,0.0009
2233.00,0.0009
2232.00,0.0009
2231.00,0.0009
2230.00,0.0010
2229.00,0.0011
2228.00,0.0012
2227.00,0.0011
2226.00,0.0009
2225.00,0.0008
2224.00,0.0006
2223.00,0.0004
2222.00,0.0003
2221.00,0.0003
2220.00,0.0004
2219.00,0.0006
2218.00,0.0007
2217.00,0.0008
2216.00,0.0008
2215.00,0.0008
2214.00,0.0008
2213.00,0.0007
2212.00,0.0006
2211.00,0.0005
2210.00,0.0005
2209.00,0.0005
2208.00,0.0005
2207.00,0.0005
2206.00,0.0005
2205.00,0.0004
2204.00,0.0005
2203.00,0.0005
2202.00,0.0006
2201.00,0.0006
2200.00,0.0006
2199.00,0.0005
2198.00,0.0004
2197.00,0.0003
2196.00,0.0003
2195.00,0.0003
2194.00,0.0004
2193.00,0.0004
2192.00,0.0005
2191.00,0.0006
2190.00,0.0006
2189.00,0.0007
2188.00,0.0008
2187.00,0.0010
2186.00,0.0011
2185.00,0.0012
2184.00,0.0011
2183.00,0.0009
2182.00,0.0005
2181.00,0.0003
2180.00,0.0002
2179.00,0.0003
2178.00,0.0004
2177.00,0.0002
2176.00,0.0000
2175.00,-0.0001
2174.00,0.0001
2173.00,0.0004
2172.00,0.0007
2171.00,0.0009
2170.00,0.0012
2169.00,0.0014
2168.00,0.0014
2167.00,0.0014
2166.00,0.0012
2165.00,0.0011
2164.00,0.0012
2163.00,0.0014
2162.00,0.0015
2161.00,0.0011
2160.00,0.0000
2159.00,-0.0014
2158.00,-0.0025
2157.00,-0.0029
2156.00,-0.0029
2155.00,-0.0028
2154.00,-0.0026
2153.00,-0.0024
2152.00,-0.0022
2151.00,-0.0021
2150.00,-0.0019
2149.00,-0.0018
2148.00,-0.0017
2147.00,-0.0019
2146.00,-0.0020
2145.00,-0.0020
2144.00,-0.0019
2143.00,-0.0017
2142.00,-0.0014
2141.00,-0.0013
2140.00,-0.0012
2139.00,-0.0011
2138.00,-0.0012
2137.00,-0.0012
2136.00,-0.0013
2135.00,-0.0015
2134.00,-0.0017
2133.00,-0.0017
2132.00,-0.0017
2131.00,-0.0015
2130.00,-0.0014
2129.00,-0.0012
2128.00,-0.0011
2127.00,-0.0010
2126.00,-0.0010
2125.00,-0.0009
2124.00,-0.0008
2123.00,-0.0006
2122.00,-0.0005
2121.00,-0.0004
2120.00,-0.0004
2119.00,-0.0003
2118.00,-0.0002
2117.00,0.0001
2116.00,0.0004
2115.00,0.0005
2114.00,0.0004
2113.00,0.0003
2112.00,0.0001
2111.00,-0.0001
2110.00,-0.0001
2109.00,-0.0002
2108.00,-0.0002
2107.00,-0.0002
2106.00,-0.0002
2105.00,-0.0001
2104.00,-0.0000
2103.00,0.0001
2102.00,0.0003
2101.00,0.0005
2100.00,0.0005
2099.00,0.0003
2098.00,-0.0001
2097.00,-0.0005
2096.00,-0.0008
2095.00,-0.0009
2094.00,-0.0007
2093.00,-0.0005
2092.00,-0.0003
2091.00,-0.0001
2090.00,0.0001
2089.00,0.0003
2088.00,0.0004
2087.00,0.0004
2086.00,0.0002
2085.00,0.0001
2084.00,0.0000
2083.00,0.0000
2082.00,0.0001
2081.00,0.0002
2080.00,0.0002
2079.00,0.0002
2078.00,0.0002
2077.00,0.0002
2076.00,0.0001
2075.00,-0.0000
2074.00,-0.0002
2073.00,-0.0003
2072.00,-0.0003
2071.00,-0.0003
2070.00,-0.0002
2069.00,-0.0000
2068.00,0.0001
2067.00,0.0001
2066.00,0.0001
2065.00,-0.0000
2064.00,-0.0002
2063.00,-0.0004
2062.00,-0.0004
2061.00,-0.0002
2060.00,0.0001
2059.00,0.0003
2058.00,0.0004
2057.00,0.0004
2056.00,0.0001
2055.00,-0.0001
2054.00,-0.0002
2053.00,0.0001
2052.00,0.0006
2051.00,0.0011
2050.00,0.0013
2049.00,0.0013
2048.00,0.0011
2047.00,0.0009
2046.00,0.0006
2045.00,0.0003
2044.00,0.0000
2043.00,-0.0001
2042.00,-0.0001
2041.00,0.0001
2040.00,0.0003
2039.00,0.0004
2038.00,0.0004
2037.00,0.0002
2036.00,-0.0002
2035.00,-0.0006
2034.00,-0.0009
2033.00,-0.0010
2032.00,-0.0010
2031.00,-0.0010
2030.00,-0.0010
2029.00,-0.0008
2028.00,-0.0008
2027.00,-0.0009
2026.00,-0.0012
2025.00,-0.0015
2024.00,-0.0016
2023.00,-0.0016
2022.00,-0.0014
2021.00,-0.0011
2020.00,-0.0008
2019.00,-0.0008
2018.00,-0.0009
2017.00,-0.0010
2016.00,-0.0010
2015.00,-0.0010
2014.00,-0.0008
2013.00,-0.0007
2012.00,-0.0007
2011.00,-0.0009
2010.00,-0.0010
2009.00,-0.0011
2008.00,-0.0011
2007.00,-0.0012
2006.00,-0.0013
2005.00,-0.0013
2004.00,-0.0013
2003.00,-0.0014
2002.00,-0.0014
2001.00,-0.0014
2000.00,-0.0013
1999.00,-0.0012
1998.00,-0.0013
1997.00,-0.0014
1996.00,-0.0014
1995.00,-0.0014
1994.00,-0.0013
1993.00,-0.0011
1992.00,-0.0009
1991.00,-0.0006
1990.00,-0.0004
1989.00,-0.0002
1988.00,-0.0003
1987.00,-0.0005
1986.00,-0.0008
1985.00,-0.0008
1984.00,-0.0005
1983.00,0.0001
1982.00,0.0006
1981.00,0.0010
1980.00,0.0010
1979.00,0.0006
1978.00,0.0002
1977.00,-0.0002
1976.00,-0.0006
1975.00,-0.0009
1974.00,-0.0012
1973.00,-0.0014
1972.00,-0.0013
1971.00,-0.0011
1970.00,-0.0009
1969.00,-0.0007
1968.00,-0.0007
1967.00,-0.0009
1966.00,-0.0011
1965.00,-0.0013
1964.00,-0.0015
1963.00,-0.0016
1962.00,-0.0017
1961.00,-0.0018
1960.00,-0.0019
1959.00,-0.0021
1958.00,-0.0021
1957.00,-0.0019
1956.00,-0.0018
1955.00,-0.0017
1954.00,-0.0017
1953.00,-0.0018
1952.00,-0.0018
1951.00,-0.0018
1950.00,-0.0019
1949.00,-0.0019
1948.00,-0.0019
1947.00,-0.0018
1946.00,-0.0018
1945.00,-0.0018
1944.00,-0.0018
1943.00,-0.0016
1942.00,-0.0014
1941.00,-0.0011
1940.00,-0.0009
1939.00,-0.0010
1938.00,-0.0011
1937.00,-0.0013
1936.00,-0.0012
1935.00,-0.0010
1934.00,-0.0009
1933.00,-0.0008
1932.00,-0.0007
1931.00,-0.0007
1930.00,-0.0008
1929.00,-0.0009
1928.00,-0.0011
1927.00,-0.0011
1926.00,-0.0010
1925.00,-0.0009
1924.00,-0.0007
1923.00,-0.0005
1922.00,-0.0005
1921.00,-0.0005
1920.00,-0.0005
1919.00,-0.0005
1918.00,-0.0004
1917.00,-0.0004
1916.00,-0.0004
1915.00,-0.0005
1914.00,-0.0006
1913.00,-0.0007
1912.00,-0.0007
1911.00,-0.0006
1910.00,-0.0005
1909.00,-0.0004
1908.00,-0.0004
1907.00,-0.0005
1906.00,-0.0006
1905.00,-0.0005
1904.00,-0.0004
1903.00,-0.0003
1902.00,-0.0002
1901.00,-0.0002
1900.00,-0.0002
1899.00,-0.0002
1898.00,-0.0002
1897.00,-0.0002
1896.00,-0.0001
1895.00,-0.0000
1894.00,0.0001
1893.00,0.0001
1892.00,0.0001
1891.00,0.0000
1890.00,-0.0000
1889.00,0.0000
1888.00,0.0001
1887.00,0.0001
1886.00,-0.0000
1885.00,-0.0001
1884.00,-0.0002
1883.00,-0.0002
1882.00,-0.0002
1881.00,-0.0002
1880.00,-0.0002
1879.00,-0.0002
1878.00,-0.0002
1877.00,-0.0002
1876.00,-0.0002
1875.00,-0.0002
1874.00,-0.0002
1873.00,-0.0001
1872.00,-0.0001
1871.00,-0.0001
1870.00,-0.0002
1869.00,-0.0002
1868.00,-0.0002
1867.00,-0.0002
1866.00,-0.0002
1865.00,-0.0002
1864.00,-0.0001
1863.00,-0.0001
1862.00,-0.0001
1861.00,-0.0001
1860.00,-0.0001
1859.00,-0.0001
1858.00,-0.0000
1857.00,-0.0000
1856.00,0.0000
1855.00,0.0001
1854.00,0.0001
1853.00,0.0000
1852.00,-0.0001
1851.00,-0.0001
1850.00,-0.0002
1849.00,-0.0002
1848.00,-0.0001
1847.00,-0.0001
1846.00,-0.0001
1845.00,-0.0001
1844.00,0.0000
1843.00,0.0000
1842.00,0.0001
1841.00,0.0001
1840.00,0.0002
1839.00,0.0001
1838.00,0.0001
1837.00,0.0001
1836.00,0.0001
1835.00,0.0001
1834.00,0.0001
1833.00,0.0001
1832.00,0.0001
1831.00,0.0001
1830.00,0.0001
1829.00,0.0001
1828.00,0.0002
1827.00,0.0002
1826.00,0.0001
1825.00,0.0002
1824.00,0.0002
1823.00,0.0002
1822.00,0.0002
1821.00,0.0002
1820.00,0.0001
1819.00,0.0000
1818.00,-0.0001
1817.00,-0.0001
1816.00,-0.0001
1815.00,-0.0001
1814.00,-0.0000
1813.00,-0.0000
1812.00,0.0000
1811.00,0.0001
1810.00,0.0001
1809.00,0.0002
1808.00,0.0002
1807.00,0.0002
1806.00,0.0002
1805.00,0.0002
1804.00,0.0002
1803.00,0.0003
1802.00,0.0003
1801.00,0.0003
1800.00,0.0003
1799.00,0.0003
1798.00,0.0003
1797.00,0.0003
1796.00,0.0003
1795.00,0.0004
1794.00,0.0004
1793.00,0.0004
1792.00,0.0005
1791.00,0.0005
1790.00,0.0005
1789.00,0.0006
1788.00,0.0006
1787.00,0.0007
1786.00,0.0007
1785.00,0.0008
1784.00,0.0008
1783.00,0.0008
1782.00,0.0008
1781.00,0.0007
1780.00,0.0007
1779.00,0.0006
1778.00,0.0006
1777.00,0.0006
1776.00,0.0006
1775.00,0.0007
1774.00,0.0007
1773.00,0.0008
1772.00,0.0008
1771.00,0.0009
1770.00,0.0009
1769.00,0.0008
1768.00,0.0008
1767.00,0.0008
1766.00,0.0008
1765.00,0.0008
1764.00,0.0009
1763.00,0.0010
1762.00,0.0010
1761.00,0.0010
1760.00,0.0010
1759.00,0.0010
1758.00,0.0011
1757.00,0.0011
1756.00,0.0012
1755.00,0.0012
1754.00,0.0012
1753.00,0.0012
1752.00,0.0013
1751.00,0.0013
1750.00,0.0013
1749.00,0.0014
1748.00,0.0014
1747.00,0.0015
1746.00,0.0015
1745.00,0.0015
1744.00,0.0016
1743.00,0.0016
1742.00,0.0016
1741.00,0.0016
1740.00,0.0017
1739.00,0.0017
1738.00,0.0017
1737.00,0.0017
1736.00,0.0017
1735.00,0.0017
1734.00,0.0017
1733.00,0.0017
1732.00,0.0018
1731.00,0.0018
1730.00,0.0018
1729.00,0.0019
1728.00,0.0019
1727.00,0.0019
1726.00,0.0019
1725.00,0.0019
1724.00,0.0019
1723.00,0.0019
1722.00,0.0019
1721.00,0.0018
1720.00,0.0018
1719.00,0.0018
1718.00,0.0019
1717.00,0.0019
1716.00,0.0019
1715.00,0.0019
1714.00,0.0020
1713.00,0.0020
1712.00,0.0020
1711.00,0.0020
1710.00,0.0021
1709.00,0.0021
1708.00,0.0021
1707.00,0.0021
1706.00,0.0021
1705.00,0.0021
1704.00,0.0021
1703.00,0.0022
1702.00,0.0022
1701.00,0.0023
1700.00,0.0024
1699.00,0.0024
1698.00,0.0024
1697.00,0.0024
1696.00,0.0026
1695.00,0.0026
1694.00,0.0026
1693.00,0.0026
1692.00,0.0027
1691.00,0.0027
1690.00,0.0027
1689.00,0.0028
1688.00,0.0028
1687.00,0.0028
1686.00,0.0028
1685.00,0.0028
1684.00,0.0028
1683.00,0.0029
1682.00,0.0030
1681.00,0.0031
1680.00,0.0032
1679.00,0.0032
1678.00,0.0033
1677.00,0.0034
1676.00,0.0034
1675.00,0.0035
1674.00,0.0035
1673.00,0.0035
1672.00,0.0035
1671.00,0.0035
1670.00,0.0035
1669.00,0.0036
1668.00,0.0036
1667.00,0.0036
1666.00,0.0037
1665.00,0.0037
1664.00,0.0038
1663.00,0.0038
1662.00,0.0038
1661.00,0.0038
1660.00,0.0038
1659.00,0.0038
1658.00,0.0038
1657.00,0.0038
1656.00,0.0039
1655.00,0.0040
1654.00,0.0040
1653.00,0.0040
1652.00,0.0041
1651.00,0.0041
1650.00,0.0041
1649.00,0.0042
1648.00,0.0043
1647.00,0.0044
1646.00,0.0044
1645.00,0.0044
1644.00,0.0045
1643.00,0.0045
1642.00,0.0045
1641.00,0.0045
1640.00,0.0045
1639.00,0.0046
1638.00,0.0046
1637.00,0.0045
1636.00,0.0045
1635.00,0.0045
1634.00,0.0045
1633.00,0.0046
1632.00,0.0046
1631.00,0.0046
1630.00,0.0046
1629.00,0.0046
1628.00,0.0046
1627.00,0.0046
1626.00,0.0046
1625.00,0.0045
1624.00,0.0046
1623.00,0.0045
1622.00,0.0046
1621.00,0.0046
1620.00,0.0046
1619.00,0.0047
1618.00,0.0047
1617.00,0.0047
1616.00,0.0047
1615.00,0.0046
1614.00,0.0046
1613.00,0.0046
1612.00,0.0047
1611.00,0.0047
1610.00,0.0047
1609.00,0.0047
1608.00,0.0046
1607.00,0.0046
1606.00,0.0046
1605.00,0.0046
1604.00,0.0046
1603.00,0.0047
1602.00,0.0046
1601.00,0.0046
1600.00,0.0046
1599.00,0.0046
1598.00,0.0046
1597.00,0.0045
1596.00,0.0045
1595.00,0.0045
1594.00,0.0044
1593.00,0.0045
1592.00,0.0045
1591.00,0.0045
1590.00,0.0046
1589.00,0.0046
1588.00,0.0046
1587.00,0.0045
1586.00,0.0045
1585.00,0.0045
1584.00,0.0044
1583.00,0.0044
1582.00,0.0045
1581.00,0.0046
1580.00,0.0046
1579.00,0.0047
1578.00,0.0047
1577.00,0.0047
1576.00,0.0046
1575.00,0.0045
1574.00,0.0045
1573.00,0.0044
1572.00,0.0044
1571.00,0.0044
1570.00,0.0043
1569.00,0.0043
1568.00,0.0043
1567.00,0.0042
1566.00,0.0042
1565.00,0.0041
1564.00,0.0041
1563.00,0.0041
1562.00,0.0041
1561.00,0.0041
1560.00,0.0041
1559.00,0.0041
1558.00,0.0041
1557.00,0.0041
1556.00,0.0042
1555.00,0.0043
1554.00,0.0043
1553.00,0.0043
1552.00,0.0043
1551.00,0.0043
1550.00,0.0043
1549.00,0.0042
1548.00,0.0043
1547.00,0.0043
1546.00,0.0044
1545.00,0.0045
1544.00,0.0046
1543.00,0.0045
1542.00,0.0044
1541.00,0.0044
1540.00,0.0043
1539.00,0.0042
1538.00,0.0042
1537.00,0.0041
1536.00,0.0041
1535.00,0.0040
1534.00,0.0039
1533.00,0.0039
1532.00,0.0039
1531.00,0.0039
1530.00,0.0039
1529.00,0.0040
1528.00,0.0041
1527.00,0.0041
1526.00,0.0040
1525.00,0.0041
1524.00,0.0041
1523.00,0.0041
1522.00,0.0042
1521.00,0.0042
1520.00,0.0043
1519.00,0.0042
1518.00,0.0042
1517.00,0.0043
1516.00,0.0044
1515.00,0.0044
1514.00,0.0045
1513.00,0.0046
1512.00,0.0048
1511.00,0.0049
1510.00,0.0050
1509.00,0.0052
1508.00,0.0053
1507.00,0.0054
1506.00,0.0054
1505.00,0.0055
1504.00,0.0056
1503.00,0.0056
1502.00,0.0057
1501.00,0.0059
1500.00,0.0062
1499.00,0.0065
1498.00,0.0068
1497.00,0.0071
1496.00,0.0075
1495.00,0.0077
1494.00,0.0078
1493.00,0.0081
1492.00,0.0084
1491.00,0.0088
1490.00,0.0091
1489.00,0.0096
1488.00,0.0101
1487.00,0.0106
1486.00,0.0111
1485.00,0.0117
1484.00,0.0124
1483.00,0.0130
1482.00,0.0138
1481.00,0.0149
1480.00,0.0160
1479.00,0.0171
1478.00,0.0185
1477.00,0.0203
1476.00,0.0225
1475.00,0.0250
1474.00,0.0286
1473.00,0.0338
1472.00,0.0403
1471.00,0.0468
1470.00,0.0531
1469.00,0.0597
1468.00,0.0669
1467.00,0.0748
1466.00,0.0838
1465.00,0.0936
1464.00,0.1024
1463.00,0.1088
1462.00,0.1133
1461.00,0.1165
1460.00,0.1191
1459.00,0.1210
1458.00,0.1229
1457.00,0.1247
1456.00,0.1258
1455.00,0.1259
1454.00,0.1255
1453.00,0.1245
1452.00,0.1225
1451.00,0.1191
1450.00,0.1138
1449.00,0.1062
1448.00,0.0963
1447.00,0.0857
1446.00,0.0760
1445.00,0.0677
1444.00,0.0607
1443.00,0.0549
1442.00,0.0507
1441.00,0.0478
1440.00,0.0460
1439.00,0.0452
1438.00,0.0452
1437.00,0.0451
1436.00,0.0437
1435.00,0.0409
1434.00,0.0368
1433.00,0.0321
1432.00,0.0272
1431.00,0.0230
1430.00,0.0198
1429.00,0.0175
1428.00,0.0159
1427.00,0.0150
1426.00,0.0144
1425.00,0.0138
1424.00,0.0132
1423.00,0.0129
1422.00,0.0128
1421.00,0.0125
1420.00,0.0123
1419.00,0.0120
1418.00,0.0118
1417.00,0.0116
1416.00,0.0114
1415.00,0.0113
1414.00,0.0113
1413.00,0.0112
1412.00,0.0111
1411.00,0.0111
1410.00,0.0112
1409.00,0.0111
1408.00,0.0111
1407.00,0.0111
1406.00,0.0112
1405.00,0.0113
1404.00,0.0112
1403.00,0.0113
1402.00,0.0114
1401.00,0.0115
1400.00,0.0116
1399.00,0.0118
1398.00,0.0122
1397.00,0.0124
1396.00,0.0127
1395.00,0.0132
1394.00,0.0138
1393.00,0.0144
1392.00,0.0151
1391.00,0.0160
1390.00,0.0173
1389.00,0.0192
1388.00,0.0219
1387.00,0.0258
1386.00,0.0311
1385.00,0.0378
1384.00,0.0465
1383.00,0.0581
1382.00,0.0732
1381.00,0.0924
1380.00,0.1158
1379.00,0.1425
1378.00,0.1687
1377.00,0.1884
1376.00,0.1959
1375.00,0.1874
1374.00,0.1651
1373.00,0.1372
1372.00,0.1111
1371.00,0.0892
1370.00,0.0717
1369.00,0.0582
1368.00,0.0489
1367.00,0.0431
1366.00,0.0400
1365.00,0.0388
1364.00,0.0391
1363.00,0.0406
1362.00,0.0429
1361.00,0.0452
1360.00,0.0470
1359.00,0.0475
1358.00,0.0462
1357.00,0.0434
1356.00,0.0393
1355.00,0.0348
1354.00,0.0304
1353.00,0.0267
1352.00,0.0237
1351.00,0.0213
1350.00,0.0194
1349.00,0.0179
1348.00,0.0166
1347.00,0.0156
1346.00,0.0148
1345.00,0.0141
1344.00,0.0136
1343.00,0.0133
1342.00,0.0129
1341.00,0.0127
1340.00,0.0125
1339.00,0.0123
1338.00,0.0121
1337.00,0.0121
1336.00,0.0122
1335.00,0.0124
1334.00,0.0127
1333.00,0.0131
1332.00,0.0136
1331.00,0.0139
1330.00,0.0140
1329.00,0.0139
1328.00,0.0135
1327.00,0.0129
1326.00,0.0122
1325.00,0.0115
1324.00,0.0109
1323.00,0.0104
1322.00,0.0099
1321.00,0.0096
1320.00,0.0093
1319.00,0.0090
1318.00,0.0088
1317.00,0.0086
1316.00,0.0085
1315.00,0.0084
1314.00,0.0084
1313.00,0.0084
1312.00,0.0086
1311.00,0.0089
1310.00,0.0094
1309.00,0.0101
1308.00,0.0112
1307.00,0.0126
1306.00,0.0139
1305.00,0.0148
1304.00,0.0151
1303.00,0.0147
1302.00,0.0141
1301.00,0.0135
1300.00,0.0131
1299.00,0.0129
1298.00,0.0129
1297.00,0.0129
1296.00,0.0128
1295.00,0.0125
1294.00,0.0121
1293.00,0.0115
1292.00,0.0109
1291.00,0.0103
1290.00,0.0098
1289.00,0.0094
1288.00,0.0090
1287.00,0.0088
1286.00,0.0085
1285.00,0.0083
1284.00,0.0082
1283.00,0.0080
1282.00,0.0079
1281.00,0.0078
1280.00,0.0077
1279.00,0.0076
1278.00,0.0076
1277.00,0.0075
1276.00,0.0074
1275.00,0.0073
1274.00,0.0074
1273.00,0.0074
1272.00,0.0075
1271.00,0.0075
1270.00,0.0076
1269.00,0.0076
1268.00,0.0077
1267.00,0.0078
1266.00,0.0079
1265.00,0.0080
1264.00,0.0083
1263.00,0.0086
1262.00,0.0090
1261.00,0.0095
1260.00,0.0102
1259.00,0.0111
1258.00,0.0121
1257.00,0.0129
1256.00,0.0133
1255.00,0.0132
1254.00,0.0127
1253.00,0.0117
1252.00,0.0108
1251.00,0.0100
1250.00,0.0095
1249.00,0.0090
1248.00,0.0087
1247.00,0.0085
1246.00,0.0084
1245.00,0.0083
1244.00,0.0082
1243.00,0.0082
1242.00,0.0081
1241.00,0.0080
1240.00,0.0079
1239.00,0.0078
1238.00,0.0077
1237.00,0.0077
1236.00,0.0076
1235.00,0.0075
1234.00,0.0075
1233.00,0.0075
1232.00,0.0075
1231.00,0.0075
1230.00,0.0075
1229.00,0.0075
1228.00,0.0076
1227.00,0.0077
1226.00,0.0078
1225.00,0.0081
1224.00,0.0083
1223.00,0.0087
1222.00,0.0090
1221.00,0.0092
1220.00,0.0094
1219.00,0.0095
1218.00,0.0094
1217.00,0.0093
1216.00,0.0091
1215.00,0.0088
1214.00,0.0085
1213.00,0.0082
1212.00,0.0079
1211.00,0.0077
1210.00,0.0075
1209.00,0.0074
1208.00,0.0073
1207.00,0.0071
1206.00,0.0070
1205.00,0.0069
1204.00,0.0069
1203.00,0.0069
1202.00,0.0069
1201.00,0.0068
1200.00,0.0068
1199.00,0.0067
1198.00,0.0067
1197.00,0.0067
1196.00,0.0068
1195.00,0.0068
1194.00,0.0069
1193.00,0.0069
1192.00,0.0069
1191.00,0.0068
1190.00,0.0068
1189.00,0.0069
1188.00,0.0069
1187.00,0.0070
1186.00,0.0071
1185.00,0.0072
1184.00,0.0073
1183.00,0.0075
1182.00,0.0077
1181.00,0.0081
1180.00,0.0085
1179.00,0.0092
1178.00,0.0100
1177.00,0.0110
1176.00,0.0124
1175.00,0.0141
1174.00,0.0164
1173.00,0.0193
1172.00,0.0229
1171.00,0.0269
1170.00,0.0308
1169.00,0.0340
1168.00,0.0359
1167.00,0.0364
1166.00,0.0355
1165.00,0.0336
1164.00,0.0313
1163.00,0.0291
1162.00,0.0270
1161.00,0.0253
1160.00,0.0240
1159.00,0.0229
1158.00,0.0220
1157.00,0.0213
1156.00,0.0208
1155.00,0.0204
1154.00,0.0200
1153.00,0.0196
1152.00,0.0191
1151.00,0.0184
1150.00,0.0175
1149.00,0.0164
1148.00,0.0154
1147.00,0.0145
1146.00,0.0136
1145.00,0.0127
1144.00,0.0119
1143.00,0.0112
1142.00,0.0105
1141.00,0.0100
1140.00,0.0095
1139.00,0.0090
1138.00,0.0085
1137.00,0.0081
1136.00,0.0078
1135.00,0.0076
1134.00,0.0075
1133.00,0.0075
1132.00,0.0074
1131.00,0.0074
1130.00,0.0074
1129.00,0.0073
1128.00,0.0073
1127.00,0.0074
1126.00,0.0074
1125.00,0.0075
1124.00,0.0075
1123.00,0.0074
1122.00,0.0074
1121.00,0.0074
1120.00,0.0074
1119.00,0.0074
1118.00,0.0074
1117.00,0.0075
1116.00,0.0076
1115.00,0.0077
1114.00,0.0078
1113.00,0.0080
1112.00,0.0081
1111.00,0.0084
1110.00,0.0088
1109.00,0.0093
1108.00,0.0099
1107.00,0.0106
1106.00,0.0113
1105.00,0.0119
1104.00,0.0123
1103.00,0.0125
1102.00,0.0125
1101.00,0.0122
1100.00,0.0118
1099.00,0.0112
1098.00,0.0106
1097.00,0.0100
1096.00,0.0095
1095.00,0.0091
1094.00,0.0088
1093.00,0.0085
1092.00,0.0082
1091.00,0.0080
1090.00,0.0078
1089.00,0.0076
1088.00,0.0074
1087.00,0.0073
1086.00,0.0072
1085.00,0.0071
1084.00,0.0071
1083.00,0.0071
1082.00,0.0070
1081.00,0.0069
1080.00,0.0068
1079.00,0.0066
1078.00,0.0066
1077.00,0.0065
1076.00,0.0064
1075.00,0.0063
1074.00,0.0063
1073.00,0.0062
1072.00,0.0062
1071.00,0.0063
1070.00,0.0064
1069.00,0.0065
1068.00,0.0065
1067.00,0.0065
1066.00,0.0065
1065.00,0.0064
1064.00,0.0064
1063.00,0.0065
1062.00,0.0066
1061.00,0.0066
1060.00,0.0067
1059.00,0.0068
1058.00,0.0069
1057.00,0.0070
1056.00,0.0070
1055.00,0.0071
1054.00,0.0072
1053.00,0.0073
1052.00,0.0075
1051.00,0.0078
1050.00,0.0081
1049.00,0.0083
1048.00,0.0086
1047.00,0.0088
1046.00,0.0090
1045.00,0.0092
1044.00,0.0092
1043.00,0.0091
1042.00,0.0088
1041.00,0.0086
1040.00,0.0084
1039.00,0.0083
1038.00,0.0083
1037.00,0.0082
1036.00,0.0082
1035.00,0.0082
1034.00,0.0081
1033.00,0.0081
1032.00,0.0080
1031.00,0.0079
1030.00,0.0077
1029.00,0.0077
1028.00,0.0077
1027.00,0.0078
1026.00,0.0079
1025.00,0.0079
1024.00,0.0080
1023.00,0.0080
1022.00,0.0080
1021.00,0.0080
1020.00,0.0081
1019.00,0.0082
1018.00,0.0084
1017.00,0.0085
1016.00,0.0087
1015.00,0.0090
1014.00,0.0094
1013.00,0.0099
1012.00,0.0103
1011.00,0.0108
1010.00,0.0112
1009.00,0.0117
1008.00,0.0123
1007.00,0.0132
1006.00,0.0143
1005.00,0.0157
1004.00,0.0176
1003.00,0.0202
1002.00,0.0237
1001.00,0.0279
1000.00,0.0324
999.00,0.0362
998.00,0.0382
997.00,0.0377
996.00,0.0348
995.00,0.0304
994.00,0.0257
993.00,0.0214
992.00,0.0181
991.00,0.0156
990.00,0.0139
989.00,0.0127
988.00,0.0120
987.00,0.0116
986.00,0.0116
985.00,0.0118
984.00,0.0123
983.00,0.0131
982.00,0.0143
981.00,0.0160
980.00,0.0184
979.00,0.0216
978.00,0.0257
977.00,0.0306
976.00,0.0359
975.00,0.0411
974.00,0.0451
973.00,0.0468
972.00,0.0455
971.00,0.0415
970.00,0.0357
969.00,0.0297
968.00,0.0244
967.00,0.0203
966.00,0.0172
965.00,0.0150
964.00,0.0133
963.00,0.0121
962.00,0.0111
961.00,0.0104
960.00,0.0098
959.00,0.0094
958.00,0.0091
957.00,0.0088
956.00,0.0086
955.00,0.0084
954.00,0.0082
953.00,0.0081
952.00,0.0079
951.00,0.0078
950.00,0.0077
949.00,0.0077
948.00,0.0078
947.00,0.0079
946.00,0.0081
945.00,0.0084
944.00,0.0087
943.00,0.0089
942.00,0.0092
941.00,0.0093
940.00,0.0091
939.00,0.0088
938.00,0.0084
937.00,0.0079
936.00,0.0075
935.00,0.0071
934.00,0.0068
933.00,0.0066
932.00,0.0064
931.00,0.0062
930.00,0.0060
929.00,0.0059
928.00,0.0057
927.00,0.0057
926.00,0.0057
925.00,0.0057
924.00,0.0058
923.00,0.0060
922.00,0.0061
921.00,0.0062
920.00,0.0064
919.00,0.0066
918.00,0.0068
917.00,0.0068
916.00,0.0067
915.00,0.0066
914.00,0.0066
913.00,0.0067
912.00,0.0069
911.00,0.0072
910.00,0.0074
909.00,0.0077
908.00,0.0079
907.00,0.0084
906.00,0.0092
905.00,0.0102
904.00,0.0116
903.00,0.0132
902.00,0.0151
901.00,0.0169
900.00,0.0183
899.00,0.0188
898.00,0.0182
897.00,0.0166
896.00,0.0146
895.00,0.0126
894.00,0.0109
893.00,0.0096
892.00,0.0087
891.00,0.0081
890.00,0.0077
889.00,0.0072
888.00,0.0069
887.00,0.0067
886.00,0.0066
885.00,0.0065
884.00,0.0066
883.00,0.0066
882.00,0.0066
881.00,0.0066
880.00,0.0066
879.00,0.0066
878.00,0.0066
877.00,0.0066
876.00,0.0067
875.00,0.0067
874.00,0.0068
873.00,0.0069
872.00,0.0070
871.00,0.0071
870.00,0.0071
869.00,0.0071
868.00,0.0070
867.00,0.0070
866.00,0.0070
865.00,0.0072
864.00,0.0074
863.00,0.0077
862.00,0.0080
861.00,0.0082
860.00,0.0083
859.00,0.0083
858.00,0.0085
857.00,0.0086
856.00,0.0088
855.00,0.0090
854.00,0.0093
853.00,0.0096
852.00,0.0099
851.00,0.0103
850.00,0.0107
849.00,0.0115
848.00,0.0126
847.00,0.0144
846.00,0.0170
845.00,0.0210
844.00,0.0263
843.00,0.0321
842.00,0.0366
841.00,0.0378
840.00,0.0352
839.00,0.0300
838.00,0.0245
837.00,0.0200
836.00,0.0170
835.00,0.0153
834.00,0.0143
833.00,0.0136
832.00,0.0129
831.00,0.0123
830.00,0.0118
829.00,0.0114
828.00,0.0110
827.00,0.0108
826.00,0.0107
825.00,0.0106
824.00,0.0106
823.00,0.0107
822.00,0.0107
821.00,0.0108
820.00,0.0109
819.00,0.0110
818.00,0.0113
817.00,0.0118
816.00,0.0124
815.00,0.0133
814.00,0.0145
813.00,0.0161
812.00,0.0180
811.00,0.0198
810.00,0.0211
809.00,0.0216
808.00,0.0212
807.00,0.0201
806.00,0.0186
805.00,0.0170
804.00,0.0155
803.00,0.0142
802.00,0.0131
801.00,0.0123
800.00,0.0117
799.00,0.0111
798.00,0.0106
797.00,0.0101
796.00,0.0096
795.00,0.0092
794.00,0.0089
793.00,0.0086
792.00,0.0084
791.00,0.0081
790.00,0.0079
789.00,0.0076
788.00,0.0073
787.00,0.0071
786.00,0.0069
785.00,0.0066
784.00,0.0064
783.00,0.0062
782.00,0.0061
781.00,0.0061
780.00,0.0061
779.00,0.0062
778.00,0.0061
777.00,0.0061
776.00,0.0060
775.00,0.0060
774.00,0.0062
773.00,0.0065
772.00,0.0069
771.00,0.0074
770.00,0.0078
769.00,0.0080
768.00,0.0080
767.00,0.0078
766.00,0.0076
765.00,0.0074
764.00,0.0072
763.00,0.0070
762.00,0.0067
761.00,0.0064
760.00,0.0062
759.00,0.0059
758.00,0.0056
757.00,0.0053
756.00,0.0052
755.00,0.0051
754.00,0.0052
753.00,0.0052
752.00,0.0051
751.00,0.0050
750.00,0.0050
749.00,0.0051
748.00,0.0052
747.00,0.0052
746.00,0.0051
745.00,0.0051
744.00,0.0051
743.00,0.0053
742.00,0.0055
741.00,0.0057
740.00,0.0058
739.00,0.0060
738.00,0.0062
737.00,0.0064
736.00,0.0063
735.00,0.0062
734.00,0.0061
733.00,0.0060
732.00,0.0060
731.00,0.0059
730.00,0.0058
729.00,0.0056
728.00,0.0056
727.00,0.0055
726.00,0.0055
725.00,0.0055
724.00,0.0055
723.00,0.0055
722.00,0.0055
721.00,0.0055
720.00,0.0054
719.00,0.0052
718.00,0.0052
717.00,0.0052
716.00,0.0052
715.00,0.0054
714.00,0.0055
713.00,0.0055
712.00,0.0055
711.00,0.0055
710.00,0.0055
709.00,0.0055
708.00,0.0054
707.00,0.0053
706.00,0.0052
705.00,0.0052
704.00,0.0053
703.00,0.0052
702.00,0.0051
701.00,0.0049
700.00,0.0048
699.00,0.0048
698.00,0.0048
697.00,0.0048
696.00,0.0048
695.00,0.0048
694.00,0.0048
693.00,0.0049
692.00,0.0049
691.00,0.0049
690.00,0.0048
689.00,0.0047
688.00,0.0047
687.00,0.0047
686.00,0.0049
685.00,0.0050
684.00,0.0051
683.00,0.0050
682.00,0.0049
681.00,0.0047
680.00,0.0047
679.00,0.0046
678.00,0.0046
677.00,0.0046
676.00,0.0045
675.00,0.0045
674.00,0.0045
673.00,0.0046
672.00,0.0046
671.00,0.0047
670.00,0.0046
669.00,0.0045
668.00,0.0043
667.00,0.0042
666.00,0.0043
665.00,0.0043
664.00,0.0044
663.00,0.0045
662.00,0.0046
661.00,0.0046
660.00,0.0047
659.00,0.0047
658.00,0.0047
657.00,0.0048
656.00,0.0047
655.00,0.0047
654.00,0.0045
653.00,0.0044
652.00,0.0045
651.00,0.0047
650.00,0.0049
649.00,0.0048
648.00,0.0047
647.00,0.0046
646.00,0.0046
645.00,0.0046
644.00,0.0046
643.00,0.0047
642.00,0.0047
641.00,0.0049
640.00,0.0050
639.00,0.0052
638.00,0.0054
637.00,0.0056
636.00,0.0057
635.00,0.0056
634.00,0.0055
633.00,0.0053
632.00,0.0052
631.00,0.0051
630.00,0.0051
629.00,0.0051
628.00,0.0051
627.00,0.0051
626.00,0.0051
625.00,0.0050
624.00,0.0049
623.00,0.0047
622.00,0.0046
621.00,0.0046
620.00,0.0049
619.00,0.0051
618.00,0.0053
617.00,0.0053
616.00,0.0054
615.00,0.0055
614.00,0.0055
613.00,0.0055
612.00,0.0056
611.00,0.0056
610.00,0.0055
609.00,0.0052
608.00,0.0049
607.00,0.0048
606.00,0.0048
605.00,0.0049
604.00,0.0051
603.00,0.0053
602.00,0.0055
601.00,0.0057
600.00,0.0058
599.00,0.0057
598.00,0.0055
597.00,0.0051
596.00,0.0048
595.00,0.0047
594.00,0.0048
593.00,0.0049
592.00,0.0050
591.00,0.0052
590.00,0.0055
589.00,0.0058
588.00,0.0059
587.00,0.0059
586.00,0.0057
585.00,0.0055
584.00,0.0052
583.00,0.0050
582.00,0.0050
581.00,0.0051
580.00,0.0052
579.00,0.0052
578.00,0.0052
577.00,0.0050
576.00,0.0050
575.00,0.0052
574.00,0.0056
573.00,0.0060
572.00,0.0061
571.00,0.0060
570.00,0.0059
569.00,0.0058
568.00,0.0058
567.00,0.0057
566.00,0.0055
565.00,0.0054
564.00,0.0053
563.00,0.0054
562.00,0.0054
561.00,0.0053
560.00,0.0052
559.00,0.0052
558.00,0.0053
557.00,0.0055
556.00,0.0055
555.00,0.0055
554.00,0.0057
553.00,0.0059
552.00,0.0060
551.00,0.0059
550.00,0.0059
549.00,0.0062
548.00,0.0067
547.00,0.0071
546.00,0.0071
545.00,0.0069
544.00,0.0066
543.00,0.0063
542.00,0.0059
541.00,0.0056
540.00,0.0053
539.00,0.0051
538.00,0.0052
537.00,0.0055
536.00,0.0060
535.00,0.0066
534.00,0.0069
533.00,0.0071
532.00,0.0073
531.00,0.0076
530.00,0.0081
529.00,0.0085
528.00,0.0085
527.00,0.0082
526.00,0.0079
525.00,0.0077
524.00,0.0076
523.00,0.0075
522.00,0.0072
521.00,0.0069
520.00,0.0066
519.00,0.0065
518.00,0.0065
517.00,0.0063
516.00,0.0062
515.00,0.0062
514.00,0.0063
513.00,0.0061
512.00,0.0058
511.00,0.0056
510.00,0.0057
509.00,0.0061
508.00,0.0066
507.00,0.0070
506.00,0.0069
505.00,0.0067
504.00,0.0063
503.00,0.0062
502.00,0.0064
501.00,0.0068
500.00,0.0072
499.00,0.0073
498.00,0.0074
497.00,0.0075
496.00,0.0075
495.00,0.0074
494.00,0.0072
493.00,0.0069
492.00,0.0065
491.00,0.0060
490.00,0.0054
489.00,0.0049
488.00,0.0049
487.00,0.0053
486.00,0.0062
485.00,0.0070
484.00,0.0076
483.00,0.0081
482.00,0.0085
481.00,0.0085
480.00,0.0081
479.00,0.0075
478.00,0.0073
477.00,0.0075
476.00,0.0078
475.00,0.0080
474.00,0.0083
473.00,0.0089
472.00,0.0097
471.00,0.0102
470.00,0.0101
469.00,0.0096
468.00,0.0088
467.00,0.0081
466.00,0.0078
465.00,0.0082
464.00,0.0091
463.00,0.0104
462.00,0.0118
461.00,0.0131
460.00,0.0139
459.00,0.0140
458.00,0.0135
457.00,0.0130
456.00,0.0131
455.00,0.0135
454.00,0.0136
453.00,0.0131
452.00,0.0118
451.00,0.0103
450.00,0.0091
