Created as New Dataset,Sample 077 By Administrator Date Friday, September 05 2025
cm-1,A
4000.00,0.0020
3999.00,0.0020
3998.00,0.0020
3997.00,0.0021
3996.00,0.0020
3995.00,0.0020
3994.00,0.0020
3993.00,0.0020
3992.00,0.0020
3991.00,0.0019
3990.00,0.0020
3989.00,0.0020
3988.00,0.0020
3987.00,0.0020
3986.00,0.0020
3985.00,0.0020
3984.00,0.0020
3983.00,0.0019
3982.00,0.0019
3981.00,0.0019
3980.00,0.0019
3979.00,0.0019
3978.00,0.0019
3977.00,0.0019
3976.00,0.0019
3975.00,0.0019
3974.00,0.0019
3973.00,0.0019
3972.00,0.0019
3971.00,0.0019
3970.00,0.0019
3969.00,0.0019
3968.00,0.0019
3967.00,0.0019
3966.00,0.0018
3965.00,0.0018
3964.00,0.0018
3963.00,0.0018
3962.00,0.0018
3961.00,0.0018
3960.00,0.0019
3959.00,0.0019
3958.00,0.0019
3957.00,0.0018
3956.00,0.0018
3955.00,0.0018
3954.00,0.0018
3953.00,0.0019
3952.00,0.0019
3951.00,0.0019
3950.00,0.0019
3949.00,0.0019
3948.00,0.0018
3947.00,0.0018
3946.00,0.0018
3945.00,0.0018
3944.00,0.0018
3943.00,0.0018
3942.00,0.0018
3941.00,0.0018
3940.00,0.0018
3939.00,0.0018
3938.00,0.0018
3937.00,0.0018
3936.00,0.0018
3935.00,0.0019
3934.00,0.0019
3933.00,0.0019
3932.00,0.0019
3931.00,0.0019
3930.00,0.0018
3929.00,0.0018
3928.00,0.0018
3927.00,0.0018
3926.00,0.0018
3925.00,0.0018
3924.00,0.0018
3923.00,0.0018
3922.00,0.0018
3921.00,0.0018
3920.00,0.0018
3919.00,0.0018
3918.00,0.0018
3917.00,0.0018
3916.00,0.0018
3915.00,0.0018
3914.00,0.0018
3913.00,0.0018
3912.00,0.0018
3911.00,0.0018
3910.00,0.0018
3909.00,0.0019
3908.00,0.0019
3907.00,0.0019
3906.00,0.0019
3905.00,0.0019
3904.00,0.0019
3903.00,0.0019
3902.00,0.0018
3901.00,0.0018
3900.00,0.0017
3899.00,0.0017
3898.00,0.0017
3897.00,0.0017
3896.00,0.0017
3895.00,0.0018
3894.00,0.0018
3893.00,0.0019
3892.00,0.0019
3891.00,0.0019
3890.00,0.0018
3889.00,0.0018
3888.00,0.0017
3887.00,0.0017
3886.00,0.0017
3885.00,0.0017
3884.00,0.0017
3883.00,0.0017
3882.00,0.0017
3881.00,0.0017
3880.00,0.0017
3879.00,0.0018
3878.00,0.0018
3877.00,0.0018
3876.00,0.0018
3875.00,0.0018
3874.00,0.0018
3873.00,0.0018
3872.00,0.0018
3871.00,0.0018
3870.00,0.0018
3869.00,0.0018
3868.00,0.0017
3867.00,0.0017
3866.00,0.0016
3865.00,0.0016
3864.00,0.0015
3863.00,0.0015
3862.00,0.0015
3861.00,0.0016
3860.00,0.0016
3859.00,0.0016
3858.00,0.0017
3857.00,0.0017
3856.00,0.0017
3855.00,0.0016
3854.00,0.0015
3853.00,0.0015
3852.00,0.0015
3851.00,0.0015
3850.00,0.0016
3849.00,0.0016
3848.00,0.0016
3847.00,0.0017
3846.00,0.0017
3845.00,0.0017
3844.00,0.0017
3843.00,0.0017
3842.00,0.0016
3841.00,0.0016
3840.00,0.0016
3839.00,0.0016
3838.00,0.0016
3837.00,0.0016
3836.00,0.0016
3835.00,0.0016
3834.00,0.0017
3833.00,0.0017
3832.00,0.0016
3831.00,0.0016
3830.00,0.0016
3829.00,0.0016
3828.00,0.0016
3827.00,0.0016
3826.00,0.0017
3825.00,0.0017
3824.00,0.0018
3823.00,0.0018
3822.00,0.0017
3821.00,0.0017
3820.00,0.0016
3819.00,0.0016
3818.00,0.0016
3817.00,0.0016
3816.00,0.0016
3815.00,0.0016
3814.00,0.0016
3813.00,0.0016
3812.00,0.0016
3811.00,0.0017
3810.00,0.0017
3809.00,0.0017
3808.00,0.0017
3807.00,0.0017
3806.00,0.0017
3805.00,0.0017
3804.00,0.0017
3803.00,0.0016
3802.00,0.0016
3801.00,0.0016
3800.00,0.0016
3799.00,0.0016
3798.00,0.0016
3797.00,0.0016
3796.00,0.0016
3795.00,0.0016
3794.00,0.0016
3793.00,0.0017
3792.00,0.0017
3791.00,0.0017
3790.00,0.0017
3789.00,0.0017
3788.00,0.0017
3787.00,0.0017
3786.00,0.0017
3785.00,0.0017
3784.00,0.0017
3783.00,0.0017
3782.00,0.0017
3781.00,0.0017
3780.00,0.0017
3779.00,0.0017
3778.00,0.0017
3777.00,0.0017
3776.00,0.0017
3775.00,0.0016
3774.00,0.0016
3773.00,0.0016
3772.00,0.0016
3771.00,0.0017
3770.00,0.0017
3769.00,0.0017
3768.00,0.0017
3767.00,0.0017
3766.00,0.0017
3765.00,0.0016
3764.00,0.0016
3763.00,0.0017
3762.00,0.0017
3761.00,0.0017
3760.00,0.0017
3759.00,0.0017
3758.00,0.0016
3757.00,0.0016
3756.00,0.0016
3755.00,0.0017
3754.00,0.0017
3753.00,0.0018
3752.00,0.0018
3751.00,0.0018
3750.00,0.0018
3749.00,0.0018
3748.00,0.0017
3747.00,0.0017
3746.00,0.0017
3745.00,0.0016
3744.00,0.0015
3743.00,0.0015
3742.00,0.0015
3741.00,0.0014
3740.00,0.0014
3739.00,0.0014
3738.00,0.0014
3737.00,0.0014
3736.00,0.0015
3735.00,0.0015
3734.00,0.0015
3733.00,0.0015
3732.00,0.0015
3731.00,0.0015
3730.00,0.0015
3729.00,0.0015
3728.00,0.0014
3727.00,0.0014
3726.00,0.0014
3725.00,0.0014
3724.00,0.0014
3723.00,0.0015
3722.00,0.0015
3721.00,0.0015
3720.00,0.0015
3719.00,0.0015
3718.00,0.0015
3717.00,0.0015
3716.00,0.0016
3715.00,0.0016
3714.00,0.0015
3713.00,0.0015
3712.00,0.0015
3711.00,0.0015
3710.00,0.0015
3709.00,0.0015
3708.00,0.0015
3707.00,0.0015
3706.00,0.0015
3705.00,0.0015
3704.00,0.0016
3703.00,0.0016
3702.00,0.0016
3701.00,0.0016
3700.00,0.0016
3699.00,0.0016
3698.00,0.0017
3697.00,0.0017
3696.00,0.0017
3695.00,0.0017
3694.00,0.0018
3693.00,0.0018
3692.00,0.0019
3691.00,0.0019
3690.00,0.0018
3689.00,0.0018
3688.00,0.0017
3687.00,0.0017
3686.00,0.0017
3685.00,0.0017
3684.00,0.0018
3683.00,0.0018
3682.00,0.0018
3681.00,0.0018
3680.00,0.0018
3679.00,0.0019
3678.00,0.0018
3677.00,0.0018
3676.00,0.0017
3675.00,0.0018
3674.00,0.0018
3673.00,0.0019
3672.00,0.0019
3671.00,0.0019
3670.00,0.0019
3669.00,0.0019
3668.00,0.0019
3667.00,0.0020
3666.00,0.0020
3665.00,0.0020
3664.00,0.0021
3663.00,0.0021
3662.00,0.0021
3661.00,0.0022
3660.00,0.0022
3659.00,0.0021
3658.00,0.0021
3657.00,0.0021
3656.00,0.0021
3655.00,0.0022
3654.00,0.0023
3653.00,0.0023
3652.00,0.0023
3651.00,0.0023
3650.00,0.0023
3649.00,0.0024
3648.00,0.0024
3647.00,0.0025
3646.00,0.0025
3645.00,0.0025
3644.00,0.0026
3643.00,0.0027
3642.00,0.0028
3641.00,0.0029
3640.00,0.0029
3639.00,0.0030
3638.00,0.0030
3637.00,0.0030
3636.00,0.0031
3635.00,0.0031
3634.00,0.0032
3633.00,0.0032
3632.00,0.0032
3631.00,0.0033
3630.00,0.0033
3629.00,0.0034
3628.00,0.0034
3627.00,0.0034
3626.00,0.0035
3625.00,0.0035
3624.00,0.0035
3623.00,0.0036
3622.00,0.0036
3621.00,0.0037
3620.00,0.0038
3619.00,0.0039
3618.00,0.0040
3617.00,0.0041
3616.00,0.0042
3615.00,0.0043
3614.00,0.0043
3613.00,0.0043
3612.00,0.0044
3611.00,0.0044
3610.00,0.0044
3609.00,0.0045
3608.00,0.0047
3607.00,0.0047
3606.00,0.0048
3605.00,0.0049
3604.00,0.0050
3603.00,0.0051
3602.00,0.0051
3601.00,0.0051
3600.00,0.0052
3599.00,0.0052
3598.00,0.0053
3597.00,0.0054
3596.00,0.0055
3595.00,0.0056
3594.00,0.0057
3593.00,0.0057
3592.00,0.0058
3591.00,0.0058
3590.00,0.0058
3589.00,0.0059
3588.00,0.0060
3587.00,0.0061
3586.00,0.0061
3585.00,0.0062
3584.00,0.0063
3583.00,0.0063
3582.00,0.0064
3581.00,0.0064
3580.00,0.0065
3579.00,0.0066
3578.00,0.0067
3577.00,0.0068
3576.00,0.0069
3575.00,0.0070
3574.00,0.0071
3573.00,0.0072
3572.00,0.0072
3571.00,0.0072
3570.00,0.0072
3569.00,0.0073
3568.00,0.0074
3567.00,0.0075
3566.00,0.0076
3565.00,0.0078
3564.00,0.0078
3563.00,0.0079
3562.00,0.0080
3561.00,0.0080
3560.00,0.0081
3559.00,0.0082
3558.00,0.0083
3557.00,0.0084
3556.00,0.0085
3555.00,0.0086
3554.00,0.0086
3553.00,0.0087
3552.00,0.0088
3551.00,0.0089
3550.00,0.0090
3549.00,0.0091
3548.00,0.0092
3547.00,0.0093
3546.00,0.0094
3545.00,0.0095
3544.00,0.0096
3543.00,0.0097
3542.00,0.0097
3541.00,0.0098
3540.00,0.0099
3539.00,0.0100
3538.00,0.0101
3537.00,0.0102
3536.00,0.0103
3535.00,0.0104
3534.00,0.0105
3533.00,0.0106
3532.00,0.0106
3531.00,0.0107
3530.00,0.0108
3529.00,0.0109
3528.00,0.0110
3527.00,0.0111
3526.00,0.0112
3525.00,0.0113
3524.00,0.0115
3523.00,0.0116
3522.00,0.0117
3521.00,0.0118
3520.00,0.0120
3519.00,0.0121
3518.00,0.0121
3517.00,0.0122
3516.00,0.0123
3515.00,0.0124
3514.00,0.0125
3513.00,0.0126
3512.00,0.0127
3511.00,0.0128
3510.00,0.0130
3509.00,0.0131
3508.00,0.0132
3507.00,0.0133
3506.00,0.0135
3505.00,0.0136
3504.00,0.0137
3503.00,0.0138
3502.00,0.0140
3501.00,0.0141
3500.00,0.0142
3499.00,0.0143
3498.00,0.0144
3497.00,0.0145
3496.00,0.0146
3495.00,0.0148
3494.00,0.0149
3493.00,0.0150
3492.00,0.0151
3491.00,0.0152
3490.00,0.0154
3489.00,0.0155
3488.00,0.0156
3487.00,0.0156
3486.00,0.0157
3485.00,0.0158
3484.00,0.0159
3483.00,0.0160
3482.00,0.0162
3481.00,0.0163
3480.00,0.0164
3479.00,0.0165
3478.00,0.0165
3477.00,0.0166
3476.00,0.0166
3475.00,0.0167
3474.00,0.0169
3473.00,0.0170
3472.00,0.0171
3471.00,0.0172
3470.00,0.0172
3469.00,0.0173
3468.00,0.0174
3467.00,0.0175
3466.00,0.0175
3465.00,0.0176
3464.00,0.0176
3463.00,0.0177
3462.00,0.0177
3461.00,0.0178
3460.00,0.0178
3459.00,0.0179
3458.00,0.0180
3457.00,0.0180
3456.00,0.0181
3455.00,0.0181
3454.00,0.0182
3453.00,0.0183
3452.00,0.0184
3451.00,0.0184
3450.00,0.0185
3449.00,0.0185
3448.00,0.0186
3447.00,0.0186
3446.00,0.0186
3445.00,0.0186
3444.00,0.0186
3443.00,0.0186
3442.00,0.0186
3441.00,0.0187
3440.00,0.0187
3439.00,0.0187
3438.00,0.0188
3437.00,0.0188
3436.00,0.0188
3435.00,0.0188
3434.00,0.0189
3433.00,0.0189
3432.00,0.0189
3431.00,0.0189
3430.00,0.0189
3429.00,0.0189
3428.00,0.0189
3427.00,0.0189
3426.00,0.0189
3425.00,0.0189
3424.00,0.0190
3423.00,0.0190
3422.00,0.0190
3421.00,0.0190
3420.00,0.0190
3419.00,0.0190
3418.00,0.0190
3417.00,0.0191
3416.00,0.0191
3415.00,0.0192
3414.00,0.0192
3413.00,0.0192
3412.00,0.0191
3411.00,0.0192
3410.00,0.0192
3409.00,0.0192
3408.00,0.0192
3407.00,0.0193
3406.00,0.0193
3405.00,0.0194
3404.00,0.0195
3403.00,0.0195
3402.00,0.0196
3401.00,0.0196
3400.00,0.0196
3399.00,0.0197
3398.00,0.0197
3397.00,0.0197
3396.00,0.0197
3395.00,0.0197
3394.00,0.0196
3393.00,0.0196
3392.00,0.0196
3391.00,0.0195
3390.00,0.0195
3389.00,0.0194
3388.00,0.0193
3387.00,0.0192
3386.00,0.0192
3385.00,0.0191
3384.00,0.0191
3383.00,0.0191
3382.00,0.0190
3381.00,0.0190
3380.00,0.0190
3379.00,0.0190
3378.00,0.0189
3377.00,0.0189
3376.00,0.0189
3375.00,0.0189
3374.00,0.0189
3373.00,0.0189
3372.00,0.0189
3371.00,0.0189
3370.00,0.0188
3369.00,0.0188
3368.00,0.0187
3367.00,0.0187
3366.00,0.0186
3365.00,0.0186
3364.00,0.0185
3363.00,0.0185
3362.00,0.0184
3361.00,0.0184
3360.00,0.0184
3359.00,0.0183
3358.00,0.0183
3357.00,0.0183
3356.00,0.0182
3355.00,0.0182
3354.00,0.0183
3353.00,0.0183
3352.00,0.0183
3351.00,0.0182
3350.00,0.0182
3349.00,0.0181
3348.00,0.0180
3347.00,0.0179
3346.00,0.0179
3345.00,0.0178
3344.00,0.0178
3343.00,0.0178
3342.00,0.0177
3341.00,0.0177
3340.00,0.0177
3339.00,0.0177
3338.00,0.0176
3337.00,0.0176
3336.00,0.0175
3335.00,0.0175
3334.00,0.0174
3333.00,0.0174
3332.00,0.0173
3331.00,0.0173
3330.00,0.0173
3329.00,0.0173
3328.00,0.0172
3327.00,0.0172
3326.00,0.0171
3325.00,0.0171
3324.00,0.0170
3323.00,0.0170
3322.00,0.0169
3321.00,0.0169
3320.00,0.0168
3319.00,0.0168
3318.00,0.0167
3317.00,0.0167
3316.00,0.0167
3315.00,0.0166
3314.00,0.0166
3313.00,0.0165
3312.00,0.0164
3311.00,0.0164
3310.00,0.0163
3309.00,0.0163
3308.00,0.0162
3307.00,0.0162
3306.00,0.0162
3305.00,0.0162
3304.00,0.0161
3303.00,0.0161
3302.00,0.0161
3301.00,0.0160
3300.00,0.0160
3299.00,0.0159
3298.00,0.0159
3297.00,0.0158
3296.00,0.0158
3295.00,0.0157
3294.00,0.0157
3293.00,0.0156
3292.00,0.0156
3291.00,0.0156
3290.00,0.0155
3289.00,0.0155
3288.00,0.0155
3287.00,0.0155
3286.00,0.0154
3285.00,0.0153
3284.00,0.0152
3283.00,0.0151
3282.00,0.0151
3281.00,0.0150
3280.00,0.0150
3279.00,0.0149
3278.00,0.0149
3277.00,0.0148
3276.00,0.0148
3275.00,0.0148
3274.00,0.0148
3273.00,0.0147
3272.00,0.0147
3271.00,0.0146
3270.00,0.0145
3269.00,0.0145
3268.00,0.0145
3267.00,0.0145
3266.00,0.0145
3265.00,0.0144
3264.00,0.0144
3263.00,0.0143
3262.00,0.0143
3261.00,0.0142
3260.00,0.0141
3259.00,0.0140
3258.00,0.0140
3257.00,0.0140
3256.00,0.0140
3255.00,0.0140
3254.00,0.0139
3253.00,0.0139
3252.00,0.0138
3251.00,0.0138
3250.00,0.0137
3249.00,0.0137
3248.00,0.0136
3247.00,0.0136
3246.00,0.0136
3245.00,0.0136
3244.00,0.0136
3243.00,0.0135
3242.00,0.0135
3241.00,0.0134
3240.00,0.0133
3239.00,0.0133
3238.00,0.0132
3237.00,0.0132
3236.00,0.0131
3235.00,0.0131
3234.00,0.0131
3233.00,0.0131
3232.00,0.0131
3231.00,0.0131
3230.00,0.0131
3229.00,0.0130
3228.00,0.0130
3227.00,0.0130
3226.00,0.0129
3225.00,0.0129
3224.00,0.0129
3223.00,0.0129
3222.00,0.0129
3221.00,0.0129
3220.00,0.0129
3219.00,0.0128
3218.00,0.0128
3217.00,0.0128
3216.00,0.0128
3215.00,0.0127
3214.00,0.0127
3213.00,0.0127
3212.00,0.0127
3211.00,0.0126
3210.00,0.0126
3209.00,0.0126
3208.00,0.0126
3207.00,0.0126
3206.00,0.0126
3205.00,0.0126
3204.00,0.0125
3203.00,0.0125
3202.00,0.0125
3201.00,0.0124
3200.00,0.0124
3199.00,0.0124
3198.00,0.0123
3197.00,0.0123
3196.00,0.0123
3195.00,0.0122
3194.00,0.0122
3193.00,0.0121
3192.00,0.0121
3191.00,0.0120
3190.00,0.0120
3189.00,0.0119
3188.00,0.0119
3187.00,0.0119
3186.00,0.0119
3185.00,0.0118
3184.00,0.0117
3183.00,0.0117
3182.00,0.0116
3181.00,0.0115
3180.00,0.0115
3179.00,0.0114
3178.00,0.0113
3177.00,0.0112
3176.00,0.0112
3175.00,0.0111
3174.00,0.0110
3173.00,0.0110
3172.00,0.0109
3171.00,0.0108
3170.00,0.0108
3169.00,0.0107
3168.00,0.0106
3167.00,0.0106
3166.00,0.0105
3165.00,0.0104
3164.00,0.0104
3163.00,0.0103
3162.00,0.0103
3161.00,0.0102
3160.00,0.0102
3159.00,0.0101
3158.00,0.0100
3157.00,0.0099
3156.00,0.0099
3155.00,0.0098
3154.00,0.0098
3153.00,0.0097
3152.00,0.0097
3151.00,0.0097
3150.00,0.0096
3149.00,0.0096
3148.00,0.0095
3147.00,0.0095
3146.00,0.0094
3145.00,0.0094
3144.00,0.0094
3143.00,0.0093
3142.00,0.0093
3141.00,0.0092
3140.00,0.0092
3139.00,0.0091
3138.00,0.0091
3137.00,0.0090
3136.00,0.0090
3135.00,0.0089
3134.00,0.0089
3133.00,0.0088
3132.00,0.0088
3131.00,0.0087
3130.00,0.0086
3129.00,0.0085
3128.00,0.0085
3127.00,0.0084
3126.00,0.0084
3125.00,0.0083
3124.00,0.0082
3123.00,0.0082
3122.00,0.0081
3121.00,0.0080
3120.00,0.0080
3119.00,0.0079
3118.00,0.0079
3117.00,0.0079
3116.00,0.0078
3115.00,0.0078
3114.00,0.0078
3113.00,0.0077
3112.00,0.0077
3111.00,0.0077
3110.00,0.0076
3109.00,0.0076
3108.00,0.0076
3107.00,0.0076
3106.00,0.0075
3105.00,0.0075
3104.00,0.0074
3103.00,0.0074
3102.00,0.0073
3101.00,0.0073
3100.00,0.0072
3099.00,0.0072
3098.00,0.0072
3097.00,0.0072
3096.00,0.0072
3095.00,0.0072
3094.00,0.0071
3093.00,0.0071
3092.00,0.0070
3091.00,0.0070
3090.00,0.0070
3089.00,0.0070
3088.00,0.0069
3087.00,0.0069
3086.00,0.0069
3085.00,0.0068
3084.00,0.0068
3083.00,0.0068
3082.00,0.0068
3081.00,0.0068
3080.00,0.0068
3079.00,0.0067
3078.00,0.0067
3077.00,0.0068
3076.00,0.0068
3075.00,0.0068
3074.00,0.0068
3073.00,0.0068
3072.00,0.0068
3071.00,0.0068
3070.00,0.0068
3069.00,0.0068
3068.00,0.0068
3067.00,0.0068
3066.00,0.0068
3065.00,0.0069
3064.00,0.0069
3063.00,0.0069
3062.00,0.0069
3061.00,0.0068
3060.00,0.0068
3059.00,0.0068
3058.00,0.0068
3057.00,0.0068
3056.00,0.0068
3055.00,0.0068
3054.00,0.0069
3053.00,0.0069
3052.00,0.0069
3051.00,0.0069
3050.00,0.0069
3049.00,0.0069
3048.00,0.0070
3047.00,0.0070
3046.00,0.0070
3045.00,0.0070
3044.00,0.0070
3043.00,0.0070
3042.00,0.0070
3041.00,0.0071
3040.00,0.0071
3039.00,0.0072
3038.00,0.0072
3037.00,0.0072
3036.00,0.0072
3035.00,0.0072
3034.00,0.0073
3033.00,0.0073
3032.00,0.0073
3031.00,0.0074
3030.00,0.0074
3029.00,0.0075
3028.00,0.0075
3027.00,0.0076
3026.00,0.0077
3025.00,0.0077
3024.00,0.0078
3023.00,0.0078
3022.00,0.0079
3021.00,0.0080
3020.00,0.0080
3019.00,0.0081
3018.00,0.0082
3017.00,0.0083
3016.00,0.0084
3015.00,0.0085
3014.00,0.0087
3013.00,0.0088
3012.00,0.0090
3011.00,0.0091
3010.00,0.0092
3009.00,0.0094
3008.00,0.0095
3007.00,0.0097
3006.00,0.0098
3005.00,0.0100
3004.00,0.0102
3003.00,0.0105
3002.00,0.0108
3001.00,0.0110
3000.00,0.0113
2999.00,0.0116
2998.00,0.0120
2997.00,0.0124
2996.00,0.0128
2995.00,0.0132
2994.00,0.0138
2993.00,0.0144
2992.00,0.0150
2991.00,0.0156
2990.00,0.0163
2989.00,0.0170
2988.00,0.0177
2987.00,0.0185
2986.00,0.0193
2985.00,0.0202
2984.00,0.0211
2983.00,0.0222
2982.00,0.0235
2981.00,0.0250
2980.00,0.0267
2979.00,0.0286
2978.00,0.0308
2977.00,0.0332
2976.00,0.0359
2975.00,0.0390
2974.00,0.0426
2973.00,0.0466
2972.00,0.0511
2971.00,0.0562
2970.00,0.0619
2969.00,0.0683
2968.00,0.0752
2967.00,0.0826
2966.00,0.0905
2965.00,0.0986
2964.00,0.1066
2963.00,0.1143
2962.00,0.1210
2961.00,0.1266
2960.00,0.1308
2959.00,0.1339
2958.00,0.1362
2957.00,0.1382
2956.00,0.1406
2955.00,0.1435
2954.00,0.1471
2953.00,0.1509
2952.00,0.1543
2951.00,0.1565
2950.00,0.1566
2949.00,0.1541
2948.00,0.1491
2947.00,0.1419
2946.00,0.1333
2945.00,0.1244
2944.00,0.1160
2943.00,0.1088
2942.00,0.1032
2941.00,0.0994
2940.00,0.0973
2939.00,0.0969
2938.00,0.0979
2937.00,0.1003
2936.00,0.1039
2935.00,0.1086
2934.00,0.1142
2933.00,0.1208
2932.00,0.1281
2931.00,0.1360
2930.00,0.1444
2929.00,0.1530
2928.00,0.1616
2927.00,0.1701
2926.00,0.1783
2925.00,0.1864
2924.00,0.1943
2923.00,0.2020
2922.00,0.2095
2921.00,0.2165
2920.00,0.2225
2919.00,0.2268
2918.00,0.2286
2917.00,0.2275
2916.00,0.2234
2915.00,0.2170
2914.00,0.2090
2913.00,0.2005
2912.00,0.1923
2911.00,0.1850
2910.00,0.1786
2909.00,0.1732
2908.00,0.1683
2907.00,0.1638
2906.00,0.1592
2905.00,0.1545
2904.00,0.1496
2903.00,0.1446
2902.00,0.1394
2901.00,0.1343
2900.00,0.1292
2899.00,0.1244
2898.00,0.1199
2897.00,0.1156
2896.00,0.1118
2895.00,0.1084
2894.00,0.1054
2893.00,0.1030
2892.00,0.1010
2891.00,0.0995
2890.00,0.0983
2889.00,0.0975
2888.00,0.0969
2887.00,0.0966
2886.00,0.0966
2885.00,0.0968
2884.00,0.0974
2883.00,0.0982
2882.00,0.0994
2881.00,0.1007
2880.00,0.1019
2879.00,0.1029
2878.00,0.1033
2877.00,0.1033
2876.00,0.1028
2875.00,0.1022
2874.00,0.1017
2873.00,0.1017
2872.00,0.1021
2871.00,0.1031
2870.00,0.1044
2869.00,0.1056
2868.00,0.1063
2867.00,0.1060
2866.00,0.1042
2865.00,0.1008
2864.00,0.0962
2863.00,0.0909
2862.00,0.0857
2861.00,0.0811
2860.00,0.0775
2859.00,0.0751
2858.00,0.0738
2857.00,0.0735
2856.00,0.0741
2855.00,0.0754
2854.00,0.0773
2853.00,0.0796
2852.00,0.0820
2851.00,0.0841
2850.00,0.0856
2849.00,0.0864
2848.00,0.0867
2847.00,0.0870
2846.00,0.0878
2845.00,0.0895
2844.00,0.0921
2843.00,0.0956
2842.00,0.0995
2841.00,0.1031
2840.00,0.1060
2839.00,0.1073
2838.00,0.1067
2837.00,0.1038
2836.00,0.0987
2835.00,0.0918
2834.00,0.0838
2833.00,0.0755
2832.00,0.0675
2831.00,0.0604
2830.00,0.0543
2829.00,0.0492
2828.00,0.0450
2827.00,0.0415
2826.00,0.0386
2825.00,0.0362
2824.00,0.0341
2823.00,0.0324
2822.00,0.0309
2821.00,0.0295
2820.00,0.0284
2819.00,0.0273
2818.00,0.0264
2817.00,0.0255
2816.00,0.0247
2815.00,0.0240
2814.00,0.0233
2813.00,0.0227
2812.00,0.0221
2811.00,0.0214
2810.00,0.0208
2809.00,0.0201
2808.00,0.0195
2807.00,0.0188
2806.00,0.0180
2805.00,0.0173
2804.00,0.0166
2803.00,0.0160
2802.00,0.0154
2801.00,0.0148
2800.00,0.0144
2799.00,0.0140
2798.00,0.0137
2797.00,0.0134
2796.00,0.0131
2795.00,0.0129
2794.00,0.0126
2793.00,0.0123
2792.00,0.0120
2791.00,0.0117
2790.00,0.0114
2789.00,0.0111
2788.00,0.0108
2787.00,0.0105
2786.00,0.0103
2785.00,0.0100
2784.00,0.0098
2783.00,0.0096
2782.00,0.0093
2781.00,0.0092
2780.00,0.0090
2779.00,0.0088
2778.00,0.0086
2777.00,0.0085
2776.00,0.0084
2775.00,0.0082
2774.00,0.0081
2773.00,0.0081
2772.00,0.0080
2771.00,0.0080
2770.00,0.0079
2769.00,0.0078
2768.00,0.0078
2767.00,0.0077
2766.00,0.0077
2765.00,0.0076
2764.00,0.0076
2763.00,0.0076
2762.00,0.0076
2761.00,0.0076
2760.00,0.0075
2759.00,0.0075
2758.00,0.0075
2757.00,0.0075
2756.00,0.0075
2755.00,0.0074
2754.00,0.0074
2753.00,0.0073
2752.00,0.0073
2751.00,0.0073
2750.00,0.0072
2749.00,0.0072
2748.00,0.0072
2747.00,0.0072
2746.00,0.0073
2745.00,0.0073
2744.00,0.0074
2743.00,0.0074
2742.00,0.0075
2741.00,0.0076
2740.00,0.0076
2739.00,0.0077
2738.00,0.0077
2737.00,0.0078
2736.00,0.0079
2735.00,0.0080
2734.00,0.0081
2733.00,0.0082
2732.00,0.0083
2731.00,0.0084
2730.00,0.0085
2729.00,0.0087
2728.00,0.0089
2727.00,0.0091
2726.00,0.0093
2725.00,0.0094
2724.00,0.0095
2723.00,0.0096
2722.00,0.0095
2721.00,0.0094
2720.00,0.0093
2719.00,0.0090
2718.00,0.0088
2717.00,0.0085
2716.00,0.0083
2715.00,0.0080
2714.00,0.0078
2713.00,0.0076
2712.00,0.0075
2711.00,0.0073
2710.00,0.0072
2709.00,0.0071
2708.00,0.0069
2707.00,0.0068
2706.00,0.0068
2705.00,0.0067
2704.00,0.0066
2703.00,0.0065
2702.00,0.0065
2701.00,0.0064
2700.00,0.0064
2699.00,0.0063
2698.00,0.0063
2697.00,0.0062
2696.00,0.0062
2695.00,0.0062
2694.00,0.0062
2693.00,0.0062
2692.00,0.0062
2691.00,0.0062
2690.00,0.0062
2689.00,0.0062
2688.00,0.0062
2687.00,0.0062
2686.00,0.0062
2685.00,0.0061
2684.00,0.0062
2683.00,0.0062
2682.00,0.0062
2681.00,0.0062
2680.00,0.0062
2679.00,0.0062
2678.00,0.0062
2677.00,0.0062
2676.00,0.0062
2675.00,0.0062
2674.00,0.0062
2673.00,0.0061
2672.00,0.0061
2671.00,0.0061
2670.00,0.0061
2669.00,0.0061
2668.00,0.0061
2667.00,0.0061
2666.00,0.0061
2665.00,0.0062
2664.00,0.0062
2663.00,0.0062
2662.00,0.0063
2661.00,0.0063
2660.00,0.0063
2659.00,0.0064
2658.00,0.0063
2657.00,0.0063
2656.00,0.0063
2655.00,0.0063
2654.00,0.0062
2653.00,0.0062
2652.00,0.0061
2651.00,0.0061
2650.00,0.0060
2649.00,0.0060
2648.00,0.0059
2647.00,0.0059
2646.00,0.0059
2645.00,0.0058
2644.00,0.0058
2643.00,0.0057
2642.00,0.0057
2641.00,0.0056
2640.00,0.0056
2639.00,0.0055
2638.00,0.0055
2637.00,0.0054
2636.00,0.0054
2635.00,0.0054
2634.00,0.0054
2633.00,0.0054
2632.00,0.0054
2631.00,0.0055
2630.00,0.0055
2629.00,0.0055
2628.00,0.0055
2627.00,0.0055
2626.00,0.0055
2625.00,0.0055
2624.00,0.0055
2623.00,0.0054
2622.00,0.0054
2621.00,0.0054
2620.00,0.0054
2619.00,0.0054
2618.00,0.0054
2617.00,0.0054
2616.00,0.0054
2615.00,0.0054
2614.00,0.0054
2613.00,0.0054
2612.00,0.0054
2611.00,0.0054
2610.00,0.0053
2609.00,0.0051
2608.00,0.0050
2607.00,0.0049
2606.00,0.0049
2605.00,0.0049
2604.00,0.0048
2603.00,0.0048
2602.00,0.0047
2601.00,0.0047
2600.00,0.0047
2599.00,0.0047
2598.00,0.0046
2597.00,0.0046
2596.00,0.0046
2595.00,0.0047
2594.00,0.0047
2593.00,0.0047
2592.00,0.0047
2591.00,0.0047
2590.00,0.0047
2589.00,0.0047
2588.00,0.0047
2587.00,0.0048
2586.00,0.0049
2585.00,0.0049
2584.00,0.0050
2583.00,0.0050
2582.00,0.0051
2581.00,0.0051
2580.00,0.0050
2579.00,0.0049
2578.00,0.0048
2577.00,0.0047
2576.00,0.0046
2575.00,0.0045
2574.00,0.0044
2573.00,0.0043
2572.00,0.0042
2571.00,0.0041
2570.00,0.0041
2569.00,0.0040
2568.00,0.0040
2567.00,0.0039
2566.00,0.0038
2565.00,0.0038
2564.00,0.0038
2563.00,0.0038
2562.00,0.0039
2561.00,0.0039
2560.00,0.0039
2559.00,0.0038
2558.00,0.0038
2557.00,0.0037
2556.00,0.0037
2555.00,0.0037
2554.00,0.0036
2553.00,0.0035
2552.00,0.0035
2551.00,0.0034
2550.00,0.0034
2549.00,0.0034
2548.00,0.0034
2547.00,0.0033
2546.00,0.0033
2545.00,0.0033
2544.00,0.0033
2543.00,0.0033
2542.00,0.0034
2541.00,0.0034
2540.00,0.0033
2539.00,0.0033
2538.00,0.0032
2537.00,0.0031
2536.00,0.0031
2535.00,0.0031
2534.00,0.0031
2533.00,0.0031
2532.00,0.0031
2531.00,0.0030
2530.00,0.0030
2529.00,0.0029
2528.00,0.0030
2527.00,0.0030
2526.00,0.0029
2525.00,0.0029
2524.00,0.0029
2523.00,0.0029
2522.00,0.0029
2521.00,0.0029
2520.00,0.0029
2519.00,0.0028
2518.00,0.0028
2517.00,0.0027
2516.00,0.0027
2515.00,0.0026
2514.00,0.0026
2513.00,0.0026
2512.00,0.0026
2511.00,0.0026
2510.00,0.0026
2509.00,0.0027
2508.00,0.0027
2507.00,0.0027
2506.00,0.0027
2505.00,0.0027
2504.00,0.0027
2503.00,0.0027
2502.00,0.0027
2501.00,0.0027
2500.00,0.0027
2499.00,0.0027
2498.00,0.0027
2497.00,0.0027
2496.00,0.0027
2495.00,0.0027
2494.00,0.0027
2493.00,0.0026
2492.00,0.0026
2491.00,0.0026
2490.00,0.0026
2489.00,0.0025
2488.00,0.0025
2487.00,0.0025
2486.00,0.0025
2485.00,0.0025
2484.00,0.0025
2483.00,0.0025
2482.00,0.0025
2481.00,0.0025
2480.00,0.0025
2479.00,0.0024
2478.00,0.0024
2477.00,0.0023
2476.00,0.0023
2475.00,0.0023
2474.00,0.0023
2473.00,0.0023
2472.00,0.0023
2471.00,0.0024
2470.00,0.0024
2469.00,0.0024
2468.00,0.0023
2467.00,0.0022
2466.00,0.0022
2465.00,0.0022
2464.00,0.0023
2463.00,0.0024
2462.00,0.0024
2461.00,0.0025
2460.00,0.0024
2459.00,0.0024
2458.00,0.0024
2457.00,0.0025
2456.00,0.0025
2455.00,0.0025
2454.00,0.0025
2453.00,0.0025
2452.00,0.0025
2451.00,0.0025
2450.00,0.0025
2449.00,0.0025
2448.00,0.0024
2447.00,0.0024
2446.00,0.0024
2445.00,0.0024
2444.00,0.0024
2443.00,0.0023
2442.00,0.0024
2441.00,0.0024
2440.00,0.0025
2439.00,0.0025
2438.00,0.0025
2437.00,0.0025
2436.00,0.0025
2435.00,0.0025
2434.00,0.0026
2433.00,0.0026
2432.00,0.0027
2431.00,0.0027
2430.00,0.0027
2429.00,0.0026
2428.00,0.0026
2427.00,0.0026
2426.00,0.0026
2425.00,0.0026
2424.00,0.0025
2423.00,0.0025
2422.00,0.0025
2421.00,0.0025
2420.00,0.0025
2419.00,0.0025
2418.00,0.0025
2417.00,0.0025
2416.00,0.0025
2415.00,0.0025
2414.00,0.0025
2413.00,0.0025
2412.00,0.0024
2411.00,0.0024
2410.00,0.0024
2409.00,0.0024
2408.00,0.0024
2407.00,0.0023
2406.00,0.0022
2405.00,0.0022
2404.00,0.0021
2403.00,0.0021
2402.00,0.0021
2401.00,0.0021
2400.00,0.0021
2399.00,0.0021
2398.00,0.0021
2397.00,0.0022
2396.00,0.0021
2395.00,0.0021
2394.00,0.0020
2393.00,0.0020
2392.00,0.0020
2391.00,0.0020
2390.00,0.0020
2389.00,0.0020
2388.00,0.0020
2387.00,0.0020
2386.00,0.0020
2385.00,0.0020
2384.00,0.0019
2383.00,0.0018
2382.00,0.0017
2381.00,0.0016
2380.00,0.0014
2379.00,0.0014
2378.00,0.0013
2377.00,0.0014
2376.00,0.0014
2375.00,0.0014
2374.00,0.0015
2373.00,0.0014
2372.00,0.0014
2371.00,0.0013
2370.00,0.0012
2369.00,0.0011
2368.00,0.0010
2367.00,0.0009
2366.00,0.0010
2365.00,0.0010
2364.00,0.0011
2363.00,0.0012
2362.00,0.0013
2361.00,0.0013
2360.00,0.0013
2359.00,0.0013
2358.00,0.0014
2357.00,0.0013
2356.00,0.0013
2355.00,0.0012
2354.00,0.0012
2353.00,0.0012
2352.00,0.0012
2351.00,0.0012
2350.00,0.0013
2349.00,0.0013
2348.00,0.0013
2347.00,0.0013
2346.00,0.0013
2345.00,0.0013
2344.00,0.0013
2343.00,0.0014
2342.00,0.0015
2341.00,0.0015
2340.00,0.0015
2339.00,0.0015
2338.00,0.0016
2337.00,0.0016
2336.00,0.0016
2335.00,0.0016
2334.00,0.0016
2333.00,0.0016
2332.00,0.0015
2331.00,0.0015
2330.00,0.0015
2329.00,0.0016
2328.00,0.0018
2327.00,0.0021
2326.00,0.0024
2325.00,0.0027
2324.00,0.0029
2323.00,0.0028
2322.00,0.0027
2321.00,0.0026
2320.00,0.0025
2319.00,0.0024
2318.00,0.0022
2317.00,0.0021
2316.00,0.0019
2315.00,0.0018
2314.00,0.0018
2313.00,0.0018
2312.00,0.0019
2311.00,0.0020
2310.00,0.0020
2309.00,0.0020
2308.00,0.0020
2307.00,0.0020
2306.00,0.0020
2305.00,0.0021
2304.00,0.0022
2303.00,0.0022
2302.00,0.0022
2301.00,0.0022
2300.00,0.0022
2299.00,0.0023
2298.00,0.0023
2297.00,0.0023
2296.00,0.0023
2295.00,0.0024
2294.00,0.0024
2293.00,0.0025
2292.00,0.0026
2291.00,0.0027
2290.00,0.0028
2289.00,0.0030
2288.00,0.0031
2287.00,0.0031
2286.00,0.0031
2285.00,0.0031
2284.00,0.0030
2283.00,0.0029
2282.00,0.0028
2281.00,0.0027
2280.00,0.0026
2279.00,0.0025
2278.00,0.0025
2277.00,0.0024
2276.00,0.0023
2275.00,0.0022
2274.00,0.0021
2273.00,0.0021
2272.00,0.0021
2271.00,0.0021
2270.00,0.0021
2269.00,0.0022
2268.00,0.0023
2267.00,0.0023
2266.00,0.0023
2265.00,0.0023
2264.00,0.0024
2263.00,0.0024
2262.00,0.0025
2261.00,0.0025
2260.00,0.0024
2259.00,0.0024
2258.00,0.0023
2257.00,0.0022
2256.00,0.0021
2255.00,0.0020
2254.00,0.0019
2253.00,0.0019
2252.00,0.0018
2251.00,0.0018
2250.00,0.0018
2249.00,0.0018
2248.00,0.0018
2247.00,0.0018
2246.00,0.0017
2245.00,0.0017
2244.00,0.0017
2243.00,0.0017
2242.00,0.0017
2241.00,0.0018
2240.00,0.0020
2239.00,0.0021
2238.00,0.0020
2237.00,0.0020
2236.00,0.0019
2235.00,0.0019
2234.00,0.0019
2233.00,0.0018
2232.00,0.0017
2231.00,0.0016
2230.00,0.0015
2229.00,0.0014
2228.00,0.0015
2227.00,0.0016
2226.00,0.0017
2225.00,0.0018
2224.00,0.0019
2223.00,0.0019
2222.00,0.0019
2221.00,0.0019
2220.00,0.0019
2219.00,0.0019
2218.00,0.0018
2217.00,0.0018
2216.00,0.0018
2215.00,0.0019
2214.00,0.0018
2213.00,0.0018
2212.00,0.0018
2211.00,0.0018
2210.00,0.0018
2209.00,0.0017
2208.00,0.0017
2207.00,0.0016
2206.00,0.0014
2205.00,0.0013
2204.00,0.0012
2203.00,0.0013
2202.00,0.0014
2201.00,0.0016
2200.00,0.0017
2199.00,0.0017
2198.00,0.0015
2197.00,0.0014
2196.00,0.0015
2195.00,0.0016
2194.00,0.0018
2193.00,0.0019
2192.00,0.0019
2191.00,0.0021
2190.00,0.0022
2189.00,0.0022
2188.00,0.0021
2187.00,0.0019
2186.00,0.0018
2185.00,0.0018
2184.00,0.0018
2183.00,0.0016
2182.00,0.0013
2181.00,0.0009
2180.00,0.0008
2179.00,0.0008
2178.00,0.0009
2177.00,0.0011
2176.00,0.0012
2175.00,0.0012
2174.00,0.0012
2173.00,0.0012
2172.00,0.0012
2171.00,0.0012
2170.00,0.0013
2169.00,0.0016
2168.00,0.0020
2167.00,0.0021
2166.00,0.0019
2165.00,0.0015
2164.00,0.0012
2163.00,0.0013
2162.00,0.0015
2161.00,0.0015
2160.00,0.0009
2159.00,-0.0003
2158.00,-0.0013
2157.00,-0.0018
2156.00,-0.0019
2155.00,-0.0017
2154.00,-0.0013
2153.00,-0.0009
2152.00,-0.0005
2151.00,-0.0003
2150.00,-0.0002
2149.00,-0.0003
2148.00,-0.0004
2147.00,-0.0005
2146.00,-0.0006
2145.00,-0.0005
2144.00,-0.0003
2143.00,-0.0001
2142.00,0.0001
2141.00,0.0002
2140.00,0.0003
2139.00,0.0003
2138.00,0.0002
2137.00,0.0001
2136.00,-0.0001
2135.00,-0.0003
2134.00,-0.0005
2133.00,-0.0005
2132.00,-0.0004
2131.00,-0.0002
2130.00,-0.0000
2129.00,0.0001
2128.00,0.0002
2127.00,0.0004
2126.00,0.0006
2125.00,0.0008
2124.00,0.0011
2123.00,0.0012
2122.00,0.0013
2121.00,0.0012
2120.00,0.0011
2119.00,0.0010
2118.00,0.0011
2117.00,0.0013
2116.00,0.0016
2115.00,0.0017
2114.00,0.0017
2113.00,0.0016
2112.00,0.0015
2111.00,0.0014
2110.00,0.0014
2109.00,0.0013
2108.00,0.0012
2107.00,0.0012
2106.00,0.0011
2105.00,0.0011
2104.00,0.0012
2103.00,0.0012
2102.00,0.0012
2101.00,0.0012
2100.00,0.0012
2099.00,0.0014
2098.00,0.0015
2097.00,0.0015
2096.00,0.0014
2095.00,0.0011
2094.00,0.0009
2093.00,0.0008
2092.00,0.0008
2091.00,0.0009
2090.00,0.0010
2089.00,0.0011
2088.00,0.0010
2087.00,0.0009
2086.00,0.0009
2085.00,0.0011
2084.00,0.0014
2083.00,0.0016
2082.00,0.0017
2081.00,0.0017
2080.00,0.0016
2079.00,0.0015
2078.00,0.0015
2077.00,0.0016
2076.00,0.0016
2075.00,0.0016
2074.00,0.0016
2073.00,0.0014
2072.00,0.0011
2071.00,0.0010
2070.00,0.0009
2069.00,0.0009
2068.00,0.0010
2067.00,0.0011
2066.00,0.0012
2065.00,0.0014
2064.00,0.0015
2063.00,0.0015
2062.00,0.0014
2061.00,0.0012
2060.00,0.0010
2059.00,0.0009
2058.00,0.0009
2057.00,0.0009
2056.00,0.0009
2055.00,0.0009
2054.00,0.0011
2053.00,0.0017
2052.00,0.0024
2051.00,0.0027
2050.00,0.0026
2049.00,0.0022
2048.00,0.0017
2047.00,0.0013
2046.00,0.0010
2045.00,0.0008
2044.00,0.0008
2043.00,0.0007
2042.00,0.0006
2041.00,0.0005
2040.00,0.0004
2039.00,0.0004
2038.00,0.0005
2037.00,0.0007
2036.00,0.0009
2035.00,0.0012
2034.00,0.0013
2033.00,0.0012
2032.00,0.0008
2031.00,0.0003
2030.00,-0.0003
2029.00,-0.0005
2028.00,-0.0003
2027.00,0.0001
2026.00,0.0003
2025.00,0.0003
2024.00,0.0001
2023.00,-0.0001
2022.00,-0.0001
2021.00,-0.0000
2020.00,0.0001
2019.00,0.0001
2018.00,0.0001
2017.00,0.0002
2016.00,0.0004
2015.00,0.0006
2014.00,0.0005
2013.00,0.0002
2012.00,-0.0000
2011.00,-0.0001
2010.00,-0.0001
2009.00,-0.0001
2008.00,-0.0003
2007.00,-0.0007
2006.00,-0.0010
2005.00,-0.0010
2004.00,-0.0008
2003.00,-0.0006
2002.00,-0.0006
2001.00,-0.0005
2000.00,-0.0005
1999.00,-0.0005
1998.00,-0.0005
1997.00,-0.0005
1996.00,-0.0005
1995.00,-0.0005
1994.00,-0.0004
1993.00,-0.0001
1992.00,0.0001
1991.00,0.0003
1990.00,0.0003
1989.00,0.0004
1988.00,0.0005
1987.00,0.0006
1986.00,0.0007
1985.00,0.0010
1984.00,0.0012
1983.00,0.0015
1982.00,0.0018
1981.00,0.0019
1980.00,0.0019
1979.00,0.0014
1978.00,0.0008
1977.00,0.0002
1976.00,0.0000
1975.00,0.0001
1974.00,0.0003
1973.00,0.0006
1972.00,0.0006
1971.00,0.0004
1970.00,-0.0000
1969.00,-0.0004
1968.00,-0.0007
1967.00,-0.0007
1966.00,-0.0005
1965.00,-0.0001
1964.00,0.0002
1963.00,0.0003
1962.00,0.0002
1961.00,-0.0001
1960.00,-0.0003
1959.00,-0.0004
1958.00,-0.0003
1957.00,-0.0001
1956.00,0.0001
1955.00,-0.0001
1954.00,-0.0003
1953.00,-0.0004
1952.00,-0.0005
1951.00,-0.0005
1950.00,-0.0005
1949.00,-0.0005
1948.00,-0.0005
1947.00,-0.0004
1946.00,-0.0004
1945.00,-0.0003
1944.00,-0.0001
1943.00,-0.0000
1942.00,0.0000
1941.00,0.0001
1940.00,0.0001
1939.00,0.0002
1938.00,0.0002
1937.00,0.0002
1936.00,0.0002
1935.00,0.0002
1934.00,0.0003
1933.00,0.0003
1932.00,0.0004
1931.00,0.0003
1930.00,0.0003
1929.00,0.0003
1928.00,0.0004
1927.00,0.0004
1926.00,0.0003
1925.00,0.0003
1924.00,0.0003
1923.00,0.0004
1922.00,0.0004
1921.00,0.0005
1920.00,0.0006
1919.00,0.0007
1918.00,0.0007
1917.00,0.0007
1916.00,0.0007
1915.00,0.0007
1914.00,0.0007
1913.00,0.0007
1912.00,0.0006
1911.00,0.0005
1910.00,0.0004
1909.00,0.0004
1908.00,0.0005
1907.00,0.0006
1906.00,0.0008
1905.00,0.0009
1904.00,0.0010
1903.00,0.0009
1902.00,0.0008
1901.00,0.0007
1900.00,0.0007
1899.00,0.0007
1898.00,0.0007
1897.00,0.0008
1896.00,0.0010
1895.00,0.0012
1894.00,0.0012
1893.00,0.0012
1892.00,0.0011
1891.00,0.0010
1890.00,0.0009
1889.00,0.0009
1888.00,0.0010
1887.00,0.0010
1886.00,0.0010
1885.00,0.0010
1884.00,0.0010
1883.00,0.0010
1882.00,0.0010
1881.00,0.0010
1880.00,0.0010
1879.00,0.0010
1878.00,0.0010
1877.00,0.0010
1876.00,0.0009
1875.00,0.0009
1874.00,0.0009
1873.00,0.0009
1872.00,0.0009
1871.00,0.0008
1870.00,0.0007
1869.00,0.0007
1868.00,0.0008
1867.00,0.0008
1866.00,0.0009
1865.00,0.0010
1864.00,0.0011
1863.00,0.0011
1862.00,0.0010
1861.00,0.0010
1860.00,0.0010
1859.00,0.0010
1858.00,0.0010
1857.00,0.0010
1856.00,0.0011
1855.00,0.0011
1854.00,0.0011
1853.00,0.0010
1852.00,0.0011
1851.00,0.0011
1850.00,0.0012
1849.00,0.0013
1848.00,0.0013
1847.00,0.0012
1846.00,0.0011
1845.00,0.0011
1844.00,0.0012
1843.00,0.0012
1842.00,0.0012
1841.00,0.0012
1840.00,0.0012
1839.00,0.0013
1838.00,0.0014
1837.00,0.0015
1836.00,0.0015
1835.00,0.0016
1834.00,0.0016
1833.00,0.0016
1832.00,0.0015
1831.00,0.0015
1830.00,0.0015
1829.00,0.0016
1828.00,0.0017
1827.00,0.0018
1826.00,0.0017
1825.00,0.0017
1824.00,0.0016
1823.00,0.0016
1822.00,0.0015
1821.00,0.0014
1820.00,0.0013
1819.00,0.0012
1818.00,0.0012
1817.00,0.0012
1816.00,0.0013
1815.00,0.0014
1814.00,0.0015
1813.00,0.0015
1812.00,0.0015
1811.00,0.0015
1810.00,0.0015
1809.00,0.0015
1808.00,0.0015
1807.00,0.0016
1806.00,0.0016
1805.00,0.0017
1804.00,0.0018
1803.00,0.0018
1802.00,0.0018
1801.00,0.0018
1800.00,0.0018
1799.00,0.0018
1798.00,0.0018
1797.00,0.0018
1796.00,0.0018
1795.00,0.0019
1794.00,0.0019
1793.00,0.0020
1792.00,0.0021
1791.00,0.0021
1790.00,0.0021
1789.00,0.0020
1788.00,0.0020
1787.00,0.0020
1786.00,0.0021
1785.00,0.0021
1784.00,0.0022
1783.00,0.0022
1782.00,0.0021
1781.00,0.0021
1780.00,0.0022
1779.00,0.0022
1778.00,0.0021
1777.00,0.0021
1776.00,0.0021
1775.00,0.0021
1774.00,0.0022
1773.00,0.0022
1772.00,0.0023
1771.00,0.0023
1770.00,0.0024
1769.00,0.0024
1768.00,0.0024
1767.00,0.0025
1766.00,0.0025
1765.00,0.0025
1764.00,0.0026
1763.00,0.0026
1762.00,0.0027
1761.00,0.0028
1760.00,0.0028
1759.00,0.0029
1758.00,0.0029
1757.00,0.0029
1756.00,0.0030
1755.00,0.0030
1754.00,0.0031
1753.00,0.0032
1752.00,0.0032
1751.00,0.0033
1750.00,0.0033
1749.00,0.0034
1748.00,0.0035
1747.00,0.0037
1746.00,0.0038
1745.00,0.0040
1744.00,0.0041
1743.00,0.0042
1742.00,0.0042
1741.00,0.0042
1740.00,0.0043
1739.00,0.0043
1738.00,0.0043
1737.00,0.0043
1736.00,0.0043
1735.00,0.0043
1734.00,0.0043
1733.00,0.0043
1732.00,0.0043
1731.00,0.0042
1730.00,0.0042
1729.00,0.0042
1728.00,0.0042
1727.00,0.0042
1726.00,0.0042
1725.00,0.0042
1724.00,0.0042
1723.00,0.0042
1722.00,0.0041
1721.00,0.0041
1720.00,0.0042
1719.00,0.0042
1718.00,0.0042
1717.00,0.0042
1716.00,0.0043
1715.00,0.0043
1714.00,0.0043
1713.00,0.0043
1712.00,0.0044
1711.00,0.0044
1710.00,0.0045
1709.00,0.0046
1708.00,0.0048
1707.00,0.0049
1706.00,0.0050
1705.00,0.0052
1704.00,0.0053
1703.00,0.0055
1702.00,0.0057
1701.00,0.0060
1700.00,0.0063
1699.00,0.0064
1698.00,0.0064
1697.00,0.0066
1696.00,0.0069
1695.00,0.0072
1694.00,0.0074
1693.00,0.0075
1692.00,0.0076
1691.00,0.0078
1690.00,0.0079
1689.00,0.0081
1688.00,0.0082
1687.00,0.0084
1686.00,0.0085
1685.00,0.0087
1684.00,0.0089
1683.00,0.0090
1682.00,0.0090
1681.00,0.0091
1680.00,0.0091
1679.00,0.0093
1678.00,0.0094
1677.00,0.0096
1676.00,0.0098
1675.00,0.0099
1674.00,0.0100
1673.00,0.0101
1672.00,0.0101
1671.00,0.0102
1670.00,0.0103
1669.00,0.0104
1668.00,0.0105
1667.00,0.0106
1666.00,0.0106
1665.00,0.0107
1664.00,0.0108
1663.00,0.0110
1662.00,0.0111
1661.00,0.0111
1660.00,0.0112
1659.00,0.0112
1658.00,0.0113
1657.00,0.0115
1656.00,0.0117
1655.00,0.0119
1654.00,0.0123
1653.00,0.0127
1652.00,0.0130
1651.00,0.0130
1650.00,0.0130
1649.00,0.0132
1648.00,0.0136
1647.00,0.0140
1646.00,0.0142
1645.00,0.0142
1644.00,0.0141
1643.00,0.0139
1642.00,0.0136
1641.00,0.0134
1640.00,0.0133
1639.00,0.0131
1638.00,0.0130
1637.00,0.0129
1636.00,0.0130
1635.00,0.0131
1634.00,0.0131
1633.00,0.0131
1632.00,0.0130
1631.00,0.0130
1630.00,0.0130
1629.00,0.0130
1628.00,0.0129
1627.00,0.0128
1626.00,0.0126
1625.00,0.0124
1624.00,0.0122
1623.00,0.0121
1622.00,0.0120
1621.00,0.0119
1620.00,0.0119
1619.00,0.0119
1618.00,0.0119
1617.00,0.0118
1616.00,0.0117
1615.00,0.0116
1614.00,0.0115
1613.00,0.0115
1612.00,0.0114
1611.00,0.0114
1610.00,0.0113
1609.00,0.0113
1608.00,0.0114
1607.00,0.0113
1606.00,0.0113
1605.00,0.0113
1604.00,0.0112
1603.00,0.0112
1602.00,0.0111
1601.00,0.0111
1600.00,0.0111
1599.00,0.0111
1598.00,0.0111
1597.00,0.0111
1596.00,0.0111
1595.00,0.0112
1594.00,0.0112
1593.00,0.0113
1592.00,0.0115
1591.00,0.0116
1590.00,0.0118
1589.00,0.0121
1588.00,0.0124
1587.00,0.0128
1586.00,0.0132
1585.00,0.0137
1584.00,0.0143
1583.00,0.0150
1582.00,0.0157
1581.00,0.0164
1580.00,0.0171
1579.00,0.0175
1578.00,0.0178
1577.00,0.0177
1576.00,0.0175
1575.00,0.0171
1574.00,0.0166
1573.00,0.0162
1572.00,0.0157
1571.00,0.0151
1570.00,0.0144
1569.00,0.0138
1568.00,0.0133
1567.00,0.0130
1566.00,0.0127
1565.00,0.0126
1564.00,0.0124
1563.00,0.0124
1562.00,0.0124
1561.00,0.0125
1560.00,0.0125
1559.00,0.0125
1558.00,0.0126
1557.00,0.0127
1556.00,0.0129
1555.00,0.0130
1554.00,0.0132
1553.00,0.0135
1552.00,0.0138
1551.00,0.0141
1550.00,0.0146
1549.00,0.0151
1548.00,0.0157
1547.00,0.0163
1546.00,0.0171
1545.00,0.0180
1544.00,0.0188
1543.00,0.0196
1542.00,0.0201
1541.00,0.0202
1540.00,0.0199
1539.00,0.0191
1538.00,0.0183
1537.00,0.0175
1536.00,0.0168
1535.00,0.0160
1534.00,0.0149
1533.00,0.0139
1532.00,0.0132
1531.00,0.0127
1530.00,0.0123
1529.00,0.0121
1528.00,0.0118
1527.00,0.0115
1526.00,0.0112
1525.00,0.0110
1524.00,0.0108
1523.00,0.0107
1522.00,0.0105
1521.00,0.0105
1520.00,0.0106
1519.00,0.0106
1518.00,0.0105
1517.00,0.0105
1516.00,0.0106
1515.00,0.0106
1514.00,0.0106
1513.00,0.0107
1512.00,0.0108
1511.00,0.0108
1510.00,0.0109
1509.00,0.0110
1508.00,0.0111
1507.00,0.0111
1506.00,0.0112
1505.00,0.0113
1504.00,0.0114
1503.00,0.0115
1502.00,0.0117
1501.00,0.0120
1500.00,0.0123
1499.00,0.0126
1498.00,0.0130
1497.00,0.0135
1496.00,0.0141
1495.00,0.0146
1494.00,0.0149
1493.00,0.0154
1492.00,0.0160
1491.00,0.0166
1490.00,0.0172
1489.00,0.0180
1488.00,0.0189
1487.00,0.0197
1486.00,0.0206
1485.00,0.0216
1484.00,0.0228
1483.00,0.0240
1482.00,0.0256
1481.00,0.0274
1480.00,0.0293
1479.00,0.0311
1478.00,0.0330
1477.00,0.0353
1476.00,0.0379
1475.00,0.0407
1474.00,0.0443
1473.00,0.0493
1472.00,0.0551
1471.00,0.0604
1470.00,0.0653
1469.00,0.0704
1468.00,0.0759
1467.00,0.0818
1466.00,0.0885
1465.00,0.0957
1464.00,0.1020
1463.00,0.1064
1462.00,0.1092
1461.00,0.1112
1460.00,0.1127
1459.00,0.1139
1458.00,0.1150
1457.00,0.1160
1456.00,0.1162
1455.00,0.1158
1454.00,0.1150
1453.00,0.1139
1452.00,0.1120
1451.00,0.1093
1450.00,0.1054
1449.00,0.0998
1448.00,0.0925
1447.00,0.0847
1446.00,0.0774
1445.00,0.0710
1444.00,0.0655
1443.00,0.0609
1442.00,0.0572
1441.00,0.0546
1440.00,0.0529
1439.00,0.0520
1438.00,0.0517
1437.00,0.0515
1436.00,0.0504
1435.00,0.0483
1434.00,0.0454
1433.00,0.0419
1432.00,0.0383
1431.00,0.0351
1430.00,0.0325
1429.00,0.0307
1428.00,0.0293
1427.00,0.0286
1426.00,0.0282
1425.00,0.0278
1424.00,0.0275
1423.00,0.0274
1422.00,0.0273
1421.00,0.0273
1420.00,0.0271
1419.00,0.0269
1418.00,0.0266
1417.00,0.0261
1416.00,0.0256
1415.00,0.0252
1414.00,0.0249
1413.00,0.0245
1412.00,0.0241
1411.00,0.0238
1410.00,0.0236
1409.00,0.0233
1408.00,0.0230
1407.00,0.0228
1406.00,0.0225
1405.00,0.0222
1404.00,0.0219
1403.00,0.0217
1402.00,0.0216
1401.00,0.0215
1400.00,0.0214
1399.00,0.0214
1398.00,0.0215
1397.00,0.0216
1396.00,0.0217
1395.00,0.0220
1394.00,0.0223
1393.00,0.0226
1392.00,0.0230
1391.00,0.0236
1390.00,0.0245
1389.00,0.0258
1388.00,0.0276
1387.00,0.0304
1386.00,0.0341
1385.00,0.0389
1384.00,0.0455
1383.00,0.0546
1382.00,0.0666
1381.00,0.0819
1380.00,0.1004
1379.00,0.1212
1378.00,0.1411
1377.00,0.1556
1376.00,0.1605
1375.00,0.1533
1374.00,0.1361
1373.00,0.1154
1372.00,0.0964
1371.00,0.0806
1370.00,0.0679
1369.00,0.0580
1368.00,0.0509
1367.00,0.0464
1366.00,0.0438
1365.00,0.0426
1364.00,0.0424
1363.00,0.0430
1362.00,0.0443
1361.00,0.0456
1360.00,0.0466
1359.00,0.0468
1358.00,0.0458
1357.00,0.0439
1356.00,0.0411
1355.00,0.0380
1354.00,0.0350
1353.00,0.0324
1352.00,0.0303
1351.00,0.0286
1350.00,0.0273
1349.00,0.0262
1348.00,0.0253
1347.00,0.0245
1346.00,0.0238
1345.00,0.0232
1344.00,0.0228
1343.00,0.0225
1342.00,0.0223
1341.00,0.0222
1340.00,0.0221
1339.00,0.0220
1338.00,0.0220
1337.00,0.0219
1336.00,0.0219
1335.00,0.0220
1334.00,0.0221
1333.00,0.0224
1332.00,0.0227
1331.00,0.0229
1330.00,0.0230
1329.00,0.0229
1328.00,0.0227
1327.00,0.0224
1326.00,0.0220
1325.00,0.0216
1324.00,0.0212
1323.00,0.0209
1322.00,0.0207
1321.00,0.0207
1320.00,0.0206
1319.00,0.0206
1318.00,0.0205
1317.00,0.0204
1316.00,0.0203
1315.00,0.0202
1314.00,0.0201
1313.00,0.0201
1312.00,0.0202
1311.00,0.0203
1310.00,0.0206
1309.00,0.0211
1308.00,0.0219
1307.00,0.0228
1306.00,0.0237
1305.00,0.0243
1304.00,0.0243
1303.00,0.0239
1302.00,0.0232
1301.00,0.0226
1300.00,0.0220
1299.00,0.0217
1298.00,0.0216
1297.00,0.0214
1296.00,0.0212
1295.00,0.0209
1294.00,0.0206
1293.00,0.0202
1292.00,0.0198
1291.00,0.0194
1290.00,0.0191
1289.00,0.0188
1288.00,0.0185
1287.00,0.0182
1286.00,0.0180
1285.00,0.0178
1284.00,0.0176
1283.00,0.0173
1282.00,0.0171
1281.00,0.0169
1280.00,0.0167
1279.00,0.0166
1278.00,0.0166
1277.00,0.0166
1276.00,0.0166
1275.00,0.0166
1274.00,0.0166
1273.00,0.0166
1272.00,0.0167
1271.00,0.0169
1270.00,0.0171
1269.00,0.0174
1268.00,0.0178
1267.00,0.0182
1266.00,0.0186
1265.00,0.0190
1264.00,0.0193
1263.00,0.0195
1262.00,0.0198
1261.00,0.0200
1260.00,0.0203
1259.00,0.0208
1258.00,0.0212
1257.00,0.0215
1256.00,0.0215
1255.00,0.0211
1254.00,0.0203
1253.00,0.0193
1252.00,0.0184
1251.00,0.0176
1250.00,0.0171
1249.00,0.0167
1248.00,0.0165
1247.00,0.0163
1246.00,0.0162
1245.00,0.0160
1244.00,0.0159
1243.00,0.0158
1242.00,0.0157
1241.00,0.0156
1240.00,0.0155
1239.00,0.0154
1238.00,0.0154
1237.00,0.0154
1236.00,0.0154
1235.00,0.0155
1234.00,0.0155
1233.00,0.0156
1232.00,0.0156
1231.00,0.0157
1230.00,0.0158
1229.00,0.0159
1228.00,0.0161
1227.00,0.0163
1226.00,0.0165
1225.00,0.0168
1224.00,0.0173
1223.00,0.0178
1222.00,0.0184
1221.00,0.0189
1220.00,0.0194
1219.00,0.0198
1218.00,0.0201
1217.00,0.0204
1216.00,0.0206
1215.00,0.0206
1214.00,0.0206
1213.00,0.0205
1212.00,0.0204
1211.00,0.0203
1210.00,0.0203
1209.00,0.0203
1208.00,0.0203
1207.00,0.0203
1206.00,0.0203
1205.00,0.0204
1204.00,0.0205
1203.00,0.0206
1202.00,0.0208
1201.00,0.0210
1200.00,0.0211
1199.00,0.0213
1198.00,0.0214
1197.00,0.0216
1196.00,0.0217
1195.00,0.0219
1194.00,0.0220
1193.00,0.0221
1192.00,0.0222
1191.00,0.0224
1190.00,0.0224
1189.00,0.0225
1188.00,0.0225
1187.00,0.0225
1186.00,0.0225
1185.00,0.0225
1184.00,0.0226
1183.00,0.0227
1182.00,0.0229
1181.00,0.0233
1180.00,0.0237
1179.00,0.0242
1178.00,0.0250
1177.00,0.0259
1176.00,0.0272
1175.00,0.0288
1174.00,0.0310
1173.00,0.0337
1172.00,0.0369
1171.00,0.0404
1170.00,0.0439
1169.00,0.0469
1168.00,0.0489
1167.00,0.0498
1166.00,0.0495
1165.00,0.0486
1164.00,0.0474
1163.00,0.0463
1162.00,0.0454
1161.00,0.0449
1160.00,0.0445
1159.00,0.0444
1158.00,0.0445
1157.00,0.0447
1156.00,0.0451
1155.00,0.0456
1154.00,0.0459
1153.00,0.0461
1152.00,0.0461
1151.00,0.0458
1150.00,0.0454
1149.00,0.0449
1148.00,0.0443
1147.00,0.0438
1146.00,0.0433
1145.00,0.0429
1144.00,0.0426
1143.00,0.0424
1142.00,0.0422
1141.00,0.0422
1140.00,0.0423
1139.00,0.0425
1138.00,0.0428
1137.00,0.0432
1136.00,0.0437
1135.00,0.0445
1134.00,0.0453
1133.00,0.0462
1132.00,0.0472
1131.00,0.0482
1130.00,0.0492
1129.00,0.0503
1128.00,0.0514
1127.00,0.0523
1126.00,0.0532
1125.00,0.0539
1124.00,0.0545
1123.00,0.0551
1122.00,0.0558
1121.00,0.0564
1120.00,0.0569
1119.00,0.0574
1118.00,0.0578
1117.00,0.0582
1116.00,0.0586
1115.00,0.0589
1114.00,0.0591
1113.00,0.0594
1112.00,0.0597
1111.00,0.0599
1110.00,0.0602
1109.00,0.0604
1108.00,0.0606
1107.00,0.0610
1106.00,0.0613
1105.00,0.0617
1104.00,0.0620
1103.00,0.0622
1102.00,0.0622
1101.00,0.0620
1100.00,0.0617
1099.00,0.0612
1098.00,0.0607
1097.00,0.0603
1096.00,0.0599
1095.00,0.0596
1094.00,0.0594
1093.00,0.0594
1092.00,0.0595
1091.00,0.0595
1090.00,0.0597
1089.00,0.0600
1088.00,0.0603
1087.00,0.0608
1086.00,0.0614
1085.00,0.0620
1084.00,0.0626
1083.00,0.0632
1082.00,0.0637
1081.00,0.0641
1080.00,0.0645
1079.00,0.0649
1078.00,0.0652
1077.00,0.0656
1076.00,0.0660
1075.00,0.0663
1074.00,0.0665
1073.00,0.0667
1072.00,0.0669
1071.00,0.0672
1070.00,0.0674
1069.00,0.0676
1068.00,0.0679
1067.00,0.0680
1066.00,0.0682
1065.00,0.0684
1064.00,0.0686
1063.00,0.0687
1062.00,0.0687
1061.00,0.0686
1060.00,0.0685
1059.00,0.0683
1058.00,0.0681
1057.00,0.0678
1056.00,0.0675
1055.00,0.0671
1054.00,0.0667
1053.00,0.0662
1052.00,0.0657
1051.00,0.0652
1050.00,0.0647
1049.00,0.0643
1048.00,0.0639
1047.00,0.0635
1046.00,0.0631
1045.00,0.0626
1044.00,0.0619
1043.00,0.0611
1042.00,0.0601
1041.00,0.0592
1040.00,0.0584
1039.00,0.0577
1038.00,0.0571
1037.00,0.0566
1036.00,0.0561
1035.00,0.0554
1034.00,0.0546
1033.00,0.0537
1032.00,0.0527
1031.00,0.0518
1030.00,0.0510
1029.00,0.0503
1028.00,0.0497
1027.00,0.0490
1026.00,0.0484
1025.00,0.0477
1024.00,0.0470
1023.00,0.0463
1022.00,0.0456
1021.00,0.0449
1020.00,0.0443
1019.00,0.0438
1018.00,0.0434
1017.00,0.0429
1016.00,0.0424
1015.00,0.0420
1014.00,0.0416
1013.00,0.0413
1012.00,0.0410
1011.00,0.0406
1010.00,0.0401
1009.00,0.0394
1008.00,0.0389
1007.00,0.0385
1006.00,0.0383
1005.00,0.0386
1004.00,0.0394
1003.00,0.0409
1002.00,0.0434
1001.00,0.0466
1000.00,0.0503
999.00,0.0533
998.00,0.0547
997.00,0.0537
996.00,0.0504
995.00,0.0458
994.00,0.0409
993.00,0.0365
992.00,0.0330
991.00,0.0303
990.00,0.0283
989.00,0.0268
988.00,0.0258
987.00,0.0250
986.00,0.0245
985.00,0.0243
984.00,0.0243
983.00,0.0247
982.00,0.0254
981.00,0.0267
980.00,0.0286
979.00,0.0312
978.00,0.0346
977.00,0.0387
976.00,0.0432
975.00,0.0477
974.00,0.0511
973.00,0.0526
972.00,0.0513
971.00,0.0476
970.00,0.0425
969.00,0.0373
968.00,0.0329
967.00,0.0297
966.00,0.0277
965.00,0.0263
964.00,0.0255
963.00,0.0249
962.00,0.0246
961.00,0.0246
960.00,0.0246
959.00,0.0248
958.00,0.0250
957.00,0.0252
956.00,0.0254
955.00,0.0256
954.00,0.0257
953.00,0.0257
952.00,0.0258
951.00,0.0260
950.00,0.0261
949.00,0.0263
948.00,0.0264
947.00,0.0264
946.00,0.0263
945.00,0.0261
944.00,0.0260
943.00,0.0258
942.00,0.0256
941.00,0.0252
940.00,0.0246
939.00,0.0239
938.00,0.0232
937.00,0.0223
936.00,0.0215
935.00,0.0207
934.00,0.0201
933.00,0.0197
932.00,0.0194
931.00,0.0192
930.00,0.0190
929.00,0.0188
928.00,0.0186
927.00,0.0184
926.00,0.0183
925.00,0.0180
924.00,0.0177
923.00,0.0173
922.00,0.0169
921.00,0.0165
920.00,0.0163
919.00,0.0162
918.00,0.0161
917.00,0.0160
916.00,0.0158
915.00,0.0157
914.00,0.0156
913.00,0.0156
912.00,0.0157
911.00,0.0159
910.00,0.0161
909.00,0.0162
908.00,0.0163
907.00,0.0165
906.00,0.0169
905.00,0.0176
904.00,0.0187
903.00,0.0200
902.00,0.0215
901.00,0.0229
900.00,0.0237
899.00,0.0238
898.00,0.0232
897.00,0.0220
896.00,0.0206
895.00,0.0193
894.00,0.0182
893.00,0.0174
892.00,0.0168
891.00,0.0163
890.00,0.0159
889.00,0.0155
888.00,0.0151
887.00,0.0149
886.00,0.0147
885.00,0.0146
884.00,0.0144
883.00,0.0143
882.00,0.0142
881.00,0.0142
880.00,0.0143
879.00,0.0145
878.00,0.0147
877.00,0.0149
876.00,0.0150
875.00,0.0150
874.00,0.0149
873.00,0.0147
872.00,0.0143
871.00,0.0139
870.00,0.0136
869.00,0.0134
868.00,0.0133
867.00,0.0133
866.00,0.0132
865.00,0.0131
864.00,0.0131
863.00,0.0133
862.00,0.0135
861.00,0.0137
860.00,0.0139
859.00,0.0141
858.00,0.0143
857.00,0.0145
856.00,0.0147
855.00,0.0150
854.00,0.0152
853.00,0.0154
852.00,0.0156
851.00,0.0160
850.00,0.0166
849.00,0.0172
848.00,0.0182
847.00,0.0196
846.00,0.0217
845.00,0.0250
844.00,0.0298
843.00,0.0354
842.00,0.0401
841.00,0.0417
840.00,0.0393
839.00,0.0342
838.00,0.0285
837.00,0.0239
836.00,0.0210
835.00,0.0193
834.00,0.0183
833.00,0.0176
832.00,0.0171
831.00,0.0166
830.00,0.0163
829.00,0.0161
828.00,0.0160
827.00,0.0160
826.00,0.0161
825.00,0.0162
824.00,0.0162
823.00,0.0163
822.00,0.0164
821.00,0.0164
820.00,0.0165
819.00,0.0167
818.00,0.0171
817.00,0.0176
816.00,0.0183
815.00,0.0193
814.00,0.0206
813.00,0.0222
812.00,0.0239
811.00,0.0254
810.00,0.0264
809.00,0.0268
808.00,0.0265
807.00,0.0255
806.00,0.0241
805.00,0.0226
804.00,0.0213
803.00,0.0203
802.00,0.0195
801.00,0.0190
800.00,0.0185
799.00,0.0181
798.00,0.0177
797.00,0.0173
796.00,0.0171
795.00,0.0167
794.00,0.0163
793.00,0.0159
792.00,0.0156
791.00,0.0154
790.00,0.0151
789.00,0.0148
788.00,0.0144
787.00,0.0141
786.00,0.0140
785.00,0.0139
784.00,0.0139
783.00,0.0139
782.00,0.0139
781.00,0.0138
780.00,0.0137
779.00,0.0137
778.00,0.0137
777.00,0.0137
776.00,0.0138
775.00,0.0138
774.00,0.0138
773.00,0.0136
772.00,0.0135
771.00,0.0136
770.00,0.0137
769.00,0.0138
768.00,0.0138
767.00,0.0136
766.00,0.0134
765.00,0.0133
764.00,0.0132
763.00,0.0133
762.00,0.0134
761.00,0.0135
760.00,0.0135
759.00,0.0135
758.00,0.0135
757.00,0.0134
756.00,0.0134
755.00,0.0133
754.00,0.0134
753.00,0.0135
752.00,0.0136
751.00,0.0138
750.00,0.0139
749.00,0.0140
748.00,0.0141
747.00,0.0141
746.00,0.0143
745.00,0.0146
744.00,0.0148
743.00,0.0150
742.00,0.0153
741.00,0.0155
740.00,0.0159
739.00,0.0163
738.00,0.0168
737.00,0.0173
736.00,0.0179
735.00,0.0184
734.00,0.0188
733.00,0.0192
732.00,0.0198
731.00,0.0206
730.00,0.0213
729.00,0.0218
728.00,0.0221
727.00,0.0222
726.00,0.0224
725.00,0.0227
724.00,0.0231
723.00,0.0236
722.00,0.0241
721.00,0.0245
720.00,0.0245
719.00,0.0239
718.00,0.0228
717.00,0.0216
716.00,0.0205
715.00,0.0198
714.00,0.0195
713.00,0.0193
712.00,0.0192
711.00,0.0191
710.00,0.0190
709.00,0.0188
708.00,0.0185
707.00,0.0183
706.00,0.0181
705.00,0.0180
704.00,0.0179
703.00,0.0178
702.00,0.0176
701.00,0.0176
700.00,0.0175
699.00,0.0175
698.00,0.0173
697.00,0.0171
696.00,0.0170
695.00,0.0168
694.00,0.0167
693.00,0.0166
692.00,0.0168
691.00,0.0170
690.00,0.0171
689.00,0.0170
688.00,0.0170
687.00,0.0170
686.00,0.0172
685.00,0.0173
684.00,0.0174
683.00,0.0176
682.00,0.0177
681.00,0.0177
680.00,0.0179
679.00,0.0182
678.00,0.0187
677.00,0.0191
676.00,0.0193
675.00,0.0196
674.00,0.0200
673.00,0.0204
672.00,0.0206
671.00,0.0208
670.00,0.0209
669.00,0.0209
668.00,0.0210
667.00,0.0212
666.00,0.0213
665.00,0.0212
664.00,0.0212
663.00,0.0212
662.00,0.0212
661.00,0.0213
660.00,0.0214
659.00,0.0214
658.00,0.0212
657.00,0.0211
656.00,0.0209
655.00,0.0207
654.00,0.0207
653.00,0.0208
652.00,0.0210
651.00,0.0213
650.00,0.0214
649.00,0.0213
648.00,0.0211
647.00,0.0210
646.00,0.0210
645.00,0.0211
644.00,0.0213
643.00,0.0215
642.00,0.0217
641.00,0.0218
640.00,0.0218
639.00,0.0217
638.00,0.0216
637.00,0.0216
636.00,0.0216
635.00,0.0217
634.00,0.0219
633.00,0.0220
632.00,0.0221
631.00,0.0221
630.00,0.0220
629.00,0.0219
628.00,0.0220
627.00,0.0223
626.00,0.0226
625.00,0.0228
624.00,0.0231
623.00,0.0232
622.00,0.0233
621.00,0.0232
620.00,0.0231
619.00,0.0231
618.00,0.0231
617.00,0.0232
616.00,0.0233
615.00,0.0235
614.00,0.0237
613.00,0.0240
612.00,0.0242
611.00,0.0243
610.00,0.0242
609.00,0.0240
608.00,0.0239
607.00,0.0239
606.00,0.0239
605.00,0.0239
604.00,0.0238
603.00,0.0236
602.00,0.0235
601.00,0.0234
600.00,0.0234
599.00,0.0235
598.00,0.0238
597.00,0.0242
596.00,0.0246
595.00,0.0248
594.00,0.0248
593.00,0.0245
592.00,0.0241
591.00,0.0238
590.00,0.0238
589.00,0.0240
588.00,0.0243
587.00,0.0245
586.00,0.0247
585.00,0.0249
584.00,0.0250
583.00,0.0250
582.00,0.0248
581.00,0.0245
580.00,0.0243
579.00,0.0244
578.00,0.0247
577.00,0.0250
576.00,0.0253
575.00,0.0255
574.00,0.0255
573.00,0.0255
572.00,0.0255
571.00,0.0255
570.00,0.0253
569.00,0.0251
568.00,0.0250
567.00,0.0248
566.00,0.0248
565.00,0.0247
564.00,0.0245
563.00,0.0243
562.00,0.0241
561.00,0.0240
560.00,0.0241
559.00,0.0242
558.00,0.0243
557.00,0.0242
556.00,0.0241
555.00,0.0240
554.00,0.0240
553.00,0.0242
552.00,0.0244
551.00,0.0244
550.00,0.0243
549.00,0.0242
548.00,0.0243
547.00,0.0245
546.00,0.0247
545.00,0.0249
544.00,0.0249
543.00,0.0246
542.00,0.0243
541.00,0.0241
540.00,0.0242
539.00,0.0247
538.00,0.0254
537.00,0.0258
536.00,0.0257
535.00,0.0253
534.00,0.0249
533.00,0.0247
532.00,0.0245
531.00,0.0243
530.00,0.0239
529.00,0.0235
528.00,0.0233
527.00,0.0235
526.00,0.0240
525.00,0.0244
524.00,0.0243
523.00,0.0241
522.00,0.0239
521.00,0.0239
520.00,0.0242
519.00,0.0243
518.00,0.0239
517.00,0.0233
516.00,0.0228
515.00,0.0228
514.00,0.0231
513.00,0.0233
512.00,0.0232
511.00,0.0227
510.00,0.0222
509.00,0.0220
508.00,0.0221
507.00,0.0225
506.00,0.0229
505.00,0.0232
504.00,0.0233
503.00,0.0233
502.00,0.0233
501.00,0.0232
500.00,0.0231
499.00,0.0230
498.00,0.0228
497.00,0.0224
496.00,0.0218
495.00,0.0215
494.00,0.0214
493.00,0.0211
492.00,0.0205
491.00,0.0200
490.00,0.0200
489.00,0.0205
488.00,0.0210
487.00,0.0211
486.00,0.0209
485.00,0.0209
484.00,0.0210
483.00,0.0212
482.00,0.0214
481.00,0.0217
480.00,0.0223
479.00,0.0230
478.00,0.0238
477.00,0.0244
476.00,0.0248
475.00,0.0247
474.00,0.0243
473.00,0.0240
472.00,0.0240
471.00,0.0245
470.00,0.0250
469.00,0.0254
468.00,0.0255
467.00,0.0254
466.00,0.0254
465.00,0.0254
464.00,0.0251
463.00,0.0243
462.00,0.0236
461.00,0.0237
460.00,0.0246
459.00,0.0256
458.00,0.0263
457.00,0.0266
456.00,0.0266
455.00,0.0264
454.00,0.0259
453.00,0.0253
452.00,0.0248
451.00,0.0243
450.00,0.0235
