Created as New Dataset,Sample 057 By Administrator Date Friday, September 05 2025
cm-1,A
4000.00,0.0020
3999.00,0.0020
3998.00,0.0020
3997.00,0.0020
3996.00,0.0020
3995.00,0.0020
3994.00,0.0019
3993.00,0.0019
3992.00,0.0019
3991.00,0.0019
3990.00,0.0019
3989.00,0.0019
3988.00,0.0020
3987.00,0.0020
3986.00,0.0020
3985.00,0.0020
3984.00,0.0020
3983.00,0.0019
3982.00,0.0019
3981.00,0.0018
3980.00,0.0018
3979.00,0.0018
3978.00,0.0019
3977.00,0.0019
3976.00,0.0019
3975.00,0.0019
3974.00,0.0019
3973.00,0.0019
3972.00,0.0019
3971.00,0.0018
3970.00,0.0019
3969.00,0.0019
3968.00,0.0019
3967.00,0.0019
3966.00,0.0018
3965.00,0.0018
3964.00,0.0018
3963.00,0.0018
3962.00,0.0017
3961.00,0.0017
3960.00,0.0018
3959.00,0.0018
3958.00,0.0018
3957.00,0.0017
3956.00,0.0017
3955.00,0.0017
3954.00,0.0018
3953.00,0.0018
3952.00,0.0019
3951.00,0.0019
3950.00,0.0019
3949.00,0.0018
3948.00,0.0018
3947.00,0.0018
3946.00,0.0018
3945.00,0.0017
3944.00,0.0017
3943.00,0.0017
3942.00,0.0017
3941.00,0.0017
3940.00,0.0017
3939.00,0.0018
3938.00,0.0018
3937.00,0.0018
3936.00,0.0018
3935.00,0.0018
3934.00,0.0018
3933.00,0.0018
3932.00,0.0018
3931.00,0.0018
3930.00,0.0018
3929.00,0.0018
3928.00,0.0017
3927.00,0.0017
3926.00,0.0017
3925.00,0.0017
3924.00,0.0017
3923.00,0.0017
3922.00,0.0017
3921.00,0.0017
3920.00,0.0017
3919.00,0.0018
3918.00,0.0018
3917.00,0.0018
3916.00,0.0018
3915.00,0.0018
3914.00,0.0018
3913.00,0.0019
3912.00,0.0019
3911.00,0.0019
3910.00,0.0019
3909.00,0.0018
3908.00,0.0018
3907.00,0.0018
3906.00,0.0017
3905.00,0.0017
3904.00,0.0017
3903.00,0.0017
3902.00,0.0017
3901.00,0.0017
3900.00,0.0017
3899.00,0.0017
3898.00,0.0017
3897.00,0.0017
3896.00,0.0017
3895.00,0.0017
3894.00,0.0018
3893.00,0.0018
3892.00,0.0018
3891.00,0.0018
3890.00,0.0018
3889.00,0.0018
3888.00,0.0018
3887.00,0.0018
3886.00,0.0018
3885.00,0.0018
3884.00,0.0018
3883.00,0.0018
3882.00,0.0018
3881.00,0.0018
3880.00,0.0017
3879.00,0.0017
3878.00,0.0017
3877.00,0.0018
3876.00,0.0017
3875.00,0.0017
3874.00,0.0017
3873.00,0.0017
3872.00,0.0018
3871.00,0.0018
3870.00,0.0018
3869.00,0.0018
3868.00,0.0017
3867.00,0.0017
3866.00,0.0017
3865.00,0.0016
3864.00,0.0016
3863.00,0.0016
3862.00,0.0016
3861.00,0.0016
3860.00,0.0016
3859.00,0.0016
3858.00,0.0017
3857.00,0.0017
3856.00,0.0017
3855.00,0.0018
3854.00,0.0018
3853.00,0.0018
3852.00,0.0018
3851.00,0.0018
3850.00,0.0018
3849.00,0.0017
3848.00,0.0017
3847.00,0.0016
3846.00,0.0016
3845.00,0.0016
3844.00,0.0015
3843.00,0.0015
3842.00,0.0015
3841.00,0.0016
3840.00,0.0016
3839.00,0.0017
3838.00,0.0017
3837.00,0.0017
3836.00,0.0017
3835.00,0.0017
3834.00,0.0017
3833.00,0.0017
3832.00,0.0017
3831.00,0.0017
3830.00,0.0017
3829.00,0.0017
3828.00,0.0017
3827.00,0.0017
3826.00,0.0017
3825.00,0.0018
3824.00,0.0018
3823.00,0.0019
3822.00,0.0019
3821.00,0.0018
3820.00,0.0018
3819.00,0.0018
3818.00,0.0018
3817.00,0.0018
3816.00,0.0017
3815.00,0.0017
3814.00,0.0017
3813.00,0.0017
3812.00,0.0017
3811.00,0.0017
3810.00,0.0017
3809.00,0.0017
3808.00,0.0017
3807.00,0.0017
3806.00,0.0017
3805.00,0.0017
3804.00,0.0017
3803.00,0.0017
3802.00,0.0017
3801.00,0.0017
3800.00,0.0017
3799.00,0.0017
3798.00,0.0017
3797.00,0.0017
3796.00,0.0017
3795.00,0.0017
3794.00,0.0017
3793.00,0.0017
3792.00,0.0017
3791.00,0.0017
3790.00,0.0017
3789.00,0.0017
3788.00,0.0017
3787.00,0.0017
3786.00,0.0017
3785.00,0.0016
3784.00,0.0017
3783.00,0.0017
3782.00,0.0017
3781.00,0.0017
3780.00,0.0017
3779.00,0.0017
3778.00,0.0017
3777.00,0.0017
3776.00,0.0017
3775.00,0.0017
3774.00,0.0017
3773.00,0.0017
3772.00,0.0017
3771.00,0.0018
3770.00,0.0017
3769.00,0.0017
3768.00,0.0017
3767.00,0.0017
3766.00,0.0017
3765.00,0.0017
3764.00,0.0017
3763.00,0.0017
3762.00,0.0017
3761.00,0.0018
3760.00,0.0018
3759.00,0.0017
3758.00,0.0017
3757.00,0.0017
3756.00,0.0016
3755.00,0.0016
3754.00,0.0016
3753.00,0.0017
3752.00,0.0017
3751.00,0.0018
3750.00,0.0019
3749.00,0.0019
3748.00,0.0019
3747.00,0.0018
3746.00,0.0018
3745.00,0.0017
3744.00,0.0016
3743.00,0.0016
3742.00,0.0016
3741.00,0.0016
3740.00,0.0015
3739.00,0.0015
3738.00,0.0016
3737.00,0.0016
3736.00,0.0015
3735.00,0.0015
3734.00,0.0014
3733.00,0.0014
3732.00,0.0014
3731.00,0.0015
3730.00,0.0015
3729.00,0.0015
3728.00,0.0014
3727.00,0.0014
3726.00,0.0013
3725.00,0.0013
3724.00,0.0013
3723.00,0.0013
3722.00,0.0014
3721.00,0.0014
3720.00,0.0014
3719.00,0.0014
3718.00,0.0015
3717.00,0.0015
3716.00,0.0016
3715.00,0.0016
3714.00,0.0016
3713.00,0.0015
3712.00,0.0015
3711.00,0.0014
3710.00,0.0014
3709.00,0.0014
3708.00,0.0014
3707.00,0.0014
3706.00,0.0014
3705.00,0.0014
3704.00,0.0014
3703.00,0.0015
3702.00,0.0015
3701.00,0.0015
3700.00,0.0015
3699.00,0.0015
3698.00,0.0015
3697.00,0.0015
3696.00,0.0015
3695.00,0.0014
3694.00,0.0014
3693.00,0.0014
3692.00,0.0015
3691.00,0.0016
3690.00,0.0017
3689.00,0.0017
3688.00,0.0017
3687.00,0.0017
3686.00,0.0017
3685.00,0.0017
3684.00,0.0017
3683.00,0.0016
3682.00,0.0016
3681.00,0.0017
3680.00,0.0017
3679.00,0.0017
3678.00,0.0018
3677.00,0.0018
3676.00,0.0018
3675.00,0.0018
3674.00,0.0018
3673.00,0.0019
3672.00,0.0019
3671.00,0.0019
3670.00,0.0019
3669.00,0.0019
3668.00,0.0019
3667.00,0.0020
3666.00,0.0020
3665.00,0.0020
3664.00,0.0019
3663.00,0.0019
3662.00,0.0019
3661.00,0.0019
3660.00,0.0019
3659.00,0.0020
3658.00,0.0020
3657.00,0.0020
3656.00,0.0021
3655.00,0.0021
3654.00,0.0022
3653.00,0.0022
3652.00,0.0021
3651.00,0.0021
3650.00,0.0021
3649.00,0.0021
3648.00,0.0022
3647.00,0.0023
3646.00,0.0024
3645.00,0.0024
3644.00,0.0024
3643.00,0.0025
3642.00,0.0025
3641.00,0.0025
3640.00,0.0025
3639.00,0.0026
3638.00,0.0026
3637.00,0.0026
3636.00,0.0027
3635.00,0.0027
3634.00,0.0027
3633.00,0.0027
3632.00,0.0027
3631.00,0.0027
3630.00,0.0028
3629.00,0.0029
3628.00,0.0030
3627.00,0.0030
3626.00,0.0031
3625.00,0.0032
3624.00,0.0032
3623.00,0.0031
3622.00,0.0031
3621.00,0.0031
3620.00,0.0032
3619.00,0.0033
3618.00,0.0034
3617.00,0.0035
3616.00,0.0035
3615.00,0.0036
3614.00,0.0036
3613.00,0.0037
3612.00,0.0038
3611.00,0.0039
3610.00,0.0040
3609.00,0.0041
3608.00,0.0041
3607.00,0.0041
3606.00,0.0041
3605.00,0.0041
3604.00,0.0041
3603.00,0.0042
3602.00,0.0042
3601.00,0.0043
3600.00,0.0043
3599.00,0.0043
3598.00,0.0043
3597.00,0.0044
3596.00,0.0045
3595.00,0.0046
3594.00,0.0047
3593.00,0.0047
3592.00,0.0047
3591.00,0.0047
3590.00,0.0048
3589.00,0.0048
3588.00,0.0049
3587.00,0.0049
3586.00,0.0050
3585.00,0.0051
3584.00,0.0052
3583.00,0.0052
3582.00,0.0053
3581.00,0.0053
3580.00,0.0053
3579.00,0.0054
3578.00,0.0055
3577.00,0.0056
3576.00,0.0057
3575.00,0.0058
3574.00,0.0058
3573.00,0.0059
3572.00,0.0059
3571.00,0.0059
3570.00,0.0060
3569.00,0.0060
3568.00,0.0061
3567.00,0.0062
3566.00,0.0063
3565.00,0.0064
3564.00,0.0064
3563.00,0.0065
3562.00,0.0066
3561.00,0.0066
3560.00,0.0067
3559.00,0.0068
3558.00,0.0068
3557.00,0.0069
3556.00,0.0070
3555.00,0.0070
3554.00,0.0071
3553.00,0.0071
3552.00,0.0072
3551.00,0.0073
3550.00,0.0074
3549.00,0.0074
3548.00,0.0075
3547.00,0.0076
3546.00,0.0077
3545.00,0.0078
3544.00,0.0078
3543.00,0.0079
3542.00,0.0080
3541.00,0.0080
3540.00,0.0081
3539.00,0.0081
3538.00,0.0082
3537.00,0.0083
3536.00,0.0083
3535.00,0.0084
3534.00,0.0085
3533.00,0.0085
3532.00,0.0086
3531.00,0.0087
3530.00,0.0088
3529.00,0.0088
3528.00,0.0089
3527.00,0.0090
3526.00,0.0091
3525.00,0.0092
3524.00,0.0093
3523.00,0.0094
3522.00,0.0095
3521.00,0.0095
3520.00,0.0096
3519.00,0.0097
3518.00,0.0098
3517.00,0.0099
3516.00,0.0099
3515.00,0.0100
3514.00,0.0101
3513.00,0.0102
3512.00,0.0103
3511.00,0.0103
3510.00,0.0104
3509.00,0.0105
3508.00,0.0106
3507.00,0.0107
3506.00,0.0108
3505.00,0.0109
3504.00,0.0110
3503.00,0.0111
3502.00,0.0111
3501.00,0.0112
3500.00,0.0113
3499.00,0.0113
3498.00,0.0114
3497.00,0.0115
3496.00,0.0116
3495.00,0.0117
3494.00,0.0119
3493.00,0.0120
3492.00,0.0121
3491.00,0.0122
3490.00,0.0122
3489.00,0.0123
3488.00,0.0124
3487.00,0.0125
3486.00,0.0125
3485.00,0.0126
3484.00,0.0126
3483.00,0.0127
3482.00,0.0128
3481.00,0.0129
3480.00,0.0129
3479.00,0.0129
3478.00,0.0130
3477.00,0.0130
3476.00,0.0131
3475.00,0.0132
3474.00,0.0133
3473.00,0.0134
3472.00,0.0136
3471.00,0.0137
3470.00,0.0137
3469.00,0.0137
3468.00,0.0138
3467.00,0.0138
3466.00,0.0138
3465.00,0.0138
3464.00,0.0139
3463.00,0.0139
3462.00,0.0140
3461.00,0.0140
3460.00,0.0141
3459.00,0.0141
3458.00,0.0142
3457.00,0.0142
3456.00,0.0142
3455.00,0.0142
3454.00,0.0143
3453.00,0.0143
3452.00,0.0144
3451.00,0.0144
3450.00,0.0145
3449.00,0.0145
3448.00,0.0146
3447.00,0.0146
3446.00,0.0146
3445.00,0.0146
3444.00,0.0146
3443.00,0.0146
3442.00,0.0147
3441.00,0.0147
3440.00,0.0147
3439.00,0.0147
3438.00,0.0148
3437.00,0.0148
3436.00,0.0148
3435.00,0.0148
3434.00,0.0149
3433.00,0.0149
3432.00,0.0149
3431.00,0.0149
3430.00,0.0149
3429.00,0.0149
3428.00,0.0149
3427.00,0.0149
3426.00,0.0149
3425.00,0.0149
3424.00,0.0149
3423.00,0.0150
3422.00,0.0150
3421.00,0.0149
3420.00,0.0149
3419.00,0.0149
3418.00,0.0149
3417.00,0.0149
3416.00,0.0149
3415.00,0.0150
3414.00,0.0150
3413.00,0.0150
3412.00,0.0150
3411.00,0.0150
3410.00,0.0150
3409.00,0.0150
3408.00,0.0150
3407.00,0.0150
3406.00,0.0151
3405.00,0.0152
3404.00,0.0153
3403.00,0.0153
3402.00,0.0154
3401.00,0.0154
3400.00,0.0154
3399.00,0.0154
3398.00,0.0154
3397.00,0.0154
3396.00,0.0154
3395.00,0.0153
3394.00,0.0153
3393.00,0.0153
3392.00,0.0152
3391.00,0.0152
3390.00,0.0152
3389.00,0.0151
3388.00,0.0151
3387.00,0.0150
3386.00,0.0149
3385.00,0.0149
3384.00,0.0148
3383.00,0.0148
3382.00,0.0148
3381.00,0.0148
3380.00,0.0147
3379.00,0.0147
3378.00,0.0146
3377.00,0.0146
3376.00,0.0146
3375.00,0.0145
3374.00,0.0145
3373.00,0.0145
3372.00,0.0145
3371.00,0.0145
3370.00,0.0145
3369.00,0.0145
3368.00,0.0145
3367.00,0.0144
3366.00,0.0144
3365.00,0.0143
3364.00,0.0143
3363.00,0.0143
3362.00,0.0142
3361.00,0.0142
3360.00,0.0141
3359.00,0.0141
3358.00,0.0140
3357.00,0.0140
3356.00,0.0139
3355.00,0.0139
3354.00,0.0139
3353.00,0.0139
3352.00,0.0139
3351.00,0.0139
3350.00,0.0138
3349.00,0.0138
3348.00,0.0137
3347.00,0.0137
3346.00,0.0136
3345.00,0.0136
3344.00,0.0136
3343.00,0.0135
3342.00,0.0135
3341.00,0.0135
3340.00,0.0135
3339.00,0.0135
3338.00,0.0134
3337.00,0.0134
3336.00,0.0133
3335.00,0.0133
3334.00,0.0132
3333.00,0.0132
3332.00,0.0131
3331.00,0.0130
3330.00,0.0130
3329.00,0.0129
3328.00,0.0129
3327.00,0.0129
3326.00,0.0129
3325.00,0.0129
3324.00,0.0129
3323.00,0.0128
3322.00,0.0128
3321.00,0.0127
3320.00,0.0127
3319.00,0.0126
3318.00,0.0126
3317.00,0.0126
3316.00,0.0125
3315.00,0.0125
3314.00,0.0125
3313.00,0.0124
3312.00,0.0124
3311.00,0.0123
3310.00,0.0122
3309.00,0.0122
3308.00,0.0122
3307.00,0.0122
3306.00,0.0122
3305.00,0.0121
3304.00,0.0121
3303.00,0.0121
3302.00,0.0120
3301.00,0.0120
3300.00,0.0120
3299.00,0.0119
3298.00,0.0119
3297.00,0.0119
3296.00,0.0118
3295.00,0.0118
3294.00,0.0118
3293.00,0.0118
3292.00,0.0118
3291.00,0.0117
3290.00,0.0117
3289.00,0.0117
3288.00,0.0116
3287.00,0.0116
3286.00,0.0115
3285.00,0.0115
3284.00,0.0115
3283.00,0.0114
3282.00,0.0114
3281.00,0.0113
3280.00,0.0113
3279.00,0.0112
3278.00,0.0112
3277.00,0.0112
3276.00,0.0112
3275.00,0.0112
3274.00,0.0111
3273.00,0.0111
3272.00,0.0110
3271.00,0.0110
3270.00,0.0109
3269.00,0.0109
3268.00,0.0109
3267.00,0.0108
3266.00,0.0108
3265.00,0.0107
3264.00,0.0107
3263.00,0.0107
3262.00,0.0106
3261.00,0.0106
3260.00,0.0106
3259.00,0.0106
3258.00,0.0105
3257.00,0.0105
3256.00,0.0105
3255.00,0.0105
3254.00,0.0105
3253.00,0.0104
3252.00,0.0104
3251.00,0.0103
3250.00,0.0103
3249.00,0.0103
3248.00,0.0103
3247.00,0.0102
3246.00,0.0102
3245.00,0.0102
3244.00,0.0102
3243.00,0.0102
3242.00,0.0101
3241.00,0.0101
3240.00,0.0100
3239.00,0.0100
3238.00,0.0099
3237.00,0.0099
3236.00,0.0099
3235.00,0.0099
3234.00,0.0099
3233.00,0.0099
3232.00,0.0099
3231.00,0.0098
3230.00,0.0098
3229.00,0.0098
3228.00,0.0098
3227.00,0.0098
3226.00,0.0098
3225.00,0.0098
3224.00,0.0098
3223.00,0.0098
3222.00,0.0098
3221.00,0.0098
3220.00,0.0098
3219.00,0.0098
3218.00,0.0098
3217.00,0.0098
3216.00,0.0097
3215.00,0.0097
3214.00,0.0096
3213.00,0.0096
3212.00,0.0096
3211.00,0.0096
3210.00,0.0096
3209.00,0.0096
3208.00,0.0096
3207.00,0.0096
3206.00,0.0096
3205.00,0.0096
3204.00,0.0096
3203.00,0.0096
3202.00,0.0095
3201.00,0.0095
3200.00,0.0094
3199.00,0.0094
3198.00,0.0094
3197.00,0.0094
3196.00,0.0094
3195.00,0.0094
3194.00,0.0094
3193.00,0.0093
3192.00,0.0093
3191.00,0.0092
3190.00,0.0092
3189.00,0.0092
3188.00,0.0092
3187.00,0.0092
3186.00,0.0091
3185.00,0.0090
3184.00,0.0090
3183.00,0.0089
3182.00,0.0089
3181.00,0.0088
3180.00,0.0088
3179.00,0.0087
3178.00,0.0086
3177.00,0.0085
3176.00,0.0085
3175.00,0.0084
3174.00,0.0083
3173.00,0.0083
3172.00,0.0082
3171.00,0.0081
3170.00,0.0081
3169.00,0.0081
3168.00,0.0081
3167.00,0.0081
3166.00,0.0080
3165.00,0.0080
3164.00,0.0079
3163.00,0.0079
3162.00,0.0078
3161.00,0.0078
3160.00,0.0078
3159.00,0.0078
3158.00,0.0077
3157.00,0.0077
3156.00,0.0076
3155.00,0.0075
3154.00,0.0075
3153.00,0.0075
3152.00,0.0074
3151.00,0.0074
3150.00,0.0074
3149.00,0.0073
3148.00,0.0073
3147.00,0.0072
3146.00,0.0072
3145.00,0.0072
3144.00,0.0072
3143.00,0.0072
3142.00,0.0071
3141.00,0.0071
3140.00,0.0071
3139.00,0.0070
3138.00,0.0070
3137.00,0.0069
3136.00,0.0069
3135.00,0.0068
3134.00,0.0068
3133.00,0.0068
3132.00,0.0067
3131.00,0.0067
3130.00,0.0066
3129.00,0.0065
3128.00,0.0065
3127.00,0.0064
3126.00,0.0064
3125.00,0.0064
3124.00,0.0063
3123.00,0.0062
3122.00,0.0062
3121.00,0.0061
3120.00,0.0061
3119.00,0.0061
3118.00,0.0061
3117.00,0.0061
3116.00,0.0060
3115.00,0.0060
3114.00,0.0059
3113.00,0.0059
3112.00,0.0059
3111.00,0.0058
3110.00,0.0058
3109.00,0.0057
3108.00,0.0057
3107.00,0.0057
3106.00,0.0057
3105.00,0.0057
3104.00,0.0057
3103.00,0.0056
3102.00,0.0056
3101.00,0.0056
3100.00,0.0056
3099.00,0.0056
3098.00,0.0056
3097.00,0.0055
3096.00,0.0055
3095.00,0.0055
3094.00,0.0055
3093.00,0.0055
3092.00,0.0054
3091.00,0.0054
3090.00,0.0054
3089.00,0.0054
3088.00,0.0054
3087.00,0.0053
3086.00,0.0053
3085.00,0.0053
3084.00,0.0053
3083.00,0.0052
3082.00,0.0052
3081.00,0.0052
3080.00,0.0052
3079.00,0.0052
3078.00,0.0052
3077.00,0.0052
3076.00,0.0052
3075.00,0.0053
3074.00,0.0053
3073.00,0.0053
3072.00,0.0053
3071.00,0.0053
3070.00,0.0053
3069.00,0.0053
3068.00,0.0053
3067.00,0.0054
3066.00,0.0054
3065.00,0.0054
3064.00,0.0054
3063.00,0.0054
3062.00,0.0053
3061.00,0.0053
3060.00,0.0053
3059.00,0.0053
3058.00,0.0054
3057.00,0.0054
3056.00,0.0054
3055.00,0.0054
3054.00,0.0054
3053.00,0.0055
3052.00,0.0055
3051.00,0.0055
3050.00,0.0055
3049.00,0.0055
3048.00,0.0056
3047.00,0.0056
3046.00,0.0056
3045.00,0.0056
3044.00,0.0056
3043.00,0.0056
3042.00,0.0056
3041.00,0.0057
3040.00,0.0057
3039.00,0.0058
3038.00,0.0058
3037.00,0.0058
3036.00,0.0059
3035.00,0.0059
3034.00,0.0059
3033.00,0.0059
3032.00,0.0059
3031.00,0.0060
3030.00,0.0060
3029.00,0.0060
3028.00,0.0061
3027.00,0.0061
3026.00,0.0062
3025.00,0.0063
3024.00,0.0064
3023.00,0.0064
3022.00,0.0065
3021.00,0.0066
3020.00,0.0066
3019.00,0.0067
3018.00,0.0068
3017.00,0.0069
3016.00,0.0071
3015.00,0.0072
3014.00,0.0074
3013.00,0.0075
3012.00,0.0077
3011.00,0.0079
3010.00,0.0080
3009.00,0.0082
3008.00,0.0083
3007.00,0.0085
3006.00,0.0087
3005.00,0.0089
3004.00,0.0092
3003.00,0.0094
3002.00,0.0097
3001.00,0.0100
3000.00,0.0103
2999.00,0.0107
2998.00,0.0111
2997.00,0.0115
2996.00,0.0119
2995.00,0.0123
2994.00,0.0128
2993.00,0.0134
2992.00,0.0140
2991.00,0.0146
2990.00,0.0153
2989.00,0.0160
2988.00,0.0168
2987.00,0.0176
2986.00,0.0186
2985.00,0.0196
2984.00,0.0207
2983.00,0.0219
2982.00,0.0233
2981.00,0.0248
2980.00,0.0266
2979.00,0.0286
2978.00,0.0309
2977.00,0.0335
2976.00,0.0364
2975.00,0.0398
2974.00,0.0437
2973.00,0.0480
2972.00,0.0530
2971.00,0.0585
2970.00,0.0646
2969.00,0.0714
2968.00,0.0786
2967.00,0.0863
2966.00,0.0943
2965.00,0.1023
2964.00,0.1100
2963.00,0.1170
2962.00,0.1227
2961.00,0.1271
2960.00,0.1303
2959.00,0.1327
2958.00,0.1350
2957.00,0.1377
2956.00,0.1414
2955.00,0.1464
2954.00,0.1523
2953.00,0.1587
2952.00,0.1646
2951.00,0.1687
2950.00,0.1701
2949.00,0.1680
2948.00,0.1625
2947.00,0.1542
2946.00,0.1440
2945.00,0.1333
2944.00,0.1231
2943.00,0.1143
2942.00,0.1074
2941.00,0.1026
2940.00,0.0998
2939.00,0.0989
2938.00,0.0996
2937.00,0.1019
2936.00,0.1056
2935.00,0.1105
2934.00,0.1167
2933.00,0.1238
2932.00,0.1319
2931.00,0.1408
2930.00,0.1503
2929.00,0.1601
2928.00,0.1700
2927.00,0.1798
2926.00,0.1894
2925.00,0.1988
2924.00,0.2080
2923.00,0.2172
2922.00,0.2264
2921.00,0.2350
2920.00,0.2426
2919.00,0.2481
2918.00,0.2506
2917.00,0.2496
2916.00,0.2449
2915.00,0.2373
2914.00,0.2278
2913.00,0.2177
2912.00,0.2080
2911.00,0.1991
2910.00,0.1915
2909.00,0.1848
2908.00,0.1789
2907.00,0.1733
2906.00,0.1678
2905.00,0.1623
2904.00,0.1567
2903.00,0.1510
2902.00,0.1453
2901.00,0.1397
2900.00,0.1342
2899.00,0.1290
2898.00,0.1242
2897.00,0.1197
2896.00,0.1156
2895.00,0.1119
2894.00,0.1088
2893.00,0.1063
2892.00,0.1043
2891.00,0.1029
2890.00,0.1019
2889.00,0.1012
2888.00,0.1008
2887.00,0.1007
2886.00,0.1009
2885.00,0.1013
2884.00,0.1021
2883.00,0.1033
2882.00,0.1047
2881.00,0.1063
2880.00,0.1078
2879.00,0.1090
2878.00,0.1096
2877.00,0.1096
2876.00,0.1091
2875.00,0.1083
2874.00,0.1078
2873.00,0.1078
2872.00,0.1084
2871.00,0.1096
2870.00,0.1111
2869.00,0.1126
2868.00,0.1134
2867.00,0.1130
2866.00,0.1108
2865.00,0.1067
2864.00,0.1010
2863.00,0.0944
2862.00,0.0878
2861.00,0.0820
2860.00,0.0773
2859.00,0.0740
2858.00,0.0720
2857.00,0.0712
2856.00,0.0714
2855.00,0.0724
2854.00,0.0742
2853.00,0.0765
2852.00,0.0789
2851.00,0.0813
2850.00,0.0833
2849.00,0.0847
2848.00,0.0858
2847.00,0.0869
2846.00,0.0886
2845.00,0.0912
2844.00,0.0947
2843.00,0.0989
2842.00,0.1034
2841.00,0.1076
2840.00,0.1107
2839.00,0.1122
2838.00,0.1115
2837.00,0.1084
2836.00,0.1028
2835.00,0.0953
2834.00,0.0867
2833.00,0.0777
2832.00,0.0691
2831.00,0.0615
2830.00,0.0549
2829.00,0.0495
2828.00,0.0450
2827.00,0.0413
2826.00,0.0383
2825.00,0.0357
2824.00,0.0336
2823.00,0.0318
2822.00,0.0302
2821.00,0.0288
2820.00,0.0276
2819.00,0.0265
2818.00,0.0255
2817.00,0.0247
2816.00,0.0239
2815.00,0.0231
2814.00,0.0225
2813.00,0.0218
2812.00,0.0212
2811.00,0.0206
2810.00,0.0200
2809.00,0.0194
2808.00,0.0187
2807.00,0.0180
2806.00,0.0173
2805.00,0.0166
2804.00,0.0159
2803.00,0.0152
2802.00,0.0146
2801.00,0.0141
2800.00,0.0137
2799.00,0.0133
2798.00,0.0130
2797.00,0.0127
2796.00,0.0125
2795.00,0.0122
2794.00,0.0119
2793.00,0.0116
2792.00,0.0113
2791.00,0.0110
2790.00,0.0107
2789.00,0.0104
2788.00,0.0101
2787.00,0.0098
2786.00,0.0096
2785.00,0.0093
2784.00,0.0091
2783.00,0.0088
2782.00,0.0086
2781.00,0.0085
2780.00,0.0083
2779.00,0.0081
2778.00,0.0080
2777.00,0.0078
2776.00,0.0077
2775.00,0.0076
2774.00,0.0075
2773.00,0.0074
2772.00,0.0074
2771.00,0.0073
2770.00,0.0073
2769.00,0.0072
2768.00,0.0072
2767.00,0.0071
2766.00,0.0071
2765.00,0.0070
2764.00,0.0070
2763.00,0.0070
2762.00,0.0070
2761.00,0.0070
2760.00,0.0069
2759.00,0.0069
2758.00,0.0068
2757.00,0.0068
2756.00,0.0068
2755.00,0.0068
2754.00,0.0068
2753.00,0.0068
2752.00,0.0067
2751.00,0.0067
2750.00,0.0066
2749.00,0.0066
2748.00,0.0066
2747.00,0.0066
2746.00,0.0066
2745.00,0.0067
2744.00,0.0067
2743.00,0.0068
2742.00,0.0069
2741.00,0.0069
2740.00,0.0070
2739.00,0.0071
2738.00,0.0072
2737.00,0.0073
2736.00,0.0074
2735.00,0.0075
2734.00,0.0076
2733.00,0.0078
2732.00,0.0079
2731.00,0.0080
2730.00,0.0082
2729.00,0.0084
2728.00,0.0086
2727.00,0.0088
2726.00,0.0090
2725.00,0.0092
2724.00,0.0094
2723.00,0.0094
2722.00,0.0094
2721.00,0.0092
2720.00,0.0090
2719.00,0.0088
2718.00,0.0085
2717.00,0.0082
2716.00,0.0079
2715.00,0.0077
2714.00,0.0075
2713.00,0.0073
2712.00,0.0071
2711.00,0.0069
2710.00,0.0067
2709.00,0.0066
2708.00,0.0065
2707.00,0.0064
2706.00,0.0063
2705.00,0.0062
2704.00,0.0061
2703.00,0.0061
2702.00,0.0060
2701.00,0.0059
2700.00,0.0059
2699.00,0.0058
2698.00,0.0058
2697.00,0.0057
2696.00,0.0057
2695.00,0.0057
2694.00,0.0057
2693.00,0.0057
2692.00,0.0057
2691.00,0.0057
2690.00,0.0057
2689.00,0.0057
2688.00,0.0057
2687.00,0.0056
2686.00,0.0056
2685.00,0.0056
2684.00,0.0057
2683.00,0.0057
2682.00,0.0057
2681.00,0.0057
2680.00,0.0057
2679.00,0.0057
2678.00,0.0057
2677.00,0.0057
2676.00,0.0057
2675.00,0.0057
2674.00,0.0057
2673.00,0.0057
2672.00,0.0056
2671.00,0.0056
2670.00,0.0056
2669.00,0.0056
2668.00,0.0056
2667.00,0.0057
2666.00,0.0057
2665.00,0.0057
2664.00,0.0058
2663.00,0.0058
2662.00,0.0059
2661.00,0.0059
2660.00,0.0059
2659.00,0.0060
2658.00,0.0059
2657.00,0.0059
2656.00,0.0059
2655.00,0.0058
2654.00,0.0058
2653.00,0.0058
2652.00,0.0057
2651.00,0.0057
2650.00,0.0056
2649.00,0.0056
2648.00,0.0055
2647.00,0.0055
2646.00,0.0055
2645.00,0.0054
2644.00,0.0054
2643.00,0.0053
2642.00,0.0053
2641.00,0.0052
2640.00,0.0052
2639.00,0.0052
2638.00,0.0051
2637.00,0.0051
2636.00,0.0051
2635.00,0.0051
2634.00,0.0050
2633.00,0.0050
2632.00,0.0050
2631.00,0.0050
2630.00,0.0050
2629.00,0.0050
2628.00,0.0050
2627.00,0.0051
2626.00,0.0051
2625.00,0.0051
2624.00,0.0051
2623.00,0.0051
2622.00,0.0051
2621.00,0.0051
2620.00,0.0051
2619.00,0.0051
2618.00,0.0051
2617.00,0.0051
2616.00,0.0052
2615.00,0.0051
2614.00,0.0051
2613.00,0.0050
2612.00,0.0050
2611.00,0.0049
2610.00,0.0048
2609.00,0.0047
2608.00,0.0046
2607.00,0.0046
2606.00,0.0045
2605.00,0.0045
2604.00,0.0045
2603.00,0.0044
2602.00,0.0044
2601.00,0.0043
2600.00,0.0043
2599.00,0.0043
2598.00,0.0043
2597.00,0.0042
2596.00,0.0043
2595.00,0.0043
2594.00,0.0044
2593.00,0.0044
2592.00,0.0044
2591.00,0.0044
2590.00,0.0044
2589.00,0.0044
2588.00,0.0045
2587.00,0.0046
2586.00,0.0047
2585.00,0.0047
2584.00,0.0048
2583.00,0.0048
2582.00,0.0047
2581.00,0.0047
2580.00,0.0046
2579.00,0.0045
2578.00,0.0044
2577.00,0.0044
2576.00,0.0043
2575.00,0.0042
2574.00,0.0042
2573.00,0.0041
2572.00,0.0040
2571.00,0.0039
2570.00,0.0038
2569.00,0.0037
2568.00,0.0036
2567.00,0.0035
2566.00,0.0035
2565.00,0.0034
2564.00,0.0034
2563.00,0.0034
2562.00,0.0034
2561.00,0.0034
2560.00,0.0034
2559.00,0.0034
2558.00,0.0035
2557.00,0.0035
2556.00,0.0035
2555.00,0.0034
2554.00,0.0033
2553.00,0.0031
2552.00,0.0031
2551.00,0.0030
2550.00,0.0030
2549.00,0.0030
2548.00,0.0030
2547.00,0.0030
2546.00,0.0030
2545.00,0.0029
2544.00,0.0029
2543.00,0.0029
2542.00,0.0029
2541.00,0.0029
2540.00,0.0029
2539.00,0.0028
2538.00,0.0027
2537.00,0.0027
2536.00,0.0027
2535.00,0.0027
2534.00,0.0027
2533.00,0.0027
2532.00,0.0027
2531.00,0.0026
2530.00,0.0026
2529.00,0.0026
2528.00,0.0026
2527.00,0.0026
2526.00,0.0026
2525.00,0.0026
2524.00,0.0026
2523.00,0.0026
2522.00,0.0026
2521.00,0.0025
2520.00,0.0025
2519.00,0.0024
2518.00,0.0024
2517.00,0.0023
2516.00,0.0022
2515.00,0.0022
2514.00,0.0021
2513.00,0.0021
2512.00,0.0021
2511.00,0.0021
2510.00,0.0021
2509.00,0.0022
2508.00,0.0022
2507.00,0.0022
2506.00,0.0022
2505.00,0.0022
2504.00,0.0022
2503.00,0.0022
2502.00,0.0022
2501.00,0.0022
2500.00,0.0022
2499.00,0.0022
2498.00,0.0022
2497.00,0.0022
2496.00,0.0022
2495.00,0.0022
2494.00,0.0021
2493.00,0.0021
2492.00,0.0021
2491.00,0.0022
2490.00,0.0021
2489.00,0.0021
2488.00,0.0020
2487.00,0.0020
2486.00,0.0020
2485.00,0.0021
2484.00,0.0021
2483.00,0.0021
2482.00,0.0020
2481.00,0.0020
2480.00,0.0020
2479.00,0.0020
2478.00,0.0020
2477.00,0.0020
2476.00,0.0020
2475.00,0.0020
2474.00,0.0020
2473.00,0.0020
2472.00,0.0020
2471.00,0.0020
2470.00,0.0020
2469.00,0.0020
2468.00,0.0019
2467.00,0.0019
2466.00,0.0018
2465.00,0.0018
2464.00,0.0018
2463.00,0.0018
2462.00,0.0018
2461.00,0.0019
2460.00,0.0019
2459.00,0.0020
2458.00,0.0021
2457.00,0.0022
2456.00,0.0022
2455.00,0.0022
2454.00,0.0022
2453.00,0.0021
2452.00,0.0021
2451.00,0.0021
2450.00,0.0021
2449.00,0.0021
2448.00,0.0021
2447.00,0.0021
2446.00,0.0020
2445.00,0.0020
2444.00,0.0020
2443.00,0.0020
2442.00,0.0021
2441.00,0.0021
2440.00,0.0021
2439.00,0.0021
2438.00,0.0020
2437.00,0.0020
2436.00,0.0020
2435.00,0.0021
2434.00,0.0021
2433.00,0.0022
2432.00,0.0022
2431.00,0.0022
2430.00,0.0021
2429.00,0.0021
2428.00,0.0021
2427.00,0.0021
2426.00,0.0021
2425.00,0.0021
2424.00,0.0021
2423.00,0.0020
2422.00,0.0019
2421.00,0.0019
2420.00,0.0019
2419.00,0.0019
2418.00,0.0019
2417.00,0.0019
2416.00,0.0020
2415.00,0.0019
2414.00,0.0019
2413.00,0.0019
2412.00,0.0019
2411.00,0.0019
2410.00,0.0018
2409.00,0.0018
2408.00,0.0018
2407.00,0.0018
2406.00,0.0018
2405.00,0.0018
2404.00,0.0018
2403.00,0.0018
2402.00,0.0018
2401.00,0.0018
2400.00,0.0019
2399.00,0.0019
2398.00,0.0019
2397.00,0.0018
2396.00,0.0018
2395.00,0.0017
2394.00,0.0017
2393.00,0.0017
2392.00,0.0016
2391.00,0.0016
2390.00,0.0016
2389.00,0.0017
2388.00,0.0017
2387.00,0.0018
2386.00,0.0018
2385.00,0.0017
2384.00,0.0016
2383.00,0.0014
2382.00,0.0013
2381.00,0.0011
2380.00,0.0010
2379.00,0.0009
2378.00,0.0009
2377.00,0.0009
2376.00,0.0009
2375.00,0.0010
2374.00,0.0010
2373.00,0.0010
2372.00,0.0010
2371.00,0.0009
2370.00,0.0008
2369.00,0.0007
2368.00,0.0006
2367.00,0.0005
2366.00,0.0005
2365.00,0.0005
2364.00,0.0005
2363.00,0.0006
2362.00,0.0006
2361.00,0.0007
2360.00,0.0008
2359.00,0.0008
2358.00,0.0008
2357.00,0.0008
2356.00,0.0007
2355.00,0.0007
2354.00,0.0008
2353.00,0.0008
2352.00,0.0008
2351.00,0.0008
2350.00,0.0008
2349.00,0.0008
2348.00,0.0008
2347.00,0.0008
2346.00,0.0007
2345.00,0.0007
2344.00,0.0007
2343.00,0.0008
2342.00,0.0009
2341.00,0.0010
2340.00,0.0011
2339.00,0.0012
2338.00,0.0012
2337.00,0.0012
2336.00,0.0012
2335.00,0.0012
2334.00,0.0012
2333.00,0.0012
2332.00,0.0011
2331.00,0.0011
2330.00,0.0011
2329.00,0.0012
2328.00,0.0014
2327.00,0.0017
2326.00,0.0022
2325.00,0.0025
2324.00,0.0026
2323.00,0.0025
2322.00,0.0023
2321.00,0.0021
2320.00,0.0019
2319.00,0.0019
2318.00,0.0019
2317.00,0.0018
2316.00,0.0017
2315.00,0.0016
2314.00,0.0015
2313.00,0.0014
2312.00,0.0014
2311.00,0.0014
2310.00,0.0014
2309.00,0.0014
2308.00,0.0014
2307.00,0.0015
2306.00,0.0015
2305.00,0.0016
2304.00,0.0017
2303.00,0.0017
2302.00,0.0017
2301.00,0.0017
2300.00,0.0018
2299.00,0.0018
2298.00,0.0019
2297.00,0.0019
2296.00,0.0019
2295.00,0.0019
2294.00,0.0019
2293.00,0.0020
2292.00,0.0022
2291.00,0.0024
2290.00,0.0025
2289.00,0.0026
2288.00,0.0028
2287.00,0.0029
2286.00,0.0029
2285.00,0.0029
2284.00,0.0028
2283.00,0.0027
2282.00,0.0025
2281.00,0.0024
2280.00,0.0024
2279.00,0.0023
2278.00,0.0022
2277.00,0.0022
2276.00,0.0023
2275.00,0.0023
2274.00,0.0022
2273.00,0.0021
2272.00,0.0020
2271.00,0.0020
2270.00,0.0020
2269.00,0.0020
2268.00,0.0021
2267.00,0.0021
2266.00,0.0021
2265.00,0.0020
2264.00,0.0019
2263.00,0.0019
2262.00,0.0018
2261.00,0.0018
2260.00,0.0019
2259.00,0.0019
2258.00,0.0019
2257.00,0.0019
2256.00,0.0019
2255.00,0.0019
2254.00,0.0018
2253.00,0.0017
2252.00,0.0016
2251.00,0.0015
2250.00,0.0014
2249.00,0.0014
2248.00,0.0014
2247.00,0.0014
2246.00,0.0014
2245.00,0.0014
2244.00,0.0014
2243.00,0.0015
2242.00,0.0016
2241.00,0.0017
2240.00,0.0017
2239.00,0.0017
2238.00,0.0017
2237.00,0.0017
2236.00,0.0016
2235.00,0.0015
2234.00,0.0013
2233.00,0.0012
2232.00,0.0011
2231.00,0.0011
2230.00,0.0012
2229.00,0.0013
2228.00,0.0014
2227.00,0.0015
2226.00,0.0015
2225.00,0.0016
2224.00,0.0016
2223.00,0.0016
2222.00,0.0015
2221.00,0.0015
2220.00,0.0015
2219.00,0.0015
2218.00,0.0014
2217.00,0.0014
2216.00,0.0015
2215.00,0.0014
2214.00,0.0014
2213.00,0.0015
2212.00,0.0015
2211.00,0.0015
2210.00,0.0014
2209.00,0.0012
2208.00,0.0011
2207.00,0.0009
2206.00,0.0008
2205.00,0.0007
2204.00,0.0007
2203.00,0.0009
2202.00,0.0011
2201.00,0.0013
2200.00,0.0013
2199.00,0.0013
2198.00,0.0012
2197.00,0.0011
2196.00,0.0012
2195.00,0.0014
2194.00,0.0015
2193.00,0.0016
2192.00,0.0015
2191.00,0.0015
2190.00,0.0015
2189.00,0.0014
2188.00,0.0013
2187.00,0.0012
2186.00,0.0012
2185.00,0.0013
2184.00,0.0014
2183.00,0.0013
2182.00,0.0011
2181.00,0.0008
2180.00,0.0006
2179.00,0.0005
2178.00,0.0005
2177.00,0.0005
2176.00,0.0004
2175.00,0.0003
2174.00,0.0003
2173.00,0.0005
2172.00,0.0008
2171.00,0.0011
2170.00,0.0014
2169.00,0.0017
2168.00,0.0018
2167.00,0.0017
2166.00,0.0014
2165.00,0.0010
2164.00,0.0008
2163.00,0.0010
2162.00,0.0014
2161.00,0.0015
2160.00,0.0009
2159.00,-0.0003
2158.00,-0.0015
2157.00,-0.0022
2156.00,-0.0023
2155.00,-0.0021
2154.00,-0.0018
2153.00,-0.0014
2152.00,-0.0010
2151.00,-0.0008
2150.00,-0.0007
2149.00,-0.0008
2148.00,-0.0010
2147.00,-0.0012
2146.00,-0.0013
2145.00,-0.0013
2144.00,-0.0012
2143.00,-0.0011
2142.00,-0.0009
2141.00,-0.0007
2140.00,-0.0006
2139.00,-0.0006
2138.00,-0.0007
2137.00,-0.0008
2136.00,-0.0009
2135.00,-0.0011
2134.00,-0.0013
2133.00,-0.0014
2132.00,-0.0014
2131.00,-0.0012
2130.00,-0.0010
2129.00,-0.0007
2128.00,-0.0005
2127.00,-0.0003
2126.00,-0.0001
2125.00,0.0001
2124.00,0.0003
2123.00,0.0005
2122.00,0.0005
2121.00,0.0005
2120.00,0.0005
2119.00,0.0005
2118.00,0.0007
2117.00,0.0009
2116.00,0.0012
2115.00,0.0013
2114.00,0.0013
2113.00,0.0013
2112.00,0.0012
2111.00,0.0012
2110.00,0.0012
2109.00,0.0011
2108.00,0.0011
2107.00,0.0009
2106.00,0.0008
2105.00,0.0007
2104.00,0.0008
2103.00,0.0008
2102.00,0.0009
2101.00,0.0009
2100.00,0.0009
2099.00,0.0010
2098.00,0.0010
2097.00,0.0010
2096.00,0.0009
2095.00,0.0007
2094.00,0.0006
2093.00,0.0005
2092.00,0.0005
2091.00,0.0005
2090.00,0.0005
2089.00,0.0006
2088.00,0.0005
2087.00,0.0004
2086.00,0.0003
2085.00,0.0004
2084.00,0.0006
2083.00,0.0008
2082.00,0.0009
2081.00,0.0010
2080.00,0.0010
2079.00,0.0011
2078.00,0.0011
2077.00,0.0011
2076.00,0.0012
2075.00,0.0011
2074.00,0.0011
2073.00,0.0011
2072.00,0.0010
2071.00,0.0009
2070.00,0.0007
2069.00,0.0006
2068.00,0.0005
2067.00,0.0005
2066.00,0.0005
2065.00,0.0007
2064.00,0.0009
2063.00,0.0010
2062.00,0.0010
2061.00,0.0009
2060.00,0.0007
2059.00,0.0006
2058.00,0.0006
2057.00,0.0006
2056.00,0.0006
2055.00,0.0006
2054.00,0.0008
2053.00,0.0013
2052.00,0.0019
2051.00,0.0023
2050.00,0.0022
2049.00,0.0017
2048.00,0.0012
2047.00,0.0007
2046.00,0.0004
2045.00,0.0003
2044.00,0.0003
2043.00,0.0004
2042.00,0.0004
2041.00,0.0005
2040.00,0.0005
2039.00,0.0004
2038.00,0.0004
2037.00,0.0004
2036.00,0.0005
2035.00,0.0004
2034.00,0.0003
2033.00,0.0001
2032.00,-0.0003
2031.00,-0.0007
2030.00,-0.0009
2029.00,-0.0008
2028.00,-0.0006
2027.00,-0.0005
2026.00,-0.0004
2025.00,-0.0003
2024.00,-0.0004
2023.00,-0.0006
2022.00,-0.0008
2021.00,-0.0007
2020.00,-0.0004
2019.00,-0.0002
2018.00,-0.0001
2017.00,-0.0002
2016.00,-0.0003
2015.00,-0.0004
2014.00,-0.0006
2013.00,-0.0007
2012.00,-0.0008
2011.00,-0.0007
2010.00,-0.0006
2009.00,-0.0005
2008.00,-0.0007
2007.00,-0.0011
2006.00,-0.0014
2005.00,-0.0014
2004.00,-0.0012
2003.00,-0.0009
2002.00,-0.0007
2001.00,-0.0005
2000.00,-0.0004
1999.00,-0.0004
1998.00,-0.0005
1997.00,-0.0007
1996.00,-0.0009
1995.00,-0.0011
1994.00,-0.0011
1993.00,-0.0008
1992.00,-0.0004
1991.00,-0.0001
1990.00,0.0001
1989.00,0.0003
1988.00,0.0004
1987.00,0.0005
1986.00,0.0006
1985.00,0.0007
1984.00,0.0011
1983.00,0.0015
1982.00,0.0019
1981.00,0.0021
1980.00,0.0019
1979.00,0.0013
1978.00,0.0005
1977.00,-0.0002
1976.00,-0.0004
1975.00,-0.0002
1974.00,0.0001
1973.00,0.0002
1972.00,-0.0001
1971.00,-0.0005
1970.00,-0.0010
1969.00,-0.0013
1968.00,-0.0013
1967.00,-0.0012
1966.00,-0.0009
1965.00,-0.0006
1964.00,-0.0003
1963.00,-0.0004
1962.00,-0.0006
1961.00,-0.0008
1960.00,-0.0010
1959.00,-0.0009
1958.00,-0.0007
1957.00,-0.0006
1956.00,-0.0006
1955.00,-0.0007
1954.00,-0.0009
1953.00,-0.0009
1952.00,-0.0009
1951.00,-0.0010
1950.00,-0.0010
1949.00,-0.0010
1948.00,-0.0010
1947.00,-0.0010
1946.00,-0.0011
1945.00,-0.0010
1944.00,-0.0009
1943.00,-0.0007
1942.00,-0.0007
1941.00,-0.0006
1940.00,-0.0005
1939.00,-0.0004
1938.00,-0.0003
1937.00,-0.0004
1936.00,-0.0004
1935.00,-0.0005
1934.00,-0.0005
1933.00,-0.0004
1932.00,-0.0004
1931.00,-0.0003
1930.00,-0.0003
1929.00,-0.0002
1928.00,-0.0002
1927.00,-0.0001
1926.00,-0.0000
1925.00,0.0000
1924.00,0.0001
1923.00,0.0001
1922.00,0.0000
1921.00,0.0001
1920.00,0.0001
1919.00,0.0001
1918.00,0.0001
1917.00,0.0000
1916.00,0.0001
1915.00,0.0001
1914.00,0.0002
1913.00,0.0002
1912.00,0.0002
1911.00,0.0001
1910.00,0.0000
1909.00,0.0000
1908.00,0.0001
1907.00,0.0002
1906.00,0.0003
1905.00,0.0004
1904.00,0.0004
1903.00,0.0004
1902.00,0.0004
1901.00,0.0002
1900.00,0.0002
1899.00,0.0001
1898.00,0.0001
1897.00,0.0002
1896.00,0.0003
1895.00,0.0004
1894.00,0.0004
1893.00,0.0005
1892.00,0.0005
1891.00,0.0005
1890.00,0.0005
1889.00,0.0005
1888.00,0.0005
1887.00,0.0005
1886.00,0.0005
1885.00,0.0005
1884.00,0.0005
1883.00,0.0006
1882.00,0.0006
1881.00,0.0005
1880.00,0.0005
1879.00,0.0005
1878.00,0.0005
1877.00,0.0006
1876.00,0.0006
1875.00,0.0007
1874.00,0.0006
1873.00,0.0006
1872.00,0.0005
1871.00,0.0004
1870.00,0.0003
1869.00,0.0003
1868.00,0.0004
1867.00,0.0004
1866.00,0.0005
1865.00,0.0006
1864.00,0.0006
1863.00,0.0006
1862.00,0.0006
1861.00,0.0006
1860.00,0.0006
1859.00,0.0006
1858.00,0.0006
1857.00,0.0006
1856.00,0.0006
1855.00,0.0006
1854.00,0.0006
1853.00,0.0007
1852.00,0.0007
1851.00,0.0008
1850.00,0.0008
1849.00,0.0008
1848.00,0.0008
1847.00,0.0008
1846.00,0.0007
1845.00,0.0007
1844.00,0.0007
1843.00,0.0007
1842.00,0.0007
1841.00,0.0007
1840.00,0.0007
1839.00,0.0007
1838.00,0.0008
1837.00,0.0009
1836.00,0.0009
1835.00,0.0010
1834.00,0.0010
1833.00,0.0010
1832.00,0.0010
1831.00,0.0010
1830.00,0.0010
1829.00,0.0010
1828.00,0.0011
1827.00,0.0011
1826.00,0.0011
1825.00,0.0011
1824.00,0.0011
1823.00,0.0011
1822.00,0.0011
1821.00,0.0010
1820.00,0.0009
1819.00,0.0008
1818.00,0.0007
1817.00,0.0007
1816.00,0.0008
1815.00,0.0009
1814.00,0.0009
1813.00,0.0010
1812.00,0.0010
1811.00,0.0010
1810.00,0.0010
1809.00,0.0010
1808.00,0.0010
1807.00,0.0011
1806.00,0.0011
1805.00,0.0012
1804.00,0.0012
1803.00,0.0013
1802.00,0.0013
1801.00,0.0013
1800.00,0.0013
1799.00,0.0014
1798.00,0.0014
1797.00,0.0014
1796.00,0.0014
1795.00,0.0014
1794.00,0.0014
1793.00,0.0014
1792.00,0.0014
1791.00,0.0015
1790.00,0.0015
1789.00,0.0015
1788.00,0.0015
1787.00,0.0014
1786.00,0.0014
1785.00,0.0015
1784.00,0.0015
1783.00,0.0016
1782.00,0.0016
1781.00,0.0016
1780.00,0.0016
1779.00,0.0016
1778.00,0.0016
1777.00,0.0016
1776.00,0.0017
1775.00,0.0017
1774.00,0.0017
1773.00,0.0017
1772.00,0.0016
1771.00,0.0016
1770.00,0.0017
1769.00,0.0018
1768.00,0.0019
1767.00,0.0019
1766.00,0.0019
1765.00,0.0019
1764.00,0.0019
1763.00,0.0020
1762.00,0.0020
1761.00,0.0020
1760.00,0.0021
1759.00,0.0021
1758.00,0.0021
1757.00,0.0021
1756.00,0.0022
1755.00,0.0022
1754.00,0.0023
1753.00,0.0023
1752.00,0.0024
1751.00,0.0024
1750.00,0.0024
1749.00,0.0024
1748.00,0.0025
1747.00,0.0026
1746.00,0.0026
1745.00,0.0027
1744.00,0.0028
1743.00,0.0029
1742.00,0.0029
1741.00,0.0030
1740.00,0.0030
1739.00,0.0031
1738.00,0.0031
1737.00,0.0031
1736.00,0.0031
1735.00,0.0030
1734.00,0.0029
1733.00,0.0030
1732.00,0.0031
1731.00,0.0031
1730.00,0.0031
1729.00,0.0031
1728.00,0.0031
1727.00,0.0031
1726.00,0.0032
1725.00,0.0032
1724.00,0.0032
1723.00,0.0032
1722.00,0.0032
1721.00,0.0032
1720.00,0.0033
1719.00,0.0034
1718.00,0.0034
1717.00,0.0034
1716.00,0.0034
1715.00,0.0034
1714.00,0.0034
1713.00,0.0034
1712.00,0.0034
1711.00,0.0035
1710.00,0.0035
1709.00,0.0036
1708.00,0.0037
1707.00,0.0038
1706.00,0.0040
1705.00,0.0041
1704.00,0.0043
1703.00,0.0044
1702.00,0.0046
1701.00,0.0048
1700.00,0.0050
1699.00,0.0051
1698.00,0.0051
1697.00,0.0052
1696.00,0.0053
1695.00,0.0055
1694.00,0.0057
1693.00,0.0058
1692.00,0.0059
1691.00,0.0059
1690.00,0.0060
1689.00,0.0060
1688.00,0.0061
1687.00,0.0062
1686.00,0.0063
1685.00,0.0063
1684.00,0.0064
1683.00,0.0065
1682.00,0.0066
1681.00,0.0066
1680.00,0.0067
1679.00,0.0068
1678.00,0.0069
1677.00,0.0070
1676.00,0.0071
1675.00,0.0072
1674.00,0.0073
1673.00,0.0073
1672.00,0.0073
1671.00,0.0073
1670.00,0.0074
1669.00,0.0074
1668.00,0.0075
1667.00,0.0075
1666.00,0.0075
1665.00,0.0076
1664.00,0.0077
1663.00,0.0079
1662.00,0.0079
1661.00,0.0080
1660.00,0.0080
1659.00,0.0080
1658.00,0.0081
1657.00,0.0081
1656.00,0.0082
1655.00,0.0083
1654.00,0.0084
1653.00,0.0087
1652.00,0.0089
1651.00,0.0091
1650.00,0.0093
1649.00,0.0095
1648.00,0.0098
1647.00,0.0101
1646.00,0.0103
1645.00,0.0103
1644.00,0.0103
1643.00,0.0101
1642.00,0.0099
1641.00,0.0097
1640.00,0.0096
1639.00,0.0095
1638.00,0.0094
1637.00,0.0094
1636.00,0.0094
1635.00,0.0094
1634.00,0.0094
1633.00,0.0094
1632.00,0.0094
1631.00,0.0093
1630.00,0.0093
1629.00,0.0092
1628.00,0.0091
1627.00,0.0090
1626.00,0.0089
1625.00,0.0088
1624.00,0.0086
1623.00,0.0085
1622.00,0.0084
1621.00,0.0084
1620.00,0.0084
1619.00,0.0083
1618.00,0.0081
1617.00,0.0080
1616.00,0.0079
1615.00,0.0078
1614.00,0.0079
1613.00,0.0078
1612.00,0.0078
1611.00,0.0077
1610.00,0.0076
1609.00,0.0076
1608.00,0.0076
1607.00,0.0076
1606.00,0.0076
1605.00,0.0075
1604.00,0.0075
1603.00,0.0074
1602.00,0.0073
1601.00,0.0073
1600.00,0.0074
1599.00,0.0074
1598.00,0.0074
1597.00,0.0074
1596.00,0.0074
1595.00,0.0074
1594.00,0.0074
1593.00,0.0075
1592.00,0.0075
1591.00,0.0076
1590.00,0.0077
1589.00,0.0079
1588.00,0.0081
1587.00,0.0083
1586.00,0.0086
1585.00,0.0089
1584.00,0.0094
1583.00,0.0099
1582.00,0.0104
1581.00,0.0109
1580.00,0.0113
1579.00,0.0117
1578.00,0.0118
1577.00,0.0119
1576.00,0.0117
1575.00,0.0116
1574.00,0.0114
1573.00,0.0112
1572.00,0.0109
1571.00,0.0105
1570.00,0.0100
1569.00,0.0094
1568.00,0.0091
1567.00,0.0089
1566.00,0.0087
1565.00,0.0086
1564.00,0.0084
1563.00,0.0084
1562.00,0.0083
1561.00,0.0083
1560.00,0.0083
1559.00,0.0082
1558.00,0.0081
1557.00,0.0083
1556.00,0.0084
1555.00,0.0086
1554.00,0.0087
1553.00,0.0089
1552.00,0.0091
1551.00,0.0094
1550.00,0.0097
1549.00,0.0100
1548.00,0.0104
1547.00,0.0108
1546.00,0.0113
1545.00,0.0119
1544.00,0.0125
1543.00,0.0131
1542.00,0.0136
1541.00,0.0139
1540.00,0.0137
1539.00,0.0133
1538.00,0.0128
1537.00,0.0124
1536.00,0.0121
1535.00,0.0115
1534.00,0.0107
1533.00,0.0100
1532.00,0.0095
1531.00,0.0091
1530.00,0.0089
1529.00,0.0087
1528.00,0.0086
1527.00,0.0084
1526.00,0.0082
1525.00,0.0081
1524.00,0.0081
1523.00,0.0080
1522.00,0.0079
1521.00,0.0079
1520.00,0.0080
1519.00,0.0081
1518.00,0.0081
1517.00,0.0081
1516.00,0.0082
1515.00,0.0082
1514.00,0.0082
1513.00,0.0083
1512.00,0.0084
1511.00,0.0085
1510.00,0.0086
1509.00,0.0087
1508.00,0.0089
1507.00,0.0089
1506.00,0.0088
1505.00,0.0090
1504.00,0.0092
1503.00,0.0094
1502.00,0.0096
1501.00,0.0099
1500.00,0.0103
1499.00,0.0105
1498.00,0.0108
1497.00,0.0112
1496.00,0.0116
1495.00,0.0120
1494.00,0.0123
1493.00,0.0127
1492.00,0.0132
1491.00,0.0137
1490.00,0.0143
1489.00,0.0150
1488.00,0.0159
1487.00,0.0167
1486.00,0.0175
1485.00,0.0185
1484.00,0.0196
1483.00,0.0208
1482.00,0.0222
1481.00,0.0238
1480.00,0.0255
1479.00,0.0272
1478.00,0.0290
1477.00,0.0312
1476.00,0.0337
1475.00,0.0365
1474.00,0.0402
1473.00,0.0454
1472.00,0.0514
1471.00,0.0571
1470.00,0.0625
1469.00,0.0681
1468.00,0.0741
1467.00,0.0806
1466.00,0.0881
1465.00,0.0963
1464.00,0.1034
1463.00,0.1083
1462.00,0.1115
1461.00,0.1136
1460.00,0.1152
1459.00,0.1162
1458.00,0.1169
1457.00,0.1175
1456.00,0.1173
1455.00,0.1167
1454.00,0.1157
1453.00,0.1144
1452.00,0.1122
1451.00,0.1091
1450.00,0.1047
1449.00,0.0986
1448.00,0.0907
1447.00,0.0823
1446.00,0.0747
1445.00,0.0682
1444.00,0.0626
1443.00,0.0579
1442.00,0.0542
1441.00,0.0516
1440.00,0.0499
1439.00,0.0490
1438.00,0.0488
1437.00,0.0487
1436.00,0.0478
1435.00,0.0456
1434.00,0.0425
1433.00,0.0388
1432.00,0.0349
1431.00,0.0314
1430.00,0.0287
1429.00,0.0267
1428.00,0.0253
1427.00,0.0244
1426.00,0.0240
1425.00,0.0235
1424.00,0.0232
1423.00,0.0229
1422.00,0.0228
1421.00,0.0226
1420.00,0.0223
1419.00,0.0222
1418.00,0.0219
1417.00,0.0216
1416.00,0.0212
1415.00,0.0208
1414.00,0.0205
1413.00,0.0202
1412.00,0.0199
1411.00,0.0197
1410.00,0.0195
1409.00,0.0193
1408.00,0.0190
1407.00,0.0187
1406.00,0.0186
1405.00,0.0183
1404.00,0.0181
1403.00,0.0180
1402.00,0.0180
1401.00,0.0180
1400.00,0.0179
1399.00,0.0180
1398.00,0.0182
1397.00,0.0184
1396.00,0.0186
1395.00,0.0189
1394.00,0.0193
1393.00,0.0197
1392.00,0.0201
1391.00,0.0207
1390.00,0.0216
1389.00,0.0229
1388.00,0.0249
1387.00,0.0278
1386.00,0.0318
1385.00,0.0369
1384.00,0.0440
1383.00,0.0537
1382.00,0.0668
1381.00,0.0836
1380.00,0.1043
1379.00,0.1281
1378.00,0.1512
1377.00,0.1685
1376.00,0.1748
1375.00,0.1670
1374.00,0.1473
1373.00,0.1233
1372.00,0.1013
1371.00,0.0832
1370.00,0.0686
1369.00,0.0574
1368.00,0.0496
1367.00,0.0447
1366.00,0.0418
1365.00,0.0406
1364.00,0.0405
1363.00,0.0414
1362.00,0.0430
1361.00,0.0447
1360.00,0.0459
1359.00,0.0461
1358.00,0.0451
1357.00,0.0429
1356.00,0.0398
1355.00,0.0363
1354.00,0.0329
1353.00,0.0301
1352.00,0.0278
1351.00,0.0260
1350.00,0.0246
1349.00,0.0233
1348.00,0.0223
1347.00,0.0214
1346.00,0.0207
1345.00,0.0201
1344.00,0.0197
1343.00,0.0193
1342.00,0.0190
1341.00,0.0188
1340.00,0.0187
1339.00,0.0186
1338.00,0.0186
1337.00,0.0186
1336.00,0.0186
1335.00,0.0187
1334.00,0.0189
1333.00,0.0192
1332.00,0.0196
1331.00,0.0198
1330.00,0.0198
1329.00,0.0197
1328.00,0.0194
1327.00,0.0190
1326.00,0.0186
1325.00,0.0182
1324.00,0.0178
1323.00,0.0175
1322.00,0.0172
1321.00,0.0171
1320.00,0.0170
1319.00,0.0169
1318.00,0.0168
1317.00,0.0167
1316.00,0.0165
1315.00,0.0164
1314.00,0.0164
1313.00,0.0163
1312.00,0.0164
1311.00,0.0166
1310.00,0.0168
1309.00,0.0173
1308.00,0.0180
1307.00,0.0190
1306.00,0.0199
1305.00,0.0205
1304.00,0.0206
1303.00,0.0203
1302.00,0.0198
1301.00,0.0192
1300.00,0.0189
1299.00,0.0187
1298.00,0.0186
1297.00,0.0185
1296.00,0.0183
1295.00,0.0181
1294.00,0.0177
1293.00,0.0173
1292.00,0.0169
1291.00,0.0165
1290.00,0.0161
1289.00,0.0158
1288.00,0.0154
1287.00,0.0152
1286.00,0.0149
1285.00,0.0147
1284.00,0.0145
1283.00,0.0143
1282.00,0.0141
1281.00,0.0139
1280.00,0.0137
1279.00,0.0136
1278.00,0.0135
1277.00,0.0135
1276.00,0.0134
1275.00,0.0134
1274.00,0.0134
1273.00,0.0135
1272.00,0.0136
1271.00,0.0137
1270.00,0.0139
1269.00,0.0141
1268.00,0.0143
1267.00,0.0146
1266.00,0.0149
1265.00,0.0151
1264.00,0.0153
1263.00,0.0155
1262.00,0.0157
1261.00,0.0160
1260.00,0.0164
1259.00,0.0169
1258.00,0.0175
1257.00,0.0179
1256.00,0.0180
1255.00,0.0177
1254.00,0.0170
1253.00,0.0161
1252.00,0.0153
1251.00,0.0146
1250.00,0.0141
1249.00,0.0138
1248.00,0.0135
1247.00,0.0133
1246.00,0.0132
1245.00,0.0131
1244.00,0.0130
1243.00,0.0129
1242.00,0.0127
1241.00,0.0126
1240.00,0.0125
1239.00,0.0125
1238.00,0.0125
1237.00,0.0125
1236.00,0.0125
1235.00,0.0125
1234.00,0.0126
1233.00,0.0126
1232.00,0.0126
1231.00,0.0126
1230.00,0.0127
1229.00,0.0129
1228.00,0.0130
1227.00,0.0132
1226.00,0.0135
1225.00,0.0138
1224.00,0.0142
1223.00,0.0148
1222.00,0.0153
1221.00,0.0157
1220.00,0.0161
1219.00,0.0164
1218.00,0.0166
1217.00,0.0168
1216.00,0.0169
1215.00,0.0170
1214.00,0.0169
1213.00,0.0168
1212.00,0.0167
1211.00,0.0165
1210.00,0.0164
1209.00,0.0163
1208.00,0.0163
1207.00,0.0163
1206.00,0.0164
1205.00,0.0164
1204.00,0.0165
1203.00,0.0166
1202.00,0.0167
1201.00,0.0168
1200.00,0.0169
1199.00,0.0170
1198.00,0.0172
1197.00,0.0173
1196.00,0.0174
1195.00,0.0175
1194.00,0.0176
1193.00,0.0177
1192.00,0.0177
1191.00,0.0178
1190.00,0.0179
1189.00,0.0179
1188.00,0.0179
1187.00,0.0179
1186.00,0.0178
1185.00,0.0178
1184.00,0.0179
1183.00,0.0181
1182.00,0.0184
1181.00,0.0187
1180.00,0.0192
1179.00,0.0197
1178.00,0.0204
1177.00,0.0214
1176.00,0.0226
1175.00,0.0242
1174.00,0.0263
1173.00,0.0288
1172.00,0.0319
1171.00,0.0352
1170.00,0.0385
1169.00,0.0412
1168.00,0.0429
1167.00,0.0435
1166.00,0.0432
1165.00,0.0422
1164.00,0.0411
1163.00,0.0400
1162.00,0.0391
1161.00,0.0385
1160.00,0.0382
1159.00,0.0381
1158.00,0.0381
1157.00,0.0383
1156.00,0.0387
1155.00,0.0390
1154.00,0.0393
1153.00,0.0395
1152.00,0.0394
1151.00,0.0390
1150.00,0.0385
1149.00,0.0378
1148.00,0.0372
1147.00,0.0365
1146.00,0.0360
1145.00,0.0355
1144.00,0.0350
1143.00,0.0346
1142.00,0.0344
1141.00,0.0342
1140.00,0.0341
1139.00,0.0342
1138.00,0.0343
1137.00,0.0345
1136.00,0.0349
1135.00,0.0354
1134.00,0.0360
1133.00,0.0366
1132.00,0.0373
1131.00,0.0380
1130.00,0.0388
1129.00,0.0396
1128.00,0.0403
1127.00,0.0410
1126.00,0.0416
1125.00,0.0422
1124.00,0.0427
1123.00,0.0432
1122.00,0.0436
1121.00,0.0440
1120.00,0.0444
1119.00,0.0447
1118.00,0.0450
1117.00,0.0453
1116.00,0.0456
1115.00,0.0458
1114.00,0.0460
1113.00,0.0462
1112.00,0.0463
1111.00,0.0465
1110.00,0.0467
1109.00,0.0470
1108.00,0.0472
1107.00,0.0476
1106.00,0.0481
1105.00,0.0487
1104.00,0.0491
1103.00,0.0493
1102.00,0.0493
1101.00,0.0490
1100.00,0.0486
1099.00,0.0482
1098.00,0.0477
1097.00,0.0472
1096.00,0.0468
1095.00,0.0465
1094.00,0.0463
1093.00,0.0462
1092.00,0.0462
1091.00,0.0462
1090.00,0.0463
1089.00,0.0465
1088.00,0.0469
1087.00,0.0473
1086.00,0.0478
1085.00,0.0483
1084.00,0.0488
1083.00,0.0493
1082.00,0.0497
1081.00,0.0501
1080.00,0.0503
1079.00,0.0506
1078.00,0.0508
1077.00,0.0510
1076.00,0.0512
1075.00,0.0515
1074.00,0.0517
1073.00,0.0518
1072.00,0.0520
1071.00,0.0521
1070.00,0.0523
1069.00,0.0526
1068.00,0.0528
1067.00,0.0530
1066.00,0.0531
1065.00,0.0531
1064.00,0.0532
1063.00,0.0533
1062.00,0.0532
1061.00,0.0532
1060.00,0.0531
1059.00,0.0530
1058.00,0.0527
1057.00,0.0524
1056.00,0.0520
1055.00,0.0517
1054.00,0.0513
1053.00,0.0510
1052.00,0.0507
1051.00,0.0502
1050.00,0.0498
1049.00,0.0493
1048.00,0.0490
1047.00,0.0487
1046.00,0.0483
1045.00,0.0478
1044.00,0.0472
1043.00,0.0465
1042.00,0.0457
1041.00,0.0450
1040.00,0.0443
1039.00,0.0436
1038.00,0.0431
1037.00,0.0426
1036.00,0.0421
1035.00,0.0416
1034.00,0.0410
1033.00,0.0403
1032.00,0.0396
1031.00,0.0389
1030.00,0.0382
1029.00,0.0377
1028.00,0.0372
1027.00,0.0367
1026.00,0.0361
1025.00,0.0356
1024.00,0.0352
1023.00,0.0347
1022.00,0.0342
1021.00,0.0336
1020.00,0.0331
1019.00,0.0326
1018.00,0.0323
1017.00,0.0319
1016.00,0.0317
1015.00,0.0314
1014.00,0.0312
1013.00,0.0310
1012.00,0.0309
1011.00,0.0306
1010.00,0.0303
1009.00,0.0299
1008.00,0.0297
1007.00,0.0295
1006.00,0.0296
1005.00,0.0301
1004.00,0.0311
1003.00,0.0329
1002.00,0.0355
1001.00,0.0388
1000.00,0.0423
999.00,0.0451
998.00,0.0462
997.00,0.0451
996.00,0.0420
995.00,0.0378
994.00,0.0334
993.00,0.0295
992.00,0.0265
991.00,0.0242
990.00,0.0226
989.00,0.0214
988.00,0.0206
987.00,0.0201
986.00,0.0198
985.00,0.0196
984.00,0.0197
983.00,0.0202
982.00,0.0210
981.00,0.0224
980.00,0.0245
979.00,0.0273
978.00,0.0307
977.00,0.0348
976.00,0.0392
975.00,0.0434
974.00,0.0463
973.00,0.0472
972.00,0.0457
971.00,0.0420
970.00,0.0372
969.00,0.0323
968.00,0.0282
967.00,0.0253
966.00,0.0233
965.00,0.0220
964.00,0.0211
963.00,0.0206
962.00,0.0204
961.00,0.0203
960.00,0.0202
959.00,0.0203
958.00,0.0204
957.00,0.0204
956.00,0.0205
955.00,0.0205
954.00,0.0206
953.00,0.0206
952.00,0.0206
951.00,0.0206
950.00,0.0208
949.00,0.0209
948.00,0.0210
947.00,0.0211
946.00,0.0210
945.00,0.0210
944.00,0.0211
943.00,0.0211
942.00,0.0211
941.00,0.0208
940.00,0.0202
939.00,0.0194
938.00,0.0186
937.00,0.0178
936.00,0.0172
935.00,0.0166
934.00,0.0161
933.00,0.0157
932.00,0.0153
931.00,0.0151
930.00,0.0150
929.00,0.0148
928.00,0.0147
927.00,0.0146
926.00,0.0145
925.00,0.0143
924.00,0.0139
923.00,0.0136
922.00,0.0133
921.00,0.0131
920.00,0.0129
919.00,0.0128
918.00,0.0128
917.00,0.0127
916.00,0.0127
915.00,0.0126
914.00,0.0126
913.00,0.0126
912.00,0.0127
911.00,0.0129
910.00,0.0130
909.00,0.0131
908.00,0.0133
907.00,0.0137
906.00,0.0142
905.00,0.0150
904.00,0.0162
903.00,0.0177
902.00,0.0194
901.00,0.0210
900.00,0.0219
899.00,0.0221
898.00,0.0214
897.00,0.0200
896.00,0.0184
895.00,0.0168
894.00,0.0155
893.00,0.0146
892.00,0.0139
891.00,0.0134
890.00,0.0131
889.00,0.0127
888.00,0.0124
887.00,0.0122
886.00,0.0120
885.00,0.0119
884.00,0.0117
883.00,0.0116
882.00,0.0116
881.00,0.0116
880.00,0.0118
879.00,0.0120
878.00,0.0123
877.00,0.0124
876.00,0.0125
875.00,0.0125
874.00,0.0124
873.00,0.0122
872.00,0.0118
871.00,0.0114
870.00,0.0112
869.00,0.0110
868.00,0.0110
867.00,0.0110
866.00,0.0111
865.00,0.0111
864.00,0.0112
863.00,0.0114
862.00,0.0116
861.00,0.0117
860.00,0.0118
859.00,0.0120
858.00,0.0122
857.00,0.0124
856.00,0.0126
855.00,0.0127
854.00,0.0128
853.00,0.0130
852.00,0.0133
851.00,0.0138
850.00,0.0143
849.00,0.0149
848.00,0.0157
847.00,0.0169
846.00,0.0189
845.00,0.0220
844.00,0.0263
843.00,0.0313
842.00,0.0352
841.00,0.0362
840.00,0.0338
839.00,0.0290
838.00,0.0241
837.00,0.0203
836.00,0.0179
835.00,0.0165
834.00,0.0157
833.00,0.0151
832.00,0.0146
831.00,0.0141
830.00,0.0137
829.00,0.0135
828.00,0.0135
827.00,0.0135
826.00,0.0134
825.00,0.0134
824.00,0.0133
823.00,0.0133
822.00,0.0135
821.00,0.0137
820.00,0.0138
819.00,0.0140
818.00,0.0143
817.00,0.0149
816.00,0.0157
815.00,0.0168
814.00,0.0182
813.00,0.0198
812.00,0.0215
811.00,0.0231
810.00,0.0242
809.00,0.0246
808.00,0.0242
807.00,0.0231
806.00,0.0217
805.00,0.0202
804.00,0.0188
803.00,0.0176
802.00,0.0166
801.00,0.0158
800.00,0.0152
799.00,0.0148
798.00,0.0144
797.00,0.0142
796.00,0.0139
795.00,0.0136
794.00,0.0132
793.00,0.0128
792.00,0.0125
791.00,0.0124
790.00,0.0123
789.00,0.0122
788.00,0.0119
787.00,0.0117
786.00,0.0115
785.00,0.0113
784.00,0.0112
783.00,0.0111
782.00,0.0111
781.00,0.0110
780.00,0.0109
779.00,0.0108
778.00,0.0108
777.00,0.0109
776.00,0.0110
775.00,0.0111
774.00,0.0110
773.00,0.0109
772.00,0.0107
771.00,0.0106
770.00,0.0106
769.00,0.0106
768.00,0.0107
767.00,0.0107
766.00,0.0107
765.00,0.0107
764.00,0.0107
763.00,0.0106
762.00,0.0106
761.00,0.0106
760.00,0.0107
759.00,0.0107
758.00,0.0107
757.00,0.0106
756.00,0.0106
755.00,0.0106
754.00,0.0108
753.00,0.0109
752.00,0.0110
751.00,0.0110
750.00,0.0110
749.00,0.0110
748.00,0.0110
747.00,0.0111
746.00,0.0114
745.00,0.0117
744.00,0.0119
743.00,0.0121
742.00,0.0122
741.00,0.0125
740.00,0.0129
739.00,0.0133
738.00,0.0137
737.00,0.0141
736.00,0.0146
735.00,0.0150
734.00,0.0154
733.00,0.0159
732.00,0.0166
731.00,0.0173
730.00,0.0179
729.00,0.0182
728.00,0.0183
727.00,0.0185
726.00,0.0187
725.00,0.0191
724.00,0.0196
723.00,0.0202
722.00,0.0208
721.00,0.0212
720.00,0.0210
719.00,0.0203
718.00,0.0192
717.00,0.0182
716.00,0.0173
715.00,0.0167
714.00,0.0163
713.00,0.0160
712.00,0.0158
711.00,0.0155
710.00,0.0152
709.00,0.0149
708.00,0.0147
707.00,0.0147
706.00,0.0146
705.00,0.0145
704.00,0.0143
703.00,0.0140
702.00,0.0138
701.00,0.0136
700.00,0.0134
699.00,0.0134
698.00,0.0133
697.00,0.0133
696.00,0.0132
695.00,0.0131
694.00,0.0128
693.00,0.0126
692.00,0.0126
691.00,0.0127
690.00,0.0129
689.00,0.0131
688.00,0.0133
687.00,0.0135
686.00,0.0135
685.00,0.0134
684.00,0.0134
683.00,0.0134
682.00,0.0136
681.00,0.0137
680.00,0.0139
679.00,0.0142
678.00,0.0144
677.00,0.0146
676.00,0.0148
675.00,0.0150
674.00,0.0152
673.00,0.0154
672.00,0.0155
671.00,0.0157
670.00,0.0159
669.00,0.0161
668.00,0.0166
667.00,0.0171
666.00,0.0171
665.00,0.0167
664.00,0.0164
663.00,0.0162
662.00,0.0162
661.00,0.0163
660.00,0.0163
659.00,0.0162
658.00,0.0160
657.00,0.0159
656.00,0.0158
655.00,0.0158
654.00,0.0158
653.00,0.0159
652.00,0.0161
651.00,0.0162
650.00,0.0162
649.00,0.0161
648.00,0.0159
647.00,0.0157
646.00,0.0158
645.00,0.0159
644.00,0.0161
643.00,0.0162
642.00,0.0163
641.00,0.0166
640.00,0.0168
639.00,0.0170
638.00,0.0171
637.00,0.0172
636.00,0.0173
635.00,0.0174
634.00,0.0176
633.00,0.0177
632.00,0.0177
631.00,0.0175
630.00,0.0173
629.00,0.0172
628.00,0.0172
627.00,0.0173
626.00,0.0175
625.00,0.0177
624.00,0.0178
623.00,0.0179
622.00,0.0180
621.00,0.0181
620.00,0.0181
619.00,0.0182
618.00,0.0182
617.00,0.0182
616.00,0.0182
615.00,0.0184
614.00,0.0185
613.00,0.0187
612.00,0.0189
611.00,0.0190
610.00,0.0190
609.00,0.0189
608.00,0.0188
607.00,0.0187
606.00,0.0185
605.00,0.0183
604.00,0.0181
603.00,0.0179
602.00,0.0177
601.00,0.0176
600.00,0.0177
599.00,0.0181
598.00,0.0188
597.00,0.0195
596.00,0.0199
595.00,0.0200
594.00,0.0197
593.00,0.0193
592.00,0.0189
591.00,0.0188
590.00,0.0190
589.00,0.0193
588.00,0.0195
587.00,0.0195
586.00,0.0192
585.00,0.0189
584.00,0.0187
583.00,0.0188
582.00,0.0188
581.00,0.0188
580.00,0.0189
579.00,0.0189
578.00,0.0189
577.00,0.0189
576.00,0.0189
575.00,0.0191
574.00,0.0192
573.00,0.0193
572.00,0.0193
571.00,0.0195
570.00,0.0198
569.00,0.0198
568.00,0.0196
567.00,0.0195
566.00,0.0196
565.00,0.0198
564.00,0.0198
563.00,0.0195
562.00,0.0191
561.00,0.0189
560.00,0.0189
559.00,0.0190
558.00,0.0189
557.00,0.0187
556.00,0.0184
555.00,0.0183
554.00,0.0182
553.00,0.0181
552.00,0.0180
551.00,0.0181
550.00,0.0184
549.00,0.0189
548.00,0.0192
547.00,0.0194
546.00,0.0195
545.00,0.0195
544.00,0.0195
543.00,0.0192
542.00,0.0189
541.00,0.0186
540.00,0.0187
539.00,0.0192
538.00,0.0197
537.00,0.0200
536.00,0.0201
535.00,0.0201
534.00,0.0200
533.00,0.0199
532.00,0.0198
531.00,0.0196
530.00,0.0193
529.00,0.0190
528.00,0.0189
527.00,0.0191
526.00,0.0194
525.00,0.0195
524.00,0.0192
523.00,0.0189
522.00,0.0188
521.00,0.0188
520.00,0.0186
519.00,0.0182
518.00,0.0178
517.00,0.0175
516.00,0.0175
515.00,0.0178
514.00,0.0181
513.00,0.0181
512.00,0.0178
511.00,0.0174
510.00,0.0172
509.00,0.0172
508.00,0.0172
507.00,0.0172
506.00,0.0174
505.00,0.0177
504.00,0.0180
503.00,0.0180
502.00,0.0177
501.00,0.0175
500.00,0.0174
499.00,0.0175
498.00,0.0173
497.00,0.0168
496.00,0.0163
495.00,0.0161
494.00,0.0165
493.00,0.0171
492.00,0.0172
491.00,0.0170
490.00,0.0166
489.00,0.0164
488.00,0.0163
487.00,0.0163
486.00,0.0162
485.00,0.0162
484.00,0.0160
483.00,0.0158
482.00,0.0158
481.00,0.0162
480.00,0.0169
479.00,0.0177
478.00,0.0183
477.00,0.0189
476.00,0.0195
475.00,0.0199
474.00,0.0200
473.00,0.0196
472.00,0.0187
471.00,0.0179
470.00,0.0173
469.00,0.0171
468.00,0.0173
467.00,0.0176
466.00,0.0182
465.00,0.0190
464.00,0.0198
463.00,0.0205
462.00,0.0209
461.00,0.0211
460.00,0.0214
459.00,0.0215
458.00,0.0209
457.00,0.0202
456.00,0.0202
455.00,0.0208
454.00,0.0217
453.00,0.0222
452.00,0.0224
451.00,0.0223
450.00,0.0221
