Created as New Dataset,Sample 178 By Administrator Date Tuesday, September 09 2025
cm-1,A
4000.00,0.0003
3999.00,0.0003
3998.00,0.0002
3997.00,0.0002
3996.00,0.0002
3995.00,0.0002
3994.00,0.0003
3993.00,0.0003
3992.00,0.0003
3991.00,0.0003
3990.00,0.0003
3989.00,0.0002
3988.00,0.0001
3987.00,0.0001
3986.00,0.0001
3985.00,0.0001
3984.00,0.0001
3983.00,0.0001
3982.00,0.0001
3981.00,0.0001
3980.00,0.0001
3979.00,0.0001
3978.00,0.0001
3977.00,0.0001
3976.00,0.0001
3975.00,0.0001
3974.00,0.0001
3973.00,0.0001
3972.00,0.0001
3971.00,0.0001
3970.00,0.0001
3969.00,0.0001
3968.00,0.0001
3967.00,0.0001
3966.00,0.0001
3965.00,0.0001
3964.00,0.0000
3963.00,0.0000
3962.00,0.0000
3961.00,0.0000
3960.00,0.0000
3959.00,0.0000
3958.00,0.0000
3957.00,0.0001
3956.00,0.0001
3955.00,0.0001
3954.00,0.0001
3953.00,0.0001
3952.00,0.0000
3951.00,0.0000
3950.00,0.0000
3949.00,0.0000
3948.00,0.0000
3947.00,0.0001
3946.00,0.0001
3945.00,0.0000
3944.00,0.0000
3943.00,0.0000
3942.00,0.0000
3941.00,0.0001
3940.00,0.0001
3939.00,0.0001
3938.00,0.0001
3937.00,0.0001
3936.00,0.0001
3935.00,0.0001
3934.00,0.0001
3933.00,0.0001
3932.00,0.0002
3931.00,0.0002
3930.00,0.0002
3929.00,0.0002
3928.00,0.0002
3927.00,0.0001
3926.00,0.0001
3925.00,0.0001
3924.00,0.0001
3923.00,0.0000
3922.00,0.0000
3921.00,0.0000
3920.00,0.0000
3919.00,0.0001
3918.00,0.0001
3917.00,0.0001
3916.00,0.0001
3915.00,0.0001
3914.00,0.0001
3913.00,0.0001
3912.00,0.0001
3911.00,0.0001
3910.00,0.0001
3909.00,0.0001
3908.00,0.0001
3907.00,0.0001
3906.00,0.0001
3905.00,0.0001
3904.00,0.0001
3903.00,0.0001
3902.00,0.0001
3901.00,0.0001
3900.00,0.0001
3899.00,0.0001
3898.00,0.0001
3897.00,0.0001
3896.00,0.0001
3895.00,0.0000
3894.00,0.0000
3893.00,0.0000
3892.00,0.0000
3891.00,0.0001
3890.00,0.0001
3889.00,0.0001
3888.00,0.0002
3887.00,0.0002
3886.00,0.0002
3885.00,0.0002
3884.00,0.0003
3883.00,0.0002
3882.00,0.0002
3881.00,0.0001
3880.00,0.0001
3879.00,0.0001
3878.00,0.0001
3877.00,0.0001
3876.00,0.0001
3875.00,0.0001
3874.00,0.0001
3873.00,0.0002
3872.00,0.0002
3871.00,0.0002
3870.00,0.0002
3869.00,0.0002
3868.00,0.0002
3867.00,0.0002
3866.00,0.0002
3865.00,0.0002
3864.00,0.0002
3863.00,0.0002
3862.00,0.0002
3861.00,0.0002
3860.00,0.0001
3859.00,0.0002
3858.00,0.0002
3857.00,0.0003
3856.00,0.0003
3855.00,0.0003
3854.00,0.0003
3853.00,0.0003
3852.00,0.0003
3851.00,0.0003
3850.00,0.0003
3849.00,0.0002
3848.00,0.0001
3847.00,0.0001
3846.00,0.0001
3845.00,0.0001
3844.00,0.0002
3843.00,0.0002
3842.00,0.0002
3841.00,0.0002
3840.00,0.0002
3839.00,0.0002
3838.00,0.0001
3837.00,0.0001
3836.00,0.0002
3835.00,0.0002
3834.00,0.0002
3833.00,0.0002
3832.00,0.0002
3831.00,0.0002
3830.00,0.0002
3829.00,0.0002
3828.00,0.0002
3827.00,0.0002
3826.00,0.0002
3825.00,0.0002
3824.00,0.0002
3823.00,0.0002
3822.00,0.0002
3821.00,0.0002
3820.00,0.0002
3819.00,0.0002
3818.00,0.0002
3817.00,0.0002
3816.00,0.0002
3815.00,0.0002
3814.00,0.0002
3813.00,0.0002
3812.00,0.0002
3811.00,0.0002
3810.00,0.0002
3809.00,0.0002
3808.00,0.0002
3807.00,0.0002
3806.00,0.0002
3805.00,0.0002
3804.00,0.0002
3803.00,0.0002
3802.00,0.0002
3801.00,0.0002
3800.00,0.0002
3799.00,0.0002
3798.00,0.0002
3797.00,0.0001
3796.00,0.0001
3795.00,0.0001
3794.00,0.0001
3793.00,0.0001
3792.00,0.0001
3791.00,0.0001
3790.00,0.0001
3789.00,0.0001
3788.00,0.0001
3787.00,0.0001
3786.00,0.0001
3785.00,0.0001
3784.00,0.0000
3783.00,0.0000
3782.00,0.0000
3781.00,0.0000
3780.00,0.0001
3779.00,0.0001
3778.00,0.0001
3777.00,0.0001
3776.00,0.0002
3775.00,0.0002
3774.00,0.0002
3773.00,0.0002
3772.00,0.0002
3771.00,0.0002
3770.00,0.0002
3769.00,0.0002
3768.00,0.0002
3767.00,0.0002
3766.00,0.0003
3765.00,0.0003
3764.00,0.0003
3763.00,0.0003
3762.00,0.0002
3761.00,0.0002
3760.00,0.0002
3759.00,0.0002
3758.00,0.0002
3757.00,0.0002
3756.00,0.0002
3755.00,0.0003
3754.00,0.0003
3753.00,0.0004
3752.00,0.0004
3751.00,0.0004
3750.00,0.0004
3749.00,0.0004
3748.00,0.0004
3747.00,0.0004
3746.00,0.0003
3745.00,0.0002
3744.00,0.0002
3743.00,0.0002
3742.00,0.0003
3741.00,0.0002
3740.00,0.0002
3739.00,0.0002
3738.00,0.0002
3737.00,0.0002
3736.00,0.0002
3735.00,0.0001
3734.00,0.0001
3733.00,0.0001
3732.00,0.0001
3731.00,0.0001
3730.00,0.0001
3729.00,0.0001
3728.00,0.0001
3727.00,0.0000
3726.00,-0.0000
3725.00,-0.0000
3724.00,0.0000
3723.00,0.0001
3722.00,0.0002
3721.00,0.0002
3720.00,0.0001
3719.00,0.0001
3718.00,0.0000
3717.00,0.0000
3716.00,0.0000
3715.00,0.0001
3714.00,0.0001
3713.00,0.0001
3712.00,0.0001
3711.00,0.0001
3710.00,0.0001
3709.00,0.0001
3708.00,0.0000
3707.00,0.0000
3706.00,-0.0000
3705.00,-0.0001
3704.00,-0.0001
3703.00,-0.0001
3702.00,-0.0001
3701.00,-0.0001
3700.00,-0.0000
3699.00,-0.0000
3698.00,-0.0000
3697.00,0.0000
3696.00,0.0000
3695.00,0.0000
3694.00,0.0000
3693.00,0.0000
3692.00,0.0001
3691.00,0.0001
3690.00,0.0000
3689.00,0.0000
3688.00,0.0000
3687.00,0.0000
3686.00,-0.0000
3685.00,-0.0000
3684.00,-0.0000
3683.00,-0.0000
3682.00,-0.0000
3681.00,-0.0000
3680.00,0.0000
3679.00,0.0000
3678.00,0.0001
3677.00,0.0001
3676.00,0.0001
3675.00,0.0001
3674.00,0.0001
3673.00,0.0000
3672.00,0.0000
3671.00,0.0000
3670.00,-0.0000
3669.00,-0.0001
3668.00,-0.0001
3667.00,-0.0002
3666.00,-0.0002
3665.00,-0.0002
3664.00,-0.0002
3663.00,-0.0002
3662.00,-0.0001
3661.00,-0.0001
3660.00,-0.0001
3659.00,-0.0001
3658.00,-0.0001
3657.00,-0.0001
3656.00,-0.0001
3655.00,-0.0001
3654.00,-0.0001
3653.00,-0.0000
3652.00,0.0000
3651.00,0.0001
3650.00,0.0001
3649.00,0.0001
3648.00,0.0001
3647.00,0.0000
3646.00,-0.0000
3645.00,-0.0000
3644.00,-0.0001
3643.00,-0.0001
3642.00,-0.0001
3641.00,-0.0000
3640.00,0.0000
3639.00,0.0000
3638.00,0.0000
3637.00,-0.0000
3636.00,-0.0000
3635.00,-0.0001
3634.00,-0.0001
3633.00,-0.0001
3632.00,-0.0001
3631.00,-0.0000
3630.00,0.0000
3629.00,0.0000
3628.00,0.0000
3627.00,-0.0000
3626.00,-0.0001
3625.00,-0.0001
3624.00,-0.0002
3623.00,-0.0002
3622.00,-0.0001
3621.00,0.0000
3620.00,0.0001
3619.00,0.0001
3618.00,0.0001
3617.00,0.0001
3616.00,0.0001
3615.00,0.0001
3614.00,0.0001
3613.00,0.0000
3612.00,-0.0000
3611.00,-0.0001
3610.00,-0.0001
3609.00,-0.0001
3608.00,-0.0000
3607.00,0.0000
3606.00,0.0000
3605.00,0.0000
3604.00,-0.0000
3603.00,-0.0001
3602.00,-0.0001
3601.00,-0.0001
3600.00,-0.0001
3599.00,-0.0001
3598.00,-0.0002
3597.00,-0.0001
3596.00,-0.0001
3595.00,-0.0000
3594.00,0.0000
3593.00,0.0001
3592.00,0.0001
3591.00,0.0001
3590.00,0.0001
3589.00,0.0001
3588.00,0.0001
3587.00,0.0001
3586.00,0.0001
3585.00,0.0001
3584.00,0.0000
3583.00,0.0001
3582.00,0.0001
3581.00,0.0001
3580.00,0.0001
3579.00,0.0002
3578.00,0.0001
3577.00,0.0001
3576.00,0.0001
3575.00,0.0001
3574.00,0.0001
3573.00,0.0001
3572.00,0.0002
3571.00,0.0002
3570.00,0.0002
3569.00,0.0002
3568.00,0.0003
3567.00,0.0003
3566.00,0.0003
3565.00,0.0002
3564.00,0.0002
3563.00,0.0002
3562.00,0.0002
3561.00,0.0002
3560.00,0.0003
3559.00,0.0003
3558.00,0.0003
3557.00,0.0003
3556.00,0.0003
3555.00,0.0003
3554.00,0.0003
3553.00,0.0004
3552.00,0.0004
3551.00,0.0004
3550.00,0.0005
3549.00,0.0005
3548.00,0.0005
3547.00,0.0004
3546.00,0.0004
3545.00,0.0005
3544.00,0.0005
3543.00,0.0005
3542.00,0.0005
3541.00,0.0005
3540.00,0.0005
3539.00,0.0005
3538.00,0.0005
3537.00,0.0006
3536.00,0.0006
3535.00,0.0007
3534.00,0.0007
3533.00,0.0007
3532.00,0.0007
3531.00,0.0007
3530.00,0.0007
3529.00,0.0007
3528.00,0.0007
3527.00,0.0007
3526.00,0.0007
3525.00,0.0007
3524.00,0.0007
3523.00,0.0007
3522.00,0.0007
3521.00,0.0007
3520.00,0.0007
3519.00,0.0007
3518.00,0.0007
3517.00,0.0007
3516.00,0.0008
3515.00,0.0008
3514.00,0.0008
3513.00,0.0008
3512.00,0.0009
3511.00,0.0009
3510.00,0.0009
3509.00,0.0009
3508.00,0.0009
3507.00,0.0009
3506.00,0.0009
3505.00,0.0009
3504.00,0.0009
3503.00,0.0009
3502.00,0.0009
3501.00,0.0009
3500.00,0.0010
3499.00,0.0010
3498.00,0.0010
3497.00,0.0011
3496.00,0.0011
3495.00,0.0011
3494.00,0.0011
3493.00,0.0011
3492.00,0.0011
3491.00,0.0011
3490.00,0.0011
3489.00,0.0010
3488.00,0.0010
3487.00,0.0011
3486.00,0.0011
3485.00,0.0011
3484.00,0.0012
3483.00,0.0012
3482.00,0.0012
3481.00,0.0012
3480.00,0.0012
3479.00,0.0012
3478.00,0.0012
3477.00,0.0012
3476.00,0.0012
3475.00,0.0012
3474.00,0.0013
3473.00,0.0013
3472.00,0.0013
3471.00,0.0013
3470.00,0.0013
3469.00,0.0013
3468.00,0.0013
3467.00,0.0013
3466.00,0.0013
3465.00,0.0013
3464.00,0.0014
3463.00,0.0014
3462.00,0.0014
3461.00,0.0015
3460.00,0.0015
3459.00,0.0015
3458.00,0.0015
3457.00,0.0015
3456.00,0.0015
3455.00,0.0015
3454.00,0.0015
3453.00,0.0015
3452.00,0.0015
3451.00,0.0016
3450.00,0.0016
3449.00,0.0016
3448.00,0.0016
3447.00,0.0016
3446.00,0.0016
3445.00,0.0016
3444.00,0.0016
3443.00,0.0016
3442.00,0.0017
3441.00,0.0017
3440.00,0.0017
3439.00,0.0017
3438.00,0.0017
3437.00,0.0017
3436.00,0.0018
3435.00,0.0018
3434.00,0.0018
3433.00,0.0018
3432.00,0.0018
3431.00,0.0018
3430.00,0.0018
3429.00,0.0018
3428.00,0.0019
3427.00,0.0019
3426.00,0.0019
3425.00,0.0020
3424.00,0.0020
3423.00,0.0020
3422.00,0.0020
3421.00,0.0020
3420.00,0.0020
3419.00,0.0020
3418.00,0.0020
3417.00,0.0020
3416.00,0.0021
3415.00,0.0021
3414.00,0.0021
3413.00,0.0021
3412.00,0.0021
3411.00,0.0021
3410.00,0.0021
3409.00,0.0021
3408.00,0.0021
3407.00,0.0021
3406.00,0.0021
3405.00,0.0021
3404.00,0.0021
3403.00,0.0021
3402.00,0.0021
3401.00,0.0021
3400.00,0.0021
3399.00,0.0021
3398.00,0.0021
3397.00,0.0021
3396.00,0.0021
3395.00,0.0021
3394.00,0.0021
3393.00,0.0021
3392.00,0.0022
3391.00,0.0022
3390.00,0.0022
3389.00,0.0022
3388.00,0.0022
3387.00,0.0021
3386.00,0.0021
3385.00,0.0021
3384.00,0.0022
3383.00,0.0021
3382.00,0.0021
3381.00,0.0021
3380.00,0.0022
3379.00,0.0022
3378.00,0.0022
3377.00,0.0022
3376.00,0.0022
3375.00,0.0022
3374.00,0.0022
3373.00,0.0023
3372.00,0.0023
3371.00,0.0023
3370.00,0.0023
3369.00,0.0023
3368.00,0.0023
3367.00,0.0023
3366.00,0.0023
3365.00,0.0023
3364.00,0.0023
3363.00,0.0023
3362.00,0.0023
3361.00,0.0023
3360.00,0.0023
3359.00,0.0023
3358.00,0.0023
3357.00,0.0023
3356.00,0.0023
3355.00,0.0024
3354.00,0.0024
3353.00,0.0024
3352.00,0.0024
3351.00,0.0024
3350.00,0.0024
3349.00,0.0024
3348.00,0.0024
3347.00,0.0024
3346.00,0.0024
3345.00,0.0024
3344.00,0.0024
3343.00,0.0024
3342.00,0.0023
3341.00,0.0023
3340.00,0.0023
3339.00,0.0023
3338.00,0.0023
3337.00,0.0023
3336.00,0.0023
3335.00,0.0023
3334.00,0.0023
3333.00,0.0023
3332.00,0.0022
3331.00,0.0022
3330.00,0.0022
3329.00,0.0022
3328.00,0.0022
3327.00,0.0022
3326.00,0.0022
3325.00,0.0022
3324.00,0.0022
3323.00,0.0022
3322.00,0.0021
3321.00,0.0021
3320.00,0.0021
3319.00,0.0021
3318.00,0.0021
3317.00,0.0021
3316.00,0.0022
3315.00,0.0022
3314.00,0.0022
3313.00,0.0022
3312.00,0.0022
3311.00,0.0022
3310.00,0.0022
3309.00,0.0022
3308.00,0.0022
3307.00,0.0022
3306.00,0.0022
3305.00,0.0022
3304.00,0.0022
3303.00,0.0022
3302.00,0.0023
3301.00,0.0023
3300.00,0.0023
3299.00,0.0023
3298.00,0.0023
3297.00,0.0023
3296.00,0.0023
3295.00,0.0022
3294.00,0.0022
3293.00,0.0022
3292.00,0.0022
3291.00,0.0022
3290.00,0.0022
3289.00,0.0022
3288.00,0.0022
3287.00,0.0021
3286.00,0.0021
3285.00,0.0021
3284.00,0.0021
3283.00,0.0021
3282.00,0.0021
3281.00,0.0021
3280.00,0.0021
3279.00,0.0021
3278.00,0.0021
3277.00,0.0021
3276.00,0.0022
3275.00,0.0022
3274.00,0.0022
3273.00,0.0022
3272.00,0.0022
3271.00,0.0021
3270.00,0.0021
3269.00,0.0021
3268.00,0.0021
3267.00,0.0021
3266.00,0.0021
3265.00,0.0021
3264.00,0.0021
3263.00,0.0020
3262.00,0.0020
3261.00,0.0020
3260.00,0.0020
3259.00,0.0020
3258.00,0.0021
3257.00,0.0021
3256.00,0.0020
3255.00,0.0020
3254.00,0.0019
3253.00,0.0019
3252.00,0.0019
3251.00,0.0019
3250.00,0.0019
3249.00,0.0020
3248.00,0.0019
3247.00,0.0019
3246.00,0.0018
3245.00,0.0018
3244.00,0.0019
3243.00,0.0019
3242.00,0.0019
3241.00,0.0019
3240.00,0.0019
3239.00,0.0020
3238.00,0.0020
3237.00,0.0020
3236.00,0.0020
3235.00,0.0021
3234.00,0.0021
3233.00,0.0021
3232.00,0.0021
3231.00,0.0022
3230.00,0.0022
3229.00,0.0022
3228.00,0.0022
3227.00,0.0022
3226.00,0.0022
3225.00,0.0023
3224.00,0.0023
3223.00,0.0023
3222.00,0.0023
3221.00,0.0023
3220.00,0.0023
3219.00,0.0024
3218.00,0.0024
3217.00,0.0024
3216.00,0.0024
3215.00,0.0024
3214.00,0.0024
3213.00,0.0024
3212.00,0.0024
3211.00,0.0024
3210.00,0.0025
3209.00,0.0025
3208.00,0.0025
3207.00,0.0025
3206.00,0.0025
3205.00,0.0025
3204.00,0.0025
3203.00,0.0025
3202.00,0.0026
3201.00,0.0026
3200.00,0.0026
3199.00,0.0026
3198.00,0.0026
3197.00,0.0026
3196.00,0.0025
3195.00,0.0025
3194.00,0.0025
3193.00,0.0025
3192.00,0.0025
3191.00,0.0026
3190.00,0.0026
3189.00,0.0025
3188.00,0.0025
3187.00,0.0024
3186.00,0.0024
3185.00,0.0024
3184.00,0.0024
3183.00,0.0024
3182.00,0.0024
3181.00,0.0024
3180.00,0.0024
3179.00,0.0023
3178.00,0.0023
3177.00,0.0023
3176.00,0.0023
3175.00,0.0022
3174.00,0.0022
3173.00,0.0022
3172.00,0.0022
3171.00,0.0022
3170.00,0.0022
3169.00,0.0022
3168.00,0.0022
3167.00,0.0022
3166.00,0.0022
3165.00,0.0022
3164.00,0.0021
3163.00,0.0021
3162.00,0.0021
3161.00,0.0021
3160.00,0.0022
3159.00,0.0022
3158.00,0.0022
3157.00,0.0022
3156.00,0.0022
3155.00,0.0023
3154.00,0.0023
3153.00,0.0023
3152.00,0.0023
3151.00,0.0023
3150.00,0.0022
3149.00,0.0022
3148.00,0.0022
3147.00,0.0022
3146.00,0.0022
3145.00,0.0022
3144.00,0.0023
3143.00,0.0023
3142.00,0.0022
3141.00,0.0022
3140.00,0.0022
3139.00,0.0022
3138.00,0.0022
3137.00,0.0021
3136.00,0.0021
3135.00,0.0021
3134.00,0.0021
3133.00,0.0020
3132.00,0.0020
3131.00,0.0021
3130.00,0.0021
3129.00,0.0021
3128.00,0.0022
3127.00,0.0021
3126.00,0.0021
3125.00,0.0020
3124.00,0.0020
3123.00,0.0019
3122.00,0.0019
3121.00,0.0019
3120.00,0.0019
3119.00,0.0019
3118.00,0.0019
3117.00,0.0019
3116.00,0.0019
3115.00,0.0019
3114.00,0.0018
3113.00,0.0018
3112.00,0.0018
3111.00,0.0017
3110.00,0.0017
3109.00,0.0017
3108.00,0.0017
3107.00,0.0018
3106.00,0.0018
3105.00,0.0017
3104.00,0.0017
3103.00,0.0017
3102.00,0.0017
3101.00,0.0017
3100.00,0.0017
3099.00,0.0017
3098.00,0.0018
3097.00,0.0018
3096.00,0.0018
3095.00,0.0018
3094.00,0.0018
3093.00,0.0017
3092.00,0.0017
3091.00,0.0016
3090.00,0.0016
3089.00,0.0016
3088.00,0.0016
3087.00,0.0016
3086.00,0.0015
3085.00,0.0016
3084.00,0.0016
3083.00,0.0016
3082.00,0.0016
3081.00,0.0016
3080.00,0.0016
3079.00,0.0016
3078.00,0.0016
3077.00,0.0017
3076.00,0.0017
3075.00,0.0017
3074.00,0.0017
3073.00,0.0017
3072.00,0.0017
3071.00,0.0017
3070.00,0.0017
3069.00,0.0017
3068.00,0.0017
3067.00,0.0018
3066.00,0.0018
3065.00,0.0019
3064.00,0.0019
3063.00,0.0020
3062.00,0.0020
3061.00,0.0020
3060.00,0.0020
3059.00,0.0020
3058.00,0.0020
3057.00,0.0020
3056.00,0.0020
3055.00,0.0021
3054.00,0.0021
3053.00,0.0021
3052.00,0.0022
3051.00,0.0022
3050.00,0.0022
3049.00,0.0022
3048.00,0.0022
3047.00,0.0022
3046.00,0.0022
3045.00,0.0022
3044.00,0.0022
3043.00,0.0022
3042.00,0.0023
3041.00,0.0023
3040.00,0.0023
3039.00,0.0024
3038.00,0.0024
3037.00,0.0025
3036.00,0.0025
3035.00,0.0025
3034.00,0.0025
3033.00,0.0026
3032.00,0.0026
3031.00,0.0027
3030.00,0.0028
3029.00,0.0028
3028.00,0.0028
3027.00,0.0029
3026.00,0.0029
3025.00,0.0029
3024.00,0.0030
3023.00,0.0031
3022.00,0.0031
3021.00,0.0032
3020.00,0.0033
3019.00,0.0035
3018.00,0.0036
3017.00,0.0037
3016.00,0.0038
3015.00,0.0039
3014.00,0.0040
3013.00,0.0042
3012.00,0.0043
3011.00,0.0044
3010.00,0.0045
3009.00,0.0046
3008.00,0.0047
3007.00,0.0049
3006.00,0.0051
3005.00,0.0052
3004.00,0.0054
3003.00,0.0057
3002.00,0.0059
3001.00,0.0062
3000.00,0.0065
2999.00,0.0068
2998.00,0.0071
2997.00,0.0074
2996.00,0.0078
2995.00,0.0082
2994.00,0.0087
2993.00,0.0091
2992.00,0.0097
2991.00,0.0103
2990.00,0.0109
2989.00,0.0116
2988.00,0.0123
2987.00,0.0132
2986.00,0.0142
2985.00,0.0152
2984.00,0.0164
2983.00,0.0178
2982.00,0.0193
2981.00,0.0210
2980.00,0.0229
2979.00,0.0251
2978.00,0.0275
2977.00,0.0303
2976.00,0.0335
2975.00,0.0372
2974.00,0.0413
2973.00,0.0460
2972.00,0.0512
2971.00,0.0570
2970.00,0.0634
2969.00,0.0704
2968.00,0.0779
2967.00,0.0858
2966.00,0.0939
2965.00,0.1019
2964.00,0.1094
2963.00,0.1162
2962.00,0.1219
2961.00,0.1265
2960.00,0.1303
2959.00,0.1338
2958.00,0.1378
2957.00,0.1429
2956.00,0.1497
2955.00,0.1584
2954.00,0.1687
2953.00,0.1799
2952.00,0.1907
2951.00,0.1998
2950.00,0.2054
2949.00,0.2064
2948.00,0.2020
2947.00,0.1927
2946.00,0.1795
2945.00,0.1644
2944.00,0.1491
2943.00,0.1353
2942.00,0.1240
2941.00,0.1155
2940.00,0.1100
2939.00,0.1071
2938.00,0.1065
2937.00,0.1080
2936.00,0.1114
2935.00,0.1166
2934.00,0.1234
2933.00,0.1318
2932.00,0.1415
2931.00,0.1524
2930.00,0.1643
2929.00,0.1767
2928.00,0.1894
2927.00,0.2019
2926.00,0.2141
2925.00,0.2259
2924.00,0.2375
2923.00,0.2492
2922.00,0.2610
2921.00,0.2726
2920.00,0.2832
2919.00,0.2919
2918.00,0.2972
2917.00,0.2982
2916.00,0.2945
2915.00,0.2866
2914.00,0.2756
2913.00,0.2629
2912.00,0.2499
2911.00,0.2374
2910.00,0.2259
2909.00,0.2154
2908.00,0.2057
2907.00,0.1967
2906.00,0.1879
2905.00,0.1793
2904.00,0.1710
2903.00,0.1628
2902.00,0.1549
2901.00,0.1473
2900.00,0.1402
2899.00,0.1335
2898.00,0.1274
2897.00,0.1219
2896.00,0.1172
2895.00,0.1132
2894.00,0.1100
2893.00,0.1076
2892.00,0.1060
2891.00,0.1050
2890.00,0.1047
2889.00,0.1050
2888.00,0.1057
2887.00,0.1067
2886.00,0.1082
2885.00,0.1100
2884.00,0.1122
2883.00,0.1150
2882.00,0.1182
2881.00,0.1216
2880.00,0.1249
2879.00,0.1278
2878.00,0.1296
2877.00,0.1303
2876.00,0.1300
2875.00,0.1291
2874.00,0.1283
2873.00,0.1281
2872.00,0.1289
2871.00,0.1307
2870.00,0.1333
2869.00,0.1361
2868.00,0.1383
2867.00,0.1388
2866.00,0.1366
2865.00,0.1311
2864.00,0.1226
2863.00,0.1121
2862.00,0.1007
2861.00,0.0899
2860.00,0.0803
2859.00,0.0725
2858.00,0.0665
2857.00,0.0620
2856.00,0.0588
2855.00,0.0566
2854.00,0.0553
2853.00,0.0547
2852.00,0.0549
2851.00,0.0558
2850.00,0.0577
2849.00,0.0606
2848.00,0.0646
2847.00,0.0697
2846.00,0.0758
2845.00,0.0828
2844.00,0.0905
2843.00,0.0986
2842.00,0.1066
2841.00,0.1141
2840.00,0.1200
2839.00,0.1237
2838.00,0.1243
2837.00,0.1212
2836.00,0.1147
2835.00,0.1055
2834.00,0.0946
2833.00,0.0833
2832.00,0.0726
2831.00,0.0632
2830.00,0.0552
2829.00,0.0486
2828.00,0.0433
2827.00,0.0390
2826.00,0.0356
2825.00,0.0328
2824.00,0.0304
2823.00,0.0284
2822.00,0.0268
2821.00,0.0253
2820.00,0.0240
2819.00,0.0229
2818.00,0.0220
2817.00,0.0211
2816.00,0.0204
2815.00,0.0198
2814.00,0.0192
2813.00,0.0187
2812.00,0.0181
2811.00,0.0175
2810.00,0.0169
2809.00,0.0163
2808.00,0.0157
2807.00,0.0150
2806.00,0.0143
2805.00,0.0136
2804.00,0.0130
2803.00,0.0124
2802.00,0.0118
2801.00,0.0114
2800.00,0.0110
2799.00,0.0107
2798.00,0.0103
2797.00,0.0101
2796.00,0.0098
2795.00,0.0095
2794.00,0.0092
2793.00,0.0089
2792.00,0.0087
2791.00,0.0084
2790.00,0.0081
2789.00,0.0079
2788.00,0.0076
2787.00,0.0074
2786.00,0.0071
2785.00,0.0069
2784.00,0.0067
2783.00,0.0065
2782.00,0.0063
2781.00,0.0061
2780.00,0.0059
2779.00,0.0058
2778.00,0.0056
2777.00,0.0055
2776.00,0.0054
2775.00,0.0052
2774.00,0.0051
2773.00,0.0051
2772.00,0.0050
2771.00,0.0050
2770.00,0.0050
2769.00,0.0050
2768.00,0.0050
2767.00,0.0049
2766.00,0.0049
2765.00,0.0049
2764.00,0.0048
2763.00,0.0048
2762.00,0.0047
2761.00,0.0047
2760.00,0.0047
2759.00,0.0046
2758.00,0.0046
2757.00,0.0046
2756.00,0.0045
2755.00,0.0045
2754.00,0.0046
2753.00,0.0046
2752.00,0.0046
2751.00,0.0045
2750.00,0.0045
2749.00,0.0046
2748.00,0.0046
2747.00,0.0046
2746.00,0.0047
2745.00,0.0048
2744.00,0.0049
2743.00,0.0050
2742.00,0.0051
2741.00,0.0052
2740.00,0.0053
2739.00,0.0055
2738.00,0.0056
2737.00,0.0058
2736.00,0.0059
2735.00,0.0061
2734.00,0.0063
2733.00,0.0064
2732.00,0.0066
2731.00,0.0068
2730.00,0.0071
2729.00,0.0073
2728.00,0.0076
2727.00,0.0080
2726.00,0.0083
2725.00,0.0086
2724.00,0.0088
2723.00,0.0088
2722.00,0.0087
2721.00,0.0086
2720.00,0.0083
2719.00,0.0079
2718.00,0.0075
2717.00,0.0071
2716.00,0.0068
2715.00,0.0065
2714.00,0.0062
2713.00,0.0059
2712.00,0.0057
2711.00,0.0055
2710.00,0.0053
2709.00,0.0052
2708.00,0.0050
2707.00,0.0048
2706.00,0.0047
2705.00,0.0045
2704.00,0.0044
2703.00,0.0043
2702.00,0.0042
2701.00,0.0041
2700.00,0.0040
2699.00,0.0040
2698.00,0.0040
2697.00,0.0039
2696.00,0.0039
2695.00,0.0039
2694.00,0.0038
2693.00,0.0038
2692.00,0.0039
2691.00,0.0039
2690.00,0.0039
2689.00,0.0039
2688.00,0.0039
2687.00,0.0039
2686.00,0.0039
2685.00,0.0039
2684.00,0.0039
2683.00,0.0040
2682.00,0.0040
2681.00,0.0040
2680.00,0.0040
2679.00,0.0041
2678.00,0.0041
2677.00,0.0041
2676.00,0.0041
2675.00,0.0041
2674.00,0.0041
2673.00,0.0041
2672.00,0.0041
2671.00,0.0041
2670.00,0.0041
2669.00,0.0040
2668.00,0.0040
2667.00,0.0040
2666.00,0.0040
2665.00,0.0041
2664.00,0.0041
2663.00,0.0042
2662.00,0.0043
2661.00,0.0043
2660.00,0.0044
2659.00,0.0044
2658.00,0.0044
2657.00,0.0043
2656.00,0.0043
2655.00,0.0042
2654.00,0.0042
2653.00,0.0041
2652.00,0.0041
2651.00,0.0040
2650.00,0.0039
2649.00,0.0039
2648.00,0.0038
2647.00,0.0038
2646.00,0.0038
2645.00,0.0037
2644.00,0.0036
2643.00,0.0036
2642.00,0.0035
2641.00,0.0034
2640.00,0.0034
2639.00,0.0033
2638.00,0.0034
2637.00,0.0033
2636.00,0.0033
2635.00,0.0033
2634.00,0.0033
2633.00,0.0034
2632.00,0.0034
2631.00,0.0034
2630.00,0.0035
2629.00,0.0035
2628.00,0.0035
2627.00,0.0035
2626.00,0.0035
2625.00,0.0035
2624.00,0.0035
2623.00,0.0035
2622.00,0.0035
2621.00,0.0036
2620.00,0.0036
2619.00,0.0037
2618.00,0.0038
2617.00,0.0038
2616.00,0.0038
2615.00,0.0038
2614.00,0.0037
2613.00,0.0036
2612.00,0.0036
2611.00,0.0035
2610.00,0.0034
2609.00,0.0033
2608.00,0.0032
2607.00,0.0032
2606.00,0.0031
2605.00,0.0031
2604.00,0.0030
2603.00,0.0030
2602.00,0.0030
2601.00,0.0030
2600.00,0.0030
2599.00,0.0030
2598.00,0.0030
2597.00,0.0029
2596.00,0.0029
2595.00,0.0029
2594.00,0.0029
2593.00,0.0030
2592.00,0.0031
2591.00,0.0031
2590.00,0.0032
2589.00,0.0033
2588.00,0.0034
2587.00,0.0035
2586.00,0.0037
2585.00,0.0038
2584.00,0.0038
2583.00,0.0039
2582.00,0.0039
2581.00,0.0039
2580.00,0.0038
2579.00,0.0037
2578.00,0.0036
2577.00,0.0035
2576.00,0.0033
2575.00,0.0032
2574.00,0.0030
2573.00,0.0029
2572.00,0.0028
2571.00,0.0028
2570.00,0.0026
2569.00,0.0025
2568.00,0.0024
2567.00,0.0023
2566.00,0.0022
2565.00,0.0022
2564.00,0.0022
2563.00,0.0021
2562.00,0.0021
2561.00,0.0021
2560.00,0.0021
2559.00,0.0021
2558.00,0.0021
2557.00,0.0021
2556.00,0.0020
2555.00,0.0019
2554.00,0.0018
2553.00,0.0018
2552.00,0.0018
2551.00,0.0017
2550.00,0.0017
2549.00,0.0016
2548.00,0.0016
2547.00,0.0015
2546.00,0.0015
2545.00,0.0014
2544.00,0.0014
2543.00,0.0014
2542.00,0.0014
2541.00,0.0014
2540.00,0.0014
2539.00,0.0014
2538.00,0.0014
2537.00,0.0014
2536.00,0.0014
2535.00,0.0014
2534.00,0.0013
2533.00,0.0013
2532.00,0.0012
2531.00,0.0012
2530.00,0.0011
2529.00,0.0011
2528.00,0.0011
2527.00,0.0011
2526.00,0.0011
2525.00,0.0010
2524.00,0.0010
2523.00,0.0010
2522.00,0.0009
2521.00,0.0009
2520.00,0.0010
2519.00,0.0010
2518.00,0.0010
2517.00,0.0009
2516.00,0.0008
2515.00,0.0008
2514.00,0.0008
2513.00,0.0008
2512.00,0.0008
2511.00,0.0007
2510.00,0.0007
2509.00,0.0006
2508.00,0.0006
2507.00,0.0006
2506.00,0.0007
2505.00,0.0007
2504.00,0.0006
2503.00,0.0006
2502.00,0.0006
2501.00,0.0006
2500.00,0.0006
2499.00,0.0006
2498.00,0.0006
2497.00,0.0006
2496.00,0.0007
2495.00,0.0007
2494.00,0.0008
2493.00,0.0008
2492.00,0.0008
2491.00,0.0008
2490.00,0.0008
2489.00,0.0008
2488.00,0.0008
2487.00,0.0008
2486.00,0.0008
2485.00,0.0008
2484.00,0.0008
2483.00,0.0007
2482.00,0.0006
2481.00,0.0006
2480.00,0.0006
2479.00,0.0006
2478.00,0.0007
2477.00,0.0007
2476.00,0.0007
2475.00,0.0007
2474.00,0.0006
2473.00,0.0006
2472.00,0.0005
2471.00,0.0005
2470.00,0.0004
2469.00,0.0005
2468.00,0.0005
2467.00,0.0006
2466.00,0.0006
2465.00,0.0006
2464.00,0.0006
2463.00,0.0007
2462.00,0.0008
2461.00,0.0008
2460.00,0.0008
2459.00,0.0008
2458.00,0.0008
2457.00,0.0007
2456.00,0.0007
2455.00,0.0006
2454.00,0.0007
2453.00,0.0007
2452.00,0.0008
2451.00,0.0008
2450.00,0.0008
2449.00,0.0008
2448.00,0.0007
2447.00,0.0008
2446.00,0.0008
2445.00,0.0008
2444.00,0.0007
2443.00,0.0007
2442.00,0.0007
2441.00,0.0008
2440.00,0.0008
2439.00,0.0008
2438.00,0.0008
2437.00,0.0008
2436.00,0.0008
2435.00,0.0008
2434.00,0.0008
2433.00,0.0009
2432.00,0.0009
2431.00,0.0010
2430.00,0.0010
2429.00,0.0009
2428.00,0.0009
2427.00,0.0009
2426.00,0.0009
2425.00,0.0008
2424.00,0.0008
2423.00,0.0008
2422.00,0.0008
2421.00,0.0008
2420.00,0.0008
2419.00,0.0008
2418.00,0.0007
2417.00,0.0007
2416.00,0.0007
2415.00,0.0008
2414.00,0.0008
2413.00,0.0007
2412.00,0.0007
2411.00,0.0006
2410.00,0.0006
2409.00,0.0006
2408.00,0.0006
2407.00,0.0006
2406.00,0.0005
2405.00,0.0005
2404.00,0.0005
2403.00,0.0005
2402.00,0.0006
2401.00,0.0006
2400.00,0.0006
2399.00,0.0006
2398.00,0.0005
2397.00,0.0005
2396.00,0.0005
2395.00,0.0005
2394.00,0.0005
2393.00,0.0005
2392.00,0.0006
2391.00,0.0006
2390.00,0.0006
2389.00,0.0006
2388.00,0.0006
2387.00,0.0005
2386.00,0.0005
2385.00,0.0004
2384.00,0.0003
2383.00,0.0003
2382.00,0.0002
2381.00,0.0001
2380.00,0.0001
2379.00,0.0000
2378.00,-0.0000
2377.00,-0.0000
2376.00,0.0000
2375.00,0.0001
2374.00,0.0001
2373.00,0.0001
2372.00,0.0001
2371.00,0.0000
2370.00,-0.0001
2369.00,-0.0002
2368.00,-0.0002
2367.00,-0.0001
2366.00,-0.0001
2365.00,-0.0000
2364.00,-0.0000
2363.00,-0.0000
2362.00,-0.0000
2361.00,0.0000
2360.00,-0.0000
2359.00,-0.0000
2358.00,0.0000
2357.00,0.0000
2356.00,0.0001
2355.00,0.0001
2354.00,0.0002
2353.00,0.0002
2352.00,0.0003
2351.00,0.0003
2350.00,0.0002
2349.00,0.0002
2348.00,0.0001
2347.00,0.0002
2346.00,0.0002
2345.00,0.0002
2344.00,0.0002
2343.00,0.0002
2342.00,0.0002
2341.00,0.0002
2340.00,0.0002
2339.00,0.0003
2338.00,0.0004
2337.00,0.0005
2336.00,0.0005
2335.00,0.0005
2334.00,0.0004
2333.00,0.0004
2332.00,0.0004
2331.00,0.0004
2330.00,0.0003
2329.00,0.0003
2328.00,0.0005
2327.00,0.0008
2326.00,0.0013
2325.00,0.0017
2324.00,0.0019
2323.00,0.0019
2322.00,0.0017
2321.00,0.0015
2320.00,0.0013
2319.00,0.0012
2318.00,0.0010
2317.00,0.0009
2316.00,0.0009
2315.00,0.0009
2314.00,0.0009
2313.00,0.0008
2312.00,0.0007
2311.00,0.0007
2310.00,0.0007
2309.00,0.0007
2308.00,0.0007
2307.00,0.0007
2306.00,0.0007
2305.00,0.0007
2304.00,0.0008
2303.00,0.0008
2302.00,0.0008
2301.00,0.0008
2300.00,0.0009
2299.00,0.0009
2298.00,0.0009
2297.00,0.0009
2296.00,0.0009
2295.00,0.0010
2294.00,0.0010
2293.00,0.0011
2292.00,0.0011
2291.00,0.0011
2290.00,0.0012
2289.00,0.0013
2288.00,0.0014
2287.00,0.0015
2286.00,0.0016
2285.00,0.0016
2284.00,0.0015
2283.00,0.0014
2282.00,0.0013
2281.00,0.0013
2280.00,0.0013
2279.00,0.0012
2278.00,0.0012
2277.00,0.0011
2276.00,0.0011
2275.00,0.0010
2274.00,0.0010
2273.00,0.0010
2272.00,0.0011
2271.00,0.0011
2270.00,0.0012
2269.00,0.0011
2268.00,0.0010
2267.00,0.0008
2266.00,0.0008
2265.00,0.0008
2264.00,0.0009
2263.00,0.0010
2262.00,0.0011
2261.00,0.0011
2260.00,0.0010
2259.00,0.0009
2258.00,0.0009
2257.00,0.0008
2256.00,0.0008
2255.00,0.0007
2254.00,0.0006
2253.00,0.0005
2252.00,0.0003
2251.00,0.0002
2250.00,0.0002
2249.00,0.0003
2248.00,0.0004
2247.00,0.0005
2246.00,0.0006
2245.00,0.0006
2244.00,0.0006
2243.00,0.0007
2242.00,0.0007
2241.00,0.0008
2240.00,0.0008
2239.00,0.0008
2238.00,0.0007
2237.00,0.0006
2236.00,0.0005
2235.00,0.0003
2234.00,0.0002
2233.00,0.0002
2232.00,0.0004
2231.00,0.0006
2230.00,0.0009
2229.00,0.0010
2228.00,0.0009
2227.00,0.0007
2226.00,0.0005
2225.00,0.0005
2224.00,0.0006
2223.00,0.0008
2222.00,0.0007
2221.00,0.0006
2220.00,0.0004
2219.00,0.0002
2218.00,0.0001
2217.00,0.0000
2216.00,0.0001
2215.00,0.0002
2214.00,0.0003
2213.00,0.0003
2212.00,0.0002
2211.00,0.0000
2210.00,-0.0000
2209.00,-0.0000
2208.00,0.0001
2207.00,0.0003
2206.00,0.0004
2205.00,0.0006
2204.00,0.0008
2203.00,0.0008
2202.00,0.0008
2201.00,0.0007
2200.00,0.0007
2199.00,0.0008
2198.00,0.0010
2197.00,0.0011
2196.00,0.0010
2195.00,0.0009
2194.00,0.0008
2193.00,0.0008
2192.00,0.0010
2191.00,0.0011
2190.00,0.0013
2189.00,0.0013
2188.00,0.0012
2187.00,0.0009
2186.00,0.0008
2185.00,0.0007
2184.00,0.0006
2183.00,0.0005
2182.00,0.0002
2181.00,0.0001
2180.00,0.0000
2179.00,0.0002
2178.00,0.0005
2177.00,0.0007
2176.00,0.0008
2175.00,0.0006
2174.00,0.0005
2173.00,0.0004
2172.00,0.0004
2171.00,0.0004
2170.00,0.0006
2169.00,0.0009
2168.00,0.0010
2167.00,0.0010
2166.00,0.0010
2165.00,0.0011
2164.00,0.0015
2163.00,0.0018
2162.00,0.0017
2161.00,0.0010
2160.00,-0.0002
2159.00,-0.0016
2158.00,-0.0025
2157.00,-0.0028
2156.00,-0.0026
2155.00,-0.0023
2154.00,-0.0023
2153.00,-0.0022
2152.00,-0.0021
2151.00,-0.0020
2150.00,-0.0019
2149.00,-0.0019
2148.00,-0.0018
2147.00,-0.0019
2146.00,-0.0019
2145.00,-0.0019
2144.00,-0.0019
2143.00,-0.0019
2142.00,-0.0017
2141.00,-0.0016
2140.00,-0.0015
2139.00,-0.0016
2138.00,-0.0017
2137.00,-0.0018
2136.00,-0.0020
2135.00,-0.0022
2134.00,-0.0023
2133.00,-0.0022
2132.00,-0.0020
2131.00,-0.0016
2130.00,-0.0013
2129.00,-0.0011
2128.00,-0.0010
2127.00,-0.0010
2126.00,-0.0010
2125.00,-0.0009
2124.00,-0.0009
2123.00,-0.0008
2122.00,-0.0008
2121.00,-0.0009
2120.00,-0.0009
2119.00,-0.0008
2118.00,-0.0006
2117.00,-0.0004
2116.00,-0.0003
2115.00,-0.0001
2114.00,-0.0000
2113.00,-0.0000
2112.00,-0.0000
2111.00,-0.0000
2110.00,-0.0001
2109.00,-0.0002
2108.00,-0.0003
2107.00,-0.0004
2106.00,-0.0004
2105.00,-0.0003
2104.00,-0.0003
2103.00,-0.0003
2102.00,-0.0002
2101.00,-0.0002
2100.00,-0.0002
2099.00,-0.0003
2098.00,-0.0003
2097.00,-0.0004
2096.00,-0.0005
2095.00,-0.0007
2094.00,-0.0008
2093.00,-0.0008
2092.00,-0.0007
2091.00,-0.0006
2090.00,-0.0004
2089.00,-0.0002
2088.00,-0.0001
2087.00,0.0000
2086.00,0.0001
2085.00,0.0001
2084.00,0.0002
2083.00,0.0002
2082.00,0.0002
2081.00,0.0001
2080.00,0.0001
2079.00,0.0001
2078.00,0.0001
2077.00,0.0000
2076.00,0.0001
2075.00,0.0001
2074.00,0.0001
2073.00,0.0001
2072.00,0.0001
2071.00,0.0001
2070.00,0.0001
2069.00,0.0001
2068.00,0.0001
2067.00,-0.0001
2066.00,-0.0002
2065.00,-0.0003
2064.00,-0.0004
2063.00,-0.0005
2062.00,-0.0005
2061.00,-0.0004
2060.00,-0.0003
2059.00,-0.0003
2058.00,-0.0003
2057.00,-0.0003
2056.00,-0.0004
2055.00,-0.0004
2054.00,-0.0003
2053.00,0.0001
2052.00,0.0007
2051.00,0.0011
2050.00,0.0012
2049.00,0.0009
2048.00,0.0004
2047.00,-0.0001
2046.00,-0.0005
2045.00,-0.0006
2044.00,-0.0005
2043.00,-0.0003
2042.00,-0.0001
2041.00,0.0001
2040.00,0.0001
2039.00,-0.0000
2038.00,-0.0002
2037.00,-0.0004
2036.00,-0.0004
2035.00,-0.0005
2034.00,-0.0007
2033.00,-0.0008
2032.00,-0.0009
2031.00,-0.0008
2030.00,-0.0007
2029.00,-0.0006
2028.00,-0.0004
2027.00,-0.0005
2026.00,-0.0008
2025.00,-0.0011
2024.00,-0.0013
2023.00,-0.0014
2022.00,-0.0016
2021.00,-0.0017
2020.00,-0.0017
2019.00,-0.0019
2018.00,-0.0020
2017.00,-0.0021
2016.00,-0.0019
2015.00,-0.0017
2014.00,-0.0015
2013.00,-0.0014
2012.00,-0.0013
2011.00,-0.0011
2010.00,-0.0011
2009.00,-0.0012
2008.00,-0.0014
2007.00,-0.0017
2006.00,-0.0018
2005.00,-0.0017
2004.00,-0.0015
2003.00,-0.0016
2002.00,-0.0017
2001.00,-0.0018
2000.00,-0.0017
1999.00,-0.0015
1998.00,-0.0013
1997.00,-0.0011
1996.00,-0.0011
1995.00,-0.0011
1994.00,-0.0009
1993.00,-0.0006
1992.00,-0.0004
1991.00,-0.0004
1990.00,-0.0005
1989.00,-0.0006
1988.00,-0.0006
1987.00,-0.0005
1986.00,-0.0004
1985.00,-0.0001
1984.00,0.0002
1983.00,0.0006
1982.00,0.0010
1981.00,0.0015
1980.00,0.0016
1979.00,0.0012
1978.00,0.0003
1977.00,-0.0005
1976.00,-0.0010
1975.00,-0.0012
1974.00,-0.0013
1973.00,-0.0013
1972.00,-0.0012
1971.00,-0.0011
1970.00,-0.0010
1969.00,-0.0008
1968.00,-0.0007
1967.00,-0.0007
1966.00,-0.0010
1965.00,-0.0013
1964.00,-0.0017
1963.00,-0.0019
1962.00,-0.0019
1961.00,-0.0019
1960.00,-0.0020
1959.00,-0.0021
1958.00,-0.0021
1957.00,-0.0021
1956.00,-0.0022
1955.00,-0.0022
1954.00,-0.0022
1953.00,-0.0020
1952.00,-0.0018
1951.00,-0.0016
1950.00,-0.0016
1949.00,-0.0015
1948.00,-0.0015
1947.00,-0.0015
1946.00,-0.0016
1945.00,-0.0017
1944.00,-0.0017
1943.00,-0.0017
1942.00,-0.0015
1941.00,-0.0012
1940.00,-0.0011
1939.00,-0.0011
1938.00,-0.0013
1937.00,-0.0014
1936.00,-0.0013
1935.00,-0.0011
1934.00,-0.0009
1933.00,-0.0008
1932.00,-0.0009
1931.00,-0.0011
1930.00,-0.0013
1929.00,-0.0013
1928.00,-0.0013
1927.00,-0.0012
1926.00,-0.0012
1925.00,-0.0011
1924.00,-0.0011
1923.00,-0.0010
1922.00,-0.0008
1921.00,-0.0004
1920.00,-0.0002
1919.00,-0.0002
1918.00,-0.0003
1917.00,-0.0004
1916.00,-0.0004
1915.00,-0.0005
1914.00,-0.0006
1913.00,-0.0006
1912.00,-0.0005
1911.00,-0.0003
1910.00,-0.0002
1909.00,-0.0002
1908.00,-0.0004
1907.00,-0.0005
1906.00,-0.0005
1905.00,-0.0004
1904.00,-0.0004
1903.00,-0.0004
1902.00,-0.0004
1901.00,-0.0004
1900.00,-0.0004
1899.00,-0.0003
1898.00,-0.0003
1897.00,-0.0002
1896.00,-0.0002
1895.00,-0.0002
1894.00,-0.0002
1893.00,-0.0003
1892.00,-0.0003
1891.00,-0.0003
1890.00,-0.0003
1889.00,-0.0002
1888.00,-0.0001
1887.00,-0.0001
1886.00,-0.0001
1885.00,-0.0002
1884.00,-0.0003
1883.00,-0.0004
1882.00,-0.0005
1881.00,-0.0005
1880.00,-0.0003
1879.00,-0.0002
1878.00,-0.0000
1877.00,-0.0000
1876.00,-0.0000
1875.00,-0.0001
1874.00,-0.0001
1873.00,-0.0002
1872.00,-0.0002
1871.00,-0.0002
1870.00,-0.0002
1869.00,-0.0003
1868.00,-0.0003
1867.00,-0.0003
1866.00,-0.0002
1865.00,-0.0002
1864.00,-0.0002
1863.00,-0.0002
1862.00,-0.0003
1861.00,-0.0003
1860.00,-0.0003
1859.00,-0.0002
1858.00,-0.0002
1857.00,-0.0002
1856.00,-0.0002
1855.00,-0.0002
1854.00,-0.0001
1853.00,-0.0000
1852.00,0.0000
1851.00,-0.0000
1850.00,-0.0001
1849.00,-0.0002
1848.00,-0.0002
1847.00,-0.0002
1846.00,-0.0002
1845.00,-0.0002
1844.00,-0.0002
1843.00,-0.0002
1842.00,-0.0001
1841.00,0.0000
1840.00,0.0002
1839.00,0.0002
1838.00,0.0002
1837.00,0.0002
1836.00,0.0002
1835.00,0.0001
1834.00,0.0001
1833.00,0.0002
1832.00,0.0002
1831.00,0.0002
1830.00,0.0002
1829.00,0.0002
1828.00,0.0002
1827.00,0.0001
1826.00,0.0001
1825.00,0.0000
1824.00,0.0000
1823.00,0.0001
1822.00,0.0001
1821.00,0.0001
1820.00,0.0001
1819.00,0.0000
1818.00,-0.0001
1817.00,-0.0002
1816.00,-0.0002
1815.00,-0.0001
1814.00,-0.0000
1813.00,0.0000
1812.00,0.0001
1811.00,0.0001
1810.00,0.0001
1809.00,0.0001
1808.00,0.0002
1807.00,0.0002
1806.00,0.0002
1805.00,0.0002
1804.00,0.0002
1803.00,0.0002
1802.00,0.0002
1801.00,0.0002
1800.00,0.0003
1799.00,0.0003
1798.00,0.0004
1797.00,0.0003
1796.00,0.0003
1795.00,0.0003
1794.00,0.0003
1793.00,0.0004
1792.00,0.0004
1791.00,0.0005
1790.00,0.0005
1789.00,0.0005
1788.00,0.0005
1787.00,0.0005
1786.00,0.0005
1785.00,0.0005
1784.00,0.0005
1783.00,0.0005
1782.00,0.0005
1781.00,0.0006
1780.00,0.0006
1779.00,0.0005
1778.00,0.0005
1777.00,0.0006
1776.00,0.0006
1775.00,0.0006
1774.00,0.0006
1773.00,0.0006
1772.00,0.0006
1771.00,0.0007
1770.00,0.0008
1769.00,0.0008
1768.00,0.0009
1767.00,0.0008
1766.00,0.0008
1765.00,0.0008
1764.00,0.0007
1763.00,0.0007
1762.00,0.0007
1761.00,0.0008
1760.00,0.0009
1759.00,0.0010
1758.00,0.0010
1757.00,0.0010
1756.00,0.0011
1755.00,0.0011
1754.00,0.0012
1753.00,0.0012
1752.00,0.0013
1751.00,0.0014
1750.00,0.0014
1749.00,0.0014
1748.00,0.0015
1747.00,0.0015
1746.00,0.0015
1745.00,0.0016
1744.00,0.0016
1743.00,0.0016
1742.00,0.0017
1741.00,0.0017
1740.00,0.0018
1739.00,0.0018
1738.00,0.0018
1737.00,0.0018
1736.00,0.0018
1735.00,0.0017
1734.00,0.0017
1733.00,0.0017
1732.00,0.0017
1731.00,0.0017
1730.00,0.0016
1729.00,0.0016
1728.00,0.0017
1727.00,0.0017
1726.00,0.0017
1725.00,0.0018
1724.00,0.0018
1723.00,0.0018
1722.00,0.0018
1721.00,0.0018
1720.00,0.0018
1719.00,0.0018
1718.00,0.0018
1717.00,0.0019
1716.00,0.0019
1715.00,0.0020
1714.00,0.0020
1713.00,0.0020
1712.00,0.0021
1711.00,0.0021
1710.00,0.0021
1709.00,0.0020
1708.00,0.0020
1707.00,0.0020
1706.00,0.0020
1705.00,0.0020
1704.00,0.0020
1703.00,0.0020
1702.00,0.0020
1701.00,0.0020
1700.00,0.0021
1699.00,0.0021
1698.00,0.0021
1697.00,0.0021
1696.00,0.0022
1695.00,0.0022
1694.00,0.0022
1693.00,0.0022
1692.00,0.0022
1691.00,0.0022
1690.00,0.0022
1689.00,0.0022
1688.00,0.0023
1687.00,0.0023
1686.00,0.0024
1685.00,0.0024
1684.00,0.0023
1683.00,0.0023
1682.00,0.0023
1681.00,0.0024
1680.00,0.0024
1679.00,0.0025
1678.00,0.0025
1677.00,0.0025
1676.00,0.0025
1675.00,0.0025
1674.00,0.0025
1673.00,0.0025
1672.00,0.0025
1671.00,0.0025
1670.00,0.0025
1669.00,0.0025
1668.00,0.0025
1667.00,0.0025
1666.00,0.0025
1665.00,0.0025
1664.00,0.0026
1663.00,0.0026
1662.00,0.0027
1661.00,0.0028
1660.00,0.0028
1659.00,0.0028
1658.00,0.0028
1657.00,0.0029
1656.00,0.0029
1655.00,0.0030
1654.00,0.0030
1653.00,0.0031
1652.00,0.0032
1651.00,0.0032
1650.00,0.0033
1649.00,0.0033
1648.00,0.0034
1647.00,0.0034
1646.00,0.0034
1645.00,0.0035
1644.00,0.0035
1643.00,0.0035
1642.00,0.0034
1641.00,0.0034
1640.00,0.0035
1639.00,0.0035
1638.00,0.0035
1637.00,0.0035
1636.00,0.0036
1635.00,0.0036
1634.00,0.0036
1633.00,0.0035
1632.00,0.0035
1631.00,0.0035
1630.00,0.0035
1629.00,0.0035
1628.00,0.0034
1627.00,0.0034
1626.00,0.0033
1625.00,0.0033
1624.00,0.0033
1623.00,0.0033
1622.00,0.0033
1621.00,0.0033
1620.00,0.0033
1619.00,0.0033
1618.00,0.0033
1617.00,0.0033
1616.00,0.0033
1615.00,0.0033
1614.00,0.0032
1613.00,0.0032
1612.00,0.0033
1611.00,0.0033
1610.00,0.0033
1609.00,0.0033
1608.00,0.0033
1607.00,0.0033
1606.00,0.0032
1605.00,0.0032
1604.00,0.0032
1603.00,0.0032
1602.00,0.0032
1601.00,0.0032
1600.00,0.0032
1599.00,0.0032
1598.00,0.0031
1597.00,0.0031
1596.00,0.0031
1595.00,0.0031
1594.00,0.0031
1593.00,0.0031
1592.00,0.0031
1591.00,0.0031
1590.00,0.0030
1589.00,0.0030
1588.00,0.0030
1587.00,0.0030
1586.00,0.0030
1585.00,0.0030
1584.00,0.0030
1583.00,0.0030
1582.00,0.0030
1581.00,0.0030
1580.00,0.0030
1579.00,0.0030
1578.00,0.0030
1577.00,0.0029
1576.00,0.0029
1575.00,0.0029
1574.00,0.0029
1573.00,0.0030
1572.00,0.0030
1571.00,0.0031
1570.00,0.0031
1569.00,0.0031
1568.00,0.0032
1567.00,0.0033
1566.00,0.0033
1565.00,0.0034
1564.00,0.0034
1563.00,0.0035
1562.00,0.0035
1561.00,0.0035
1560.00,0.0035
1559.00,0.0034
1558.00,0.0034
1557.00,0.0036
1556.00,0.0036
1555.00,0.0037
1554.00,0.0037
1553.00,0.0037
1552.00,0.0037
1551.00,0.0037
1550.00,0.0036
1549.00,0.0036
1548.00,0.0036
1547.00,0.0036
1546.00,0.0036
1545.00,0.0037
1544.00,0.0037
1543.00,0.0038
1542.00,0.0038
1541.00,0.0037
1540.00,0.0038
1539.00,0.0037
1538.00,0.0037
1537.00,0.0037
1536.00,0.0037
1535.00,0.0037
1534.00,0.0037
1533.00,0.0038
1532.00,0.0038
1531.00,0.0038
1530.00,0.0038
1529.00,0.0038
1528.00,0.0038
1527.00,0.0038
1526.00,0.0037
1525.00,0.0037
1524.00,0.0038
1523.00,0.0038
1522.00,0.0038
1521.00,0.0039
1520.00,0.0040
1519.00,0.0040
1518.00,0.0040
1517.00,0.0040
1516.00,0.0040
1515.00,0.0040
1514.00,0.0040
1513.00,0.0041
1512.00,0.0042
1511.00,0.0043
1510.00,0.0044
1509.00,0.0045
1508.00,0.0047
1507.00,0.0047
1506.00,0.0048
1505.00,0.0049
1504.00,0.0050
1503.00,0.0051
1502.00,0.0052
1501.00,0.0054
1500.00,0.0057
1499.00,0.0059
1498.00,0.0061
1497.00,0.0064
1496.00,0.0068
1495.00,0.0071
1494.00,0.0073
1493.00,0.0076
1492.00,0.0079
1491.00,0.0081
1490.00,0.0084
1489.00,0.0089
1488.00,0.0094
1487.00,0.0098
1486.00,0.0102
1485.00,0.0107
1484.00,0.0114
1483.00,0.0120
1482.00,0.0128
1481.00,0.0138
1480.00,0.0150
1479.00,0.0161
1478.00,0.0175
1477.00,0.0194
1476.00,0.0216
1475.00,0.0241
1474.00,0.0277
1473.00,0.0331
1472.00,0.0398
1471.00,0.0465
1470.00,0.0530
1469.00,0.0598
1468.00,0.0673
1467.00,0.0755
1466.00,0.0851
1465.00,0.0955
1464.00,0.1048
1463.00,0.1116
1462.00,0.1161
1461.00,0.1194
1460.00,0.1217
1459.00,0.1231
1458.00,0.1241
1457.00,0.1247
1456.00,0.1245
1455.00,0.1237
1454.00,0.1226
1453.00,0.1209
1452.00,0.1182
1451.00,0.1141
1450.00,0.1085
1449.00,0.1006
1448.00,0.0907
1447.00,0.0803
1446.00,0.0710
1445.00,0.0631
1444.00,0.0565
1443.00,0.0512
1442.00,0.0473
1441.00,0.0448
1440.00,0.0434
1439.00,0.0431
1438.00,0.0437
1437.00,0.0444
1436.00,0.0438
1435.00,0.0412
1434.00,0.0370
1433.00,0.0320
1432.00,0.0268
1431.00,0.0222
1430.00,0.0188
1429.00,0.0163
1428.00,0.0147
1427.00,0.0137
1426.00,0.0131
1425.00,0.0126
1424.00,0.0120
1423.00,0.0117
1422.00,0.0115
1421.00,0.0112
1420.00,0.0109
1419.00,0.0106
1418.00,0.0105
1417.00,0.0103
1416.00,0.0102
1415.00,0.0101
1414.00,0.0101
1413.00,0.0100
1412.00,0.0099
1411.00,0.0098
1410.00,0.0099
1409.00,0.0098
1408.00,0.0098
1407.00,0.0098
1406.00,0.0099
1405.00,0.0099
1404.00,0.0099
1403.00,0.0100
1402.00,0.0103
1401.00,0.0104
1400.00,0.0106
1399.00,0.0109
1398.00,0.0113
1397.00,0.0115
1396.00,0.0117
1395.00,0.0122
1394.00,0.0128
1393.00,0.0133
1392.00,0.0139
1391.00,0.0148
1390.00,0.0161
1389.00,0.0179
1388.00,0.0206
1387.00,0.0245
1386.00,0.0297
1385.00,0.0361
1384.00,0.0445
1383.00,0.0559
1382.00,0.0711
1381.00,0.0908
1380.00,0.1161
1379.00,0.1468
1378.00,0.1791
1377.00,0.2064
1376.00,0.2205
1375.00,0.2153
1374.00,0.1915
1373.00,0.1590
1372.00,0.1276
1371.00,0.1010
1370.00,0.0796
1369.00,0.0634
1368.00,0.0524
1367.00,0.0456
1366.00,0.0421
1365.00,0.0407
1364.00,0.0411
1363.00,0.0429
1362.00,0.0456
1361.00,0.0486
1360.00,0.0508
1359.00,0.0515
1358.00,0.0502
1357.00,0.0469
1356.00,0.0423
1355.00,0.0371
1354.00,0.0321
1353.00,0.0278
1352.00,0.0244
1351.00,0.0217
1350.00,0.0195
1349.00,0.0178
1348.00,0.0165
1347.00,0.0154
1346.00,0.0145
1345.00,0.0138
1344.00,0.0132
1343.00,0.0128
1342.00,0.0125
1341.00,0.0123
1340.00,0.0121
1339.00,0.0118
1338.00,0.0117
1337.00,0.0116
1336.00,0.0117
1335.00,0.0120
1334.00,0.0123
1333.00,0.0129
1332.00,0.0134
1331.00,0.0139
1330.00,0.0141
1329.00,0.0140
1328.00,0.0135
1327.00,0.0129
1326.00,0.0122
1325.00,0.0114
1324.00,0.0106
1323.00,0.0100
1322.00,0.0095
1321.00,0.0091
1320.00,0.0089
1319.00,0.0087
1318.00,0.0084
1317.00,0.0082
1316.00,0.0080
1315.00,0.0079
1314.00,0.0079
1313.00,0.0079
1312.00,0.0080
1311.00,0.0081
1310.00,0.0084
1309.00,0.0089
1308.00,0.0096
1307.00,0.0105
1306.00,0.0113
1305.00,0.0120
1304.00,0.0122
1303.00,0.0122
1302.00,0.0120
1301.00,0.0118
1300.00,0.0118
1299.00,0.0120
1298.00,0.0122
1297.00,0.0124
1296.00,0.0124
1295.00,0.0123
1294.00,0.0119
1293.00,0.0113
1292.00,0.0107
1291.00,0.0101
1290.00,0.0096
1289.00,0.0091
1288.00,0.0087
1287.00,0.0084
1286.00,0.0081
1285.00,0.0079
1284.00,0.0077
1283.00,0.0076
1282.00,0.0075
1281.00,0.0074
1280.00,0.0072
1279.00,0.0071
1278.00,0.0070
1277.00,0.0069
1276.00,0.0069
1275.00,0.0069
1274.00,0.0069
1273.00,0.0069
1272.00,0.0068
1271.00,0.0068
1270.00,0.0068
1269.00,0.0068
1268.00,0.0069
1267.00,0.0070
1266.00,0.0071
1265.00,0.0072
1264.00,0.0073
1263.00,0.0075
1262.00,0.0077
1261.00,0.0081
1260.00,0.0086
1259.00,0.0092
1258.00,0.0097
1257.00,0.0102
1256.00,0.0104
1255.00,0.0103
1254.00,0.0100
1253.00,0.0094
1252.00,0.0089
1251.00,0.0084
1250.00,0.0080
1249.00,0.0078
1248.00,0.0077
1247.00,0.0076
1246.00,0.0075
1245.00,0.0074
1244.00,0.0074
1243.00,0.0074
1242.00,0.0073
1241.00,0.0073
1240.00,0.0072
1239.00,0.0071
1238.00,0.0071
1237.00,0.0070
1236.00,0.0070
1235.00,0.0070
1234.00,0.0070
1233.00,0.0070
1232.00,0.0070
1231.00,0.0071
1230.00,0.0071
1229.00,0.0072
1228.00,0.0073
1227.00,0.0075
1226.00,0.0077
1225.00,0.0080
1224.00,0.0083
1223.00,0.0087
1222.00,0.0091
1221.00,0.0094
1220.00,0.0096
1219.00,0.0097
1218.00,0.0097
1217.00,0.0095
1216.00,0.0092
1215.00,0.0089
1214.00,0.0085
1213.00,0.0082
1212.00,0.0078
1211.00,0.0075
1210.00,0.0072
1209.00,0.0070
1208.00,0.0068
1207.00,0.0067
1206.00,0.0067
1205.00,0.0067
1204.00,0.0067
1203.00,0.0066
1202.00,0.0066
1201.00,0.0066
1200.00,0.0066
1199.00,0.0066
1198.00,0.0066
1197.00,0.0066
1196.00,0.0065
1195.00,0.0065
1194.00,0.0065
1193.00,0.0064
1192.00,0.0064
1191.00,0.0064
1190.00,0.0063
1189.00,0.0063
1188.00,0.0063
1187.00,0.0063
1186.00,0.0064
1185.00,0.0066
1184.00,0.0067
1183.00,0.0067
1182.00,0.0068
1181.00,0.0069
1180.00,0.0072
1179.00,0.0075
1178.00,0.0080
1177.00,0.0086
1176.00,0.0094
1175.00,0.0106
1174.00,0.0121
1173.00,0.0140
1172.00,0.0163
1171.00,0.0189
1170.00,0.0215
1169.00,0.0237
1168.00,0.0251
1167.00,0.0257
1166.00,0.0253
1165.00,0.0245
1164.00,0.0233
1163.00,0.0221
1162.00,0.0210
1161.00,0.0201
1160.00,0.0193
1159.00,0.0188
1158.00,0.0184
1157.00,0.0181
1156.00,0.0180
1155.00,0.0179
1154.00,0.0179
1153.00,0.0177
1152.00,0.0173
1151.00,0.0167
1150.00,0.0160
1149.00,0.0151
1148.00,0.0141
1147.00,0.0132
1146.00,0.0123
1145.00,0.0116
1144.00,0.0109
1143.00,0.0102
1142.00,0.0096
1141.00,0.0090
1140.00,0.0085
1139.00,0.0081
1138.00,0.0077
1137.00,0.0074
1136.00,0.0072
1135.00,0.0070
1134.00,0.0068
1133.00,0.0067
1132.00,0.0066
1131.00,0.0065
1130.00,0.0065
1129.00,0.0065
1128.00,0.0066
1127.00,0.0066
1126.00,0.0067
1125.00,0.0067
1124.00,0.0066
1123.00,0.0065
1122.00,0.0064
1121.00,0.0064
1120.00,0.0064
1119.00,0.0065
1118.00,0.0067
1117.00,0.0068
1116.00,0.0069
1115.00,0.0071
1114.00,0.0072
1113.00,0.0074
1112.00,0.0076
1111.00,0.0078
1110.00,0.0082
1109.00,0.0086
1108.00,0.0093
1107.00,0.0100
1106.00,0.0109
1105.00,0.0117
1104.00,0.0124
1103.00,0.0129
1102.00,0.0130
1101.00,0.0127
1100.00,0.0122
1099.00,0.0115
1098.00,0.0108
1097.00,0.0100
1096.00,0.0093
1095.00,0.0088
1094.00,0.0083
1093.00,0.0080
1092.00,0.0077
1091.00,0.0074
1090.00,0.0073
1089.00,0.0071
1088.00,0.0071
1087.00,0.0071
1086.00,0.0070
1085.00,0.0069
1084.00,0.0068
1083.00,0.0067
1082.00,0.0067
1081.00,0.0067
1080.00,0.0067
1079.00,0.0065
1078.00,0.0064
1077.00,0.0062
1076.00,0.0061
1075.00,0.0060
1074.00,0.0059
1073.00,0.0060
1072.00,0.0060
1071.00,0.0060
1070.00,0.0060
1069.00,0.0061
1068.00,0.0061
1067.00,0.0062
1066.00,0.0062
1065.00,0.0063
1064.00,0.0063
1063.00,0.0064
1062.00,0.0064
1061.00,0.0065
1060.00,0.0065
1059.00,0.0066
1058.00,0.0065
1057.00,0.0065
1056.00,0.0065
1055.00,0.0065
1054.00,0.0065
1053.00,0.0065
1052.00,0.0066
1051.00,0.0068
1050.00,0.0069
1049.00,0.0071
1048.00,0.0073
1047.00,0.0075
1046.00,0.0078
1045.00,0.0079
1044.00,0.0079
1043.00,0.0079
1042.00,0.0078
1041.00,0.0078
1040.00,0.0077
1039.00,0.0077
1038.00,0.0077
1037.00,0.0077
1036.00,0.0078
1035.00,0.0078
1034.00,0.0078
1033.00,0.0077
1032.00,0.0076
1031.00,0.0075
1030.00,0.0075
1029.00,0.0074
1028.00,0.0074
1027.00,0.0074
1026.00,0.0074
1025.00,0.0074
1024.00,0.0075
1023.00,0.0075
1022.00,0.0075
1021.00,0.0075
1020.00,0.0075
1019.00,0.0076
1018.00,0.0078
1017.00,0.0080
1016.00,0.0081
1015.00,0.0083
1014.00,0.0085
1013.00,0.0088
1012.00,0.0092
1011.00,0.0095
1010.00,0.0098
1009.00,0.0101
1008.00,0.0105
1007.00,0.0110
1006.00,0.0117
1005.00,0.0126
1004.00,0.0138
1003.00,0.0154
1002.00,0.0173
1001.00,0.0198
1000.00,0.0224
999.00,0.0246
998.00,0.0256
997.00,0.0251
996.00,0.0231
995.00,0.0203
994.00,0.0175
993.00,0.0149
992.00,0.0129
991.00,0.0115
990.00,0.0105
989.00,0.0098
988.00,0.0094
987.00,0.0093
986.00,0.0093
985.00,0.0095
984.00,0.0099
983.00,0.0106
982.00,0.0115
981.00,0.0129
980.00,0.0148
979.00,0.0173
978.00,0.0204
977.00,0.0239
976.00,0.0275
975.00,0.0308
974.00,0.0330
973.00,0.0337
972.00,0.0324
971.00,0.0295
970.00,0.0256
969.00,0.0216
968.00,0.0182
967.00,0.0154
966.00,0.0135
965.00,0.0120
964.00,0.0110
963.00,0.0101
962.00,0.0094
961.00,0.0088
960.00,0.0084
959.00,0.0080
958.00,0.0078
957.00,0.0076
956.00,0.0075
955.00,0.0074
954.00,0.0073
953.00,0.0073
952.00,0.0071
951.00,0.0070
950.00,0.0070
949.00,0.0070
948.00,0.0071
947.00,0.0074
946.00,0.0077
945.00,0.0081
944.00,0.0085
943.00,0.0089
942.00,0.0093
941.00,0.0095
940.00,0.0094
939.00,0.0091
938.00,0.0086
937.00,0.0079
936.00,0.0074
935.00,0.0069
934.00,0.0066
933.00,0.0064
932.00,0.0062
931.00,0.0060
930.00,0.0059
929.00,0.0058
928.00,0.0058
927.00,0.0058
926.00,0.0059
925.00,0.0059
924.00,0.0059
923.00,0.0059
922.00,0.0060
921.00,0.0061
920.00,0.0063
919.00,0.0065
918.00,0.0067
917.00,0.0069
916.00,0.0069
915.00,0.0069
914.00,0.0068
913.00,0.0067
912.00,0.0067
911.00,0.0068
910.00,0.0070
909.00,0.0072
908.00,0.0075
907.00,0.0079
906.00,0.0087
905.00,0.0099
904.00,0.0116
903.00,0.0138
902.00,0.0163
901.00,0.0186
900.00,0.0201
899.00,0.0205
898.00,0.0197
897.00,0.0179
896.00,0.0156
895.00,0.0133
894.00,0.0114
893.00,0.0100
892.00,0.0091
891.00,0.0084
890.00,0.0080
889.00,0.0075
888.00,0.0072
887.00,0.0068
886.00,0.0065
885.00,0.0063
884.00,0.0063
883.00,0.0064
882.00,0.0065
881.00,0.0066
880.00,0.0066
879.00,0.0065
878.00,0.0063
877.00,0.0062
876.00,0.0062
875.00,0.0062
874.00,0.0063
873.00,0.0064
872.00,0.0064
871.00,0.0066
870.00,0.0067
869.00,0.0067
868.00,0.0067
867.00,0.0067
866.00,0.0067
865.00,0.0067
864.00,0.0068
863.00,0.0070
862.00,0.0071
861.00,0.0074
860.00,0.0076
859.00,0.0078
858.00,0.0079
857.00,0.0080
856.00,0.0080
855.00,0.0080
854.00,0.0081
853.00,0.0083
852.00,0.0086
851.00,0.0089
850.00,0.0093
849.00,0.0098
848.00,0.0104
847.00,0.0114
846.00,0.0129
845.00,0.0152
844.00,0.0182
843.00,0.0215
842.00,0.0239
841.00,0.0244
840.00,0.0227
839.00,0.0198
838.00,0.0166
837.00,0.0141
836.00,0.0124
835.00,0.0114
834.00,0.0108
833.00,0.0104
832.00,0.0100
831.00,0.0098
830.00,0.0097
829.00,0.0096
828.00,0.0095
827.00,0.0094
826.00,0.0095
825.00,0.0096
824.00,0.0096
823.00,0.0096
822.00,0.0096
821.00,0.0097
820.00,0.0099
819.00,0.0102
818.00,0.0107
817.00,0.0114
816.00,0.0124
815.00,0.0136
814.00,0.0153
813.00,0.0171
812.00,0.0192
811.00,0.0210
810.00,0.0225
809.00,0.0232
808.00,0.0230
807.00,0.0219
806.00,0.0201
805.00,0.0180
804.00,0.0160
803.00,0.0143
802.00,0.0130
801.00,0.0121
800.00,0.0114
799.00,0.0108
798.00,0.0102
797.00,0.0097
796.00,0.0092
795.00,0.0089
794.00,0.0085
793.00,0.0081
792.00,0.0078
791.00,0.0076
790.00,0.0076
789.00,0.0075
788.00,0.0073
787.00,0.0069
786.00,0.0066
785.00,0.0063
784.00,0.0061
783.00,0.0059
782.00,0.0057
781.00,0.0056
780.00,0.0055
779.00,0.0055
778.00,0.0055
777.00,0.0056
776.00,0.0057
775.00,0.0058
774.00,0.0060
773.00,0.0061
772.00,0.0062
771.00,0.0064
770.00,0.0066
769.00,0.0068
768.00,0.0070
767.00,0.0070
766.00,0.0069
765.00,0.0068
764.00,0.0066
763.00,0.0065
762.00,0.0063
761.00,0.0061
760.00,0.0058
759.00,0.0054
758.00,0.0051
757.00,0.0049
756.00,0.0048
755.00,0.0047
754.00,0.0047
753.00,0.0047
752.00,0.0048
751.00,0.0048
750.00,0.0048
749.00,0.0047
748.00,0.0046
747.00,0.0046
746.00,0.0046
745.00,0.0047
744.00,0.0049
743.00,0.0050
742.00,0.0051
741.00,0.0051
740.00,0.0052
739.00,0.0054
738.00,0.0055
737.00,0.0056
736.00,0.0057
735.00,0.0058
734.00,0.0057
733.00,0.0057
732.00,0.0056
731.00,0.0055
730.00,0.0055
729.00,0.0054
728.00,0.0053
727.00,0.0053
726.00,0.0053
725.00,0.0053
724.00,0.0053
723.00,0.0053
722.00,0.0053
721.00,0.0051
720.00,0.0049
719.00,0.0047
718.00,0.0046
717.00,0.0045
716.00,0.0045
715.00,0.0044
714.00,0.0045
713.00,0.0045
712.00,0.0045
711.00,0.0045
710.00,0.0046
709.00,0.0047
708.00,0.0049
707.00,0.0051
706.00,0.0052
705.00,0.0051
704.00,0.0050
703.00,0.0048
702.00,0.0046
701.00,0.0046
700.00,0.0047
699.00,0.0048
698.00,0.0048
697.00,0.0047
696.00,0.0046
695.00,0.0045
694.00,0.0045
693.00,0.0045
692.00,0.0045
691.00,0.0045
690.00,0.0045
689.00,0.0044
688.00,0.0043
687.00,0.0043
686.00,0.0043
685.00,0.0043
684.00,0.0043
683.00,0.0043
682.00,0.0044
681.00,0.0044
680.00,0.0043
679.00,0.0043
678.00,0.0044
677.00,0.0047
676.00,0.0049
675.00,0.0051
674.00,0.0052
673.00,0.0053
672.00,0.0052
671.00,0.0051
670.00,0.0051
669.00,0.0051
668.00,0.0049
667.00,0.0046
666.00,0.0043
665.00,0.0042
664.00,0.0043
663.00,0.0046
662.00,0.0048
661.00,0.0048
660.00,0.0047
659.00,0.0046
658.00,0.0045
657.00,0.0044
656.00,0.0042
655.00,0.0041
654.00,0.0041
653.00,0.0042
652.00,0.0043
651.00,0.0043
650.00,0.0043
649.00,0.0043
648.00,0.0043
647.00,0.0043
646.00,0.0044
645.00,0.0044
644.00,0.0044
643.00,0.0043
642.00,0.0042
641.00,0.0043
640.00,0.0044
639.00,0.0046
638.00,0.0045
637.00,0.0044
636.00,0.0043
635.00,0.0043
634.00,0.0044
633.00,0.0046
632.00,0.0047
631.00,0.0049
630.00,0.0050
629.00,0.0049
628.00,0.0048
627.00,0.0048
626.00,0.0048
625.00,0.0047
624.00,0.0045
623.00,0.0044
622.00,0.0044
621.00,0.0045
620.00,0.0045
619.00,0.0047
618.00,0.0048
617.00,0.0049
616.00,0.0048
615.00,0.0048
614.00,0.0049
613.00,0.0052
612.00,0.0055
611.00,0.0054
610.00,0.0052
609.00,0.0051
608.00,0.0051
607.00,0.0050
606.00,0.0048
605.00,0.0048
604.00,0.0049
603.00,0.0050
602.00,0.0048
601.00,0.0045
600.00,0.0044
599.00,0.0046
598.00,0.0049
597.00,0.0051
596.00,0.0052
595.00,0.0052
594.00,0.0052
593.00,0.0052
592.00,0.0050
591.00,0.0047
590.00,0.0046
589.00,0.0047
588.00,0.0047
587.00,0.0049
586.00,0.0053
585.00,0.0057
584.00,0.0059
583.00,0.0060
582.00,0.0060
581.00,0.0061
580.00,0.0061
579.00,0.0058
578.00,0.0053
577.00,0.0049
576.00,0.0049
575.00,0.0050
574.00,0.0052
573.00,0.0054
572.00,0.0057
571.00,0.0060
570.00,0.0060
569.00,0.0058
568.00,0.0057
567.00,0.0057
566.00,0.0058
565.00,0.0057
564.00,0.0056
563.00,0.0057
562.00,0.0057
561.00,0.0055
560.00,0.0051
559.00,0.0046
558.00,0.0044
557.00,0.0044
556.00,0.0045
555.00,0.0047
554.00,0.0050
553.00,0.0051
552.00,0.0050
551.00,0.0047
550.00,0.0046
549.00,0.0050
548.00,0.0054
547.00,0.0054
546.00,0.0052
545.00,0.0051
544.00,0.0052
543.00,0.0051
542.00,0.0048
541.00,0.0047
540.00,0.0050
539.00,0.0056
538.00,0.0059
537.00,0.0061
536.00,0.0065
535.00,0.0072
534.00,0.0077
533.00,0.0079
532.00,0.0080
531.00,0.0082
530.00,0.0083
529.00,0.0081
528.00,0.0075
527.00,0.0070
526.00,0.0069
525.00,0.0067
524.00,0.0064
523.00,0.0061
522.00,0.0063
521.00,0.0065
520.00,0.0065
519.00,0.0061
518.00,0.0057
517.00,0.0054
516.00,0.0052
515.00,0.0051
514.00,0.0053
513.00,0.0059
512.00,0.0067
511.00,0.0071
510.00,0.0069
509.00,0.0066
508.00,0.0063
507.00,0.0060
506.00,0.0055
505.00,0.0054
504.00,0.0058
503.00,0.0064
502.00,0.0065
501.00,0.0061
500.00,0.0062
499.00,0.0070
498.00,0.0078
497.00,0.0076
496.00,0.0067
495.00,0.0059
494.00,0.0059
493.00,0.0061
492.00,0.0060
491.00,0.0057
490.00,0.0058
489.00,0.0059
488.00,0.0054
487.00,0.0045
486.00,0.0037
485.00,0.0036
484.00,0.0039
483.00,0.0041
482.00,0.0042
481.00,0.0046
480.00,0.0051
479.00,0.0054
478.00,0.0056
477.00,0.0062
476.00,0.0070
475.00,0.0073
474.00,0.0066
473.00,0.0055
472.00,0.0055
471.00,0.0066
470.00,0.0077
469.00,0.0081
468.00,0.0084
467.00,0.0091
466.00,0.0101
465.00,0.0112
464.00,0.0124
463.00,0.0142
462.00,0.0162
461.00,0.0176
460.00,0.0181
459.00,0.0179
458.00,0.0175
457.00,0.0169
456.00,0.0159
455.00,0.0147
454.00,0.0132
453.00,0.0115
452.00,0.0094
451.00,0.0075
450.00,0.0065
