Created as New Dataset,Sample 217 By Administrator Date Tuesday, September 09 2025
cm-1,A
4000.00,0.0011
3999.00,0.0011
3998.00,0.0011
3997.00,0.0012
3996.00,0.0012
3995.00,0.0012
3994.00,0.0012
3993.00,0.0012
3992.00,0.0011
3991.00,0.0011
3990.00,0.0011
3989.00,0.0011
3988.00,0.0011
3987.00,0.0010
3986.00,0.0010
3985.00,0.0010
3984.00,0.0010
3983.00,0.0010
3982.00,0.0010
3981.00,0.0010
3980.00,0.0010
3979.00,0.0009
3978.00,0.0009
3977.00,0.0009
3976.00,0.0009
3975.00,0.0009
3974.00,0.0009
3973.00,0.0009
3972.00,0.0009
3971.00,0.0009
3970.00,0.0009
3969.00,0.0009
3968.00,0.0009
3967.00,0.0010
3966.00,0.0010
3965.00,0.0010
3964.00,0.0010
3963.00,0.0010
3962.00,0.0010
3961.00,0.0009
3960.00,0.0009
3959.00,0.0009
3958.00,0.0009
3957.00,0.0009
3956.00,0.0009
3955.00,0.0009
3954.00,0.0009
3953.00,0.0009
3952.00,0.0009
3951.00,0.0009
3950.00,0.0009
3949.00,0.0009
3948.00,0.0009
3947.00,0.0009
3946.00,0.0009
3945.00,0.0009
3944.00,0.0009
3943.00,0.0009
3942.00,0.0009
3941.00,0.0009
3940.00,0.0010
3939.00,0.0010
3938.00,0.0010
3937.00,0.0010
3936.00,0.0010
3935.00,0.0010
3934.00,0.0010
3933.00,0.0010
3932.00,0.0010
3931.00,0.0010
3930.00,0.0010
3929.00,0.0010
3928.00,0.0010
3927.00,0.0009
3926.00,0.0009
3925.00,0.0009
3924.00,0.0009
3923.00,0.0009
3922.00,0.0010
3921.00,0.0010
3920.00,0.0010
3919.00,0.0010
3918.00,0.0011
3917.00,0.0011
3916.00,0.0011
3915.00,0.0011
3914.00,0.0010
3913.00,0.0010
3912.00,0.0009
3911.00,0.0009
3910.00,0.0009
3909.00,0.0009
3908.00,0.0009
3907.00,0.0009
3906.00,0.0009
3905.00,0.0009
3904.00,0.0009
3903.00,0.0010
3902.00,0.0011
3901.00,0.0011
3900.00,0.0011
3899.00,0.0011
3898.00,0.0010
3897.00,0.0010
3896.00,0.0010
3895.00,0.0010
3894.00,0.0010
3893.00,0.0010
3892.00,0.0010
3891.00,0.0010
3890.00,0.0010
3889.00,0.0011
3888.00,0.0011
3887.00,0.0011
3886.00,0.0010
3885.00,0.0010
3884.00,0.0010
3883.00,0.0010
3882.00,0.0010
3881.00,0.0010
3880.00,0.0010
3879.00,0.0010
3878.00,0.0009
3877.00,0.0009
3876.00,0.0009
3875.00,0.0010
3874.00,0.0010
3873.00,0.0010
3872.00,0.0010
3871.00,0.0010
3870.00,0.0009
3869.00,0.0009
3868.00,0.0009
3867.00,0.0009
3866.00,0.0009
3865.00,0.0009
3864.00,0.0009
3863.00,0.0009
3862.00,0.0009
3861.00,0.0009
3860.00,0.0010
3859.00,0.0010
3858.00,0.0010
3857.00,0.0010
3856.00,0.0010
3855.00,0.0010
3854.00,0.0010
3853.00,0.0010
3852.00,0.0010
3851.00,0.0010
3850.00,0.0010
3849.00,0.0009
3848.00,0.0009
3847.00,0.0009
3846.00,0.0009
3845.00,0.0009
3844.00,0.0008
3843.00,0.0008
3842.00,0.0007
3841.00,0.0008
3840.00,0.0008
3839.00,0.0009
3838.00,0.0009
3837.00,0.0010
3836.00,0.0010
3835.00,0.0010
3834.00,0.0009
3833.00,0.0009
3832.00,0.0009
3831.00,0.0009
3830.00,0.0009
3829.00,0.0008
3828.00,0.0008
3827.00,0.0008
3826.00,0.0009
3825.00,0.0010
3824.00,0.0010
3823.00,0.0010
3822.00,0.0010
3821.00,0.0010
3820.00,0.0010
3819.00,0.0010
3818.00,0.0010
3817.00,0.0010
3816.00,0.0010
3815.00,0.0010
3814.00,0.0010
3813.00,0.0010
3812.00,0.0010
3811.00,0.0010
3810.00,0.0010
3809.00,0.0010
3808.00,0.0010
3807.00,0.0009
3806.00,0.0009
3805.00,0.0009
3804.00,0.0009
3803.00,0.0009
3802.00,0.0008
3801.00,0.0009
3800.00,0.0009
3799.00,0.0009
3798.00,0.0009
3797.00,0.0009
3796.00,0.0009
3795.00,0.0009
3794.00,0.0010
3793.00,0.0010
3792.00,0.0010
3791.00,0.0010
3790.00,0.0010
3789.00,0.0010
3788.00,0.0010
3787.00,0.0009
3786.00,0.0009
3785.00,0.0009
3784.00,0.0010
3783.00,0.0010
3782.00,0.0010
3781.00,0.0010
3780.00,0.0010
3779.00,0.0010
3778.00,0.0010
3777.00,0.0010
3776.00,0.0010
3775.00,0.0010
3774.00,0.0010
3773.00,0.0010
3772.00,0.0010
3771.00,0.0010
3770.00,0.0009
3769.00,0.0009
3768.00,0.0010
3767.00,0.0010
3766.00,0.0010
3765.00,0.0010
3764.00,0.0010
3763.00,0.0010
3762.00,0.0010
3761.00,0.0009
3760.00,0.0009
3759.00,0.0009
3758.00,0.0010
3757.00,0.0010
3756.00,0.0011
3755.00,0.0011
3754.00,0.0011
3753.00,0.0010
3752.00,0.0009
3751.00,0.0009
3750.00,0.0009
3749.00,0.0010
3748.00,0.0010
3747.00,0.0010
3746.00,0.0010
3745.00,0.0009
3744.00,0.0008
3743.00,0.0009
3742.00,0.0009
3741.00,0.0009
3740.00,0.0009
3739.00,0.0009
3738.00,0.0009
3737.00,0.0008
3736.00,0.0008
3735.00,0.0008
3734.00,0.0008
3733.00,0.0008
3732.00,0.0008
3731.00,0.0008
3730.00,0.0009
3729.00,0.0009
3728.00,0.0009
3727.00,0.0009
3726.00,0.0009
3725.00,0.0009
3724.00,0.0010
3723.00,0.0010
3722.00,0.0010
3721.00,0.0009
3720.00,0.0009
3719.00,0.0009
3718.00,0.0008
3717.00,0.0008
3716.00,0.0008
3715.00,0.0008
3714.00,0.0008
3713.00,0.0008
3712.00,0.0008
3711.00,0.0008
3710.00,0.0008
3709.00,0.0008
3708.00,0.0008
3707.00,0.0007
3706.00,0.0007
3705.00,0.0007
3704.00,0.0007
3703.00,0.0008
3702.00,0.0008
3701.00,0.0008
3700.00,0.0009
3699.00,0.0009
3698.00,0.0009
3697.00,0.0009
3696.00,0.0009
3695.00,0.0010
3694.00,0.0010
3693.00,0.0010
3692.00,0.0010
3691.00,0.0010
3690.00,0.0011
3689.00,0.0013
3688.00,0.0014
3687.00,0.0015
3686.00,0.0016
3685.00,0.0016
3684.00,0.0017
3683.00,0.0018
3682.00,0.0019
3681.00,0.0020
3680.00,0.0022
3679.00,0.0023
3678.00,0.0024
3677.00,0.0026
3676.00,0.0028
3675.00,0.0030
3674.00,0.0031
3673.00,0.0032
3672.00,0.0032
3671.00,0.0032
3670.00,0.0033
3669.00,0.0033
3668.00,0.0034
3667.00,0.0035
3666.00,0.0035
3665.00,0.0036
3664.00,0.0036
3663.00,0.0037
3662.00,0.0038
3661.00,0.0038
3660.00,0.0038
3659.00,0.0039
3658.00,0.0039
3657.00,0.0039
3656.00,0.0038
3655.00,0.0038
3654.00,0.0038
3653.00,0.0037
3652.00,0.0036
3651.00,0.0035
3650.00,0.0035
3649.00,0.0035
3648.00,0.0035
3647.00,0.0034
3646.00,0.0034
3645.00,0.0033
3644.00,0.0032
3643.00,0.0031
3642.00,0.0030
3641.00,0.0029
3640.00,0.0029
3639.00,0.0029
3638.00,0.0030
3637.00,0.0029
3636.00,0.0028
3635.00,0.0025
3634.00,0.0022
3633.00,0.0020
3632.00,0.0019
3631.00,0.0019
3630.00,0.0018
3629.00,0.0017
3628.00,0.0017
3627.00,0.0017
3626.00,0.0017
3625.00,0.0017
3624.00,0.0016
3623.00,0.0016
3622.00,0.0016
3621.00,0.0016
3620.00,0.0015
3619.00,0.0015
3618.00,0.0015
3617.00,0.0015
3616.00,0.0014
3615.00,0.0014
3614.00,0.0014
3613.00,0.0015
3612.00,0.0015
3611.00,0.0015
3610.00,0.0015
3609.00,0.0014
3608.00,0.0014
3607.00,0.0015
3606.00,0.0015
3605.00,0.0015
3604.00,0.0015
3603.00,0.0015
3602.00,0.0015
3601.00,0.0015
3600.00,0.0015
3599.00,0.0016
3598.00,0.0016
3597.00,0.0016
3596.00,0.0017
3595.00,0.0017
3594.00,0.0017
3593.00,0.0017
3592.00,0.0017
3591.00,0.0017
3590.00,0.0018
3589.00,0.0018
3588.00,0.0019
3587.00,0.0019
3586.00,0.0019
3585.00,0.0019
3584.00,0.0019
3583.00,0.0019
3582.00,0.0019
3581.00,0.0019
3580.00,0.0019
3579.00,0.0019
3578.00,0.0019
3577.00,0.0020
3576.00,0.0020
3575.00,0.0020
3574.00,0.0020
3573.00,0.0020
3572.00,0.0021
3571.00,0.0021
3570.00,0.0022
3569.00,0.0022
3568.00,0.0023
3567.00,0.0023
3566.00,0.0024
3565.00,0.0024
3564.00,0.0024
3563.00,0.0024
3562.00,0.0024
3561.00,0.0024
3560.00,0.0024
3559.00,0.0024
3558.00,0.0024
3557.00,0.0025
3556.00,0.0025
3555.00,0.0025
3554.00,0.0026
3553.00,0.0026
3552.00,0.0026
3551.00,0.0027
3550.00,0.0027
3549.00,0.0027
3548.00,0.0028
3547.00,0.0029
3546.00,0.0029
3545.00,0.0030
3544.00,0.0030
3543.00,0.0030
3542.00,0.0030
3541.00,0.0030
3540.00,0.0030
3539.00,0.0030
3538.00,0.0030
3537.00,0.0030
3536.00,0.0030
3535.00,0.0030
3534.00,0.0030
3533.00,0.0030
3532.00,0.0031
3531.00,0.0031
3530.00,0.0032
3529.00,0.0032
3528.00,0.0032
3527.00,0.0033
3526.00,0.0034
3525.00,0.0034
3524.00,0.0034
3523.00,0.0035
3522.00,0.0035
3521.00,0.0035
3520.00,0.0035
3519.00,0.0035
3518.00,0.0035
3517.00,0.0035
3516.00,0.0035
3515.00,0.0035
3514.00,0.0035
3513.00,0.0036
3512.00,0.0036
3511.00,0.0037
3510.00,0.0038
3509.00,0.0038
3508.00,0.0038
3507.00,0.0038
3506.00,0.0039
3505.00,0.0039
3504.00,0.0039
3503.00,0.0040
3502.00,0.0041
3501.00,0.0041
3500.00,0.0041
3499.00,0.0041
3498.00,0.0041
3497.00,0.0042
3496.00,0.0042
3495.00,0.0042
3494.00,0.0043
3493.00,0.0043
3492.00,0.0043
3491.00,0.0044
3490.00,0.0044
3489.00,0.0044
3488.00,0.0044
3487.00,0.0044
3486.00,0.0044
3485.00,0.0045
3484.00,0.0045
3483.00,0.0046
3482.00,0.0046
3481.00,0.0047
3480.00,0.0047
3479.00,0.0047
3478.00,0.0047
3477.00,0.0047
3476.00,0.0048
3475.00,0.0048
3474.00,0.0048
3473.00,0.0048
3472.00,0.0048
3471.00,0.0048
3470.00,0.0048
3469.00,0.0048
3468.00,0.0049
3467.00,0.0050
3466.00,0.0050
3465.00,0.0051
3464.00,0.0051
3463.00,0.0051
3462.00,0.0052
3461.00,0.0052
3460.00,0.0052
3459.00,0.0053
3458.00,0.0053
3457.00,0.0053
3456.00,0.0053
3455.00,0.0053
3454.00,0.0053
3453.00,0.0053
3452.00,0.0054
3451.00,0.0054
3450.00,0.0054
3449.00,0.0054
3448.00,0.0055
3447.00,0.0055
3446.00,0.0056
3445.00,0.0056
3444.00,0.0056
3443.00,0.0056
3442.00,0.0056
3441.00,0.0057
3440.00,0.0057
3439.00,0.0057
3438.00,0.0058
3437.00,0.0058
3436.00,0.0058
3435.00,0.0059
3434.00,0.0059
3433.00,0.0059
3432.00,0.0059
3431.00,0.0059
3430.00,0.0060
3429.00,0.0060
3428.00,0.0060
3427.00,0.0060
3426.00,0.0060
3425.00,0.0061
3424.00,0.0061
3423.00,0.0061
3422.00,0.0061
3421.00,0.0061
3420.00,0.0061
3419.00,0.0061
3418.00,0.0061
3417.00,0.0061
3416.00,0.0061
3415.00,0.0061
3414.00,0.0062
3413.00,0.0062
3412.00,0.0063
3411.00,0.0063
3410.00,0.0063
3409.00,0.0064
3408.00,0.0064
3407.00,0.0065
3406.00,0.0065
3405.00,0.0065
3404.00,0.0065
3403.00,0.0065
3402.00,0.0065
3401.00,0.0065
3400.00,0.0064
3399.00,0.0064
3398.00,0.0064
3397.00,0.0064
3396.00,0.0064
3395.00,0.0065
3394.00,0.0065
3393.00,0.0065
3392.00,0.0066
3391.00,0.0066
3390.00,0.0066
3389.00,0.0066
3388.00,0.0066
3387.00,0.0066
3386.00,0.0066
3385.00,0.0067
3384.00,0.0067
3383.00,0.0067
3382.00,0.0067
3381.00,0.0067
3380.00,0.0067
3379.00,0.0067
3378.00,0.0067
3377.00,0.0067
3376.00,0.0067
3375.00,0.0067
3374.00,0.0067
3373.00,0.0068
3372.00,0.0068
3371.00,0.0068
3370.00,0.0068
3369.00,0.0068
3368.00,0.0068
3367.00,0.0068
3366.00,0.0069
3365.00,0.0069
3364.00,0.0070
3363.00,0.0070
3362.00,0.0070
3361.00,0.0070
3360.00,0.0070
3359.00,0.0069
3358.00,0.0069
3357.00,0.0069
3356.00,0.0070
3355.00,0.0070
3354.00,0.0070
3353.00,0.0070
3352.00,0.0070
3351.00,0.0070
3350.00,0.0070
3349.00,0.0070
3348.00,0.0070
3347.00,0.0070
3346.00,0.0070
3345.00,0.0070
3344.00,0.0070
3343.00,0.0070
3342.00,0.0070
3341.00,0.0070
3340.00,0.0070
3339.00,0.0069
3338.00,0.0069
3337.00,0.0069
3336.00,0.0069
3335.00,0.0069
3334.00,0.0069
3333.00,0.0069
3332.00,0.0069
3331.00,0.0069
3330.00,0.0069
3329.00,0.0069
3328.00,0.0069
3327.00,0.0068
3326.00,0.0068
3325.00,0.0068
3324.00,0.0067
3323.00,0.0068
3322.00,0.0068
3321.00,0.0068
3320.00,0.0069
3319.00,0.0069
3318.00,0.0069
3317.00,0.0069
3316.00,0.0069
3315.00,0.0069
3314.00,0.0068
3313.00,0.0068
3312.00,0.0067
3311.00,0.0067
3310.00,0.0067
3309.00,0.0067
3308.00,0.0067
3307.00,0.0067
3306.00,0.0066
3305.00,0.0066
3304.00,0.0066
3303.00,0.0066
3302.00,0.0066
3301.00,0.0066
3300.00,0.0066
3299.00,0.0066
3298.00,0.0065
3297.00,0.0065
3296.00,0.0065
3295.00,0.0065
3294.00,0.0065
3293.00,0.0065
3292.00,0.0065
3291.00,0.0065
3290.00,0.0064
3289.00,0.0064
3288.00,0.0064
3287.00,0.0064
3286.00,0.0064
3285.00,0.0064
3284.00,0.0064
3283.00,0.0064
3282.00,0.0064
3281.00,0.0064
3280.00,0.0064
3279.00,0.0064
3278.00,0.0064
3277.00,0.0063
3276.00,0.0063
3275.00,0.0063
3274.00,0.0062
3273.00,0.0062
3272.00,0.0062
3271.00,0.0061
3270.00,0.0061
3269.00,0.0061
3268.00,0.0061
3267.00,0.0062
3266.00,0.0062
3265.00,0.0062
3264.00,0.0061
3263.00,0.0061
3262.00,0.0061
3261.00,0.0060
3260.00,0.0060
3259.00,0.0060
3258.00,0.0059
3257.00,0.0060
3256.00,0.0060
3255.00,0.0060
3254.00,0.0059
3253.00,0.0059
3252.00,0.0059
3251.00,0.0059
3250.00,0.0059
3249.00,0.0059
3248.00,0.0059
3247.00,0.0058
3246.00,0.0058
3245.00,0.0058
3244.00,0.0058
3243.00,0.0058
3242.00,0.0058
3241.00,0.0058
3240.00,0.0058
3239.00,0.0058
3238.00,0.0058
3237.00,0.0058
3236.00,0.0058
3235.00,0.0058
3234.00,0.0058
3233.00,0.0059
3232.00,0.0059
3231.00,0.0059
3230.00,0.0059
3229.00,0.0059
3228.00,0.0059
3227.00,0.0059
3226.00,0.0059
3225.00,0.0059
3224.00,0.0059
3223.00,0.0059
3222.00,0.0059
3221.00,0.0059
3220.00,0.0059
3219.00,0.0060
3218.00,0.0060
3217.00,0.0060
3216.00,0.0060
3215.00,0.0060
3214.00,0.0061
3213.00,0.0061
3212.00,0.0061
3211.00,0.0061
3210.00,0.0061
3209.00,0.0061
3208.00,0.0062
3207.00,0.0062
3206.00,0.0062
3205.00,0.0062
3204.00,0.0062
3203.00,0.0063
3202.00,0.0063
3201.00,0.0063
3200.00,0.0063
3199.00,0.0063
3198.00,0.0063
3197.00,0.0062
3196.00,0.0062
3195.00,0.0062
3194.00,0.0062
3193.00,0.0062
3192.00,0.0062
3191.00,0.0062
3190.00,0.0062
3189.00,0.0062
3188.00,0.0061
3187.00,0.0061
3186.00,0.0061
3185.00,0.0061
3184.00,0.0061
3183.00,0.0060
3182.00,0.0060
3181.00,0.0059
3180.00,0.0059
3179.00,0.0059
3178.00,0.0058
3177.00,0.0058
3176.00,0.0058
3175.00,0.0058
3174.00,0.0057
3173.00,0.0057
3172.00,0.0057
3171.00,0.0057
3170.00,0.0056
3169.00,0.0056
3168.00,0.0055
3167.00,0.0055
3166.00,0.0054
3165.00,0.0054
3164.00,0.0054
3163.00,0.0055
3162.00,0.0055
3161.00,0.0055
3160.00,0.0054
3159.00,0.0054
3158.00,0.0054
3157.00,0.0053
3156.00,0.0053
3155.00,0.0053
3154.00,0.0053
3153.00,0.0053
3152.00,0.0053
3151.00,0.0053
3150.00,0.0053
3149.00,0.0052
3148.00,0.0052
3147.00,0.0052
3146.00,0.0052
3145.00,0.0052
3144.00,0.0052
3143.00,0.0052
3142.00,0.0052
3141.00,0.0051
3140.00,0.0051
3139.00,0.0051
3138.00,0.0050
3137.00,0.0050
3136.00,0.0050
3135.00,0.0050
3134.00,0.0050
3133.00,0.0049
3132.00,0.0048
3131.00,0.0048
3130.00,0.0047
3129.00,0.0047
3128.00,0.0047
3127.00,0.0047
3126.00,0.0047
3125.00,0.0047
3124.00,0.0047
3123.00,0.0046
3122.00,0.0045
3121.00,0.0044
3120.00,0.0044
3119.00,0.0043
3118.00,0.0043
3117.00,0.0043
3116.00,0.0043
3115.00,0.0043
3114.00,0.0044
3113.00,0.0044
3112.00,0.0043
3111.00,0.0043
3110.00,0.0042
3109.00,0.0042
3108.00,0.0042
3107.00,0.0041
3106.00,0.0041
3105.00,0.0041
3104.00,0.0041
3103.00,0.0041
3102.00,0.0041
3101.00,0.0041
3100.00,0.0041
3099.00,0.0041
3098.00,0.0041
3097.00,0.0041
3096.00,0.0040
3095.00,0.0040
3094.00,0.0040
3093.00,0.0040
3092.00,0.0040
3091.00,0.0040
3090.00,0.0041
3089.00,0.0041
3088.00,0.0041
3087.00,0.0041
3086.00,0.0040
3085.00,0.0040
3084.00,0.0040
3083.00,0.0039
3082.00,0.0039
3081.00,0.0038
3080.00,0.0038
3079.00,0.0038
3078.00,0.0038
3077.00,0.0039
3076.00,0.0039
3075.00,0.0038
3074.00,0.0038
3073.00,0.0039
3072.00,0.0039
3071.00,0.0039
3070.00,0.0039
3069.00,0.0040
3068.00,0.0040
3067.00,0.0040
3066.00,0.0040
3065.00,0.0040
3064.00,0.0040
3063.00,0.0040
3062.00,0.0040
3061.00,0.0040
3060.00,0.0041
3059.00,0.0041
3058.00,0.0040
3057.00,0.0040
3056.00,0.0040
3055.00,0.0040
3054.00,0.0040
3053.00,0.0040
3052.00,0.0041
3051.00,0.0041
3050.00,0.0041
3049.00,0.0042
3048.00,0.0042
3047.00,0.0042
3046.00,0.0042
3045.00,0.0042
3044.00,0.0042
3043.00,0.0043
3042.00,0.0043
3041.00,0.0043
3040.00,0.0044
3039.00,0.0044
3038.00,0.0044
3037.00,0.0045
3036.00,0.0045
3035.00,0.0045
3034.00,0.0046
3033.00,0.0047
3032.00,0.0047
3031.00,0.0048
3030.00,0.0048
3029.00,0.0049
3028.00,0.0050
3027.00,0.0050
3026.00,0.0051
3025.00,0.0052
3024.00,0.0053
3023.00,0.0055
3022.00,0.0057
3021.00,0.0059
3020.00,0.0061
3019.00,0.0063
3018.00,0.0066
3017.00,0.0069
3016.00,0.0073
3015.00,0.0077
3014.00,0.0082
3013.00,0.0087
3012.00,0.0093
3011.00,0.0099
3010.00,0.0106
3009.00,0.0115
3008.00,0.0124
3007.00,0.0133
3006.00,0.0143
3005.00,0.0154
3004.00,0.0164
3003.00,0.0175
3002.00,0.0185
3001.00,0.0196
3000.00,0.0206
2999.00,0.0216
2998.00,0.0226
2997.00,0.0235
2996.00,0.0244
2995.00,0.0253
2994.00,0.0261
2993.00,0.0271
2992.00,0.0280
2991.00,0.0290
2990.00,0.0301
2989.00,0.0313
2988.00,0.0327
2987.00,0.0346
2986.00,0.0370
2985.00,0.0403
2984.00,0.0441
2983.00,0.0480
2982.00,0.0512
2981.00,0.0534
2980.00,0.0546
2979.00,0.0556
2978.00,0.0568
2977.00,0.0586
2976.00,0.0613
2975.00,0.0648
2974.00,0.0694
2973.00,0.0747
2972.00,0.0806
2971.00,0.0867
2970.00,0.0931
2969.00,0.0999
2968.00,0.1075
2967.00,0.1161
2966.00,0.1256
2965.00,0.1355
2964.00,0.1456
2963.00,0.1554
2962.00,0.1644
2961.00,0.1723
2960.00,0.1786
2959.00,0.1834
2958.00,0.1870
2957.00,0.1899
2956.00,0.1926
2955.00,0.1957
2954.00,0.1994
2953.00,0.2034
2952.00,0.2071
2951.00,0.2096
2950.00,0.2099
2949.00,0.2070
2948.00,0.2005
2947.00,0.1905
2946.00,0.1780
2945.00,0.1642
2944.00,0.1507
2943.00,0.1386
2942.00,0.1288
2941.00,0.1217
2940.00,0.1171
2939.00,0.1150
2938.00,0.1151
2937.00,0.1170
2936.00,0.1206
2935.00,0.1258
2934.00,0.1324
2933.00,0.1403
2932.00,0.1492
2931.00,0.1588
2930.00,0.1689
2929.00,0.1791
2928.00,0.1891
2927.00,0.1986
2926.00,0.2077
2925.00,0.2162
2924.00,0.2244
2923.00,0.2323
2922.00,0.2400
2921.00,0.2473
2920.00,0.2537
2919.00,0.2586
2918.00,0.2613
2917.00,0.2613
2916.00,0.2583
2915.00,0.2528
2914.00,0.2454
2913.00,0.2370
2912.00,0.2284
2911.00,0.2203
2910.00,0.2128
2909.00,0.2060
2908.00,0.1997
2907.00,0.1935
2906.00,0.1874
2905.00,0.1810
2904.00,0.1744
2903.00,0.1675
2902.00,0.1606
2901.00,0.1536
2900.00,0.1469
2899.00,0.1405
2898.00,0.1346
2897.00,0.1293
2896.00,0.1246
2895.00,0.1208
2894.00,0.1177
2893.00,0.1153
2892.00,0.1136
2891.00,0.1126
2890.00,0.1120
2889.00,0.1119
2888.00,0.1121
2887.00,0.1126
2886.00,0.1135
2885.00,0.1148
2884.00,0.1165
2883.00,0.1185
2882.00,0.1207
2881.00,0.1231
2880.00,0.1255
2879.00,0.1275
2878.00,0.1287
2877.00,0.1290
2876.00,0.1284
2875.00,0.1274
2874.00,0.1264
2873.00,0.1258
2872.00,0.1260
2871.00,0.1270
2870.00,0.1285
2869.00,0.1301
2868.00,0.1311
2867.00,0.1307
2866.00,0.1281
2865.00,0.1229
2864.00,0.1155
2863.00,0.1067
2862.00,0.0974
2861.00,0.0886
2860.00,0.0810
2859.00,0.0749
2858.00,0.0702
2857.00,0.0668
2856.00,0.0645
2855.00,0.0631
2854.00,0.0625
2853.00,0.0626
2852.00,0.0633
2851.00,0.0646
2850.00,0.0664
2849.00,0.0689
2848.00,0.0720
2847.00,0.0759
2846.00,0.0807
2845.00,0.0865
2844.00,0.0933
2843.00,0.1007
2842.00,0.1085
2841.00,0.1160
2840.00,0.1225
2839.00,0.1269
2838.00,0.1283
2837.00,0.1261
2836.00,0.1203
2835.00,0.1114
2834.00,0.1005
2833.00,0.0890
2832.00,0.0779
2831.00,0.0679
2830.00,0.0595
2829.00,0.0526
2828.00,0.0470
2827.00,0.0425
2826.00,0.0389
2825.00,0.0359
2824.00,0.0334
2823.00,0.0313
2822.00,0.0295
2821.00,0.0279
2820.00,0.0265
2819.00,0.0253
2818.00,0.0243
2817.00,0.0234
2816.00,0.0226
2815.00,0.0219
2814.00,0.0212
2813.00,0.0206
2812.00,0.0201
2811.00,0.0195
2810.00,0.0190
2809.00,0.0184
2808.00,0.0179
2807.00,0.0172
2806.00,0.0166
2805.00,0.0160
2804.00,0.0153
2803.00,0.0146
2802.00,0.0141
2801.00,0.0136
2800.00,0.0132
2799.00,0.0128
2798.00,0.0125
2797.00,0.0123
2796.00,0.0120
2795.00,0.0118
2794.00,0.0116
2793.00,0.0113
2792.00,0.0109
2791.00,0.0106
2790.00,0.0102
2789.00,0.0099
2788.00,0.0095
2787.00,0.0092
2786.00,0.0089
2785.00,0.0086
2784.00,0.0084
2783.00,0.0082
2782.00,0.0080
2781.00,0.0078
2780.00,0.0077
2779.00,0.0075
2778.00,0.0073
2777.00,0.0071
2776.00,0.0070
2775.00,0.0068
2774.00,0.0067
2773.00,0.0067
2772.00,0.0066
2771.00,0.0066
2770.00,0.0066
2769.00,0.0066
2768.00,0.0065
2767.00,0.0065
2766.00,0.0065
2765.00,0.0064
2764.00,0.0063
2763.00,0.0063
2762.00,0.0062
2761.00,0.0062
2760.00,0.0061
2759.00,0.0061
2758.00,0.0060
2757.00,0.0060
2756.00,0.0059
2755.00,0.0059
2754.00,0.0059
2753.00,0.0058
2752.00,0.0058
2751.00,0.0058
2750.00,0.0058
2749.00,0.0058
2748.00,0.0058
2747.00,0.0059
2746.00,0.0059
2745.00,0.0060
2744.00,0.0061
2743.00,0.0062
2742.00,0.0063
2741.00,0.0064
2740.00,0.0065
2739.00,0.0066
2738.00,0.0068
2737.00,0.0069
2736.00,0.0071
2735.00,0.0073
2734.00,0.0074
2733.00,0.0076
2732.00,0.0077
2731.00,0.0079
2730.00,0.0081
2729.00,0.0084
2728.00,0.0087
2727.00,0.0090
2726.00,0.0093
2725.00,0.0095
2724.00,0.0096
2723.00,0.0096
2722.00,0.0095
2721.00,0.0093
2720.00,0.0090
2719.00,0.0087
2718.00,0.0083
2717.00,0.0080
2716.00,0.0077
2715.00,0.0074
2714.00,0.0071
2713.00,0.0068
2712.00,0.0066
2711.00,0.0065
2710.00,0.0063
2709.00,0.0062
2708.00,0.0060
2707.00,0.0059
2706.00,0.0057
2705.00,0.0056
2704.00,0.0055
2703.00,0.0054
2702.00,0.0054
2701.00,0.0053
2700.00,0.0052
2699.00,0.0051
2698.00,0.0050
2697.00,0.0050
2696.00,0.0050
2695.00,0.0050
2694.00,0.0051
2693.00,0.0051
2692.00,0.0051
2691.00,0.0051
2690.00,0.0051
2689.00,0.0051
2688.00,0.0051
2687.00,0.0051
2686.00,0.0051
2685.00,0.0052
2684.00,0.0052
2683.00,0.0052
2682.00,0.0052
2681.00,0.0052
2680.00,0.0052
2679.00,0.0052
2678.00,0.0052
2677.00,0.0053
2676.00,0.0053
2675.00,0.0053
2674.00,0.0052
2673.00,0.0052
2672.00,0.0052
2671.00,0.0051
2670.00,0.0051
2669.00,0.0051
2668.00,0.0051
2667.00,0.0052
2666.00,0.0052
2665.00,0.0053
2664.00,0.0054
2663.00,0.0055
2662.00,0.0055
2661.00,0.0055
2660.00,0.0055
2659.00,0.0055
2658.00,0.0055
2657.00,0.0054
2656.00,0.0054
2655.00,0.0053
2654.00,0.0053
2653.00,0.0052
2652.00,0.0051
2651.00,0.0050
2650.00,0.0050
2649.00,0.0050
2648.00,0.0049
2647.00,0.0049
2646.00,0.0049
2645.00,0.0048
2644.00,0.0048
2643.00,0.0047
2642.00,0.0047
2641.00,0.0046
2640.00,0.0045
2639.00,0.0044
2638.00,0.0044
2637.00,0.0044
2636.00,0.0044
2635.00,0.0044
2634.00,0.0043
2633.00,0.0044
2632.00,0.0044
2631.00,0.0044
2630.00,0.0043
2629.00,0.0043
2628.00,0.0044
2627.00,0.0044
2626.00,0.0044
2625.00,0.0045
2624.00,0.0045
2623.00,0.0045
2622.00,0.0045
2621.00,0.0045
2620.00,0.0045
2619.00,0.0045
2618.00,0.0045
2617.00,0.0045
2616.00,0.0045
2615.00,0.0045
2614.00,0.0044
2613.00,0.0044
2612.00,0.0043
2611.00,0.0042
2610.00,0.0041
2609.00,0.0041
2608.00,0.0040
2607.00,0.0039
2606.00,0.0038
2605.00,0.0037
2604.00,0.0036
2603.00,0.0036
2602.00,0.0036
2601.00,0.0036
2600.00,0.0036
2599.00,0.0036
2598.00,0.0036
2597.00,0.0035
2596.00,0.0035
2595.00,0.0035
2594.00,0.0035
2593.00,0.0036
2592.00,0.0036
2591.00,0.0037
2590.00,0.0038
2589.00,0.0038
2588.00,0.0039
2587.00,0.0040
2586.00,0.0040
2585.00,0.0041
2584.00,0.0041
2583.00,0.0042
2582.00,0.0042
2581.00,0.0042
2580.00,0.0042
2579.00,0.0042
2578.00,0.0042
2577.00,0.0041
2576.00,0.0040
2575.00,0.0038
2574.00,0.0037
2573.00,0.0035
2572.00,0.0033
2571.00,0.0031
2570.00,0.0030
2569.00,0.0029
2568.00,0.0029
2567.00,0.0029
2566.00,0.0029
2565.00,0.0029
2564.00,0.0029
2563.00,0.0028
2562.00,0.0028
2561.00,0.0027
2560.00,0.0027
2559.00,0.0027
2558.00,0.0027
2557.00,0.0027
2556.00,0.0026
2555.00,0.0026
2554.00,0.0025
2553.00,0.0024
2552.00,0.0023
2551.00,0.0022
2550.00,0.0022
2549.00,0.0022
2548.00,0.0022
2547.00,0.0022
2546.00,0.0022
2545.00,0.0021
2544.00,0.0021
2543.00,0.0021
2542.00,0.0020
2541.00,0.0020
2540.00,0.0020
2539.00,0.0020
2538.00,0.0020
2537.00,0.0020
2536.00,0.0020
2535.00,0.0020
2534.00,0.0019
2533.00,0.0019
2532.00,0.0018
2531.00,0.0018
2530.00,0.0018
2529.00,0.0018
2528.00,0.0018
2527.00,0.0017
2526.00,0.0017
2525.00,0.0017
2524.00,0.0016
2523.00,0.0016
2522.00,0.0016
2521.00,0.0015
2520.00,0.0015
2519.00,0.0015
2518.00,0.0015
2517.00,0.0014
2516.00,0.0014
2515.00,0.0014
2514.00,0.0014
2513.00,0.0014
2512.00,0.0014
2511.00,0.0014
2510.00,0.0014
2509.00,0.0014
2508.00,0.0014
2507.00,0.0014
2506.00,0.0014
2505.00,0.0014
2504.00,0.0014
2503.00,0.0013
2502.00,0.0013
2501.00,0.0013
2500.00,0.0013
2499.00,0.0014
2498.00,0.0014
2497.00,0.0015
2496.00,0.0014
2495.00,0.0014
2494.00,0.0013
2493.00,0.0013
2492.00,0.0013
2491.00,0.0013
2490.00,0.0013
2489.00,0.0013
2488.00,0.0013
2487.00,0.0014
2486.00,0.0014
2485.00,0.0014
2484.00,0.0014
2483.00,0.0013
2482.00,0.0013
2481.00,0.0013
2480.00,0.0013
2479.00,0.0012
2478.00,0.0012
2477.00,0.0012
2476.00,0.0012
2475.00,0.0012
2474.00,0.0012
2473.00,0.0011
2472.00,0.0011
2471.00,0.0011
2470.00,0.0011
2469.00,0.0010
2468.00,0.0010
2467.00,0.0010
2466.00,0.0010
2465.00,0.0011
2464.00,0.0012
2463.00,0.0013
2462.00,0.0013
2461.00,0.0014
2460.00,0.0014
2459.00,0.0013
2458.00,0.0013
2457.00,0.0012
2456.00,0.0012
2455.00,0.0012
2454.00,0.0012
2453.00,0.0013
2452.00,0.0013
2451.00,0.0012
2450.00,0.0012
2449.00,0.0013
2448.00,0.0014
2447.00,0.0015
2446.00,0.0015
2445.00,0.0015
2444.00,0.0015
2443.00,0.0014
2442.00,0.0013
2441.00,0.0013
2440.00,0.0012
2439.00,0.0012
2438.00,0.0013
2437.00,0.0013
2436.00,0.0014
2435.00,0.0014
2434.00,0.0014
2433.00,0.0014
2432.00,0.0014
2431.00,0.0014
2430.00,0.0014
2429.00,0.0015
2428.00,0.0015
2427.00,0.0015
2426.00,0.0015
2425.00,0.0014
2424.00,0.0014
2423.00,0.0014
2422.00,0.0014
2421.00,0.0013
2420.00,0.0012
2419.00,0.0012
2418.00,0.0012
2417.00,0.0011
2416.00,0.0011
2415.00,0.0011
2414.00,0.0011
2413.00,0.0012
2412.00,0.0012
2411.00,0.0012
2410.00,0.0012
2409.00,0.0012
2408.00,0.0012
2407.00,0.0011
2406.00,0.0011
2405.00,0.0010
2404.00,0.0010
2403.00,0.0010
2402.00,0.0010
2401.00,0.0010
2400.00,0.0010
2399.00,0.0010
2398.00,0.0011
2397.00,0.0011
2396.00,0.0011
2395.00,0.0011
2394.00,0.0011
2393.00,0.0010
2392.00,0.0010
2391.00,0.0010
2390.00,0.0009
2389.00,0.0009
2388.00,0.0009
2387.00,0.0009
2386.00,0.0010
2385.00,0.0010
2384.00,0.0010
2383.00,0.0010
2382.00,0.0009
2381.00,0.0008
2380.00,0.0008
2379.00,0.0008
2378.00,0.0008
2377.00,0.0009
2376.00,0.0009
2375.00,0.0010
2374.00,0.0010
2373.00,0.0010
2372.00,0.0010
2371.00,0.0010
2370.00,0.0010
2369.00,0.0010
2368.00,0.0010
2367.00,0.0010
2366.00,0.0010
2365.00,0.0010
2364.00,0.0011
2363.00,0.0011
2362.00,0.0011
2361.00,0.0011
2360.00,0.0011
2359.00,0.0010
2358.00,0.0011
2357.00,0.0011
2356.00,0.0011
2355.00,0.0011
2354.00,0.0012
2353.00,0.0012
2352.00,0.0012
2351.00,0.0012
2350.00,0.0011
2349.00,0.0012
2348.00,0.0012
2347.00,0.0012
2346.00,0.0012
2345.00,0.0012
2344.00,0.0012
2343.00,0.0013
2342.00,0.0014
2341.00,0.0015
2340.00,0.0015
2339.00,0.0014
2338.00,0.0014
2337.00,0.0013
2336.00,0.0013
2335.00,0.0013
2334.00,0.0013
2333.00,0.0013
2332.00,0.0013
2331.00,0.0013
2330.00,0.0013
2329.00,0.0014
2328.00,0.0015
2327.00,0.0018
2326.00,0.0022
2325.00,0.0025
2324.00,0.0026
2323.00,0.0026
2322.00,0.0024
2321.00,0.0022
2320.00,0.0021
2319.00,0.0021
2318.00,0.0020
2317.00,0.0020
2316.00,0.0019
2315.00,0.0017
2314.00,0.0016
2313.00,0.0015
2312.00,0.0015
2311.00,0.0014
2310.00,0.0013
2309.00,0.0014
2308.00,0.0015
2307.00,0.0015
2306.00,0.0015
2305.00,0.0016
2304.00,0.0015
2303.00,0.0015
2302.00,0.0015
2301.00,0.0015
2300.00,0.0015
2299.00,0.0016
2298.00,0.0016
2297.00,0.0017
2296.00,0.0017
2295.00,0.0017
2294.00,0.0018
2293.00,0.0018
2292.00,0.0018
2291.00,0.0018
2290.00,0.0019
2289.00,0.0019
2288.00,0.0020
2287.00,0.0020
2286.00,0.0020
2285.00,0.0020
2284.00,0.0020
2283.00,0.0019
2282.00,0.0018
2281.00,0.0017
2280.00,0.0017
2279.00,0.0017
2278.00,0.0016
2277.00,0.0016
2276.00,0.0016
2275.00,0.0016
2274.00,0.0015
2273.00,0.0015
2272.00,0.0015
2271.00,0.0014
2270.00,0.0013
2269.00,0.0012
2268.00,0.0011
2267.00,0.0010
2266.00,0.0010
2265.00,0.0011
2264.00,0.0012
2263.00,0.0012
2262.00,0.0013
2261.00,0.0013
2260.00,0.0014
2259.00,0.0015
2258.00,0.0015
2257.00,0.0014
2256.00,0.0013
2255.00,0.0011
2254.00,0.0010
2253.00,0.0010
2252.00,0.0011
2251.00,0.0011
2250.00,0.0011
2249.00,0.0011
2248.00,0.0011
2247.00,0.0011
2246.00,0.0010
2245.00,0.0009
2244.00,0.0008
2243.00,0.0009
2242.00,0.0010
2241.00,0.0011
2240.00,0.0012
2239.00,0.0013
2238.00,0.0012
2237.00,0.0012
2236.00,0.0011
2235.00,0.0010
2234.00,0.0010
2233.00,0.0010
2232.00,0.0010
2231.00,0.0010
2230.00,0.0010
2229.00,0.0010
2228.00,0.0010
2227.00,0.0011
2226.00,0.0011
2225.00,0.0011
2224.00,0.0011
2223.00,0.0011
2222.00,0.0011
2221.00,0.0011
2220.00,0.0010
2219.00,0.0009
2218.00,0.0008
2217.00,0.0009
2216.00,0.0011
2215.00,0.0011
2214.00,0.0010
2213.00,0.0009
2212.00,0.0009
2211.00,0.0010
2210.00,0.0010
2209.00,0.0009
2208.00,0.0008
2207.00,0.0007
2206.00,0.0007
2205.00,0.0006
2204.00,0.0007
2203.00,0.0008
2202.00,0.0009
2201.00,0.0009
2200.00,0.0008
2199.00,0.0006
2198.00,0.0005
2197.00,0.0006
2196.00,0.0008
2195.00,0.0011
2194.00,0.0013
2193.00,0.0014
2192.00,0.0015
2191.00,0.0015
2190.00,0.0014
2189.00,0.0013
2188.00,0.0013
2187.00,0.0014
2186.00,0.0014
2185.00,0.0014
2184.00,0.0012
2183.00,0.0010
2182.00,0.0009
2181.00,0.0009
2180.00,0.0011
2179.00,0.0013
2178.00,0.0013
2177.00,0.0012
2176.00,0.0011
2175.00,0.0009
2174.00,0.0007
2173.00,0.0005
2172.00,0.0004
2171.00,0.0005
2170.00,0.0008
2169.00,0.0012
2168.00,0.0015
2167.00,0.0016
2166.00,0.0016
2165.00,0.0017
2164.00,0.0019
2163.00,0.0020
2162.00,0.0019
2161.00,0.0014
2160.00,0.0002
2159.00,-0.0013
2158.00,-0.0026
2157.00,-0.0030
2156.00,-0.0029
2155.00,-0.0027
2154.00,-0.0027
2153.00,-0.0028
2152.00,-0.0026
2151.00,-0.0022
2150.00,-0.0018
2149.00,-0.0016
2148.00,-0.0016
2147.00,-0.0017
2146.00,-0.0018
2145.00,-0.0018
2144.00,-0.0017
2143.00,-0.0016
2142.00,-0.0014
2141.00,-0.0012
2140.00,-0.0011
2139.00,-0.0010
2138.00,-0.0011
2137.00,-0.0013
2136.00,-0.0015
2135.00,-0.0018
2134.00,-0.0019
2133.00,-0.0020
2132.00,-0.0018
2131.00,-0.0015
2130.00,-0.0011
2129.00,-0.0009
2128.00,-0.0007
2127.00,-0.0006
2126.00,-0.0005
2125.00,-0.0004
2124.00,-0.0004
2123.00,-0.0003
2122.00,-0.0003
2121.00,-0.0002
2120.00,-0.0002
2119.00,-0.0001
2118.00,0.0001
2117.00,0.0002
2116.00,0.0003
2115.00,0.0003
2114.00,0.0004
2113.00,0.0004
2112.00,0.0004
2111.00,0.0004
2110.00,0.0005
2109.00,0.0005
2108.00,0.0006
2107.00,0.0006
2106.00,0.0006
2105.00,0.0004
2104.00,0.0003
2103.00,0.0002
2102.00,0.0002
2101.00,0.0003
2100.00,0.0004
2099.00,0.0004
2098.00,0.0002
2097.00,-0.0000
2096.00,-0.0003
2095.00,-0.0005
2094.00,-0.0006
2093.00,-0.0004
2092.00,-0.0002
2091.00,-0.0000
2090.00,0.0001
2089.00,0.0002
2088.00,0.0003
2087.00,0.0004
2086.00,0.0004
2085.00,0.0004
2084.00,0.0003
2083.00,0.0003
2082.00,0.0002
2081.00,0.0003
2080.00,0.0003
2079.00,0.0004
2078.00,0.0005
2077.00,0.0005
2076.00,0.0005
2075.00,0.0004
2074.00,0.0003
2073.00,0.0004
2072.00,0.0004
2071.00,0.0004
2070.00,0.0004
2069.00,0.0002
2068.00,0.0001
2067.00,0.0000
2066.00,-0.0000
2065.00,-0.0001
2064.00,-0.0001
2063.00,-0.0002
2062.00,-0.0002
2061.00,-0.0001
2060.00,0.0001
2059.00,0.0002
2058.00,0.0003
2057.00,0.0004
2056.00,0.0005
2055.00,0.0005
2054.00,0.0007
2053.00,0.0010
2052.00,0.0013
2051.00,0.0015
2050.00,0.0013
2049.00,0.0009
2048.00,0.0004
2047.00,0.0000
2046.00,-0.0001
2045.00,0.0000
2044.00,0.0001
2043.00,-0.0000
2042.00,-0.0002
2041.00,-0.0001
2040.00,0.0001
2039.00,0.0003
2038.00,0.0005
2037.00,0.0006
2036.00,0.0006
2035.00,0.0004
2034.00,0.0001
2033.00,-0.0002
2032.00,-0.0005
2031.00,-0.0007
2030.00,-0.0009
2029.00,-0.0010
2028.00,-0.0009
2027.00,-0.0007
2026.00,-0.0004
2025.00,-0.0001
2024.00,-0.0000
2023.00,-0.0003
2022.00,-0.0006
2021.00,-0.0008
2020.00,-0.0009
2019.00,-0.0009
2018.00,-0.0009
2017.00,-0.0010
2016.00,-0.0010
2015.00,-0.0010
2014.00,-0.0008
2013.00,-0.0006
2012.00,-0.0005
2011.00,-0.0007
2010.00,-0.0010
2009.00,-0.0013
2008.00,-0.0014
2007.00,-0.0016
2006.00,-0.0018
2005.00,-0.0019
2004.00,-0.0018
2003.00,-0.0016
2002.00,-0.0015
2001.00,-0.0014
2000.00,-0.0014
1999.00,-0.0013
1998.00,-0.0013
1997.00,-0.0012
1996.00,-0.0012
1995.00,-0.0013
1994.00,-0.0015
1993.00,-0.0014
1992.00,-0.0011
1991.00,-0.0007
1990.00,-0.0003
1989.00,-0.0001
1988.00,0.0001
1987.00,0.0003
1986.00,0.0004
1985.00,0.0005
1984.00,0.0006
1983.00,0.0007
1982.00,0.0008
1981.00,0.0011
1980.00,0.0012
1979.00,0.0010
1978.00,0.0006
1977.00,0.0000
1976.00,-0.0004
1975.00,-0.0006
1974.00,-0.0006
1973.00,-0.0005
1972.00,-0.0005
1971.00,-0.0007
1970.00,-0.0009
1969.00,-0.0011
1968.00,-0.0011
1967.00,-0.0011
1966.00,-0.0009
1965.00,-0.0008
1964.00,-0.0007
1963.00,-0.0010
1962.00,-0.0014
1961.00,-0.0019
1960.00,-0.0023
1959.00,-0.0024
1958.00,-0.0023
1957.00,-0.0020
1956.00,-0.0015
1955.00,-0.0013
1954.00,-0.0013
1953.00,-0.0014
1952.00,-0.0016
1951.00,-0.0018
1950.00,-0.0019
1949.00,-0.0020
1948.00,-0.0019
1947.00,-0.0018
1946.00,-0.0016
1945.00,-0.0014
1944.00,-0.0012
1943.00,-0.0010
1942.00,-0.0010
1941.00,-0.0010
1940.00,-0.0011
1939.00,-0.0011
1938.00,-0.0012
1937.00,-0.0011
1936.00,-0.0009
1935.00,-0.0009
1934.00,-0.0009
1933.00,-0.0009
1932.00,-0.0008
1931.00,-0.0007
1930.00,-0.0005
1929.00,-0.0004
1928.00,-0.0005
1927.00,-0.0006
1926.00,-0.0008
1925.00,-0.0009
1924.00,-0.0008
1923.00,-0.0006
1922.00,-0.0004
1921.00,-0.0002
1920.00,-0.0000
1919.00,-0.0000
1918.00,-0.0002
1917.00,-0.0003
1916.00,-0.0003
1915.00,-0.0002
1914.00,-0.0001
1913.00,0.0000
1912.00,0.0001
1911.00,0.0001
1910.00,0.0001
1909.00,0.0000
1908.00,0.0000
1907.00,0.0001
1906.00,0.0001
1905.00,0.0001
1904.00,0.0000
1903.00,-0.0001
1902.00,-0.0002
1901.00,-0.0002
1900.00,-0.0002
1899.00,-0.0001
1898.00,-0.0001
1897.00,0.0000
1896.00,0.0001
1895.00,0.0001
1894.00,0.0000
1893.00,-0.0000
1892.00,-0.0000
1891.00,-0.0000
1890.00,0.0000
1889.00,0.0001
1888.00,0.0001
1887.00,0.0001
1886.00,0.0001
1885.00,0.0001
1884.00,0.0001
1883.00,0.0001
1882.00,0.0000
1881.00,-0.0000
1880.00,-0.0000
1879.00,-0.0000
1878.00,0.0000
1877.00,0.0001
1876.00,0.0002
1875.00,0.0003
1874.00,0.0003
1873.00,0.0002
1872.00,0.0002
1871.00,0.0001
1870.00,0.0000
1869.00,-0.0001
1868.00,-0.0002
1867.00,-0.0002
1866.00,-0.0002
1865.00,-0.0001
1864.00,0.0000
1863.00,0.0002
1862.00,0.0003
1861.00,0.0003
1860.00,0.0004
1859.00,0.0004
1858.00,0.0003
1857.00,0.0003
1856.00,0.0003
1855.00,0.0002
1854.00,0.0002
1853.00,0.0002
1852.00,0.0003
1851.00,0.0003
1850.00,0.0003
1849.00,0.0003
1848.00,0.0003
1847.00,0.0003
1846.00,0.0002
1845.00,0.0002
1844.00,0.0002
1843.00,0.0003
1842.00,0.0003
1841.00,0.0003
1840.00,0.0003
1839.00,0.0003
1838.00,0.0004
1837.00,0.0004
1836.00,0.0005
1835.00,0.0005
1834.00,0.0005
1833.00,0.0005
1832.00,0.0006
1831.00,0.0005
1830.00,0.0005
1829.00,0.0004
1828.00,0.0005
1827.00,0.0006
1826.00,0.0006
1825.00,0.0006
1824.00,0.0006
1823.00,0.0006
1822.00,0.0006
1821.00,0.0005
1820.00,0.0004
1819.00,0.0003
1818.00,0.0001
1817.00,0.0001
1816.00,0.0001
1815.00,0.0002
1814.00,0.0003
1813.00,0.0003
1812.00,0.0004
1811.00,0.0004
1810.00,0.0004
1809.00,0.0005
1808.00,0.0005
1807.00,0.0006
1806.00,0.0006
1805.00,0.0006
1804.00,0.0006
1803.00,0.0006
1802.00,0.0006
1801.00,0.0006
1800.00,0.0006
1799.00,0.0007
1798.00,0.0007
1797.00,0.0008
1796.00,0.0008
1795.00,0.0008
1794.00,0.0009
1793.00,0.0009
1792.00,0.0010
1791.00,0.0010
1790.00,0.0011
1789.00,0.0011
1788.00,0.0011
1787.00,0.0011
1786.00,0.0011
1785.00,0.0011
1784.00,0.0011
1783.00,0.0011
1782.00,0.0011
1781.00,0.0011
1780.00,0.0011
1779.00,0.0011
1778.00,0.0011
1777.00,0.0012
1776.00,0.0012
1775.00,0.0011
1774.00,0.0011
1773.00,0.0011
1772.00,0.0012
1771.00,0.0013
1770.00,0.0013
1769.00,0.0014
1768.00,0.0014
1767.00,0.0014
1766.00,0.0014
1765.00,0.0014
1764.00,0.0014
1763.00,0.0014
1762.00,0.0014
1761.00,0.0014
1760.00,0.0015
1759.00,0.0016
1758.00,0.0017
1757.00,0.0017
1756.00,0.0017
1755.00,0.0018
1754.00,0.0018
1753.00,0.0019
1752.00,0.0020
1751.00,0.0020
1750.00,0.0021
1749.00,0.0021
1748.00,0.0021
1747.00,0.0021
1746.00,0.0022
1745.00,0.0022
1744.00,0.0023
1743.00,0.0024
1742.00,0.0024
1741.00,0.0024
1740.00,0.0025
1739.00,0.0025
1738.00,0.0026
1737.00,0.0026
1736.00,0.0026
1735.00,0.0026
1734.00,0.0025
1733.00,0.0025
1732.00,0.0025
1731.00,0.0025
1730.00,0.0026
1729.00,0.0026
1728.00,0.0026
1727.00,0.0026
1726.00,0.0025
1725.00,0.0025
1724.00,0.0025
1723.00,0.0025
1722.00,0.0024
1721.00,0.0024
1720.00,0.0024
1719.00,0.0025
1718.00,0.0026
1717.00,0.0026
1716.00,0.0026
1715.00,0.0026
1714.00,0.0026
1713.00,0.0026
1712.00,0.0027
1711.00,0.0026
1710.00,0.0026
1709.00,0.0027
1708.00,0.0027
1707.00,0.0028
1706.00,0.0029
1705.00,0.0029
1704.00,0.0031
1703.00,0.0032
1702.00,0.0033
1701.00,0.0034
1700.00,0.0035
1699.00,0.0036
1698.00,0.0036
1697.00,0.0037
1696.00,0.0038
1695.00,0.0039
1694.00,0.0040
1693.00,0.0041
1692.00,0.0041
1691.00,0.0043
1690.00,0.0044
1689.00,0.0045
1688.00,0.0047
1687.00,0.0048
1686.00,0.0048
1685.00,0.0048
1684.00,0.0050
1683.00,0.0053
1682.00,0.0055
1681.00,0.0057
1680.00,0.0058
1679.00,0.0060
1678.00,0.0061
1677.00,0.0063
1676.00,0.0065
1675.00,0.0066
1674.00,0.0067
1673.00,0.0068
1672.00,0.0069
1671.00,0.0070
1670.00,0.0071
1669.00,0.0072
1668.00,0.0073
1667.00,0.0074
1666.00,0.0074
1665.00,0.0075
1664.00,0.0075
1663.00,0.0076
1662.00,0.0076
1661.00,0.0077
1660.00,0.0078
1659.00,0.0078
1658.00,0.0078
1657.00,0.0079
1656.00,0.0079
1655.00,0.0080
1654.00,0.0080
1653.00,0.0081
1652.00,0.0082
1651.00,0.0082
1650.00,0.0083
1649.00,0.0084
1648.00,0.0085
1647.00,0.0085
1646.00,0.0086
1645.00,0.0086
1644.00,0.0085
1643.00,0.0085
1642.00,0.0084
1641.00,0.0084
1640.00,0.0084
1639.00,0.0084
1638.00,0.0084
1637.00,0.0084
1636.00,0.0084
1635.00,0.0084
1634.00,0.0084
1633.00,0.0083
1632.00,0.0083
1631.00,0.0083
1630.00,0.0083
1629.00,0.0083
1628.00,0.0082
1627.00,0.0081
1626.00,0.0080
1625.00,0.0080
1624.00,0.0080
1623.00,0.0080
1622.00,0.0079
1621.00,0.0079
1620.00,0.0080
1619.00,0.0080
1618.00,0.0080
1617.00,0.0080
1616.00,0.0079
1615.00,0.0079
1614.00,0.0079
1613.00,0.0079
1612.00,0.0079
1611.00,0.0079
1610.00,0.0079
1609.00,0.0079
1608.00,0.0079
1607.00,0.0079
1606.00,0.0079
1605.00,0.0079
1604.00,0.0080
1603.00,0.0080
1602.00,0.0079
1601.00,0.0079
1600.00,0.0078
1599.00,0.0078
1598.00,0.0078
1597.00,0.0078
1596.00,0.0078
1595.00,0.0078
1594.00,0.0078
1593.00,0.0078
1592.00,0.0078
1591.00,0.0078
1590.00,0.0078
1589.00,0.0078
1588.00,0.0078
1587.00,0.0079
1586.00,0.0079
1585.00,0.0080
1584.00,0.0081
1583.00,0.0082
1582.00,0.0083
1581.00,0.0084
1580.00,0.0086
1579.00,0.0087
1578.00,0.0087
1577.00,0.0087
1576.00,0.0087
1575.00,0.0086
1574.00,0.0085
1573.00,0.0085
1572.00,0.0084
1571.00,0.0084
1570.00,0.0083
1569.00,0.0082
1568.00,0.0082
1567.00,0.0081
1566.00,0.0081
1565.00,0.0081
1564.00,0.0081
1563.00,0.0081
1562.00,0.0082
1561.00,0.0084
1560.00,0.0085
1559.00,0.0085
1558.00,0.0086
1557.00,0.0087
1556.00,0.0087
1555.00,0.0087
1554.00,0.0088
1553.00,0.0090
1552.00,0.0092
1551.00,0.0093
1550.00,0.0093
1549.00,0.0094
1548.00,0.0095
1547.00,0.0096
1546.00,0.0097
1545.00,0.0098
1544.00,0.0099
1543.00,0.0100
1542.00,0.0099
1541.00,0.0097
1540.00,0.0094
1539.00,0.0091
1538.00,0.0089
1537.00,0.0088
1536.00,0.0087
1535.00,0.0084
1534.00,0.0081
1533.00,0.0078
1532.00,0.0076
1531.00,0.0074
1530.00,0.0072
1529.00,0.0071
1528.00,0.0070
1527.00,0.0069
1526.00,0.0068
1525.00,0.0068
1524.00,0.0068
1523.00,0.0067
1522.00,0.0066
1521.00,0.0065
1520.00,0.0066
1519.00,0.0066
1518.00,0.0065
1517.00,0.0065
1516.00,0.0066
1515.00,0.0067
1514.00,0.0068
1513.00,0.0069
1512.00,0.0069
1511.00,0.0070
1510.00,0.0070
1509.00,0.0070
1508.00,0.0071
1507.00,0.0072
1506.00,0.0075
1505.00,0.0078
1504.00,0.0080
1503.00,0.0081
1502.00,0.0082
1501.00,0.0085
1500.00,0.0088
1499.00,0.0092
1498.00,0.0094
1497.00,0.0098
1496.00,0.0102
1495.00,0.0106
1494.00,0.0108
1493.00,0.0112
1492.00,0.0115
1491.00,0.0119
1490.00,0.0124
1489.00,0.0130
1488.00,0.0136
1487.00,0.0142
1486.00,0.0147
1485.00,0.0154
1484.00,0.0162
1483.00,0.0169
1482.00,0.0178
1481.00,0.0190
1480.00,0.0202
1479.00,0.0215
1478.00,0.0230
1477.00,0.0252
1476.00,0.0278
1475.00,0.0307
1474.00,0.0346
1473.00,0.0399
1472.00,0.0461
1471.00,0.0521
1470.00,0.0580
1469.00,0.0642
1468.00,0.0711
1467.00,0.0788
1466.00,0.0879
1465.00,0.0979
1464.00,0.1070
1463.00,0.1135
1462.00,0.1178
1461.00,0.1208
1460.00,0.1230
1459.00,0.1246
1458.00,0.1262
1457.00,0.1276
1456.00,0.1284
1455.00,0.1284
1454.00,0.1279
1453.00,0.1269
1452.00,0.1248
1451.00,0.1213
1450.00,0.1161
1449.00,0.1085
1448.00,0.0987
1447.00,0.0881
1446.00,0.0786
1445.00,0.0704
1444.00,0.0635
1443.00,0.0579
1442.00,0.0537
1441.00,0.0509
1440.00,0.0492
1439.00,0.0485
1438.00,0.0484
1437.00,0.0482
1436.00,0.0468
1435.00,0.0440
1434.00,0.0400
1433.00,0.0353
1432.00,0.0306
1431.00,0.0264
1430.00,0.0232
1429.00,0.0209
1428.00,0.0193
1427.00,0.0184
1426.00,0.0178
1425.00,0.0172
1424.00,0.0168
1423.00,0.0165
1422.00,0.0164
1421.00,0.0163
1420.00,0.0161
1419.00,0.0159
1418.00,0.0159
1417.00,0.0158
1416.00,0.0157
1415.00,0.0157
1414.00,0.0159
1413.00,0.0159
1412.00,0.0160
1411.00,0.0161
1410.00,0.0162
1409.00,0.0164
1408.00,0.0165
1407.00,0.0168
1406.00,0.0173
1405.00,0.0177
1404.00,0.0181
1403.00,0.0186
1402.00,0.0192
1401.00,0.0198
1400.00,0.0204
1399.00,0.0212
1398.00,0.0220
1397.00,0.0226
1396.00,0.0233
1395.00,0.0241
1394.00,0.0249
1393.00,0.0257
1392.00,0.0264
1391.00,0.0273
1390.00,0.0286
1389.00,0.0304
1388.00,0.0331
1387.00,0.0371
1386.00,0.0424
1385.00,0.0491
1384.00,0.0578
1383.00,0.0694
1382.00,0.0844
1381.00,0.1034
1380.00,0.1265
1379.00,0.1526
1378.00,0.1778
1377.00,0.1962
1376.00,0.2026
1375.00,0.1934
1374.00,0.1709
1373.00,0.1434
1372.00,0.1177
1371.00,0.0961
1370.00,0.0785
1369.00,0.0650
1368.00,0.0555
1367.00,0.0495
1366.00,0.0462
1365.00,0.0448
1364.00,0.0448
1363.00,0.0459
1362.00,0.0480
1361.00,0.0502
1360.00,0.0518
1359.00,0.0522
1358.00,0.0509
1357.00,0.0480
1356.00,0.0440
1355.00,0.0394
1354.00,0.0351
1353.00,0.0314
1352.00,0.0283
1351.00,0.0259
1350.00,0.0239
1349.00,0.0223
1348.00,0.0210
1347.00,0.0199
1346.00,0.0191
1345.00,0.0185
1344.00,0.0180
1343.00,0.0175
1342.00,0.0171
1341.00,0.0166
1340.00,0.0163
1339.00,0.0159
1338.00,0.0157
1337.00,0.0156
1336.00,0.0156
1335.00,0.0157
1334.00,0.0160
1333.00,0.0164
1332.00,0.0168
1331.00,0.0172
1330.00,0.0172
1329.00,0.0170
1328.00,0.0166
1327.00,0.0159
1326.00,0.0152
1325.00,0.0144
1324.00,0.0137
1323.00,0.0131
1322.00,0.0126
1321.00,0.0123
1320.00,0.0119
1319.00,0.0116
1318.00,0.0114
1317.00,0.0111
1316.00,0.0109
1315.00,0.0108
1314.00,0.0107
1313.00,0.0107
1312.00,0.0109
1311.00,0.0111
1310.00,0.0116
1309.00,0.0124
1308.00,0.0135
1307.00,0.0148
1306.00,0.0160
1305.00,0.0169
1304.00,0.0172
1303.00,0.0170
1302.00,0.0164
1301.00,0.0158
1300.00,0.0155
1299.00,0.0153
1298.00,0.0153
1297.00,0.0153
1296.00,0.0152
1295.00,0.0150
1294.00,0.0146
1293.00,0.0141
1292.00,0.0136
1291.00,0.0131
1290.00,0.0127
1289.00,0.0123
1288.00,0.0120
1287.00,0.0118
1286.00,0.0116
1285.00,0.0115
1284.00,0.0113
1283.00,0.0112
1282.00,0.0111
1281.00,0.0111
1280.00,0.0111
1279.00,0.0111
1278.00,0.0112
1277.00,0.0113
1276.00,0.0115
1275.00,0.0117
1274.00,0.0120
1273.00,0.0122
1272.00,0.0125
1271.00,0.0128
1270.00,0.0132
1269.00,0.0136
1268.00,0.0141
1267.00,0.0146
1266.00,0.0151
1265.00,0.0156
1264.00,0.0161
1263.00,0.0165
1262.00,0.0170
1261.00,0.0176
1260.00,0.0183
1259.00,0.0192
1258.00,0.0201
1257.00,0.0209
1256.00,0.0214
1255.00,0.0214
1254.00,0.0209
1253.00,0.0201
1252.00,0.0192
1251.00,0.0183
1250.00,0.0176
1249.00,0.0169
1248.00,0.0164
1247.00,0.0160
1246.00,0.0157
1245.00,0.0155
1244.00,0.0155
1243.00,0.0154
1242.00,0.0153
1241.00,0.0151
1240.00,0.0149
1239.00,0.0147
1238.00,0.0145
1237.00,0.0143
1236.00,0.0141
1235.00,0.0139
1234.00,0.0137
1233.00,0.0134
1232.00,0.0131
1231.00,0.0129
1230.00,0.0127
1229.00,0.0125
1228.00,0.0123
1227.00,0.0122
1226.00,0.0121
1225.00,0.0122
1224.00,0.0123
1223.00,0.0125
1222.00,0.0127
1221.00,0.0129
1220.00,0.0130
1219.00,0.0130
1218.00,0.0128
1217.00,0.0125
1216.00,0.0122
1215.00,0.0118
1214.00,0.0114
1213.00,0.0110
1212.00,0.0107
1211.00,0.0104
1210.00,0.0101
1209.00,0.0099
1208.00,0.0097
1207.00,0.0096
1206.00,0.0094
1205.00,0.0093
1204.00,0.0092
1203.00,0.0093
1202.00,0.0094
1201.00,0.0094
1200.00,0.0095
1199.00,0.0095
1198.00,0.0096
1197.00,0.0097
1196.00,0.0097
1195.00,0.0099
1194.00,0.0100
1193.00,0.0102
1192.00,0.0104
1191.00,0.0106
1190.00,0.0108
1189.00,0.0110
1188.00,0.0112
1187.00,0.0114
1186.00,0.0117
1185.00,0.0121
1184.00,0.0125
1183.00,0.0130
1182.00,0.0136
1181.00,0.0142
1180.00,0.0149
1179.00,0.0158
1178.00,0.0168
1177.00,0.0180
1176.00,0.0196
1175.00,0.0216
1174.00,0.0242
1173.00,0.0274
1172.00,0.0311
1171.00,0.0353
1170.00,0.0393
1169.00,0.0426
1168.00,0.0447
1167.00,0.0455
1166.00,0.0449
1165.00,0.0434
1164.00,0.0415
1163.00,0.0395
1162.00,0.0378
1161.00,0.0363
1160.00,0.0352
1159.00,0.0343
1158.00,0.0336
1157.00,0.0331
1156.00,0.0328
1155.00,0.0326
1154.00,0.0324
1153.00,0.0321
1152.00,0.0317
1151.00,0.0310
1150.00,0.0301
1149.00,0.0290
1148.00,0.0279
1147.00,0.0268
1146.00,0.0257
1145.00,0.0248
1144.00,0.0238
1143.00,0.0230
1142.00,0.0222
1141.00,0.0214
1140.00,0.0206
1139.00,0.0200
1138.00,0.0195
1137.00,0.0190
1136.00,0.0186
1135.00,0.0182
1134.00,0.0178
1133.00,0.0175
1132.00,0.0174
1131.00,0.0173
1130.00,0.0172
1129.00,0.0172
1128.00,0.0171
1127.00,0.0170
1126.00,0.0170
1125.00,0.0169
1124.00,0.0168
1123.00,0.0166
1122.00,0.0166
1121.00,0.0165
1120.00,0.0165
1119.00,0.0165
1118.00,0.0165
1117.00,0.0165
1116.00,0.0165
1115.00,0.0165
1114.00,0.0165
1113.00,0.0164
1112.00,0.0165
1111.00,0.0166
1110.00,0.0169
1109.00,0.0172
1108.00,0.0178
1107.00,0.0185
1106.00,0.0193
1105.00,0.0200
1104.00,0.0206
1103.00,0.0209
1102.00,0.0210
1101.00,0.0208
1100.00,0.0204
1099.00,0.0199
1098.00,0.0195
1097.00,0.0192
1096.00,0.0189
1095.00,0.0187
1094.00,0.0185
1093.00,0.0183
1092.00,0.0183
1091.00,0.0183
1090.00,0.0183
1089.00,0.0182
1088.00,0.0181
1087.00,0.0180
1086.00,0.0179
1085.00,0.0179
1084.00,0.0178
1083.00,0.0177
1082.00,0.0177
1081.00,0.0176
1080.00,0.0175
1079.00,0.0174
1078.00,0.0173
1077.00,0.0172
1076.00,0.0173
1075.00,0.0174
1074.00,0.0175
1073.00,0.0176
1072.00,0.0176
1071.00,0.0174
1070.00,0.0172
1069.00,0.0169
1068.00,0.0165
1067.00,0.0162
1066.00,0.0160
1065.00,0.0157
1064.00,0.0155
1063.00,0.0154
1062.00,0.0153
1061.00,0.0152
1060.00,0.0150
1059.00,0.0149
1058.00,0.0146
1057.00,0.0144
1056.00,0.0141
1055.00,0.0138
1054.00,0.0137
1053.00,0.0137
1052.00,0.0137
1051.00,0.0137
1050.00,0.0137
1049.00,0.0138
1048.00,0.0139
1047.00,0.0139
1046.00,0.0140
1045.00,0.0139
1044.00,0.0137
1043.00,0.0133
1042.00,0.0130
1041.00,0.0127
1040.00,0.0124
1039.00,0.0121
1038.00,0.0120
1037.00,0.0119
1036.00,0.0118
1035.00,0.0118
1034.00,0.0118
1033.00,0.0116
1032.00,0.0115
1031.00,0.0114
1030.00,0.0114
1029.00,0.0113
1028.00,0.0111
1027.00,0.0109
1026.00,0.0108
1025.00,0.0108
1024.00,0.0108
1023.00,0.0109
1022.00,0.0109
1021.00,0.0110
1020.00,0.0111
1019.00,0.0113
1018.00,0.0114
1017.00,0.0116
1016.00,0.0118
1015.00,0.0120
1014.00,0.0122
1013.00,0.0126
1012.00,0.0130
1011.00,0.0134
1010.00,0.0138
1009.00,0.0142
1008.00,0.0148
1007.00,0.0156
1006.00,0.0166
1005.00,0.0179
1004.00,0.0197
1003.00,0.0222
1002.00,0.0255
1001.00,0.0295
1000.00,0.0339
999.00,0.0376
998.00,0.0395
997.00,0.0389
996.00,0.0360
995.00,0.0317
994.00,0.0270
993.00,0.0228
992.00,0.0195
991.00,0.0171
990.00,0.0155
989.00,0.0144
988.00,0.0137
987.00,0.0133
986.00,0.0133
985.00,0.0137
984.00,0.0143
983.00,0.0153
982.00,0.0167
981.00,0.0186
980.00,0.0212
979.00,0.0247
978.00,0.0291
977.00,0.0344
976.00,0.0402
975.00,0.0459
974.00,0.0504
973.00,0.0527
972.00,0.0520
971.00,0.0487
970.00,0.0436
969.00,0.0381
968.00,0.0331
967.00,0.0292
966.00,0.0263
965.00,0.0241
964.00,0.0225
963.00,0.0213
962.00,0.0205
961.00,0.0200
960.00,0.0197
959.00,0.0196
958.00,0.0195
957.00,0.0194
956.00,0.0191
955.00,0.0189
954.00,0.0187
953.00,0.0186
952.00,0.0184
951.00,0.0182
950.00,0.0179
949.00,0.0175
948.00,0.0173
947.00,0.0171
946.00,0.0171
945.00,0.0173
944.00,0.0175
943.00,0.0177
942.00,0.0178
941.00,0.0177
940.00,0.0174
939.00,0.0168
938.00,0.0161
937.00,0.0153
936.00,0.0145
935.00,0.0136
934.00,0.0128
933.00,0.0120
932.00,0.0114
931.00,0.0108
930.00,0.0103
929.00,0.0098
928.00,0.0094
927.00,0.0091
926.00,0.0088
925.00,0.0086
924.00,0.0085
923.00,0.0085
922.00,0.0085
921.00,0.0085
920.00,0.0085
919.00,0.0084
918.00,0.0083
917.00,0.0083
916.00,0.0083
915.00,0.0085
914.00,0.0085
913.00,0.0085
912.00,0.0086
911.00,0.0087
910.00,0.0088
909.00,0.0089
908.00,0.0091
907.00,0.0095
906.00,0.0102
905.00,0.0112
904.00,0.0127
903.00,0.0145
902.00,0.0165
901.00,0.0183
900.00,0.0196
899.00,0.0199
898.00,0.0191
897.00,0.0175
896.00,0.0155
895.00,0.0136
894.00,0.0120
893.00,0.0108
892.00,0.0100
891.00,0.0094
890.00,0.0089
889.00,0.0085
888.00,0.0081
887.00,0.0078
886.00,0.0077
885.00,0.0077
884.00,0.0078
883.00,0.0079
882.00,0.0080
881.00,0.0080
880.00,0.0080
879.00,0.0080
878.00,0.0080
877.00,0.0079
876.00,0.0079
875.00,0.0078
874.00,0.0078
873.00,0.0078
872.00,0.0079
871.00,0.0079
870.00,0.0080
869.00,0.0081
868.00,0.0082
867.00,0.0083
866.00,0.0084
865.00,0.0085
864.00,0.0086
863.00,0.0087
862.00,0.0088
861.00,0.0089
860.00,0.0089
859.00,0.0089
858.00,0.0091
857.00,0.0093
856.00,0.0095
855.00,0.0098
854.00,0.0101
853.00,0.0105
852.00,0.0110
851.00,0.0116
850.00,0.0122
849.00,0.0130
848.00,0.0142
847.00,0.0159
846.00,0.0185
845.00,0.0224
844.00,0.0276
843.00,0.0333
842.00,0.0377
841.00,0.0390
840.00,0.0366
839.00,0.0317
838.00,0.0264
837.00,0.0220
836.00,0.0191
835.00,0.0173
834.00,0.0162
833.00,0.0154
832.00,0.0149
831.00,0.0146
830.00,0.0143
829.00,0.0141
828.00,0.0138
827.00,0.0136
826.00,0.0134
825.00,0.0134
824.00,0.0134
823.00,0.0135
822.00,0.0136
821.00,0.0136
820.00,0.0136
819.00,0.0138
818.00,0.0143
817.00,0.0149
816.00,0.0158
815.00,0.0169
814.00,0.0181
813.00,0.0196
812.00,0.0212
811.00,0.0227
810.00,0.0239
809.00,0.0245
808.00,0.0244
807.00,0.0236
806.00,0.0222
805.00,0.0206
804.00,0.0188
803.00,0.0173
802.00,0.0160
801.00,0.0150
800.00,0.0143
799.00,0.0137
798.00,0.0131
797.00,0.0125
796.00,0.0119
795.00,0.0113
794.00,0.0109
793.00,0.0105
792.00,0.0102
791.00,0.0100
790.00,0.0098
789.00,0.0096
788.00,0.0095
787.00,0.0093
786.00,0.0091
785.00,0.0088
784.00,0.0085
783.00,0.0081
782.00,0.0079
781.00,0.0076
780.00,0.0074
779.00,0.0073
778.00,0.0071
777.00,0.0070
776.00,0.0071
775.00,0.0073
774.00,0.0076
773.00,0.0079
772.00,0.0083
771.00,0.0086
770.00,0.0088
769.00,0.0089
768.00,0.0090
767.00,0.0090
766.00,0.0090
765.00,0.0089
764.00,0.0087
763.00,0.0084
762.00,0.0080
761.00,0.0078
760.00,0.0076
759.00,0.0074
758.00,0.0072
757.00,0.0070
756.00,0.0068
755.00,0.0067
754.00,0.0066
753.00,0.0066
752.00,0.0065
751.00,0.0065
750.00,0.0065
749.00,0.0064
748.00,0.0063
747.00,0.0064
746.00,0.0066
745.00,0.0069
744.00,0.0071
743.00,0.0071
742.00,0.0071
741.00,0.0070
740.00,0.0069
739.00,0.0069
738.00,0.0070
737.00,0.0072
736.00,0.0076
735.00,0.0080
734.00,0.0082
733.00,0.0083
732.00,0.0082
731.00,0.0083
730.00,0.0083
729.00,0.0084
728.00,0.0084
727.00,0.0083
726.00,0.0082
725.00,0.0082
724.00,0.0083
723.00,0.0083
722.00,0.0083
721.00,0.0081
720.00,0.0079
719.00,0.0078
718.00,0.0077
717.00,0.0076
716.00,0.0074
715.00,0.0073
714.00,0.0071
713.00,0.0070
712.00,0.0068
711.00,0.0067
710.00,0.0068
709.00,0.0069
708.00,0.0071
707.00,0.0073
706.00,0.0073
705.00,0.0072
704.00,0.0070
703.00,0.0068
702.00,0.0066
701.00,0.0066
700.00,0.0065
699.00,0.0065
698.00,0.0065
697.00,0.0065
696.00,0.0066
695.00,0.0068
694.00,0.0069
693.00,0.0069
692.00,0.0068
691.00,0.0067
690.00,0.0067
689.00,0.0066
688.00,0.0067
687.00,0.0067
686.00,0.0069
685.00,0.0071
684.00,0.0072
683.00,0.0071
682.00,0.0069
681.00,0.0067
680.00,0.0066
679.00,0.0066
678.00,0.0067
677.00,0.0067
676.00,0.0067
675.00,0.0065
674.00,0.0064
673.00,0.0063
672.00,0.0064
671.00,0.0065
670.00,0.0067
669.00,0.0068
668.00,0.0067
667.00,0.0064
666.00,0.0062
665.00,0.0061
664.00,0.0061
663.00,0.0062
662.00,0.0064
661.00,0.0065
660.00,0.0066
659.00,0.0064
658.00,0.0063
657.00,0.0063
656.00,0.0065
655.00,0.0066
654.00,0.0066
653.00,0.0065
652.00,0.0064
651.00,0.0064
650.00,0.0066
649.00,0.0068
648.00,0.0069
647.00,0.0069
646.00,0.0068
645.00,0.0067
644.00,0.0067
643.00,0.0067
642.00,0.0068
641.00,0.0067
640.00,0.0067
639.00,0.0068
638.00,0.0069
637.00,0.0070
636.00,0.0070
635.00,0.0070
634.00,0.0069
633.00,0.0069
632.00,0.0069
631.00,0.0068
630.00,0.0069
629.00,0.0070
628.00,0.0071
627.00,0.0072
626.00,0.0072
625.00,0.0071
624.00,0.0070
623.00,0.0069
622.00,0.0069
621.00,0.0071
620.00,0.0073
619.00,0.0073
618.00,0.0071
617.00,0.0069
616.00,0.0067
615.00,0.0067
614.00,0.0068
613.00,0.0071
612.00,0.0072
611.00,0.0071
610.00,0.0071
609.00,0.0072
608.00,0.0074
607.00,0.0075
606.00,0.0075
605.00,0.0074
604.00,0.0072
603.00,0.0072
602.00,0.0072
601.00,0.0072
600.00,0.0071
599.00,0.0069
598.00,0.0068
597.00,0.0069
596.00,0.0070
595.00,0.0071
594.00,0.0071
593.00,0.0070
592.00,0.0069
591.00,0.0068
590.00,0.0067
589.00,0.0067
588.00,0.0069
587.00,0.0073
586.00,0.0075
585.00,0.0076
584.00,0.0075
583.00,0.0074
582.00,0.0075
581.00,0.0078
580.00,0.0082
579.00,0.0085
578.00,0.0085
577.00,0.0084
576.00,0.0082
575.00,0.0079
574.00,0.0078
573.00,0.0077
572.00,0.0077
571.00,0.0076
570.00,0.0076
569.00,0.0075
568.00,0.0073
567.00,0.0071
566.00,0.0071
565.00,0.0073
564.00,0.0075
563.00,0.0076
562.00,0.0075
561.00,0.0075
560.00,0.0075
559.00,0.0075
558.00,0.0074
557.00,0.0075
556.00,0.0075
555.00,0.0076
554.00,0.0076
553.00,0.0074
552.00,0.0072
551.00,0.0071
550.00,0.0073
549.00,0.0078
548.00,0.0082
547.00,0.0085
546.00,0.0086
545.00,0.0085
544.00,0.0084
543.00,0.0084
542.00,0.0086
541.00,0.0088
540.00,0.0089
539.00,0.0089
538.00,0.0088
537.00,0.0087
536.00,0.0087
535.00,0.0089
534.00,0.0093
533.00,0.0095
532.00,0.0096
531.00,0.0094
530.00,0.0093
529.00,0.0093
528.00,0.0093
527.00,0.0091
526.00,0.0089
525.00,0.0090
524.00,0.0094
523.00,0.0099
522.00,0.0103
521.00,0.0103
520.00,0.0096
519.00,0.0086
518.00,0.0079
517.00,0.0079
516.00,0.0083
515.00,0.0086
514.00,0.0086
513.00,0.0082
512.00,0.0079
511.00,0.0077
510.00,0.0077
509.00,0.0076
508.00,0.0074
507.00,0.0072
506.00,0.0072
505.00,0.0074
504.00,0.0076
503.00,0.0074
502.00,0.0070
501.00,0.0067
500.00,0.0070
499.00,0.0074
498.00,0.0079
497.00,0.0084
496.00,0.0089
495.00,0.0092
494.00,0.0089
493.00,0.0081
492.00,0.0071
491.00,0.0067
490.00,0.0069
489.00,0.0075
488.00,0.0081
487.00,0.0088
486.00,0.0094
485.00,0.0096
484.00,0.0094
483.00,0.0092
482.00,0.0092
481.00,0.0097
480.00,0.0101
479.00,0.0103
478.00,0.0099
477.00,0.0090
476.00,0.0084
475.00,0.0085
474.00,0.0093
473.00,0.0103
472.00,0.0107
471.00,0.0105
470.00,0.0103
469.00,0.0109
468.00,0.0122
467.00,0.0135
466.00,0.0142
465.00,0.0141
464.00,0.0138
463.00,0.0137
462.00,0.0143
461.00,0.0154
460.00,0.0168
459.00,0.0183
458.00,0.0191
457.00,0.0188
456.00,0.0173
455.00,0.0155
454.00,0.0141
453.00,0.0134
452.00,0.0130
451.00,0.0124
450.00,0.0119
