Created as New Dataset,Sample 148 By Administrator Date Tuesday, September 09 2025
cm-1,A
4000.00,0.0012
3999.00,0.0013
3998.00,0.0013
3997.00,0.0013
3996.00,0.0013
3995.00,0.0013
3994.00,0.0013
3993.00,0.0013
3992.00,0.0013
3991.00,0.0013
3990.00,0.0013
3989.00,0.0013
3988.00,0.0013
3987.00,0.0013
3986.00,0.0012
3985.00,0.0012
3984.00,0.0012
3983.00,0.0012
3982.00,0.0012
3981.00,0.0012
3980.00,0.0012
3979.00,0.0012
3978.00,0.0012
3977.00,0.0012
3976.00,0.0012
3975.00,0.0012
3974.00,0.0012
3973.00,0.0012
3972.00,0.0012
3971.00,0.0011
3970.00,0.0011
3969.00,0.0011
3968.00,0.0011
3967.00,0.0011
3966.00,0.0011
3965.00,0.0011
3964.00,0.0011
3963.00,0.0012
3962.00,0.0012
3961.00,0.0012
3960.00,0.0012
3959.00,0.0012
3958.00,0.0012
3957.00,0.0012
3956.00,0.0011
3955.00,0.0011
3954.00,0.0011
3953.00,0.0011
3952.00,0.0011
3951.00,0.0011
3950.00,0.0011
3949.00,0.0012
3948.00,0.0012
3947.00,0.0012
3946.00,0.0012
3945.00,0.0012
3944.00,0.0012
3943.00,0.0011
3942.00,0.0011
3941.00,0.0011
3940.00,0.0011
3939.00,0.0012
3938.00,0.0012
3937.00,0.0012
3936.00,0.0012
3935.00,0.0012
3934.00,0.0012
3933.00,0.0012
3932.00,0.0012
3931.00,0.0012
3930.00,0.0012
3929.00,0.0012
3928.00,0.0012
3927.00,0.0011
3926.00,0.0011
3925.00,0.0011
3924.00,0.0011
3923.00,0.0011
3922.00,0.0011
3921.00,0.0012
3920.00,0.0012
3919.00,0.0012
3918.00,0.0013
3917.00,0.0013
3916.00,0.0012
3915.00,0.0012
3914.00,0.0012
3913.00,0.0011
3912.00,0.0011
3911.00,0.0011
3910.00,0.0011
3909.00,0.0011
3908.00,0.0011
3907.00,0.0011
3906.00,0.0011
3905.00,0.0011
3904.00,0.0011
3903.00,0.0011
3902.00,0.0011
3901.00,0.0011
3900.00,0.0011
3899.00,0.0011
3898.00,0.0011
3897.00,0.0011
3896.00,0.0011
3895.00,0.0011
3894.00,0.0012
3893.00,0.0012
3892.00,0.0012
3891.00,0.0011
3890.00,0.0011
3889.00,0.0011
3888.00,0.0011
3887.00,0.0012
3886.00,0.0012
3885.00,0.0012
3884.00,0.0012
3883.00,0.0011
3882.00,0.0011
3881.00,0.0010
3880.00,0.0010
3879.00,0.0011
3878.00,0.0011
3877.00,0.0011
3876.00,0.0011
3875.00,0.0012
3874.00,0.0012
3873.00,0.0012
3872.00,0.0012
3871.00,0.0012
3870.00,0.0012
3869.00,0.0012
3868.00,0.0012
3867.00,0.0011
3866.00,0.0011
3865.00,0.0011
3864.00,0.0010
3863.00,0.0010
3862.00,0.0010
3861.00,0.0010
3860.00,0.0010
3859.00,0.0010
3858.00,0.0010
3857.00,0.0010
3856.00,0.0010
3855.00,0.0010
3854.00,0.0011
3853.00,0.0011
3852.00,0.0011
3851.00,0.0010
3850.00,0.0010
3849.00,0.0010
3848.00,0.0010
3847.00,0.0010
3846.00,0.0010
3845.00,0.0010
3844.00,0.0011
3843.00,0.0011
3842.00,0.0012
3841.00,0.0012
3840.00,0.0012
3839.00,0.0012
3838.00,0.0012
3837.00,0.0011
3836.00,0.0011
3835.00,0.0010
3834.00,0.0010
3833.00,0.0010
3832.00,0.0010
3831.00,0.0010
3830.00,0.0010
3829.00,0.0010
3828.00,0.0010
3827.00,0.0010
3826.00,0.0010
3825.00,0.0011
3824.00,0.0011
3823.00,0.0011
3822.00,0.0010
3821.00,0.0010
3820.00,0.0010
3819.00,0.0010
3818.00,0.0010
3817.00,0.0010
3816.00,0.0010
3815.00,0.0010
3814.00,0.0010
3813.00,0.0011
3812.00,0.0011
3811.00,0.0011
3810.00,0.0011
3809.00,0.0011
3808.00,0.0011
3807.00,0.0011
3806.00,0.0010
3805.00,0.0010
3804.00,0.0010
3803.00,0.0010
3802.00,0.0010
3801.00,0.0010
3800.00,0.0010
3799.00,0.0010
3798.00,0.0010
3797.00,0.0010
3796.00,0.0010
3795.00,0.0010
3794.00,0.0010
3793.00,0.0010
3792.00,0.0010
3791.00,0.0011
3790.00,0.0011
3789.00,0.0011
3788.00,0.0011
3787.00,0.0011
3786.00,0.0011
3785.00,0.0010
3784.00,0.0010
3783.00,0.0010
3782.00,0.0011
3781.00,0.0011
3780.00,0.0011
3779.00,0.0011
3778.00,0.0011
3777.00,0.0011
3776.00,0.0011
3775.00,0.0011
3774.00,0.0011
3773.00,0.0011
3772.00,0.0012
3771.00,0.0012
3770.00,0.0012
3769.00,0.0012
3768.00,0.0012
3767.00,0.0012
3766.00,0.0012
3765.00,0.0012
3764.00,0.0012
3763.00,0.0012
3762.00,0.0012
3761.00,0.0012
3760.00,0.0012
3759.00,0.0012
3758.00,0.0012
3757.00,0.0013
3756.00,0.0013
3755.00,0.0013
3754.00,0.0013
3753.00,0.0013
3752.00,0.0012
3751.00,0.0011
3750.00,0.0011
3749.00,0.0011
3748.00,0.0011
3747.00,0.0010
3746.00,0.0010
3745.00,0.0010
3744.00,0.0011
3743.00,0.0010
3742.00,0.0010
3741.00,0.0010
3740.00,0.0009
3739.00,0.0009
3738.00,0.0009
3737.00,0.0009
3736.00,0.0010
3735.00,0.0010
3734.00,0.0010
3733.00,0.0010
3732.00,0.0010
3731.00,0.0010
3730.00,0.0010
3729.00,0.0010
3728.00,0.0009
3727.00,0.0009
3726.00,0.0009
3725.00,0.0009
3724.00,0.0009
3723.00,0.0009
3722.00,0.0010
3721.00,0.0010
3720.00,0.0010
3719.00,0.0010
3718.00,0.0010
3717.00,0.0010
3716.00,0.0011
3715.00,0.0011
3714.00,0.0011
3713.00,0.0011
3712.00,0.0010
3711.00,0.0010
3710.00,0.0009
3709.00,0.0009
3708.00,0.0009
3707.00,0.0009
3706.00,0.0009
3705.00,0.0009
3704.00,0.0009
3703.00,0.0010
3702.00,0.0010
3701.00,0.0010
3700.00,0.0010
3699.00,0.0009
3698.00,0.0009
3697.00,0.0009
3696.00,0.0009
3695.00,0.0009
3694.00,0.0009
3693.00,0.0009
3692.00,0.0009
3691.00,0.0009
3690.00,0.0009
3689.00,0.0009
3688.00,0.0009
3687.00,0.0009
3686.00,0.0010
3685.00,0.0010
3684.00,0.0010
3683.00,0.0009
3682.00,0.0009
3681.00,0.0009
3680.00,0.0009
3679.00,0.0009
3678.00,0.0009
3677.00,0.0009
3676.00,0.0010
3675.00,0.0010
3674.00,0.0010
3673.00,0.0011
3672.00,0.0011
3671.00,0.0011
3670.00,0.0010
3669.00,0.0010
3668.00,0.0009
3667.00,0.0010
3666.00,0.0010
3665.00,0.0010
3664.00,0.0010
3663.00,0.0010
3662.00,0.0010
3661.00,0.0010
3660.00,0.0010
3659.00,0.0011
3658.00,0.0011
3657.00,0.0011
3656.00,0.0011
3655.00,0.0011
3654.00,0.0010
3653.00,0.0010
3652.00,0.0010
3651.00,0.0010
3650.00,0.0011
3649.00,0.0011
3648.00,0.0011
3647.00,0.0011
3646.00,0.0011
3645.00,0.0011
3644.00,0.0011
3643.00,0.0011
3642.00,0.0011
3641.00,0.0011
3640.00,0.0012
3639.00,0.0012
3638.00,0.0012
3637.00,0.0013
3636.00,0.0013
3635.00,0.0013
3634.00,0.0013
3633.00,0.0013
3632.00,0.0012
3631.00,0.0012
3630.00,0.0013
3629.00,0.0013
3628.00,0.0014
3627.00,0.0014
3626.00,0.0014
3625.00,0.0014
3624.00,0.0014
3623.00,0.0014
3622.00,0.0014
3621.00,0.0014
3620.00,0.0014
3619.00,0.0014
3618.00,0.0014
3617.00,0.0014
3616.00,0.0014
3615.00,0.0015
3614.00,0.0015
3613.00,0.0016
3612.00,0.0017
3611.00,0.0017
3610.00,0.0017
3609.00,0.0017
3608.00,0.0017
3607.00,0.0017
3606.00,0.0017
3605.00,0.0017
3604.00,0.0018
3603.00,0.0018
3602.00,0.0018
3601.00,0.0017
3600.00,0.0017
3599.00,0.0017
3598.00,0.0018
3597.00,0.0018
3596.00,0.0018
3595.00,0.0019
3594.00,0.0019
3593.00,0.0019
3592.00,0.0020
3591.00,0.0020
3590.00,0.0021
3589.00,0.0021
3588.00,0.0021
3587.00,0.0021
3586.00,0.0020
3585.00,0.0020
3584.00,0.0020
3583.00,0.0020
3582.00,0.0021
3581.00,0.0021
3580.00,0.0021
3579.00,0.0021
3578.00,0.0021
3577.00,0.0022
3576.00,0.0022
3575.00,0.0023
3574.00,0.0023
3573.00,0.0023
3572.00,0.0023
3571.00,0.0024
3570.00,0.0025
3569.00,0.0025
3568.00,0.0026
3567.00,0.0026
3566.00,0.0026
3565.00,0.0026
3564.00,0.0026
3563.00,0.0025
3562.00,0.0025
3561.00,0.0026
3560.00,0.0027
3559.00,0.0027
3558.00,0.0028
3557.00,0.0028
3556.00,0.0028
3555.00,0.0028
3554.00,0.0028
3553.00,0.0028
3552.00,0.0028
3551.00,0.0028
3550.00,0.0029
3549.00,0.0030
3548.00,0.0030
3547.00,0.0031
3546.00,0.0031
3545.00,0.0031
3544.00,0.0031
3543.00,0.0031
3542.00,0.0031
3541.00,0.0031
3540.00,0.0031
3539.00,0.0031
3538.00,0.0031
3537.00,0.0031
3536.00,0.0031
3535.00,0.0031
3534.00,0.0032
3533.00,0.0032
3532.00,0.0033
3531.00,0.0033
3530.00,0.0033
3529.00,0.0033
3528.00,0.0033
3527.00,0.0033
3526.00,0.0033
3525.00,0.0033
3524.00,0.0033
3523.00,0.0033
3522.00,0.0033
3521.00,0.0033
3520.00,0.0034
3519.00,0.0034
3518.00,0.0035
3517.00,0.0035
3516.00,0.0035
3515.00,0.0035
3514.00,0.0035
3513.00,0.0035
3512.00,0.0035
3511.00,0.0036
3510.00,0.0036
3509.00,0.0036
3508.00,0.0036
3507.00,0.0036
3506.00,0.0036
3505.00,0.0036
3504.00,0.0036
3503.00,0.0037
3502.00,0.0038
3501.00,0.0038
3500.00,0.0039
3499.00,0.0039
3498.00,0.0038
3497.00,0.0038
3496.00,0.0038
3495.00,0.0039
3494.00,0.0039
3493.00,0.0039
3492.00,0.0040
3491.00,0.0040
3490.00,0.0041
3489.00,0.0041
3488.00,0.0041
3487.00,0.0041
3486.00,0.0041
3485.00,0.0042
3484.00,0.0042
3483.00,0.0042
3482.00,0.0042
3481.00,0.0042
3480.00,0.0042
3479.00,0.0042
3478.00,0.0042
3477.00,0.0043
3476.00,0.0043
3475.00,0.0044
3474.00,0.0044
3473.00,0.0045
3472.00,0.0044
3471.00,0.0044
3470.00,0.0044
3469.00,0.0044
3468.00,0.0044
3467.00,0.0045
3466.00,0.0045
3465.00,0.0045
3464.00,0.0045
3463.00,0.0046
3462.00,0.0046
3461.00,0.0046
3460.00,0.0046
3459.00,0.0047
3458.00,0.0047
3457.00,0.0047
3456.00,0.0047
3455.00,0.0046
3454.00,0.0047
3453.00,0.0047
3452.00,0.0048
3451.00,0.0048
3450.00,0.0048
3449.00,0.0048
3448.00,0.0048
3447.00,0.0048
3446.00,0.0048
3445.00,0.0049
3444.00,0.0049
3443.00,0.0049
3442.00,0.0050
3441.00,0.0051
3440.00,0.0051
3439.00,0.0051
3438.00,0.0051
3437.00,0.0051
3436.00,0.0051
3435.00,0.0051
3434.00,0.0051
3433.00,0.0052
3432.00,0.0052
3431.00,0.0052
3430.00,0.0052
3429.00,0.0052
3428.00,0.0053
3427.00,0.0053
3426.00,0.0053
3425.00,0.0053
3424.00,0.0054
3423.00,0.0054
3422.00,0.0054
3421.00,0.0054
3420.00,0.0054
3419.00,0.0054
3418.00,0.0054
3417.00,0.0054
3416.00,0.0054
3415.00,0.0054
3414.00,0.0054
3413.00,0.0054
3412.00,0.0055
3411.00,0.0055
3410.00,0.0055
3409.00,0.0055
3408.00,0.0056
3407.00,0.0056
3406.00,0.0056
3405.00,0.0057
3404.00,0.0057
3403.00,0.0057
3402.00,0.0056
3401.00,0.0056
3400.00,0.0056
3399.00,0.0055
3398.00,0.0055
3397.00,0.0055
3396.00,0.0055
3395.00,0.0055
3394.00,0.0055
3393.00,0.0055
3392.00,0.0056
3391.00,0.0056
3390.00,0.0056
3389.00,0.0056
3388.00,0.0056
3387.00,0.0057
3386.00,0.0057
3385.00,0.0057
3384.00,0.0057
3383.00,0.0057
3382.00,0.0057
3381.00,0.0058
3380.00,0.0058
3379.00,0.0058
3378.00,0.0058
3377.00,0.0059
3376.00,0.0059
3375.00,0.0059
3374.00,0.0059
3373.00,0.0059
3372.00,0.0058
3371.00,0.0059
3370.00,0.0059
3369.00,0.0059
3368.00,0.0060
3367.00,0.0060
3366.00,0.0060
3365.00,0.0060
3364.00,0.0059
3363.00,0.0060
3362.00,0.0060
3361.00,0.0060
3360.00,0.0060
3359.00,0.0060
3358.00,0.0060
3357.00,0.0060
3356.00,0.0060
3355.00,0.0060
3354.00,0.0060
3353.00,0.0060
3352.00,0.0060
3351.00,0.0060
3350.00,0.0060
3349.00,0.0061
3348.00,0.0061
3347.00,0.0061
3346.00,0.0060
3345.00,0.0060
3344.00,0.0060
3343.00,0.0059
3342.00,0.0059
3341.00,0.0060
3340.00,0.0060
3339.00,0.0060
3338.00,0.0060
3337.00,0.0059
3336.00,0.0059
3335.00,0.0059
3334.00,0.0059
3333.00,0.0059
3332.00,0.0058
3331.00,0.0058
3330.00,0.0059
3329.00,0.0059
3328.00,0.0060
3327.00,0.0060
3326.00,0.0059
3325.00,0.0059
3324.00,0.0059
3323.00,0.0058
3322.00,0.0058
3321.00,0.0058
3320.00,0.0058
3319.00,0.0058
3318.00,0.0058
3317.00,0.0058
3316.00,0.0058
3315.00,0.0059
3314.00,0.0059
3313.00,0.0059
3312.00,0.0059
3311.00,0.0058
3310.00,0.0058
3309.00,0.0058
3308.00,0.0058
3307.00,0.0058
3306.00,0.0058
3305.00,0.0057
3304.00,0.0057
3303.00,0.0057
3302.00,0.0057
3301.00,0.0057
3300.00,0.0057
3299.00,0.0057
3298.00,0.0057
3297.00,0.0056
3296.00,0.0056
3295.00,0.0056
3294.00,0.0056
3293.00,0.0057
3292.00,0.0057
3291.00,0.0056
3290.00,0.0056
3289.00,0.0056
3288.00,0.0056
3287.00,0.0057
3286.00,0.0057
3285.00,0.0057
3284.00,0.0057
3283.00,0.0056
3282.00,0.0055
3281.00,0.0055
3280.00,0.0055
3279.00,0.0055
3278.00,0.0054
3277.00,0.0054
3276.00,0.0054
3275.00,0.0054
3274.00,0.0054
3273.00,0.0054
3272.00,0.0054
3271.00,0.0053
3270.00,0.0053
3269.00,0.0053
3268.00,0.0053
3267.00,0.0053
3266.00,0.0053
3265.00,0.0053
3264.00,0.0052
3263.00,0.0052
3262.00,0.0052
3261.00,0.0052
3260.00,0.0051
3259.00,0.0051
3258.00,0.0050
3257.00,0.0050
3256.00,0.0050
3255.00,0.0050
3254.00,0.0050
3253.00,0.0050
3252.00,0.0050
3251.00,0.0049
3250.00,0.0049
3249.00,0.0050
3248.00,0.0050
3247.00,0.0050
3246.00,0.0050
3245.00,0.0050
3244.00,0.0051
3243.00,0.0051
3242.00,0.0051
3241.00,0.0051
3240.00,0.0050
3239.00,0.0050
3238.00,0.0049
3237.00,0.0049
3236.00,0.0049
3235.00,0.0048
3234.00,0.0049
3233.00,0.0049
3232.00,0.0050
3231.00,0.0050
3230.00,0.0051
3229.00,0.0051
3228.00,0.0050
3227.00,0.0050
3226.00,0.0050
3225.00,0.0050
3224.00,0.0050
3223.00,0.0051
3222.00,0.0051
3221.00,0.0052
3220.00,0.0052
3219.00,0.0052
3218.00,0.0052
3217.00,0.0051
3216.00,0.0051
3215.00,0.0051
3214.00,0.0052
3213.00,0.0052
3212.00,0.0052
3211.00,0.0053
3210.00,0.0053
3209.00,0.0053
3208.00,0.0053
3207.00,0.0053
3206.00,0.0053
3205.00,0.0053
3204.00,0.0053
3203.00,0.0053
3202.00,0.0053
3201.00,0.0053
3200.00,0.0053
3199.00,0.0053
3198.00,0.0053
3197.00,0.0053
3196.00,0.0053
3195.00,0.0053
3194.00,0.0053
3193.00,0.0053
3192.00,0.0053
3191.00,0.0053
3190.00,0.0053
3189.00,0.0052
3188.00,0.0052
3187.00,0.0051
3186.00,0.0051
3185.00,0.0050
3184.00,0.0050
3183.00,0.0050
3182.00,0.0050
3181.00,0.0050
3180.00,0.0050
3179.00,0.0050
3178.00,0.0050
3177.00,0.0050
3176.00,0.0050
3175.00,0.0050
3174.00,0.0050
3173.00,0.0049
3172.00,0.0049
3171.00,0.0048
3170.00,0.0048
3169.00,0.0047
3168.00,0.0047
3167.00,0.0047
3166.00,0.0047
3165.00,0.0047
3164.00,0.0048
3163.00,0.0048
3162.00,0.0048
3161.00,0.0048
3160.00,0.0048
3159.00,0.0047
3158.00,0.0047
3157.00,0.0047
3156.00,0.0047
3155.00,0.0047
3154.00,0.0046
3153.00,0.0046
3152.00,0.0046
3151.00,0.0046
3150.00,0.0046
3149.00,0.0047
3148.00,0.0047
3147.00,0.0047
3146.00,0.0047
3145.00,0.0046
3144.00,0.0046
3143.00,0.0046
3142.00,0.0045
3141.00,0.0045
3140.00,0.0045
3139.00,0.0045
3138.00,0.0045
3137.00,0.0045
3136.00,0.0045
3135.00,0.0044
3134.00,0.0044
3133.00,0.0044
3132.00,0.0043
3131.00,0.0043
3130.00,0.0042
3129.00,0.0042
3128.00,0.0042
3127.00,0.0042
3126.00,0.0042
3125.00,0.0042
3124.00,0.0041
3123.00,0.0041
3122.00,0.0041
3121.00,0.0040
3120.00,0.0040
3119.00,0.0040
3118.00,0.0039
3117.00,0.0039
3116.00,0.0039
3115.00,0.0039
3114.00,0.0039
3113.00,0.0039
3112.00,0.0039
3111.00,0.0039
3110.00,0.0038
3109.00,0.0038
3108.00,0.0038
3107.00,0.0038
3106.00,0.0038
3105.00,0.0037
3104.00,0.0037
3103.00,0.0038
3102.00,0.0037
3101.00,0.0037
3100.00,0.0037
3099.00,0.0037
3098.00,0.0037
3097.00,0.0036
3096.00,0.0036
3095.00,0.0037
3094.00,0.0037
3093.00,0.0037
3092.00,0.0037
3091.00,0.0037
3090.00,0.0036
3089.00,0.0036
3088.00,0.0036
3087.00,0.0036
3086.00,0.0036
3085.00,0.0036
3084.00,0.0036
3083.00,0.0036
3082.00,0.0036
3081.00,0.0036
3080.00,0.0035
3079.00,0.0035
3078.00,0.0036
3077.00,0.0036
3076.00,0.0036
3075.00,0.0036
3074.00,0.0036
3073.00,0.0036
3072.00,0.0037
3071.00,0.0037
3070.00,0.0037
3069.00,0.0037
3068.00,0.0037
3067.00,0.0038
3066.00,0.0038
3065.00,0.0039
3064.00,0.0039
3063.00,0.0039
3062.00,0.0039
3061.00,0.0039
3060.00,0.0038
3059.00,0.0038
3058.00,0.0038
3057.00,0.0039
3056.00,0.0039
3055.00,0.0039
3054.00,0.0039
3053.00,0.0038
3052.00,0.0039
3051.00,0.0039
3050.00,0.0039
3049.00,0.0039
3048.00,0.0040
3047.00,0.0040
3046.00,0.0040
3045.00,0.0040
3044.00,0.0040
3043.00,0.0040
3042.00,0.0040
3041.00,0.0041
3040.00,0.0041
3039.00,0.0042
3038.00,0.0042
3037.00,0.0042
3036.00,0.0042
3035.00,0.0043
3034.00,0.0043
3033.00,0.0044
3032.00,0.0044
3031.00,0.0045
3030.00,0.0046
3029.00,0.0046
3028.00,0.0047
3027.00,0.0047
3026.00,0.0048
3025.00,0.0048
3024.00,0.0048
3023.00,0.0048
3022.00,0.0049
3021.00,0.0049
3020.00,0.0050
3019.00,0.0051
3018.00,0.0052
3017.00,0.0052
3016.00,0.0053
3015.00,0.0054
3014.00,0.0055
3013.00,0.0056
3012.00,0.0058
3011.00,0.0059
3010.00,0.0061
3009.00,0.0063
3008.00,0.0064
3007.00,0.0066
3006.00,0.0068
3005.00,0.0070
3004.00,0.0072
3003.00,0.0074
3002.00,0.0076
3001.00,0.0078
3000.00,0.0081
2999.00,0.0084
2998.00,0.0088
2997.00,0.0091
2996.00,0.0095
2995.00,0.0100
2994.00,0.0105
2993.00,0.0110
2992.00,0.0115
2991.00,0.0122
2990.00,0.0129
2989.00,0.0137
2988.00,0.0145
2987.00,0.0154
2986.00,0.0165
2985.00,0.0177
2984.00,0.0190
2983.00,0.0206
2982.00,0.0223
2981.00,0.0242
2980.00,0.0263
2979.00,0.0287
2978.00,0.0315
2977.00,0.0346
2976.00,0.0381
2975.00,0.0421
2974.00,0.0466
2973.00,0.0517
2972.00,0.0575
2971.00,0.0640
2970.00,0.0713
2969.00,0.0794
2968.00,0.0883
2967.00,0.0979
2966.00,0.1083
2965.00,0.1191
2964.00,0.1301
2963.00,0.1409
2962.00,0.1510
2961.00,0.1600
2960.00,0.1674
2959.00,0.1731
2958.00,0.1774
2957.00,0.1804
2956.00,0.1829
2955.00,0.1853
2954.00,0.1878
2953.00,0.1903
2952.00,0.1923
2951.00,0.1932
2950.00,0.1922
2949.00,0.1885
2948.00,0.1819
2947.00,0.1726
2946.00,0.1612
2945.00,0.1489
2944.00,0.1369
2943.00,0.1262
2942.00,0.1176
2941.00,0.1113
2940.00,0.1074
2939.00,0.1057
2938.00,0.1061
2937.00,0.1082
2936.00,0.1118
2935.00,0.1170
2934.00,0.1233
2933.00,0.1309
2932.00,0.1393
2931.00,0.1484
2930.00,0.1579
2929.00,0.1675
2928.00,0.1770
2927.00,0.1861
2926.00,0.1948
2925.00,0.2031
2924.00,0.2110
2923.00,0.2187
2922.00,0.2262
2921.00,0.2332
2920.00,0.2395
2919.00,0.2443
2918.00,0.2471
2917.00,0.2472
2916.00,0.2446
2915.00,0.2394
2914.00,0.2324
2913.00,0.2245
2912.00,0.2164
2911.00,0.2087
2910.00,0.2016
2909.00,0.1953
2908.00,0.1893
2907.00,0.1836
2906.00,0.1779
2905.00,0.1719
2904.00,0.1656
2903.00,0.1591
2902.00,0.1524
2901.00,0.1458
2900.00,0.1392
2899.00,0.1330
2898.00,0.1272
2897.00,0.1219
2896.00,0.1171
2895.00,0.1130
2894.00,0.1096
2893.00,0.1068
2892.00,0.1047
2891.00,0.1031
2890.00,0.1021
2889.00,0.1016
2888.00,0.1014
2887.00,0.1017
2886.00,0.1023
2885.00,0.1033
2884.00,0.1046
2883.00,0.1064
2882.00,0.1085
2881.00,0.1108
2880.00,0.1131
2879.00,0.1151
2878.00,0.1163
2877.00,0.1168
2876.00,0.1165
2875.00,0.1158
2874.00,0.1152
2873.00,0.1149
2872.00,0.1152
2871.00,0.1162
2870.00,0.1176
2869.00,0.1190
2868.00,0.1197
2867.00,0.1191
2866.00,0.1165
2865.00,0.1118
2864.00,0.1051
2863.00,0.0974
2862.00,0.0893
2861.00,0.0818
2860.00,0.0754
2859.00,0.0704
2858.00,0.0668
2857.00,0.0644
2856.00,0.0631
2855.00,0.0627
2854.00,0.0632
2853.00,0.0643
2852.00,0.0661
2851.00,0.0683
2850.00,0.0708
2849.00,0.0734
2848.00,0.0761
2847.00,0.0793
2846.00,0.0832
2845.00,0.0879
2844.00,0.0936
2843.00,0.0999
2842.00,0.1066
2841.00,0.1131
2840.00,0.1186
2839.00,0.1223
2838.00,0.1231
2837.00,0.1207
2836.00,0.1149
2835.00,0.1062
2834.00,0.0958
2833.00,0.0848
2832.00,0.0743
2831.00,0.0648
2830.00,0.0567
2829.00,0.0501
2828.00,0.0448
2827.00,0.0405
2826.00,0.0370
2825.00,0.0341
2824.00,0.0316
2823.00,0.0296
2822.00,0.0278
2821.00,0.0263
2820.00,0.0250
2819.00,0.0239
2818.00,0.0229
2817.00,0.0221
2816.00,0.0213
2815.00,0.0206
2814.00,0.0200
2813.00,0.0195
2812.00,0.0190
2811.00,0.0184
2810.00,0.0179
2809.00,0.0174
2808.00,0.0168
2807.00,0.0163
2806.00,0.0157
2805.00,0.0151
2804.00,0.0144
2803.00,0.0138
2802.00,0.0133
2801.00,0.0129
2800.00,0.0126
2799.00,0.0122
2798.00,0.0120
2797.00,0.0117
2796.00,0.0114
2795.00,0.0112
2794.00,0.0109
2793.00,0.0106
2792.00,0.0103
2791.00,0.0100
2790.00,0.0096
2789.00,0.0093
2788.00,0.0090
2787.00,0.0087
2786.00,0.0084
2785.00,0.0082
2784.00,0.0079
2783.00,0.0077
2782.00,0.0074
2781.00,0.0072
2780.00,0.0070
2779.00,0.0069
2778.00,0.0067
2777.00,0.0066
2776.00,0.0065
2775.00,0.0064
2774.00,0.0063
2773.00,0.0063
2772.00,0.0062
2771.00,0.0061
2770.00,0.0061
2769.00,0.0060
2768.00,0.0060
2767.00,0.0059
2766.00,0.0059
2765.00,0.0059
2764.00,0.0059
2763.00,0.0059
2762.00,0.0058
2761.00,0.0058
2760.00,0.0057
2759.00,0.0057
2758.00,0.0057
2757.00,0.0056
2756.00,0.0056
2755.00,0.0056
2754.00,0.0056
2753.00,0.0056
2752.00,0.0055
2751.00,0.0055
2750.00,0.0055
2749.00,0.0055
2748.00,0.0056
2747.00,0.0057
2746.00,0.0057
2745.00,0.0058
2744.00,0.0059
2743.00,0.0059
2742.00,0.0060
2741.00,0.0061
2740.00,0.0063
2739.00,0.0064
2738.00,0.0065
2737.00,0.0066
2736.00,0.0068
2735.00,0.0069
2734.00,0.0071
2733.00,0.0073
2732.00,0.0074
2731.00,0.0076
2730.00,0.0078
2729.00,0.0080
2728.00,0.0082
2727.00,0.0085
2726.00,0.0087
2725.00,0.0089
2724.00,0.0091
2723.00,0.0091
2722.00,0.0090
2721.00,0.0088
2720.00,0.0086
2719.00,0.0083
2718.00,0.0080
2717.00,0.0077
2716.00,0.0074
2715.00,0.0071
2714.00,0.0068
2713.00,0.0066
2712.00,0.0064
2711.00,0.0063
2710.00,0.0061
2709.00,0.0060
2708.00,0.0058
2707.00,0.0057
2706.00,0.0056
2705.00,0.0056
2704.00,0.0055
2703.00,0.0054
2702.00,0.0053
2701.00,0.0053
2700.00,0.0052
2699.00,0.0051
2698.00,0.0050
2697.00,0.0049
2696.00,0.0049
2695.00,0.0049
2694.00,0.0049
2693.00,0.0049
2692.00,0.0050
2691.00,0.0050
2690.00,0.0049
2689.00,0.0049
2688.00,0.0049
2687.00,0.0049
2686.00,0.0049
2685.00,0.0049
2684.00,0.0049
2683.00,0.0049
2682.00,0.0049
2681.00,0.0050
2680.00,0.0050
2679.00,0.0050
2678.00,0.0050
2677.00,0.0050
2676.00,0.0050
2675.00,0.0049
2674.00,0.0049
2673.00,0.0049
2672.00,0.0049
2671.00,0.0048
2670.00,0.0048
2669.00,0.0048
2668.00,0.0048
2667.00,0.0049
2666.00,0.0049
2665.00,0.0049
2664.00,0.0050
2663.00,0.0050
2662.00,0.0051
2661.00,0.0052
2660.00,0.0052
2659.00,0.0052
2658.00,0.0052
2657.00,0.0051
2656.00,0.0050
2655.00,0.0050
2654.00,0.0050
2653.00,0.0049
2652.00,0.0049
2651.00,0.0048
2650.00,0.0048
2649.00,0.0047
2648.00,0.0047
2647.00,0.0046
2646.00,0.0046
2645.00,0.0046
2644.00,0.0046
2643.00,0.0045
2642.00,0.0044
2641.00,0.0044
2640.00,0.0043
2639.00,0.0043
2638.00,0.0043
2637.00,0.0043
2636.00,0.0043
2635.00,0.0043
2634.00,0.0043
2633.00,0.0043
2632.00,0.0043
2631.00,0.0043
2630.00,0.0044
2629.00,0.0044
2628.00,0.0044
2627.00,0.0044
2626.00,0.0045
2625.00,0.0045
2624.00,0.0045
2623.00,0.0045
2622.00,0.0045
2621.00,0.0044
2620.00,0.0044
2619.00,0.0044
2618.00,0.0044
2617.00,0.0044
2616.00,0.0045
2615.00,0.0045
2614.00,0.0045
2613.00,0.0044
2612.00,0.0043
2611.00,0.0041
2610.00,0.0040
2609.00,0.0040
2608.00,0.0039
2607.00,0.0039
2606.00,0.0039
2605.00,0.0039
2604.00,0.0038
2603.00,0.0037
2602.00,0.0036
2601.00,0.0035
2600.00,0.0034
2599.00,0.0034
2598.00,0.0035
2597.00,0.0036
2596.00,0.0036
2595.00,0.0036
2594.00,0.0036
2593.00,0.0037
2592.00,0.0037
2591.00,0.0038
2590.00,0.0038
2589.00,0.0039
2588.00,0.0039
2587.00,0.0040
2586.00,0.0040
2585.00,0.0040
2584.00,0.0041
2583.00,0.0041
2582.00,0.0041
2581.00,0.0041
2580.00,0.0041
2579.00,0.0040
2578.00,0.0040
2577.00,0.0039
2576.00,0.0038
2575.00,0.0037
2574.00,0.0037
2573.00,0.0036
2572.00,0.0035
2571.00,0.0034
2570.00,0.0033
2569.00,0.0032
2568.00,0.0031
2567.00,0.0031
2566.00,0.0030
2565.00,0.0030
2564.00,0.0029
2563.00,0.0028
2562.00,0.0028
2561.00,0.0028
2560.00,0.0028
2559.00,0.0027
2558.00,0.0027
2557.00,0.0027
2556.00,0.0027
2555.00,0.0027
2554.00,0.0027
2553.00,0.0027
2552.00,0.0027
2551.00,0.0027
2550.00,0.0026
2549.00,0.0025
2548.00,0.0024
2547.00,0.0024
2546.00,0.0024
2545.00,0.0024
2544.00,0.0023
2543.00,0.0023
2542.00,0.0022
2541.00,0.0021
2540.00,0.0021
2539.00,0.0021
2538.00,0.0021
2537.00,0.0021
2536.00,0.0021
2535.00,0.0021
2534.00,0.0021
2533.00,0.0020
2532.00,0.0021
2531.00,0.0021
2530.00,0.0021
2529.00,0.0021
2528.00,0.0021
2527.00,0.0021
2526.00,0.0021
2525.00,0.0021
2524.00,0.0021
2523.00,0.0020
2522.00,0.0020
2521.00,0.0020
2520.00,0.0019
2519.00,0.0019
2518.00,0.0018
2517.00,0.0017
2516.00,0.0016
2515.00,0.0015
2514.00,0.0015
2513.00,0.0015
2512.00,0.0016
2511.00,0.0016
2510.00,0.0017
2509.00,0.0017
2508.00,0.0017
2507.00,0.0016
2506.00,0.0016
2505.00,0.0015
2504.00,0.0015
2503.00,0.0014
2502.00,0.0014
2501.00,0.0014
2500.00,0.0014
2499.00,0.0015
2498.00,0.0015
2497.00,0.0015
2496.00,0.0016
2495.00,0.0016
2494.00,0.0016
2493.00,0.0015
2492.00,0.0015
2491.00,0.0015
2490.00,0.0015
2489.00,0.0014
2488.00,0.0014
2487.00,0.0014
2486.00,0.0014
2485.00,0.0014
2484.00,0.0014
2483.00,0.0014
2482.00,0.0014
2481.00,0.0014
2480.00,0.0014
2479.00,0.0014
2478.00,0.0014
2477.00,0.0013
2476.00,0.0014
2475.00,0.0014
2474.00,0.0013
2473.00,0.0013
2472.00,0.0013
2471.00,0.0013
2470.00,0.0013
2469.00,0.0014
2468.00,0.0013
2467.00,0.0013
2466.00,0.0012
2465.00,0.0012
2464.00,0.0012
2463.00,0.0013
2462.00,0.0014
2461.00,0.0014
2460.00,0.0015
2459.00,0.0015
2458.00,0.0016
2457.00,0.0016
2456.00,0.0017
2455.00,0.0017
2454.00,0.0017
2453.00,0.0017
2452.00,0.0016
2451.00,0.0016
2450.00,0.0015
2449.00,0.0015
2448.00,0.0015
2447.00,0.0014
2446.00,0.0014
2445.00,0.0014
2444.00,0.0013
2443.00,0.0014
2442.00,0.0015
2441.00,0.0015
2440.00,0.0015
2439.00,0.0015
2438.00,0.0015
2437.00,0.0016
2436.00,0.0016
2435.00,0.0017
2434.00,0.0017
2433.00,0.0018
2432.00,0.0018
2431.00,0.0018
2430.00,0.0017
2429.00,0.0017
2428.00,0.0017
2427.00,0.0016
2426.00,0.0016
2425.00,0.0016
2424.00,0.0016
2423.00,0.0016
2422.00,0.0016
2421.00,0.0015
2420.00,0.0015
2419.00,0.0015
2418.00,0.0015
2417.00,0.0015
2416.00,0.0015
2415.00,0.0015
2414.00,0.0014
2413.00,0.0013
2412.00,0.0013
2411.00,0.0013
2410.00,0.0014
2409.00,0.0014
2408.00,0.0015
2407.00,0.0014
2406.00,0.0014
2405.00,0.0014
2404.00,0.0014
2403.00,0.0014
2402.00,0.0014
2401.00,0.0014
2400.00,0.0013
2399.00,0.0013
2398.00,0.0013
2397.00,0.0013
2396.00,0.0013
2395.00,0.0013
2394.00,0.0013
2393.00,0.0014
2392.00,0.0014
2391.00,0.0014
2390.00,0.0013
2389.00,0.0013
2388.00,0.0012
2387.00,0.0012
2386.00,0.0011
2385.00,0.0011
2384.00,0.0010
2383.00,0.0010
2382.00,0.0010
2381.00,0.0009
2380.00,0.0009
2379.00,0.0009
2378.00,0.0009
2377.00,0.0010
2376.00,0.0010
2375.00,0.0010
2374.00,0.0009
2373.00,0.0010
2372.00,0.0010
2371.00,0.0010
2370.00,0.0010
2369.00,0.0009
2368.00,0.0008
2367.00,0.0007
2366.00,0.0007
2365.00,0.0008
2364.00,0.0008
2363.00,0.0009
2362.00,0.0010
2361.00,0.0011
2360.00,0.0010
2359.00,0.0010
2358.00,0.0009
2357.00,0.0009
2356.00,0.0010
2355.00,0.0010
2354.00,0.0010
2353.00,0.0009
2352.00,0.0009
2351.00,0.0009
2350.00,0.0010
2349.00,0.0011
2348.00,0.0011
2347.00,0.0011
2346.00,0.0011
2345.00,0.0011
2344.00,0.0012
2343.00,0.0012
2342.00,0.0012
2341.00,0.0013
2340.00,0.0013
2339.00,0.0012
2338.00,0.0012
2337.00,0.0012
2336.00,0.0012
2335.00,0.0012
2334.00,0.0012
2333.00,0.0012
2332.00,0.0012
2331.00,0.0012
2330.00,0.0012
2329.00,0.0013
2328.00,0.0014
2327.00,0.0018
2326.00,0.0022
2325.00,0.0025
2324.00,0.0027
2323.00,0.0027
2322.00,0.0024
2321.00,0.0022
2320.00,0.0020
2319.00,0.0019
2318.00,0.0018
2317.00,0.0018
2316.00,0.0017
2315.00,0.0016
2314.00,0.0015
2313.00,0.0014
2312.00,0.0014
2311.00,0.0013
2310.00,0.0012
2309.00,0.0012
2308.00,0.0013
2307.00,0.0014
2306.00,0.0015
2305.00,0.0016
2304.00,0.0016
2303.00,0.0015
2302.00,0.0015
2301.00,0.0015
2300.00,0.0015
2299.00,0.0016
2298.00,0.0017
2297.00,0.0017
2296.00,0.0017
2295.00,0.0017
2294.00,0.0017
2293.00,0.0018
2292.00,0.0019
2291.00,0.0020
2290.00,0.0022
2289.00,0.0023
2288.00,0.0024
2287.00,0.0024
2286.00,0.0024
2285.00,0.0023
2284.00,0.0023
2283.00,0.0022
2282.00,0.0021
2281.00,0.0020
2280.00,0.0019
2279.00,0.0017
2278.00,0.0016
2277.00,0.0015
2276.00,0.0015
2275.00,0.0014
2274.00,0.0014
2273.00,0.0014
2272.00,0.0015
2271.00,0.0016
2270.00,0.0017
2269.00,0.0018
2268.00,0.0018
2267.00,0.0017
2266.00,0.0016
2265.00,0.0016
2264.00,0.0016
2263.00,0.0017
2262.00,0.0018
2261.00,0.0018
2260.00,0.0017
2259.00,0.0016
2258.00,0.0015
2257.00,0.0014
2256.00,0.0012
2255.00,0.0010
2254.00,0.0010
2253.00,0.0011
2252.00,0.0013
2251.00,0.0015
2250.00,0.0016
2249.00,0.0015
2248.00,0.0014
2247.00,0.0013
2246.00,0.0012
2245.00,0.0011
2244.00,0.0011
2243.00,0.0011
2242.00,0.0011
2241.00,0.0012
2240.00,0.0013
2239.00,0.0014
2238.00,0.0014
2237.00,0.0014
2236.00,0.0014
2235.00,0.0013
2234.00,0.0013
2233.00,0.0013
2232.00,0.0013
2231.00,0.0013
2230.00,0.0014
2229.00,0.0014
2228.00,0.0013
2227.00,0.0011
2226.00,0.0009
2225.00,0.0007
2224.00,0.0007
2223.00,0.0007
2222.00,0.0009
2221.00,0.0011
2220.00,0.0014
2219.00,0.0015
2218.00,0.0016
2217.00,0.0016
2216.00,0.0016
2215.00,0.0015
2214.00,0.0013
2213.00,0.0010
2212.00,0.0009
2211.00,0.0008
2210.00,0.0008
2209.00,0.0009
2208.00,0.0009
2207.00,0.0009
2206.00,0.0009
2205.00,0.0008
2204.00,0.0009
2203.00,0.0010
2202.00,0.0011
2201.00,0.0012
2200.00,0.0012
2199.00,0.0012
2198.00,0.0011
2197.00,0.0012
2196.00,0.0012
2195.00,0.0012
2194.00,0.0014
2193.00,0.0015
2192.00,0.0015
2191.00,0.0014
2190.00,0.0014
2189.00,0.0015
2188.00,0.0017
2187.00,0.0018
2186.00,0.0016
2185.00,0.0014
2184.00,0.0010
2183.00,0.0006
2182.00,0.0003
2181.00,0.0002
2180.00,0.0003
2179.00,0.0005
2178.00,0.0006
2177.00,0.0006
2176.00,0.0004
2175.00,0.0003
2174.00,0.0004
2173.00,0.0007
2172.00,0.0010
2171.00,0.0014
2170.00,0.0018
2169.00,0.0024
2168.00,0.0029
2167.00,0.0030
2166.00,0.0028
2165.00,0.0025
2164.00,0.0024
2163.00,0.0026
2162.00,0.0028
2161.00,0.0023
2160.00,0.0010
2159.00,-0.0007
2158.00,-0.0020
2157.00,-0.0025
2156.00,-0.0023
2155.00,-0.0019
2154.00,-0.0014
2153.00,-0.0009
2152.00,-0.0005
2151.00,-0.0002
2150.00,0.0000
2149.00,-0.0001
2148.00,-0.0004
2147.00,-0.0009
2146.00,-0.0013
2145.00,-0.0015
2144.00,-0.0015
2143.00,-0.0013
2142.00,-0.0011
2141.00,-0.0008
2140.00,-0.0006
2139.00,-0.0006
2138.00,-0.0007
2137.00,-0.0008
2136.00,-0.0009
2135.00,-0.0011
2134.00,-0.0012
2133.00,-0.0011
2132.00,-0.0009
2131.00,-0.0008
2130.00,-0.0007
2129.00,-0.0006
2128.00,-0.0005
2127.00,-0.0003
2126.00,-0.0002
2125.00,-0.0001
2124.00,0.0000
2123.00,0.0001
2122.00,0.0002
2121.00,0.0003
2120.00,0.0003
2119.00,0.0003
2118.00,0.0005
2117.00,0.0007
2116.00,0.0009
2115.00,0.0010
2114.00,0.0011
2113.00,0.0011
2112.00,0.0011
2111.00,0.0010
2110.00,0.0009
2109.00,0.0009
2108.00,0.0008
2107.00,0.0008
2106.00,0.0008
2105.00,0.0008
2104.00,0.0008
2103.00,0.0008
2102.00,0.0008
2101.00,0.0007
2100.00,0.0007
2099.00,0.0007
2098.00,0.0006
2097.00,0.0004
2096.00,0.0002
2095.00,-0.0001
2094.00,-0.0001
2093.00,-0.0000
2092.00,0.0002
2091.00,0.0005
2090.00,0.0007
2089.00,0.0007
2088.00,0.0007
2087.00,0.0007
2086.00,0.0008
2085.00,0.0009
2084.00,0.0010
2083.00,0.0011
2082.00,0.0011
2081.00,0.0010
2080.00,0.0010
2079.00,0.0010
2078.00,0.0010
2077.00,0.0010
2076.00,0.0010
2075.00,0.0009
2074.00,0.0007
2073.00,0.0006
2072.00,0.0004
2071.00,0.0004
2070.00,0.0004
2069.00,0.0005
2068.00,0.0006
2067.00,0.0007
2066.00,0.0007
2065.00,0.0008
2064.00,0.0008
2063.00,0.0008
2062.00,0.0008
2061.00,0.0010
2060.00,0.0011
2059.00,0.0010
2058.00,0.0008
2057.00,0.0007
2056.00,0.0007
2055.00,0.0008
2054.00,0.0010
2053.00,0.0014
2052.00,0.0019
2051.00,0.0021
2050.00,0.0020
2049.00,0.0016
2048.00,0.0011
2047.00,0.0007
2046.00,0.0005
2045.00,0.0005
2044.00,0.0007
2043.00,0.0007
2042.00,0.0006
2041.00,0.0003
2040.00,0.0001
2039.00,0.0002
2038.00,0.0006
2037.00,0.0011
2036.00,0.0014
2035.00,0.0013
2034.00,0.0008
2033.00,0.0003
2032.00,-0.0002
2031.00,-0.0004
2030.00,-0.0005
2029.00,-0.0005
2028.00,-0.0005
2027.00,-0.0005
2026.00,-0.0005
2025.00,-0.0006
2024.00,-0.0006
2023.00,-0.0008
2022.00,-0.0009
2021.00,-0.0010
2020.00,-0.0010
2019.00,-0.0011
2018.00,-0.0012
2017.00,-0.0012
2016.00,-0.0010
2015.00,-0.0009
2014.00,-0.0007
2013.00,-0.0006
2012.00,-0.0003
2011.00,-0.0000
2010.00,0.0000
2009.00,-0.0001
2008.00,-0.0005
2007.00,-0.0010
2006.00,-0.0013
2005.00,-0.0012
2004.00,-0.0008
2003.00,-0.0006
2002.00,-0.0005
2001.00,-0.0005
2000.00,-0.0006
1999.00,-0.0007
1998.00,-0.0005
1997.00,-0.0002
1996.00,0.0001
1995.00,0.0003
1994.00,0.0004
1993.00,0.0004
1992.00,0.0004
1991.00,0.0004
1990.00,0.0005
1989.00,0.0006
1988.00,0.0006
1987.00,0.0005
1986.00,0.0003
1985.00,0.0002
1984.00,0.0002
1983.00,0.0004
1982.00,0.0006
1981.00,0.0010
1980.00,0.0013
1979.00,0.0011
1978.00,0.0004
1977.00,-0.0005
1976.00,-0.0011
1975.00,-0.0014
1974.00,-0.0014
1973.00,-0.0012
1972.00,-0.0009
1971.00,-0.0006
1970.00,-0.0004
1969.00,-0.0002
1968.00,-0.0001
1967.00,-0.0003
1966.00,-0.0005
1965.00,-0.0007
1964.00,-0.0007
1963.00,-0.0007
1962.00,-0.0008
1961.00,-0.0009
1960.00,-0.0012
1959.00,-0.0015
1958.00,-0.0017
1957.00,-0.0015
1956.00,-0.0012
1955.00,-0.0009
1954.00,-0.0007
1953.00,-0.0007
1952.00,-0.0009
1951.00,-0.0011
1950.00,-0.0013
1949.00,-0.0013
1948.00,-0.0012
1947.00,-0.0012
1946.00,-0.0011
1945.00,-0.0011
1944.00,-0.0010
1943.00,-0.0010
1942.00,-0.0010
1941.00,-0.0008
1940.00,-0.0006
1939.00,-0.0003
1938.00,-0.0002
1937.00,-0.0001
1936.00,-0.0001
1935.00,-0.0003
1934.00,-0.0005
1933.00,-0.0005
1932.00,-0.0005
1931.00,-0.0004
1930.00,-0.0003
1929.00,-0.0003
1928.00,-0.0003
1927.00,-0.0003
1926.00,-0.0003
1925.00,-0.0002
1924.00,-0.0001
1923.00,-0.0000
1922.00,0.0001
1921.00,0.0003
1920.00,0.0004
1919.00,0.0005
1918.00,0.0004
1917.00,0.0004
1916.00,0.0003
1915.00,0.0002
1914.00,0.0001
1913.00,0.0000
1912.00,0.0000
1911.00,0.0000
1910.00,0.0001
1909.00,0.0002
1908.00,0.0003
1907.00,0.0003
1906.00,0.0003
1905.00,0.0004
1904.00,0.0004
1903.00,0.0004
1902.00,0.0004
1901.00,0.0004
1900.00,0.0004
1899.00,0.0003
1898.00,0.0003
1897.00,0.0002
1896.00,0.0002
1895.00,0.0002
1894.00,0.0002
1893.00,0.0004
1892.00,0.0006
1891.00,0.0006
1890.00,0.0006
1889.00,0.0004
1888.00,0.0003
1887.00,0.0002
1886.00,0.0002
1885.00,0.0002
1884.00,0.0003
1883.00,0.0003
1882.00,0.0003
1881.00,0.0003
1880.00,0.0004
1879.00,0.0005
1878.00,0.0005
1877.00,0.0005
1876.00,0.0004
1875.00,0.0003
1874.00,0.0002
1873.00,0.0003
1872.00,0.0003
1871.00,0.0004
1870.00,0.0005
1869.00,0.0006
1868.00,0.0007
1867.00,0.0007
1866.00,0.0007
1865.00,0.0006
1864.00,0.0006
1863.00,0.0005
1862.00,0.0005
1861.00,0.0005
1860.00,0.0005
1859.00,0.0005
1858.00,0.0004
1857.00,0.0004
1856.00,0.0004
1855.00,0.0004
1854.00,0.0004
1853.00,0.0004
1852.00,0.0005
1851.00,0.0005
1850.00,0.0006
1849.00,0.0006
1848.00,0.0007
1847.00,0.0007
1846.00,0.0007
1845.00,0.0007
1844.00,0.0007
1843.00,0.0007
1842.00,0.0007
1841.00,0.0006
1840.00,0.0007
1839.00,0.0007
1838.00,0.0008
1837.00,0.0008
1836.00,0.0009
1835.00,0.0010
1834.00,0.0010
1833.00,0.0010
1832.00,0.0009
1831.00,0.0009
1830.00,0.0009
1829.00,0.0009
1828.00,0.0009
1827.00,0.0009
1826.00,0.0009
1825.00,0.0010
1824.00,0.0010
1823.00,0.0010
1822.00,0.0009
1821.00,0.0008
1820.00,0.0008
1819.00,0.0007
1818.00,0.0007
1817.00,0.0007
1816.00,0.0007
1815.00,0.0007
1814.00,0.0007
1813.00,0.0008
1812.00,0.0008
1811.00,0.0008
1810.00,0.0009
1809.00,0.0009
1808.00,0.0009
1807.00,0.0010
1806.00,0.0010
1805.00,0.0011
1804.00,0.0011
1803.00,0.0012
1802.00,0.0012
1801.00,0.0012
1800.00,0.0012
1799.00,0.0011
1798.00,0.0011
1797.00,0.0010
1796.00,0.0011
1795.00,0.0011
1794.00,0.0012
1793.00,0.0013
1792.00,0.0013
1791.00,0.0013
1790.00,0.0012
1789.00,0.0012
1788.00,0.0012
1787.00,0.0012
1786.00,0.0013
1785.00,0.0014
1784.00,0.0014
1783.00,0.0014
1782.00,0.0014
1781.00,0.0014
1780.00,0.0014
1779.00,0.0014
1778.00,0.0014
1777.00,0.0014
1776.00,0.0015
1775.00,0.0015
1774.00,0.0014
1773.00,0.0014
1772.00,0.0014
1771.00,0.0015
1770.00,0.0015
1769.00,0.0016
1768.00,0.0016
1767.00,0.0017
1766.00,0.0017
1765.00,0.0017
1764.00,0.0017
1763.00,0.0017
1762.00,0.0018
1761.00,0.0018
1760.00,0.0019
1759.00,0.0019
1758.00,0.0019
1757.00,0.0020
1756.00,0.0020
1755.00,0.0021
1754.00,0.0021
1753.00,0.0022
1752.00,0.0023
1751.00,0.0023
1750.00,0.0024
1749.00,0.0025
1748.00,0.0025
1747.00,0.0026
1746.00,0.0027
1745.00,0.0027
1744.00,0.0028
1743.00,0.0028
1742.00,0.0029
1741.00,0.0029
1740.00,0.0029
1739.00,0.0029
1738.00,0.0030
1737.00,0.0030
1736.00,0.0031
1735.00,0.0030
1734.00,0.0030
1733.00,0.0029
1732.00,0.0029
1731.00,0.0028
1730.00,0.0028
1729.00,0.0028
1728.00,0.0028
1727.00,0.0028
1726.00,0.0029
1725.00,0.0029
1724.00,0.0029
1723.00,0.0029
1722.00,0.0029
1721.00,0.0029
1720.00,0.0029
1719.00,0.0028
1718.00,0.0028
1717.00,0.0028
1716.00,0.0029
1715.00,0.0029
1714.00,0.0029
1713.00,0.0029
1712.00,0.0030
1711.00,0.0031
1710.00,0.0031
1709.00,0.0032
1708.00,0.0032
1707.00,0.0033
1706.00,0.0033
1705.00,0.0034
1704.00,0.0034
1703.00,0.0035
1702.00,0.0035
1701.00,0.0035
1700.00,0.0036
1699.00,0.0036
1698.00,0.0036
1697.00,0.0036
1696.00,0.0037
1695.00,0.0038
1694.00,0.0039
1693.00,0.0040
1692.00,0.0041
1691.00,0.0042
1690.00,0.0043
1689.00,0.0044
1688.00,0.0045
1687.00,0.0045
1686.00,0.0046
1685.00,0.0047
1684.00,0.0049
1683.00,0.0051
1682.00,0.0052
1681.00,0.0052
1680.00,0.0053
1679.00,0.0055
1678.00,0.0056
1677.00,0.0057
1676.00,0.0059
1675.00,0.0060
1674.00,0.0061
1673.00,0.0061
1672.00,0.0061
1671.00,0.0062
1670.00,0.0063
1669.00,0.0065
1668.00,0.0066
1667.00,0.0066
1666.00,0.0066
1665.00,0.0067
1664.00,0.0068
1663.00,0.0069
1662.00,0.0069
1661.00,0.0070
1660.00,0.0070
1659.00,0.0071
1658.00,0.0072
1657.00,0.0073
1656.00,0.0074
1655.00,0.0075
1654.00,0.0075
1653.00,0.0076
1652.00,0.0076
1651.00,0.0076
1650.00,0.0076
1649.00,0.0077
1648.00,0.0078
1647.00,0.0078
1646.00,0.0078
1645.00,0.0077
1644.00,0.0077
1643.00,0.0077
1642.00,0.0077
1641.00,0.0078
1640.00,0.0079
1639.00,0.0079
1638.00,0.0079
1637.00,0.0079
1636.00,0.0080
1635.00,0.0080
1634.00,0.0080
1633.00,0.0080
1632.00,0.0081
1631.00,0.0081
1630.00,0.0081
1629.00,0.0081
1628.00,0.0081
1627.00,0.0081
1626.00,0.0081
1625.00,0.0081
1624.00,0.0081
1623.00,0.0080
1622.00,0.0080
1621.00,0.0080
1620.00,0.0080
1619.00,0.0079
1618.00,0.0078
1617.00,0.0078
1616.00,0.0079
1615.00,0.0079
1614.00,0.0078
1613.00,0.0078
1612.00,0.0078
1611.00,0.0077
1610.00,0.0077
1609.00,0.0078
1608.00,0.0078
1607.00,0.0078
1606.00,0.0078
1605.00,0.0078
1604.00,0.0079
1603.00,0.0079
1602.00,0.0080
1601.00,0.0080
1600.00,0.0080
1599.00,0.0080
1598.00,0.0081
1597.00,0.0081
1596.00,0.0082
1595.00,0.0083
1594.00,0.0084
1593.00,0.0085
1592.00,0.0087
1591.00,0.0089
1590.00,0.0092
1589.00,0.0095
1588.00,0.0099
1587.00,0.0104
1586.00,0.0108
1585.00,0.0114
1584.00,0.0121
1583.00,0.0128
1582.00,0.0135
1581.00,0.0142
1580.00,0.0148
1579.00,0.0153
1578.00,0.0155
1577.00,0.0155
1576.00,0.0153
1575.00,0.0149
1574.00,0.0145
1573.00,0.0141
1572.00,0.0137
1571.00,0.0132
1570.00,0.0125
1569.00,0.0120
1568.00,0.0115
1567.00,0.0111
1566.00,0.0108
1565.00,0.0106
1564.00,0.0104
1563.00,0.0103
1562.00,0.0103
1561.00,0.0103
1560.00,0.0103
1559.00,0.0103
1558.00,0.0104
1557.00,0.0104
1556.00,0.0105
1555.00,0.0107
1554.00,0.0109
1553.00,0.0112
1552.00,0.0115
1551.00,0.0119
1550.00,0.0124
1549.00,0.0131
1548.00,0.0137
1547.00,0.0144
1546.00,0.0152
1545.00,0.0160
1544.00,0.0169
1543.00,0.0176
1542.00,0.0180
1541.00,0.0181
1540.00,0.0176
1539.00,0.0166
1538.00,0.0157
1537.00,0.0151
1536.00,0.0144
1535.00,0.0136
1534.00,0.0126
1533.00,0.0117
1532.00,0.0110
1531.00,0.0105
1530.00,0.0102
1529.00,0.0099
1528.00,0.0097
1527.00,0.0094
1526.00,0.0091
1525.00,0.0090
1524.00,0.0089
1523.00,0.0088
1522.00,0.0087
1521.00,0.0087
1520.00,0.0087
1519.00,0.0086
1518.00,0.0086
1517.00,0.0085
1516.00,0.0086
1515.00,0.0085
1514.00,0.0085
1513.00,0.0086
1512.00,0.0087
1511.00,0.0087
1510.00,0.0088
1509.00,0.0088
1508.00,0.0089
1507.00,0.0089
1506.00,0.0089
1505.00,0.0091
1504.00,0.0093
1503.00,0.0094
1502.00,0.0096
1501.00,0.0098
1500.00,0.0101
1499.00,0.0103
1498.00,0.0105
1497.00,0.0108
1496.00,0.0112
1495.00,0.0114
1494.00,0.0117
1493.00,0.0120
1492.00,0.0124
1491.00,0.0129
1490.00,0.0134
1489.00,0.0140
1488.00,0.0147
1487.00,0.0154
1486.00,0.0161
1485.00,0.0169
1484.00,0.0179
1483.00,0.0190
1482.00,0.0203
1481.00,0.0218
1480.00,0.0235
1479.00,0.0251
1478.00,0.0268
1477.00,0.0290
1476.00,0.0315
1475.00,0.0342
1474.00,0.0378
1473.00,0.0429
1472.00,0.0490
1471.00,0.0549
1470.00,0.0605
1469.00,0.0665
1468.00,0.0731
1467.00,0.0804
1466.00,0.0888
1465.00,0.0979
1464.00,0.1059
1463.00,0.1117
1462.00,0.1157
1461.00,0.1187
1460.00,0.1210
1459.00,0.1228
1458.00,0.1246
1457.00,0.1263
1456.00,0.1272
1455.00,0.1271
1454.00,0.1265
1453.00,0.1254
1452.00,0.1232
1451.00,0.1197
1450.00,0.1146
1449.00,0.1072
1448.00,0.0978
1447.00,0.0877
1446.00,0.0787
1445.00,0.0709
1444.00,0.0644
1443.00,0.0591
1442.00,0.0552
1441.00,0.0526
1440.00,0.0510
1439.00,0.0503
1438.00,0.0502
1437.00,0.0499
1436.00,0.0484
1435.00,0.0456
1434.00,0.0418
1433.00,0.0374
1432.00,0.0329
1431.00,0.0290
1430.00,0.0259
1429.00,0.0236
1428.00,0.0221
1427.00,0.0212
1426.00,0.0206
1425.00,0.0201
1424.00,0.0197
1423.00,0.0195
1422.00,0.0194
1421.00,0.0192
1420.00,0.0188
1419.00,0.0185
1418.00,0.0181
1417.00,0.0177
1416.00,0.0174
1415.00,0.0171
1414.00,0.0169
1413.00,0.0167
1412.00,0.0164
1411.00,0.0163
1410.00,0.0161
1409.00,0.0159
1408.00,0.0157
1407.00,0.0155
1406.00,0.0154
1405.00,0.0153
1404.00,0.0151
1403.00,0.0151
1402.00,0.0152
1401.00,0.0152
1400.00,0.0152
1399.00,0.0152
1398.00,0.0153
1397.00,0.0154
1396.00,0.0155
1395.00,0.0159
1394.00,0.0164
1393.00,0.0169
1392.00,0.0175
1391.00,0.0184
1390.00,0.0195
1389.00,0.0212
1388.00,0.0237
1387.00,0.0276
1386.00,0.0328
1385.00,0.0392
1384.00,0.0476
1383.00,0.0588
1382.00,0.0733
1381.00,0.0914
1380.00,0.1131
1379.00,0.1371
1378.00,0.1597
1377.00,0.1758
1376.00,0.1809
1375.00,0.1721
1374.00,0.1518
1373.00,0.1269
1372.00,0.1038
1371.00,0.0845
1370.00,0.0690
1369.00,0.0570
1368.00,0.0486
1367.00,0.0434
1366.00,0.0404
1365.00,0.0392
1364.00,0.0393
1363.00,0.0406
1362.00,0.0424
1361.00,0.0444
1360.00,0.0458
1359.00,0.0462
1358.00,0.0450
1357.00,0.0425
1356.00,0.0390
1355.00,0.0350
1354.00,0.0312
1353.00,0.0279
1352.00,0.0252
1351.00,0.0231
1350.00,0.0214
1349.00,0.0200
1348.00,0.0189
1347.00,0.0180
1346.00,0.0172
1345.00,0.0166
1344.00,0.0161
1343.00,0.0157
1342.00,0.0154
1341.00,0.0151
1340.00,0.0148
1339.00,0.0147
1338.00,0.0146
1337.00,0.0146
1336.00,0.0146
1335.00,0.0147
1334.00,0.0149
1333.00,0.0152
1332.00,0.0155
1331.00,0.0158
1330.00,0.0159
1329.00,0.0158
1328.00,0.0155
1327.00,0.0150
1326.00,0.0144
1325.00,0.0138
1324.00,0.0132
1323.00,0.0127
1322.00,0.0123
1321.00,0.0120
1320.00,0.0118
1319.00,0.0116
1318.00,0.0114
1317.00,0.0112
1316.00,0.0110
1315.00,0.0108
1314.00,0.0107
1313.00,0.0107
1312.00,0.0109
1311.00,0.0112
1310.00,0.0117
1309.00,0.0125
1308.00,0.0136
1307.00,0.0149
1306.00,0.0162
1305.00,0.0171
1304.00,0.0175
1303.00,0.0173
1302.00,0.0166
1301.00,0.0160
1300.00,0.0155
1299.00,0.0152
1298.00,0.0152
1297.00,0.0151
1296.00,0.0149
1295.00,0.0147
1294.00,0.0143
1293.00,0.0138
1292.00,0.0132
1291.00,0.0127
1290.00,0.0123
1289.00,0.0119
1288.00,0.0116
1287.00,0.0113
1286.00,0.0110
1285.00,0.0107
1284.00,0.0104
1283.00,0.0102
1282.00,0.0100
1281.00,0.0099
1280.00,0.0099
1279.00,0.0098
1278.00,0.0098
1277.00,0.0097
1276.00,0.0097
1275.00,0.0096
1274.00,0.0096
1273.00,0.0096
1272.00,0.0096
1271.00,0.0097
1270.00,0.0098
1269.00,0.0099
1268.00,0.0100
1267.00,0.0101
1266.00,0.0103
1265.00,0.0106
1264.00,0.0109
1263.00,0.0113
1262.00,0.0118
1261.00,0.0124
1260.00,0.0132
1259.00,0.0141
1258.00,0.0149
1257.00,0.0156
1256.00,0.0159
1255.00,0.0157
1254.00,0.0151
1253.00,0.0141
1252.00,0.0132
1251.00,0.0125
1250.00,0.0120
1249.00,0.0116
1248.00,0.0113
1247.00,0.0111
1246.00,0.0110
1245.00,0.0109
1244.00,0.0109
1243.00,0.0109
1242.00,0.0108
1241.00,0.0108
1240.00,0.0107
1239.00,0.0107
1238.00,0.0107
1237.00,0.0107
1236.00,0.0107
1235.00,0.0108
1234.00,0.0108
1233.00,0.0108
1232.00,0.0108
1231.00,0.0108
1230.00,0.0108
1229.00,0.0108
1228.00,0.0110
1227.00,0.0111
1226.00,0.0113
1225.00,0.0115
1224.00,0.0117
1223.00,0.0120
1222.00,0.0122
1221.00,0.0125
1220.00,0.0126
1219.00,0.0127
1218.00,0.0127
1217.00,0.0126
1216.00,0.0124
1215.00,0.0122
1214.00,0.0119
1213.00,0.0116
1212.00,0.0114
1211.00,0.0112
1210.00,0.0110
1209.00,0.0108
1208.00,0.0106
1207.00,0.0105
1206.00,0.0105
1205.00,0.0105
1204.00,0.0105
1203.00,0.0104
1202.00,0.0104
1201.00,0.0105
1200.00,0.0105
1199.00,0.0105
1198.00,0.0106
1197.00,0.0106
1196.00,0.0106
1195.00,0.0106
1194.00,0.0106
1193.00,0.0107
1192.00,0.0107
1191.00,0.0107
1190.00,0.0107
1189.00,0.0107
1188.00,0.0107
1187.00,0.0108
1186.00,0.0109
1185.00,0.0109
1184.00,0.0110
1183.00,0.0111
1182.00,0.0113
1181.00,0.0116
1180.00,0.0120
1179.00,0.0125
1178.00,0.0132
1177.00,0.0142
1176.00,0.0156
1175.00,0.0174
1174.00,0.0198
1173.00,0.0227
1172.00,0.0262
1171.00,0.0299
1170.00,0.0336
1169.00,0.0366
1168.00,0.0385
1167.00,0.0391
1166.00,0.0383
1165.00,0.0366
1164.00,0.0345
1163.00,0.0322
1162.00,0.0301
1161.00,0.0283
1160.00,0.0268
1159.00,0.0256
1158.00,0.0247
1157.00,0.0240
1156.00,0.0234
1155.00,0.0230
1154.00,0.0226
1153.00,0.0222
1152.00,0.0216
1151.00,0.0208
1150.00,0.0200
1149.00,0.0191
1148.00,0.0182
1147.00,0.0173
1146.00,0.0164
1145.00,0.0156
1144.00,0.0149
1143.00,0.0143
1142.00,0.0138
1141.00,0.0133
1140.00,0.0128
1139.00,0.0124
1138.00,0.0121
1137.00,0.0117
1136.00,0.0114
1135.00,0.0112
1134.00,0.0111
1133.00,0.0110
1132.00,0.0110
1131.00,0.0109
1130.00,0.0109
1129.00,0.0110
1128.00,0.0111
1127.00,0.0113
1126.00,0.0114
1125.00,0.0113
1124.00,0.0113
1123.00,0.0112
1122.00,0.0113
1121.00,0.0113
1120.00,0.0113
1119.00,0.0113
1118.00,0.0114
1117.00,0.0115
1116.00,0.0117
1115.00,0.0119
1114.00,0.0120
1113.00,0.0122
1112.00,0.0123
1111.00,0.0125
1110.00,0.0128
1109.00,0.0132
1108.00,0.0136
1107.00,0.0142
1106.00,0.0148
1105.00,0.0154
1104.00,0.0159
1103.00,0.0162
1102.00,0.0162
1101.00,0.0159
1100.00,0.0154
1099.00,0.0148
1098.00,0.0142
1097.00,0.0135
1096.00,0.0130
1095.00,0.0126
1094.00,0.0122
1093.00,0.0119
1092.00,0.0116
1091.00,0.0113
1090.00,0.0111
1089.00,0.0110
1088.00,0.0108
1087.00,0.0107
1086.00,0.0106
1085.00,0.0104
1084.00,0.0103
1083.00,0.0103
1082.00,0.0102
1081.00,0.0100
1080.00,0.0099
1079.00,0.0097
1078.00,0.0096
1077.00,0.0095
1076.00,0.0095
1075.00,0.0095
1074.00,0.0095
1073.00,0.0094
1072.00,0.0094
1071.00,0.0093
1070.00,0.0093
1069.00,0.0093
1068.00,0.0093
1067.00,0.0093
1066.00,0.0093
1065.00,0.0093
1064.00,0.0093
1063.00,0.0094
1062.00,0.0095
1061.00,0.0095
1060.00,0.0096
1059.00,0.0097
1058.00,0.0098
1057.00,0.0100
1056.00,0.0102
1055.00,0.0104
1054.00,0.0105
1053.00,0.0106
1052.00,0.0107
1051.00,0.0109
1050.00,0.0112
1049.00,0.0116
1048.00,0.0120
1047.00,0.0124
1046.00,0.0128
1045.00,0.0130
1044.00,0.0129
1043.00,0.0127
1042.00,0.0123
1041.00,0.0119
1040.00,0.0117
1039.00,0.0117
1038.00,0.0118
1037.00,0.0118
1036.00,0.0119
1035.00,0.0118
1034.00,0.0116
1033.00,0.0114
1032.00,0.0111
1031.00,0.0110
1030.00,0.0109
1029.00,0.0108
1028.00,0.0108
1027.00,0.0107
1026.00,0.0107
1025.00,0.0106
1024.00,0.0106
1023.00,0.0107
1022.00,0.0107
1021.00,0.0108
1020.00,0.0110
1019.00,0.0112
1018.00,0.0114
1017.00,0.0117
1016.00,0.0121
1015.00,0.0125
1014.00,0.0130
1013.00,0.0136
1012.00,0.0141
1011.00,0.0146
1010.00,0.0149
1009.00,0.0152
1008.00,0.0157
1007.00,0.0165
1006.00,0.0174
1005.00,0.0187
1004.00,0.0204
1003.00,0.0228
1002.00,0.0260
1001.00,0.0299
1000.00,0.0342
999.00,0.0379
998.00,0.0400
997.00,0.0396
996.00,0.0368
995.00,0.0325
994.00,0.0278
993.00,0.0236
992.00,0.0202
991.00,0.0177
990.00,0.0159
989.00,0.0146
988.00,0.0138
987.00,0.0134
986.00,0.0133
985.00,0.0136
984.00,0.0140
983.00,0.0149
982.00,0.0162
981.00,0.0180
980.00,0.0205
979.00,0.0236
978.00,0.0276
977.00,0.0325
976.00,0.0379
975.00,0.0431
974.00,0.0472
973.00,0.0490
972.00,0.0478
971.00,0.0439
970.00,0.0382
969.00,0.0321
968.00,0.0268
967.00,0.0225
966.00,0.0194
965.00,0.0171
964.00,0.0153
963.00,0.0139
962.00,0.0128
961.00,0.0120
960.00,0.0114
959.00,0.0110
958.00,0.0107
957.00,0.0104
956.00,0.0101
955.00,0.0098
954.00,0.0096
953.00,0.0095
952.00,0.0093
951.00,0.0092
950.00,0.0091
949.00,0.0091
948.00,0.0092
947.00,0.0094
946.00,0.0095
945.00,0.0097
944.00,0.0099
943.00,0.0102
942.00,0.0104
941.00,0.0104
940.00,0.0103
939.00,0.0101
938.00,0.0098
937.00,0.0094
936.00,0.0091
935.00,0.0087
934.00,0.0083
933.00,0.0080
932.00,0.0077
931.00,0.0076
930.00,0.0075
929.00,0.0075
928.00,0.0073
927.00,0.0072
926.00,0.0072
925.00,0.0072
924.00,0.0073
923.00,0.0074
922.00,0.0075
921.00,0.0076
920.00,0.0078
919.00,0.0080
918.00,0.0081
917.00,0.0082
916.00,0.0083
915.00,0.0083
914.00,0.0084
913.00,0.0084
912.00,0.0085
911.00,0.0085
910.00,0.0086
909.00,0.0088
908.00,0.0091
907.00,0.0095
906.00,0.0101
905.00,0.0109
904.00,0.0121
903.00,0.0137
902.00,0.0155
901.00,0.0172
900.00,0.0184
899.00,0.0188
898.00,0.0182
897.00,0.0169
896.00,0.0152
895.00,0.0136
894.00,0.0122
893.00,0.0111
892.00,0.0104
891.00,0.0098
890.00,0.0093
889.00,0.0089
888.00,0.0086
887.00,0.0085
886.00,0.0084
885.00,0.0085
884.00,0.0085
883.00,0.0086
882.00,0.0087
881.00,0.0088
880.00,0.0090
879.00,0.0091
878.00,0.0092
877.00,0.0093
876.00,0.0094
875.00,0.0094
874.00,0.0093
873.00,0.0091
872.00,0.0090
871.00,0.0089
870.00,0.0088
869.00,0.0088
868.00,0.0087
867.00,0.0086
866.00,0.0087
865.00,0.0088
864.00,0.0089
863.00,0.0091
862.00,0.0093
861.00,0.0095
860.00,0.0097
859.00,0.0099
858.00,0.0101
857.00,0.0102
856.00,0.0104
855.00,0.0106
854.00,0.0108
853.00,0.0110
852.00,0.0114
851.00,0.0119
850.00,0.0127
849.00,0.0136
848.00,0.0149
847.00,0.0168
846.00,0.0195
845.00,0.0236
844.00,0.0288
843.00,0.0344
842.00,0.0385
841.00,0.0395
840.00,0.0370
839.00,0.0321
838.00,0.0268
837.00,0.0224
836.00,0.0195
835.00,0.0176
834.00,0.0165
833.00,0.0157
832.00,0.0151
831.00,0.0145
830.00,0.0140
829.00,0.0136
828.00,0.0133
827.00,0.0130
826.00,0.0128
825.00,0.0125
824.00,0.0123
823.00,0.0123
822.00,0.0123
821.00,0.0124
820.00,0.0126
819.00,0.0128
818.00,0.0131
817.00,0.0135
816.00,0.0141
815.00,0.0149
814.00,0.0159
813.00,0.0171
812.00,0.0185
811.00,0.0198
810.00,0.0208
809.00,0.0213
808.00,0.0213
807.00,0.0206
806.00,0.0196
805.00,0.0183
804.00,0.0170
803.00,0.0158
802.00,0.0148
801.00,0.0140
800.00,0.0134
799.00,0.0128
798.00,0.0123
797.00,0.0118
796.00,0.0113
795.00,0.0108
794.00,0.0105
793.00,0.0102
792.00,0.0100
791.00,0.0098
790.00,0.0097
789.00,0.0095
788.00,0.0095
787.00,0.0094
786.00,0.0093
785.00,0.0091
784.00,0.0088
783.00,0.0085
782.00,0.0081
781.00,0.0078
780.00,0.0078
779.00,0.0078
778.00,0.0080
777.00,0.0081
776.00,0.0082
775.00,0.0082
774.00,0.0083
773.00,0.0085
772.00,0.0089
771.00,0.0093
770.00,0.0097
769.00,0.0099
768.00,0.0100
767.00,0.0101
766.00,0.0101
765.00,0.0099
764.00,0.0097
763.00,0.0093
762.00,0.0090
761.00,0.0086
760.00,0.0083
759.00,0.0081
758.00,0.0078
757.00,0.0077
756.00,0.0076
755.00,0.0076
754.00,0.0075
753.00,0.0074
752.00,0.0073
751.00,0.0072
750.00,0.0071
749.00,0.0071
748.00,0.0072
747.00,0.0074
746.00,0.0076
745.00,0.0077
744.00,0.0077
743.00,0.0077
742.00,0.0077
741.00,0.0077
740.00,0.0079
739.00,0.0082
738.00,0.0085
737.00,0.0088
736.00,0.0089
735.00,0.0089
734.00,0.0090
733.00,0.0092
732.00,0.0095
731.00,0.0098
730.00,0.0099
729.00,0.0099
728.00,0.0098
727.00,0.0097
726.00,0.0096
725.00,0.0095
724.00,0.0095
723.00,0.0095
722.00,0.0095
721.00,0.0094
720.00,0.0092
719.00,0.0090
718.00,0.0088
717.00,0.0086
716.00,0.0084
715.00,0.0082
714.00,0.0081
713.00,0.0081
712.00,0.0082
711.00,0.0082
710.00,0.0083
709.00,0.0081
708.00,0.0079
707.00,0.0078
706.00,0.0077
705.00,0.0078
704.00,0.0079
703.00,0.0080
702.00,0.0081
701.00,0.0080
700.00,0.0079
699.00,0.0077
698.00,0.0075
697.00,0.0075
696.00,0.0075
695.00,0.0077
694.00,0.0078
693.00,0.0079
692.00,0.0079
691.00,0.0079
690.00,0.0079
689.00,0.0079
688.00,0.0079
687.00,0.0081
686.00,0.0082
685.00,0.0083
684.00,0.0082
683.00,0.0081
682.00,0.0080
681.00,0.0081
680.00,0.0081
679.00,0.0082
678.00,0.0082
677.00,0.0082
676.00,0.0082
675.00,0.0083
674.00,0.0083
673.00,0.0084
672.00,0.0084
671.00,0.0084
670.00,0.0084
669.00,0.0086
668.00,0.0089
667.00,0.0091
666.00,0.0088
665.00,0.0084
664.00,0.0081
663.00,0.0079
662.00,0.0078
661.00,0.0076
660.00,0.0074
659.00,0.0072
658.00,0.0071
657.00,0.0071
656.00,0.0071
655.00,0.0072
654.00,0.0072
653.00,0.0071
652.00,0.0070
651.00,0.0070
650.00,0.0071
649.00,0.0073
648.00,0.0075
647.00,0.0077
646.00,0.0077
645.00,0.0076
644.00,0.0075
643.00,0.0073
642.00,0.0074
641.00,0.0075
640.00,0.0076
639.00,0.0077
638.00,0.0077
637.00,0.0076
636.00,0.0076
635.00,0.0077
634.00,0.0078
633.00,0.0078
632.00,0.0078
631.00,0.0077
630.00,0.0076
629.00,0.0077
628.00,0.0078
627.00,0.0079
626.00,0.0078
625.00,0.0076
624.00,0.0074
623.00,0.0075
622.00,0.0078
621.00,0.0080
620.00,0.0079
619.00,0.0077
618.00,0.0076
617.00,0.0077
616.00,0.0079
615.00,0.0081
614.00,0.0082
613.00,0.0083
612.00,0.0085
611.00,0.0087
610.00,0.0088
609.00,0.0088
608.00,0.0089
607.00,0.0091
606.00,0.0093
605.00,0.0093
604.00,0.0091
603.00,0.0089
602.00,0.0087
601.00,0.0085
600.00,0.0084
599.00,0.0084
598.00,0.0084
597.00,0.0083
596.00,0.0081
595.00,0.0080
594.00,0.0079
593.00,0.0077
592.00,0.0076
591.00,0.0075
590.00,0.0075
589.00,0.0076
588.00,0.0077
587.00,0.0079
586.00,0.0080
585.00,0.0081
584.00,0.0082
583.00,0.0086
582.00,0.0090
581.00,0.0094
580.00,0.0095
579.00,0.0095
578.00,0.0093
577.00,0.0091
576.00,0.0089
575.00,0.0088
574.00,0.0089
573.00,0.0091
572.00,0.0090
571.00,0.0088
570.00,0.0085
569.00,0.0082
568.00,0.0081
567.00,0.0082
566.00,0.0083
565.00,0.0085
564.00,0.0085
563.00,0.0085
562.00,0.0085
561.00,0.0085
560.00,0.0086
559.00,0.0087
558.00,0.0088
557.00,0.0086
556.00,0.0084
555.00,0.0083
554.00,0.0085
553.00,0.0089
552.00,0.0095
551.00,0.0099
550.00,0.0098
549.00,0.0091
548.00,0.0083
547.00,0.0079
546.00,0.0080
545.00,0.0084
544.00,0.0088
543.00,0.0092
542.00,0.0097
541.00,0.0102
540.00,0.0104
539.00,0.0102
538.00,0.0098
537.00,0.0095
536.00,0.0094
535.00,0.0094
534.00,0.0093
533.00,0.0092
532.00,0.0091
531.00,0.0092
530.00,0.0096
529.00,0.0102
528.00,0.0107
527.00,0.0111
526.00,0.0113
525.00,0.0111
524.00,0.0109
523.00,0.0109
522.00,0.0110
521.00,0.0108
520.00,0.0101
519.00,0.0093
518.00,0.0089
517.00,0.0089
516.00,0.0091
515.00,0.0090
514.00,0.0088
513.00,0.0083
512.00,0.0075
511.00,0.0067
510.00,0.0066
509.00,0.0071
508.00,0.0078
507.00,0.0082
506.00,0.0084
505.00,0.0086
504.00,0.0090
503.00,0.0095
502.00,0.0099
501.00,0.0099
500.00,0.0093
499.00,0.0085
498.00,0.0079
497.00,0.0078
496.00,0.0080
495.00,0.0081
494.00,0.0079
493.00,0.0077
492.00,0.0073
491.00,0.0070
490.00,0.0071
489.00,0.0076
488.00,0.0082
487.00,0.0082
486.00,0.0077
485.00,0.0069
484.00,0.0067
483.00,0.0071
482.00,0.0082
481.00,0.0093
480.00,0.0099
479.00,0.0098
478.00,0.0092
477.00,0.0089
476.00,0.0095
475.00,0.0105
474.00,0.0113
473.00,0.0111
472.00,0.0100
471.00,0.0088
470.00,0.0081
469.00,0.0082
468.00,0.0088
467.00,0.0096
466.00,0.0101
465.00,0.0103
464.00,0.0104
463.00,0.0109
462.00,0.0120
461.00,0.0137
460.00,0.0153
459.00,0.0164
458.00,0.0164
457.00,0.0154
456.00,0.0141
455.00,0.0130
454.00,0.0121
453.00,0.0114
452.00,0.0106
451.00,0.0101
450.00,0.0101
