Created as New Dataset,Sample 159 By Administrator Date Tuesday, September 09 2025
cm-1,A
4000.00,0.0010
3999.00,0.0010
3998.00,0.0010
3997.00,0.0009
3996.00,0.0009
3995.00,0.0009
3994.00,0.0009
3993.00,0.0009
3992.00,0.0009
3991.00,0.0009
3990.00,0.0009
3989.00,0.0010
3988.00,0.0010
3987.00,0.0010
3986.00,0.0010
3985.00,0.0009
3984.00,0.0009
3983.00,0.0009
3982.00,0.0008
3981.00,0.0008
3980.00,0.0008
3979.00,0.0008
3978.00,0.0008
3977.00,0.0008
3976.00,0.0008
3975.00,0.0008
3974.00,0.0008
3973.00,0.0008
3972.00,0.0008
3971.00,0.0008
3970.00,0.0008
3969.00,0.0008
3968.00,0.0008
3967.00,0.0008
3966.00,0.0008
3965.00,0.0008
3964.00,0.0008
3963.00,0.0008
3962.00,0.0008
3961.00,0.0008
3960.00,0.0008
3959.00,0.0008
3958.00,0.0008
3957.00,0.0009
3956.00,0.0009
3955.00,0.0008
3954.00,0.0008
3953.00,0.0007
3952.00,0.0007
3951.00,0.0007
3950.00,0.0007
3949.00,0.0007
3948.00,0.0006
3947.00,0.0006
3946.00,0.0007
3945.00,0.0007
3944.00,0.0007
3943.00,0.0007
3942.00,0.0007
3941.00,0.0007
3940.00,0.0007
3939.00,0.0007
3938.00,0.0007
3937.00,0.0007
3936.00,0.0007
3935.00,0.0007
3934.00,0.0007
3933.00,0.0007
3932.00,0.0007
3931.00,0.0007
3930.00,0.0007
3929.00,0.0007
3928.00,0.0007
3927.00,0.0007
3926.00,0.0007
3925.00,0.0008
3924.00,0.0008
3923.00,0.0008
3922.00,0.0008
3921.00,0.0008
3920.00,0.0008
3919.00,0.0007
3918.00,0.0007
3917.00,0.0007
3916.00,0.0007
3915.00,0.0007
3914.00,0.0008
3913.00,0.0008
3912.00,0.0008
3911.00,0.0008
3910.00,0.0007
3909.00,0.0007
3908.00,0.0007
3907.00,0.0007
3906.00,0.0007
3905.00,0.0007
3904.00,0.0007
3903.00,0.0007
3902.00,0.0007
3901.00,0.0007
3900.00,0.0007
3899.00,0.0007
3898.00,0.0007
3897.00,0.0007
3896.00,0.0007
3895.00,0.0008
3894.00,0.0008
3893.00,0.0008
3892.00,0.0007
3891.00,0.0007
3890.00,0.0006
3889.00,0.0006
3888.00,0.0006
3887.00,0.0007
3886.00,0.0006
3885.00,0.0006
3884.00,0.0006
3883.00,0.0006
3882.00,0.0006
3881.00,0.0007
3880.00,0.0007
3879.00,0.0007
3878.00,0.0007
3877.00,0.0007
3876.00,0.0007
3875.00,0.0007
3874.00,0.0007
3873.00,0.0007
3872.00,0.0007
3871.00,0.0006
3870.00,0.0006
3869.00,0.0005
3868.00,0.0005
3867.00,0.0006
3866.00,0.0006
3865.00,0.0007
3864.00,0.0007
3863.00,0.0007
3862.00,0.0007
3861.00,0.0006
3860.00,0.0006
3859.00,0.0006
3858.00,0.0005
3857.00,0.0005
3856.00,0.0005
3855.00,0.0005
3854.00,0.0005
3853.00,0.0004
3852.00,0.0004
3851.00,0.0004
3850.00,0.0004
3849.00,0.0005
3848.00,0.0005
3847.00,0.0005
3846.00,0.0005
3845.00,0.0006
3844.00,0.0006
3843.00,0.0006
3842.00,0.0006
3841.00,0.0006
3840.00,0.0007
3839.00,0.0007
3838.00,0.0007
3837.00,0.0007
3836.00,0.0006
3835.00,0.0007
3834.00,0.0007
3833.00,0.0007
3832.00,0.0006
3831.00,0.0006
3830.00,0.0006
3829.00,0.0006
3828.00,0.0007
3827.00,0.0007
3826.00,0.0007
3825.00,0.0007
3824.00,0.0007
3823.00,0.0007
3822.00,0.0006
3821.00,0.0005
3820.00,0.0004
3819.00,0.0005
3818.00,0.0005
3817.00,0.0006
3816.00,0.0007
3815.00,0.0007
3814.00,0.0007
3813.00,0.0007
3812.00,0.0007
3811.00,0.0007
3810.00,0.0007
3809.00,0.0007
3808.00,0.0008
3807.00,0.0007
3806.00,0.0007
3805.00,0.0006
3804.00,0.0006
3803.00,0.0006
3802.00,0.0006
3801.00,0.0006
3800.00,0.0006
3799.00,0.0006
3798.00,0.0007
3797.00,0.0007
3796.00,0.0007
3795.00,0.0006
3794.00,0.0006
3793.00,0.0006
3792.00,0.0007
3791.00,0.0007
3790.00,0.0008
3789.00,0.0008
3788.00,0.0008
3787.00,0.0008
3786.00,0.0008
3785.00,0.0007
3784.00,0.0007
3783.00,0.0007
3782.00,0.0008
3781.00,0.0008
3780.00,0.0008
3779.00,0.0008
3778.00,0.0007
3777.00,0.0007
3776.00,0.0007
3775.00,0.0008
3774.00,0.0008
3773.00,0.0008
3772.00,0.0008
3771.00,0.0008
3770.00,0.0008
3769.00,0.0008
3768.00,0.0008
3767.00,0.0008
3766.00,0.0009
3765.00,0.0009
3764.00,0.0008
3763.00,0.0008
3762.00,0.0008
3761.00,0.0008
3760.00,0.0008
3759.00,0.0008
3758.00,0.0008
3757.00,0.0007
3756.00,0.0007
3755.00,0.0006
3754.00,0.0006
3753.00,0.0005
3752.00,0.0006
3751.00,0.0006
3750.00,0.0006
3749.00,0.0006
3748.00,0.0006
3747.00,0.0006
3746.00,0.0006
3745.00,0.0006
3744.00,0.0005
3743.00,0.0005
3742.00,0.0005
3741.00,0.0005
3740.00,0.0006
3739.00,0.0006
3738.00,0.0006
3737.00,0.0006
3736.00,0.0006
3735.00,0.0006
3734.00,0.0006
3733.00,0.0006
3732.00,0.0006
3731.00,0.0005
3730.00,0.0005
3729.00,0.0004
3728.00,0.0004
3727.00,0.0004
3726.00,0.0005
3725.00,0.0005
3724.00,0.0005
3723.00,0.0005
3722.00,0.0005
3721.00,0.0006
3720.00,0.0006
3719.00,0.0006
3718.00,0.0006
3717.00,0.0006
3716.00,0.0006
3715.00,0.0005
3714.00,0.0005
3713.00,0.0005
3712.00,0.0004
3711.00,0.0004
3710.00,0.0004
3709.00,0.0004
3708.00,0.0004
3707.00,0.0005
3706.00,0.0005
3705.00,0.0006
3704.00,0.0006
3703.00,0.0006
3702.00,0.0006
3701.00,0.0006
3700.00,0.0005
3699.00,0.0005
3698.00,0.0005
3697.00,0.0006
3696.00,0.0006
3695.00,0.0006
3694.00,0.0006
3693.00,0.0006
3692.00,0.0006
3691.00,0.0006
3690.00,0.0006
3689.00,0.0006
3688.00,0.0006
3687.00,0.0005
3686.00,0.0005
3685.00,0.0005
3684.00,0.0006
3683.00,0.0006
3682.00,0.0006
3681.00,0.0006
3680.00,0.0006
3679.00,0.0005
3678.00,0.0005
3677.00,0.0005
3676.00,0.0005
3675.00,0.0004
3674.00,0.0004
3673.00,0.0004
3672.00,0.0004
3671.00,0.0004
3670.00,0.0005
3669.00,0.0005
3668.00,0.0005
3667.00,0.0006
3666.00,0.0006
3665.00,0.0007
3664.00,0.0007
3663.00,0.0007
3662.00,0.0007
3661.00,0.0007
3660.00,0.0007
3659.00,0.0007
3658.00,0.0007
3657.00,0.0006
3656.00,0.0005
3655.00,0.0004
3654.00,0.0004
3653.00,0.0005
3652.00,0.0006
3651.00,0.0007
3650.00,0.0007
3649.00,0.0007
3648.00,0.0007
3647.00,0.0007
3646.00,0.0007
3645.00,0.0007
3644.00,0.0008
3643.00,0.0008
3642.00,0.0008
3641.00,0.0008
3640.00,0.0008
3639.00,0.0007
3638.00,0.0008
3637.00,0.0008
3636.00,0.0008
3635.00,0.0009
3634.00,0.0008
3633.00,0.0008
3632.00,0.0007
3631.00,0.0007
3630.00,0.0006
3629.00,0.0006
3628.00,0.0006
3627.00,0.0006
3626.00,0.0006
3625.00,0.0007
3624.00,0.0007
3623.00,0.0007
3622.00,0.0007
3621.00,0.0007
3620.00,0.0007
3619.00,0.0007
3618.00,0.0008
3617.00,0.0008
3616.00,0.0009
3615.00,0.0009
3614.00,0.0009
3613.00,0.0008
3612.00,0.0008
3611.00,0.0007
3610.00,0.0007
3609.00,0.0008
3608.00,0.0009
3607.00,0.0009
3606.00,0.0010
3605.00,0.0010
3604.00,0.0010
3603.00,0.0010
3602.00,0.0010
3601.00,0.0010
3600.00,0.0010
3599.00,0.0010
3598.00,0.0010
3597.00,0.0010
3596.00,0.0010
3595.00,0.0011
3594.00,0.0011
3593.00,0.0011
3592.00,0.0011
3591.00,0.0011
3590.00,0.0011
3589.00,0.0012
3588.00,0.0012
3587.00,0.0012
3586.00,0.0012
3585.00,0.0012
3584.00,0.0012
3583.00,0.0012
3582.00,0.0012
3581.00,0.0013
3580.00,0.0014
3579.00,0.0015
3578.00,0.0015
3577.00,0.0015
3576.00,0.0015
3575.00,0.0016
3574.00,0.0016
3573.00,0.0016
3572.00,0.0016
3571.00,0.0015
3570.00,0.0016
3569.00,0.0016
3568.00,0.0016
3567.00,0.0016
3566.00,0.0016
3565.00,0.0017
3564.00,0.0017
3563.00,0.0018
3562.00,0.0018
3561.00,0.0018
3560.00,0.0019
3559.00,0.0019
3558.00,0.0019
3557.00,0.0019
3556.00,0.0020
3555.00,0.0020
3554.00,0.0020
3553.00,0.0021
3552.00,0.0021
3551.00,0.0022
3550.00,0.0022
3549.00,0.0022
3548.00,0.0023
3547.00,0.0023
3546.00,0.0023
3545.00,0.0023
3544.00,0.0023
3543.00,0.0023
3542.00,0.0023
3541.00,0.0024
3540.00,0.0024
3539.00,0.0024
3538.00,0.0024
3537.00,0.0025
3536.00,0.0025
3535.00,0.0026
3534.00,0.0026
3533.00,0.0026
3532.00,0.0026
3531.00,0.0026
3530.00,0.0026
3529.00,0.0027
3528.00,0.0027
3527.00,0.0028
3526.00,0.0028
3525.00,0.0028
3524.00,0.0029
3523.00,0.0029
3522.00,0.0029
3521.00,0.0029
3520.00,0.0029
3519.00,0.0029
3518.00,0.0030
3517.00,0.0030
3516.00,0.0030
3515.00,0.0031
3514.00,0.0032
3513.00,0.0032
3512.00,0.0033
3511.00,0.0033
3510.00,0.0033
3509.00,0.0033
3508.00,0.0033
3507.00,0.0033
3506.00,0.0034
3505.00,0.0034
3504.00,0.0034
3503.00,0.0035
3502.00,0.0035
3501.00,0.0035
3500.00,0.0035
3499.00,0.0035
3498.00,0.0036
3497.00,0.0036
3496.00,0.0037
3495.00,0.0038
3494.00,0.0038
3493.00,0.0038
3492.00,0.0038
3491.00,0.0038
3490.00,0.0038
3489.00,0.0038
3488.00,0.0039
3487.00,0.0039
3486.00,0.0039
3485.00,0.0039
3484.00,0.0040
3483.00,0.0040
3482.00,0.0040
3481.00,0.0041
3480.00,0.0042
3479.00,0.0042
3478.00,0.0043
3477.00,0.0043
3476.00,0.0044
3475.00,0.0044
3474.00,0.0044
3473.00,0.0045
3472.00,0.0045
3471.00,0.0045
3470.00,0.0045
3469.00,0.0045
3468.00,0.0045
3467.00,0.0045
3466.00,0.0046
3465.00,0.0046
3464.00,0.0046
3463.00,0.0047
3462.00,0.0047
3461.00,0.0047
3460.00,0.0048
3459.00,0.0048
3458.00,0.0048
3457.00,0.0048
3456.00,0.0048
3455.00,0.0049
3454.00,0.0049
3453.00,0.0049
3452.00,0.0050
3451.00,0.0050
3450.00,0.0050
3449.00,0.0051
3448.00,0.0051
3447.00,0.0051
3446.00,0.0051
3445.00,0.0052
3444.00,0.0052
3443.00,0.0052
3442.00,0.0052
3441.00,0.0053
3440.00,0.0053
3439.00,0.0054
3438.00,0.0054
3437.00,0.0055
3436.00,0.0055
3435.00,0.0056
3434.00,0.0056
3433.00,0.0056
3432.00,0.0057
3431.00,0.0057
3430.00,0.0057
3429.00,0.0058
3428.00,0.0058
3427.00,0.0059
3426.00,0.0059
3425.00,0.0060
3424.00,0.0060
3423.00,0.0060
3422.00,0.0060
3421.00,0.0060
3420.00,0.0061
3419.00,0.0061
3418.00,0.0062
3417.00,0.0062
3416.00,0.0063
3415.00,0.0063
3414.00,0.0063
3413.00,0.0064
3412.00,0.0064
3411.00,0.0064
3410.00,0.0065
3409.00,0.0065
3408.00,0.0065
3407.00,0.0065
3406.00,0.0066
3405.00,0.0066
3404.00,0.0066
3403.00,0.0066
3402.00,0.0066
3401.00,0.0066
3400.00,0.0067
3399.00,0.0067
3398.00,0.0067
3397.00,0.0068
3396.00,0.0068
3395.00,0.0068
3394.00,0.0068
3393.00,0.0068
3392.00,0.0067
3391.00,0.0067
3390.00,0.0067
3389.00,0.0068
3388.00,0.0069
3387.00,0.0069
3386.00,0.0069
3385.00,0.0069
3384.00,0.0069
3383.00,0.0069
3382.00,0.0069
3381.00,0.0069
3380.00,0.0069
3379.00,0.0069
3378.00,0.0070
3377.00,0.0070
3376.00,0.0070
3375.00,0.0071
3374.00,0.0070
3373.00,0.0070
3372.00,0.0070
3371.00,0.0070
3370.00,0.0070
3369.00,0.0070
3368.00,0.0071
3367.00,0.0071
3366.00,0.0071
3365.00,0.0071
3364.00,0.0072
3363.00,0.0072
3362.00,0.0072
3361.00,0.0073
3360.00,0.0073
3359.00,0.0073
3358.00,0.0073
3357.00,0.0073
3356.00,0.0073
3355.00,0.0074
3354.00,0.0074
3353.00,0.0074
3352.00,0.0074
3351.00,0.0074
3350.00,0.0074
3349.00,0.0074
3348.00,0.0075
3347.00,0.0075
3346.00,0.0075
3345.00,0.0075
3344.00,0.0076
3343.00,0.0076
3342.00,0.0077
3341.00,0.0077
3340.00,0.0077
3339.00,0.0077
3338.00,0.0077
3337.00,0.0078
3336.00,0.0078
3335.00,0.0078
3334.00,0.0079
3333.00,0.0079
3332.00,0.0079
3331.00,0.0079
3330.00,0.0079
3329.00,0.0079
3328.00,0.0079
3327.00,0.0079
3326.00,0.0079
3325.00,0.0080
3324.00,0.0081
3323.00,0.0081
3322.00,0.0082
3321.00,0.0083
3320.00,0.0083
3319.00,0.0083
3318.00,0.0083
3317.00,0.0083
3316.00,0.0084
3315.00,0.0084
3314.00,0.0084
3313.00,0.0084
3312.00,0.0084
3311.00,0.0084
3310.00,0.0084
3309.00,0.0083
3308.00,0.0083
3307.00,0.0083
3306.00,0.0083
3305.00,0.0084
3304.00,0.0084
3303.00,0.0083
3302.00,0.0083
3301.00,0.0082
3300.00,0.0082
3299.00,0.0082
3298.00,0.0081
3297.00,0.0081
3296.00,0.0081
3295.00,0.0080
3294.00,0.0080
3293.00,0.0080
3292.00,0.0080
3291.00,0.0080
3290.00,0.0080
3289.00,0.0079
3288.00,0.0079
3287.00,0.0079
3286.00,0.0078
3285.00,0.0078
3284.00,0.0078
3283.00,0.0078
3282.00,0.0078
3281.00,0.0078
3280.00,0.0078
3279.00,0.0078
3278.00,0.0078
3277.00,0.0077
3276.00,0.0077
3275.00,0.0076
3274.00,0.0076
3273.00,0.0075
3272.00,0.0075
3271.00,0.0075
3270.00,0.0075
3269.00,0.0074
3268.00,0.0074
3267.00,0.0073
3266.00,0.0073
3265.00,0.0073
3264.00,0.0073
3263.00,0.0072
3262.00,0.0072
3261.00,0.0071
3260.00,0.0071
3259.00,0.0071
3258.00,0.0071
3257.00,0.0071
3256.00,0.0071
3255.00,0.0071
3254.00,0.0070
3253.00,0.0070
3252.00,0.0070
3251.00,0.0069
3250.00,0.0069
3249.00,0.0069
3248.00,0.0069
3247.00,0.0068
3246.00,0.0068
3245.00,0.0068
3244.00,0.0067
3243.00,0.0067
3242.00,0.0067
3241.00,0.0067
3240.00,0.0066
3239.00,0.0066
3238.00,0.0066
3237.00,0.0066
3236.00,0.0066
3235.00,0.0067
3234.00,0.0067
3233.00,0.0067
3232.00,0.0067
3231.00,0.0068
3230.00,0.0068
3229.00,0.0068
3228.00,0.0069
3227.00,0.0069
3226.00,0.0069
3225.00,0.0069
3224.00,0.0070
3223.00,0.0070
3222.00,0.0070
3221.00,0.0070
3220.00,0.0071
3219.00,0.0071
3218.00,0.0072
3217.00,0.0072
3216.00,0.0073
3215.00,0.0073
3214.00,0.0073
3213.00,0.0074
3212.00,0.0074
3211.00,0.0074
3210.00,0.0075
3209.00,0.0075
3208.00,0.0076
3207.00,0.0077
3206.00,0.0077
3205.00,0.0077
3204.00,0.0077
3203.00,0.0077
3202.00,0.0077
3201.00,0.0076
3200.00,0.0076
3199.00,0.0077
3198.00,0.0077
3197.00,0.0077
3196.00,0.0077
3195.00,0.0077
3194.00,0.0076
3193.00,0.0076
3192.00,0.0076
3191.00,0.0075
3190.00,0.0075
3189.00,0.0075
3188.00,0.0074
3187.00,0.0074
3186.00,0.0073
3185.00,0.0073
3184.00,0.0073
3183.00,0.0073
3182.00,0.0072
3181.00,0.0072
3180.00,0.0071
3179.00,0.0070
3178.00,0.0070
3177.00,0.0069
3176.00,0.0069
3175.00,0.0068
3174.00,0.0068
3173.00,0.0068
3172.00,0.0067
3171.00,0.0066
3170.00,0.0066
3169.00,0.0066
3168.00,0.0065
3167.00,0.0065
3166.00,0.0064
3165.00,0.0064
3164.00,0.0063
3163.00,0.0063
3162.00,0.0063
3161.00,0.0064
3160.00,0.0063
3159.00,0.0063
3158.00,0.0063
3157.00,0.0063
3156.00,0.0062
3155.00,0.0062
3154.00,0.0062
3153.00,0.0062
3152.00,0.0062
3151.00,0.0062
3150.00,0.0062
3149.00,0.0062
3148.00,0.0061
3147.00,0.0061
3146.00,0.0061
3145.00,0.0061
3144.00,0.0061
3143.00,0.0061
3142.00,0.0060
3141.00,0.0060
3140.00,0.0060
3139.00,0.0060
3138.00,0.0060
3137.00,0.0060
3136.00,0.0059
3135.00,0.0059
3134.00,0.0059
3133.00,0.0059
3132.00,0.0059
3131.00,0.0059
3130.00,0.0058
3129.00,0.0058
3128.00,0.0058
3127.00,0.0058
3126.00,0.0058
3125.00,0.0058
3124.00,0.0057
3123.00,0.0057
3122.00,0.0056
3121.00,0.0056
3120.00,0.0056
3119.00,0.0055
3118.00,0.0055
3117.00,0.0054
3116.00,0.0054
3115.00,0.0054
3114.00,0.0053
3113.00,0.0053
3112.00,0.0053
3111.00,0.0052
3110.00,0.0052
3109.00,0.0051
3108.00,0.0051
3107.00,0.0050
3106.00,0.0050
3105.00,0.0050
3104.00,0.0050
3103.00,0.0049
3102.00,0.0049
3101.00,0.0049
3100.00,0.0049
3099.00,0.0048
3098.00,0.0048
3097.00,0.0048
3096.00,0.0048
3095.00,0.0047
3094.00,0.0047
3093.00,0.0047
3092.00,0.0047
3091.00,0.0047
3090.00,0.0046
3089.00,0.0046
3088.00,0.0046
3087.00,0.0046
3086.00,0.0045
3085.00,0.0045
3084.00,0.0044
3083.00,0.0044
3082.00,0.0044
3081.00,0.0044
3080.00,0.0044
3079.00,0.0045
3078.00,0.0045
3077.00,0.0045
3076.00,0.0045
3075.00,0.0045
3074.00,0.0045
3073.00,0.0045
3072.00,0.0045
3071.00,0.0045
3070.00,0.0045
3069.00,0.0045
3068.00,0.0045
3067.00,0.0045
3066.00,0.0045
3065.00,0.0045
3064.00,0.0045
3063.00,0.0045
3062.00,0.0045
3061.00,0.0045
3060.00,0.0045
3059.00,0.0045
3058.00,0.0045
3057.00,0.0046
3056.00,0.0046
3055.00,0.0046
3054.00,0.0045
3053.00,0.0045
3052.00,0.0045
3051.00,0.0045
3050.00,0.0046
3049.00,0.0046
3048.00,0.0046
3047.00,0.0046
3046.00,0.0046
3045.00,0.0046
3044.00,0.0046
3043.00,0.0046
3042.00,0.0046
3041.00,0.0046
3040.00,0.0046
3039.00,0.0047
3038.00,0.0047
3037.00,0.0048
3036.00,0.0048
3035.00,0.0048
3034.00,0.0048
3033.00,0.0048
3032.00,0.0049
3031.00,0.0049
3030.00,0.0049
3029.00,0.0050
3028.00,0.0050
3027.00,0.0050
3026.00,0.0051
3025.00,0.0051
3024.00,0.0052
3023.00,0.0053
3022.00,0.0054
3021.00,0.0055
3020.00,0.0056
3019.00,0.0057
3018.00,0.0057
3017.00,0.0058
3016.00,0.0059
3015.00,0.0060
3014.00,0.0062
3013.00,0.0063
3012.00,0.0064
3011.00,0.0065
3010.00,0.0067
3009.00,0.0068
3008.00,0.0070
3007.00,0.0072
3006.00,0.0074
3005.00,0.0076
3004.00,0.0078
3003.00,0.0080
3002.00,0.0083
3001.00,0.0085
3000.00,0.0088
2999.00,0.0091
2998.00,0.0094
2997.00,0.0097
2996.00,0.0101
2995.00,0.0105
2994.00,0.0109
2993.00,0.0114
2992.00,0.0120
2991.00,0.0127
2990.00,0.0134
2989.00,0.0141
2988.00,0.0150
2987.00,0.0159
2986.00,0.0170
2985.00,0.0182
2984.00,0.0195
2983.00,0.0210
2982.00,0.0226
2981.00,0.0244
2980.00,0.0265
2979.00,0.0288
2978.00,0.0314
2977.00,0.0344
2976.00,0.0378
2975.00,0.0417
2974.00,0.0461
2973.00,0.0512
2972.00,0.0569
2971.00,0.0634
2970.00,0.0706
2969.00,0.0786
2968.00,0.0873
2967.00,0.0966
2966.00,0.1066
2965.00,0.1168
2964.00,0.1271
2963.00,0.1369
2962.00,0.1457
2961.00,0.1531
2960.00,0.1589
2959.00,0.1634
2958.00,0.1669
2957.00,0.1703
2956.00,0.1740
2955.00,0.1785
2954.00,0.1839
2953.00,0.1897
2952.00,0.1952
2951.00,0.1993
2950.00,0.2009
2949.00,0.1989
2948.00,0.1930
2947.00,0.1834
2946.00,0.1711
2945.00,0.1573
2944.00,0.1437
2943.00,0.1315
2942.00,0.1216
2941.00,0.1142
2940.00,0.1095
2939.00,0.1073
2938.00,0.1072
2937.00,0.1090
2936.00,0.1126
2935.00,0.1177
2934.00,0.1243
2933.00,0.1321
2932.00,0.1410
2931.00,0.1508
2930.00,0.1612
2929.00,0.1717
2928.00,0.1822
2927.00,0.1923
2926.00,0.2019
2925.00,0.2110
2924.00,0.2196
2923.00,0.2280
2922.00,0.2362
2921.00,0.2439
2920.00,0.2507
2919.00,0.2559
2918.00,0.2587
2917.00,0.2586
2916.00,0.2554
2915.00,0.2495
2914.00,0.2417
2913.00,0.2329
2912.00,0.2239
2911.00,0.2153
2910.00,0.2075
2909.00,0.2003
2908.00,0.1936
2907.00,0.1871
2906.00,0.1806
2905.00,0.1739
2904.00,0.1670
2903.00,0.1599
2902.00,0.1528
2901.00,0.1458
2900.00,0.1390
2899.00,0.1325
2898.00,0.1265
2897.00,0.1211
2896.00,0.1164
2895.00,0.1123
2894.00,0.1090
2893.00,0.1065
2892.00,0.1046
2891.00,0.1035
2890.00,0.1029
2889.00,0.1028
2888.00,0.1030
2887.00,0.1037
2886.00,0.1047
2885.00,0.1060
2884.00,0.1078
2883.00,0.1101
2882.00,0.1128
2881.00,0.1156
2880.00,0.1185
2879.00,0.1208
2878.00,0.1223
2877.00,0.1228
2876.00,0.1225
2875.00,0.1216
2874.00,0.1208
2873.00,0.1204
2872.00,0.1209
2871.00,0.1221
2870.00,0.1240
2869.00,0.1259
2868.00,0.1272
2867.00,0.1269
2866.00,0.1243
2865.00,0.1191
2864.00,0.1115
2863.00,0.1025
2862.00,0.0930
2861.00,0.0840
2860.00,0.0762
2859.00,0.0698
2858.00,0.0650
2857.00,0.0615
2856.00,0.0591
2855.00,0.0576
2854.00,0.0568
2853.00,0.0568
2852.00,0.0575
2851.00,0.0588
2850.00,0.0609
2849.00,0.0637
2848.00,0.0674
2847.00,0.0720
2846.00,0.0774
2845.00,0.0838
2844.00,0.0910
2843.00,0.0987
2842.00,0.1067
2841.00,0.1141
2840.00,0.1203
2839.00,0.1244
2838.00,0.1255
2837.00,0.1230
2836.00,0.1170
2835.00,0.1081
2834.00,0.0974
2833.00,0.0860
2832.00,0.0751
2831.00,0.0655
2830.00,0.0573
2829.00,0.0505
2828.00,0.0451
2827.00,0.0408
2826.00,0.0373
2825.00,0.0344
2824.00,0.0319
2823.00,0.0299
2822.00,0.0281
2821.00,0.0266
2820.00,0.0253
2819.00,0.0241
2818.00,0.0231
2817.00,0.0223
2816.00,0.0215
2815.00,0.0208
2814.00,0.0202
2813.00,0.0197
2812.00,0.0191
2811.00,0.0186
2810.00,0.0180
2809.00,0.0175
2808.00,0.0169
2807.00,0.0162
2806.00,0.0156
2805.00,0.0149
2804.00,0.0142
2803.00,0.0137
2802.00,0.0132
2801.00,0.0127
2800.00,0.0123
2799.00,0.0120
2798.00,0.0118
2797.00,0.0115
2796.00,0.0113
2795.00,0.0111
2794.00,0.0108
2793.00,0.0105
2792.00,0.0102
2791.00,0.0099
2790.00,0.0095
2789.00,0.0092
2788.00,0.0089
2787.00,0.0086
2786.00,0.0083
2785.00,0.0080
2784.00,0.0077
2783.00,0.0075
2782.00,0.0073
2781.00,0.0071
2780.00,0.0070
2779.00,0.0068
2778.00,0.0067
2777.00,0.0066
2776.00,0.0065
2775.00,0.0064
2774.00,0.0063
2773.00,0.0062
2772.00,0.0061
2771.00,0.0061
2770.00,0.0060
2769.00,0.0060
2768.00,0.0060
2767.00,0.0060
2766.00,0.0059
2765.00,0.0058
2764.00,0.0058
2763.00,0.0057
2762.00,0.0056
2761.00,0.0056
2760.00,0.0056
2759.00,0.0056
2758.00,0.0056
2757.00,0.0056
2756.00,0.0055
2755.00,0.0055
2754.00,0.0055
2753.00,0.0055
2752.00,0.0055
2751.00,0.0055
2750.00,0.0055
2749.00,0.0055
2748.00,0.0055
2747.00,0.0055
2746.00,0.0055
2745.00,0.0056
2744.00,0.0057
2743.00,0.0058
2742.00,0.0059
2741.00,0.0061
2740.00,0.0062
2739.00,0.0064
2738.00,0.0065
2737.00,0.0067
2736.00,0.0068
2735.00,0.0069
2734.00,0.0071
2733.00,0.0072
2732.00,0.0074
2731.00,0.0076
2730.00,0.0078
2729.00,0.0080
2728.00,0.0083
2727.00,0.0086
2726.00,0.0089
2725.00,0.0091
2724.00,0.0093
2723.00,0.0093
2722.00,0.0092
2721.00,0.0091
2720.00,0.0088
2719.00,0.0084
2718.00,0.0081
2717.00,0.0077
2716.00,0.0074
2715.00,0.0071
2714.00,0.0068
2713.00,0.0066
2712.00,0.0064
2711.00,0.0062
2710.00,0.0061
2709.00,0.0059
2708.00,0.0058
2707.00,0.0057
2706.00,0.0056
2705.00,0.0055
2704.00,0.0054
2703.00,0.0053
2702.00,0.0052
2701.00,0.0051
2700.00,0.0050
2699.00,0.0049
2698.00,0.0049
2697.00,0.0049
2696.00,0.0049
2695.00,0.0049
2694.00,0.0048
2693.00,0.0048
2692.00,0.0048
2691.00,0.0048
2690.00,0.0048
2689.00,0.0047
2688.00,0.0047
2687.00,0.0047
2686.00,0.0048
2685.00,0.0048
2684.00,0.0048
2683.00,0.0048
2682.00,0.0048
2681.00,0.0048
2680.00,0.0048
2679.00,0.0048
2678.00,0.0048
2677.00,0.0048
2676.00,0.0048
2675.00,0.0048
2674.00,0.0048
2673.00,0.0048
2672.00,0.0047
2671.00,0.0047
2670.00,0.0047
2669.00,0.0047
2668.00,0.0047
2667.00,0.0047
2666.00,0.0048
2665.00,0.0048
2664.00,0.0048
2663.00,0.0049
2662.00,0.0050
2661.00,0.0050
2660.00,0.0050
2659.00,0.0050
2658.00,0.0050
2657.00,0.0050
2656.00,0.0050
2655.00,0.0049
2654.00,0.0049
2653.00,0.0048
2652.00,0.0047
2651.00,0.0047
2650.00,0.0046
2649.00,0.0045
2648.00,0.0045
2647.00,0.0044
2646.00,0.0044
2645.00,0.0043
2644.00,0.0043
2643.00,0.0042
2642.00,0.0042
2641.00,0.0042
2640.00,0.0041
2639.00,0.0041
2638.00,0.0041
2637.00,0.0042
2636.00,0.0042
2635.00,0.0041
2634.00,0.0041
2633.00,0.0041
2632.00,0.0041
2631.00,0.0041
2630.00,0.0041
2629.00,0.0041
2628.00,0.0041
2627.00,0.0041
2626.00,0.0041
2625.00,0.0042
2624.00,0.0042
2623.00,0.0042
2622.00,0.0042
2621.00,0.0042
2620.00,0.0042
2619.00,0.0042
2618.00,0.0042
2617.00,0.0042
2616.00,0.0042
2615.00,0.0041
2614.00,0.0041
2613.00,0.0041
2612.00,0.0040
2611.00,0.0040
2610.00,0.0039
2609.00,0.0039
2608.00,0.0039
2607.00,0.0038
2606.00,0.0037
2605.00,0.0036
2604.00,0.0035
2603.00,0.0035
2602.00,0.0034
2601.00,0.0034
2600.00,0.0033
2599.00,0.0033
2598.00,0.0033
2597.00,0.0033
2596.00,0.0034
2595.00,0.0034
2594.00,0.0034
2593.00,0.0035
2592.00,0.0035
2591.00,0.0036
2590.00,0.0036
2589.00,0.0037
2588.00,0.0037
2587.00,0.0038
2586.00,0.0039
2585.00,0.0040
2584.00,0.0041
2583.00,0.0041
2582.00,0.0041
2581.00,0.0040
2580.00,0.0039
2579.00,0.0039
2578.00,0.0038
2577.00,0.0037
2576.00,0.0036
2575.00,0.0035
2574.00,0.0034
2573.00,0.0033
2572.00,0.0032
2571.00,0.0031
2570.00,0.0030
2569.00,0.0029
2568.00,0.0029
2567.00,0.0029
2566.00,0.0028
2565.00,0.0027
2564.00,0.0027
2563.00,0.0026
2562.00,0.0026
2561.00,0.0026
2560.00,0.0026
2559.00,0.0026
2558.00,0.0026
2557.00,0.0026
2556.00,0.0025
2555.00,0.0025
2554.00,0.0025
2553.00,0.0024
2552.00,0.0024
2551.00,0.0024
2550.00,0.0023
2549.00,0.0023
2548.00,0.0022
2547.00,0.0022
2546.00,0.0022
2545.00,0.0021
2544.00,0.0021
2543.00,0.0020
2542.00,0.0019
2541.00,0.0019
2540.00,0.0019
2539.00,0.0018
2538.00,0.0018
2537.00,0.0018
2536.00,0.0018
2535.00,0.0017
2534.00,0.0017
2533.00,0.0016
2532.00,0.0016
2531.00,0.0016
2530.00,0.0017
2529.00,0.0017
2528.00,0.0017
2527.00,0.0017
2526.00,0.0017
2525.00,0.0017
2524.00,0.0016
2523.00,0.0016
2522.00,0.0015
2521.00,0.0014
2520.00,0.0013
2519.00,0.0012
2518.00,0.0012
2517.00,0.0012
2516.00,0.0013
2515.00,0.0013
2514.00,0.0013
2513.00,0.0013
2512.00,0.0013
2511.00,0.0013
2510.00,0.0013
2509.00,0.0013
2508.00,0.0013
2507.00,0.0012
2506.00,0.0012
2505.00,0.0011
2504.00,0.0011
2503.00,0.0011
2502.00,0.0011
2501.00,0.0012
2500.00,0.0012
2499.00,0.0012
2498.00,0.0012
2497.00,0.0012
2496.00,0.0012
2495.00,0.0012
2494.00,0.0012
2493.00,0.0012
2492.00,0.0013
2491.00,0.0014
2490.00,0.0014
2489.00,0.0014
2488.00,0.0014
2487.00,0.0014
2486.00,0.0014
2485.00,0.0014
2484.00,0.0013
2483.00,0.0013
2482.00,0.0012
2481.00,0.0012
2480.00,0.0011
2479.00,0.0011
2478.00,0.0010
2477.00,0.0010
2476.00,0.0010
2475.00,0.0011
2474.00,0.0011
2473.00,0.0012
2472.00,0.0012
2471.00,0.0011
2470.00,0.0011
2469.00,0.0010
2468.00,0.0010
2467.00,0.0010
2466.00,0.0010
2465.00,0.0009
2464.00,0.0009
2463.00,0.0009
2462.00,0.0010
2461.00,0.0011
2460.00,0.0012
2459.00,0.0013
2458.00,0.0013
2457.00,0.0013
2456.00,0.0013
2455.00,0.0012
2454.00,0.0012
2453.00,0.0011
2452.00,0.0011
2451.00,0.0011
2450.00,0.0012
2449.00,0.0013
2448.00,0.0013
2447.00,0.0013
2446.00,0.0012
2445.00,0.0011
2444.00,0.0010
2443.00,0.0009
2442.00,0.0009
2441.00,0.0010
2440.00,0.0010
2439.00,0.0011
2438.00,0.0011
2437.00,0.0012
2436.00,0.0012
2435.00,0.0013
2434.00,0.0013
2433.00,0.0013
2432.00,0.0014
2431.00,0.0013
2430.00,0.0013
2429.00,0.0013
2428.00,0.0013
2427.00,0.0013
2426.00,0.0013
2425.00,0.0012
2424.00,0.0011
2423.00,0.0011
2422.00,0.0012
2421.00,0.0012
2420.00,0.0013
2419.00,0.0013
2418.00,0.0012
2417.00,0.0012
2416.00,0.0012
2415.00,0.0012
2414.00,0.0011
2413.00,0.0011
2412.00,0.0012
2411.00,0.0012
2410.00,0.0012
2409.00,0.0012
2408.00,0.0012
2407.00,0.0011
2406.00,0.0010
2405.00,0.0010
2404.00,0.0009
2403.00,0.0009
2402.00,0.0009
2401.00,0.0010
2400.00,0.0010
2399.00,0.0010
2398.00,0.0009
2397.00,0.0010
2396.00,0.0010
2395.00,0.0010
2394.00,0.0010
2393.00,0.0010
2392.00,0.0010
2391.00,0.0010
2390.00,0.0010
2389.00,0.0009
2388.00,0.0009
2387.00,0.0009
2386.00,0.0008
2385.00,0.0007
2384.00,0.0007
2383.00,0.0006
2382.00,0.0006
2381.00,0.0005
2380.00,0.0004
2379.00,0.0003
2378.00,0.0003
2377.00,0.0003
2376.00,0.0003
2375.00,0.0004
2374.00,0.0004
2373.00,0.0005
2372.00,0.0005
2371.00,0.0005
2370.00,0.0005
2369.00,0.0005
2368.00,0.0005
2367.00,0.0005
2366.00,0.0004
2365.00,0.0004
2364.00,0.0004
2363.00,0.0005
2362.00,0.0005
2361.00,0.0005
2360.00,0.0006
2359.00,0.0006
2358.00,0.0007
2357.00,0.0007
2356.00,0.0007
2355.00,0.0006
2354.00,0.0005
2353.00,0.0005
2352.00,0.0005
2351.00,0.0005
2350.00,0.0006
2349.00,0.0006
2348.00,0.0006
2347.00,0.0006
2346.00,0.0007
2345.00,0.0008
2344.00,0.0009
2343.00,0.0009
2342.00,0.0009
2341.00,0.0008
2340.00,0.0008
2339.00,0.0008
2338.00,0.0007
2337.00,0.0007
2336.00,0.0007
2335.00,0.0007
2334.00,0.0007
2333.00,0.0007
2332.00,0.0006
2331.00,0.0006
2330.00,0.0007
2329.00,0.0007
2328.00,0.0010
2327.00,0.0013
2326.00,0.0018
2325.00,0.0021
2324.00,0.0022
2323.00,0.0022
2322.00,0.0020
2321.00,0.0018
2320.00,0.0017
2319.00,0.0017
2318.00,0.0016
2317.00,0.0016
2316.00,0.0015
2315.00,0.0014
2314.00,0.0013
2313.00,0.0012
2312.00,0.0011
2311.00,0.0011
2310.00,0.0011
2309.00,0.0011
2308.00,0.0012
2307.00,0.0013
2306.00,0.0013
2305.00,0.0013
2304.00,0.0013
2303.00,0.0014
2302.00,0.0014
2301.00,0.0014
2300.00,0.0014
2299.00,0.0014
2298.00,0.0014
2297.00,0.0015
2296.00,0.0015
2295.00,0.0015
2294.00,0.0015
2293.00,0.0015
2292.00,0.0015
2291.00,0.0016
2290.00,0.0017
2289.00,0.0019
2288.00,0.0020
2287.00,0.0020
2286.00,0.0020
2285.00,0.0020
2284.00,0.0020
2283.00,0.0019
2282.00,0.0019
2281.00,0.0018
2280.00,0.0018
2279.00,0.0017
2278.00,0.0017
2277.00,0.0016
2276.00,0.0015
2275.00,0.0014
2274.00,0.0014
2273.00,0.0015
2272.00,0.0015
2271.00,0.0015
2270.00,0.0015
2269.00,0.0015
2268.00,0.0014
2267.00,0.0013
2266.00,0.0012
2265.00,0.0011
2264.00,0.0011
2263.00,0.0012
2262.00,0.0013
2261.00,0.0014
2260.00,0.0015
2259.00,0.0015
2258.00,0.0014
2257.00,0.0014
2256.00,0.0013
2255.00,0.0013
2254.00,0.0013
2253.00,0.0012
2252.00,0.0011
2251.00,0.0010
2250.00,0.0010
2249.00,0.0010
2248.00,0.0010
2247.00,0.0010
2246.00,0.0010
2245.00,0.0010
2244.00,0.0010
2243.00,0.0010
2242.00,0.0010
2241.00,0.0010
2240.00,0.0009
2239.00,0.0010
2238.00,0.0011
2237.00,0.0011
2236.00,0.0012
2235.00,0.0012
2234.00,0.0012
2233.00,0.0011
2232.00,0.0010
2231.00,0.0010
2230.00,0.0010
2229.00,0.0010
2228.00,0.0009
2227.00,0.0008
2226.00,0.0007
2225.00,0.0007
2224.00,0.0007
2223.00,0.0007
2222.00,0.0007
2221.00,0.0006
2220.00,0.0005
2219.00,0.0004
2218.00,0.0003
2217.00,0.0002
2216.00,0.0002
2215.00,0.0003
2214.00,0.0003
2213.00,0.0003
2212.00,0.0004
2211.00,0.0005
2210.00,0.0006
2209.00,0.0006
2208.00,0.0007
2207.00,0.0006
2206.00,0.0006
2205.00,0.0006
2204.00,0.0005
2203.00,0.0005
2202.00,0.0005
2201.00,0.0006
2200.00,0.0009
2199.00,0.0010
2198.00,0.0010
2197.00,0.0009
2196.00,0.0007
2195.00,0.0004
2194.00,0.0002
2193.00,0.0001
2192.00,0.0002
2191.00,0.0004
2190.00,0.0008
2189.00,0.0011
2188.00,0.0012
2187.00,0.0011
2186.00,0.0010
2185.00,0.0009
2184.00,0.0008
2183.00,0.0006
2182.00,0.0004
2181.00,0.0004
2180.00,0.0004
2179.00,0.0004
2178.00,0.0005
2177.00,0.0005
2176.00,0.0004
2175.00,0.0003
2174.00,0.0003
2173.00,0.0005
2172.00,0.0007
2171.00,0.0009
2170.00,0.0012
2169.00,0.0014
2168.00,0.0016
2167.00,0.0016
2166.00,0.0016
2165.00,0.0017
2164.00,0.0019
2163.00,0.0022
2162.00,0.0023
2161.00,0.0019
2160.00,0.0007
2159.00,-0.0010
2158.00,-0.0025
2157.00,-0.0033
2156.00,-0.0034
2155.00,-0.0031
2154.00,-0.0029
2153.00,-0.0027
2152.00,-0.0025
2151.00,-0.0022
2150.00,-0.0018
2149.00,-0.0014
2148.00,-0.0011
2147.00,-0.0009
2146.00,-0.0009
2145.00,-0.0010
2144.00,-0.0010
2143.00,-0.0011
2142.00,-0.0012
2141.00,-0.0012
2140.00,-0.0013
2139.00,-0.0014
2138.00,-0.0015
2137.00,-0.0015
2136.00,-0.0014
2135.00,-0.0014
2134.00,-0.0014
2133.00,-0.0014
2132.00,-0.0012
2131.00,-0.0011
2130.00,-0.0010
2129.00,-0.0009
2128.00,-0.0009
2127.00,-0.0009
2126.00,-0.0009
2125.00,-0.0008
2124.00,-0.0007
2123.00,-0.0006
2122.00,-0.0004
2121.00,-0.0003
2120.00,-0.0001
2119.00,-0.0000
2118.00,0.0001
2117.00,0.0002
2116.00,0.0003
2115.00,0.0004
2114.00,0.0004
2113.00,0.0005
2112.00,0.0004
2111.00,0.0003
2110.00,0.0002
2109.00,0.0002
2108.00,0.0001
2107.00,0.0000
2106.00,-0.0000
2105.00,-0.0000
2104.00,0.0000
2103.00,0.0000
2102.00,0.0001
2101.00,0.0001
2100.00,0.0001
2099.00,0.0002
2098.00,0.0002
2097.00,0.0001
2096.00,-0.0001
2095.00,-0.0004
2094.00,-0.0006
2093.00,-0.0005
2092.00,-0.0003
2091.00,-0.0000
2090.00,0.0001
2089.00,0.0002
2088.00,0.0002
2087.00,0.0002
2086.00,0.0003
2085.00,0.0003
2084.00,0.0003
2083.00,0.0003
2082.00,0.0003
2081.00,0.0003
2080.00,0.0003
2079.00,0.0003
2078.00,0.0003
2077.00,0.0003
2076.00,0.0003
2075.00,0.0003
2074.00,0.0002
2073.00,0.0001
2072.00,0.0000
2071.00,0.0000
2070.00,0.0000
2069.00,0.0000
2068.00,-0.0000
2067.00,-0.0002
2066.00,-0.0003
2065.00,-0.0003
2064.00,-0.0002
2063.00,-0.0000
2062.00,0.0001
2061.00,0.0001
2060.00,-0.0000
2059.00,-0.0001
2058.00,-0.0001
2057.00,0.0001
2056.00,0.0002
2055.00,0.0003
2054.00,0.0004
2053.00,0.0008
2052.00,0.0013
2051.00,0.0017
2050.00,0.0017
2049.00,0.0013
2048.00,0.0008
2047.00,0.0004
2046.00,0.0001
2045.00,-0.0000
2044.00,-0.0000
2043.00,0.0001
2042.00,0.0003
2041.00,0.0006
2040.00,0.0007
2039.00,0.0007
2038.00,0.0005
2037.00,0.0002
2036.00,-0.0002
2035.00,-0.0006
2034.00,-0.0009
2033.00,-0.0011
2032.00,-0.0012
2031.00,-0.0012
2030.00,-0.0010
2029.00,-0.0007
2028.00,-0.0006
2027.00,-0.0005
2026.00,-0.0006
2025.00,-0.0007
2024.00,-0.0009
2023.00,-0.0010
2022.00,-0.0011
2021.00,-0.0011
2020.00,-0.0012
2019.00,-0.0012
2018.00,-0.0011
2017.00,-0.0009
2016.00,-0.0006
2015.00,-0.0006
2014.00,-0.0007
2013.00,-0.0008
2012.00,-0.0009
2011.00,-0.0011
2010.00,-0.0014
2009.00,-0.0018
2008.00,-0.0021
2007.00,-0.0023
2006.00,-0.0023
2005.00,-0.0021
2004.00,-0.0018
2003.00,-0.0016
2002.00,-0.0016
2001.00,-0.0016
2000.00,-0.0015
1999.00,-0.0014
1998.00,-0.0013
1997.00,-0.0013
1996.00,-0.0014
1995.00,-0.0017
1994.00,-0.0018
1993.00,-0.0016
1992.00,-0.0012
1991.00,-0.0008
1990.00,-0.0004
1989.00,-0.0002
1988.00,-0.0001
1987.00,-0.0001
1986.00,-0.0002
1985.00,-0.0000
1984.00,0.0002
1983.00,0.0004
1982.00,0.0006
1981.00,0.0010
1980.00,0.0012
1979.00,0.0011
1978.00,0.0005
1977.00,-0.0002
1976.00,-0.0009
1975.00,-0.0015
1974.00,-0.0018
1973.00,-0.0019
1972.00,-0.0018
1971.00,-0.0016
1970.00,-0.0016
1969.00,-0.0016
1968.00,-0.0015
1967.00,-0.0014
1966.00,-0.0013
1965.00,-0.0012
1964.00,-0.0013
1963.00,-0.0015
1962.00,-0.0018
1961.00,-0.0021
1960.00,-0.0023
1959.00,-0.0023
1958.00,-0.0022
1957.00,-0.0020
1956.00,-0.0018
1955.00,-0.0017
1954.00,-0.0017
1953.00,-0.0018
1952.00,-0.0020
1951.00,-0.0021
1950.00,-0.0022
1949.00,-0.0022
1948.00,-0.0021
1947.00,-0.0021
1946.00,-0.0021
1945.00,-0.0019
1944.00,-0.0015
1943.00,-0.0012
1942.00,-0.0010
1941.00,-0.0010
1940.00,-0.0011
1939.00,-0.0013
1938.00,-0.0014
1937.00,-0.0014
1936.00,-0.0012
1935.00,-0.0010
1934.00,-0.0008
1933.00,-0.0008
1932.00,-0.0009
1931.00,-0.0011
1930.00,-0.0012
1929.00,-0.0013
1928.00,-0.0012
1927.00,-0.0011
1926.00,-0.0010
1925.00,-0.0009
1924.00,-0.0010
1923.00,-0.0010
1922.00,-0.0010
1921.00,-0.0009
1920.00,-0.0007
1919.00,-0.0005
1918.00,-0.0004
1917.00,-0.0004
1916.00,-0.0004
1915.00,-0.0005
1914.00,-0.0005
1913.00,-0.0004
1912.00,-0.0004
1911.00,-0.0004
1910.00,-0.0005
1909.00,-0.0005
1908.00,-0.0006
1907.00,-0.0006
1906.00,-0.0006
1905.00,-0.0005
1904.00,-0.0004
1903.00,-0.0004
1902.00,-0.0005
1901.00,-0.0005
1900.00,-0.0005
1899.00,-0.0005
1898.00,-0.0005
1897.00,-0.0005
1896.00,-0.0005
1895.00,-0.0004
1894.00,-0.0002
1893.00,-0.0002
1892.00,-0.0002
1891.00,-0.0002
1890.00,-0.0002
1889.00,-0.0001
1888.00,-0.0000
1887.00,-0.0000
1886.00,-0.0001
1885.00,-0.0002
1884.00,-0.0003
1883.00,-0.0003
1882.00,-0.0004
1881.00,-0.0004
1880.00,-0.0003
1879.00,-0.0003
1878.00,-0.0003
1877.00,-0.0003
1876.00,-0.0002
1875.00,-0.0002
1874.00,-0.0001
1873.00,-0.0001
1872.00,-0.0001
1871.00,-0.0002
1870.00,-0.0002
1869.00,-0.0001
1868.00,0.0000
1867.00,0.0000
1866.00,0.0000
1865.00,-0.0000
1864.00,-0.0000
1863.00,-0.0000
1862.00,-0.0001
1861.00,-0.0001
1860.00,-0.0000
1859.00,-0.0000
1858.00,-0.0000
1857.00,0.0000
1856.00,0.0000
1855.00,0.0001
1854.00,0.0001
1853.00,0.0001
1852.00,0.0001
1851.00,0.0001
1850.00,0.0001
1849.00,0.0001
1848.00,0.0002
1847.00,0.0002
1846.00,0.0002
1845.00,0.0001
1844.00,0.0001
1843.00,0.0001
1842.00,0.0001
1841.00,0.0002
1840.00,0.0002
1839.00,0.0002
1838.00,0.0002
1837.00,0.0002
1836.00,0.0002
1835.00,0.0002
1834.00,0.0003
1833.00,0.0003
1832.00,0.0003
1831.00,0.0003
1830.00,0.0003
1829.00,0.0003
1828.00,0.0003
1827.00,0.0003
1826.00,0.0003
1825.00,0.0003
1824.00,0.0004
1823.00,0.0004
1822.00,0.0004
1821.00,0.0004
1820.00,0.0003
1819.00,0.0002
1818.00,0.0001
1817.00,-0.0000
1816.00,-0.0000
1815.00,0.0000
1814.00,0.0001
1813.00,0.0002
1812.00,0.0002
1811.00,0.0003
1810.00,0.0003
1809.00,0.0003
1808.00,0.0003
1807.00,0.0003
1806.00,0.0003
1805.00,0.0004
1804.00,0.0004
1803.00,0.0004
1802.00,0.0004
1801.00,0.0004
1800.00,0.0005
1799.00,0.0005
1798.00,0.0005
1797.00,0.0005
1796.00,0.0006
1795.00,0.0007
1794.00,0.0007
1793.00,0.0008
1792.00,0.0008
1791.00,0.0008
1790.00,0.0008
1789.00,0.0008
1788.00,0.0008
1787.00,0.0008
1786.00,0.0008
1785.00,0.0008
1784.00,0.0009
1783.00,0.0009
1782.00,0.0008
1781.00,0.0008
1780.00,0.0007
1779.00,0.0007
1778.00,0.0007
1777.00,0.0007
1776.00,0.0008
1775.00,0.0008
1774.00,0.0008
1773.00,0.0008
1772.00,0.0007
1771.00,0.0008
1770.00,0.0008
1769.00,0.0008
1768.00,0.0009
1767.00,0.0009
1766.00,0.0010
1765.00,0.0010
1764.00,0.0010
1763.00,0.0011
1762.00,0.0011
1761.00,0.0012
1760.00,0.0012
1759.00,0.0012
1758.00,0.0012
1757.00,0.0013
1756.00,0.0013
1755.00,0.0014
1754.00,0.0014
1753.00,0.0014
1752.00,0.0015
1751.00,0.0015
1750.00,0.0015
1749.00,0.0015
1748.00,0.0016
1747.00,0.0016
1746.00,0.0015
1745.00,0.0015
1744.00,0.0015
1743.00,0.0015
1742.00,0.0015
1741.00,0.0016
1740.00,0.0016
1739.00,0.0017
1738.00,0.0017
1737.00,0.0017
1736.00,0.0017
1735.00,0.0017
1734.00,0.0017
1733.00,0.0017
1732.00,0.0016
1731.00,0.0016
1730.00,0.0015
1729.00,0.0015
1728.00,0.0015
1727.00,0.0015
1726.00,0.0015
1725.00,0.0016
1724.00,0.0016
1723.00,0.0017
1722.00,0.0017
1721.00,0.0018
1720.00,0.0018
1719.00,0.0019
1718.00,0.0020
1717.00,0.0022
1716.00,0.0022
1715.00,0.0022
1714.00,0.0022
1713.00,0.0023
1712.00,0.0023
1711.00,0.0024
1710.00,0.0024
1709.00,0.0025
1708.00,0.0025
1707.00,0.0025
1706.00,0.0025
1705.00,0.0026
1704.00,0.0027
1703.00,0.0028
1702.00,0.0028
1701.00,0.0030
1700.00,0.0033
1699.00,0.0034
1698.00,0.0034
1697.00,0.0034
1696.00,0.0035
1695.00,0.0036
1694.00,0.0036
1693.00,0.0036
1692.00,0.0037
1691.00,0.0037
1690.00,0.0038
1689.00,0.0040
1688.00,0.0041
1687.00,0.0042
1686.00,0.0043
1685.00,0.0043
1684.00,0.0044
1683.00,0.0046
1682.00,0.0047
1681.00,0.0049
1680.00,0.0050
1679.00,0.0052
1678.00,0.0053
1677.00,0.0054
1676.00,0.0055
1675.00,0.0056
1674.00,0.0057
1673.00,0.0058
1672.00,0.0060
1671.00,0.0061
1670.00,0.0063
1669.00,0.0064
1668.00,0.0065
1667.00,0.0066
1666.00,0.0067
1665.00,0.0068
1664.00,0.0070
1663.00,0.0072
1662.00,0.0074
1661.00,0.0076
1660.00,0.0079
1659.00,0.0080
1658.00,0.0082
1657.00,0.0085
1656.00,0.0087
1655.00,0.0090
1654.00,0.0094
1653.00,0.0100
1652.00,0.0102
1651.00,0.0103
1650.00,0.0102
1649.00,0.0103
1648.00,0.0106
1647.00,0.0110
1646.00,0.0113
1645.00,0.0115
1644.00,0.0117
1643.00,0.0118
1642.00,0.0120
1641.00,0.0121
1640.00,0.0121
1639.00,0.0122
1638.00,0.0121
1637.00,0.0122
1636.00,0.0122
1635.00,0.0122
1634.00,0.0121
1633.00,0.0120
1632.00,0.0118
1631.00,0.0116
1630.00,0.0115
1629.00,0.0113
1628.00,0.0112
1627.00,0.0111
1626.00,0.0110
1625.00,0.0108
1624.00,0.0107
1623.00,0.0106
1622.00,0.0105
1621.00,0.0104
1620.00,0.0103
1619.00,0.0102
1618.00,0.0102
1617.00,0.0101
1616.00,0.0101
1615.00,0.0101
1614.00,0.0101
1613.00,0.0101
1612.00,0.0101
1611.00,0.0101
1610.00,0.0101
1609.00,0.0101
1608.00,0.0101
1607.00,0.0101
1606.00,0.0101
1605.00,0.0101
1604.00,0.0101
1603.00,0.0100
1602.00,0.0099
1601.00,0.0098
1600.00,0.0097
1599.00,0.0096
1598.00,0.0094
1597.00,0.0093
1596.00,0.0091
1595.00,0.0090
1594.00,0.0088
1593.00,0.0087
1592.00,0.0086
1591.00,0.0086
1590.00,0.0085
1589.00,0.0086
1588.00,0.0086
1587.00,0.0087
1586.00,0.0088
1585.00,0.0089
1584.00,0.0090
1583.00,0.0090
1582.00,0.0091
1581.00,0.0090
1580.00,0.0089
1579.00,0.0088
1578.00,0.0086
1577.00,0.0084
1576.00,0.0083
1575.00,0.0082
1574.00,0.0081
1573.00,0.0080
1572.00,0.0080
1571.00,0.0080
1570.00,0.0080
1569.00,0.0081
1568.00,0.0082
1567.00,0.0082
1566.00,0.0083
1565.00,0.0083
1564.00,0.0083
1563.00,0.0083
1562.00,0.0083
1561.00,0.0083
1560.00,0.0084
1559.00,0.0085
1558.00,0.0085
1557.00,0.0086
1556.00,0.0086
1555.00,0.0087
1554.00,0.0088
1553.00,0.0089
1552.00,0.0091
1551.00,0.0092
1550.00,0.0095
1549.00,0.0097
1548.00,0.0099
1547.00,0.0102
1546.00,0.0104
1545.00,0.0107
1544.00,0.0111
1543.00,0.0114
1542.00,0.0118
1541.00,0.0122
1540.00,0.0126
1539.00,0.0129
1538.00,0.0131
1537.00,0.0132
1536.00,0.0133
1535.00,0.0134
1534.00,0.0134
1533.00,0.0133
1532.00,0.0132
1531.00,0.0130
1530.00,0.0127
1529.00,0.0125
1528.00,0.0122
1527.00,0.0118
1526.00,0.0114
1525.00,0.0111
1524.00,0.0108
1523.00,0.0105
1522.00,0.0102
1521.00,0.0099
1520.00,0.0097
1519.00,0.0095
1518.00,0.0092
1517.00,0.0090
1516.00,0.0089
1515.00,0.0088
1514.00,0.0088
1513.00,0.0087
1512.00,0.0087
1511.00,0.0087
1510.00,0.0087
1509.00,0.0087
1508.00,0.0087
1507.00,0.0086
1506.00,0.0085
1505.00,0.0086
1504.00,0.0087
1503.00,0.0088
1502.00,0.0090
1501.00,0.0093
1500.00,0.0097
1499.00,0.0102
1498.00,0.0110
1497.00,0.0121
1496.00,0.0131
1495.00,0.0139
1494.00,0.0143
1493.00,0.0145
1492.00,0.0146
1491.00,0.0144
1490.00,0.0141
1489.00,0.0139
1488.00,0.0140
1487.00,0.0141
1486.00,0.0143
1485.00,0.0147
1484.00,0.0152
1483.00,0.0157
1482.00,0.0164
1481.00,0.0173
1480.00,0.0184
1479.00,0.0195
1478.00,0.0208
1477.00,0.0227
1476.00,0.0250
1475.00,0.0275
1474.00,0.0310
1473.00,0.0361
1472.00,0.0425
1471.00,0.0488
1470.00,0.0549
1469.00,0.0614
1468.00,0.0684
1467.00,0.0762
1466.00,0.0851
1465.00,0.0948
1464.00,0.1036
1463.00,0.1100
1462.00,0.1144
1461.00,0.1176
1460.00,0.1201
1459.00,0.1219
1458.00,0.1238
1457.00,0.1256
1456.00,0.1265
1455.00,0.1264
1454.00,0.1258
1453.00,0.1246
1452.00,0.1224
1451.00,0.1189
1450.00,0.1137
1449.00,0.1062
1448.00,0.0965
1447.00,0.0861
1446.00,0.0768
1445.00,0.0688
1444.00,0.0620
1443.00,0.0565
1442.00,0.0525
1441.00,0.0498
1440.00,0.0482
1439.00,0.0475
1438.00,0.0476
1437.00,0.0476
1436.00,0.0465
1435.00,0.0437
1434.00,0.0398
1433.00,0.0351
1432.00,0.0303
1431.00,0.0261
1430.00,0.0230
1429.00,0.0207
1428.00,0.0192
1427.00,0.0182
1426.00,0.0176
1425.00,0.0172
1424.00,0.0168
1423.00,0.0166
1422.00,0.0167
1421.00,0.0166
1420.00,0.0165
1419.00,0.0165
1418.00,0.0164
1417.00,0.0162
1416.00,0.0159
1415.00,0.0157
1414.00,0.0155
1413.00,0.0152
1412.00,0.0149
1411.00,0.0147
1410.00,0.0146
1409.00,0.0144
1408.00,0.0143
1407.00,0.0142
1406.00,0.0142
1405.00,0.0142
1404.00,0.0141
1403.00,0.0142
1402.00,0.0143
1401.00,0.0143
1400.00,0.0144
1399.00,0.0145
1398.00,0.0147
1397.00,0.0149
1396.00,0.0151
1395.00,0.0155
1394.00,0.0161
1393.00,0.0166
1392.00,0.0173
1391.00,0.0182
1390.00,0.0194
1389.00,0.0212
1388.00,0.0238
1387.00,0.0277
1386.00,0.0328
1385.00,0.0393
1384.00,0.0479
1383.00,0.0593
1382.00,0.0743
1381.00,0.0933
1380.00,0.1167
1379.00,0.1435
1378.00,0.1700
1377.00,0.1901
1376.00,0.1980
1375.00,0.1899
1374.00,0.1677
1373.00,0.1397
1372.00,0.1134
1371.00,0.0913
1370.00,0.0736
1369.00,0.0600
1368.00,0.0505
1367.00,0.0447
1366.00,0.0415
1365.00,0.0402
1364.00,0.0404
1363.00,0.0418
1362.00,0.0441
1361.00,0.0466
1360.00,0.0485
1359.00,0.0491
1358.00,0.0479
1357.00,0.0451
1356.00,0.0411
1355.00,0.0366
1354.00,0.0322
1353.00,0.0285
1352.00,0.0254
1351.00,0.0229
1350.00,0.0210
1349.00,0.0195
1348.00,0.0183
1347.00,0.0173
1346.00,0.0165
1345.00,0.0159
1344.00,0.0154
1343.00,0.0151
1342.00,0.0147
1341.00,0.0144
1340.00,0.0141
1339.00,0.0138
1338.00,0.0136
1337.00,0.0134
1336.00,0.0135
1335.00,0.0136
1334.00,0.0140
1333.00,0.0144
1332.00,0.0149
1331.00,0.0152
1330.00,0.0154
1329.00,0.0152
1328.00,0.0148
1327.00,0.0142
1326.00,0.0135
1325.00,0.0128
1324.00,0.0122
1323.00,0.0117
1322.00,0.0112
1321.00,0.0109
1320.00,0.0106
1319.00,0.0104
1318.00,0.0102
1317.00,0.0100
1316.00,0.0098
1315.00,0.0097
1314.00,0.0097
1313.00,0.0098
1312.00,0.0099
1311.00,0.0102
1310.00,0.0106
1309.00,0.0113
1308.00,0.0123
1307.00,0.0136
1306.00,0.0149
1305.00,0.0157
1304.00,0.0161
1303.00,0.0158
1302.00,0.0153
1301.00,0.0147
1300.00,0.0144
1299.00,0.0143
1298.00,0.0142
1297.00,0.0142
1296.00,0.0141
1295.00,0.0138
1294.00,0.0133
1293.00,0.0128
1292.00,0.0122
1291.00,0.0117
1290.00,0.0111
1289.00,0.0107
1288.00,0.0103
1287.00,0.0099
1286.00,0.0097
1285.00,0.0095
1284.00,0.0093
1283.00,0.0091
1282.00,0.0090
1281.00,0.0088
1280.00,0.0087
1279.00,0.0086
1278.00,0.0085
1277.00,0.0084
1276.00,0.0084
1275.00,0.0084
1274.00,0.0084
1273.00,0.0083
1272.00,0.0083
1271.00,0.0083
1270.00,0.0083
1269.00,0.0084
1268.00,0.0085
1267.00,0.0086
1266.00,0.0088
1265.00,0.0091
1264.00,0.0094
1263.00,0.0097
1262.00,0.0101
1261.00,0.0106
1260.00,0.0113
1259.00,0.0121
1258.00,0.0131
1257.00,0.0139
1256.00,0.0144
1255.00,0.0144
1254.00,0.0138
1253.00,0.0131
1252.00,0.0122
1251.00,0.0115
1250.00,0.0110
1249.00,0.0106
1248.00,0.0103
1247.00,0.0102
1246.00,0.0100
1245.00,0.0099
1244.00,0.0098
1243.00,0.0098
1242.00,0.0097
1241.00,0.0096
1240.00,0.0095
1239.00,0.0095
1238.00,0.0094
1237.00,0.0093
1236.00,0.0092
1235.00,0.0090
1234.00,0.0089
1233.00,0.0088
1232.00,0.0088
1231.00,0.0088
1230.00,0.0088
1229.00,0.0089
1228.00,0.0090
1227.00,0.0092
1226.00,0.0094
1225.00,0.0096
1224.00,0.0099
1223.00,0.0102
1222.00,0.0105
1221.00,0.0108
1220.00,0.0110
1219.00,0.0110
1218.00,0.0110
1217.00,0.0108
1216.00,0.0105
1215.00,0.0102
1214.00,0.0099
1213.00,0.0096
1212.00,0.0094
1211.00,0.0091
1210.00,0.0089
1209.00,0.0086
1208.00,0.0084
1207.00,0.0083
1206.00,0.0081
1205.00,0.0080
1204.00,0.0079
1203.00,0.0079
1202.00,0.0079
1201.00,0.0078
1200.00,0.0078
1199.00,0.0078
1198.00,0.0078
1197.00,0.0078
1196.00,0.0077
1195.00,0.0077
1194.00,0.0077
1193.00,0.0076
1192.00,0.0076
1191.00,0.0077
1190.00,0.0078
1189.00,0.0078
1188.00,0.0079
1187.00,0.0080
1186.00,0.0081
1185.00,0.0082
1184.00,0.0083
1183.00,0.0085
1182.00,0.0087
1181.00,0.0090
1180.00,0.0094
1179.00,0.0099
1178.00,0.0106
1177.00,0.0115
1176.00,0.0128
1175.00,0.0145
1174.00,0.0166
1173.00,0.0194
1172.00,0.0226
1171.00,0.0262
1170.00,0.0297
1169.00,0.0326
1168.00,0.0345
1167.00,0.0350
1166.00,0.0344
1165.00,0.0328
1164.00,0.0309
1163.00,0.0289
1162.00,0.0270
1161.00,0.0254
1160.00,0.0242
1159.00,0.0232
1158.00,0.0224
1157.00,0.0219
1156.00,0.0215
1155.00,0.0212
1154.00,0.0210
1153.00,0.0207
1152.00,0.0203
1151.00,0.0197
1150.00,0.0188
1149.00,0.0178
1148.00,0.0168
1147.00,0.0159
1146.00,0.0151
1145.00,0.0143
1144.00,0.0136
1143.00,0.0129
1142.00,0.0123
1141.00,0.0117
1140.00,0.0112
1139.00,0.0108
1138.00,0.0104
1137.00,0.0100
1136.00,0.0097
1135.00,0.0094
1134.00,0.0092
1133.00,0.0090
1132.00,0.0089
1131.00,0.0089
1130.00,0.0090
1129.00,0.0091
1128.00,0.0093
1127.00,0.0095
1126.00,0.0096
1125.00,0.0095
1124.00,0.0094
1123.00,0.0094
1122.00,0.0094
1121.00,0.0095
1120.00,0.0096
1119.00,0.0097
1118.00,0.0098
1117.00,0.0100
1116.00,0.0102
1115.00,0.0103
1114.00,0.0105
1113.00,0.0105
1112.00,0.0107
1111.00,0.0109
1110.00,0.0112
1109.00,0.0117
1108.00,0.0124
1107.00,0.0131
1106.00,0.0139
1105.00,0.0146
1104.00,0.0152
1103.00,0.0156
1102.00,0.0157
1101.00,0.0154
1100.00,0.0150
1099.00,0.0144
1098.00,0.0139
1097.00,0.0134
1096.00,0.0129
1095.00,0.0126
1094.00,0.0123
1093.00,0.0119
1092.00,0.0116
1091.00,0.0113
1090.00,0.0111
1089.00,0.0109
1088.00,0.0108
1087.00,0.0106
1086.00,0.0106
1085.00,0.0105
1084.00,0.0105
1083.00,0.0104
1082.00,0.0103
1081.00,0.0102
1080.00,0.0099
1079.00,0.0097
1078.00,0.0094
1077.00,0.0091
1076.00,0.0090
1075.00,0.0089
1074.00,0.0089
1073.00,0.0089
1072.00,0.0089
1071.00,0.0089
1070.00,0.0089
1069.00,0.0090
1068.00,0.0090
1067.00,0.0090
1066.00,0.0090
1065.00,0.0089
1064.00,0.0089
1063.00,0.0088
1062.00,0.0088
1061.00,0.0088
1060.00,0.0088
1059.00,0.0089
1058.00,0.0091
1057.00,0.0092
1056.00,0.0093
1055.00,0.0094
1054.00,0.0095
1053.00,0.0096
1052.00,0.0097
1051.00,0.0098
1050.00,0.0099
1049.00,0.0101
1048.00,0.0104
1047.00,0.0108
1046.00,0.0110
1045.00,0.0112
1044.00,0.0112
1043.00,0.0110
1042.00,0.0107
1041.00,0.0104
1040.00,0.0101
1039.00,0.0099
1038.00,0.0099
1037.00,0.0099
1036.00,0.0100
1035.00,0.0100
1034.00,0.0099
1033.00,0.0098
1032.00,0.0097
1031.00,0.0096
1030.00,0.0096
1029.00,0.0097
1028.00,0.0097
1027.00,0.0096
1026.00,0.0095
1025.00,0.0094
1024.00,0.0093
1023.00,0.0092
1022.00,0.0092
1021.00,0.0093
1020.00,0.0094
1019.00,0.0096
1018.00,0.0099
1017.00,0.0102
1016.00,0.0105
1015.00,0.0107
1014.00,0.0110
1013.00,0.0113
1012.00,0.0117
1011.00,0.0120
1010.00,0.0123
1009.00,0.0127
1008.00,0.0133
1007.00,0.0140
1006.00,0.0150
1005.00,0.0163
1004.00,0.0179
1003.00,0.0202
1002.00,0.0233
1001.00,0.0271
1000.00,0.0312
999.00,0.0346
998.00,0.0363
997.00,0.0358
996.00,0.0332
995.00,0.0293
994.00,0.0250
993.00,0.0211
992.00,0.0180
991.00,0.0157
990.00,0.0140
989.00,0.0128
988.00,0.0121
987.00,0.0118
986.00,0.0118
985.00,0.0121
984.00,0.0126
983.00,0.0134
982.00,0.0145
981.00,0.0162
980.00,0.0185
979.00,0.0216
978.00,0.0254
977.00,0.0300
976.00,0.0348
975.00,0.0395
974.00,0.0431
973.00,0.0446
972.00,0.0436
971.00,0.0399
970.00,0.0347
969.00,0.0291
968.00,0.0242
967.00,0.0202
966.00,0.0173
965.00,0.0152
964.00,0.0137
963.00,0.0125
962.00,0.0117
961.00,0.0110
960.00,0.0104
959.00,0.0100
958.00,0.0096
957.00,0.0094
956.00,0.0092
955.00,0.0090
954.00,0.0088
953.00,0.0086
952.00,0.0085
951.00,0.0084
950.00,0.0083
949.00,0.0083
948.00,0.0084
947.00,0.0085
946.00,0.0088
945.00,0.0091
944.00,0.0095
943.00,0.0099
942.00,0.0102
941.00,0.0104
940.00,0.0103
939.00,0.0099
938.00,0.0095
937.00,0.0089
936.00,0.0084
935.00,0.0079
934.00,0.0076
933.00,0.0073
932.00,0.0072
931.00,0.0071
930.00,0.0069
929.00,0.0067
928.00,0.0066
927.00,0.0065
926.00,0.0065
925.00,0.0066
924.00,0.0066
923.00,0.0068
922.00,0.0068
921.00,0.0069
920.00,0.0070
919.00,0.0071
918.00,0.0073
917.00,0.0074
916.00,0.0075
915.00,0.0075
914.00,0.0075
913.00,0.0075
912.00,0.0075
911.00,0.0076
910.00,0.0078
909.00,0.0080
908.00,0.0083
907.00,0.0087
906.00,0.0093
905.00,0.0104
904.00,0.0119
903.00,0.0138
902.00,0.0160
901.00,0.0181
900.00,0.0194
899.00,0.0198
898.00,0.0190
897.00,0.0174
896.00,0.0154
895.00,0.0134
894.00,0.0118
893.00,0.0107
892.00,0.0098
891.00,0.0091
890.00,0.0086
889.00,0.0082
888.00,0.0079
887.00,0.0077
886.00,0.0076
885.00,0.0075
884.00,0.0074
883.00,0.0075
882.00,0.0076
881.00,0.0078
880.00,0.0079
879.00,0.0079
878.00,0.0079
877.00,0.0079
876.00,0.0079
875.00,0.0079
874.00,0.0078
873.00,0.0078
872.00,0.0078
871.00,0.0078
870.00,0.0078
869.00,0.0077
868.00,0.0077
867.00,0.0078
866.00,0.0079
865.00,0.0079
864.00,0.0079
863.00,0.0080
862.00,0.0082
861.00,0.0086
860.00,0.0089
859.00,0.0092
858.00,0.0094
857.00,0.0095
856.00,0.0095
855.00,0.0097
854.00,0.0099
853.00,0.0102
852.00,0.0105
851.00,0.0109
850.00,0.0114
849.00,0.0121
848.00,0.0132
847.00,0.0149
846.00,0.0174
845.00,0.0210
844.00,0.0257
843.00,0.0308
842.00,0.0348
841.00,0.0359
840.00,0.0337
839.00,0.0292
838.00,0.0244
837.00,0.0205
836.00,0.0179
835.00,0.0163
834.00,0.0153
833.00,0.0146
832.00,0.0140
831.00,0.0135
830.00,0.0131
829.00,0.0128
828.00,0.0127
827.00,0.0125
826.00,0.0124
825.00,0.0122
824.00,0.0121
823.00,0.0120
822.00,0.0119
821.00,0.0119
820.00,0.0119
819.00,0.0120
818.00,0.0122
817.00,0.0127
816.00,0.0135
815.00,0.0146
814.00,0.0161
813.00,0.0177
812.00,0.0194
811.00,0.0210
810.00,0.0222
809.00,0.0228
808.00,0.0225
807.00,0.0214
806.00,0.0198
805.00,0.0180
804.00,0.0164
803.00,0.0151
802.00,0.0141
801.00,0.0133
800.00,0.0127
799.00,0.0120
798.00,0.0115
797.00,0.0110
796.00,0.0107
795.00,0.0102
794.00,0.0098
793.00,0.0094
792.00,0.0092
791.00,0.0091
790.00,0.0091
789.00,0.0089
788.00,0.0087
787.00,0.0084
786.00,0.0081
785.00,0.0079
784.00,0.0077
783.00,0.0075
782.00,0.0073
781.00,0.0071
780.00,0.0069
779.00,0.0069
778.00,0.0069
777.00,0.0071
776.00,0.0072
775.00,0.0074
774.00,0.0075
773.00,0.0077
772.00,0.0080
771.00,0.0083
770.00,0.0086
769.00,0.0088
768.00,0.0088
767.00,0.0088
766.00,0.0089
765.00,0.0090
764.00,0.0089
763.00,0.0087
762.00,0.0083
761.00,0.0079
760.00,0.0076
759.00,0.0074
758.00,0.0072
757.00,0.0072
756.00,0.0071
755.00,0.0070
754.00,0.0069
753.00,0.0068
752.00,0.0068
751.00,0.0067
750.00,0.0067
749.00,0.0067
748.00,0.0066
747.00,0.0067
746.00,0.0067
745.00,0.0068
744.00,0.0068
743.00,0.0068
742.00,0.0069
741.00,0.0070
740.00,0.0072
739.00,0.0074
738.00,0.0077
737.00,0.0080
736.00,0.0083
735.00,0.0084
734.00,0.0085
733.00,0.0086
732.00,0.0086
731.00,0.0086
730.00,0.0085
729.00,0.0084
728.00,0.0082
727.00,0.0081
726.00,0.0081
725.00,0.0082
724.00,0.0082
723.00,0.0082
722.00,0.0080
721.00,0.0079
720.00,0.0079
719.00,0.0078
718.00,0.0077
717.00,0.0074
716.00,0.0072
715.00,0.0069
714.00,0.0068
713.00,0.0068
712.00,0.0068
711.00,0.0068
710.00,0.0068
709.00,0.0068
708.00,0.0068
707.00,0.0068
706.00,0.0068
705.00,0.0067
704.00,0.0068
703.00,0.0069
702.00,0.0069
701.00,0.0069
700.00,0.0067
699.00,0.0063
698.00,0.0061
697.00,0.0060
696.00,0.0060
695.00,0.0061
694.00,0.0061
693.00,0.0062
692.00,0.0062
691.00,0.0063
690.00,0.0065
689.00,0.0066
688.00,0.0067
687.00,0.0066
686.00,0.0064
685.00,0.0061
684.00,0.0059
683.00,0.0059
682.00,0.0060
681.00,0.0060
680.00,0.0061
679.00,0.0063
678.00,0.0065
677.00,0.0065
676.00,0.0063
675.00,0.0061
674.00,0.0061
673.00,0.0063
672.00,0.0065
671.00,0.0067
670.00,0.0067
669.00,0.0066
668.00,0.0065
667.00,0.0066
666.00,0.0065
665.00,0.0063
664.00,0.0061
663.00,0.0058
662.00,0.0057
661.00,0.0058
660.00,0.0062
659.00,0.0064
658.00,0.0065
657.00,0.0065
656.00,0.0066
655.00,0.0065
654.00,0.0064
653.00,0.0062
652.00,0.0061
651.00,0.0060
650.00,0.0060
649.00,0.0062
648.00,0.0063
647.00,0.0063
646.00,0.0062
645.00,0.0062
644.00,0.0064
643.00,0.0067
642.00,0.0068
641.00,0.0067
640.00,0.0065
639.00,0.0065
638.00,0.0065
637.00,0.0067
636.00,0.0068
635.00,0.0067
634.00,0.0067
633.00,0.0066
632.00,0.0067
631.00,0.0068
630.00,0.0069
629.00,0.0069
628.00,0.0067
627.00,0.0064
626.00,0.0063
625.00,0.0064
624.00,0.0066
623.00,0.0068
622.00,0.0068
621.00,0.0068
620.00,0.0069
619.00,0.0070
618.00,0.0069
617.00,0.0067
616.00,0.0066
615.00,0.0065
614.00,0.0066
613.00,0.0066
612.00,0.0066
611.00,0.0066
610.00,0.0065
609.00,0.0065
608.00,0.0065
607.00,0.0064
606.00,0.0062
605.00,0.0060
604.00,0.0059
603.00,0.0059
602.00,0.0062
601.00,0.0065
600.00,0.0066
599.00,0.0066
598.00,0.0065
597.00,0.0064
596.00,0.0064
595.00,0.0064
594.00,0.0065
593.00,0.0066
592.00,0.0067
591.00,0.0068
590.00,0.0070
589.00,0.0070
588.00,0.0069
587.00,0.0068
586.00,0.0068
585.00,0.0069
584.00,0.0072
583.00,0.0073
582.00,0.0072
581.00,0.0071
580.00,0.0069
579.00,0.0067
578.00,0.0066
577.00,0.0066
576.00,0.0067
575.00,0.0067
574.00,0.0066
573.00,0.0064
572.00,0.0064
571.00,0.0065
570.00,0.0067
569.00,0.0070
568.00,0.0073
567.00,0.0075
566.00,0.0077
565.00,0.0079
564.00,0.0081
563.00,0.0080
562.00,0.0077
561.00,0.0073
560.00,0.0071
559.00,0.0071
558.00,0.0072
557.00,0.0073
556.00,0.0073
555.00,0.0070
554.00,0.0067
553.00,0.0065
552.00,0.0067
551.00,0.0072
550.00,0.0076
549.00,0.0078
548.00,0.0075
547.00,0.0071
546.00,0.0067
545.00,0.0067
544.00,0.0070
543.00,0.0075
542.00,0.0081
541.00,0.0086
540.00,0.0089
539.00,0.0088
538.00,0.0084
537.00,0.0080
536.00,0.0078
535.00,0.0079
534.00,0.0082
533.00,0.0085
532.00,0.0089
531.00,0.0094
530.00,0.0099
529.00,0.0105
528.00,0.0109
527.00,0.0110
526.00,0.0108
525.00,0.0105
524.00,0.0101
523.00,0.0098
522.00,0.0093
521.00,0.0085
520.00,0.0077
519.00,0.0073
518.00,0.0074
517.00,0.0077
516.00,0.0081
515.00,0.0083
514.00,0.0085
513.00,0.0085
512.00,0.0085
511.00,0.0082
510.00,0.0077
509.00,0.0069
508.00,0.0062
507.00,0.0059
506.00,0.0062
505.00,0.0069
504.00,0.0076
503.00,0.0080
502.00,0.0079
501.00,0.0075
500.00,0.0071
499.00,0.0070
498.00,0.0071
497.00,0.0073
496.00,0.0077
495.00,0.0079
494.00,0.0079
493.00,0.0077
492.00,0.0073
491.00,0.0071
490.00,0.0070
489.00,0.0069
488.00,0.0066
487.00,0.0062
486.00,0.0061
485.00,0.0065
484.00,0.0071
483.00,0.0075
482.00,0.0076
481.00,0.0074
480.00,0.0073
479.00,0.0073
478.00,0.0075
477.00,0.0080
476.00,0.0088
475.00,0.0094
474.00,0.0095
473.00,0.0090
472.00,0.0086
471.00,0.0087
470.00,0.0095
469.00,0.0107
468.00,0.0119
467.00,0.0125
466.00,0.0125
465.00,0.0124
464.00,0.0126
463.00,0.0134
462.00,0.0145
461.00,0.0160
460.00,0.0175
459.00,0.0183
458.00,0.0178
457.00,0.0165
456.00,0.0153
455.00,0.0146
454.00,0.0138
453.00,0.0126
452.00,0.0113
451.00,0.0106
450.00,0.0107
