Created as New Dataset,Sample 208 By Administrator Date Tuesday, September 09 2025
cm-1,A
4000.00,0.0012
3999.00,0.0012
3998.00,0.0012
3997.00,0.0013
3996.00,0.0013
3995.00,0.0012
3994.00,0.0012
3993.00,0.0012
3992.00,0.0012
3991.00,0.0012
3990.00,0.0012
3989.00,0.0012
3988.00,0.0012
3987.00,0.0012
3986.00,0.0011
3985.00,0.0011
3984.00,0.0011
3983.00,0.0011
3982.00,0.0010
3981.00,0.0010
3980.00,0.0010
3979.00,0.0010
3978.00,0.0010
3977.00,0.0010
3976.00,0.0010
3975.00,0.0010
3974.00,0.0010
3973.00,0.0010
3972.00,0.0010
3971.00,0.0010
3970.00,0.0010
3969.00,0.0010
3968.00,0.0010
3967.00,0.0010
3966.00,0.0010
3965.00,0.0010
3964.00,0.0010
3963.00,0.0009
3962.00,0.0009
3961.00,0.0009
3960.00,0.0009
3959.00,0.0009
3958.00,0.0009
3957.00,0.0010
3956.00,0.0010
3955.00,0.0010
3954.00,0.0010
3953.00,0.0010
3952.00,0.0010
3951.00,0.0010
3950.00,0.0010
3949.00,0.0010
3948.00,0.0010
3947.00,0.0010
3946.00,0.0010
3945.00,0.0010
3944.00,0.0010
3943.00,0.0010
3942.00,0.0010
3941.00,0.0010
3940.00,0.0010
3939.00,0.0010
3938.00,0.0010
3937.00,0.0010
3936.00,0.0010
3935.00,0.0011
3934.00,0.0011
3933.00,0.0011
3932.00,0.0011
3931.00,0.0011
3930.00,0.0011
3929.00,0.0011
3928.00,0.0011
3927.00,0.0011
3926.00,0.0010
3925.00,0.0010
3924.00,0.0010
3923.00,0.0010
3922.00,0.0010
3921.00,0.0010
3920.00,0.0010
3919.00,0.0011
3918.00,0.0011
3917.00,0.0011
3916.00,0.0012
3915.00,0.0011
3914.00,0.0011
3913.00,0.0011
3912.00,0.0011
3911.00,0.0010
3910.00,0.0010
3909.00,0.0010
3908.00,0.0010
3907.00,0.0010
3906.00,0.0009
3905.00,0.0009
3904.00,0.0010
3903.00,0.0010
3902.00,0.0011
3901.00,0.0011
3900.00,0.0011
3899.00,0.0011
3898.00,0.0011
3897.00,0.0011
3896.00,0.0010
3895.00,0.0010
3894.00,0.0010
3893.00,0.0010
3892.00,0.0010
3891.00,0.0010
3890.00,0.0010
3889.00,0.0011
3888.00,0.0011
3887.00,0.0011
3886.00,0.0011
3885.00,0.0011
3884.00,0.0011
3883.00,0.0010
3882.00,0.0010
3881.00,0.0010
3880.00,0.0009
3879.00,0.0009
3878.00,0.0009
3877.00,0.0009
3876.00,0.0009
3875.00,0.0010
3874.00,0.0010
3873.00,0.0010
3872.00,0.0010
3871.00,0.0011
3870.00,0.0010
3869.00,0.0010
3868.00,0.0010
3867.00,0.0010
3866.00,0.0010
3865.00,0.0010
3864.00,0.0009
3863.00,0.0009
3862.00,0.0009
3861.00,0.0009
3860.00,0.0010
3859.00,0.0010
3858.00,0.0010
3857.00,0.0011
3856.00,0.0012
3855.00,0.0012
3854.00,0.0012
3853.00,0.0012
3852.00,0.0011
3851.00,0.0011
3850.00,0.0011
3849.00,0.0010
3848.00,0.0010
3847.00,0.0010
3846.00,0.0010
3845.00,0.0009
3844.00,0.0009
3843.00,0.0009
3842.00,0.0008
3841.00,0.0008
3840.00,0.0009
3839.00,0.0009
3838.00,0.0009
3837.00,0.0009
3836.00,0.0009
3835.00,0.0009
3834.00,0.0009
3833.00,0.0009
3832.00,0.0009
3831.00,0.0009
3830.00,0.0009
3829.00,0.0009
3828.00,0.0009
3827.00,0.0009
3826.00,0.0009
3825.00,0.0009
3824.00,0.0010
3823.00,0.0010
3822.00,0.0009
3821.00,0.0009
3820.00,0.0008
3819.00,0.0008
3818.00,0.0009
3817.00,0.0010
3816.00,0.0010
3815.00,0.0010
3814.00,0.0010
3813.00,0.0011
3812.00,0.0011
3811.00,0.0011
3810.00,0.0011
3809.00,0.0011
3808.00,0.0011
3807.00,0.0011
3806.00,0.0011
3805.00,0.0011
3804.00,0.0010
3803.00,0.0010
3802.00,0.0010
3801.00,0.0009
3800.00,0.0009
3799.00,0.0009
3798.00,0.0009
3797.00,0.0009
3796.00,0.0009
3795.00,0.0009
3794.00,0.0010
3793.00,0.0010
3792.00,0.0011
3791.00,0.0011
3790.00,0.0011
3789.00,0.0011
3788.00,0.0011
3787.00,0.0010
3786.00,0.0010
3785.00,0.0010
3784.00,0.0010
3783.00,0.0010
3782.00,0.0010
3781.00,0.0010
3780.00,0.0010
3779.00,0.0010
3778.00,0.0010
3777.00,0.0010
3776.00,0.0010
3775.00,0.0010
3774.00,0.0010
3773.00,0.0010
3772.00,0.0010
3771.00,0.0010
3770.00,0.0010
3769.00,0.0010
3768.00,0.0011
3767.00,0.0011
3766.00,0.0011
3765.00,0.0010
3764.00,0.0010
3763.00,0.0010
3762.00,0.0010
3761.00,0.0010
3760.00,0.0010
3759.00,0.0010
3758.00,0.0010
3757.00,0.0010
3756.00,0.0010
3755.00,0.0010
3754.00,0.0010
3753.00,0.0010
3752.00,0.0010
3751.00,0.0010
3750.00,0.0010
3749.00,0.0010
3748.00,0.0011
3747.00,0.0011
3746.00,0.0011
3745.00,0.0011
3744.00,0.0010
3743.00,0.0010
3742.00,0.0010
3741.00,0.0010
3740.00,0.0009
3739.00,0.0008
3738.00,0.0008
3737.00,0.0008
3736.00,0.0008
3735.00,0.0007
3734.00,0.0007
3733.00,0.0007
3732.00,0.0008
3731.00,0.0008
3730.00,0.0009
3729.00,0.0009
3728.00,0.0010
3727.00,0.0010
3726.00,0.0010
3725.00,0.0010
3724.00,0.0010
3723.00,0.0010
3722.00,0.0009
3721.00,0.0009
3720.00,0.0008
3719.00,0.0008
3718.00,0.0008
3717.00,0.0008
3716.00,0.0008
3715.00,0.0008
3714.00,0.0009
3713.00,0.0010
3712.00,0.0010
3711.00,0.0009
3710.00,0.0008
3709.00,0.0007
3708.00,0.0006
3707.00,0.0006
3706.00,0.0006
3705.00,0.0007
3704.00,0.0007
3703.00,0.0007
3702.00,0.0008
3701.00,0.0008
3700.00,0.0009
3699.00,0.0009
3698.00,0.0009
3697.00,0.0009
3696.00,0.0010
3695.00,0.0010
3694.00,0.0010
3693.00,0.0010
3692.00,0.0010
3691.00,0.0010
3690.00,0.0011
3689.00,0.0012
3688.00,0.0014
3687.00,0.0016
3686.00,0.0018
3685.00,0.0019
3684.00,0.0020
3683.00,0.0021
3682.00,0.0022
3681.00,0.0024
3680.00,0.0025
3679.00,0.0027
3678.00,0.0029
3677.00,0.0031
3676.00,0.0033
3675.00,0.0034
3674.00,0.0035
3673.00,0.0035
3672.00,0.0036
3671.00,0.0037
3670.00,0.0038
3669.00,0.0039
3668.00,0.0040
3667.00,0.0040
3666.00,0.0041
3665.00,0.0042
3664.00,0.0042
3663.00,0.0043
3662.00,0.0043
3661.00,0.0043
3660.00,0.0043
3659.00,0.0044
3658.00,0.0044
3657.00,0.0044
3656.00,0.0044
3655.00,0.0044
3654.00,0.0044
3653.00,0.0043
3652.00,0.0042
3651.00,0.0042
3650.00,0.0041
3649.00,0.0041
3648.00,0.0040
3647.00,0.0039
3646.00,0.0038
3645.00,0.0037
3644.00,0.0037
3643.00,0.0035
3642.00,0.0034
3641.00,0.0033
3640.00,0.0033
3639.00,0.0033
3638.00,0.0033
3637.00,0.0032
3636.00,0.0030
3635.00,0.0027
3634.00,0.0024
3633.00,0.0022
3632.00,0.0020
3631.00,0.0019
3630.00,0.0019
3629.00,0.0018
3628.00,0.0018
3627.00,0.0018
3626.00,0.0017
3625.00,0.0017
3624.00,0.0016
3623.00,0.0015
3622.00,0.0015
3621.00,0.0015
3620.00,0.0014
3619.00,0.0014
3618.00,0.0013
3617.00,0.0013
3616.00,0.0013
3615.00,0.0013
3614.00,0.0013
3613.00,0.0013
3612.00,0.0013
3611.00,0.0013
3610.00,0.0013
3609.00,0.0013
3608.00,0.0013
3607.00,0.0013
3606.00,0.0013
3605.00,0.0012
3604.00,0.0012
3603.00,0.0012
3602.00,0.0012
3601.00,0.0012
3600.00,0.0012
3599.00,0.0013
3598.00,0.0013
3597.00,0.0013
3596.00,0.0014
3595.00,0.0014
3594.00,0.0014
3593.00,0.0014
3592.00,0.0014
3591.00,0.0014
3590.00,0.0014
3589.00,0.0014
3588.00,0.0015
3587.00,0.0015
3586.00,0.0015
3585.00,0.0014
3584.00,0.0014
3583.00,0.0014
3582.00,0.0015
3581.00,0.0015
3580.00,0.0015
3579.00,0.0015
3578.00,0.0015
3577.00,0.0015
3576.00,0.0015
3575.00,0.0015
3574.00,0.0015
3573.00,0.0015
3572.00,0.0016
3571.00,0.0016
3570.00,0.0017
3569.00,0.0017
3568.00,0.0018
3567.00,0.0018
3566.00,0.0019
3565.00,0.0019
3564.00,0.0019
3563.00,0.0019
3562.00,0.0019
3561.00,0.0019
3560.00,0.0019
3559.00,0.0020
3558.00,0.0020
3557.00,0.0020
3556.00,0.0021
3555.00,0.0021
3554.00,0.0021
3553.00,0.0021
3552.00,0.0021
3551.00,0.0021
3550.00,0.0021
3549.00,0.0022
3548.00,0.0022
3547.00,0.0023
3546.00,0.0023
3545.00,0.0023
3544.00,0.0024
3543.00,0.0024
3542.00,0.0024
3541.00,0.0024
3540.00,0.0024
3539.00,0.0025
3538.00,0.0025
3537.00,0.0024
3536.00,0.0024
3535.00,0.0024
3534.00,0.0024
3533.00,0.0024
3532.00,0.0025
3531.00,0.0025
3530.00,0.0026
3529.00,0.0026
3528.00,0.0026
3527.00,0.0027
3526.00,0.0027
3525.00,0.0027
3524.00,0.0027
3523.00,0.0027
3522.00,0.0027
3521.00,0.0027
3520.00,0.0028
3519.00,0.0028
3518.00,0.0028
3517.00,0.0029
3516.00,0.0029
3515.00,0.0029
3514.00,0.0029
3513.00,0.0029
3512.00,0.0030
3511.00,0.0030
3510.00,0.0030
3509.00,0.0030
3508.00,0.0030
3507.00,0.0031
3506.00,0.0031
3505.00,0.0031
3504.00,0.0031
3503.00,0.0032
3502.00,0.0032
3501.00,0.0033
3500.00,0.0033
3499.00,0.0033
3498.00,0.0034
3497.00,0.0034
3496.00,0.0034
3495.00,0.0034
3494.00,0.0034
3493.00,0.0034
3492.00,0.0035
3491.00,0.0035
3490.00,0.0035
3489.00,0.0036
3488.00,0.0036
3487.00,0.0036
3486.00,0.0036
3485.00,0.0036
3484.00,0.0037
3483.00,0.0037
3482.00,0.0037
3481.00,0.0037
3480.00,0.0038
3479.00,0.0038
3478.00,0.0039
3477.00,0.0039
3476.00,0.0039
3475.00,0.0040
3474.00,0.0040
3473.00,0.0040
3472.00,0.0040
3471.00,0.0040
3470.00,0.0040
3469.00,0.0040
3468.00,0.0041
3467.00,0.0041
3466.00,0.0042
3465.00,0.0042
3464.00,0.0042
3463.00,0.0042
3462.00,0.0043
3461.00,0.0043
3460.00,0.0043
3459.00,0.0043
3458.00,0.0043
3457.00,0.0043
3456.00,0.0044
3455.00,0.0044
3454.00,0.0044
3453.00,0.0045
3452.00,0.0045
3451.00,0.0045
3450.00,0.0046
3449.00,0.0046
3448.00,0.0046
3447.00,0.0046
3446.00,0.0046
3445.00,0.0047
3444.00,0.0047
3443.00,0.0047
3442.00,0.0047
3441.00,0.0047
3440.00,0.0046
3439.00,0.0047
3438.00,0.0047
3437.00,0.0048
3436.00,0.0048
3435.00,0.0049
3434.00,0.0049
3433.00,0.0049
3432.00,0.0049
3431.00,0.0049
3430.00,0.0049
3429.00,0.0049
3428.00,0.0049
3427.00,0.0049
3426.00,0.0049
3425.00,0.0050
3424.00,0.0050
3423.00,0.0051
3422.00,0.0051
3421.00,0.0051
3420.00,0.0051
3419.00,0.0051
3418.00,0.0051
3417.00,0.0051
3416.00,0.0051
3415.00,0.0051
3414.00,0.0052
3413.00,0.0052
3412.00,0.0052
3411.00,0.0052
3410.00,0.0052
3409.00,0.0053
3408.00,0.0053
3407.00,0.0053
3406.00,0.0054
3405.00,0.0054
3404.00,0.0054
3403.00,0.0054
3402.00,0.0054
3401.00,0.0054
3400.00,0.0054
3399.00,0.0054
3398.00,0.0054
3397.00,0.0054
3396.00,0.0054
3395.00,0.0055
3394.00,0.0055
3393.00,0.0055
3392.00,0.0055
3391.00,0.0055
3390.00,0.0055
3389.00,0.0054
3388.00,0.0054
3387.00,0.0054
3386.00,0.0054
3385.00,0.0055
3384.00,0.0055
3383.00,0.0055
3382.00,0.0055
3381.00,0.0055
3380.00,0.0055
3379.00,0.0054
3378.00,0.0054
3377.00,0.0054
3376.00,0.0054
3375.00,0.0054
3374.00,0.0054
3373.00,0.0054
3372.00,0.0054
3371.00,0.0054
3370.00,0.0054
3369.00,0.0054
3368.00,0.0054
3367.00,0.0055
3366.00,0.0055
3365.00,0.0055
3364.00,0.0055
3363.00,0.0055
3362.00,0.0055
3361.00,0.0054
3360.00,0.0054
3359.00,0.0054
3358.00,0.0055
3357.00,0.0055
3356.00,0.0056
3355.00,0.0056
3354.00,0.0056
3353.00,0.0055
3352.00,0.0055
3351.00,0.0055
3350.00,0.0055
3349.00,0.0055
3348.00,0.0055
3347.00,0.0055
3346.00,0.0055
3345.00,0.0055
3344.00,0.0055
3343.00,0.0055
3342.00,0.0055
3341.00,0.0055
3340.00,0.0055
3339.00,0.0054
3338.00,0.0054
3337.00,0.0054
3336.00,0.0054
3335.00,0.0054
3334.00,0.0054
3333.00,0.0053
3332.00,0.0053
3331.00,0.0053
3330.00,0.0053
3329.00,0.0053
3328.00,0.0052
3327.00,0.0052
3326.00,0.0052
3325.00,0.0052
3324.00,0.0051
3323.00,0.0051
3322.00,0.0051
3321.00,0.0052
3320.00,0.0052
3319.00,0.0052
3318.00,0.0052
3317.00,0.0052
3316.00,0.0052
3315.00,0.0052
3314.00,0.0052
3313.00,0.0051
3312.00,0.0051
3311.00,0.0051
3310.00,0.0051
3309.00,0.0051
3308.00,0.0051
3307.00,0.0051
3306.00,0.0051
3305.00,0.0051
3304.00,0.0051
3303.00,0.0051
3302.00,0.0051
3301.00,0.0050
3300.00,0.0050
3299.00,0.0049
3298.00,0.0049
3297.00,0.0049
3296.00,0.0049
3295.00,0.0049
3294.00,0.0049
3293.00,0.0049
3292.00,0.0049
3291.00,0.0049
3290.00,0.0049
3289.00,0.0049
3288.00,0.0049
3287.00,0.0048
3286.00,0.0048
3285.00,0.0048
3284.00,0.0048
3283.00,0.0048
3282.00,0.0048
3281.00,0.0048
3280.00,0.0048
3279.00,0.0047
3278.00,0.0047
3277.00,0.0047
3276.00,0.0047
3275.00,0.0047
3274.00,0.0047
3273.00,0.0047
3272.00,0.0047
3271.00,0.0046
3270.00,0.0046
3269.00,0.0046
3268.00,0.0046
3267.00,0.0046
3266.00,0.0046
3265.00,0.0046
3264.00,0.0046
3263.00,0.0046
3262.00,0.0046
3261.00,0.0045
3260.00,0.0045
3259.00,0.0045
3258.00,0.0045
3257.00,0.0045
3256.00,0.0045
3255.00,0.0045
3254.00,0.0045
3253.00,0.0045
3252.00,0.0045
3251.00,0.0046
3250.00,0.0045
3249.00,0.0045
3248.00,0.0045
3247.00,0.0044
3246.00,0.0044
3245.00,0.0044
3244.00,0.0045
3243.00,0.0045
3242.00,0.0045
3241.00,0.0045
3240.00,0.0045
3239.00,0.0045
3238.00,0.0045
3237.00,0.0045
3236.00,0.0045
3235.00,0.0045
3234.00,0.0045
3233.00,0.0046
3232.00,0.0046
3231.00,0.0046
3230.00,0.0046
3229.00,0.0046
3228.00,0.0046
3227.00,0.0046
3226.00,0.0046
3225.00,0.0046
3224.00,0.0047
3223.00,0.0047
3222.00,0.0047
3221.00,0.0047
3220.00,0.0047
3219.00,0.0047
3218.00,0.0047
3217.00,0.0048
3216.00,0.0048
3215.00,0.0048
3214.00,0.0048
3213.00,0.0048
3212.00,0.0048
3211.00,0.0048
3210.00,0.0048
3209.00,0.0049
3208.00,0.0049
3207.00,0.0049
3206.00,0.0049
3205.00,0.0049
3204.00,0.0050
3203.00,0.0050
3202.00,0.0050
3201.00,0.0050
3200.00,0.0050
3199.00,0.0050
3198.00,0.0050
3197.00,0.0050
3196.00,0.0050
3195.00,0.0049
3194.00,0.0049
3193.00,0.0049
3192.00,0.0049
3191.00,0.0049
3190.00,0.0049
3189.00,0.0049
3188.00,0.0049
3187.00,0.0049
3186.00,0.0049
3185.00,0.0049
3184.00,0.0048
3183.00,0.0048
3182.00,0.0048
3181.00,0.0047
3180.00,0.0047
3179.00,0.0046
3178.00,0.0046
3177.00,0.0046
3176.00,0.0045
3175.00,0.0045
3174.00,0.0045
3173.00,0.0044
3172.00,0.0044
3171.00,0.0044
3170.00,0.0044
3169.00,0.0043
3168.00,0.0043
3167.00,0.0042
3166.00,0.0042
3165.00,0.0042
3164.00,0.0042
3163.00,0.0042
3162.00,0.0042
3161.00,0.0042
3160.00,0.0043
3159.00,0.0042
3158.00,0.0042
3157.00,0.0042
3156.00,0.0042
3155.00,0.0041
3154.00,0.0041
3153.00,0.0041
3152.00,0.0041
3151.00,0.0041
3150.00,0.0041
3149.00,0.0041
3148.00,0.0041
3147.00,0.0041
3146.00,0.0041
3145.00,0.0041
3144.00,0.0041
3143.00,0.0041
3142.00,0.0040
3141.00,0.0040
3140.00,0.0039
3139.00,0.0039
3138.00,0.0038
3137.00,0.0038
3136.00,0.0038
3135.00,0.0038
3134.00,0.0038
3133.00,0.0038
3132.00,0.0037
3131.00,0.0037
3130.00,0.0037
3129.00,0.0036
3128.00,0.0036
3127.00,0.0036
3126.00,0.0036
3125.00,0.0036
3124.00,0.0036
3123.00,0.0036
3122.00,0.0035
3121.00,0.0034
3120.00,0.0034
3119.00,0.0034
3118.00,0.0034
3117.00,0.0034
3116.00,0.0034
3115.00,0.0034
3114.00,0.0033
3113.00,0.0033
3112.00,0.0033
3111.00,0.0033
3110.00,0.0032
3109.00,0.0032
3108.00,0.0031
3107.00,0.0031
3106.00,0.0031
3105.00,0.0032
3104.00,0.0032
3103.00,0.0032
3102.00,0.0032
3101.00,0.0032
3100.00,0.0032
3099.00,0.0032
3098.00,0.0032
3097.00,0.0032
3096.00,0.0032
3095.00,0.0032
3094.00,0.0032
3093.00,0.0032
3092.00,0.0032
3091.00,0.0031
3090.00,0.0031
3089.00,0.0031
3088.00,0.0031
3087.00,0.0031
3086.00,0.0031
3085.00,0.0031
3084.00,0.0031
3083.00,0.0031
3082.00,0.0030
3081.00,0.0030
3080.00,0.0029
3079.00,0.0029
3078.00,0.0030
3077.00,0.0030
3076.00,0.0030
3075.00,0.0031
3074.00,0.0031
3073.00,0.0031
3072.00,0.0031
3071.00,0.0031
3070.00,0.0031
3069.00,0.0032
3068.00,0.0032
3067.00,0.0032
3066.00,0.0032
3065.00,0.0032
3064.00,0.0032
3063.00,0.0032
3062.00,0.0033
3061.00,0.0033
3060.00,0.0033
3059.00,0.0033
3058.00,0.0033
3057.00,0.0033
3056.00,0.0034
3055.00,0.0034
3054.00,0.0034
3053.00,0.0034
3052.00,0.0034
3051.00,0.0034
3050.00,0.0034
3049.00,0.0035
3048.00,0.0035
3047.00,0.0035
3046.00,0.0036
3045.00,0.0036
3044.00,0.0036
3043.00,0.0036
3042.00,0.0036
3041.00,0.0037
3040.00,0.0037
3039.00,0.0037
3038.00,0.0038
3037.00,0.0038
3036.00,0.0039
3035.00,0.0039
3034.00,0.0040
3033.00,0.0040
3032.00,0.0041
3031.00,0.0042
3030.00,0.0042
3029.00,0.0043
3028.00,0.0044
3027.00,0.0044
3026.00,0.0046
3025.00,0.0047
3024.00,0.0048
3023.00,0.0050
3022.00,0.0052
3021.00,0.0054
3020.00,0.0057
3019.00,0.0060
3018.00,0.0063
3017.00,0.0067
3016.00,0.0071
3015.00,0.0076
3014.00,0.0081
3013.00,0.0087
3012.00,0.0093
3011.00,0.0100
3010.00,0.0109
3009.00,0.0118
3008.00,0.0129
3007.00,0.0140
3006.00,0.0151
3005.00,0.0163
3004.00,0.0175
3003.00,0.0188
3002.00,0.0200
3001.00,0.0212
3000.00,0.0223
2999.00,0.0234
2998.00,0.0245
2997.00,0.0255
2996.00,0.0265
2995.00,0.0274
2994.00,0.0284
2993.00,0.0293
2992.00,0.0303
2991.00,0.0313
2990.00,0.0324
2989.00,0.0336
2988.00,0.0351
2987.00,0.0370
2986.00,0.0396
2985.00,0.0432
2984.00,0.0475
2983.00,0.0518
2982.00,0.0552
2981.00,0.0572
2980.00,0.0582
2979.00,0.0587
2978.00,0.0593
2977.00,0.0606
2976.00,0.0627
2975.00,0.0658
2974.00,0.0698
2973.00,0.0747
2972.00,0.0798
2971.00,0.0850
2970.00,0.0901
2969.00,0.0954
2968.00,0.1012
2967.00,0.1077
2966.00,0.1145
2965.00,0.1214
2964.00,0.1280
2963.00,0.1339
2962.00,0.1392
2961.00,0.1438
2960.00,0.1478
2959.00,0.1517
2958.00,0.1560
2957.00,0.1611
2956.00,0.1673
2955.00,0.1749
2954.00,0.1835
2953.00,0.1926
2952.00,0.2014
2951.00,0.2086
2950.00,0.2130
2949.00,0.2133
2948.00,0.2090
2947.00,0.2000
2946.00,0.1875
2945.00,0.1730
2944.00,0.1584
2943.00,0.1452
2942.00,0.1345
2941.00,0.1266
2940.00,0.1216
2939.00,0.1192
2938.00,0.1191
2937.00,0.1211
2936.00,0.1250
2935.00,0.1307
2934.00,0.1381
2933.00,0.1470
2932.00,0.1570
2931.00,0.1680
2930.00,0.1797
2929.00,0.1918
2928.00,0.2039
2927.00,0.2157
2926.00,0.2271
2925.00,0.2381
2924.00,0.2488
2923.00,0.2594
2922.00,0.2701
2921.00,0.2806
2920.00,0.2903
2919.00,0.2983
2918.00,0.3035
2917.00,0.3048
2916.00,0.3018
2915.00,0.2948
2914.00,0.2847
2913.00,0.2727
2912.00,0.2601
2911.00,0.2478
2910.00,0.2363
2909.00,0.2256
2908.00,0.2157
2907.00,0.2064
2906.00,0.1975
2905.00,0.1889
2904.00,0.1806
2903.00,0.1725
2902.00,0.1648
2901.00,0.1574
2900.00,0.1504
2899.00,0.1439
2898.00,0.1380
2897.00,0.1327
2896.00,0.1282
2895.00,0.1245
2894.00,0.1215
2893.00,0.1194
2892.00,0.1179
2891.00,0.1172
2890.00,0.1169
2889.00,0.1171
2888.00,0.1176
2887.00,0.1185
2886.00,0.1198
2885.00,0.1216
2884.00,0.1238
2883.00,0.1265
2882.00,0.1295
2881.00,0.1328
2880.00,0.1361
2879.00,0.1391
2878.00,0.1412
2877.00,0.1422
2876.00,0.1420
2875.00,0.1411
2874.00,0.1400
2873.00,0.1394
2872.00,0.1396
2871.00,0.1407
2870.00,0.1427
2869.00,0.1448
2868.00,0.1463
2867.00,0.1463
2866.00,0.1437
2865.00,0.1380
2864.00,0.1295
2863.00,0.1191
2862.00,0.1080
2861.00,0.0974
2860.00,0.0881
2859.00,0.0806
2858.00,0.0747
2857.00,0.0704
2856.00,0.0673
2855.00,0.0653
2854.00,0.0641
2853.00,0.0636
2852.00,0.0639
2851.00,0.0648
2850.00,0.0663
2849.00,0.0686
2848.00,0.0716
2847.00,0.0755
2846.00,0.0803
2845.00,0.0860
2844.00,0.0926
2843.00,0.0998
2842.00,0.1073
2841.00,0.1145
2840.00,0.1207
2839.00,0.1250
2838.00,0.1264
2837.00,0.1244
2836.00,0.1188
2835.00,0.1101
2834.00,0.0994
2833.00,0.0881
2832.00,0.0770
2831.00,0.0671
2830.00,0.0587
2829.00,0.0518
2828.00,0.0462
2827.00,0.0417
2826.00,0.0381
2825.00,0.0352
2824.00,0.0328
2823.00,0.0308
2822.00,0.0290
2821.00,0.0276
2820.00,0.0263
2819.00,0.0251
2818.00,0.0241
2817.00,0.0233
2816.00,0.0225
2815.00,0.0218
2814.00,0.0211
2813.00,0.0205
2812.00,0.0200
2811.00,0.0194
2810.00,0.0188
2809.00,0.0182
2808.00,0.0175
2807.00,0.0168
2806.00,0.0161
2805.00,0.0155
2804.00,0.0148
2803.00,0.0141
2802.00,0.0135
2801.00,0.0130
2800.00,0.0126
2799.00,0.0122
2798.00,0.0120
2797.00,0.0117
2796.00,0.0115
2795.00,0.0112
2794.00,0.0110
2793.00,0.0107
2792.00,0.0104
2791.00,0.0101
2790.00,0.0098
2789.00,0.0094
2788.00,0.0092
2787.00,0.0089
2786.00,0.0086
2785.00,0.0084
2784.00,0.0082
2783.00,0.0080
2782.00,0.0078
2781.00,0.0076
2780.00,0.0075
2779.00,0.0073
2778.00,0.0072
2777.00,0.0070
2776.00,0.0069
2775.00,0.0067
2774.00,0.0066
2773.00,0.0066
2772.00,0.0065
2771.00,0.0065
2770.00,0.0065
2769.00,0.0064
2768.00,0.0064
2767.00,0.0064
2766.00,0.0063
2765.00,0.0063
2764.00,0.0062
2763.00,0.0062
2762.00,0.0061
2761.00,0.0061
2760.00,0.0060
2759.00,0.0060
2758.00,0.0059
2757.00,0.0058
2756.00,0.0058
2755.00,0.0058
2754.00,0.0058
2753.00,0.0058
2752.00,0.0057
2751.00,0.0057
2750.00,0.0057
2749.00,0.0057
2748.00,0.0057
2747.00,0.0058
2746.00,0.0058
2745.00,0.0059
2744.00,0.0060
2743.00,0.0061
2742.00,0.0062
2741.00,0.0063
2740.00,0.0065
2739.00,0.0066
2738.00,0.0068
2737.00,0.0070
2736.00,0.0071
2735.00,0.0073
2734.00,0.0075
2733.00,0.0077
2732.00,0.0079
2731.00,0.0081
2730.00,0.0084
2729.00,0.0086
2728.00,0.0089
2727.00,0.0092
2726.00,0.0095
2725.00,0.0097
2724.00,0.0099
2723.00,0.0099
2722.00,0.0098
2721.00,0.0096
2720.00,0.0093
2719.00,0.0090
2718.00,0.0086
2717.00,0.0082
2716.00,0.0079
2715.00,0.0076
2714.00,0.0073
2713.00,0.0070
2712.00,0.0067
2711.00,0.0065
2710.00,0.0063
2709.00,0.0061
2708.00,0.0059
2707.00,0.0058
2706.00,0.0056
2705.00,0.0055
2704.00,0.0054
2703.00,0.0053
2702.00,0.0052
2701.00,0.0051
2700.00,0.0050
2699.00,0.0049
2698.00,0.0049
2697.00,0.0049
2696.00,0.0049
2695.00,0.0049
2694.00,0.0049
2693.00,0.0049
2692.00,0.0049
2691.00,0.0049
2690.00,0.0049
2689.00,0.0049
2688.00,0.0049
2687.00,0.0049
2686.00,0.0050
2685.00,0.0050
2684.00,0.0050
2683.00,0.0050
2682.00,0.0050
2681.00,0.0050
2680.00,0.0051
2679.00,0.0051
2678.00,0.0052
2677.00,0.0052
2676.00,0.0052
2675.00,0.0052
2674.00,0.0052
2673.00,0.0052
2672.00,0.0052
2671.00,0.0052
2670.00,0.0051
2669.00,0.0051
2668.00,0.0051
2667.00,0.0052
2666.00,0.0053
2665.00,0.0053
2664.00,0.0054
2663.00,0.0055
2662.00,0.0055
2661.00,0.0055
2660.00,0.0056
2659.00,0.0055
2658.00,0.0055
2657.00,0.0055
2656.00,0.0055
2655.00,0.0054
2654.00,0.0054
2653.00,0.0053
2652.00,0.0052
2651.00,0.0051
2650.00,0.0051
2649.00,0.0051
2648.00,0.0050
2647.00,0.0050
2646.00,0.0049
2645.00,0.0048
2644.00,0.0048
2643.00,0.0047
2642.00,0.0047
2641.00,0.0046
2640.00,0.0045
2639.00,0.0044
2638.00,0.0044
2637.00,0.0043
2636.00,0.0043
2635.00,0.0043
2634.00,0.0043
2633.00,0.0043
2632.00,0.0043
2631.00,0.0044
2630.00,0.0044
2629.00,0.0044
2628.00,0.0044
2627.00,0.0045
2626.00,0.0045
2625.00,0.0045
2624.00,0.0045
2623.00,0.0045
2622.00,0.0045
2621.00,0.0045
2620.00,0.0045
2619.00,0.0045
2618.00,0.0045
2617.00,0.0045
2616.00,0.0045
2615.00,0.0045
2614.00,0.0045
2613.00,0.0044
2612.00,0.0044
2611.00,0.0043
2610.00,0.0043
2609.00,0.0042
2608.00,0.0041
2607.00,0.0040
2606.00,0.0039
2605.00,0.0038
2604.00,0.0037
2603.00,0.0037
2602.00,0.0037
2601.00,0.0037
2600.00,0.0037
2599.00,0.0037
2598.00,0.0037
2597.00,0.0037
2596.00,0.0036
2595.00,0.0036
2594.00,0.0037
2593.00,0.0037
2592.00,0.0038
2591.00,0.0039
2590.00,0.0040
2589.00,0.0041
2588.00,0.0041
2587.00,0.0042
2586.00,0.0043
2585.00,0.0044
2584.00,0.0045
2583.00,0.0046
2582.00,0.0046
2581.00,0.0046
2580.00,0.0045
2579.00,0.0044
2578.00,0.0043
2577.00,0.0042
2576.00,0.0041
2575.00,0.0040
2574.00,0.0038
2573.00,0.0036
2572.00,0.0035
2571.00,0.0033
2570.00,0.0032
2569.00,0.0031
2568.00,0.0030
2567.00,0.0030
2566.00,0.0029
2565.00,0.0029
2564.00,0.0028
2563.00,0.0028
2562.00,0.0027
2561.00,0.0027
2560.00,0.0026
2559.00,0.0026
2558.00,0.0026
2557.00,0.0026
2556.00,0.0026
2555.00,0.0026
2554.00,0.0025
2553.00,0.0025
2552.00,0.0024
2551.00,0.0023
2550.00,0.0022
2549.00,0.0022
2548.00,0.0021
2547.00,0.0021
2546.00,0.0021
2545.00,0.0021
2544.00,0.0022
2543.00,0.0022
2542.00,0.0021
2541.00,0.0021
2540.00,0.0021
2539.00,0.0021
2538.00,0.0021
2537.00,0.0021
2536.00,0.0021
2535.00,0.0020
2534.00,0.0020
2533.00,0.0019
2532.00,0.0018
2531.00,0.0018
2530.00,0.0018
2529.00,0.0018
2528.00,0.0018
2527.00,0.0018
2526.00,0.0018
2525.00,0.0017
2524.00,0.0016
2523.00,0.0016
2522.00,0.0016
2521.00,0.0016
2520.00,0.0016
2519.00,0.0016
2518.00,0.0016
2517.00,0.0015
2516.00,0.0015
2515.00,0.0014
2514.00,0.0014
2513.00,0.0013
2512.00,0.0013
2511.00,0.0013
2510.00,0.0013
2509.00,0.0013
2508.00,0.0013
2507.00,0.0013
2506.00,0.0014
2505.00,0.0013
2504.00,0.0013
2503.00,0.0013
2502.00,0.0012
2501.00,0.0012
2500.00,0.0013
2499.00,0.0014
2498.00,0.0014
2497.00,0.0014
2496.00,0.0014
2495.00,0.0013
2494.00,0.0013
2493.00,0.0014
2492.00,0.0014
2491.00,0.0015
2490.00,0.0015
2489.00,0.0015
2488.00,0.0015
2487.00,0.0015
2486.00,0.0015
2485.00,0.0014
2484.00,0.0014
2483.00,0.0013
2482.00,0.0013
2481.00,0.0013
2480.00,0.0013
2479.00,0.0012
2478.00,0.0012
2477.00,0.0012
2476.00,0.0013
2475.00,0.0013
2474.00,0.0013
2473.00,0.0012
2472.00,0.0012
2471.00,0.0011
2470.00,0.0011
2469.00,0.0011
2468.00,0.0011
2467.00,0.0011
2466.00,0.0011
2465.00,0.0011
2464.00,0.0011
2463.00,0.0012
2462.00,0.0012
2461.00,0.0013
2460.00,0.0013
2459.00,0.0013
2458.00,0.0013
2457.00,0.0012
2456.00,0.0012
2455.00,0.0013
2454.00,0.0013
2453.00,0.0013
2452.00,0.0013
2451.00,0.0013
2450.00,0.0013
2449.00,0.0014
2448.00,0.0014
2447.00,0.0015
2446.00,0.0015
2445.00,0.0015
2444.00,0.0014
2443.00,0.0013
2442.00,0.0013
2441.00,0.0012
2440.00,0.0012
2439.00,0.0012
2438.00,0.0013
2437.00,0.0013
2436.00,0.0013
2435.00,0.0013
2434.00,0.0013
2433.00,0.0014
2432.00,0.0014
2431.00,0.0014
2430.00,0.0014
2429.00,0.0015
2428.00,0.0016
2427.00,0.0016
2426.00,0.0016
2425.00,0.0016
2424.00,0.0015
2423.00,0.0014
2422.00,0.0013
2421.00,0.0013
2420.00,0.0012
2419.00,0.0011
2418.00,0.0011
2417.00,0.0011
2416.00,0.0012
2415.00,0.0012
2414.00,0.0012
2413.00,0.0013
2412.00,0.0013
2411.00,0.0012
2410.00,0.0012
2409.00,0.0011
2408.00,0.0011
2407.00,0.0010
2406.00,0.0010
2405.00,0.0010
2404.00,0.0010
2403.00,0.0010
2402.00,0.0010
2401.00,0.0010
2400.00,0.0009
2399.00,0.0009
2398.00,0.0010
2397.00,0.0010
2396.00,0.0010
2395.00,0.0010
2394.00,0.0010
2393.00,0.0011
2392.00,0.0011
2391.00,0.0011
2390.00,0.0010
2389.00,0.0010
2388.00,0.0010
2387.00,0.0011
2386.00,0.0011
2385.00,0.0010
2384.00,0.0010
2383.00,0.0008
2382.00,0.0007
2381.00,0.0007
2380.00,0.0006
2379.00,0.0006
2378.00,0.0006
2377.00,0.0006
2376.00,0.0006
2375.00,0.0006
2374.00,0.0007
2373.00,0.0007
2372.00,0.0007
2371.00,0.0007
2370.00,0.0007
2369.00,0.0006
2368.00,0.0007
2367.00,0.0007
2366.00,0.0007
2365.00,0.0007
2364.00,0.0006
2363.00,0.0006
2362.00,0.0006
2361.00,0.0007
2360.00,0.0007
2359.00,0.0008
2358.00,0.0008
2357.00,0.0008
2356.00,0.0008
2355.00,0.0008
2354.00,0.0008
2353.00,0.0008
2352.00,0.0008
2351.00,0.0008
2350.00,0.0008
2349.00,0.0008
2348.00,0.0008
2347.00,0.0009
2346.00,0.0008
2345.00,0.0008
2344.00,0.0008
2343.00,0.0009
2342.00,0.0011
2341.00,0.0012
2340.00,0.0012
2339.00,0.0011
2338.00,0.0011
2337.00,0.0011
2336.00,0.0012
2335.00,0.0012
2334.00,0.0013
2333.00,0.0012
2332.00,0.0012
2331.00,0.0011
2330.00,0.0011
2329.00,0.0012
2328.00,0.0013
2327.00,0.0017
2326.00,0.0021
2325.00,0.0025
2324.00,0.0027
2323.00,0.0026
2322.00,0.0024
2321.00,0.0022
2320.00,0.0020
2319.00,0.0019
2318.00,0.0018
2317.00,0.0017
2316.00,0.0016
2315.00,0.0015
2314.00,0.0014
2313.00,0.0014
2312.00,0.0013
2311.00,0.0013
2310.00,0.0011
2309.00,0.0011
2308.00,0.0011
2307.00,0.0012
2306.00,0.0013
2305.00,0.0014
2304.00,0.0014
2303.00,0.0014
2302.00,0.0014
2301.00,0.0014
2300.00,0.0014
2299.00,0.0014
2298.00,0.0015
2297.00,0.0015
2296.00,0.0016
2295.00,0.0017
2294.00,0.0018
2293.00,0.0018
2292.00,0.0019
2291.00,0.0019
2290.00,0.0020
2289.00,0.0020
2288.00,0.0021
2287.00,0.0021
2286.00,0.0021
2285.00,0.0021
2284.00,0.0020
2283.00,0.0019
2282.00,0.0017
2281.00,0.0016
2280.00,0.0016
2279.00,0.0015
2278.00,0.0015
2277.00,0.0015
2276.00,0.0015
2275.00,0.0015
2274.00,0.0015
2273.00,0.0015
2272.00,0.0014
2271.00,0.0013
2270.00,0.0012
2269.00,0.0013
2268.00,0.0013
2267.00,0.0013
2266.00,0.0013
2265.00,0.0013
2264.00,0.0012
2263.00,0.0012
2262.00,0.0011
2261.00,0.0011
2260.00,0.0011
2259.00,0.0013
2258.00,0.0014
2257.00,0.0015
2256.00,0.0015
2255.00,0.0014
2254.00,0.0013
2253.00,0.0012
2252.00,0.0012
2251.00,0.0013
2250.00,0.0014
2249.00,0.0014
2248.00,0.0015
2247.00,0.0014
2246.00,0.0013
2245.00,0.0012
2244.00,0.0011
2243.00,0.0010
2242.00,0.0010
2241.00,0.0010
2240.00,0.0012
2239.00,0.0013
2238.00,0.0014
2237.00,0.0014
2236.00,0.0013
2235.00,0.0012
2234.00,0.0012
2233.00,0.0011
2232.00,0.0011
2231.00,0.0010
2230.00,0.0008
2229.00,0.0008
2228.00,0.0008
2227.00,0.0009
2226.00,0.0009
2225.00,0.0008
2224.00,0.0008
2223.00,0.0007
2222.00,0.0007
2221.00,0.0007
2220.00,0.0008
2219.00,0.0010
2218.00,0.0011
2217.00,0.0012
2216.00,0.0012
2215.00,0.0010
2214.00,0.0009
2213.00,0.0007
2212.00,0.0006
2211.00,0.0006
2210.00,0.0008
2209.00,0.0009
2208.00,0.0010
2207.00,0.0011
2206.00,0.0011
2205.00,0.0010
2204.00,0.0010
2203.00,0.0010
2202.00,0.0011
2201.00,0.0012
2200.00,0.0011
2199.00,0.0009
2198.00,0.0008
2197.00,0.0008
2196.00,0.0009
2195.00,0.0012
2194.00,0.0014
2193.00,0.0017
2192.00,0.0019
2191.00,0.0019
2190.00,0.0017
2189.00,0.0014
2188.00,0.0012
2187.00,0.0012
2186.00,0.0013
2185.00,0.0013
2184.00,0.0012
2183.00,0.0008
2182.00,0.0005
2181.00,0.0004
2180.00,0.0004
2179.00,0.0005
2178.00,0.0006
2177.00,0.0007
2176.00,0.0007
2175.00,0.0007
2174.00,0.0006
2173.00,0.0005
2172.00,0.0005
2171.00,0.0006
2170.00,0.0009
2169.00,0.0013
2168.00,0.0014
2167.00,0.0014
2166.00,0.0013
2165.00,0.0013
2164.00,0.0015
2163.00,0.0018
2162.00,0.0017
2161.00,0.0011
2160.00,-0.0002
2159.00,-0.0018
2158.00,-0.0031
2157.00,-0.0036
2156.00,-0.0034
2155.00,-0.0030
2154.00,-0.0027
2153.00,-0.0024
2152.00,-0.0021
2151.00,-0.0016
2150.00,-0.0011
2149.00,-0.0010
2148.00,-0.0011
2147.00,-0.0014
2146.00,-0.0017
2145.00,-0.0018
2144.00,-0.0016
2143.00,-0.0014
2142.00,-0.0013
2141.00,-0.0012
2140.00,-0.0011
2139.00,-0.0012
2138.00,-0.0012
2137.00,-0.0013
2136.00,-0.0015
2135.00,-0.0017
2134.00,-0.0019
2133.00,-0.0020
2132.00,-0.0018
2131.00,-0.0015
2130.00,-0.0012
2129.00,-0.0010
2128.00,-0.0008
2127.00,-0.0006
2126.00,-0.0005
2125.00,-0.0004
2124.00,-0.0004
2123.00,-0.0003
2122.00,-0.0002
2121.00,-0.0001
2120.00,-0.0000
2119.00,0.0001
2118.00,0.0002
2117.00,0.0003
2116.00,0.0003
2115.00,0.0003
2114.00,0.0003
2113.00,0.0003
2112.00,0.0003
2111.00,0.0004
2110.00,0.0005
2109.00,0.0006
2108.00,0.0008
2107.00,0.0009
2106.00,0.0008
2105.00,0.0007
2104.00,0.0006
2103.00,0.0005
2102.00,0.0004
2101.00,0.0005
2100.00,0.0005
2099.00,0.0006
2098.00,0.0005
2097.00,0.0002
2096.00,-0.0001
2095.00,-0.0003
2094.00,-0.0004
2093.00,-0.0003
2092.00,-0.0001
2091.00,0.0000
2090.00,0.0002
2089.00,0.0004
2088.00,0.0006
2087.00,0.0006
2086.00,0.0006
2085.00,0.0006
2084.00,0.0005
2083.00,0.0004
2082.00,0.0004
2081.00,0.0004
2080.00,0.0004
2079.00,0.0005
2078.00,0.0005
2077.00,0.0004
2076.00,0.0003
2075.00,0.0002
2074.00,0.0002
2073.00,0.0002
2072.00,0.0003
2071.00,0.0003
2070.00,0.0002
2069.00,0.0003
2068.00,0.0003
2067.00,0.0003
2066.00,0.0002
2065.00,0.0001
2064.00,0.0000
2063.00,-0.0000
2062.00,-0.0000
2061.00,0.0000
2060.00,0.0001
2059.00,0.0003
2058.00,0.0004
2057.00,0.0006
2056.00,0.0006
2055.00,0.0007
2054.00,0.0008
2053.00,0.0011
2052.00,0.0014
2051.00,0.0016
2050.00,0.0013
2049.00,0.0008
2048.00,0.0002
2047.00,0.0000
2046.00,0.0002
2045.00,0.0004
2044.00,0.0004
2043.00,0.0003
2042.00,0.0001
2041.00,0.0001
2040.00,0.0001
2039.00,0.0003
2038.00,0.0005
2037.00,0.0007
2036.00,0.0006
2035.00,0.0002
2034.00,-0.0003
2033.00,-0.0006
2032.00,-0.0007
2031.00,-0.0006
2030.00,-0.0005
2029.00,-0.0004
2028.00,-0.0002
2027.00,0.0000
2026.00,0.0001
2025.00,0.0001
2024.00,-0.0000
2023.00,-0.0003
2022.00,-0.0006
2021.00,-0.0008
2020.00,-0.0010
2019.00,-0.0011
2018.00,-0.0012
2017.00,-0.0012
2016.00,-0.0011
2015.00,-0.0010
2014.00,-0.0008
2013.00,-0.0005
2012.00,-0.0003
2011.00,-0.0002
2010.00,-0.0003
2009.00,-0.0004
2008.00,-0.0006
2007.00,-0.0010
2006.00,-0.0014
2005.00,-0.0016
2004.00,-0.0015
2003.00,-0.0013
2002.00,-0.0012
2001.00,-0.0011
2000.00,-0.0010
1999.00,-0.0008
1998.00,-0.0006
1997.00,-0.0005
1996.00,-0.0005
1995.00,-0.0008
1994.00,-0.0011
1993.00,-0.0011
1992.00,-0.0009
1991.00,-0.0005
1990.00,-0.0002
1989.00,0.0001
1988.00,0.0004
1987.00,0.0006
1986.00,0.0006
1985.00,0.0007
1984.00,0.0007
1983.00,0.0008
1982.00,0.0009
1981.00,0.0011
1980.00,0.0012
1979.00,0.0011
1978.00,0.0005
1977.00,-0.0002
1976.00,-0.0008
1975.00,-0.0010
1974.00,-0.0009
1973.00,-0.0006
1972.00,-0.0006
1971.00,-0.0009
1970.00,-0.0012
1969.00,-0.0014
1968.00,-0.0015
1967.00,-0.0014
1966.00,-0.0013
1965.00,-0.0011
1964.00,-0.0011
1963.00,-0.0013
1962.00,-0.0015
1961.00,-0.0017
1960.00,-0.0017
1959.00,-0.0017
1958.00,-0.0017
1957.00,-0.0016
1956.00,-0.0015
1955.00,-0.0014
1954.00,-0.0015
1953.00,-0.0016
1952.00,-0.0017
1951.00,-0.0017
1950.00,-0.0018
1949.00,-0.0018
1948.00,-0.0018
1947.00,-0.0018
1946.00,-0.0017
1945.00,-0.0016
1944.00,-0.0016
1943.00,-0.0016
1942.00,-0.0016
1941.00,-0.0016
1940.00,-0.0016
1939.00,-0.0015
1938.00,-0.0015
1937.00,-0.0013
1936.00,-0.0011
1935.00,-0.0010
1934.00,-0.0010
1933.00,-0.0010
1932.00,-0.0010
1931.00,-0.0010
1930.00,-0.0009
1929.00,-0.0008
1928.00,-0.0008
1927.00,-0.0009
1926.00,-0.0010
1925.00,-0.0010
1924.00,-0.0008
1923.00,-0.0006
1922.00,-0.0004
1921.00,-0.0002
1920.00,-0.0000
1919.00,-0.0000
1918.00,-0.0001
1917.00,-0.0002
1916.00,-0.0002
1915.00,-0.0002
1914.00,-0.0001
1913.00,0.0000
1912.00,0.0000
1911.00,-0.0001
1910.00,-0.0002
1909.00,-0.0002
1908.00,-0.0001
1907.00,-0.0000
1906.00,0.0001
1905.00,0.0001
1904.00,-0.0000
1903.00,-0.0001
1902.00,-0.0001
1901.00,-0.0000
1900.00,0.0000
1899.00,0.0001
1898.00,0.0001
1897.00,0.0001
1896.00,0.0001
1895.00,0.0001
1894.00,0.0001
1893.00,0.0001
1892.00,0.0002
1891.00,0.0002
1890.00,0.0002
1889.00,0.0002
1888.00,0.0002
1887.00,0.0002
1886.00,0.0001
1885.00,0.0002
1884.00,0.0002
1883.00,0.0001
1882.00,0.0001
1881.00,-0.0000
1880.00,-0.0000
1879.00,0.0000
1878.00,0.0001
1877.00,0.0002
1876.00,0.0002
1875.00,0.0002
1874.00,0.0002
1873.00,0.0002
1872.00,0.0002
1871.00,0.0002
1870.00,0.0002
1869.00,0.0002
1868.00,0.0002
1867.00,0.0002
1866.00,0.0002
1865.00,0.0002
1864.00,0.0002
1863.00,0.0002
1862.00,0.0001
1861.00,0.0001
1860.00,0.0002
1859.00,0.0002
1858.00,0.0002
1857.00,0.0002
1856.00,0.0002
1855.00,0.0002
1854.00,0.0002
1853.00,0.0002
1852.00,0.0003
1851.00,0.0003
1850.00,0.0003
1849.00,0.0002
1848.00,0.0002
1847.00,0.0002
1846.00,0.0001
1845.00,0.0001
1844.00,0.0002
1843.00,0.0002
1842.00,0.0002
1841.00,0.0002
1840.00,0.0002
1839.00,0.0003
1838.00,0.0004
1837.00,0.0005
1836.00,0.0005
1835.00,0.0005
1834.00,0.0004
1833.00,0.0004
1832.00,0.0005
1831.00,0.0005
1830.00,0.0005
1829.00,0.0005
1828.00,0.0006
1827.00,0.0006
1826.00,0.0006
1825.00,0.0006
1824.00,0.0006
1823.00,0.0006
1822.00,0.0006
1821.00,0.0005
1820.00,0.0005
1819.00,0.0003
1818.00,0.0002
1817.00,0.0001
1816.00,0.0001
1815.00,0.0002
1814.00,0.0003
1813.00,0.0004
1812.00,0.0005
1811.00,0.0005
1810.00,0.0005
1809.00,0.0006
1808.00,0.0006
1807.00,0.0005
1806.00,0.0005
1805.00,0.0005
1804.00,0.0005
1803.00,0.0006
1802.00,0.0006
1801.00,0.0006
1800.00,0.0007
1799.00,0.0007
1798.00,0.0007
1797.00,0.0008
1796.00,0.0008
1795.00,0.0008
1794.00,0.0008
1793.00,0.0009
1792.00,0.0009
1791.00,0.0010
1790.00,0.0010
1789.00,0.0011
1788.00,0.0011
1787.00,0.0011
1786.00,0.0011
1785.00,0.0011
1784.00,0.0012
1783.00,0.0012
1782.00,0.0012
1781.00,0.0011
1780.00,0.0011
1779.00,0.0011
1778.00,0.0011
1777.00,0.0011
1776.00,0.0012
1775.00,0.0012
1774.00,0.0013
1773.00,0.0013
1772.00,0.0014
1771.00,0.0014
1770.00,0.0014
1769.00,0.0014
1768.00,0.0014
1767.00,0.0013
1766.00,0.0013
1765.00,0.0013
1764.00,0.0013
1763.00,0.0013
1762.00,0.0013
1761.00,0.0014
1760.00,0.0015
1759.00,0.0015
1758.00,0.0015
1757.00,0.0015
1756.00,0.0015
1755.00,0.0016
1754.00,0.0016
1753.00,0.0017
1752.00,0.0017
1751.00,0.0018
1750.00,0.0018
1749.00,0.0018
1748.00,0.0018
1747.00,0.0019
1746.00,0.0019
1745.00,0.0020
1744.00,0.0020
1743.00,0.0021
1742.00,0.0020
1741.00,0.0020
1740.00,0.0021
1739.00,0.0021
1738.00,0.0021
1737.00,0.0021
1736.00,0.0021
1735.00,0.0022
1734.00,0.0022
1733.00,0.0023
1732.00,0.0024
1731.00,0.0024
1730.00,0.0023
1729.00,0.0023
1728.00,0.0023
1727.00,0.0022
1726.00,0.0022
1725.00,0.0022
1724.00,0.0023
1723.00,0.0023
1722.00,0.0022
1721.00,0.0022
1720.00,0.0022
1719.00,0.0023
1718.00,0.0023
1717.00,0.0023
1716.00,0.0024
1715.00,0.0024
1714.00,0.0023
1713.00,0.0024
1712.00,0.0024
1711.00,0.0024
1710.00,0.0025
1709.00,0.0025
1708.00,0.0025
1707.00,0.0025
1706.00,0.0026
1705.00,0.0027
1704.00,0.0027
1703.00,0.0028
1702.00,0.0028
1701.00,0.0029
1700.00,0.0030
1699.00,0.0031
1698.00,0.0031
1697.00,0.0031
1696.00,0.0031
1695.00,0.0032
1694.00,0.0032
1693.00,0.0033
1692.00,0.0034
1691.00,0.0034
1690.00,0.0034
1689.00,0.0035
1688.00,0.0035
1687.00,0.0036
1686.00,0.0036
1685.00,0.0036
1684.00,0.0037
1683.00,0.0039
1682.00,0.0040
1681.00,0.0041
1680.00,0.0042
1679.00,0.0043
1678.00,0.0044
1677.00,0.0044
1676.00,0.0045
1675.00,0.0046
1674.00,0.0047
1673.00,0.0048
1672.00,0.0048
1671.00,0.0049
1670.00,0.0049
1669.00,0.0049
1668.00,0.0050
1667.00,0.0050
1666.00,0.0051
1665.00,0.0051
1664.00,0.0052
1663.00,0.0052
1662.00,0.0052
1661.00,0.0052
1660.00,0.0053
1659.00,0.0053
1658.00,0.0054
1657.00,0.0054
1656.00,0.0054
1655.00,0.0054
1654.00,0.0054
1653.00,0.0055
1652.00,0.0057
1651.00,0.0058
1650.00,0.0058
1649.00,0.0059
1648.00,0.0060
1647.00,0.0061
1646.00,0.0062
1645.00,0.0061
1644.00,0.0061
1643.00,0.0061
1642.00,0.0060
1641.00,0.0060
1640.00,0.0060
1639.00,0.0060
1638.00,0.0060
1637.00,0.0060
1636.00,0.0060
1635.00,0.0060
1634.00,0.0060
1633.00,0.0059
1632.00,0.0060
1631.00,0.0059
1630.00,0.0059
1629.00,0.0059
1628.00,0.0058
1627.00,0.0057
1626.00,0.0057
1625.00,0.0056
1624.00,0.0056
1623.00,0.0055
1622.00,0.0055
1621.00,0.0055
1620.00,0.0055
1619.00,0.0055
1618.00,0.0055
1617.00,0.0055
1616.00,0.0054
1615.00,0.0053
1614.00,0.0052
1613.00,0.0052
1612.00,0.0052
1611.00,0.0052
1610.00,0.0052
1609.00,0.0052
1608.00,0.0052
1607.00,0.0052
1606.00,0.0052
1605.00,0.0052
1604.00,0.0052
1603.00,0.0052
1602.00,0.0052
1601.00,0.0051
1600.00,0.0051
1599.00,0.0051
1598.00,0.0050
1597.00,0.0050
1596.00,0.0050
1595.00,0.0050
1594.00,0.0050
1593.00,0.0050
1592.00,0.0050
1591.00,0.0049
1590.00,0.0049
1589.00,0.0049
1588.00,0.0049
1587.00,0.0049
1586.00,0.0049
1585.00,0.0050
1584.00,0.0050
1583.00,0.0050
1582.00,0.0050
1581.00,0.0050
1580.00,0.0051
1579.00,0.0051
1578.00,0.0052
1577.00,0.0052
1576.00,0.0052
1575.00,0.0052
1574.00,0.0052
1573.00,0.0051
1572.00,0.0051
1571.00,0.0051
1570.00,0.0051
1569.00,0.0052
1568.00,0.0052
1567.00,0.0053
1566.00,0.0053
1565.00,0.0054
1564.00,0.0055
1563.00,0.0055
1562.00,0.0055
1561.00,0.0056
1560.00,0.0057
1559.00,0.0057
1558.00,0.0057
1557.00,0.0057
1556.00,0.0057
1555.00,0.0057
1554.00,0.0058
1553.00,0.0059
1552.00,0.0060
1551.00,0.0061
1550.00,0.0060
1549.00,0.0061
1548.00,0.0061
1547.00,0.0062
1546.00,0.0062
1545.00,0.0062
1544.00,0.0063
1543.00,0.0062
1542.00,0.0061
1541.00,0.0059
1540.00,0.0058
1539.00,0.0057
1538.00,0.0057
1537.00,0.0057
1536.00,0.0058
1535.00,0.0057
1534.00,0.0055
1533.00,0.0054
1532.00,0.0053
1531.00,0.0053
1530.00,0.0052
1529.00,0.0052
1528.00,0.0052
1527.00,0.0051
1526.00,0.0051
1525.00,0.0051
1524.00,0.0052
1523.00,0.0052
1522.00,0.0052
1521.00,0.0052
1520.00,0.0053
1519.00,0.0053
1518.00,0.0053
1517.00,0.0054
1516.00,0.0055
1515.00,0.0055
1514.00,0.0056
1513.00,0.0057
1512.00,0.0058
1511.00,0.0059
1510.00,0.0059
1509.00,0.0060
1508.00,0.0060
1507.00,0.0062
1506.00,0.0065
1505.00,0.0069
1504.00,0.0072
1503.00,0.0073
1502.00,0.0074
1501.00,0.0077
1500.00,0.0080
1499.00,0.0083
1498.00,0.0086
1497.00,0.0091
1496.00,0.0096
1495.00,0.0100
1494.00,0.0102
1493.00,0.0105
1492.00,0.0109
1491.00,0.0113
1490.00,0.0118
1489.00,0.0124
1488.00,0.0130
1487.00,0.0136
1486.00,0.0141
1485.00,0.0148
1484.00,0.0155
1483.00,0.0162
1482.00,0.0170
1481.00,0.0181
1480.00,0.0192
1479.00,0.0205
1478.00,0.0220
1477.00,0.0241
1476.00,0.0268
1475.00,0.0298
1474.00,0.0338
1473.00,0.0395
1472.00,0.0461
1471.00,0.0525
1470.00,0.0588
1469.00,0.0655
1468.00,0.0729
1467.00,0.0813
1466.00,0.0911
1465.00,0.1021
1464.00,0.1119
1463.00,0.1188
1462.00,0.1233
1461.00,0.1263
1460.00,0.1282
1459.00,0.1293
1458.00,0.1299
1457.00,0.1301
1456.00,0.1296
1455.00,0.1285
1454.00,0.1270
1453.00,0.1248
1452.00,0.1216
1451.00,0.1171
1450.00,0.1111
1449.00,0.1031
1448.00,0.0932
1447.00,0.0829
1446.00,0.0737
1445.00,0.0660
1444.00,0.0596
1443.00,0.0545
1442.00,0.0508
1441.00,0.0484
1440.00,0.0471
1439.00,0.0469
1438.00,0.0474
1437.00,0.0481
1436.00,0.0474
1435.00,0.0447
1434.00,0.0406
1433.00,0.0356
1432.00,0.0303
1431.00,0.0257
1430.00,0.0222
1429.00,0.0197
1428.00,0.0181
1427.00,0.0172
1426.00,0.0166
1425.00,0.0160
1424.00,0.0155
1423.00,0.0152
1422.00,0.0151
1421.00,0.0150
1420.00,0.0148
1419.00,0.0148
1418.00,0.0148
1417.00,0.0147
1416.00,0.0146
1415.00,0.0147
1414.00,0.0149
1413.00,0.0150
1412.00,0.0151
1411.00,0.0153
1410.00,0.0156
1409.00,0.0158
1408.00,0.0161
1407.00,0.0165
1406.00,0.0170
1405.00,0.0175
1404.00,0.0181
1403.00,0.0188
1402.00,0.0195
1401.00,0.0201
1400.00,0.0209
1399.00,0.0217
1398.00,0.0226
1397.00,0.0234
1396.00,0.0242
1395.00,0.0252
1394.00,0.0262
1393.00,0.0270
1392.00,0.0277
1391.00,0.0285
1390.00,0.0298
1389.00,0.0316
1388.00,0.0344
1387.00,0.0385
1386.00,0.0439
1385.00,0.0507
1384.00,0.0596
1383.00,0.0716
1382.00,0.0876
1381.00,0.1084
1380.00,0.1347
1379.00,0.1658
1378.00,0.1974
1377.00,0.2227
1376.00,0.2340
1375.00,0.2259
1374.00,0.2003
1373.00,0.1672
1372.00,0.1358
1371.00,0.1094
1370.00,0.0881
1369.00,0.0719
1368.00,0.0606
1367.00,0.0535
1366.00,0.0496
1365.00,0.0479
1364.00,0.0480
1363.00,0.0495
1362.00,0.0519
1361.00,0.0546
1360.00,0.0567
1359.00,0.0572
1358.00,0.0558
1357.00,0.0526
1356.00,0.0479
1355.00,0.0426
1354.00,0.0375
1353.00,0.0331
1352.00,0.0295
1351.00,0.0267
1350.00,0.0244
1349.00,0.0227
1348.00,0.0213
1347.00,0.0201
1346.00,0.0192
1345.00,0.0185
1344.00,0.0178
1343.00,0.0173
1342.00,0.0168
1341.00,0.0164
1340.00,0.0160
1339.00,0.0156
1338.00,0.0154
1337.00,0.0153
1336.00,0.0153
1335.00,0.0155
1334.00,0.0159
1333.00,0.0163
1332.00,0.0168
1331.00,0.0172
1330.00,0.0172
1329.00,0.0169
1328.00,0.0163
1327.00,0.0156
1326.00,0.0147
1325.00,0.0138
1324.00,0.0131
1323.00,0.0124
1322.00,0.0119
1321.00,0.0115
1320.00,0.0112
1319.00,0.0109
1318.00,0.0106
1317.00,0.0103
1316.00,0.0101
1315.00,0.0099
1314.00,0.0098
1313.00,0.0097
1312.00,0.0097
1311.00,0.0099
1310.00,0.0102
1309.00,0.0107
1308.00,0.0113
1307.00,0.0121
1306.00,0.0128
1305.00,0.0134
1304.00,0.0137
1303.00,0.0138
1302.00,0.0137
1301.00,0.0137
1300.00,0.0139
1299.00,0.0141
1298.00,0.0144
1297.00,0.0146
1296.00,0.0146
1295.00,0.0144
1294.00,0.0141
1293.00,0.0136
1292.00,0.0130
1291.00,0.0125
1290.00,0.0119
1289.00,0.0115
1288.00,0.0111
1287.00,0.0109
1286.00,0.0107
1285.00,0.0106
1284.00,0.0105
1283.00,0.0105
1282.00,0.0104
1281.00,0.0104
1280.00,0.0105
1279.00,0.0106
1278.00,0.0106
1277.00,0.0108
1276.00,0.0109
1275.00,0.0112
1274.00,0.0115
1273.00,0.0118
1272.00,0.0121
1271.00,0.0125
1270.00,0.0129
1269.00,0.0133
1268.00,0.0138
1267.00,0.0143
1266.00,0.0149
1265.00,0.0153
1264.00,0.0158
1263.00,0.0161
1262.00,0.0164
1261.00,0.0167
1260.00,0.0172
1259.00,0.0177
1258.00,0.0183
1257.00,0.0188
1256.00,0.0192
1255.00,0.0193
1254.00,0.0192
1253.00,0.0188
1252.00,0.0183
1251.00,0.0178
1250.00,0.0173
1249.00,0.0168
1248.00,0.0163
1247.00,0.0159
1246.00,0.0157
1245.00,0.0155
1244.00,0.0154
1243.00,0.0153
1242.00,0.0152
1241.00,0.0150
1240.00,0.0148
1239.00,0.0145
1238.00,0.0143
1237.00,0.0141
1236.00,0.0138
1235.00,0.0136
1234.00,0.0133
1233.00,0.0130
1232.00,0.0127
1231.00,0.0125
1230.00,0.0123
1229.00,0.0121
1228.00,0.0119
1227.00,0.0118
1226.00,0.0117
1225.00,0.0117
1224.00,0.0119
1223.00,0.0122
1222.00,0.0125
1221.00,0.0127
1220.00,0.0128
1219.00,0.0127
1218.00,0.0125
1217.00,0.0121
1216.00,0.0118
1215.00,0.0113
1214.00,0.0109
1213.00,0.0105
1212.00,0.0101
1211.00,0.0097
1210.00,0.0094
1209.00,0.0092
1208.00,0.0090
1207.00,0.0089
1206.00,0.0087
1205.00,0.0086
1204.00,0.0085
1203.00,0.0084
1202.00,0.0084
1201.00,0.0084
1200.00,0.0084
1199.00,0.0084
1198.00,0.0085
1197.00,0.0086
1196.00,0.0087
1195.00,0.0087
1194.00,0.0088
1193.00,0.0090
1192.00,0.0092
1191.00,0.0094
1190.00,0.0097
1189.00,0.0099
1188.00,0.0101
1187.00,0.0104
1186.00,0.0107
1185.00,0.0111
1184.00,0.0116
1183.00,0.0120
1182.00,0.0126
1181.00,0.0131
1180.00,0.0137
1179.00,0.0144
1178.00,0.0151
1177.00,0.0160
1176.00,0.0170
1175.00,0.0184
1174.00,0.0202
1173.00,0.0223
1172.00,0.0248
1171.00,0.0275
1170.00,0.0300
1169.00,0.0322
1168.00,0.0337
1167.00,0.0343
1166.00,0.0343
1165.00,0.0339
1164.00,0.0333
1163.00,0.0326
1162.00,0.0320
1161.00,0.0316
1160.00,0.0313
1159.00,0.0311
1158.00,0.0310
1157.00,0.0310
1156.00,0.0311
1155.00,0.0312
1154.00,0.0312
1153.00,0.0311
1152.00,0.0309
1151.00,0.0303
1150.00,0.0295
1149.00,0.0284
1148.00,0.0273
1147.00,0.0263
1146.00,0.0252
1145.00,0.0243
1144.00,0.0234
1143.00,0.0225
1142.00,0.0217
1141.00,0.0210
1140.00,0.0203
1139.00,0.0197
1138.00,0.0191
1137.00,0.0186
1136.00,0.0181
1135.00,0.0177
1134.00,0.0173
1133.00,0.0171
1132.00,0.0169
1131.00,0.0167
1130.00,0.0165
1129.00,0.0163
1128.00,0.0161
1127.00,0.0161
1126.00,0.0160
1125.00,0.0159
1124.00,0.0158
1123.00,0.0157
1122.00,0.0155
1121.00,0.0153
1120.00,0.0152
1119.00,0.0151
1118.00,0.0151
1117.00,0.0150
1116.00,0.0150
1115.00,0.0150
1114.00,0.0150
1113.00,0.0151
1112.00,0.0153
1111.00,0.0155
1110.00,0.0158
1109.00,0.0163
1108.00,0.0169
1107.00,0.0176
1106.00,0.0184
1105.00,0.0192
1104.00,0.0199
1103.00,0.0204
1102.00,0.0205
1101.00,0.0204
1100.00,0.0200
1099.00,0.0195
1098.00,0.0189
1097.00,0.0184
1096.00,0.0180
1095.00,0.0178
1094.00,0.0176
1093.00,0.0176
1092.00,0.0176
1091.00,0.0177
1090.00,0.0177
1089.00,0.0177
1088.00,0.0175
1087.00,0.0174
1086.00,0.0174
1085.00,0.0174
1084.00,0.0175
1083.00,0.0175
1082.00,0.0174
1081.00,0.0173
1080.00,0.0172
1079.00,0.0171
1078.00,0.0170
1077.00,0.0169
1076.00,0.0168
1075.00,0.0169
1074.00,0.0170
1073.00,0.0171
1072.00,0.0172
1071.00,0.0171
1070.00,0.0168
1069.00,0.0165
1068.00,0.0162
1067.00,0.0159
1066.00,0.0155
1065.00,0.0152
1064.00,0.0149
1063.00,0.0148
1062.00,0.0147
1061.00,0.0146
1060.00,0.0145
1059.00,0.0143
1058.00,0.0139
1057.00,0.0135
1056.00,0.0131
1055.00,0.0128
1054.00,0.0126
1053.00,0.0125
1052.00,0.0123
1051.00,0.0122
1050.00,0.0121
1049.00,0.0119
1048.00,0.0118
1047.00,0.0116
1046.00,0.0114
1045.00,0.0112
1044.00,0.0109
1043.00,0.0107
1042.00,0.0105
1041.00,0.0104
1040.00,0.0104
1039.00,0.0103
1038.00,0.0102
1037.00,0.0101
1036.00,0.0101
1035.00,0.0101
1034.00,0.0100
1033.00,0.0099
1032.00,0.0098
1031.00,0.0098
1030.00,0.0098
1029.00,0.0098
1028.00,0.0096
1027.00,0.0095
1026.00,0.0093
1025.00,0.0093
1024.00,0.0092
1023.00,0.0092
1022.00,0.0092
1021.00,0.0092
1020.00,0.0092
1019.00,0.0092
1018.00,0.0093
1017.00,0.0095
1016.00,0.0096
1015.00,0.0097
1014.00,0.0099
1013.00,0.0101
1012.00,0.0104
1011.00,0.0106
1010.00,0.0108
1009.00,0.0111
1008.00,0.0115
1007.00,0.0120
1006.00,0.0126
1005.00,0.0134
1004.00,0.0144
1003.00,0.0158
1002.00,0.0178
1001.00,0.0201
1000.00,0.0225
999.00,0.0243
998.00,0.0252
997.00,0.0246
996.00,0.0228
995.00,0.0203
994.00,0.0178
993.00,0.0155
992.00,0.0137
991.00,0.0123
990.00,0.0114
989.00,0.0108
988.00,0.0104
987.00,0.0104
986.00,0.0105
985.00,0.0109
984.00,0.0115
983.00,0.0124
982.00,0.0137
981.00,0.0153
980.00,0.0175
979.00,0.0203
978.00,0.0238
977.00,0.0276
976.00,0.0316
975.00,0.0352
974.00,0.0379
973.00,0.0390
972.00,0.0384
971.00,0.0363
970.00,0.0334
969.00,0.0304
968.00,0.0276
967.00,0.0255
966.00,0.0238
965.00,0.0224
964.00,0.0214
963.00,0.0206
962.00,0.0200
961.00,0.0196
960.00,0.0195
959.00,0.0195
958.00,0.0197
957.00,0.0198
956.00,0.0198
955.00,0.0197
954.00,0.0196
953.00,0.0195
952.00,0.0194
951.00,0.0191
950.00,0.0188
949.00,0.0185
948.00,0.0182
947.00,0.0181
946.00,0.0182
945.00,0.0185
944.00,0.0188
943.00,0.0191
942.00,0.0192
941.00,0.0191
940.00,0.0187
939.00,0.0181
938.00,0.0172
937.00,0.0163
936.00,0.0153
935.00,0.0143
934.00,0.0134
933.00,0.0126
932.00,0.0118
931.00,0.0112
930.00,0.0106
929.00,0.0101
928.00,0.0097
927.00,0.0093
926.00,0.0091
925.00,0.0088
924.00,0.0086
923.00,0.0085
922.00,0.0084
921.00,0.0083
920.00,0.0082
919.00,0.0082
918.00,0.0081
917.00,0.0081
916.00,0.0081
915.00,0.0082
914.00,0.0082
913.00,0.0082
912.00,0.0083
911.00,0.0084
910.00,0.0086
909.00,0.0088
908.00,0.0091
907.00,0.0095
906.00,0.0102
905.00,0.0113
904.00,0.0130
903.00,0.0152
902.00,0.0176
901.00,0.0198
900.00,0.0212
899.00,0.0216
898.00,0.0209
897.00,0.0191
896.00,0.0167
895.00,0.0144
894.00,0.0124
893.00,0.0109
892.00,0.0099
891.00,0.0092
890.00,0.0087
889.00,0.0082
888.00,0.0078
887.00,0.0076
886.00,0.0074
885.00,0.0074
884.00,0.0074
883.00,0.0074
882.00,0.0074
881.00,0.0074
880.00,0.0074
879.00,0.0074
878.00,0.0074
877.00,0.0074
876.00,0.0074
875.00,0.0073
874.00,0.0073
873.00,0.0073
872.00,0.0072
871.00,0.0073
870.00,0.0073
869.00,0.0075
868.00,0.0075
867.00,0.0076
866.00,0.0076
865.00,0.0077
864.00,0.0078
863.00,0.0079
862.00,0.0081
861.00,0.0082
860.00,0.0082
859.00,0.0083
858.00,0.0084
857.00,0.0086
856.00,0.0088
855.00,0.0090
854.00,0.0091
853.00,0.0093
852.00,0.0095
851.00,0.0098
850.00,0.0101
849.00,0.0105
848.00,0.0112
847.00,0.0122
846.00,0.0137
845.00,0.0157
844.00,0.0184
843.00,0.0212
842.00,0.0232
841.00,0.0236
840.00,0.0221
839.00,0.0196
838.00,0.0171
837.00,0.0151
836.00,0.0139
835.00,0.0131
834.00,0.0126
833.00,0.0124
832.00,0.0122
831.00,0.0122
830.00,0.0122
829.00,0.0123
828.00,0.0124
827.00,0.0123
826.00,0.0123
825.00,0.0122
824.00,0.0121
823.00,0.0122
822.00,0.0123
821.00,0.0126
820.00,0.0130
819.00,0.0134
818.00,0.0140
817.00,0.0148
816.00,0.0158
815.00,0.0171
814.00,0.0185
813.00,0.0203
812.00,0.0222
811.00,0.0241
810.00,0.0256
809.00,0.0264
808.00,0.0263
807.00,0.0253
806.00,0.0235
805.00,0.0214
804.00,0.0193
803.00,0.0175
802.00,0.0161
801.00,0.0150
800.00,0.0141
799.00,0.0133
798.00,0.0127
797.00,0.0120
796.00,0.0114
795.00,0.0109
794.00,0.0105
793.00,0.0103
792.00,0.0101
791.00,0.0099
790.00,0.0097
789.00,0.0093
788.00,0.0090
787.00,0.0087
786.00,0.0084
785.00,0.0082
784.00,0.0078
783.00,0.0075
782.00,0.0071
781.00,0.0068
780.00,0.0066
779.00,0.0064
778.00,0.0063
777.00,0.0063
776.00,0.0064
775.00,0.0067
774.00,0.0070
773.00,0.0073
772.00,0.0075
771.00,0.0076
770.00,0.0076
769.00,0.0076
768.00,0.0076
767.00,0.0076
766.00,0.0076
765.00,0.0075
764.00,0.0073
763.00,0.0071
762.00,0.0068
761.00,0.0066
760.00,0.0064
759.00,0.0062
758.00,0.0060
757.00,0.0059
756.00,0.0060
755.00,0.0060
754.00,0.0061
753.00,0.0060
752.00,0.0058
751.00,0.0058
750.00,0.0058
749.00,0.0058
748.00,0.0058
747.00,0.0058
746.00,0.0059
745.00,0.0061
744.00,0.0061
743.00,0.0061
742.00,0.0061
741.00,0.0061
740.00,0.0062
739.00,0.0063
738.00,0.0064
737.00,0.0066
736.00,0.0069
735.00,0.0072
734.00,0.0074
733.00,0.0075
732.00,0.0076
731.00,0.0076
730.00,0.0076
729.00,0.0075
728.00,0.0075
727.00,0.0073
726.00,0.0071
725.00,0.0071
724.00,0.0070
723.00,0.0071
722.00,0.0070
721.00,0.0069
720.00,0.0067
719.00,0.0066
718.00,0.0064
717.00,0.0062
716.00,0.0062
715.00,0.0062
714.00,0.0063
713.00,0.0064
712.00,0.0064
711.00,0.0064
710.00,0.0064
709.00,0.0064
708.00,0.0064
707.00,0.0064
706.00,0.0063
705.00,0.0062
704.00,0.0061
703.00,0.0059
702.00,0.0059
701.00,0.0059
700.00,0.0059
699.00,0.0059
698.00,0.0059
697.00,0.0058
696.00,0.0058
695.00,0.0058
694.00,0.0059
693.00,0.0059
692.00,0.0058
691.00,0.0057
690.00,0.0056
689.00,0.0056
688.00,0.0056
687.00,0.0056
686.00,0.0057
685.00,0.0058
684.00,0.0059
683.00,0.0059
682.00,0.0058
681.00,0.0058
680.00,0.0058
679.00,0.0058
678.00,0.0057
677.00,0.0055
676.00,0.0054
675.00,0.0052
674.00,0.0052
673.00,0.0051
672.00,0.0051
671.00,0.0051
670.00,0.0052
669.00,0.0053
668.00,0.0055
667.00,0.0055
666.00,0.0055
665.00,0.0055
664.00,0.0056
663.00,0.0057
662.00,0.0057
661.00,0.0056
660.00,0.0054
659.00,0.0053
658.00,0.0053
657.00,0.0054
656.00,0.0055
655.00,0.0056
654.00,0.0056
653.00,0.0056
652.00,0.0055
651.00,0.0055
650.00,0.0056
649.00,0.0058
648.00,0.0060
647.00,0.0059
646.00,0.0059
645.00,0.0060
644.00,0.0062
643.00,0.0064
642.00,0.0064
641.00,0.0063
640.00,0.0062
639.00,0.0063
638.00,0.0062
637.00,0.0061
636.00,0.0060
635.00,0.0059
634.00,0.0059
633.00,0.0059
632.00,0.0058
631.00,0.0058
630.00,0.0057
629.00,0.0058
628.00,0.0060
627.00,0.0062
626.00,0.0063
625.00,0.0062
624.00,0.0061
623.00,0.0059
622.00,0.0058
621.00,0.0058
620.00,0.0059
619.00,0.0060
618.00,0.0059
617.00,0.0057
616.00,0.0056
615.00,0.0056
614.00,0.0058
613.00,0.0060
612.00,0.0062
611.00,0.0062
610.00,0.0060
609.00,0.0058
608.00,0.0057
607.00,0.0057
606.00,0.0057
605.00,0.0058
604.00,0.0059
603.00,0.0062
602.00,0.0064
601.00,0.0065
600.00,0.0063
599.00,0.0060
598.00,0.0057
597.00,0.0055
596.00,0.0055
595.00,0.0055
594.00,0.0055
593.00,0.0054
592.00,0.0054
591.00,0.0055
590.00,0.0056
589.00,0.0058
588.00,0.0060
587.00,0.0063
586.00,0.0065
585.00,0.0066
584.00,0.0067
583.00,0.0068
582.00,0.0071
581.00,0.0074
580.00,0.0075
579.00,0.0075
578.00,0.0075
577.00,0.0073
576.00,0.0071
575.00,0.0068
574.00,0.0067
573.00,0.0066
572.00,0.0065
571.00,0.0065
570.00,0.0064
569.00,0.0063
568.00,0.0062
567.00,0.0063
566.00,0.0064
565.00,0.0065
564.00,0.0066
563.00,0.0065
562.00,0.0064
561.00,0.0065
560.00,0.0067
559.00,0.0069
558.00,0.0070
557.00,0.0069
556.00,0.0068
555.00,0.0068
554.00,0.0069
553.00,0.0070
552.00,0.0069
551.00,0.0069
550.00,0.0069
549.00,0.0071
548.00,0.0074
547.00,0.0076
546.00,0.0077
545.00,0.0076
544.00,0.0074
543.00,0.0073
542.00,0.0074
541.00,0.0076
540.00,0.0079
539.00,0.0080
538.00,0.0081
537.00,0.0080
536.00,0.0078
535.00,0.0078
534.00,0.0081
533.00,0.0086
532.00,0.0089
531.00,0.0091
530.00,0.0092
529.00,0.0092
528.00,0.0090
527.00,0.0088
526.00,0.0087
525.00,0.0086
524.00,0.0086
523.00,0.0086
522.00,0.0086
521.00,0.0084
520.00,0.0078
519.00,0.0070
518.00,0.0064
517.00,0.0062
516.00,0.0066
515.00,0.0071
514.00,0.0074
513.00,0.0074
512.00,0.0071
511.00,0.0067
510.00,0.0064
509.00,0.0063
508.00,0.0060
507.00,0.0055
506.00,0.0050
505.00,0.0049
504.00,0.0050
503.00,0.0054
502.00,0.0059
501.00,0.0064
500.00,0.0068
499.00,0.0069
498.00,0.0069
497.00,0.0071
496.00,0.0076
495.00,0.0079
494.00,0.0079
493.00,0.0073
492.00,0.0067
491.00,0.0063
490.00,0.0064
489.00,0.0068
488.00,0.0074
487.00,0.0081
486.00,0.0085
485.00,0.0083
484.00,0.0078
483.00,0.0075
482.00,0.0080
481.00,0.0090
480.00,0.0098
479.00,0.0101
478.00,0.0100
477.00,0.0096
476.00,0.0093
475.00,0.0090
474.00,0.0091
473.00,0.0094
472.00,0.0100
471.00,0.0108
470.00,0.0117
469.00,0.0125
468.00,0.0129
467.00,0.0128
466.00,0.0126
465.00,0.0132
464.00,0.0145
463.00,0.0157
462.00,0.0164
461.00,0.0167
460.00,0.0172
459.00,0.0181
458.00,0.0189
457.00,0.0190
456.00,0.0184
455.00,0.0177
454.00,0.0169
453.00,0.0160
452.00,0.0146
451.00,0.0130
450.00,0.0116
