Created as New Dataset,Sample 110 By Administrator Date Tuesday, September 09 2025
cm-1,A
4000.00,0.0010
3999.00,0.0010
3998.00,0.0011
3997.00,0.0011
3996.00,0.0011
3995.00,0.0011
3994.00,0.0011
3993.00,0.0011
3992.00,0.0010
3991.00,0.0011
3990.00,0.0011
3989.00,0.0011
3988.00,0.0010
3987.00,0.0010
3986.00,0.0010
3985.00,0.0010
3984.00,0.0010
3983.00,0.0010
3982.00,0.0010
3981.00,0.0010
3980.00,0.0010
3979.00,0.0010
3978.00,0.0010
3977.00,0.0010
3976.00,0.0009
3975.00,0.0009
3974.00,0.0009
3973.00,0.0009
3972.00,0.0009
3971.00,0.0009
3970.00,0.0009
3969.00,0.0008
3968.00,0.0008
3967.00,0.0008
3966.00,0.0008
3965.00,0.0009
3964.00,0.0009
3963.00,0.0009
3962.00,0.0009
3961.00,0.0009
3960.00,0.0009
3959.00,0.0009
3958.00,0.0008
3957.00,0.0008
3956.00,0.0009
3955.00,0.0009
3954.00,0.0009
3953.00,0.0009
3952.00,0.0008
3951.00,0.0008
3950.00,0.0009
3949.00,0.0009
3948.00,0.0009
3947.00,0.0008
3946.00,0.0008
3945.00,0.0008
3944.00,0.0008
3943.00,0.0008
3942.00,0.0008
3941.00,0.0008
3940.00,0.0008
3939.00,0.0008
3938.00,0.0009
3937.00,0.0009
3936.00,0.0009
3935.00,0.0009
3934.00,0.0009
3933.00,0.0010
3932.00,0.0010
3931.00,0.0010
3930.00,0.0010
3929.00,0.0010
3928.00,0.0009
3927.00,0.0009
3926.00,0.0009
3925.00,0.0010
3924.00,0.0010
3923.00,0.0010
3922.00,0.0010
3921.00,0.0009
3920.00,0.0009
3919.00,0.0009
3918.00,0.0009
3917.00,0.0008
3916.00,0.0008
3915.00,0.0008
3914.00,0.0008
3913.00,0.0008
3912.00,0.0008
3911.00,0.0008
3910.00,0.0008
3909.00,0.0008
3908.00,0.0008
3907.00,0.0008
3906.00,0.0008
3905.00,0.0009
3904.00,0.0009
3903.00,0.0009
3902.00,0.0009
3901.00,0.0008
3900.00,0.0008
3899.00,0.0008
3898.00,0.0008
3897.00,0.0008
3896.00,0.0008
3895.00,0.0009
3894.00,0.0009
3893.00,0.0009
3892.00,0.0009
3891.00,0.0009
3890.00,0.0009
3889.00,0.0009
3888.00,0.0009
3887.00,0.0009
3886.00,0.0009
3885.00,0.0010
3884.00,0.0010
3883.00,0.0009
3882.00,0.0009
3881.00,0.0008
3880.00,0.0008
3879.00,0.0008
3878.00,0.0008
3877.00,0.0009
3876.00,0.0009
3875.00,0.0009
3874.00,0.0009
3873.00,0.0009
3872.00,0.0009
3871.00,0.0009
3870.00,0.0009
3869.00,0.0009
3868.00,0.0009
3867.00,0.0008
3866.00,0.0008
3865.00,0.0009
3864.00,0.0009
3863.00,0.0009
3862.00,0.0009
3861.00,0.0009
3860.00,0.0010
3859.00,0.0010
3858.00,0.0010
3857.00,0.0010
3856.00,0.0009
3855.00,0.0009
3854.00,0.0009
3853.00,0.0008
3852.00,0.0008
3851.00,0.0008
3850.00,0.0008
3849.00,0.0008
3848.00,0.0008
3847.00,0.0009
3846.00,0.0009
3845.00,0.0009
3844.00,0.0009
3843.00,0.0009
3842.00,0.0009
3841.00,0.0010
3840.00,0.0010
3839.00,0.0010
3838.00,0.0010
3837.00,0.0009
3836.00,0.0009
3835.00,0.0009
3834.00,0.0008
3833.00,0.0008
3832.00,0.0008
3831.00,0.0008
3830.00,0.0009
3829.00,0.0009
3828.00,0.0009
3827.00,0.0009
3826.00,0.0009
3825.00,0.0009
3824.00,0.0009
3823.00,0.0009
3822.00,0.0009
3821.00,0.0009
3820.00,0.0009
3819.00,0.0009
3818.00,0.0008
3817.00,0.0008
3816.00,0.0008
3815.00,0.0008
3814.00,0.0008
3813.00,0.0009
3812.00,0.0009
3811.00,0.0009
3810.00,0.0009
3809.00,0.0009
3808.00,0.0008
3807.00,0.0008
3806.00,0.0008
3805.00,0.0009
3804.00,0.0009
3803.00,0.0009
3802.00,0.0009
3801.00,0.0009
3800.00,0.0009
3799.00,0.0009
3798.00,0.0009
3797.00,0.0009
3796.00,0.0009
3795.00,0.0008
3794.00,0.0008
3793.00,0.0008
3792.00,0.0008
3791.00,0.0009
3790.00,0.0009
3789.00,0.0009
3788.00,0.0009
3787.00,0.0009
3786.00,0.0009
3785.00,0.0009
3784.00,0.0009
3783.00,0.0009
3782.00,0.0009
3781.00,0.0009
3780.00,0.0009
3779.00,0.0009
3778.00,0.0010
3777.00,0.0010
3776.00,0.0010
3775.00,0.0010
3774.00,0.0010
3773.00,0.0010
3772.00,0.0010
3771.00,0.0010
3770.00,0.0010
3769.00,0.0010
3768.00,0.0010
3767.00,0.0010
3766.00,0.0010
3765.00,0.0010
3764.00,0.0010
3763.00,0.0010
3762.00,0.0010
3761.00,0.0010
3760.00,0.0010
3759.00,0.0010
3758.00,0.0010
3757.00,0.0010
3756.00,0.0011
3755.00,0.0011
3754.00,0.0011
3753.00,0.0011
3752.00,0.0011
3751.00,0.0011
3750.00,0.0011
3749.00,0.0010
3748.00,0.0010
3747.00,0.0009
3746.00,0.0008
3745.00,0.0007
3744.00,0.0007
3743.00,0.0007
3742.00,0.0008
3741.00,0.0008
3740.00,0.0009
3739.00,0.0009
3738.00,0.0010
3737.00,0.0010
3736.00,0.0010
3735.00,0.0010
3734.00,0.0009
3733.00,0.0008
3732.00,0.0008
3731.00,0.0008
3730.00,0.0008
3729.00,0.0009
3728.00,0.0009
3727.00,0.0009
3726.00,0.0009
3725.00,0.0009
3724.00,0.0009
3723.00,0.0009
3722.00,0.0009
3721.00,0.0008
3720.00,0.0008
3719.00,0.0008
3718.00,0.0008
3717.00,0.0008
3716.00,0.0008
3715.00,0.0008
3714.00,0.0007
3713.00,0.0007
3712.00,0.0007
3711.00,0.0007
3710.00,0.0007
3709.00,0.0007
3708.00,0.0007
3707.00,0.0007
3706.00,0.0007
3705.00,0.0007
3704.00,0.0007
3703.00,0.0007
3702.00,0.0007
3701.00,0.0007
3700.00,0.0006
3699.00,0.0006
3698.00,0.0007
3697.00,0.0007
3696.00,0.0008
3695.00,0.0008
3694.00,0.0008
3693.00,0.0008
3692.00,0.0008
3691.00,0.0008
3690.00,0.0008
3689.00,0.0008
3688.00,0.0008
3687.00,0.0008
3686.00,0.0008
3685.00,0.0008
3684.00,0.0008
3683.00,0.0008
3682.00,0.0008
3681.00,0.0009
3680.00,0.0009
3679.00,0.0010
3678.00,0.0010
3677.00,0.0011
3676.00,0.0011
3675.00,0.0011
3674.00,0.0011
3673.00,0.0011
3672.00,0.0011
3671.00,0.0011
3670.00,0.0011
3669.00,0.0011
3668.00,0.0011
3667.00,0.0011
3666.00,0.0011
3665.00,0.0011
3664.00,0.0011
3663.00,0.0011
3662.00,0.0011
3661.00,0.0011
3660.00,0.0012
3659.00,0.0012
3658.00,0.0012
3657.00,0.0013
3656.00,0.0013
3655.00,0.0013
3654.00,0.0013
3653.00,0.0013
3652.00,0.0013
3651.00,0.0013
3650.00,0.0013
3649.00,0.0012
3648.00,0.0012
3647.00,0.0012
3646.00,0.0011
3645.00,0.0011
3644.00,0.0011
3643.00,0.0011
3642.00,0.0011
3641.00,0.0011
3640.00,0.0011
3639.00,0.0011
3638.00,0.0011
3637.00,0.0011
3636.00,0.0011
3635.00,0.0010
3634.00,0.0010
3633.00,0.0010
3632.00,0.0010
3631.00,0.0009
3630.00,0.0009
3629.00,0.0008
3628.00,0.0008
3627.00,0.0008
3626.00,0.0008
3625.00,0.0008
3624.00,0.0008
3623.00,0.0009
3622.00,0.0009
3621.00,0.0009
3620.00,0.0010
3619.00,0.0010
3618.00,0.0010
3617.00,0.0010
3616.00,0.0010
3615.00,0.0009
3614.00,0.0009
3613.00,0.0009
3612.00,0.0009
3611.00,0.0009
3610.00,0.0009
3609.00,0.0009
3608.00,0.0009
3607.00,0.0009
3606.00,0.0009
3605.00,0.0009
3604.00,0.0009
3603.00,0.0009
3602.00,0.0009
3601.00,0.0010
3600.00,0.0010
3599.00,0.0010
3598.00,0.0010
3597.00,0.0010
3596.00,0.0010
3595.00,0.0010
3594.00,0.0010
3593.00,0.0011
3592.00,0.0011
3591.00,0.0011
3590.00,0.0011
3589.00,0.0012
3588.00,0.0012
3587.00,0.0012
3586.00,0.0011
3585.00,0.0011
3584.00,0.0012
3583.00,0.0012
3582.00,0.0012
3581.00,0.0011
3580.00,0.0011
3579.00,0.0011
3578.00,0.0011
3577.00,0.0011
3576.00,0.0011
3575.00,0.0012
3574.00,0.0012
3573.00,0.0012
3572.00,0.0013
3571.00,0.0013
3570.00,0.0013
3569.00,0.0014
3568.00,0.0014
3567.00,0.0014
3566.00,0.0014
3565.00,0.0015
3564.00,0.0015
3563.00,0.0015
3562.00,0.0015
3561.00,0.0015
3560.00,0.0015
3559.00,0.0015
3558.00,0.0015
3557.00,0.0015
3556.00,0.0016
3555.00,0.0016
3554.00,0.0016
3553.00,0.0017
3552.00,0.0017
3551.00,0.0018
3550.00,0.0018
3549.00,0.0019
3548.00,0.0019
3547.00,0.0019
3546.00,0.0019
3545.00,0.0018
3544.00,0.0017
3543.00,0.0017
3542.00,0.0017
3541.00,0.0017
3540.00,0.0018
3539.00,0.0018
3538.00,0.0018
3537.00,0.0019
3536.00,0.0019
3535.00,0.0019
3534.00,0.0020
3533.00,0.0020
3532.00,0.0020
3531.00,0.0020
3530.00,0.0021
3529.00,0.0021
3528.00,0.0021
3527.00,0.0021
3526.00,0.0021
3525.00,0.0021
3524.00,0.0021
3523.00,0.0021
3522.00,0.0021
3521.00,0.0021
3520.00,0.0022
3519.00,0.0022
3518.00,0.0022
3517.00,0.0022
3516.00,0.0023
3515.00,0.0023
3514.00,0.0023
3513.00,0.0023
3512.00,0.0024
3511.00,0.0024
3510.00,0.0024
3509.00,0.0024
3508.00,0.0024
3507.00,0.0024
3506.00,0.0024
3505.00,0.0024
3504.00,0.0024
3503.00,0.0024
3502.00,0.0024
3501.00,0.0024
3500.00,0.0025
3499.00,0.0025
3498.00,0.0026
3497.00,0.0026
3496.00,0.0026
3495.00,0.0026
3494.00,0.0026
3493.00,0.0027
3492.00,0.0027
3491.00,0.0027
3490.00,0.0027
3489.00,0.0027
3488.00,0.0028
3487.00,0.0028
3486.00,0.0028
3485.00,0.0029
3484.00,0.0029
3483.00,0.0029
3482.00,0.0029
3481.00,0.0029
3480.00,0.0029
3479.00,0.0029
3478.00,0.0029
3477.00,0.0029
3476.00,0.0029
3475.00,0.0030
3474.00,0.0030
3473.00,0.0030
3472.00,0.0030
3471.00,0.0030
3470.00,0.0030
3469.00,0.0030
3468.00,0.0030
3467.00,0.0031
3466.00,0.0031
3465.00,0.0032
3464.00,0.0032
3463.00,0.0032
3462.00,0.0032
3461.00,0.0032
3460.00,0.0032
3459.00,0.0032
3458.00,0.0033
3457.00,0.0033
3456.00,0.0033
3455.00,0.0033
3454.00,0.0033
3453.00,0.0033
3452.00,0.0034
3451.00,0.0034
3450.00,0.0035
3449.00,0.0035
3448.00,0.0035
3447.00,0.0035
3446.00,0.0036
3445.00,0.0036
3444.00,0.0036
3443.00,0.0036
3442.00,0.0036
3441.00,0.0036
3440.00,0.0036
3439.00,0.0036
3438.00,0.0037
3437.00,0.0037
3436.00,0.0037
3435.00,0.0038
3434.00,0.0038
3433.00,0.0038
3432.00,0.0038
3431.00,0.0038
3430.00,0.0038
3429.00,0.0038
3428.00,0.0037
3427.00,0.0037
3426.00,0.0038
3425.00,0.0038
3424.00,0.0039
3423.00,0.0039
3422.00,0.0040
3421.00,0.0040
3420.00,0.0040
3419.00,0.0040
3418.00,0.0040
3417.00,0.0040
3416.00,0.0040
3415.00,0.0040
3414.00,0.0040
3413.00,0.0041
3412.00,0.0041
3411.00,0.0042
3410.00,0.0042
3409.00,0.0042
3408.00,0.0043
3407.00,0.0043
3406.00,0.0043
3405.00,0.0043
3404.00,0.0043
3403.00,0.0044
3402.00,0.0044
3401.00,0.0044
3400.00,0.0044
3399.00,0.0044
3398.00,0.0044
3397.00,0.0044
3396.00,0.0044
3395.00,0.0044
3394.00,0.0044
3393.00,0.0044
3392.00,0.0044
3391.00,0.0044
3390.00,0.0044
3389.00,0.0044
3388.00,0.0043
3387.00,0.0043
3386.00,0.0043
3385.00,0.0043
3384.00,0.0043
3383.00,0.0043
3382.00,0.0043
3381.00,0.0043
3380.00,0.0043
3379.00,0.0043
3378.00,0.0043
3377.00,0.0043
3376.00,0.0043
3375.00,0.0043
3374.00,0.0043
3373.00,0.0043
3372.00,0.0043
3371.00,0.0043
3370.00,0.0043
3369.00,0.0043
3368.00,0.0043
3367.00,0.0043
3366.00,0.0044
3365.00,0.0044
3364.00,0.0045
3363.00,0.0045
3362.00,0.0044
3361.00,0.0044
3360.00,0.0044
3359.00,0.0044
3358.00,0.0044
3357.00,0.0044
3356.00,0.0044
3355.00,0.0044
3354.00,0.0044
3353.00,0.0043
3352.00,0.0043
3351.00,0.0043
3350.00,0.0044
3349.00,0.0044
3348.00,0.0044
3347.00,0.0044
3346.00,0.0043
3345.00,0.0043
3344.00,0.0043
3343.00,0.0043
3342.00,0.0043
3341.00,0.0043
3340.00,0.0043
3339.00,0.0044
3338.00,0.0044
3337.00,0.0044
3336.00,0.0043
3335.00,0.0043
3334.00,0.0043
3333.00,0.0043
3332.00,0.0042
3331.00,0.0042
3330.00,0.0042
3329.00,0.0042
3328.00,0.0042
3327.00,0.0042
3326.00,0.0042
3325.00,0.0042
3324.00,0.0043
3323.00,0.0043
3322.00,0.0043
3321.00,0.0043
3320.00,0.0043
3319.00,0.0042
3318.00,0.0042
3317.00,0.0042
3316.00,0.0042
3315.00,0.0042
3314.00,0.0042
3313.00,0.0042
3312.00,0.0041
3311.00,0.0041
3310.00,0.0041
3309.00,0.0041
3308.00,0.0041
3307.00,0.0041
3306.00,0.0041
3305.00,0.0041
3304.00,0.0041
3303.00,0.0041
3302.00,0.0041
3301.00,0.0041
3300.00,0.0041
3299.00,0.0041
3298.00,0.0041
3297.00,0.0041
3296.00,0.0041
3295.00,0.0042
3294.00,0.0041
3293.00,0.0041
3292.00,0.0041
3291.00,0.0041
3290.00,0.0041
3289.00,0.0042
3288.00,0.0042
3287.00,0.0041
3286.00,0.0041
3285.00,0.0040
3284.00,0.0040
3283.00,0.0040
3282.00,0.0040
3281.00,0.0040
3280.00,0.0040
3279.00,0.0040
3278.00,0.0040
3277.00,0.0040
3276.00,0.0040
3275.00,0.0040
3274.00,0.0039
3273.00,0.0039
3272.00,0.0039
3271.00,0.0039
3270.00,0.0039
3269.00,0.0039
3268.00,0.0038
3267.00,0.0038
3266.00,0.0038
3265.00,0.0038
3264.00,0.0038
3263.00,0.0038
3262.00,0.0038
3261.00,0.0038
3260.00,0.0038
3259.00,0.0038
3258.00,0.0038
3257.00,0.0038
3256.00,0.0038
3255.00,0.0038
3254.00,0.0038
3253.00,0.0037
3252.00,0.0037
3251.00,0.0037
3250.00,0.0037
3249.00,0.0037
3248.00,0.0037
3247.00,0.0037
3246.00,0.0038
3245.00,0.0037
3244.00,0.0037
3243.00,0.0037
3242.00,0.0037
3241.00,0.0037
3240.00,0.0037
3239.00,0.0037
3238.00,0.0037
3237.00,0.0037
3236.00,0.0036
3235.00,0.0036
3234.00,0.0036
3233.00,0.0036
3232.00,0.0037
3231.00,0.0037
3230.00,0.0037
3229.00,0.0037
3228.00,0.0038
3227.00,0.0038
3226.00,0.0038
3225.00,0.0038
3224.00,0.0038
3223.00,0.0038
3222.00,0.0039
3221.00,0.0039
3220.00,0.0039
3219.00,0.0039
3218.00,0.0039
3217.00,0.0039
3216.00,0.0039
3215.00,0.0040
3214.00,0.0040
3213.00,0.0041
3212.00,0.0041
3211.00,0.0041
3210.00,0.0041
3209.00,0.0041
3208.00,0.0041
3207.00,0.0041
3206.00,0.0042
3205.00,0.0043
3204.00,0.0043
3203.00,0.0042
3202.00,0.0042
3201.00,0.0042
3200.00,0.0042
3199.00,0.0042
3198.00,0.0042
3197.00,0.0042
3196.00,0.0042
3195.00,0.0042
3194.00,0.0042
3193.00,0.0043
3192.00,0.0043
3191.00,0.0042
3190.00,0.0042
3189.00,0.0042
3188.00,0.0042
3187.00,0.0042
3186.00,0.0041
3185.00,0.0041
3184.00,0.0040
3183.00,0.0040
3182.00,0.0040
3181.00,0.0040
3180.00,0.0040
3179.00,0.0040
3178.00,0.0039
3177.00,0.0039
3176.00,0.0039
3175.00,0.0039
3174.00,0.0038
3173.00,0.0039
3172.00,0.0038
3171.00,0.0038
3170.00,0.0038
3169.00,0.0038
3168.00,0.0038
3167.00,0.0038
3166.00,0.0037
3165.00,0.0037
3164.00,0.0037
3163.00,0.0037
3162.00,0.0037
3161.00,0.0037
3160.00,0.0037
3159.00,0.0037
3158.00,0.0037
3157.00,0.0036
3156.00,0.0036
3155.00,0.0036
3154.00,0.0036
3153.00,0.0036
3152.00,0.0036
3151.00,0.0036
3150.00,0.0036
3149.00,0.0035
3148.00,0.0035
3147.00,0.0035
3146.00,0.0035
3145.00,0.0035
3144.00,0.0035
3143.00,0.0035
3142.00,0.0036
3141.00,0.0036
3140.00,0.0035
3139.00,0.0035
3138.00,0.0035
3137.00,0.0034
3136.00,0.0034
3135.00,0.0034
3134.00,0.0034
3133.00,0.0033
3132.00,0.0033
3131.00,0.0032
3130.00,0.0032
3129.00,0.0032
3128.00,0.0032
3127.00,0.0032
3126.00,0.0032
3125.00,0.0032
3124.00,0.0032
3123.00,0.0032
3122.00,0.0031
3121.00,0.0031
3120.00,0.0030
3119.00,0.0030
3118.00,0.0029
3117.00,0.0030
3116.00,0.0030
3115.00,0.0030
3114.00,0.0030
3113.00,0.0030
3112.00,0.0030
3111.00,0.0030
3110.00,0.0029
3109.00,0.0029
3108.00,0.0028
3107.00,0.0028
3106.00,0.0028
3105.00,0.0028
3104.00,0.0028
3103.00,0.0028
3102.00,0.0028
3101.00,0.0028
3100.00,0.0028
3099.00,0.0028
3098.00,0.0028
3097.00,0.0028
3096.00,0.0028
3095.00,0.0028
3094.00,0.0028
3093.00,0.0027
3092.00,0.0027
3091.00,0.0027
3090.00,0.0027
3089.00,0.0026
3088.00,0.0026
3087.00,0.0026
3086.00,0.0026
3085.00,0.0026
3084.00,0.0027
3083.00,0.0027
3082.00,0.0027
3081.00,0.0027
3080.00,0.0027
3079.00,0.0027
3078.00,0.0027
3077.00,0.0027
3076.00,0.0028
3075.00,0.0028
3074.00,0.0028
3073.00,0.0028
3072.00,0.0028
3071.00,0.0028
3070.00,0.0028
3069.00,0.0028
3068.00,0.0028
3067.00,0.0028
3066.00,0.0028
3065.00,0.0028
3064.00,0.0029
3063.00,0.0029
3062.00,0.0029
3061.00,0.0029
3060.00,0.0029
3059.00,0.0029
3058.00,0.0030
3057.00,0.0030
3056.00,0.0029
3055.00,0.0029
3054.00,0.0030
3053.00,0.0030
3052.00,0.0031
3051.00,0.0031
3050.00,0.0032
3049.00,0.0032
3048.00,0.0032
3047.00,0.0032
3046.00,0.0032
3045.00,0.0032
3044.00,0.0032
3043.00,0.0032
3042.00,0.0032
3041.00,0.0032
3040.00,0.0032
3039.00,0.0033
3038.00,0.0033
3037.00,0.0033
3036.00,0.0033
3035.00,0.0034
3034.00,0.0034
3033.00,0.0035
3032.00,0.0035
3031.00,0.0036
3030.00,0.0037
3029.00,0.0037
3028.00,0.0038
3027.00,0.0038
3026.00,0.0039
3025.00,0.0039
3024.00,0.0040
3023.00,0.0041
3022.00,0.0042
3021.00,0.0043
3020.00,0.0044
3019.00,0.0045
3018.00,0.0046
3017.00,0.0047
3016.00,0.0049
3015.00,0.0050
3014.00,0.0052
3013.00,0.0053
3012.00,0.0055
3011.00,0.0058
3010.00,0.0060
3009.00,0.0063
3008.00,0.0066
3007.00,0.0069
3006.00,0.0072
3005.00,0.0075
3004.00,0.0079
3003.00,0.0082
3002.00,0.0086
3001.00,0.0089
3000.00,0.0093
2999.00,0.0096
2998.00,0.0100
2997.00,0.0104
2996.00,0.0108
2995.00,0.0113
2994.00,0.0119
2993.00,0.0125
2992.00,0.0131
2991.00,0.0138
2990.00,0.0144
2989.00,0.0152
2988.00,0.0161
2987.00,0.0171
2986.00,0.0183
2985.00,0.0197
2984.00,0.0213
2983.00,0.0231
2982.00,0.0249
2981.00,0.0267
2980.00,0.0285
2979.00,0.0305
2978.00,0.0328
2977.00,0.0355
2976.00,0.0386
2975.00,0.0422
2974.00,0.0464
2973.00,0.0512
2972.00,0.0564
2971.00,0.0622
2970.00,0.0686
2969.00,0.0754
2968.00,0.0828
2967.00,0.0906
2966.00,0.0986
2965.00,0.1067
2964.00,0.1144
2963.00,0.1215
2962.00,0.1278
2961.00,0.1330
2960.00,0.1376
2959.00,0.1418
2958.00,0.1463
2957.00,0.1515
2956.00,0.1579
2955.00,0.1656
2954.00,0.1744
2953.00,0.1837
2952.00,0.1926
2951.00,0.1999
2950.00,0.2044
2949.00,0.2048
2948.00,0.2005
2947.00,0.1917
2946.00,0.1793
2945.00,0.1649
2944.00,0.1504
2943.00,0.1372
2942.00,0.1265
2941.00,0.1185
2940.00,0.1134
2939.00,0.1109
2938.00,0.1108
2937.00,0.1127
2936.00,0.1166
2935.00,0.1222
2934.00,0.1294
2933.00,0.1380
2932.00,0.1479
2931.00,0.1588
2930.00,0.1704
2929.00,0.1824
2928.00,0.1945
2927.00,0.2064
2926.00,0.2179
2925.00,0.2290
2924.00,0.2398
2923.00,0.2505
2922.00,0.2612
2921.00,0.2717
2920.00,0.2812
2919.00,0.2888
2918.00,0.2935
2917.00,0.2942
2916.00,0.2907
2915.00,0.2834
2914.00,0.2733
2913.00,0.2615
2912.00,0.2492
2911.00,0.2374
2910.00,0.2264
2909.00,0.2162
2908.00,0.2068
2907.00,0.1979
2906.00,0.1893
2905.00,0.1809
2904.00,0.1727
2903.00,0.1648
2902.00,0.1571
2901.00,0.1496
2900.00,0.1426
2899.00,0.1360
2898.00,0.1300
2897.00,0.1246
2896.00,0.1199
2895.00,0.1159
2894.00,0.1127
2893.00,0.1103
2892.00,0.1086
2891.00,0.1077
2890.00,0.1073
2889.00,0.1075
2888.00,0.1080
2887.00,0.1090
2886.00,0.1103
2885.00,0.1121
2884.00,0.1143
2883.00,0.1171
2882.00,0.1203
2881.00,0.1240
2880.00,0.1277
2879.00,0.1309
2878.00,0.1332
2877.00,0.1343
2876.00,0.1342
2875.00,0.1333
2874.00,0.1324
2873.00,0.1319
2872.00,0.1323
2871.00,0.1336
2870.00,0.1357
2869.00,0.1380
2868.00,0.1396
2867.00,0.1396
2866.00,0.1370
2865.00,0.1313
2864.00,0.1229
2863.00,0.1125
2862.00,0.1015
2861.00,0.0911
2860.00,0.0819
2859.00,0.0745
2858.00,0.0687
2857.00,0.0644
2856.00,0.0613
2855.00,0.0594
2854.00,0.0583
2853.00,0.0581
2852.00,0.0587
2851.00,0.0600
2850.00,0.0621
2849.00,0.0649
2848.00,0.0685
2847.00,0.0729
2846.00,0.0782
2845.00,0.0844
2844.00,0.0914
2843.00,0.0989
2842.00,0.1067
2841.00,0.1141
2840.00,0.1203
2839.00,0.1245
2838.00,0.1258
2837.00,0.1236
2836.00,0.1177
2835.00,0.1089
2834.00,0.0981
2833.00,0.0867
2832.00,0.0756
2831.00,0.0657
2830.00,0.0573
2829.00,0.0505
2828.00,0.0450
2827.00,0.0405
2826.00,0.0370
2825.00,0.0340
2824.00,0.0316
2823.00,0.0295
2822.00,0.0278
2821.00,0.0263
2820.00,0.0250
2819.00,0.0239
2818.00,0.0229
2817.00,0.0221
2816.00,0.0213
2815.00,0.0207
2814.00,0.0200
2813.00,0.0194
2812.00,0.0188
2811.00,0.0183
2810.00,0.0177
2809.00,0.0171
2808.00,0.0164
2807.00,0.0157
2806.00,0.0151
2805.00,0.0144
2804.00,0.0138
2803.00,0.0131
2802.00,0.0126
2801.00,0.0121
2800.00,0.0117
2799.00,0.0113
2798.00,0.0111
2797.00,0.0108
2796.00,0.0106
2795.00,0.0103
2794.00,0.0100
2793.00,0.0098
2792.00,0.0095
2791.00,0.0092
2790.00,0.0089
2789.00,0.0086
2788.00,0.0083
2787.00,0.0080
2786.00,0.0078
2785.00,0.0076
2784.00,0.0074
2783.00,0.0071
2782.00,0.0069
2781.00,0.0067
2780.00,0.0065
2779.00,0.0064
2778.00,0.0063
2777.00,0.0062
2776.00,0.0060
2775.00,0.0059
2774.00,0.0059
2773.00,0.0058
2772.00,0.0058
2771.00,0.0058
2770.00,0.0057
2769.00,0.0057
2768.00,0.0056
2767.00,0.0056
2766.00,0.0055
2765.00,0.0055
2764.00,0.0055
2763.00,0.0054
2762.00,0.0054
2761.00,0.0054
2760.00,0.0053
2759.00,0.0053
2758.00,0.0053
2757.00,0.0053
2756.00,0.0053
2755.00,0.0052
2754.00,0.0052
2753.00,0.0052
2752.00,0.0052
2751.00,0.0052
2750.00,0.0052
2749.00,0.0052
2748.00,0.0052
2747.00,0.0053
2746.00,0.0053
2745.00,0.0054
2744.00,0.0054
2743.00,0.0055
2742.00,0.0056
2741.00,0.0057
2740.00,0.0058
2739.00,0.0060
2738.00,0.0061
2737.00,0.0063
2736.00,0.0065
2735.00,0.0067
2734.00,0.0069
2733.00,0.0071
2732.00,0.0073
2731.00,0.0075
2730.00,0.0078
2729.00,0.0080
2728.00,0.0083
2727.00,0.0086
2726.00,0.0089
2725.00,0.0092
2724.00,0.0093
2723.00,0.0094
2722.00,0.0093
2721.00,0.0091
2720.00,0.0088
2719.00,0.0084
2718.00,0.0080
2717.00,0.0076
2716.00,0.0073
2715.00,0.0070
2714.00,0.0067
2713.00,0.0065
2712.00,0.0062
2711.00,0.0060
2710.00,0.0058
2709.00,0.0057
2708.00,0.0055
2707.00,0.0054
2706.00,0.0053
2705.00,0.0051
2704.00,0.0050
2703.00,0.0049
2702.00,0.0048
2701.00,0.0047
2700.00,0.0047
2699.00,0.0046
2698.00,0.0045
2697.00,0.0045
2696.00,0.0044
2695.00,0.0045
2694.00,0.0045
2693.00,0.0045
2692.00,0.0045
2691.00,0.0045
2690.00,0.0045
2689.00,0.0045
2688.00,0.0045
2687.00,0.0045
2686.00,0.0045
2685.00,0.0045
2684.00,0.0045
2683.00,0.0045
2682.00,0.0045
2681.00,0.0046
2680.00,0.0046
2679.00,0.0046
2678.00,0.0046
2677.00,0.0046
2676.00,0.0046
2675.00,0.0046
2674.00,0.0046
2673.00,0.0046
2672.00,0.0046
2671.00,0.0046
2670.00,0.0046
2669.00,0.0045
2668.00,0.0045
2667.00,0.0045
2666.00,0.0046
2665.00,0.0046
2664.00,0.0047
2663.00,0.0048
2662.00,0.0048
2661.00,0.0048
2660.00,0.0048
2659.00,0.0048
2658.00,0.0048
2657.00,0.0048
2656.00,0.0048
2655.00,0.0047
2654.00,0.0047
2653.00,0.0046
2652.00,0.0045
2651.00,0.0045
2650.00,0.0044
2649.00,0.0044
2648.00,0.0044
2647.00,0.0043
2646.00,0.0043
2645.00,0.0043
2644.00,0.0042
2643.00,0.0041
2642.00,0.0041
2641.00,0.0040
2640.00,0.0039
2639.00,0.0039
2638.00,0.0039
2637.00,0.0039
2636.00,0.0039
2635.00,0.0038
2634.00,0.0038
2633.00,0.0038
2632.00,0.0039
2631.00,0.0039
2630.00,0.0039
2629.00,0.0039
2628.00,0.0039
2627.00,0.0039
2626.00,0.0039
2625.00,0.0039
2624.00,0.0040
2623.00,0.0040
2622.00,0.0040
2621.00,0.0041
2620.00,0.0041
2619.00,0.0040
2618.00,0.0040
2617.00,0.0040
2616.00,0.0040
2615.00,0.0040
2614.00,0.0039
2613.00,0.0039
2612.00,0.0039
2611.00,0.0039
2610.00,0.0039
2609.00,0.0039
2608.00,0.0038
2607.00,0.0037
2606.00,0.0036
2605.00,0.0035
2604.00,0.0034
2603.00,0.0033
2602.00,0.0033
2601.00,0.0033
2600.00,0.0034
2599.00,0.0034
2598.00,0.0033
2597.00,0.0033
2596.00,0.0033
2595.00,0.0033
2594.00,0.0033
2593.00,0.0034
2592.00,0.0034
2591.00,0.0034
2590.00,0.0035
2589.00,0.0035
2588.00,0.0036
2587.00,0.0038
2586.00,0.0039
2585.00,0.0040
2584.00,0.0040
2583.00,0.0041
2582.00,0.0041
2581.00,0.0041
2580.00,0.0041
2579.00,0.0041
2578.00,0.0040
2577.00,0.0039
2576.00,0.0038
2575.00,0.0036
2574.00,0.0034
2573.00,0.0033
2572.00,0.0031
2571.00,0.0030
2570.00,0.0029
2569.00,0.0029
2568.00,0.0028
2567.00,0.0027
2566.00,0.0027
2565.00,0.0027
2564.00,0.0026
2563.00,0.0026
2562.00,0.0025
2561.00,0.0025
2560.00,0.0024
2559.00,0.0024
2558.00,0.0023
2557.00,0.0022
2556.00,0.0022
2555.00,0.0022
2554.00,0.0022
2553.00,0.0022
2552.00,0.0021
2551.00,0.0020
2550.00,0.0020
2549.00,0.0020
2548.00,0.0019
2547.00,0.0019
2546.00,0.0019
2545.00,0.0019
2544.00,0.0018
2543.00,0.0017
2542.00,0.0016
2541.00,0.0016
2540.00,0.0016
2539.00,0.0016
2538.00,0.0016
2537.00,0.0017
2536.00,0.0017
2535.00,0.0016
2534.00,0.0016
2533.00,0.0015
2532.00,0.0015
2531.00,0.0015
2530.00,0.0014
2529.00,0.0014
2528.00,0.0014
2527.00,0.0014
2526.00,0.0013
2525.00,0.0013
2524.00,0.0013
2523.00,0.0013
2522.00,0.0013
2521.00,0.0013
2520.00,0.0013
2519.00,0.0013
2518.00,0.0013
2517.00,0.0013
2516.00,0.0012
2515.00,0.0012
2514.00,0.0012
2513.00,0.0011
2512.00,0.0011
2511.00,0.0011
2510.00,0.0011
2509.00,0.0010
2508.00,0.0010
2507.00,0.0010
2506.00,0.0010
2505.00,0.0010
2504.00,0.0011
2503.00,0.0011
2502.00,0.0011
2501.00,0.0010
2500.00,0.0010
2499.00,0.0010
2498.00,0.0010
2497.00,0.0011
2496.00,0.0011
2495.00,0.0012
2494.00,0.0012
2493.00,0.0012
2492.00,0.0012
2491.00,0.0012
2490.00,0.0011
2489.00,0.0011
2488.00,0.0011
2487.00,0.0011
2486.00,0.0012
2485.00,0.0012
2484.00,0.0011
2483.00,0.0011
2482.00,0.0010
2481.00,0.0010
2480.00,0.0010
2479.00,0.0010
2478.00,0.0010
2477.00,0.0010
2476.00,0.0009
2475.00,0.0009
2474.00,0.0009
2473.00,0.0009
2472.00,0.0009
2471.00,0.0009
2470.00,0.0009
2469.00,0.0009
2468.00,0.0009
2467.00,0.0008
2466.00,0.0009
2465.00,0.0009
2464.00,0.0009
2463.00,0.0009
2462.00,0.0009
2461.00,0.0010
2460.00,0.0010
2459.00,0.0010
2458.00,0.0010
2457.00,0.0011
2456.00,0.0011
2455.00,0.0012
2454.00,0.0012
2453.00,0.0012
2452.00,0.0012
2451.00,0.0011
2450.00,0.0011
2449.00,0.0011
2448.00,0.0012
2447.00,0.0012
2446.00,0.0012
2445.00,0.0012
2444.00,0.0012
2443.00,0.0012
2442.00,0.0012
2441.00,0.0011
2440.00,0.0010
2439.00,0.0009
2438.00,0.0009
2437.00,0.0009
2436.00,0.0010
2435.00,0.0010
2434.00,0.0010
2433.00,0.0010
2432.00,0.0011
2431.00,0.0012
2430.00,0.0012
2429.00,0.0013
2428.00,0.0013
2427.00,0.0013
2426.00,0.0013
2425.00,0.0013
2424.00,0.0013
2423.00,0.0013
2422.00,0.0012
2421.00,0.0012
2420.00,0.0012
2419.00,0.0012
2418.00,0.0011
2417.00,0.0010
2416.00,0.0010
2415.00,0.0009
2414.00,0.0009
2413.00,0.0010
2412.00,0.0011
2411.00,0.0011
2410.00,0.0011
2409.00,0.0011
2408.00,0.0010
2407.00,0.0009
2406.00,0.0008
2405.00,0.0007
2404.00,0.0008
2403.00,0.0008
2402.00,0.0008
2401.00,0.0008
2400.00,0.0008
2399.00,0.0008
2398.00,0.0008
2397.00,0.0007
2396.00,0.0007
2395.00,0.0007
2394.00,0.0007
2393.00,0.0007
2392.00,0.0007
2391.00,0.0007
2390.00,0.0007
2389.00,0.0007
2388.00,0.0007
2387.00,0.0006
2386.00,0.0006
2385.00,0.0005
2384.00,0.0005
2383.00,0.0005
2382.00,0.0005
2381.00,0.0004
2380.00,0.0003
2379.00,0.0003
2378.00,0.0004
2377.00,0.0004
2376.00,0.0005
2375.00,0.0005
2374.00,0.0005
2373.00,0.0004
2372.00,0.0004
2371.00,0.0003
2370.00,0.0003
2369.00,0.0003
2368.00,0.0002
2367.00,0.0002
2366.00,0.0002
2365.00,0.0002
2364.00,0.0003
2363.00,0.0004
2362.00,0.0004
2361.00,0.0004
2360.00,0.0004
2359.00,0.0003
2358.00,0.0004
2357.00,0.0005
2356.00,0.0005
2355.00,0.0005
2354.00,0.0004
2353.00,0.0003
2352.00,0.0002
2351.00,0.0001
2350.00,0.0001
2349.00,0.0002
2348.00,0.0004
2347.00,0.0005
2346.00,0.0005
2345.00,0.0006
2344.00,0.0006
2343.00,0.0006
2342.00,0.0007
2341.00,0.0007
2340.00,0.0007
2339.00,0.0007
2338.00,0.0006
2337.00,0.0006
2336.00,0.0005
2335.00,0.0005
2334.00,0.0005
2333.00,0.0004
2332.00,0.0004
2331.00,0.0003
2330.00,0.0003
2329.00,0.0004
2328.00,0.0007
2327.00,0.0011
2326.00,0.0016
2325.00,0.0020
2324.00,0.0022
2323.00,0.0021
2322.00,0.0019
2321.00,0.0017
2320.00,0.0016
2319.00,0.0015
2318.00,0.0014
2317.00,0.0014
2316.00,0.0013
2315.00,0.0012
2314.00,0.0011
2313.00,0.0010
2312.00,0.0009
2311.00,0.0008
2310.00,0.0008
2309.00,0.0008
2308.00,0.0009
2307.00,0.0009
2306.00,0.0010
2305.00,0.0010
2304.00,0.0010
2303.00,0.0010
2302.00,0.0010
2301.00,0.0010
2300.00,0.0010
2299.00,0.0010
2298.00,0.0011
2297.00,0.0011
2296.00,0.0012
2295.00,0.0013
2294.00,0.0014
2293.00,0.0015
2292.00,0.0016
2291.00,0.0017
2290.00,0.0017
2289.00,0.0018
2288.00,0.0019
2287.00,0.0019
2286.00,0.0019
2285.00,0.0019
2284.00,0.0018
2283.00,0.0018
2282.00,0.0018
2281.00,0.0018
2280.00,0.0017
2279.00,0.0015
2278.00,0.0014
2277.00,0.0012
2276.00,0.0012
2275.00,0.0012
2274.00,0.0013
2273.00,0.0013
2272.00,0.0013
2271.00,0.0014
2270.00,0.0014
2269.00,0.0013
2268.00,0.0013
2267.00,0.0012
2266.00,0.0012
2265.00,0.0012
2264.00,0.0012
2263.00,0.0012
2262.00,0.0012
2261.00,0.0011
2260.00,0.0011
2259.00,0.0012
2258.00,0.0013
2257.00,0.0013
2256.00,0.0012
2255.00,0.0011
2254.00,0.0010
2253.00,0.0009
2252.00,0.0008
2251.00,0.0008
2250.00,0.0007
2249.00,0.0007
2248.00,0.0007
2247.00,0.0007
2246.00,0.0008
2245.00,0.0008
2244.00,0.0008
2243.00,0.0007
2242.00,0.0007
2241.00,0.0008
2240.00,0.0008
2239.00,0.0008
2238.00,0.0008
2237.00,0.0008
2236.00,0.0009
2235.00,0.0010
2234.00,0.0010
2233.00,0.0009
2232.00,0.0009
2231.00,0.0008
2230.00,0.0008
2229.00,0.0009
2228.00,0.0009
2227.00,0.0008
2226.00,0.0008
2225.00,0.0007
2224.00,0.0007
2223.00,0.0006
2222.00,0.0006
2221.00,0.0006
2220.00,0.0006
2219.00,0.0006
2218.00,0.0006
2217.00,0.0006
2216.00,0.0008
2215.00,0.0009
2214.00,0.0010
2213.00,0.0010
2212.00,0.0010
2211.00,0.0009
2210.00,0.0007
2209.00,0.0007
2208.00,0.0007
2207.00,0.0007
2206.00,0.0007
2205.00,0.0008
2204.00,0.0009
2203.00,0.0010
2202.00,0.0011
2201.00,0.0010
2200.00,0.0009
2199.00,0.0009
2198.00,0.0009
2197.00,0.0010
2196.00,0.0010
2195.00,0.0009
2194.00,0.0007
2193.00,0.0007
2192.00,0.0008
2191.00,0.0009
2190.00,0.0009
2189.00,0.0009
2188.00,0.0008
2187.00,0.0007
2186.00,0.0007
2185.00,0.0008
2184.00,0.0010
2183.00,0.0010
2182.00,0.0008
2181.00,0.0005
2180.00,0.0003
2179.00,0.0003
2178.00,0.0005
2177.00,0.0006
2176.00,0.0006
2175.00,0.0005
2174.00,0.0005
2173.00,0.0006
2172.00,0.0008
2171.00,0.0008
2170.00,0.0008
2169.00,0.0009
2168.00,0.0011
2167.00,0.0012
2166.00,0.0013
2165.00,0.0014
2164.00,0.0015
2163.00,0.0018
2162.00,0.0019
2161.00,0.0016
2160.00,0.0007
2159.00,-0.0006
2158.00,-0.0019
2157.00,-0.0025
2156.00,-0.0025
2155.00,-0.0023
2154.00,-0.0021
2153.00,-0.0021
2152.00,-0.0022
2151.00,-0.0022
2150.00,-0.0020
2149.00,-0.0018
2148.00,-0.0017
2147.00,-0.0017
2146.00,-0.0017
2145.00,-0.0017
2144.00,-0.0015
2143.00,-0.0013
2142.00,-0.0012
2141.00,-0.0011
2140.00,-0.0010
2139.00,-0.0008
2138.00,-0.0007
2137.00,-0.0007
2136.00,-0.0009
2135.00,-0.0011
2134.00,-0.0014
2133.00,-0.0014
2132.00,-0.0014
2131.00,-0.0013
2130.00,-0.0011
2129.00,-0.0010
2128.00,-0.0008
2127.00,-0.0008
2126.00,-0.0007
2125.00,-0.0007
2124.00,-0.0006
2123.00,-0.0006
2122.00,-0.0006
2121.00,-0.0005
2120.00,-0.0005
2119.00,-0.0005
2118.00,-0.0004
2117.00,-0.0003
2116.00,-0.0000
2115.00,0.0002
2114.00,0.0003
2113.00,0.0004
2112.00,0.0003
2111.00,0.0003
2110.00,0.0002
2109.00,0.0001
2108.00,0.0002
2107.00,0.0002
2106.00,0.0002
2105.00,0.0002
2104.00,0.0001
2103.00,0.0001
2102.00,0.0001
2101.00,0.0001
2100.00,0.0002
2099.00,0.0001
2098.00,-0.0000
2097.00,-0.0003
2096.00,-0.0005
2095.00,-0.0006
2094.00,-0.0005
2093.00,-0.0003
2092.00,-0.0002
2091.00,-0.0001
2090.00,-0.0000
2089.00,0.0000
2088.00,0.0000
2087.00,0.0000
2086.00,-0.0000
2085.00,-0.0000
2084.00,0.0001
2083.00,0.0002
2082.00,0.0003
2081.00,0.0004
2080.00,0.0005
2079.00,0.0005
2078.00,0.0005
2077.00,0.0004
2076.00,0.0004
2075.00,0.0003
2074.00,0.0004
2073.00,0.0005
2072.00,0.0005
2071.00,0.0004
2070.00,0.0003
2069.00,0.0002
2068.00,0.0000
2067.00,-0.0001
2066.00,-0.0002
2065.00,-0.0002
2064.00,-0.0001
2063.00,-0.0000
2062.00,-0.0001
2061.00,-0.0001
2060.00,-0.0001
2059.00,-0.0001
2058.00,-0.0000
2057.00,0.0000
2056.00,0.0000
2055.00,0.0000
2054.00,0.0001
2053.00,0.0005
2052.00,0.0008
2051.00,0.0010
2050.00,0.0010
2049.00,0.0008
2048.00,0.0006
2047.00,0.0005
2046.00,0.0004
2045.00,0.0004
2044.00,0.0005
2043.00,0.0006
2042.00,0.0007
2041.00,0.0007
2040.00,0.0008
2039.00,0.0009
2038.00,0.0009
2037.00,0.0006
2036.00,0.0001
2035.00,-0.0005
2034.00,-0.0009
2033.00,-0.0009
2032.00,-0.0007
2031.00,-0.0005
2030.00,-0.0004
2029.00,-0.0004
2028.00,-0.0005
2027.00,-0.0006
2026.00,-0.0006
2025.00,-0.0006
2024.00,-0.0006
2023.00,-0.0006
2022.00,-0.0007
2021.00,-0.0010
2020.00,-0.0013
2019.00,-0.0016
2018.00,-0.0017
2017.00,-0.0016
2016.00,-0.0014
2015.00,-0.0011
2014.00,-0.0008
2013.00,-0.0007
2012.00,-0.0008
2011.00,-0.0011
2010.00,-0.0014
2009.00,-0.0017
2008.00,-0.0018
2007.00,-0.0017
2006.00,-0.0016
2005.00,-0.0016
2004.00,-0.0015
2003.00,-0.0014
2002.00,-0.0013
2001.00,-0.0014
2000.00,-0.0016
1999.00,-0.0018
1998.00,-0.0019
1997.00,-0.0017
1996.00,-0.0014
1995.00,-0.0010
1994.00,-0.0009
1993.00,-0.0008
1992.00,-0.0007
1991.00,-0.0005
1990.00,-0.0003
1989.00,-0.0000
1988.00,0.0001
1987.00,0.0001
1986.00,-0.0000
1985.00,-0.0001
1984.00,-0.0000
1983.00,0.0002
1982.00,0.0007
1981.00,0.0011
1980.00,0.0013
1979.00,0.0008
1978.00,0.0001
1977.00,-0.0005
1976.00,-0.0009
1975.00,-0.0010
1974.00,-0.0011
1973.00,-0.0013
1972.00,-0.0014
1971.00,-0.0013
1970.00,-0.0012
1969.00,-0.0008
1968.00,-0.0004
1967.00,-0.0002
1966.00,-0.0002
1965.00,-0.0004
1964.00,-0.0008
1963.00,-0.0012
1962.00,-0.0015
1961.00,-0.0017
1960.00,-0.0018
1959.00,-0.0019
1958.00,-0.0021
1957.00,-0.0022
1956.00,-0.0022
1955.00,-0.0021
1954.00,-0.0018
1953.00,-0.0015
1952.00,-0.0013
1951.00,-0.0014
1950.00,-0.0015
1949.00,-0.0017
1948.00,-0.0017
1947.00,-0.0016
1946.00,-0.0015
1945.00,-0.0013
1944.00,-0.0012
1943.00,-0.0011
1942.00,-0.0011
1941.00,-0.0011
1940.00,-0.0011
1939.00,-0.0010
1938.00,-0.0010
1937.00,-0.0010
1936.00,-0.0011
1935.00,-0.0013
1934.00,-0.0013
1933.00,-0.0012
1932.00,-0.0010
1931.00,-0.0008
1930.00,-0.0008
1929.00,-0.0008
1928.00,-0.0009
1927.00,-0.0009
1926.00,-0.0009
1925.00,-0.0009
1924.00,-0.0008
1923.00,-0.0007
1922.00,-0.0006
1921.00,-0.0005
1920.00,-0.0005
1919.00,-0.0005
1918.00,-0.0005
1917.00,-0.0005
1916.00,-0.0005
1915.00,-0.0004
1914.00,-0.0004
1913.00,-0.0003
1912.00,-0.0002
1911.00,-0.0001
1910.00,0.0001
1909.00,0.0001
1908.00,0.0001
1907.00,0.0000
1906.00,-0.0001
1905.00,-0.0002
1904.00,-0.0003
1903.00,-0.0004
1902.00,-0.0004
1901.00,-0.0003
1900.00,-0.0001
1899.00,0.0000
1898.00,0.0001
1897.00,0.0001
1896.00,0.0001
1895.00,0.0001
1894.00,0.0001
1893.00,0.0001
1892.00,0.0001
1891.00,0.0001
1890.00,0.0000
1889.00,-0.0001
1888.00,-0.0001
1887.00,-0.0002
1886.00,-0.0002
1885.00,-0.0002
1884.00,-0.0002
1883.00,-0.0002
1882.00,-0.0002
1881.00,-0.0002
1880.00,-0.0002
1879.00,-0.0002
1878.00,-0.0002
1877.00,-0.0001
1876.00,-0.0001
1875.00,-0.0001
1874.00,-0.0001
1873.00,-0.0001
1872.00,-0.0001
1871.00,-0.0001
1870.00,-0.0001
1869.00,-0.0001
1868.00,-0.0001
1867.00,-0.0001
1866.00,-0.0000
1865.00,0.0000
1864.00,0.0001
1863.00,0.0001
1862.00,0.0001
1861.00,0.0001
1860.00,0.0001
1859.00,0.0001
1858.00,0.0001
1857.00,0.0001
1856.00,0.0001
1855.00,0.0001
1854.00,0.0001
1853.00,0.0002
1852.00,0.0002
1851.00,0.0002
1850.00,0.0002
1849.00,0.0002
1848.00,0.0002
1847.00,0.0003
1846.00,0.0003
1845.00,0.0004
1844.00,0.0004
1843.00,0.0003
1842.00,0.0002
1841.00,0.0001
1840.00,0.0001
1839.00,0.0000
1838.00,0.0000
1837.00,0.0001
1836.00,0.0001
1835.00,0.0002
1834.00,0.0003
1833.00,0.0004
1832.00,0.0004
1831.00,0.0004
1830.00,0.0004
1829.00,0.0004
1828.00,0.0004
1827.00,0.0004
1826.00,0.0003
1825.00,0.0003
1824.00,0.0003
1823.00,0.0004
1822.00,0.0003
1821.00,0.0003
1820.00,0.0002
1819.00,0.0002
1818.00,0.0001
1817.00,0.0001
1816.00,0.0001
1815.00,0.0002
1814.00,0.0002
1813.00,0.0002
1812.00,0.0003
1811.00,0.0003
1810.00,0.0003
1809.00,0.0004
1808.00,0.0004
1807.00,0.0004
1806.00,0.0003
1805.00,0.0003
1804.00,0.0003
1803.00,0.0004
1802.00,0.0004
1801.00,0.0005
1800.00,0.0005
1799.00,0.0005
1798.00,0.0005
1797.00,0.0005
1796.00,0.0005
1795.00,0.0006
1794.00,0.0006
1793.00,0.0006
1792.00,0.0006
1791.00,0.0006
1790.00,0.0006
1789.00,0.0007
1788.00,0.0008
1787.00,0.0008
1786.00,0.0008
1785.00,0.0008
1784.00,0.0007
1783.00,0.0007
1782.00,0.0007
1781.00,0.0007
1780.00,0.0008
1779.00,0.0008
1778.00,0.0008
1777.00,0.0008
1776.00,0.0008
1775.00,0.0007
1774.00,0.0007
1773.00,0.0007
1772.00,0.0008
1771.00,0.0009
1770.00,0.0009
1769.00,0.0009
1768.00,0.0009
1767.00,0.0009
1766.00,0.0009
1765.00,0.0010
1764.00,0.0010
1763.00,0.0010
1762.00,0.0010
1761.00,0.0010
1760.00,0.0010
1759.00,0.0011
1758.00,0.0011
1757.00,0.0012
1756.00,0.0013
1755.00,0.0013
1754.00,0.0014
1753.00,0.0014
1752.00,0.0014
1751.00,0.0014
1750.00,0.0014
1749.00,0.0015
1748.00,0.0015
1747.00,0.0016
1746.00,0.0016
1745.00,0.0016
1744.00,0.0017
1743.00,0.0017
1742.00,0.0018
1741.00,0.0018
1740.00,0.0018
1739.00,0.0018
1738.00,0.0018
1737.00,0.0018
1736.00,0.0019
1735.00,0.0019
1734.00,0.0020
1733.00,0.0019
1732.00,0.0019
1731.00,0.0019
1730.00,0.0019
1729.00,0.0019
1728.00,0.0019
1727.00,0.0019
1726.00,0.0018
1725.00,0.0018
1724.00,0.0018
1723.00,0.0018
1722.00,0.0017
1721.00,0.0017
1720.00,0.0017
1719.00,0.0017
1718.00,0.0018
1717.00,0.0019
1716.00,0.0019
1715.00,0.0019
1714.00,0.0020
1713.00,0.0020
1712.00,0.0020
1711.00,0.0020
1710.00,0.0020
1709.00,0.0020
1708.00,0.0020
1707.00,0.0021
1706.00,0.0023
1705.00,0.0024
1704.00,0.0024
1703.00,0.0025
1702.00,0.0025
1701.00,0.0025
1700.00,0.0024
1699.00,0.0024
1698.00,0.0025
1697.00,0.0026
1696.00,0.0028
1695.00,0.0028
1694.00,0.0028
1693.00,0.0028
1692.00,0.0029
1691.00,0.0030
1690.00,0.0030
1689.00,0.0031
1688.00,0.0031
1687.00,0.0031
1686.00,0.0031
1685.00,0.0031
1684.00,0.0032
1683.00,0.0032
1682.00,0.0033
1681.00,0.0034
1680.00,0.0035
1679.00,0.0035
1678.00,0.0036
1677.00,0.0036
1676.00,0.0037
1675.00,0.0038
1674.00,0.0038
1673.00,0.0039
1672.00,0.0039
1671.00,0.0040
1670.00,0.0040
1669.00,0.0041
1668.00,0.0041
1667.00,0.0041
1666.00,0.0041
1665.00,0.0041
1664.00,0.0042
1663.00,0.0043
1662.00,0.0044
1661.00,0.0044
1660.00,0.0044
1659.00,0.0045
1658.00,0.0045
1657.00,0.0045
1656.00,0.0046
1655.00,0.0046
1654.00,0.0047
1653.00,0.0049
1652.00,0.0049
1651.00,0.0050
1650.00,0.0051
1649.00,0.0052
1648.00,0.0055
1647.00,0.0058
1646.00,0.0059
1645.00,0.0059
1644.00,0.0058
1643.00,0.0058
1642.00,0.0057
1641.00,0.0056
1640.00,0.0056
1639.00,0.0056
1638.00,0.0055
1637.00,0.0055
1636.00,0.0054
1635.00,0.0053
1634.00,0.0053
1633.00,0.0053
1632.00,0.0054
1631.00,0.0054
1630.00,0.0054
1629.00,0.0053
1628.00,0.0053
1627.00,0.0052
1626.00,0.0052
1625.00,0.0052
1624.00,0.0051
1623.00,0.0051
1622.00,0.0050
1621.00,0.0050
1620.00,0.0050
1619.00,0.0050
1618.00,0.0049
1617.00,0.0049
1616.00,0.0049
1615.00,0.0049
1614.00,0.0049
1613.00,0.0049
1612.00,0.0049
1611.00,0.0048
1610.00,0.0048
1609.00,0.0047
1608.00,0.0047
1607.00,0.0047
1606.00,0.0047
1605.00,0.0047
1604.00,0.0047
1603.00,0.0047
1602.00,0.0047
1601.00,0.0047
1600.00,0.0046
1599.00,0.0045
1598.00,0.0045
1597.00,0.0045
1596.00,0.0045
1595.00,0.0045
1594.00,0.0045
1593.00,0.0045
1592.00,0.0045
1591.00,0.0045
1590.00,0.0045
1589.00,0.0045
1588.00,0.0045
1587.00,0.0045
1586.00,0.0045
1585.00,0.0045
1584.00,0.0046
1583.00,0.0046
1582.00,0.0046
1581.00,0.0046
1580.00,0.0046
1579.00,0.0046
1578.00,0.0046
1577.00,0.0046
1576.00,0.0046
1575.00,0.0046
1574.00,0.0046
1573.00,0.0046
1572.00,0.0046
1571.00,0.0046
1570.00,0.0046
1569.00,0.0046
1568.00,0.0046
1567.00,0.0046
1566.00,0.0046
1565.00,0.0047
1564.00,0.0047
1563.00,0.0048
1562.00,0.0048
1561.00,0.0048
1560.00,0.0049
1559.00,0.0049
1558.00,0.0048
1557.00,0.0048
1556.00,0.0050
1555.00,0.0051
1554.00,0.0052
1553.00,0.0052
1552.00,0.0052
1551.00,0.0053
1550.00,0.0053
1549.00,0.0054
1548.00,0.0055
1547.00,0.0055
1546.00,0.0054
1545.00,0.0054
1544.00,0.0055
1543.00,0.0055
1542.00,0.0056
1541.00,0.0056
1540.00,0.0056
1539.00,0.0054
1538.00,0.0053
1537.00,0.0052
1536.00,0.0052
1535.00,0.0052
1534.00,0.0052
1533.00,0.0051
1532.00,0.0051
1531.00,0.0050
1530.00,0.0050
1529.00,0.0050
1528.00,0.0049
1527.00,0.0049
1526.00,0.0048
1525.00,0.0048
1524.00,0.0048
1523.00,0.0048
1522.00,0.0048
1521.00,0.0048
1520.00,0.0048
1519.00,0.0048
1518.00,0.0049
1517.00,0.0050
1516.00,0.0051
1515.00,0.0052
1514.00,0.0052
1513.00,0.0052
1512.00,0.0053
1511.00,0.0054
1510.00,0.0054
1509.00,0.0056
1508.00,0.0058
1507.00,0.0059
1506.00,0.0059
1505.00,0.0060
1504.00,0.0061
1503.00,0.0063
1502.00,0.0064
1501.00,0.0067
1500.00,0.0069
1499.00,0.0071
1498.00,0.0073
1497.00,0.0077
1496.00,0.0081
1495.00,0.0084
1494.00,0.0087
1493.00,0.0090
1492.00,0.0093
1491.00,0.0095
1490.00,0.0098
1489.00,0.0103
1488.00,0.0108
1487.00,0.0112
1486.00,0.0117
1485.00,0.0123
1484.00,0.0130
1483.00,0.0136
1482.00,0.0144
1481.00,0.0155
1480.00,0.0166
1479.00,0.0179
1478.00,0.0193
1477.00,0.0212
1476.00,0.0234
1475.00,0.0261
1474.00,0.0299
1473.00,0.0354
1472.00,0.0422
1471.00,0.0488
1470.00,0.0553
1469.00,0.0622
1468.00,0.0697
1467.00,0.0779
1466.00,0.0875
1465.00,0.0980
1464.00,0.1074
1463.00,0.1142
1462.00,0.1187
1461.00,0.1219
1460.00,0.1242
1459.00,0.1256
1458.00,0.1266
1457.00,0.1273
1456.00,0.1271
1455.00,0.1262
1454.00,0.1249
1453.00,0.1230
1452.00,0.1199
1451.00,0.1156
1450.00,0.1096
1449.00,0.1015
1448.00,0.0916
1447.00,0.0813
1446.00,0.0722
1445.00,0.0646
1444.00,0.0582
1443.00,0.0531
1442.00,0.0493
1441.00,0.0469
1440.00,0.0455
1439.00,0.0452
1438.00,0.0457
1437.00,0.0464
1436.00,0.0457
1435.00,0.0431
1434.00,0.0389
1433.00,0.0340
1432.00,0.0288
1431.00,0.0243
1430.00,0.0209
1429.00,0.0184
1428.00,0.0168
1427.00,0.0158
1426.00,0.0151
1425.00,0.0145
1424.00,0.0140
1423.00,0.0137
1422.00,0.0135
1421.00,0.0132
1420.00,0.0129
1419.00,0.0126
1418.00,0.0125
1417.00,0.0123
1416.00,0.0122
1415.00,0.0121
1414.00,0.0121
1413.00,0.0120
1412.00,0.0118
1411.00,0.0118
1410.00,0.0118
1409.00,0.0117
1408.00,0.0117
1407.00,0.0118
1406.00,0.0119
1405.00,0.0120
1404.00,0.0121
1403.00,0.0123
1402.00,0.0125
1401.00,0.0127
1400.00,0.0129
1399.00,0.0132
1398.00,0.0135
1397.00,0.0138
1396.00,0.0141
1395.00,0.0147
1394.00,0.0153
1393.00,0.0160
1392.00,0.0166
1391.00,0.0175
1390.00,0.0188
1389.00,0.0206
1388.00,0.0233
1387.00,0.0273
1386.00,0.0326
1385.00,0.0393
1384.00,0.0482
1383.00,0.0601
1382.00,0.0761
1381.00,0.0967
1380.00,0.1228
1379.00,0.1536
1378.00,0.1849
1377.00,0.2099
1376.00,0.2213
1375.00,0.2136
1374.00,0.1887
1373.00,0.1563
1372.00,0.1257
1371.00,0.1001
1370.00,0.0796
1369.00,0.0641
1368.00,0.0534
1367.00,0.0468
1366.00,0.0431
1365.00,0.0417
1364.00,0.0419
1363.00,0.0437
1362.00,0.0463
1361.00,0.0491
1360.00,0.0512
1359.00,0.0518
1358.00,0.0505
1357.00,0.0474
1356.00,0.0429
1355.00,0.0378
1354.00,0.0330
1353.00,0.0288
1352.00,0.0255
1351.00,0.0228
1350.00,0.0207
1349.00,0.0189
1348.00,0.0176
1347.00,0.0165
1346.00,0.0156
1345.00,0.0149
1344.00,0.0144
1343.00,0.0139
1342.00,0.0136
1341.00,0.0132
1340.00,0.0130
1339.00,0.0128
1338.00,0.0126
1337.00,0.0126
1336.00,0.0126
1335.00,0.0128
1334.00,0.0132
1333.00,0.0136
1332.00,0.0141
1331.00,0.0146
1330.00,0.0147
1329.00,0.0146
1328.00,0.0141
1327.00,0.0134
1326.00,0.0127
1325.00,0.0119
1324.00,0.0113
1323.00,0.0107
1322.00,0.0103
1321.00,0.0099
1320.00,0.0095
1319.00,0.0092
1318.00,0.0090
1317.00,0.0088
1316.00,0.0086
1315.00,0.0085
1314.00,0.0084
1313.00,0.0083
1312.00,0.0084
1311.00,0.0085
1310.00,0.0089
1309.00,0.0093
1308.00,0.0101
1307.00,0.0109
1306.00,0.0118
1305.00,0.0125
1304.00,0.0128
1303.00,0.0128
1302.00,0.0126
1301.00,0.0125
1300.00,0.0126
1299.00,0.0128
1298.00,0.0130
1297.00,0.0132
1296.00,0.0131
1295.00,0.0129
1294.00,0.0125
1293.00,0.0119
1292.00,0.0112
1291.00,0.0107
1290.00,0.0102
1289.00,0.0097
1288.00,0.0094
1287.00,0.0091
1286.00,0.0088
1285.00,0.0085
1284.00,0.0083
1283.00,0.0081
1282.00,0.0080
1281.00,0.0079
1280.00,0.0079
1279.00,0.0078
1278.00,0.0077
1277.00,0.0077
1276.00,0.0076
1275.00,0.0077
1274.00,0.0077
1273.00,0.0077
1272.00,0.0078
1271.00,0.0078
1270.00,0.0079
1269.00,0.0080
1268.00,0.0081
1267.00,0.0083
1266.00,0.0085
1265.00,0.0086
1264.00,0.0089
1263.00,0.0092
1262.00,0.0096
1261.00,0.0100
1260.00,0.0105
1259.00,0.0111
1258.00,0.0117
1257.00,0.0122
1256.00,0.0124
1255.00,0.0123
1254.00,0.0118
1253.00,0.0113
1252.00,0.0108
1251.00,0.0103
1250.00,0.0099
1249.00,0.0096
1248.00,0.0094
1247.00,0.0092
1246.00,0.0091
1245.00,0.0090
1244.00,0.0089
1243.00,0.0088
1242.00,0.0088
1241.00,0.0087
1240.00,0.0086
1239.00,0.0085
1238.00,0.0084
1237.00,0.0084
1236.00,0.0083
1235.00,0.0083
1234.00,0.0083
1233.00,0.0082
1232.00,0.0082
1231.00,0.0081
1230.00,0.0081
1229.00,0.0081
1228.00,0.0082
1227.00,0.0083
1226.00,0.0086
1225.00,0.0089
1224.00,0.0092
1223.00,0.0096
1222.00,0.0099
1221.00,0.0102
1220.00,0.0103
1219.00,0.0104
1218.00,0.0103
1217.00,0.0101
1216.00,0.0098
1215.00,0.0094
1214.00,0.0091
1213.00,0.0087
1212.00,0.0084
1211.00,0.0082
1210.00,0.0079
1209.00,0.0076
1208.00,0.0074
1207.00,0.0073
1206.00,0.0072
1205.00,0.0071
1204.00,0.0070
1203.00,0.0069
1202.00,0.0069
1201.00,0.0069
1200.00,0.0070
1199.00,0.0070
1198.00,0.0070
1197.00,0.0069
1196.00,0.0069
1195.00,0.0069
1194.00,0.0069
1193.00,0.0070
1192.00,0.0070
1191.00,0.0070
1190.00,0.0070
1189.00,0.0071
1188.00,0.0071
1187.00,0.0072
1186.00,0.0072
1185.00,0.0073
1184.00,0.0074
1183.00,0.0075
1182.00,0.0077
1181.00,0.0080
1180.00,0.0084
1179.00,0.0089
1178.00,0.0095
1177.00,0.0102
1176.00,0.0112
1175.00,0.0124
1174.00,0.0140
1173.00,0.0161
1172.00,0.0184
1171.00,0.0210
1170.00,0.0234
1169.00,0.0254
1168.00,0.0267
1167.00,0.0271
1166.00,0.0269
1165.00,0.0260
1164.00,0.0249
1163.00,0.0238
1162.00,0.0228
1161.00,0.0220
1160.00,0.0215
1159.00,0.0210
1158.00,0.0207
1157.00,0.0205
1156.00,0.0204
1155.00,0.0204
1154.00,0.0203
1153.00,0.0201
1152.00,0.0198
1151.00,0.0193
1150.00,0.0185
1149.00,0.0176
1148.00,0.0166
1147.00,0.0157
1146.00,0.0148
1145.00,0.0140
1144.00,0.0133
1143.00,0.0127
1142.00,0.0121
1141.00,0.0115
1140.00,0.0110
1139.00,0.0105
1138.00,0.0101
1137.00,0.0099
1136.00,0.0096
1135.00,0.0094
1134.00,0.0091
1133.00,0.0089
1132.00,0.0087
1131.00,0.0087
1130.00,0.0086
1129.00,0.0087
1128.00,0.0088
1127.00,0.0090
1126.00,0.0091
1125.00,0.0091
1124.00,0.0090
1123.00,0.0089
1122.00,0.0088
1121.00,0.0088
1120.00,0.0089
1119.00,0.0089
1118.00,0.0091
1117.00,0.0092
1116.00,0.0093
1115.00,0.0095
1114.00,0.0096
1113.00,0.0098
1112.00,0.0099
1111.00,0.0102
1110.00,0.0107
1109.00,0.0112
1108.00,0.0119
1107.00,0.0127
1106.00,0.0135
1105.00,0.0143
1104.00,0.0150
1103.00,0.0154
1102.00,0.0154
1101.00,0.0150
1100.00,0.0145
1099.00,0.0138
1098.00,0.0131
1097.00,0.0124
1096.00,0.0118
1095.00,0.0113
1094.00,0.0110
1093.00,0.0107
1092.00,0.0105
1091.00,0.0102
1090.00,0.0100
1089.00,0.0098
1088.00,0.0097
1087.00,0.0097
1086.00,0.0097
1085.00,0.0096
1084.00,0.0096
1083.00,0.0095
1082.00,0.0093
1081.00,0.0091
1080.00,0.0090
1079.00,0.0088
1078.00,0.0088
1077.00,0.0087
1076.00,0.0087
1075.00,0.0087
1074.00,0.0088
1073.00,0.0089
1072.00,0.0090
1071.00,0.0090
1070.00,0.0089
1069.00,0.0088
1068.00,0.0087
1067.00,0.0086
1066.00,0.0087
1065.00,0.0087
1064.00,0.0087
1063.00,0.0088
1062.00,0.0088
1061.00,0.0087
1060.00,0.0087
1059.00,0.0086
1058.00,0.0085
1057.00,0.0085
1056.00,0.0085
1055.00,0.0086
1054.00,0.0086
1053.00,0.0087
1052.00,0.0087
1051.00,0.0087
1050.00,0.0089
1049.00,0.0090
1048.00,0.0092
1047.00,0.0094
1046.00,0.0095
1045.00,0.0095
1044.00,0.0095
1043.00,0.0094
1042.00,0.0093
1041.00,0.0092
1040.00,0.0092
1039.00,0.0092
1038.00,0.0092
1037.00,0.0092
1036.00,0.0092
1035.00,0.0091
1034.00,0.0091
1033.00,0.0090
1032.00,0.0089
1031.00,0.0088
1030.00,0.0088
1029.00,0.0088
1028.00,0.0087
1027.00,0.0087
1026.00,0.0086
1025.00,0.0085
1024.00,0.0085
1023.00,0.0085
1022.00,0.0085
1021.00,0.0086
1020.00,0.0087
1019.00,0.0088
1018.00,0.0089
1017.00,0.0090
1016.00,0.0092
1015.00,0.0094
1014.00,0.0096
1013.00,0.0097
1012.00,0.0099
1011.00,0.0102
1010.00,0.0105
1009.00,0.0108
1008.00,0.0112
1007.00,0.0117
1006.00,0.0124
1005.00,0.0133
1004.00,0.0146
1003.00,0.0163
1002.00,0.0184
1001.00,0.0208
1000.00,0.0234
999.00,0.0253
998.00,0.0262
997.00,0.0256
996.00,0.0236
995.00,0.0209
994.00,0.0180
993.00,0.0155
992.00,0.0135
991.00,0.0120
990.00,0.0110
989.00,0.0103
988.00,0.0100
987.00,0.0098
986.00,0.0098
985.00,0.0100
984.00,0.0103
983.00,0.0110
982.00,0.0122
981.00,0.0137
980.00,0.0157
979.00,0.0182
978.00,0.0213
977.00,0.0250
976.00,0.0288
975.00,0.0322
974.00,0.0344
973.00,0.0349
972.00,0.0334
971.00,0.0304
970.00,0.0265
969.00,0.0227
968.00,0.0194
967.00,0.0169
966.00,0.0150
965.00,0.0135
964.00,0.0124
963.00,0.0115
962.00,0.0109
961.00,0.0105
960.00,0.0102
959.00,0.0100
958.00,0.0098
957.00,0.0096
956.00,0.0094
955.00,0.0093
954.00,0.0091
953.00,0.0090
952.00,0.0089
951.00,0.0087
950.00,0.0087
949.00,0.0088
948.00,0.0089
947.00,0.0091
946.00,0.0093
945.00,0.0096
944.00,0.0099
943.00,0.0104
942.00,0.0107
941.00,0.0109
940.00,0.0108
939.00,0.0103
938.00,0.0098
937.00,0.0091
936.00,0.0085
935.00,0.0080
934.00,0.0076
933.00,0.0073
932.00,0.0070
931.00,0.0068
930.00,0.0067
929.00,0.0066
928.00,0.0066
927.00,0.0065
926.00,0.0064
925.00,0.0063
924.00,0.0064
923.00,0.0065
922.00,0.0066
921.00,0.0066
920.00,0.0067
919.00,0.0067
918.00,0.0068
917.00,0.0069
916.00,0.0070
915.00,0.0071
914.00,0.0071
913.00,0.0072
912.00,0.0072
911.00,0.0072
910.00,0.0074
909.00,0.0076
908.00,0.0080
907.00,0.0086
906.00,0.0094
905.00,0.0107
904.00,0.0124
903.00,0.0145
902.00,0.0168
901.00,0.0189
900.00,0.0205
899.00,0.0209
898.00,0.0201
897.00,0.0183
896.00,0.0159
895.00,0.0136
894.00,0.0118
893.00,0.0104
892.00,0.0094
891.00,0.0087
890.00,0.0082
889.00,0.0078
888.00,0.0075
887.00,0.0071
886.00,0.0069
885.00,0.0068
884.00,0.0068
883.00,0.0069
882.00,0.0071
881.00,0.0071
880.00,0.0071
879.00,0.0070
878.00,0.0069
877.00,0.0067
876.00,0.0067
875.00,0.0068
874.00,0.0069
873.00,0.0069
872.00,0.0069
871.00,0.0069
870.00,0.0070
869.00,0.0070
868.00,0.0071
867.00,0.0072
866.00,0.0073
865.00,0.0075
864.00,0.0076
863.00,0.0077
862.00,0.0077
861.00,0.0077
860.00,0.0078
859.00,0.0079
858.00,0.0080
857.00,0.0082
856.00,0.0084
855.00,0.0086
854.00,0.0087
853.00,0.0088
852.00,0.0090
851.00,0.0093
850.00,0.0097
849.00,0.0103
848.00,0.0111
847.00,0.0121
846.00,0.0135
845.00,0.0157
844.00,0.0186
843.00,0.0218
842.00,0.0240
841.00,0.0244
840.00,0.0228
839.00,0.0200
838.00,0.0171
837.00,0.0149
836.00,0.0134
835.00,0.0124
834.00,0.0118
833.00,0.0114
832.00,0.0111
831.00,0.0109
830.00,0.0107
829.00,0.0104
828.00,0.0102
827.00,0.0101
826.00,0.0101
825.00,0.0101
824.00,0.0101
823.00,0.0102
822.00,0.0103
821.00,0.0106
820.00,0.0108
819.00,0.0111
818.00,0.0115
817.00,0.0121
816.00,0.0131
815.00,0.0146
814.00,0.0164
813.00,0.0184
812.00,0.0204
811.00,0.0221
810.00,0.0233
809.00,0.0239
808.00,0.0237
807.00,0.0227
806.00,0.0211
805.00,0.0191
804.00,0.0172
803.00,0.0153
802.00,0.0139
801.00,0.0128
800.00,0.0119
799.00,0.0112
798.00,0.0106
797.00,0.0101
796.00,0.0096
795.00,0.0092
794.00,0.0088
793.00,0.0086
792.00,0.0085
791.00,0.0084
790.00,0.0083
789.00,0.0081
788.00,0.0078
787.00,0.0075
786.00,0.0071
785.00,0.0068
784.00,0.0066
783.00,0.0065
782.00,0.0063
781.00,0.0060
780.00,0.0059
779.00,0.0059
778.00,0.0060
777.00,0.0061
776.00,0.0061
775.00,0.0061
774.00,0.0062
773.00,0.0063
772.00,0.0066
771.00,0.0069
770.00,0.0072
769.00,0.0073
768.00,0.0074
767.00,0.0075
766.00,0.0074
765.00,0.0073
764.00,0.0070
763.00,0.0067
762.00,0.0064
761.00,0.0062
760.00,0.0060
759.00,0.0057
758.00,0.0055
757.00,0.0053
756.00,0.0051
755.00,0.0051
754.00,0.0052
753.00,0.0053
752.00,0.0054
751.00,0.0054
750.00,0.0054
749.00,0.0053
748.00,0.0053
747.00,0.0053
746.00,0.0054
745.00,0.0055
744.00,0.0055
743.00,0.0055
742.00,0.0056
741.00,0.0056
740.00,0.0058
739.00,0.0059
738.00,0.0061
737.00,0.0063
736.00,0.0064
735.00,0.0063
734.00,0.0063
733.00,0.0063
732.00,0.0063
731.00,0.0063
730.00,0.0064
729.00,0.0064
728.00,0.0064
727.00,0.0064
726.00,0.0065
725.00,0.0064
724.00,0.0062
723.00,0.0059
722.00,0.0057
721.00,0.0055
720.00,0.0054
719.00,0.0054
718.00,0.0055
717.00,0.0056
716.00,0.0057
715.00,0.0057
714.00,0.0057
713.00,0.0056
712.00,0.0055
711.00,0.0054
710.00,0.0053
709.00,0.0051
708.00,0.0051
707.00,0.0052
706.00,0.0054
705.00,0.0054
704.00,0.0053
703.00,0.0053
702.00,0.0053
701.00,0.0053
700.00,0.0052
699.00,0.0051
698.00,0.0051
697.00,0.0052
696.00,0.0053
695.00,0.0053
694.00,0.0052
693.00,0.0050
692.00,0.0047
691.00,0.0046
690.00,0.0046
689.00,0.0048
688.00,0.0050
687.00,0.0050
686.00,0.0049
685.00,0.0048
684.00,0.0047
683.00,0.0047
682.00,0.0047
681.00,0.0048
680.00,0.0050
679.00,0.0051
678.00,0.0051
677.00,0.0050
676.00,0.0047
675.00,0.0046
674.00,0.0045
673.00,0.0046
672.00,0.0048
671.00,0.0050
670.00,0.0051
669.00,0.0052
668.00,0.0051
667.00,0.0051
666.00,0.0050
665.00,0.0050
664.00,0.0051
663.00,0.0053
662.00,0.0055
661.00,0.0055
660.00,0.0055
659.00,0.0053
658.00,0.0052
657.00,0.0051
656.00,0.0052
655.00,0.0053
654.00,0.0052
653.00,0.0051
652.00,0.0051
651.00,0.0051
650.00,0.0052
649.00,0.0051
648.00,0.0049
647.00,0.0047
646.00,0.0046
645.00,0.0047
644.00,0.0049
643.00,0.0050
642.00,0.0050
641.00,0.0050
640.00,0.0051
639.00,0.0052
638.00,0.0054
637.00,0.0056
636.00,0.0056
635.00,0.0055
634.00,0.0055
633.00,0.0056
632.00,0.0058
631.00,0.0060
630.00,0.0061
629.00,0.0060
628.00,0.0058
627.00,0.0056
626.00,0.0054
625.00,0.0053
624.00,0.0053
623.00,0.0052
622.00,0.0052
621.00,0.0052
620.00,0.0051
619.00,0.0050
618.00,0.0050
617.00,0.0050
616.00,0.0051
615.00,0.0052
614.00,0.0054
613.00,0.0055
612.00,0.0057
611.00,0.0059
610.00,0.0063
609.00,0.0065
608.00,0.0065
607.00,0.0061
606.00,0.0057
605.00,0.0054
604.00,0.0053
603.00,0.0053
602.00,0.0054
601.00,0.0054
600.00,0.0052
599.00,0.0050
598.00,0.0049
597.00,0.0051
596.00,0.0055
595.00,0.0060
594.00,0.0063
593.00,0.0063
592.00,0.0062
591.00,0.0061
590.00,0.0060
589.00,0.0059
588.00,0.0057
587.00,0.0055
586.00,0.0054
585.00,0.0054
584.00,0.0055
583.00,0.0057
582.00,0.0059
581.00,0.0060
580.00,0.0060
579.00,0.0060
578.00,0.0060
577.00,0.0058
576.00,0.0056
575.00,0.0056
574.00,0.0058
573.00,0.0061
572.00,0.0063
571.00,0.0062
570.00,0.0060
569.00,0.0057
568.00,0.0055
567.00,0.0056
566.00,0.0058
565.00,0.0059
564.00,0.0060
563.00,0.0059
562.00,0.0059
561.00,0.0059
560.00,0.0061
559.00,0.0062
558.00,0.0062
557.00,0.0060
556.00,0.0059
555.00,0.0059
554.00,0.0060
553.00,0.0061
552.00,0.0061
551.00,0.0061
550.00,0.0062
549.00,0.0062
548.00,0.0062
547.00,0.0062
546.00,0.0062
545.00,0.0062
544.00,0.0062
543.00,0.0063
542.00,0.0065
541.00,0.0069
540.00,0.0072
539.00,0.0073
538.00,0.0073
537.00,0.0072
536.00,0.0071
535.00,0.0071
534.00,0.0073
533.00,0.0075
532.00,0.0079
531.00,0.0084
530.00,0.0088
529.00,0.0088
528.00,0.0085
527.00,0.0082
526.00,0.0082
525.00,0.0084
524.00,0.0087
523.00,0.0087
522.00,0.0086
521.00,0.0084
520.00,0.0082
519.00,0.0080
518.00,0.0075
517.00,0.0070
516.00,0.0067
515.00,0.0068
514.00,0.0073
513.00,0.0074
512.00,0.0068
511.00,0.0056
510.00,0.0049
509.00,0.0051
508.00,0.0060
507.00,0.0069
506.00,0.0072
505.00,0.0069
504.00,0.0064
503.00,0.0061
502.00,0.0057
501.00,0.0055
500.00,0.0053
499.00,0.0053
498.00,0.0055
497.00,0.0059
496.00,0.0064
495.00,0.0067
494.00,0.0068
493.00,0.0066
492.00,0.0064
491.00,0.0064
490.00,0.0064
489.00,0.0064
488.00,0.0062
487.00,0.0061
486.00,0.0061
485.00,0.0059
484.00,0.0059
483.00,0.0061
482.00,0.0062
481.00,0.0061
480.00,0.0059
479.00,0.0062
478.00,0.0069
477.00,0.0076
476.00,0.0075
475.00,0.0069
474.00,0.0061
473.00,0.0052
472.00,0.0046
471.00,0.0047
470.00,0.0056
469.00,0.0068
468.00,0.0079
467.00,0.0087
466.00,0.0094
465.00,0.0102
464.00,0.0113
463.00,0.0128
462.00,0.0147
461.00,0.0164
460.00,0.0172
459.00,0.0168
458.00,0.0155
457.00,0.0139
456.00,0.0128
455.00,0.0126
454.00,0.0130
453.00,0.0132
452.00,0.0128
451.00,0.0120
450.00,0.0114
