Created as New Dataset,Sample 128 By Administrator Date Tuesday, September 09 2025
cm-1,A
4000.00,0.0007
3999.00,0.0007
3998.00,0.0007
3997.00,0.0007
3996.00,0.0008
3995.00,0.0008
3994.00,0.0008
3993.00,0.0008
3992.00,0.0008
3991.00,0.0008
3990.00,0.0008
3989.00,0.0008
3988.00,0.0008
3987.00,0.0007
3986.00,0.0007
3985.00,0.0007
3984.00,0.0007
3983.00,0.0007
3982.00,0.0007
3981.00,0.0007
3980.00,0.0007
3979.00,0.0007
3978.00,0.0007
3977.00,0.0007
3976.00,0.0006
3975.00,0.0006
3974.00,0.0006
3973.00,0.0006
3972.00,0.0006
3971.00,0.0006
3970.00,0.0006
3969.00,0.0006
3968.00,0.0006
3967.00,0.0006
3966.00,0.0006
3965.00,0.0006
3964.00,0.0006
3963.00,0.0006
3962.00,0.0006
3961.00,0.0005
3960.00,0.0005
3959.00,0.0005
3958.00,0.0006
3957.00,0.0006
3956.00,0.0006
3955.00,0.0006
3954.00,0.0006
3953.00,0.0005
3952.00,0.0005
3951.00,0.0005
3950.00,0.0005
3949.00,0.0005
3948.00,0.0005
3947.00,0.0005
3946.00,0.0005
3945.00,0.0005
3944.00,0.0005
3943.00,0.0005
3942.00,0.0005
3941.00,0.0005
3940.00,0.0005
3939.00,0.0005
3938.00,0.0005
3937.00,0.0006
3936.00,0.0006
3935.00,0.0006
3934.00,0.0006
3933.00,0.0006
3932.00,0.0006
3931.00,0.0006
3930.00,0.0006
3929.00,0.0006
3928.00,0.0005
3927.00,0.0005
3926.00,0.0004
3925.00,0.0004
3924.00,0.0004
3923.00,0.0005
3922.00,0.0005
3921.00,0.0005
3920.00,0.0005
3919.00,0.0005
3918.00,0.0005
3917.00,0.0005
3916.00,0.0005
3915.00,0.0006
3914.00,0.0006
3913.00,0.0005
3912.00,0.0005
3911.00,0.0005
3910.00,0.0005
3909.00,0.0005
3908.00,0.0005
3907.00,0.0005
3906.00,0.0004
3905.00,0.0004
3904.00,0.0004
3903.00,0.0004
3902.00,0.0004
3901.00,0.0005
3900.00,0.0005
3899.00,0.0005
3898.00,0.0005
3897.00,0.0006
3896.00,0.0006
3895.00,0.0006
3894.00,0.0006
3893.00,0.0006
3892.00,0.0006
3891.00,0.0006
3890.00,0.0006
3889.00,0.0006
3888.00,0.0006
3887.00,0.0006
3886.00,0.0006
3885.00,0.0006
3884.00,0.0005
3883.00,0.0005
3882.00,0.0004
3881.00,0.0004
3880.00,0.0004
3879.00,0.0005
3878.00,0.0005
3877.00,0.0005
3876.00,0.0005
3875.00,0.0005
3874.00,0.0004
3873.00,0.0004
3872.00,0.0004
3871.00,0.0004
3870.00,0.0004
3869.00,0.0004
3868.00,0.0004
3867.00,0.0004
3866.00,0.0004
3865.00,0.0004
3864.00,0.0004
3863.00,0.0004
3862.00,0.0004
3861.00,0.0004
3860.00,0.0004
3859.00,0.0004
3858.00,0.0004
3857.00,0.0004
3856.00,0.0004
3855.00,0.0004
3854.00,0.0005
3853.00,0.0005
3852.00,0.0005
3851.00,0.0005
3850.00,0.0004
3849.00,0.0004
3848.00,0.0004
3847.00,0.0004
3846.00,0.0004
3845.00,0.0004
3844.00,0.0004
3843.00,0.0004
3842.00,0.0004
3841.00,0.0005
3840.00,0.0005
3839.00,0.0005
3838.00,0.0005
3837.00,0.0005
3836.00,0.0005
3835.00,0.0004
3834.00,0.0004
3833.00,0.0004
3832.00,0.0004
3831.00,0.0004
3830.00,0.0004
3829.00,0.0004
3828.00,0.0004
3827.00,0.0004
3826.00,0.0004
3825.00,0.0004
3824.00,0.0005
3823.00,0.0005
3822.00,0.0005
3821.00,0.0004
3820.00,0.0004
3819.00,0.0004
3818.00,0.0005
3817.00,0.0005
3816.00,0.0005
3815.00,0.0006
3814.00,0.0006
3813.00,0.0006
3812.00,0.0006
3811.00,0.0006
3810.00,0.0006
3809.00,0.0006
3808.00,0.0005
3807.00,0.0005
3806.00,0.0004
3805.00,0.0004
3804.00,0.0005
3803.00,0.0005
3802.00,0.0005
3801.00,0.0005
3800.00,0.0005
3799.00,0.0005
3798.00,0.0005
3797.00,0.0005
3796.00,0.0005
3795.00,0.0005
3794.00,0.0005
3793.00,0.0005
3792.00,0.0005
3791.00,0.0005
3790.00,0.0005
3789.00,0.0006
3788.00,0.0005
3787.00,0.0005
3786.00,0.0005
3785.00,0.0005
3784.00,0.0005
3783.00,0.0005
3782.00,0.0006
3781.00,0.0006
3780.00,0.0006
3779.00,0.0006
3778.00,0.0006
3777.00,0.0006
3776.00,0.0006
3775.00,0.0005
3774.00,0.0005
3773.00,0.0005
3772.00,0.0005
3771.00,0.0005
3770.00,0.0006
3769.00,0.0006
3768.00,0.0006
3767.00,0.0006
3766.00,0.0006
3765.00,0.0006
3764.00,0.0007
3763.00,0.0007
3762.00,0.0007
3761.00,0.0007
3760.00,0.0007
3759.00,0.0006
3758.00,0.0007
3757.00,0.0007
3756.00,0.0007
3755.00,0.0007
3754.00,0.0007
3753.00,0.0007
3752.00,0.0007
3751.00,0.0007
3750.00,0.0007
3749.00,0.0006
3748.00,0.0006
3747.00,0.0005
3746.00,0.0005
3745.00,0.0005
3744.00,0.0004
3743.00,0.0004
3742.00,0.0003
3741.00,0.0003
3740.00,0.0003
3739.00,0.0003
3738.00,0.0003
3737.00,0.0003
3736.00,0.0003
3735.00,0.0003
3734.00,0.0003
3733.00,0.0003
3732.00,0.0003
3731.00,0.0003
3730.00,0.0003
3729.00,0.0002
3728.00,0.0002
3727.00,0.0002
3726.00,0.0002
3725.00,0.0002
3724.00,0.0002
3723.00,0.0003
3722.00,0.0003
3721.00,0.0003
3720.00,0.0003
3719.00,0.0003
3718.00,0.0003
3717.00,0.0004
3716.00,0.0004
3715.00,0.0004
3714.00,0.0005
3713.00,0.0005
3712.00,0.0004
3711.00,0.0003
3710.00,0.0003
3709.00,0.0002
3708.00,0.0002
3707.00,0.0002
3706.00,0.0002
3705.00,0.0002
3704.00,0.0003
3703.00,0.0003
3702.00,0.0003
3701.00,0.0003
3700.00,0.0003
3699.00,0.0003
3698.00,0.0004
3697.00,0.0004
3696.00,0.0003
3695.00,0.0003
3694.00,0.0003
3693.00,0.0003
3692.00,0.0002
3691.00,0.0003
3690.00,0.0003
3689.00,0.0003
3688.00,0.0003
3687.00,0.0003
3686.00,0.0003
3685.00,0.0003
3684.00,0.0003
3683.00,0.0003
3682.00,0.0002
3681.00,0.0002
3680.00,0.0002
3679.00,0.0003
3678.00,0.0003
3677.00,0.0004
3676.00,0.0004
3675.00,0.0004
3674.00,0.0004
3673.00,0.0004
3672.00,0.0004
3671.00,0.0004
3670.00,0.0004
3669.00,0.0004
3668.00,0.0003
3667.00,0.0003
3666.00,0.0004
3665.00,0.0004
3664.00,0.0004
3663.00,0.0004
3662.00,0.0004
3661.00,0.0003
3660.00,0.0003
3659.00,0.0002
3658.00,0.0002
3657.00,0.0002
3656.00,0.0003
3655.00,0.0003
3654.00,0.0003
3653.00,0.0002
3652.00,0.0002
3651.00,0.0002
3650.00,0.0003
3649.00,0.0003
3648.00,0.0003
3647.00,0.0003
3646.00,0.0003
3645.00,0.0003
3644.00,0.0003
3643.00,0.0003
3642.00,0.0003
3641.00,0.0003
3640.00,0.0003
3639.00,0.0003
3638.00,0.0003
3637.00,0.0003
3636.00,0.0004
3635.00,0.0004
3634.00,0.0003
3633.00,0.0003
3632.00,0.0002
3631.00,0.0002
3630.00,0.0002
3629.00,0.0001
3628.00,0.0001
3627.00,0.0002
3626.00,0.0002
3625.00,0.0002
3624.00,0.0002
3623.00,0.0002
3622.00,0.0003
3621.00,0.0003
3620.00,0.0003
3619.00,0.0003
3618.00,0.0002
3617.00,0.0002
3616.00,0.0002
3615.00,0.0003
3614.00,0.0003
3613.00,0.0003
3612.00,0.0003
3611.00,0.0003
3610.00,0.0002
3609.00,0.0002
3608.00,0.0002
3607.00,0.0002
3606.00,0.0002
3605.00,0.0003
3604.00,0.0003
3603.00,0.0003
3602.00,0.0003
3601.00,0.0003
3600.00,0.0003
3599.00,0.0003
3598.00,0.0003
3597.00,0.0003
3596.00,0.0003
3595.00,0.0003
3594.00,0.0003
3593.00,0.0003
3592.00,0.0003
3591.00,0.0003
3590.00,0.0004
3589.00,0.0004
3588.00,0.0004
3587.00,0.0003
3586.00,0.0003
3585.00,0.0004
3584.00,0.0004
3583.00,0.0004
3582.00,0.0005
3581.00,0.0005
3580.00,0.0005
3579.00,0.0005
3578.00,0.0006
3577.00,0.0006
3576.00,0.0006
3575.00,0.0006
3574.00,0.0006
3573.00,0.0006
3572.00,0.0006
3571.00,0.0006
3570.00,0.0006
3569.00,0.0007
3568.00,0.0007
3567.00,0.0007
3566.00,0.0006
3565.00,0.0006
3564.00,0.0006
3563.00,0.0007
3562.00,0.0007
3561.00,0.0007
3560.00,0.0008
3559.00,0.0009
3558.00,0.0009
3557.00,0.0009
3556.00,0.0009
3555.00,0.0009
3554.00,0.0009
3553.00,0.0009
3552.00,0.0009
3551.00,0.0009
3550.00,0.0010
3549.00,0.0010
3548.00,0.0010
3547.00,0.0010
3546.00,0.0010
3545.00,0.0010
3544.00,0.0010
3543.00,0.0010
3542.00,0.0011
3541.00,0.0011
3540.00,0.0011
3539.00,0.0011
3538.00,0.0011
3537.00,0.0011
3536.00,0.0012
3535.00,0.0012
3534.00,0.0012
3533.00,0.0013
3532.00,0.0013
3531.00,0.0013
3530.00,0.0012
3529.00,0.0012
3528.00,0.0012
3527.00,0.0012
3526.00,0.0012
3525.00,0.0012
3524.00,0.0012
3523.00,0.0012
3522.00,0.0012
3521.00,0.0012
3520.00,0.0013
3519.00,0.0013
3518.00,0.0013
3517.00,0.0013
3516.00,0.0014
3515.00,0.0014
3514.00,0.0014
3513.00,0.0015
3512.00,0.0015
3511.00,0.0015
3510.00,0.0015
3509.00,0.0015
3508.00,0.0015
3507.00,0.0015
3506.00,0.0014
3505.00,0.0014
3504.00,0.0014
3503.00,0.0014
3502.00,0.0015
3501.00,0.0016
3500.00,0.0016
3499.00,0.0016
3498.00,0.0016
3497.00,0.0016
3496.00,0.0016
3495.00,0.0016
3494.00,0.0016
3493.00,0.0017
3492.00,0.0017
3491.00,0.0017
3490.00,0.0017
3489.00,0.0017
3488.00,0.0017
3487.00,0.0017
3486.00,0.0017
3485.00,0.0017
3484.00,0.0018
3483.00,0.0018
3482.00,0.0018
3481.00,0.0018
3480.00,0.0018
3479.00,0.0018
3478.00,0.0019
3477.00,0.0019
3476.00,0.0019
3475.00,0.0019
3474.00,0.0019
3473.00,0.0020
3472.00,0.0020
3471.00,0.0019
3470.00,0.0019
3469.00,0.0019
3468.00,0.0019
3467.00,0.0019
3466.00,0.0019
3465.00,0.0019
3464.00,0.0020
3463.00,0.0020
3462.00,0.0020
3461.00,0.0021
3460.00,0.0021
3459.00,0.0021
3458.00,0.0021
3457.00,0.0021
3456.00,0.0021
3455.00,0.0021
3454.00,0.0021
3453.00,0.0021
3452.00,0.0021
3451.00,0.0022
3450.00,0.0022
3449.00,0.0022
3448.00,0.0022
3447.00,0.0022
3446.00,0.0022
3445.00,0.0022
3444.00,0.0023
3443.00,0.0023
3442.00,0.0023
3441.00,0.0023
3440.00,0.0023
3439.00,0.0023
3438.00,0.0024
3437.00,0.0024
3436.00,0.0024
3435.00,0.0025
3434.00,0.0025
3433.00,0.0025
3432.00,0.0025
3431.00,0.0025
3430.00,0.0024
3429.00,0.0024
3428.00,0.0025
3427.00,0.0025
3426.00,0.0025
3425.00,0.0026
3424.00,0.0026
3423.00,0.0026
3422.00,0.0026
3421.00,0.0026
3420.00,0.0025
3419.00,0.0025
3418.00,0.0025
3417.00,0.0025
3416.00,0.0025
3415.00,0.0025
3414.00,0.0025
3413.00,0.0026
3412.00,0.0026
3411.00,0.0026
3410.00,0.0026
3409.00,0.0026
3408.00,0.0027
3407.00,0.0027
3406.00,0.0027
3405.00,0.0027
3404.00,0.0027
3403.00,0.0027
3402.00,0.0027
3401.00,0.0027
3400.00,0.0027
3399.00,0.0027
3398.00,0.0026
3397.00,0.0026
3396.00,0.0026
3395.00,0.0026
3394.00,0.0026
3393.00,0.0026
3392.00,0.0026
3391.00,0.0027
3390.00,0.0027
3389.00,0.0027
3388.00,0.0027
3387.00,0.0027
3386.00,0.0027
3385.00,0.0027
3384.00,0.0027
3383.00,0.0027
3382.00,0.0027
3381.00,0.0027
3380.00,0.0028
3379.00,0.0028
3378.00,0.0028
3377.00,0.0028
3376.00,0.0027
3375.00,0.0027
3374.00,0.0027
3373.00,0.0027
3372.00,0.0026
3371.00,0.0026
3370.00,0.0027
3369.00,0.0027
3368.00,0.0027
3367.00,0.0027
3366.00,0.0027
3365.00,0.0027
3364.00,0.0027
3363.00,0.0027
3362.00,0.0027
3361.00,0.0028
3360.00,0.0028
3359.00,0.0028
3358.00,0.0028
3357.00,0.0028
3356.00,0.0028
3355.00,0.0028
3354.00,0.0028
3353.00,0.0028
3352.00,0.0028
3351.00,0.0028
3350.00,0.0028
3349.00,0.0028
3348.00,0.0028
3347.00,0.0028
3346.00,0.0028
3345.00,0.0027
3344.00,0.0027
3343.00,0.0027
3342.00,0.0027
3341.00,0.0027
3340.00,0.0027
3339.00,0.0027
3338.00,0.0027
3337.00,0.0026
3336.00,0.0026
3335.00,0.0026
3334.00,0.0026
3333.00,0.0026
3332.00,0.0027
3331.00,0.0027
3330.00,0.0027
3329.00,0.0027
3328.00,0.0026
3327.00,0.0026
3326.00,0.0026
3325.00,0.0026
3324.00,0.0026
3323.00,0.0026
3322.00,0.0026
3321.00,0.0026
3320.00,0.0025
3319.00,0.0025
3318.00,0.0025
3317.00,0.0026
3316.00,0.0026
3315.00,0.0026
3314.00,0.0026
3313.00,0.0026
3312.00,0.0026
3311.00,0.0026
3310.00,0.0026
3309.00,0.0025
3308.00,0.0025
3307.00,0.0025
3306.00,0.0025
3305.00,0.0025
3304.00,0.0025
3303.00,0.0025
3302.00,0.0026
3301.00,0.0026
3300.00,0.0026
3299.00,0.0026
3298.00,0.0026
3297.00,0.0025
3296.00,0.0025
3295.00,0.0025
3294.00,0.0025
3293.00,0.0025
3292.00,0.0025
3291.00,0.0024
3290.00,0.0024
3289.00,0.0025
3288.00,0.0025
3287.00,0.0026
3286.00,0.0026
3285.00,0.0026
3284.00,0.0026
3283.00,0.0026
3282.00,0.0025
3281.00,0.0025
3280.00,0.0025
3279.00,0.0025
3278.00,0.0025
3277.00,0.0025
3276.00,0.0025
3275.00,0.0025
3274.00,0.0024
3273.00,0.0024
3272.00,0.0024
3271.00,0.0025
3270.00,0.0025
3269.00,0.0025
3268.00,0.0025
3267.00,0.0025
3266.00,0.0025
3265.00,0.0024
3264.00,0.0024
3263.00,0.0024
3262.00,0.0024
3261.00,0.0024
3260.00,0.0024
3259.00,0.0023
3258.00,0.0023
3257.00,0.0023
3256.00,0.0023
3255.00,0.0023
3254.00,0.0023
3253.00,0.0023
3252.00,0.0022
3251.00,0.0022
3250.00,0.0022
3249.00,0.0022
3248.00,0.0023
3247.00,0.0023
3246.00,0.0022
3245.00,0.0022
3244.00,0.0023
3243.00,0.0023
3242.00,0.0023
3241.00,0.0023
3240.00,0.0023
3239.00,0.0023
3238.00,0.0023
3237.00,0.0023
3236.00,0.0023
3235.00,0.0023
3234.00,0.0023
3233.00,0.0023
3232.00,0.0024
3231.00,0.0024
3230.00,0.0024
3229.00,0.0024
3228.00,0.0024
3227.00,0.0024
3226.00,0.0024
3225.00,0.0024
3224.00,0.0024
3223.00,0.0024
3222.00,0.0025
3221.00,0.0025
3220.00,0.0025
3219.00,0.0025
3218.00,0.0026
3217.00,0.0026
3216.00,0.0026
3215.00,0.0027
3214.00,0.0027
3213.00,0.0028
3212.00,0.0028
3211.00,0.0028
3210.00,0.0028
3209.00,0.0028
3208.00,0.0028
3207.00,0.0028
3206.00,0.0028
3205.00,0.0028
3204.00,0.0028
3203.00,0.0028
3202.00,0.0028
3201.00,0.0028
3200.00,0.0028
3199.00,0.0028
3198.00,0.0028
3197.00,0.0028
3196.00,0.0028
3195.00,0.0028
3194.00,0.0028
3193.00,0.0028
3192.00,0.0028
3191.00,0.0028
3190.00,0.0027
3189.00,0.0027
3188.00,0.0027
3187.00,0.0027
3186.00,0.0027
3185.00,0.0027
3184.00,0.0026
3183.00,0.0026
3182.00,0.0026
3181.00,0.0026
3180.00,0.0026
3179.00,0.0026
3178.00,0.0026
3177.00,0.0026
3176.00,0.0026
3175.00,0.0026
3174.00,0.0026
3173.00,0.0026
3172.00,0.0026
3171.00,0.0025
3170.00,0.0025
3169.00,0.0024
3168.00,0.0024
3167.00,0.0024
3166.00,0.0024
3165.00,0.0024
3164.00,0.0024
3163.00,0.0025
3162.00,0.0025
3161.00,0.0025
3160.00,0.0025
3159.00,0.0025
3158.00,0.0025
3157.00,0.0025
3156.00,0.0024
3155.00,0.0024
3154.00,0.0024
3153.00,0.0024
3152.00,0.0024
3151.00,0.0024
3150.00,0.0025
3149.00,0.0025
3148.00,0.0025
3147.00,0.0025
3146.00,0.0025
3145.00,0.0025
3144.00,0.0025
3143.00,0.0025
3142.00,0.0025
3141.00,0.0025
3140.00,0.0025
3139.00,0.0025
3138.00,0.0025
3137.00,0.0025
3136.00,0.0024
3135.00,0.0024
3134.00,0.0023
3133.00,0.0023
3132.00,0.0023
3131.00,0.0023
3130.00,0.0023
3129.00,0.0023
3128.00,0.0023
3127.00,0.0022
3126.00,0.0022
3125.00,0.0021
3124.00,0.0021
3123.00,0.0021
3122.00,0.0021
3121.00,0.0021
3120.00,0.0021
3119.00,0.0021
3118.00,0.0021
3117.00,0.0021
3116.00,0.0021
3115.00,0.0020
3114.00,0.0020
3113.00,0.0020
3112.00,0.0020
3111.00,0.0020
3110.00,0.0020
3109.00,0.0020
3108.00,0.0020
3107.00,0.0019
3106.00,0.0019
3105.00,0.0020
3104.00,0.0020
3103.00,0.0020
3102.00,0.0020
3101.00,0.0020
3100.00,0.0020
3099.00,0.0020
3098.00,0.0020
3097.00,0.0020
3096.00,0.0020
3095.00,0.0020
3094.00,0.0020
3093.00,0.0020
3092.00,0.0019
3091.00,0.0019
3090.00,0.0019
3089.00,0.0019
3088.00,0.0019
3087.00,0.0019
3086.00,0.0019
3085.00,0.0019
3084.00,0.0019
3083.00,0.0019
3082.00,0.0019
3081.00,0.0019
3080.00,0.0019
3079.00,0.0019
3078.00,0.0019
3077.00,0.0019
3076.00,0.0020
3075.00,0.0020
3074.00,0.0020
3073.00,0.0021
3072.00,0.0021
3071.00,0.0021
3070.00,0.0021
3069.00,0.0021
3068.00,0.0021
3067.00,0.0021
3066.00,0.0022
3065.00,0.0022
3064.00,0.0023
3063.00,0.0023
3062.00,0.0023
3061.00,0.0023
3060.00,0.0023
3059.00,0.0023
3058.00,0.0023
3057.00,0.0023
3056.00,0.0023
3055.00,0.0023
3054.00,0.0023
3053.00,0.0023
3052.00,0.0023
3051.00,0.0023
3050.00,0.0024
3049.00,0.0024
3048.00,0.0024
3047.00,0.0025
3046.00,0.0025
3045.00,0.0025
3044.00,0.0025
3043.00,0.0025
3042.00,0.0026
3041.00,0.0026
3040.00,0.0026
3039.00,0.0026
3038.00,0.0026
3037.00,0.0027
3036.00,0.0027
3035.00,0.0028
3034.00,0.0028
3033.00,0.0029
3032.00,0.0030
3031.00,0.0030
3030.00,0.0031
3029.00,0.0031
3028.00,0.0032
3027.00,0.0032
3026.00,0.0033
3025.00,0.0034
3024.00,0.0034
3023.00,0.0034
3022.00,0.0034
3021.00,0.0035
3020.00,0.0036
3019.00,0.0037
3018.00,0.0038
3017.00,0.0039
3016.00,0.0040
3015.00,0.0041
3014.00,0.0041
3013.00,0.0043
3012.00,0.0044
3011.00,0.0046
3010.00,0.0048
3009.00,0.0050
3008.00,0.0051
3007.00,0.0053
3006.00,0.0055
3005.00,0.0057
3004.00,0.0059
3003.00,0.0061
3002.00,0.0064
3001.00,0.0066
3000.00,0.0069
2999.00,0.0071
2998.00,0.0075
2997.00,0.0079
2996.00,0.0083
2995.00,0.0087
2994.00,0.0092
2993.00,0.0097
2992.00,0.0103
2991.00,0.0109
2990.00,0.0115
2989.00,0.0123
2988.00,0.0131
2987.00,0.0140
2986.00,0.0149
2985.00,0.0161
2984.00,0.0173
2983.00,0.0187
2982.00,0.0204
2981.00,0.0222
2980.00,0.0242
2979.00,0.0264
2978.00,0.0290
2977.00,0.0319
2976.00,0.0351
2975.00,0.0388
2974.00,0.0431
2973.00,0.0478
2972.00,0.0531
2971.00,0.0591
2970.00,0.0656
2969.00,0.0727
2968.00,0.0802
2967.00,0.0882
2966.00,0.0963
2965.00,0.1044
2964.00,0.1121
2963.00,0.1192
2962.00,0.1255
2961.00,0.1309
2960.00,0.1356
2959.00,0.1400
2958.00,0.1447
2957.00,0.1502
2956.00,0.1569
2955.00,0.1648
2954.00,0.1738
2953.00,0.1833
2952.00,0.1922
2951.00,0.1995
2950.00,0.2038
2949.00,0.2041
2948.00,0.1998
2947.00,0.1911
2946.00,0.1788
2945.00,0.1646
2944.00,0.1502
2943.00,0.1370
2942.00,0.1263
2941.00,0.1183
2940.00,0.1132
2939.00,0.1108
2938.00,0.1108
2937.00,0.1129
2936.00,0.1168
2935.00,0.1225
2934.00,0.1298
2933.00,0.1385
2932.00,0.1485
2931.00,0.1595
2930.00,0.1713
2929.00,0.1835
2928.00,0.1956
2927.00,0.2075
2926.00,0.2189
2925.00,0.2297
2924.00,0.2402
2923.00,0.2506
2922.00,0.2608
2921.00,0.2708
2920.00,0.2798
2919.00,0.2869
2918.00,0.2912
2917.00,0.2916
2916.00,0.2881
2915.00,0.2810
2914.00,0.2711
2913.00,0.2598
2912.00,0.2480
2911.00,0.2364
2910.00,0.2256
2909.00,0.2156
2908.00,0.2063
2907.00,0.1975
2906.00,0.1891
2905.00,0.1808
2904.00,0.1726
2903.00,0.1647
2902.00,0.1570
2901.00,0.1497
2900.00,0.1428
2899.00,0.1363
2898.00,0.1303
2897.00,0.1250
2896.00,0.1202
2895.00,0.1162
2894.00,0.1130
2893.00,0.1105
2892.00,0.1088
2891.00,0.1077
2890.00,0.1071
2889.00,0.1071
2888.00,0.1076
2887.00,0.1084
2886.00,0.1097
2885.00,0.1113
2884.00,0.1135
2883.00,0.1163
2882.00,0.1195
2881.00,0.1231
2880.00,0.1268
2879.00,0.1300
2878.00,0.1324
2877.00,0.1335
2876.00,0.1335
2875.00,0.1327
2874.00,0.1317
2873.00,0.1313
2872.00,0.1317
2871.00,0.1330
2870.00,0.1352
2869.00,0.1374
2868.00,0.1390
2867.00,0.1388
2866.00,0.1361
2865.00,0.1302
2864.00,0.1217
2863.00,0.1114
2862.00,0.1005
2861.00,0.0902
2860.00,0.0812
2859.00,0.0738
2858.00,0.0682
2857.00,0.0640
2856.00,0.0611
2855.00,0.0592
2854.00,0.0582
2853.00,0.0579
2852.00,0.0583
2851.00,0.0595
2850.00,0.0614
2849.00,0.0643
2848.00,0.0680
2847.00,0.0726
2846.00,0.0780
2845.00,0.0843
2844.00,0.0913
2843.00,0.0988
2842.00,0.1065
2841.00,0.1137
2840.00,0.1198
2839.00,0.1239
2838.00,0.1251
2837.00,0.1228
2836.00,0.1170
2835.00,0.1081
2834.00,0.0974
2833.00,0.0859
2832.00,0.0749
2831.00,0.0650
2830.00,0.0566
2829.00,0.0497
2828.00,0.0442
2827.00,0.0397
2826.00,0.0361
2825.00,0.0332
2824.00,0.0307
2823.00,0.0287
2822.00,0.0269
2821.00,0.0255
2820.00,0.0242
2819.00,0.0231
2818.00,0.0222
2817.00,0.0214
2816.00,0.0206
2815.00,0.0200
2814.00,0.0194
2813.00,0.0188
2812.00,0.0183
2811.00,0.0177
2810.00,0.0171
2809.00,0.0165
2808.00,0.0158
2807.00,0.0152
2806.00,0.0145
2805.00,0.0139
2804.00,0.0132
2803.00,0.0126
2802.00,0.0121
2801.00,0.0116
2800.00,0.0112
2799.00,0.0109
2798.00,0.0106
2797.00,0.0103
2796.00,0.0100
2795.00,0.0097
2794.00,0.0095
2793.00,0.0092
2792.00,0.0089
2791.00,0.0086
2790.00,0.0083
2789.00,0.0080
2788.00,0.0077
2787.00,0.0075
2786.00,0.0072
2785.00,0.0070
2784.00,0.0068
2783.00,0.0066
2782.00,0.0064
2781.00,0.0063
2780.00,0.0061
2779.00,0.0059
2778.00,0.0058
2777.00,0.0056
2776.00,0.0055
2775.00,0.0055
2774.00,0.0054
2773.00,0.0053
2772.00,0.0052
2771.00,0.0052
2770.00,0.0051
2769.00,0.0051
2768.00,0.0051
2767.00,0.0051
2766.00,0.0051
2765.00,0.0051
2764.00,0.0051
2763.00,0.0050
2762.00,0.0050
2761.00,0.0049
2760.00,0.0049
2759.00,0.0049
2758.00,0.0049
2757.00,0.0049
2756.00,0.0049
2755.00,0.0048
2754.00,0.0048
2753.00,0.0048
2752.00,0.0047
2751.00,0.0047
2750.00,0.0047
2749.00,0.0047
2748.00,0.0047
2747.00,0.0048
2746.00,0.0049
2745.00,0.0050
2744.00,0.0050
2743.00,0.0051
2742.00,0.0052
2741.00,0.0054
2740.00,0.0055
2739.00,0.0056
2738.00,0.0058
2737.00,0.0060
2736.00,0.0061
2735.00,0.0063
2734.00,0.0065
2733.00,0.0067
2732.00,0.0069
2731.00,0.0071
2730.00,0.0073
2729.00,0.0076
2728.00,0.0079
2727.00,0.0082
2726.00,0.0085
2725.00,0.0088
2724.00,0.0089
2723.00,0.0089
2722.00,0.0088
2721.00,0.0086
2720.00,0.0083
2719.00,0.0080
2718.00,0.0077
2717.00,0.0073
2716.00,0.0070
2715.00,0.0067
2714.00,0.0064
2713.00,0.0062
2712.00,0.0059
2711.00,0.0057
2710.00,0.0054
2709.00,0.0052
2708.00,0.0050
2707.00,0.0049
2706.00,0.0048
2705.00,0.0047
2704.00,0.0046
2703.00,0.0045
2702.00,0.0044
2701.00,0.0044
2700.00,0.0043
2699.00,0.0042
2698.00,0.0042
2697.00,0.0041
2696.00,0.0041
2695.00,0.0041
2694.00,0.0040
2693.00,0.0040
2692.00,0.0041
2691.00,0.0041
2690.00,0.0041
2689.00,0.0041
2688.00,0.0041
2687.00,0.0041
2686.00,0.0041
2685.00,0.0041
2684.00,0.0041
2683.00,0.0041
2682.00,0.0041
2681.00,0.0041
2680.00,0.0042
2679.00,0.0042
2678.00,0.0042
2677.00,0.0042
2676.00,0.0042
2675.00,0.0042
2674.00,0.0042
2673.00,0.0041
2672.00,0.0041
2671.00,0.0041
2670.00,0.0041
2669.00,0.0041
2668.00,0.0041
2667.00,0.0041
2666.00,0.0041
2665.00,0.0042
2664.00,0.0043
2663.00,0.0044
2662.00,0.0044
2661.00,0.0045
2660.00,0.0045
2659.00,0.0045
2658.00,0.0045
2657.00,0.0044
2656.00,0.0044
2655.00,0.0043
2654.00,0.0043
2653.00,0.0042
2652.00,0.0042
2651.00,0.0041
2650.00,0.0041
2649.00,0.0041
2648.00,0.0040
2647.00,0.0040
2646.00,0.0040
2645.00,0.0039
2644.00,0.0038
2643.00,0.0038
2642.00,0.0037
2641.00,0.0037
2640.00,0.0036
2639.00,0.0036
2638.00,0.0036
2637.00,0.0036
2636.00,0.0036
2635.00,0.0035
2634.00,0.0035
2633.00,0.0035
2632.00,0.0035
2631.00,0.0036
2630.00,0.0036
2629.00,0.0037
2628.00,0.0037
2627.00,0.0037
2626.00,0.0037
2625.00,0.0037
2624.00,0.0037
2623.00,0.0037
2622.00,0.0037
2621.00,0.0037
2620.00,0.0037
2619.00,0.0037
2618.00,0.0037
2617.00,0.0038
2616.00,0.0038
2615.00,0.0039
2614.00,0.0039
2613.00,0.0038
2612.00,0.0037
2611.00,0.0036
2610.00,0.0035
2609.00,0.0034
2608.00,0.0033
2607.00,0.0033
2606.00,0.0032
2605.00,0.0032
2604.00,0.0031
2603.00,0.0031
2602.00,0.0030
2601.00,0.0030
2600.00,0.0030
2599.00,0.0030
2598.00,0.0030
2597.00,0.0031
2596.00,0.0031
2595.00,0.0031
2594.00,0.0032
2593.00,0.0033
2592.00,0.0033
2591.00,0.0034
2590.00,0.0035
2589.00,0.0035
2588.00,0.0035
2587.00,0.0036
2586.00,0.0036
2585.00,0.0037
2584.00,0.0038
2583.00,0.0038
2582.00,0.0038
2581.00,0.0037
2580.00,0.0037
2579.00,0.0036
2578.00,0.0035
2577.00,0.0034
2576.00,0.0033
2575.00,0.0032
2574.00,0.0031
2573.00,0.0031
2572.00,0.0030
2571.00,0.0028
2570.00,0.0027
2569.00,0.0026
2568.00,0.0026
2567.00,0.0025
2566.00,0.0025
2565.00,0.0024
2564.00,0.0024
2563.00,0.0023
2562.00,0.0023
2561.00,0.0022
2560.00,0.0021
2559.00,0.0021
2558.00,0.0020
2557.00,0.0020
2556.00,0.0020
2555.00,0.0020
2554.00,0.0020
2553.00,0.0020
2552.00,0.0020
2551.00,0.0019
2550.00,0.0018
2549.00,0.0018
2548.00,0.0018
2547.00,0.0018
2546.00,0.0018
2545.00,0.0018
2544.00,0.0018
2543.00,0.0017
2542.00,0.0015
2541.00,0.0014
2540.00,0.0013
2539.00,0.0013
2538.00,0.0013
2537.00,0.0013
2536.00,0.0013
2535.00,0.0013
2534.00,0.0012
2533.00,0.0012
2532.00,0.0012
2531.00,0.0012
2530.00,0.0013
2529.00,0.0013
2528.00,0.0014
2527.00,0.0013
2526.00,0.0013
2525.00,0.0012
2524.00,0.0012
2523.00,0.0012
2522.00,0.0011
2521.00,0.0012
2520.00,0.0012
2519.00,0.0011
2518.00,0.0011
2517.00,0.0010
2516.00,0.0009
2515.00,0.0009
2514.00,0.0009
2513.00,0.0009
2512.00,0.0009
2511.00,0.0009
2510.00,0.0009
2509.00,0.0009
2508.00,0.0009
2507.00,0.0009
2506.00,0.0009
2505.00,0.0009
2504.00,0.0009
2503.00,0.0008
2502.00,0.0008
2501.00,0.0009
2500.00,0.0009
2499.00,0.0009
2498.00,0.0009
2497.00,0.0009
2496.00,0.0009
2495.00,0.0009
2494.00,0.0009
2493.00,0.0009
2492.00,0.0009
2491.00,0.0008
2490.00,0.0008
2489.00,0.0008
2488.00,0.0008
2487.00,0.0008
2486.00,0.0008
2485.00,0.0008
2484.00,0.0008
2483.00,0.0008
2482.00,0.0008
2481.00,0.0008
2480.00,0.0007
2479.00,0.0007
2478.00,0.0007
2477.00,0.0007
2476.00,0.0007
2475.00,0.0007
2474.00,0.0007
2473.00,0.0007
2472.00,0.0006
2471.00,0.0006
2470.00,0.0007
2469.00,0.0007
2468.00,0.0007
2467.00,0.0007
2466.00,0.0007
2465.00,0.0007
2464.00,0.0007
2463.00,0.0008
2462.00,0.0008
2461.00,0.0008
2460.00,0.0008
2459.00,0.0008
2458.00,0.0008
2457.00,0.0009
2456.00,0.0009
2455.00,0.0009
2454.00,0.0009
2453.00,0.0009
2452.00,0.0009
2451.00,0.0008
2450.00,0.0008
2449.00,0.0008
2448.00,0.0008
2447.00,0.0008
2446.00,0.0009
2445.00,0.0009
2444.00,0.0009
2443.00,0.0009
2442.00,0.0009
2441.00,0.0009
2440.00,0.0009
2439.00,0.0009
2438.00,0.0009
2437.00,0.0009
2436.00,0.0010
2435.00,0.0010
2434.00,0.0010
2433.00,0.0010
2432.00,0.0010
2431.00,0.0010
2430.00,0.0010
2429.00,0.0010
2428.00,0.0010
2427.00,0.0010
2426.00,0.0011
2425.00,0.0011
2424.00,0.0011
2423.00,0.0010
2422.00,0.0010
2421.00,0.0009
2420.00,0.0009
2419.00,0.0008
2418.00,0.0008
2417.00,0.0008
2416.00,0.0008
2415.00,0.0008
2414.00,0.0008
2413.00,0.0007
2412.00,0.0006
2411.00,0.0006
2410.00,0.0006
2409.00,0.0006
2408.00,0.0007
2407.00,0.0006
2406.00,0.0006
2405.00,0.0006
2404.00,0.0006
2403.00,0.0006
2402.00,0.0006
2401.00,0.0006
2400.00,0.0006
2399.00,0.0006
2398.00,0.0006
2397.00,0.0006
2396.00,0.0006
2395.00,0.0006
2394.00,0.0005
2393.00,0.0006
2392.00,0.0006
2391.00,0.0006
2390.00,0.0006
2389.00,0.0005
2388.00,0.0005
2387.00,0.0004
2386.00,0.0003
2385.00,0.0003
2384.00,0.0002
2383.00,0.0002
2382.00,0.0001
2381.00,0.0001
2380.00,0.0000
2379.00,0.0000
2378.00,0.0000
2377.00,0.0001
2376.00,0.0001
2375.00,0.0001
2374.00,0.0001
2373.00,0.0001
2372.00,0.0001
2371.00,0.0001
2370.00,0.0001
2369.00,0.0001
2368.00,0.0001
2367.00,0.0000
2366.00,0.0000
2365.00,0.0000
2364.00,0.0000
2363.00,0.0000
2362.00,0.0001
2361.00,0.0001
2360.00,0.0001
2359.00,0.0001
2358.00,0.0001
2357.00,0.0001
2356.00,0.0002
2355.00,0.0003
2354.00,0.0003
2353.00,0.0002
2352.00,0.0001
2351.00,0.0001
2350.00,0.0002
2349.00,0.0002
2348.00,0.0003
2347.00,0.0003
2346.00,0.0003
2345.00,0.0003
2344.00,0.0004
2343.00,0.0004
2342.00,0.0005
2341.00,0.0005
2340.00,0.0005
2339.00,0.0005
2338.00,0.0005
2337.00,0.0005
2336.00,0.0005
2335.00,0.0005
2334.00,0.0005
2333.00,0.0005
2332.00,0.0005
2331.00,0.0005
2330.00,0.0005
2329.00,0.0006
2328.00,0.0007
2327.00,0.0010
2326.00,0.0014
2325.00,0.0018
2324.00,0.0020
2323.00,0.0020
2322.00,0.0017
2321.00,0.0015
2320.00,0.0014
2319.00,0.0012
2318.00,0.0012
2317.00,0.0011
2316.00,0.0009
2315.00,0.0008
2314.00,0.0006
2313.00,0.0005
2312.00,0.0004
2311.00,0.0004
2310.00,0.0004
2309.00,0.0004
2308.00,0.0005
2307.00,0.0005
2306.00,0.0006
2305.00,0.0006
2304.00,0.0007
2303.00,0.0007
2302.00,0.0007
2301.00,0.0007
2300.00,0.0007
2299.00,0.0008
2298.00,0.0008
2297.00,0.0009
2296.00,0.0009
2295.00,0.0009
2294.00,0.0010
2293.00,0.0011
2292.00,0.0011
2291.00,0.0013
2290.00,0.0014
2289.00,0.0015
2288.00,0.0016
2287.00,0.0017
2286.00,0.0017
2285.00,0.0016
2284.00,0.0016
2283.00,0.0016
2282.00,0.0015
2281.00,0.0014
2280.00,0.0013
2279.00,0.0012
2278.00,0.0011
2277.00,0.0011
2276.00,0.0011
2275.00,0.0010
2274.00,0.0010
2273.00,0.0010
2272.00,0.0010
2271.00,0.0011
2270.00,0.0011
2269.00,0.0011
2268.00,0.0011
2267.00,0.0010
2266.00,0.0009
2265.00,0.0009
2264.00,0.0010
2263.00,0.0010
2262.00,0.0009
2261.00,0.0009
2260.00,0.0009
2259.00,0.0008
2258.00,0.0007
2257.00,0.0005
2256.00,0.0003
2255.00,0.0002
2254.00,0.0002
2253.00,0.0004
2252.00,0.0006
2251.00,0.0008
2250.00,0.0009
2249.00,0.0009
2248.00,0.0008
2247.00,0.0006
2246.00,0.0005
2245.00,0.0004
2244.00,0.0003
2243.00,0.0004
2242.00,0.0004
2241.00,0.0005
2240.00,0.0005
2239.00,0.0006
2238.00,0.0007
2237.00,0.0007
2236.00,0.0007
2235.00,0.0007
2234.00,0.0007
2233.00,0.0008
2232.00,0.0008
2231.00,0.0008
2230.00,0.0007
2229.00,0.0005
2228.00,0.0004
2227.00,0.0003
2226.00,0.0001
2225.00,-0.0000
2224.00,-0.0000
2223.00,0.0001
2222.00,0.0003
2221.00,0.0006
2220.00,0.0008
2219.00,0.0010
2218.00,0.0010
2217.00,0.0011
2216.00,0.0010
2215.00,0.0007
2214.00,0.0004
2213.00,0.0002
2212.00,0.0002
2211.00,0.0003
2210.00,0.0004
2209.00,0.0005
2208.00,0.0006
2207.00,0.0006
2206.00,0.0005
2205.00,0.0004
2204.00,0.0004
2203.00,0.0005
2202.00,0.0005
2201.00,0.0005
2200.00,0.0004
2199.00,0.0003
2198.00,0.0002
2197.00,0.0002
2196.00,0.0004
2195.00,0.0007
2194.00,0.0009
2193.00,0.0010
2192.00,0.0009
2191.00,0.0007
2190.00,0.0008
2189.00,0.0010
2188.00,0.0013
2187.00,0.0015
2186.00,0.0013
2185.00,0.0010
2184.00,0.0005
2183.00,0.0001
2182.00,-0.0002
2181.00,-0.0002
2180.00,-0.0000
2179.00,0.0002
2178.00,0.0003
2177.00,0.0002
2176.00,0.0001
2175.00,-0.0000
2174.00,0.0000
2173.00,0.0002
2172.00,0.0004
2171.00,0.0006
2170.00,0.0009
2169.00,0.0012
2168.00,0.0014
2167.00,0.0014
2166.00,0.0012
2165.00,0.0010
2164.00,0.0011
2163.00,0.0014
2162.00,0.0015
2161.00,0.0010
2160.00,-0.0002
2159.00,-0.0016
2158.00,-0.0028
2157.00,-0.0031
2156.00,-0.0029
2155.00,-0.0024
2154.00,-0.0019
2153.00,-0.0014
2152.00,-0.0011
2151.00,-0.0010
2150.00,-0.0011
2149.00,-0.0015
2148.00,-0.0019
2147.00,-0.0024
2146.00,-0.0025
2145.00,-0.0025
2144.00,-0.0023
2143.00,-0.0021
2142.00,-0.0020
2141.00,-0.0018
2140.00,-0.0016
2139.00,-0.0014
2138.00,-0.0014
2137.00,-0.0014
2136.00,-0.0015
2135.00,-0.0017
2134.00,-0.0019
2133.00,-0.0020
2132.00,-0.0019
2131.00,-0.0018
2130.00,-0.0018
2129.00,-0.0017
2128.00,-0.0016
2127.00,-0.0014
2126.00,-0.0011
2125.00,-0.0009
2124.00,-0.0007
2123.00,-0.0007
2122.00,-0.0006
2121.00,-0.0006
2120.00,-0.0005
2119.00,-0.0004
2118.00,-0.0003
2117.00,-0.0001
2116.00,0.0001
2115.00,0.0002
2114.00,0.0003
2113.00,0.0003
2112.00,0.0002
2111.00,0.0001
2110.00,0.0001
2109.00,0.0001
2108.00,0.0002
2107.00,0.0002
2106.00,0.0001
2105.00,0.0000
2104.00,0.0000
2103.00,0.0000
2102.00,0.0001
2101.00,0.0002
2100.00,0.0003
2099.00,0.0003
2098.00,0.0002
2097.00,-0.0001
2096.00,-0.0005
2095.00,-0.0008
2094.00,-0.0009
2093.00,-0.0008
2092.00,-0.0006
2091.00,-0.0004
2090.00,-0.0002
2089.00,-0.0000
2088.00,0.0001
2087.00,0.0001
2086.00,0.0001
2085.00,0.0002
2084.00,0.0002
2083.00,0.0002
2082.00,0.0002
2081.00,0.0002
2080.00,0.0002
2079.00,0.0003
2078.00,0.0004
2077.00,0.0004
2076.00,0.0004
2075.00,0.0004
2074.00,0.0003
2073.00,0.0002
2072.00,0.0001
2071.00,-0.0001
2070.00,-0.0002
2069.00,-0.0001
2068.00,-0.0000
2067.00,0.0001
2066.00,0.0002
2065.00,0.0002
2064.00,0.0002
2063.00,0.0002
2062.00,0.0002
2061.00,0.0002
2060.00,0.0002
2059.00,0.0000
2058.00,-0.0002
2057.00,-0.0003
2056.00,-0.0003
2055.00,-0.0003
2054.00,-0.0000
2053.00,0.0005
2052.00,0.0010
2051.00,0.0013
2050.00,0.0013
2049.00,0.0011
2048.00,0.0008
2047.00,0.0005
2046.00,0.0002
2045.00,-0.0001
2044.00,-0.0004
2043.00,-0.0006
2042.00,-0.0006
2041.00,-0.0005
2040.00,-0.0004
2039.00,-0.0002
2038.00,0.0001
2037.00,0.0004
2036.00,0.0006
2035.00,0.0006
2034.00,0.0004
2033.00,-0.0000
2032.00,-0.0006
2031.00,-0.0011
2030.00,-0.0014
2029.00,-0.0015
2028.00,-0.0015
2027.00,-0.0016
2026.00,-0.0017
2025.00,-0.0019
2024.00,-0.0021
2023.00,-0.0022
2022.00,-0.0022
2021.00,-0.0018
2020.00,-0.0015
2019.00,-0.0013
2018.00,-0.0012
2017.00,-0.0014
2016.00,-0.0015
2015.00,-0.0017
2014.00,-0.0017
2013.00,-0.0017
2012.00,-0.0015
2011.00,-0.0014
2010.00,-0.0013
2009.00,-0.0013
2008.00,-0.0014
2007.00,-0.0015
2006.00,-0.0015
2005.00,-0.0014
2004.00,-0.0014
2003.00,-0.0015
2002.00,-0.0017
2001.00,-0.0017
2000.00,-0.0015
1999.00,-0.0014
1998.00,-0.0014
1997.00,-0.0012
1996.00,-0.0011
1995.00,-0.0009
1994.00,-0.0008
1993.00,-0.0009
1992.00,-0.0008
1991.00,-0.0007
1990.00,-0.0005
1989.00,-0.0003
1988.00,-0.0002
1987.00,-0.0001
1986.00,-0.0002
1985.00,-0.0001
1984.00,-0.0001
1983.00,-0.0000
1982.00,0.0001
1981.00,0.0002
1980.00,0.0003
1979.00,0.0001
1978.00,-0.0003
1977.00,-0.0008
1976.00,-0.0011
1975.00,-0.0013
1974.00,-0.0015
1973.00,-0.0016
1972.00,-0.0015
1971.00,-0.0015
1970.00,-0.0015
1969.00,-0.0017
1968.00,-0.0017
1967.00,-0.0017
1966.00,-0.0017
1965.00,-0.0016
1964.00,-0.0015
1963.00,-0.0015
1962.00,-0.0015
1961.00,-0.0015
1960.00,-0.0017
1959.00,-0.0019
1958.00,-0.0020
1957.00,-0.0019
1956.00,-0.0017
1955.00,-0.0014
1954.00,-0.0013
1953.00,-0.0014
1952.00,-0.0017
1951.00,-0.0019
1950.00,-0.0021
1949.00,-0.0022
1948.00,-0.0022
1947.00,-0.0022
1946.00,-0.0021
1945.00,-0.0019
1944.00,-0.0017
1943.00,-0.0016
1942.00,-0.0015
1941.00,-0.0014
1940.00,-0.0013
1939.00,-0.0012
1938.00,-0.0012
1937.00,-0.0011
1936.00,-0.0011
1935.00,-0.0011
1934.00,-0.0011
1933.00,-0.0011
1932.00,-0.0010
1931.00,-0.0010
1930.00,-0.0010
1929.00,-0.0010
1928.00,-0.0011
1927.00,-0.0012
1926.00,-0.0013
1925.00,-0.0012
1924.00,-0.0010
1923.00,-0.0009
1922.00,-0.0008
1921.00,-0.0007
1920.00,-0.0006
1919.00,-0.0005
1918.00,-0.0006
1917.00,-0.0006
1916.00,-0.0006
1915.00,-0.0006
1914.00,-0.0006
1913.00,-0.0005
1912.00,-0.0005
1911.00,-0.0005
1910.00,-0.0005
1909.00,-0.0006
1908.00,-0.0006
1907.00,-0.0006
1906.00,-0.0005
1905.00,-0.0006
1904.00,-0.0006
1903.00,-0.0006
1902.00,-0.0005
1901.00,-0.0005
1900.00,-0.0005
1899.00,-0.0005
1898.00,-0.0004
1897.00,-0.0003
1896.00,-0.0003
1895.00,-0.0003
1894.00,-0.0003
1893.00,-0.0003
1892.00,-0.0003
1891.00,-0.0003
1890.00,-0.0003
1889.00,-0.0003
1888.00,-0.0003
1887.00,-0.0003
1886.00,-0.0003
1885.00,-0.0003
1884.00,-0.0003
1883.00,-0.0004
1882.00,-0.0004
1881.00,-0.0004
1880.00,-0.0004
1879.00,-0.0003
1878.00,-0.0002
1877.00,-0.0003
1876.00,-0.0003
1875.00,-0.0005
1874.00,-0.0006
1873.00,-0.0006
1872.00,-0.0006
1871.00,-0.0005
1870.00,-0.0004
1869.00,-0.0003
1868.00,-0.0002
1867.00,-0.0002
1866.00,-0.0002
1865.00,-0.0001
1864.00,-0.0001
1863.00,-0.0001
1862.00,-0.0001
1861.00,-0.0001
1860.00,-0.0002
1859.00,-0.0003
1858.00,-0.0004
1857.00,-0.0005
1856.00,-0.0005
1855.00,-0.0004
1854.00,-0.0004
1853.00,-0.0003
1852.00,-0.0003
1851.00,-0.0003
1850.00,-0.0002
1849.00,-0.0002
1848.00,-0.0001
1847.00,-0.0001
1846.00,-0.0001
1845.00,-0.0001
1844.00,-0.0001
1843.00,-0.0001
1842.00,-0.0001
1841.00,-0.0001
1840.00,-0.0001
1839.00,-0.0001
1838.00,-0.0001
1837.00,-0.0001
1836.00,-0.0000
1835.00,0.0000
1834.00,0.0001
1833.00,0.0001
1832.00,0.0001
1831.00,0.0001
1830.00,0.0000
1829.00,-0.0000
1828.00,-0.0001
1827.00,-0.0001
1826.00,-0.0000
1825.00,0.0001
1824.00,0.0002
1823.00,0.0002
1822.00,0.0001
1821.00,0.0001
1820.00,-0.0000
1819.00,-0.0001
1818.00,-0.0002
1817.00,-0.0002
1816.00,-0.0002
1815.00,-0.0002
1814.00,-0.0001
1813.00,-0.0001
1812.00,-0.0001
1811.00,-0.0001
1810.00,-0.0001
1809.00,-0.0001
1808.00,-0.0000
1807.00,-0.0000
1806.00,0.0000
1805.00,0.0001
1804.00,0.0002
1803.00,0.0002
1802.00,0.0002
1801.00,0.0003
1800.00,0.0003
1799.00,0.0003
1798.00,0.0002
1797.00,0.0001
1796.00,0.0001
1795.00,0.0001
1794.00,0.0002
1793.00,0.0002
1792.00,0.0003
1791.00,0.0003
1790.00,0.0003
1789.00,0.0003
1788.00,0.0003
1787.00,0.0003
1786.00,0.0004
1785.00,0.0005
1784.00,0.0005
1783.00,0.0005
1782.00,0.0005
1781.00,0.0005
1780.00,0.0005
1779.00,0.0005
1778.00,0.0005
1777.00,0.0005
1776.00,0.0005
1775.00,0.0005
1774.00,0.0005
1773.00,0.0005
1772.00,0.0005
1771.00,0.0005
1770.00,0.0005
1769.00,0.0005
1768.00,0.0006
1767.00,0.0006
1766.00,0.0007
1765.00,0.0007
1764.00,0.0007
1763.00,0.0007
1762.00,0.0007
1761.00,0.0008
1760.00,0.0008
1759.00,0.0008
1758.00,0.0008
1757.00,0.0008
1756.00,0.0009
1755.00,0.0009
1754.00,0.0009
1753.00,0.0009
1752.00,0.0010
1751.00,0.0010
1750.00,0.0011
1749.00,0.0011
1748.00,0.0012
1747.00,0.0013
1746.00,0.0013
1745.00,0.0014
1744.00,0.0014
1743.00,0.0013
1742.00,0.0012
1741.00,0.0012
1740.00,0.0012
1739.00,0.0013
1738.00,0.0013
1737.00,0.0014
1736.00,0.0014
1735.00,0.0015
1734.00,0.0015
1733.00,0.0015
1732.00,0.0015
1731.00,0.0015
1730.00,0.0014
1729.00,0.0014
1728.00,0.0014
1727.00,0.0014
1726.00,0.0014
1725.00,0.0015
1724.00,0.0015
1723.00,0.0015
1722.00,0.0015
1721.00,0.0015
1720.00,0.0014
1719.00,0.0014
1718.00,0.0014
1717.00,0.0015
1716.00,0.0015
1715.00,0.0015
1714.00,0.0016
1713.00,0.0016
1712.00,0.0017
1711.00,0.0018
1710.00,0.0018
1709.00,0.0018
1708.00,0.0018
1707.00,0.0017
1706.00,0.0017
1705.00,0.0017
1704.00,0.0018
1703.00,0.0018
1702.00,0.0018
1701.00,0.0019
1700.00,0.0020
1699.00,0.0020
1698.00,0.0020
1697.00,0.0020
1696.00,0.0021
1695.00,0.0021
1694.00,0.0021
1693.00,0.0021
1692.00,0.0022
1691.00,0.0022
1690.00,0.0023
1689.00,0.0023
1688.00,0.0023
1687.00,0.0023
1686.00,0.0023
1685.00,0.0023
1684.00,0.0023
1683.00,0.0023
1682.00,0.0023
1681.00,0.0023
1680.00,0.0024
1679.00,0.0024
1678.00,0.0025
1677.00,0.0025
1676.00,0.0026
1675.00,0.0026
1674.00,0.0026
1673.00,0.0025
1672.00,0.0025
1671.00,0.0025
1670.00,0.0025
1669.00,0.0026
1668.00,0.0027
1667.00,0.0027
1666.00,0.0028
1665.00,0.0028
1664.00,0.0028
1663.00,0.0028
1662.00,0.0029
1661.00,0.0029
1660.00,0.0029
1659.00,0.0029
1658.00,0.0029
1657.00,0.0030
1656.00,0.0030
1655.00,0.0030
1654.00,0.0030
1653.00,0.0030
1652.00,0.0031
1651.00,0.0031
1650.00,0.0031
1649.00,0.0032
1648.00,0.0032
1647.00,0.0033
1646.00,0.0033
1645.00,0.0033
1644.00,0.0033
1643.00,0.0033
1642.00,0.0033
1641.00,0.0033
1640.00,0.0034
1639.00,0.0034
1638.00,0.0034
1637.00,0.0034
1636.00,0.0033
1635.00,0.0032
1634.00,0.0032
1633.00,0.0032
1632.00,0.0033
1631.00,0.0034
1630.00,0.0034
1629.00,0.0035
1628.00,0.0035
1627.00,0.0034
1626.00,0.0034
1625.00,0.0034
1624.00,0.0034
1623.00,0.0034
1622.00,0.0034
1621.00,0.0033
1620.00,0.0033
1619.00,0.0033
1618.00,0.0033
1617.00,0.0033
1616.00,0.0033
1615.00,0.0033
1614.00,0.0032
1613.00,0.0032
1612.00,0.0032
1611.00,0.0031
1610.00,0.0031
1609.00,0.0031
1608.00,0.0031
1607.00,0.0032
1606.00,0.0032
1605.00,0.0032
1604.00,0.0032
1603.00,0.0031
1602.00,0.0031
1601.00,0.0031
1600.00,0.0031
1599.00,0.0031
1598.00,0.0031
1597.00,0.0030
1596.00,0.0030
1595.00,0.0030
1594.00,0.0030
1593.00,0.0030
1592.00,0.0030
1591.00,0.0030
1590.00,0.0030
1589.00,0.0030
1588.00,0.0030
1587.00,0.0030
1586.00,0.0031
1585.00,0.0031
1584.00,0.0031
1583.00,0.0031
1582.00,0.0031
1581.00,0.0032
1580.00,0.0032
1579.00,0.0033
1578.00,0.0033
1577.00,0.0033
1576.00,0.0033
1575.00,0.0032
1574.00,0.0031
1573.00,0.0032
1572.00,0.0032
1571.00,0.0033
1570.00,0.0033
1569.00,0.0033
1568.00,0.0033
1567.00,0.0033
1566.00,0.0033
1565.00,0.0033
1564.00,0.0034
1563.00,0.0034
1562.00,0.0034
1561.00,0.0035
1560.00,0.0036
1559.00,0.0036
1558.00,0.0035
1557.00,0.0035
1556.00,0.0035
1555.00,0.0036
1554.00,0.0036
1553.00,0.0036
1552.00,0.0037
1551.00,0.0037
1550.00,0.0038
1549.00,0.0038
1548.00,0.0039
1547.00,0.0040
1546.00,0.0040
1545.00,0.0040
1544.00,0.0040
1543.00,0.0040
1542.00,0.0040
1541.00,0.0040
1540.00,0.0040
1539.00,0.0039
1538.00,0.0038
1537.00,0.0038
1536.00,0.0037
1535.00,0.0037
1534.00,0.0036
1533.00,0.0036
1532.00,0.0036
1531.00,0.0036
1530.00,0.0036
1529.00,0.0037
1528.00,0.0037
1527.00,0.0037
1526.00,0.0037
1525.00,0.0037
1524.00,0.0037
1523.00,0.0037
1522.00,0.0037
1521.00,0.0037
1520.00,0.0038
1519.00,0.0038
1518.00,0.0039
1517.00,0.0039
1516.00,0.0040
1515.00,0.0040
1514.00,0.0041
1513.00,0.0042
1512.00,0.0044
1511.00,0.0045
1510.00,0.0046
1509.00,0.0047
1508.00,0.0048
1507.00,0.0049
1506.00,0.0049
1505.00,0.0051
1504.00,0.0053
1503.00,0.0054
1502.00,0.0055
1501.00,0.0057
1500.00,0.0059
1499.00,0.0061
1498.00,0.0063
1497.00,0.0066
1496.00,0.0069
1495.00,0.0072
1494.00,0.0074
1493.00,0.0076
1492.00,0.0080
1491.00,0.0083
1490.00,0.0086
1489.00,0.0091
1488.00,0.0097
1487.00,0.0101
1486.00,0.0106
1485.00,0.0112
1484.00,0.0119
1483.00,0.0125
1482.00,0.0134
1481.00,0.0144
1480.00,0.0155
1479.00,0.0167
1478.00,0.0181
1477.00,0.0200
1476.00,0.0223
1475.00,0.0249
1474.00,0.0285
1473.00,0.0338
1472.00,0.0405
1471.00,0.0472
1470.00,0.0537
1469.00,0.0607
1468.00,0.0683
1467.00,0.0767
1466.00,0.0863
1465.00,0.0969
1464.00,0.1063
1463.00,0.1131
1462.00,0.1177
1461.00,0.1210
1460.00,0.1233
1459.00,0.1248
1458.00,0.1258
1457.00,0.1264
1456.00,0.1260
1455.00,0.1250
1454.00,0.1236
1453.00,0.1214
1452.00,0.1181
1451.00,0.1135
1450.00,0.1072
1449.00,0.0990
1448.00,0.0891
1447.00,0.0789
1446.00,0.0701
1445.00,0.0627
1444.00,0.0565
1443.00,0.0515
1442.00,0.0479
1441.00,0.0456
1440.00,0.0444
1439.00,0.0440
1438.00,0.0445
1437.00,0.0449
1436.00,0.0439
1435.00,0.0412
1434.00,0.0371
1433.00,0.0322
1432.00,0.0272
1431.00,0.0228
1430.00,0.0194
1429.00,0.0170
1428.00,0.0153
1427.00,0.0142
1426.00,0.0136
1425.00,0.0129
1424.00,0.0124
1423.00,0.0121
1422.00,0.0119
1421.00,0.0116
1420.00,0.0113
1419.00,0.0110
1418.00,0.0108
1417.00,0.0106
1416.00,0.0104
1415.00,0.0104
1414.00,0.0104
1413.00,0.0104
1412.00,0.0103
1411.00,0.0103
1410.00,0.0103
1409.00,0.0102
1408.00,0.0101
1407.00,0.0101
1406.00,0.0102
1405.00,0.0102
1404.00,0.0102
1403.00,0.0104
1402.00,0.0106
1401.00,0.0107
1400.00,0.0108
1399.00,0.0110
1398.00,0.0113
1397.00,0.0115
1396.00,0.0117
1395.00,0.0122
1394.00,0.0128
1393.00,0.0135
1392.00,0.0142
1391.00,0.0152
1390.00,0.0165
1389.00,0.0182
1388.00,0.0209
1387.00,0.0250
1386.00,0.0305
1385.00,0.0373
1384.00,0.0462
1383.00,0.0582
1382.00,0.0743
1381.00,0.0952
1380.00,0.1217
1379.00,0.1526
1378.00,0.1837
1377.00,0.2082
1376.00,0.2187
1375.00,0.2102
1374.00,0.1848
1373.00,0.1525
1372.00,0.1222
1371.00,0.0970
1370.00,0.0770
1369.00,0.0618
1368.00,0.0514
1367.00,0.0450
1366.00,0.0416
1365.00,0.0402
1364.00,0.0405
1363.00,0.0422
1362.00,0.0447
1361.00,0.0473
1360.00,0.0492
1359.00,0.0497
1358.00,0.0483
1357.00,0.0452
1356.00,0.0408
1355.00,0.0359
1354.00,0.0312
1353.00,0.0271
1352.00,0.0239
1351.00,0.0213
1350.00,0.0192
1349.00,0.0176
1348.00,0.0163
1347.00,0.0153
1346.00,0.0145
1345.00,0.0138
1344.00,0.0133
1343.00,0.0129
1342.00,0.0125
1341.00,0.0122
1340.00,0.0119
1339.00,0.0117
1338.00,0.0117
1337.00,0.0117
1336.00,0.0118
1335.00,0.0120
1334.00,0.0123
1333.00,0.0127
1332.00,0.0132
1331.00,0.0136
1330.00,0.0138
1329.00,0.0137
1328.00,0.0132
1327.00,0.0126
1326.00,0.0118
1325.00,0.0110
1324.00,0.0103
1323.00,0.0097
1322.00,0.0093
1321.00,0.0089
1320.00,0.0086
1319.00,0.0084
1318.00,0.0082
1317.00,0.0080
1316.00,0.0078
1315.00,0.0076
1314.00,0.0075
1313.00,0.0075
1312.00,0.0076
1311.00,0.0079
1310.00,0.0082
1309.00,0.0087
1308.00,0.0093
1307.00,0.0101
1306.00,0.0110
1305.00,0.0116
1304.00,0.0119
1303.00,0.0119
1302.00,0.0118
1301.00,0.0116
1300.00,0.0117
1299.00,0.0119
1298.00,0.0122
1297.00,0.0123
1296.00,0.0123
1295.00,0.0121
1294.00,0.0117
1293.00,0.0112
1292.00,0.0107
1291.00,0.0101
1290.00,0.0095
1289.00,0.0091
1288.00,0.0087
1287.00,0.0084
1286.00,0.0082
1285.00,0.0079
1284.00,0.0077
1283.00,0.0075
1282.00,0.0073
1281.00,0.0072
1280.00,0.0071
1279.00,0.0070
1278.00,0.0070
1277.00,0.0069
1276.00,0.0068
1275.00,0.0067
1274.00,0.0067
1273.00,0.0067
1272.00,0.0067
1271.00,0.0068
1270.00,0.0068
1269.00,0.0068
1268.00,0.0068
1267.00,0.0069
1266.00,0.0070
1265.00,0.0072
1264.00,0.0073
1263.00,0.0075
1262.00,0.0078
1261.00,0.0082
1260.00,0.0087
1259.00,0.0092
1258.00,0.0098
1257.00,0.0103
1256.00,0.0104
1255.00,0.0103
1254.00,0.0100
1253.00,0.0094
1252.00,0.0089
1251.00,0.0085
1250.00,0.0082
1249.00,0.0080
1248.00,0.0078
1247.00,0.0076
1246.00,0.0076
1245.00,0.0075
1244.00,0.0075
1243.00,0.0074
1242.00,0.0073
1241.00,0.0072
1240.00,0.0072
1239.00,0.0071
1238.00,0.0071
1237.00,0.0070
1236.00,0.0069
1235.00,0.0069
1234.00,0.0070
1233.00,0.0070
1232.00,0.0070
1231.00,0.0070
1230.00,0.0070
1229.00,0.0070
1228.00,0.0071
1227.00,0.0073
1226.00,0.0075
1225.00,0.0078
1224.00,0.0082
1223.00,0.0085
1222.00,0.0089
1221.00,0.0091
1220.00,0.0093
1219.00,0.0094
1218.00,0.0093
1217.00,0.0091
1216.00,0.0088
1215.00,0.0086
1214.00,0.0083
1213.00,0.0079
1212.00,0.0076
1211.00,0.0073
1210.00,0.0071
1209.00,0.0069
1208.00,0.0068
1207.00,0.0067
1206.00,0.0066
1205.00,0.0065
1204.00,0.0064
1203.00,0.0063
1202.00,0.0063
1201.00,0.0062
1200.00,0.0062
1199.00,0.0062
1198.00,0.0061
1197.00,0.0061
1196.00,0.0061
1195.00,0.0062
1194.00,0.0062
1193.00,0.0062
1192.00,0.0062
1191.00,0.0062
1190.00,0.0062
1189.00,0.0062
1188.00,0.0061
1187.00,0.0061
1186.00,0.0062
1185.00,0.0062
1184.00,0.0063
1183.00,0.0064
1182.00,0.0066
1181.00,0.0068
1180.00,0.0070
1179.00,0.0073
1178.00,0.0078
1177.00,0.0085
1176.00,0.0094
1175.00,0.0106
1174.00,0.0121
1173.00,0.0140
1172.00,0.0163
1171.00,0.0186
1170.00,0.0209
1169.00,0.0227
1168.00,0.0239
1167.00,0.0243
1166.00,0.0241
1165.00,0.0233
1164.00,0.0223
1163.00,0.0213
1162.00,0.0204
1161.00,0.0196
1160.00,0.0190
1159.00,0.0186
1158.00,0.0183
1157.00,0.0181
1156.00,0.0180
1155.00,0.0180
1154.00,0.0179
1153.00,0.0177
1152.00,0.0172
1151.00,0.0166
1150.00,0.0158
1149.00,0.0149
1148.00,0.0140
1147.00,0.0131
1146.00,0.0123
1145.00,0.0116
1144.00,0.0109
1143.00,0.0103
1142.00,0.0098
1141.00,0.0092
1140.00,0.0087
1139.00,0.0082
1138.00,0.0078
1137.00,0.0074
1136.00,0.0071
1135.00,0.0069
1134.00,0.0067
1133.00,0.0066
1132.00,0.0065
1131.00,0.0064
1130.00,0.0064
1129.00,0.0064
1128.00,0.0066
1127.00,0.0067
1126.00,0.0068
1125.00,0.0068
1124.00,0.0068
1123.00,0.0068
1122.00,0.0068
1121.00,0.0069
1120.00,0.0069
1119.00,0.0069
1118.00,0.0068
1117.00,0.0069
1116.00,0.0069
1115.00,0.0071
1114.00,0.0073
1113.00,0.0075
1112.00,0.0077
1111.00,0.0080
1110.00,0.0084
1109.00,0.0089
1108.00,0.0095
1107.00,0.0102
1106.00,0.0110
1105.00,0.0118
1104.00,0.0126
1103.00,0.0130
1102.00,0.0131
1101.00,0.0127
1100.00,0.0121
1099.00,0.0113
1098.00,0.0106
1097.00,0.0100
1096.00,0.0094
1095.00,0.0089
1094.00,0.0085
1093.00,0.0082
1092.00,0.0078
1091.00,0.0076
1090.00,0.0075
1089.00,0.0074
1088.00,0.0072
1087.00,0.0071
1086.00,0.0069
1085.00,0.0067
1084.00,0.0066
1083.00,0.0065
1082.00,0.0065
1081.00,0.0065
1080.00,0.0064
1079.00,0.0063
1078.00,0.0062
1077.00,0.0062
1076.00,0.0062
1075.00,0.0062
1074.00,0.0061
1073.00,0.0060
1072.00,0.0060
1071.00,0.0060
1070.00,0.0061
1069.00,0.0062
1068.00,0.0062
1067.00,0.0063
1066.00,0.0063
1065.00,0.0062
1064.00,0.0062
1063.00,0.0062
1062.00,0.0063
1061.00,0.0062
1060.00,0.0062
1059.00,0.0061
1058.00,0.0062
1057.00,0.0062
1056.00,0.0063
1055.00,0.0064
1054.00,0.0065
1053.00,0.0066
1052.00,0.0067
1051.00,0.0068
1050.00,0.0070
1049.00,0.0071
1048.00,0.0073
1047.00,0.0074
1046.00,0.0076
1045.00,0.0076
1044.00,0.0076
1043.00,0.0076
1042.00,0.0074
1041.00,0.0073
1040.00,0.0072
1039.00,0.0072
1038.00,0.0073
1037.00,0.0073
1036.00,0.0074
1035.00,0.0075
1034.00,0.0075
1033.00,0.0075
1032.00,0.0075
1031.00,0.0075
1030.00,0.0075
1029.00,0.0075
1028.00,0.0075
1027.00,0.0075
1026.00,0.0074
1025.00,0.0073
1024.00,0.0072
1023.00,0.0072
1022.00,0.0072
1021.00,0.0072
1020.00,0.0072
1019.00,0.0074
1018.00,0.0075
1017.00,0.0077
1016.00,0.0078
1015.00,0.0080
1014.00,0.0083
1013.00,0.0086
1012.00,0.0089
1011.00,0.0092
1010.00,0.0095
1009.00,0.0098
1008.00,0.0101
1007.00,0.0106
1006.00,0.0113
1005.00,0.0121
1004.00,0.0133
1003.00,0.0148
1002.00,0.0167
1001.00,0.0190
1000.00,0.0213
999.00,0.0233
998.00,0.0242
997.00,0.0237
996.00,0.0219
995.00,0.0193
994.00,0.0166
993.00,0.0142
992.00,0.0124
991.00,0.0111
990.00,0.0103
989.00,0.0097
988.00,0.0092
987.00,0.0090
986.00,0.0090
985.00,0.0092
984.00,0.0097
983.00,0.0105
982.00,0.0116
981.00,0.0130
980.00,0.0148
979.00,0.0173
978.00,0.0204
977.00,0.0239
976.00,0.0274
975.00,0.0305
974.00,0.0325
973.00,0.0328
972.00,0.0314
971.00,0.0285
970.00,0.0249
969.00,0.0212
968.00,0.0180
967.00,0.0155
966.00,0.0137
965.00,0.0123
964.00,0.0112
963.00,0.0103
962.00,0.0096
961.00,0.0090
960.00,0.0086
959.00,0.0084
958.00,0.0081
957.00,0.0079
956.00,0.0077
955.00,0.0074
954.00,0.0072
953.00,0.0071
952.00,0.0069
951.00,0.0069
950.00,0.0069
949.00,0.0070
948.00,0.0071
947.00,0.0074
946.00,0.0076
945.00,0.0080
944.00,0.0083
943.00,0.0088
942.00,0.0091
941.00,0.0092
940.00,0.0092
939.00,0.0089
938.00,0.0085
937.00,0.0080
936.00,0.0075
935.00,0.0070
934.00,0.0066
933.00,0.0063
932.00,0.0061
931.00,0.0060
930.00,0.0059
929.00,0.0058
928.00,0.0057
927.00,0.0056
926.00,0.0056
925.00,0.0056
924.00,0.0057
923.00,0.0058
922.00,0.0059
921.00,0.0061
920.00,0.0062
919.00,0.0064
918.00,0.0066
917.00,0.0068
916.00,0.0069
915.00,0.0069
914.00,0.0069
913.00,0.0069
912.00,0.0070
911.00,0.0072
910.00,0.0073
909.00,0.0075
908.00,0.0077
907.00,0.0082
906.00,0.0089
905.00,0.0099
904.00,0.0115
903.00,0.0135
902.00,0.0158
901.00,0.0180
900.00,0.0196
899.00,0.0201
898.00,0.0193
897.00,0.0176
896.00,0.0154
895.00,0.0133
894.00,0.0115
893.00,0.0102
892.00,0.0092
891.00,0.0085
890.00,0.0079
889.00,0.0074
888.00,0.0070
887.00,0.0068
886.00,0.0067
885.00,0.0067
884.00,0.0066
883.00,0.0066
882.00,0.0065
881.00,0.0064
880.00,0.0064
879.00,0.0064
878.00,0.0065
877.00,0.0066
876.00,0.0066
875.00,0.0066
874.00,0.0066
873.00,0.0065
872.00,0.0065
871.00,0.0065
870.00,0.0066
869.00,0.0067
868.00,0.0068
867.00,0.0069
866.00,0.0069
865.00,0.0069
864.00,0.0069
863.00,0.0071
862.00,0.0072
861.00,0.0074
860.00,0.0075
859.00,0.0077
858.00,0.0079
857.00,0.0080
856.00,0.0081
855.00,0.0081
854.00,0.0082
853.00,0.0083
852.00,0.0086
851.00,0.0089
850.00,0.0094
849.00,0.0098
848.00,0.0104
847.00,0.0114
846.00,0.0128
845.00,0.0150
844.00,0.0178
843.00,0.0206
842.00,0.0224
841.00,0.0225
840.00,0.0208
839.00,0.0182
838.00,0.0156
837.00,0.0136
836.00,0.0123
835.00,0.0114
834.00,0.0108
833.00,0.0105
832.00,0.0102
831.00,0.0099
830.00,0.0096
829.00,0.0094
828.00,0.0094
827.00,0.0094
826.00,0.0094
825.00,0.0094
824.00,0.0094
823.00,0.0094
822.00,0.0095
821.00,0.0097
820.00,0.0099
819.00,0.0102
818.00,0.0105
817.00,0.0111
816.00,0.0121
815.00,0.0134
814.00,0.0149
813.00,0.0167
812.00,0.0185
811.00,0.0201
810.00,0.0214
809.00,0.0221
808.00,0.0220
807.00,0.0212
806.00,0.0198
805.00,0.0181
804.00,0.0164
803.00,0.0148
802.00,0.0134
801.00,0.0122
800.00,0.0112
799.00,0.0105
798.00,0.0100
797.00,0.0096
796.00,0.0092
795.00,0.0088
794.00,0.0085
793.00,0.0082
792.00,0.0080
791.00,0.0078
790.00,0.0077
789.00,0.0075
788.00,0.0074
787.00,0.0072
786.00,0.0070
785.00,0.0067
784.00,0.0065
783.00,0.0062
782.00,0.0060
781.00,0.0058
780.00,0.0057
779.00,0.0056
778.00,0.0055
777.00,0.0055
776.00,0.0056
775.00,0.0057
774.00,0.0058
773.00,0.0060
772.00,0.0062
771.00,0.0063
770.00,0.0065
769.00,0.0066
768.00,0.0068
767.00,0.0069
766.00,0.0068
765.00,0.0067
764.00,0.0065
763.00,0.0062
762.00,0.0059
761.00,0.0056
760.00,0.0053
759.00,0.0050
758.00,0.0048
757.00,0.0046
756.00,0.0046
755.00,0.0046
754.00,0.0046
753.00,0.0045
752.00,0.0044
751.00,0.0043
750.00,0.0044
749.00,0.0045
748.00,0.0046
747.00,0.0047
746.00,0.0049
745.00,0.0049
744.00,0.0049
743.00,0.0050
742.00,0.0051
741.00,0.0053
740.00,0.0054
739.00,0.0056
738.00,0.0058
737.00,0.0060
736.00,0.0061
735.00,0.0062
734.00,0.0062
733.00,0.0062
732.00,0.0063
731.00,0.0064
730.00,0.0063
729.00,0.0060
728.00,0.0057
727.00,0.0055
726.00,0.0054
725.00,0.0055
724.00,0.0056
723.00,0.0055
722.00,0.0054
721.00,0.0051
720.00,0.0049
719.00,0.0049
718.00,0.0050
717.00,0.0051
716.00,0.0051
715.00,0.0050
714.00,0.0048
713.00,0.0047
712.00,0.0047
711.00,0.0046
710.00,0.0046
709.00,0.0046
708.00,0.0045
707.00,0.0045
706.00,0.0045
705.00,0.0045
704.00,0.0045
703.00,0.0044
702.00,0.0044
701.00,0.0044
700.00,0.0043
699.00,0.0041
698.00,0.0038
697.00,0.0037
696.00,0.0037
695.00,0.0039
694.00,0.0041
693.00,0.0042
692.00,0.0042
691.00,0.0042
690.00,0.0042
689.00,0.0042
688.00,0.0041
687.00,0.0041
686.00,0.0041
685.00,0.0040
684.00,0.0038
683.00,0.0036
682.00,0.0036
681.00,0.0038
680.00,0.0042
679.00,0.0044
678.00,0.0044
677.00,0.0043
676.00,0.0042
675.00,0.0041
674.00,0.0041
673.00,0.0041
672.00,0.0042
671.00,0.0042
670.00,0.0045
669.00,0.0049
668.00,0.0054
667.00,0.0055
666.00,0.0051
665.00,0.0046
664.00,0.0043
663.00,0.0041
662.00,0.0039
661.00,0.0037
660.00,0.0035
659.00,0.0035
658.00,0.0037
657.00,0.0038
656.00,0.0039
655.00,0.0041
654.00,0.0042
653.00,0.0042
652.00,0.0043
651.00,0.0043
650.00,0.0043
649.00,0.0043
648.00,0.0043
647.00,0.0043
646.00,0.0042
645.00,0.0042
644.00,0.0042
643.00,0.0042
642.00,0.0043
641.00,0.0044
640.00,0.0043
639.00,0.0042
638.00,0.0041
637.00,0.0041
636.00,0.0043
635.00,0.0044
634.00,0.0044
633.00,0.0044
632.00,0.0044
631.00,0.0043
630.00,0.0042
629.00,0.0041
628.00,0.0041
627.00,0.0043
626.00,0.0045
625.00,0.0046
624.00,0.0046
623.00,0.0047
622.00,0.0048
621.00,0.0048
620.00,0.0048
619.00,0.0047
618.00,0.0046
617.00,0.0045
616.00,0.0044
615.00,0.0045
614.00,0.0046
613.00,0.0047
612.00,0.0047
611.00,0.0048
610.00,0.0047
609.00,0.0047
608.00,0.0048
607.00,0.0049
606.00,0.0050
605.00,0.0050
604.00,0.0050
603.00,0.0050
602.00,0.0050
601.00,0.0049
600.00,0.0048
599.00,0.0047
598.00,0.0046
597.00,0.0046
596.00,0.0045
595.00,0.0044
594.00,0.0044
593.00,0.0045
592.00,0.0046
591.00,0.0047
590.00,0.0046
589.00,0.0046
588.00,0.0046
587.00,0.0047
586.00,0.0046
585.00,0.0044
584.00,0.0044
583.00,0.0047
582.00,0.0052
581.00,0.0056
580.00,0.0058
579.00,0.0059
578.00,0.0058
577.00,0.0056
576.00,0.0054
575.00,0.0052
574.00,0.0053
573.00,0.0054
572.00,0.0055
571.00,0.0056
570.00,0.0055
569.00,0.0052
568.00,0.0047
567.00,0.0044
566.00,0.0045
565.00,0.0048
564.00,0.0051
563.00,0.0053
562.00,0.0053
561.00,0.0052
560.00,0.0051
559.00,0.0051
558.00,0.0052
557.00,0.0051
556.00,0.0048
555.00,0.0044
554.00,0.0043
553.00,0.0046
552.00,0.0052
551.00,0.0060
550.00,0.0067
549.00,0.0070
548.00,0.0069
547.00,0.0066
546.00,0.0063
545.00,0.0060
544.00,0.0059
543.00,0.0062
542.00,0.0065
541.00,0.0067
540.00,0.0066
539.00,0.0066
538.00,0.0067
537.00,0.0069
536.00,0.0070
535.00,0.0071
534.00,0.0073
533.00,0.0075
532.00,0.0078
531.00,0.0082
530.00,0.0086
529.00,0.0091
528.00,0.0094
527.00,0.0094
526.00,0.0091
525.00,0.0085
524.00,0.0078
523.00,0.0074
522.00,0.0072
521.00,0.0071
520.00,0.0068
519.00,0.0065
518.00,0.0064
517.00,0.0064
516.00,0.0063
515.00,0.0061
514.00,0.0057
513.00,0.0051
512.00,0.0045
511.00,0.0042
510.00,0.0045
509.00,0.0051
508.00,0.0057
507.00,0.0059
506.00,0.0057
505.00,0.0054
504.00,0.0051
503.00,0.0051
502.00,0.0053
501.00,0.0056
500.00,0.0058
499.00,0.0062
498.00,0.0069
497.00,0.0076
496.00,0.0077
495.00,0.0069
494.00,0.0057
493.00,0.0047
492.00,0.0042
491.00,0.0043
490.00,0.0049
489.00,0.0058
488.00,0.0065
487.00,0.0066
486.00,0.0060
485.00,0.0050
484.00,0.0043
483.00,0.0042
482.00,0.0045
481.00,0.0052
480.00,0.0059
479.00,0.0065
478.00,0.0069
477.00,0.0073
476.00,0.0079
475.00,0.0086
474.00,0.0090
473.00,0.0088
472.00,0.0079
471.00,0.0074
470.00,0.0078
469.00,0.0092
468.00,0.0109
467.00,0.0121
466.00,0.0126
465.00,0.0124
464.00,0.0122
463.00,0.0120
462.00,0.0121
461.00,0.0126
460.00,0.0138
459.00,0.0157
458.00,0.0174
457.00,0.0177
456.00,0.0164
455.00,0.0146
454.00,0.0133
453.00,0.0122
452.00,0.0109
451.00,0.0093
450.00,0.0082
