Created as New Dataset,Sample 009 By Administrator Date Tuesday, September 09 2025
cm-1,A
4000.00,0.0013
3999.00,0.0013
3998.00,0.0014
3997.00,0.0014
3996.00,0.0015
3995.00,0.0015
3994.00,0.0015
3993.00,0.0014
3992.00,0.0014
3991.00,0.0014
3990.00,0.0014
3989.00,0.0014
3988.00,0.0014
3987.00,0.0014
3986.00,0.0014
3985.00,0.0014
3984.00,0.0013
3983.00,0.0013
3982.00,0.0013
3981.00,0.0012
3980.00,0.0013
3979.00,0.0013
3978.00,0.0013
3977.00,0.0013
3976.00,0.0013
3975.00,0.0013
3974.00,0.0012
3973.00,0.0012
3972.00,0.0012
3971.00,0.0012
3970.00,0.0012
3969.00,0.0012
3968.00,0.0012
3967.00,0.0012
3966.00,0.0012
3965.00,0.0012
3964.00,0.0013
3963.00,0.0013
3962.00,0.0013
3961.00,0.0013
3960.00,0.0013
3959.00,0.0012
3958.00,0.0012
3957.00,0.0012
3956.00,0.0012
3955.00,0.0011
3954.00,0.0011
3953.00,0.0011
3952.00,0.0011
3951.00,0.0011
3950.00,0.0011
3949.00,0.0012
3948.00,0.0012
3947.00,0.0012
3946.00,0.0012
3945.00,0.0012
3944.00,0.0012
3943.00,0.0012
3942.00,0.0012
3941.00,0.0012
3940.00,0.0012
3939.00,0.0012
3938.00,0.0012
3937.00,0.0012
3936.00,0.0012
3935.00,0.0012
3934.00,0.0012
3933.00,0.0012
3932.00,0.0012
3931.00,0.0013
3930.00,0.0013
3929.00,0.0012
3928.00,0.0012
3927.00,0.0012
3926.00,0.0012
3925.00,0.0012
3924.00,0.0012
3923.00,0.0012
3922.00,0.0012
3921.00,0.0013
3920.00,0.0013
3919.00,0.0013
3918.00,0.0013
3917.00,0.0013
3916.00,0.0012
3915.00,0.0012
3914.00,0.0012
3913.00,0.0012
3912.00,0.0012
3911.00,0.0012
3910.00,0.0012
3909.00,0.0012
3908.00,0.0012
3907.00,0.0012
3906.00,0.0013
3905.00,0.0013
3904.00,0.0014
3903.00,0.0015
3902.00,0.0015
3901.00,0.0014
3900.00,0.0013
3899.00,0.0013
3898.00,0.0012
3897.00,0.0012
3896.00,0.0012
3895.00,0.0013
3894.00,0.0013
3893.00,0.0013
3892.00,0.0013
3891.00,0.0013
3890.00,0.0013
3889.00,0.0014
3888.00,0.0014
3887.00,0.0014
3886.00,0.0014
3885.00,0.0013
3884.00,0.0013
3883.00,0.0013
3882.00,0.0013
3881.00,0.0013
3880.00,0.0012
3879.00,0.0012
3878.00,0.0012
3877.00,0.0012
3876.00,0.0012
3875.00,0.0012
3874.00,0.0012
3873.00,0.0012
3872.00,0.0012
3871.00,0.0013
3870.00,0.0013
3869.00,0.0013
3868.00,0.0013
3867.00,0.0013
3866.00,0.0013
3865.00,0.0013
3864.00,0.0013
3863.00,0.0013
3862.00,0.0013
3861.00,0.0013
3860.00,0.0013
3859.00,0.0013
3858.00,0.0013
3857.00,0.0013
3856.00,0.0013
3855.00,0.0013
3854.00,0.0013
3853.00,0.0013
3852.00,0.0013
3851.00,0.0013
3850.00,0.0012
3849.00,0.0012
3848.00,0.0013
3847.00,0.0013
3846.00,0.0013
3845.00,0.0013
3844.00,0.0013
3843.00,0.0013
3842.00,0.0013
3841.00,0.0014
3840.00,0.0014
3839.00,0.0014
3838.00,0.0014
3837.00,0.0013
3836.00,0.0012
3835.00,0.0012
3834.00,0.0012
3833.00,0.0012
3832.00,0.0013
3831.00,0.0013
3830.00,0.0013
3829.00,0.0013
3828.00,0.0013
3827.00,0.0013
3826.00,0.0013
3825.00,0.0013
3824.00,0.0013
3823.00,0.0013
3822.00,0.0013
3821.00,0.0013
3820.00,0.0013
3819.00,0.0013
3818.00,0.0013
3817.00,0.0013
3816.00,0.0012
3815.00,0.0012
3814.00,0.0012
3813.00,0.0012
3812.00,0.0013
3811.00,0.0013
3810.00,0.0014
3809.00,0.0014
3808.00,0.0013
3807.00,0.0013
3806.00,0.0013
3805.00,0.0013
3804.00,0.0013
3803.00,0.0012
3802.00,0.0012
3801.00,0.0012
3800.00,0.0012
3799.00,0.0012
3798.00,0.0013
3797.00,0.0013
3796.00,0.0012
3795.00,0.0012
3794.00,0.0012
3793.00,0.0011
3792.00,0.0011
3791.00,0.0011
3790.00,0.0011
3789.00,0.0011
3788.00,0.0011
3787.00,0.0011
3786.00,0.0011
3785.00,0.0011
3784.00,0.0012
3783.00,0.0012
3782.00,0.0012
3781.00,0.0012
3780.00,0.0012
3779.00,0.0012
3778.00,0.0012
3777.00,0.0012
3776.00,0.0012
3775.00,0.0012
3774.00,0.0013
3773.00,0.0013
3772.00,0.0013
3771.00,0.0014
3770.00,0.0014
3769.00,0.0014
3768.00,0.0014
3767.00,0.0014
3766.00,0.0013
3765.00,0.0013
3764.00,0.0014
3763.00,0.0014
3762.00,0.0015
3761.00,0.0015
3760.00,0.0015
3759.00,0.0014
3758.00,0.0014
3757.00,0.0014
3756.00,0.0014
3755.00,0.0015
3754.00,0.0015
3753.00,0.0016
3752.00,0.0017
3751.00,0.0017
3750.00,0.0017
3749.00,0.0017
3748.00,0.0016
3747.00,0.0015
3746.00,0.0015
3745.00,0.0014
3744.00,0.0013
3743.00,0.0012
3742.00,0.0012
3741.00,0.0012
3740.00,0.0013
3739.00,0.0014
3738.00,0.0014
3737.00,0.0015
3736.00,0.0016
3735.00,0.0016
3734.00,0.0016
3733.00,0.0015
3732.00,0.0015
3731.00,0.0014
3730.00,0.0014
3729.00,0.0014
3728.00,0.0014
3727.00,0.0014
3726.00,0.0014
3725.00,0.0014
3724.00,0.0013
3723.00,0.0013
3722.00,0.0012
3721.00,0.0012
3720.00,0.0012
3719.00,0.0012
3718.00,0.0012
3717.00,0.0012
3716.00,0.0013
3715.00,0.0013
3714.00,0.0013
3713.00,0.0013
3712.00,0.0012
3711.00,0.0013
3710.00,0.0013
3709.00,0.0013
3708.00,0.0013
3707.00,0.0012
3706.00,0.0011
3705.00,0.0011
3704.00,0.0011
3703.00,0.0011
3702.00,0.0011
3701.00,0.0011
3700.00,0.0011
3699.00,0.0011
3698.00,0.0011
3697.00,0.0011
3696.00,0.0012
3695.00,0.0012
3694.00,0.0012
3693.00,0.0012
3692.00,0.0012
3691.00,0.0012
3690.00,0.0013
3689.00,0.0013
3688.00,0.0013
3687.00,0.0013
3686.00,0.0013
3685.00,0.0013
3684.00,0.0013
3683.00,0.0013
3682.00,0.0013
3681.00,0.0013
3680.00,0.0014
3679.00,0.0014
3678.00,0.0015
3677.00,0.0016
3676.00,0.0017
3675.00,0.0017
3674.00,0.0017
3673.00,0.0017
3672.00,0.0017
3671.00,0.0016
3670.00,0.0016
3669.00,0.0015
3668.00,0.0015
3667.00,0.0015
3666.00,0.0015
3665.00,0.0015
3664.00,0.0015
3663.00,0.0015
3662.00,0.0015
3661.00,0.0015
3660.00,0.0015
3659.00,0.0016
3658.00,0.0017
3657.00,0.0017
3656.00,0.0018
3655.00,0.0018
3654.00,0.0018
3653.00,0.0019
3652.00,0.0019
3651.00,0.0020
3650.00,0.0020
3649.00,0.0020
3648.00,0.0020
3647.00,0.0019
3646.00,0.0019
3645.00,0.0018
3644.00,0.0018
3643.00,0.0018
3642.00,0.0018
3641.00,0.0017
3640.00,0.0017
3639.00,0.0018
3638.00,0.0018
3637.00,0.0018
3636.00,0.0019
3635.00,0.0019
3634.00,0.0019
3633.00,0.0019
3632.00,0.0020
3631.00,0.0020
3630.00,0.0021
3629.00,0.0021
3628.00,0.0021
3627.00,0.0020
3626.00,0.0020
3625.00,0.0020
3624.00,0.0020
3623.00,0.0020
3622.00,0.0020
3621.00,0.0021
3620.00,0.0021
3619.00,0.0022
3618.00,0.0022
3617.00,0.0023
3616.00,0.0024
3615.00,0.0025
3614.00,0.0025
3613.00,0.0025
3612.00,0.0026
3611.00,0.0026
3610.00,0.0026
3609.00,0.0026
3608.00,0.0026
3607.00,0.0026
3606.00,0.0025
3605.00,0.0025
3604.00,0.0025
3603.00,0.0026
3602.00,0.0027
3601.00,0.0028
3600.00,0.0028
3599.00,0.0029
3598.00,0.0029
3597.00,0.0030
3596.00,0.0030
3595.00,0.0031
3594.00,0.0031
3593.00,0.0031
3592.00,0.0031
3591.00,0.0031
3590.00,0.0031
3589.00,0.0031
3588.00,0.0032
3587.00,0.0032
3586.00,0.0033
3585.00,0.0033
3584.00,0.0034
3583.00,0.0034
3582.00,0.0035
3581.00,0.0035
3580.00,0.0035
3579.00,0.0035
3578.00,0.0035
3577.00,0.0035
3576.00,0.0036
3575.00,0.0036
3574.00,0.0036
3573.00,0.0037
3572.00,0.0037
3571.00,0.0038
3570.00,0.0039
3569.00,0.0039
3568.00,0.0040
3567.00,0.0040
3566.00,0.0040
3565.00,0.0041
3564.00,0.0041
3563.00,0.0041
3562.00,0.0041
3561.00,0.0041
3560.00,0.0041
3559.00,0.0041
3558.00,0.0042
3557.00,0.0042
3556.00,0.0042
3555.00,0.0043
3554.00,0.0043
3553.00,0.0044
3552.00,0.0045
3551.00,0.0045
3550.00,0.0046
3549.00,0.0046
3548.00,0.0046
3547.00,0.0046
3546.00,0.0046
3545.00,0.0046
3544.00,0.0046
3543.00,0.0046
3542.00,0.0046
3541.00,0.0046
3540.00,0.0047
3539.00,0.0047
3538.00,0.0047
3537.00,0.0047
3536.00,0.0047
3535.00,0.0047
3534.00,0.0048
3533.00,0.0048
3532.00,0.0048
3531.00,0.0049
3530.00,0.0049
3529.00,0.0049
3528.00,0.0050
3527.00,0.0050
3526.00,0.0051
3525.00,0.0051
3524.00,0.0051
3523.00,0.0051
3522.00,0.0051
3521.00,0.0052
3520.00,0.0052
3519.00,0.0052
3518.00,0.0052
3517.00,0.0052
3516.00,0.0053
3515.00,0.0053
3514.00,0.0054
3513.00,0.0054
3512.00,0.0055
3511.00,0.0055
3510.00,0.0055
3509.00,0.0056
3508.00,0.0056
3507.00,0.0056
3506.00,0.0056
3505.00,0.0057
3504.00,0.0057
3503.00,0.0057
3502.00,0.0057
3501.00,0.0057
3500.00,0.0057
3499.00,0.0058
3498.00,0.0058
3497.00,0.0059
3496.00,0.0059
3495.00,0.0059
3494.00,0.0059
3493.00,0.0060
3492.00,0.0060
3491.00,0.0060
3490.00,0.0061
3489.00,0.0061
3488.00,0.0061
3487.00,0.0062
3486.00,0.0062
3485.00,0.0063
3484.00,0.0063
3483.00,0.0064
3482.00,0.0064
3481.00,0.0064
3480.00,0.0065
3479.00,0.0064
3478.00,0.0064
3477.00,0.0064
3476.00,0.0064
3475.00,0.0065
3474.00,0.0065
3473.00,0.0066
3472.00,0.0066
3471.00,0.0066
3470.00,0.0066
3469.00,0.0066
3468.00,0.0066
3467.00,0.0067
3466.00,0.0067
3465.00,0.0068
3464.00,0.0068
3463.00,0.0069
3462.00,0.0069
3461.00,0.0070
3460.00,0.0070
3459.00,0.0070
3458.00,0.0070
3457.00,0.0071
3456.00,0.0071
3455.00,0.0071
3454.00,0.0071
3453.00,0.0071
3452.00,0.0072
3451.00,0.0072
3450.00,0.0073
3449.00,0.0073
3448.00,0.0073
3447.00,0.0074
3446.00,0.0074
3445.00,0.0074
3444.00,0.0074
3443.00,0.0074
3442.00,0.0074
3441.00,0.0074
3440.00,0.0075
3439.00,0.0076
3438.00,0.0076
3437.00,0.0077
3436.00,0.0077
3435.00,0.0078
3434.00,0.0078
3433.00,0.0078
3432.00,0.0078
3431.00,0.0078
3430.00,0.0078
3429.00,0.0078
3428.00,0.0078
3427.00,0.0079
3426.00,0.0079
3425.00,0.0079
3424.00,0.0080
3423.00,0.0080
3422.00,0.0080
3421.00,0.0080
3420.00,0.0080
3419.00,0.0081
3418.00,0.0081
3417.00,0.0081
3416.00,0.0082
3415.00,0.0082
3414.00,0.0082
3413.00,0.0082
3412.00,0.0083
3411.00,0.0083
3410.00,0.0083
3409.00,0.0083
3408.00,0.0083
3407.00,0.0083
3406.00,0.0083
3405.00,0.0083
3404.00,0.0083
3403.00,0.0083
3402.00,0.0083
3401.00,0.0084
3400.00,0.0084
3399.00,0.0084
3398.00,0.0084
3397.00,0.0084
3396.00,0.0084
3395.00,0.0084
3394.00,0.0084
3393.00,0.0084
3392.00,0.0084
3391.00,0.0085
3390.00,0.0085
3389.00,0.0085
3388.00,0.0085
3387.00,0.0085
3386.00,0.0085
3385.00,0.0086
3384.00,0.0086
3383.00,0.0086
3382.00,0.0086
3381.00,0.0086
3380.00,0.0086
3379.00,0.0086
3378.00,0.0086
3377.00,0.0086
3376.00,0.0086
3375.00,0.0086
3374.00,0.0086
3373.00,0.0086
3372.00,0.0086
3371.00,0.0086
3370.00,0.0086
3369.00,0.0087
3368.00,0.0087
3367.00,0.0088
3366.00,0.0088
3365.00,0.0089
3364.00,0.0089
3363.00,0.0089
3362.00,0.0089
3361.00,0.0089
3360.00,0.0089
3359.00,0.0090
3358.00,0.0090
3357.00,0.0090
3356.00,0.0090
3355.00,0.0090
3354.00,0.0090
3353.00,0.0090
3352.00,0.0090
3351.00,0.0090
3350.00,0.0090
3349.00,0.0090
3348.00,0.0090
3347.00,0.0090
3346.00,0.0089
3345.00,0.0089
3344.00,0.0089
3343.00,0.0090
3342.00,0.0090
3341.00,0.0090
3340.00,0.0090
3339.00,0.0090
3338.00,0.0090
3337.00,0.0089
3336.00,0.0089
3335.00,0.0089
3334.00,0.0089
3333.00,0.0089
3332.00,0.0089
3331.00,0.0089
3330.00,0.0089
3329.00,0.0089
3328.00,0.0089
3327.00,0.0089
3326.00,0.0089
3325.00,0.0089
3324.00,0.0089
3323.00,0.0089
3322.00,0.0089
3321.00,0.0089
3320.00,0.0088
3319.00,0.0088
3318.00,0.0088
3317.00,0.0088
3316.00,0.0088
3315.00,0.0088
3314.00,0.0088
3313.00,0.0088
3312.00,0.0088
3311.00,0.0088
3310.00,0.0088
3309.00,0.0087
3308.00,0.0086
3307.00,0.0086
3306.00,0.0086
3305.00,0.0086
3304.00,0.0086
3303.00,0.0086
3302.00,0.0086
3301.00,0.0086
3300.00,0.0087
3299.00,0.0086
3298.00,0.0086
3297.00,0.0086
3296.00,0.0086
3295.00,0.0086
3294.00,0.0086
3293.00,0.0086
3292.00,0.0085
3291.00,0.0085
3290.00,0.0085
3289.00,0.0085
3288.00,0.0085
3287.00,0.0085
3286.00,0.0085
3285.00,0.0084
3284.00,0.0084
3283.00,0.0084
3282.00,0.0083
3281.00,0.0083
3280.00,0.0083
3279.00,0.0083
3278.00,0.0083
3277.00,0.0082
3276.00,0.0082
3275.00,0.0081
3274.00,0.0081
3273.00,0.0081
3272.00,0.0080
3271.00,0.0080
3270.00,0.0080
3269.00,0.0080
3268.00,0.0080
3267.00,0.0079
3266.00,0.0079
3265.00,0.0079
3264.00,0.0079
3263.00,0.0079
3262.00,0.0079
3261.00,0.0079
3260.00,0.0079
3259.00,0.0078
3258.00,0.0078
3257.00,0.0077
3256.00,0.0077
3255.00,0.0076
3254.00,0.0076
3253.00,0.0076
3252.00,0.0075
3251.00,0.0075
3250.00,0.0075
3249.00,0.0075
3248.00,0.0075
3247.00,0.0075
3246.00,0.0075
3245.00,0.0075
3244.00,0.0075
3243.00,0.0075
3242.00,0.0075
3241.00,0.0075
3240.00,0.0075
3239.00,0.0075
3238.00,0.0075
3237.00,0.0074
3236.00,0.0074
3235.00,0.0073
3234.00,0.0073
3233.00,0.0073
3232.00,0.0073
3231.00,0.0073
3230.00,0.0073
3229.00,0.0073
3228.00,0.0073
3227.00,0.0074
3226.00,0.0074
3225.00,0.0074
3224.00,0.0074
3223.00,0.0074
3222.00,0.0074
3221.00,0.0074
3220.00,0.0073
3219.00,0.0073
3218.00,0.0073
3217.00,0.0073
3216.00,0.0074
3215.00,0.0074
3214.00,0.0074
3213.00,0.0075
3212.00,0.0075
3211.00,0.0075
3210.00,0.0074
3209.00,0.0074
3208.00,0.0074
3207.00,0.0074
3206.00,0.0074
3205.00,0.0075
3204.00,0.0075
3203.00,0.0074
3202.00,0.0074
3201.00,0.0074
3200.00,0.0074
3199.00,0.0074
3198.00,0.0073
3197.00,0.0073
3196.00,0.0073
3195.00,0.0072
3194.00,0.0072
3193.00,0.0073
3192.00,0.0072
3191.00,0.0072
3190.00,0.0072
3189.00,0.0071
3188.00,0.0071
3187.00,0.0071
3186.00,0.0071
3185.00,0.0071
3184.00,0.0070
3183.00,0.0070
3182.00,0.0070
3181.00,0.0070
3180.00,0.0069
3179.00,0.0069
3178.00,0.0068
3177.00,0.0068
3176.00,0.0067
3175.00,0.0067
3174.00,0.0067
3173.00,0.0066
3172.00,0.0066
3171.00,0.0067
3170.00,0.0067
3169.00,0.0067
3168.00,0.0066
3167.00,0.0066
3166.00,0.0065
3165.00,0.0064
3164.00,0.0064
3163.00,0.0064
3162.00,0.0064
3161.00,0.0064
3160.00,0.0064
3159.00,0.0064
3158.00,0.0064
3157.00,0.0064
3156.00,0.0064
3155.00,0.0063
3154.00,0.0062
3153.00,0.0062
3152.00,0.0062
3151.00,0.0062
3150.00,0.0062
3149.00,0.0062
3148.00,0.0062
3147.00,0.0061
3146.00,0.0061
3145.00,0.0061
3144.00,0.0060
3143.00,0.0061
3142.00,0.0061
3141.00,0.0061
3140.00,0.0061
3139.00,0.0060
3138.00,0.0060
3137.00,0.0059
3136.00,0.0059
3135.00,0.0058
3134.00,0.0058
3133.00,0.0058
3132.00,0.0057
3131.00,0.0056
3130.00,0.0056
3129.00,0.0056
3128.00,0.0055
3127.00,0.0055
3126.00,0.0055
3125.00,0.0054
3124.00,0.0054
3123.00,0.0054
3122.00,0.0054
3121.00,0.0054
3120.00,0.0053
3119.00,0.0053
3118.00,0.0052
3117.00,0.0052
3116.00,0.0052
3115.00,0.0052
3114.00,0.0052
3113.00,0.0053
3112.00,0.0052
3111.00,0.0052
3110.00,0.0051
3109.00,0.0051
3108.00,0.0050
3107.00,0.0050
3106.00,0.0050
3105.00,0.0050
3104.00,0.0051
3103.00,0.0050
3102.00,0.0050
3101.00,0.0050
3100.00,0.0049
3099.00,0.0049
3098.00,0.0049
3097.00,0.0050
3096.00,0.0050
3095.00,0.0050
3094.00,0.0050
3093.00,0.0050
3092.00,0.0050
3091.00,0.0049
3090.00,0.0049
3089.00,0.0049
3088.00,0.0049
3087.00,0.0049
3086.00,0.0049
3085.00,0.0049
3084.00,0.0049
3083.00,0.0048
3082.00,0.0048
3081.00,0.0048
3080.00,0.0048
3079.00,0.0048
3078.00,0.0048
3077.00,0.0049
3076.00,0.0049
3075.00,0.0049
3074.00,0.0050
3073.00,0.0049
3072.00,0.0049
3071.00,0.0049
3070.00,0.0049
3069.00,0.0049
3068.00,0.0049
3067.00,0.0050
3066.00,0.0050
3065.00,0.0050
3064.00,0.0051
3063.00,0.0051
3062.00,0.0051
3061.00,0.0051
3060.00,0.0050
3059.00,0.0050
3058.00,0.0050
3057.00,0.0050
3056.00,0.0050
3055.00,0.0050
3054.00,0.0050
3053.00,0.0050
3052.00,0.0050
3051.00,0.0051
3050.00,0.0051
3049.00,0.0051
3048.00,0.0051
3047.00,0.0051
3046.00,0.0051
3045.00,0.0051
3044.00,0.0051
3043.00,0.0051
3042.00,0.0051
3041.00,0.0051
3040.00,0.0051
3039.00,0.0052
3038.00,0.0052
3037.00,0.0052
3036.00,0.0052
3035.00,0.0052
3034.00,0.0052
3033.00,0.0053
3032.00,0.0053
3031.00,0.0054
3030.00,0.0055
3029.00,0.0055
3028.00,0.0056
3027.00,0.0056
3026.00,0.0056
3025.00,0.0056
3024.00,0.0056
3023.00,0.0057
3022.00,0.0058
3021.00,0.0059
3020.00,0.0060
3019.00,0.0061
3018.00,0.0062
3017.00,0.0063
3016.00,0.0064
3015.00,0.0065
3014.00,0.0066
3013.00,0.0067
3012.00,0.0069
3011.00,0.0070
3010.00,0.0072
3009.00,0.0074
3008.00,0.0076
3007.00,0.0078
3006.00,0.0080
3005.00,0.0083
3004.00,0.0086
3003.00,0.0089
3002.00,0.0091
3001.00,0.0094
3000.00,0.0096
2999.00,0.0099
2998.00,0.0103
2997.00,0.0106
2996.00,0.0110
2995.00,0.0115
2994.00,0.0119
2993.00,0.0124
2992.00,0.0130
2991.00,0.0136
2990.00,0.0142
2989.00,0.0149
2988.00,0.0157
2987.00,0.0167
2986.00,0.0177
2985.00,0.0190
2984.00,0.0203
2983.00,0.0219
2982.00,0.0235
2981.00,0.0252
2980.00,0.0271
2979.00,0.0291
2978.00,0.0314
2977.00,0.0341
2976.00,0.0371
2975.00,0.0406
2974.00,0.0447
2973.00,0.0492
2972.00,0.0543
2971.00,0.0600
2970.00,0.0662
2969.00,0.0730
2968.00,0.0804
2967.00,0.0884
2966.00,0.0968
2965.00,0.1054
2964.00,0.1138
2963.00,0.1218
2962.00,0.1290
2961.00,0.1350
2960.00,0.1399
2959.00,0.1439
2958.00,0.1475
2957.00,0.1512
2956.00,0.1555
2955.00,0.1606
2954.00,0.1664
2953.00,0.1726
2952.00,0.1785
2951.00,0.1832
2950.00,0.1856
2949.00,0.1849
2948.00,0.1805
2947.00,0.1726
2946.00,0.1620
2945.00,0.1500
2944.00,0.1380
2943.00,0.1272
2942.00,0.1185
2941.00,0.1122
2940.00,0.1082
2939.00,0.1066
2938.00,0.1070
2937.00,0.1092
2936.00,0.1131
2935.00,0.1186
2934.00,0.1254
2933.00,0.1335
2932.00,0.1426
2931.00,0.1527
2930.00,0.1635
2929.00,0.1746
2928.00,0.1859
2927.00,0.1972
2926.00,0.2082
2925.00,0.2190
2924.00,0.2297
2923.00,0.2404
2922.00,0.2512
2921.00,0.2616
2920.00,0.2711
2919.00,0.2786
2918.00,0.2830
2917.00,0.2834
2916.00,0.2792
2915.00,0.2711
2914.00,0.2600
2913.00,0.2475
2912.00,0.2349
2911.00,0.2232
2910.00,0.2126
2909.00,0.2032
2908.00,0.1947
2907.00,0.1869
2906.00,0.1795
2905.00,0.1722
2904.00,0.1650
2903.00,0.1579
2902.00,0.1509
2901.00,0.1441
2900.00,0.1376
2899.00,0.1315
2898.00,0.1258
2897.00,0.1206
2896.00,0.1160
2895.00,0.1121
2894.00,0.1089
2893.00,0.1063
2892.00,0.1044
2891.00,0.1030
2890.00,0.1023
2889.00,0.1020
2888.00,0.1021
2887.00,0.1026
2886.00,0.1034
2885.00,0.1046
2884.00,0.1062
2883.00,0.1083
2882.00,0.1108
2881.00,0.1137
2880.00,0.1166
2879.00,0.1191
2878.00,0.1209
2877.00,0.1217
2876.00,0.1217
2875.00,0.1211
2874.00,0.1204
2873.00,0.1201
2872.00,0.1204
2871.00,0.1214
2870.00,0.1230
2869.00,0.1248
2868.00,0.1261
2867.00,0.1261
2866.00,0.1241
2865.00,0.1197
2864.00,0.1131
2863.00,0.1050
2862.00,0.0965
2861.00,0.0885
2860.00,0.0816
2859.00,0.0763
2858.00,0.0725
2857.00,0.0702
2856.00,0.0693
2855.00,0.0695
2854.00,0.0709
2853.00,0.0732
2852.00,0.0760
2851.00,0.0790
2850.00,0.0816
2849.00,0.0836
2848.00,0.0850
2847.00,0.0862
2846.00,0.0880
2845.00,0.0906
2844.00,0.0944
2843.00,0.0993
2842.00,0.1047
2841.00,0.1102
2840.00,0.1148
2839.00,0.1178
2838.00,0.1184
2837.00,0.1159
2836.00,0.1103
2835.00,0.1021
2834.00,0.0922
2833.00,0.0818
2832.00,0.0718
2831.00,0.0628
2830.00,0.0552
2829.00,0.0489
2828.00,0.0438
2827.00,0.0397
2826.00,0.0364
2825.00,0.0336
2824.00,0.0313
2823.00,0.0294
2822.00,0.0277
2821.00,0.0263
2820.00,0.0251
2819.00,0.0240
2818.00,0.0231
2817.00,0.0223
2816.00,0.0215
2815.00,0.0209
2814.00,0.0203
2813.00,0.0197
2812.00,0.0191
2811.00,0.0186
2810.00,0.0180
2809.00,0.0175
2808.00,0.0169
2807.00,0.0162
2806.00,0.0156
2805.00,0.0150
2804.00,0.0144
2803.00,0.0139
2802.00,0.0133
2801.00,0.0129
2800.00,0.0125
2799.00,0.0122
2798.00,0.0119
2797.00,0.0117
2796.00,0.0115
2795.00,0.0112
2794.00,0.0110
2793.00,0.0107
2792.00,0.0104
2791.00,0.0101
2790.00,0.0098
2789.00,0.0095
2788.00,0.0092
2787.00,0.0089
2786.00,0.0086
2785.00,0.0084
2784.00,0.0081
2783.00,0.0079
2782.00,0.0077
2781.00,0.0076
2780.00,0.0074
2779.00,0.0073
2778.00,0.0071
2777.00,0.0070
2776.00,0.0068
2775.00,0.0067
2774.00,0.0066
2773.00,0.0066
2772.00,0.0066
2771.00,0.0065
2770.00,0.0065
2769.00,0.0064
2768.00,0.0064
2767.00,0.0063
2766.00,0.0063
2765.00,0.0063
2764.00,0.0063
2763.00,0.0062
2762.00,0.0062
2761.00,0.0061
2760.00,0.0060
2759.00,0.0060
2758.00,0.0060
2757.00,0.0060
2756.00,0.0060
2755.00,0.0059
2754.00,0.0059
2753.00,0.0059
2752.00,0.0059
2751.00,0.0059
2750.00,0.0059
2749.00,0.0059
2748.00,0.0059
2747.00,0.0060
2746.00,0.0060
2745.00,0.0060
2744.00,0.0061
2743.00,0.0062
2742.00,0.0062
2741.00,0.0064
2740.00,0.0065
2739.00,0.0066
2738.00,0.0067
2737.00,0.0069
2736.00,0.0070
2735.00,0.0072
2734.00,0.0074
2733.00,0.0076
2732.00,0.0078
2731.00,0.0079
2730.00,0.0081
2729.00,0.0083
2728.00,0.0085
2727.00,0.0088
2726.00,0.0091
2725.00,0.0093
2724.00,0.0095
2723.00,0.0095
2722.00,0.0094
2721.00,0.0092
2720.00,0.0089
2719.00,0.0086
2718.00,0.0082
2717.00,0.0079
2716.00,0.0076
2715.00,0.0074
2714.00,0.0071
2713.00,0.0069
2712.00,0.0067
2711.00,0.0065
2710.00,0.0063
2709.00,0.0062
2708.00,0.0060
2707.00,0.0059
2706.00,0.0058
2705.00,0.0057
2704.00,0.0056
2703.00,0.0055
2702.00,0.0054
2701.00,0.0054
2700.00,0.0053
2699.00,0.0053
2698.00,0.0052
2697.00,0.0052
2696.00,0.0051
2695.00,0.0051
2694.00,0.0051
2693.00,0.0051
2692.00,0.0051
2691.00,0.0051
2690.00,0.0051
2689.00,0.0051
2688.00,0.0051
2687.00,0.0051
2686.00,0.0050
2685.00,0.0050
2684.00,0.0050
2683.00,0.0050
2682.00,0.0050
2681.00,0.0051
2680.00,0.0051
2679.00,0.0052
2678.00,0.0052
2677.00,0.0052
2676.00,0.0052
2675.00,0.0052
2674.00,0.0052
2673.00,0.0051
2672.00,0.0051
2671.00,0.0051
2670.00,0.0051
2669.00,0.0051
2668.00,0.0051
2667.00,0.0052
2666.00,0.0052
2665.00,0.0052
2664.00,0.0053
2663.00,0.0053
2662.00,0.0053
2661.00,0.0053
2660.00,0.0053
2659.00,0.0054
2658.00,0.0053
2657.00,0.0053
2656.00,0.0053
2655.00,0.0053
2654.00,0.0052
2653.00,0.0051
2652.00,0.0051
2651.00,0.0050
2650.00,0.0050
2649.00,0.0050
2648.00,0.0050
2647.00,0.0049
2646.00,0.0049
2645.00,0.0049
2644.00,0.0048
2643.00,0.0048
2642.00,0.0047
2641.00,0.0046
2640.00,0.0046
2639.00,0.0045
2638.00,0.0045
2637.00,0.0045
2636.00,0.0044
2635.00,0.0044
2634.00,0.0044
2633.00,0.0044
2632.00,0.0044
2631.00,0.0045
2630.00,0.0045
2629.00,0.0045
2628.00,0.0045
2627.00,0.0045
2626.00,0.0046
2625.00,0.0046
2624.00,0.0046
2623.00,0.0046
2622.00,0.0046
2621.00,0.0046
2620.00,0.0046
2619.00,0.0046
2618.00,0.0046
2617.00,0.0045
2616.00,0.0045
2615.00,0.0045
2614.00,0.0045
2613.00,0.0045
2612.00,0.0045
2611.00,0.0044
2610.00,0.0044
2609.00,0.0043
2608.00,0.0043
2607.00,0.0042
2606.00,0.0041
2605.00,0.0041
2604.00,0.0040
2603.00,0.0039
2602.00,0.0038
2601.00,0.0038
2600.00,0.0038
2599.00,0.0037
2598.00,0.0037
2597.00,0.0037
2596.00,0.0037
2595.00,0.0038
2594.00,0.0038
2593.00,0.0038
2592.00,0.0038
2591.00,0.0039
2590.00,0.0039
2589.00,0.0040
2588.00,0.0041
2587.00,0.0043
2586.00,0.0043
2585.00,0.0044
2584.00,0.0044
2583.00,0.0044
2582.00,0.0044
2581.00,0.0044
2580.00,0.0044
2579.00,0.0044
2578.00,0.0044
2577.00,0.0043
2576.00,0.0042
2575.00,0.0040
2574.00,0.0038
2573.00,0.0036
2572.00,0.0035
2571.00,0.0034
2570.00,0.0033
2569.00,0.0033
2568.00,0.0032
2567.00,0.0031
2566.00,0.0031
2565.00,0.0031
2564.00,0.0031
2563.00,0.0031
2562.00,0.0030
2561.00,0.0030
2560.00,0.0029
2559.00,0.0029
2558.00,0.0028
2557.00,0.0028
2556.00,0.0028
2555.00,0.0028
2554.00,0.0028
2553.00,0.0028
2552.00,0.0027
2551.00,0.0027
2550.00,0.0026
2549.00,0.0026
2548.00,0.0026
2547.00,0.0026
2546.00,0.0025
2545.00,0.0025
2544.00,0.0024
2543.00,0.0023
2542.00,0.0022
2541.00,0.0022
2540.00,0.0023
2539.00,0.0023
2538.00,0.0024
2537.00,0.0024
2536.00,0.0023
2535.00,0.0023
2534.00,0.0022
2533.00,0.0021
2532.00,0.0020
2531.00,0.0020
2530.00,0.0020
2529.00,0.0020
2528.00,0.0020
2527.00,0.0019
2526.00,0.0019
2525.00,0.0019
2524.00,0.0019
2523.00,0.0019
2522.00,0.0019
2521.00,0.0019
2520.00,0.0019
2519.00,0.0019
2518.00,0.0019
2517.00,0.0018
2516.00,0.0018
2515.00,0.0018
2514.00,0.0018
2513.00,0.0018
2512.00,0.0018
2511.00,0.0017
2510.00,0.0017
2509.00,0.0017
2508.00,0.0017
2507.00,0.0017
2506.00,0.0017
2505.00,0.0018
2504.00,0.0018
2503.00,0.0018
2502.00,0.0018
2501.00,0.0017
2500.00,0.0017
2499.00,0.0017
2498.00,0.0017
2497.00,0.0017
2496.00,0.0017
2495.00,0.0017
2494.00,0.0017
2493.00,0.0017
2492.00,0.0017
2491.00,0.0017
2490.00,0.0017
2489.00,0.0017
2488.00,0.0017
2487.00,0.0017
2486.00,0.0017
2485.00,0.0016
2484.00,0.0016
2483.00,0.0016
2482.00,0.0016
2481.00,0.0016
2480.00,0.0016
2479.00,0.0016
2478.00,0.0015
2477.00,0.0015
2476.00,0.0015
2475.00,0.0015
2474.00,0.0015
2473.00,0.0015
2472.00,0.0015
2471.00,0.0015
2470.00,0.0015
2469.00,0.0014
2468.00,0.0014
2467.00,0.0014
2466.00,0.0014
2465.00,0.0014
2464.00,0.0014
2463.00,0.0014
2462.00,0.0015
2461.00,0.0015
2460.00,0.0015
2459.00,0.0015
2458.00,0.0016
2457.00,0.0016
2456.00,0.0017
2455.00,0.0017
2454.00,0.0018
2453.00,0.0017
2452.00,0.0017
2451.00,0.0017
2450.00,0.0017
2449.00,0.0017
2448.00,0.0017
2447.00,0.0017
2446.00,0.0017
2445.00,0.0017
2444.00,0.0017
2443.00,0.0017
2442.00,0.0017
2441.00,0.0017
2440.00,0.0016
2439.00,0.0015
2438.00,0.0015
2437.00,0.0014
2436.00,0.0014
2435.00,0.0014
2434.00,0.0015
2433.00,0.0015
2432.00,0.0016
2431.00,0.0016
2430.00,0.0017
2429.00,0.0017
2428.00,0.0018
2427.00,0.0018
2426.00,0.0018
2425.00,0.0018
2424.00,0.0018
2423.00,0.0017
2422.00,0.0016
2421.00,0.0016
2420.00,0.0016
2419.00,0.0016
2418.00,0.0016
2417.00,0.0016
2416.00,0.0016
2415.00,0.0015
2414.00,0.0015
2413.00,0.0015
2412.00,0.0015
2411.00,0.0014
2410.00,0.0013
2409.00,0.0013
2408.00,0.0012
2407.00,0.0012
2406.00,0.0012
2405.00,0.0012
2404.00,0.0012
2403.00,0.0013
2402.00,0.0013
2401.00,0.0013
2400.00,0.0013
2399.00,0.0013
2398.00,0.0013
2397.00,0.0013
2396.00,0.0013
2395.00,0.0013
2394.00,0.0013
2393.00,0.0013
2392.00,0.0013
2391.00,0.0013
2390.00,0.0013
2389.00,0.0012
2388.00,0.0011
2387.00,0.0011
2386.00,0.0011
2385.00,0.0011
2384.00,0.0011
2383.00,0.0011
2382.00,0.0011
2381.00,0.0011
2380.00,0.0011
2379.00,0.0011
2378.00,0.0011
2377.00,0.0011
2376.00,0.0011
2375.00,0.0011
2374.00,0.0011
2373.00,0.0011
2372.00,0.0011
2371.00,0.0011
2370.00,0.0010
2369.00,0.0010
2368.00,0.0010
2367.00,0.0010
2366.00,0.0010
2365.00,0.0011
2364.00,0.0012
2363.00,0.0012
2362.00,0.0012
2361.00,0.0012
2360.00,0.0011
2359.00,0.0011
2358.00,0.0011
2357.00,0.0012
2356.00,0.0012
2355.00,0.0012
2354.00,0.0012
2353.00,0.0011
2352.00,0.0011
2351.00,0.0011
2350.00,0.0011
2349.00,0.0012
2348.00,0.0012
2347.00,0.0012
2346.00,0.0012
2345.00,0.0012
2344.00,0.0012
2343.00,0.0013
2342.00,0.0013
2341.00,0.0014
2340.00,0.0015
2339.00,0.0015
2338.00,0.0015
2337.00,0.0015
2336.00,0.0014
2335.00,0.0014
2334.00,0.0014
2333.00,0.0013
2332.00,0.0011
2331.00,0.0011
2330.00,0.0010
2329.00,0.0011
2328.00,0.0014
2327.00,0.0017
2326.00,0.0022
2325.00,0.0026
2324.00,0.0029
2323.00,0.0028
2322.00,0.0027
2321.00,0.0025
2320.00,0.0023
2319.00,0.0022
2318.00,0.0021
2317.00,0.0020
2316.00,0.0019
2315.00,0.0018
2314.00,0.0017
2313.00,0.0016
2312.00,0.0015
2311.00,0.0014
2310.00,0.0013
2309.00,0.0012
2308.00,0.0013
2307.00,0.0013
2306.00,0.0014
2305.00,0.0015
2304.00,0.0015
2303.00,0.0015
2302.00,0.0015
2301.00,0.0015
2300.00,0.0015
2299.00,0.0015
2298.00,0.0016
2297.00,0.0016
2296.00,0.0017
2295.00,0.0018
2294.00,0.0019
2293.00,0.0020
2292.00,0.0021
2291.00,0.0021
2290.00,0.0021
2289.00,0.0021
2288.00,0.0022
2287.00,0.0022
2286.00,0.0023
2285.00,0.0023
2284.00,0.0023
2283.00,0.0022
2282.00,0.0022
2281.00,0.0021
2280.00,0.0021
2279.00,0.0020
2278.00,0.0019
2277.00,0.0018
2276.00,0.0018
2275.00,0.0018
2274.00,0.0018
2273.00,0.0018
2272.00,0.0018
2271.00,0.0017
2270.00,0.0017
2269.00,0.0017
2268.00,0.0017
2267.00,0.0017
2266.00,0.0017
2265.00,0.0018
2264.00,0.0018
2263.00,0.0017
2262.00,0.0016
2261.00,0.0016
2260.00,0.0016
2259.00,0.0017
2258.00,0.0018
2257.00,0.0018
2256.00,0.0017
2255.00,0.0016
2254.00,0.0014
2253.00,0.0013
2252.00,0.0013
2251.00,0.0013
2250.00,0.0013
2249.00,0.0014
2248.00,0.0014
2247.00,0.0014
2246.00,0.0015
2245.00,0.0015
2244.00,0.0015
2243.00,0.0015
2242.00,0.0015
2241.00,0.0015
2240.00,0.0015
2239.00,0.0014
2238.00,0.0014
2237.00,0.0014
2236.00,0.0014
2235.00,0.0014
2234.00,0.0015
2233.00,0.0016
2232.00,0.0016
2231.00,0.0016
2230.00,0.0015
2229.00,0.0015
2228.00,0.0015
2227.00,0.0014
2226.00,0.0013
2225.00,0.0012
2224.00,0.0011
2223.00,0.0011
2222.00,0.0011
2221.00,0.0011
2220.00,0.0011
2219.00,0.0010
2218.00,0.0009
2217.00,0.0009
2216.00,0.0009
2215.00,0.0009
2214.00,0.0008
2213.00,0.0006
2212.00,0.0006
2211.00,0.0006
2210.00,0.0007
2209.00,0.0009
2208.00,0.0010
2207.00,0.0011
2206.00,0.0011
2205.00,0.0012
2204.00,0.0012
2203.00,0.0013
2202.00,0.0014
2201.00,0.0014
2200.00,0.0014
2199.00,0.0014
2198.00,0.0015
2197.00,0.0015
2196.00,0.0014
2195.00,0.0013
2194.00,0.0012
2193.00,0.0012
2192.00,0.0014
2191.00,0.0017
2190.00,0.0019
2189.00,0.0019
2188.00,0.0018
2187.00,0.0016
2186.00,0.0015
2185.00,0.0015
2184.00,0.0015
2183.00,0.0014
2182.00,0.0012
2181.00,0.0010
2180.00,0.0009
2179.00,0.0010
2178.00,0.0012
2177.00,0.0013
2176.00,0.0013
2175.00,0.0011
2174.00,0.0011
2173.00,0.0012
2172.00,0.0013
2171.00,0.0014
2170.00,0.0015
2169.00,0.0019
2168.00,0.0023
2167.00,0.0025
2166.00,0.0024
2165.00,0.0021
2164.00,0.0019
2163.00,0.0020
2162.00,0.0022
2161.00,0.0020
2160.00,0.0011
2159.00,-0.0003
2158.00,-0.0016
2157.00,-0.0022
2156.00,-0.0023
2155.00,-0.0023
2154.00,-0.0022
2153.00,-0.0021
2152.00,-0.0020
2151.00,-0.0018
2150.00,-0.0016
2149.00,-0.0014
2148.00,-0.0013
2147.00,-0.0013
2146.00,-0.0014
2145.00,-0.0013
2144.00,-0.0011
2143.00,-0.0009
2142.00,-0.0008
2141.00,-0.0007
2140.00,-0.0006
2139.00,-0.0006
2138.00,-0.0006
2137.00,-0.0006
2136.00,-0.0008
2135.00,-0.0009
2134.00,-0.0010
2133.00,-0.0009
2132.00,-0.0008
2131.00,-0.0007
2130.00,-0.0006
2129.00,-0.0005
2128.00,-0.0004
2127.00,-0.0004
2126.00,-0.0003
2125.00,-0.0002
2124.00,-0.0002
2123.00,-0.0002
2122.00,-0.0003
2121.00,-0.0003
2120.00,-0.0003
2119.00,-0.0002
2118.00,-0.0002
2117.00,-0.0000
2116.00,0.0002
2115.00,0.0004
2114.00,0.0006
2113.00,0.0007
2112.00,0.0007
2111.00,0.0007
2110.00,0.0006
2109.00,0.0006
2108.00,0.0007
2107.00,0.0007
2106.00,0.0007
2105.00,0.0008
2104.00,0.0009
2103.00,0.0008
2102.00,0.0007
2101.00,0.0006
2100.00,0.0006
2099.00,0.0005
2098.00,0.0004
2097.00,0.0003
2096.00,0.0001
2095.00,-0.0000
2094.00,-0.0001
2093.00,0.0000
2092.00,0.0001
2091.00,0.0001
2090.00,0.0001
2089.00,0.0002
2088.00,0.0003
2087.00,0.0004
2086.00,0.0005
2085.00,0.0005
2084.00,0.0006
2083.00,0.0005
2082.00,0.0005
2081.00,0.0005
2080.00,0.0007
2079.00,0.0008
2078.00,0.0009
2077.00,0.0009
2076.00,0.0009
2075.00,0.0008
2074.00,0.0007
2073.00,0.0006
2072.00,0.0006
2071.00,0.0006
2070.00,0.0006
2069.00,0.0006
2068.00,0.0006
2067.00,0.0005
2066.00,0.0004
2065.00,0.0003
2064.00,0.0003
2063.00,0.0003
2062.00,0.0003
2061.00,0.0003
2060.00,0.0003
2059.00,0.0003
2058.00,0.0002
2057.00,0.0003
2056.00,0.0004
2055.00,0.0005
2054.00,0.0007
2053.00,0.0011
2052.00,0.0015
2051.00,0.0016
2050.00,0.0015
2049.00,0.0012
2048.00,0.0011
2047.00,0.0011
2046.00,0.0011
2045.00,0.0012
2044.00,0.0013
2043.00,0.0014
2042.00,0.0013
2041.00,0.0012
2040.00,0.0010
2039.00,0.0009
2038.00,0.0009
2037.00,0.0007
2036.00,0.0004
2035.00,-0.0000
2034.00,-0.0003
2033.00,-0.0003
2032.00,-0.0002
2031.00,0.0001
2030.00,0.0002
2029.00,0.0003
2028.00,0.0004
2027.00,0.0003
2026.00,0.0001
2025.00,-0.0002
2024.00,-0.0006
2023.00,-0.0010
2022.00,-0.0013
2021.00,-0.0014
2020.00,-0.0013
2019.00,-0.0010
2018.00,-0.0007
2017.00,-0.0006
2016.00,-0.0006
2015.00,-0.0007
2014.00,-0.0008
2013.00,-0.0008
2012.00,-0.0007
2011.00,-0.0007
2010.00,-0.0007
2009.00,-0.0006
2008.00,-0.0006
2007.00,-0.0007
2006.00,-0.0009
2005.00,-0.0010
2004.00,-0.0010
2003.00,-0.0008
2002.00,-0.0006
2001.00,-0.0004
2000.00,-0.0005
1999.00,-0.0007
1998.00,-0.0009
1997.00,-0.0008
1996.00,-0.0007
1995.00,-0.0006
1994.00,-0.0006
1993.00,-0.0006
1992.00,-0.0006
1991.00,-0.0005
1990.00,-0.0003
1989.00,0.0000
1988.00,0.0004
1987.00,0.0006
1986.00,0.0006
1985.00,0.0007
1984.00,0.0008
1983.00,0.0009
1982.00,0.0012
1981.00,0.0016
1980.00,0.0018
1979.00,0.0015
1978.00,0.0008
1977.00,0.0002
1976.00,-0.0002
1975.00,-0.0005
1974.00,-0.0008
1973.00,-0.0011
1972.00,-0.0013
1971.00,-0.0014
1970.00,-0.0014
1969.00,-0.0012
1968.00,-0.0009
1967.00,-0.0007
1966.00,-0.0006
1965.00,-0.0006
1964.00,-0.0006
1963.00,-0.0006
1962.00,-0.0007
1961.00,-0.0007
1960.00,-0.0007
1959.00,-0.0009
1958.00,-0.0011
1957.00,-0.0012
1956.00,-0.0011
1955.00,-0.0010
1954.00,-0.0008
1953.00,-0.0007
1952.00,-0.0006
1951.00,-0.0007
1950.00,-0.0009
1949.00,-0.0011
1948.00,-0.0011
1947.00,-0.0012
1946.00,-0.0012
1945.00,-0.0011
1944.00,-0.0010
1943.00,-0.0008
1942.00,-0.0007
1941.00,-0.0007
1940.00,-0.0006
1939.00,-0.0006
1938.00,-0.0006
1937.00,-0.0006
1936.00,-0.0007
1935.00,-0.0008
1934.00,-0.0009
1933.00,-0.0009
1932.00,-0.0007
1931.00,-0.0004
1930.00,-0.0002
1929.00,-0.0001
1928.00,-0.0001
1927.00,-0.0002
1926.00,-0.0002
1925.00,-0.0002
1924.00,-0.0001
1923.00,-0.0000
1922.00,-0.0000
1921.00,-0.0000
1920.00,-0.0000
1919.00,0.0000
1918.00,0.0001
1917.00,0.0001
1916.00,0.0002
1915.00,0.0003
1914.00,0.0003
1913.00,0.0003
1912.00,0.0003
1911.00,0.0004
1910.00,0.0004
1909.00,0.0004
1908.00,0.0004
1907.00,0.0004
1906.00,0.0002
1905.00,0.0001
1904.00,0.0001
1903.00,0.0002
1902.00,0.0003
1901.00,0.0004
1900.00,0.0004
1899.00,0.0005
1898.00,0.0004
1897.00,0.0004
1896.00,0.0004
1895.00,0.0004
1894.00,0.0005
1893.00,0.0006
1892.00,0.0006
1891.00,0.0006
1890.00,0.0006
1889.00,0.0005
1888.00,0.0004
1887.00,0.0004
1886.00,0.0003
1885.00,0.0003
1884.00,0.0004
1883.00,0.0004
1882.00,0.0004
1881.00,0.0005
1880.00,0.0005
1879.00,0.0005
1878.00,0.0005
1877.00,0.0004
1876.00,0.0003
1875.00,0.0003
1874.00,0.0004
1873.00,0.0004
1872.00,0.0005
1871.00,0.0005
1870.00,0.0006
1869.00,0.0006
1868.00,0.0005
1867.00,0.0005
1866.00,0.0004
1865.00,0.0005
1864.00,0.0005
1863.00,0.0006
1862.00,0.0006
1861.00,0.0006
1860.00,0.0006
1859.00,0.0006
1858.00,0.0006
1857.00,0.0005
1856.00,0.0005
1855.00,0.0004
1854.00,0.0004
1853.00,0.0004
1852.00,0.0005
1851.00,0.0005
1850.00,0.0006
1849.00,0.0006
1848.00,0.0007
1847.00,0.0009
1846.00,0.0010
1845.00,0.0011
1844.00,0.0011
1843.00,0.0010
1842.00,0.0008
1841.00,0.0007
1840.00,0.0006
1839.00,0.0005
1838.00,0.0005
1837.00,0.0005
1836.00,0.0006
1835.00,0.0007
1834.00,0.0008
1833.00,0.0008
1832.00,0.0009
1831.00,0.0008
1830.00,0.0008
1829.00,0.0008
1828.00,0.0008
1827.00,0.0008
1826.00,0.0008
1825.00,0.0008
1824.00,0.0008
1823.00,0.0008
1822.00,0.0007
1821.00,0.0008
1820.00,0.0007
1819.00,0.0007
1818.00,0.0006
1817.00,0.0006
1816.00,0.0006
1815.00,0.0006
1814.00,0.0006
1813.00,0.0006
1812.00,0.0006
1811.00,0.0006
1810.00,0.0007
1809.00,0.0008
1808.00,0.0008
1807.00,0.0009
1806.00,0.0009
1805.00,0.0010
1804.00,0.0010
1803.00,0.0009
1802.00,0.0009
1801.00,0.0010
1800.00,0.0011
1799.00,0.0012
1798.00,0.0012
1797.00,0.0013
1796.00,0.0013
1795.00,0.0013
1794.00,0.0013
1793.00,0.0013
1792.00,0.0013
1791.00,0.0013
1790.00,0.0013
1789.00,0.0014
1788.00,0.0014
1787.00,0.0015
1786.00,0.0015
1785.00,0.0015
1784.00,0.0014
1783.00,0.0013
1782.00,0.0012
1781.00,0.0012
1780.00,0.0013
1779.00,0.0014
1778.00,0.0015
1777.00,0.0015
1776.00,0.0015
1775.00,0.0015
1774.00,0.0015
1773.00,0.0015
1772.00,0.0016
1771.00,0.0016
1770.00,0.0017
1769.00,0.0017
1768.00,0.0017
1767.00,0.0017
1766.00,0.0017
1765.00,0.0018
1764.00,0.0019
1763.00,0.0020
1762.00,0.0020
1761.00,0.0021
1760.00,0.0021
1759.00,0.0022
1758.00,0.0023
1757.00,0.0024
1756.00,0.0025
1755.00,0.0027
1754.00,0.0028
1753.00,0.0030
1752.00,0.0032
1751.00,0.0033
1750.00,0.0033
1749.00,0.0034
1748.00,0.0035
1747.00,0.0035
1746.00,0.0036
1745.00,0.0036
1744.00,0.0037
1743.00,0.0037
1742.00,0.0038
1741.00,0.0039
1740.00,0.0039
1739.00,0.0039
1738.00,0.0039
1737.00,0.0039
1736.00,0.0040
1735.00,0.0040
1734.00,0.0039
1733.00,0.0037
1732.00,0.0036
1731.00,0.0035
1730.00,0.0035
1729.00,0.0035
1728.00,0.0035
1727.00,0.0035
1726.00,0.0035
1725.00,0.0034
1724.00,0.0033
1723.00,0.0033
1722.00,0.0033
1721.00,0.0033
1720.00,0.0034
1719.00,0.0034
1718.00,0.0035
1717.00,0.0035
1716.00,0.0035
1715.00,0.0035
1714.00,0.0035
1713.00,0.0035
1712.00,0.0035
1711.00,0.0035
1710.00,0.0035
1709.00,0.0036
1708.00,0.0037
1707.00,0.0037
1706.00,0.0038
1705.00,0.0039
1704.00,0.0041
1703.00,0.0043
1702.00,0.0046
1701.00,0.0048
1700.00,0.0049
1699.00,0.0048
1698.00,0.0049
1697.00,0.0050
1696.00,0.0051
1695.00,0.0052
1694.00,0.0053
1693.00,0.0054
1692.00,0.0054
1691.00,0.0056
1690.00,0.0057
1689.00,0.0059
1688.00,0.0060
1687.00,0.0062
1686.00,0.0062
1685.00,0.0063
1684.00,0.0064
1683.00,0.0067
1682.00,0.0069
1681.00,0.0070
1680.00,0.0072
1679.00,0.0074
1678.00,0.0075
1677.00,0.0077
1676.00,0.0079
1675.00,0.0080
1674.00,0.0081
1673.00,0.0082
1672.00,0.0083
1671.00,0.0085
1670.00,0.0086
1669.00,0.0087
1668.00,0.0088
1667.00,0.0089
1666.00,0.0090
1665.00,0.0092
1664.00,0.0094
1663.00,0.0096
1662.00,0.0097
1661.00,0.0097
1660.00,0.0098
1659.00,0.0100
1658.00,0.0101
1657.00,0.0102
1656.00,0.0104
1655.00,0.0106
1654.00,0.0107
1653.00,0.0108
1652.00,0.0109
1651.00,0.0110
1650.00,0.0111
1649.00,0.0112
1648.00,0.0113
1647.00,0.0115
1646.00,0.0117
1645.00,0.0117
1644.00,0.0118
1643.00,0.0117
1642.00,0.0118
1641.00,0.0119
1640.00,0.0120
1639.00,0.0121
1638.00,0.0122
1637.00,0.0122
1636.00,0.0122
1635.00,0.0123
1634.00,0.0123
1633.00,0.0123
1632.00,0.0124
1631.00,0.0124
1630.00,0.0124
1629.00,0.0123
1628.00,0.0123
1627.00,0.0123
1626.00,0.0123
1625.00,0.0123
1624.00,0.0122
1623.00,0.0121
1622.00,0.0120
1621.00,0.0119
1620.00,0.0119
1619.00,0.0118
1618.00,0.0117
1617.00,0.0115
1616.00,0.0115
1615.00,0.0114
1614.00,0.0114
1613.00,0.0114
1612.00,0.0114
1611.00,0.0113
1610.00,0.0112
1609.00,0.0112
1608.00,0.0112
1607.00,0.0112
1606.00,0.0112
1605.00,0.0113
1604.00,0.0114
1603.00,0.0115
1602.00,0.0116
1601.00,0.0116
1600.00,0.0117
1599.00,0.0118
1598.00,0.0119
1597.00,0.0120
1596.00,0.0122
1595.00,0.0124
1594.00,0.0127
1593.00,0.0130
1592.00,0.0134
1591.00,0.0139
1590.00,0.0145
1589.00,0.0151
1588.00,0.0160
1587.00,0.0170
1586.00,0.0182
1585.00,0.0195
1584.00,0.0210
1583.00,0.0226
1582.00,0.0241
1581.00,0.0256
1580.00,0.0268
1579.00,0.0277
1578.00,0.0281
1577.00,0.0279
1576.00,0.0273
1575.00,0.0264
1574.00,0.0255
1573.00,0.0246
1572.00,0.0237
1571.00,0.0226
1570.00,0.0211
1569.00,0.0197
1568.00,0.0188
1567.00,0.0180
1566.00,0.0174
1565.00,0.0169
1564.00,0.0165
1563.00,0.0163
1562.00,0.0162
1561.00,0.0162
1560.00,0.0162
1559.00,0.0161
1558.00,0.0162
1557.00,0.0164
1556.00,0.0166
1555.00,0.0170
1554.00,0.0175
1553.00,0.0180
1552.00,0.0186
1551.00,0.0194
1550.00,0.0206
1549.00,0.0219
1548.00,0.0234
1547.00,0.0248
1546.00,0.0265
1545.00,0.0284
1544.00,0.0304
1543.00,0.0321
1542.00,0.0333
1541.00,0.0335
1540.00,0.0323
1539.00,0.0303
1538.00,0.0286
1537.00,0.0272
1536.00,0.0258
1535.00,0.0241
1534.00,0.0220
1533.00,0.0199
1532.00,0.0184
1531.00,0.0174
1530.00,0.0167
1529.00,0.0160
1528.00,0.0154
1527.00,0.0149
1526.00,0.0144
1525.00,0.0140
1524.00,0.0138
1523.00,0.0135
1522.00,0.0133
1521.00,0.0132
1520.00,0.0131
1519.00,0.0130
1518.00,0.0129
1517.00,0.0128
1516.00,0.0129
1515.00,0.0129
1514.00,0.0128
1513.00,0.0128
1512.00,0.0127
1511.00,0.0126
1510.00,0.0126
1509.00,0.0126
1508.00,0.0127
1507.00,0.0127
1506.00,0.0127
1505.00,0.0127
1504.00,0.0128
1503.00,0.0129
1502.00,0.0130
1501.00,0.0132
1500.00,0.0135
1499.00,0.0137
1498.00,0.0140
1497.00,0.0144
1496.00,0.0149
1495.00,0.0153
1494.00,0.0156
1493.00,0.0160
1492.00,0.0165
1491.00,0.0169
1490.00,0.0174
1489.00,0.0181
1488.00,0.0190
1487.00,0.0199
1486.00,0.0210
1485.00,0.0223
1484.00,0.0237
1483.00,0.0253
1482.00,0.0271
1481.00,0.0294
1480.00,0.0317
1479.00,0.0340
1478.00,0.0363
1477.00,0.0390
1476.00,0.0419
1475.00,0.0450
1474.00,0.0489
1473.00,0.0541
1472.00,0.0599
1471.00,0.0655
1470.00,0.0709
1469.00,0.0767
1468.00,0.0831
1467.00,0.0903
1466.00,0.0986
1465.00,0.1075
1464.00,0.1152
1463.00,0.1205
1462.00,0.1239
1461.00,0.1262
1460.00,0.1278
1459.00,0.1288
1458.00,0.1297
1457.00,0.1304
1456.00,0.1304
1455.00,0.1296
1454.00,0.1286
1453.00,0.1269
1452.00,0.1243
1451.00,0.1204
1450.00,0.1151
1449.00,0.1076
1448.00,0.0983
1447.00,0.0884
1446.00,0.0797
1445.00,0.0724
1444.00,0.0663
1443.00,0.0614
1442.00,0.0579
1441.00,0.0557
1440.00,0.0546
1439.00,0.0544
1438.00,0.0550
1437.00,0.0557
1436.00,0.0551
1435.00,0.0527
1434.00,0.0489
1433.00,0.0443
1432.00,0.0396
1431.00,0.0353
1430.00,0.0320
1429.00,0.0296
1428.00,0.0280
1427.00,0.0271
1426.00,0.0266
1425.00,0.0263
1424.00,0.0260
1423.00,0.0259
1422.00,0.0258
1421.00,0.0257
1420.00,0.0253
1419.00,0.0247
1418.00,0.0242
1417.00,0.0237
1416.00,0.0231
1415.00,0.0227
1414.00,0.0224
1413.00,0.0220
1412.00,0.0216
1411.00,0.0213
1410.00,0.0210
1409.00,0.0206
1408.00,0.0203
1407.00,0.0199
1406.00,0.0197
1405.00,0.0194
1404.00,0.0191
1403.00,0.0190
1402.00,0.0190
1401.00,0.0190
1400.00,0.0189
1399.00,0.0189
1398.00,0.0190
1397.00,0.0191
1396.00,0.0192
1395.00,0.0195
1394.00,0.0199
1393.00,0.0204
1392.00,0.0209
1391.00,0.0217
1390.00,0.0228
1389.00,0.0244
1388.00,0.0268
1387.00,0.0304
1386.00,0.0353
1385.00,0.0415
1384.00,0.0497
1383.00,0.0607
1382.00,0.0752
1381.00,0.0938
1380.00,0.1171
1379.00,0.1440
1378.00,0.1707
1377.00,0.1914
1376.00,0.2001
1375.00,0.1925
1374.00,0.1705
1373.00,0.1426
1372.00,0.1162
1371.00,0.0941
1370.00,0.0763
1369.00,0.0628
1368.00,0.0534
1367.00,0.0476
1366.00,0.0444
1365.00,0.0431
1364.00,0.0432
1363.00,0.0446
1362.00,0.0468
1361.00,0.0492
1360.00,0.0510
1359.00,0.0515
1358.00,0.0503
1357.00,0.0475
1356.00,0.0436
1355.00,0.0393
1354.00,0.0350
1353.00,0.0314
1352.00,0.0285
1351.00,0.0261
1350.00,0.0241
1349.00,0.0225
1348.00,0.0212
1347.00,0.0202
1346.00,0.0193
1345.00,0.0187
1344.00,0.0182
1343.00,0.0177
1342.00,0.0174
1341.00,0.0171
1340.00,0.0168
1339.00,0.0166
1338.00,0.0165
1337.00,0.0164
1336.00,0.0165
1335.00,0.0166
1334.00,0.0169
1333.00,0.0172
1332.00,0.0176
1331.00,0.0179
1330.00,0.0180
1329.00,0.0178
1328.00,0.0174
1327.00,0.0168
1326.00,0.0162
1325.00,0.0156
1324.00,0.0150
1323.00,0.0146
1322.00,0.0143
1321.00,0.0141
1320.00,0.0138
1319.00,0.0136
1318.00,0.0133
1317.00,0.0130
1316.00,0.0127
1315.00,0.0125
1314.00,0.0124
1313.00,0.0123
1312.00,0.0123
1311.00,0.0125
1310.00,0.0129
1309.00,0.0135
1308.00,0.0144
1307.00,0.0154
1306.00,0.0164
1305.00,0.0172
1304.00,0.0175
1303.00,0.0174
1302.00,0.0171
1301.00,0.0168
1300.00,0.0167
1299.00,0.0167
1298.00,0.0167
1297.00,0.0167
1296.00,0.0166
1295.00,0.0163
1294.00,0.0158
1293.00,0.0153
1292.00,0.0147
1291.00,0.0141
1290.00,0.0137
1289.00,0.0132
1288.00,0.0128
1287.00,0.0125
1286.00,0.0122
1285.00,0.0119
1284.00,0.0116
1283.00,0.0115
1282.00,0.0115
1281.00,0.0115
1280.00,0.0115
1279.00,0.0115
1278.00,0.0114
1277.00,0.0113
1276.00,0.0113
1275.00,0.0112
1274.00,0.0112
1273.00,0.0112
1272.00,0.0112
1271.00,0.0112
1270.00,0.0114
1269.00,0.0116
1268.00,0.0119
1267.00,0.0122
1266.00,0.0125
1265.00,0.0128
1264.00,0.0132
1263.00,0.0136
1262.00,0.0141
1261.00,0.0146
1260.00,0.0152
1259.00,0.0158
1258.00,0.0164
1257.00,0.0169
1256.00,0.0170
1255.00,0.0168
1254.00,0.0163
1253.00,0.0156
1252.00,0.0149
1251.00,0.0144
1250.00,0.0140
1249.00,0.0137
1248.00,0.0135
1247.00,0.0134
1246.00,0.0133
1245.00,0.0132
1244.00,0.0132
1243.00,0.0132
1242.00,0.0132
1241.00,0.0132
1240.00,0.0133
1239.00,0.0133
1238.00,0.0134
1237.00,0.0134
1236.00,0.0135
1235.00,0.0136
1234.00,0.0137
1233.00,0.0138
1232.00,0.0138
1231.00,0.0139
1230.00,0.0140
1229.00,0.0141
1228.00,0.0142
1227.00,0.0144
1226.00,0.0146
1225.00,0.0148
1224.00,0.0151
1223.00,0.0154
1222.00,0.0158
1221.00,0.0160
1220.00,0.0161
1219.00,0.0162
1218.00,0.0161
1217.00,0.0159
1216.00,0.0157
1215.00,0.0154
1214.00,0.0151
1213.00,0.0148
1212.00,0.0145
1211.00,0.0142
1210.00,0.0140
1209.00,0.0137
1208.00,0.0136
1207.00,0.0135
1206.00,0.0135
1205.00,0.0134
1204.00,0.0133
1203.00,0.0132
1202.00,0.0132
1201.00,0.0133
1200.00,0.0134
1199.00,0.0135
1198.00,0.0136
1197.00,0.0136
1196.00,0.0137
1195.00,0.0138
1194.00,0.0138
1193.00,0.0139
1192.00,0.0140
1191.00,0.0140
1190.00,0.0141
1189.00,0.0141
1188.00,0.0141
1187.00,0.0141
1186.00,0.0141
1185.00,0.0142
1184.00,0.0142
1183.00,0.0143
1182.00,0.0144
1181.00,0.0147
1180.00,0.0150
1179.00,0.0154
1178.00,0.0159
1177.00,0.0167
1176.00,0.0177
1175.00,0.0190
1174.00,0.0209
1173.00,0.0232
1172.00,0.0259
1171.00,0.0288
1170.00,0.0316
1169.00,0.0338
1168.00,0.0351
1167.00,0.0354
1166.00,0.0348
1165.00,0.0335
1164.00,0.0320
1163.00,0.0304
1162.00,0.0289
1161.00,0.0277
1160.00,0.0267
1159.00,0.0260
1158.00,0.0254
1157.00,0.0249
1156.00,0.0246
1155.00,0.0244
1154.00,0.0242
1153.00,0.0239
1152.00,0.0235
1151.00,0.0229
1150.00,0.0221
1149.00,0.0212
1148.00,0.0203
1147.00,0.0194
1146.00,0.0187
1145.00,0.0180
1144.00,0.0174
1143.00,0.0168
1142.00,0.0163
1141.00,0.0158
1140.00,0.0154
1139.00,0.0151
1138.00,0.0148
1137.00,0.0147
1136.00,0.0146
1135.00,0.0145
1134.00,0.0145
1133.00,0.0145
1132.00,0.0146
1131.00,0.0148
1130.00,0.0149
1129.00,0.0151
1128.00,0.0153
1127.00,0.0155
1126.00,0.0156
1125.00,0.0155
1124.00,0.0153
1123.00,0.0152
1122.00,0.0151
1121.00,0.0150
1120.00,0.0151
1119.00,0.0153
1118.00,0.0155
1117.00,0.0157
1116.00,0.0160
1115.00,0.0163
1114.00,0.0166
1113.00,0.0168
1112.00,0.0170
1111.00,0.0173
1110.00,0.0176
1109.00,0.0179
1108.00,0.0183
1107.00,0.0188
1106.00,0.0194
1105.00,0.0201
1104.00,0.0206
1103.00,0.0209
1102.00,0.0210
1101.00,0.0207
1100.00,0.0201
1099.00,0.0195
1098.00,0.0188
1097.00,0.0181
1096.00,0.0174
1095.00,0.0169
1094.00,0.0164
1093.00,0.0161
1092.00,0.0158
1091.00,0.0156
1090.00,0.0154
1089.00,0.0152
1088.00,0.0150
1087.00,0.0148
1086.00,0.0147
1085.00,0.0146
1084.00,0.0146
1083.00,0.0145
1082.00,0.0144
1081.00,0.0142
1080.00,0.0140
1079.00,0.0139
1078.00,0.0138
1077.00,0.0137
1076.00,0.0136
1075.00,0.0135
1074.00,0.0135
1073.00,0.0136
1072.00,0.0135
1071.00,0.0135
1070.00,0.0134
1069.00,0.0134
1068.00,0.0134
1067.00,0.0134
1066.00,0.0135
1065.00,0.0136
1064.00,0.0136
1063.00,0.0136
1062.00,0.0137
1061.00,0.0137
1060.00,0.0138
1059.00,0.0138
1058.00,0.0139
1057.00,0.0140
1056.00,0.0141
1055.00,0.0142
1054.00,0.0143
1053.00,0.0145
1052.00,0.0147
1051.00,0.0149
1050.00,0.0151
1049.00,0.0153
1048.00,0.0155
1047.00,0.0158
1046.00,0.0161
1045.00,0.0162
1044.00,0.0163
1043.00,0.0163
1042.00,0.0162
1041.00,0.0162
1040.00,0.0162
1039.00,0.0163
1038.00,0.0165
1037.00,0.0166
1036.00,0.0166
1035.00,0.0165
1034.00,0.0163
1033.00,0.0159
1032.00,0.0156
1031.00,0.0152
1030.00,0.0149
1029.00,0.0146
1028.00,0.0144
1027.00,0.0143
1026.00,0.0142
1025.00,0.0141
1024.00,0.0141
1023.00,0.0141
1022.00,0.0142
1021.00,0.0143
1020.00,0.0145
1019.00,0.0146
1018.00,0.0148
1017.00,0.0151
1016.00,0.0155
1015.00,0.0161
1014.00,0.0167
1013.00,0.0173
1012.00,0.0178
1011.00,0.0181
1010.00,0.0183
1009.00,0.0183
1008.00,0.0182
1007.00,0.0183
1006.00,0.0186
1005.00,0.0194
1004.00,0.0206
1003.00,0.0225
1002.00,0.0250
1001.00,0.0279
1000.00,0.0311
999.00,0.0336
998.00,0.0348
997.00,0.0341
996.00,0.0317
995.00,0.0283
994.00,0.0247
993.00,0.0215
992.00,0.0189
991.00,0.0170
990.00,0.0156
989.00,0.0147
988.00,0.0141
987.00,0.0138
986.00,0.0138
985.00,0.0139
984.00,0.0142
983.00,0.0148
982.00,0.0159
981.00,0.0173
980.00,0.0194
979.00,0.0220
978.00,0.0254
977.00,0.0293
976.00,0.0335
975.00,0.0375
974.00,0.0405
973.00,0.0415
972.00,0.0401
971.00,0.0367
970.00,0.0322
969.00,0.0275
968.00,0.0235
967.00,0.0203
966.00,0.0179
965.00,0.0162
964.00,0.0149
963.00,0.0140
962.00,0.0133
961.00,0.0127
960.00,0.0123
959.00,0.0120
958.00,0.0117
957.00,0.0115
956.00,0.0112
955.00,0.0110
954.00,0.0108
953.00,0.0106
952.00,0.0105
951.00,0.0105
950.00,0.0105
949.00,0.0105
948.00,0.0105
947.00,0.0106
946.00,0.0107
945.00,0.0109
944.00,0.0112
943.00,0.0116
942.00,0.0118
941.00,0.0119
940.00,0.0119
939.00,0.0116
938.00,0.0111
937.00,0.0106
936.00,0.0101
935.00,0.0097
934.00,0.0094
933.00,0.0091
932.00,0.0089
931.00,0.0086
930.00,0.0084
929.00,0.0083
928.00,0.0081
927.00,0.0080
926.00,0.0080
925.00,0.0080
924.00,0.0080
923.00,0.0081
922.00,0.0082
921.00,0.0082
920.00,0.0083
919.00,0.0085
918.00,0.0086
917.00,0.0087
916.00,0.0087
915.00,0.0088
914.00,0.0088
913.00,0.0087
912.00,0.0087
911.00,0.0088
910.00,0.0089
909.00,0.0092
908.00,0.0096
907.00,0.0101
906.00,0.0109
905.00,0.0120
904.00,0.0135
903.00,0.0154
902.00,0.0175
901.00,0.0194
900.00,0.0207
899.00,0.0210
898.00,0.0202
897.00,0.0187
896.00,0.0167
895.00,0.0148
894.00,0.0132
893.00,0.0120
892.00,0.0111
891.00,0.0105
890.00,0.0101
889.00,0.0099
888.00,0.0096
887.00,0.0093
886.00,0.0091
885.00,0.0090
884.00,0.0091
883.00,0.0094
882.00,0.0098
881.00,0.0101
880.00,0.0103
879.00,0.0104
878.00,0.0104
877.00,0.0104
876.00,0.0103
875.00,0.0101
874.00,0.0099
873.00,0.0096
872.00,0.0093
871.00,0.0091
870.00,0.0089
869.00,0.0089
868.00,0.0090
867.00,0.0091
866.00,0.0092
865.00,0.0093
864.00,0.0094
863.00,0.0095
862.00,0.0097
861.00,0.0100
860.00,0.0102
859.00,0.0103
858.00,0.0105
857.00,0.0105
856.00,0.0106
855.00,0.0107
854.00,0.0109
853.00,0.0111
852.00,0.0113
851.00,0.0118
850.00,0.0123
849.00,0.0130
848.00,0.0139
847.00,0.0151
846.00,0.0170
845.00,0.0200
844.00,0.0240
843.00,0.0283
842.00,0.0314
841.00,0.0321
840.00,0.0300
839.00,0.0263
838.00,0.0225
837.00,0.0195
836.00,0.0177
835.00,0.0166
834.00,0.0159
833.00,0.0153
832.00,0.0149
831.00,0.0146
830.00,0.0142
829.00,0.0138
828.00,0.0134
827.00,0.0132
826.00,0.0132
825.00,0.0132
824.00,0.0131
823.00,0.0131
822.00,0.0131
821.00,0.0133
820.00,0.0136
819.00,0.0138
818.00,0.0141
817.00,0.0146
816.00,0.0153
815.00,0.0164
814.00,0.0179
813.00,0.0196
812.00,0.0214
811.00,0.0231
810.00,0.0243
809.00,0.0249
808.00,0.0248
807.00,0.0239
806.00,0.0224
805.00,0.0207
804.00,0.0189
803.00,0.0172
802.00,0.0159
801.00,0.0149
800.00,0.0143
799.00,0.0138
798.00,0.0134
797.00,0.0130
796.00,0.0125
795.00,0.0120
794.00,0.0115
793.00,0.0112
792.00,0.0111
791.00,0.0110
790.00,0.0110
789.00,0.0109
788.00,0.0107
787.00,0.0105
786.00,0.0102
785.00,0.0099
784.00,0.0098
783.00,0.0097
782.00,0.0095
781.00,0.0093
780.00,0.0092
779.00,0.0091
778.00,0.0092
777.00,0.0093
776.00,0.0094
775.00,0.0096
774.00,0.0098
773.00,0.0100
772.00,0.0103
771.00,0.0107
770.00,0.0110
769.00,0.0112
768.00,0.0114
767.00,0.0114
766.00,0.0113
765.00,0.0111
764.00,0.0108
763.00,0.0105
762.00,0.0102
761.00,0.0100
760.00,0.0098
759.00,0.0096
758.00,0.0093
757.00,0.0091
756.00,0.0088
755.00,0.0087
754.00,0.0086
753.00,0.0087
752.00,0.0088
751.00,0.0090
750.00,0.0090
749.00,0.0089
748.00,0.0088
747.00,0.0088
746.00,0.0088
745.00,0.0089
744.00,0.0091
743.00,0.0094
742.00,0.0096
741.00,0.0098
740.00,0.0100
739.00,0.0101
738.00,0.0102
737.00,0.0104
736.00,0.0105
735.00,0.0106
734.00,0.0107
733.00,0.0108
732.00,0.0111
731.00,0.0115
730.00,0.0119
729.00,0.0123
728.00,0.0125
727.00,0.0126
726.00,0.0127
725.00,0.0126
724.00,0.0125
723.00,0.0124
722.00,0.0123
721.00,0.0123
720.00,0.0122
719.00,0.0121
718.00,0.0120
717.00,0.0118
716.00,0.0114
715.00,0.0111
714.00,0.0108
713.00,0.0105
712.00,0.0103
711.00,0.0101
710.00,0.0100
709.00,0.0099
708.00,0.0100
707.00,0.0102
706.00,0.0104
705.00,0.0106
704.00,0.0107
703.00,0.0108
702.00,0.0108
701.00,0.0108
700.00,0.0107
699.00,0.0107
698.00,0.0107
697.00,0.0108
696.00,0.0110
695.00,0.0111
694.00,0.0112
693.00,0.0112
692.00,0.0111
691.00,0.0110
690.00,0.0111
689.00,0.0113
688.00,0.0115
687.00,0.0115
686.00,0.0114
685.00,0.0113
684.00,0.0111
683.00,0.0111
682.00,0.0112
681.00,0.0115
680.00,0.0118
679.00,0.0122
678.00,0.0124
677.00,0.0123
676.00,0.0121
675.00,0.0119
674.00,0.0118
673.00,0.0119
672.00,0.0121
671.00,0.0124
670.00,0.0127
669.00,0.0129
668.00,0.0129
667.00,0.0127
666.00,0.0124
665.00,0.0120
664.00,0.0117
663.00,0.0115
662.00,0.0114
661.00,0.0114
660.00,0.0113
659.00,0.0112
658.00,0.0109
657.00,0.0108
656.00,0.0107
655.00,0.0107
654.00,0.0106
653.00,0.0105
652.00,0.0104
651.00,0.0104
650.00,0.0104
649.00,0.0104
648.00,0.0103
647.00,0.0103
646.00,0.0103
645.00,0.0104
644.00,0.0105
643.00,0.0105
642.00,0.0106
641.00,0.0107
640.00,0.0108
639.00,0.0109
638.00,0.0111
637.00,0.0113
636.00,0.0113
635.00,0.0112
634.00,0.0112
633.00,0.0113
632.00,0.0114
631.00,0.0115
630.00,0.0116
629.00,0.0117
628.00,0.0116
627.00,0.0115
626.00,0.0114
625.00,0.0115
624.00,0.0117
623.00,0.0119
622.00,0.0119
621.00,0.0116
620.00,0.0113
619.00,0.0112
618.00,0.0113
617.00,0.0114
616.00,0.0113
615.00,0.0113
614.00,0.0113
613.00,0.0115
612.00,0.0117
611.00,0.0119
610.00,0.0121
609.00,0.0122
608.00,0.0121
607.00,0.0120
606.00,0.0118
605.00,0.0116
604.00,0.0113
603.00,0.0110
602.00,0.0109
601.00,0.0109
600.00,0.0111
599.00,0.0111
598.00,0.0111
597.00,0.0111
596.00,0.0114
595.00,0.0118
594.00,0.0121
593.00,0.0120
592.00,0.0119
591.00,0.0120
590.00,0.0121
589.00,0.0122
588.00,0.0120
587.00,0.0115
586.00,0.0112
585.00,0.0111
584.00,0.0114
583.00,0.0116
582.00,0.0118
581.00,0.0119
580.00,0.0120
579.00,0.0122
578.00,0.0122
577.00,0.0120
576.00,0.0117
575.00,0.0113
574.00,0.0112
573.00,0.0113
572.00,0.0115
571.00,0.0114
570.00,0.0112
569.00,0.0110
568.00,0.0109
567.00,0.0108
566.00,0.0106
565.00,0.0106
564.00,0.0108
563.00,0.0110
562.00,0.0112
561.00,0.0114
560.00,0.0113
559.00,0.0111
558.00,0.0109
557.00,0.0110
556.00,0.0112
555.00,0.0113
554.00,0.0112
553.00,0.0111
552.00,0.0112
551.00,0.0115
550.00,0.0118
549.00,0.0118
548.00,0.0114
547.00,0.0109
546.00,0.0106
545.00,0.0107
544.00,0.0111
543.00,0.0114
542.00,0.0116
541.00,0.0116
540.00,0.0118
539.00,0.0121
538.00,0.0122
537.00,0.0123
536.00,0.0125
535.00,0.0127
534.00,0.0128
533.00,0.0127
532.00,0.0123
531.00,0.0120
530.00,0.0119
529.00,0.0122
528.00,0.0126
527.00,0.0132
526.00,0.0134
525.00,0.0132
524.00,0.0129
523.00,0.0127
522.00,0.0126
521.00,0.0124
520.00,0.0123
519.00,0.0125
518.00,0.0125
517.00,0.0120
516.00,0.0113
515.00,0.0111
514.00,0.0114
513.00,0.0118
512.00,0.0116
511.00,0.0109
510.00,0.0102
509.00,0.0100
508.00,0.0102
507.00,0.0104
506.00,0.0103
505.00,0.0102
504.00,0.0102
503.00,0.0107
502.00,0.0111
501.00,0.0112
500.00,0.0110
499.00,0.0107
498.00,0.0103
497.00,0.0101
496.00,0.0102
495.00,0.0105
494.00,0.0108
493.00,0.0110
492.00,0.0111
491.00,0.0114
490.00,0.0118
489.00,0.0119
488.00,0.0115
487.00,0.0110
486.00,0.0108
485.00,0.0112
484.00,0.0119
483.00,0.0124
482.00,0.0123
481.00,0.0115
480.00,0.0109
479.00,0.0109
478.00,0.0118
477.00,0.0128
476.00,0.0135
475.00,0.0139
474.00,0.0139
473.00,0.0133
472.00,0.0125
471.00,0.0122
470.00,0.0128
469.00,0.0137
468.00,0.0143
467.00,0.0143
466.00,0.0141
465.00,0.0145
464.00,0.0158
463.00,0.0180
462.00,0.0205
461.00,0.0226
460.00,0.0234
459.00,0.0225
458.00,0.0204
457.00,0.0181
456.00,0.0164
455.00,0.0156
454.00,0.0157
453.00,0.0165
452.00,0.0176
451.00,0.0181
450.00,0.0175
