Created as New Dataset,Sample 120 By Administrator Date Tuesday, September 09 2025
cm-1,A
4000.00,0.0006
3999.00,0.0006
3998.00,0.0006
3997.00,0.0007
3996.00,0.0007
3995.00,0.0007
3994.00,0.0007
3993.00,0.0007
3992.00,0.0006
3991.00,0.0006
3990.00,0.0006
3989.00,0.0006
3988.00,0.0006
3987.00,0.0006
3986.00,0.0006
3985.00,0.0006
3984.00,0.0005
3983.00,0.0005
3982.00,0.0005
3981.00,0.0005
3980.00,0.0005
3979.00,0.0006
3978.00,0.0006
3977.00,0.0006
3976.00,0.0006
3975.00,0.0005
3974.00,0.0005
3973.00,0.0005
3972.00,0.0005
3971.00,0.0005
3970.00,0.0005
3969.00,0.0005
3968.00,0.0005
3967.00,0.0005
3966.00,0.0004
3965.00,0.0004
3964.00,0.0004
3963.00,0.0004
3962.00,0.0004
3961.00,0.0004
3960.00,0.0004
3959.00,0.0004
3958.00,0.0004
3957.00,0.0004
3956.00,0.0004
3955.00,0.0004
3954.00,0.0004
3953.00,0.0003
3952.00,0.0004
3951.00,0.0004
3950.00,0.0004
3949.00,0.0005
3948.00,0.0005
3947.00,0.0005
3946.00,0.0005
3945.00,0.0005
3944.00,0.0005
3943.00,0.0005
3942.00,0.0004
3941.00,0.0004
3940.00,0.0004
3939.00,0.0004
3938.00,0.0004
3937.00,0.0005
3936.00,0.0005
3935.00,0.0005
3934.00,0.0005
3933.00,0.0005
3932.00,0.0005
3931.00,0.0005
3930.00,0.0005
3929.00,0.0005
3928.00,0.0005
3927.00,0.0005
3926.00,0.0005
3925.00,0.0005
3924.00,0.0005
3923.00,0.0006
3922.00,0.0006
3921.00,0.0006
3920.00,0.0006
3919.00,0.0005
3918.00,0.0005
3917.00,0.0004
3916.00,0.0004
3915.00,0.0004
3914.00,0.0004
3913.00,0.0004
3912.00,0.0004
3911.00,0.0004
3910.00,0.0004
3909.00,0.0004
3908.00,0.0005
3907.00,0.0005
3906.00,0.0005
3905.00,0.0005
3904.00,0.0005
3903.00,0.0005
3902.00,0.0005
3901.00,0.0005
3900.00,0.0005
3899.00,0.0005
3898.00,0.0005
3897.00,0.0005
3896.00,0.0005
3895.00,0.0005
3894.00,0.0004
3893.00,0.0004
3892.00,0.0003
3891.00,0.0003
3890.00,0.0003
3889.00,0.0003
3888.00,0.0003
3887.00,0.0004
3886.00,0.0004
3885.00,0.0004
3884.00,0.0004
3883.00,0.0004
3882.00,0.0004
3881.00,0.0004
3880.00,0.0004
3879.00,0.0004
3878.00,0.0004
3877.00,0.0004
3876.00,0.0004
3875.00,0.0004
3874.00,0.0004
3873.00,0.0004
3872.00,0.0004
3871.00,0.0004
3870.00,0.0004
3869.00,0.0005
3868.00,0.0005
3867.00,0.0005
3866.00,0.0005
3865.00,0.0004
3864.00,0.0004
3863.00,0.0004
3862.00,0.0004
3861.00,0.0004
3860.00,0.0004
3859.00,0.0005
3858.00,0.0005
3857.00,0.0005
3856.00,0.0004
3855.00,0.0004
3854.00,0.0004
3853.00,0.0004
3852.00,0.0004
3851.00,0.0004
3850.00,0.0004
3849.00,0.0004
3848.00,0.0004
3847.00,0.0004
3846.00,0.0004
3845.00,0.0004
3844.00,0.0004
3843.00,0.0004
3842.00,0.0004
3841.00,0.0004
3840.00,0.0004
3839.00,0.0004
3838.00,0.0004
3837.00,0.0004
3836.00,0.0004
3835.00,0.0004
3834.00,0.0004
3833.00,0.0004
3832.00,0.0004
3831.00,0.0004
3830.00,0.0004
3829.00,0.0004
3828.00,0.0004
3827.00,0.0004
3826.00,0.0004
3825.00,0.0004
3824.00,0.0004
3823.00,0.0004
3822.00,0.0004
3821.00,0.0004
3820.00,0.0004
3819.00,0.0004
3818.00,0.0003
3817.00,0.0003
3816.00,0.0003
3815.00,0.0004
3814.00,0.0004
3813.00,0.0004
3812.00,0.0004
3811.00,0.0005
3810.00,0.0005
3809.00,0.0005
3808.00,0.0004
3807.00,0.0004
3806.00,0.0004
3805.00,0.0004
3804.00,0.0003
3803.00,0.0003
3802.00,0.0003
3801.00,0.0003
3800.00,0.0003
3799.00,0.0003
3798.00,0.0003
3797.00,0.0003
3796.00,0.0004
3795.00,0.0004
3794.00,0.0004
3793.00,0.0004
3792.00,0.0004
3791.00,0.0004
3790.00,0.0005
3789.00,0.0005
3788.00,0.0005
3787.00,0.0005
3786.00,0.0004
3785.00,0.0004
3784.00,0.0003
3783.00,0.0003
3782.00,0.0003
3781.00,0.0003
3780.00,0.0003
3779.00,0.0003
3778.00,0.0004
3777.00,0.0004
3776.00,0.0004
3775.00,0.0005
3774.00,0.0005
3773.00,0.0005
3772.00,0.0005
3771.00,0.0004
3770.00,0.0004
3769.00,0.0004
3768.00,0.0004
3767.00,0.0005
3766.00,0.0005
3765.00,0.0005
3764.00,0.0006
3763.00,0.0006
3762.00,0.0006
3761.00,0.0005
3760.00,0.0005
3759.00,0.0005
3758.00,0.0005
3757.00,0.0005
3756.00,0.0005
3755.00,0.0005
3754.00,0.0004
3753.00,0.0004
3752.00,0.0004
3751.00,0.0004
3750.00,0.0004
3749.00,0.0004
3748.00,0.0004
3747.00,0.0004
3746.00,0.0004
3745.00,0.0004
3744.00,0.0004
3743.00,0.0004
3742.00,0.0004
3741.00,0.0004
3740.00,0.0004
3739.00,0.0004
3738.00,0.0003
3737.00,0.0003
3736.00,0.0003
3735.00,0.0003
3734.00,0.0003
3733.00,0.0003
3732.00,0.0003
3731.00,0.0004
3730.00,0.0004
3729.00,0.0004
3728.00,0.0004
3727.00,0.0005
3726.00,0.0005
3725.00,0.0005
3724.00,0.0005
3723.00,0.0004
3722.00,0.0004
3721.00,0.0004
3720.00,0.0004
3719.00,0.0004
3718.00,0.0004
3717.00,0.0003
3716.00,0.0003
3715.00,0.0003
3714.00,0.0003
3713.00,0.0003
3712.00,0.0003
3711.00,0.0002
3710.00,0.0002
3709.00,0.0001
3708.00,0.0002
3707.00,0.0002
3706.00,0.0002
3705.00,0.0002
3704.00,0.0002
3703.00,0.0002
3702.00,0.0002
3701.00,0.0002
3700.00,0.0002
3699.00,0.0003
3698.00,0.0003
3697.00,0.0003
3696.00,0.0003
3695.00,0.0003
3694.00,0.0003
3693.00,0.0003
3692.00,0.0003
3691.00,0.0003
3690.00,0.0003
3689.00,0.0003
3688.00,0.0003
3687.00,0.0003
3686.00,0.0003
3685.00,0.0003
3684.00,0.0003
3683.00,0.0003
3682.00,0.0003
3681.00,0.0004
3680.00,0.0004
3679.00,0.0004
3678.00,0.0004
3677.00,0.0004
3676.00,0.0004
3675.00,0.0004
3674.00,0.0004
3673.00,0.0004
3672.00,0.0003
3671.00,0.0003
3670.00,0.0003
3669.00,0.0003
3668.00,0.0003
3667.00,0.0003
3666.00,0.0003
3665.00,0.0003
3664.00,0.0003
3663.00,0.0004
3662.00,0.0004
3661.00,0.0004
3660.00,0.0004
3659.00,0.0004
3658.00,0.0004
3657.00,0.0004
3656.00,0.0004
3655.00,0.0005
3654.00,0.0005
3653.00,0.0004
3652.00,0.0004
3651.00,0.0004
3650.00,0.0004
3649.00,0.0004
3648.00,0.0004
3647.00,0.0003
3646.00,0.0003
3645.00,0.0003
3644.00,0.0003
3643.00,0.0003
3642.00,0.0003
3641.00,0.0003
3640.00,0.0003
3639.00,0.0003
3638.00,0.0004
3637.00,0.0004
3636.00,0.0004
3635.00,0.0004
3634.00,0.0004
3633.00,0.0004
3632.00,0.0004
3631.00,0.0004
3630.00,0.0004
3629.00,0.0005
3628.00,0.0005
3627.00,0.0005
3626.00,0.0005
3625.00,0.0005
3624.00,0.0005
3623.00,0.0005
3622.00,0.0006
3621.00,0.0006
3620.00,0.0006
3619.00,0.0006
3618.00,0.0006
3617.00,0.0005
3616.00,0.0005
3615.00,0.0005
3614.00,0.0006
3613.00,0.0006
3612.00,0.0007
3611.00,0.0007
3610.00,0.0007
3609.00,0.0007
3608.00,0.0007
3607.00,0.0007
3606.00,0.0006
3605.00,0.0006
3604.00,0.0006
3603.00,0.0006
3602.00,0.0006
3601.00,0.0007
3600.00,0.0007
3599.00,0.0008
3598.00,0.0009
3597.00,0.0009
3596.00,0.0009
3595.00,0.0009
3594.00,0.0009
3593.00,0.0009
3592.00,0.0009
3591.00,0.0009
3590.00,0.0009
3589.00,0.0010
3588.00,0.0010
3587.00,0.0010
3586.00,0.0010
3585.00,0.0010
3584.00,0.0010
3583.00,0.0010
3582.00,0.0011
3581.00,0.0011
3580.00,0.0011
3579.00,0.0011
3578.00,0.0011
3577.00,0.0011
3576.00,0.0011
3575.00,0.0011
3574.00,0.0012
3573.00,0.0013
3572.00,0.0013
3571.00,0.0013
3570.00,0.0014
3569.00,0.0014
3568.00,0.0015
3567.00,0.0015
3566.00,0.0015
3565.00,0.0015
3564.00,0.0015
3563.00,0.0015
3562.00,0.0015
3561.00,0.0015
3560.00,0.0015
3559.00,0.0015
3558.00,0.0015
3557.00,0.0016
3556.00,0.0016
3555.00,0.0016
3554.00,0.0017
3553.00,0.0017
3552.00,0.0017
3551.00,0.0018
3550.00,0.0018
3549.00,0.0019
3548.00,0.0019
3547.00,0.0019
3546.00,0.0020
3545.00,0.0020
3544.00,0.0019
3543.00,0.0019
3542.00,0.0019
3541.00,0.0020
3540.00,0.0020
3539.00,0.0020
3538.00,0.0020
3537.00,0.0020
3536.00,0.0020
3535.00,0.0020
3534.00,0.0020
3533.00,0.0020
3532.00,0.0021
3531.00,0.0021
3530.00,0.0021
3529.00,0.0022
3528.00,0.0022
3527.00,0.0022
3526.00,0.0023
3525.00,0.0023
3524.00,0.0023
3523.00,0.0023
3522.00,0.0022
3521.00,0.0022
3520.00,0.0022
3519.00,0.0022
3518.00,0.0022
3517.00,0.0022
3516.00,0.0023
3515.00,0.0024
3514.00,0.0024
3513.00,0.0025
3512.00,0.0025
3511.00,0.0025
3510.00,0.0026
3509.00,0.0026
3508.00,0.0026
3507.00,0.0026
3506.00,0.0026
3505.00,0.0026
3504.00,0.0026
3503.00,0.0027
3502.00,0.0027
3501.00,0.0027
3500.00,0.0027
3499.00,0.0028
3498.00,0.0028
3497.00,0.0028
3496.00,0.0028
3495.00,0.0028
3494.00,0.0029
3493.00,0.0029
3492.00,0.0030
3491.00,0.0030
3490.00,0.0030
3489.00,0.0030
3488.00,0.0030
3487.00,0.0030
3486.00,0.0031
3485.00,0.0031
3484.00,0.0031
3483.00,0.0031
3482.00,0.0031
3481.00,0.0031
3480.00,0.0032
3479.00,0.0032
3478.00,0.0032
3477.00,0.0032
3476.00,0.0033
3475.00,0.0033
3474.00,0.0033
3473.00,0.0033
3472.00,0.0033
3471.00,0.0033
3470.00,0.0034
3469.00,0.0034
3468.00,0.0034
3467.00,0.0034
3466.00,0.0034
3465.00,0.0034
3464.00,0.0035
3463.00,0.0035
3462.00,0.0035
3461.00,0.0036
3460.00,0.0036
3459.00,0.0037
3458.00,0.0037
3457.00,0.0037
3456.00,0.0037
3455.00,0.0037
3454.00,0.0037
3453.00,0.0037
3452.00,0.0037
3451.00,0.0038
3450.00,0.0038
3449.00,0.0038
3448.00,0.0038
3447.00,0.0038
3446.00,0.0038
3445.00,0.0039
3444.00,0.0039
3443.00,0.0040
3442.00,0.0040
3441.00,0.0040
3440.00,0.0040
3439.00,0.0040
3438.00,0.0040
3437.00,0.0040
3436.00,0.0040
3435.00,0.0040
3434.00,0.0041
3433.00,0.0041
3432.00,0.0042
3431.00,0.0043
3430.00,0.0043
3429.00,0.0044
3428.00,0.0044
3427.00,0.0044
3426.00,0.0044
3425.00,0.0043
3424.00,0.0043
3423.00,0.0043
3422.00,0.0043
3421.00,0.0043
3420.00,0.0044
3419.00,0.0044
3418.00,0.0045
3417.00,0.0045
3416.00,0.0046
3415.00,0.0046
3414.00,0.0047
3413.00,0.0047
3412.00,0.0047
3411.00,0.0048
3410.00,0.0048
3409.00,0.0049
3408.00,0.0050
3407.00,0.0050
3406.00,0.0050
3405.00,0.0050
3404.00,0.0051
3403.00,0.0051
3402.00,0.0052
3401.00,0.0052
3400.00,0.0053
3399.00,0.0053
3398.00,0.0054
3397.00,0.0054
3396.00,0.0055
3395.00,0.0055
3394.00,0.0055
3393.00,0.0055
3392.00,0.0055
3391.00,0.0055
3390.00,0.0055
3389.00,0.0054
3388.00,0.0054
3387.00,0.0053
3386.00,0.0053
3385.00,0.0053
3384.00,0.0052
3383.00,0.0052
3382.00,0.0052
3381.00,0.0052
3380.00,0.0051
3379.00,0.0052
3378.00,0.0052
3377.00,0.0052
3376.00,0.0052
3375.00,0.0052
3374.00,0.0052
3373.00,0.0052
3372.00,0.0052
3371.00,0.0052
3370.00,0.0053
3369.00,0.0053
3368.00,0.0053
3367.00,0.0053
3366.00,0.0053
3365.00,0.0053
3364.00,0.0053
3363.00,0.0053
3362.00,0.0053
3361.00,0.0053
3360.00,0.0052
3359.00,0.0052
3358.00,0.0052
3357.00,0.0052
3356.00,0.0053
3355.00,0.0053
3354.00,0.0053
3353.00,0.0053
3352.00,0.0053
3351.00,0.0053
3350.00,0.0054
3349.00,0.0054
3348.00,0.0054
3347.00,0.0054
3346.00,0.0054
3345.00,0.0054
3344.00,0.0054
3343.00,0.0054
3342.00,0.0054
3341.00,0.0054
3340.00,0.0053
3339.00,0.0053
3338.00,0.0053
3337.00,0.0053
3336.00,0.0053
3335.00,0.0053
3334.00,0.0053
3333.00,0.0053
3332.00,0.0054
3331.00,0.0054
3330.00,0.0053
3329.00,0.0053
3328.00,0.0053
3327.00,0.0053
3326.00,0.0053
3325.00,0.0053
3324.00,0.0053
3323.00,0.0053
3322.00,0.0053
3321.00,0.0053
3320.00,0.0053
3319.00,0.0053
3318.00,0.0053
3317.00,0.0053
3316.00,0.0053
3315.00,0.0054
3314.00,0.0054
3313.00,0.0054
3312.00,0.0053
3311.00,0.0054
3310.00,0.0054
3309.00,0.0054
3308.00,0.0053
3307.00,0.0053
3306.00,0.0053
3305.00,0.0053
3304.00,0.0054
3303.00,0.0053
3302.00,0.0053
3301.00,0.0053
3300.00,0.0053
3299.00,0.0053
3298.00,0.0053
3297.00,0.0053
3296.00,0.0053
3295.00,0.0053
3294.00,0.0053
3293.00,0.0053
3292.00,0.0053
3291.00,0.0053
3290.00,0.0053
3289.00,0.0053
3288.00,0.0053
3287.00,0.0053
3286.00,0.0053
3285.00,0.0052
3284.00,0.0052
3283.00,0.0051
3282.00,0.0051
3281.00,0.0051
3280.00,0.0051
3279.00,0.0051
3278.00,0.0051
3277.00,0.0050
3276.00,0.0050
3275.00,0.0050
3274.00,0.0050
3273.00,0.0050
3272.00,0.0050
3271.00,0.0050
3270.00,0.0049
3269.00,0.0049
3268.00,0.0049
3267.00,0.0049
3266.00,0.0048
3265.00,0.0048
3264.00,0.0048
3263.00,0.0048
3262.00,0.0047
3261.00,0.0047
3260.00,0.0047
3259.00,0.0047
3258.00,0.0046
3257.00,0.0046
3256.00,0.0046
3255.00,0.0046
3254.00,0.0045
3253.00,0.0045
3252.00,0.0045
3251.00,0.0046
3250.00,0.0045
3249.00,0.0045
3248.00,0.0045
3247.00,0.0045
3246.00,0.0045
3245.00,0.0045
3244.00,0.0045
3243.00,0.0045
3242.00,0.0045
3241.00,0.0045
3240.00,0.0044
3239.00,0.0044
3238.00,0.0044
3237.00,0.0044
3236.00,0.0044
3235.00,0.0044
3234.00,0.0045
3233.00,0.0045
3232.00,0.0045
3231.00,0.0045
3230.00,0.0045
3229.00,0.0045
3228.00,0.0045
3227.00,0.0045
3226.00,0.0045
3225.00,0.0045
3224.00,0.0045
3223.00,0.0046
3222.00,0.0046
3221.00,0.0046
3220.00,0.0046
3219.00,0.0046
3218.00,0.0046
3217.00,0.0046
3216.00,0.0046
3215.00,0.0047
3214.00,0.0047
3213.00,0.0048
3212.00,0.0048
3211.00,0.0048
3210.00,0.0048
3209.00,0.0048
3208.00,0.0048
3207.00,0.0048
3206.00,0.0049
3205.00,0.0049
3204.00,0.0049
3203.00,0.0050
3202.00,0.0050
3201.00,0.0051
3200.00,0.0051
3199.00,0.0051
3198.00,0.0050
3197.00,0.0050
3196.00,0.0050
3195.00,0.0050
3194.00,0.0050
3193.00,0.0050
3192.00,0.0051
3191.00,0.0051
3190.00,0.0051
3189.00,0.0051
3188.00,0.0051
3187.00,0.0050
3186.00,0.0050
3185.00,0.0050
3184.00,0.0049
3183.00,0.0049
3182.00,0.0049
3181.00,0.0049
3180.00,0.0049
3179.00,0.0048
3178.00,0.0048
3177.00,0.0047
3176.00,0.0046
3175.00,0.0046
3174.00,0.0046
3173.00,0.0045
3172.00,0.0045
3171.00,0.0044
3170.00,0.0044
3169.00,0.0044
3168.00,0.0044
3167.00,0.0044
3166.00,0.0044
3165.00,0.0044
3164.00,0.0043
3163.00,0.0043
3162.00,0.0042
3161.00,0.0042
3160.00,0.0041
3159.00,0.0041
3158.00,0.0042
3157.00,0.0042
3156.00,0.0042
3155.00,0.0041
3154.00,0.0041
3153.00,0.0041
3152.00,0.0040
3151.00,0.0040
3150.00,0.0040
3149.00,0.0040
3148.00,0.0040
3147.00,0.0040
3146.00,0.0040
3145.00,0.0040
3144.00,0.0040
3143.00,0.0039
3142.00,0.0039
3141.00,0.0039
3140.00,0.0039
3139.00,0.0039
3138.00,0.0038
3137.00,0.0038
3136.00,0.0037
3135.00,0.0037
3134.00,0.0037
3133.00,0.0037
3132.00,0.0037
3131.00,0.0036
3130.00,0.0036
3129.00,0.0036
3128.00,0.0036
3127.00,0.0036
3126.00,0.0035
3125.00,0.0035
3124.00,0.0035
3123.00,0.0034
3122.00,0.0033
3121.00,0.0033
3120.00,0.0032
3119.00,0.0032
3118.00,0.0032
3117.00,0.0032
3116.00,0.0032
3115.00,0.0033
3114.00,0.0033
3113.00,0.0033
3112.00,0.0033
3111.00,0.0033
3110.00,0.0032
3109.00,0.0032
3108.00,0.0032
3107.00,0.0032
3106.00,0.0032
3105.00,0.0032
3104.00,0.0032
3103.00,0.0032
3102.00,0.0032
3101.00,0.0031
3100.00,0.0031
3099.00,0.0030
3098.00,0.0030
3097.00,0.0029
3096.00,0.0029
3095.00,0.0029
3094.00,0.0029
3093.00,0.0030
3092.00,0.0030
3091.00,0.0030
3090.00,0.0030
3089.00,0.0030
3088.00,0.0029
3087.00,0.0029
3086.00,0.0029
3085.00,0.0029
3084.00,0.0028
3083.00,0.0028
3082.00,0.0028
3081.00,0.0028
3080.00,0.0028
3079.00,0.0028
3078.00,0.0029
3077.00,0.0029
3076.00,0.0030
3075.00,0.0030
3074.00,0.0030
3073.00,0.0030
3072.00,0.0029
3071.00,0.0029
3070.00,0.0029
3069.00,0.0029
3068.00,0.0029
3067.00,0.0029
3066.00,0.0029
3065.00,0.0030
3064.00,0.0030
3063.00,0.0031
3062.00,0.0031
3061.00,0.0030
3060.00,0.0030
3059.00,0.0030
3058.00,0.0031
3057.00,0.0031
3056.00,0.0031
3055.00,0.0031
3054.00,0.0032
3053.00,0.0032
3052.00,0.0032
3051.00,0.0033
3050.00,0.0033
3049.00,0.0033
3048.00,0.0033
3047.00,0.0033
3046.00,0.0033
3045.00,0.0033
3044.00,0.0033
3043.00,0.0033
3042.00,0.0034
3041.00,0.0034
3040.00,0.0034
3039.00,0.0034
3038.00,0.0034
3037.00,0.0035
3036.00,0.0035
3035.00,0.0035
3034.00,0.0036
3033.00,0.0037
3032.00,0.0038
3031.00,0.0038
3030.00,0.0038
3029.00,0.0038
3028.00,0.0039
3027.00,0.0039
3026.00,0.0039
3025.00,0.0040
3024.00,0.0040
3023.00,0.0041
3022.00,0.0042
3021.00,0.0043
3020.00,0.0043
3019.00,0.0044
3018.00,0.0044
3017.00,0.0044
3016.00,0.0045
3015.00,0.0046
3014.00,0.0048
3013.00,0.0049
3012.00,0.0051
3011.00,0.0053
3010.00,0.0054
3009.00,0.0055
3008.00,0.0056
3007.00,0.0058
3006.00,0.0059
3005.00,0.0061
3004.00,0.0063
3003.00,0.0065
3002.00,0.0067
3001.00,0.0069
3000.00,0.0072
2999.00,0.0075
2998.00,0.0078
2997.00,0.0081
2996.00,0.0085
2995.00,0.0089
2994.00,0.0094
2993.00,0.0098
2992.00,0.0103
2991.00,0.0108
2990.00,0.0114
2989.00,0.0121
2988.00,0.0129
2987.00,0.0138
2986.00,0.0148
2985.00,0.0158
2984.00,0.0170
2983.00,0.0184
2982.00,0.0198
2981.00,0.0215
2980.00,0.0234
2979.00,0.0255
2978.00,0.0280
2977.00,0.0308
2976.00,0.0339
2975.00,0.0375
2974.00,0.0415
2973.00,0.0461
2972.00,0.0512
2971.00,0.0568
2970.00,0.0631
2969.00,0.0700
2968.00,0.0775
2967.00,0.0853
2966.00,0.0935
2965.00,0.1016
2964.00,0.1095
2963.00,0.1169
2962.00,0.1233
2961.00,0.1289
2960.00,0.1337
2959.00,0.1380
2958.00,0.1424
2957.00,0.1472
2956.00,0.1530
2955.00,0.1598
2954.00,0.1675
2953.00,0.1756
2952.00,0.1832
2951.00,0.1894
2950.00,0.1929
2949.00,0.1929
2948.00,0.1888
2947.00,0.1806
2946.00,0.1693
2945.00,0.1562
2944.00,0.1429
2943.00,0.1308
2942.00,0.1209
2941.00,0.1135
2940.00,0.1088
2939.00,0.1065
2938.00,0.1065
2937.00,0.1085
2936.00,0.1123
2935.00,0.1177
2934.00,0.1246
2933.00,0.1328
2932.00,0.1422
2931.00,0.1525
2930.00,0.1636
2929.00,0.1749
2928.00,0.1862
2927.00,0.1972
2926.00,0.2078
2925.00,0.2180
2924.00,0.2278
2923.00,0.2374
2922.00,0.2468
2921.00,0.2558
2920.00,0.2638
2919.00,0.2701
2918.00,0.2737
2917.00,0.2740
2916.00,0.2706
2915.00,0.2641
2914.00,0.2552
2913.00,0.2450
2912.00,0.2343
2911.00,0.2239
2910.00,0.2141
2909.00,0.2051
2908.00,0.1967
2907.00,0.1886
2906.00,0.1808
2905.00,0.1732
2904.00,0.1656
2903.00,0.1581
2902.00,0.1509
2901.00,0.1439
2900.00,0.1372
2899.00,0.1310
2898.00,0.1252
2897.00,0.1200
2896.00,0.1155
2895.00,0.1116
2894.00,0.1085
2893.00,0.1060
2892.00,0.1043
2891.00,0.1032
2890.00,0.1027
2889.00,0.1027
2888.00,0.1030
2887.00,0.1037
2886.00,0.1048
2885.00,0.1064
2884.00,0.1084
2883.00,0.1110
2882.00,0.1140
2881.00,0.1175
2880.00,0.1209
2879.00,0.1240
2878.00,0.1262
2877.00,0.1272
2876.00,0.1271
2875.00,0.1264
2874.00,0.1255
2873.00,0.1251
2872.00,0.1254
2871.00,0.1266
2870.00,0.1285
2869.00,0.1305
2868.00,0.1319
2867.00,0.1318
2866.00,0.1292
2865.00,0.1239
2864.00,0.1161
2863.00,0.1066
2862.00,0.0966
2861.00,0.0871
2860.00,0.0789
2859.00,0.0722
2858.00,0.0671
2857.00,0.0633
2856.00,0.0607
2855.00,0.0590
2854.00,0.0581
2853.00,0.0579
2852.00,0.0584
2851.00,0.0594
2850.00,0.0612
2849.00,0.0636
2848.00,0.0669
2847.00,0.0710
2846.00,0.0760
2845.00,0.0819
2844.00,0.0885
2843.00,0.0955
2842.00,0.1028
2841.00,0.1097
2840.00,0.1156
2839.00,0.1196
2838.00,0.1209
2837.00,0.1189
2836.00,0.1134
2835.00,0.1050
2834.00,0.0946
2833.00,0.0835
2832.00,0.0729
2831.00,0.0633
2830.00,0.0553
2829.00,0.0486
2828.00,0.0433
2827.00,0.0390
2826.00,0.0355
2825.00,0.0326
2824.00,0.0303
2823.00,0.0283
2822.00,0.0266
2821.00,0.0251
2820.00,0.0239
2819.00,0.0228
2818.00,0.0219
2817.00,0.0211
2816.00,0.0203
2815.00,0.0197
2814.00,0.0191
2813.00,0.0186
2812.00,0.0180
2811.00,0.0175
2810.00,0.0169
2809.00,0.0163
2808.00,0.0157
2807.00,0.0150
2806.00,0.0144
2805.00,0.0137
2804.00,0.0130
2803.00,0.0124
2802.00,0.0119
2801.00,0.0114
2800.00,0.0110
2799.00,0.0107
2798.00,0.0104
2797.00,0.0102
2796.00,0.0100
2795.00,0.0098
2794.00,0.0095
2793.00,0.0093
2792.00,0.0090
2791.00,0.0086
2790.00,0.0083
2789.00,0.0080
2788.00,0.0077
2787.00,0.0075
2786.00,0.0073
2785.00,0.0071
2784.00,0.0069
2783.00,0.0067
2782.00,0.0066
2781.00,0.0064
2780.00,0.0062
2779.00,0.0060
2778.00,0.0059
2777.00,0.0057
2776.00,0.0056
2775.00,0.0055
2774.00,0.0055
2773.00,0.0054
2772.00,0.0054
2771.00,0.0053
2770.00,0.0053
2769.00,0.0053
2768.00,0.0053
2767.00,0.0052
2766.00,0.0052
2765.00,0.0051
2764.00,0.0051
2763.00,0.0050
2762.00,0.0050
2761.00,0.0049
2760.00,0.0049
2759.00,0.0049
2758.00,0.0048
2757.00,0.0048
2756.00,0.0048
2755.00,0.0048
2754.00,0.0048
2753.00,0.0048
2752.00,0.0048
2751.00,0.0048
2750.00,0.0048
2749.00,0.0048
2748.00,0.0048
2747.00,0.0048
2746.00,0.0049
2745.00,0.0049
2744.00,0.0050
2743.00,0.0051
2742.00,0.0052
2741.00,0.0053
2740.00,0.0054
2739.00,0.0055
2738.00,0.0057
2737.00,0.0059
2736.00,0.0060
2735.00,0.0062
2734.00,0.0064
2733.00,0.0066
2732.00,0.0067
2731.00,0.0069
2730.00,0.0072
2729.00,0.0075
2728.00,0.0078
2727.00,0.0080
2726.00,0.0083
2725.00,0.0086
2724.00,0.0087
2723.00,0.0088
2722.00,0.0087
2721.00,0.0085
2720.00,0.0082
2719.00,0.0078
2718.00,0.0075
2717.00,0.0071
2716.00,0.0068
2715.00,0.0065
2714.00,0.0063
2713.00,0.0060
2712.00,0.0058
2711.00,0.0056
2710.00,0.0054
2709.00,0.0053
2708.00,0.0051
2707.00,0.0050
2706.00,0.0049
2705.00,0.0048
2704.00,0.0046
2703.00,0.0045
2702.00,0.0044
2701.00,0.0043
2700.00,0.0043
2699.00,0.0042
2698.00,0.0042
2697.00,0.0041
2696.00,0.0041
2695.00,0.0041
2694.00,0.0041
2693.00,0.0041
2692.00,0.0041
2691.00,0.0042
2690.00,0.0041
2689.00,0.0041
2688.00,0.0041
2687.00,0.0040
2686.00,0.0040
2685.00,0.0040
2684.00,0.0040
2683.00,0.0040
2682.00,0.0040
2681.00,0.0041
2680.00,0.0041
2679.00,0.0042
2678.00,0.0042
2677.00,0.0042
2676.00,0.0042
2675.00,0.0042
2674.00,0.0042
2673.00,0.0041
2672.00,0.0041
2671.00,0.0041
2670.00,0.0041
2669.00,0.0041
2668.00,0.0041
2667.00,0.0041
2666.00,0.0041
2665.00,0.0042
2664.00,0.0042
2663.00,0.0043
2662.00,0.0043
2661.00,0.0043
2660.00,0.0043
2659.00,0.0043
2658.00,0.0043
2657.00,0.0043
2656.00,0.0043
2655.00,0.0042
2654.00,0.0042
2653.00,0.0041
2652.00,0.0041
2651.00,0.0040
2650.00,0.0039
2649.00,0.0039
2648.00,0.0038
2647.00,0.0037
2646.00,0.0037
2645.00,0.0037
2644.00,0.0037
2643.00,0.0037
2642.00,0.0037
2641.00,0.0036
2640.00,0.0036
2639.00,0.0035
2638.00,0.0035
2637.00,0.0034
2636.00,0.0034
2635.00,0.0034
2634.00,0.0034
2633.00,0.0034
2632.00,0.0035
2631.00,0.0035
2630.00,0.0035
2629.00,0.0035
2628.00,0.0035
2627.00,0.0035
2626.00,0.0035
2625.00,0.0035
2624.00,0.0035
2623.00,0.0036
2622.00,0.0036
2621.00,0.0036
2620.00,0.0037
2619.00,0.0037
2618.00,0.0037
2617.00,0.0037
2616.00,0.0036
2615.00,0.0036
2614.00,0.0036
2613.00,0.0036
2612.00,0.0035
2611.00,0.0035
2610.00,0.0034
2609.00,0.0033
2608.00,0.0032
2607.00,0.0031
2606.00,0.0030
2605.00,0.0030
2604.00,0.0030
2603.00,0.0030
2602.00,0.0030
2601.00,0.0029
2600.00,0.0029
2599.00,0.0029
2598.00,0.0029
2597.00,0.0029
2596.00,0.0030
2595.00,0.0030
2594.00,0.0030
2593.00,0.0030
2592.00,0.0030
2591.00,0.0031
2590.00,0.0031
2589.00,0.0032
2588.00,0.0033
2587.00,0.0034
2586.00,0.0035
2585.00,0.0036
2584.00,0.0036
2583.00,0.0036
2582.00,0.0037
2581.00,0.0037
2580.00,0.0037
2579.00,0.0037
2578.00,0.0036
2577.00,0.0034
2576.00,0.0033
2575.00,0.0033
2574.00,0.0032
2573.00,0.0031
2572.00,0.0029
2571.00,0.0028
2570.00,0.0027
2569.00,0.0026
2568.00,0.0026
2567.00,0.0025
2566.00,0.0024
2565.00,0.0023
2564.00,0.0022
2563.00,0.0022
2562.00,0.0021
2561.00,0.0021
2560.00,0.0021
2559.00,0.0021
2558.00,0.0020
2557.00,0.0020
2556.00,0.0019
2555.00,0.0019
2554.00,0.0018
2553.00,0.0018
2552.00,0.0019
2551.00,0.0019
2550.00,0.0019
2549.00,0.0019
2548.00,0.0018
2547.00,0.0017
2546.00,0.0017
2545.00,0.0016
2544.00,0.0016
2543.00,0.0015
2542.00,0.0015
2541.00,0.0014
2540.00,0.0014
2539.00,0.0014
2538.00,0.0014
2537.00,0.0014
2536.00,0.0014
2535.00,0.0014
2534.00,0.0013
2533.00,0.0013
2532.00,0.0013
2531.00,0.0012
2530.00,0.0012
2529.00,0.0012
2528.00,0.0012
2527.00,0.0011
2526.00,0.0011
2525.00,0.0011
2524.00,0.0011
2523.00,0.0011
2522.00,0.0011
2521.00,0.0010
2520.00,0.0010
2519.00,0.0009
2518.00,0.0009
2517.00,0.0009
2516.00,0.0009
2515.00,0.0009
2514.00,0.0009
2513.00,0.0009
2512.00,0.0009
2511.00,0.0008
2510.00,0.0008
2509.00,0.0008
2508.00,0.0008
2507.00,0.0008
2506.00,0.0008
2505.00,0.0008
2504.00,0.0008
2503.00,0.0008
2502.00,0.0008
2501.00,0.0007
2500.00,0.0007
2499.00,0.0007
2498.00,0.0007
2497.00,0.0007
2496.00,0.0007
2495.00,0.0007
2494.00,0.0008
2493.00,0.0008
2492.00,0.0008
2491.00,0.0008
2490.00,0.0008
2489.00,0.0008
2488.00,0.0008
2487.00,0.0009
2486.00,0.0009
2485.00,0.0009
2484.00,0.0009
2483.00,0.0008
2482.00,0.0008
2481.00,0.0007
2480.00,0.0007
2479.00,0.0007
2478.00,0.0007
2477.00,0.0007
2476.00,0.0008
2475.00,0.0008
2474.00,0.0007
2473.00,0.0007
2472.00,0.0007
2471.00,0.0006
2470.00,0.0006
2469.00,0.0006
2468.00,0.0006
2467.00,0.0006
2466.00,0.0007
2465.00,0.0007
2464.00,0.0008
2463.00,0.0008
2462.00,0.0008
2461.00,0.0008
2460.00,0.0008
2459.00,0.0008
2458.00,0.0009
2457.00,0.0010
2456.00,0.0010
2455.00,0.0010
2454.00,0.0010
2453.00,0.0010
2452.00,0.0009
2451.00,0.0009
2450.00,0.0009
2449.00,0.0009
2448.00,0.0009
2447.00,0.0009
2446.00,0.0008
2445.00,0.0008
2444.00,0.0007
2443.00,0.0007
2442.00,0.0007
2441.00,0.0007
2440.00,0.0008
2439.00,0.0008
2438.00,0.0009
2437.00,0.0010
2436.00,0.0010
2435.00,0.0010
2434.00,0.0009
2433.00,0.0009
2432.00,0.0009
2431.00,0.0008
2430.00,0.0008
2429.00,0.0008
2428.00,0.0008
2427.00,0.0009
2426.00,0.0009
2425.00,0.0009
2424.00,0.0009
2423.00,0.0009
2422.00,0.0009
2421.00,0.0008
2420.00,0.0008
2419.00,0.0008
2418.00,0.0008
2417.00,0.0009
2416.00,0.0009
2415.00,0.0009
2414.00,0.0009
2413.00,0.0008
2412.00,0.0008
2411.00,0.0008
2410.00,0.0008
2409.00,0.0008
2408.00,0.0008
2407.00,0.0008
2406.00,0.0008
2405.00,0.0007
2404.00,0.0007
2403.00,0.0007
2402.00,0.0008
2401.00,0.0008
2400.00,0.0008
2399.00,0.0008
2398.00,0.0008
2397.00,0.0007
2396.00,0.0007
2395.00,0.0006
2394.00,0.0006
2393.00,0.0006
2392.00,0.0006
2391.00,0.0006
2390.00,0.0006
2389.00,0.0005
2388.00,0.0005
2387.00,0.0004
2386.00,0.0004
2385.00,0.0004
2384.00,0.0004
2383.00,0.0004
2382.00,0.0003
2381.00,0.0002
2380.00,0.0002
2379.00,0.0002
2378.00,0.0003
2377.00,0.0003
2376.00,0.0003
2375.00,0.0003
2374.00,0.0003
2373.00,0.0003
2372.00,0.0003
2371.00,0.0003
2370.00,0.0003
2369.00,0.0002
2368.00,0.0001
2367.00,0.0001
2366.00,0.0001
2365.00,0.0001
2364.00,0.0001
2363.00,0.0001
2362.00,0.0002
2361.00,0.0003
2360.00,0.0003
2359.00,0.0003
2358.00,0.0003
2357.00,0.0003
2356.00,0.0003
2355.00,0.0004
2354.00,0.0004
2353.00,0.0004
2352.00,0.0003
2351.00,0.0003
2350.00,0.0003
2349.00,0.0003
2348.00,0.0004
2347.00,0.0004
2346.00,0.0004
2345.00,0.0004
2344.00,0.0003
2343.00,0.0003
2342.00,0.0004
2341.00,0.0004
2340.00,0.0005
2339.00,0.0006
2338.00,0.0006
2337.00,0.0006
2336.00,0.0007
2335.00,0.0007
2334.00,0.0006
2333.00,0.0005
2332.00,0.0004
2331.00,0.0004
2330.00,0.0004
2329.00,0.0005
2328.00,0.0007
2327.00,0.0010
2326.00,0.0013
2325.00,0.0016
2324.00,0.0018
2323.00,0.0018
2322.00,0.0016
2321.00,0.0014
2320.00,0.0012
2319.00,0.0011
2318.00,0.0010
2317.00,0.0009
2316.00,0.0008
2315.00,0.0007
2314.00,0.0007
2313.00,0.0006
2312.00,0.0005
2311.00,0.0005
2310.00,0.0005
2309.00,0.0005
2308.00,0.0005
2307.00,0.0006
2306.00,0.0007
2305.00,0.0007
2304.00,0.0007
2303.00,0.0008
2302.00,0.0008
2301.00,0.0009
2300.00,0.0009
2299.00,0.0010
2298.00,0.0010
2297.00,0.0011
2296.00,0.0011
2295.00,0.0011
2294.00,0.0011
2293.00,0.0012
2292.00,0.0012
2291.00,0.0013
2290.00,0.0013
2289.00,0.0015
2288.00,0.0016
2287.00,0.0016
2286.00,0.0016
2285.00,0.0016
2284.00,0.0016
2283.00,0.0015
2282.00,0.0015
2281.00,0.0014
2280.00,0.0013
2279.00,0.0013
2278.00,0.0013
2277.00,0.0013
2276.00,0.0013
2275.00,0.0013
2274.00,0.0012
2273.00,0.0011
2272.00,0.0010
2271.00,0.0010
2270.00,0.0011
2269.00,0.0012
2268.00,0.0012
2267.00,0.0012
2266.00,0.0011
2265.00,0.0009
2264.00,0.0008
2263.00,0.0008
2262.00,0.0008
2261.00,0.0008
2260.00,0.0010
2259.00,0.0011
2258.00,0.0011
2257.00,0.0010
2256.00,0.0009
2255.00,0.0008
2254.00,0.0007
2253.00,0.0006
2252.00,0.0005
2251.00,0.0004
2250.00,0.0004
2249.00,0.0004
2248.00,0.0005
2247.00,0.0007
2246.00,0.0008
2245.00,0.0009
2244.00,0.0009
2243.00,0.0009
2242.00,0.0009
2241.00,0.0009
2240.00,0.0009
2239.00,0.0008
2238.00,0.0006
2237.00,0.0005
2236.00,0.0006
2235.00,0.0007
2234.00,0.0009
2233.00,0.0009
2232.00,0.0008
2231.00,0.0007
2230.00,0.0005
2229.00,0.0005
2228.00,0.0005
2227.00,0.0006
2226.00,0.0006
2225.00,0.0006
2224.00,0.0007
2223.00,0.0008
2222.00,0.0010
2221.00,0.0011
2220.00,0.0011
2219.00,0.0010
2218.00,0.0009
2217.00,0.0008
2216.00,0.0007
2215.00,0.0007
2214.00,0.0006
2213.00,0.0005
2212.00,0.0005
2211.00,0.0004
2210.00,0.0004
2209.00,0.0004
2208.00,0.0005
2207.00,0.0005
2206.00,0.0004
2205.00,0.0003
2204.00,0.0002
2203.00,0.0002
2202.00,0.0003
2201.00,0.0004
2200.00,0.0006
2199.00,0.0007
2198.00,0.0007
2197.00,0.0007
2196.00,0.0006
2195.00,0.0005
2194.00,0.0003
2193.00,0.0003
2192.00,0.0003
2191.00,0.0005
2190.00,0.0006
2189.00,0.0008
2188.00,0.0010
2187.00,0.0013
2186.00,0.0013
2185.00,0.0011
2184.00,0.0007
2183.00,0.0005
2182.00,0.0004
2181.00,0.0005
2180.00,0.0008
2179.00,0.0011
2178.00,0.0014
2177.00,0.0015
2176.00,0.0014
2175.00,0.0012
2174.00,0.0011
2173.00,0.0009
2172.00,0.0009
2171.00,0.0009
2170.00,0.0011
2169.00,0.0012
2168.00,0.0014
2167.00,0.0016
2166.00,0.0018
2165.00,0.0017
2164.00,0.0015
2163.00,0.0012
2162.00,0.0008
2161.00,0.0003
2160.00,-0.0005
2159.00,-0.0017
2158.00,-0.0024
2157.00,-0.0025
2156.00,-0.0022
2155.00,-0.0019
2154.00,-0.0016
2153.00,-0.0015
2152.00,-0.0014
2151.00,-0.0013
2150.00,-0.0013
2149.00,-0.0015
2148.00,-0.0017
2147.00,-0.0018
2146.00,-0.0019
2145.00,-0.0019
2144.00,-0.0018
2143.00,-0.0017
2142.00,-0.0016
2141.00,-0.0014
2140.00,-0.0012
2139.00,-0.0011
2138.00,-0.0010
2137.00,-0.0011
2136.00,-0.0013
2135.00,-0.0016
2134.00,-0.0019
2133.00,-0.0019
2132.00,-0.0018
2131.00,-0.0016
2130.00,-0.0015
2129.00,-0.0013
2128.00,-0.0010
2127.00,-0.0007
2126.00,-0.0006
2125.00,-0.0006
2124.00,-0.0006
2123.00,-0.0008
2122.00,-0.0008
2121.00,-0.0008
2120.00,-0.0007
2119.00,-0.0005
2118.00,-0.0003
2117.00,-0.0002
2116.00,0.0000
2115.00,0.0002
2114.00,0.0003
2113.00,0.0002
2112.00,0.0001
2111.00,0.0000
2110.00,-0.0000
2109.00,-0.0000
2108.00,0.0000
2107.00,0.0001
2106.00,0.0001
2105.00,0.0002
2104.00,0.0002
2103.00,0.0001
2102.00,-0.0001
2101.00,-0.0002
2100.00,-0.0004
2099.00,-0.0004
2098.00,-0.0003
2097.00,-0.0003
2096.00,-0.0004
2095.00,-0.0005
2094.00,-0.0005
2093.00,-0.0003
2092.00,-0.0002
2091.00,-0.0001
2090.00,-0.0000
2089.00,-0.0000
2088.00,-0.0001
2087.00,-0.0001
2086.00,-0.0000
2085.00,0.0001
2084.00,0.0002
2083.00,0.0003
2082.00,0.0003
2081.00,0.0003
2080.00,0.0003
2079.00,0.0003
2078.00,0.0002
2077.00,0.0002
2076.00,0.0002
2075.00,0.0001
2074.00,0.0001
2073.00,0.0000
2072.00,-0.0000
2071.00,-0.0001
2070.00,-0.0001
2069.00,-0.0001
2068.00,-0.0000
2067.00,0.0000
2066.00,-0.0000
2065.00,-0.0001
2064.00,-0.0003
2063.00,-0.0005
2062.00,-0.0005
2061.00,-0.0005
2060.00,-0.0005
2059.00,-0.0004
2058.00,-0.0003
2057.00,-0.0002
2056.00,-0.0001
2055.00,-0.0002
2054.00,-0.0003
2053.00,-0.0001
2052.00,0.0002
2051.00,0.0006
2050.00,0.0006
2049.00,0.0005
2048.00,0.0004
2047.00,0.0003
2046.00,0.0002
2045.00,0.0001
2044.00,0.0001
2043.00,0.0001
2042.00,0.0001
2041.00,0.0001
2040.00,0.0001
2039.00,0.0001
2038.00,0.0000
2037.00,-0.0000
2036.00,-0.0001
2035.00,-0.0000
2034.00,0.0000
2033.00,0.0000
2032.00,-0.0002
2031.00,-0.0006
2030.00,-0.0011
2029.00,-0.0015
2028.00,-0.0018
2027.00,-0.0018
2026.00,-0.0017
2025.00,-0.0016
2024.00,-0.0015
2023.00,-0.0015
2022.00,-0.0015
2021.00,-0.0014
2020.00,-0.0013
2019.00,-0.0010
2018.00,-0.0007
2017.00,-0.0005
2016.00,-0.0004
2015.00,-0.0006
2014.00,-0.0009
2013.00,-0.0013
2012.00,-0.0015
2011.00,-0.0016
2010.00,-0.0014
2009.00,-0.0014
2008.00,-0.0015
2007.00,-0.0019
2006.00,-0.0022
2005.00,-0.0023
2004.00,-0.0021
2003.00,-0.0018
2002.00,-0.0016
2001.00,-0.0013
2000.00,-0.0010
1999.00,-0.0008
1998.00,-0.0007
1997.00,-0.0007
1996.00,-0.0006
1995.00,-0.0005
1994.00,-0.0004
1993.00,-0.0003
1992.00,-0.0004
1991.00,-0.0004
1990.00,-0.0004
1989.00,-0.0004
1988.00,-0.0004
1987.00,-0.0005
1986.00,-0.0006
1985.00,-0.0006
1984.00,-0.0005
1983.00,-0.0004
1982.00,-0.0001
1981.00,0.0003
1980.00,0.0006
1979.00,0.0005
1978.00,-0.0001
1977.00,-0.0008
1976.00,-0.0013
1975.00,-0.0015
1974.00,-0.0016
1973.00,-0.0017
1972.00,-0.0019
1971.00,-0.0019
1970.00,-0.0019
1969.00,-0.0018
1968.00,-0.0017
1967.00,-0.0015
1966.00,-0.0013
1965.00,-0.0011
1964.00,-0.0009
1963.00,-0.0009
1962.00,-0.0010
1961.00,-0.0012
1960.00,-0.0016
1959.00,-0.0019
1958.00,-0.0021
1957.00,-0.0020
1956.00,-0.0017
1955.00,-0.0013
1954.00,-0.0011
1953.00,-0.0010
1952.00,-0.0011
1951.00,-0.0013
1950.00,-0.0014
1949.00,-0.0013
1948.00,-0.0011
1947.00,-0.0009
1946.00,-0.0009
1945.00,-0.0010
1944.00,-0.0011
1943.00,-0.0012
1942.00,-0.0013
1941.00,-0.0012
1940.00,-0.0011
1939.00,-0.0010
1938.00,-0.0010
1937.00,-0.0011
1936.00,-0.0012
1935.00,-0.0013
1934.00,-0.0014
1933.00,-0.0014
1932.00,-0.0015
1931.00,-0.0015
1930.00,-0.0014
1929.00,-0.0012
1928.00,-0.0010
1927.00,-0.0008
1926.00,-0.0007
1925.00,-0.0007
1924.00,-0.0006
1923.00,-0.0005
1922.00,-0.0004
1921.00,-0.0003
1920.00,-0.0004
1919.00,-0.0005
1918.00,-0.0007
1917.00,-0.0007
1916.00,-0.0006
1915.00,-0.0005
1914.00,-0.0005
1913.00,-0.0004
1912.00,-0.0004
1911.00,-0.0003
1910.00,-0.0002
1909.00,-0.0002
1908.00,-0.0001
1907.00,-0.0001
1906.00,-0.0002
1905.00,-0.0003
1904.00,-0.0003
1903.00,-0.0004
1902.00,-0.0003
1901.00,-0.0003
1900.00,-0.0002
1899.00,-0.0002
1898.00,-0.0003
1897.00,-0.0003
1896.00,-0.0003
1895.00,-0.0002
1894.00,-0.0002
1893.00,-0.0002
1892.00,-0.0002
1891.00,-0.0002
1890.00,-0.0002
1889.00,-0.0002
1888.00,-0.0001
1887.00,-0.0000
1886.00,-0.0001
1885.00,-0.0002
1884.00,-0.0002
1883.00,-0.0003
1882.00,-0.0003
1881.00,-0.0003
1880.00,-0.0003
1879.00,-0.0003
1878.00,-0.0002
1877.00,-0.0002
1876.00,-0.0001
1875.00,-0.0000
1874.00,-0.0000
1873.00,-0.0001
1872.00,-0.0002
1871.00,-0.0003
1870.00,-0.0003
1869.00,-0.0002
1868.00,-0.0001
1867.00,-0.0001
1866.00,-0.0001
1865.00,-0.0001
1864.00,-0.0001
1863.00,-0.0000
1862.00,0.0000
1861.00,0.0000
1860.00,-0.0000
1859.00,-0.0001
1858.00,-0.0001
1857.00,-0.0001
1856.00,-0.0001
1855.00,-0.0001
1854.00,-0.0001
1853.00,-0.0001
1852.00,-0.0001
1851.00,-0.0001
1850.00,-0.0001
1849.00,-0.0000
1848.00,0.0000
1847.00,0.0001
1846.00,0.0002
1845.00,0.0002
1844.00,0.0002
1843.00,0.0002
1842.00,0.0002
1841.00,0.0002
1840.00,0.0002
1839.00,0.0002
1838.00,0.0002
1837.00,0.0002
1836.00,0.0003
1835.00,0.0004
1834.00,0.0004
1833.00,0.0003
1832.00,0.0003
1831.00,0.0002
1830.00,0.0002
1829.00,0.0002
1828.00,0.0001
1827.00,0.0001
1826.00,0.0001
1825.00,0.0002
1824.00,0.0003
1823.00,0.0003
1822.00,0.0003
1821.00,0.0003
1820.00,0.0002
1819.00,0.0001
1818.00,-0.0000
1817.00,-0.0002
1816.00,-0.0002
1815.00,-0.0002
1814.00,-0.0001
1813.00,-0.0000
1812.00,0.0001
1811.00,0.0002
1810.00,0.0002
1809.00,0.0002
1808.00,0.0002
1807.00,0.0002
1806.00,0.0002
1805.00,0.0003
1804.00,0.0003
1803.00,0.0002
1802.00,0.0002
1801.00,0.0002
1800.00,0.0003
1799.00,0.0003
1798.00,0.0004
1797.00,0.0004
1796.00,0.0004
1795.00,0.0005
1794.00,0.0005
1793.00,0.0004
1792.00,0.0004
1791.00,0.0004
1790.00,0.0004
1789.00,0.0004
1788.00,0.0005
1787.00,0.0005
1786.00,0.0004
1785.00,0.0004
1784.00,0.0004
1783.00,0.0003
1782.00,0.0003
1781.00,0.0003
1780.00,0.0002
1779.00,0.0002
1778.00,0.0001
1777.00,0.0001
1776.00,0.0000
1775.00,-0.0000
1774.00,-0.0001
1773.00,-0.0002
1772.00,-0.0002
1771.00,-0.0001
1770.00,0.0000
1769.00,0.0001
1768.00,0.0002
1767.00,0.0002
1766.00,0.0002
1765.00,0.0002
1764.00,0.0003
1763.00,0.0004
1762.00,0.0004
1761.00,0.0005
1760.00,0.0005
1759.00,0.0006
1758.00,0.0006
1757.00,0.0006
1756.00,0.0006
1755.00,0.0006
1754.00,0.0005
1753.00,0.0005
1752.00,0.0006
1751.00,0.0006
1750.00,0.0006
1749.00,0.0006
1748.00,0.0006
1747.00,0.0005
1746.00,0.0005
1745.00,0.0005
1744.00,0.0005
1743.00,0.0005
1742.00,0.0005
1741.00,0.0006
1740.00,0.0006
1739.00,0.0006
1738.00,0.0006
1737.00,0.0006
1736.00,0.0006
1735.00,0.0005
1734.00,0.0005
1733.00,0.0005
1732.00,0.0005
1731.00,0.0006
1730.00,0.0006
1729.00,0.0006
1728.00,0.0006
1727.00,0.0006
1726.00,0.0006
1725.00,0.0006
1724.00,0.0007
1723.00,0.0007
1722.00,0.0007
1721.00,0.0008
1720.00,0.0008
1719.00,0.0008
1718.00,0.0009
1717.00,0.0010
1716.00,0.0011
1715.00,0.0011
1714.00,0.0012
1713.00,0.0012
1712.00,0.0012
1711.00,0.0012
1710.00,0.0012
1709.00,0.0013
1708.00,0.0015
1707.00,0.0016
1706.00,0.0016
1705.00,0.0017
1704.00,0.0018
1703.00,0.0019
1702.00,0.0020
1701.00,0.0022
1700.00,0.0024
1699.00,0.0025
1698.00,0.0025
1697.00,0.0026
1696.00,0.0028
1695.00,0.0031
1694.00,0.0033
1693.00,0.0034
1692.00,0.0036
1691.00,0.0037
1690.00,0.0039
1689.00,0.0040
1688.00,0.0041
1687.00,0.0042
1686.00,0.0043
1685.00,0.0045
1684.00,0.0049
1683.00,0.0051
1682.00,0.0053
1681.00,0.0054
1680.00,0.0056
1679.00,0.0059
1678.00,0.0061
1677.00,0.0062
1676.00,0.0064
1675.00,0.0065
1674.00,0.0066
1673.00,0.0067
1672.00,0.0068
1671.00,0.0070
1670.00,0.0072
1669.00,0.0074
1668.00,0.0075
1667.00,0.0075
1666.00,0.0076
1665.00,0.0076
1664.00,0.0077
1663.00,0.0079
1662.00,0.0080
1661.00,0.0080
1660.00,0.0081
1659.00,0.0082
1658.00,0.0082
1657.00,0.0083
1656.00,0.0083
1655.00,0.0084
1654.00,0.0085
1653.00,0.0088
1652.00,0.0089
1651.00,0.0090
1650.00,0.0091
1649.00,0.0092
1648.00,0.0094
1647.00,0.0096
1646.00,0.0097
1645.00,0.0097
1644.00,0.0095
1643.00,0.0093
1642.00,0.0091
1641.00,0.0089
1640.00,0.0087
1639.00,0.0085
1638.00,0.0084
1637.00,0.0083
1636.00,0.0082
1635.00,0.0083
1634.00,0.0082
1633.00,0.0082
1632.00,0.0082
1631.00,0.0081
1630.00,0.0081
1629.00,0.0080
1628.00,0.0079
1627.00,0.0079
1626.00,0.0078
1625.00,0.0077
1624.00,0.0075
1623.00,0.0074
1622.00,0.0072
1621.00,0.0070
1620.00,0.0069
1619.00,0.0068
1618.00,0.0067
1617.00,0.0066
1616.00,0.0065
1615.00,0.0065
1614.00,0.0065
1613.00,0.0064
1612.00,0.0063
1611.00,0.0062
1610.00,0.0061
1609.00,0.0060
1608.00,0.0060
1607.00,0.0060
1606.00,0.0060
1605.00,0.0061
1604.00,0.0061
1603.00,0.0061
1602.00,0.0061
1601.00,0.0061
1600.00,0.0061
1599.00,0.0061
1598.00,0.0061
1597.00,0.0061
1596.00,0.0061
1595.00,0.0061
1594.00,0.0061
1593.00,0.0061
1592.00,0.0062
1591.00,0.0062
1590.00,0.0063
1589.00,0.0064
1588.00,0.0065
1587.00,0.0065
1586.00,0.0066
1585.00,0.0068
1584.00,0.0070
1583.00,0.0072
1582.00,0.0075
1581.00,0.0077
1580.00,0.0079
1579.00,0.0080
1578.00,0.0080
1577.00,0.0080
1576.00,0.0081
1575.00,0.0081
1574.00,0.0081
1573.00,0.0081
1572.00,0.0080
1571.00,0.0079
1570.00,0.0077
1569.00,0.0075
1568.00,0.0074
1567.00,0.0073
1566.00,0.0073
1565.00,0.0072
1564.00,0.0072
1563.00,0.0072
1562.00,0.0072
1561.00,0.0072
1560.00,0.0073
1559.00,0.0075
1558.00,0.0077
1557.00,0.0078
1556.00,0.0079
1555.00,0.0079
1554.00,0.0080
1553.00,0.0081
1552.00,0.0082
1551.00,0.0083
1550.00,0.0085
1549.00,0.0087
1548.00,0.0089
1547.00,0.0091
1546.00,0.0092
1545.00,0.0094
1544.00,0.0096
1543.00,0.0098
1542.00,0.0098
1541.00,0.0098
1540.00,0.0097
1539.00,0.0094
1538.00,0.0091
1537.00,0.0089
1536.00,0.0088
1535.00,0.0085
1534.00,0.0082
1533.00,0.0079
1532.00,0.0077
1531.00,0.0075
1530.00,0.0074
1529.00,0.0073
1528.00,0.0072
1527.00,0.0071
1526.00,0.0069
1525.00,0.0068
1524.00,0.0068
1523.00,0.0067
1522.00,0.0066
1521.00,0.0066
1520.00,0.0067
1519.00,0.0067
1518.00,0.0067
1517.00,0.0067
1516.00,0.0069
1515.00,0.0069
1514.00,0.0069
1513.00,0.0069
1512.00,0.0070
1511.00,0.0069
1510.00,0.0068
1509.00,0.0068
1508.00,0.0068
1507.00,0.0068
1506.00,0.0069
1505.00,0.0070
1504.00,0.0072
1503.00,0.0073
1502.00,0.0075
1501.00,0.0077
1500.00,0.0079
1499.00,0.0080
1498.00,0.0081
1497.00,0.0084
1496.00,0.0087
1495.00,0.0090
1494.00,0.0093
1493.00,0.0097
1492.00,0.0101
1491.00,0.0104
1490.00,0.0107
1489.00,0.0111
1488.00,0.0116
1487.00,0.0121
1486.00,0.0126
1485.00,0.0133
1484.00,0.0141
1483.00,0.0149
1482.00,0.0159
1481.00,0.0171
1480.00,0.0184
1479.00,0.0196
1478.00,0.0211
1477.00,0.0229
1476.00,0.0251
1475.00,0.0276
1474.00,0.0310
1473.00,0.0364
1472.00,0.0430
1471.00,0.0496
1470.00,0.0559
1469.00,0.0625
1468.00,0.0696
1467.00,0.0775
1466.00,0.0865
1465.00,0.0964
1464.00,0.1052
1463.00,0.1115
1462.00,0.1158
1461.00,0.1190
1460.00,0.1214
1459.00,0.1230
1458.00,0.1243
1457.00,0.1251
1456.00,0.1250
1455.00,0.1242
1454.00,0.1230
1453.00,0.1211
1452.00,0.1181
1451.00,0.1138
1450.00,0.1078
1449.00,0.0999
1448.00,0.0902
1447.00,0.0802
1446.00,0.0715
1445.00,0.0641
1444.00,0.0581
1443.00,0.0532
1442.00,0.0497
1441.00,0.0474
1440.00,0.0462
1439.00,0.0459
1438.00,0.0464
1437.00,0.0468
1436.00,0.0459
1435.00,0.0432
1434.00,0.0391
1433.00,0.0342
1432.00,0.0292
1431.00,0.0249
1430.00,0.0216
1429.00,0.0192
1428.00,0.0177
1427.00,0.0168
1426.00,0.0162
1425.00,0.0157
1424.00,0.0152
1423.00,0.0150
1422.00,0.0148
1421.00,0.0145
1420.00,0.0142
1419.00,0.0139
1418.00,0.0136
1417.00,0.0133
1416.00,0.0130
1415.00,0.0128
1414.00,0.0126
1413.00,0.0124
1412.00,0.0122
1411.00,0.0121
1410.00,0.0121
1409.00,0.0120
1408.00,0.0118
1407.00,0.0118
1406.00,0.0118
1405.00,0.0118
1404.00,0.0118
1403.00,0.0119
1402.00,0.0121
1401.00,0.0122
1400.00,0.0123
1399.00,0.0125
1398.00,0.0128
1397.00,0.0129
1396.00,0.0131
1395.00,0.0135
1394.00,0.0141
1393.00,0.0147
1392.00,0.0153
1391.00,0.0161
1390.00,0.0174
1389.00,0.0191
1388.00,0.0217
1387.00,0.0256
1386.00,0.0308
1385.00,0.0374
1384.00,0.0461
1383.00,0.0578
1382.00,0.0733
1381.00,0.0935
1380.00,0.1188
1379.00,0.1483
1378.00,0.1778
1377.00,0.2006
1376.00,0.2101
1375.00,0.2017
1374.00,0.1775
1373.00,0.1468
1372.00,0.1180
1371.00,0.0941
1370.00,0.0750
1369.00,0.0606
1368.00,0.0507
1367.00,0.0446
1366.00,0.0414
1365.00,0.0401
1364.00,0.0404
1363.00,0.0420
1362.00,0.0444
1361.00,0.0469
1360.00,0.0487
1359.00,0.0492
1358.00,0.0479
1357.00,0.0450
1356.00,0.0408
1355.00,0.0361
1354.00,0.0316
1353.00,0.0278
1352.00,0.0247
1351.00,0.0223
1350.00,0.0203
1349.00,0.0187
1348.00,0.0175
1347.00,0.0165
1346.00,0.0157
1345.00,0.0150
1344.00,0.0145
1343.00,0.0141
1342.00,0.0137
1341.00,0.0134
1340.00,0.0131
1339.00,0.0129
1338.00,0.0128
1337.00,0.0128
1336.00,0.0129
1335.00,0.0130
1334.00,0.0133
1333.00,0.0137
1332.00,0.0142
1331.00,0.0146
1330.00,0.0147
1329.00,0.0146
1328.00,0.0142
1327.00,0.0136
1326.00,0.0129
1325.00,0.0122
1324.00,0.0115
1323.00,0.0110
1322.00,0.0105
1321.00,0.0101
1320.00,0.0098
1319.00,0.0096
1318.00,0.0093
1317.00,0.0091
1316.00,0.0089
1315.00,0.0087
1314.00,0.0086
1313.00,0.0086
1312.00,0.0087
1311.00,0.0089
1310.00,0.0092
1309.00,0.0097
1308.00,0.0103
1307.00,0.0112
1306.00,0.0120
1305.00,0.0127
1304.00,0.0130
1303.00,0.0130
1302.00,0.0129
1301.00,0.0127
1300.00,0.0127
1299.00,0.0128
1298.00,0.0130
1297.00,0.0131
1296.00,0.0131
1295.00,0.0129
1294.00,0.0125
1293.00,0.0119
1292.00,0.0113
1291.00,0.0107
1290.00,0.0102
1289.00,0.0097
1288.00,0.0093
1287.00,0.0090
1286.00,0.0087
1285.00,0.0084
1284.00,0.0082
1283.00,0.0080
1282.00,0.0079
1281.00,0.0077
1280.00,0.0075
1279.00,0.0074
1278.00,0.0073
1277.00,0.0072
1276.00,0.0072
1275.00,0.0072
1274.00,0.0073
1273.00,0.0073
1272.00,0.0074
1271.00,0.0074
1270.00,0.0075
1269.00,0.0076
1268.00,0.0078
1267.00,0.0080
1266.00,0.0083
1265.00,0.0086
1264.00,0.0088
1263.00,0.0091
1262.00,0.0093
1261.00,0.0096
1260.00,0.0100
1259.00,0.0105
1258.00,0.0110
1257.00,0.0114
1256.00,0.0116
1255.00,0.0114
1254.00,0.0109
1253.00,0.0104
1252.00,0.0098
1251.00,0.0093
1250.00,0.0089
1249.00,0.0086
1248.00,0.0084
1247.00,0.0083
1246.00,0.0082
1245.00,0.0081
1244.00,0.0079
1243.00,0.0078
1242.00,0.0077
1241.00,0.0076
1240.00,0.0076
1239.00,0.0076
1238.00,0.0075
1237.00,0.0074
1236.00,0.0074
1235.00,0.0073
1234.00,0.0073
1233.00,0.0073
1232.00,0.0073
1231.00,0.0072
1230.00,0.0072
1229.00,0.0073
1228.00,0.0074
1227.00,0.0076
1226.00,0.0079
1225.00,0.0083
1224.00,0.0087
1223.00,0.0091
1222.00,0.0095
1221.00,0.0098
1220.00,0.0100
1219.00,0.0101
1218.00,0.0100
1217.00,0.0099
1216.00,0.0096
1215.00,0.0092
1214.00,0.0089
1213.00,0.0085
1212.00,0.0082
1211.00,0.0078
1210.00,0.0076
1209.00,0.0073
1208.00,0.0071
1207.00,0.0069
1206.00,0.0067
1205.00,0.0065
1204.00,0.0063
1203.00,0.0061
1202.00,0.0061
1201.00,0.0060
1200.00,0.0059
1199.00,0.0059
1198.00,0.0059
1197.00,0.0059
1196.00,0.0059
1195.00,0.0059
1194.00,0.0060
1193.00,0.0060
1192.00,0.0060
1191.00,0.0060
1190.00,0.0060
1189.00,0.0060
1188.00,0.0061
1187.00,0.0062
1186.00,0.0062
1185.00,0.0064
1184.00,0.0065
1183.00,0.0068
1182.00,0.0070
1181.00,0.0073
1180.00,0.0076
1179.00,0.0081
1178.00,0.0086
1177.00,0.0094
1176.00,0.0103
1175.00,0.0116
1174.00,0.0132
1173.00,0.0152
1172.00,0.0176
1171.00,0.0202
1170.00,0.0227
1169.00,0.0248
1168.00,0.0260
1167.00,0.0264
1166.00,0.0260
1165.00,0.0252
1164.00,0.0241
1163.00,0.0229
1162.00,0.0218
1161.00,0.0209
1160.00,0.0201
1159.00,0.0195
1158.00,0.0191
1157.00,0.0189
1156.00,0.0188
1155.00,0.0188
1154.00,0.0188
1153.00,0.0186
1152.00,0.0182
1151.00,0.0176
1150.00,0.0169
1149.00,0.0161
1148.00,0.0152
1147.00,0.0143
1146.00,0.0135
1145.00,0.0127
1144.00,0.0121
1143.00,0.0114
1142.00,0.0109
1141.00,0.0103
1140.00,0.0097
1139.00,0.0093
1138.00,0.0089
1137.00,0.0086
1136.00,0.0084
1135.00,0.0082
1134.00,0.0081
1133.00,0.0080
1132.00,0.0079
1131.00,0.0078
1130.00,0.0079
1129.00,0.0080
1128.00,0.0082
1127.00,0.0084
1126.00,0.0086
1125.00,0.0087
1124.00,0.0088
1123.00,0.0089
1122.00,0.0089
1121.00,0.0089
1120.00,0.0089
1119.00,0.0090
1118.00,0.0092
1117.00,0.0094
1116.00,0.0096
1115.00,0.0098
1114.00,0.0100
1113.00,0.0101
1112.00,0.0104
1111.00,0.0107
1110.00,0.0111
1109.00,0.0117
1108.00,0.0123
1107.00,0.0130
1106.00,0.0138
1105.00,0.0145
1104.00,0.0151
1103.00,0.0155
1102.00,0.0155
1101.00,0.0152
1100.00,0.0147
1099.00,0.0140
1098.00,0.0133
1097.00,0.0126
1096.00,0.0120
1095.00,0.0116
1094.00,0.0112
1093.00,0.0108
1092.00,0.0106
1091.00,0.0103
1090.00,0.0100
1089.00,0.0098
1088.00,0.0096
1087.00,0.0095
1086.00,0.0093
1085.00,0.0092
1084.00,0.0092
1083.00,0.0091
1082.00,0.0089
1081.00,0.0087
1080.00,0.0085
1079.00,0.0083
1078.00,0.0082
1077.00,0.0082
1076.00,0.0081
1075.00,0.0080
1074.00,0.0078
1073.00,0.0078
1072.00,0.0078
1071.00,0.0080
1070.00,0.0081
1069.00,0.0082
1068.00,0.0083
1067.00,0.0084
1066.00,0.0084
1065.00,0.0084
1064.00,0.0084
1063.00,0.0084
1062.00,0.0084
1061.00,0.0084
1060.00,0.0084
1059.00,0.0085
1058.00,0.0085
1057.00,0.0085
1056.00,0.0086
1055.00,0.0086
1054.00,0.0087
1053.00,0.0087
1052.00,0.0087
1051.00,0.0087
1050.00,0.0089
1049.00,0.0091
1048.00,0.0093
1047.00,0.0094
1046.00,0.0095
1045.00,0.0096
1044.00,0.0097
1043.00,0.0097
1042.00,0.0096
1041.00,0.0095
1040.00,0.0094
1039.00,0.0095
1038.00,0.0096
1037.00,0.0097
1036.00,0.0099
1035.00,0.0099
1034.00,0.0099
1033.00,0.0099
1032.00,0.0098
1031.00,0.0097
1030.00,0.0096
1029.00,0.0096
1028.00,0.0095
1027.00,0.0095
1026.00,0.0094
1025.00,0.0093
1024.00,0.0093
1023.00,0.0092
1022.00,0.0093
1021.00,0.0093
1020.00,0.0093
1019.00,0.0093
1018.00,0.0094
1017.00,0.0095
1016.00,0.0096
1015.00,0.0099
1014.00,0.0101
1013.00,0.0104
1012.00,0.0106
1011.00,0.0109
1010.00,0.0113
1009.00,0.0116
1008.00,0.0120
1007.00,0.0125
1006.00,0.0131
1005.00,0.0140
1004.00,0.0152
1003.00,0.0168
1002.00,0.0189
1001.00,0.0215
1000.00,0.0241
999.00,0.0262
998.00,0.0272
997.00,0.0265
996.00,0.0245
995.00,0.0216
994.00,0.0186
993.00,0.0160
992.00,0.0140
991.00,0.0125
990.00,0.0115
989.00,0.0109
988.00,0.0104
987.00,0.0102
986.00,0.0102
985.00,0.0103
984.00,0.0107
983.00,0.0114
982.00,0.0125
981.00,0.0140
980.00,0.0161
979.00,0.0187
978.00,0.0218
977.00,0.0253
976.00,0.0290
975.00,0.0322
974.00,0.0344
973.00,0.0349
972.00,0.0334
971.00,0.0304
970.00,0.0264
969.00,0.0225
968.00,0.0191
967.00,0.0164
966.00,0.0145
965.00,0.0130
964.00,0.0119
963.00,0.0111
962.00,0.0104
961.00,0.0099
960.00,0.0095
959.00,0.0092
958.00,0.0089
957.00,0.0086
956.00,0.0083
955.00,0.0081
954.00,0.0081
953.00,0.0080
952.00,0.0079
951.00,0.0078
950.00,0.0077
949.00,0.0077
948.00,0.0079
947.00,0.0081
946.00,0.0083
945.00,0.0086
944.00,0.0089
943.00,0.0091
942.00,0.0094
941.00,0.0094
940.00,0.0093
939.00,0.0091
938.00,0.0088
937.00,0.0084
936.00,0.0079
935.00,0.0075
934.00,0.0072
933.00,0.0070
932.00,0.0069
931.00,0.0068
930.00,0.0067
929.00,0.0066
928.00,0.0065
927.00,0.0064
926.00,0.0063
925.00,0.0063
924.00,0.0064
923.00,0.0065
922.00,0.0066
921.00,0.0066
920.00,0.0067
919.00,0.0068
918.00,0.0069
917.00,0.0070
916.00,0.0071
915.00,0.0071
914.00,0.0072
913.00,0.0073
912.00,0.0074
911.00,0.0075
910.00,0.0076
909.00,0.0078
908.00,0.0081
907.00,0.0086
906.00,0.0094
905.00,0.0105
904.00,0.0122
903.00,0.0142
902.00,0.0164
901.00,0.0184
900.00,0.0198
899.00,0.0202
898.00,0.0195
897.00,0.0178
896.00,0.0157
895.00,0.0136
894.00,0.0119
893.00,0.0107
892.00,0.0097
891.00,0.0089
890.00,0.0084
889.00,0.0081
888.00,0.0079
887.00,0.0077
886.00,0.0075
885.00,0.0073
884.00,0.0072
883.00,0.0072
882.00,0.0072
881.00,0.0074
880.00,0.0075
879.00,0.0075
878.00,0.0075
877.00,0.0076
876.00,0.0076
875.00,0.0076
874.00,0.0075
873.00,0.0074
872.00,0.0074
871.00,0.0073
870.00,0.0073
869.00,0.0074
868.00,0.0074
867.00,0.0075
866.00,0.0075
865.00,0.0076
864.00,0.0077
863.00,0.0079
862.00,0.0080
861.00,0.0082
860.00,0.0083
859.00,0.0084
858.00,0.0085
857.00,0.0085
856.00,0.0085
855.00,0.0086
854.00,0.0088
853.00,0.0090
852.00,0.0092
851.00,0.0096
850.00,0.0100
849.00,0.0106
848.00,0.0114
847.00,0.0125
846.00,0.0141
845.00,0.0165
844.00,0.0197
843.00,0.0228
842.00,0.0250
841.00,0.0253
840.00,0.0235
839.00,0.0206
838.00,0.0175
837.00,0.0151
836.00,0.0136
835.00,0.0126
834.00,0.0120
833.00,0.0115
832.00,0.0112
831.00,0.0110
830.00,0.0109
829.00,0.0109
828.00,0.0109
827.00,0.0108
826.00,0.0107
825.00,0.0105
824.00,0.0105
823.00,0.0107
822.00,0.0110
821.00,0.0113
820.00,0.0116
819.00,0.0119
818.00,0.0123
817.00,0.0129
816.00,0.0138
815.00,0.0149
814.00,0.0163
813.00,0.0179
812.00,0.0197
811.00,0.0214
810.00,0.0226
809.00,0.0232
808.00,0.0231
807.00,0.0223
806.00,0.0210
805.00,0.0193
804.00,0.0177
803.00,0.0162
802.00,0.0150
801.00,0.0141
800.00,0.0132
799.00,0.0125
798.00,0.0118
797.00,0.0112
796.00,0.0107
795.00,0.0103
794.00,0.0099
793.00,0.0096
792.00,0.0093
791.00,0.0091
790.00,0.0090
789.00,0.0088
788.00,0.0085
787.00,0.0082
786.00,0.0078
785.00,0.0074
784.00,0.0072
783.00,0.0071
782.00,0.0070
781.00,0.0068
780.00,0.0065
779.00,0.0062
778.00,0.0061
777.00,0.0060
776.00,0.0060
775.00,0.0062
774.00,0.0065
773.00,0.0070
772.00,0.0074
771.00,0.0077
770.00,0.0079
769.00,0.0081
768.00,0.0082
767.00,0.0082
766.00,0.0082
765.00,0.0081
764.00,0.0078
763.00,0.0074
762.00,0.0070
761.00,0.0068
760.00,0.0066
759.00,0.0066
758.00,0.0065
757.00,0.0063
756.00,0.0060
755.00,0.0058
754.00,0.0056
753.00,0.0055
752.00,0.0055
751.00,0.0055
750.00,0.0056
749.00,0.0057
748.00,0.0057
747.00,0.0057
746.00,0.0056
745.00,0.0056
744.00,0.0057
743.00,0.0059
742.00,0.0061
741.00,0.0063
740.00,0.0064
739.00,0.0065
738.00,0.0066
737.00,0.0068
736.00,0.0070
735.00,0.0073
734.00,0.0076
733.00,0.0078
732.00,0.0079
731.00,0.0078
730.00,0.0077
729.00,0.0076
728.00,0.0075
727.00,0.0074
726.00,0.0074
725.00,0.0073
724.00,0.0073
723.00,0.0073
722.00,0.0072
721.00,0.0071
720.00,0.0070
719.00,0.0070
718.00,0.0068
717.00,0.0067
716.00,0.0065
715.00,0.0065
714.00,0.0064
713.00,0.0064
712.00,0.0062
711.00,0.0061
710.00,0.0061
709.00,0.0062
708.00,0.0064
707.00,0.0065
706.00,0.0065
705.00,0.0066
704.00,0.0066
703.00,0.0066
702.00,0.0066
701.00,0.0065
700.00,0.0064
699.00,0.0063
698.00,0.0063
697.00,0.0064
696.00,0.0065
695.00,0.0065
694.00,0.0065
693.00,0.0065
692.00,0.0063
691.00,0.0060
690.00,0.0059
689.00,0.0059
688.00,0.0059
687.00,0.0060
686.00,0.0061
685.00,0.0063
684.00,0.0064
683.00,0.0064
682.00,0.0061
681.00,0.0059
680.00,0.0058
679.00,0.0058
678.00,0.0059
677.00,0.0060
676.00,0.0060
675.00,0.0060
674.00,0.0059
673.00,0.0059
672.00,0.0058
671.00,0.0058
670.00,0.0059
669.00,0.0063
668.00,0.0069
667.00,0.0072
666.00,0.0072
665.00,0.0069
664.00,0.0067
663.00,0.0066
662.00,0.0065
661.00,0.0063
660.00,0.0063
659.00,0.0064
658.00,0.0066
657.00,0.0067
656.00,0.0068
655.00,0.0066
654.00,0.0065
653.00,0.0065
652.00,0.0066
651.00,0.0066
650.00,0.0065
649.00,0.0064
648.00,0.0065
647.00,0.0067
646.00,0.0068
645.00,0.0069
644.00,0.0068
643.00,0.0068
642.00,0.0068
641.00,0.0068
640.00,0.0069
639.00,0.0069
638.00,0.0068
637.00,0.0066
636.00,0.0063
635.00,0.0061
634.00,0.0060
633.00,0.0061
632.00,0.0064
631.00,0.0068
630.00,0.0071
629.00,0.0073
628.00,0.0071
627.00,0.0069
626.00,0.0068
625.00,0.0068
624.00,0.0067
623.00,0.0065
622.00,0.0063
621.00,0.0062
620.00,0.0062
619.00,0.0062
618.00,0.0063
617.00,0.0063
616.00,0.0064
615.00,0.0066
614.00,0.0067
613.00,0.0067
612.00,0.0066
611.00,0.0066
610.00,0.0067
609.00,0.0069
608.00,0.0071
607.00,0.0071
606.00,0.0070
605.00,0.0067
604.00,0.0064
603.00,0.0062
602.00,0.0061
601.00,0.0062
600.00,0.0064
599.00,0.0065
598.00,0.0065
597.00,0.0065
596.00,0.0065
595.00,0.0064
594.00,0.0064
593.00,0.0063
592.00,0.0061
591.00,0.0056
590.00,0.0053
589.00,0.0052
588.00,0.0053
587.00,0.0056
586.00,0.0059
585.00,0.0062
584.00,0.0065
583.00,0.0067
582.00,0.0069
581.00,0.0069
580.00,0.0068
579.00,0.0067
578.00,0.0066
577.00,0.0067
576.00,0.0067
575.00,0.0067
574.00,0.0068
573.00,0.0068
572.00,0.0068
571.00,0.0066
570.00,0.0063
569.00,0.0063
568.00,0.0064
567.00,0.0066
566.00,0.0067
565.00,0.0067
564.00,0.0068
563.00,0.0070
562.00,0.0073
561.00,0.0075
560.00,0.0076
559.00,0.0075
558.00,0.0072
557.00,0.0070
556.00,0.0071
555.00,0.0073
554.00,0.0075
553.00,0.0074
552.00,0.0072
551.00,0.0071
550.00,0.0070
549.00,0.0071
548.00,0.0071
547.00,0.0071
546.00,0.0069
545.00,0.0067
544.00,0.0065
543.00,0.0064
542.00,0.0065
541.00,0.0066
540.00,0.0066
539.00,0.0066
538.00,0.0068
537.00,0.0072
536.00,0.0077
535.00,0.0083
534.00,0.0086
533.00,0.0088
532.00,0.0090
531.00,0.0091
530.00,0.0092
529.00,0.0091
528.00,0.0093
527.00,0.0096
526.00,0.0101
525.00,0.0103
524.00,0.0100
523.00,0.0094
522.00,0.0088
521.00,0.0083
520.00,0.0080
519.00,0.0078
518.00,0.0076
517.00,0.0073
516.00,0.0070
515.00,0.0066
514.00,0.0065
513.00,0.0068
512.00,0.0074
511.00,0.0083
510.00,0.0090
509.00,0.0092
508.00,0.0089
507.00,0.0082
506.00,0.0073
505.00,0.0065
504.00,0.0059
503.00,0.0055
502.00,0.0056
501.00,0.0057
500.00,0.0057
499.00,0.0054
498.00,0.0050
497.00,0.0049
496.00,0.0052
495.00,0.0054
494.00,0.0053
493.00,0.0051
492.00,0.0051
491.00,0.0054
490.00,0.0055
489.00,0.0055
488.00,0.0057
487.00,0.0064
486.00,0.0072
485.00,0.0079
484.00,0.0082
483.00,0.0079
482.00,0.0070
481.00,0.0061
480.00,0.0058
479.00,0.0060
478.00,0.0063
477.00,0.0062
476.00,0.0058
475.00,0.0058
474.00,0.0063
473.00,0.0072
472.00,0.0079
471.00,0.0082
470.00,0.0081
469.00,0.0079
468.00,0.0083
467.00,0.0096
466.00,0.0113
465.00,0.0129
464.00,0.0140
463.00,0.0146
462.00,0.0149
461.00,0.0152
460.00,0.0157
459.00,0.0164
458.00,0.0168
457.00,0.0163
456.00,0.0148
455.00,0.0132
454.00,0.0118
453.00,0.0109
452.00,0.0103
451.00,0.0096
450.00,0.0088
