Created as New Dataset,Sample 098 By Administrator Date Tuesday, September 09 2025
cm-1,A
4000.00,0.0013
3999.00,0.0013
3998.00,0.0014
3997.00,0.0014
3996.00,0.0014
3995.00,0.0014
3994.00,0.0014
3993.00,0.0013
3992.00,0.0013
3991.00,0.0013
3990.00,0.0013
3989.00,0.0013
3988.00,0.0013
3987.00,0.0012
3986.00,0.0012
3985.00,0.0012
3984.00,0.0012
3983.00,0.0012
3982.00,0.0012
3981.00,0.0012
3980.00,0.0012
3979.00,0.0013
3978.00,0.0013
3977.00,0.0013
3976.00,0.0013
3975.00,0.0013
3974.00,0.0013
3973.00,0.0012
3972.00,0.0012
3971.00,0.0012
3970.00,0.0011
3969.00,0.0011
3968.00,0.0011
3967.00,0.0011
3966.00,0.0011
3965.00,0.0011
3964.00,0.0011
3963.00,0.0011
3962.00,0.0011
3961.00,0.0011
3960.00,0.0011
3959.00,0.0011
3958.00,0.0011
3957.00,0.0011
3956.00,0.0011
3955.00,0.0011
3954.00,0.0011
3953.00,0.0011
3952.00,0.0011
3951.00,0.0010
3950.00,0.0010
3949.00,0.0010
3948.00,0.0010
3947.00,0.0010
3946.00,0.0010
3945.00,0.0011
3944.00,0.0011
3943.00,0.0011
3942.00,0.0011
3941.00,0.0011
3940.00,0.0011
3939.00,0.0012
3938.00,0.0012
3937.00,0.0012
3936.00,0.0012
3935.00,0.0012
3934.00,0.0012
3933.00,0.0012
3932.00,0.0011
3931.00,0.0011
3930.00,0.0011
3929.00,0.0010
3928.00,0.0010
3927.00,0.0010
3926.00,0.0010
3925.00,0.0010
3924.00,0.0011
3923.00,0.0011
3922.00,0.0011
3921.00,0.0011
3920.00,0.0011
3919.00,0.0011
3918.00,0.0011
3917.00,0.0010
3916.00,0.0010
3915.00,0.0010
3914.00,0.0010
3913.00,0.0010
3912.00,0.0011
3911.00,0.0011
3910.00,0.0011
3909.00,0.0011
3908.00,0.0011
3907.00,0.0011
3906.00,0.0010
3905.00,0.0010
3904.00,0.0010
3903.00,0.0010
3902.00,0.0010
3901.00,0.0010
3900.00,0.0010
3899.00,0.0010
3898.00,0.0010
3897.00,0.0010
3896.00,0.0010
3895.00,0.0010
3894.00,0.0011
3893.00,0.0011
3892.00,0.0011
3891.00,0.0011
3890.00,0.0010
3889.00,0.0010
3888.00,0.0010
3887.00,0.0010
3886.00,0.0010
3885.00,0.0010
3884.00,0.0009
3883.00,0.0009
3882.00,0.0009
3881.00,0.0010
3880.00,0.0011
3879.00,0.0011
3878.00,0.0011
3877.00,0.0010
3876.00,0.0010
3875.00,0.0010
3874.00,0.0009
3873.00,0.0009
3872.00,0.0010
3871.00,0.0010
3870.00,0.0010
3869.00,0.0010
3868.00,0.0009
3867.00,0.0009
3866.00,0.0009
3865.00,0.0009
3864.00,0.0010
3863.00,0.0010
3862.00,0.0010
3861.00,0.0010
3860.00,0.0010
3859.00,0.0010
3858.00,0.0010
3857.00,0.0011
3856.00,0.0011
3855.00,0.0010
3854.00,0.0010
3853.00,0.0009
3852.00,0.0009
3851.00,0.0009
3850.00,0.0009
3849.00,0.0009
3848.00,0.0009
3847.00,0.0010
3846.00,0.0010
3845.00,0.0010
3844.00,0.0010
3843.00,0.0010
3842.00,0.0009
3841.00,0.0009
3840.00,0.0008
3839.00,0.0008
3838.00,0.0008
3837.00,0.0009
3836.00,0.0009
3835.00,0.0009
3834.00,0.0010
3833.00,0.0011
3832.00,0.0011
3831.00,0.0012
3830.00,0.0012
3829.00,0.0012
3828.00,0.0012
3827.00,0.0011
3826.00,0.0011
3825.00,0.0010
3824.00,0.0010
3823.00,0.0010
3822.00,0.0009
3821.00,0.0009
3820.00,0.0009
3819.00,0.0009
3818.00,0.0009
3817.00,0.0009
3816.00,0.0009
3815.00,0.0010
3814.00,0.0010
3813.00,0.0010
3812.00,0.0011
3811.00,0.0011
3810.00,0.0010
3809.00,0.0010
3808.00,0.0009
3807.00,0.0009
3806.00,0.0008
3805.00,0.0008
3804.00,0.0008
3803.00,0.0008
3802.00,0.0008
3801.00,0.0009
3800.00,0.0009
3799.00,0.0008
3798.00,0.0008
3797.00,0.0008
3796.00,0.0008
3795.00,0.0009
3794.00,0.0009
3793.00,0.0010
3792.00,0.0010
3791.00,0.0010
3790.00,0.0010
3789.00,0.0010
3788.00,0.0010
3787.00,0.0010
3786.00,0.0010
3785.00,0.0010
3784.00,0.0010
3783.00,0.0010
3782.00,0.0010
3781.00,0.0010
3780.00,0.0010
3779.00,0.0010
3778.00,0.0010
3777.00,0.0010
3776.00,0.0010
3775.00,0.0010
3774.00,0.0010
3773.00,0.0010
3772.00,0.0011
3771.00,0.0011
3770.00,0.0010
3769.00,0.0010
3768.00,0.0010
3767.00,0.0010
3766.00,0.0010
3765.00,0.0010
3764.00,0.0010
3763.00,0.0010
3762.00,0.0010
3761.00,0.0010
3760.00,0.0010
3759.00,0.0010
3758.00,0.0010
3757.00,0.0010
3756.00,0.0010
3755.00,0.0010
3754.00,0.0010
3753.00,0.0010
3752.00,0.0010
3751.00,0.0010
3750.00,0.0010
3749.00,0.0010
3748.00,0.0010
3747.00,0.0010
3746.00,0.0010
3745.00,0.0010
3744.00,0.0010
3743.00,0.0010
3742.00,0.0010
3741.00,0.0010
3740.00,0.0010
3739.00,0.0010
3738.00,0.0009
3737.00,0.0009
3736.00,0.0009
3735.00,0.0009
3734.00,0.0009
3733.00,0.0009
3732.00,0.0009
3731.00,0.0009
3730.00,0.0009
3729.00,0.0009
3728.00,0.0010
3727.00,0.0010
3726.00,0.0010
3725.00,0.0010
3724.00,0.0010
3723.00,0.0010
3722.00,0.0010
3721.00,0.0010
3720.00,0.0010
3719.00,0.0010
3718.00,0.0010
3717.00,0.0010
3716.00,0.0010
3715.00,0.0010
3714.00,0.0010
3713.00,0.0009
3712.00,0.0008
3711.00,0.0008
3710.00,0.0008
3709.00,0.0009
3708.00,0.0009
3707.00,0.0009
3706.00,0.0009
3705.00,0.0009
3704.00,0.0009
3703.00,0.0009
3702.00,0.0009
3701.00,0.0009
3700.00,0.0009
3699.00,0.0009
3698.00,0.0009
3697.00,0.0009
3696.00,0.0009
3695.00,0.0008
3694.00,0.0008
3693.00,0.0008
3692.00,0.0008
3691.00,0.0008
3690.00,0.0008
3689.00,0.0008
3688.00,0.0008
3687.00,0.0008
3686.00,0.0008
3685.00,0.0009
3684.00,0.0009
3683.00,0.0009
3682.00,0.0009
3681.00,0.0009
3680.00,0.0008
3679.00,0.0008
3678.00,0.0008
3677.00,0.0008
3676.00,0.0008
3675.00,0.0008
3674.00,0.0008
3673.00,0.0008
3672.00,0.0008
3671.00,0.0008
3670.00,0.0008
3669.00,0.0008
3668.00,0.0008
3667.00,0.0008
3666.00,0.0008
3665.00,0.0008
3664.00,0.0009
3663.00,0.0009
3662.00,0.0009
3661.00,0.0008
3660.00,0.0008
3659.00,0.0008
3658.00,0.0009
3657.00,0.0009
3656.00,0.0009
3655.00,0.0009
3654.00,0.0009
3653.00,0.0009
3652.00,0.0008
3651.00,0.0008
3650.00,0.0008
3649.00,0.0008
3648.00,0.0008
3647.00,0.0008
3646.00,0.0009
3645.00,0.0010
3644.00,0.0010
3643.00,0.0011
3642.00,0.0012
3641.00,0.0012
3640.00,0.0012
3639.00,0.0012
3638.00,0.0012
3637.00,0.0012
3636.00,0.0012
3635.00,0.0013
3634.00,0.0013
3633.00,0.0013
3632.00,0.0013
3631.00,0.0013
3630.00,0.0014
3629.00,0.0014
3628.00,0.0014
3627.00,0.0014
3626.00,0.0014
3625.00,0.0015
3624.00,0.0015
3623.00,0.0016
3622.00,0.0016
3621.00,0.0016
3620.00,0.0016
3619.00,0.0017
3618.00,0.0017
3617.00,0.0017
3616.00,0.0017
3615.00,0.0017
3614.00,0.0018
3613.00,0.0018
3612.00,0.0018
3611.00,0.0019
3610.00,0.0019
3609.00,0.0020
3608.00,0.0020
3607.00,0.0020
3606.00,0.0021
3605.00,0.0021
3604.00,0.0021
3603.00,0.0021
3602.00,0.0022
3601.00,0.0022
3600.00,0.0022
3599.00,0.0022
3598.00,0.0022
3597.00,0.0022
3596.00,0.0022
3595.00,0.0023
3594.00,0.0023
3593.00,0.0024
3592.00,0.0025
3591.00,0.0025
3590.00,0.0026
3589.00,0.0026
3588.00,0.0027
3587.00,0.0027
3586.00,0.0027
3585.00,0.0027
3584.00,0.0027
3583.00,0.0028
3582.00,0.0029
3581.00,0.0029
3580.00,0.0029
3579.00,0.0030
3578.00,0.0030
3577.00,0.0030
3576.00,0.0030
3575.00,0.0030
3574.00,0.0031
3573.00,0.0031
3572.00,0.0031
3571.00,0.0031
3570.00,0.0031
3569.00,0.0032
3568.00,0.0033
3567.00,0.0034
3566.00,0.0034
3565.00,0.0034
3564.00,0.0034
3563.00,0.0034
3562.00,0.0035
3561.00,0.0035
3560.00,0.0036
3559.00,0.0036
3558.00,0.0037
3557.00,0.0037
3556.00,0.0037
3555.00,0.0038
3554.00,0.0038
3553.00,0.0039
3552.00,0.0039
3551.00,0.0039
3550.00,0.0040
3549.00,0.0040
3548.00,0.0040
3547.00,0.0041
3546.00,0.0041
3545.00,0.0042
3544.00,0.0042
3543.00,0.0042
3542.00,0.0043
3541.00,0.0043
3540.00,0.0043
3539.00,0.0043
3538.00,0.0044
3537.00,0.0044
3536.00,0.0044
3535.00,0.0045
3534.00,0.0045
3533.00,0.0046
3532.00,0.0046
3531.00,0.0046
3530.00,0.0046
3529.00,0.0047
3528.00,0.0047
3527.00,0.0047
3526.00,0.0048
3525.00,0.0048
3524.00,0.0048
3523.00,0.0049
3522.00,0.0050
3521.00,0.0050
3520.00,0.0050
3519.00,0.0050
3518.00,0.0050
3517.00,0.0050
3516.00,0.0050
3515.00,0.0050
3514.00,0.0051
3513.00,0.0051
3512.00,0.0052
3511.00,0.0053
3510.00,0.0053
3509.00,0.0054
3508.00,0.0054
3507.00,0.0054
3506.00,0.0054
3505.00,0.0054
3504.00,0.0054
3503.00,0.0054
3502.00,0.0055
3501.00,0.0056
3500.00,0.0056
3499.00,0.0057
3498.00,0.0056
3497.00,0.0056
3496.00,0.0056
3495.00,0.0056
3494.00,0.0057
3493.00,0.0057
3492.00,0.0058
3491.00,0.0058
3490.00,0.0059
3489.00,0.0059
3488.00,0.0059
3487.00,0.0059
3486.00,0.0059
3485.00,0.0059
3484.00,0.0060
3483.00,0.0060
3482.00,0.0061
3481.00,0.0061
3480.00,0.0061
3479.00,0.0062
3478.00,0.0062
3477.00,0.0062
3476.00,0.0063
3475.00,0.0063
3474.00,0.0063
3473.00,0.0063
3472.00,0.0063
3471.00,0.0063
3470.00,0.0063
3469.00,0.0064
3468.00,0.0064
3467.00,0.0064
3466.00,0.0064
3465.00,0.0064
3464.00,0.0064
3463.00,0.0065
3462.00,0.0065
3461.00,0.0066
3460.00,0.0066
3459.00,0.0067
3458.00,0.0067
3457.00,0.0066
3456.00,0.0066
3455.00,0.0067
3454.00,0.0067
3453.00,0.0067
3452.00,0.0068
3451.00,0.0068
3450.00,0.0068
3449.00,0.0069
3448.00,0.0069
3447.00,0.0069
3446.00,0.0069
3445.00,0.0069
3444.00,0.0069
3443.00,0.0070
3442.00,0.0070
3441.00,0.0070
3440.00,0.0070
3439.00,0.0071
3438.00,0.0071
3437.00,0.0071
3436.00,0.0071
3435.00,0.0072
3434.00,0.0072
3433.00,0.0072
3432.00,0.0073
3431.00,0.0073
3430.00,0.0073
3429.00,0.0073
3428.00,0.0074
3427.00,0.0074
3426.00,0.0074
3425.00,0.0074
3424.00,0.0074
3423.00,0.0074
3422.00,0.0074
3421.00,0.0074
3420.00,0.0074
3419.00,0.0075
3418.00,0.0075
3417.00,0.0076
3416.00,0.0076
3415.00,0.0076
3414.00,0.0077
3413.00,0.0077
3412.00,0.0077
3411.00,0.0077
3410.00,0.0077
3409.00,0.0077
3408.00,0.0077
3407.00,0.0078
3406.00,0.0078
3405.00,0.0078
3404.00,0.0078
3403.00,0.0077
3402.00,0.0077
3401.00,0.0077
3400.00,0.0077
3399.00,0.0077
3398.00,0.0077
3397.00,0.0078
3396.00,0.0078
3395.00,0.0078
3394.00,0.0078
3393.00,0.0078
3392.00,0.0078
3391.00,0.0078
3390.00,0.0078
3389.00,0.0078
3388.00,0.0078
3387.00,0.0078
3386.00,0.0078
3385.00,0.0078
3384.00,0.0078
3383.00,0.0078
3382.00,0.0078
3381.00,0.0079
3380.00,0.0079
3379.00,0.0079
3378.00,0.0079
3377.00,0.0079
3376.00,0.0079
3375.00,0.0080
3374.00,0.0080
3373.00,0.0080
3372.00,0.0080
3371.00,0.0080
3370.00,0.0080
3369.00,0.0079
3368.00,0.0079
3367.00,0.0079
3366.00,0.0080
3365.00,0.0080
3364.00,0.0081
3363.00,0.0081
3362.00,0.0081
3361.00,0.0081
3360.00,0.0081
3359.00,0.0080
3358.00,0.0080
3357.00,0.0081
3356.00,0.0081
3355.00,0.0081
3354.00,0.0082
3353.00,0.0082
3352.00,0.0082
3351.00,0.0082
3350.00,0.0082
3349.00,0.0082
3348.00,0.0082
3347.00,0.0082
3346.00,0.0082
3345.00,0.0082
3344.00,0.0082
3343.00,0.0082
3342.00,0.0082
3341.00,0.0082
3340.00,0.0081
3339.00,0.0081
3338.00,0.0081
3337.00,0.0080
3336.00,0.0081
3335.00,0.0081
3334.00,0.0081
3333.00,0.0082
3332.00,0.0081
3331.00,0.0081
3330.00,0.0081
3329.00,0.0080
3328.00,0.0080
3327.00,0.0080
3326.00,0.0080
3325.00,0.0081
3324.00,0.0081
3323.00,0.0081
3322.00,0.0080
3321.00,0.0080
3320.00,0.0080
3319.00,0.0080
3318.00,0.0079
3317.00,0.0079
3316.00,0.0078
3315.00,0.0078
3314.00,0.0078
3313.00,0.0078
3312.00,0.0078
3311.00,0.0078
3310.00,0.0078
3309.00,0.0078
3308.00,0.0078
3307.00,0.0078
3306.00,0.0078
3305.00,0.0077
3304.00,0.0078
3303.00,0.0078
3302.00,0.0078
3301.00,0.0078
3300.00,0.0078
3299.00,0.0078
3298.00,0.0078
3297.00,0.0077
3296.00,0.0077
3295.00,0.0077
3294.00,0.0076
3293.00,0.0076
3292.00,0.0076
3291.00,0.0075
3290.00,0.0075
3289.00,0.0075
3288.00,0.0075
3287.00,0.0076
3286.00,0.0076
3285.00,0.0076
3284.00,0.0076
3283.00,0.0075
3282.00,0.0075
3281.00,0.0075
3280.00,0.0075
3279.00,0.0074
3278.00,0.0074
3277.00,0.0073
3276.00,0.0073
3275.00,0.0073
3274.00,0.0073
3273.00,0.0073
3272.00,0.0072
3271.00,0.0072
3270.00,0.0071
3269.00,0.0072
3268.00,0.0072
3267.00,0.0072
3266.00,0.0072
3265.00,0.0071
3264.00,0.0071
3263.00,0.0070
3262.00,0.0070
3261.00,0.0070
3260.00,0.0070
3259.00,0.0069
3258.00,0.0069
3257.00,0.0069
3256.00,0.0068
3255.00,0.0068
3254.00,0.0068
3253.00,0.0068
3252.00,0.0068
3251.00,0.0067
3250.00,0.0067
3249.00,0.0067
3248.00,0.0067
3247.00,0.0066
3246.00,0.0066
3245.00,0.0067
3244.00,0.0067
3243.00,0.0067
3242.00,0.0067
3241.00,0.0066
3240.00,0.0066
3239.00,0.0066
3238.00,0.0065
3237.00,0.0065
3236.00,0.0064
3235.00,0.0064
3234.00,0.0064
3233.00,0.0064
3232.00,0.0065
3231.00,0.0065
3230.00,0.0064
3229.00,0.0064
3228.00,0.0064
3227.00,0.0065
3226.00,0.0065
3225.00,0.0065
3224.00,0.0066
3223.00,0.0066
3222.00,0.0066
3221.00,0.0066
3220.00,0.0066
3219.00,0.0066
3218.00,0.0066
3217.00,0.0066
3216.00,0.0065
3215.00,0.0065
3214.00,0.0066
3213.00,0.0066
3212.00,0.0066
3211.00,0.0066
3210.00,0.0066
3209.00,0.0066
3208.00,0.0066
3207.00,0.0066
3206.00,0.0066
3205.00,0.0065
3204.00,0.0065
3203.00,0.0065
3202.00,0.0065
3201.00,0.0065
3200.00,0.0065
3199.00,0.0065
3198.00,0.0065
3197.00,0.0065
3196.00,0.0065
3195.00,0.0064
3194.00,0.0064
3193.00,0.0064
3192.00,0.0064
3191.00,0.0063
3190.00,0.0063
3189.00,0.0063
3188.00,0.0062
3187.00,0.0062
3186.00,0.0062
3185.00,0.0063
3184.00,0.0063
3183.00,0.0062
3182.00,0.0062
3181.00,0.0061
3180.00,0.0060
3179.00,0.0060
3178.00,0.0059
3177.00,0.0059
3176.00,0.0059
3175.00,0.0059
3174.00,0.0059
3173.00,0.0059
3172.00,0.0059
3171.00,0.0059
3170.00,0.0059
3169.00,0.0059
3168.00,0.0059
3167.00,0.0059
3166.00,0.0059
3165.00,0.0059
3164.00,0.0058
3163.00,0.0058
3162.00,0.0058
3161.00,0.0057
3160.00,0.0057
3159.00,0.0057
3158.00,0.0057
3157.00,0.0058
3156.00,0.0057
3155.00,0.0057
3154.00,0.0057
3153.00,0.0057
3152.00,0.0056
3151.00,0.0055
3150.00,0.0055
3149.00,0.0055
3148.00,0.0056
3147.00,0.0056
3146.00,0.0056
3145.00,0.0056
3144.00,0.0056
3143.00,0.0056
3142.00,0.0055
3141.00,0.0055
3140.00,0.0054
3139.00,0.0054
3138.00,0.0054
3137.00,0.0053
3136.00,0.0053
3135.00,0.0053
3134.00,0.0052
3133.00,0.0052
3132.00,0.0051
3131.00,0.0051
3130.00,0.0051
3129.00,0.0051
3128.00,0.0051
3127.00,0.0051
3126.00,0.0051
3125.00,0.0051
3124.00,0.0050
3123.00,0.0049
3122.00,0.0049
3121.00,0.0049
3120.00,0.0048
3119.00,0.0048
3118.00,0.0048
3117.00,0.0048
3116.00,0.0048
3115.00,0.0047
3114.00,0.0047
3113.00,0.0047
3112.00,0.0047
3111.00,0.0047
3110.00,0.0047
3109.00,0.0047
3108.00,0.0046
3107.00,0.0046
3106.00,0.0046
3105.00,0.0046
3104.00,0.0046
3103.00,0.0045
3102.00,0.0045
3101.00,0.0045
3100.00,0.0045
3099.00,0.0045
3098.00,0.0045
3097.00,0.0045
3096.00,0.0045
3095.00,0.0045
3094.00,0.0044
3093.00,0.0044
3092.00,0.0044
3091.00,0.0044
3090.00,0.0044
3089.00,0.0045
3088.00,0.0044
3087.00,0.0044
3086.00,0.0044
3085.00,0.0043
3084.00,0.0043
3083.00,0.0043
3082.00,0.0042
3081.00,0.0042
3080.00,0.0043
3079.00,0.0043
3078.00,0.0043
3077.00,0.0044
3076.00,0.0044
3075.00,0.0044
3074.00,0.0044
3073.00,0.0044
3072.00,0.0043
3071.00,0.0043
3070.00,0.0044
3069.00,0.0044
3068.00,0.0044
3067.00,0.0044
3066.00,0.0044
3065.00,0.0045
3064.00,0.0045
3063.00,0.0045
3062.00,0.0045
3061.00,0.0045
3060.00,0.0044
3059.00,0.0044
3058.00,0.0044
3057.00,0.0044
3056.00,0.0044
3055.00,0.0044
3054.00,0.0044
3053.00,0.0045
3052.00,0.0045
3051.00,0.0045
3050.00,0.0045
3049.00,0.0045
3048.00,0.0045
3047.00,0.0045
3046.00,0.0045
3045.00,0.0046
3044.00,0.0046
3043.00,0.0046
3042.00,0.0046
3041.00,0.0047
3040.00,0.0047
3039.00,0.0048
3038.00,0.0048
3037.00,0.0048
3036.00,0.0048
3035.00,0.0048
3034.00,0.0048
3033.00,0.0048
3032.00,0.0049
3031.00,0.0049
3030.00,0.0049
3029.00,0.0050
3028.00,0.0050
3027.00,0.0051
3026.00,0.0051
3025.00,0.0052
3024.00,0.0052
3023.00,0.0053
3022.00,0.0053
3021.00,0.0054
3020.00,0.0054
3019.00,0.0055
3018.00,0.0055
3017.00,0.0056
3016.00,0.0057
3015.00,0.0057
3014.00,0.0058
3013.00,0.0059
3012.00,0.0060
3011.00,0.0061
3010.00,0.0062
3009.00,0.0063
3008.00,0.0064
3007.00,0.0065
3006.00,0.0066
3005.00,0.0067
3004.00,0.0068
3003.00,0.0070
3002.00,0.0072
3001.00,0.0073
3000.00,0.0076
2999.00,0.0078
2998.00,0.0081
2997.00,0.0084
2996.00,0.0087
2995.00,0.0090
2994.00,0.0094
2993.00,0.0098
2992.00,0.0104
2991.00,0.0109
2990.00,0.0115
2989.00,0.0121
2988.00,0.0128
2987.00,0.0136
2986.00,0.0144
2985.00,0.0153
2984.00,0.0162
2983.00,0.0173
2982.00,0.0187
2981.00,0.0203
2980.00,0.0223
2979.00,0.0245
2978.00,0.0270
2977.00,0.0298
2976.00,0.0329
2975.00,0.0364
2974.00,0.0403
2973.00,0.0446
2972.00,0.0496
2971.00,0.0551
2970.00,0.0613
2969.00,0.0680
2968.00,0.0753
2967.00,0.0829
2966.00,0.0908
2965.00,0.0987
2964.00,0.1062
2963.00,0.1132
2962.00,0.1193
2961.00,0.1246
2960.00,0.1292
2959.00,0.1335
2958.00,0.1380
2957.00,0.1430
2956.00,0.1490
2955.00,0.1560
2954.00,0.1641
2953.00,0.1726
2952.00,0.1808
2951.00,0.1875
2950.00,0.1917
2949.00,0.1923
2948.00,0.1887
2947.00,0.1808
2946.00,0.1697
2945.00,0.1566
2944.00,0.1434
2943.00,0.1313
2942.00,0.1214
2941.00,0.1141
2940.00,0.1095
2939.00,0.1074
2938.00,0.1076
2937.00,0.1097
2936.00,0.1136
2935.00,0.1191
2934.00,0.1261
2933.00,0.1345
2932.00,0.1440
2931.00,0.1545
2930.00,0.1657
2929.00,0.1772
2928.00,0.1888
2927.00,0.2001
2926.00,0.2111
2925.00,0.2216
2924.00,0.2318
2923.00,0.2420
2922.00,0.2521
2921.00,0.2620
2920.00,0.2710
2919.00,0.2783
2918.00,0.2828
2917.00,0.2836
2916.00,0.2804
2915.00,0.2733
2914.00,0.2634
2913.00,0.2518
2912.00,0.2398
2911.00,0.2281
2910.00,0.2172
2909.00,0.2072
2908.00,0.1980
2907.00,0.1893
2906.00,0.1810
2905.00,0.1730
2904.00,0.1651
2903.00,0.1575
2902.00,0.1502
2901.00,0.1431
2900.00,0.1365
2899.00,0.1302
2898.00,0.1245
2897.00,0.1194
2896.00,0.1148
2895.00,0.1110
2894.00,0.1079
2893.00,0.1056
2892.00,0.1039
2891.00,0.1029
2890.00,0.1025
2889.00,0.1026
2888.00,0.1031
2887.00,0.1040
2886.00,0.1052
2885.00,0.1068
2884.00,0.1090
2883.00,0.1117
2882.00,0.1149
2881.00,0.1186
2880.00,0.1223
2879.00,0.1256
2878.00,0.1281
2877.00,0.1293
2876.00,0.1294
2875.00,0.1287
2874.00,0.1278
2873.00,0.1273
2872.00,0.1275
2871.00,0.1287
2870.00,0.1306
2869.00,0.1328
2868.00,0.1344
2867.00,0.1346
2866.00,0.1324
2865.00,0.1274
2864.00,0.1197
2863.00,0.1102
2862.00,0.1001
2861.00,0.0905
2860.00,0.0821
2859.00,0.0753
2858.00,0.0701
2857.00,0.0664
2856.00,0.0639
2855.00,0.0624
2854.00,0.0619
2853.00,0.0621
2852.00,0.0629
2851.00,0.0643
2850.00,0.0662
2849.00,0.0684
2848.00,0.0712
2847.00,0.0745
2846.00,0.0786
2845.00,0.0837
2844.00,0.0896
2843.00,0.0963
2842.00,0.1033
2841.00,0.1101
2840.00,0.1159
2839.00,0.1200
2838.00,0.1213
2837.00,0.1194
2836.00,0.1140
2835.00,0.1057
2834.00,0.0954
2833.00,0.0844
2832.00,0.0738
2831.00,0.0643
2830.00,0.0563
2829.00,0.0497
2828.00,0.0444
2827.00,0.0401
2826.00,0.0366
2825.00,0.0337
2824.00,0.0313
2823.00,0.0294
2822.00,0.0277
2821.00,0.0262
2820.00,0.0249
2819.00,0.0238
2818.00,0.0228
2817.00,0.0220
2816.00,0.0213
2815.00,0.0206
2814.00,0.0201
2813.00,0.0195
2812.00,0.0189
2811.00,0.0184
2810.00,0.0178
2809.00,0.0172
2808.00,0.0166
2807.00,0.0160
2806.00,0.0154
2805.00,0.0147
2804.00,0.0140
2803.00,0.0134
2802.00,0.0129
2801.00,0.0124
2800.00,0.0120
2799.00,0.0116
2798.00,0.0113
2797.00,0.0111
2796.00,0.0108
2795.00,0.0106
2794.00,0.0104
2793.00,0.0101
2792.00,0.0098
2791.00,0.0095
2790.00,0.0092
2789.00,0.0089
2788.00,0.0086
2787.00,0.0083
2786.00,0.0081
2785.00,0.0079
2784.00,0.0077
2783.00,0.0075
2782.00,0.0074
2781.00,0.0072
2780.00,0.0070
2779.00,0.0069
2778.00,0.0067
2777.00,0.0066
2776.00,0.0065
2775.00,0.0064
2774.00,0.0064
2773.00,0.0063
2772.00,0.0062
2771.00,0.0062
2770.00,0.0062
2769.00,0.0062
2768.00,0.0062
2767.00,0.0061
2766.00,0.0061
2765.00,0.0060
2764.00,0.0060
2763.00,0.0059
2762.00,0.0059
2761.00,0.0058
2760.00,0.0058
2759.00,0.0058
2758.00,0.0058
2757.00,0.0057
2756.00,0.0057
2755.00,0.0057
2754.00,0.0057
2753.00,0.0057
2752.00,0.0057
2751.00,0.0056
2750.00,0.0056
2749.00,0.0056
2748.00,0.0056
2747.00,0.0057
2746.00,0.0058
2745.00,0.0059
2744.00,0.0059
2743.00,0.0060
2742.00,0.0061
2741.00,0.0062
2740.00,0.0063
2739.00,0.0064
2738.00,0.0066
2737.00,0.0067
2736.00,0.0069
2735.00,0.0070
2734.00,0.0072
2733.00,0.0073
2732.00,0.0075
2731.00,0.0077
2730.00,0.0079
2729.00,0.0082
2728.00,0.0085
2727.00,0.0089
2726.00,0.0091
2725.00,0.0094
2724.00,0.0095
2723.00,0.0096
2722.00,0.0095
2721.00,0.0093
2720.00,0.0090
2719.00,0.0086
2718.00,0.0082
2717.00,0.0079
2716.00,0.0076
2715.00,0.0073
2714.00,0.0071
2713.00,0.0068
2712.00,0.0066
2711.00,0.0064
2710.00,0.0062
2709.00,0.0060
2708.00,0.0058
2707.00,0.0057
2706.00,0.0056
2705.00,0.0055
2704.00,0.0054
2703.00,0.0052
2702.00,0.0051
2701.00,0.0051
2700.00,0.0050
2699.00,0.0049
2698.00,0.0048
2697.00,0.0048
2696.00,0.0048
2695.00,0.0048
2694.00,0.0048
2693.00,0.0048
2692.00,0.0048
2691.00,0.0048
2690.00,0.0048
2689.00,0.0048
2688.00,0.0048
2687.00,0.0048
2686.00,0.0048
2685.00,0.0048
2684.00,0.0048
2683.00,0.0049
2682.00,0.0049
2681.00,0.0049
2680.00,0.0049
2679.00,0.0049
2678.00,0.0049
2677.00,0.0049
2676.00,0.0049
2675.00,0.0049
2674.00,0.0049
2673.00,0.0048
2672.00,0.0048
2671.00,0.0048
2670.00,0.0048
2669.00,0.0048
2668.00,0.0048
2667.00,0.0048
2666.00,0.0048
2665.00,0.0049
2664.00,0.0050
2663.00,0.0050
2662.00,0.0051
2661.00,0.0052
2660.00,0.0052
2659.00,0.0052
2658.00,0.0052
2657.00,0.0051
2656.00,0.0050
2655.00,0.0049
2654.00,0.0049
2653.00,0.0048
2652.00,0.0048
2651.00,0.0047
2650.00,0.0047
2649.00,0.0046
2648.00,0.0046
2647.00,0.0045
2646.00,0.0045
2645.00,0.0045
2644.00,0.0044
2643.00,0.0043
2642.00,0.0043
2641.00,0.0043
2640.00,0.0042
2639.00,0.0042
2638.00,0.0042
2637.00,0.0041
2636.00,0.0041
2635.00,0.0041
2634.00,0.0041
2633.00,0.0041
2632.00,0.0041
2631.00,0.0042
2630.00,0.0042
2629.00,0.0042
2628.00,0.0043
2627.00,0.0043
2626.00,0.0043
2625.00,0.0043
2624.00,0.0043
2623.00,0.0043
2622.00,0.0043
2621.00,0.0043
2620.00,0.0043
2619.00,0.0043
2618.00,0.0044
2617.00,0.0044
2616.00,0.0044
2615.00,0.0044
2614.00,0.0043
2613.00,0.0043
2612.00,0.0042
2611.00,0.0042
2610.00,0.0041
2609.00,0.0041
2608.00,0.0040
2607.00,0.0040
2606.00,0.0039
2605.00,0.0038
2604.00,0.0037
2603.00,0.0037
2602.00,0.0036
2601.00,0.0036
2600.00,0.0036
2599.00,0.0036
2598.00,0.0036
2597.00,0.0036
2596.00,0.0036
2595.00,0.0036
2594.00,0.0036
2593.00,0.0036
2592.00,0.0037
2591.00,0.0038
2590.00,0.0039
2589.00,0.0040
2588.00,0.0041
2587.00,0.0043
2586.00,0.0044
2585.00,0.0044
2584.00,0.0045
2583.00,0.0045
2582.00,0.0045
2581.00,0.0045
2580.00,0.0044
2579.00,0.0043
2578.00,0.0041
2577.00,0.0040
2576.00,0.0039
2575.00,0.0038
2574.00,0.0037
2573.00,0.0037
2572.00,0.0036
2571.00,0.0035
2570.00,0.0034
2569.00,0.0033
2568.00,0.0032
2567.00,0.0031
2566.00,0.0030
2565.00,0.0029
2564.00,0.0029
2563.00,0.0028
2562.00,0.0027
2561.00,0.0027
2560.00,0.0028
2559.00,0.0028
2558.00,0.0029
2557.00,0.0029
2556.00,0.0029
2555.00,0.0028
2554.00,0.0027
2553.00,0.0027
2552.00,0.0026
2551.00,0.0026
2550.00,0.0025
2549.00,0.0025
2548.00,0.0024
2547.00,0.0024
2546.00,0.0024
2545.00,0.0023
2544.00,0.0022
2543.00,0.0022
2542.00,0.0021
2541.00,0.0021
2540.00,0.0021
2539.00,0.0021
2538.00,0.0020
2537.00,0.0020
2536.00,0.0020
2535.00,0.0020
2534.00,0.0021
2533.00,0.0021
2532.00,0.0021
2531.00,0.0020
2530.00,0.0020
2529.00,0.0019
2528.00,0.0018
2527.00,0.0018
2526.00,0.0018
2525.00,0.0018
2524.00,0.0018
2523.00,0.0018
2522.00,0.0018
2521.00,0.0018
2520.00,0.0018
2519.00,0.0017
2518.00,0.0017
2517.00,0.0016
2516.00,0.0016
2515.00,0.0016
2514.00,0.0016
2513.00,0.0016
2512.00,0.0015
2511.00,0.0015
2510.00,0.0015
2509.00,0.0015
2508.00,0.0015
2507.00,0.0015
2506.00,0.0015
2505.00,0.0015
2504.00,0.0015
2503.00,0.0014
2502.00,0.0014
2501.00,0.0014
2500.00,0.0015
2499.00,0.0015
2498.00,0.0015
2497.00,0.0015
2496.00,0.0015
2495.00,0.0014
2494.00,0.0015
2493.00,0.0015
2492.00,0.0014
2491.00,0.0014
2490.00,0.0014
2489.00,0.0014
2488.00,0.0014
2487.00,0.0015
2486.00,0.0015
2485.00,0.0015
2484.00,0.0014
2483.00,0.0014
2482.00,0.0013
2481.00,0.0014
2480.00,0.0014
2479.00,0.0014
2478.00,0.0014
2477.00,0.0014
2476.00,0.0013
2475.00,0.0013
2474.00,0.0012
2473.00,0.0012
2472.00,0.0013
2471.00,0.0013
2470.00,0.0013
2469.00,0.0013
2468.00,0.0013
2467.00,0.0013
2466.00,0.0013
2465.00,0.0013
2464.00,0.0013
2463.00,0.0013
2462.00,0.0013
2461.00,0.0013
2460.00,0.0013
2459.00,0.0014
2458.00,0.0014
2457.00,0.0014
2456.00,0.0014
2455.00,0.0015
2454.00,0.0016
2453.00,0.0016
2452.00,0.0017
2451.00,0.0016
2450.00,0.0015
2449.00,0.0015
2448.00,0.0015
2447.00,0.0015
2446.00,0.0014
2445.00,0.0014
2444.00,0.0015
2443.00,0.0015
2442.00,0.0015
2441.00,0.0015
2440.00,0.0015
2439.00,0.0015
2438.00,0.0015
2437.00,0.0014
2436.00,0.0014
2435.00,0.0014
2434.00,0.0014
2433.00,0.0015
2432.00,0.0015
2431.00,0.0015
2430.00,0.0016
2429.00,0.0016
2428.00,0.0016
2427.00,0.0015
2426.00,0.0015
2425.00,0.0015
2424.00,0.0015
2423.00,0.0015
2422.00,0.0014
2421.00,0.0014
2420.00,0.0014
2419.00,0.0014
2418.00,0.0014
2417.00,0.0015
2416.00,0.0015
2415.00,0.0015
2414.00,0.0014
2413.00,0.0014
2412.00,0.0013
2411.00,0.0013
2410.00,0.0014
2409.00,0.0014
2408.00,0.0014
2407.00,0.0013
2406.00,0.0013
2405.00,0.0012
2404.00,0.0012
2403.00,0.0012
2402.00,0.0012
2401.00,0.0013
2400.00,0.0012
2399.00,0.0012
2398.00,0.0011
2397.00,0.0011
2396.00,0.0011
2395.00,0.0011
2394.00,0.0011
2393.00,0.0011
2392.00,0.0012
2391.00,0.0012
2390.00,0.0011
2389.00,0.0011
2388.00,0.0010
2387.00,0.0010
2386.00,0.0010
2385.00,0.0009
2384.00,0.0008
2383.00,0.0007
2382.00,0.0006
2381.00,0.0005
2380.00,0.0004
2379.00,0.0004
2378.00,0.0004
2377.00,0.0004
2376.00,0.0005
2375.00,0.0005
2374.00,0.0005
2373.00,0.0005
2372.00,0.0005
2371.00,0.0005
2370.00,0.0005
2369.00,0.0005
2368.00,0.0005
2367.00,0.0004
2366.00,0.0004
2365.00,0.0004
2364.00,0.0004
2363.00,0.0004
2362.00,0.0004
2361.00,0.0005
2360.00,0.0005
2359.00,0.0006
2358.00,0.0006
2357.00,0.0005
2356.00,0.0005
2355.00,0.0005
2354.00,0.0005
2353.00,0.0004
2352.00,0.0004
2351.00,0.0004
2350.00,0.0004
2349.00,0.0006
2348.00,0.0007
2347.00,0.0007
2346.00,0.0007
2345.00,0.0006
2344.00,0.0007
2343.00,0.0007
2342.00,0.0008
2341.00,0.0008
2340.00,0.0007
2339.00,0.0007
2338.00,0.0008
2337.00,0.0009
2336.00,0.0010
2335.00,0.0010
2334.00,0.0009
2333.00,0.0008
2332.00,0.0007
2331.00,0.0007
2330.00,0.0008
2329.00,0.0009
2328.00,0.0011
2327.00,0.0014
2326.00,0.0018
2325.00,0.0021
2324.00,0.0022
2323.00,0.0021
2322.00,0.0019
2321.00,0.0017
2320.00,0.0017
2319.00,0.0016
2318.00,0.0016
2317.00,0.0016
2316.00,0.0015
2315.00,0.0014
2314.00,0.0013
2313.00,0.0013
2312.00,0.0012
2311.00,0.0011
2310.00,0.0011
2309.00,0.0011
2308.00,0.0011
2307.00,0.0012
2306.00,0.0012
2305.00,0.0013
2304.00,0.0014
2303.00,0.0014
2302.00,0.0014
2301.00,0.0014
2300.00,0.0014
2299.00,0.0014
2298.00,0.0014
2297.00,0.0015
2296.00,0.0016
2295.00,0.0017
2294.00,0.0018
2293.00,0.0019
2292.00,0.0020
2291.00,0.0021
2290.00,0.0021
2289.00,0.0022
2288.00,0.0023
2287.00,0.0023
2286.00,0.0024
2285.00,0.0024
2284.00,0.0023
2283.00,0.0021
2282.00,0.0019
2281.00,0.0017
2280.00,0.0016
2279.00,0.0016
2278.00,0.0017
2277.00,0.0018
2276.00,0.0019
2275.00,0.0019
2274.00,0.0019
2273.00,0.0019
2272.00,0.0018
2271.00,0.0017
2270.00,0.0016
2269.00,0.0015
2268.00,0.0014
2267.00,0.0014
2266.00,0.0014
2265.00,0.0014
2264.00,0.0015
2263.00,0.0014
2262.00,0.0014
2261.00,0.0014
2260.00,0.0015
2259.00,0.0016
2258.00,0.0017
2257.00,0.0016
2256.00,0.0015
2255.00,0.0013
2254.00,0.0012
2253.00,0.0012
2252.00,0.0012
2251.00,0.0012
2250.00,0.0012
2249.00,0.0012
2248.00,0.0011
2247.00,0.0011
2246.00,0.0011
2245.00,0.0012
2244.00,0.0014
2243.00,0.0015
2242.00,0.0015
2241.00,0.0015
2240.00,0.0013
2239.00,0.0011
2238.00,0.0010
2237.00,0.0010
2236.00,0.0011
2235.00,0.0011
2234.00,0.0011
2233.00,0.0012
2232.00,0.0012
2231.00,0.0011
2230.00,0.0010
2229.00,0.0010
2228.00,0.0009
2227.00,0.0010
2226.00,0.0011
2225.00,0.0012
2224.00,0.0012
2223.00,0.0011
2222.00,0.0009
2221.00,0.0008
2220.00,0.0009
2219.00,0.0011
2218.00,0.0011
2217.00,0.0010
2216.00,0.0008
2215.00,0.0007
2214.00,0.0007
2213.00,0.0009
2212.00,0.0010
2211.00,0.0011
2210.00,0.0011
2209.00,0.0012
2208.00,0.0012
2207.00,0.0012
2206.00,0.0010
2205.00,0.0009
2204.00,0.0007
2203.00,0.0006
2202.00,0.0006
2201.00,0.0006
2200.00,0.0007
2199.00,0.0008
2198.00,0.0009
2197.00,0.0009
2196.00,0.0009
2195.00,0.0009
2194.00,0.0010
2193.00,0.0012
2192.00,0.0012
2191.00,0.0013
2190.00,0.0013
2189.00,0.0013
2188.00,0.0013
2187.00,0.0013
2186.00,0.0012
2185.00,0.0012
2184.00,0.0010
2183.00,0.0009
2182.00,0.0007
2181.00,0.0008
2180.00,0.0009
2179.00,0.0010
2178.00,0.0010
2177.00,0.0009
2176.00,0.0007
2175.00,0.0005
2174.00,0.0005
2173.00,0.0007
2172.00,0.0011
2171.00,0.0016
2170.00,0.0020
2169.00,0.0023
2168.00,0.0025
2167.00,0.0026
2166.00,0.0025
2165.00,0.0025
2164.00,0.0023
2163.00,0.0021
2162.00,0.0019
2161.00,0.0015
2160.00,0.0006
2159.00,-0.0009
2158.00,-0.0021
2157.00,-0.0027
2156.00,-0.0025
2155.00,-0.0021
2154.00,-0.0018
2153.00,-0.0016
2152.00,-0.0014
2151.00,-0.0012
2150.00,-0.0011
2149.00,-0.0010
2148.00,-0.0010
2147.00,-0.0011
2146.00,-0.0011
2145.00,-0.0011
2144.00,-0.0009
2143.00,-0.0007
2142.00,-0.0005
2141.00,-0.0004
2140.00,-0.0004
2139.00,-0.0005
2138.00,-0.0005
2137.00,-0.0005
2136.00,-0.0006
2135.00,-0.0009
2134.00,-0.0011
2133.00,-0.0012
2132.00,-0.0011
2131.00,-0.0009
2130.00,-0.0007
2129.00,-0.0005
2128.00,-0.0004
2127.00,-0.0003
2126.00,-0.0002
2125.00,-0.0000
2124.00,0.0001
2123.00,0.0001
2122.00,0.0000
2121.00,-0.0000
2120.00,-0.0000
2119.00,0.0000
2118.00,0.0001
2117.00,0.0002
2116.00,0.0003
2115.00,0.0003
2114.00,0.0004
2113.00,0.0004
2112.00,0.0005
2111.00,0.0005
2110.00,0.0006
2109.00,0.0006
2108.00,0.0005
2107.00,0.0004
2106.00,0.0004
2105.00,0.0004
2104.00,0.0004
2103.00,0.0005
2102.00,0.0004
2101.00,0.0004
2100.00,0.0003
2099.00,0.0003
2098.00,0.0003
2097.00,0.0002
2096.00,0.0000
2095.00,-0.0001
2094.00,-0.0002
2093.00,-0.0001
2092.00,0.0001
2091.00,0.0003
2090.00,0.0005
2089.00,0.0007
2088.00,0.0008
2087.00,0.0009
2086.00,0.0009
2085.00,0.0008
2084.00,0.0008
2083.00,0.0007
2082.00,0.0007
2081.00,0.0007
2080.00,0.0008
2079.00,0.0008
2078.00,0.0008
2077.00,0.0009
2076.00,0.0010
2075.00,0.0011
2074.00,0.0010
2073.00,0.0008
2072.00,0.0007
2071.00,0.0006
2070.00,0.0004
2069.00,0.0003
2068.00,0.0001
2067.00,0.0000
2066.00,-0.0001
2065.00,-0.0001
2064.00,-0.0000
2063.00,0.0002
2062.00,0.0003
2061.00,0.0004
2060.00,0.0003
2059.00,0.0002
2058.00,0.0002
2057.00,0.0003
2056.00,0.0004
2055.00,0.0004
2054.00,0.0005
2053.00,0.0008
2052.00,0.0012
2051.00,0.0015
2050.00,0.0013
2049.00,0.0008
2048.00,0.0003
2047.00,0.0000
2046.00,0.0000
2045.00,0.0001
2044.00,0.0000
2043.00,0.0000
2042.00,0.0001
2041.00,0.0002
2040.00,0.0003
2039.00,0.0004
2038.00,0.0004
2037.00,0.0004
2036.00,0.0004
2035.00,0.0003
2034.00,0.0002
2033.00,-0.0000
2032.00,-0.0003
2031.00,-0.0007
2030.00,-0.0010
2029.00,-0.0009
2028.00,-0.0007
2027.00,-0.0003
2026.00,0.0000
2025.00,0.0003
2024.00,0.0004
2023.00,0.0002
2022.00,-0.0000
2021.00,-0.0001
2020.00,-0.0001
2019.00,-0.0002
2018.00,-0.0003
2017.00,-0.0004
2016.00,-0.0005
2015.00,-0.0005
2014.00,-0.0006
2013.00,-0.0007
2012.00,-0.0008
2011.00,-0.0008
2010.00,-0.0008
2009.00,-0.0007
2008.00,-0.0007
2007.00,-0.0009
2006.00,-0.0010
2005.00,-0.0010
2004.00,-0.0009
2003.00,-0.0009
2002.00,-0.0010
2001.00,-0.0011
2000.00,-0.0011
1999.00,-0.0009
1998.00,-0.0006
1997.00,-0.0003
1996.00,-0.0001
1995.00,-0.0001
1994.00,-0.0002
1993.00,-0.0001
1992.00,-0.0000
1991.00,0.0001
1990.00,0.0001
1989.00,0.0002
1988.00,0.0004
1987.00,0.0005
1986.00,0.0006
1985.00,0.0008
1984.00,0.0008
1983.00,0.0008
1982.00,0.0007
1981.00,0.0008
1980.00,0.0009
1979.00,0.0007
1978.00,0.0004
1977.00,0.0001
1976.00,-0.0001
1975.00,-0.0004
1974.00,-0.0007
1973.00,-0.0009
1972.00,-0.0011
1971.00,-0.0012
1970.00,-0.0011
1969.00,-0.0010
1968.00,-0.0009
1967.00,-0.0008
1966.00,-0.0007
1965.00,-0.0006
1964.00,-0.0004
1963.00,-0.0003
1962.00,-0.0004
1961.00,-0.0004
1960.00,-0.0005
1959.00,-0.0006
1958.00,-0.0008
1957.00,-0.0010
1956.00,-0.0012
1955.00,-0.0014
1954.00,-0.0014
1953.00,-0.0013
1952.00,-0.0012
1951.00,-0.0010
1950.00,-0.0009
1949.00,-0.0009
1948.00,-0.0008
1947.00,-0.0008
1946.00,-0.0008
1945.00,-0.0009
1944.00,-0.0009
1943.00,-0.0009
1942.00,-0.0010
1941.00,-0.0011
1940.00,-0.0010
1939.00,-0.0008
1938.00,-0.0006
1937.00,-0.0004
1936.00,-0.0003
1935.00,-0.0005
1934.00,-0.0006
1933.00,-0.0006
1932.00,-0.0006
1931.00,-0.0006
1930.00,-0.0007
1929.00,-0.0008
1928.00,-0.0008
1927.00,-0.0007
1926.00,-0.0005
1925.00,-0.0004
1924.00,-0.0003
1923.00,-0.0002
1922.00,-0.0001
1921.00,0.0001
1920.00,0.0001
1919.00,0.0000
1918.00,-0.0001
1917.00,-0.0001
1916.00,-0.0001
1915.00,-0.0001
1914.00,-0.0001
1913.00,-0.0000
1912.00,0.0000
1911.00,0.0000
1910.00,0.0000
1909.00,-0.0000
1908.00,0.0000
1907.00,0.0001
1906.00,0.0001
1905.00,0.0001
1904.00,0.0001
1903.00,0.0000
1902.00,-0.0001
1901.00,-0.0001
1900.00,-0.0001
1899.00,-0.0000
1898.00,0.0000
1897.00,0.0001
1896.00,0.0001
1895.00,0.0000
1894.00,0.0000
1893.00,0.0001
1892.00,0.0002
1891.00,0.0004
1890.00,0.0004
1889.00,0.0004
1888.00,0.0003
1887.00,0.0003
1886.00,0.0003
1885.00,0.0003
1884.00,0.0002
1883.00,0.0002
1882.00,0.0003
1881.00,0.0004
1880.00,0.0005
1879.00,0.0005
1878.00,0.0005
1877.00,0.0005
1876.00,0.0005
1875.00,0.0004
1874.00,0.0003
1873.00,0.0003
1872.00,0.0003
1871.00,0.0003
1870.00,0.0003
1869.00,0.0003
1868.00,0.0003
1867.00,0.0003
1866.00,0.0003
1865.00,0.0003
1864.00,0.0004
1863.00,0.0004
1862.00,0.0004
1861.00,0.0004
1860.00,0.0004
1859.00,0.0005
1858.00,0.0005
1857.00,0.0005
1856.00,0.0005
1855.00,0.0004
1854.00,0.0004
1853.00,0.0005
1852.00,0.0005
1851.00,0.0006
1850.00,0.0005
1849.00,0.0005
1848.00,0.0005
1847.00,0.0005
1846.00,0.0005
1845.00,0.0005
1844.00,0.0006
1843.00,0.0006
1842.00,0.0006
1841.00,0.0006
1840.00,0.0006
1839.00,0.0005
1838.00,0.0005
1837.00,0.0005
1836.00,0.0005
1835.00,0.0006
1834.00,0.0006
1833.00,0.0007
1832.00,0.0007
1831.00,0.0007
1830.00,0.0007
1829.00,0.0008
1828.00,0.0009
1827.00,0.0009
1826.00,0.0008
1825.00,0.0008
1824.00,0.0008
1823.00,0.0007
1822.00,0.0007
1821.00,0.0007
1820.00,0.0007
1819.00,0.0005
1818.00,0.0004
1817.00,0.0003
1816.00,0.0002
1815.00,0.0003
1814.00,0.0004
1813.00,0.0005
1812.00,0.0006
1811.00,0.0007
1810.00,0.0007
1809.00,0.0007
1808.00,0.0008
1807.00,0.0008
1806.00,0.0008
1805.00,0.0008
1804.00,0.0008
1803.00,0.0008
1802.00,0.0008
1801.00,0.0009
1800.00,0.0011
1799.00,0.0011
1798.00,0.0011
1797.00,0.0011
1796.00,0.0011
1795.00,0.0011
1794.00,0.0011
1793.00,0.0011
1792.00,0.0012
1791.00,0.0013
1790.00,0.0013
1789.00,0.0013
1788.00,0.0013
1787.00,0.0012
1786.00,0.0012
1785.00,0.0012
1784.00,0.0012
1783.00,0.0012
1782.00,0.0012
1781.00,0.0012
1780.00,0.0012
1779.00,0.0013
1778.00,0.0013
1777.00,0.0014
1776.00,0.0014
1775.00,0.0013
1774.00,0.0013
1773.00,0.0013
1772.00,0.0014
1771.00,0.0015
1770.00,0.0016
1769.00,0.0016
1768.00,0.0016
1767.00,0.0016
1766.00,0.0016
1765.00,0.0017
1764.00,0.0017
1763.00,0.0018
1762.00,0.0018
1761.00,0.0018
1760.00,0.0019
1759.00,0.0020
1758.00,0.0021
1757.00,0.0022
1756.00,0.0024
1755.00,0.0025
1754.00,0.0026
1753.00,0.0027
1752.00,0.0027
1751.00,0.0028
1750.00,0.0029
1749.00,0.0031
1748.00,0.0033
1747.00,0.0035
1746.00,0.0037
1745.00,0.0038
1744.00,0.0039
1743.00,0.0040
1742.00,0.0041
1741.00,0.0042
1740.00,0.0043
1739.00,0.0044
1738.00,0.0045
1737.00,0.0045
1736.00,0.0046
1735.00,0.0045
1734.00,0.0044
1733.00,0.0043
1732.00,0.0042
1731.00,0.0042
1730.00,0.0042
1729.00,0.0043
1728.00,0.0043
1727.00,0.0043
1726.00,0.0042
1725.00,0.0042
1724.00,0.0042
1723.00,0.0042
1722.00,0.0042
1721.00,0.0042
1720.00,0.0042
1719.00,0.0041
1718.00,0.0040
1717.00,0.0040
1716.00,0.0041
1715.00,0.0042
1714.00,0.0042
1713.00,0.0042
1712.00,0.0043
1711.00,0.0044
1710.00,0.0044
1709.00,0.0045
1708.00,0.0046
1707.00,0.0046
1706.00,0.0047
1705.00,0.0048
1704.00,0.0050
1703.00,0.0052
1702.00,0.0054
1701.00,0.0056
1700.00,0.0057
1699.00,0.0058
1698.00,0.0058
1697.00,0.0060
1696.00,0.0065
1695.00,0.0070
1694.00,0.0074
1693.00,0.0078
1692.00,0.0081
1691.00,0.0085
1690.00,0.0089
1689.00,0.0094
1688.00,0.0098
1687.00,0.0101
1686.00,0.0105
1685.00,0.0110
1684.00,0.0119
1683.00,0.0126
1682.00,0.0132
1681.00,0.0136
1680.00,0.0140
1679.00,0.0144
1678.00,0.0148
1677.00,0.0152
1676.00,0.0156
1675.00,0.0159
1674.00,0.0161
1673.00,0.0163
1672.00,0.0165
1671.00,0.0167
1670.00,0.0169
1669.00,0.0171
1668.00,0.0173
1667.00,0.0173
1666.00,0.0174
1665.00,0.0174
1664.00,0.0175
1663.00,0.0175
1662.00,0.0174
1661.00,0.0174
1660.00,0.0174
1659.00,0.0173
1658.00,0.0172
1657.00,0.0170
1656.00,0.0169
1655.00,0.0166
1654.00,0.0160
1653.00,0.0155
1652.00,0.0153
1651.00,0.0152
1650.00,0.0153
1649.00,0.0152
1648.00,0.0150
1647.00,0.0146
1646.00,0.0143
1645.00,0.0140
1644.00,0.0138
1643.00,0.0136
1642.00,0.0134
1641.00,0.0131
1640.00,0.0129
1639.00,0.0127
1638.00,0.0125
1637.00,0.0123
1636.00,0.0120
1635.00,0.0117
1634.00,0.0116
1633.00,0.0114
1632.00,0.0113
1631.00,0.0112
1630.00,0.0111
1629.00,0.0110
1628.00,0.0108
1627.00,0.0107
1626.00,0.0106
1625.00,0.0104
1624.00,0.0103
1623.00,0.0101
1622.00,0.0100
1621.00,0.0100
1620.00,0.0100
1619.00,0.0099
1618.00,0.0098
1617.00,0.0097
1616.00,0.0096
1615.00,0.0095
1614.00,0.0095
1613.00,0.0095
1612.00,0.0095
1611.00,0.0095
1610.00,0.0094
1609.00,0.0094
1608.00,0.0094
1607.00,0.0094
1606.00,0.0094
1605.00,0.0094
1604.00,0.0094
1603.00,0.0094
1602.00,0.0093
1601.00,0.0093
1600.00,0.0093
1599.00,0.0093
1598.00,0.0092
1597.00,0.0092
1596.00,0.0092
1595.00,0.0092
1594.00,0.0092
1593.00,0.0092
1592.00,0.0093
1591.00,0.0094
1590.00,0.0094
1589.00,0.0096
1588.00,0.0097
1587.00,0.0099
1586.00,0.0101
1585.00,0.0104
1584.00,0.0107
1583.00,0.0110
1582.00,0.0114
1581.00,0.0117
1580.00,0.0120
1579.00,0.0121
1578.00,0.0121
1577.00,0.0120
1576.00,0.0118
1575.00,0.0116
1574.00,0.0114
1573.00,0.0113
1572.00,0.0112
1571.00,0.0110
1570.00,0.0107
1569.00,0.0104
1568.00,0.0101
1567.00,0.0100
1566.00,0.0099
1565.00,0.0098
1564.00,0.0098
1563.00,0.0098
1562.00,0.0098
1561.00,0.0098
1560.00,0.0099
1559.00,0.0100
1558.00,0.0101
1557.00,0.0101
1556.00,0.0102
1555.00,0.0104
1554.00,0.0106
1553.00,0.0108
1552.00,0.0111
1551.00,0.0113
1550.00,0.0116
1549.00,0.0119
1548.00,0.0122
1547.00,0.0126
1546.00,0.0130
1545.00,0.0134
1544.00,0.0138
1543.00,0.0141
1542.00,0.0142
1541.00,0.0140
1540.00,0.0136
1539.00,0.0130
1538.00,0.0126
1537.00,0.0124
1536.00,0.0121
1535.00,0.0117
1534.00,0.0111
1533.00,0.0106
1532.00,0.0103
1531.00,0.0100
1530.00,0.0098
1529.00,0.0096
1528.00,0.0095
1527.00,0.0093
1526.00,0.0091
1525.00,0.0090
1524.00,0.0090
1523.00,0.0088
1522.00,0.0086
1521.00,0.0085
1520.00,0.0085
1519.00,0.0085
1518.00,0.0085
1517.00,0.0086
1516.00,0.0087
1515.00,0.0087
1514.00,0.0087
1513.00,0.0087
1512.00,0.0088
1511.00,0.0089
1510.00,0.0090
1509.00,0.0090
1508.00,0.0091
1507.00,0.0091
1506.00,0.0091
1505.00,0.0093
1504.00,0.0095
1503.00,0.0097
1502.00,0.0100
1501.00,0.0103
1500.00,0.0106
1499.00,0.0108
1498.00,0.0111
1497.00,0.0114
1496.00,0.0118
1495.00,0.0121
1494.00,0.0123
1493.00,0.0127
1492.00,0.0131
1491.00,0.0134
1490.00,0.0137
1489.00,0.0143
1488.00,0.0149
1487.00,0.0154
1486.00,0.0160
1485.00,0.0167
1484.00,0.0175
1483.00,0.0183
1482.00,0.0194
1481.00,0.0208
1480.00,0.0222
1479.00,0.0236
1478.00,0.0252
1477.00,0.0273
1476.00,0.0296
1475.00,0.0323
1474.00,0.0360
1473.00,0.0414
1472.00,0.0480
1471.00,0.0546
1470.00,0.0609
1469.00,0.0677
1468.00,0.0751
1467.00,0.0833
1466.00,0.0927
1465.00,0.1030
1464.00,0.1121
1463.00,0.1185
1462.00,0.1227
1461.00,0.1257
1460.00,0.1277
1459.00,0.1288
1458.00,0.1295
1457.00,0.1300
1456.00,0.1297
1455.00,0.1288
1454.00,0.1275
1453.00,0.1257
1452.00,0.1229
1451.00,0.1188
1450.00,0.1132
1449.00,0.1056
1448.00,0.0961
1447.00,0.0863
1446.00,0.0776
1445.00,0.0703
1444.00,0.0642
1443.00,0.0593
1442.00,0.0559
1441.00,0.0537
1440.00,0.0526
1439.00,0.0524
1438.00,0.0530
1437.00,0.0536
1436.00,0.0528
1435.00,0.0501
1434.00,0.0460
1433.00,0.0411
1432.00,0.0360
1431.00,0.0316
1430.00,0.0283
1429.00,0.0259
1428.00,0.0243
1427.00,0.0234
1426.00,0.0229
1425.00,0.0223
1424.00,0.0218
1423.00,0.0214
1422.00,0.0212
1421.00,0.0208
1420.00,0.0201
1419.00,0.0195
1418.00,0.0190
1417.00,0.0185
1416.00,0.0181
1415.00,0.0178
1414.00,0.0175
1413.00,0.0171
1412.00,0.0167
1411.00,0.0164
1410.00,0.0162
1409.00,0.0159
1408.00,0.0156
1407.00,0.0154
1406.00,0.0152
1405.00,0.0150
1404.00,0.0149
1403.00,0.0148
1402.00,0.0148
1401.00,0.0148
1400.00,0.0148
1399.00,0.0148
1398.00,0.0150
1397.00,0.0151
1396.00,0.0152
1395.00,0.0155
1394.00,0.0159
1393.00,0.0163
1392.00,0.0169
1391.00,0.0177
1390.00,0.0189
1389.00,0.0206
1388.00,0.0232
1387.00,0.0271
1386.00,0.0322
1385.00,0.0387
1384.00,0.0472
1383.00,0.0588
1382.00,0.0743
1381.00,0.0946
1380.00,0.1204
1379.00,0.1507
1378.00,0.1813
1377.00,0.2054
1376.00,0.2160
1375.00,0.2083
1374.00,0.1842
1373.00,0.1531
1372.00,0.1236
1371.00,0.0989
1370.00,0.0790
1369.00,0.0639
1368.00,0.0535
1367.00,0.0471
1366.00,0.0436
1365.00,0.0422
1364.00,0.0425
1363.00,0.0441
1362.00,0.0467
1361.00,0.0494
1360.00,0.0514
1359.00,0.0521
1358.00,0.0509
1357.00,0.0478
1356.00,0.0435
1355.00,0.0386
1354.00,0.0339
1353.00,0.0299
1352.00,0.0267
1351.00,0.0241
1350.00,0.0221
1349.00,0.0204
1348.00,0.0191
1347.00,0.0181
1346.00,0.0172
1345.00,0.0166
1344.00,0.0161
1343.00,0.0156
1342.00,0.0152
1341.00,0.0149
1340.00,0.0146
1339.00,0.0144
1338.00,0.0143
1337.00,0.0143
1336.00,0.0144
1335.00,0.0147
1334.00,0.0151
1333.00,0.0156
1332.00,0.0161
1331.00,0.0166
1330.00,0.0168
1329.00,0.0167
1328.00,0.0164
1327.00,0.0158
1326.00,0.0152
1325.00,0.0145
1324.00,0.0139
1323.00,0.0134
1322.00,0.0131
1321.00,0.0129
1320.00,0.0127
1319.00,0.0125
1318.00,0.0123
1317.00,0.0120
1316.00,0.0118
1315.00,0.0116
1314.00,0.0115
1313.00,0.0114
1312.00,0.0114
1311.00,0.0115
1310.00,0.0118
1309.00,0.0123
1308.00,0.0130
1307.00,0.0138
1306.00,0.0147
1305.00,0.0154
1304.00,0.0158
1303.00,0.0159
1302.00,0.0159
1301.00,0.0161
1300.00,0.0163
1299.00,0.0168
1298.00,0.0173
1297.00,0.0178
1296.00,0.0182
1295.00,0.0183
1294.00,0.0181
1293.00,0.0178
1292.00,0.0172
1291.00,0.0167
1290.00,0.0161
1289.00,0.0155
1288.00,0.0149
1287.00,0.0145
1286.00,0.0141
1285.00,0.0137
1284.00,0.0134
1283.00,0.0131
1282.00,0.0128
1281.00,0.0125
1280.00,0.0123
1279.00,0.0122
1278.00,0.0120
1277.00,0.0119
1276.00,0.0118
1275.00,0.0117
1274.00,0.0117
1273.00,0.0116
1272.00,0.0115
1271.00,0.0115
1270.00,0.0114
1269.00,0.0113
1268.00,0.0113
1267.00,0.0113
1266.00,0.0114
1265.00,0.0116
1264.00,0.0118
1263.00,0.0120
1262.00,0.0122
1261.00,0.0125
1260.00,0.0128
1259.00,0.0133
1258.00,0.0138
1257.00,0.0141
1256.00,0.0142
1255.00,0.0140
1254.00,0.0135
1253.00,0.0129
1252.00,0.0122
1251.00,0.0117
1250.00,0.0114
1249.00,0.0111
1248.00,0.0109
1247.00,0.0108
1246.00,0.0106
1245.00,0.0106
1244.00,0.0105
1243.00,0.0106
1242.00,0.0106
1241.00,0.0106
1240.00,0.0106
1239.00,0.0106
1238.00,0.0106
1237.00,0.0106
1236.00,0.0106
1235.00,0.0106
1234.00,0.0106
1233.00,0.0106
1232.00,0.0107
1231.00,0.0108
1230.00,0.0109
1229.00,0.0110
1228.00,0.0112
1227.00,0.0114
1226.00,0.0116
1225.00,0.0119
1224.00,0.0122
1223.00,0.0126
1222.00,0.0130
1221.00,0.0134
1220.00,0.0136
1219.00,0.0137
1218.00,0.0136
1217.00,0.0134
1216.00,0.0131
1215.00,0.0127
1214.00,0.0123
1213.00,0.0119
1212.00,0.0116
1211.00,0.0112
1210.00,0.0109
1209.00,0.0106
1208.00,0.0104
1207.00,0.0102
1206.00,0.0102
1205.00,0.0101
1204.00,0.0101
1203.00,0.0100
1202.00,0.0100
1201.00,0.0099
1200.00,0.0098
1199.00,0.0098
1198.00,0.0098
1197.00,0.0098
1196.00,0.0098
1195.00,0.0098
1194.00,0.0097
1193.00,0.0097
1192.00,0.0097
1191.00,0.0097
1190.00,0.0097
1189.00,0.0097
1188.00,0.0097
1187.00,0.0097
1186.00,0.0097
1185.00,0.0097
1184.00,0.0098
1183.00,0.0099
1182.00,0.0100
1181.00,0.0102
1180.00,0.0104
1179.00,0.0108
1178.00,0.0113
1177.00,0.0119
1176.00,0.0127
1175.00,0.0139
1174.00,0.0154
1173.00,0.0173
1172.00,0.0195
1171.00,0.0220
1170.00,0.0243
1169.00,0.0262
1168.00,0.0273
1167.00,0.0277
1166.00,0.0272
1165.00,0.0263
1164.00,0.0252
1163.00,0.0240
1162.00,0.0230
1161.00,0.0222
1160.00,0.0215
1159.00,0.0211
1158.00,0.0207
1157.00,0.0205
1156.00,0.0205
1155.00,0.0204
1154.00,0.0204
1153.00,0.0204
1152.00,0.0201
1151.00,0.0195
1150.00,0.0187
1149.00,0.0178
1148.00,0.0169
1147.00,0.0160
1146.00,0.0153
1145.00,0.0147
1144.00,0.0141
1143.00,0.0135
1142.00,0.0130
1141.00,0.0125
1140.00,0.0120
1139.00,0.0116
1138.00,0.0113
1137.00,0.0111
1136.00,0.0109
1135.00,0.0108
1134.00,0.0107
1133.00,0.0107
1132.00,0.0107
1131.00,0.0108
1130.00,0.0109
1129.00,0.0111
1128.00,0.0112
1127.00,0.0114
1126.00,0.0115
1125.00,0.0117
1124.00,0.0118
1123.00,0.0118
1122.00,0.0118
1121.00,0.0118
1120.00,0.0119
1119.00,0.0120
1118.00,0.0122
1117.00,0.0123
1116.00,0.0124
1115.00,0.0126
1114.00,0.0128
1113.00,0.0130
1112.00,0.0133
1111.00,0.0136
1110.00,0.0140
1109.00,0.0145
1108.00,0.0151
1107.00,0.0158
1106.00,0.0165
1105.00,0.0173
1104.00,0.0179
1103.00,0.0183
1102.00,0.0183
1101.00,0.0179
1100.00,0.0173
1099.00,0.0166
1098.00,0.0158
1097.00,0.0151
1096.00,0.0144
1095.00,0.0139
1094.00,0.0133
1093.00,0.0129
1092.00,0.0126
1091.00,0.0124
1090.00,0.0123
1089.00,0.0121
1088.00,0.0119
1087.00,0.0117
1086.00,0.0115
1085.00,0.0113
1084.00,0.0112
1083.00,0.0112
1082.00,0.0111
1081.00,0.0109
1080.00,0.0108
1079.00,0.0107
1078.00,0.0106
1077.00,0.0105
1076.00,0.0104
1075.00,0.0103
1074.00,0.0103
1073.00,0.0103
1072.00,0.0103
1071.00,0.0104
1070.00,0.0105
1069.00,0.0105
1068.00,0.0104
1067.00,0.0104
1066.00,0.0103
1065.00,0.0103
1064.00,0.0103
1063.00,0.0104
1062.00,0.0104
1061.00,0.0104
1060.00,0.0105
1059.00,0.0106
1058.00,0.0107
1057.00,0.0108
1056.00,0.0108
1055.00,0.0108
1054.00,0.0109
1053.00,0.0109
1052.00,0.0110
1051.00,0.0111
1050.00,0.0112
1049.00,0.0113
1048.00,0.0115
1047.00,0.0116
1046.00,0.0118
1045.00,0.0120
1044.00,0.0120
1043.00,0.0120
1042.00,0.0120
1041.00,0.0120
1040.00,0.0121
1039.00,0.0121
1038.00,0.0122
1037.00,0.0123
1036.00,0.0123
1035.00,0.0122
1034.00,0.0120
1033.00,0.0118
1032.00,0.0117
1031.00,0.0116
1030.00,0.0115
1029.00,0.0115
1028.00,0.0115
1027.00,0.0115
1026.00,0.0115
1025.00,0.0115
1024.00,0.0115
1023.00,0.0115
1022.00,0.0116
1021.00,0.0117
1020.00,0.0117
1019.00,0.0117
1018.00,0.0117
1017.00,0.0118
1016.00,0.0119
1015.00,0.0121
1014.00,0.0124
1013.00,0.0127
1012.00,0.0130
1011.00,0.0133
1010.00,0.0134
1009.00,0.0136
1008.00,0.0138
1007.00,0.0141
1006.00,0.0147
1005.00,0.0155
1004.00,0.0166
1003.00,0.0182
1002.00,0.0202
1001.00,0.0225
1000.00,0.0250
999.00,0.0269
998.00,0.0277
997.00,0.0270
996.00,0.0250
995.00,0.0223
994.00,0.0195
993.00,0.0171
992.00,0.0152
991.00,0.0137
990.00,0.0126
989.00,0.0118
988.00,0.0113
987.00,0.0111
986.00,0.0111
985.00,0.0113
984.00,0.0117
983.00,0.0123
982.00,0.0132
981.00,0.0145
980.00,0.0163
979.00,0.0187
978.00,0.0216
977.00,0.0249
976.00,0.0283
975.00,0.0313
974.00,0.0333
973.00,0.0338
972.00,0.0324
971.00,0.0295
970.00,0.0258
969.00,0.0221
968.00,0.0188
967.00,0.0163
966.00,0.0145
965.00,0.0132
964.00,0.0122
963.00,0.0115
962.00,0.0108
961.00,0.0103
960.00,0.0099
959.00,0.0095
958.00,0.0091
957.00,0.0088
956.00,0.0086
955.00,0.0085
954.00,0.0084
953.00,0.0083
952.00,0.0082
951.00,0.0081
950.00,0.0081
949.00,0.0082
948.00,0.0083
947.00,0.0085
946.00,0.0087
945.00,0.0090
944.00,0.0094
943.00,0.0097
942.00,0.0101
941.00,0.0102
940.00,0.0102
939.00,0.0101
938.00,0.0097
937.00,0.0092
936.00,0.0088
935.00,0.0083
934.00,0.0079
933.00,0.0076
932.00,0.0074
931.00,0.0073
930.00,0.0073
929.00,0.0073
928.00,0.0074
927.00,0.0074
926.00,0.0075
925.00,0.0075
924.00,0.0074
923.00,0.0073
922.00,0.0073
921.00,0.0074
920.00,0.0076
919.00,0.0078
918.00,0.0080
917.00,0.0081
916.00,0.0082
915.00,0.0082
914.00,0.0083
913.00,0.0083
912.00,0.0084
911.00,0.0085
910.00,0.0087
909.00,0.0089
908.00,0.0092
907.00,0.0096
906.00,0.0104
905.00,0.0116
904.00,0.0134
903.00,0.0156
902.00,0.0180
901.00,0.0201
900.00,0.0214
899.00,0.0218
898.00,0.0209
897.00,0.0192
896.00,0.0170
895.00,0.0149
894.00,0.0131
893.00,0.0118
892.00,0.0108
891.00,0.0100
890.00,0.0094
889.00,0.0090
888.00,0.0087
887.00,0.0085
886.00,0.0084
885.00,0.0084
884.00,0.0084
883.00,0.0084
882.00,0.0085
881.00,0.0086
880.00,0.0087
879.00,0.0088
878.00,0.0090
877.00,0.0091
876.00,0.0091
875.00,0.0091
874.00,0.0091
873.00,0.0091
872.00,0.0091
871.00,0.0089
870.00,0.0087
869.00,0.0085
868.00,0.0084
867.00,0.0083
866.00,0.0083
865.00,0.0084
864.00,0.0085
863.00,0.0088
862.00,0.0089
861.00,0.0091
860.00,0.0091
859.00,0.0092
858.00,0.0094
857.00,0.0095
856.00,0.0096
855.00,0.0098
854.00,0.0101
853.00,0.0103
852.00,0.0106
851.00,0.0108
850.00,0.0111
849.00,0.0115
848.00,0.0122
847.00,0.0134
846.00,0.0150
845.00,0.0174
844.00,0.0203
843.00,0.0234
842.00,0.0255
841.00,0.0258
840.00,0.0241
839.00,0.0213
838.00,0.0183
837.00,0.0160
836.00,0.0145
835.00,0.0136
834.00,0.0131
833.00,0.0127
832.00,0.0124
831.00,0.0120
830.00,0.0117
829.00,0.0116
828.00,0.0115
827.00,0.0116
826.00,0.0117
825.00,0.0117
824.00,0.0117
823.00,0.0117
822.00,0.0116
821.00,0.0117
820.00,0.0119
819.00,0.0123
818.00,0.0128
817.00,0.0134
816.00,0.0143
815.00,0.0154
814.00,0.0170
813.00,0.0190
812.00,0.0213
811.00,0.0234
810.00,0.0250
809.00,0.0258
808.00,0.0255
807.00,0.0243
806.00,0.0224
805.00,0.0203
804.00,0.0183
803.00,0.0165
802.00,0.0152
801.00,0.0142
800.00,0.0135
799.00,0.0130
798.00,0.0124
797.00,0.0119
796.00,0.0114
795.00,0.0110
794.00,0.0107
793.00,0.0105
792.00,0.0103
791.00,0.0101
790.00,0.0099
789.00,0.0096
788.00,0.0094
787.00,0.0092
786.00,0.0090
785.00,0.0088
784.00,0.0087
783.00,0.0087
782.00,0.0086
781.00,0.0085
780.00,0.0084
779.00,0.0082
778.00,0.0080
777.00,0.0078
776.00,0.0078
775.00,0.0079
774.00,0.0081
773.00,0.0084
772.00,0.0087
771.00,0.0091
770.00,0.0094
769.00,0.0095
768.00,0.0095
767.00,0.0094
766.00,0.0092
765.00,0.0090
764.00,0.0088
763.00,0.0087
762.00,0.0086
761.00,0.0085
760.00,0.0083
759.00,0.0080
758.00,0.0078
757.00,0.0076
756.00,0.0074
755.00,0.0073
754.00,0.0072
753.00,0.0073
752.00,0.0073
751.00,0.0075
750.00,0.0076
749.00,0.0076
748.00,0.0076
747.00,0.0076
746.00,0.0076
745.00,0.0076
744.00,0.0077
743.00,0.0078
742.00,0.0079
741.00,0.0081
740.00,0.0082
739.00,0.0084
738.00,0.0086
737.00,0.0088
736.00,0.0090
735.00,0.0093
734.00,0.0095
733.00,0.0095
732.00,0.0095
731.00,0.0095
730.00,0.0096
729.00,0.0097
728.00,0.0097
727.00,0.0096
726.00,0.0094
725.00,0.0093
724.00,0.0094
723.00,0.0094
722.00,0.0095
721.00,0.0094
720.00,0.0093
719.00,0.0091
718.00,0.0088
717.00,0.0087
716.00,0.0085
715.00,0.0085
714.00,0.0085
713.00,0.0086
712.00,0.0085
711.00,0.0083
710.00,0.0081
709.00,0.0080
708.00,0.0080
707.00,0.0081
706.00,0.0083
705.00,0.0084
704.00,0.0083
703.00,0.0083
702.00,0.0082
701.00,0.0081
700.00,0.0081
699.00,0.0080
698.00,0.0079
697.00,0.0078
696.00,0.0077
695.00,0.0076
694.00,0.0077
693.00,0.0078
692.00,0.0079
691.00,0.0080
690.00,0.0079
689.00,0.0078
688.00,0.0076
687.00,0.0076
686.00,0.0077
685.00,0.0078
684.00,0.0078
683.00,0.0077
682.00,0.0076
681.00,0.0075
680.00,0.0077
679.00,0.0080
678.00,0.0085
677.00,0.0089
676.00,0.0091
675.00,0.0091
674.00,0.0091
673.00,0.0090
672.00,0.0089
671.00,0.0087
670.00,0.0084
669.00,0.0078
668.00,0.0076
667.00,0.0079
666.00,0.0083
665.00,0.0084
664.00,0.0085
663.00,0.0086
662.00,0.0085
661.00,0.0085
660.00,0.0084
659.00,0.0084
658.00,0.0084
657.00,0.0084
656.00,0.0084
655.00,0.0085
654.00,0.0085
653.00,0.0085
652.00,0.0083
651.00,0.0081
650.00,0.0080
649.00,0.0082
648.00,0.0087
647.00,0.0091
646.00,0.0094
645.00,0.0093
644.00,0.0092
643.00,0.0090
642.00,0.0088
641.00,0.0085
640.00,0.0083
639.00,0.0082
638.00,0.0083
637.00,0.0085
636.00,0.0087
635.00,0.0088
634.00,0.0088
633.00,0.0087
632.00,0.0086
631.00,0.0085
630.00,0.0085
629.00,0.0085
628.00,0.0086
627.00,0.0086
626.00,0.0085
625.00,0.0084
624.00,0.0084
623.00,0.0085
622.00,0.0086
621.00,0.0087
620.00,0.0087
619.00,0.0088
618.00,0.0090
617.00,0.0091
616.00,0.0090
615.00,0.0090
614.00,0.0090
613.00,0.0089
612.00,0.0088
611.00,0.0087
610.00,0.0086
609.00,0.0086
608.00,0.0084
607.00,0.0083
606.00,0.0081
605.00,0.0081
604.00,0.0080
603.00,0.0080
602.00,0.0080
601.00,0.0082
600.00,0.0084
599.00,0.0086
598.00,0.0088
597.00,0.0089
596.00,0.0089
595.00,0.0089
594.00,0.0088
593.00,0.0087
592.00,0.0087
591.00,0.0089
590.00,0.0091
589.00,0.0091
588.00,0.0090
587.00,0.0091
586.00,0.0095
585.00,0.0100
584.00,0.0102
583.00,0.0102
582.00,0.0101
581.00,0.0097
580.00,0.0093
579.00,0.0090
578.00,0.0089
577.00,0.0090
576.00,0.0092
575.00,0.0094
574.00,0.0096
573.00,0.0097
572.00,0.0097
571.00,0.0094
570.00,0.0092
569.00,0.0091
568.00,0.0092
567.00,0.0093
566.00,0.0093
565.00,0.0094
564.00,0.0094
563.00,0.0093
562.00,0.0090
561.00,0.0088
560.00,0.0086
559.00,0.0085
558.00,0.0086
557.00,0.0088
556.00,0.0092
555.00,0.0096
554.00,0.0098
553.00,0.0097
552.00,0.0092
551.00,0.0087
550.00,0.0086
549.00,0.0089
548.00,0.0092
547.00,0.0095
546.00,0.0095
545.00,0.0093
544.00,0.0090
543.00,0.0088
542.00,0.0088
541.00,0.0091
540.00,0.0095
539.00,0.0098
538.00,0.0100
537.00,0.0100
536.00,0.0100
535.00,0.0102
534.00,0.0105
533.00,0.0109
532.00,0.0113
531.00,0.0116
530.00,0.0119
529.00,0.0119
528.00,0.0116
527.00,0.0111
526.00,0.0105
525.00,0.0100
524.00,0.0097
523.00,0.0097
522.00,0.0097
521.00,0.0099
520.00,0.0101
519.00,0.0103
518.00,0.0104
517.00,0.0103
516.00,0.0099
515.00,0.0094
514.00,0.0090
513.00,0.0088
512.00,0.0083
511.00,0.0076
510.00,0.0069
509.00,0.0067
508.00,0.0071
507.00,0.0078
506.00,0.0084
505.00,0.0087
504.00,0.0088
503.00,0.0091
502.00,0.0095
501.00,0.0101
500.00,0.0105
499.00,0.0106
498.00,0.0104
497.00,0.0100
496.00,0.0096
495.00,0.0092
494.00,0.0087
493.00,0.0082
492.00,0.0080
491.00,0.0081
490.00,0.0081
489.00,0.0079
488.00,0.0077
487.00,0.0078
486.00,0.0082
485.00,0.0083
484.00,0.0083
483.00,0.0087
482.00,0.0095
481.00,0.0104
480.00,0.0105
479.00,0.0098
478.00,0.0090
477.00,0.0085
476.00,0.0085
475.00,0.0087
474.00,0.0092
473.00,0.0097
472.00,0.0100
471.00,0.0099
470.00,0.0094
469.00,0.0087
468.00,0.0082
467.00,0.0085
466.00,0.0100
465.00,0.0123
464.00,0.0150
463.00,0.0172
462.00,0.0187
461.00,0.0196
460.00,0.0200
459.00,0.0199
458.00,0.0191
457.00,0.0179
456.00,0.0167
455.00,0.0159
454.00,0.0153
453.00,0.0145
452.00,0.0132
451.00,0.0119
450.00,0.0109
