Created as New Dataset,Sample 131 By Administrator Date Tuesday, September 09 2025
cm-1,A
4000.00,0.0008
3999.00,0.0008
3998.00,0.0008
3997.00,0.0008
3996.00,0.0009
3995.00,0.0009
3994.00,0.0009
3993.00,0.0009
3992.00,0.0009
3991.00,0.0009
3990.00,0.0009
3989.00,0.0009
3988.00,0.0009
3987.00,0.0008
3986.00,0.0008
3985.00,0.0008
3984.00,0.0007
3983.00,0.0007
3982.00,0.0007
3981.00,0.0007
3980.00,0.0007
3979.00,0.0007
3978.00,0.0007
3977.00,0.0007
3976.00,0.0007
3975.00,0.0007
3974.00,0.0007
3973.00,0.0007
3972.00,0.0007
3971.00,0.0007
3970.00,0.0007
3969.00,0.0007
3968.00,0.0007
3967.00,0.0007
3966.00,0.0007
3965.00,0.0007
3964.00,0.0007
3963.00,0.0007
3962.00,0.0007
3961.00,0.0007
3960.00,0.0006
3959.00,0.0006
3958.00,0.0006
3957.00,0.0007
3956.00,0.0006
3955.00,0.0006
3954.00,0.0006
3953.00,0.0006
3952.00,0.0006
3951.00,0.0006
3950.00,0.0006
3949.00,0.0007
3948.00,0.0007
3947.00,0.0007
3946.00,0.0006
3945.00,0.0006
3944.00,0.0006
3943.00,0.0006
3942.00,0.0006
3941.00,0.0006
3940.00,0.0006
3939.00,0.0006
3938.00,0.0006
3937.00,0.0006
3936.00,0.0006
3935.00,0.0006
3934.00,0.0006
3933.00,0.0007
3932.00,0.0007
3931.00,0.0007
3930.00,0.0007
3929.00,0.0007
3928.00,0.0007
3927.00,0.0006
3926.00,0.0006
3925.00,0.0006
3924.00,0.0006
3923.00,0.0006
3922.00,0.0006
3921.00,0.0007
3920.00,0.0007
3919.00,0.0007
3918.00,0.0007
3917.00,0.0007
3916.00,0.0007
3915.00,0.0007
3914.00,0.0007
3913.00,0.0007
3912.00,0.0007
3911.00,0.0006
3910.00,0.0006
3909.00,0.0006
3908.00,0.0006
3907.00,0.0006
3906.00,0.0006
3905.00,0.0005
3904.00,0.0005
3903.00,0.0005
3902.00,0.0005
3901.00,0.0005
3900.00,0.0005
3899.00,0.0006
3898.00,0.0006
3897.00,0.0006
3896.00,0.0006
3895.00,0.0006
3894.00,0.0006
3893.00,0.0007
3892.00,0.0007
3891.00,0.0006
3890.00,0.0006
3889.00,0.0006
3888.00,0.0006
3887.00,0.0006
3886.00,0.0006
3885.00,0.0006
3884.00,0.0006
3883.00,0.0006
3882.00,0.0006
3881.00,0.0006
3880.00,0.0006
3879.00,0.0006
3878.00,0.0006
3877.00,0.0006
3876.00,0.0006
3875.00,0.0006
3874.00,0.0006
3873.00,0.0006
3872.00,0.0006
3871.00,0.0006
3870.00,0.0005
3869.00,0.0005
3868.00,0.0005
3867.00,0.0006
3866.00,0.0006
3865.00,0.0006
3864.00,0.0005
3863.00,0.0005
3862.00,0.0005
3861.00,0.0005
3860.00,0.0005
3859.00,0.0005
3858.00,0.0004
3857.00,0.0004
3856.00,0.0004
3855.00,0.0004
3854.00,0.0004
3853.00,0.0004
3852.00,0.0004
3851.00,0.0005
3850.00,0.0005
3849.00,0.0005
3848.00,0.0005
3847.00,0.0005
3846.00,0.0005
3845.00,0.0005
3844.00,0.0005
3843.00,0.0006
3842.00,0.0006
3841.00,0.0006
3840.00,0.0006
3839.00,0.0005
3838.00,0.0005
3837.00,0.0004
3836.00,0.0004
3835.00,0.0004
3834.00,0.0004
3833.00,0.0004
3832.00,0.0004
3831.00,0.0004
3830.00,0.0004
3829.00,0.0004
3828.00,0.0004
3827.00,0.0004
3826.00,0.0005
3825.00,0.0005
3824.00,0.0005
3823.00,0.0005
3822.00,0.0005
3821.00,0.0005
3820.00,0.0005
3819.00,0.0004
3818.00,0.0004
3817.00,0.0005
3816.00,0.0005
3815.00,0.0005
3814.00,0.0005
3813.00,0.0006
3812.00,0.0006
3811.00,0.0006
3810.00,0.0006
3809.00,0.0006
3808.00,0.0006
3807.00,0.0005
3806.00,0.0004
3805.00,0.0004
3804.00,0.0004
3803.00,0.0004
3802.00,0.0004
3801.00,0.0005
3800.00,0.0005
3799.00,0.0005
3798.00,0.0006
3797.00,0.0006
3796.00,0.0005
3795.00,0.0005
3794.00,0.0005
3793.00,0.0005
3792.00,0.0006
3791.00,0.0006
3790.00,0.0006
3789.00,0.0007
3788.00,0.0007
3787.00,0.0006
3786.00,0.0006
3785.00,0.0006
3784.00,0.0006
3783.00,0.0005
3782.00,0.0006
3781.00,0.0006
3780.00,0.0006
3779.00,0.0007
3778.00,0.0007
3777.00,0.0007
3776.00,0.0007
3775.00,0.0007
3774.00,0.0007
3773.00,0.0007
3772.00,0.0007
3771.00,0.0007
3770.00,0.0007
3769.00,0.0008
3768.00,0.0008
3767.00,0.0007
3766.00,0.0007
3765.00,0.0007
3764.00,0.0007
3763.00,0.0007
3762.00,0.0007
3761.00,0.0007
3760.00,0.0006
3759.00,0.0006
3758.00,0.0006
3757.00,0.0006
3756.00,0.0006
3755.00,0.0006
3754.00,0.0006
3753.00,0.0006
3752.00,0.0006
3751.00,0.0006
3750.00,0.0005
3749.00,0.0005
3748.00,0.0005
3747.00,0.0005
3746.00,0.0005
3745.00,0.0005
3744.00,0.0005
3743.00,0.0004
3742.00,0.0004
3741.00,0.0004
3740.00,0.0003
3739.00,0.0003
3738.00,0.0003
3737.00,0.0003
3736.00,0.0004
3735.00,0.0004
3734.00,0.0004
3733.00,0.0004
3732.00,0.0004
3731.00,0.0004
3730.00,0.0004
3729.00,0.0003
3728.00,0.0003
3727.00,0.0002
3726.00,0.0002
3725.00,0.0002
3724.00,0.0003
3723.00,0.0003
3722.00,0.0004
3721.00,0.0004
3720.00,0.0005
3719.00,0.0005
3718.00,0.0005
3717.00,0.0006
3716.00,0.0006
3715.00,0.0006
3714.00,0.0005
3713.00,0.0005
3712.00,0.0004
3711.00,0.0003
3710.00,0.0003
3709.00,0.0003
3708.00,0.0003
3707.00,0.0003
3706.00,0.0002
3705.00,0.0002
3704.00,0.0002
3703.00,0.0003
3702.00,0.0003
3701.00,0.0003
3700.00,0.0003
3699.00,0.0003
3698.00,0.0003
3697.00,0.0003
3696.00,0.0003
3695.00,0.0003
3694.00,0.0003
3693.00,0.0002
3692.00,0.0002
3691.00,0.0003
3690.00,0.0003
3689.00,0.0003
3688.00,0.0003
3687.00,0.0003
3686.00,0.0003
3685.00,0.0003
3684.00,0.0003
3683.00,0.0003
3682.00,0.0002
3681.00,0.0002
3680.00,0.0002
3679.00,0.0002
3678.00,0.0003
3677.00,0.0003
3676.00,0.0003
3675.00,0.0003
3674.00,0.0003
3673.00,0.0004
3672.00,0.0005
3671.00,0.0005
3670.00,0.0005
3669.00,0.0005
3668.00,0.0005
3667.00,0.0004
3666.00,0.0004
3665.00,0.0004
3664.00,0.0004
3663.00,0.0005
3662.00,0.0005
3661.00,0.0005
3660.00,0.0005
3659.00,0.0004
3658.00,0.0004
3657.00,0.0004
3656.00,0.0004
3655.00,0.0004
3654.00,0.0004
3653.00,0.0003
3652.00,0.0002
3651.00,0.0002
3650.00,0.0002
3649.00,0.0002
3648.00,0.0003
3647.00,0.0003
3646.00,0.0003
3645.00,0.0003
3644.00,0.0003
3643.00,0.0003
3642.00,0.0003
3641.00,0.0003
3640.00,0.0004
3639.00,0.0004
3638.00,0.0004
3637.00,0.0004
3636.00,0.0004
3635.00,0.0004
3634.00,0.0003
3633.00,0.0003
3632.00,0.0002
3631.00,0.0002
3630.00,0.0002
3629.00,0.0003
3628.00,0.0003
3627.00,0.0003
3626.00,0.0003
3625.00,0.0003
3624.00,0.0003
3623.00,0.0003
3622.00,0.0003
3621.00,0.0003
3620.00,0.0003
3619.00,0.0003
3618.00,0.0003
3617.00,0.0003
3616.00,0.0003
3615.00,0.0003
3614.00,0.0004
3613.00,0.0004
3612.00,0.0004
3611.00,0.0004
3610.00,0.0004
3609.00,0.0004
3608.00,0.0004
3607.00,0.0003
3606.00,0.0003
3605.00,0.0003
3604.00,0.0003
3603.00,0.0004
3602.00,0.0004
3601.00,0.0004
3600.00,0.0004
3599.00,0.0004
3598.00,0.0004
3597.00,0.0005
3596.00,0.0005
3595.00,0.0005
3594.00,0.0004
3593.00,0.0004
3592.00,0.0004
3591.00,0.0004
3590.00,0.0004
3589.00,0.0005
3588.00,0.0005
3587.00,0.0005
3586.00,0.0005
3585.00,0.0005
3584.00,0.0006
3583.00,0.0006
3582.00,0.0006
3581.00,0.0006
3580.00,0.0006
3579.00,0.0006
3578.00,0.0006
3577.00,0.0007
3576.00,0.0007
3575.00,0.0007
3574.00,0.0007
3573.00,0.0007
3572.00,0.0007
3571.00,0.0007
3570.00,0.0006
3569.00,0.0006
3568.00,0.0006
3567.00,0.0006
3566.00,0.0007
3565.00,0.0007
3564.00,0.0007
3563.00,0.0007
3562.00,0.0007
3561.00,0.0008
3560.00,0.0009
3559.00,0.0010
3558.00,0.0010
3557.00,0.0011
3556.00,0.0011
3555.00,0.0011
3554.00,0.0011
3553.00,0.0011
3552.00,0.0010
3551.00,0.0010
3550.00,0.0011
3549.00,0.0011
3548.00,0.0011
3547.00,0.0011
3546.00,0.0011
3545.00,0.0012
3544.00,0.0012
3543.00,0.0012
3542.00,0.0012
3541.00,0.0013
3540.00,0.0013
3539.00,0.0013
3538.00,0.0013
3537.00,0.0012
3536.00,0.0013
3535.00,0.0013
3534.00,0.0013
3533.00,0.0013
3532.00,0.0014
3531.00,0.0013
3530.00,0.0013
3529.00,0.0013
3528.00,0.0012
3527.00,0.0012
3526.00,0.0012
3525.00,0.0013
3524.00,0.0013
3523.00,0.0013
3522.00,0.0014
3521.00,0.0014
3520.00,0.0015
3519.00,0.0015
3518.00,0.0015
3517.00,0.0015
3516.00,0.0015
3515.00,0.0015
3514.00,0.0015
3513.00,0.0015
3512.00,0.0015
3511.00,0.0015
3510.00,0.0015
3509.00,0.0015
3508.00,0.0016
3507.00,0.0016
3506.00,0.0015
3505.00,0.0015
3504.00,0.0015
3503.00,0.0015
3502.00,0.0016
3501.00,0.0016
3500.00,0.0017
3499.00,0.0017
3498.00,0.0017
3497.00,0.0017
3496.00,0.0017
3495.00,0.0017
3494.00,0.0017
3493.00,0.0018
3492.00,0.0018
3491.00,0.0019
3490.00,0.0019
3489.00,0.0019
3488.00,0.0019
3487.00,0.0019
3486.00,0.0019
3485.00,0.0019
3484.00,0.0019
3483.00,0.0019
3482.00,0.0019
3481.00,0.0019
3480.00,0.0019
3479.00,0.0020
3478.00,0.0020
3477.00,0.0020
3476.00,0.0020
3475.00,0.0020
3474.00,0.0020
3473.00,0.0020
3472.00,0.0020
3471.00,0.0020
3470.00,0.0020
3469.00,0.0021
3468.00,0.0021
3467.00,0.0022
3466.00,0.0022
3465.00,0.0022
3464.00,0.0022
3463.00,0.0022
3462.00,0.0022
3461.00,0.0022
3460.00,0.0022
3459.00,0.0023
3458.00,0.0023
3457.00,0.0023
3456.00,0.0022
3455.00,0.0023
3454.00,0.0023
3453.00,0.0023
3452.00,0.0024
3451.00,0.0024
3450.00,0.0023
3449.00,0.0023
3448.00,0.0023
3447.00,0.0023
3446.00,0.0023
3445.00,0.0024
3444.00,0.0025
3443.00,0.0025
3442.00,0.0026
3441.00,0.0026
3440.00,0.0026
3439.00,0.0025
3438.00,0.0025
3437.00,0.0025
3436.00,0.0026
3435.00,0.0026
3434.00,0.0026
3433.00,0.0026
3432.00,0.0026
3431.00,0.0026
3430.00,0.0026
3429.00,0.0026
3428.00,0.0026
3427.00,0.0026
3426.00,0.0027
3425.00,0.0027
3424.00,0.0027
3423.00,0.0027
3422.00,0.0027
3421.00,0.0027
3420.00,0.0027
3419.00,0.0027
3418.00,0.0027
3417.00,0.0028
3416.00,0.0028
3415.00,0.0028
3414.00,0.0028
3413.00,0.0028
3412.00,0.0028
3411.00,0.0028
3410.00,0.0028
3409.00,0.0028
3408.00,0.0029
3407.00,0.0029
3406.00,0.0029
3405.00,0.0029
3404.00,0.0029
3403.00,0.0029
3402.00,0.0029
3401.00,0.0029
3400.00,0.0029
3399.00,0.0029
3398.00,0.0029
3397.00,0.0029
3396.00,0.0029
3395.00,0.0029
3394.00,0.0029
3393.00,0.0029
3392.00,0.0029
3391.00,0.0029
3390.00,0.0029
3389.00,0.0029
3388.00,0.0029
3387.00,0.0029
3386.00,0.0030
3385.00,0.0030
3384.00,0.0030
3383.00,0.0030
3382.00,0.0030
3381.00,0.0030
3380.00,0.0030
3379.00,0.0031
3378.00,0.0031
3377.00,0.0031
3376.00,0.0031
3375.00,0.0031
3374.00,0.0030
3373.00,0.0030
3372.00,0.0030
3371.00,0.0030
3370.00,0.0030
3369.00,0.0030
3368.00,0.0030
3367.00,0.0030
3366.00,0.0030
3365.00,0.0030
3364.00,0.0030
3363.00,0.0030
3362.00,0.0030
3361.00,0.0030
3360.00,0.0030
3359.00,0.0030
3358.00,0.0031
3357.00,0.0031
3356.00,0.0031
3355.00,0.0031
3354.00,0.0031
3353.00,0.0031
3352.00,0.0031
3351.00,0.0031
3350.00,0.0032
3349.00,0.0032
3348.00,0.0032
3347.00,0.0032
3346.00,0.0031
3345.00,0.0031
3344.00,0.0031
3343.00,0.0030
3342.00,0.0030
3341.00,0.0030
3340.00,0.0030
3339.00,0.0030
3338.00,0.0029
3337.00,0.0029
3336.00,0.0029
3335.00,0.0029
3334.00,0.0029
3333.00,0.0029
3332.00,0.0029
3331.00,0.0029
3330.00,0.0029
3329.00,0.0029
3328.00,0.0030
3327.00,0.0030
3326.00,0.0030
3325.00,0.0029
3324.00,0.0029
3323.00,0.0028
3322.00,0.0028
3321.00,0.0028
3320.00,0.0028
3319.00,0.0028
3318.00,0.0028
3317.00,0.0029
3316.00,0.0029
3315.00,0.0029
3314.00,0.0030
3313.00,0.0029
3312.00,0.0029
3311.00,0.0029
3310.00,0.0029
3309.00,0.0029
3308.00,0.0029
3307.00,0.0029
3306.00,0.0029
3305.00,0.0028
3304.00,0.0028
3303.00,0.0028
3302.00,0.0028
3301.00,0.0028
3300.00,0.0028
3299.00,0.0028
3298.00,0.0028
3297.00,0.0028
3296.00,0.0028
3295.00,0.0028
3294.00,0.0028
3293.00,0.0028
3292.00,0.0028
3291.00,0.0028
3290.00,0.0028
3289.00,0.0028
3288.00,0.0028
3287.00,0.0029
3286.00,0.0029
3285.00,0.0029
3284.00,0.0029
3283.00,0.0029
3282.00,0.0029
3281.00,0.0028
3280.00,0.0028
3279.00,0.0028
3278.00,0.0028
3277.00,0.0027
3276.00,0.0027
3275.00,0.0027
3274.00,0.0027
3273.00,0.0027
3272.00,0.0027
3271.00,0.0027
3270.00,0.0027
3269.00,0.0027
3268.00,0.0027
3267.00,0.0027
3266.00,0.0027
3265.00,0.0027
3264.00,0.0027
3263.00,0.0027
3262.00,0.0027
3261.00,0.0027
3260.00,0.0027
3259.00,0.0027
3258.00,0.0026
3257.00,0.0026
3256.00,0.0025
3255.00,0.0025
3254.00,0.0025
3253.00,0.0025
3252.00,0.0025
3251.00,0.0025
3250.00,0.0025
3249.00,0.0025
3248.00,0.0025
3247.00,0.0025
3246.00,0.0025
3245.00,0.0025
3244.00,0.0026
3243.00,0.0026
3242.00,0.0026
3241.00,0.0026
3240.00,0.0026
3239.00,0.0026
3238.00,0.0025
3237.00,0.0025
3236.00,0.0025
3235.00,0.0026
3234.00,0.0026
3233.00,0.0027
3232.00,0.0027
3231.00,0.0027
3230.00,0.0027
3229.00,0.0027
3228.00,0.0027
3227.00,0.0027
3226.00,0.0027
3225.00,0.0027
3224.00,0.0028
3223.00,0.0028
3222.00,0.0028
3221.00,0.0029
3220.00,0.0029
3219.00,0.0029
3218.00,0.0029
3217.00,0.0029
3216.00,0.0029
3215.00,0.0030
3214.00,0.0031
3213.00,0.0031
3212.00,0.0031
3211.00,0.0031
3210.00,0.0031
3209.00,0.0031
3208.00,0.0031
3207.00,0.0031
3206.00,0.0032
3205.00,0.0032
3204.00,0.0032
3203.00,0.0032
3202.00,0.0032
3201.00,0.0032
3200.00,0.0032
3199.00,0.0032
3198.00,0.0032
3197.00,0.0032
3196.00,0.0033
3195.00,0.0033
3194.00,0.0033
3193.00,0.0033
3192.00,0.0033
3191.00,0.0033
3190.00,0.0032
3189.00,0.0032
3188.00,0.0032
3187.00,0.0032
3186.00,0.0032
3185.00,0.0031
3184.00,0.0031
3183.00,0.0031
3182.00,0.0031
3181.00,0.0031
3180.00,0.0031
3179.00,0.0031
3178.00,0.0031
3177.00,0.0031
3176.00,0.0031
3175.00,0.0031
3174.00,0.0030
3173.00,0.0030
3172.00,0.0030
3171.00,0.0030
3170.00,0.0029
3169.00,0.0029
3168.00,0.0029
3167.00,0.0029
3166.00,0.0028
3165.00,0.0028
3164.00,0.0029
3163.00,0.0029
3162.00,0.0029
3161.00,0.0029
3160.00,0.0029
3159.00,0.0029
3158.00,0.0029
3157.00,0.0029
3156.00,0.0029
3155.00,0.0029
3154.00,0.0029
3153.00,0.0029
3152.00,0.0029
3151.00,0.0029
3150.00,0.0029
3149.00,0.0029
3148.00,0.0030
3147.00,0.0030
3146.00,0.0030
3145.00,0.0030
3144.00,0.0029
3143.00,0.0029
3142.00,0.0029
3141.00,0.0028
3140.00,0.0028
3139.00,0.0028
3138.00,0.0028
3137.00,0.0028
3136.00,0.0028
3135.00,0.0028
3134.00,0.0028
3133.00,0.0027
3132.00,0.0027
3131.00,0.0028
3130.00,0.0027
3129.00,0.0027
3128.00,0.0027
3127.00,0.0026
3126.00,0.0026
3125.00,0.0026
3124.00,0.0025
3123.00,0.0025
3122.00,0.0025
3121.00,0.0025
3120.00,0.0024
3119.00,0.0024
3118.00,0.0023
3117.00,0.0023
3116.00,0.0023
3115.00,0.0023
3114.00,0.0023
3113.00,0.0023
3112.00,0.0023
3111.00,0.0023
3110.00,0.0023
3109.00,0.0023
3108.00,0.0023
3107.00,0.0023
3106.00,0.0024
3105.00,0.0024
3104.00,0.0024
3103.00,0.0024
3102.00,0.0024
3101.00,0.0024
3100.00,0.0024
3099.00,0.0024
3098.00,0.0023
3097.00,0.0023
3096.00,0.0023
3095.00,0.0023
3094.00,0.0023
3093.00,0.0022
3092.00,0.0022
3091.00,0.0022
3090.00,0.0022
3089.00,0.0022
3088.00,0.0022
3087.00,0.0022
3086.00,0.0023
3085.00,0.0023
3084.00,0.0023
3083.00,0.0022
3082.00,0.0022
3081.00,0.0022
3080.00,0.0021
3079.00,0.0021
3078.00,0.0022
3077.00,0.0022
3076.00,0.0023
3075.00,0.0023
3074.00,0.0023
3073.00,0.0023
3072.00,0.0023
3071.00,0.0023
3070.00,0.0023
3069.00,0.0023
3068.00,0.0023
3067.00,0.0024
3066.00,0.0024
3065.00,0.0024
3064.00,0.0025
3063.00,0.0025
3062.00,0.0026
3061.00,0.0026
3060.00,0.0026
3059.00,0.0025
3058.00,0.0025
3057.00,0.0025
3056.00,0.0026
3055.00,0.0026
3054.00,0.0026
3053.00,0.0026
3052.00,0.0026
3051.00,0.0026
3050.00,0.0026
3049.00,0.0027
3048.00,0.0027
3047.00,0.0027
3046.00,0.0027
3045.00,0.0027
3044.00,0.0027
3043.00,0.0027
3042.00,0.0028
3041.00,0.0028
3040.00,0.0028
3039.00,0.0029
3038.00,0.0029
3037.00,0.0029
3036.00,0.0029
3035.00,0.0030
3034.00,0.0030
3033.00,0.0031
3032.00,0.0031
3031.00,0.0032
3030.00,0.0033
3029.00,0.0034
3028.00,0.0034
3027.00,0.0035
3026.00,0.0036
3025.00,0.0036
3024.00,0.0036
3023.00,0.0036
3022.00,0.0037
3021.00,0.0038
3020.00,0.0039
3019.00,0.0040
3018.00,0.0041
3017.00,0.0042
3016.00,0.0043
3015.00,0.0044
3014.00,0.0045
3013.00,0.0047
3012.00,0.0048
3011.00,0.0050
3010.00,0.0052
3009.00,0.0053
3008.00,0.0055
3007.00,0.0057
3006.00,0.0060
3005.00,0.0062
3004.00,0.0064
3003.00,0.0066
3002.00,0.0069
3001.00,0.0072
3000.00,0.0074
2999.00,0.0078
2998.00,0.0082
2997.00,0.0086
2996.00,0.0090
2995.00,0.0095
2994.00,0.0100
2993.00,0.0105
2992.00,0.0111
2991.00,0.0118
2990.00,0.0125
2989.00,0.0134
2988.00,0.0143
2987.00,0.0153
2986.00,0.0164
2985.00,0.0177
2984.00,0.0192
2983.00,0.0209
2982.00,0.0227
2981.00,0.0247
2980.00,0.0270
2979.00,0.0296
2978.00,0.0325
2977.00,0.0358
2976.00,0.0396
2975.00,0.0438
2974.00,0.0487
2973.00,0.0542
2972.00,0.0605
2971.00,0.0675
2970.00,0.0754
2969.00,0.0842
2968.00,0.0939
2967.00,0.1044
2966.00,0.1157
2965.00,0.1276
2964.00,0.1398
2963.00,0.1519
2962.00,0.1633
2961.00,0.1735
2960.00,0.1819
2959.00,0.1884
2958.00,0.1930
2957.00,0.1961
2956.00,0.1983
2955.00,0.2001
2954.00,0.2020
2953.00,0.2038
2952.00,0.2051
2951.00,0.2053
2950.00,0.2034
2949.00,0.1988
2948.00,0.1911
2947.00,0.1806
2946.00,0.1680
2945.00,0.1545
2944.00,0.1414
2943.00,0.1297
2942.00,0.1202
2941.00,0.1132
2940.00,0.1087
2939.00,0.1066
2938.00,0.1065
2937.00,0.1083
2936.00,0.1118
2935.00,0.1167
2934.00,0.1229
2933.00,0.1302
2932.00,0.1385
2931.00,0.1474
2930.00,0.1567
2929.00,0.1661
2928.00,0.1752
2927.00,0.1839
2926.00,0.1920
2925.00,0.1995
2924.00,0.2067
2923.00,0.2136
2922.00,0.2202
2921.00,0.2265
2920.00,0.2320
2919.00,0.2364
2918.00,0.2389
2917.00,0.2393
2916.00,0.2374
2915.00,0.2334
2914.00,0.2279
2913.00,0.2216
2912.00,0.2150
2911.00,0.2087
2910.00,0.2028
2909.00,0.1974
2908.00,0.1922
2907.00,0.1870
2906.00,0.1816
2905.00,0.1758
2904.00,0.1695
2903.00,0.1628
2902.00,0.1560
2901.00,0.1491
2900.00,0.1423
2899.00,0.1358
2898.00,0.1297
2897.00,0.1241
2896.00,0.1192
2895.00,0.1149
2894.00,0.1114
2893.00,0.1086
2892.00,0.1064
2891.00,0.1049
2890.00,0.1039
2889.00,0.1034
2888.00,0.1034
2887.00,0.1038
2886.00,0.1045
2885.00,0.1056
2884.00,0.1070
2883.00,0.1088
2882.00,0.1109
2881.00,0.1132
2880.00,0.1153
2879.00,0.1170
2878.00,0.1180
2877.00,0.1182
2876.00,0.1177
2875.00,0.1169
2874.00,0.1161
2873.00,0.1158
2872.00,0.1162
2871.00,0.1173
2870.00,0.1189
2869.00,0.1204
2868.00,0.1212
2867.00,0.1204
2866.00,0.1175
2865.00,0.1123
2864.00,0.1051
2863.00,0.0966
2862.00,0.0878
2861.00,0.0796
2860.00,0.0726
2859.00,0.0669
2858.00,0.0626
2857.00,0.0596
2856.00,0.0576
2855.00,0.0565
2854.00,0.0562
2853.00,0.0565
2852.00,0.0575
2851.00,0.0592
2850.00,0.0617
2849.00,0.0649
2848.00,0.0689
2847.00,0.0738
2846.00,0.0795
2845.00,0.0861
2844.00,0.0935
2843.00,0.1015
2842.00,0.1096
2841.00,0.1172
2840.00,0.1235
2839.00,0.1276
2838.00,0.1287
2837.00,0.1260
2836.00,0.1198
2835.00,0.1105
2834.00,0.0994
2833.00,0.0877
2832.00,0.0765
2831.00,0.0665
2830.00,0.0581
2829.00,0.0512
2828.00,0.0456
2827.00,0.0411
2826.00,0.0375
2825.00,0.0344
2824.00,0.0319
2823.00,0.0297
2822.00,0.0279
2821.00,0.0263
2820.00,0.0250
2819.00,0.0238
2818.00,0.0228
2817.00,0.0219
2816.00,0.0211
2815.00,0.0204
2814.00,0.0198
2813.00,0.0192
2812.00,0.0187
2811.00,0.0181
2810.00,0.0176
2809.00,0.0171
2808.00,0.0165
2807.00,0.0159
2806.00,0.0153
2805.00,0.0147
2804.00,0.0140
2803.00,0.0134
2802.00,0.0129
2801.00,0.0124
2800.00,0.0121
2799.00,0.0118
2798.00,0.0115
2797.00,0.0112
2796.00,0.0109
2795.00,0.0107
2794.00,0.0104
2793.00,0.0101
2792.00,0.0098
2791.00,0.0094
2790.00,0.0091
2789.00,0.0088
2788.00,0.0084
2787.00,0.0081
2786.00,0.0078
2785.00,0.0075
2784.00,0.0072
2783.00,0.0070
2782.00,0.0067
2781.00,0.0065
2780.00,0.0064
2779.00,0.0062
2778.00,0.0060
2777.00,0.0058
2776.00,0.0057
2775.00,0.0056
2774.00,0.0056
2773.00,0.0056
2772.00,0.0055
2771.00,0.0055
2770.00,0.0054
2769.00,0.0053
2768.00,0.0052
2767.00,0.0052
2766.00,0.0052
2765.00,0.0052
2764.00,0.0052
2763.00,0.0051
2762.00,0.0051
2761.00,0.0051
2760.00,0.0050
2759.00,0.0050
2758.00,0.0050
2757.00,0.0049
2756.00,0.0049
2755.00,0.0049
2754.00,0.0049
2753.00,0.0049
2752.00,0.0048
2751.00,0.0048
2750.00,0.0048
2749.00,0.0048
2748.00,0.0049
2747.00,0.0049
2746.00,0.0050
2745.00,0.0051
2744.00,0.0052
2743.00,0.0053
2742.00,0.0053
2741.00,0.0055
2740.00,0.0056
2739.00,0.0057
2738.00,0.0059
2737.00,0.0060
2736.00,0.0061
2735.00,0.0063
2734.00,0.0064
2733.00,0.0066
2732.00,0.0067
2731.00,0.0069
2730.00,0.0071
2729.00,0.0074
2728.00,0.0077
2727.00,0.0080
2726.00,0.0083
2725.00,0.0085
2724.00,0.0086
2723.00,0.0087
2722.00,0.0086
2721.00,0.0084
2720.00,0.0081
2719.00,0.0078
2718.00,0.0074
2717.00,0.0071
2716.00,0.0068
2715.00,0.0065
2714.00,0.0063
2713.00,0.0061
2712.00,0.0059
2711.00,0.0057
2710.00,0.0055
2709.00,0.0054
2708.00,0.0053
2707.00,0.0051
2706.00,0.0050
2705.00,0.0050
2704.00,0.0049
2703.00,0.0048
2702.00,0.0047
2701.00,0.0046
2700.00,0.0045
2699.00,0.0044
2698.00,0.0044
2697.00,0.0043
2696.00,0.0043
2695.00,0.0043
2694.00,0.0043
2693.00,0.0043
2692.00,0.0043
2691.00,0.0043
2690.00,0.0043
2689.00,0.0043
2688.00,0.0043
2687.00,0.0043
2686.00,0.0043
2685.00,0.0043
2684.00,0.0043
2683.00,0.0043
2682.00,0.0043
2681.00,0.0044
2680.00,0.0044
2679.00,0.0044
2678.00,0.0044
2677.00,0.0044
2676.00,0.0044
2675.00,0.0043
2674.00,0.0043
2673.00,0.0043
2672.00,0.0043
2671.00,0.0043
2670.00,0.0042
2669.00,0.0043
2668.00,0.0043
2667.00,0.0043
2666.00,0.0043
2665.00,0.0043
2664.00,0.0044
2663.00,0.0045
2662.00,0.0045
2661.00,0.0046
2660.00,0.0046
2659.00,0.0046
2658.00,0.0045
2657.00,0.0045
2656.00,0.0045
2655.00,0.0044
2654.00,0.0044
2653.00,0.0044
2652.00,0.0043
2651.00,0.0043
2650.00,0.0042
2649.00,0.0041
2648.00,0.0041
2647.00,0.0041
2646.00,0.0040
2645.00,0.0040
2644.00,0.0040
2643.00,0.0039
2642.00,0.0039
2641.00,0.0039
2640.00,0.0039
2639.00,0.0038
2638.00,0.0038
2637.00,0.0037
2636.00,0.0037
2635.00,0.0037
2634.00,0.0037
2633.00,0.0037
2632.00,0.0037
2631.00,0.0037
2630.00,0.0037
2629.00,0.0037
2628.00,0.0038
2627.00,0.0038
2626.00,0.0038
2625.00,0.0039
2624.00,0.0039
2623.00,0.0039
2622.00,0.0039
2621.00,0.0039
2620.00,0.0038
2619.00,0.0038
2618.00,0.0039
2617.00,0.0039
2616.00,0.0040
2615.00,0.0040
2614.00,0.0039
2613.00,0.0039
2612.00,0.0038
2611.00,0.0036
2610.00,0.0035
2609.00,0.0034
2608.00,0.0034
2607.00,0.0033
2606.00,0.0033
2605.00,0.0033
2604.00,0.0032
2603.00,0.0031
2602.00,0.0030
2601.00,0.0029
2600.00,0.0029
2599.00,0.0029
2598.00,0.0030
2597.00,0.0030
2596.00,0.0031
2595.00,0.0031
2594.00,0.0031
2593.00,0.0032
2592.00,0.0033
2591.00,0.0033
2590.00,0.0034
2589.00,0.0034
2588.00,0.0034
2587.00,0.0035
2586.00,0.0035
2585.00,0.0035
2584.00,0.0035
2583.00,0.0035
2582.00,0.0035
2581.00,0.0034
2580.00,0.0034
2579.00,0.0034
2578.00,0.0034
2577.00,0.0033
2576.00,0.0033
2575.00,0.0032
2574.00,0.0031
2573.00,0.0030
2572.00,0.0029
2571.00,0.0029
2570.00,0.0028
2569.00,0.0027
2568.00,0.0026
2567.00,0.0025
2566.00,0.0025
2565.00,0.0024
2564.00,0.0024
2563.00,0.0024
2562.00,0.0023
2561.00,0.0023
2560.00,0.0022
2559.00,0.0022
2558.00,0.0021
2557.00,0.0021
2556.00,0.0020
2555.00,0.0020
2554.00,0.0020
2553.00,0.0021
2552.00,0.0021
2551.00,0.0020
2550.00,0.0020
2549.00,0.0019
2548.00,0.0019
2547.00,0.0019
2546.00,0.0019
2545.00,0.0019
2544.00,0.0018
2543.00,0.0017
2542.00,0.0016
2541.00,0.0015
2540.00,0.0015
2539.00,0.0014
2538.00,0.0015
2537.00,0.0015
2536.00,0.0015
2535.00,0.0014
2534.00,0.0013
2533.00,0.0013
2532.00,0.0013
2531.00,0.0013
2530.00,0.0013
2529.00,0.0013
2528.00,0.0013
2527.00,0.0013
2526.00,0.0013
2525.00,0.0013
2524.00,0.0013
2523.00,0.0013
2522.00,0.0012
2521.00,0.0012
2520.00,0.0012
2519.00,0.0011
2518.00,0.0011
2517.00,0.0010
2516.00,0.0010
2515.00,0.0010
2514.00,0.0010
2513.00,0.0010
2512.00,0.0010
2511.00,0.0010
2510.00,0.0010
2509.00,0.0010
2508.00,0.0010
2507.00,0.0010
2506.00,0.0010
2505.00,0.0010
2504.00,0.0010
2503.00,0.0009
2502.00,0.0009
2501.00,0.0009
2500.00,0.0009
2499.00,0.0009
2498.00,0.0009
2497.00,0.0009
2496.00,0.0009
2495.00,0.0009
2494.00,0.0009
2493.00,0.0009
2492.00,0.0009
2491.00,0.0009
2490.00,0.0009
2489.00,0.0009
2488.00,0.0009
2487.00,0.0009
2486.00,0.0008
2485.00,0.0008
2484.00,0.0008
2483.00,0.0008
2482.00,0.0009
2481.00,0.0009
2480.00,0.0008
2479.00,0.0008
2478.00,0.0008
2477.00,0.0008
2476.00,0.0009
2475.00,0.0009
2474.00,0.0009
2473.00,0.0009
2472.00,0.0009
2471.00,0.0009
2470.00,0.0009
2469.00,0.0009
2468.00,0.0009
2467.00,0.0008
2466.00,0.0008
2465.00,0.0007
2464.00,0.0008
2463.00,0.0008
2462.00,0.0009
2461.00,0.0009
2460.00,0.0009
2459.00,0.0010
2458.00,0.0010
2457.00,0.0010
2456.00,0.0010
2455.00,0.0011
2454.00,0.0010
2453.00,0.0010
2452.00,0.0009
2451.00,0.0009
2450.00,0.0009
2449.00,0.0009
2448.00,0.0009
2447.00,0.0009
2446.00,0.0009
2445.00,0.0009
2444.00,0.0009
2443.00,0.0009
2442.00,0.0009
2441.00,0.0009
2440.00,0.0009
2439.00,0.0009
2438.00,0.0010
2437.00,0.0010
2436.00,0.0010
2435.00,0.0010
2434.00,0.0011
2433.00,0.0011
2432.00,0.0011
2431.00,0.0012
2430.00,0.0011
2429.00,0.0011
2428.00,0.0010
2427.00,0.0010
2426.00,0.0010
2425.00,0.0011
2424.00,0.0011
2423.00,0.0011
2422.00,0.0010
2421.00,0.0010
2420.00,0.0009
2419.00,0.0008
2418.00,0.0008
2417.00,0.0009
2416.00,0.0009
2415.00,0.0009
2414.00,0.0008
2413.00,0.0008
2412.00,0.0008
2411.00,0.0008
2410.00,0.0008
2409.00,0.0009
2408.00,0.0009
2407.00,0.0009
2406.00,0.0008
2405.00,0.0008
2404.00,0.0008
2403.00,0.0008
2402.00,0.0008
2401.00,0.0008
2400.00,0.0008
2399.00,0.0007
2398.00,0.0007
2397.00,0.0006
2396.00,0.0006
2395.00,0.0006
2394.00,0.0006
2393.00,0.0007
2392.00,0.0007
2391.00,0.0007
2390.00,0.0006
2389.00,0.0006
2388.00,0.0005
2387.00,0.0004
2386.00,0.0003
2385.00,0.0002
2384.00,0.0001
2383.00,0.0000
2382.00,-0.0000
2381.00,-0.0001
2380.00,-0.0001
2379.00,-0.0002
2378.00,-0.0002
2377.00,-0.0002
2376.00,-0.0002
2375.00,-0.0002
2374.00,-0.0001
2373.00,-0.0001
2372.00,-0.0001
2371.00,-0.0002
2370.00,-0.0003
2369.00,-0.0005
2368.00,-0.0006
2367.00,-0.0006
2366.00,-0.0006
2365.00,-0.0005
2364.00,-0.0005
2363.00,-0.0004
2362.00,-0.0003
2361.00,-0.0003
2360.00,-0.0003
2359.00,-0.0003
2358.00,-0.0003
2357.00,-0.0002
2356.00,-0.0001
2355.00,-0.0001
2354.00,-0.0001
2353.00,-0.0002
2352.00,-0.0003
2351.00,-0.0003
2350.00,-0.0003
2349.00,-0.0002
2348.00,-0.0001
2347.00,-0.0001
2346.00,-0.0002
2345.00,-0.0002
2344.00,-0.0002
2343.00,-0.0001
2342.00,-0.0000
2341.00,0.0001
2340.00,0.0001
2339.00,0.0001
2338.00,0.0001
2337.00,0.0001
2336.00,0.0002
2335.00,0.0002
2334.00,0.0002
2333.00,0.0002
2332.00,0.0002
2331.00,0.0001
2330.00,0.0000
2329.00,0.0000
2328.00,0.0001
2327.00,0.0005
2326.00,0.0009
2325.00,0.0014
2324.00,0.0016
2323.00,0.0016
2322.00,0.0014
2321.00,0.0012
2320.00,0.0011
2319.00,0.0009
2318.00,0.0007
2317.00,0.0006
2316.00,0.0005
2315.00,0.0004
2314.00,0.0002
2313.00,0.0001
2312.00,0.0000
2311.00,-0.0001
2310.00,-0.0001
2309.00,-0.0001
2308.00,-0.0000
2307.00,0.0001
2306.00,0.0003
2305.00,0.0004
2304.00,0.0004
2303.00,0.0004
2302.00,0.0004
2301.00,0.0004
2300.00,0.0006
2299.00,0.0007
2298.00,0.0008
2297.00,0.0008
2296.00,0.0008
2295.00,0.0008
2294.00,0.0009
2293.00,0.0010
2292.00,0.0011
2291.00,0.0012
2290.00,0.0013
2289.00,0.0014
2288.00,0.0015
2287.00,0.0016
2286.00,0.0017
2285.00,0.0017
2284.00,0.0016
2283.00,0.0015
2282.00,0.0014
2281.00,0.0013
2280.00,0.0012
2279.00,0.0012
2278.00,0.0011
2277.00,0.0011
2276.00,0.0010
2275.00,0.0010
2274.00,0.0009
2273.00,0.0009
2272.00,0.0010
2271.00,0.0011
2270.00,0.0012
2269.00,0.0012
2268.00,0.0012
2267.00,0.0012
2266.00,0.0012
2265.00,0.0012
2264.00,0.0012
2263.00,0.0012
2262.00,0.0012
2261.00,0.0011
2260.00,0.0011
2259.00,0.0011
2258.00,0.0010
2257.00,0.0008
2256.00,0.0006
2255.00,0.0005
2254.00,0.0004
2253.00,0.0005
2252.00,0.0007
2251.00,0.0008
2250.00,0.0008
2249.00,0.0007
2248.00,0.0006
2247.00,0.0006
2246.00,0.0005
2245.00,0.0004
2244.00,0.0004
2243.00,0.0003
2242.00,0.0003
2241.00,0.0005
2240.00,0.0006
2239.00,0.0008
2238.00,0.0009
2237.00,0.0009
2236.00,0.0009
2235.00,0.0008
2234.00,0.0008
2233.00,0.0007
2232.00,0.0008
2231.00,0.0008
2230.00,0.0008
2229.00,0.0008
2228.00,0.0007
2227.00,0.0005
2226.00,0.0003
2225.00,0.0001
2224.00,0.0000
2223.00,0.0000
2222.00,0.0002
2221.00,0.0005
2220.00,0.0007
2219.00,0.0009
2218.00,0.0010
2217.00,0.0010
2216.00,0.0009
2215.00,0.0007
2214.00,0.0005
2213.00,0.0004
2212.00,0.0003
2211.00,0.0002
2210.00,0.0002
2209.00,0.0003
2208.00,0.0003
2207.00,0.0003
2206.00,0.0004
2205.00,0.0005
2204.00,0.0007
2203.00,0.0009
2202.00,0.0010
2201.00,0.0008
2200.00,0.0006
2199.00,0.0004
2198.00,0.0003
2197.00,0.0004
2196.00,0.0005
2195.00,0.0007
2194.00,0.0009
2193.00,0.0009
2192.00,0.0009
2191.00,0.0007
2190.00,0.0007
2189.00,0.0007
2188.00,0.0009
2187.00,0.0010
2186.00,0.0010
2185.00,0.0009
2184.00,0.0006
2183.00,0.0002
2182.00,-0.0001
2181.00,-0.0003
2180.00,-0.0001
2179.00,0.0002
2178.00,0.0004
2177.00,0.0004
2176.00,0.0002
2175.00,-0.0002
2174.00,-0.0004
2173.00,-0.0004
2172.00,-0.0002
2171.00,0.0002
2170.00,0.0007
2169.00,0.0013
2168.00,0.0016
2167.00,0.0016
2166.00,0.0013
2165.00,0.0011
2164.00,0.0012
2163.00,0.0016
2162.00,0.0019
2161.00,0.0015
2160.00,0.0003
2159.00,-0.0013
2158.00,-0.0026
2157.00,-0.0031
2156.00,-0.0031
2155.00,-0.0027
2154.00,-0.0023
2153.00,-0.0020
2152.00,-0.0017
2151.00,-0.0014
2150.00,-0.0013
2149.00,-0.0014
2148.00,-0.0016
2147.00,-0.0020
2146.00,-0.0023
2145.00,-0.0024
2144.00,-0.0023
2143.00,-0.0021
2142.00,-0.0018
2141.00,-0.0015
2140.00,-0.0013
2139.00,-0.0012
2138.00,-0.0013
2137.00,-0.0016
2136.00,-0.0018
2135.00,-0.0019
2134.00,-0.0020
2133.00,-0.0020
2132.00,-0.0018
2131.00,-0.0016
2130.00,-0.0014
2129.00,-0.0012
2128.00,-0.0011
2127.00,-0.0010
2126.00,-0.0009
2125.00,-0.0008
2124.00,-0.0007
2123.00,-0.0006
2122.00,-0.0005
2121.00,-0.0004
2120.00,-0.0003
2119.00,-0.0001
2118.00,0.0000
2117.00,0.0002
2116.00,0.0003
2115.00,0.0004
2114.00,0.0004
2113.00,0.0004
2112.00,0.0004
2111.00,0.0003
2110.00,0.0003
2109.00,0.0002
2108.00,0.0002
2107.00,0.0002
2106.00,0.0001
2105.00,0.0001
2104.00,0.0001
2103.00,0.0002
2102.00,0.0002
2101.00,0.0002
2100.00,0.0001
2099.00,-0.0000
2098.00,-0.0001
2097.00,-0.0003
2096.00,-0.0005
2095.00,-0.0008
2094.00,-0.0009
2093.00,-0.0009
2092.00,-0.0006
2091.00,-0.0002
2090.00,0.0001
2089.00,0.0004
2088.00,0.0005
2087.00,0.0005
2086.00,0.0005
2085.00,0.0005
2084.00,0.0005
2083.00,0.0004
2082.00,0.0002
2081.00,0.0001
2080.00,0.0001
2079.00,0.0002
2078.00,0.0003
2077.00,0.0004
2076.00,0.0003
2075.00,0.0003
2074.00,0.0002
2073.00,0.0002
2072.00,0.0001
2071.00,-0.0000
2070.00,-0.0001
2069.00,-0.0001
2068.00,-0.0001
2067.00,-0.0001
2066.00,-0.0001
2065.00,-0.0002
2064.00,-0.0003
2063.00,-0.0002
2062.00,-0.0001
2061.00,-0.0000
2060.00,0.0001
2059.00,0.0001
2058.00,0.0001
2057.00,0.0000
2056.00,-0.0001
2055.00,-0.0002
2054.00,-0.0001
2053.00,0.0004
2052.00,0.0011
2051.00,0.0016
2050.00,0.0016
2049.00,0.0011
2048.00,0.0006
2047.00,0.0002
2046.00,0.0001
2045.00,0.0002
2044.00,0.0002
2043.00,0.0003
2042.00,0.0002
2041.00,0.0001
2040.00,-0.0000
2039.00,0.0000
2038.00,0.0002
2037.00,0.0005
2036.00,0.0007
2035.00,0.0006
2034.00,0.0003
2033.00,-0.0001
2032.00,-0.0004
2031.00,-0.0007
2030.00,-0.0009
2029.00,-0.0011
2028.00,-0.0013
2027.00,-0.0013
2026.00,-0.0012
2025.00,-0.0011
2024.00,-0.0012
2023.00,-0.0015
2022.00,-0.0017
2021.00,-0.0019
2020.00,-0.0019
2019.00,-0.0018
2018.00,-0.0016
2017.00,-0.0014
2016.00,-0.0013
2015.00,-0.0014
2014.00,-0.0016
2013.00,-0.0016
2012.00,-0.0014
2011.00,-0.0013
2010.00,-0.0012
2009.00,-0.0011
2008.00,-0.0012
2007.00,-0.0016
2006.00,-0.0019
2005.00,-0.0019
2004.00,-0.0016
2003.00,-0.0013
2002.00,-0.0012
2001.00,-0.0013
2000.00,-0.0015
1999.00,-0.0016
1998.00,-0.0016
1997.00,-0.0015
1996.00,-0.0013
1995.00,-0.0011
1994.00,-0.0009
1993.00,-0.0007
1992.00,-0.0004
1991.00,-0.0002
1990.00,-0.0001
1989.00,-0.0001
1988.00,-0.0002
1987.00,-0.0003
1986.00,-0.0004
1985.00,-0.0004
1984.00,-0.0003
1983.00,-0.0001
1982.00,0.0001
1981.00,0.0003
1980.00,0.0004
1979.00,0.0001
1978.00,-0.0005
1977.00,-0.0012
1976.00,-0.0017
1975.00,-0.0019
1974.00,-0.0019
1973.00,-0.0019
1972.00,-0.0018
1971.00,-0.0018
1970.00,-0.0017
1969.00,-0.0016
1968.00,-0.0015
1967.00,-0.0014
1966.00,-0.0014
1965.00,-0.0015
1964.00,-0.0016
1963.00,-0.0016
1962.00,-0.0016
1961.00,-0.0018
1960.00,-0.0021
1959.00,-0.0024
1958.00,-0.0026
1957.00,-0.0024
1956.00,-0.0020
1955.00,-0.0015
1954.00,-0.0013
1953.00,-0.0013
1952.00,-0.0015
1951.00,-0.0017
1950.00,-0.0019
1949.00,-0.0020
1948.00,-0.0020
1947.00,-0.0020
1946.00,-0.0018
1945.00,-0.0016
1944.00,-0.0015
1943.00,-0.0015
1942.00,-0.0015
1941.00,-0.0014
1940.00,-0.0013
1939.00,-0.0012
1938.00,-0.0012
1937.00,-0.0012
1936.00,-0.0013
1935.00,-0.0014
1934.00,-0.0015
1933.00,-0.0014
1932.00,-0.0013
1931.00,-0.0012
1930.00,-0.0011
1929.00,-0.0012
1928.00,-0.0013
1927.00,-0.0013
1926.00,-0.0013
1925.00,-0.0012
1924.00,-0.0011
1923.00,-0.0010
1922.00,-0.0008
1921.00,-0.0007
1920.00,-0.0006
1919.00,-0.0005
1918.00,-0.0005
1917.00,-0.0004
1916.00,-0.0004
1915.00,-0.0004
1914.00,-0.0005
1913.00,-0.0006
1912.00,-0.0006
1911.00,-0.0007
1910.00,-0.0007
1909.00,-0.0006
1908.00,-0.0005
1907.00,-0.0003
1906.00,-0.0003
1905.00,-0.0003
1904.00,-0.0004
1903.00,-0.0005
1902.00,-0.0006
1901.00,-0.0006
1900.00,-0.0006
1899.00,-0.0005
1898.00,-0.0004
1897.00,-0.0004
1896.00,-0.0004
1895.00,-0.0004
1894.00,-0.0004
1893.00,-0.0003
1892.00,-0.0002
1891.00,-0.0002
1890.00,-0.0002
1889.00,-0.0002
1888.00,-0.0001
1887.00,-0.0001
1886.00,-0.0002
1885.00,-0.0003
1884.00,-0.0004
1883.00,-0.0005
1882.00,-0.0006
1881.00,-0.0005
1880.00,-0.0004
1879.00,-0.0003
1878.00,-0.0002
1877.00,-0.0003
1876.00,-0.0004
1875.00,-0.0005
1874.00,-0.0005
1873.00,-0.0004
1872.00,-0.0003
1871.00,-0.0003
1870.00,-0.0002
1869.00,-0.0002
1868.00,-0.0001
1867.00,-0.0001
1866.00,-0.0001
1865.00,-0.0001
1864.00,-0.0001
1863.00,-0.0001
1862.00,-0.0002
1861.00,-0.0002
1860.00,-0.0002
1859.00,-0.0003
1858.00,-0.0003
1857.00,-0.0003
1856.00,-0.0003
1855.00,-0.0003
1854.00,-0.0003
1853.00,-0.0002
1852.00,-0.0002
1851.00,-0.0002
1850.00,-0.0002
1849.00,-0.0002
1848.00,-0.0002
1847.00,-0.0002
1846.00,-0.0002
1845.00,-0.0001
1844.00,-0.0001
1843.00,-0.0001
1842.00,-0.0001
1841.00,-0.0001
1840.00,-0.0000
1839.00,-0.0000
1838.00,-0.0000
1837.00,-0.0000
1836.00,0.0000
1835.00,0.0001
1834.00,0.0001
1833.00,0.0001
1832.00,0.0001
1831.00,-0.0000
1830.00,-0.0001
1829.00,-0.0001
1828.00,-0.0001
1827.00,0.0000
1826.00,0.0001
1825.00,0.0001
1824.00,0.0001
1823.00,0.0002
1822.00,0.0001
1821.00,0.0001
1820.00,0.0000
1819.00,-0.0001
1818.00,-0.0002
1817.00,-0.0002
1816.00,-0.0002
1815.00,-0.0002
1814.00,-0.0001
1813.00,-0.0001
1812.00,0.0000
1811.00,0.0001
1810.00,0.0002
1809.00,0.0002
1808.00,0.0002
1807.00,0.0002
1806.00,0.0002
1805.00,0.0003
1804.00,0.0003
1803.00,0.0003
1802.00,0.0003
1801.00,0.0003
1800.00,0.0003
1799.00,0.0003
1798.00,0.0003
1797.00,0.0004
1796.00,0.0004
1795.00,0.0004
1794.00,0.0004
1793.00,0.0005
1792.00,0.0005
1791.00,0.0005
1790.00,0.0004
1789.00,0.0004
1788.00,0.0004
1787.00,0.0004
1786.00,0.0005
1785.00,0.0006
1784.00,0.0007
1783.00,0.0007
1782.00,0.0006
1781.00,0.0006
1780.00,0.0007
1779.00,0.0007
1778.00,0.0007
1777.00,0.0007
1776.00,0.0006
1775.00,0.0006
1774.00,0.0005
1773.00,0.0005
1772.00,0.0005
1771.00,0.0006
1770.00,0.0006
1769.00,0.0006
1768.00,0.0007
1767.00,0.0008
1766.00,0.0008
1765.00,0.0008
1764.00,0.0008
1763.00,0.0008
1762.00,0.0008
1761.00,0.0009
1760.00,0.0009
1759.00,0.0009
1758.00,0.0009
1757.00,0.0009
1756.00,0.0009
1755.00,0.0009
1754.00,0.0009
1753.00,0.0009
1752.00,0.0010
1751.00,0.0011
1750.00,0.0011
1749.00,0.0012
1748.00,0.0012
1747.00,0.0013
1746.00,0.0013
1745.00,0.0013
1744.00,0.0013
1743.00,0.0013
1742.00,0.0013
1741.00,0.0013
1740.00,0.0013
1739.00,0.0014
1738.00,0.0014
1737.00,0.0014
1736.00,0.0015
1735.00,0.0015
1734.00,0.0015
1733.00,0.0015
1732.00,0.0015
1731.00,0.0015
1730.00,0.0015
1729.00,0.0015
1728.00,0.0015
1727.00,0.0015
1726.00,0.0015
1725.00,0.0015
1724.00,0.0015
1723.00,0.0015
1722.00,0.0015
1721.00,0.0015
1720.00,0.0015
1719.00,0.0015
1718.00,0.0014
1717.00,0.0015
1716.00,0.0015
1715.00,0.0016
1714.00,0.0016
1713.00,0.0017
1712.00,0.0017
1711.00,0.0017
1710.00,0.0018
1709.00,0.0018
1708.00,0.0018
1707.00,0.0019
1706.00,0.0020
1705.00,0.0020
1704.00,0.0020
1703.00,0.0020
1702.00,0.0020
1701.00,0.0020
1700.00,0.0020
1699.00,0.0020
1698.00,0.0020
1697.00,0.0020
1696.00,0.0021
1695.00,0.0022
1694.00,0.0023
1693.00,0.0023
1692.00,0.0024
1691.00,0.0024
1690.00,0.0025
1689.00,0.0025
1688.00,0.0025
1687.00,0.0025
1686.00,0.0025
1685.00,0.0025
1684.00,0.0025
1683.00,0.0026
1682.00,0.0026
1681.00,0.0026
1680.00,0.0027
1679.00,0.0028
1678.00,0.0029
1677.00,0.0030
1676.00,0.0031
1675.00,0.0031
1674.00,0.0031
1673.00,0.0030
1672.00,0.0030
1671.00,0.0030
1670.00,0.0031
1669.00,0.0032
1668.00,0.0032
1667.00,0.0033
1666.00,0.0033
1665.00,0.0033
1664.00,0.0034
1663.00,0.0034
1662.00,0.0033
1661.00,0.0033
1660.00,0.0034
1659.00,0.0034
1658.00,0.0035
1657.00,0.0035
1656.00,0.0036
1655.00,0.0036
1654.00,0.0036
1653.00,0.0037
1652.00,0.0038
1651.00,0.0039
1650.00,0.0039
1649.00,0.0039
1648.00,0.0040
1647.00,0.0040
1646.00,0.0040
1645.00,0.0040
1644.00,0.0040
1643.00,0.0040
1642.00,0.0040
1641.00,0.0040
1640.00,0.0040
1639.00,0.0040
1638.00,0.0041
1637.00,0.0041
1636.00,0.0041
1635.00,0.0041
1634.00,0.0041
1633.00,0.0041
1632.00,0.0041
1631.00,0.0041
1630.00,0.0041
1629.00,0.0041
1628.00,0.0041
1627.00,0.0041
1626.00,0.0040
1625.00,0.0039
1624.00,0.0039
1623.00,0.0038
1622.00,0.0038
1621.00,0.0038
1620.00,0.0039
1619.00,0.0039
1618.00,0.0039
1617.00,0.0039
1616.00,0.0039
1615.00,0.0039
1614.00,0.0038
1613.00,0.0038
1612.00,0.0038
1611.00,0.0038
1610.00,0.0038
1609.00,0.0038
1608.00,0.0038
1607.00,0.0038
1606.00,0.0038
1605.00,0.0038
1604.00,0.0038
1603.00,0.0038
1602.00,0.0038
1601.00,0.0038
1600.00,0.0038
1599.00,0.0038
1598.00,0.0038
1597.00,0.0038
1596.00,0.0038
1595.00,0.0038
1594.00,0.0038
1593.00,0.0037
1592.00,0.0038
1591.00,0.0038
1590.00,0.0038
1589.00,0.0039
1588.00,0.0040
1587.00,0.0040
1586.00,0.0040
1585.00,0.0041
1584.00,0.0042
1583.00,0.0043
1582.00,0.0045
1581.00,0.0046
1580.00,0.0048
1579.00,0.0049
1578.00,0.0049
1577.00,0.0050
1576.00,0.0049
1575.00,0.0048
1574.00,0.0048
1573.00,0.0048
1572.00,0.0048
1571.00,0.0047
1570.00,0.0046
1569.00,0.0045
1568.00,0.0044
1567.00,0.0044
1566.00,0.0044
1565.00,0.0044
1564.00,0.0045
1563.00,0.0045
1562.00,0.0045
1561.00,0.0045
1560.00,0.0046
1559.00,0.0046
1558.00,0.0045
1557.00,0.0046
1556.00,0.0046
1555.00,0.0046
1554.00,0.0047
1553.00,0.0047
1552.00,0.0047
1551.00,0.0047
1550.00,0.0048
1549.00,0.0050
1548.00,0.0052
1547.00,0.0053
1546.00,0.0054
1545.00,0.0056
1544.00,0.0058
1543.00,0.0059
1542.00,0.0060
1541.00,0.0061
1540.00,0.0060
1539.00,0.0058
1538.00,0.0056
1537.00,0.0055
1536.00,0.0054
1535.00,0.0053
1534.00,0.0051
1533.00,0.0049
1532.00,0.0048
1531.00,0.0047
1530.00,0.0046
1529.00,0.0046
1528.00,0.0046
1527.00,0.0046
1526.00,0.0046
1525.00,0.0047
1524.00,0.0047
1523.00,0.0047
1522.00,0.0047
1521.00,0.0047
1520.00,0.0047
1519.00,0.0047
1518.00,0.0047
1517.00,0.0047
1516.00,0.0048
1515.00,0.0048
1514.00,0.0049
1513.00,0.0050
1512.00,0.0052
1511.00,0.0052
1510.00,0.0053
1509.00,0.0053
1508.00,0.0054
1507.00,0.0055
1506.00,0.0057
1505.00,0.0059
1504.00,0.0062
1503.00,0.0063
1502.00,0.0065
1501.00,0.0066
1500.00,0.0069
1499.00,0.0070
1498.00,0.0072
1497.00,0.0075
1496.00,0.0078
1495.00,0.0081
1494.00,0.0083
1493.00,0.0086
1492.00,0.0090
1491.00,0.0094
1490.00,0.0098
1489.00,0.0103
1488.00,0.0108
1487.00,0.0113
1486.00,0.0118
1485.00,0.0124
1484.00,0.0131
1483.00,0.0139
1482.00,0.0148
1481.00,0.0159
1480.00,0.0171
1479.00,0.0183
1478.00,0.0197
1477.00,0.0216
1476.00,0.0238
1475.00,0.0263
1474.00,0.0297
1473.00,0.0348
1472.00,0.0411
1471.00,0.0474
1470.00,0.0534
1469.00,0.0597
1468.00,0.0666
1467.00,0.0742
1466.00,0.0829
1465.00,0.0923
1464.00,0.1009
1463.00,0.1072
1462.00,0.1116
1461.00,0.1151
1460.00,0.1179
1459.00,0.1201
1458.00,0.1224
1457.00,0.1247
1456.00,0.1261
1455.00,0.1265
1454.00,0.1263
1453.00,0.1255
1452.00,0.1237
1451.00,0.1203
1450.00,0.1152
1449.00,0.1077
1448.00,0.0980
1447.00,0.0875
1446.00,0.0780
1445.00,0.0698
1444.00,0.0628
1443.00,0.0570
1442.00,0.0528
1441.00,0.0498
1440.00,0.0479
1439.00,0.0468
1438.00,0.0464
1437.00,0.0457
1436.00,0.0440
1435.00,0.0411
1434.00,0.0372
1433.00,0.0327
1432.00,0.0282
1431.00,0.0242
1430.00,0.0211
1429.00,0.0188
1428.00,0.0173
1427.00,0.0163
1426.00,0.0156
1425.00,0.0150
1424.00,0.0145
1423.00,0.0141
1422.00,0.0139
1421.00,0.0137
1420.00,0.0133
1419.00,0.0130
1418.00,0.0128
1417.00,0.0125
1416.00,0.0123
1415.00,0.0122
1414.00,0.0121
1413.00,0.0120
1412.00,0.0118
1411.00,0.0118
1410.00,0.0118
1409.00,0.0116
1408.00,0.0115
1407.00,0.0114
1406.00,0.0114
1405.00,0.0114
1404.00,0.0114
1403.00,0.0115
1402.00,0.0117
1401.00,0.0118
1400.00,0.0119
1399.00,0.0121
1398.00,0.0123
1397.00,0.0125
1396.00,0.0127
1395.00,0.0131
1394.00,0.0137
1393.00,0.0142
1392.00,0.0148
1391.00,0.0158
1390.00,0.0171
1389.00,0.0188
1388.00,0.0215
1387.00,0.0256
1386.00,0.0309
1385.00,0.0376
1384.00,0.0463
1383.00,0.0578
1382.00,0.0725
1381.00,0.0907
1380.00,0.1125
1379.00,0.1364
1378.00,0.1589
1377.00,0.1750
1376.00,0.1800
1375.00,0.1713
1374.00,0.1508
1373.00,0.1258
1372.00,0.1025
1371.00,0.0830
1370.00,0.0672
1369.00,0.0549
1368.00,0.0464
1367.00,0.0410
1366.00,0.0381
1365.00,0.0369
1364.00,0.0371
1363.00,0.0383
1362.00,0.0403
1361.00,0.0423
1360.00,0.0438
1359.00,0.0441
1358.00,0.0430
1357.00,0.0404
1356.00,0.0367
1355.00,0.0326
1354.00,0.0287
1353.00,0.0253
1352.00,0.0226
1351.00,0.0204
1350.00,0.0186
1349.00,0.0171
1348.00,0.0160
1347.00,0.0151
1346.00,0.0143
1345.00,0.0137
1344.00,0.0133
1343.00,0.0129
1342.00,0.0126
1341.00,0.0123
1340.00,0.0121
1339.00,0.0119
1338.00,0.0118
1337.00,0.0118
1336.00,0.0119
1335.00,0.0120
1334.00,0.0122
1333.00,0.0126
1332.00,0.0130
1331.00,0.0133
1330.00,0.0135
1329.00,0.0134
1328.00,0.0131
1327.00,0.0126
1326.00,0.0119
1325.00,0.0113
1324.00,0.0107
1323.00,0.0101
1322.00,0.0097
1321.00,0.0093
1320.00,0.0091
1319.00,0.0088
1318.00,0.0086
1317.00,0.0085
1316.00,0.0083
1315.00,0.0082
1314.00,0.0082
1313.00,0.0083
1312.00,0.0085
1311.00,0.0089
1310.00,0.0095
1309.00,0.0103
1308.00,0.0115
1307.00,0.0130
1306.00,0.0144
1305.00,0.0155
1304.00,0.0158
1303.00,0.0155
1302.00,0.0148
1301.00,0.0140
1300.00,0.0134
1299.00,0.0131
1298.00,0.0129
1297.00,0.0127
1296.00,0.0125
1295.00,0.0122
1294.00,0.0118
1293.00,0.0114
1292.00,0.0109
1291.00,0.0104
1290.00,0.0099
1289.00,0.0095
1288.00,0.0091
1287.00,0.0089
1286.00,0.0086
1285.00,0.0084
1284.00,0.0081
1283.00,0.0079
1282.00,0.0078
1281.00,0.0076
1280.00,0.0075
1279.00,0.0075
1278.00,0.0075
1277.00,0.0075
1276.00,0.0075
1275.00,0.0074
1274.00,0.0074
1273.00,0.0074
1272.00,0.0075
1271.00,0.0075
1270.00,0.0076
1269.00,0.0077
1268.00,0.0078
1267.00,0.0080
1266.00,0.0082
1265.00,0.0084
1264.00,0.0087
1263.00,0.0091
1262.00,0.0096
1261.00,0.0102
1260.00,0.0110
1259.00,0.0120
1258.00,0.0130
1257.00,0.0138
1256.00,0.0142
1255.00,0.0140
1254.00,0.0132
1253.00,0.0122
1252.00,0.0112
1251.00,0.0104
1250.00,0.0098
1249.00,0.0093
1248.00,0.0089
1247.00,0.0087
1246.00,0.0085
1245.00,0.0085
1244.00,0.0084
1243.00,0.0084
1242.00,0.0083
1241.00,0.0081
1240.00,0.0080
1239.00,0.0079
1238.00,0.0078
1237.00,0.0078
1236.00,0.0077
1235.00,0.0077
1234.00,0.0077
1233.00,0.0076
1232.00,0.0076
1231.00,0.0075
1230.00,0.0075
1229.00,0.0075
1228.00,0.0076
1227.00,0.0077
1226.00,0.0079
1225.00,0.0081
1224.00,0.0083
1223.00,0.0085
1222.00,0.0087
1221.00,0.0090
1220.00,0.0091
1219.00,0.0092
1218.00,0.0091
1217.00,0.0090
1216.00,0.0087
1215.00,0.0085
1214.00,0.0083
1213.00,0.0080
1212.00,0.0078
1211.00,0.0076
1210.00,0.0074
1209.00,0.0072
1208.00,0.0071
1207.00,0.0070
1206.00,0.0069
1205.00,0.0068
1204.00,0.0068
1203.00,0.0068
1202.00,0.0067
1201.00,0.0067
1200.00,0.0067
1199.00,0.0067
1198.00,0.0067
1197.00,0.0067
1196.00,0.0067
1195.00,0.0067
1194.00,0.0068
1193.00,0.0068
1192.00,0.0068
1191.00,0.0069
1190.00,0.0069
1189.00,0.0070
1188.00,0.0071
1187.00,0.0072
1186.00,0.0073
1185.00,0.0074
1184.00,0.0075
1183.00,0.0077
1182.00,0.0080
1181.00,0.0083
1180.00,0.0087
1179.00,0.0093
1178.00,0.0102
1177.00,0.0113
1176.00,0.0128
1175.00,0.0148
1174.00,0.0174
1173.00,0.0207
1172.00,0.0246
1171.00,0.0289
1170.00,0.0331
1169.00,0.0366
1168.00,0.0389
1167.00,0.0397
1166.00,0.0389
1165.00,0.0371
1164.00,0.0347
1163.00,0.0321
1162.00,0.0297
1161.00,0.0277
1160.00,0.0260
1159.00,0.0246
1158.00,0.0236
1157.00,0.0227
1156.00,0.0221
1155.00,0.0215
1154.00,0.0210
1153.00,0.0204
1152.00,0.0198
1151.00,0.0190
1150.00,0.0182
1149.00,0.0172
1148.00,0.0162
1147.00,0.0152
1146.00,0.0142
1145.00,0.0134
1144.00,0.0126
1143.00,0.0120
1142.00,0.0113
1141.00,0.0107
1140.00,0.0101
1139.00,0.0096
1138.00,0.0091
1137.00,0.0087
1136.00,0.0084
1135.00,0.0081
1134.00,0.0079
1133.00,0.0078
1132.00,0.0077
1131.00,0.0076
1130.00,0.0075
1129.00,0.0074
1128.00,0.0075
1127.00,0.0076
1126.00,0.0077
1125.00,0.0077
1124.00,0.0077
1123.00,0.0077
1122.00,0.0078
1121.00,0.0079
1120.00,0.0080
1119.00,0.0080
1118.00,0.0081
1117.00,0.0082
1116.00,0.0083
1115.00,0.0084
1114.00,0.0086
1113.00,0.0087
1112.00,0.0089
1111.00,0.0092
1110.00,0.0095
1109.00,0.0099
1108.00,0.0104
1107.00,0.0110
1106.00,0.0117
1105.00,0.0124
1104.00,0.0130
1103.00,0.0133
1102.00,0.0133
1101.00,0.0130
1100.00,0.0125
1099.00,0.0119
1098.00,0.0113
1097.00,0.0107
1096.00,0.0102
1095.00,0.0098
1094.00,0.0093
1093.00,0.0090
1092.00,0.0087
1091.00,0.0086
1090.00,0.0084
1089.00,0.0083
1088.00,0.0082
1087.00,0.0081
1086.00,0.0079
1085.00,0.0078
1084.00,0.0077
1083.00,0.0076
1082.00,0.0075
1081.00,0.0074
1080.00,0.0073
1079.00,0.0072
1078.00,0.0072
1077.00,0.0072
1076.00,0.0072
1075.00,0.0072
1074.00,0.0072
1073.00,0.0071
1072.00,0.0070
1071.00,0.0070
1070.00,0.0070
1069.00,0.0070
1068.00,0.0071
1067.00,0.0071
1066.00,0.0071
1065.00,0.0071
1064.00,0.0071
1063.00,0.0071
1062.00,0.0071
1061.00,0.0072
1060.00,0.0073
1059.00,0.0074
1058.00,0.0076
1057.00,0.0077
1056.00,0.0078
1055.00,0.0078
1054.00,0.0079
1053.00,0.0080
1052.00,0.0081
1051.00,0.0083
1050.00,0.0086
1049.00,0.0089
1048.00,0.0093
1047.00,0.0097
1046.00,0.0100
1045.00,0.0102
1044.00,0.0101
1043.00,0.0099
1042.00,0.0095
1041.00,0.0093
1040.00,0.0091
1039.00,0.0090
1038.00,0.0089
1037.00,0.0088
1036.00,0.0088
1035.00,0.0087
1034.00,0.0087
1033.00,0.0086
1032.00,0.0085
1031.00,0.0085
1030.00,0.0085
1029.00,0.0086
1028.00,0.0086
1027.00,0.0086
1026.00,0.0086
1025.00,0.0086
1024.00,0.0086
1023.00,0.0087
1022.00,0.0088
1021.00,0.0088
1020.00,0.0089
1019.00,0.0090
1018.00,0.0092
1017.00,0.0094
1016.00,0.0097
1015.00,0.0100
1014.00,0.0104
1013.00,0.0109
1012.00,0.0113
1011.00,0.0117
1010.00,0.0122
1009.00,0.0127
1008.00,0.0135
1007.00,0.0145
1006.00,0.0158
1005.00,0.0174
1004.00,0.0194
1003.00,0.0221
1002.00,0.0257
1001.00,0.0301
1000.00,0.0350
999.00,0.0393
998.00,0.0418
997.00,0.0416
996.00,0.0386
995.00,0.0338
994.00,0.0285
993.00,0.0236
992.00,0.0199
991.00,0.0171
990.00,0.0152
989.00,0.0139
988.00,0.0131
987.00,0.0126
986.00,0.0124
985.00,0.0126
984.00,0.0132
983.00,0.0141
982.00,0.0155
981.00,0.0175
980.00,0.0201
979.00,0.0235
978.00,0.0278
977.00,0.0330
976.00,0.0388
975.00,0.0446
974.00,0.0492
973.00,0.0515
972.00,0.0506
971.00,0.0465
970.00,0.0404
969.00,0.0336
968.00,0.0276
967.00,0.0227
966.00,0.0192
965.00,0.0166
964.00,0.0147
963.00,0.0132
962.00,0.0121
961.00,0.0113
960.00,0.0106
959.00,0.0101
958.00,0.0097
957.00,0.0093
956.00,0.0089
955.00,0.0086
954.00,0.0084
953.00,0.0082
952.00,0.0080
951.00,0.0079
950.00,0.0078
949.00,0.0078
948.00,0.0079
947.00,0.0080
946.00,0.0082
945.00,0.0084
944.00,0.0086
943.00,0.0089
942.00,0.0091
941.00,0.0092
940.00,0.0090
939.00,0.0087
938.00,0.0084
937.00,0.0081
936.00,0.0077
935.00,0.0074
934.00,0.0069
933.00,0.0066
932.00,0.0063
931.00,0.0062
930.00,0.0061
929.00,0.0061
928.00,0.0060
927.00,0.0060
926.00,0.0060
925.00,0.0061
924.00,0.0061
923.00,0.0061
922.00,0.0062
921.00,0.0062
920.00,0.0062
919.00,0.0064
918.00,0.0065
917.00,0.0067
916.00,0.0068
915.00,0.0069
914.00,0.0070
913.00,0.0071
912.00,0.0072
911.00,0.0072
910.00,0.0073
909.00,0.0074
908.00,0.0076
907.00,0.0080
906.00,0.0086
905.00,0.0095
904.00,0.0107
903.00,0.0124
902.00,0.0143
901.00,0.0161
900.00,0.0173
899.00,0.0176
898.00,0.0169
897.00,0.0155
896.00,0.0138
895.00,0.0121
894.00,0.0107
893.00,0.0096
892.00,0.0089
891.00,0.0083
890.00,0.0079
889.00,0.0076
888.00,0.0073
887.00,0.0072
886.00,0.0071
885.00,0.0070
884.00,0.0069
883.00,0.0069
882.00,0.0070
881.00,0.0071
880.00,0.0072
879.00,0.0073
878.00,0.0074
877.00,0.0075
876.00,0.0077
875.00,0.0078
874.00,0.0078
873.00,0.0077
872.00,0.0075
871.00,0.0073
870.00,0.0071
869.00,0.0070
868.00,0.0070
867.00,0.0071
866.00,0.0072
865.00,0.0073
864.00,0.0075
863.00,0.0077
862.00,0.0079
861.00,0.0080
860.00,0.0082
859.00,0.0084
858.00,0.0086
857.00,0.0088
856.00,0.0090
855.00,0.0092
854.00,0.0095
853.00,0.0098
852.00,0.0102
851.00,0.0108
850.00,0.0115
849.00,0.0125
848.00,0.0138
847.00,0.0158
846.00,0.0188
845.00,0.0232
844.00,0.0290
843.00,0.0352
842.00,0.0401
841.00,0.0414
840.00,0.0388
839.00,0.0333
838.00,0.0273
837.00,0.0223
836.00,0.0189
835.00,0.0167
834.00,0.0154
833.00,0.0146
832.00,0.0140
831.00,0.0136
830.00,0.0131
829.00,0.0127
828.00,0.0123
827.00,0.0119
826.00,0.0116
825.00,0.0114
824.00,0.0112
823.00,0.0110
822.00,0.0111
821.00,0.0113
820.00,0.0116
819.00,0.0118
818.00,0.0120
817.00,0.0123
816.00,0.0129
815.00,0.0137
814.00,0.0147
813.00,0.0160
812.00,0.0174
811.00,0.0187
810.00,0.0196
809.00,0.0200
808.00,0.0198
807.00,0.0191
806.00,0.0180
805.00,0.0167
804.00,0.0155
803.00,0.0143
802.00,0.0133
801.00,0.0123
800.00,0.0115
799.00,0.0109
798.00,0.0104
797.00,0.0099
796.00,0.0094
795.00,0.0092
794.00,0.0090
793.00,0.0088
792.00,0.0087
791.00,0.0085
790.00,0.0082
789.00,0.0080
788.00,0.0078
787.00,0.0075
786.00,0.0072
785.00,0.0069
784.00,0.0066
783.00,0.0063
782.00,0.0060
781.00,0.0059
780.00,0.0059
779.00,0.0060
778.00,0.0062
777.00,0.0063
776.00,0.0064
775.00,0.0065
774.00,0.0067
773.00,0.0068
772.00,0.0071
771.00,0.0074
770.00,0.0076
769.00,0.0079
768.00,0.0081
767.00,0.0081
766.00,0.0081
765.00,0.0078
764.00,0.0075
763.00,0.0071
762.00,0.0067
761.00,0.0063
760.00,0.0058
759.00,0.0055
758.00,0.0053
757.00,0.0052
756.00,0.0051
755.00,0.0051
754.00,0.0050
753.00,0.0050
752.00,0.0049
751.00,0.0049
750.00,0.0049
749.00,0.0049
748.00,0.0050
747.00,0.0051
746.00,0.0053
745.00,0.0054
744.00,0.0053
743.00,0.0053
742.00,0.0053
741.00,0.0054
740.00,0.0056
739.00,0.0058
738.00,0.0060
737.00,0.0061
736.00,0.0061
735.00,0.0061
734.00,0.0062
733.00,0.0063
732.00,0.0064
731.00,0.0065
730.00,0.0065
729.00,0.0063
728.00,0.0060
727.00,0.0058
726.00,0.0057
725.00,0.0058
724.00,0.0058
723.00,0.0057
722.00,0.0055
721.00,0.0054
720.00,0.0053
719.00,0.0053
718.00,0.0054
717.00,0.0055
716.00,0.0056
715.00,0.0055
714.00,0.0054
713.00,0.0053
712.00,0.0052
711.00,0.0051
710.00,0.0051
709.00,0.0049
708.00,0.0048
707.00,0.0048
706.00,0.0048
705.00,0.0050
704.00,0.0050
703.00,0.0050
702.00,0.0049
701.00,0.0049
700.00,0.0048
699.00,0.0046
698.00,0.0043
697.00,0.0041
696.00,0.0042
695.00,0.0044
694.00,0.0046
693.00,0.0046
692.00,0.0046
691.00,0.0046
690.00,0.0046
689.00,0.0046
688.00,0.0046
687.00,0.0047
686.00,0.0046
685.00,0.0044
684.00,0.0042
683.00,0.0041
682.00,0.0042
681.00,0.0043
680.00,0.0044
679.00,0.0045
678.00,0.0045
677.00,0.0045
676.00,0.0046
675.00,0.0047
674.00,0.0049
673.00,0.0049
672.00,0.0048
671.00,0.0047
670.00,0.0047
669.00,0.0050
668.00,0.0054
667.00,0.0057
666.00,0.0053
665.00,0.0049
664.00,0.0047
663.00,0.0047
662.00,0.0046
661.00,0.0045
660.00,0.0043
659.00,0.0042
658.00,0.0040
657.00,0.0039
656.00,0.0038
655.00,0.0039
654.00,0.0041
653.00,0.0043
652.00,0.0044
651.00,0.0045
650.00,0.0045
649.00,0.0046
648.00,0.0047
647.00,0.0047
646.00,0.0047
645.00,0.0045
644.00,0.0043
643.00,0.0042
642.00,0.0045
641.00,0.0049
640.00,0.0052
639.00,0.0052
638.00,0.0051
637.00,0.0049
636.00,0.0048
635.00,0.0047
634.00,0.0046
633.00,0.0046
632.00,0.0045
631.00,0.0044
630.00,0.0044
629.00,0.0044
628.00,0.0045
627.00,0.0046
626.00,0.0047
625.00,0.0048
624.00,0.0048
623.00,0.0049
622.00,0.0049
621.00,0.0047
620.00,0.0043
619.00,0.0042
618.00,0.0043
617.00,0.0047
616.00,0.0052
615.00,0.0055
614.00,0.0054
613.00,0.0052
612.00,0.0049
611.00,0.0048
610.00,0.0047
609.00,0.0048
608.00,0.0050
607.00,0.0052
606.00,0.0053
605.00,0.0052
604.00,0.0050
603.00,0.0049
602.00,0.0048
601.00,0.0049
600.00,0.0049
599.00,0.0050
598.00,0.0052
597.00,0.0053
596.00,0.0053
595.00,0.0052
594.00,0.0050
593.00,0.0048
592.00,0.0047
591.00,0.0047
590.00,0.0048
589.00,0.0049
588.00,0.0052
587.00,0.0055
586.00,0.0056
585.00,0.0056
584.00,0.0056
583.00,0.0058
582.00,0.0059
581.00,0.0059
580.00,0.0057
579.00,0.0055
578.00,0.0055
577.00,0.0055
576.00,0.0055
575.00,0.0054
574.00,0.0054
573.00,0.0053
572.00,0.0054
571.00,0.0057
570.00,0.0059
569.00,0.0061
568.00,0.0060
567.00,0.0059
566.00,0.0060
565.00,0.0061
564.00,0.0061
563.00,0.0060
562.00,0.0057
561.00,0.0054
560.00,0.0053
559.00,0.0055
558.00,0.0060
557.00,0.0062
556.00,0.0063
555.00,0.0062
554.00,0.0064
553.00,0.0067
552.00,0.0070
551.00,0.0072
550.00,0.0070
549.00,0.0065
548.00,0.0058
547.00,0.0051
546.00,0.0048
545.00,0.0050
544.00,0.0055
543.00,0.0061
542.00,0.0066
541.00,0.0068
540.00,0.0067
539.00,0.0066
538.00,0.0067
537.00,0.0069
536.00,0.0072
535.00,0.0074
534.00,0.0078
533.00,0.0081
532.00,0.0083
531.00,0.0083
530.00,0.0083
529.00,0.0083
528.00,0.0082
527.00,0.0082
526.00,0.0081
525.00,0.0081
524.00,0.0082
523.00,0.0084
522.00,0.0085
521.00,0.0083
520.00,0.0079
519.00,0.0075
518.00,0.0074
517.00,0.0072
516.00,0.0068
515.00,0.0063
514.00,0.0060
513.00,0.0057
512.00,0.0053
511.00,0.0051
510.00,0.0054
509.00,0.0059
508.00,0.0064
507.00,0.0065
506.00,0.0063
505.00,0.0059
504.00,0.0054
503.00,0.0051
502.00,0.0054
501.00,0.0059
500.00,0.0063
499.00,0.0064
498.00,0.0062
497.00,0.0058
496.00,0.0052
495.00,0.0048
494.00,0.0048
493.00,0.0051
492.00,0.0053
491.00,0.0051
490.00,0.0050
489.00,0.0050
488.00,0.0052
487.00,0.0052
486.00,0.0050
485.00,0.0048
484.00,0.0048
483.00,0.0052
482.00,0.0061
481.00,0.0072
480.00,0.0079
479.00,0.0080
478.00,0.0075
477.00,0.0068
476.00,0.0066
475.00,0.0074
474.00,0.0090
473.00,0.0106
472.00,0.0114
471.00,0.0112
470.00,0.0104
469.00,0.0096
468.00,0.0091
467.00,0.0087
466.00,0.0086
465.00,0.0085
464.00,0.0083
463.00,0.0082
462.00,0.0087
461.00,0.0098
460.00,0.0116
459.00,0.0137
458.00,0.0154
457.00,0.0162
456.00,0.0157
455.00,0.0146
454.00,0.0135
453.00,0.0127
452.00,0.0117
451.00,0.0103
450.00,0.0089
