Created as New Dataset,Sample 082 By Administrator Date Tuesday, September 09 2025
cm-1,A
4000.00,0.0009
3999.00,0.0009
3998.00,0.0009
3997.00,0.0009
3996.00,0.0009
3995.00,0.0010
3994.00,0.0010
3993.00,0.0010
3992.00,0.0010
3991.00,0.0009
3990.00,0.0009
3989.00,0.0008
3988.00,0.0008
3987.00,0.0008
3986.00,0.0008
3985.00,0.0008
3984.00,0.0008
3983.00,0.0008
3982.00,0.0008
3981.00,0.0008
3980.00,0.0007
3979.00,0.0007
3978.00,0.0007
3977.00,0.0008
3976.00,0.0008
3975.00,0.0008
3974.00,0.0007
3973.00,0.0007
3972.00,0.0007
3971.00,0.0007
3970.00,0.0007
3969.00,0.0007
3968.00,0.0007
3967.00,0.0007
3966.00,0.0007
3965.00,0.0007
3964.00,0.0007
3963.00,0.0007
3962.00,0.0007
3961.00,0.0007
3960.00,0.0007
3959.00,0.0006
3958.00,0.0006
3957.00,0.0006
3956.00,0.0006
3955.00,0.0006
3954.00,0.0006
3953.00,0.0006
3952.00,0.0006
3951.00,0.0006
3950.00,0.0006
3949.00,0.0006
3948.00,0.0006
3947.00,0.0006
3946.00,0.0007
3945.00,0.0007
3944.00,0.0007
3943.00,0.0007
3942.00,0.0008
3941.00,0.0008
3940.00,0.0008
3939.00,0.0008
3938.00,0.0008
3937.00,0.0007
3936.00,0.0007
3935.00,0.0007
3934.00,0.0007
3933.00,0.0008
3932.00,0.0008
3931.00,0.0009
3930.00,0.0009
3929.00,0.0008
3928.00,0.0008
3927.00,0.0008
3926.00,0.0008
3925.00,0.0008
3924.00,0.0008
3923.00,0.0008
3922.00,0.0008
3921.00,0.0008
3920.00,0.0008
3919.00,0.0008
3918.00,0.0008
3917.00,0.0007
3916.00,0.0007
3915.00,0.0007
3914.00,0.0007
3913.00,0.0007
3912.00,0.0007
3911.00,0.0007
3910.00,0.0007
3909.00,0.0007
3908.00,0.0007
3907.00,0.0007
3906.00,0.0007
3905.00,0.0007
3904.00,0.0008
3903.00,0.0008
3902.00,0.0008
3901.00,0.0008
3900.00,0.0007
3899.00,0.0007
3898.00,0.0007
3897.00,0.0007
3896.00,0.0007
3895.00,0.0008
3894.00,0.0008
3893.00,0.0007
3892.00,0.0007
3891.00,0.0007
3890.00,0.0007
3889.00,0.0007
3888.00,0.0007
3887.00,0.0007
3886.00,0.0007
3885.00,0.0007
3884.00,0.0007
3883.00,0.0007
3882.00,0.0007
3881.00,0.0007
3880.00,0.0007
3879.00,0.0007
3878.00,0.0007
3877.00,0.0007
3876.00,0.0007
3875.00,0.0007
3874.00,0.0008
3873.00,0.0008
3872.00,0.0007
3871.00,0.0007
3870.00,0.0007
3869.00,0.0007
3868.00,0.0007
3867.00,0.0007
3866.00,0.0006
3865.00,0.0005
3864.00,0.0005
3863.00,0.0006
3862.00,0.0006
3861.00,0.0006
3860.00,0.0007
3859.00,0.0007
3858.00,0.0008
3857.00,0.0009
3856.00,0.0009
3855.00,0.0009
3854.00,0.0009
3853.00,0.0008
3852.00,0.0008
3851.00,0.0007
3850.00,0.0007
3849.00,0.0007
3848.00,0.0007
3847.00,0.0007
3846.00,0.0007
3845.00,0.0007
3844.00,0.0007
3843.00,0.0007
3842.00,0.0007
3841.00,0.0007
3840.00,0.0007
3839.00,0.0008
3838.00,0.0008
3837.00,0.0008
3836.00,0.0007
3835.00,0.0007
3834.00,0.0006
3833.00,0.0006
3832.00,0.0006
3831.00,0.0006
3830.00,0.0006
3829.00,0.0007
3828.00,0.0007
3827.00,0.0007
3826.00,0.0008
3825.00,0.0008
3824.00,0.0008
3823.00,0.0007
3822.00,0.0007
3821.00,0.0007
3820.00,0.0008
3819.00,0.0008
3818.00,0.0008
3817.00,0.0007
3816.00,0.0007
3815.00,0.0007
3814.00,0.0007
3813.00,0.0007
3812.00,0.0007
3811.00,0.0007
3810.00,0.0008
3809.00,0.0008
3808.00,0.0008
3807.00,0.0008
3806.00,0.0008
3805.00,0.0008
3804.00,0.0008
3803.00,0.0008
3802.00,0.0008
3801.00,0.0007
3800.00,0.0007
3799.00,0.0007
3798.00,0.0007
3797.00,0.0006
3796.00,0.0006
3795.00,0.0006
3794.00,0.0006
3793.00,0.0006
3792.00,0.0006
3791.00,0.0006
3790.00,0.0006
3789.00,0.0006
3788.00,0.0006
3787.00,0.0006
3786.00,0.0006
3785.00,0.0006
3784.00,0.0006
3783.00,0.0007
3782.00,0.0007
3781.00,0.0007
3780.00,0.0007
3779.00,0.0007
3778.00,0.0007
3777.00,0.0008
3776.00,0.0007
3775.00,0.0007
3774.00,0.0007
3773.00,0.0007
3772.00,0.0007
3771.00,0.0008
3770.00,0.0008
3769.00,0.0009
3768.00,0.0009
3767.00,0.0008
3766.00,0.0008
3765.00,0.0008
3764.00,0.0008
3763.00,0.0008
3762.00,0.0008
3761.00,0.0008
3760.00,0.0009
3759.00,0.0009
3758.00,0.0009
3757.00,0.0009
3756.00,0.0009
3755.00,0.0009
3754.00,0.0009
3753.00,0.0010
3752.00,0.0010
3751.00,0.0010
3750.00,0.0009
3749.00,0.0009
3748.00,0.0010
3747.00,0.0009
3746.00,0.0009
3745.00,0.0008
3744.00,0.0008
3743.00,0.0008
3742.00,0.0008
3741.00,0.0007
3740.00,0.0007
3739.00,0.0007
3738.00,0.0007
3737.00,0.0006
3736.00,0.0006
3735.00,0.0006
3734.00,0.0006
3733.00,0.0006
3732.00,0.0006
3731.00,0.0006
3730.00,0.0006
3729.00,0.0005
3728.00,0.0005
3727.00,0.0005
3726.00,0.0005
3725.00,0.0005
3724.00,0.0005
3723.00,0.0006
3722.00,0.0006
3721.00,0.0007
3720.00,0.0007
3719.00,0.0007
3718.00,0.0006
3717.00,0.0006
3716.00,0.0006
3715.00,0.0006
3714.00,0.0006
3713.00,0.0006
3712.00,0.0006
3711.00,0.0006
3710.00,0.0006
3709.00,0.0006
3708.00,0.0006
3707.00,0.0005
3706.00,0.0005
3705.00,0.0005
3704.00,0.0004
3703.00,0.0004
3702.00,0.0005
3701.00,0.0005
3700.00,0.0005
3699.00,0.0005
3698.00,0.0005
3697.00,0.0005
3696.00,0.0005
3695.00,0.0006
3694.00,0.0006
3693.00,0.0006
3692.00,0.0006
3691.00,0.0006
3690.00,0.0006
3689.00,0.0006
3688.00,0.0006
3687.00,0.0006
3686.00,0.0005
3685.00,0.0005
3684.00,0.0006
3683.00,0.0006
3682.00,0.0006
3681.00,0.0006
3680.00,0.0006
3679.00,0.0007
3678.00,0.0007
3677.00,0.0007
3676.00,0.0008
3675.00,0.0008
3674.00,0.0008
3673.00,0.0008
3672.00,0.0007
3671.00,0.0007
3670.00,0.0007
3669.00,0.0007
3668.00,0.0007
3667.00,0.0006
3666.00,0.0006
3665.00,0.0006
3664.00,0.0006
3663.00,0.0006
3662.00,0.0006
3661.00,0.0006
3660.00,0.0006
3659.00,0.0006
3658.00,0.0006
3657.00,0.0007
3656.00,0.0007
3655.00,0.0007
3654.00,0.0008
3653.00,0.0008
3652.00,0.0008
3651.00,0.0008
3650.00,0.0008
3649.00,0.0008
3648.00,0.0008
3647.00,0.0008
3646.00,0.0008
3645.00,0.0007
3644.00,0.0007
3643.00,0.0006
3642.00,0.0006
3641.00,0.0006
3640.00,0.0006
3639.00,0.0006
3638.00,0.0007
3637.00,0.0007
3636.00,0.0008
3635.00,0.0008
3634.00,0.0008
3633.00,0.0008
3632.00,0.0008
3631.00,0.0008
3630.00,0.0008
3629.00,0.0008
3628.00,0.0008
3627.00,0.0007
3626.00,0.0007
3625.00,0.0007
3624.00,0.0008
3623.00,0.0008
3622.00,0.0008
3621.00,0.0007
3620.00,0.0007
3619.00,0.0007
3618.00,0.0008
3617.00,0.0008
3616.00,0.0008
3615.00,0.0008
3614.00,0.0008
3613.00,0.0008
3612.00,0.0009
3611.00,0.0010
3610.00,0.0010
3609.00,0.0010
3608.00,0.0010
3607.00,0.0010
3606.00,0.0010
3605.00,0.0009
3604.00,0.0009
3603.00,0.0008
3602.00,0.0008
3601.00,0.0008
3600.00,0.0008
3599.00,0.0009
3598.00,0.0009
3597.00,0.0010
3596.00,0.0010
3595.00,0.0010
3594.00,0.0010
3593.00,0.0011
3592.00,0.0011
3591.00,0.0011
3590.00,0.0011
3589.00,0.0012
3588.00,0.0012
3587.00,0.0012
3586.00,0.0012
3585.00,0.0012
3584.00,0.0012
3583.00,0.0012
3582.00,0.0012
3581.00,0.0012
3580.00,0.0013
3579.00,0.0013
3578.00,0.0013
3577.00,0.0013
3576.00,0.0013
3575.00,0.0014
3574.00,0.0014
3573.00,0.0014
3572.00,0.0015
3571.00,0.0015
3570.00,0.0016
3569.00,0.0016
3568.00,0.0016
3567.00,0.0017
3566.00,0.0017
3565.00,0.0017
3564.00,0.0016
3563.00,0.0016
3562.00,0.0016
3561.00,0.0016
3560.00,0.0016
3559.00,0.0016
3558.00,0.0016
3557.00,0.0016
3556.00,0.0017
3555.00,0.0017
3554.00,0.0018
3553.00,0.0018
3552.00,0.0019
3551.00,0.0019
3550.00,0.0018
3549.00,0.0018
3548.00,0.0018
3547.00,0.0019
3546.00,0.0019
3545.00,0.0020
3544.00,0.0020
3543.00,0.0020
3542.00,0.0021
3541.00,0.0021
3540.00,0.0021
3539.00,0.0021
3538.00,0.0022
3537.00,0.0022
3536.00,0.0022
3535.00,0.0022
3534.00,0.0022
3533.00,0.0022
3532.00,0.0022
3531.00,0.0023
3530.00,0.0023
3529.00,0.0024
3528.00,0.0025
3527.00,0.0025
3526.00,0.0025
3525.00,0.0025
3524.00,0.0025
3523.00,0.0025
3522.00,0.0025
3521.00,0.0025
3520.00,0.0025
3519.00,0.0025
3518.00,0.0025
3517.00,0.0025
3516.00,0.0026
3515.00,0.0026
3514.00,0.0026
3513.00,0.0026
3512.00,0.0027
3511.00,0.0027
3510.00,0.0027
3509.00,0.0028
3508.00,0.0028
3507.00,0.0028
3506.00,0.0029
3505.00,0.0029
3504.00,0.0029
3503.00,0.0029
3502.00,0.0029
3501.00,0.0029
3500.00,0.0029
3499.00,0.0029
3498.00,0.0029
3497.00,0.0029
3496.00,0.0030
3495.00,0.0030
3494.00,0.0031
3493.00,0.0031
3492.00,0.0032
3491.00,0.0032
3490.00,0.0032
3489.00,0.0033
3488.00,0.0033
3487.00,0.0033
3486.00,0.0033
3485.00,0.0033
3484.00,0.0033
3483.00,0.0033
3482.00,0.0033
3481.00,0.0033
3480.00,0.0033
3479.00,0.0033
3478.00,0.0033
3477.00,0.0034
3476.00,0.0034
3475.00,0.0035
3474.00,0.0035
3473.00,0.0036
3472.00,0.0036
3471.00,0.0036
3470.00,0.0036
3469.00,0.0036
3468.00,0.0036
3467.00,0.0036
3466.00,0.0036
3465.00,0.0036
3464.00,0.0036
3463.00,0.0036
3462.00,0.0037
3461.00,0.0037
3460.00,0.0037
3459.00,0.0038
3458.00,0.0038
3457.00,0.0038
3456.00,0.0039
3455.00,0.0039
3454.00,0.0039
3453.00,0.0039
3452.00,0.0039
3451.00,0.0039
3450.00,0.0039
3449.00,0.0040
3448.00,0.0040
3447.00,0.0041
3446.00,0.0041
3445.00,0.0041
3444.00,0.0041
3443.00,0.0041
3442.00,0.0041
3441.00,0.0041
3440.00,0.0041
3439.00,0.0041
3438.00,0.0041
3437.00,0.0042
3436.00,0.0042
3435.00,0.0043
3434.00,0.0043
3433.00,0.0043
3432.00,0.0043
3431.00,0.0043
3430.00,0.0043
3429.00,0.0043
3428.00,0.0043
3427.00,0.0044
3426.00,0.0044
3425.00,0.0045
3424.00,0.0045
3423.00,0.0045
3422.00,0.0045
3421.00,0.0045
3420.00,0.0045
3419.00,0.0045
3418.00,0.0045
3417.00,0.0046
3416.00,0.0046
3415.00,0.0046
3414.00,0.0047
3413.00,0.0046
3412.00,0.0046
3411.00,0.0046
3410.00,0.0046
3409.00,0.0046
3408.00,0.0047
3407.00,0.0047
3406.00,0.0048
3405.00,0.0048
3404.00,0.0048
3403.00,0.0048
3402.00,0.0049
3401.00,0.0049
3400.00,0.0049
3399.00,0.0049
3398.00,0.0048
3397.00,0.0048
3396.00,0.0048
3395.00,0.0048
3394.00,0.0048
3393.00,0.0048
3392.00,0.0048
3391.00,0.0049
3390.00,0.0049
3389.00,0.0049
3388.00,0.0049
3387.00,0.0048
3386.00,0.0048
3385.00,0.0048
3384.00,0.0048
3383.00,0.0048
3382.00,0.0048
3381.00,0.0048
3380.00,0.0049
3379.00,0.0049
3378.00,0.0049
3377.00,0.0049
3376.00,0.0049
3375.00,0.0049
3374.00,0.0049
3373.00,0.0049
3372.00,0.0049
3371.00,0.0049
3370.00,0.0049
3369.00,0.0049
3368.00,0.0049
3367.00,0.0049
3366.00,0.0049
3365.00,0.0049
3364.00,0.0049
3363.00,0.0049
3362.00,0.0049
3361.00,0.0049
3360.00,0.0049
3359.00,0.0049
3358.00,0.0049
3357.00,0.0049
3356.00,0.0049
3355.00,0.0049
3354.00,0.0049
3353.00,0.0049
3352.00,0.0049
3351.00,0.0049
3350.00,0.0049
3349.00,0.0049
3348.00,0.0049
3347.00,0.0049
3346.00,0.0049
3345.00,0.0049
3344.00,0.0049
3343.00,0.0049
3342.00,0.0049
3341.00,0.0049
3340.00,0.0049
3339.00,0.0049
3338.00,0.0048
3337.00,0.0048
3336.00,0.0048
3335.00,0.0048
3334.00,0.0048
3333.00,0.0048
3332.00,0.0048
3331.00,0.0048
3330.00,0.0048
3329.00,0.0047
3328.00,0.0047
3327.00,0.0047
3326.00,0.0047
3325.00,0.0046
3324.00,0.0046
3323.00,0.0045
3322.00,0.0045
3321.00,0.0045
3320.00,0.0045
3319.00,0.0045
3318.00,0.0045
3317.00,0.0044
3316.00,0.0044
3315.00,0.0045
3314.00,0.0045
3313.00,0.0045
3312.00,0.0045
3311.00,0.0045
3310.00,0.0044
3309.00,0.0044
3308.00,0.0045
3307.00,0.0045
3306.00,0.0045
3305.00,0.0046
3304.00,0.0046
3303.00,0.0046
3302.00,0.0046
3301.00,0.0046
3300.00,0.0045
3299.00,0.0045
3298.00,0.0045
3297.00,0.0045
3296.00,0.0045
3295.00,0.0044
3294.00,0.0044
3293.00,0.0043
3292.00,0.0043
3291.00,0.0043
3290.00,0.0043
3289.00,0.0043
3288.00,0.0043
3287.00,0.0043
3286.00,0.0043
3285.00,0.0043
3284.00,0.0042
3283.00,0.0042
3282.00,0.0043
3281.00,0.0043
3280.00,0.0042
3279.00,0.0042
3278.00,0.0042
3277.00,0.0042
3276.00,0.0042
3275.00,0.0042
3274.00,0.0042
3273.00,0.0042
3272.00,0.0042
3271.00,0.0041
3270.00,0.0041
3269.00,0.0040
3268.00,0.0041
3267.00,0.0041
3266.00,0.0041
3265.00,0.0041
3264.00,0.0041
3263.00,0.0041
3262.00,0.0041
3261.00,0.0041
3260.00,0.0040
3259.00,0.0040
3258.00,0.0040
3257.00,0.0040
3256.00,0.0040
3255.00,0.0040
3254.00,0.0040
3253.00,0.0040
3252.00,0.0040
3251.00,0.0039
3250.00,0.0039
3249.00,0.0039
3248.00,0.0039
3247.00,0.0039
3246.00,0.0039
3245.00,0.0039
3244.00,0.0039
3243.00,0.0039
3242.00,0.0038
3241.00,0.0038
3240.00,0.0038
3239.00,0.0038
3238.00,0.0038
3237.00,0.0038
3236.00,0.0039
3235.00,0.0039
3234.00,0.0039
3233.00,0.0039
3232.00,0.0039
3231.00,0.0039
3230.00,0.0039
3229.00,0.0039
3228.00,0.0039
3227.00,0.0040
3226.00,0.0040
3225.00,0.0040
3224.00,0.0040
3223.00,0.0040
3222.00,0.0040
3221.00,0.0041
3220.00,0.0041
3219.00,0.0042
3218.00,0.0042
3217.00,0.0042
3216.00,0.0042
3215.00,0.0042
3214.00,0.0042
3213.00,0.0042
3212.00,0.0042
3211.00,0.0042
3210.00,0.0042
3209.00,0.0042
3208.00,0.0043
3207.00,0.0043
3206.00,0.0043
3205.00,0.0043
3204.00,0.0043
3203.00,0.0043
3202.00,0.0043
3201.00,0.0043
3200.00,0.0043
3199.00,0.0043
3198.00,0.0044
3197.00,0.0044
3196.00,0.0044
3195.00,0.0044
3194.00,0.0043
3193.00,0.0043
3192.00,0.0043
3191.00,0.0043
3190.00,0.0043
3189.00,0.0043
3188.00,0.0043
3187.00,0.0042
3186.00,0.0042
3185.00,0.0042
3184.00,0.0041
3183.00,0.0041
3182.00,0.0041
3181.00,0.0041
3180.00,0.0040
3179.00,0.0040
3178.00,0.0040
3177.00,0.0040
3176.00,0.0040
3175.00,0.0040
3174.00,0.0040
3173.00,0.0040
3172.00,0.0039
3171.00,0.0039
3170.00,0.0038
3169.00,0.0038
3168.00,0.0038
3167.00,0.0038
3166.00,0.0038
3165.00,0.0038
3164.00,0.0038
3163.00,0.0038
3162.00,0.0038
3161.00,0.0038
3160.00,0.0038
3159.00,0.0037
3158.00,0.0037
3157.00,0.0037
3156.00,0.0037
3155.00,0.0037
3154.00,0.0037
3153.00,0.0037
3152.00,0.0037
3151.00,0.0037
3150.00,0.0037
3149.00,0.0037
3148.00,0.0037
3147.00,0.0036
3146.00,0.0036
3145.00,0.0036
3144.00,0.0035
3143.00,0.0035
3142.00,0.0035
3141.00,0.0035
3140.00,0.0035
3139.00,0.0035
3138.00,0.0035
3137.00,0.0034
3136.00,0.0034
3135.00,0.0034
3134.00,0.0034
3133.00,0.0034
3132.00,0.0033
3131.00,0.0033
3130.00,0.0032
3129.00,0.0032
3128.00,0.0032
3127.00,0.0032
3126.00,0.0032
3125.00,0.0032
3124.00,0.0031
3123.00,0.0031
3122.00,0.0030
3121.00,0.0030
3120.00,0.0030
3119.00,0.0030
3118.00,0.0030
3117.00,0.0030
3116.00,0.0030
3115.00,0.0030
3114.00,0.0030
3113.00,0.0030
3112.00,0.0030
3111.00,0.0030
3110.00,0.0030
3109.00,0.0030
3108.00,0.0030
3107.00,0.0030
3106.00,0.0030
3105.00,0.0029
3104.00,0.0029
3103.00,0.0029
3102.00,0.0028
3101.00,0.0028
3100.00,0.0028
3099.00,0.0028
3098.00,0.0028
3097.00,0.0028
3096.00,0.0028
3095.00,0.0028
3094.00,0.0027
3093.00,0.0027
3092.00,0.0027
3091.00,0.0028
3090.00,0.0028
3089.00,0.0028
3088.00,0.0028
3087.00,0.0028
3086.00,0.0028
3085.00,0.0028
3084.00,0.0028
3083.00,0.0028
3082.00,0.0027
3081.00,0.0027
3080.00,0.0027
3079.00,0.0027
3078.00,0.0027
3077.00,0.0027
3076.00,0.0027
3075.00,0.0028
3074.00,0.0028
3073.00,0.0028
3072.00,0.0028
3071.00,0.0028
3070.00,0.0028
3069.00,0.0028
3068.00,0.0028
3067.00,0.0028
3066.00,0.0028
3065.00,0.0028
3064.00,0.0029
3063.00,0.0029
3062.00,0.0029
3061.00,0.0030
3060.00,0.0030
3059.00,0.0031
3058.00,0.0030
3057.00,0.0030
3056.00,0.0030
3055.00,0.0030
3054.00,0.0030
3053.00,0.0031
3052.00,0.0031
3051.00,0.0032
3050.00,0.0032
3049.00,0.0032
3048.00,0.0032
3047.00,0.0032
3046.00,0.0033
3045.00,0.0033
3044.00,0.0033
3043.00,0.0033
3042.00,0.0033
3041.00,0.0033
3040.00,0.0033
3039.00,0.0033
3038.00,0.0034
3037.00,0.0035
3036.00,0.0035
3035.00,0.0035
3034.00,0.0036
3033.00,0.0036
3032.00,0.0036
3031.00,0.0037
3030.00,0.0037
3029.00,0.0038
3028.00,0.0038
3027.00,0.0039
3026.00,0.0039
3025.00,0.0040
3024.00,0.0040
3023.00,0.0041
3022.00,0.0042
3021.00,0.0043
3020.00,0.0044
3019.00,0.0045
3018.00,0.0045
3017.00,0.0046
3016.00,0.0047
3015.00,0.0048
3014.00,0.0050
3013.00,0.0051
3012.00,0.0052
3011.00,0.0053
3010.00,0.0054
3009.00,0.0056
3008.00,0.0057
3007.00,0.0059
3006.00,0.0061
3005.00,0.0063
3004.00,0.0066
3003.00,0.0068
3002.00,0.0071
3001.00,0.0073
3000.00,0.0076
2999.00,0.0079
2998.00,0.0082
2997.00,0.0086
2996.00,0.0089
2995.00,0.0093
2994.00,0.0098
2993.00,0.0102
2992.00,0.0107
2991.00,0.0113
2990.00,0.0119
2989.00,0.0127
2988.00,0.0135
2987.00,0.0144
2986.00,0.0154
2985.00,0.0166
2984.00,0.0178
2983.00,0.0192
2982.00,0.0207
2981.00,0.0224
2980.00,0.0243
2979.00,0.0264
2978.00,0.0288
2977.00,0.0316
2976.00,0.0347
2975.00,0.0383
2974.00,0.0424
2973.00,0.0470
2972.00,0.0521
2971.00,0.0579
2970.00,0.0642
2969.00,0.0710
2968.00,0.0784
2967.00,0.0861
2966.00,0.0940
2965.00,0.1019
2964.00,0.1093
2963.00,0.1161
2962.00,0.1220
2961.00,0.1271
2960.00,0.1315
2959.00,0.1358
2958.00,0.1404
2957.00,0.1459
2956.00,0.1527
2955.00,0.1610
2954.00,0.1704
2953.00,0.1804
2952.00,0.1901
2951.00,0.1982
2950.00,0.2032
2949.00,0.2041
2948.00,0.2002
2947.00,0.1916
2946.00,0.1794
2945.00,0.1652
2944.00,0.1507
2943.00,0.1375
2942.00,0.1266
2941.00,0.1185
2940.00,0.1133
2939.00,0.1108
2938.00,0.1107
2937.00,0.1127
2936.00,0.1166
2935.00,0.1223
2934.00,0.1296
2933.00,0.1384
2932.00,0.1485
2931.00,0.1596
2930.00,0.1715
2929.00,0.1838
2928.00,0.1963
2927.00,0.2085
2926.00,0.2205
2925.00,0.2320
2924.00,0.2432
2923.00,0.2544
2922.00,0.2655
2921.00,0.2764
2920.00,0.2864
2919.00,0.2945
2918.00,0.2994
2917.00,0.3002
2916.00,0.2965
2915.00,0.2887
2914.00,0.2779
2913.00,0.2653
2912.00,0.2523
2911.00,0.2397
2910.00,0.2281
2909.00,0.2174
2908.00,0.2075
2907.00,0.1982
2906.00,0.1893
2905.00,0.1807
2904.00,0.1722
2903.00,0.1640
2902.00,0.1562
2901.00,0.1487
2900.00,0.1417
2899.00,0.1351
2898.00,0.1291
2897.00,0.1237
2896.00,0.1190
2895.00,0.1151
2894.00,0.1119
2893.00,0.1095
2892.00,0.1078
2891.00,0.1068
2890.00,0.1065
2889.00,0.1067
2888.00,0.1073
2887.00,0.1083
2886.00,0.1096
2885.00,0.1114
2884.00,0.1137
2883.00,0.1166
2882.00,0.1200
2881.00,0.1238
2880.00,0.1277
2879.00,0.1311
2878.00,0.1335
2877.00,0.1347
2876.00,0.1346
2875.00,0.1338
2874.00,0.1329
2873.00,0.1324
2872.00,0.1329
2871.00,0.1343
2870.00,0.1365
2869.00,0.1390
2868.00,0.1409
2867.00,0.1412
2866.00,0.1389
2865.00,0.1334
2864.00,0.1251
2863.00,0.1147
2862.00,0.1037
2861.00,0.0931
2860.00,0.0838
2859.00,0.0762
2858.00,0.0703
2857.00,0.0660
2856.00,0.0630
2855.00,0.0611
2854.00,0.0602
2853.00,0.0599
2852.00,0.0604
2851.00,0.0615
2850.00,0.0634
2849.00,0.0660
2848.00,0.0693
2847.00,0.0736
2846.00,0.0787
2845.00,0.0847
2844.00,0.0916
2843.00,0.0990
2842.00,0.1066
2841.00,0.1139
2840.00,0.1201
2839.00,0.1242
2838.00,0.1254
2837.00,0.1230
2836.00,0.1172
2835.00,0.1083
2834.00,0.0976
2833.00,0.0861
2832.00,0.0751
2831.00,0.0653
2830.00,0.0570
2829.00,0.0502
2828.00,0.0447
2827.00,0.0403
2826.00,0.0368
2825.00,0.0338
2824.00,0.0314
2823.00,0.0294
2822.00,0.0277
2821.00,0.0262
2820.00,0.0250
2819.00,0.0239
2818.00,0.0229
2817.00,0.0220
2816.00,0.0212
2815.00,0.0206
2814.00,0.0199
2813.00,0.0193
2812.00,0.0188
2811.00,0.0182
2810.00,0.0176
2809.00,0.0170
2808.00,0.0164
2807.00,0.0157
2806.00,0.0151
2805.00,0.0144
2804.00,0.0137
2803.00,0.0131
2802.00,0.0125
2801.00,0.0120
2800.00,0.0116
2799.00,0.0113
2798.00,0.0110
2797.00,0.0107
2796.00,0.0104
2795.00,0.0102
2794.00,0.0099
2793.00,0.0097
2792.00,0.0094
2791.00,0.0091
2790.00,0.0088
2789.00,0.0085
2788.00,0.0082
2787.00,0.0080
2786.00,0.0077
2785.00,0.0075
2784.00,0.0073
2783.00,0.0071
2782.00,0.0069
2781.00,0.0067
2780.00,0.0066
2779.00,0.0064
2778.00,0.0063
2777.00,0.0061
2776.00,0.0060
2775.00,0.0059
2774.00,0.0058
2773.00,0.0057
2772.00,0.0057
2771.00,0.0056
2770.00,0.0056
2769.00,0.0056
2768.00,0.0055
2767.00,0.0055
2766.00,0.0055
2765.00,0.0054
2764.00,0.0054
2763.00,0.0054
2762.00,0.0054
2761.00,0.0054
2760.00,0.0053
2759.00,0.0053
2758.00,0.0052
2757.00,0.0052
2756.00,0.0052
2755.00,0.0051
2754.00,0.0051
2753.00,0.0051
2752.00,0.0050
2751.00,0.0050
2750.00,0.0051
2749.00,0.0051
2748.00,0.0051
2747.00,0.0052
2746.00,0.0052
2745.00,0.0053
2744.00,0.0053
2743.00,0.0054
2742.00,0.0056
2741.00,0.0057
2740.00,0.0058
2739.00,0.0060
2738.00,0.0061
2737.00,0.0063
2736.00,0.0065
2735.00,0.0067
2734.00,0.0069
2733.00,0.0070
2732.00,0.0073
2731.00,0.0075
2730.00,0.0078
2729.00,0.0080
2728.00,0.0083
2727.00,0.0086
2726.00,0.0089
2725.00,0.0091
2724.00,0.0093
2723.00,0.0093
2722.00,0.0093
2721.00,0.0090
2720.00,0.0087
2719.00,0.0084
2718.00,0.0080
2717.00,0.0076
2716.00,0.0073
2715.00,0.0070
2714.00,0.0067
2713.00,0.0064
2712.00,0.0062
2711.00,0.0060
2710.00,0.0058
2709.00,0.0056
2708.00,0.0055
2707.00,0.0053
2706.00,0.0052
2705.00,0.0050
2704.00,0.0049
2703.00,0.0048
2702.00,0.0047
2701.00,0.0046
2700.00,0.0045
2699.00,0.0045
2698.00,0.0044
2697.00,0.0044
2696.00,0.0044
2695.00,0.0044
2694.00,0.0044
2693.00,0.0044
2692.00,0.0044
2691.00,0.0044
2690.00,0.0043
2689.00,0.0043
2688.00,0.0043
2687.00,0.0043
2686.00,0.0043
2685.00,0.0043
2684.00,0.0043
2683.00,0.0044
2682.00,0.0044
2681.00,0.0045
2680.00,0.0045
2679.00,0.0045
2678.00,0.0045
2677.00,0.0045
2676.00,0.0045
2675.00,0.0044
2674.00,0.0044
2673.00,0.0044
2672.00,0.0045
2671.00,0.0045
2670.00,0.0045
2669.00,0.0044
2668.00,0.0044
2667.00,0.0045
2666.00,0.0045
2665.00,0.0046
2664.00,0.0046
2663.00,0.0047
2662.00,0.0047
2661.00,0.0047
2660.00,0.0047
2659.00,0.0048
2658.00,0.0048
2657.00,0.0047
2656.00,0.0047
2655.00,0.0046
2654.00,0.0046
2653.00,0.0045
2652.00,0.0044
2651.00,0.0044
2650.00,0.0043
2649.00,0.0043
2648.00,0.0042
2647.00,0.0041
2646.00,0.0041
2645.00,0.0041
2644.00,0.0040
2643.00,0.0040
2642.00,0.0039
2641.00,0.0039
2640.00,0.0038
2639.00,0.0038
2638.00,0.0037
2637.00,0.0037
2636.00,0.0037
2635.00,0.0037
2634.00,0.0037
2633.00,0.0037
2632.00,0.0037
2631.00,0.0038
2630.00,0.0038
2629.00,0.0038
2628.00,0.0038
2627.00,0.0038
2626.00,0.0038
2625.00,0.0039
2624.00,0.0039
2623.00,0.0039
2622.00,0.0039
2621.00,0.0039
2620.00,0.0039
2619.00,0.0040
2618.00,0.0040
2617.00,0.0040
2616.00,0.0040
2615.00,0.0040
2614.00,0.0040
2613.00,0.0040
2612.00,0.0039
2611.00,0.0039
2610.00,0.0038
2609.00,0.0038
2608.00,0.0037
2607.00,0.0037
2606.00,0.0036
2605.00,0.0035
2604.00,0.0034
2603.00,0.0033
2602.00,0.0033
2601.00,0.0033
2600.00,0.0033
2599.00,0.0033
2598.00,0.0033
2597.00,0.0032
2596.00,0.0033
2595.00,0.0033
2594.00,0.0034
2593.00,0.0034
2592.00,0.0034
2591.00,0.0034
2590.00,0.0035
2589.00,0.0035
2588.00,0.0037
2587.00,0.0038
2586.00,0.0039
2585.00,0.0040
2584.00,0.0040
2583.00,0.0041
2582.00,0.0041
2581.00,0.0042
2580.00,0.0041
2579.00,0.0040
2578.00,0.0038
2577.00,0.0037
2576.00,0.0035
2575.00,0.0034
2574.00,0.0032
2573.00,0.0031
2572.00,0.0031
2571.00,0.0031
2570.00,0.0030
2569.00,0.0029
2568.00,0.0028
2567.00,0.0027
2566.00,0.0027
2565.00,0.0026
2564.00,0.0026
2563.00,0.0025
2562.00,0.0023
2561.00,0.0023
2560.00,0.0022
2559.00,0.0022
2558.00,0.0022
2557.00,0.0022
2556.00,0.0022
2555.00,0.0022
2554.00,0.0022
2553.00,0.0022
2552.00,0.0022
2551.00,0.0021
2550.00,0.0020
2549.00,0.0020
2548.00,0.0020
2547.00,0.0020
2546.00,0.0019
2545.00,0.0019
2544.00,0.0019
2543.00,0.0019
2542.00,0.0018
2541.00,0.0018
2540.00,0.0018
2539.00,0.0018
2538.00,0.0018
2537.00,0.0017
2536.00,0.0017
2535.00,0.0016
2534.00,0.0016
2533.00,0.0016
2532.00,0.0016
2531.00,0.0016
2530.00,0.0016
2529.00,0.0016
2528.00,0.0016
2527.00,0.0015
2526.00,0.0015
2525.00,0.0014
2524.00,0.0014
2523.00,0.0014
2522.00,0.0013
2521.00,0.0013
2520.00,0.0012
2519.00,0.0011
2518.00,0.0010
2517.00,0.0010
2516.00,0.0010
2515.00,0.0010
2514.00,0.0010
2513.00,0.0011
2512.00,0.0011
2511.00,0.0011
2510.00,0.0011
2509.00,0.0011
2508.00,0.0011
2507.00,0.0011
2506.00,0.0011
2505.00,0.0011
2504.00,0.0011
2503.00,0.0011
2502.00,0.0010
2501.00,0.0010
2500.00,0.0010
2499.00,0.0010
2498.00,0.0010
2497.00,0.0010
2496.00,0.0010
2495.00,0.0010
2494.00,0.0010
2493.00,0.0009
2492.00,0.0009
2491.00,0.0009
2490.00,0.0009
2489.00,0.0009
2488.00,0.0009
2487.00,0.0010
2486.00,0.0010
2485.00,0.0010
2484.00,0.0010
2483.00,0.0010
2482.00,0.0010
2481.00,0.0010
2480.00,0.0010
2479.00,0.0009
2478.00,0.0009
2477.00,0.0009
2476.00,0.0009
2475.00,0.0009
2474.00,0.0009
2473.00,0.0009
2472.00,0.0009
2471.00,0.0009
2470.00,0.0009
2469.00,0.0009
2468.00,0.0009
2467.00,0.0009
2466.00,0.0009
2465.00,0.0009
2464.00,0.0010
2463.00,0.0010
2462.00,0.0010
2461.00,0.0011
2460.00,0.0011
2459.00,0.0011
2458.00,0.0012
2457.00,0.0012
2456.00,0.0012
2455.00,0.0012
2454.00,0.0012
2453.00,0.0012
2452.00,0.0011
2451.00,0.0011
2450.00,0.0011
2449.00,0.0011
2448.00,0.0011
2447.00,0.0011
2446.00,0.0010
2445.00,0.0010
2444.00,0.0010
2443.00,0.0009
2442.00,0.0009
2441.00,0.0009
2440.00,0.0010
2439.00,0.0011
2438.00,0.0011
2437.00,0.0011
2436.00,0.0011
2435.00,0.0011
2434.00,0.0011
2433.00,0.0012
2432.00,0.0012
2431.00,0.0012
2430.00,0.0011
2429.00,0.0011
2428.00,0.0011
2427.00,0.0011
2426.00,0.0011
2425.00,0.0011
2424.00,0.0010
2423.00,0.0010
2422.00,0.0010
2421.00,0.0010
2420.00,0.0010
2419.00,0.0010
2418.00,0.0010
2417.00,0.0010
2416.00,0.0010
2415.00,0.0010
2414.00,0.0010
2413.00,0.0011
2412.00,0.0011
2411.00,0.0010
2410.00,0.0009
2409.00,0.0009
2408.00,0.0009
2407.00,0.0009
2406.00,0.0009
2405.00,0.0009
2404.00,0.0008
2403.00,0.0008
2402.00,0.0009
2401.00,0.0009
2400.00,0.0009
2399.00,0.0009
2398.00,0.0009
2397.00,0.0009
2396.00,0.0009
2395.00,0.0008
2394.00,0.0009
2393.00,0.0009
2392.00,0.0010
2391.00,0.0010
2390.00,0.0009
2389.00,0.0009
2388.00,0.0008
2387.00,0.0008
2386.00,0.0007
2385.00,0.0006
2384.00,0.0005
2383.00,0.0005
2382.00,0.0004
2381.00,0.0003
2380.00,0.0002
2379.00,0.0002
2378.00,0.0001
2377.00,0.0001
2376.00,0.0001
2375.00,0.0001
2374.00,0.0002
2373.00,0.0002
2372.00,0.0002
2371.00,0.0002
2370.00,0.0001
2369.00,0.0000
2368.00,0.0000
2367.00,0.0000
2366.00,0.0001
2365.00,0.0001
2364.00,0.0000
2363.00,0.0000
2362.00,-0.0000
2361.00,-0.0000
2360.00,0.0000
2359.00,0.0001
2358.00,0.0001
2357.00,0.0000
2356.00,0.0000
2355.00,0.0001
2354.00,0.0001
2353.00,0.0001
2352.00,0.0001
2351.00,0.0001
2350.00,0.0001
2349.00,0.0001
2348.00,0.0001
2347.00,0.0001
2346.00,0.0001
2345.00,0.0001
2344.00,0.0001
2343.00,0.0002
2342.00,0.0002
2341.00,0.0002
2340.00,0.0003
2339.00,0.0004
2338.00,0.0005
2337.00,0.0005
2336.00,0.0005
2335.00,0.0004
2334.00,0.0003
2333.00,0.0002
2332.00,0.0002
2331.00,0.0002
2330.00,0.0003
2329.00,0.0004
2328.00,0.0007
2327.00,0.0011
2326.00,0.0015
2325.00,0.0018
2324.00,0.0020
2323.00,0.0019
2322.00,0.0017
2321.00,0.0015
2320.00,0.0014
2319.00,0.0013
2318.00,0.0012
2317.00,0.0011
2316.00,0.0010
2315.00,0.0010
2314.00,0.0010
2313.00,0.0010
2312.00,0.0009
2311.00,0.0009
2310.00,0.0009
2309.00,0.0009
2308.00,0.0009
2307.00,0.0010
2306.00,0.0010
2305.00,0.0011
2304.00,0.0011
2303.00,0.0011
2302.00,0.0010
2301.00,0.0010
2300.00,0.0011
2299.00,0.0012
2298.00,0.0013
2297.00,0.0014
2296.00,0.0014
2295.00,0.0015
2294.00,0.0015
2293.00,0.0016
2292.00,0.0017
2291.00,0.0017
2290.00,0.0018
2289.00,0.0018
2288.00,0.0019
2287.00,0.0019
2286.00,0.0019
2285.00,0.0018
2284.00,0.0017
2283.00,0.0016
2282.00,0.0015
2281.00,0.0014
2280.00,0.0013
2279.00,0.0012
2278.00,0.0012
2277.00,0.0012
2276.00,0.0012
2275.00,0.0013
2274.00,0.0013
2273.00,0.0013
2272.00,0.0013
2271.00,0.0013
2270.00,0.0012
2269.00,0.0012
2268.00,0.0013
2267.00,0.0012
2266.00,0.0012
2265.00,0.0012
2264.00,0.0012
2263.00,0.0012
2262.00,0.0012
2261.00,0.0013
2260.00,0.0014
2259.00,0.0014
2258.00,0.0013
2257.00,0.0012
2256.00,0.0010
2255.00,0.0008
2254.00,0.0007
2253.00,0.0006
2252.00,0.0006
2251.00,0.0006
2250.00,0.0006
2249.00,0.0006
2248.00,0.0006
2247.00,0.0007
2246.00,0.0008
2245.00,0.0008
2244.00,0.0009
2243.00,0.0008
2242.00,0.0008
2241.00,0.0007
2240.00,0.0008
2239.00,0.0008
2238.00,0.0009
2237.00,0.0010
2236.00,0.0010
2235.00,0.0010
2234.00,0.0009
2233.00,0.0009
2232.00,0.0009
2231.00,0.0009
2230.00,0.0009
2229.00,0.0009
2228.00,0.0009
2227.00,0.0009
2226.00,0.0009
2225.00,0.0008
2224.00,0.0008
2223.00,0.0007
2222.00,0.0006
2221.00,0.0006
2220.00,0.0008
2219.00,0.0010
2218.00,0.0009
2217.00,0.0008
2216.00,0.0007
2215.00,0.0007
2214.00,0.0006
2213.00,0.0006
2212.00,0.0005
2211.00,0.0005
2210.00,0.0006
2209.00,0.0008
2208.00,0.0009
2207.00,0.0008
2206.00,0.0007
2205.00,0.0007
2204.00,0.0006
2203.00,0.0006
2202.00,0.0007
2201.00,0.0007
2200.00,0.0007
2199.00,0.0007
2198.00,0.0006
2197.00,0.0005
2196.00,0.0005
2195.00,0.0006
2194.00,0.0006
2193.00,0.0007
2192.00,0.0007
2191.00,0.0006
2190.00,0.0006
2189.00,0.0005
2188.00,0.0005
2187.00,0.0006
2186.00,0.0007
2185.00,0.0008
2184.00,0.0008
2183.00,0.0005
2182.00,0.0003
2181.00,0.0001
2180.00,0.0002
2179.00,0.0004
2178.00,0.0006
2177.00,0.0005
2176.00,0.0002
2175.00,-0.0000
2174.00,-0.0000
2173.00,0.0002
2172.00,0.0005
2171.00,0.0009
2170.00,0.0011
2169.00,0.0012
2168.00,0.0012
2167.00,0.0011
2166.00,0.0012
2165.00,0.0015
2164.00,0.0018
2163.00,0.0021
2162.00,0.0021
2161.00,0.0015
2160.00,0.0002
2159.00,-0.0014
2158.00,-0.0026
2157.00,-0.0030
2156.00,-0.0028
2155.00,-0.0025
2154.00,-0.0022
2153.00,-0.0020
2152.00,-0.0019
2151.00,-0.0018
2150.00,-0.0017
2149.00,-0.0015
2148.00,-0.0016
2147.00,-0.0017
2146.00,-0.0019
2145.00,-0.0019
2144.00,-0.0017
2143.00,-0.0015
2142.00,-0.0014
2141.00,-0.0013
2140.00,-0.0012
2139.00,-0.0012
2138.00,-0.0013
2137.00,-0.0014
2136.00,-0.0015
2135.00,-0.0017
2134.00,-0.0019
2133.00,-0.0020
2132.00,-0.0020
2131.00,-0.0019
2130.00,-0.0017
2129.00,-0.0015
2128.00,-0.0012
2127.00,-0.0010
2126.00,-0.0009
2125.00,-0.0008
2124.00,-0.0007
2123.00,-0.0005
2122.00,-0.0003
2121.00,-0.0003
2120.00,-0.0003
2119.00,-0.0003
2118.00,-0.0001
2117.00,0.0000
2116.00,0.0002
2115.00,0.0004
2114.00,0.0004
2113.00,0.0004
2112.00,0.0003
2111.00,0.0001
2110.00,-0.0000
2109.00,-0.0001
2108.00,-0.0002
2107.00,-0.0002
2106.00,-0.0001
2105.00,-0.0000
2104.00,0.0002
2103.00,0.0004
2102.00,0.0006
2101.00,0.0007
2100.00,0.0007
2099.00,0.0006
2098.00,0.0004
2097.00,0.0001
2096.00,-0.0003
2095.00,-0.0006
2094.00,-0.0006
2093.00,-0.0004
2092.00,-0.0002
2091.00,-0.0000
2090.00,0.0001
2089.00,0.0002
2088.00,0.0003
2087.00,0.0004
2086.00,0.0003
2085.00,0.0003
2084.00,0.0004
2083.00,0.0005
2082.00,0.0005
2081.00,0.0005
2080.00,0.0003
2079.00,0.0001
2078.00,0.0001
2077.00,0.0000
2076.00,0.0000
2075.00,0.0000
2074.00,-0.0000
2073.00,-0.0001
2072.00,-0.0002
2071.00,-0.0002
2070.00,-0.0001
2069.00,0.0001
2068.00,0.0002
2067.00,0.0002
2066.00,0.0001
2065.00,0.0000
2064.00,-0.0001
2063.00,-0.0001
2062.00,-0.0002
2061.00,-0.0001
2060.00,0.0000
2059.00,0.0002
2058.00,0.0003
2057.00,0.0004
2056.00,0.0003
2055.00,0.0002
2054.00,0.0003
2053.00,0.0006
2052.00,0.0009
2051.00,0.0012
2050.00,0.0012
2049.00,0.0009
2048.00,0.0007
2047.00,0.0006
2046.00,0.0005
2045.00,0.0003
2044.00,0.0001
2043.00,-0.0001
2042.00,-0.0002
2041.00,-0.0002
2040.00,-0.0002
2039.00,-0.0001
2038.00,-0.0000
2037.00,-0.0001
2036.00,-0.0004
2035.00,-0.0008
2034.00,-0.0010
2033.00,-0.0010
2032.00,-0.0009
2031.00,-0.0008
2030.00,-0.0007
2029.00,-0.0007
2028.00,-0.0007
2027.00,-0.0009
2026.00,-0.0011
2025.00,-0.0011
2024.00,-0.0012
2023.00,-0.0012
2022.00,-0.0012
2021.00,-0.0012
2020.00,-0.0010
2019.00,-0.0009
2018.00,-0.0008
2017.00,-0.0006
2016.00,-0.0005
2015.00,-0.0003
2014.00,-0.0002
2013.00,-0.0000
2012.00,-0.0000
2011.00,-0.0002
2010.00,-0.0005
2009.00,-0.0009
2008.00,-0.0012
2007.00,-0.0014
2006.00,-0.0013
2005.00,-0.0011
2004.00,-0.0010
2003.00,-0.0012
2002.00,-0.0015
2001.00,-0.0017
2000.00,-0.0016
1999.00,-0.0013
1998.00,-0.0010
1997.00,-0.0008
1996.00,-0.0007
1995.00,-0.0006
1994.00,-0.0006
1993.00,-0.0006
1992.00,-0.0005
1991.00,-0.0003
1990.00,-0.0001
1989.00,0.0000
1988.00,0.0000
1987.00,-0.0001
1986.00,-0.0002
1985.00,-0.0001
1984.00,0.0002
1983.00,0.0006
1982.00,0.0011
1981.00,0.0014
1980.00,0.0014
1979.00,0.0010
1978.00,0.0004
1977.00,-0.0001
1976.00,-0.0002
1975.00,-0.0002
1974.00,-0.0003
1973.00,-0.0003
1972.00,-0.0005
1971.00,-0.0006
1970.00,-0.0007
1969.00,-0.0008
1968.00,-0.0009
1967.00,-0.0011
1966.00,-0.0012
1965.00,-0.0012
1964.00,-0.0012
1963.00,-0.0012
1962.00,-0.0012
1961.00,-0.0014
1960.00,-0.0016
1959.00,-0.0017
1958.00,-0.0018
1957.00,-0.0016
1956.00,-0.0012
1955.00,-0.0009
1954.00,-0.0008
1953.00,-0.0008
1952.00,-0.0009
1951.00,-0.0011
1950.00,-0.0012
1949.00,-0.0013
1948.00,-0.0013
1947.00,-0.0014
1946.00,-0.0016
1945.00,-0.0018
1944.00,-0.0019
1943.00,-0.0019
1942.00,-0.0017
1941.00,-0.0014
1940.00,-0.0012
1939.00,-0.0011
1938.00,-0.0011
1937.00,-0.0011
1936.00,-0.0009
1935.00,-0.0007
1934.00,-0.0006
1933.00,-0.0006
1932.00,-0.0006
1931.00,-0.0006
1930.00,-0.0007
1929.00,-0.0008
1928.00,-0.0008
1927.00,-0.0008
1926.00,-0.0008
1925.00,-0.0007
1924.00,-0.0005
1923.00,-0.0004
1922.00,-0.0003
1921.00,-0.0003
1920.00,-0.0003
1919.00,-0.0003
1918.00,-0.0004
1917.00,-0.0003
1916.00,-0.0003
1915.00,-0.0003
1914.00,-0.0003
1913.00,-0.0003
1912.00,-0.0003
1911.00,-0.0003
1910.00,-0.0003
1909.00,-0.0003
1908.00,-0.0003
1907.00,-0.0003
1906.00,-0.0003
1905.00,-0.0003
1904.00,-0.0001
1903.00,0.0000
1902.00,0.0001
1901.00,0.0001
1900.00,0.0002
1899.00,0.0001
1898.00,0.0001
1897.00,0.0001
1896.00,0.0001
1895.00,0.0001
1894.00,0.0000
1893.00,0.0001
1892.00,0.0002
1891.00,0.0003
1890.00,0.0003
1889.00,0.0004
1888.00,0.0003
1887.00,0.0002
1886.00,0.0001
1885.00,-0.0000
1884.00,-0.0001
1883.00,-0.0001
1882.00,-0.0001
1881.00,-0.0000
1880.00,-0.0000
1879.00,-0.0001
1878.00,-0.0000
1877.00,-0.0000
1876.00,0.0000
1875.00,-0.0000
1874.00,-0.0000
1873.00,0.0000
1872.00,0.0001
1871.00,0.0001
1870.00,0.0000
1869.00,-0.0000
1868.00,-0.0001
1867.00,-0.0001
1866.00,-0.0001
1865.00,-0.0001
1864.00,-0.0001
1863.00,-0.0001
1862.00,-0.0001
1861.00,-0.0001
1860.00,0.0000
1859.00,0.0001
1858.00,0.0001
1857.00,0.0002
1856.00,0.0002
1855.00,0.0003
1854.00,0.0002
1853.00,0.0002
1852.00,0.0001
1851.00,-0.0000
1850.00,-0.0001
1849.00,-0.0000
1848.00,-0.0000
1847.00,-0.0000
1846.00,0.0000
1845.00,0.0001
1844.00,0.0001
1843.00,0.0002
1842.00,0.0002
1841.00,0.0002
1840.00,0.0002
1839.00,0.0002
1838.00,0.0002
1837.00,0.0002
1836.00,0.0003
1835.00,0.0003
1834.00,0.0004
1833.00,0.0004
1832.00,0.0004
1831.00,0.0004
1830.00,0.0004
1829.00,0.0005
1828.00,0.0005
1827.00,0.0005
1826.00,0.0004
1825.00,0.0004
1824.00,0.0004
1823.00,0.0004
1822.00,0.0004
1821.00,0.0004
1820.00,0.0003
1819.00,0.0002
1818.00,0.0000
1817.00,-0.0000
1816.00,-0.0000
1815.00,0.0000
1814.00,0.0001
1813.00,0.0002
1812.00,0.0002
1811.00,0.0002
1810.00,0.0002
1809.00,0.0003
1808.00,0.0003
1807.00,0.0004
1806.00,0.0004
1805.00,0.0003
1804.00,0.0003
1803.00,0.0003
1802.00,0.0004
1801.00,0.0004
1800.00,0.0004
1799.00,0.0004
1798.00,0.0004
1797.00,0.0004
1796.00,0.0004
1795.00,0.0005
1794.00,0.0005
1793.00,0.0006
1792.00,0.0006
1791.00,0.0006
1790.00,0.0007
1789.00,0.0007
1788.00,0.0007
1787.00,0.0008
1786.00,0.0008
1785.00,0.0009
1784.00,0.0009
1783.00,0.0008
1782.00,0.0008
1781.00,0.0007
1780.00,0.0007
1779.00,0.0008
1778.00,0.0008
1777.00,0.0008
1776.00,0.0008
1775.00,0.0008
1774.00,0.0008
1773.00,0.0008
1772.00,0.0009
1771.00,0.0009
1770.00,0.0010
1769.00,0.0010
1768.00,0.0011
1767.00,0.0011
1766.00,0.0011
1765.00,0.0011
1764.00,0.0011
1763.00,0.0012
1762.00,0.0012
1761.00,0.0011
1760.00,0.0011
1759.00,0.0011
1758.00,0.0011
1757.00,0.0012
1756.00,0.0012
1755.00,0.0013
1754.00,0.0013
1753.00,0.0013
1752.00,0.0013
1751.00,0.0013
1750.00,0.0014
1749.00,0.0015
1748.00,0.0016
1747.00,0.0016
1746.00,0.0016
1745.00,0.0017
1744.00,0.0017
1743.00,0.0018
1742.00,0.0018
1741.00,0.0018
1740.00,0.0018
1739.00,0.0019
1738.00,0.0019
1737.00,0.0019
1736.00,0.0019
1735.00,0.0019
1734.00,0.0019
1733.00,0.0019
1732.00,0.0019
1731.00,0.0019
1730.00,0.0019
1729.00,0.0019
1728.00,0.0020
1727.00,0.0020
1726.00,0.0020
1725.00,0.0020
1724.00,0.0020
1723.00,0.0020
1722.00,0.0019
1721.00,0.0019
1720.00,0.0019
1719.00,0.0019
1718.00,0.0020
1717.00,0.0020
1716.00,0.0020
1715.00,0.0021
1714.00,0.0021
1713.00,0.0022
1712.00,0.0022
1711.00,0.0022
1710.00,0.0023
1709.00,0.0023
1708.00,0.0023
1707.00,0.0023
1706.00,0.0023
1705.00,0.0023
1704.00,0.0023
1703.00,0.0024
1702.00,0.0024
1701.00,0.0025
1700.00,0.0026
1699.00,0.0026
1698.00,0.0027
1697.00,0.0027
1696.00,0.0028
1695.00,0.0028
1694.00,0.0028
1693.00,0.0029
1692.00,0.0029
1691.00,0.0030
1690.00,0.0030
1689.00,0.0031
1688.00,0.0031
1687.00,0.0031
1686.00,0.0031
1685.00,0.0032
1684.00,0.0033
1683.00,0.0033
1682.00,0.0034
1681.00,0.0035
1680.00,0.0036
1679.00,0.0037
1678.00,0.0037
1677.00,0.0037
1676.00,0.0037
1675.00,0.0038
1674.00,0.0038
1673.00,0.0039
1672.00,0.0039
1671.00,0.0040
1670.00,0.0040
1669.00,0.0041
1668.00,0.0041
1667.00,0.0042
1666.00,0.0042
1665.00,0.0042
1664.00,0.0043
1663.00,0.0043
1662.00,0.0043
1661.00,0.0044
1660.00,0.0044
1659.00,0.0045
1658.00,0.0046
1657.00,0.0046
1656.00,0.0047
1655.00,0.0047
1654.00,0.0047
1653.00,0.0049
1652.00,0.0050
1651.00,0.0051
1650.00,0.0051
1649.00,0.0052
1648.00,0.0054
1647.00,0.0055
1646.00,0.0056
1645.00,0.0057
1644.00,0.0057
1643.00,0.0056
1642.00,0.0056
1641.00,0.0056
1640.00,0.0055
1639.00,0.0055
1638.00,0.0055
1637.00,0.0055
1636.00,0.0056
1635.00,0.0055
1634.00,0.0055
1633.00,0.0055
1632.00,0.0056
1631.00,0.0056
1630.00,0.0056
1629.00,0.0056
1628.00,0.0056
1627.00,0.0056
1626.00,0.0056
1625.00,0.0056
1624.00,0.0056
1623.00,0.0055
1622.00,0.0055
1621.00,0.0054
1620.00,0.0054
1619.00,0.0054
1618.00,0.0055
1617.00,0.0055
1616.00,0.0054
1615.00,0.0054
1614.00,0.0054
1613.00,0.0054
1612.00,0.0054
1611.00,0.0054
1610.00,0.0054
1609.00,0.0054
1608.00,0.0054
1607.00,0.0053
1606.00,0.0053
1605.00,0.0053
1604.00,0.0053
1603.00,0.0053
1602.00,0.0053
1601.00,0.0053
1600.00,0.0054
1599.00,0.0054
1598.00,0.0053
1597.00,0.0053
1596.00,0.0052
1595.00,0.0052
1594.00,0.0052
1593.00,0.0052
1592.00,0.0052
1591.00,0.0053
1590.00,0.0052
1589.00,0.0052
1588.00,0.0052
1587.00,0.0052
1586.00,0.0052
1585.00,0.0053
1584.00,0.0053
1583.00,0.0054
1582.00,0.0055
1581.00,0.0056
1580.00,0.0057
1579.00,0.0058
1578.00,0.0058
1577.00,0.0059
1576.00,0.0058
1575.00,0.0057
1574.00,0.0056
1573.00,0.0056
1572.00,0.0056
1571.00,0.0055
1570.00,0.0054
1569.00,0.0054
1568.00,0.0053
1567.00,0.0053
1566.00,0.0053
1565.00,0.0053
1564.00,0.0053
1563.00,0.0053
1562.00,0.0053
1561.00,0.0053
1560.00,0.0054
1559.00,0.0054
1558.00,0.0054
1557.00,0.0055
1556.00,0.0056
1555.00,0.0057
1554.00,0.0057
1553.00,0.0057
1552.00,0.0058
1551.00,0.0058
1550.00,0.0058
1549.00,0.0058
1548.00,0.0059
1547.00,0.0059
1546.00,0.0060
1545.00,0.0061
1544.00,0.0062
1543.00,0.0062
1542.00,0.0062
1541.00,0.0062
1540.00,0.0061
1539.00,0.0059
1538.00,0.0058
1537.00,0.0057
1536.00,0.0056
1535.00,0.0055
1534.00,0.0053
1533.00,0.0051
1532.00,0.0050
1531.00,0.0049
1530.00,0.0049
1529.00,0.0049
1528.00,0.0049
1527.00,0.0049
1526.00,0.0049
1525.00,0.0049
1524.00,0.0049
1523.00,0.0049
1522.00,0.0049
1521.00,0.0049
1520.00,0.0049
1519.00,0.0049
1518.00,0.0049
1517.00,0.0049
1516.00,0.0050
1515.00,0.0050
1514.00,0.0050
1513.00,0.0051
1512.00,0.0052
1511.00,0.0053
1510.00,0.0054
1509.00,0.0055
1508.00,0.0058
1507.00,0.0059
1506.00,0.0059
1505.00,0.0060
1504.00,0.0062
1503.00,0.0063
1502.00,0.0064
1501.00,0.0066
1500.00,0.0069
1499.00,0.0071
1498.00,0.0074
1497.00,0.0077
1496.00,0.0081
1495.00,0.0083
1494.00,0.0085
1493.00,0.0088
1492.00,0.0092
1491.00,0.0096
1490.00,0.0100
1489.00,0.0106
1488.00,0.0111
1487.00,0.0116
1486.00,0.0120
1485.00,0.0126
1484.00,0.0133
1483.00,0.0140
1482.00,0.0149
1481.00,0.0160
1480.00,0.0172
1479.00,0.0184
1478.00,0.0198
1477.00,0.0217
1476.00,0.0240
1475.00,0.0266
1474.00,0.0302
1473.00,0.0357
1472.00,0.0425
1471.00,0.0493
1470.00,0.0559
1469.00,0.0628
1468.00,0.0704
1467.00,0.0788
1466.00,0.0885
1465.00,0.0990
1464.00,0.1083
1463.00,0.1150
1462.00,0.1195
1461.00,0.1226
1460.00,0.1247
1459.00,0.1261
1458.00,0.1269
1457.00,0.1273
1456.00,0.1269
1455.00,0.1260
1454.00,0.1247
1453.00,0.1228
1452.00,0.1197
1451.00,0.1154
1450.00,0.1095
1449.00,0.1015
1448.00,0.0915
1447.00,0.0812
1446.00,0.0721
1445.00,0.0645
1444.00,0.0581
1443.00,0.0530
1442.00,0.0494
1441.00,0.0470
1440.00,0.0457
1439.00,0.0454
1438.00,0.0460
1437.00,0.0467
1436.00,0.0460
1435.00,0.0433
1434.00,0.0392
1433.00,0.0341
1432.00,0.0289
1431.00,0.0244
1430.00,0.0209
1429.00,0.0185
1428.00,0.0169
1427.00,0.0159
1426.00,0.0152
1425.00,0.0146
1424.00,0.0140
1423.00,0.0137
1422.00,0.0136
1421.00,0.0133
1420.00,0.0130
1419.00,0.0128
1418.00,0.0126
1417.00,0.0124
1416.00,0.0122
1415.00,0.0121
1414.00,0.0120
1413.00,0.0119
1412.00,0.0117
1411.00,0.0116
1410.00,0.0116
1409.00,0.0115
1408.00,0.0115
1407.00,0.0115
1406.00,0.0116
1405.00,0.0117
1404.00,0.0117
1403.00,0.0118
1402.00,0.0120
1401.00,0.0121
1400.00,0.0121
1399.00,0.0124
1398.00,0.0126
1397.00,0.0128
1396.00,0.0131
1395.00,0.0135
1394.00,0.0141
1393.00,0.0147
1392.00,0.0154
1391.00,0.0163
1390.00,0.0176
1389.00,0.0194
1388.00,0.0220
1387.00,0.0260
1386.00,0.0312
1385.00,0.0379
1384.00,0.0466
1383.00,0.0585
1382.00,0.0743
1381.00,0.0949
1380.00,0.1211
1379.00,0.1523
1378.00,0.1845
1377.00,0.2107
1376.00,0.2232
1375.00,0.2163
1374.00,0.1916
1373.00,0.1589
1372.00,0.1277
1371.00,0.1014
1370.00,0.0804
1369.00,0.0644
1368.00,0.0535
1367.00,0.0468
1366.00,0.0432
1365.00,0.0418
1364.00,0.0422
1363.00,0.0440
1362.00,0.0467
1361.00,0.0495
1360.00,0.0517
1359.00,0.0523
1358.00,0.0510
1357.00,0.0478
1356.00,0.0432
1355.00,0.0381
1354.00,0.0331
1353.00,0.0289
1352.00,0.0255
1351.00,0.0228
1350.00,0.0207
1349.00,0.0189
1348.00,0.0176
1347.00,0.0164
1346.00,0.0155
1345.00,0.0148
1344.00,0.0143
1343.00,0.0139
1342.00,0.0135
1341.00,0.0133
1340.00,0.0130
1339.00,0.0128
1338.00,0.0127
1337.00,0.0126
1336.00,0.0127
1335.00,0.0129
1334.00,0.0133
1333.00,0.0138
1332.00,0.0143
1331.00,0.0147
1330.00,0.0149
1329.00,0.0147
1328.00,0.0142
1327.00,0.0135
1326.00,0.0128
1325.00,0.0120
1324.00,0.0114
1323.00,0.0108
1322.00,0.0102
1321.00,0.0098
1320.00,0.0095
1319.00,0.0093
1318.00,0.0090
1317.00,0.0088
1316.00,0.0087
1315.00,0.0085
1314.00,0.0084
1313.00,0.0084
1312.00,0.0085
1311.00,0.0086
1310.00,0.0089
1309.00,0.0094
1308.00,0.0100
1307.00,0.0108
1306.00,0.0116
1305.00,0.0123
1304.00,0.0126
1303.00,0.0126
1302.00,0.0125
1301.00,0.0124
1300.00,0.0125
1299.00,0.0128
1298.00,0.0131
1297.00,0.0133
1296.00,0.0133
1295.00,0.0130
1294.00,0.0126
1293.00,0.0119
1292.00,0.0113
1291.00,0.0107
1290.00,0.0101
1289.00,0.0097
1288.00,0.0093
1287.00,0.0090
1286.00,0.0088
1285.00,0.0086
1284.00,0.0084
1283.00,0.0082
1282.00,0.0080
1281.00,0.0079
1280.00,0.0077
1279.00,0.0077
1278.00,0.0076
1277.00,0.0075
1276.00,0.0075
1275.00,0.0075
1274.00,0.0075
1273.00,0.0075
1272.00,0.0075
1271.00,0.0075
1270.00,0.0075
1269.00,0.0076
1268.00,0.0076
1267.00,0.0077
1266.00,0.0079
1265.00,0.0081
1264.00,0.0082
1263.00,0.0084
1262.00,0.0086
1261.00,0.0089
1260.00,0.0093
1259.00,0.0098
1258.00,0.0104
1257.00,0.0109
1256.00,0.0112
1255.00,0.0112
1254.00,0.0109
1253.00,0.0103
1252.00,0.0098
1251.00,0.0093
1250.00,0.0090
1249.00,0.0087
1248.00,0.0086
1247.00,0.0084
1246.00,0.0083
1245.00,0.0082
1244.00,0.0082
1243.00,0.0081
1242.00,0.0081
1241.00,0.0080
1240.00,0.0079
1239.00,0.0078
1238.00,0.0078
1237.00,0.0078
1236.00,0.0078
1235.00,0.0078
1234.00,0.0078
1233.00,0.0077
1232.00,0.0077
1231.00,0.0078
1230.00,0.0078
1229.00,0.0079
1228.00,0.0081
1227.00,0.0082
1226.00,0.0084
1225.00,0.0087
1224.00,0.0090
1223.00,0.0094
1222.00,0.0097
1221.00,0.0100
1220.00,0.0102
1219.00,0.0103
1218.00,0.0103
1217.00,0.0101
1216.00,0.0098
1215.00,0.0096
1214.00,0.0092
1213.00,0.0088
1212.00,0.0085
1211.00,0.0082
1210.00,0.0080
1209.00,0.0079
1208.00,0.0077
1207.00,0.0076
1206.00,0.0074
1205.00,0.0073
1204.00,0.0072
1203.00,0.0071
1202.00,0.0071
1201.00,0.0070
1200.00,0.0070
1199.00,0.0070
1198.00,0.0070
1197.00,0.0070
1196.00,0.0070
1195.00,0.0071
1194.00,0.0071
1193.00,0.0071
1192.00,0.0071
1191.00,0.0070
1190.00,0.0069
1189.00,0.0069
1188.00,0.0068
1187.00,0.0068
1186.00,0.0069
1185.00,0.0070
1184.00,0.0071
1183.00,0.0072
1182.00,0.0074
1181.00,0.0076
1180.00,0.0078
1179.00,0.0082
1178.00,0.0087
1177.00,0.0094
1176.00,0.0102
1175.00,0.0113
1174.00,0.0127
1173.00,0.0145
1172.00,0.0166
1171.00,0.0190
1170.00,0.0214
1169.00,0.0233
1168.00,0.0245
1167.00,0.0249
1166.00,0.0245
1165.00,0.0237
1164.00,0.0227
1163.00,0.0218
1162.00,0.0210
1161.00,0.0204
1160.00,0.0199
1159.00,0.0195
1158.00,0.0192
1157.00,0.0189
1156.00,0.0187
1155.00,0.0187
1154.00,0.0187
1153.00,0.0186
1152.00,0.0184
1151.00,0.0178
1150.00,0.0170
1149.00,0.0161
1148.00,0.0151
1147.00,0.0143
1146.00,0.0135
1145.00,0.0128
1144.00,0.0120
1143.00,0.0113
1142.00,0.0107
1141.00,0.0102
1140.00,0.0097
1139.00,0.0093
1138.00,0.0090
1137.00,0.0087
1136.00,0.0084
1135.00,0.0082
1134.00,0.0080
1133.00,0.0080
1132.00,0.0080
1131.00,0.0080
1130.00,0.0081
1129.00,0.0082
1128.00,0.0083
1127.00,0.0084
1126.00,0.0084
1125.00,0.0085
1124.00,0.0085
1123.00,0.0085
1122.00,0.0085
1121.00,0.0085
1120.00,0.0085
1119.00,0.0086
1118.00,0.0087
1117.00,0.0087
1116.00,0.0089
1115.00,0.0090
1114.00,0.0091
1113.00,0.0092
1112.00,0.0094
1111.00,0.0097
1110.00,0.0101
1109.00,0.0106
1108.00,0.0113
1107.00,0.0121
1106.00,0.0130
1105.00,0.0138
1104.00,0.0144
1103.00,0.0147
1102.00,0.0146
1101.00,0.0143
1100.00,0.0137
1099.00,0.0130
1098.00,0.0123
1097.00,0.0116
1096.00,0.0109
1095.00,0.0104
1094.00,0.0100
1093.00,0.0097
1092.00,0.0094
1091.00,0.0090
1090.00,0.0088
1089.00,0.0085
1088.00,0.0083
1087.00,0.0082
1086.00,0.0081
1085.00,0.0081
1084.00,0.0081
1083.00,0.0081
1082.00,0.0080
1081.00,0.0078
1080.00,0.0077
1079.00,0.0076
1078.00,0.0075
1077.00,0.0073
1076.00,0.0072
1075.00,0.0071
1074.00,0.0070
1073.00,0.0070
1072.00,0.0070
1071.00,0.0070
1070.00,0.0071
1069.00,0.0071
1068.00,0.0071
1067.00,0.0071
1066.00,0.0071
1065.00,0.0070
1064.00,0.0070
1063.00,0.0070
1062.00,0.0070
1061.00,0.0070
1060.00,0.0071
1059.00,0.0071
1058.00,0.0072
1057.00,0.0073
1056.00,0.0074
1055.00,0.0074
1054.00,0.0075
1053.00,0.0076
1052.00,0.0076
1051.00,0.0078
1050.00,0.0079
1049.00,0.0081
1048.00,0.0081
1047.00,0.0082
1046.00,0.0083
1045.00,0.0083
1044.00,0.0083
1043.00,0.0083
1042.00,0.0083
1041.00,0.0083
1040.00,0.0083
1039.00,0.0083
1038.00,0.0084
1037.00,0.0084
1036.00,0.0084
1035.00,0.0083
1034.00,0.0083
1033.00,0.0083
1032.00,0.0082
1031.00,0.0081
1030.00,0.0080
1029.00,0.0080
1028.00,0.0080
1027.00,0.0080
1026.00,0.0080
1025.00,0.0081
1024.00,0.0081
1023.00,0.0081
1022.00,0.0081
1021.00,0.0080
1020.00,0.0080
1019.00,0.0081
1018.00,0.0081
1017.00,0.0082
1016.00,0.0083
1015.00,0.0085
1014.00,0.0088
1013.00,0.0091
1012.00,0.0095
1011.00,0.0097
1010.00,0.0100
1009.00,0.0103
1008.00,0.0106
1007.00,0.0111
1006.00,0.0117
1005.00,0.0125
1004.00,0.0137
1003.00,0.0152
1002.00,0.0171
1001.00,0.0195
1000.00,0.0219
999.00,0.0238
998.00,0.0246
997.00,0.0240
996.00,0.0222
995.00,0.0197
994.00,0.0171
993.00,0.0148
992.00,0.0128
991.00,0.0114
990.00,0.0105
989.00,0.0100
988.00,0.0097
987.00,0.0096
986.00,0.0096
985.00,0.0098
984.00,0.0101
983.00,0.0107
982.00,0.0117
981.00,0.0130
980.00,0.0148
979.00,0.0172
978.00,0.0202
977.00,0.0236
976.00,0.0270
975.00,0.0300
974.00,0.0320
973.00,0.0324
972.00,0.0310
971.00,0.0282
970.00,0.0245
969.00,0.0209
968.00,0.0178
967.00,0.0154
966.00,0.0136
965.00,0.0123
964.00,0.0113
963.00,0.0105
962.00,0.0099
961.00,0.0094
960.00,0.0090
959.00,0.0087
958.00,0.0085
957.00,0.0082
956.00,0.0080
955.00,0.0079
954.00,0.0078
953.00,0.0078
952.00,0.0078
951.00,0.0078
950.00,0.0078
949.00,0.0079
948.00,0.0079
947.00,0.0081
946.00,0.0083
945.00,0.0086
944.00,0.0090
943.00,0.0094
942.00,0.0097
941.00,0.0098
940.00,0.0098
939.00,0.0095
938.00,0.0090
937.00,0.0084
936.00,0.0079
935.00,0.0076
934.00,0.0073
933.00,0.0071
932.00,0.0069
931.00,0.0067
930.00,0.0064
929.00,0.0062
928.00,0.0061
927.00,0.0061
926.00,0.0061
925.00,0.0062
924.00,0.0063
923.00,0.0064
922.00,0.0065
921.00,0.0067
920.00,0.0069
919.00,0.0071
918.00,0.0072
917.00,0.0072
916.00,0.0072
915.00,0.0072
914.00,0.0073
913.00,0.0075
912.00,0.0076
911.00,0.0077
910.00,0.0079
909.00,0.0081
908.00,0.0084
907.00,0.0088
906.00,0.0096
905.00,0.0107
904.00,0.0123
903.00,0.0143
902.00,0.0167
901.00,0.0189
900.00,0.0205
899.00,0.0210
898.00,0.0203
897.00,0.0185
896.00,0.0162
895.00,0.0140
894.00,0.0120
893.00,0.0106
892.00,0.0095
891.00,0.0088
890.00,0.0082
889.00,0.0077
888.00,0.0073
887.00,0.0071
886.00,0.0071
885.00,0.0070
884.00,0.0071
883.00,0.0071
882.00,0.0071
881.00,0.0071
880.00,0.0070
879.00,0.0070
878.00,0.0070
877.00,0.0071
876.00,0.0072
875.00,0.0071
874.00,0.0071
873.00,0.0071
872.00,0.0071
871.00,0.0072
870.00,0.0073
869.00,0.0073
868.00,0.0073
867.00,0.0072
866.00,0.0072
865.00,0.0073
864.00,0.0074
863.00,0.0077
862.00,0.0079
861.00,0.0081
860.00,0.0082
859.00,0.0082
858.00,0.0082
857.00,0.0082
856.00,0.0083
855.00,0.0084
854.00,0.0085
853.00,0.0087
852.00,0.0088
851.00,0.0091
850.00,0.0094
849.00,0.0099
848.00,0.0106
847.00,0.0115
846.00,0.0129
845.00,0.0149
844.00,0.0176
843.00,0.0205
842.00,0.0224
841.00,0.0226
840.00,0.0209
839.00,0.0181
838.00,0.0154
837.00,0.0134
836.00,0.0122
835.00,0.0116
834.00,0.0112
833.00,0.0109
832.00,0.0106
831.00,0.0103
830.00,0.0100
829.00,0.0098
828.00,0.0097
827.00,0.0095
826.00,0.0095
825.00,0.0095
824.00,0.0096
823.00,0.0098
822.00,0.0100
821.00,0.0103
820.00,0.0106
819.00,0.0109
818.00,0.0113
817.00,0.0118
816.00,0.0127
815.00,0.0139
814.00,0.0155
813.00,0.0175
812.00,0.0196
811.00,0.0216
810.00,0.0231
809.00,0.0238
808.00,0.0235
807.00,0.0224
806.00,0.0207
805.00,0.0188
804.00,0.0169
803.00,0.0153
802.00,0.0140
801.00,0.0129
800.00,0.0120
799.00,0.0113
798.00,0.0108
797.00,0.0102
796.00,0.0098
795.00,0.0094
794.00,0.0092
793.00,0.0090
792.00,0.0088
791.00,0.0085
790.00,0.0082
789.00,0.0078
788.00,0.0076
787.00,0.0074
786.00,0.0072
785.00,0.0070
784.00,0.0068
783.00,0.0066
782.00,0.0064
781.00,0.0063
780.00,0.0062
779.00,0.0061
778.00,0.0060
777.00,0.0060
776.00,0.0061
775.00,0.0062
774.00,0.0064
773.00,0.0066
772.00,0.0069
771.00,0.0072
770.00,0.0074
769.00,0.0075
768.00,0.0077
767.00,0.0078
766.00,0.0078
765.00,0.0076
764.00,0.0073
763.00,0.0071
762.00,0.0068
761.00,0.0066
760.00,0.0064
759.00,0.0062
758.00,0.0060
757.00,0.0058
756.00,0.0056
755.00,0.0055
754.00,0.0055
753.00,0.0054
752.00,0.0054
751.00,0.0054
750.00,0.0055
749.00,0.0056
748.00,0.0056
747.00,0.0055
746.00,0.0055
745.00,0.0055
744.00,0.0056
743.00,0.0057
742.00,0.0059
741.00,0.0060
740.00,0.0062
739.00,0.0062
738.00,0.0063
737.00,0.0064
736.00,0.0064
735.00,0.0066
734.00,0.0068
733.00,0.0069
732.00,0.0070
731.00,0.0068
730.00,0.0067
729.00,0.0066
728.00,0.0066
727.00,0.0065
726.00,0.0064
725.00,0.0063
724.00,0.0063
723.00,0.0064
722.00,0.0065
721.00,0.0065
720.00,0.0064
719.00,0.0061
718.00,0.0059
717.00,0.0057
716.00,0.0057
715.00,0.0057
714.00,0.0058
713.00,0.0058
712.00,0.0057
711.00,0.0057
710.00,0.0056
709.00,0.0056
708.00,0.0056
707.00,0.0057
706.00,0.0058
705.00,0.0058
704.00,0.0057
703.00,0.0055
702.00,0.0053
701.00,0.0051
700.00,0.0050
699.00,0.0049
698.00,0.0050
697.00,0.0050
696.00,0.0050
695.00,0.0051
694.00,0.0052
693.00,0.0054
692.00,0.0054
691.00,0.0054
690.00,0.0054
689.00,0.0054
688.00,0.0054
687.00,0.0055
686.00,0.0057
685.00,0.0058
684.00,0.0058
683.00,0.0056
682.00,0.0053
681.00,0.0050
680.00,0.0049
679.00,0.0048
678.00,0.0047
677.00,0.0048
676.00,0.0049
675.00,0.0050
674.00,0.0051
673.00,0.0051
672.00,0.0049
671.00,0.0048
670.00,0.0048
669.00,0.0049
668.00,0.0050
667.00,0.0051
666.00,0.0051
665.00,0.0050
664.00,0.0049
663.00,0.0050
662.00,0.0051
661.00,0.0051
660.00,0.0051
659.00,0.0050
658.00,0.0049
657.00,0.0048
656.00,0.0049
655.00,0.0048
654.00,0.0048
653.00,0.0047
652.00,0.0048
651.00,0.0051
650.00,0.0053
649.00,0.0054
648.00,0.0053
647.00,0.0052
646.00,0.0052
645.00,0.0053
644.00,0.0053
643.00,0.0053
642.00,0.0052
641.00,0.0051
640.00,0.0051
639.00,0.0052
638.00,0.0054
637.00,0.0055
636.00,0.0056
635.00,0.0056
634.00,0.0056
633.00,0.0057
632.00,0.0059
631.00,0.0059
630.00,0.0059
629.00,0.0058
628.00,0.0057
627.00,0.0056
626.00,0.0056
625.00,0.0057
624.00,0.0057
623.00,0.0058
622.00,0.0058
621.00,0.0058
620.00,0.0058
619.00,0.0057
618.00,0.0058
617.00,0.0059
616.00,0.0061
615.00,0.0061
614.00,0.0060
613.00,0.0058
612.00,0.0057
611.00,0.0058
610.00,0.0058
609.00,0.0056
608.00,0.0053
607.00,0.0051
606.00,0.0050
605.00,0.0052
604.00,0.0052
603.00,0.0053
602.00,0.0054
601.00,0.0056
600.00,0.0059
599.00,0.0062
598.00,0.0064
597.00,0.0064
596.00,0.0063
595.00,0.0059
594.00,0.0055
593.00,0.0052
592.00,0.0051
591.00,0.0052
590.00,0.0054
589.00,0.0056
588.00,0.0057
587.00,0.0057
586.00,0.0057
585.00,0.0057
584.00,0.0058
583.00,0.0058
582.00,0.0061
581.00,0.0063
580.00,0.0065
579.00,0.0066
578.00,0.0065
577.00,0.0063
576.00,0.0061
575.00,0.0059
574.00,0.0057
573.00,0.0056
572.00,0.0056
571.00,0.0057
570.00,0.0058
569.00,0.0059
568.00,0.0059
567.00,0.0061
566.00,0.0062
565.00,0.0062
564.00,0.0062
563.00,0.0063
562.00,0.0063
561.00,0.0063
560.00,0.0061
559.00,0.0061
558.00,0.0062
557.00,0.0065
556.00,0.0068
555.00,0.0069
554.00,0.0067
553.00,0.0064
552.00,0.0060
551.00,0.0057
550.00,0.0058
549.00,0.0061
548.00,0.0067
547.00,0.0072
546.00,0.0074
545.00,0.0073
544.00,0.0070
543.00,0.0066
542.00,0.0063
541.00,0.0062
540.00,0.0062
539.00,0.0065
538.00,0.0070
537.00,0.0073
536.00,0.0076
535.00,0.0079
534.00,0.0081
533.00,0.0082
532.00,0.0083
531.00,0.0084
530.00,0.0084
529.00,0.0083
528.00,0.0081
527.00,0.0080
526.00,0.0081
525.00,0.0085
524.00,0.0087
523.00,0.0085
522.00,0.0081
521.00,0.0078
520.00,0.0076
519.00,0.0075
518.00,0.0074
517.00,0.0072
516.00,0.0068
515.00,0.0064
514.00,0.0059
513.00,0.0054
512.00,0.0052
511.00,0.0056
510.00,0.0064
509.00,0.0070
508.00,0.0071
507.00,0.0068
506.00,0.0065
505.00,0.0062
504.00,0.0060
503.00,0.0059
502.00,0.0060
501.00,0.0064
500.00,0.0068
499.00,0.0071
498.00,0.0074
497.00,0.0075
496.00,0.0074
495.00,0.0071
494.00,0.0066
493.00,0.0060
492.00,0.0053
491.00,0.0047
490.00,0.0044
489.00,0.0044
488.00,0.0049
487.00,0.0055
486.00,0.0059
485.00,0.0062
484.00,0.0066
483.00,0.0073
482.00,0.0078
481.00,0.0076
480.00,0.0067
479.00,0.0057
478.00,0.0056
477.00,0.0065
476.00,0.0077
475.00,0.0083
474.00,0.0084
473.00,0.0082
472.00,0.0083
471.00,0.0086
470.00,0.0091
469.00,0.0094
468.00,0.0094
467.00,0.0092
466.00,0.0090
465.00,0.0098
464.00,0.0115
463.00,0.0139
462.00,0.0161
461.00,0.0175
460.00,0.0179
459.00,0.0175
458.00,0.0164
457.00,0.0154
456.00,0.0149
455.00,0.0148
454.00,0.0144
453.00,0.0136
452.00,0.0124
451.00,0.0109
450.00,0.0094
