Created as New Dataset,Sample 086 By Administrator Date Tuesday, September 09 2025
cm-1,A
4000.00,0.0022
3999.00,0.0022
3998.00,0.0022
3997.00,0.0022
3996.00,0.0022
3995.00,0.0021
3994.00,0.0021
3993.00,0.0022
3992.00,0.0022
3991.00,0.0022
3990.00,0.0021
3989.00,0.0021
3988.00,0.0021
3987.00,0.0020
3986.00,0.0020
3985.00,0.0020
3984.00,0.0020
3983.00,0.0020
3982.00,0.0021
3981.00,0.0021
3980.00,0.0021
3979.00,0.0021
3978.00,0.0021
3977.00,0.0021
3976.00,0.0021
3975.00,0.0020
3974.00,0.0020
3973.00,0.0020
3972.00,0.0020
3971.00,0.0020
3970.00,0.0020
3969.00,0.0020
3968.00,0.0020
3967.00,0.0020
3966.00,0.0020
3965.00,0.0020
3964.00,0.0020
3963.00,0.0021
3962.00,0.0021
3961.00,0.0020
3960.00,0.0020
3959.00,0.0020
3958.00,0.0020
3957.00,0.0020
3956.00,0.0020
3955.00,0.0020
3954.00,0.0020
3953.00,0.0020
3952.00,0.0020
3951.00,0.0020
3950.00,0.0019
3949.00,0.0019
3948.00,0.0019
3947.00,0.0019
3946.00,0.0019
3945.00,0.0019
3944.00,0.0019
3943.00,0.0020
3942.00,0.0020
3941.00,0.0020
3940.00,0.0020
3939.00,0.0020
3938.00,0.0020
3937.00,0.0020
3936.00,0.0020
3935.00,0.0020
3934.00,0.0020
3933.00,0.0020
3932.00,0.0019
3931.00,0.0019
3930.00,0.0019
3929.00,0.0019
3928.00,0.0019
3927.00,0.0019
3926.00,0.0020
3925.00,0.0020
3924.00,0.0020
3923.00,0.0020
3922.00,0.0020
3921.00,0.0020
3920.00,0.0020
3919.00,0.0019
3918.00,0.0019
3917.00,0.0019
3916.00,0.0019
3915.00,0.0019
3914.00,0.0020
3913.00,0.0020
3912.00,0.0020
3911.00,0.0021
3910.00,0.0021
3909.00,0.0020
3908.00,0.0020
3907.00,0.0019
3906.00,0.0019
3905.00,0.0019
3904.00,0.0020
3903.00,0.0020
3902.00,0.0020
3901.00,0.0020
3900.00,0.0019
3899.00,0.0019
3898.00,0.0019
3897.00,0.0019
3896.00,0.0019
3895.00,0.0019
3894.00,0.0020
3893.00,0.0020
3892.00,0.0020
3891.00,0.0020
3890.00,0.0020
3889.00,0.0019
3888.00,0.0019
3887.00,0.0019
3886.00,0.0019
3885.00,0.0019
3884.00,0.0019
3883.00,0.0019
3882.00,0.0019
3881.00,0.0019
3880.00,0.0020
3879.00,0.0020
3878.00,0.0019
3877.00,0.0019
3876.00,0.0019
3875.00,0.0019
3874.00,0.0019
3873.00,0.0019
3872.00,0.0019
3871.00,0.0019
3870.00,0.0019
3869.00,0.0018
3868.00,0.0018
3867.00,0.0018
3866.00,0.0018
3865.00,0.0019
3864.00,0.0019
3863.00,0.0019
3862.00,0.0019
3861.00,0.0019
3860.00,0.0019
3859.00,0.0019
3858.00,0.0020
3857.00,0.0020
3856.00,0.0019
3855.00,0.0019
3854.00,0.0018
3853.00,0.0018
3852.00,0.0018
3851.00,0.0018
3850.00,0.0018
3849.00,0.0018
3848.00,0.0019
3847.00,0.0019
3846.00,0.0019
3845.00,0.0019
3844.00,0.0019
3843.00,0.0019
3842.00,0.0018
3841.00,0.0018
3840.00,0.0017
3839.00,0.0017
3838.00,0.0017
3837.00,0.0018
3836.00,0.0018
3835.00,0.0018
3834.00,0.0019
3833.00,0.0019
3832.00,0.0020
3831.00,0.0020
3830.00,0.0020
3829.00,0.0020
3828.00,0.0020
3827.00,0.0020
3826.00,0.0020
3825.00,0.0020
3824.00,0.0019
3823.00,0.0019
3822.00,0.0018
3821.00,0.0018
3820.00,0.0018
3819.00,0.0018
3818.00,0.0018
3817.00,0.0019
3816.00,0.0019
3815.00,0.0019
3814.00,0.0019
3813.00,0.0019
3812.00,0.0019
3811.00,0.0019
3810.00,0.0018
3809.00,0.0018
3808.00,0.0018
3807.00,0.0018
3806.00,0.0018
3805.00,0.0018
3804.00,0.0018
3803.00,0.0018
3802.00,0.0018
3801.00,0.0018
3800.00,0.0018
3799.00,0.0018
3798.00,0.0018
3797.00,0.0018
3796.00,0.0018
3795.00,0.0018
3794.00,0.0019
3793.00,0.0019
3792.00,0.0019
3791.00,0.0019
3790.00,0.0019
3789.00,0.0019
3788.00,0.0019
3787.00,0.0019
3786.00,0.0019
3785.00,0.0019
3784.00,0.0019
3783.00,0.0019
3782.00,0.0019
3781.00,0.0020
3780.00,0.0020
3779.00,0.0020
3778.00,0.0020
3777.00,0.0020
3776.00,0.0020
3775.00,0.0020
3774.00,0.0020
3773.00,0.0020
3772.00,0.0020
3771.00,0.0019
3770.00,0.0019
3769.00,0.0019
3768.00,0.0019
3767.00,0.0019
3766.00,0.0019
3765.00,0.0019
3764.00,0.0019
3763.00,0.0020
3762.00,0.0020
3761.00,0.0020
3760.00,0.0020
3759.00,0.0020
3758.00,0.0020
3757.00,0.0020
3756.00,0.0020
3755.00,0.0020
3754.00,0.0019
3753.00,0.0019
3752.00,0.0019
3751.00,0.0019
3750.00,0.0019
3749.00,0.0019
3748.00,0.0019
3747.00,0.0019
3746.00,0.0019
3745.00,0.0020
3744.00,0.0020
3743.00,0.0020
3742.00,0.0019
3741.00,0.0019
3740.00,0.0018
3739.00,0.0018
3738.00,0.0017
3737.00,0.0017
3736.00,0.0017
3735.00,0.0017
3734.00,0.0017
3733.00,0.0018
3732.00,0.0018
3731.00,0.0018
3730.00,0.0018
3729.00,0.0018
3728.00,0.0019
3727.00,0.0019
3726.00,0.0020
3725.00,0.0020
3724.00,0.0019
3723.00,0.0018
3722.00,0.0018
3721.00,0.0018
3720.00,0.0018
3719.00,0.0018
3718.00,0.0018
3717.00,0.0018
3716.00,0.0019
3715.00,0.0019
3714.00,0.0018
3713.00,0.0018
3712.00,0.0018
3711.00,0.0018
3710.00,0.0018
3709.00,0.0018
3708.00,0.0018
3707.00,0.0017
3706.00,0.0017
3705.00,0.0017
3704.00,0.0017
3703.00,0.0018
3702.00,0.0018
3701.00,0.0018
3700.00,0.0018
3699.00,0.0018
3698.00,0.0018
3697.00,0.0017
3696.00,0.0017
3695.00,0.0017
3694.00,0.0017
3693.00,0.0017
3692.00,0.0017
3691.00,0.0017
3690.00,0.0017
3689.00,0.0018
3688.00,0.0018
3687.00,0.0017
3686.00,0.0017
3685.00,0.0017
3684.00,0.0017
3683.00,0.0017
3682.00,0.0017
3681.00,0.0017
3680.00,0.0017
3679.00,0.0017
3678.00,0.0017
3677.00,0.0017
3676.00,0.0017
3675.00,0.0017
3674.00,0.0017
3673.00,0.0017
3672.00,0.0017
3671.00,0.0017
3670.00,0.0017
3669.00,0.0018
3668.00,0.0018
3667.00,0.0018
3666.00,0.0018
3665.00,0.0018
3664.00,0.0018
3663.00,0.0018
3662.00,0.0018
3661.00,0.0018
3660.00,0.0017
3659.00,0.0017
3658.00,0.0017
3657.00,0.0017
3656.00,0.0017
3655.00,0.0017
3654.00,0.0017
3653.00,0.0017
3652.00,0.0017
3651.00,0.0017
3650.00,0.0017
3649.00,0.0017
3648.00,0.0017
3647.00,0.0017
3646.00,0.0017
3645.00,0.0018
3644.00,0.0018
3643.00,0.0019
3642.00,0.0019
3641.00,0.0019
3640.00,0.0019
3639.00,0.0019
3638.00,0.0019
3637.00,0.0019
3636.00,0.0019
3635.00,0.0019
3634.00,0.0019
3633.00,0.0019
3632.00,0.0020
3631.00,0.0020
3630.00,0.0020
3629.00,0.0020
3628.00,0.0020
3627.00,0.0020
3626.00,0.0020
3625.00,0.0020
3624.00,0.0020
3623.00,0.0020
3622.00,0.0021
3621.00,0.0021
3620.00,0.0021
3619.00,0.0021
3618.00,0.0022
3617.00,0.0022
3616.00,0.0022
3615.00,0.0022
3614.00,0.0022
3613.00,0.0022
3612.00,0.0022
3611.00,0.0022
3610.00,0.0022
3609.00,0.0023
3608.00,0.0023
3607.00,0.0024
3606.00,0.0024
3605.00,0.0025
3604.00,0.0025
3603.00,0.0025
3602.00,0.0024
3601.00,0.0024
3600.00,0.0024
3599.00,0.0024
3598.00,0.0024
3597.00,0.0024
3596.00,0.0025
3595.00,0.0025
3594.00,0.0025
3593.00,0.0025
3592.00,0.0025
3591.00,0.0025
3590.00,0.0025
3589.00,0.0026
3588.00,0.0026
3587.00,0.0027
3586.00,0.0027
3585.00,0.0028
3584.00,0.0028
3583.00,0.0028
3582.00,0.0028
3581.00,0.0028
3580.00,0.0028
3579.00,0.0028
3578.00,0.0028
3577.00,0.0028
3576.00,0.0029
3575.00,0.0029
3574.00,0.0029
3573.00,0.0029
3572.00,0.0030
3571.00,0.0030
3570.00,0.0030
3569.00,0.0031
3568.00,0.0031
3567.00,0.0031
3566.00,0.0032
3565.00,0.0031
3564.00,0.0031
3563.00,0.0031
3562.00,0.0031
3561.00,0.0032
3560.00,0.0032
3559.00,0.0033
3558.00,0.0033
3557.00,0.0033
3556.00,0.0034
3555.00,0.0034
3554.00,0.0034
3553.00,0.0035
3552.00,0.0035
3551.00,0.0035
3550.00,0.0035
3549.00,0.0034
3548.00,0.0035
3547.00,0.0035
3546.00,0.0035
3545.00,0.0036
3544.00,0.0036
3543.00,0.0036
3542.00,0.0036
3541.00,0.0037
3540.00,0.0037
3539.00,0.0038
3538.00,0.0038
3537.00,0.0038
3536.00,0.0038
3535.00,0.0037
3534.00,0.0037
3533.00,0.0038
3532.00,0.0038
3531.00,0.0038
3530.00,0.0039
3529.00,0.0039
3528.00,0.0040
3527.00,0.0040
3526.00,0.0040
3525.00,0.0040
3524.00,0.0040
3523.00,0.0040
3522.00,0.0040
3521.00,0.0041
3520.00,0.0041
3519.00,0.0041
3518.00,0.0041
3517.00,0.0041
3516.00,0.0041
3515.00,0.0042
3514.00,0.0042
3513.00,0.0043
3512.00,0.0043
3511.00,0.0043
3510.00,0.0044
3509.00,0.0044
3508.00,0.0044
3507.00,0.0044
3506.00,0.0044
3505.00,0.0044
3504.00,0.0044
3503.00,0.0045
3502.00,0.0045
3501.00,0.0045
3500.00,0.0045
3499.00,0.0045
3498.00,0.0045
3497.00,0.0045
3496.00,0.0045
3495.00,0.0046
3494.00,0.0046
3493.00,0.0046
3492.00,0.0046
3491.00,0.0046
3490.00,0.0047
3489.00,0.0047
3488.00,0.0047
3487.00,0.0047
3486.00,0.0047
3485.00,0.0048
3484.00,0.0048
3483.00,0.0048
3482.00,0.0048
3481.00,0.0049
3480.00,0.0049
3479.00,0.0049
3478.00,0.0049
3477.00,0.0049
3476.00,0.0049
3475.00,0.0050
3474.00,0.0050
3473.00,0.0050
3472.00,0.0050
3471.00,0.0050
3470.00,0.0050
3469.00,0.0050
3468.00,0.0050
3467.00,0.0051
3466.00,0.0051
3465.00,0.0051
3464.00,0.0051
3463.00,0.0051
3462.00,0.0051
3461.00,0.0051
3460.00,0.0051
3459.00,0.0052
3458.00,0.0052
3457.00,0.0053
3456.00,0.0053
3455.00,0.0053
3454.00,0.0053
3453.00,0.0053
3452.00,0.0053
3451.00,0.0053
3450.00,0.0054
3449.00,0.0054
3448.00,0.0054
3447.00,0.0054
3446.00,0.0054
3445.00,0.0054
3444.00,0.0054
3443.00,0.0054
3442.00,0.0055
3441.00,0.0055
3440.00,0.0055
3439.00,0.0055
3438.00,0.0055
3437.00,0.0055
3436.00,0.0055
3435.00,0.0055
3434.00,0.0055
3433.00,0.0055
3432.00,0.0055
3431.00,0.0055
3430.00,0.0056
3429.00,0.0056
3428.00,0.0056
3427.00,0.0056
3426.00,0.0056
3425.00,0.0056
3424.00,0.0056
3423.00,0.0056
3422.00,0.0056
3421.00,0.0056
3420.00,0.0056
3419.00,0.0057
3418.00,0.0057
3417.00,0.0058
3416.00,0.0058
3415.00,0.0059
3414.00,0.0059
3413.00,0.0059
3412.00,0.0059
3411.00,0.0058
3410.00,0.0058
3409.00,0.0059
3408.00,0.0059
3407.00,0.0059
3406.00,0.0059
3405.00,0.0059
3404.00,0.0060
3403.00,0.0059
3402.00,0.0059
3401.00,0.0059
3400.00,0.0059
3399.00,0.0059
3398.00,0.0060
3397.00,0.0060
3396.00,0.0060
3395.00,0.0060
3394.00,0.0060
3393.00,0.0059
3392.00,0.0059
3391.00,0.0059
3390.00,0.0060
3389.00,0.0060
3388.00,0.0060
3387.00,0.0059
3386.00,0.0059
3385.00,0.0059
3384.00,0.0059
3383.00,0.0059
3382.00,0.0059
3381.00,0.0059
3380.00,0.0060
3379.00,0.0060
3378.00,0.0060
3377.00,0.0060
3376.00,0.0060
3375.00,0.0061
3374.00,0.0061
3373.00,0.0061
3372.00,0.0061
3371.00,0.0061
3370.00,0.0060
3369.00,0.0060
3368.00,0.0060
3367.00,0.0060
3366.00,0.0060
3365.00,0.0061
3364.00,0.0061
3363.00,0.0061
3362.00,0.0061
3361.00,0.0061
3360.00,0.0061
3359.00,0.0061
3358.00,0.0061
3357.00,0.0061
3356.00,0.0061
3355.00,0.0061
3354.00,0.0061
3353.00,0.0061
3352.00,0.0061
3351.00,0.0061
3350.00,0.0061
3349.00,0.0061
3348.00,0.0061
3347.00,0.0061
3346.00,0.0061
3345.00,0.0061
3344.00,0.0061
3343.00,0.0061
3342.00,0.0061
3341.00,0.0061
3340.00,0.0061
3339.00,0.0060
3338.00,0.0060
3337.00,0.0060
3336.00,0.0060
3335.00,0.0060
3334.00,0.0060
3333.00,0.0060
3332.00,0.0060
3331.00,0.0060
3330.00,0.0060
3329.00,0.0060
3328.00,0.0059
3327.00,0.0059
3326.00,0.0059
3325.00,0.0059
3324.00,0.0059
3323.00,0.0059
3322.00,0.0059
3321.00,0.0059
3320.00,0.0058
3319.00,0.0058
3318.00,0.0058
3317.00,0.0058
3316.00,0.0058
3315.00,0.0058
3314.00,0.0058
3313.00,0.0058
3312.00,0.0058
3311.00,0.0058
3310.00,0.0058
3309.00,0.0058
3308.00,0.0058
3307.00,0.0058
3306.00,0.0058
3305.00,0.0058
3304.00,0.0058
3303.00,0.0058
3302.00,0.0059
3301.00,0.0058
3300.00,0.0058
3299.00,0.0058
3298.00,0.0058
3297.00,0.0058
3296.00,0.0058
3295.00,0.0058
3294.00,0.0058
3293.00,0.0057
3292.00,0.0057
3291.00,0.0057
3290.00,0.0057
3289.00,0.0056
3288.00,0.0056
3287.00,0.0056
3286.00,0.0056
3285.00,0.0056
3284.00,0.0056
3283.00,0.0056
3282.00,0.0056
3281.00,0.0056
3280.00,0.0056
3279.00,0.0056
3278.00,0.0056
3277.00,0.0056
3276.00,0.0055
3275.00,0.0055
3274.00,0.0055
3273.00,0.0054
3272.00,0.0054
3271.00,0.0055
3270.00,0.0055
3269.00,0.0055
3268.00,0.0055
3267.00,0.0055
3266.00,0.0055
3265.00,0.0054
3264.00,0.0054
3263.00,0.0054
3262.00,0.0053
3261.00,0.0053
3260.00,0.0053
3259.00,0.0053
3258.00,0.0053
3257.00,0.0053
3256.00,0.0052
3255.00,0.0052
3254.00,0.0052
3253.00,0.0052
3252.00,0.0052
3251.00,0.0052
3250.00,0.0052
3249.00,0.0052
3248.00,0.0051
3247.00,0.0051
3246.00,0.0051
3245.00,0.0051
3244.00,0.0051
3243.00,0.0051
3242.00,0.0051
3241.00,0.0051
3240.00,0.0051
3239.00,0.0051
3238.00,0.0051
3237.00,0.0051
3236.00,0.0051
3235.00,0.0050
3234.00,0.0050
3233.00,0.0050
3232.00,0.0051
3231.00,0.0051
3230.00,0.0051
3229.00,0.0051
3228.00,0.0051
3227.00,0.0051
3226.00,0.0051
3225.00,0.0051
3224.00,0.0052
3223.00,0.0052
3222.00,0.0052
3221.00,0.0052
3220.00,0.0052
3219.00,0.0053
3218.00,0.0053
3217.00,0.0053
3216.00,0.0053
3215.00,0.0053
3214.00,0.0053
3213.00,0.0053
3212.00,0.0053
3211.00,0.0053
3210.00,0.0053
3209.00,0.0053
3208.00,0.0053
3207.00,0.0054
3206.00,0.0054
3205.00,0.0054
3204.00,0.0053
3203.00,0.0053
3202.00,0.0053
3201.00,0.0053
3200.00,0.0053
3199.00,0.0053
3198.00,0.0053
3197.00,0.0053
3196.00,0.0052
3195.00,0.0052
3194.00,0.0052
3193.00,0.0052
3192.00,0.0052
3191.00,0.0052
3190.00,0.0052
3189.00,0.0051
3188.00,0.0051
3187.00,0.0051
3186.00,0.0051
3185.00,0.0051
3184.00,0.0051
3183.00,0.0051
3182.00,0.0050
3181.00,0.0050
3180.00,0.0049
3179.00,0.0049
3178.00,0.0049
3177.00,0.0048
3176.00,0.0048
3175.00,0.0048
3174.00,0.0048
3173.00,0.0049
3172.00,0.0049
3171.00,0.0050
3170.00,0.0050
3169.00,0.0050
3168.00,0.0049
3167.00,0.0049
3166.00,0.0048
3165.00,0.0048
3164.00,0.0048
3163.00,0.0048
3162.00,0.0047
3161.00,0.0047
3160.00,0.0047
3159.00,0.0047
3158.00,0.0047
3157.00,0.0047
3156.00,0.0048
3155.00,0.0048
3154.00,0.0048
3153.00,0.0048
3152.00,0.0048
3151.00,0.0048
3150.00,0.0048
3149.00,0.0048
3148.00,0.0048
3147.00,0.0048
3146.00,0.0047
3145.00,0.0047
3144.00,0.0047
3143.00,0.0046
3142.00,0.0046
3141.00,0.0046
3140.00,0.0046
3139.00,0.0046
3138.00,0.0046
3137.00,0.0046
3136.00,0.0045
3135.00,0.0045
3134.00,0.0045
3133.00,0.0044
3132.00,0.0044
3131.00,0.0044
3130.00,0.0043
3129.00,0.0043
3128.00,0.0043
3127.00,0.0043
3126.00,0.0043
3125.00,0.0043
3124.00,0.0042
3123.00,0.0042
3122.00,0.0042
3121.00,0.0042
3120.00,0.0042
3119.00,0.0042
3118.00,0.0041
3117.00,0.0041
3116.00,0.0041
3115.00,0.0041
3114.00,0.0041
3113.00,0.0041
3112.00,0.0041
3111.00,0.0041
3110.00,0.0040
3109.00,0.0040
3108.00,0.0040
3107.00,0.0040
3106.00,0.0040
3105.00,0.0040
3104.00,0.0039
3103.00,0.0039
3102.00,0.0038
3101.00,0.0038
3100.00,0.0038
3099.00,0.0038
3098.00,0.0038
3097.00,0.0038
3096.00,0.0039
3095.00,0.0038
3094.00,0.0038
3093.00,0.0038
3092.00,0.0038
3091.00,0.0038
3090.00,0.0038
3089.00,0.0038
3088.00,0.0039
3087.00,0.0039
3086.00,0.0039
3085.00,0.0039
3084.00,0.0038
3083.00,0.0038
3082.00,0.0038
3081.00,0.0038
3080.00,0.0038
3079.00,0.0038
3078.00,0.0038
3077.00,0.0039
3076.00,0.0039
3075.00,0.0039
3074.00,0.0039
3073.00,0.0039
3072.00,0.0039
3071.00,0.0039
3070.00,0.0039
3069.00,0.0039
3068.00,0.0040
3067.00,0.0040
3066.00,0.0040
3065.00,0.0039
3064.00,0.0040
3063.00,0.0040
3062.00,0.0040
3061.00,0.0040
3060.00,0.0040
3059.00,0.0039
3058.00,0.0039
3057.00,0.0039
3056.00,0.0040
3055.00,0.0040
3054.00,0.0040
3053.00,0.0041
3052.00,0.0041
3051.00,0.0041
3050.00,0.0041
3049.00,0.0041
3048.00,0.0041
3047.00,0.0041
3046.00,0.0041
3045.00,0.0041
3044.00,0.0041
3043.00,0.0041
3042.00,0.0042
3041.00,0.0042
3040.00,0.0042
3039.00,0.0042
3038.00,0.0042
3037.00,0.0042
3036.00,0.0043
3035.00,0.0043
3034.00,0.0043
3033.00,0.0044
3032.00,0.0044
3031.00,0.0044
3030.00,0.0044
3029.00,0.0045
3028.00,0.0045
3027.00,0.0045
3026.00,0.0046
3025.00,0.0046
3024.00,0.0047
3023.00,0.0047
3022.00,0.0048
3021.00,0.0049
3020.00,0.0049
3019.00,0.0050
3018.00,0.0051
3017.00,0.0052
3016.00,0.0053
3015.00,0.0053
3014.00,0.0054
3013.00,0.0055
3012.00,0.0055
3011.00,0.0056
3010.00,0.0057
3009.00,0.0059
3008.00,0.0060
3007.00,0.0061
3006.00,0.0062
3005.00,0.0063
3004.00,0.0065
3003.00,0.0066
3002.00,0.0068
3001.00,0.0070
3000.00,0.0073
2999.00,0.0075
2998.00,0.0078
2997.00,0.0081
2996.00,0.0084
2995.00,0.0088
2994.00,0.0092
2993.00,0.0096
2992.00,0.0101
2991.00,0.0106
2990.00,0.0112
2989.00,0.0119
2988.00,0.0126
2987.00,0.0134
2986.00,0.0143
2985.00,0.0153
2984.00,0.0163
2983.00,0.0175
2982.00,0.0190
2981.00,0.0206
2980.00,0.0226
2979.00,0.0248
2978.00,0.0272
2977.00,0.0300
2976.00,0.0331
2975.00,0.0365
2974.00,0.0403
2973.00,0.0446
2972.00,0.0494
2971.00,0.0547
2970.00,0.0604
2969.00,0.0667
2968.00,0.0734
2967.00,0.0805
2966.00,0.0880
2965.00,0.0955
2964.00,0.1028
2963.00,0.1096
2962.00,0.1154
2961.00,0.1201
2960.00,0.1237
2959.00,0.1265
2958.00,0.1287
2957.00,0.1310
2956.00,0.1336
2955.00,0.1369
2954.00,0.1407
2953.00,0.1446
2952.00,0.1479
2951.00,0.1498
2950.00,0.1498
2949.00,0.1472
2948.00,0.1421
2947.00,0.1347
2946.00,0.1257
2945.00,0.1161
2944.00,0.1069
2943.00,0.0989
2942.00,0.0925
2941.00,0.0880
2940.00,0.0854
2939.00,0.0844
2938.00,0.0850
2937.00,0.0869
2936.00,0.0901
2935.00,0.0943
2934.00,0.0995
2933.00,0.1055
2932.00,0.1122
2931.00,0.1194
2930.00,0.1269
2929.00,0.1346
2928.00,0.1421
2927.00,0.1493
2926.00,0.1562
2925.00,0.1627
2924.00,0.1689
2923.00,0.1749
2922.00,0.1807
2921.00,0.1861
2920.00,0.1908
2919.00,0.1943
2918.00,0.1960
2917.00,0.1957
2916.00,0.1933
2915.00,0.1891
2914.00,0.1836
2913.00,0.1776
2912.00,0.1714
2911.00,0.1656
2910.00,0.1602
2909.00,0.1552
2908.00,0.1505
2907.00,0.1459
2906.00,0.1412
2905.00,0.1364
2904.00,0.1313
2903.00,0.1262
2902.00,0.1211
2901.00,0.1160
2900.00,0.1111
2899.00,0.1064
2898.00,0.1020
2897.00,0.0980
2896.00,0.0945
2895.00,0.0915
2894.00,0.0889
2893.00,0.0869
2892.00,0.0854
2891.00,0.0844
2890.00,0.0837
2889.00,0.0834
2888.00,0.0834
2887.00,0.0837
2886.00,0.0843
2885.00,0.0851
2884.00,0.0862
2883.00,0.0877
2882.00,0.0893
2881.00,0.0911
2880.00,0.0926
2879.00,0.0938
2878.00,0.0944
2877.00,0.0944
2876.00,0.0941
2875.00,0.0936
2874.00,0.0933
2873.00,0.0934
2872.00,0.0940
2871.00,0.0951
2870.00,0.0965
2869.00,0.0977
2868.00,0.0983
2867.00,0.0977
2866.00,0.0954
2865.00,0.0914
2864.00,0.0859
2863.00,0.0794
2862.00,0.0729
2861.00,0.0668
2860.00,0.0616
2859.00,0.0576
2858.00,0.0546
2857.00,0.0525
2856.00,0.0513
2855.00,0.0507
2854.00,0.0506
2853.00,0.0510
2852.00,0.0519
2851.00,0.0532
2850.00,0.0549
2849.00,0.0570
2848.00,0.0596
2847.00,0.0628
2846.00,0.0666
2845.00,0.0710
2844.00,0.0760
2843.00,0.0812
2842.00,0.0864
2841.00,0.0910
2840.00,0.0944
2839.00,0.0962
2838.00,0.0958
2837.00,0.0929
2836.00,0.0878
2835.00,0.0810
2834.00,0.0731
2833.00,0.0651
2832.00,0.0575
2831.00,0.0508
2830.00,0.0451
2829.00,0.0404
2828.00,0.0365
2827.00,0.0334
2826.00,0.0309
2825.00,0.0287
2824.00,0.0270
2823.00,0.0254
2822.00,0.0241
2821.00,0.0229
2820.00,0.0219
2819.00,0.0210
2818.00,0.0203
2817.00,0.0196
2816.00,0.0189
2815.00,0.0184
2814.00,0.0178
2813.00,0.0174
2812.00,0.0169
2811.00,0.0165
2810.00,0.0160
2809.00,0.0155
2808.00,0.0151
2807.00,0.0146
2806.00,0.0141
2805.00,0.0136
2804.00,0.0131
2803.00,0.0126
2802.00,0.0122
2801.00,0.0118
2800.00,0.0115
2799.00,0.0112
2798.00,0.0110
2797.00,0.0108
2796.00,0.0107
2795.00,0.0105
2794.00,0.0102
2793.00,0.0100
2792.00,0.0097
2791.00,0.0094
2790.00,0.0091
2789.00,0.0088
2788.00,0.0085
2787.00,0.0083
2786.00,0.0081
2785.00,0.0079
2784.00,0.0077
2783.00,0.0075
2782.00,0.0074
2781.00,0.0072
2780.00,0.0071
2779.00,0.0069
2778.00,0.0068
2777.00,0.0067
2776.00,0.0066
2775.00,0.0065
2774.00,0.0064
2773.00,0.0064
2772.00,0.0064
2771.00,0.0063
2770.00,0.0063
2769.00,0.0063
2768.00,0.0062
2767.00,0.0062
2766.00,0.0062
2765.00,0.0061
2764.00,0.0061
2763.00,0.0061
2762.00,0.0061
2761.00,0.0060
2760.00,0.0060
2759.00,0.0059
2758.00,0.0059
2757.00,0.0059
2756.00,0.0059
2755.00,0.0059
2754.00,0.0059
2753.00,0.0059
2752.00,0.0059
2751.00,0.0059
2750.00,0.0058
2749.00,0.0058
2748.00,0.0058
2747.00,0.0058
2746.00,0.0059
2745.00,0.0060
2744.00,0.0061
2743.00,0.0061
2742.00,0.0061
2741.00,0.0062
2740.00,0.0063
2739.00,0.0064
2738.00,0.0066
2737.00,0.0067
2736.00,0.0068
2735.00,0.0069
2734.00,0.0070
2733.00,0.0071
2732.00,0.0073
2731.00,0.0074
2730.00,0.0076
2729.00,0.0077
2728.00,0.0079
2727.00,0.0081
2726.00,0.0083
2725.00,0.0085
2724.00,0.0086
2723.00,0.0086
2722.00,0.0085
2721.00,0.0084
2720.00,0.0082
2719.00,0.0080
2718.00,0.0077
2717.00,0.0075
2716.00,0.0073
2715.00,0.0071
2714.00,0.0069
2713.00,0.0067
2712.00,0.0065
2711.00,0.0063
2710.00,0.0062
2709.00,0.0060
2708.00,0.0059
2707.00,0.0058
2706.00,0.0057
2705.00,0.0056
2704.00,0.0056
2703.00,0.0055
2702.00,0.0054
2701.00,0.0053
2700.00,0.0053
2699.00,0.0052
2698.00,0.0052
2697.00,0.0052
2696.00,0.0052
2695.00,0.0052
2694.00,0.0052
2693.00,0.0052
2692.00,0.0052
2691.00,0.0052
2690.00,0.0052
2689.00,0.0052
2688.00,0.0052
2687.00,0.0052
2686.00,0.0052
2685.00,0.0052
2684.00,0.0052
2683.00,0.0052
2682.00,0.0052
2681.00,0.0052
2680.00,0.0052
2679.00,0.0052
2678.00,0.0052
2677.00,0.0053
2676.00,0.0052
2675.00,0.0052
2674.00,0.0051
2673.00,0.0051
2672.00,0.0051
2671.00,0.0050
2670.00,0.0051
2669.00,0.0051
2668.00,0.0051
2667.00,0.0051
2666.00,0.0052
2665.00,0.0052
2664.00,0.0053
2663.00,0.0054
2662.00,0.0054
2661.00,0.0055
2660.00,0.0055
2659.00,0.0055
2658.00,0.0055
2657.00,0.0055
2656.00,0.0054
2655.00,0.0054
2654.00,0.0054
2653.00,0.0053
2652.00,0.0053
2651.00,0.0052
2650.00,0.0052
2649.00,0.0052
2648.00,0.0052
2647.00,0.0052
2646.00,0.0052
2645.00,0.0051
2644.00,0.0051
2643.00,0.0050
2642.00,0.0050
2641.00,0.0050
2640.00,0.0049
2639.00,0.0049
2638.00,0.0049
2637.00,0.0049
2636.00,0.0048
2635.00,0.0048
2634.00,0.0048
2633.00,0.0047
2632.00,0.0048
2631.00,0.0048
2630.00,0.0048
2629.00,0.0048
2628.00,0.0048
2627.00,0.0048
2626.00,0.0049
2625.00,0.0049
2624.00,0.0049
2623.00,0.0049
2622.00,0.0050
2621.00,0.0050
2620.00,0.0049
2619.00,0.0049
2618.00,0.0049
2617.00,0.0049
2616.00,0.0049
2615.00,0.0049
2614.00,0.0049
2613.00,0.0048
2612.00,0.0048
2611.00,0.0048
2610.00,0.0047
2609.00,0.0046
2608.00,0.0046
2607.00,0.0045
2606.00,0.0045
2605.00,0.0044
2604.00,0.0044
2603.00,0.0043
2602.00,0.0042
2601.00,0.0042
2600.00,0.0042
2599.00,0.0042
2598.00,0.0042
2597.00,0.0043
2596.00,0.0043
2595.00,0.0043
2594.00,0.0043
2593.00,0.0043
2592.00,0.0043
2591.00,0.0044
2590.00,0.0044
2589.00,0.0045
2588.00,0.0046
2587.00,0.0047
2586.00,0.0048
2585.00,0.0049
2584.00,0.0049
2583.00,0.0049
2582.00,0.0049
2581.00,0.0048
2580.00,0.0047
2579.00,0.0046
2578.00,0.0045
2577.00,0.0044
2576.00,0.0043
2575.00,0.0043
2574.00,0.0042
2573.00,0.0042
2572.00,0.0042
2571.00,0.0041
2570.00,0.0041
2569.00,0.0040
2568.00,0.0040
2567.00,0.0039
2566.00,0.0038
2565.00,0.0037
2564.00,0.0037
2563.00,0.0037
2562.00,0.0037
2561.00,0.0037
2560.00,0.0037
2559.00,0.0036
2558.00,0.0036
2557.00,0.0036
2556.00,0.0035
2555.00,0.0035
2554.00,0.0035
2553.00,0.0035
2552.00,0.0035
2551.00,0.0034
2550.00,0.0034
2549.00,0.0033
2548.00,0.0033
2547.00,0.0032
2546.00,0.0032
2545.00,0.0031
2544.00,0.0030
2543.00,0.0029
2542.00,0.0030
2541.00,0.0030
2540.00,0.0031
2539.00,0.0031
2538.00,0.0031
2537.00,0.0031
2536.00,0.0030
2535.00,0.0030
2534.00,0.0030
2533.00,0.0030
2532.00,0.0030
2531.00,0.0029
2530.00,0.0028
2529.00,0.0028
2528.00,0.0027
2527.00,0.0027
2526.00,0.0027
2525.00,0.0027
2524.00,0.0027
2523.00,0.0027
2522.00,0.0028
2521.00,0.0028
2520.00,0.0028
2519.00,0.0028
2518.00,0.0028
2517.00,0.0027
2516.00,0.0027
2515.00,0.0026
2514.00,0.0026
2513.00,0.0025
2512.00,0.0025
2511.00,0.0024
2510.00,0.0024
2509.00,0.0024
2508.00,0.0024
2507.00,0.0025
2506.00,0.0025
2505.00,0.0025
2504.00,0.0025
2503.00,0.0024
2502.00,0.0024
2501.00,0.0024
2500.00,0.0025
2499.00,0.0024
2498.00,0.0024
2497.00,0.0023
2496.00,0.0023
2495.00,0.0023
2494.00,0.0023
2493.00,0.0023
2492.00,0.0023
2491.00,0.0023
2490.00,0.0024
2489.00,0.0024
2488.00,0.0024
2487.00,0.0025
2486.00,0.0025
2485.00,0.0025
2484.00,0.0024
2483.00,0.0024
2482.00,0.0023
2481.00,0.0023
2480.00,0.0023
2479.00,0.0023
2478.00,0.0023
2477.00,0.0023
2476.00,0.0023
2475.00,0.0023
2474.00,0.0022
2473.00,0.0022
2472.00,0.0022
2471.00,0.0022
2470.00,0.0022
2469.00,0.0022
2468.00,0.0022
2467.00,0.0023
2466.00,0.0023
2465.00,0.0023
2464.00,0.0023
2463.00,0.0023
2462.00,0.0023
2461.00,0.0023
2460.00,0.0023
2459.00,0.0023
2458.00,0.0023
2457.00,0.0023
2456.00,0.0024
2455.00,0.0024
2454.00,0.0024
2453.00,0.0024
2452.00,0.0024
2451.00,0.0025
2450.00,0.0025
2449.00,0.0025
2448.00,0.0026
2447.00,0.0026
2446.00,0.0025
2445.00,0.0025
2444.00,0.0025
2443.00,0.0025
2442.00,0.0025
2441.00,0.0024
2440.00,0.0024
2439.00,0.0023
2438.00,0.0023
2437.00,0.0023
2436.00,0.0023
2435.00,0.0024
2434.00,0.0024
2433.00,0.0024
2432.00,0.0024
2431.00,0.0024
2430.00,0.0024
2429.00,0.0024
2428.00,0.0024
2427.00,0.0024
2426.00,0.0024
2425.00,0.0024
2424.00,0.0024
2423.00,0.0024
2422.00,0.0024
2421.00,0.0023
2420.00,0.0023
2419.00,0.0022
2418.00,0.0023
2417.00,0.0023
2416.00,0.0023
2415.00,0.0023
2414.00,0.0023
2413.00,0.0022
2412.00,0.0022
2411.00,0.0023
2410.00,0.0023
2409.00,0.0023
2408.00,0.0023
2407.00,0.0022
2406.00,0.0021
2405.00,0.0021
2404.00,0.0020
2403.00,0.0020
2402.00,0.0020
2401.00,0.0020
2400.00,0.0021
2399.00,0.0021
2398.00,0.0021
2397.00,0.0021
2396.00,0.0021
2395.00,0.0021
2394.00,0.0021
2393.00,0.0022
2392.00,0.0022
2391.00,0.0021
2390.00,0.0020
2389.00,0.0019
2388.00,0.0019
2387.00,0.0019
2386.00,0.0018
2385.00,0.0017
2384.00,0.0016
2383.00,0.0014
2382.00,0.0013
2381.00,0.0012
2380.00,0.0011
2379.00,0.0011
2378.00,0.0012
2377.00,0.0012
2376.00,0.0012
2375.00,0.0013
2374.00,0.0013
2373.00,0.0013
2372.00,0.0013
2371.00,0.0013
2370.00,0.0012
2369.00,0.0012
2368.00,0.0011
2367.00,0.0010
2366.00,0.0010
2365.00,0.0011
2364.00,0.0012
2363.00,0.0013
2362.00,0.0013
2361.00,0.0013
2360.00,0.0012
2359.00,0.0013
2358.00,0.0013
2357.00,0.0014
2356.00,0.0014
2355.00,0.0014
2354.00,0.0014
2353.00,0.0014
2352.00,0.0013
2351.00,0.0013
2350.00,0.0014
2349.00,0.0015
2348.00,0.0016
2347.00,0.0016
2346.00,0.0016
2345.00,0.0016
2344.00,0.0016
2343.00,0.0017
2342.00,0.0017
2341.00,0.0018
2340.00,0.0018
2339.00,0.0018
2338.00,0.0018
2337.00,0.0019
2336.00,0.0019
2335.00,0.0019
2334.00,0.0019
2333.00,0.0019
2332.00,0.0018
2331.00,0.0017
2330.00,0.0017
2329.00,0.0018
2328.00,0.0020
2327.00,0.0024
2326.00,0.0029
2325.00,0.0033
2324.00,0.0034
2323.00,0.0033
2322.00,0.0030
2321.00,0.0028
2320.00,0.0027
2319.00,0.0027
2318.00,0.0027
2317.00,0.0026
2316.00,0.0026
2315.00,0.0025
2314.00,0.0023
2313.00,0.0022
2312.00,0.0021
2311.00,0.0020
2310.00,0.0020
2309.00,0.0020
2308.00,0.0021
2307.00,0.0022
2306.00,0.0023
2305.00,0.0024
2304.00,0.0024
2303.00,0.0025
2302.00,0.0025
2301.00,0.0026
2300.00,0.0026
2299.00,0.0026
2298.00,0.0026
2297.00,0.0027
2296.00,0.0027
2295.00,0.0027
2294.00,0.0028
2293.00,0.0029
2292.00,0.0030
2291.00,0.0031
2290.00,0.0032
2289.00,0.0033
2288.00,0.0034
2287.00,0.0035
2286.00,0.0035
2285.00,0.0034
2284.00,0.0034
2283.00,0.0033
2282.00,0.0032
2281.00,0.0030
2280.00,0.0029
2279.00,0.0029
2278.00,0.0029
2277.00,0.0030
2276.00,0.0031
2275.00,0.0031
2274.00,0.0031
2273.00,0.0030
2272.00,0.0029
2271.00,0.0028
2270.00,0.0027
2269.00,0.0026
2268.00,0.0025
2267.00,0.0025
2266.00,0.0025
2265.00,0.0025
2264.00,0.0025
2263.00,0.0025
2262.00,0.0024
2261.00,0.0024
2260.00,0.0025
2259.00,0.0026
2258.00,0.0027
2257.00,0.0027
2256.00,0.0025
2255.00,0.0023
2254.00,0.0021
2253.00,0.0020
2252.00,0.0020
2251.00,0.0021
2250.00,0.0022
2249.00,0.0022
2248.00,0.0023
2247.00,0.0023
2246.00,0.0022
2245.00,0.0022
2244.00,0.0022
2243.00,0.0021
2242.00,0.0021
2241.00,0.0022
2240.00,0.0023
2239.00,0.0024
2238.00,0.0024
2237.00,0.0024
2236.00,0.0023
2235.00,0.0023
2234.00,0.0023
2233.00,0.0023
2232.00,0.0023
2231.00,0.0022
2230.00,0.0022
2229.00,0.0022
2228.00,0.0022
2227.00,0.0022
2226.00,0.0022
2225.00,0.0022
2224.00,0.0021
2223.00,0.0019
2222.00,0.0018
2221.00,0.0018
2220.00,0.0019
2219.00,0.0021
2218.00,0.0022
2217.00,0.0022
2216.00,0.0020
2215.00,0.0019
2214.00,0.0018
2213.00,0.0019
2212.00,0.0020
2211.00,0.0020
2210.00,0.0020
2209.00,0.0019
2208.00,0.0019
2207.00,0.0020
2206.00,0.0020
2205.00,0.0020
2204.00,0.0020
2203.00,0.0018
2202.00,0.0017
2201.00,0.0018
2200.00,0.0021
2199.00,0.0022
2198.00,0.0022
2197.00,0.0021
2196.00,0.0021
2195.00,0.0021
2194.00,0.0023
2193.00,0.0025
2192.00,0.0026
2191.00,0.0026
2190.00,0.0026
2189.00,0.0025
2188.00,0.0024
2187.00,0.0023
2186.00,0.0022
2185.00,0.0021
2184.00,0.0021
2183.00,0.0021
2182.00,0.0022
2181.00,0.0023
2180.00,0.0023
2179.00,0.0023
2178.00,0.0020
2177.00,0.0017
2176.00,0.0014
2175.00,0.0013
2174.00,0.0015
2173.00,0.0020
2172.00,0.0025
2171.00,0.0030
2170.00,0.0033
2169.00,0.0035
2168.00,0.0035
2167.00,0.0035
2166.00,0.0037
2165.00,0.0040
2164.00,0.0042
2163.00,0.0043
2162.00,0.0040
2161.00,0.0033
2160.00,0.0020
2159.00,0.0004
2158.00,-0.0009
2157.00,-0.0015
2156.00,-0.0014
2155.00,-0.0011
2154.00,-0.0008
2153.00,-0.0005
2152.00,-0.0003
2151.00,-0.0002
2150.00,-0.0002
2149.00,-0.0001
2148.00,-0.0000
2147.00,0.0001
2146.00,0.0001
2145.00,0.0000
2144.00,-0.0000
2143.00,-0.0000
2142.00,0.0000
2141.00,0.0002
2140.00,0.0002
2139.00,0.0001
2138.00,-0.0000
2137.00,-0.0002
2136.00,-0.0004
2135.00,-0.0005
2134.00,-0.0006
2133.00,-0.0004
2132.00,-0.0002
2131.00,0.0000
2130.00,0.0003
2129.00,0.0005
2128.00,0.0006
2127.00,0.0007
2126.00,0.0008
2125.00,0.0009
2124.00,0.0010
2123.00,0.0010
2122.00,0.0010
2121.00,0.0011
2120.00,0.0012
2119.00,0.0013
2118.00,0.0014
2117.00,0.0015
2116.00,0.0016
2115.00,0.0016
2114.00,0.0017
2113.00,0.0016
2112.00,0.0016
2111.00,0.0016
2110.00,0.0017
2109.00,0.0017
2108.00,0.0017
2107.00,0.0016
2106.00,0.0016
2105.00,0.0017
2104.00,0.0017
2103.00,0.0017
2102.00,0.0017
2101.00,0.0016
2100.00,0.0017
2099.00,0.0016
2098.00,0.0015
2097.00,0.0013
2096.00,0.0011
2095.00,0.0009
2094.00,0.0008
2093.00,0.0009
2092.00,0.0011
2091.00,0.0013
2090.00,0.0015
2089.00,0.0017
2088.00,0.0019
2087.00,0.0020
2086.00,0.0020
2085.00,0.0019
2084.00,0.0017
2083.00,0.0017
2082.00,0.0017
2081.00,0.0018
2080.00,0.0018
2079.00,0.0019
2078.00,0.0019
2077.00,0.0019
2076.00,0.0019
2075.00,0.0019
2074.00,0.0018
2073.00,0.0017
2072.00,0.0017
2071.00,0.0017
2070.00,0.0017
2069.00,0.0017
2068.00,0.0016
2067.00,0.0015
2066.00,0.0013
2065.00,0.0011
2064.00,0.0011
2063.00,0.0013
2062.00,0.0014
2061.00,0.0013
2060.00,0.0012
2059.00,0.0011
2058.00,0.0011
2057.00,0.0014
2056.00,0.0017
2055.00,0.0018
2054.00,0.0019
2053.00,0.0022
2052.00,0.0026
2051.00,0.0028
2050.00,0.0028
2049.00,0.0025
2048.00,0.0021
2047.00,0.0018
2046.00,0.0015
2045.00,0.0012
2044.00,0.0010
2043.00,0.0009
2042.00,0.0010
2041.00,0.0013
2040.00,0.0015
2039.00,0.0017
2038.00,0.0018
2037.00,0.0020
2036.00,0.0020
2035.00,0.0017
2034.00,0.0012
2033.00,0.0007
2032.00,0.0003
2031.00,0.0002
2030.00,0.0002
2029.00,0.0002
2028.00,0.0003
2027.00,0.0004
2026.00,0.0006
2025.00,0.0007
2024.00,0.0006
2023.00,0.0005
2022.00,0.0005
2021.00,0.0008
2020.00,0.0010
2019.00,0.0010
2018.00,0.0008
2017.00,0.0004
2016.00,0.0003
2015.00,0.0002
2014.00,0.0004
2013.00,0.0005
2012.00,0.0007
2011.00,0.0008
2010.00,0.0007
2009.00,0.0004
2008.00,0.0001
2007.00,-0.0002
2006.00,-0.0003
2005.00,-0.0000
2004.00,0.0002
2003.00,0.0002
2002.00,0.0002
2001.00,0.0001
2000.00,0.0001
1999.00,0.0003
1998.00,0.0005
1997.00,0.0006
1996.00,0.0007
1995.00,0.0007
1994.00,0.0005
1993.00,0.0005
1992.00,0.0005
1991.00,0.0008
1990.00,0.0011
1989.00,0.0014
1988.00,0.0016
1987.00,0.0017
1986.00,0.0017
1985.00,0.0017
1984.00,0.0019
1983.00,0.0022
1982.00,0.0027
1981.00,0.0031
1980.00,0.0033
1979.00,0.0030
1978.00,0.0023
1977.00,0.0016
1976.00,0.0012
1975.00,0.0009
1974.00,0.0007
1973.00,0.0006
1972.00,0.0004
1971.00,0.0002
1970.00,-0.0001
1969.00,-0.0003
1968.00,-0.0003
1967.00,-0.0003
1966.00,-0.0001
1965.00,0.0001
1964.00,0.0002
1963.00,0.0001
1962.00,-0.0001
1961.00,-0.0001
1960.00,-0.0000
1959.00,-0.0001
1958.00,-0.0004
1957.00,-0.0007
1956.00,-0.0008
1955.00,-0.0007
1954.00,-0.0005
1953.00,-0.0003
1952.00,-0.0001
1951.00,-0.0001
1950.00,-0.0000
1949.00,0.0001
1948.00,0.0002
1947.00,0.0002
1946.00,0.0001
1945.00,-0.0001
1944.00,-0.0002
1943.00,-0.0004
1942.00,-0.0004
1941.00,-0.0004
1940.00,-0.0003
1939.00,-0.0002
1938.00,0.0000
1937.00,0.0003
1936.00,0.0004
1935.00,0.0006
1934.00,0.0007
1933.00,0.0007
1932.00,0.0006
1931.00,0.0005
1930.00,0.0004
1929.00,0.0004
1928.00,0.0004
1927.00,0.0005
1926.00,0.0005
1925.00,0.0005
1924.00,0.0006
1923.00,0.0008
1922.00,0.0009
1921.00,0.0010
1920.00,0.0010
1919.00,0.0009
1918.00,0.0008
1917.00,0.0008
1916.00,0.0008
1915.00,0.0009
1914.00,0.0009
1913.00,0.0009
1912.00,0.0009
1911.00,0.0009
1910.00,0.0008
1909.00,0.0008
1908.00,0.0008
1907.00,0.0009
1906.00,0.0011
1905.00,0.0012
1904.00,0.0012
1903.00,0.0011
1902.00,0.0010
1901.00,0.0009
1900.00,0.0009
1899.00,0.0010
1898.00,0.0010
1897.00,0.0011
1896.00,0.0011
1895.00,0.0012
1894.00,0.0012
1893.00,0.0012
1892.00,0.0013
1891.00,0.0013
1890.00,0.0013
1889.00,0.0013
1888.00,0.0012
1887.00,0.0011
1886.00,0.0011
1885.00,0.0012
1884.00,0.0012
1883.00,0.0012
1882.00,0.0012
1881.00,0.0012
1880.00,0.0013
1879.00,0.0013
1878.00,0.0013
1877.00,0.0013
1876.00,0.0013
1875.00,0.0012
1874.00,0.0011
1873.00,0.0011
1872.00,0.0011
1871.00,0.0012
1870.00,0.0013
1869.00,0.0014
1868.00,0.0014
1867.00,0.0013
1866.00,0.0012
1865.00,0.0012
1864.00,0.0012
1863.00,0.0013
1862.00,0.0013
1861.00,0.0013
1860.00,0.0013
1859.00,0.0014
1858.00,0.0014
1857.00,0.0013
1856.00,0.0013
1855.00,0.0013
1854.00,0.0013
1853.00,0.0014
1852.00,0.0015
1851.00,0.0014
1850.00,0.0013
1849.00,0.0012
1848.00,0.0012
1847.00,0.0012
1846.00,0.0012
1845.00,0.0013
1844.00,0.0014
1843.00,0.0015
1842.00,0.0015
1841.00,0.0015
1840.00,0.0014
1839.00,0.0014
1838.00,0.0013
1837.00,0.0014
1836.00,0.0015
1835.00,0.0015
1834.00,0.0015
1833.00,0.0016
1832.00,0.0017
1831.00,0.0017
1830.00,0.0017
1829.00,0.0016
1828.00,0.0016
1827.00,0.0016
1826.00,0.0016
1825.00,0.0017
1824.00,0.0017
1823.00,0.0017
1822.00,0.0017
1821.00,0.0016
1820.00,0.0015
1819.00,0.0014
1818.00,0.0012
1817.00,0.0012
1816.00,0.0012
1815.00,0.0013
1814.00,0.0014
1813.00,0.0015
1812.00,0.0016
1811.00,0.0016
1810.00,0.0016
1809.00,0.0017
1808.00,0.0018
1807.00,0.0018
1806.00,0.0018
1805.00,0.0018
1804.00,0.0019
1803.00,0.0019
1802.00,0.0019
1801.00,0.0020
1800.00,0.0020
1799.00,0.0021
1798.00,0.0021
1797.00,0.0021
1796.00,0.0021
1795.00,0.0021
1794.00,0.0021
1793.00,0.0022
1792.00,0.0022
1791.00,0.0022
1790.00,0.0022
1789.00,0.0021
1788.00,0.0021
1787.00,0.0021
1786.00,0.0021
1785.00,0.0021
1784.00,0.0021
1783.00,0.0021
1782.00,0.0021
1781.00,0.0021
1780.00,0.0021
1779.00,0.0021
1778.00,0.0021
1777.00,0.0021
1776.00,0.0021
1775.00,0.0022
1774.00,0.0022
1773.00,0.0022
1772.00,0.0023
1771.00,0.0023
1770.00,0.0024
1769.00,0.0024
1768.00,0.0024
1767.00,0.0024
1766.00,0.0024
1765.00,0.0024
1764.00,0.0025
1763.00,0.0026
1762.00,0.0026
1761.00,0.0025
1760.00,0.0026
1759.00,0.0026
1758.00,0.0027
1757.00,0.0028
1756.00,0.0029
1755.00,0.0030
1754.00,0.0030
1753.00,0.0031
1752.00,0.0031
1751.00,0.0032
1750.00,0.0032
1749.00,0.0033
1748.00,0.0034
1747.00,0.0034
1746.00,0.0035
1745.00,0.0035
1744.00,0.0036
1743.00,0.0036
1742.00,0.0036
1741.00,0.0036
1740.00,0.0037
1739.00,0.0037
1738.00,0.0037
1737.00,0.0037
1736.00,0.0037
1735.00,0.0037
1734.00,0.0037
1733.00,0.0036
1732.00,0.0036
1731.00,0.0036
1730.00,0.0036
1729.00,0.0036
1728.00,0.0036
1727.00,0.0036
1726.00,0.0036
1725.00,0.0035
1724.00,0.0035
1723.00,0.0035
1722.00,0.0035
1721.00,0.0035
1720.00,0.0035
1719.00,0.0035
1718.00,0.0035
1717.00,0.0035
1716.00,0.0035
1715.00,0.0035
1714.00,0.0035
1713.00,0.0036
1712.00,0.0036
1711.00,0.0037
1710.00,0.0037
1709.00,0.0038
1708.00,0.0038
1707.00,0.0038
1706.00,0.0038
1705.00,0.0039
1704.00,0.0040
1703.00,0.0041
1702.00,0.0043
1701.00,0.0045
1700.00,0.0046
1699.00,0.0047
1698.00,0.0048
1697.00,0.0048
1696.00,0.0050
1695.00,0.0053
1694.00,0.0055
1693.00,0.0058
1692.00,0.0060
1691.00,0.0063
1690.00,0.0065
1689.00,0.0067
1688.00,0.0069
1687.00,0.0071
1686.00,0.0073
1685.00,0.0076
1684.00,0.0081
1683.00,0.0085
1682.00,0.0088
1681.00,0.0090
1680.00,0.0092
1679.00,0.0094
1678.00,0.0096
1677.00,0.0098
1676.00,0.0101
1675.00,0.0103
1674.00,0.0104
1673.00,0.0105
1672.00,0.0105
1671.00,0.0105
1670.00,0.0106
1669.00,0.0108
1668.00,0.0109
1667.00,0.0110
1666.00,0.0110
1665.00,0.0110
1664.00,0.0110
1663.00,0.0110
1662.00,0.0110
1661.00,0.0110
1660.00,0.0110
1659.00,0.0109
1658.00,0.0108
1657.00,0.0107
1656.00,0.0106
1655.00,0.0105
1654.00,0.0103
1653.00,0.0101
1652.00,0.0100
1651.00,0.0099
1650.00,0.0098
1649.00,0.0096
1648.00,0.0095
1647.00,0.0094
1646.00,0.0094
1645.00,0.0093
1644.00,0.0091
1643.00,0.0090
1642.00,0.0089
1641.00,0.0087
1640.00,0.0086
1639.00,0.0085
1638.00,0.0084
1637.00,0.0083
1636.00,0.0082
1635.00,0.0081
1634.00,0.0080
1633.00,0.0079
1632.00,0.0079
1631.00,0.0078
1630.00,0.0078
1629.00,0.0077
1628.00,0.0077
1627.00,0.0076
1626.00,0.0075
1625.00,0.0073
1624.00,0.0072
1623.00,0.0072
1622.00,0.0072
1621.00,0.0072
1620.00,0.0072
1619.00,0.0071
1618.00,0.0070
1617.00,0.0070
1616.00,0.0069
1615.00,0.0069
1614.00,0.0069
1613.00,0.0070
1612.00,0.0069
1611.00,0.0069
1610.00,0.0069
1609.00,0.0069
1608.00,0.0069
1607.00,0.0068
1606.00,0.0068
1605.00,0.0068
1604.00,0.0068
1603.00,0.0068
1602.00,0.0068
1601.00,0.0068
1600.00,0.0068
1599.00,0.0068
1598.00,0.0068
1597.00,0.0068
1596.00,0.0068
1595.00,0.0068
1594.00,0.0067
1593.00,0.0067
1592.00,0.0067
1591.00,0.0068
1590.00,0.0069
1589.00,0.0070
1588.00,0.0070
1587.00,0.0071
1586.00,0.0072
1585.00,0.0073
1584.00,0.0074
1583.00,0.0076
1582.00,0.0077
1581.00,0.0079
1580.00,0.0079
1579.00,0.0080
1578.00,0.0079
1577.00,0.0079
1576.00,0.0079
1575.00,0.0078
1574.00,0.0078
1573.00,0.0078
1572.00,0.0077
1571.00,0.0076
1570.00,0.0074
1569.00,0.0073
1568.00,0.0073
1567.00,0.0072
1566.00,0.0072
1565.00,0.0072
1564.00,0.0072
1563.00,0.0072
1562.00,0.0072
1561.00,0.0072
1560.00,0.0072
1559.00,0.0073
1558.00,0.0074
1557.00,0.0075
1556.00,0.0076
1555.00,0.0077
1554.00,0.0079
1553.00,0.0080
1552.00,0.0081
1551.00,0.0082
1550.00,0.0084
1549.00,0.0085
1548.00,0.0086
1547.00,0.0087
1546.00,0.0089
1545.00,0.0091
1544.00,0.0093
1543.00,0.0093
1542.00,0.0093
1541.00,0.0093
1540.00,0.0093
1539.00,0.0091
1538.00,0.0090
1537.00,0.0088
1536.00,0.0087
1535.00,0.0085
1534.00,0.0084
1533.00,0.0083
1532.00,0.0083
1531.00,0.0082
1530.00,0.0081
1529.00,0.0080
1528.00,0.0080
1527.00,0.0080
1526.00,0.0080
1525.00,0.0080
1524.00,0.0080
1523.00,0.0081
1522.00,0.0081
1521.00,0.0082
1520.00,0.0084
1519.00,0.0084
1518.00,0.0084
1517.00,0.0085
1516.00,0.0087
1515.00,0.0088
1514.00,0.0089
1513.00,0.0090
1512.00,0.0092
1511.00,0.0093
1510.00,0.0093
1509.00,0.0095
1508.00,0.0097
1507.00,0.0100
1506.00,0.0103
1505.00,0.0105
1504.00,0.0107
1503.00,0.0108
1502.00,0.0110
1501.00,0.0112
1500.00,0.0115
1499.00,0.0118
1498.00,0.0121
1497.00,0.0126
1496.00,0.0130
1495.00,0.0133
1494.00,0.0135
1493.00,0.0138
1492.00,0.0142
1491.00,0.0146
1490.00,0.0150
1489.00,0.0156
1488.00,0.0162
1487.00,0.0167
1486.00,0.0172
1485.00,0.0177
1484.00,0.0184
1483.00,0.0190
1482.00,0.0198
1481.00,0.0209
1480.00,0.0220
1479.00,0.0230
1478.00,0.0242
1477.00,0.0259
1476.00,0.0278
1475.00,0.0300
1474.00,0.0331
1473.00,0.0379
1472.00,0.0436
1471.00,0.0489
1470.00,0.0538
1469.00,0.0587
1468.00,0.0639
1467.00,0.0697
1466.00,0.0767
1465.00,0.0844
1464.00,0.0913
1463.00,0.0960
1462.00,0.0987
1461.00,0.1005
1460.00,0.1017
1459.00,0.1029
1458.00,0.1051
1457.00,0.1081
1456.00,0.1099
1455.00,0.1099
1454.00,0.1088
1453.00,0.1074
1452.00,0.1055
1451.00,0.1028
1450.00,0.0991
1449.00,0.0940
1448.00,0.0875
1447.00,0.0805
1446.00,0.0739
1445.00,0.0679
1444.00,0.0628
1443.00,0.0585
1442.00,0.0554
1441.00,0.0532
1440.00,0.0517
1439.00,0.0510
1438.00,0.0511
1437.00,0.0514
1436.00,0.0509
1435.00,0.0489
1434.00,0.0456
1433.00,0.0417
1432.00,0.0378
1431.00,0.0345
1430.00,0.0319
1429.00,0.0301
1428.00,0.0289
1427.00,0.0281
1426.00,0.0275
1425.00,0.0270
1424.00,0.0264
1423.00,0.0260
1422.00,0.0256
1421.00,0.0251
1420.00,0.0246
1419.00,0.0242
1418.00,0.0237
1417.00,0.0232
1416.00,0.0226
1415.00,0.0221
1414.00,0.0216
1413.00,0.0211
1412.00,0.0206
1411.00,0.0202
1410.00,0.0198
1409.00,0.0193
1408.00,0.0189
1407.00,0.0185
1406.00,0.0182
1405.00,0.0179
1404.00,0.0176
1403.00,0.0174
1402.00,0.0173
1401.00,0.0171
1400.00,0.0170
1399.00,0.0170
1398.00,0.0170
1397.00,0.0169
1396.00,0.0169
1395.00,0.0170
1394.00,0.0172
1393.00,0.0174
1392.00,0.0176
1391.00,0.0181
1390.00,0.0189
1389.00,0.0202
1388.00,0.0222
1387.00,0.0253
1386.00,0.0293
1385.00,0.0344
1384.00,0.0411
1383.00,0.0501
1382.00,0.0617
1381.00,0.0762
1380.00,0.0937
1379.00,0.1133
1378.00,0.1323
1377.00,0.1463
1376.00,0.1516
1375.00,0.1458
1374.00,0.1303
1373.00,0.1104
1372.00,0.0910
1371.00,0.0743
1370.00,0.0607
1369.00,0.0501
1368.00,0.0428
1367.00,0.0382
1366.00,0.0357
1365.00,0.0346
1364.00,0.0348
1363.00,0.0360
1362.00,0.0378
1361.00,0.0396
1360.00,0.0407
1359.00,0.0408
1358.00,0.0396
1357.00,0.0372
1356.00,0.0340
1355.00,0.0304
1354.00,0.0271
1353.00,0.0243
1352.00,0.0220
1351.00,0.0202
1350.00,0.0188
1349.00,0.0176
1348.00,0.0166
1347.00,0.0158
1346.00,0.0151
1345.00,0.0146
1344.00,0.0142
1343.00,0.0138
1342.00,0.0135
1341.00,0.0132
1340.00,0.0130
1339.00,0.0129
1338.00,0.0128
1337.00,0.0128
1336.00,0.0128
1335.00,0.0129
1334.00,0.0131
1333.00,0.0134
1332.00,0.0137
1331.00,0.0140
1330.00,0.0141
1329.00,0.0140
1328.00,0.0138
1327.00,0.0134
1326.00,0.0130
1325.00,0.0125
1324.00,0.0120
1323.00,0.0115
1322.00,0.0112
1321.00,0.0110
1320.00,0.0108
1319.00,0.0107
1318.00,0.0106
1317.00,0.0104
1316.00,0.0102
1315.00,0.0101
1314.00,0.0100
1313.00,0.0099
1312.00,0.0100
1311.00,0.0102
1310.00,0.0106
1309.00,0.0112
1308.00,0.0120
1307.00,0.0129
1306.00,0.0139
1305.00,0.0146
1304.00,0.0148
1303.00,0.0146
1302.00,0.0143
1301.00,0.0140
1300.00,0.0138
1299.00,0.0139
1298.00,0.0141
1297.00,0.0143
1296.00,0.0143
1295.00,0.0143
1294.00,0.0141
1293.00,0.0138
1292.00,0.0134
1291.00,0.0130
1290.00,0.0127
1289.00,0.0123
1288.00,0.0120
1287.00,0.0116
1286.00,0.0114
1285.00,0.0111
1284.00,0.0109
1283.00,0.0107
1282.00,0.0105
1281.00,0.0103
1280.00,0.0101
1279.00,0.0100
1278.00,0.0099
1277.00,0.0098
1276.00,0.0098
1275.00,0.0097
1274.00,0.0096
1273.00,0.0096
1272.00,0.0096
1271.00,0.0096
1270.00,0.0097
1269.00,0.0097
1268.00,0.0098
1267.00,0.0098
1266.00,0.0099
1265.00,0.0100
1264.00,0.0101
1263.00,0.0104
1262.00,0.0107
1261.00,0.0110
1260.00,0.0115
1259.00,0.0121
1258.00,0.0127
1257.00,0.0132
1256.00,0.0134
1255.00,0.0132
1254.00,0.0127
1253.00,0.0120
1252.00,0.0113
1251.00,0.0108
1250.00,0.0103
1249.00,0.0100
1248.00,0.0098
1247.00,0.0097
1246.00,0.0096
1245.00,0.0095
1244.00,0.0094
1243.00,0.0094
1242.00,0.0094
1241.00,0.0093
1240.00,0.0093
1239.00,0.0093
1238.00,0.0093
1237.00,0.0093
1236.00,0.0092
1235.00,0.0092
1234.00,0.0092
1233.00,0.0092
1232.00,0.0092
1231.00,0.0092
1230.00,0.0092
1229.00,0.0093
1228.00,0.0094
1227.00,0.0095
1226.00,0.0097
1225.00,0.0098
1224.00,0.0100
1223.00,0.0103
1222.00,0.0105
1221.00,0.0107
1220.00,0.0108
1219.00,0.0109
1218.00,0.0108
1217.00,0.0107
1216.00,0.0105
1215.00,0.0102
1214.00,0.0100
1213.00,0.0098
1212.00,0.0095
1211.00,0.0093
1210.00,0.0091
1209.00,0.0090
1208.00,0.0089
1207.00,0.0088
1206.00,0.0088
1205.00,0.0087
1204.00,0.0087
1203.00,0.0087
1202.00,0.0087
1201.00,0.0087
1200.00,0.0086
1199.00,0.0086
1198.00,0.0086
1197.00,0.0086
1196.00,0.0086
1195.00,0.0087
1194.00,0.0087
1193.00,0.0087
1192.00,0.0088
1191.00,0.0088
1190.00,0.0089
1189.00,0.0089
1188.00,0.0090
1187.00,0.0090
1186.00,0.0091
1185.00,0.0091
1184.00,0.0092
1183.00,0.0093
1182.00,0.0095
1181.00,0.0097
1180.00,0.0100
1179.00,0.0105
1178.00,0.0111
1177.00,0.0118
1176.00,0.0128
1175.00,0.0141
1174.00,0.0159
1173.00,0.0181
1172.00,0.0208
1171.00,0.0237
1170.00,0.0265
1169.00,0.0287
1168.00,0.0300
1167.00,0.0304
1166.00,0.0298
1165.00,0.0286
1164.00,0.0271
1163.00,0.0256
1162.00,0.0242
1161.00,0.0229
1160.00,0.0220
1159.00,0.0212
1158.00,0.0206
1157.00,0.0201
1156.00,0.0198
1155.00,0.0196
1154.00,0.0194
1153.00,0.0192
1152.00,0.0188
1151.00,0.0182
1150.00,0.0175
1149.00,0.0166
1148.00,0.0158
1147.00,0.0151
1146.00,0.0145
1145.00,0.0139
1144.00,0.0133
1143.00,0.0128
1142.00,0.0123
1141.00,0.0118
1140.00,0.0114
1139.00,0.0110
1138.00,0.0107
1137.00,0.0104
1136.00,0.0102
1135.00,0.0101
1134.00,0.0100
1133.00,0.0099
1132.00,0.0099
1131.00,0.0099
1130.00,0.0100
1129.00,0.0100
1128.00,0.0100
1127.00,0.0101
1126.00,0.0102
1125.00,0.0103
1124.00,0.0104
1123.00,0.0104
1122.00,0.0104
1121.00,0.0104
1120.00,0.0104
1119.00,0.0105
1118.00,0.0106
1117.00,0.0106
1116.00,0.0108
1115.00,0.0109
1114.00,0.0111
1113.00,0.0113
1112.00,0.0115
1111.00,0.0117
1110.00,0.0119
1109.00,0.0122
1108.00,0.0125
1107.00,0.0130
1106.00,0.0135
1105.00,0.0140
1104.00,0.0144
1103.00,0.0147
1102.00,0.0148
1101.00,0.0146
1100.00,0.0142
1099.00,0.0138
1098.00,0.0133
1097.00,0.0128
1096.00,0.0123
1095.00,0.0119
1094.00,0.0115
1093.00,0.0113
1092.00,0.0111
1091.00,0.0109
1090.00,0.0108
1089.00,0.0107
1088.00,0.0106
1087.00,0.0104
1086.00,0.0102
1085.00,0.0101
1084.00,0.0100
1083.00,0.0100
1082.00,0.0099
1081.00,0.0097
1080.00,0.0095
1079.00,0.0094
1078.00,0.0093
1077.00,0.0093
1076.00,0.0093
1075.00,0.0093
1074.00,0.0093
1073.00,0.0093
1072.00,0.0092
1071.00,0.0091
1070.00,0.0091
1069.00,0.0091
1068.00,0.0091
1067.00,0.0092
1066.00,0.0092
1065.00,0.0092
1064.00,0.0092
1063.00,0.0092
1062.00,0.0092
1061.00,0.0092
1060.00,0.0092
1059.00,0.0093
1058.00,0.0093
1057.00,0.0094
1056.00,0.0095
1055.00,0.0095
1054.00,0.0096
1053.00,0.0097
1052.00,0.0098
1051.00,0.0100
1050.00,0.0102
1049.00,0.0103
1048.00,0.0105
1047.00,0.0107
1046.00,0.0109
1045.00,0.0111
1044.00,0.0110
1043.00,0.0109
1042.00,0.0108
1041.00,0.0107
1040.00,0.0106
1039.00,0.0106
1038.00,0.0107
1037.00,0.0107
1036.00,0.0106
1035.00,0.0105
1034.00,0.0103
1033.00,0.0102
1032.00,0.0101
1031.00,0.0100
1030.00,0.0100
1029.00,0.0099
1028.00,0.0099
1027.00,0.0100
1026.00,0.0100
1025.00,0.0100
1024.00,0.0101
1023.00,0.0101
1022.00,0.0102
1021.00,0.0102
1020.00,0.0101
1019.00,0.0101
1018.00,0.0102
1017.00,0.0104
1016.00,0.0106
1015.00,0.0108
1014.00,0.0112
1013.00,0.0115
1012.00,0.0118
1011.00,0.0120
1010.00,0.0123
1009.00,0.0125
1008.00,0.0128
1007.00,0.0134
1006.00,0.0142
1005.00,0.0154
1004.00,0.0169
1003.00,0.0189
1002.00,0.0214
1001.00,0.0243
1000.00,0.0275
999.00,0.0300
998.00,0.0312
997.00,0.0306
996.00,0.0282
995.00,0.0248
994.00,0.0213
993.00,0.0183
992.00,0.0159
991.00,0.0142
990.00,0.0130
989.00,0.0121
988.00,0.0116
987.00,0.0113
986.00,0.0112
985.00,0.0114
984.00,0.0118
983.00,0.0124
982.00,0.0134
981.00,0.0148
980.00,0.0167
979.00,0.0192
978.00,0.0222
977.00,0.0257
976.00,0.0295
975.00,0.0332
974.00,0.0360
973.00,0.0370
972.00,0.0359
971.00,0.0328
970.00,0.0285
969.00,0.0241
968.00,0.0203
967.00,0.0173
966.00,0.0151
965.00,0.0135
964.00,0.0124
963.00,0.0116
962.00,0.0109
961.00,0.0104
960.00,0.0099
959.00,0.0095
958.00,0.0091
957.00,0.0087
956.00,0.0086
955.00,0.0085
954.00,0.0085
953.00,0.0084
952.00,0.0083
951.00,0.0082
950.00,0.0081
949.00,0.0080
948.00,0.0080
947.00,0.0081
946.00,0.0082
945.00,0.0084
944.00,0.0087
943.00,0.0089
942.00,0.0091
941.00,0.0091
940.00,0.0089
939.00,0.0087
938.00,0.0085
937.00,0.0082
936.00,0.0079
935.00,0.0076
934.00,0.0073
933.00,0.0071
932.00,0.0069
931.00,0.0067
930.00,0.0067
929.00,0.0066
928.00,0.0066
927.00,0.0066
926.00,0.0067
925.00,0.0068
924.00,0.0068
923.00,0.0069
922.00,0.0071
921.00,0.0072
920.00,0.0073
919.00,0.0074
918.00,0.0074
917.00,0.0074
916.00,0.0074
915.00,0.0074
914.00,0.0075
913.00,0.0077
912.00,0.0078
911.00,0.0078
910.00,0.0079
909.00,0.0081
908.00,0.0083
907.00,0.0086
906.00,0.0092
905.00,0.0101
904.00,0.0114
903.00,0.0130
902.00,0.0147
901.00,0.0162
900.00,0.0171
899.00,0.0172
898.00,0.0166
897.00,0.0153
896.00,0.0137
895.00,0.0123
894.00,0.0110
893.00,0.0101
892.00,0.0093
891.00,0.0088
890.00,0.0084
889.00,0.0081
888.00,0.0081
887.00,0.0082
886.00,0.0083
885.00,0.0084
884.00,0.0087
883.00,0.0091
882.00,0.0097
881.00,0.0103
880.00,0.0110
879.00,0.0117
878.00,0.0122
877.00,0.0125
876.00,0.0125
875.00,0.0124
874.00,0.0121
873.00,0.0116
872.00,0.0109
871.00,0.0101
870.00,0.0093
869.00,0.0088
868.00,0.0085
867.00,0.0083
866.00,0.0082
865.00,0.0083
864.00,0.0084
863.00,0.0085
862.00,0.0087
861.00,0.0088
860.00,0.0089
859.00,0.0090
858.00,0.0091
857.00,0.0091
856.00,0.0092
855.00,0.0093
854.00,0.0095
853.00,0.0098
852.00,0.0100
851.00,0.0103
850.00,0.0108
849.00,0.0115
848.00,0.0125
847.00,0.0139
846.00,0.0160
845.00,0.0189
844.00,0.0226
843.00,0.0266
842.00,0.0295
841.00,0.0301
840.00,0.0281
839.00,0.0245
838.00,0.0206
837.00,0.0176
836.00,0.0155
835.00,0.0142
834.00,0.0134
833.00,0.0127
832.00,0.0123
831.00,0.0119
830.00,0.0117
829.00,0.0114
828.00,0.0112
827.00,0.0110
826.00,0.0110
825.00,0.0109
824.00,0.0108
823.00,0.0106
822.00,0.0105
821.00,0.0106
820.00,0.0109
819.00,0.0113
818.00,0.0118
817.00,0.0122
816.00,0.0128
815.00,0.0137
814.00,0.0148
813.00,0.0162
812.00,0.0175
811.00,0.0188
810.00,0.0198
809.00,0.0201
808.00,0.0197
807.00,0.0186
806.00,0.0172
805.00,0.0159
804.00,0.0147
803.00,0.0137
802.00,0.0128
801.00,0.0122
800.00,0.0118
799.00,0.0114
798.00,0.0111
797.00,0.0107
796.00,0.0104
795.00,0.0101
794.00,0.0099
793.00,0.0096
792.00,0.0094
791.00,0.0091
790.00,0.0089
789.00,0.0088
788.00,0.0086
787.00,0.0085
786.00,0.0083
785.00,0.0081
784.00,0.0078
783.00,0.0077
782.00,0.0076
781.00,0.0075
780.00,0.0074
779.00,0.0073
778.00,0.0073
777.00,0.0073
776.00,0.0074
775.00,0.0075
774.00,0.0077
773.00,0.0079
772.00,0.0081
771.00,0.0084
770.00,0.0087
769.00,0.0089
768.00,0.0090
767.00,0.0089
766.00,0.0087
765.00,0.0083
764.00,0.0079
763.00,0.0076
762.00,0.0073
761.00,0.0071
760.00,0.0068
759.00,0.0065
758.00,0.0064
757.00,0.0064
756.00,0.0065
755.00,0.0066
754.00,0.0066
753.00,0.0066
752.00,0.0067
751.00,0.0068
750.00,0.0069
749.00,0.0069
748.00,0.0069
747.00,0.0068
746.00,0.0068
745.00,0.0069
744.00,0.0069
743.00,0.0070
742.00,0.0070
741.00,0.0070
740.00,0.0071
739.00,0.0072
738.00,0.0074
737.00,0.0076
736.00,0.0079
735.00,0.0080
734.00,0.0080
733.00,0.0079
732.00,0.0078
731.00,0.0080
730.00,0.0081
729.00,0.0083
728.00,0.0083
727.00,0.0082
726.00,0.0081
725.00,0.0080
724.00,0.0079
723.00,0.0080
722.00,0.0081
721.00,0.0082
720.00,0.0082
719.00,0.0081
718.00,0.0080
717.00,0.0079
716.00,0.0077
715.00,0.0076
714.00,0.0076
713.00,0.0076
712.00,0.0076
711.00,0.0076
710.00,0.0075
709.00,0.0074
708.00,0.0074
707.00,0.0074
706.00,0.0075
705.00,0.0074
704.00,0.0074
703.00,0.0073
702.00,0.0072
701.00,0.0072
700.00,0.0072
699.00,0.0071
698.00,0.0069
697.00,0.0066
696.00,0.0064
695.00,0.0065
694.00,0.0066
693.00,0.0068
692.00,0.0069
691.00,0.0069
690.00,0.0069
689.00,0.0067
688.00,0.0066
687.00,0.0065
686.00,0.0066
685.00,0.0067
684.00,0.0067
683.00,0.0067
682.00,0.0066
681.00,0.0065
680.00,0.0065
679.00,0.0064
678.00,0.0065
677.00,0.0066
676.00,0.0068
675.00,0.0070
674.00,0.0072
673.00,0.0074
672.00,0.0074
671.00,0.0073
670.00,0.0070
669.00,0.0066
668.00,0.0065
667.00,0.0067
666.00,0.0069
665.00,0.0069
664.00,0.0069
663.00,0.0069
662.00,0.0069
661.00,0.0068
660.00,0.0068
659.00,0.0069
658.00,0.0070
657.00,0.0069
656.00,0.0068
655.00,0.0068
654.00,0.0068
653.00,0.0068
652.00,0.0067
651.00,0.0065
650.00,0.0064
649.00,0.0064
648.00,0.0067
647.00,0.0071
646.00,0.0073
645.00,0.0073
644.00,0.0072
643.00,0.0070
642.00,0.0069
641.00,0.0067
640.00,0.0066
639.00,0.0065
638.00,0.0066
637.00,0.0067
636.00,0.0069
635.00,0.0071
634.00,0.0071
633.00,0.0070
632.00,0.0068
631.00,0.0067
630.00,0.0068
629.00,0.0070
628.00,0.0073
627.00,0.0075
626.00,0.0075
625.00,0.0075
624.00,0.0074
623.00,0.0073
622.00,0.0072
621.00,0.0071
620.00,0.0069
619.00,0.0069
618.00,0.0070
617.00,0.0072
616.00,0.0074
615.00,0.0074
614.00,0.0075
613.00,0.0075
612.00,0.0075
611.00,0.0074
610.00,0.0072
609.00,0.0071
608.00,0.0070
607.00,0.0069
606.00,0.0069
605.00,0.0069
604.00,0.0071
603.00,0.0074
602.00,0.0075
601.00,0.0075
600.00,0.0075
599.00,0.0075
598.00,0.0076
597.00,0.0077
596.00,0.0076
595.00,0.0076
594.00,0.0075
593.00,0.0074
592.00,0.0074
591.00,0.0073
590.00,0.0073
589.00,0.0073
588.00,0.0073
587.00,0.0075
586.00,0.0078
585.00,0.0081
584.00,0.0083
583.00,0.0085
582.00,0.0085
581.00,0.0084
580.00,0.0084
579.00,0.0083
578.00,0.0082
577.00,0.0080
576.00,0.0079
575.00,0.0079
574.00,0.0081
573.00,0.0082
572.00,0.0082
571.00,0.0079
570.00,0.0075
569.00,0.0074
568.00,0.0075
567.00,0.0078
566.00,0.0079
565.00,0.0079
564.00,0.0078
563.00,0.0077
562.00,0.0075
561.00,0.0074
560.00,0.0073
559.00,0.0073
558.00,0.0073
557.00,0.0073
556.00,0.0073
555.00,0.0075
554.00,0.0076
553.00,0.0076
552.00,0.0074
551.00,0.0072
550.00,0.0073
549.00,0.0076
548.00,0.0080
547.00,0.0081
546.00,0.0080
545.00,0.0077
544.00,0.0074
543.00,0.0073
542.00,0.0074
541.00,0.0078
540.00,0.0080
539.00,0.0081
538.00,0.0081
537.00,0.0082
536.00,0.0083
535.00,0.0084
534.00,0.0085
533.00,0.0087
532.00,0.0090
531.00,0.0093
530.00,0.0096
529.00,0.0096
528.00,0.0094
527.00,0.0092
526.00,0.0091
525.00,0.0089
524.00,0.0087
523.00,0.0083
522.00,0.0079
521.00,0.0074
520.00,0.0070
519.00,0.0067
518.00,0.0067
517.00,0.0067
516.00,0.0067
515.00,0.0067
514.00,0.0069
513.00,0.0072
512.00,0.0072
511.00,0.0069
510.00,0.0063
509.00,0.0058
508.00,0.0058
507.00,0.0063
506.00,0.0070
505.00,0.0077
504.00,0.0081
503.00,0.0084
502.00,0.0083
501.00,0.0080
500.00,0.0075
499.00,0.0071
498.00,0.0069
497.00,0.0070
496.00,0.0071
495.00,0.0069
494.00,0.0068
493.00,0.0070
492.00,0.0076
491.00,0.0082
490.00,0.0083
489.00,0.0080
488.00,0.0075
487.00,0.0071
486.00,0.0069
485.00,0.0065
484.00,0.0063
483.00,0.0065
482.00,0.0071
481.00,0.0079
480.00,0.0085
479.00,0.0088
478.00,0.0089
477.00,0.0090
476.00,0.0093
475.00,0.0097
474.00,0.0103
473.00,0.0106
472.00,0.0101
471.00,0.0089
470.00,0.0075
469.00,0.0067
468.00,0.0069
467.00,0.0078
466.00,0.0089
465.00,0.0097
464.00,0.0106
463.00,0.0118
462.00,0.0129
461.00,0.0134
460.00,0.0134
459.00,0.0134
458.00,0.0136
457.00,0.0136
456.00,0.0132
455.00,0.0125
454.00,0.0118
453.00,0.0110
452.00,0.0103
451.00,0.0095
450.00,0.0088
