Created as New Dataset,Sample 100 By Administrator Date Tuesday, September 09 2025
cm-1,A
4000.00,0.0008
3999.00,0.0008
3998.00,0.0008
3997.00,0.0009
3996.00,0.0009
3995.00,0.0009
3994.00,0.0009
3993.00,0.0009
3992.00,0.0008
3991.00,0.0009
3990.00,0.0009
3989.00,0.0009
3988.00,0.0009
3987.00,0.0009
3986.00,0.0009
3985.00,0.0008
3984.00,0.0008
3983.00,0.0008
3982.00,0.0007
3981.00,0.0007
3980.00,0.0006
3979.00,0.0006
3978.00,0.0007
3977.00,0.0007
3976.00,0.0007
3975.00,0.0007
3974.00,0.0007
3973.00,0.0007
3972.00,0.0007
3971.00,0.0007
3970.00,0.0007
3969.00,0.0006
3968.00,0.0006
3967.00,0.0006
3966.00,0.0006
3965.00,0.0006
3964.00,0.0007
3963.00,0.0007
3962.00,0.0007
3961.00,0.0007
3960.00,0.0007
3959.00,0.0006
3958.00,0.0006
3957.00,0.0006
3956.00,0.0006
3955.00,0.0006
3954.00,0.0006
3953.00,0.0006
3952.00,0.0006
3951.00,0.0006
3950.00,0.0005
3949.00,0.0006
3948.00,0.0006
3947.00,0.0006
3946.00,0.0006
3945.00,0.0006
3944.00,0.0007
3943.00,0.0007
3942.00,0.0007
3941.00,0.0007
3940.00,0.0007
3939.00,0.0007
3938.00,0.0007
3937.00,0.0007
3936.00,0.0006
3935.00,0.0006
3934.00,0.0006
3933.00,0.0007
3932.00,0.0007
3931.00,0.0007
3930.00,0.0007
3929.00,0.0007
3928.00,0.0007
3927.00,0.0007
3926.00,0.0007
3925.00,0.0007
3924.00,0.0007
3923.00,0.0007
3922.00,0.0007
3921.00,0.0007
3920.00,0.0007
3919.00,0.0006
3918.00,0.0006
3917.00,0.0006
3916.00,0.0006
3915.00,0.0006
3914.00,0.0007
3913.00,0.0007
3912.00,0.0007
3911.00,0.0007
3910.00,0.0007
3909.00,0.0007
3908.00,0.0006
3907.00,0.0006
3906.00,0.0006
3905.00,0.0006
3904.00,0.0006
3903.00,0.0006
3902.00,0.0006
3901.00,0.0006
3900.00,0.0006
3899.00,0.0006
3898.00,0.0006
3897.00,0.0006
3896.00,0.0006
3895.00,0.0006
3894.00,0.0006
3893.00,0.0007
3892.00,0.0007
3891.00,0.0007
3890.00,0.0007
3889.00,0.0007
3888.00,0.0007
3887.00,0.0007
3886.00,0.0007
3885.00,0.0007
3884.00,0.0007
3883.00,0.0006
3882.00,0.0006
3881.00,0.0006
3880.00,0.0006
3879.00,0.0006
3878.00,0.0006
3877.00,0.0006
3876.00,0.0006
3875.00,0.0006
3874.00,0.0005
3873.00,0.0005
3872.00,0.0005
3871.00,0.0005
3870.00,0.0006
3869.00,0.0006
3868.00,0.0006
3867.00,0.0006
3866.00,0.0006
3865.00,0.0006
3864.00,0.0006
3863.00,0.0006
3862.00,0.0006
3861.00,0.0006
3860.00,0.0006
3859.00,0.0006
3858.00,0.0006
3857.00,0.0006
3856.00,0.0005
3855.00,0.0005
3854.00,0.0005
3853.00,0.0005
3852.00,0.0005
3851.00,0.0005
3850.00,0.0005
3849.00,0.0006
3848.00,0.0006
3847.00,0.0006
3846.00,0.0006
3845.00,0.0006
3844.00,0.0006
3843.00,0.0006
3842.00,0.0006
3841.00,0.0006
3840.00,0.0006
3839.00,0.0006
3838.00,0.0006
3837.00,0.0006
3836.00,0.0006
3835.00,0.0006
3834.00,0.0006
3833.00,0.0007
3832.00,0.0007
3831.00,0.0007
3830.00,0.0007
3829.00,0.0007
3828.00,0.0007
3827.00,0.0007
3826.00,0.0007
3825.00,0.0006
3824.00,0.0006
3823.00,0.0006
3822.00,0.0006
3821.00,0.0007
3820.00,0.0006
3819.00,0.0006
3818.00,0.0006
3817.00,0.0006
3816.00,0.0006
3815.00,0.0006
3814.00,0.0006
3813.00,0.0006
3812.00,0.0006
3811.00,0.0006
3810.00,0.0007
3809.00,0.0007
3808.00,0.0007
3807.00,0.0007
3806.00,0.0007
3805.00,0.0007
3804.00,0.0006
3803.00,0.0006
3802.00,0.0005
3801.00,0.0005
3800.00,0.0005
3799.00,0.0005
3798.00,0.0006
3797.00,0.0006
3796.00,0.0006
3795.00,0.0006
3794.00,0.0006
3793.00,0.0006
3792.00,0.0006
3791.00,0.0006
3790.00,0.0006
3789.00,0.0006
3788.00,0.0006
3787.00,0.0006
3786.00,0.0006
3785.00,0.0007
3784.00,0.0007
3783.00,0.0007
3782.00,0.0007
3781.00,0.0007
3780.00,0.0007
3779.00,0.0007
3778.00,0.0007
3777.00,0.0007
3776.00,0.0007
3775.00,0.0007
3774.00,0.0007
3773.00,0.0007
3772.00,0.0007
3771.00,0.0007
3770.00,0.0007
3769.00,0.0008
3768.00,0.0008
3767.00,0.0008
3766.00,0.0008
3765.00,0.0008
3764.00,0.0007
3763.00,0.0007
3762.00,0.0007
3761.00,0.0007
3760.00,0.0007
3759.00,0.0007
3758.00,0.0007
3757.00,0.0006
3756.00,0.0006
3755.00,0.0006
3754.00,0.0006
3753.00,0.0006
3752.00,0.0007
3751.00,0.0006
3750.00,0.0006
3749.00,0.0005
3748.00,0.0005
3747.00,0.0005
3746.00,0.0005
3745.00,0.0006
3744.00,0.0006
3743.00,0.0005
3742.00,0.0005
3741.00,0.0004
3740.00,0.0004
3739.00,0.0004
3738.00,0.0004
3737.00,0.0005
3736.00,0.0005
3735.00,0.0005
3734.00,0.0005
3733.00,0.0004
3732.00,0.0004
3731.00,0.0005
3730.00,0.0005
3729.00,0.0005
3728.00,0.0005
3727.00,0.0005
3726.00,0.0005
3725.00,0.0005
3724.00,0.0005
3723.00,0.0005
3722.00,0.0005
3721.00,0.0005
3720.00,0.0005
3719.00,0.0004
3718.00,0.0004
3717.00,0.0005
3716.00,0.0005
3715.00,0.0004
3714.00,0.0004
3713.00,0.0004
3712.00,0.0004
3711.00,0.0004
3710.00,0.0004
3709.00,0.0004
3708.00,0.0004
3707.00,0.0004
3706.00,0.0004
3705.00,0.0004
3704.00,0.0004
3703.00,0.0004
3702.00,0.0004
3701.00,0.0004
3700.00,0.0004
3699.00,0.0004
3698.00,0.0004
3697.00,0.0004
3696.00,0.0005
3695.00,0.0005
3694.00,0.0005
3693.00,0.0005
3692.00,0.0005
3691.00,0.0005
3690.00,0.0004
3689.00,0.0004
3688.00,0.0004
3687.00,0.0005
3686.00,0.0005
3685.00,0.0005
3684.00,0.0005
3683.00,0.0005
3682.00,0.0006
3681.00,0.0006
3680.00,0.0006
3679.00,0.0007
3678.00,0.0007
3677.00,0.0007
3676.00,0.0008
3675.00,0.0008
3674.00,0.0008
3673.00,0.0007
3672.00,0.0007
3671.00,0.0007
3670.00,0.0007
3669.00,0.0006
3668.00,0.0007
3667.00,0.0007
3666.00,0.0007
3665.00,0.0007
3664.00,0.0007
3663.00,0.0008
3662.00,0.0008
3661.00,0.0008
3660.00,0.0008
3659.00,0.0009
3658.00,0.0009
3657.00,0.0009
3656.00,0.0009
3655.00,0.0009
3654.00,0.0009
3653.00,0.0008
3652.00,0.0008
3651.00,0.0008
3650.00,0.0008
3649.00,0.0008
3648.00,0.0008
3647.00,0.0007
3646.00,0.0007
3645.00,0.0007
3644.00,0.0007
3643.00,0.0007
3642.00,0.0007
3641.00,0.0007
3640.00,0.0007
3639.00,0.0007
3638.00,0.0006
3637.00,0.0006
3636.00,0.0006
3635.00,0.0006
3634.00,0.0005
3633.00,0.0005
3632.00,0.0005
3631.00,0.0005
3630.00,0.0004
3629.00,0.0003
3628.00,0.0003
3627.00,0.0003
3626.00,0.0003
3625.00,0.0004
3624.00,0.0004
3623.00,0.0004
3622.00,0.0004
3621.00,0.0004
3620.00,0.0004
3619.00,0.0003
3618.00,0.0003
3617.00,0.0003
3616.00,0.0003
3615.00,0.0003
3614.00,0.0004
3613.00,0.0004
3612.00,0.0003
3611.00,0.0004
3610.00,0.0004
3609.00,0.0004
3608.00,0.0005
3607.00,0.0005
3606.00,0.0004
3605.00,0.0004
3604.00,0.0004
3603.00,0.0004
3602.00,0.0004
3601.00,0.0004
3600.00,0.0004
3599.00,0.0004
3598.00,0.0004
3597.00,0.0005
3596.00,0.0005
3595.00,0.0005
3594.00,0.0005
3593.00,0.0005
3592.00,0.0005
3591.00,0.0005
3590.00,0.0004
3589.00,0.0005
3588.00,0.0005
3587.00,0.0005
3586.00,0.0005
3585.00,0.0005
3584.00,0.0005
3583.00,0.0005
3582.00,0.0006
3581.00,0.0006
3580.00,0.0006
3579.00,0.0005
3578.00,0.0005
3577.00,0.0005
3576.00,0.0006
3575.00,0.0006
3574.00,0.0007
3573.00,0.0007
3572.00,0.0007
3571.00,0.0007
3570.00,0.0007
3569.00,0.0007
3568.00,0.0007
3567.00,0.0007
3566.00,0.0007
3565.00,0.0007
3564.00,0.0007
3563.00,0.0007
3562.00,0.0007
3561.00,0.0007
3560.00,0.0007
3559.00,0.0007
3558.00,0.0008
3557.00,0.0008
3556.00,0.0009
3555.00,0.0009
3554.00,0.0009
3553.00,0.0010
3552.00,0.0010
3551.00,0.0010
3550.00,0.0010
3549.00,0.0010
3548.00,0.0010
3547.00,0.0009
3546.00,0.0009
3545.00,0.0009
3544.00,0.0008
3543.00,0.0009
3542.00,0.0009
3541.00,0.0009
3540.00,0.0010
3539.00,0.0010
3538.00,0.0010
3537.00,0.0010
3536.00,0.0010
3535.00,0.0011
3534.00,0.0011
3533.00,0.0011
3532.00,0.0011
3531.00,0.0011
3530.00,0.0012
3529.00,0.0012
3528.00,0.0012
3527.00,0.0012
3526.00,0.0012
3525.00,0.0012
3524.00,0.0012
3523.00,0.0012
3522.00,0.0012
3521.00,0.0012
3520.00,0.0012
3519.00,0.0012
3518.00,0.0012
3517.00,0.0012
3516.00,0.0013
3515.00,0.0013
3514.00,0.0014
3513.00,0.0014
3512.00,0.0014
3511.00,0.0014
3510.00,0.0014
3509.00,0.0014
3508.00,0.0014
3507.00,0.0014
3506.00,0.0014
3505.00,0.0013
3504.00,0.0013
3503.00,0.0013
3502.00,0.0013
3501.00,0.0013
3500.00,0.0014
3499.00,0.0014
3498.00,0.0014
3497.00,0.0015
3496.00,0.0015
3495.00,0.0015
3494.00,0.0015
3493.00,0.0015
3492.00,0.0016
3491.00,0.0016
3490.00,0.0016
3489.00,0.0016
3488.00,0.0016
3487.00,0.0016
3486.00,0.0017
3485.00,0.0017
3484.00,0.0018
3483.00,0.0018
3482.00,0.0018
3481.00,0.0017
3480.00,0.0017
3479.00,0.0017
3478.00,0.0017
3477.00,0.0017
3476.00,0.0017
3475.00,0.0017
3474.00,0.0018
3473.00,0.0018
3472.00,0.0018
3471.00,0.0018
3470.00,0.0018
3469.00,0.0018
3468.00,0.0018
3467.00,0.0018
3466.00,0.0018
3465.00,0.0019
3464.00,0.0019
3463.00,0.0019
3462.00,0.0019
3461.00,0.0019
3460.00,0.0019
3459.00,0.0019
3458.00,0.0020
3457.00,0.0020
3456.00,0.0020
3455.00,0.0021
3454.00,0.0021
3453.00,0.0021
3452.00,0.0021
3451.00,0.0021
3450.00,0.0021
3449.00,0.0021
3448.00,0.0020
3447.00,0.0021
3446.00,0.0021
3445.00,0.0021
3444.00,0.0021
3443.00,0.0022
3442.00,0.0022
3441.00,0.0022
3440.00,0.0022
3439.00,0.0022
3438.00,0.0023
3437.00,0.0023
3436.00,0.0023
3435.00,0.0024
3434.00,0.0024
3433.00,0.0024
3432.00,0.0024
3431.00,0.0024
3430.00,0.0024
3429.00,0.0024
3428.00,0.0023
3427.00,0.0024
3426.00,0.0024
3425.00,0.0024
3424.00,0.0025
3423.00,0.0025
3422.00,0.0025
3421.00,0.0025
3420.00,0.0025
3419.00,0.0025
3418.00,0.0025
3417.00,0.0025
3416.00,0.0025
3415.00,0.0026
3414.00,0.0026
3413.00,0.0026
3412.00,0.0027
3411.00,0.0027
3410.00,0.0027
3409.00,0.0027
3408.00,0.0027
3407.00,0.0027
3406.00,0.0027
3405.00,0.0027
3404.00,0.0027
3403.00,0.0027
3402.00,0.0027
3401.00,0.0027
3400.00,0.0027
3399.00,0.0027
3398.00,0.0028
3397.00,0.0028
3396.00,0.0028
3395.00,0.0028
3394.00,0.0028
3393.00,0.0028
3392.00,0.0028
3391.00,0.0028
3390.00,0.0028
3389.00,0.0027
3388.00,0.0027
3387.00,0.0027
3386.00,0.0027
3385.00,0.0027
3384.00,0.0027
3383.00,0.0027
3382.00,0.0027
3381.00,0.0027
3380.00,0.0027
3379.00,0.0027
3378.00,0.0026
3377.00,0.0026
3376.00,0.0026
3375.00,0.0026
3374.00,0.0026
3373.00,0.0026
3372.00,0.0026
3371.00,0.0026
3370.00,0.0026
3369.00,0.0027
3368.00,0.0027
3367.00,0.0028
3366.00,0.0028
3365.00,0.0028
3364.00,0.0027
3363.00,0.0027
3362.00,0.0027
3361.00,0.0027
3360.00,0.0028
3359.00,0.0028
3358.00,0.0028
3357.00,0.0028
3356.00,0.0028
3355.00,0.0028
3354.00,0.0028
3353.00,0.0028
3352.00,0.0028
3351.00,0.0028
3350.00,0.0027
3349.00,0.0027
3348.00,0.0027
3347.00,0.0027
3346.00,0.0027
3345.00,0.0027
3344.00,0.0027
3343.00,0.0027
3342.00,0.0027
3341.00,0.0027
3340.00,0.0026
3339.00,0.0026
3338.00,0.0026
3337.00,0.0026
3336.00,0.0026
3335.00,0.0026
3334.00,0.0026
3333.00,0.0026
3332.00,0.0026
3331.00,0.0026
3330.00,0.0026
3329.00,0.0026
3328.00,0.0025
3327.00,0.0025
3326.00,0.0025
3325.00,0.0025
3324.00,0.0026
3323.00,0.0026
3322.00,0.0026
3321.00,0.0026
3320.00,0.0026
3319.00,0.0026
3318.00,0.0025
3317.00,0.0025
3316.00,0.0025
3315.00,0.0025
3314.00,0.0025
3313.00,0.0026
3312.00,0.0026
3311.00,0.0025
3310.00,0.0025
3309.00,0.0025
3308.00,0.0025
3307.00,0.0025
3306.00,0.0025
3305.00,0.0025
3304.00,0.0025
3303.00,0.0025
3302.00,0.0025
3301.00,0.0025
3300.00,0.0025
3299.00,0.0025
3298.00,0.0025
3297.00,0.0025
3296.00,0.0025
3295.00,0.0025
3294.00,0.0025
3293.00,0.0025
3292.00,0.0025
3291.00,0.0025
3290.00,0.0025
3289.00,0.0025
3288.00,0.0025
3287.00,0.0025
3286.00,0.0024
3285.00,0.0024
3284.00,0.0024
3283.00,0.0024
3282.00,0.0024
3281.00,0.0024
3280.00,0.0024
3279.00,0.0024
3278.00,0.0024
3277.00,0.0024
3276.00,0.0024
3275.00,0.0023
3274.00,0.0023
3273.00,0.0023
3272.00,0.0024
3271.00,0.0024
3270.00,0.0024
3269.00,0.0025
3268.00,0.0024
3267.00,0.0024
3266.00,0.0024
3265.00,0.0023
3264.00,0.0024
3263.00,0.0024
3262.00,0.0024
3261.00,0.0024
3260.00,0.0024
3259.00,0.0024
3258.00,0.0024
3257.00,0.0024
3256.00,0.0023
3255.00,0.0023
3254.00,0.0022
3253.00,0.0022
3252.00,0.0022
3251.00,0.0023
3250.00,0.0023
3249.00,0.0023
3248.00,0.0023
3247.00,0.0023
3246.00,0.0023
3245.00,0.0023
3244.00,0.0023
3243.00,0.0023
3242.00,0.0023
3241.00,0.0023
3240.00,0.0023
3239.00,0.0023
3238.00,0.0023
3237.00,0.0023
3236.00,0.0023
3235.00,0.0023
3234.00,0.0023
3233.00,0.0023
3232.00,0.0023
3231.00,0.0024
3230.00,0.0024
3229.00,0.0025
3228.00,0.0025
3227.00,0.0025
3226.00,0.0025
3225.00,0.0025
3224.00,0.0025
3223.00,0.0025
3222.00,0.0026
3221.00,0.0026
3220.00,0.0025
3219.00,0.0025
3218.00,0.0026
3217.00,0.0026
3216.00,0.0027
3215.00,0.0027
3214.00,0.0027
3213.00,0.0028
3212.00,0.0028
3211.00,0.0028
3210.00,0.0028
3209.00,0.0028
3208.00,0.0028
3207.00,0.0029
3206.00,0.0029
3205.00,0.0029
3204.00,0.0030
3203.00,0.0030
3202.00,0.0030
3201.00,0.0030
3200.00,0.0030
3199.00,0.0030
3198.00,0.0030
3197.00,0.0030
3196.00,0.0030
3195.00,0.0030
3194.00,0.0030
3193.00,0.0030
3192.00,0.0030
3191.00,0.0030
3190.00,0.0029
3189.00,0.0029
3188.00,0.0029
3187.00,0.0029
3186.00,0.0029
3185.00,0.0029
3184.00,0.0029
3183.00,0.0029
3182.00,0.0029
3181.00,0.0029
3180.00,0.0029
3179.00,0.0029
3178.00,0.0028
3177.00,0.0028
3176.00,0.0028
3175.00,0.0027
3174.00,0.0027
3173.00,0.0027
3172.00,0.0026
3171.00,0.0026
3170.00,0.0026
3169.00,0.0027
3168.00,0.0026
3167.00,0.0026
3166.00,0.0025
3165.00,0.0025
3164.00,0.0025
3163.00,0.0026
3162.00,0.0026
3161.00,0.0026
3160.00,0.0026
3159.00,0.0026
3158.00,0.0026
3157.00,0.0026
3156.00,0.0026
3155.00,0.0026
3154.00,0.0026
3153.00,0.0026
3152.00,0.0025
3151.00,0.0025
3150.00,0.0025
3149.00,0.0025
3148.00,0.0025
3147.00,0.0025
3146.00,0.0025
3145.00,0.0025
3144.00,0.0025
3143.00,0.0025
3142.00,0.0025
3141.00,0.0025
3140.00,0.0026
3139.00,0.0026
3138.00,0.0026
3137.00,0.0025
3136.00,0.0025
3135.00,0.0024
3134.00,0.0024
3133.00,0.0024
3132.00,0.0024
3131.00,0.0023
3130.00,0.0023
3129.00,0.0023
3128.00,0.0022
3127.00,0.0022
3126.00,0.0022
3125.00,0.0022
3124.00,0.0022
3123.00,0.0022
3122.00,0.0022
3121.00,0.0022
3120.00,0.0021
3119.00,0.0021
3118.00,0.0021
3117.00,0.0021
3116.00,0.0021
3115.00,0.0021
3114.00,0.0021
3113.00,0.0021
3112.00,0.0021
3111.00,0.0021
3110.00,0.0021
3109.00,0.0021
3108.00,0.0020
3107.00,0.0020
3106.00,0.0020
3105.00,0.0020
3104.00,0.0020
3103.00,0.0020
3102.00,0.0020
3101.00,0.0020
3100.00,0.0021
3099.00,0.0021
3098.00,0.0021
3097.00,0.0021
3096.00,0.0021
3095.00,0.0021
3094.00,0.0020
3093.00,0.0020
3092.00,0.0020
3091.00,0.0020
3090.00,0.0020
3089.00,0.0020
3088.00,0.0020
3087.00,0.0020
3086.00,0.0019
3085.00,0.0019
3084.00,0.0019
3083.00,0.0020
3082.00,0.0020
3081.00,0.0020
3080.00,0.0020
3079.00,0.0020
3078.00,0.0020
3077.00,0.0020
3076.00,0.0020
3075.00,0.0021
3074.00,0.0021
3073.00,0.0021
3072.00,0.0021
3071.00,0.0021
3070.00,0.0021
3069.00,0.0021
3068.00,0.0021
3067.00,0.0021
3066.00,0.0022
3065.00,0.0022
3064.00,0.0022
3063.00,0.0023
3062.00,0.0023
3061.00,0.0023
3060.00,0.0023
3059.00,0.0023
3058.00,0.0023
3057.00,0.0023
3056.00,0.0023
3055.00,0.0023
3054.00,0.0023
3053.00,0.0024
3052.00,0.0024
3051.00,0.0025
3050.00,0.0025
3049.00,0.0025
3048.00,0.0026
3047.00,0.0026
3046.00,0.0026
3045.00,0.0026
3044.00,0.0026
3043.00,0.0026
3042.00,0.0026
3041.00,0.0026
3040.00,0.0026
3039.00,0.0026
3038.00,0.0026
3037.00,0.0027
3036.00,0.0028
3035.00,0.0028
3034.00,0.0028
3033.00,0.0029
3032.00,0.0029
3031.00,0.0030
3030.00,0.0030
3029.00,0.0031
3028.00,0.0032
3027.00,0.0032
3026.00,0.0033
3025.00,0.0034
3024.00,0.0035
3023.00,0.0035
3022.00,0.0036
3021.00,0.0037
3020.00,0.0038
3019.00,0.0039
3018.00,0.0040
3017.00,0.0041
3016.00,0.0043
3015.00,0.0044
3014.00,0.0046
3013.00,0.0048
3012.00,0.0050
3011.00,0.0052
3010.00,0.0054
3009.00,0.0057
3008.00,0.0059
3007.00,0.0062
3006.00,0.0065
3005.00,0.0069
3004.00,0.0072
3003.00,0.0076
3002.00,0.0079
3001.00,0.0083
3000.00,0.0086
2999.00,0.0090
2998.00,0.0093
2997.00,0.0098
2996.00,0.0102
2995.00,0.0107
2994.00,0.0113
2993.00,0.0118
2992.00,0.0125
2991.00,0.0131
2990.00,0.0138
2989.00,0.0146
2988.00,0.0155
2987.00,0.0166
2986.00,0.0178
2985.00,0.0192
2984.00,0.0208
2983.00,0.0225
2982.00,0.0243
2981.00,0.0261
2980.00,0.0280
2979.00,0.0301
2978.00,0.0324
2977.00,0.0352
2976.00,0.0384
2975.00,0.0421
2974.00,0.0464
2973.00,0.0512
2972.00,0.0567
2971.00,0.0627
2970.00,0.0693
2969.00,0.0764
2968.00,0.0842
2967.00,0.0924
2966.00,0.1009
2965.00,0.1093
2964.00,0.1175
2963.00,0.1251
2962.00,0.1317
2961.00,0.1372
2960.00,0.1419
2959.00,0.1460
2958.00,0.1504
2957.00,0.1554
2956.00,0.1617
2955.00,0.1693
2954.00,0.1781
2953.00,0.1875
2952.00,0.1965
2951.00,0.2039
2950.00,0.2083
2949.00,0.2085
2948.00,0.2038
2947.00,0.1945
2946.00,0.1817
2945.00,0.1668
2944.00,0.1519
2943.00,0.1383
2942.00,0.1272
2941.00,0.1190
2940.00,0.1137
2939.00,0.1111
2938.00,0.1109
2937.00,0.1128
2936.00,0.1167
2935.00,0.1223
2934.00,0.1295
2933.00,0.1382
2932.00,0.1482
2931.00,0.1593
2930.00,0.1710
2929.00,0.1832
2928.00,0.1954
2927.00,0.2074
2926.00,0.2190
2925.00,0.2302
2924.00,0.2411
2923.00,0.2519
2922.00,0.2627
2921.00,0.2732
2920.00,0.2827
2919.00,0.2903
2918.00,0.2949
2917.00,0.2954
2916.00,0.2917
2915.00,0.2841
2914.00,0.2738
2913.00,0.2619
2912.00,0.2497
2911.00,0.2379
2910.00,0.2270
2909.00,0.2170
2908.00,0.2077
2907.00,0.1989
2906.00,0.1904
2905.00,0.1820
2904.00,0.1738
2903.00,0.1658
2902.00,0.1580
2901.00,0.1505
2900.00,0.1434
2899.00,0.1368
2898.00,0.1306
2897.00,0.1251
2896.00,0.1203
2895.00,0.1163
2894.00,0.1131
2893.00,0.1106
2892.00,0.1089
2891.00,0.1079
2890.00,0.1076
2889.00,0.1078
2888.00,0.1084
2887.00,0.1093
2886.00,0.1107
2885.00,0.1125
2884.00,0.1147
2883.00,0.1175
2882.00,0.1208
2881.00,0.1245
2880.00,0.1281
2879.00,0.1313
2878.00,0.1335
2877.00,0.1345
2876.00,0.1343
2875.00,0.1334
2874.00,0.1324
2873.00,0.1319
2872.00,0.1322
2871.00,0.1336
2870.00,0.1357
2869.00,0.1381
2868.00,0.1398
2867.00,0.1398
2866.00,0.1371
2865.00,0.1314
2864.00,0.1227
2863.00,0.1122
2862.00,0.1010
2861.00,0.0902
2860.00,0.0809
2859.00,0.0733
2858.00,0.0674
2857.00,0.0631
2856.00,0.0601
2855.00,0.0582
2854.00,0.0572
2853.00,0.0571
2852.00,0.0578
2851.00,0.0592
2850.00,0.0614
2849.00,0.0645
2848.00,0.0683
2847.00,0.0729
2846.00,0.0785
2845.00,0.0850
2844.00,0.0922
2843.00,0.1001
2842.00,0.1081
2841.00,0.1158
2840.00,0.1222
2839.00,0.1265
2838.00,0.1278
2837.00,0.1254
2836.00,0.1194
2835.00,0.1103
2834.00,0.0992
2833.00,0.0875
2832.00,0.0762
2831.00,0.0662
2830.00,0.0577
2829.00,0.0508
2828.00,0.0452
2827.00,0.0407
2826.00,0.0371
2825.00,0.0341
2824.00,0.0316
2823.00,0.0295
2822.00,0.0277
2821.00,0.0262
2820.00,0.0249
2819.00,0.0238
2818.00,0.0228
2817.00,0.0220
2816.00,0.0212
2815.00,0.0205
2814.00,0.0199
2813.00,0.0193
2812.00,0.0187
2811.00,0.0182
2810.00,0.0176
2809.00,0.0170
2808.00,0.0163
2807.00,0.0156
2806.00,0.0149
2805.00,0.0142
2804.00,0.0136
2803.00,0.0129
2802.00,0.0123
2801.00,0.0119
2800.00,0.0115
2799.00,0.0112
2798.00,0.0109
2797.00,0.0106
2796.00,0.0104
2795.00,0.0101
2794.00,0.0098
2793.00,0.0096
2792.00,0.0093
2791.00,0.0090
2790.00,0.0087
2789.00,0.0084
2788.00,0.0081
2787.00,0.0078
2786.00,0.0075
2785.00,0.0073
2784.00,0.0071
2783.00,0.0069
2782.00,0.0067
2781.00,0.0065
2780.00,0.0063
2779.00,0.0062
2778.00,0.0060
2777.00,0.0059
2776.00,0.0058
2775.00,0.0056
2774.00,0.0056
2773.00,0.0055
2772.00,0.0055
2771.00,0.0055
2770.00,0.0054
2769.00,0.0054
2768.00,0.0053
2767.00,0.0053
2766.00,0.0053
2765.00,0.0052
2764.00,0.0052
2763.00,0.0052
2762.00,0.0052
2761.00,0.0051
2760.00,0.0051
2759.00,0.0050
2758.00,0.0050
2757.00,0.0049
2756.00,0.0049
2755.00,0.0049
2754.00,0.0049
2753.00,0.0049
2752.00,0.0049
2751.00,0.0049
2750.00,0.0049
2749.00,0.0049
2748.00,0.0049
2747.00,0.0050
2746.00,0.0050
2745.00,0.0051
2744.00,0.0052
2743.00,0.0052
2742.00,0.0053
2741.00,0.0055
2740.00,0.0056
2739.00,0.0058
2738.00,0.0059
2737.00,0.0061
2736.00,0.0062
2735.00,0.0064
2734.00,0.0067
2733.00,0.0069
2732.00,0.0071
2731.00,0.0073
2730.00,0.0075
2729.00,0.0078
2728.00,0.0081
2727.00,0.0084
2726.00,0.0087
2725.00,0.0090
2724.00,0.0092
2723.00,0.0092
2722.00,0.0091
2721.00,0.0089
2720.00,0.0085
2719.00,0.0082
2718.00,0.0078
2717.00,0.0074
2716.00,0.0071
2715.00,0.0068
2714.00,0.0065
2713.00,0.0063
2712.00,0.0060
2711.00,0.0058
2710.00,0.0056
2709.00,0.0054
2708.00,0.0053
2707.00,0.0052
2706.00,0.0050
2705.00,0.0049
2704.00,0.0048
2703.00,0.0047
2702.00,0.0046
2701.00,0.0046
2700.00,0.0045
2699.00,0.0044
2698.00,0.0043
2697.00,0.0043
2696.00,0.0042
2695.00,0.0042
2694.00,0.0042
2693.00,0.0043
2692.00,0.0043
2691.00,0.0043
2690.00,0.0043
2689.00,0.0043
2688.00,0.0043
2687.00,0.0043
2686.00,0.0043
2685.00,0.0043
2684.00,0.0043
2683.00,0.0042
2682.00,0.0042
2681.00,0.0042
2680.00,0.0043
2679.00,0.0043
2678.00,0.0044
2677.00,0.0044
2676.00,0.0044
2675.00,0.0044
2674.00,0.0043
2673.00,0.0043
2672.00,0.0043
2671.00,0.0043
2670.00,0.0043
2669.00,0.0043
2668.00,0.0043
2667.00,0.0043
2666.00,0.0044
2665.00,0.0044
2664.00,0.0045
2663.00,0.0045
2662.00,0.0046
2661.00,0.0046
2660.00,0.0046
2659.00,0.0046
2658.00,0.0047
2657.00,0.0046
2656.00,0.0046
2655.00,0.0046
2654.00,0.0045
2653.00,0.0044
2652.00,0.0043
2651.00,0.0043
2650.00,0.0042
2649.00,0.0042
2648.00,0.0041
2647.00,0.0041
2646.00,0.0041
2645.00,0.0040
2644.00,0.0040
2643.00,0.0039
2642.00,0.0039
2641.00,0.0038
2640.00,0.0038
2639.00,0.0037
2638.00,0.0037
2637.00,0.0037
2636.00,0.0037
2635.00,0.0037
2634.00,0.0037
2633.00,0.0037
2632.00,0.0037
2631.00,0.0037
2630.00,0.0036
2629.00,0.0036
2628.00,0.0037
2627.00,0.0037
2626.00,0.0037
2625.00,0.0038
2624.00,0.0038
2623.00,0.0039
2622.00,0.0039
2621.00,0.0039
2620.00,0.0039
2619.00,0.0039
2618.00,0.0039
2617.00,0.0039
2616.00,0.0039
2615.00,0.0038
2614.00,0.0038
2613.00,0.0038
2612.00,0.0037
2611.00,0.0037
2610.00,0.0037
2609.00,0.0037
2608.00,0.0036
2607.00,0.0035
2606.00,0.0034
2605.00,0.0034
2604.00,0.0033
2603.00,0.0032
2602.00,0.0032
2601.00,0.0031
2600.00,0.0031
2599.00,0.0031
2598.00,0.0031
2597.00,0.0031
2596.00,0.0031
2595.00,0.0031
2594.00,0.0031
2593.00,0.0032
2592.00,0.0032
2591.00,0.0033
2590.00,0.0034
2589.00,0.0035
2588.00,0.0036
2587.00,0.0038
2586.00,0.0039
2585.00,0.0040
2584.00,0.0040
2583.00,0.0040
2582.00,0.0039
2581.00,0.0039
2580.00,0.0039
2579.00,0.0038
2578.00,0.0038
2577.00,0.0038
2576.00,0.0037
2575.00,0.0035
2574.00,0.0033
2573.00,0.0031
2572.00,0.0029
2571.00,0.0028
2570.00,0.0027
2569.00,0.0026
2568.00,0.0026
2567.00,0.0025
2566.00,0.0025
2565.00,0.0025
2564.00,0.0025
2563.00,0.0024
2562.00,0.0024
2561.00,0.0023
2560.00,0.0022
2559.00,0.0022
2558.00,0.0021
2557.00,0.0020
2556.00,0.0020
2555.00,0.0020
2554.00,0.0021
2553.00,0.0021
2552.00,0.0021
2551.00,0.0020
2550.00,0.0020
2549.00,0.0019
2548.00,0.0018
2547.00,0.0018
2546.00,0.0018
2545.00,0.0018
2544.00,0.0017
2543.00,0.0016
2542.00,0.0015
2541.00,0.0015
2540.00,0.0015
2539.00,0.0015
2538.00,0.0015
2537.00,0.0015
2536.00,0.0015
2535.00,0.0014
2534.00,0.0014
2533.00,0.0013
2532.00,0.0013
2531.00,0.0012
2530.00,0.0012
2529.00,0.0012
2528.00,0.0012
2527.00,0.0013
2526.00,0.0013
2525.00,0.0013
2524.00,0.0012
2523.00,0.0012
2522.00,0.0011
2521.00,0.0011
2520.00,0.0011
2519.00,0.0011
2518.00,0.0011
2517.00,0.0011
2516.00,0.0010
2515.00,0.0010
2514.00,0.0010
2513.00,0.0009
2512.00,0.0009
2511.00,0.0009
2510.00,0.0009
2509.00,0.0009
2508.00,0.0010
2507.00,0.0010
2506.00,0.0010
2505.00,0.0010
2504.00,0.0010
2503.00,0.0010
2502.00,0.0010
2501.00,0.0010
2500.00,0.0010
2499.00,0.0010
2498.00,0.0010
2497.00,0.0010
2496.00,0.0009
2495.00,0.0009
2494.00,0.0009
2493.00,0.0010
2492.00,0.0010
2491.00,0.0010
2490.00,0.0010
2489.00,0.0010
2488.00,0.0011
2487.00,0.0011
2486.00,0.0012
2485.00,0.0011
2484.00,0.0010
2483.00,0.0008
2482.00,0.0008
2481.00,0.0008
2480.00,0.0008
2479.00,0.0008
2478.00,0.0008
2477.00,0.0008
2476.00,0.0009
2475.00,0.0009
2474.00,0.0008
2473.00,0.0008
2472.00,0.0008
2471.00,0.0008
2470.00,0.0008
2469.00,0.0007
2468.00,0.0007
2467.00,0.0007
2466.00,0.0007
2465.00,0.0007
2464.00,0.0007
2463.00,0.0007
2462.00,0.0008
2461.00,0.0008
2460.00,0.0009
2459.00,0.0009
2458.00,0.0008
2457.00,0.0008
2456.00,0.0009
2455.00,0.0010
2454.00,0.0011
2453.00,0.0011
2452.00,0.0011
2451.00,0.0010
2450.00,0.0010
2449.00,0.0010
2448.00,0.0010
2447.00,0.0011
2446.00,0.0011
2445.00,0.0011
2444.00,0.0011
2443.00,0.0011
2442.00,0.0011
2441.00,0.0011
2440.00,0.0010
2439.00,0.0009
2438.00,0.0009
2437.00,0.0009
2436.00,0.0009
2435.00,0.0009
2434.00,0.0008
2433.00,0.0008
2432.00,0.0009
2431.00,0.0009
2430.00,0.0010
2429.00,0.0011
2428.00,0.0011
2427.00,0.0011
2426.00,0.0011
2425.00,0.0011
2424.00,0.0011
2423.00,0.0010
2422.00,0.0010
2421.00,0.0010
2420.00,0.0010
2419.00,0.0010
2418.00,0.0010
2417.00,0.0010
2416.00,0.0010
2415.00,0.0010
2414.00,0.0010
2413.00,0.0010
2412.00,0.0009
2411.00,0.0009
2410.00,0.0009
2409.00,0.0008
2408.00,0.0007
2407.00,0.0006
2406.00,0.0005
2405.00,0.0006
2404.00,0.0006
2403.00,0.0006
2402.00,0.0006
2401.00,0.0007
2400.00,0.0007
2399.00,0.0007
2398.00,0.0007
2397.00,0.0007
2396.00,0.0006
2395.00,0.0006
2394.00,0.0006
2393.00,0.0006
2392.00,0.0006
2391.00,0.0006
2390.00,0.0006
2389.00,0.0005
2388.00,0.0004
2387.00,0.0004
2386.00,0.0003
2385.00,0.0002
2384.00,0.0001
2383.00,0.0001
2382.00,-0.0000
2381.00,-0.0001
2380.00,-0.0001
2379.00,-0.0002
2378.00,-0.0002
2377.00,-0.0002
2376.00,-0.0002
2375.00,-0.0001
2374.00,-0.0001
2373.00,-0.0001
2372.00,-0.0001
2371.00,-0.0001
2370.00,-0.0002
2369.00,-0.0003
2368.00,-0.0004
2367.00,-0.0004
2366.00,-0.0004
2365.00,-0.0004
2364.00,-0.0003
2363.00,-0.0002
2362.00,-0.0002
2361.00,-0.0002
2360.00,-0.0002
2359.00,-0.0002
2358.00,-0.0001
2357.00,-0.0001
2356.00,-0.0000
2355.00,-0.0001
2354.00,-0.0001
2353.00,-0.0002
2352.00,-0.0002
2351.00,-0.0002
2350.00,-0.0001
2349.00,-0.0001
2348.00,-0.0001
2347.00,-0.0001
2346.00,-0.0000
2345.00,0.0000
2344.00,0.0001
2343.00,0.0002
2342.00,0.0002
2341.00,0.0002
2340.00,0.0002
2339.00,0.0002
2338.00,0.0002
2337.00,0.0003
2336.00,0.0003
2335.00,0.0003
2334.00,0.0002
2333.00,0.0001
2332.00,0.0001
2331.00,0.0001
2330.00,0.0002
2329.00,0.0003
2328.00,0.0004
2327.00,0.0007
2326.00,0.0010
2325.00,0.0013
2324.00,0.0015
2323.00,0.0014
2322.00,0.0013
2321.00,0.0013
2320.00,0.0012
2319.00,0.0012
2318.00,0.0011
2317.00,0.0011
2316.00,0.0009
2315.00,0.0007
2314.00,0.0006
2313.00,0.0005
2312.00,0.0004
2311.00,0.0004
2310.00,0.0004
2309.00,0.0004
2308.00,0.0004
2307.00,0.0005
2306.00,0.0006
2305.00,0.0007
2304.00,0.0008
2303.00,0.0008
2302.00,0.0008
2301.00,0.0008
2300.00,0.0008
2299.00,0.0008
2298.00,0.0009
2297.00,0.0010
2296.00,0.0010
2295.00,0.0011
2294.00,0.0012
2293.00,0.0012
2292.00,0.0013
2291.00,0.0014
2290.00,0.0015
2289.00,0.0016
2288.00,0.0017
2287.00,0.0017
2286.00,0.0018
2285.00,0.0018
2284.00,0.0017
2283.00,0.0017
2282.00,0.0016
2281.00,0.0015
2280.00,0.0014
2279.00,0.0013
2278.00,0.0013
2277.00,0.0012
2276.00,0.0012
2275.00,0.0012
2274.00,0.0012
2273.00,0.0012
2272.00,0.0012
2271.00,0.0012
2270.00,0.0012
2269.00,0.0012
2268.00,0.0011
2267.00,0.0010
2266.00,0.0010
2265.00,0.0009
2264.00,0.0009
2263.00,0.0009
2262.00,0.0009
2261.00,0.0010
2260.00,0.0010
2259.00,0.0012
2258.00,0.0013
2257.00,0.0014
2256.00,0.0014
2255.00,0.0012
2254.00,0.0010
2253.00,0.0008
2252.00,0.0007
2251.00,0.0007
2250.00,0.0008
2249.00,0.0009
2248.00,0.0008
2247.00,0.0008
2246.00,0.0009
2245.00,0.0009
2244.00,0.0009
2243.00,0.0009
2242.00,0.0008
2241.00,0.0008
2240.00,0.0007
2239.00,0.0007
2238.00,0.0008
2237.00,0.0009
2236.00,0.0009
2235.00,0.0010
2234.00,0.0009
2233.00,0.0009
2232.00,0.0008
2231.00,0.0007
2230.00,0.0006
2229.00,0.0006
2228.00,0.0006
2227.00,0.0005
2226.00,0.0004
2225.00,0.0003
2224.00,0.0003
2223.00,0.0003
2222.00,0.0003
2221.00,0.0004
2220.00,0.0005
2219.00,0.0005
2218.00,0.0004
2217.00,0.0003
2216.00,0.0003
2215.00,0.0003
2214.00,0.0003
2213.00,0.0003
2212.00,0.0004
2211.00,0.0005
2210.00,0.0005
2209.00,0.0005
2208.00,0.0005
2207.00,0.0005
2206.00,0.0004
2205.00,0.0004
2204.00,0.0004
2203.00,0.0005
2202.00,0.0007
2201.00,0.0008
2200.00,0.0008
2199.00,0.0009
2198.00,0.0009
2197.00,0.0009
2196.00,0.0008
2195.00,0.0006
2194.00,0.0004
2193.00,0.0004
2192.00,0.0006
2191.00,0.0007
2190.00,0.0006
2189.00,0.0004
2188.00,0.0002
2187.00,0.0002
2186.00,0.0004
2185.00,0.0006
2184.00,0.0008
2183.00,0.0008
2182.00,0.0005
2181.00,0.0002
2180.00,0.0001
2179.00,0.0003
2178.00,0.0004
2177.00,0.0005
2176.00,0.0003
2175.00,0.0001
2174.00,-0.0000
2173.00,-0.0000
2172.00,0.0001
2171.00,0.0003
2170.00,0.0005
2169.00,0.0008
2168.00,0.0011
2167.00,0.0013
2166.00,0.0014
2165.00,0.0012
2164.00,0.0012
2163.00,0.0015
2162.00,0.0019
2161.00,0.0018
2160.00,0.0009
2159.00,-0.0006
2158.00,-0.0020
2157.00,-0.0026
2156.00,-0.0025
2155.00,-0.0023
2154.00,-0.0022
2153.00,-0.0022
2152.00,-0.0022
2151.00,-0.0020
2150.00,-0.0019
2149.00,-0.0019
2148.00,-0.0019
2147.00,-0.0019
2146.00,-0.0018
2145.00,-0.0017
2144.00,-0.0016
2143.00,-0.0016
2142.00,-0.0015
2141.00,-0.0015
2140.00,-0.0013
2139.00,-0.0012
2138.00,-0.0011
2137.00,-0.0012
2136.00,-0.0014
2135.00,-0.0017
2134.00,-0.0019
2133.00,-0.0019
2132.00,-0.0018
2131.00,-0.0015
2130.00,-0.0013
2129.00,-0.0011
2128.00,-0.0009
2127.00,-0.0009
2126.00,-0.0009
2125.00,-0.0008
2124.00,-0.0008
2123.00,-0.0007
2122.00,-0.0008
2121.00,-0.0009
2120.00,-0.0009
2119.00,-0.0009
2118.00,-0.0007
2117.00,-0.0005
2116.00,-0.0003
2115.00,-0.0001
2114.00,0.0000
2113.00,0.0001
2112.00,0.0002
2111.00,0.0002
2110.00,0.0001
2109.00,0.0001
2108.00,0.0001
2107.00,0.0001
2106.00,0.0002
2105.00,0.0002
2104.00,0.0002
2103.00,0.0000
2102.00,-0.0001
2101.00,-0.0001
2100.00,-0.0001
2099.00,-0.0001
2098.00,-0.0002
2097.00,-0.0004
2096.00,-0.0005
2095.00,-0.0006
2094.00,-0.0006
2093.00,-0.0005
2092.00,-0.0004
2091.00,-0.0003
2090.00,-0.0002
2089.00,-0.0001
2088.00,0.0000
2087.00,0.0000
2086.00,-0.0001
2085.00,-0.0001
2084.00,-0.0001
2083.00,-0.0001
2082.00,-0.0001
2081.00,-0.0000
2080.00,0.0001
2079.00,0.0001
2078.00,0.0001
2077.00,0.0000
2076.00,-0.0000
2075.00,0.0000
2074.00,0.0001
2073.00,0.0002
2072.00,0.0002
2071.00,0.0002
2070.00,0.0001
2069.00,0.0000
2068.00,-0.0001
2067.00,-0.0003
2066.00,-0.0003
2065.00,-0.0003
2064.00,-0.0002
2063.00,-0.0001
2062.00,-0.0000
2061.00,-0.0001
2060.00,-0.0002
2059.00,-0.0004
2058.00,-0.0005
2057.00,-0.0006
2056.00,-0.0005
2055.00,-0.0004
2054.00,0.0000
2053.00,0.0006
2052.00,0.0012
2051.00,0.0014
2050.00,0.0013
2049.00,0.0010
2048.00,0.0005
2047.00,0.0001
2046.00,-0.0001
2045.00,-0.0002
2044.00,-0.0001
2043.00,0.0001
2042.00,0.0002
2041.00,0.0003
2040.00,0.0004
2039.00,0.0005
2038.00,0.0005
2037.00,0.0004
2036.00,0.0001
2035.00,-0.0005
2034.00,-0.0010
2033.00,-0.0013
2032.00,-0.0014
2031.00,-0.0013
2030.00,-0.0011
2029.00,-0.0008
2028.00,-0.0006
2027.00,-0.0006
2026.00,-0.0007
2025.00,-0.0007
2024.00,-0.0008
2023.00,-0.0011
2022.00,-0.0014
2021.00,-0.0016
2020.00,-0.0016
2019.00,-0.0013
2018.00,-0.0010
2017.00,-0.0008
2016.00,-0.0008
2015.00,-0.0010
2014.00,-0.0012
2013.00,-0.0013
2012.00,-0.0014
2011.00,-0.0014
2010.00,-0.0015
2009.00,-0.0016
2008.00,-0.0016
2007.00,-0.0016
2006.00,-0.0015
2005.00,-0.0014
2004.00,-0.0013
2003.00,-0.0013
2002.00,-0.0013
2001.00,-0.0014
2000.00,-0.0015
1999.00,-0.0017
1998.00,-0.0017
1997.00,-0.0015
1996.00,-0.0012
1995.00,-0.0010
1994.00,-0.0009
1993.00,-0.0009
1992.00,-0.0008
1991.00,-0.0007
1990.00,-0.0006
1989.00,-0.0005
1988.00,-0.0005
1987.00,-0.0004
1986.00,-0.0005
1985.00,-0.0004
1984.00,-0.0003
1983.00,0.0000
1982.00,0.0004
1981.00,0.0008
1980.00,0.0010
1979.00,0.0006
1978.00,-0.0002
1977.00,-0.0009
1976.00,-0.0013
1975.00,-0.0016
1974.00,-0.0018
1973.00,-0.0020
1972.00,-0.0019
1971.00,-0.0017
1970.00,-0.0014
1969.00,-0.0011
1968.00,-0.0009
1967.00,-0.0009
1966.00,-0.0009
1965.00,-0.0011
1964.00,-0.0012
1963.00,-0.0013
1962.00,-0.0014
1961.00,-0.0015
1960.00,-0.0016
1959.00,-0.0018
1958.00,-0.0020
1957.00,-0.0020
1956.00,-0.0019
1955.00,-0.0017
1954.00,-0.0015
1953.00,-0.0014
1952.00,-0.0014
1951.00,-0.0014
1950.00,-0.0015
1949.00,-0.0015
1948.00,-0.0016
1947.00,-0.0017
1946.00,-0.0018
1945.00,-0.0017
1944.00,-0.0015
1943.00,-0.0014
1942.00,-0.0014
1941.00,-0.0015
1940.00,-0.0015
1939.00,-0.0016
1938.00,-0.0016
1937.00,-0.0015
1936.00,-0.0014
1935.00,-0.0013
1934.00,-0.0011
1933.00,-0.0009
1932.00,-0.0007
1931.00,-0.0006
1930.00,-0.0006
1929.00,-0.0008
1928.00,-0.0009
1927.00,-0.0010
1926.00,-0.0011
1925.00,-0.0010
1924.00,-0.0010
1923.00,-0.0010
1922.00,-0.0009
1921.00,-0.0008
1920.00,-0.0006
1919.00,-0.0005
1918.00,-0.0005
1917.00,-0.0005
1916.00,-0.0005
1915.00,-0.0005
1914.00,-0.0005
1913.00,-0.0005
1912.00,-0.0005
1911.00,-0.0005
1910.00,-0.0004
1909.00,-0.0003
1908.00,-0.0002
1907.00,-0.0002
1906.00,-0.0003
1905.00,-0.0004
1904.00,-0.0005
1903.00,-0.0005
1902.00,-0.0005
1901.00,-0.0004
1900.00,-0.0004
1899.00,-0.0004
1898.00,-0.0004
1897.00,-0.0003
1896.00,-0.0002
1895.00,-0.0001
1894.00,-0.0001
1893.00,-0.0001
1892.00,-0.0001
1891.00,-0.0002
1890.00,-0.0002
1889.00,-0.0002
1888.00,-0.0003
1887.00,-0.0003
1886.00,-0.0004
1885.00,-0.0004
1884.00,-0.0004
1883.00,-0.0004
1882.00,-0.0004
1881.00,-0.0004
1880.00,-0.0003
1879.00,-0.0003
1878.00,-0.0003
1877.00,-0.0004
1876.00,-0.0004
1875.00,-0.0004
1874.00,-0.0004
1873.00,-0.0003
1872.00,-0.0003
1871.00,-0.0002
1870.00,-0.0002
1869.00,-0.0002
1868.00,-0.0003
1867.00,-0.0004
1866.00,-0.0004
1865.00,-0.0003
1864.00,-0.0002
1863.00,-0.0002
1862.00,-0.0001
1861.00,-0.0001
1860.00,-0.0000
1859.00,-0.0000
1858.00,-0.0000
1857.00,-0.0001
1856.00,-0.0001
1855.00,-0.0001
1854.00,-0.0001
1853.00,-0.0001
1852.00,-0.0001
1851.00,-0.0000
1850.00,0.0000
1849.00,0.0001
1848.00,0.0001
1847.00,0.0001
1846.00,0.0001
1845.00,0.0001
1844.00,0.0002
1843.00,0.0003
1842.00,0.0002
1841.00,0.0001
1840.00,0.0000
1839.00,-0.0000
1838.00,-0.0001
1837.00,-0.0001
1836.00,-0.0001
1835.00,-0.0001
1834.00,-0.0000
1833.00,0.0000
1832.00,0.0001
1831.00,0.0002
1830.00,0.0002
1829.00,0.0002
1828.00,0.0001
1827.00,0.0000
1826.00,-0.0000
1825.00,-0.0001
1824.00,-0.0000
1823.00,0.0000
1822.00,0.0001
1821.00,0.0001
1820.00,0.0001
1819.00,0.0000
1818.00,-0.0001
1817.00,-0.0002
1816.00,-0.0002
1815.00,-0.0001
1814.00,-0.0000
1813.00,0.0001
1812.00,0.0001
1811.00,0.0002
1810.00,0.0002
1809.00,0.0002
1808.00,0.0001
1807.00,0.0001
1806.00,0.0001
1805.00,0.0001
1804.00,0.0001
1803.00,0.0002
1802.00,0.0002
1801.00,0.0003
1800.00,0.0003
1799.00,0.0003
1798.00,0.0004
1797.00,0.0004
1796.00,0.0004
1795.00,0.0003
1794.00,0.0004
1793.00,0.0004
1792.00,0.0004
1791.00,0.0004
1790.00,0.0004
1789.00,0.0004
1788.00,0.0004
1787.00,0.0005
1786.00,0.0006
1785.00,0.0006
1784.00,0.0006
1783.00,0.0005
1782.00,0.0005
1781.00,0.0005
1780.00,0.0005
1779.00,0.0006
1778.00,0.0006
1777.00,0.0006
1776.00,0.0006
1775.00,0.0005
1774.00,0.0005
1773.00,0.0005
1772.00,0.0006
1771.00,0.0006
1770.00,0.0007
1769.00,0.0007
1768.00,0.0007
1767.00,0.0007
1766.00,0.0007
1765.00,0.0007
1764.00,0.0007
1763.00,0.0008
1762.00,0.0008
1761.00,0.0008
1760.00,0.0009
1759.00,0.0009
1758.00,0.0010
1757.00,0.0011
1756.00,0.0011
1755.00,0.0011
1754.00,0.0012
1753.00,0.0012
1752.00,0.0012
1751.00,0.0012
1750.00,0.0012
1749.00,0.0012
1748.00,0.0013
1747.00,0.0013
1746.00,0.0014
1745.00,0.0014
1744.00,0.0015
1743.00,0.0015
1742.00,0.0016
1741.00,0.0016
1740.00,0.0016
1739.00,0.0016
1738.00,0.0016
1737.00,0.0015
1736.00,0.0015
1735.00,0.0015
1734.00,0.0015
1733.00,0.0015
1732.00,0.0015
1731.00,0.0015
1730.00,0.0015
1729.00,0.0016
1728.00,0.0016
1727.00,0.0016
1726.00,0.0016
1725.00,0.0016
1724.00,0.0016
1723.00,0.0015
1722.00,0.0015
1721.00,0.0015
1720.00,0.0015
1719.00,0.0016
1718.00,0.0016
1717.00,0.0016
1716.00,0.0016
1715.00,0.0016
1714.00,0.0016
1713.00,0.0017
1712.00,0.0017
1711.00,0.0017
1710.00,0.0018
1709.00,0.0018
1708.00,0.0018
1707.00,0.0018
1706.00,0.0019
1705.00,0.0020
1704.00,0.0021
1703.00,0.0021
1702.00,0.0021
1701.00,0.0022
1700.00,0.0022
1699.00,0.0021
1698.00,0.0021
1697.00,0.0021
1696.00,0.0022
1695.00,0.0022
1694.00,0.0022
1693.00,0.0022
1692.00,0.0022
1691.00,0.0022
1690.00,0.0022
1689.00,0.0023
1688.00,0.0023
1687.00,0.0023
1686.00,0.0023
1685.00,0.0023
1684.00,0.0023
1683.00,0.0024
1682.00,0.0024
1681.00,0.0025
1680.00,0.0025
1679.00,0.0025
1678.00,0.0025
1677.00,0.0025
1676.00,0.0026
1675.00,0.0026
1674.00,0.0027
1673.00,0.0027
1672.00,0.0027
1671.00,0.0027
1670.00,0.0026
1669.00,0.0027
1668.00,0.0027
1667.00,0.0027
1666.00,0.0028
1665.00,0.0028
1664.00,0.0029
1663.00,0.0029
1662.00,0.0029
1661.00,0.0030
1660.00,0.0030
1659.00,0.0030
1658.00,0.0030
1657.00,0.0030
1656.00,0.0030
1655.00,0.0030
1654.00,0.0030
1653.00,0.0031
1652.00,0.0033
1651.00,0.0034
1650.00,0.0035
1649.00,0.0036
1648.00,0.0038
1647.00,0.0039
1646.00,0.0039
1645.00,0.0039
1644.00,0.0039
1643.00,0.0038
1642.00,0.0038
1641.00,0.0037
1640.00,0.0037
1639.00,0.0036
1638.00,0.0036
1637.00,0.0036
1636.00,0.0035
1635.00,0.0035
1634.00,0.0035
1633.00,0.0036
1632.00,0.0036
1631.00,0.0036
1630.00,0.0036
1629.00,0.0036
1628.00,0.0036
1627.00,0.0035
1626.00,0.0035
1625.00,0.0035
1624.00,0.0034
1623.00,0.0034
1622.00,0.0033
1621.00,0.0033
1620.00,0.0033
1619.00,0.0033
1618.00,0.0032
1617.00,0.0031
1616.00,0.0031
1615.00,0.0031
1614.00,0.0031
1613.00,0.0031
1612.00,0.0032
1611.00,0.0032
1610.00,0.0031
1609.00,0.0031
1608.00,0.0030
1607.00,0.0030
1606.00,0.0029
1605.00,0.0030
1604.00,0.0030
1603.00,0.0030
1602.00,0.0030
1601.00,0.0030
1600.00,0.0030
1599.00,0.0030
1598.00,0.0029
1597.00,0.0029
1596.00,0.0029
1595.00,0.0029
1594.00,0.0029
1593.00,0.0029
1592.00,0.0029
1591.00,0.0029
1590.00,0.0029
1589.00,0.0029
1588.00,0.0029
1587.00,0.0030
1586.00,0.0030
1585.00,0.0031
1584.00,0.0031
1583.00,0.0031
1582.00,0.0032
1581.00,0.0032
1580.00,0.0033
1579.00,0.0033
1578.00,0.0033
1577.00,0.0033
1576.00,0.0033
1575.00,0.0033
1574.00,0.0033
1573.00,0.0032
1572.00,0.0032
1571.00,0.0032
1570.00,0.0032
1569.00,0.0032
1568.00,0.0032
1567.00,0.0032
1566.00,0.0032
1565.00,0.0032
1564.00,0.0033
1563.00,0.0033
1562.00,0.0033
1561.00,0.0034
1560.00,0.0034
1559.00,0.0034
1558.00,0.0033
1557.00,0.0034
1556.00,0.0035
1555.00,0.0036
1554.00,0.0036
1553.00,0.0036
1552.00,0.0036
1551.00,0.0036
1550.00,0.0037
1549.00,0.0038
1548.00,0.0039
1547.00,0.0039
1546.00,0.0040
1545.00,0.0040
1544.00,0.0041
1543.00,0.0041
1542.00,0.0041
1541.00,0.0042
1540.00,0.0042
1539.00,0.0040
1538.00,0.0040
1537.00,0.0039
1536.00,0.0040
1535.00,0.0039
1534.00,0.0039
1533.00,0.0039
1532.00,0.0039
1531.00,0.0039
1530.00,0.0039
1529.00,0.0039
1528.00,0.0040
1527.00,0.0039
1526.00,0.0039
1525.00,0.0039
1524.00,0.0039
1523.00,0.0039
1522.00,0.0040
1521.00,0.0040
1520.00,0.0041
1519.00,0.0041
1518.00,0.0042
1517.00,0.0043
1516.00,0.0045
1515.00,0.0045
1514.00,0.0045
1513.00,0.0046
1512.00,0.0047
1511.00,0.0047
1510.00,0.0048
1509.00,0.0049
1508.00,0.0052
1507.00,0.0053
1506.00,0.0054
1505.00,0.0055
1504.00,0.0056
1503.00,0.0057
1502.00,0.0058
1501.00,0.0060
1500.00,0.0062
1499.00,0.0065
1498.00,0.0067
1497.00,0.0071
1496.00,0.0075
1495.00,0.0078
1494.00,0.0080
1493.00,0.0082
1492.00,0.0086
1491.00,0.0089
1490.00,0.0092
1489.00,0.0097
1488.00,0.0102
1487.00,0.0106
1486.00,0.0111
1485.00,0.0118
1484.00,0.0124
1483.00,0.0131
1482.00,0.0139
1481.00,0.0149
1480.00,0.0161
1479.00,0.0173
1478.00,0.0188
1477.00,0.0208
1476.00,0.0231
1475.00,0.0257
1474.00,0.0294
1473.00,0.0349
1472.00,0.0416
1471.00,0.0483
1470.00,0.0548
1469.00,0.0617
1468.00,0.0693
1467.00,0.0777
1466.00,0.0873
1465.00,0.0979
1464.00,0.1073
1463.00,0.1141
1462.00,0.1187
1461.00,0.1220
1460.00,0.1243
1459.00,0.1258
1458.00,0.1268
1457.00,0.1276
1456.00,0.1275
1455.00,0.1267
1454.00,0.1255
1453.00,0.1237
1452.00,0.1208
1451.00,0.1166
1450.00,0.1107
1449.00,0.1026
1448.00,0.0926
1447.00,0.0821
1446.00,0.0729
1445.00,0.0650
1444.00,0.0584
1443.00,0.0531
1442.00,0.0493
1441.00,0.0467
1440.00,0.0453
1439.00,0.0450
1438.00,0.0455
1437.00,0.0461
1436.00,0.0453
1435.00,0.0426
1434.00,0.0385
1433.00,0.0334
1432.00,0.0283
1431.00,0.0238
1430.00,0.0204
1429.00,0.0179
1428.00,0.0163
1427.00,0.0153
1426.00,0.0146
1425.00,0.0141
1424.00,0.0135
1423.00,0.0131
1422.00,0.0129
1421.00,0.0127
1420.00,0.0124
1419.00,0.0122
1418.00,0.0121
1417.00,0.0118
1416.00,0.0116
1415.00,0.0115
1414.00,0.0114
1413.00,0.0113
1412.00,0.0112
1411.00,0.0112
1410.00,0.0112
1409.00,0.0112
1408.00,0.0112
1407.00,0.0112
1406.00,0.0114
1405.00,0.0115
1404.00,0.0115
1403.00,0.0117
1402.00,0.0119
1401.00,0.0121
1400.00,0.0123
1399.00,0.0125
1398.00,0.0129
1397.00,0.0132
1396.00,0.0135
1395.00,0.0140
1394.00,0.0146
1393.00,0.0152
1392.00,0.0159
1391.00,0.0168
1390.00,0.0182
1389.00,0.0200
1388.00,0.0227
1387.00,0.0268
1386.00,0.0322
1385.00,0.0389
1384.00,0.0478
1383.00,0.0598
1382.00,0.0757
1381.00,0.0963
1380.00,0.1224
1379.00,0.1531
1378.00,0.1843
1377.00,0.2093
1376.00,0.2207
1375.00,0.2130
1374.00,0.1880
1373.00,0.1557
1372.00,0.1251
1371.00,0.0995
1370.00,0.0789
1369.00,0.0634
1368.00,0.0526
1367.00,0.0460
1366.00,0.0424
1365.00,0.0410
1364.00,0.0413
1363.00,0.0431
1362.00,0.0457
1361.00,0.0484
1360.00,0.0505
1359.00,0.0510
1358.00,0.0497
1357.00,0.0465
1356.00,0.0420
1355.00,0.0369
1354.00,0.0321
1353.00,0.0279
1352.00,0.0246
1351.00,0.0219
1350.00,0.0198
1349.00,0.0181
1348.00,0.0167
1347.00,0.0157
1346.00,0.0148
1345.00,0.0141
1344.00,0.0135
1343.00,0.0131
1342.00,0.0128
1341.00,0.0125
1340.00,0.0124
1339.00,0.0122
1338.00,0.0120
1337.00,0.0119
1336.00,0.0120
1335.00,0.0121
1334.00,0.0125
1333.00,0.0129
1332.00,0.0135
1331.00,0.0139
1330.00,0.0140
1329.00,0.0138
1328.00,0.0134
1327.00,0.0127
1326.00,0.0120
1325.00,0.0112
1324.00,0.0106
1323.00,0.0100
1322.00,0.0096
1321.00,0.0092
1320.00,0.0089
1319.00,0.0086
1318.00,0.0083
1317.00,0.0081
1316.00,0.0079
1315.00,0.0078
1314.00,0.0078
1313.00,0.0078
1312.00,0.0078
1311.00,0.0080
1310.00,0.0083
1309.00,0.0088
1308.00,0.0096
1307.00,0.0105
1306.00,0.0115
1305.00,0.0122
1304.00,0.0125
1303.00,0.0124
1302.00,0.0122
1301.00,0.0120
1300.00,0.0120
1299.00,0.0122
1298.00,0.0124
1297.00,0.0126
1296.00,0.0126
1295.00,0.0124
1294.00,0.0119
1293.00,0.0114
1292.00,0.0107
1291.00,0.0101
1290.00,0.0096
1289.00,0.0092
1288.00,0.0088
1287.00,0.0085
1286.00,0.0082
1285.00,0.0079
1284.00,0.0077
1283.00,0.0075
1282.00,0.0074
1281.00,0.0074
1280.00,0.0073
1279.00,0.0072
1278.00,0.0072
1277.00,0.0071
1276.00,0.0070
1275.00,0.0070
1274.00,0.0070
1273.00,0.0071
1272.00,0.0071
1271.00,0.0071
1270.00,0.0072
1269.00,0.0073
1268.00,0.0074
1267.00,0.0076
1266.00,0.0078
1265.00,0.0079
1264.00,0.0081
1263.00,0.0084
1262.00,0.0088
1261.00,0.0092
1260.00,0.0097
1259.00,0.0103
1258.00,0.0109
1257.00,0.0114
1256.00,0.0117
1255.00,0.0116
1254.00,0.0113
1253.00,0.0107
1252.00,0.0101
1251.00,0.0096
1250.00,0.0092
1249.00,0.0088
1248.00,0.0086
1247.00,0.0084
1246.00,0.0083
1245.00,0.0082
1244.00,0.0081
1243.00,0.0080
1242.00,0.0079
1241.00,0.0078
1240.00,0.0078
1239.00,0.0077
1238.00,0.0077
1237.00,0.0077
1236.00,0.0077
1235.00,0.0077
1234.00,0.0076
1233.00,0.0076
1232.00,0.0075
1231.00,0.0075
1230.00,0.0075
1229.00,0.0076
1228.00,0.0076
1227.00,0.0078
1226.00,0.0079
1225.00,0.0082
1224.00,0.0085
1223.00,0.0089
1222.00,0.0092
1221.00,0.0095
1220.00,0.0097
1219.00,0.0097
1218.00,0.0096
1217.00,0.0094
1216.00,0.0091
1215.00,0.0088
1214.00,0.0084
1213.00,0.0081
1212.00,0.0077
1211.00,0.0075
1210.00,0.0073
1209.00,0.0071
1208.00,0.0070
1207.00,0.0068
1206.00,0.0067
1205.00,0.0066
1204.00,0.0065
1203.00,0.0064
1202.00,0.0064
1201.00,0.0064
1200.00,0.0064
1199.00,0.0064
1198.00,0.0064
1197.00,0.0064
1196.00,0.0064
1195.00,0.0064
1194.00,0.0064
1193.00,0.0064
1192.00,0.0064
1191.00,0.0065
1190.00,0.0065
1189.00,0.0066
1188.00,0.0066
1187.00,0.0066
1186.00,0.0067
1185.00,0.0067
1184.00,0.0068
1183.00,0.0070
1182.00,0.0072
1181.00,0.0075
1180.00,0.0079
1179.00,0.0083
1178.00,0.0089
1177.00,0.0097
1176.00,0.0107
1175.00,0.0120
1174.00,0.0137
1173.00,0.0158
1172.00,0.0184
1171.00,0.0211
1170.00,0.0237
1169.00,0.0258
1168.00,0.0272
1167.00,0.0275
1166.00,0.0272
1165.00,0.0262
1164.00,0.0251
1163.00,0.0238
1162.00,0.0227
1161.00,0.0217
1160.00,0.0210
1159.00,0.0205
1158.00,0.0201
1157.00,0.0198
1156.00,0.0196
1155.00,0.0195
1154.00,0.0194
1153.00,0.0192
1152.00,0.0188
1151.00,0.0182
1150.00,0.0174
1149.00,0.0164
1148.00,0.0155
1147.00,0.0145
1146.00,0.0137
1145.00,0.0130
1144.00,0.0122
1143.00,0.0115
1142.00,0.0109
1141.00,0.0102
1140.00,0.0097
1139.00,0.0092
1138.00,0.0088
1137.00,0.0085
1136.00,0.0081
1135.00,0.0079
1134.00,0.0076
1133.00,0.0075
1132.00,0.0073
1131.00,0.0072
1130.00,0.0071
1129.00,0.0070
1128.00,0.0071
1127.00,0.0072
1126.00,0.0074
1125.00,0.0074
1124.00,0.0073
1123.00,0.0072
1122.00,0.0071
1121.00,0.0071
1120.00,0.0071
1119.00,0.0072
1118.00,0.0072
1117.00,0.0072
1116.00,0.0073
1115.00,0.0074
1114.00,0.0076
1113.00,0.0077
1112.00,0.0080
1111.00,0.0084
1110.00,0.0088
1109.00,0.0094
1108.00,0.0100
1107.00,0.0108
1106.00,0.0117
1105.00,0.0125
1104.00,0.0132
1103.00,0.0136
1102.00,0.0136
1101.00,0.0133
1100.00,0.0126
1099.00,0.0119
1098.00,0.0112
1097.00,0.0105
1096.00,0.0099
1095.00,0.0094
1094.00,0.0091
1093.00,0.0088
1092.00,0.0085
1091.00,0.0084
1090.00,0.0082
1089.00,0.0081
1088.00,0.0080
1087.00,0.0080
1086.00,0.0080
1085.00,0.0079
1084.00,0.0079
1083.00,0.0078
1082.00,0.0078
1081.00,0.0076
1080.00,0.0074
1079.00,0.0073
1078.00,0.0072
1077.00,0.0071
1076.00,0.0070
1075.00,0.0069
1074.00,0.0070
1073.00,0.0071
1072.00,0.0073
1071.00,0.0073
1070.00,0.0073
1069.00,0.0072
1068.00,0.0072
1067.00,0.0071
1066.00,0.0071
1065.00,0.0071
1064.00,0.0071
1063.00,0.0070
1062.00,0.0070
1061.00,0.0070
1060.00,0.0070
1059.00,0.0071
1058.00,0.0071
1057.00,0.0072
1056.00,0.0072
1055.00,0.0072
1054.00,0.0072
1053.00,0.0072
1052.00,0.0072
1051.00,0.0073
1050.00,0.0074
1049.00,0.0076
1048.00,0.0077
1047.00,0.0079
1046.00,0.0080
1045.00,0.0080
1044.00,0.0080
1043.00,0.0080
1042.00,0.0079
1041.00,0.0079
1040.00,0.0079
1039.00,0.0078
1038.00,0.0078
1037.00,0.0078
1036.00,0.0078
1035.00,0.0077
1034.00,0.0076
1033.00,0.0076
1032.00,0.0076
1031.00,0.0076
1030.00,0.0076
1029.00,0.0074
1028.00,0.0073
1027.00,0.0073
1026.00,0.0072
1025.00,0.0072
1024.00,0.0073
1023.00,0.0073
1022.00,0.0074
1021.00,0.0074
1020.00,0.0074
1019.00,0.0076
1018.00,0.0077
1017.00,0.0079
1016.00,0.0081
1015.00,0.0084
1014.00,0.0087
1013.00,0.0090
1012.00,0.0093
1011.00,0.0096
1010.00,0.0099
1009.00,0.0101
1008.00,0.0105
1007.00,0.0110
1006.00,0.0118
1005.00,0.0129
1004.00,0.0143
1003.00,0.0160
1002.00,0.0183
1001.00,0.0210
1000.00,0.0238
999.00,0.0261
998.00,0.0271
997.00,0.0265
996.00,0.0244
995.00,0.0214
994.00,0.0182
993.00,0.0155
992.00,0.0133
991.00,0.0117
990.00,0.0106
989.00,0.0100
988.00,0.0097
987.00,0.0096
986.00,0.0096
985.00,0.0098
984.00,0.0101
983.00,0.0108
982.00,0.0118
981.00,0.0134
980.00,0.0154
979.00,0.0181
978.00,0.0214
977.00,0.0252
976.00,0.0291
975.00,0.0327
974.00,0.0352
973.00,0.0359
972.00,0.0345
971.00,0.0314
970.00,0.0273
969.00,0.0232
968.00,0.0197
967.00,0.0170
966.00,0.0150
965.00,0.0135
964.00,0.0123
963.00,0.0114
962.00,0.0107
961.00,0.0102
960.00,0.0098
959.00,0.0095
958.00,0.0093
957.00,0.0091
956.00,0.0089
955.00,0.0088
954.00,0.0086
953.00,0.0085
952.00,0.0085
951.00,0.0084
950.00,0.0084
949.00,0.0084
948.00,0.0085
947.00,0.0086
946.00,0.0088
945.00,0.0091
944.00,0.0095
943.00,0.0099
942.00,0.0103
941.00,0.0104
940.00,0.0103
939.00,0.0099
938.00,0.0093
937.00,0.0086
936.00,0.0079
935.00,0.0075
934.00,0.0071
933.00,0.0069
932.00,0.0066
931.00,0.0063
930.00,0.0061
929.00,0.0060
928.00,0.0060
927.00,0.0060
926.00,0.0060
925.00,0.0060
924.00,0.0061
923.00,0.0061
922.00,0.0061
921.00,0.0061
920.00,0.0062
919.00,0.0062
918.00,0.0064
917.00,0.0065
916.00,0.0066
915.00,0.0067
914.00,0.0067
913.00,0.0068
912.00,0.0068
911.00,0.0069
910.00,0.0071
909.00,0.0073
908.00,0.0077
907.00,0.0082
906.00,0.0089
905.00,0.0101
904.00,0.0118
903.00,0.0140
902.00,0.0165
901.00,0.0187
900.00,0.0202
899.00,0.0205
898.00,0.0196
897.00,0.0177
896.00,0.0154
895.00,0.0132
894.00,0.0114
893.00,0.0101
892.00,0.0091
891.00,0.0084
890.00,0.0078
889.00,0.0074
888.00,0.0071
887.00,0.0068
886.00,0.0066
885.00,0.0064
884.00,0.0063
883.00,0.0064
882.00,0.0064
881.00,0.0065
880.00,0.0065
879.00,0.0066
878.00,0.0066
877.00,0.0065
876.00,0.0065
875.00,0.0065
874.00,0.0065
873.00,0.0066
872.00,0.0067
871.00,0.0067
870.00,0.0067
869.00,0.0066
868.00,0.0067
867.00,0.0068
866.00,0.0070
865.00,0.0071
864.00,0.0072
863.00,0.0073
862.00,0.0074
861.00,0.0075
860.00,0.0076
859.00,0.0076
858.00,0.0077
857.00,0.0077
856.00,0.0078
855.00,0.0079
854.00,0.0081
853.00,0.0083
852.00,0.0085
851.00,0.0089
850.00,0.0095
849.00,0.0102
848.00,0.0111
847.00,0.0121
846.00,0.0137
845.00,0.0160
844.00,0.0191
843.00,0.0226
842.00,0.0250
841.00,0.0255
840.00,0.0237
839.00,0.0206
838.00,0.0174
837.00,0.0149
836.00,0.0133
835.00,0.0123
834.00,0.0116
833.00,0.0111
832.00,0.0107
831.00,0.0105
830.00,0.0103
829.00,0.0100
828.00,0.0097
827.00,0.0095
826.00,0.0095
825.00,0.0095
824.00,0.0096
823.00,0.0098
822.00,0.0100
821.00,0.0102
820.00,0.0104
819.00,0.0106
818.00,0.0110
817.00,0.0116
816.00,0.0125
815.00,0.0139
814.00,0.0156
813.00,0.0175
812.00,0.0194
811.00,0.0211
810.00,0.0224
809.00,0.0231
808.00,0.0230
807.00,0.0220
806.00,0.0205
805.00,0.0185
804.00,0.0166
803.00,0.0148
802.00,0.0133
801.00,0.0121
800.00,0.0112
799.00,0.0106
798.00,0.0100
797.00,0.0096
796.00,0.0091
795.00,0.0086
794.00,0.0083
793.00,0.0081
792.00,0.0079
791.00,0.0077
790.00,0.0076
789.00,0.0075
788.00,0.0072
787.00,0.0069
786.00,0.0066
785.00,0.0064
784.00,0.0063
783.00,0.0061
782.00,0.0059
781.00,0.0057
780.00,0.0054
779.00,0.0053
778.00,0.0052
777.00,0.0053
776.00,0.0054
775.00,0.0055
774.00,0.0058
773.00,0.0061
772.00,0.0064
771.00,0.0066
770.00,0.0068
769.00,0.0070
768.00,0.0071
767.00,0.0071
766.00,0.0070
765.00,0.0068
764.00,0.0066
763.00,0.0063
762.00,0.0061
761.00,0.0058
760.00,0.0056
759.00,0.0053
758.00,0.0050
757.00,0.0048
756.00,0.0047
755.00,0.0047
754.00,0.0047
753.00,0.0048
752.00,0.0049
751.00,0.0050
750.00,0.0049
749.00,0.0048
748.00,0.0047
747.00,0.0046
746.00,0.0047
745.00,0.0047
744.00,0.0048
743.00,0.0049
742.00,0.0050
741.00,0.0051
740.00,0.0052
739.00,0.0053
738.00,0.0054
737.00,0.0054
736.00,0.0053
735.00,0.0053
734.00,0.0053
733.00,0.0053
732.00,0.0054
731.00,0.0055
730.00,0.0055
729.00,0.0055
728.00,0.0056
727.00,0.0056
726.00,0.0055
725.00,0.0053
724.00,0.0050
723.00,0.0047
722.00,0.0046
721.00,0.0045
720.00,0.0046
719.00,0.0047
718.00,0.0049
717.00,0.0050
716.00,0.0051
715.00,0.0051
714.00,0.0051
713.00,0.0051
712.00,0.0050
711.00,0.0048
710.00,0.0046
709.00,0.0045
708.00,0.0043
707.00,0.0044
706.00,0.0045
705.00,0.0046
704.00,0.0047
703.00,0.0048
702.00,0.0048
701.00,0.0046
700.00,0.0044
699.00,0.0042
698.00,0.0041
697.00,0.0041
696.00,0.0042
695.00,0.0041
694.00,0.0041
693.00,0.0040
692.00,0.0039
691.00,0.0039
690.00,0.0039
689.00,0.0040
688.00,0.0041
687.00,0.0042
686.00,0.0043
685.00,0.0043
684.00,0.0042
683.00,0.0041
682.00,0.0040
681.00,0.0040
680.00,0.0041
679.00,0.0043
678.00,0.0045
677.00,0.0044
676.00,0.0040
675.00,0.0036
674.00,0.0035
673.00,0.0036
672.00,0.0039
671.00,0.0041
670.00,0.0041
669.00,0.0042
668.00,0.0043
667.00,0.0045
666.00,0.0045
665.00,0.0044
664.00,0.0044
663.00,0.0043
662.00,0.0042
661.00,0.0042
660.00,0.0042
659.00,0.0043
658.00,0.0044
657.00,0.0044
656.00,0.0043
655.00,0.0042
654.00,0.0042
653.00,0.0042
652.00,0.0043
651.00,0.0044
650.00,0.0044
649.00,0.0043
648.00,0.0043
647.00,0.0044
646.00,0.0045
645.00,0.0045
644.00,0.0044
643.00,0.0043
642.00,0.0041
641.00,0.0040
640.00,0.0041
639.00,0.0044
638.00,0.0047
637.00,0.0049
636.00,0.0048
635.00,0.0046
634.00,0.0045
633.00,0.0044
632.00,0.0044
631.00,0.0045
630.00,0.0046
629.00,0.0046
628.00,0.0046
627.00,0.0045
626.00,0.0044
625.00,0.0044
624.00,0.0044
623.00,0.0045
622.00,0.0046
621.00,0.0044
620.00,0.0040
619.00,0.0036
618.00,0.0034
617.00,0.0034
616.00,0.0036
615.00,0.0039
614.00,0.0041
613.00,0.0043
612.00,0.0044
611.00,0.0046
610.00,0.0048
609.00,0.0048
608.00,0.0046
607.00,0.0044
606.00,0.0044
605.00,0.0044
604.00,0.0045
603.00,0.0045
602.00,0.0045
601.00,0.0046
600.00,0.0047
599.00,0.0048
598.00,0.0049
597.00,0.0050
596.00,0.0053
595.00,0.0056
594.00,0.0057
593.00,0.0057
592.00,0.0055
591.00,0.0053
590.00,0.0052
589.00,0.0051
588.00,0.0049
587.00,0.0047
586.00,0.0045
585.00,0.0045
584.00,0.0046
583.00,0.0048
582.00,0.0050
581.00,0.0052
580.00,0.0052
579.00,0.0052
578.00,0.0050
577.00,0.0049
576.00,0.0047
575.00,0.0046
574.00,0.0047
573.00,0.0049
572.00,0.0050
571.00,0.0049
570.00,0.0048
569.00,0.0047
568.00,0.0045
567.00,0.0044
566.00,0.0044
565.00,0.0043
564.00,0.0042
563.00,0.0041
562.00,0.0040
561.00,0.0043
560.00,0.0048
559.00,0.0052
558.00,0.0054
557.00,0.0053
556.00,0.0050
555.00,0.0047
554.00,0.0046
553.00,0.0047
552.00,0.0049
551.00,0.0050
550.00,0.0051
549.00,0.0051
548.00,0.0053
547.00,0.0057
546.00,0.0059
545.00,0.0059
544.00,0.0057
543.00,0.0055
542.00,0.0055
541.00,0.0055
540.00,0.0056
539.00,0.0055
538.00,0.0055
537.00,0.0056
536.00,0.0060
535.00,0.0065
534.00,0.0070
533.00,0.0073
532.00,0.0075
531.00,0.0076
530.00,0.0076
529.00,0.0077
528.00,0.0079
527.00,0.0082
526.00,0.0081
525.00,0.0077
524.00,0.0071
523.00,0.0067
522.00,0.0067
521.00,0.0069
520.00,0.0072
519.00,0.0075
518.00,0.0075
517.00,0.0073
516.00,0.0070
515.00,0.0069
514.00,0.0068
513.00,0.0065
512.00,0.0058
511.00,0.0052
510.00,0.0051
509.00,0.0055
508.00,0.0060
507.00,0.0061
506.00,0.0060
505.00,0.0058
504.00,0.0058
503.00,0.0058
502.00,0.0055
501.00,0.0050
500.00,0.0046
499.00,0.0045
498.00,0.0045
497.00,0.0045
496.00,0.0044
495.00,0.0043
494.00,0.0043
493.00,0.0046
492.00,0.0050
491.00,0.0055
490.00,0.0058
489.00,0.0057
488.00,0.0054
487.00,0.0051
486.00,0.0050
485.00,0.0054
484.00,0.0061
483.00,0.0067
482.00,0.0069
481.00,0.0063
480.00,0.0053
479.00,0.0047
478.00,0.0050
477.00,0.0061
476.00,0.0069
475.00,0.0070
474.00,0.0064
473.00,0.0056
472.00,0.0051
471.00,0.0053
470.00,0.0060
469.00,0.0068
468.00,0.0072
467.00,0.0074
466.00,0.0081
465.00,0.0093
464.00,0.0111
463.00,0.0132
462.00,0.0154
461.00,0.0169
460.00,0.0171
459.00,0.0159
458.00,0.0137
457.00,0.0116
456.00,0.0107
455.00,0.0112
454.00,0.0125
453.00,0.0138
452.00,0.0140
451.00,0.0129
450.00,0.0114
