Created as New Dataset,Sample 166 By Administrator Date Tuesday, September 09 2025
cm-1,A
4000.00,0.0010
3999.00,0.0010
3998.00,0.0010
3997.00,0.0010
3996.00,0.0010
3995.00,0.0010
3994.00,0.0009
3993.00,0.0009
3992.00,0.0009
3991.00,0.0009
3990.00,0.0009
3989.00,0.0009
3988.00,0.0010
3987.00,0.0010
3986.00,0.0010
3985.00,0.0010
3984.00,0.0010
3983.00,0.0010
3982.00,0.0009
3981.00,0.0009
3980.00,0.0009
3979.00,0.0008
3978.00,0.0008
3977.00,0.0008
3976.00,0.0008
3975.00,0.0008
3974.00,0.0007
3973.00,0.0007
3972.00,0.0007
3971.00,0.0007
3970.00,0.0008
3969.00,0.0008
3968.00,0.0008
3967.00,0.0007
3966.00,0.0007
3965.00,0.0008
3964.00,0.0008
3963.00,0.0008
3962.00,0.0008
3961.00,0.0008
3960.00,0.0008
3959.00,0.0008
3958.00,0.0008
3957.00,0.0008
3956.00,0.0008
3955.00,0.0008
3954.00,0.0008
3953.00,0.0008
3952.00,0.0007
3951.00,0.0007
3950.00,0.0007
3949.00,0.0007
3948.00,0.0007
3947.00,0.0007
3946.00,0.0007
3945.00,0.0007
3944.00,0.0007
3943.00,0.0008
3942.00,0.0008
3941.00,0.0008
3940.00,0.0008
3939.00,0.0008
3938.00,0.0008
3937.00,0.0007
3936.00,0.0007
3935.00,0.0007
3934.00,0.0008
3933.00,0.0008
3932.00,0.0008
3931.00,0.0008
3930.00,0.0008
3929.00,0.0008
3928.00,0.0008
3927.00,0.0008
3926.00,0.0008
3925.00,0.0008
3924.00,0.0009
3923.00,0.0009
3922.00,0.0009
3921.00,0.0009
3920.00,0.0008
3919.00,0.0008
3918.00,0.0007
3917.00,0.0007
3916.00,0.0007
3915.00,0.0008
3914.00,0.0008
3913.00,0.0008
3912.00,0.0008
3911.00,0.0008
3910.00,0.0007
3909.00,0.0007
3908.00,0.0007
3907.00,0.0007
3906.00,0.0007
3905.00,0.0008
3904.00,0.0008
3903.00,0.0008
3902.00,0.0008
3901.00,0.0008
3900.00,0.0008
3899.00,0.0007
3898.00,0.0007
3897.00,0.0008
3896.00,0.0008
3895.00,0.0008
3894.00,0.0008
3893.00,0.0008
3892.00,0.0007
3891.00,0.0008
3890.00,0.0008
3889.00,0.0007
3888.00,0.0007
3887.00,0.0007
3886.00,0.0007
3885.00,0.0007
3884.00,0.0007
3883.00,0.0007
3882.00,0.0007
3881.00,0.0007
3880.00,0.0007
3879.00,0.0007
3878.00,0.0007
3877.00,0.0006
3876.00,0.0006
3875.00,0.0007
3874.00,0.0007
3873.00,0.0008
3872.00,0.0007
3871.00,0.0007
3870.00,0.0007
3869.00,0.0007
3868.00,0.0006
3867.00,0.0006
3866.00,0.0006
3865.00,0.0007
3864.00,0.0007
3863.00,0.0007
3862.00,0.0007
3861.00,0.0007
3860.00,0.0007
3859.00,0.0006
3858.00,0.0006
3857.00,0.0005
3856.00,0.0005
3855.00,0.0004
3854.00,0.0004
3853.00,0.0004
3852.00,0.0004
3851.00,0.0004
3850.00,0.0005
3849.00,0.0005
3848.00,0.0006
3847.00,0.0006
3846.00,0.0007
3845.00,0.0007
3844.00,0.0007
3843.00,0.0007
3842.00,0.0007
3841.00,0.0007
3840.00,0.0007
3839.00,0.0007
3838.00,0.0007
3837.00,0.0007
3836.00,0.0006
3835.00,0.0006
3834.00,0.0006
3833.00,0.0006
3832.00,0.0006
3831.00,0.0006
3830.00,0.0006
3829.00,0.0006
3828.00,0.0006
3827.00,0.0007
3826.00,0.0007
3825.00,0.0007
3824.00,0.0007
3823.00,0.0006
3822.00,0.0006
3821.00,0.0006
3820.00,0.0005
3819.00,0.0005
3818.00,0.0006
3817.00,0.0006
3816.00,0.0007
3815.00,0.0007
3814.00,0.0007
3813.00,0.0007
3812.00,0.0008
3811.00,0.0008
3810.00,0.0008
3809.00,0.0008
3808.00,0.0008
3807.00,0.0008
3806.00,0.0008
3805.00,0.0007
3804.00,0.0007
3803.00,0.0006
3802.00,0.0006
3801.00,0.0006
3800.00,0.0006
3799.00,0.0006
3798.00,0.0006
3797.00,0.0007
3796.00,0.0007
3795.00,0.0007
3794.00,0.0007
3793.00,0.0007
3792.00,0.0007
3791.00,0.0007
3790.00,0.0007
3789.00,0.0007
3788.00,0.0008
3787.00,0.0008
3786.00,0.0008
3785.00,0.0008
3784.00,0.0008
3783.00,0.0007
3782.00,0.0007
3781.00,0.0007
3780.00,0.0008
3779.00,0.0008
3778.00,0.0008
3777.00,0.0007
3776.00,0.0008
3775.00,0.0008
3774.00,0.0008
3773.00,0.0009
3772.00,0.0009
3771.00,0.0008
3770.00,0.0008
3769.00,0.0008
3768.00,0.0009
3767.00,0.0009
3766.00,0.0009
3765.00,0.0009
3764.00,0.0009
3763.00,0.0009
3762.00,0.0009
3761.00,0.0009
3760.00,0.0009
3759.00,0.0008
3758.00,0.0008
3757.00,0.0008
3756.00,0.0007
3755.00,0.0007
3754.00,0.0006
3753.00,0.0006
3752.00,0.0005
3751.00,0.0005
3750.00,0.0005
3749.00,0.0006
3748.00,0.0006
3747.00,0.0006
3746.00,0.0006
3745.00,0.0006
3744.00,0.0006
3743.00,0.0006
3742.00,0.0006
3741.00,0.0006
3740.00,0.0006
3739.00,0.0005
3738.00,0.0005
3737.00,0.0004
3736.00,0.0005
3735.00,0.0005
3734.00,0.0006
3733.00,0.0006
3732.00,0.0005
3731.00,0.0005
3730.00,0.0004
3729.00,0.0004
3728.00,0.0004
3727.00,0.0005
3726.00,0.0005
3725.00,0.0005
3724.00,0.0005
3723.00,0.0005
3722.00,0.0006
3721.00,0.0006
3720.00,0.0007
3719.00,0.0007
3718.00,0.0007
3717.00,0.0007
3716.00,0.0007
3715.00,0.0007
3714.00,0.0006
3713.00,0.0005
3712.00,0.0004
3711.00,0.0004
3710.00,0.0004
3709.00,0.0005
3708.00,0.0005
3707.00,0.0005
3706.00,0.0005
3705.00,0.0005
3704.00,0.0006
3703.00,0.0006
3702.00,0.0006
3701.00,0.0006
3700.00,0.0006
3699.00,0.0005
3698.00,0.0005
3697.00,0.0005
3696.00,0.0005
3695.00,0.0005
3694.00,0.0006
3693.00,0.0006
3692.00,0.0006
3691.00,0.0007
3690.00,0.0007
3689.00,0.0007
3688.00,0.0007
3687.00,0.0006
3686.00,0.0006
3685.00,0.0005
3684.00,0.0006
3683.00,0.0006
3682.00,0.0007
3681.00,0.0007
3680.00,0.0007
3679.00,0.0007
3678.00,0.0007
3677.00,0.0007
3676.00,0.0007
3675.00,0.0006
3674.00,0.0005
3673.00,0.0005
3672.00,0.0006
3671.00,0.0007
3670.00,0.0007
3669.00,0.0007
3668.00,0.0007
3667.00,0.0007
3666.00,0.0008
3665.00,0.0008
3664.00,0.0009
3663.00,0.0009
3662.00,0.0009
3661.00,0.0009
3660.00,0.0009
3659.00,0.0009
3658.00,0.0008
3657.00,0.0008
3656.00,0.0007
3655.00,0.0007
3654.00,0.0007
3653.00,0.0007
3652.00,0.0008
3651.00,0.0009
3650.00,0.0009
3649.00,0.0009
3648.00,0.0009
3647.00,0.0008
3646.00,0.0009
3645.00,0.0009
3644.00,0.0009
3643.00,0.0009
3642.00,0.0009
3641.00,0.0009
3640.00,0.0009
3639.00,0.0009
3638.00,0.0009
3637.00,0.0009
3636.00,0.0009
3635.00,0.0010
3634.00,0.0010
3633.00,0.0010
3632.00,0.0010
3631.00,0.0009
3630.00,0.0009
3629.00,0.0009
3628.00,0.0009
3627.00,0.0009
3626.00,0.0009
3625.00,0.0009
3624.00,0.0009
3623.00,0.0009
3622.00,0.0009
3621.00,0.0010
3620.00,0.0010
3619.00,0.0010
3618.00,0.0011
3617.00,0.0011
3616.00,0.0011
3615.00,0.0012
3614.00,0.0013
3613.00,0.0013
3612.00,0.0013
3611.00,0.0012
3610.00,0.0012
3609.00,0.0012
3608.00,0.0013
3607.00,0.0013
3606.00,0.0013
3605.00,0.0013
3604.00,0.0013
3603.00,0.0013
3602.00,0.0013
3601.00,0.0014
3600.00,0.0014
3599.00,0.0014
3598.00,0.0014
3597.00,0.0014
3596.00,0.0015
3595.00,0.0015
3594.00,0.0015
3593.00,0.0015
3592.00,0.0016
3591.00,0.0016
3590.00,0.0017
3589.00,0.0017
3588.00,0.0018
3587.00,0.0018
3586.00,0.0018
3585.00,0.0018
3584.00,0.0018
3583.00,0.0018
3582.00,0.0019
3581.00,0.0019
3580.00,0.0020
3579.00,0.0021
3578.00,0.0021
3577.00,0.0021
3576.00,0.0022
3575.00,0.0022
3574.00,0.0022
3573.00,0.0022
3572.00,0.0022
3571.00,0.0022
3570.00,0.0022
3569.00,0.0022
3568.00,0.0023
3567.00,0.0023
3566.00,0.0024
3565.00,0.0024
3564.00,0.0024
3563.00,0.0025
3562.00,0.0026
3561.00,0.0026
3560.00,0.0027
3559.00,0.0027
3558.00,0.0027
3557.00,0.0027
3556.00,0.0027
3555.00,0.0028
3554.00,0.0028
3553.00,0.0029
3552.00,0.0029
3551.00,0.0030
3550.00,0.0030
3549.00,0.0030
3548.00,0.0031
3547.00,0.0031
3546.00,0.0031
3545.00,0.0031
3544.00,0.0031
3543.00,0.0032
3542.00,0.0032
3541.00,0.0032
3540.00,0.0033
3539.00,0.0034
3538.00,0.0034
3537.00,0.0035
3536.00,0.0036
3535.00,0.0036
3534.00,0.0036
3533.00,0.0036
3532.00,0.0036
3531.00,0.0036
3530.00,0.0037
3529.00,0.0037
3528.00,0.0038
3527.00,0.0038
3526.00,0.0038
3525.00,0.0039
3524.00,0.0039
3523.00,0.0040
3522.00,0.0040
3521.00,0.0041
3520.00,0.0041
3519.00,0.0042
3518.00,0.0042
3517.00,0.0043
3516.00,0.0043
3515.00,0.0044
3514.00,0.0045
3513.00,0.0045
3512.00,0.0046
3511.00,0.0047
3510.00,0.0047
3509.00,0.0047
3508.00,0.0047
3507.00,0.0047
3506.00,0.0047
3505.00,0.0048
3504.00,0.0048
3503.00,0.0048
3502.00,0.0049
3501.00,0.0049
3500.00,0.0049
3499.00,0.0049
3498.00,0.0049
3497.00,0.0049
3496.00,0.0050
3495.00,0.0051
3494.00,0.0051
3493.00,0.0052
3492.00,0.0052
3491.00,0.0052
3490.00,0.0052
3489.00,0.0052
3488.00,0.0053
3487.00,0.0053
3486.00,0.0054
3485.00,0.0054
3484.00,0.0054
3483.00,0.0054
3482.00,0.0055
3481.00,0.0056
3480.00,0.0057
3479.00,0.0057
3478.00,0.0058
3477.00,0.0058
3476.00,0.0059
3475.00,0.0059
3474.00,0.0059
3473.00,0.0060
3472.00,0.0060
3471.00,0.0060
3470.00,0.0061
3469.00,0.0061
3468.00,0.0061
3467.00,0.0061
3466.00,0.0062
3465.00,0.0062
3464.00,0.0062
3463.00,0.0062
3462.00,0.0063
3461.00,0.0063
3460.00,0.0063
3459.00,0.0064
3458.00,0.0064
3457.00,0.0065
3456.00,0.0065
3455.00,0.0066
3454.00,0.0066
3453.00,0.0067
3452.00,0.0067
3451.00,0.0068
3450.00,0.0068
3449.00,0.0069
3448.00,0.0069
3447.00,0.0069
3446.00,0.0070
3445.00,0.0070
3444.00,0.0070
3443.00,0.0070
3442.00,0.0071
3441.00,0.0071
3440.00,0.0072
3439.00,0.0073
3438.00,0.0074
3437.00,0.0074
3436.00,0.0075
3435.00,0.0075
3434.00,0.0075
3433.00,0.0076
3432.00,0.0076
3431.00,0.0076
3430.00,0.0076
3429.00,0.0077
3428.00,0.0078
3427.00,0.0079
3426.00,0.0079
3425.00,0.0080
3424.00,0.0080
3423.00,0.0080
3422.00,0.0081
3421.00,0.0081
3420.00,0.0082
3419.00,0.0083
3418.00,0.0083
3417.00,0.0084
3416.00,0.0084
3415.00,0.0085
3414.00,0.0085
3413.00,0.0086
3412.00,0.0086
3411.00,0.0087
3410.00,0.0088
3409.00,0.0088
3408.00,0.0088
3407.00,0.0088
3406.00,0.0089
3405.00,0.0089
3404.00,0.0090
3403.00,0.0090
3402.00,0.0091
3401.00,0.0092
3400.00,0.0093
3399.00,0.0093
3398.00,0.0094
3397.00,0.0094
3396.00,0.0094
3395.00,0.0094
3394.00,0.0094
3393.00,0.0094
3392.00,0.0094
3391.00,0.0094
3390.00,0.0094
3389.00,0.0094
3388.00,0.0094
3387.00,0.0094
3386.00,0.0094
3385.00,0.0094
3384.00,0.0094
3383.00,0.0094
3382.00,0.0094
3381.00,0.0094
3380.00,0.0094
3379.00,0.0094
3378.00,0.0094
3377.00,0.0094
3376.00,0.0094
3375.00,0.0095
3374.00,0.0095
3373.00,0.0096
3372.00,0.0096
3371.00,0.0096
3370.00,0.0096
3369.00,0.0096
3368.00,0.0096
3367.00,0.0096
3366.00,0.0096
3365.00,0.0096
3364.00,0.0096
3363.00,0.0096
3362.00,0.0097
3361.00,0.0097
3360.00,0.0097
3359.00,0.0098
3358.00,0.0098
3357.00,0.0098
3356.00,0.0098
3355.00,0.0098
3354.00,0.0099
3353.00,0.0099
3352.00,0.0099
3351.00,0.0100
3350.00,0.0100
3349.00,0.0100
3348.00,0.0100
3347.00,0.0100
3346.00,0.0101
3345.00,0.0101
3344.00,0.0101
3343.00,0.0102
3342.00,0.0102
3341.00,0.0103
3340.00,0.0103
3339.00,0.0103
3338.00,0.0103
3337.00,0.0103
3336.00,0.0103
3335.00,0.0104
3334.00,0.0104
3333.00,0.0105
3332.00,0.0105
3331.00,0.0106
3330.00,0.0107
3329.00,0.0107
3328.00,0.0107
3327.00,0.0108
3326.00,0.0108
3325.00,0.0108
3324.00,0.0108
3323.00,0.0109
3322.00,0.0109
3321.00,0.0109
3320.00,0.0110
3319.00,0.0110
3318.00,0.0110
3317.00,0.0111
3316.00,0.0111
3315.00,0.0111
3314.00,0.0111
3313.00,0.0111
3312.00,0.0111
3311.00,0.0111
3310.00,0.0111
3309.00,0.0111
3308.00,0.0111
3307.00,0.0111
3306.00,0.0111
3305.00,0.0111
3304.00,0.0110
3303.00,0.0110
3302.00,0.0110
3301.00,0.0110
3300.00,0.0109
3299.00,0.0109
3298.00,0.0108
3297.00,0.0108
3296.00,0.0107
3295.00,0.0107
3294.00,0.0106
3293.00,0.0106
3292.00,0.0106
3291.00,0.0106
3290.00,0.0106
3289.00,0.0106
3288.00,0.0106
3287.00,0.0105
3286.00,0.0105
3285.00,0.0104
3284.00,0.0103
3283.00,0.0102
3282.00,0.0102
3281.00,0.0101
3280.00,0.0101
3279.00,0.0101
3278.00,0.0101
3277.00,0.0100
3276.00,0.0100
3275.00,0.0099
3274.00,0.0099
3273.00,0.0098
3272.00,0.0098
3271.00,0.0098
3270.00,0.0098
3269.00,0.0097
3268.00,0.0096
3267.00,0.0096
3266.00,0.0095
3265.00,0.0095
3264.00,0.0095
3263.00,0.0095
3262.00,0.0094
3261.00,0.0094
3260.00,0.0094
3259.00,0.0094
3258.00,0.0093
3257.00,0.0093
3256.00,0.0093
3255.00,0.0092
3254.00,0.0092
3253.00,0.0091
3252.00,0.0091
3251.00,0.0090
3250.00,0.0089
3249.00,0.0089
3248.00,0.0088
3247.00,0.0088
3246.00,0.0089
3245.00,0.0089
3244.00,0.0089
3243.00,0.0088
3242.00,0.0088
3241.00,0.0087
3240.00,0.0087
3239.00,0.0087
3238.00,0.0087
3237.00,0.0087
3236.00,0.0087
3235.00,0.0087
3234.00,0.0087
3233.00,0.0087
3232.00,0.0088
3231.00,0.0088
3230.00,0.0088
3229.00,0.0088
3228.00,0.0089
3227.00,0.0089
3226.00,0.0089
3225.00,0.0090
3224.00,0.0090
3223.00,0.0090
3222.00,0.0091
3221.00,0.0091
3220.00,0.0091
3219.00,0.0092
3218.00,0.0092
3217.00,0.0093
3216.00,0.0093
3215.00,0.0093
3214.00,0.0094
3213.00,0.0094
3212.00,0.0094
3211.00,0.0095
3210.00,0.0095
3209.00,0.0096
3208.00,0.0097
3207.00,0.0098
3206.00,0.0098
3205.00,0.0098
3204.00,0.0098
3203.00,0.0098
3202.00,0.0098
3201.00,0.0097
3200.00,0.0098
3199.00,0.0098
3198.00,0.0098
3197.00,0.0098
3196.00,0.0098
3195.00,0.0098
3194.00,0.0097
3193.00,0.0097
3192.00,0.0096
3191.00,0.0096
3190.00,0.0095
3189.00,0.0095
3188.00,0.0095
3187.00,0.0094
3186.00,0.0093
3185.00,0.0093
3184.00,0.0092
3183.00,0.0092
3182.00,0.0092
3181.00,0.0091
3180.00,0.0090
3179.00,0.0089
3178.00,0.0088
3177.00,0.0087
3176.00,0.0087
3175.00,0.0087
3174.00,0.0086
3173.00,0.0085
3172.00,0.0084
3171.00,0.0084
3170.00,0.0083
3169.00,0.0083
3168.00,0.0082
3167.00,0.0082
3166.00,0.0081
3165.00,0.0081
3164.00,0.0080
3163.00,0.0080
3162.00,0.0080
3161.00,0.0080
3160.00,0.0080
3159.00,0.0079
3158.00,0.0079
3157.00,0.0079
3156.00,0.0078
3155.00,0.0078
3154.00,0.0077
3153.00,0.0077
3152.00,0.0076
3151.00,0.0076
3150.00,0.0076
3149.00,0.0076
3148.00,0.0076
3147.00,0.0076
3146.00,0.0076
3145.00,0.0075
3144.00,0.0075
3143.00,0.0075
3142.00,0.0075
3141.00,0.0075
3140.00,0.0074
3139.00,0.0074
3138.00,0.0073
3137.00,0.0073
3136.00,0.0072
3135.00,0.0072
3134.00,0.0072
3133.00,0.0072
3132.00,0.0072
3131.00,0.0072
3130.00,0.0071
3129.00,0.0071
3128.00,0.0070
3127.00,0.0070
3126.00,0.0070
3125.00,0.0071
3124.00,0.0070
3123.00,0.0070
3122.00,0.0069
3121.00,0.0068
3120.00,0.0068
3119.00,0.0067
3118.00,0.0067
3117.00,0.0066
3116.00,0.0066
3115.00,0.0065
3114.00,0.0065
3113.00,0.0064
3112.00,0.0064
3111.00,0.0063
3110.00,0.0063
3109.00,0.0063
3108.00,0.0062
3107.00,0.0062
3106.00,0.0061
3105.00,0.0061
3104.00,0.0060
3103.00,0.0060
3102.00,0.0060
3101.00,0.0060
3100.00,0.0059
3099.00,0.0059
3098.00,0.0058
3097.00,0.0057
3096.00,0.0057
3095.00,0.0056
3094.00,0.0056
3093.00,0.0056
3092.00,0.0056
3091.00,0.0056
3090.00,0.0055
3089.00,0.0055
3088.00,0.0055
3087.00,0.0055
3086.00,0.0054
3085.00,0.0054
3084.00,0.0053
3083.00,0.0053
3082.00,0.0053
3081.00,0.0053
3080.00,0.0053
3079.00,0.0053
3078.00,0.0053
3077.00,0.0053
3076.00,0.0053
3075.00,0.0054
3074.00,0.0054
3073.00,0.0054
3072.00,0.0054
3071.00,0.0054
3070.00,0.0053
3069.00,0.0053
3068.00,0.0053
3067.00,0.0053
3066.00,0.0054
3065.00,0.0054
3064.00,0.0054
3063.00,0.0053
3062.00,0.0053
3061.00,0.0053
3060.00,0.0052
3059.00,0.0052
3058.00,0.0053
3057.00,0.0053
3056.00,0.0053
3055.00,0.0053
3054.00,0.0052
3053.00,0.0052
3052.00,0.0052
3051.00,0.0052
3050.00,0.0052
3049.00,0.0053
3048.00,0.0053
3047.00,0.0053
3046.00,0.0053
3045.00,0.0053
3044.00,0.0053
3043.00,0.0053
3042.00,0.0053
3041.00,0.0053
3040.00,0.0054
3039.00,0.0054
3038.00,0.0055
3037.00,0.0056
3036.00,0.0056
3035.00,0.0056
3034.00,0.0056
3033.00,0.0056
3032.00,0.0056
3031.00,0.0056
3030.00,0.0057
3029.00,0.0057
3028.00,0.0057
3027.00,0.0057
3026.00,0.0058
3025.00,0.0058
3024.00,0.0058
3023.00,0.0059
3022.00,0.0061
3021.00,0.0062
3020.00,0.0063
3019.00,0.0063
3018.00,0.0064
3017.00,0.0065
3016.00,0.0066
3015.00,0.0067
3014.00,0.0068
3013.00,0.0069
3012.00,0.0071
3011.00,0.0072
3010.00,0.0074
3009.00,0.0076
3008.00,0.0077
3007.00,0.0079
3006.00,0.0081
3005.00,0.0082
3004.00,0.0084
3003.00,0.0086
3002.00,0.0089
3001.00,0.0091
3000.00,0.0094
2999.00,0.0098
2998.00,0.0101
2997.00,0.0104
2996.00,0.0108
2995.00,0.0111
2994.00,0.0115
2993.00,0.0120
2992.00,0.0126
2991.00,0.0132
2990.00,0.0138
2989.00,0.0146
2988.00,0.0154
2987.00,0.0163
2986.00,0.0173
2985.00,0.0185
2984.00,0.0198
2983.00,0.0213
2982.00,0.0229
2981.00,0.0247
2980.00,0.0267
2979.00,0.0289
2978.00,0.0314
2977.00,0.0343
2976.00,0.0376
2975.00,0.0414
2974.00,0.0457
2973.00,0.0506
2972.00,0.0561
2971.00,0.0624
2970.00,0.0693
2969.00,0.0769
2968.00,0.0852
2967.00,0.0941
2966.00,0.1035
2965.00,0.1132
2964.00,0.1228
2963.00,0.1319
2962.00,0.1400
2961.00,0.1467
2960.00,0.1521
2959.00,0.1563
2958.00,0.1599
2957.00,0.1634
2956.00,0.1675
2955.00,0.1725
2954.00,0.1784
2953.00,0.1848
2952.00,0.1909
2951.00,0.1956
2950.00,0.1977
2949.00,0.1965
2948.00,0.1912
2947.00,0.1823
2946.00,0.1704
2945.00,0.1571
2944.00,0.1438
2943.00,0.1319
2942.00,0.1221
2941.00,0.1150
2940.00,0.1104
2939.00,0.1083
2938.00,0.1084
2937.00,0.1103
2936.00,0.1140
2935.00,0.1193
2934.00,0.1259
2933.00,0.1339
2932.00,0.1430
2931.00,0.1530
2930.00,0.1636
2929.00,0.1745
2928.00,0.1853
2927.00,0.1958
2926.00,0.2058
2925.00,0.2153
2924.00,0.2245
2923.00,0.2334
2922.00,0.2421
2921.00,0.2503
2920.00,0.2575
2919.00,0.2631
2918.00,0.2660
2917.00,0.2658
2916.00,0.2622
2915.00,0.2556
2914.00,0.2470
2913.00,0.2374
2912.00,0.2276
2911.00,0.2183
2910.00,0.2097
2909.00,0.2018
2908.00,0.1946
2907.00,0.1876
2906.00,0.1808
2905.00,0.1738
2904.00,0.1667
2903.00,0.1596
2902.00,0.1524
2901.00,0.1454
2900.00,0.1387
2899.00,0.1323
2898.00,0.1264
2897.00,0.1210
2896.00,0.1164
2895.00,0.1124
2894.00,0.1092
2893.00,0.1067
2892.00,0.1049
2891.00,0.1038
2890.00,0.1032
2889.00,0.1031
2888.00,0.1034
2887.00,0.1040
2886.00,0.1050
2885.00,0.1064
2884.00,0.1082
2883.00,0.1105
2882.00,0.1132
2881.00,0.1162
2880.00,0.1191
2879.00,0.1217
2878.00,0.1234
2877.00,0.1241
2876.00,0.1238
2875.00,0.1230
2874.00,0.1222
2873.00,0.1218
2872.00,0.1223
2871.00,0.1235
2870.00,0.1254
2869.00,0.1274
2868.00,0.1287
2867.00,0.1286
2866.00,0.1262
2865.00,0.1213
2864.00,0.1139
2863.00,0.1050
2862.00,0.0956
2861.00,0.0867
2860.00,0.0789
2859.00,0.0727
2858.00,0.0679
2857.00,0.0645
2856.00,0.0622
2855.00,0.0609
2854.00,0.0603
2853.00,0.0604
2852.00,0.0612
2851.00,0.0626
2850.00,0.0646
2849.00,0.0671
2848.00,0.0703
2847.00,0.0743
2846.00,0.0791
2845.00,0.0848
2844.00,0.0914
2843.00,0.0986
2842.00,0.1060
2841.00,0.1132
2840.00,0.1192
2839.00,0.1231
2838.00,0.1242
2837.00,0.1219
2836.00,0.1161
2835.00,0.1074
2834.00,0.0968
2833.00,0.0857
2832.00,0.0750
2831.00,0.0654
2830.00,0.0573
2829.00,0.0507
2828.00,0.0453
2827.00,0.0409
2826.00,0.0374
2825.00,0.0345
2824.00,0.0321
2823.00,0.0300
2822.00,0.0283
2821.00,0.0268
2820.00,0.0255
2819.00,0.0243
2818.00,0.0233
2817.00,0.0225
2816.00,0.0218
2815.00,0.0211
2814.00,0.0205
2813.00,0.0199
2812.00,0.0194
2811.00,0.0188
2810.00,0.0183
2809.00,0.0177
2808.00,0.0171
2807.00,0.0165
2806.00,0.0158
2805.00,0.0151
2804.00,0.0145
2803.00,0.0139
2802.00,0.0134
2801.00,0.0130
2800.00,0.0126
2799.00,0.0123
2798.00,0.0120
2797.00,0.0117
2796.00,0.0115
2795.00,0.0113
2794.00,0.0110
2793.00,0.0107
2792.00,0.0104
2791.00,0.0101
2790.00,0.0098
2789.00,0.0094
2788.00,0.0091
2787.00,0.0088
2786.00,0.0085
2785.00,0.0083
2784.00,0.0080
2783.00,0.0078
2782.00,0.0076
2781.00,0.0074
2780.00,0.0072
2779.00,0.0071
2778.00,0.0069
2777.00,0.0068
2776.00,0.0067
2775.00,0.0066
2774.00,0.0065
2773.00,0.0064
2772.00,0.0064
2771.00,0.0063
2770.00,0.0063
2769.00,0.0062
2768.00,0.0062
2767.00,0.0062
2766.00,0.0062
2765.00,0.0061
2764.00,0.0061
2763.00,0.0060
2762.00,0.0060
2761.00,0.0059
2760.00,0.0059
2759.00,0.0059
2758.00,0.0058
2757.00,0.0058
2756.00,0.0058
2755.00,0.0058
2754.00,0.0058
2753.00,0.0058
2752.00,0.0058
2751.00,0.0058
2750.00,0.0057
2749.00,0.0057
2748.00,0.0057
2747.00,0.0057
2746.00,0.0057
2745.00,0.0058
2744.00,0.0059
2743.00,0.0060
2742.00,0.0061
2741.00,0.0062
2740.00,0.0064
2739.00,0.0065
2738.00,0.0067
2737.00,0.0068
2736.00,0.0070
2735.00,0.0072
2734.00,0.0073
2733.00,0.0075
2732.00,0.0076
2731.00,0.0078
2730.00,0.0080
2729.00,0.0083
2728.00,0.0085
2727.00,0.0088
2726.00,0.0091
2725.00,0.0093
2724.00,0.0095
2723.00,0.0095
2722.00,0.0094
2721.00,0.0092
2720.00,0.0089
2719.00,0.0086
2718.00,0.0082
2717.00,0.0078
2716.00,0.0075
2715.00,0.0072
2714.00,0.0070
2713.00,0.0068
2712.00,0.0066
2711.00,0.0064
2710.00,0.0062
2709.00,0.0061
2708.00,0.0059
2707.00,0.0058
2706.00,0.0057
2705.00,0.0056
2704.00,0.0055
2703.00,0.0054
2702.00,0.0053
2701.00,0.0052
2700.00,0.0052
2699.00,0.0051
2698.00,0.0051
2697.00,0.0051
2696.00,0.0051
2695.00,0.0050
2694.00,0.0050
2693.00,0.0050
2692.00,0.0050
2691.00,0.0050
2690.00,0.0050
2689.00,0.0050
2688.00,0.0050
2687.00,0.0050
2686.00,0.0050
2685.00,0.0050
2684.00,0.0050
2683.00,0.0050
2682.00,0.0050
2681.00,0.0050
2680.00,0.0050
2679.00,0.0050
2678.00,0.0050
2677.00,0.0050
2676.00,0.0050
2675.00,0.0050
2674.00,0.0049
2673.00,0.0049
2672.00,0.0049
2671.00,0.0048
2670.00,0.0048
2669.00,0.0048
2668.00,0.0048
2667.00,0.0049
2666.00,0.0049
2665.00,0.0050
2664.00,0.0051
2663.00,0.0051
2662.00,0.0052
2661.00,0.0053
2660.00,0.0053
2659.00,0.0053
2658.00,0.0052
2657.00,0.0052
2656.00,0.0051
2655.00,0.0051
2654.00,0.0050
2653.00,0.0050
2652.00,0.0049
2651.00,0.0048
2650.00,0.0048
2649.00,0.0047
2648.00,0.0047
2647.00,0.0046
2646.00,0.0046
2645.00,0.0045
2644.00,0.0044
2643.00,0.0044
2642.00,0.0043
2641.00,0.0043
2640.00,0.0043
2639.00,0.0043
2638.00,0.0043
2637.00,0.0042
2636.00,0.0042
2635.00,0.0042
2634.00,0.0042
2633.00,0.0042
2632.00,0.0042
2631.00,0.0042
2630.00,0.0042
2629.00,0.0042
2628.00,0.0042
2627.00,0.0043
2626.00,0.0043
2625.00,0.0043
2624.00,0.0044
2623.00,0.0044
2622.00,0.0043
2621.00,0.0043
2620.00,0.0043
2619.00,0.0043
2618.00,0.0043
2617.00,0.0043
2616.00,0.0042
2615.00,0.0042
2614.00,0.0042
2613.00,0.0041
2612.00,0.0041
2611.00,0.0041
2610.00,0.0041
2609.00,0.0040
2608.00,0.0040
2607.00,0.0040
2606.00,0.0039
2605.00,0.0038
2604.00,0.0037
2603.00,0.0037
2602.00,0.0036
2601.00,0.0035
2600.00,0.0035
2599.00,0.0034
2598.00,0.0034
2597.00,0.0034
2596.00,0.0034
2595.00,0.0034
2594.00,0.0034
2593.00,0.0035
2592.00,0.0035
2591.00,0.0036
2590.00,0.0038
2589.00,0.0039
2588.00,0.0040
2587.00,0.0040
2586.00,0.0040
2585.00,0.0041
2584.00,0.0042
2583.00,0.0042
2582.00,0.0042
2581.00,0.0042
2580.00,0.0042
2579.00,0.0041
2578.00,0.0040
2577.00,0.0039
2576.00,0.0038
2575.00,0.0037
2574.00,0.0036
2573.00,0.0035
2572.00,0.0033
2571.00,0.0032
2570.00,0.0031
2569.00,0.0031
2568.00,0.0030
2567.00,0.0030
2566.00,0.0029
2565.00,0.0029
2564.00,0.0028
2563.00,0.0028
2562.00,0.0028
2561.00,0.0028
2560.00,0.0027
2559.00,0.0027
2558.00,0.0026
2557.00,0.0026
2556.00,0.0025
2555.00,0.0025
2554.00,0.0025
2553.00,0.0025
2552.00,0.0024
2551.00,0.0024
2550.00,0.0024
2549.00,0.0023
2548.00,0.0023
2547.00,0.0022
2546.00,0.0022
2545.00,0.0022
2544.00,0.0021
2543.00,0.0021
2542.00,0.0021
2541.00,0.0020
2540.00,0.0020
2539.00,0.0020
2538.00,0.0020
2537.00,0.0020
2536.00,0.0019
2535.00,0.0019
2534.00,0.0018
2533.00,0.0017
2532.00,0.0016
2531.00,0.0016
2530.00,0.0017
2529.00,0.0017
2528.00,0.0017
2527.00,0.0017
2526.00,0.0017
2525.00,0.0016
2524.00,0.0016
2523.00,0.0016
2522.00,0.0015
2521.00,0.0014
2520.00,0.0014
2519.00,0.0013
2518.00,0.0013
2517.00,0.0014
2516.00,0.0014
2515.00,0.0014
2514.00,0.0014
2513.00,0.0013
2512.00,0.0013
2511.00,0.0013
2510.00,0.0013
2509.00,0.0013
2508.00,0.0013
2507.00,0.0013
2506.00,0.0013
2505.00,0.0013
2504.00,0.0012
2503.00,0.0012
2502.00,0.0012
2501.00,0.0012
2500.00,0.0012
2499.00,0.0012
2498.00,0.0012
2497.00,0.0012
2496.00,0.0013
2495.00,0.0013
2494.00,0.0013
2493.00,0.0013
2492.00,0.0013
2491.00,0.0013
2490.00,0.0013
2489.00,0.0013
2488.00,0.0013
2487.00,0.0013
2486.00,0.0013
2485.00,0.0013
2484.00,0.0013
2483.00,0.0012
2482.00,0.0011
2481.00,0.0011
2480.00,0.0011
2479.00,0.0011
2478.00,0.0011
2477.00,0.0011
2476.00,0.0011
2475.00,0.0012
2474.00,0.0012
2473.00,0.0012
2472.00,0.0012
2471.00,0.0012
2470.00,0.0011
2469.00,0.0010
2468.00,0.0010
2467.00,0.0010
2466.00,0.0010
2465.00,0.0010
2464.00,0.0011
2463.00,0.0011
2462.00,0.0012
2461.00,0.0013
2460.00,0.0014
2459.00,0.0014
2458.00,0.0014
2457.00,0.0014
2456.00,0.0013
2455.00,0.0013
2454.00,0.0013
2453.00,0.0013
2452.00,0.0013
2451.00,0.0013
2450.00,0.0013
2449.00,0.0013
2448.00,0.0013
2447.00,0.0013
2446.00,0.0013
2445.00,0.0012
2444.00,0.0011
2443.00,0.0011
2442.00,0.0011
2441.00,0.0011
2440.00,0.0011
2439.00,0.0012
2438.00,0.0012
2437.00,0.0013
2436.00,0.0013
2435.00,0.0013
2434.00,0.0012
2433.00,0.0012
2432.00,0.0012
2431.00,0.0012
2430.00,0.0012
2429.00,0.0013
2428.00,0.0013
2427.00,0.0013
2426.00,0.0012
2425.00,0.0012
2424.00,0.0012
2423.00,0.0012
2422.00,0.0012
2421.00,0.0012
2420.00,0.0013
2419.00,0.0013
2418.00,0.0013
2417.00,0.0013
2416.00,0.0012
2415.00,0.0012
2414.00,0.0011
2413.00,0.0011
2412.00,0.0011
2411.00,0.0011
2410.00,0.0011
2409.00,0.0011
2408.00,0.0011
2407.00,0.0011
2406.00,0.0010
2405.00,0.0010
2404.00,0.0010
2403.00,0.0011
2402.00,0.0011
2401.00,0.0011
2400.00,0.0011
2399.00,0.0011
2398.00,0.0011
2397.00,0.0011
2396.00,0.0011
2395.00,0.0011
2394.00,0.0010
2393.00,0.0010
2392.00,0.0010
2391.00,0.0010
2390.00,0.0010
2389.00,0.0010
2388.00,0.0010
2387.00,0.0009
2386.00,0.0008
2385.00,0.0007
2384.00,0.0006
2383.00,0.0006
2382.00,0.0005
2381.00,0.0005
2380.00,0.0005
2379.00,0.0005
2378.00,0.0005
2377.00,0.0005
2376.00,0.0006
2375.00,0.0006
2374.00,0.0007
2373.00,0.0007
2372.00,0.0006
2371.00,0.0006
2370.00,0.0006
2369.00,0.0006
2368.00,0.0006
2367.00,0.0006
2366.00,0.0005
2365.00,0.0005
2364.00,0.0006
2363.00,0.0006
2362.00,0.0006
2361.00,0.0006
2360.00,0.0007
2359.00,0.0007
2358.00,0.0007
2357.00,0.0007
2356.00,0.0007
2355.00,0.0007
2354.00,0.0006
2353.00,0.0005
2352.00,0.0005
2351.00,0.0006
2350.00,0.0007
2349.00,0.0007
2348.00,0.0007
2347.00,0.0007
2346.00,0.0007
2345.00,0.0008
2344.00,0.0008
2343.00,0.0009
2342.00,0.0009
2341.00,0.0009
2340.00,0.0009
2339.00,0.0010
2338.00,0.0010
2337.00,0.0010
2336.00,0.0010
2335.00,0.0009
2334.00,0.0009
2333.00,0.0008
2332.00,0.0008
2331.00,0.0007
2330.00,0.0007
2329.00,0.0008
2328.00,0.0010
2327.00,0.0014
2326.00,0.0018
2325.00,0.0022
2324.00,0.0023
2323.00,0.0023
2322.00,0.0021
2321.00,0.0019
2320.00,0.0017
2319.00,0.0016
2318.00,0.0015
2317.00,0.0015
2316.00,0.0014
2315.00,0.0013
2314.00,0.0012
2313.00,0.0011
2312.00,0.0009
2311.00,0.0008
2310.00,0.0007
2309.00,0.0007
2308.00,0.0008
2307.00,0.0009
2306.00,0.0010
2305.00,0.0010
2304.00,0.0010
2303.00,0.0010
2302.00,0.0010
2301.00,0.0010
2300.00,0.0010
2299.00,0.0011
2298.00,0.0012
2297.00,0.0014
2296.00,0.0015
2295.00,0.0015
2294.00,0.0014
2293.00,0.0014
2292.00,0.0014
2291.00,0.0015
2290.00,0.0016
2289.00,0.0017
2288.00,0.0018
2287.00,0.0019
2286.00,0.0019
2285.00,0.0019
2284.00,0.0019
2283.00,0.0018
2282.00,0.0018
2281.00,0.0018
2280.00,0.0017
2279.00,0.0017
2278.00,0.0016
2277.00,0.0015
2276.00,0.0014
2275.00,0.0014
2274.00,0.0014
2273.00,0.0014
2272.00,0.0014
2271.00,0.0014
2270.00,0.0014
2269.00,0.0014
2268.00,0.0013
2267.00,0.0012
2266.00,0.0010
2265.00,0.0009
2264.00,0.0009
2263.00,0.0011
2262.00,0.0013
2261.00,0.0015
2260.00,0.0016
2259.00,0.0016
2258.00,0.0015
2257.00,0.0014
2256.00,0.0013
2255.00,0.0012
2254.00,0.0011
2253.00,0.0011
2252.00,0.0011
2251.00,0.0010
2250.00,0.0010
2249.00,0.0009
2248.00,0.0010
2247.00,0.0010
2246.00,0.0010
2245.00,0.0011
2244.00,0.0012
2243.00,0.0012
2242.00,0.0012
2241.00,0.0011
2240.00,0.0009
2239.00,0.0008
2238.00,0.0008
2237.00,0.0009
2236.00,0.0011
2235.00,0.0013
2234.00,0.0014
2233.00,0.0014
2232.00,0.0012
2231.00,0.0010
2230.00,0.0009
2229.00,0.0009
2228.00,0.0008
2227.00,0.0006
2226.00,0.0004
2225.00,0.0004
2224.00,0.0005
2223.00,0.0006
2222.00,0.0008
2221.00,0.0009
2220.00,0.0009
2219.00,0.0008
2218.00,0.0006
2217.00,0.0005
2216.00,0.0005
2215.00,0.0005
2214.00,0.0005
2213.00,0.0005
2212.00,0.0005
2211.00,0.0005
2210.00,0.0004
2209.00,0.0004
2208.00,0.0005
2207.00,0.0005
2206.00,0.0005
2205.00,0.0004
2204.00,0.0003
2203.00,0.0003
2202.00,0.0005
2201.00,0.0007
2200.00,0.0009
2199.00,0.0008
2198.00,0.0007
2197.00,0.0006
2196.00,0.0006
2195.00,0.0007
2194.00,0.0007
2193.00,0.0007
2192.00,0.0007
2191.00,0.0008
2190.00,0.0011
2189.00,0.0014
2188.00,0.0017
2187.00,0.0018
2186.00,0.0017
2185.00,0.0015
2184.00,0.0011
2183.00,0.0007
2182.00,0.0005
2181.00,0.0005
2180.00,0.0006
2179.00,0.0007
2178.00,0.0006
2177.00,0.0005
2176.00,0.0004
2175.00,0.0004
2174.00,0.0005
2173.00,0.0007
2172.00,0.0008
2171.00,0.0008
2170.00,0.0011
2169.00,0.0015
2168.00,0.0019
2167.00,0.0020
2166.00,0.0020
2165.00,0.0019
2164.00,0.0019
2163.00,0.0020
2162.00,0.0019
2161.00,0.0015
2160.00,0.0005
2159.00,-0.0010
2158.00,-0.0022
2157.00,-0.0029
2156.00,-0.0030
2155.00,-0.0028
2154.00,-0.0026
2153.00,-0.0025
2152.00,-0.0024
2151.00,-0.0023
2150.00,-0.0020
2149.00,-0.0016
2148.00,-0.0011
2147.00,-0.0007
2146.00,-0.0006
2145.00,-0.0006
2144.00,-0.0007
2143.00,-0.0008
2142.00,-0.0009
2141.00,-0.0010
2140.00,-0.0011
2139.00,-0.0012
2138.00,-0.0012
2137.00,-0.0012
2136.00,-0.0013
2135.00,-0.0016
2134.00,-0.0018
2133.00,-0.0019
2132.00,-0.0017
2131.00,-0.0014
2130.00,-0.0011
2129.00,-0.0008
2128.00,-0.0007
2127.00,-0.0006
2126.00,-0.0005
2125.00,-0.0005
2124.00,-0.0004
2123.00,-0.0003
2122.00,-0.0002
2121.00,-0.0000
2120.00,0.0001
2119.00,0.0002
2118.00,0.0003
2117.00,0.0003
2116.00,0.0003
2115.00,0.0004
2114.00,0.0005
2113.00,0.0006
2112.00,0.0007
2111.00,0.0007
2110.00,0.0006
2109.00,0.0005
2108.00,0.0005
2107.00,0.0003
2106.00,0.0002
2105.00,0.0002
2104.00,0.0002
2103.00,0.0003
2102.00,0.0005
2101.00,0.0005
2100.00,0.0006
2099.00,0.0005
2098.00,0.0003
2097.00,0.0001
2096.00,-0.0002
2095.00,-0.0004
2094.00,-0.0005
2093.00,-0.0003
2092.00,0.0000
2091.00,0.0003
2090.00,0.0004
2089.00,0.0004
2088.00,0.0003
2087.00,0.0002
2086.00,0.0003
2085.00,0.0004
2084.00,0.0005
2083.00,0.0006
2082.00,0.0006
2081.00,0.0006
2080.00,0.0006
2079.00,0.0004
2078.00,0.0003
2077.00,0.0003
2076.00,0.0004
2075.00,0.0005
2074.00,0.0005
2073.00,0.0005
2072.00,0.0004
2071.00,0.0003
2070.00,0.0003
2069.00,0.0002
2068.00,0.0001
2067.00,-0.0001
2066.00,-0.0003
2065.00,-0.0003
2064.00,-0.0002
2063.00,-0.0001
2062.00,-0.0000
2061.00,-0.0001
2060.00,-0.0003
2059.00,-0.0004
2058.00,-0.0004
2057.00,-0.0002
2056.00,0.0000
2055.00,0.0001
2054.00,0.0003
2053.00,0.0006
2052.00,0.0011
2051.00,0.0014
2050.00,0.0013
2049.00,0.0009
2048.00,0.0005
2047.00,0.0004
2046.00,0.0003
2045.00,0.0003
2044.00,0.0004
2043.00,0.0005
2042.00,0.0005
2041.00,0.0006
2040.00,0.0006
2039.00,0.0006
2038.00,0.0007
2037.00,0.0007
2036.00,0.0005
2035.00,0.0001
2034.00,-0.0004
2033.00,-0.0008
2032.00,-0.0010
2031.00,-0.0010
2030.00,-0.0009
2029.00,-0.0006
2028.00,-0.0004
2027.00,-0.0003
2026.00,-0.0004
2025.00,-0.0006
2024.00,-0.0009
2023.00,-0.0010
2022.00,-0.0010
2021.00,-0.0010
2020.00,-0.0010
2019.00,-0.0009
2018.00,-0.0008
2017.00,-0.0005
2016.00,-0.0003
2015.00,-0.0002
2014.00,-0.0003
2013.00,-0.0004
2012.00,-0.0006
2011.00,-0.0007
2010.00,-0.0009
2009.00,-0.0011
2008.00,-0.0014
2007.00,-0.0016
2006.00,-0.0016
2005.00,-0.0014
2004.00,-0.0011
2003.00,-0.0009
2002.00,-0.0009
2001.00,-0.0010
2000.00,-0.0011
1999.00,-0.0010
1998.00,-0.0009
1997.00,-0.0008
1996.00,-0.0009
1995.00,-0.0010
1994.00,-0.0011
1993.00,-0.0009
1992.00,-0.0007
1991.00,-0.0005
1990.00,-0.0005
1989.00,-0.0004
1988.00,-0.0003
1987.00,-0.0002
1986.00,-0.0002
1985.00,-0.0001
1984.00,0.0001
1983.00,0.0003
1982.00,0.0005
1981.00,0.0007
1980.00,0.0009
1979.00,0.0007
1978.00,0.0001
1977.00,-0.0005
1976.00,-0.0009
1975.00,-0.0012
1974.00,-0.0013
1973.00,-0.0013
1972.00,-0.0012
1971.00,-0.0011
1970.00,-0.0011
1969.00,-0.0012
1968.00,-0.0014
1967.00,-0.0014
1966.00,-0.0014
1965.00,-0.0013
1964.00,-0.0012
1963.00,-0.0011
1962.00,-0.0012
1961.00,-0.0015
1960.00,-0.0019
1959.00,-0.0022
1958.00,-0.0022
1957.00,-0.0019
1956.00,-0.0015
1955.00,-0.0013
1954.00,-0.0014
1953.00,-0.0015
1952.00,-0.0017
1951.00,-0.0019
1950.00,-0.0020
1949.00,-0.0019
1948.00,-0.0018
1947.00,-0.0016
1946.00,-0.0013
1945.00,-0.0011
1944.00,-0.0009
1943.00,-0.0009
1942.00,-0.0009
1941.00,-0.0010
1940.00,-0.0011
1939.00,-0.0012
1938.00,-0.0013
1937.00,-0.0012
1936.00,-0.0010
1935.00,-0.0008
1934.00,-0.0007
1933.00,-0.0007
1932.00,-0.0008
1931.00,-0.0009
1930.00,-0.0009
1929.00,-0.0009
1928.00,-0.0008
1927.00,-0.0008
1926.00,-0.0008
1925.00,-0.0009
1924.00,-0.0009
1923.00,-0.0010
1922.00,-0.0009
1921.00,-0.0007
1920.00,-0.0006
1919.00,-0.0004
1918.00,-0.0002
1917.00,-0.0001
1916.00,-0.0002
1915.00,-0.0003
1914.00,-0.0004
1913.00,-0.0004
1912.00,-0.0003
1911.00,-0.0002
1910.00,-0.0001
1909.00,-0.0002
1908.00,-0.0002
1907.00,-0.0003
1906.00,-0.0004
1905.00,-0.0003
1904.00,-0.0002
1903.00,-0.0002
1902.00,-0.0002
1901.00,-0.0003
1900.00,-0.0002
1899.00,-0.0002
1898.00,-0.0001
1897.00,-0.0001
1896.00,-0.0000
1895.00,0.0000
1894.00,0.0000
1893.00,-0.0000
1892.00,-0.0001
1891.00,-0.0001
1890.00,-0.0001
1889.00,-0.0001
1888.00,0.0000
1887.00,-0.0000
1886.00,-0.0000
1885.00,-0.0001
1884.00,-0.0001
1883.00,-0.0002
1882.00,-0.0003
1881.00,-0.0003
1880.00,-0.0003
1879.00,-0.0003
1878.00,-0.0003
1877.00,-0.0002
1876.00,-0.0001
1875.00,0.0000
1874.00,0.0001
1873.00,0.0001
1872.00,0.0001
1871.00,0.0001
1870.00,0.0001
1869.00,0.0001
1868.00,0.0001
1867.00,0.0001
1866.00,0.0000
1865.00,0.0000
1864.00,0.0001
1863.00,0.0002
1862.00,0.0002
1861.00,0.0003
1860.00,0.0004
1859.00,0.0004
1858.00,0.0003
1857.00,0.0003
1856.00,0.0003
1855.00,0.0003
1854.00,0.0003
1853.00,0.0004
1852.00,0.0004
1851.00,0.0004
1850.00,0.0003
1849.00,0.0003
1848.00,0.0003
1847.00,0.0003
1846.00,0.0004
1845.00,0.0004
1844.00,0.0004
1843.00,0.0005
1842.00,0.0005
1841.00,0.0004
1840.00,0.0004
1839.00,0.0003
1838.00,0.0003
1837.00,0.0004
1836.00,0.0004
1835.00,0.0004
1834.00,0.0004
1833.00,0.0004
1832.00,0.0004
1831.00,0.0005
1830.00,0.0005
1829.00,0.0006
1828.00,0.0006
1827.00,0.0005
1826.00,0.0004
1825.00,0.0004
1824.00,0.0004
1823.00,0.0004
1822.00,0.0004
1821.00,0.0004
1820.00,0.0003
1819.00,0.0002
1818.00,0.0001
1817.00,0.0001
1816.00,0.0001
1815.00,0.0002
1814.00,0.0003
1813.00,0.0004
1812.00,0.0004
1811.00,0.0004
1810.00,0.0004
1809.00,0.0004
1808.00,0.0004
1807.00,0.0004
1806.00,0.0004
1805.00,0.0004
1804.00,0.0005
1803.00,0.0005
1802.00,0.0005
1801.00,0.0005
1800.00,0.0006
1799.00,0.0006
1798.00,0.0007
1797.00,0.0007
1796.00,0.0008
1795.00,0.0008
1794.00,0.0009
1793.00,0.0009
1792.00,0.0010
1791.00,0.0010
1790.00,0.0010
1789.00,0.0010
1788.00,0.0009
1787.00,0.0009
1786.00,0.0009
1785.00,0.0009
1784.00,0.0010
1783.00,0.0010
1782.00,0.0010
1781.00,0.0009
1780.00,0.0009
1779.00,0.0008
1778.00,0.0008
1777.00,0.0008
1776.00,0.0009
1775.00,0.0009
1774.00,0.0009
1773.00,0.0009
1772.00,0.0009
1771.00,0.0010
1770.00,0.0010
1769.00,0.0010
1768.00,0.0010
1767.00,0.0011
1766.00,0.0011
1765.00,0.0011
1764.00,0.0012
1763.00,0.0012
1762.00,0.0013
1761.00,0.0014
1760.00,0.0014
1759.00,0.0014
1758.00,0.0014
1757.00,0.0015
1756.00,0.0015
1755.00,0.0015
1754.00,0.0016
1753.00,0.0016
1752.00,0.0017
1751.00,0.0017
1750.00,0.0017
1749.00,0.0017
1748.00,0.0018
1747.00,0.0019
1746.00,0.0018
1745.00,0.0018
1744.00,0.0018
1743.00,0.0017
1742.00,0.0017
1741.00,0.0018
1740.00,0.0019
1739.00,0.0019
1738.00,0.0020
1737.00,0.0021
1736.00,0.0021
1735.00,0.0021
1734.00,0.0020
1733.00,0.0020
1732.00,0.0019
1731.00,0.0018
1730.00,0.0018
1729.00,0.0018
1728.00,0.0019
1727.00,0.0020
1726.00,0.0020
1725.00,0.0020
1724.00,0.0021
1723.00,0.0021
1722.00,0.0021
1721.00,0.0022
1720.00,0.0024
1719.00,0.0025
1718.00,0.0027
1717.00,0.0027
1716.00,0.0027
1715.00,0.0026
1714.00,0.0026
1713.00,0.0026
1712.00,0.0027
1711.00,0.0027
1710.00,0.0027
1709.00,0.0028
1708.00,0.0028
1707.00,0.0029
1706.00,0.0030
1705.00,0.0031
1704.00,0.0032
1703.00,0.0033
1702.00,0.0035
1701.00,0.0037
1700.00,0.0039
1699.00,0.0040
1698.00,0.0040
1697.00,0.0041
1696.00,0.0042
1695.00,0.0043
1694.00,0.0043
1693.00,0.0043
1692.00,0.0044
1691.00,0.0044
1690.00,0.0046
1689.00,0.0047
1688.00,0.0049
1687.00,0.0050
1686.00,0.0051
1685.00,0.0051
1684.00,0.0053
1683.00,0.0055
1682.00,0.0057
1681.00,0.0059
1680.00,0.0061
1679.00,0.0063
1678.00,0.0065
1677.00,0.0066
1676.00,0.0068
1675.00,0.0069
1674.00,0.0070
1673.00,0.0071
1672.00,0.0073
1671.00,0.0074
1670.00,0.0077
1669.00,0.0079
1668.00,0.0081
1667.00,0.0082
1666.00,0.0083
1665.00,0.0084
1664.00,0.0086
1663.00,0.0088
1662.00,0.0091
1661.00,0.0094
1660.00,0.0097
1659.00,0.0100
1658.00,0.0103
1657.00,0.0107
1656.00,0.0110
1655.00,0.0115
1654.00,0.0120
1653.00,0.0127
1652.00,0.0130
1651.00,0.0131
1650.00,0.0132
1649.00,0.0134
1648.00,0.0139
1647.00,0.0145
1646.00,0.0150
1645.00,0.0153
1644.00,0.0155
1643.00,0.0156
1642.00,0.0157
1641.00,0.0158
1640.00,0.0159
1639.00,0.0160
1638.00,0.0160
1637.00,0.0160
1636.00,0.0160
1635.00,0.0158
1634.00,0.0156
1633.00,0.0154
1632.00,0.0152
1631.00,0.0150
1630.00,0.0148
1629.00,0.0146
1628.00,0.0144
1627.00,0.0142
1626.00,0.0140
1625.00,0.0138
1624.00,0.0137
1623.00,0.0135
1622.00,0.0133
1621.00,0.0132
1620.00,0.0132
1619.00,0.0131
1618.00,0.0131
1617.00,0.0130
1616.00,0.0130
1615.00,0.0130
1614.00,0.0130
1613.00,0.0130
1612.00,0.0131
1611.00,0.0131
1610.00,0.0131
1609.00,0.0131
1608.00,0.0131
1607.00,0.0131
1606.00,0.0131
1605.00,0.0130
1604.00,0.0130
1603.00,0.0129
1602.00,0.0127
1601.00,0.0125
1600.00,0.0124
1599.00,0.0122
1598.00,0.0121
1597.00,0.0119
1596.00,0.0117
1595.00,0.0115
1594.00,0.0114
1593.00,0.0112
1592.00,0.0112
1591.00,0.0112
1590.00,0.0112
1589.00,0.0112
1588.00,0.0113
1587.00,0.0114
1586.00,0.0116
1585.00,0.0118
1584.00,0.0120
1583.00,0.0122
1582.00,0.0124
1581.00,0.0124
1580.00,0.0124
1579.00,0.0123
1578.00,0.0122
1577.00,0.0120
1576.00,0.0118
1575.00,0.0115
1574.00,0.0113
1573.00,0.0111
1572.00,0.0110
1571.00,0.0108
1570.00,0.0107
1569.00,0.0106
1568.00,0.0106
1567.00,0.0106
1566.00,0.0105
1565.00,0.0104
1564.00,0.0104
1563.00,0.0104
1562.00,0.0104
1561.00,0.0105
1560.00,0.0105
1559.00,0.0106
1558.00,0.0106
1557.00,0.0107
1556.00,0.0108
1555.00,0.0109
1554.00,0.0111
1553.00,0.0114
1552.00,0.0116
1551.00,0.0119
1550.00,0.0122
1549.00,0.0126
1548.00,0.0130
1547.00,0.0133
1546.00,0.0138
1545.00,0.0144
1544.00,0.0150
1543.00,0.0156
1542.00,0.0161
1541.00,0.0167
1540.00,0.0173
1539.00,0.0177
1538.00,0.0178
1537.00,0.0178
1536.00,0.0177
1535.00,0.0176
1534.00,0.0174
1533.00,0.0170
1532.00,0.0167
1531.00,0.0163
1530.00,0.0159
1529.00,0.0155
1528.00,0.0151
1527.00,0.0145
1526.00,0.0140
1525.00,0.0136
1524.00,0.0132
1523.00,0.0128
1522.00,0.0124
1521.00,0.0119
1520.00,0.0116
1519.00,0.0112
1518.00,0.0109
1517.00,0.0106
1516.00,0.0104
1515.00,0.0103
1514.00,0.0102
1513.00,0.0101
1512.00,0.0101
1511.00,0.0100
1510.00,0.0099
1509.00,0.0099
1508.00,0.0099
1507.00,0.0099
1506.00,0.0098
1505.00,0.0099
1504.00,0.0099
1503.00,0.0100
1502.00,0.0101
1501.00,0.0104
1500.00,0.0110
1499.00,0.0117
1498.00,0.0127
1497.00,0.0139
1496.00,0.0152
1495.00,0.0160
1494.00,0.0164
1493.00,0.0167
1492.00,0.0167
1491.00,0.0164
1490.00,0.0160
1489.00,0.0158
1488.00,0.0157
1487.00,0.0158
1486.00,0.0160
1485.00,0.0164
1484.00,0.0170
1483.00,0.0176
1482.00,0.0184
1481.00,0.0194
1480.00,0.0205
1479.00,0.0217
1478.00,0.0231
1477.00,0.0250
1476.00,0.0272
1475.00,0.0298
1474.00,0.0333
1473.00,0.0386
1472.00,0.0449
1471.00,0.0512
1470.00,0.0573
1469.00,0.0637
1468.00,0.0707
1467.00,0.0785
1466.00,0.0874
1465.00,0.0971
1464.00,0.1057
1463.00,0.1120
1462.00,0.1163
1461.00,0.1194
1460.00,0.1218
1459.00,0.1236
1458.00,0.1254
1457.00,0.1269
1456.00,0.1275
1455.00,0.1272
1454.00,0.1264
1453.00,0.1250
1452.00,0.1227
1451.00,0.1190
1450.00,0.1137
1449.00,0.1062
1448.00,0.0966
1447.00,0.0864
1446.00,0.0772
1445.00,0.0694
1444.00,0.0628
1443.00,0.0574
1442.00,0.0535
1441.00,0.0509
1440.00,0.0494
1439.00,0.0489
1438.00,0.0491
1437.00,0.0493
1436.00,0.0482
1435.00,0.0455
1434.00,0.0416
1433.00,0.0369
1432.00,0.0321
1431.00,0.0279
1430.00,0.0247
1429.00,0.0224
1428.00,0.0210
1427.00,0.0202
1426.00,0.0197
1425.00,0.0192
1424.00,0.0189
1423.00,0.0188
1422.00,0.0188
1421.00,0.0189
1420.00,0.0188
1419.00,0.0188
1418.00,0.0187
1417.00,0.0185
1416.00,0.0182
1415.00,0.0179
1414.00,0.0177
1413.00,0.0174
1412.00,0.0170
1411.00,0.0166
1410.00,0.0164
1409.00,0.0162
1408.00,0.0160
1407.00,0.0158
1406.00,0.0158
1405.00,0.0157
1404.00,0.0156
1403.00,0.0156
1402.00,0.0157
1401.00,0.0158
1400.00,0.0158
1399.00,0.0160
1398.00,0.0162
1397.00,0.0163
1396.00,0.0165
1395.00,0.0169
1394.00,0.0174
1393.00,0.0180
1392.00,0.0186
1391.00,0.0195
1390.00,0.0208
1389.00,0.0225
1388.00,0.0252
1387.00,0.0291
1386.00,0.0342
1385.00,0.0407
1384.00,0.0492
1383.00,0.0606
1382.00,0.0756
1381.00,0.0947
1380.00,0.1184
1379.00,0.1457
1378.00,0.1728
1377.00,0.1937
1376.00,0.2021
1375.00,0.1942
1374.00,0.1717
1373.00,0.1432
1372.00,0.1164
1371.00,0.0939
1370.00,0.0758
1369.00,0.0619
1368.00,0.0523
1367.00,0.0464
1366.00,0.0432
1365.00,0.0419
1364.00,0.0422
1363.00,0.0437
1362.00,0.0459
1361.00,0.0484
1360.00,0.0503
1359.00,0.0509
1358.00,0.0498
1357.00,0.0470
1356.00,0.0430
1355.00,0.0384
1354.00,0.0340
1353.00,0.0302
1352.00,0.0271
1351.00,0.0246
1350.00,0.0226
1349.00,0.0211
1348.00,0.0198
1347.00,0.0189
1346.00,0.0181
1345.00,0.0175
1344.00,0.0170
1343.00,0.0166
1342.00,0.0162
1341.00,0.0159
1340.00,0.0156
1339.00,0.0154
1338.00,0.0152
1337.00,0.0150
1336.00,0.0150
1335.00,0.0152
1334.00,0.0155
1333.00,0.0159
1332.00,0.0163
1331.00,0.0166
1330.00,0.0167
1329.00,0.0166
1328.00,0.0162
1327.00,0.0156
1326.00,0.0149
1325.00,0.0143
1324.00,0.0136
1323.00,0.0131
1322.00,0.0126
1321.00,0.0123
1320.00,0.0120
1319.00,0.0117
1318.00,0.0115
1317.00,0.0113
1316.00,0.0111
1315.00,0.0110
1314.00,0.0110
1313.00,0.0110
1312.00,0.0110
1311.00,0.0113
1310.00,0.0117
1309.00,0.0124
1308.00,0.0134
1307.00,0.0146
1306.00,0.0158
1305.00,0.0166
1304.00,0.0170
1303.00,0.0168
1302.00,0.0163
1301.00,0.0158
1300.00,0.0155
1299.00,0.0154
1298.00,0.0154
1297.00,0.0153
1296.00,0.0152
1295.00,0.0149
1294.00,0.0145
1293.00,0.0139
1292.00,0.0134
1291.00,0.0128
1290.00,0.0123
1289.00,0.0119
1288.00,0.0115
1287.00,0.0111
1286.00,0.0108
1285.00,0.0106
1284.00,0.0104
1283.00,0.0102
1282.00,0.0101
1281.00,0.0099
1280.00,0.0097
1279.00,0.0096
1278.00,0.0094
1277.00,0.0094
1276.00,0.0094
1275.00,0.0094
1274.00,0.0094
1273.00,0.0093
1272.00,0.0093
1271.00,0.0094
1270.00,0.0095
1269.00,0.0097
1268.00,0.0099
1267.00,0.0101
1266.00,0.0103
1265.00,0.0105
1264.00,0.0109
1263.00,0.0112
1262.00,0.0116
1261.00,0.0121
1260.00,0.0127
1259.00,0.0135
1258.00,0.0143
1257.00,0.0150
1256.00,0.0154
1255.00,0.0153
1254.00,0.0149
1253.00,0.0141
1252.00,0.0134
1251.00,0.0127
1250.00,0.0121
1249.00,0.0118
1248.00,0.0115
1247.00,0.0114
1246.00,0.0113
1245.00,0.0111
1244.00,0.0111
1243.00,0.0110
1242.00,0.0109
1241.00,0.0108
1240.00,0.0107
1239.00,0.0106
1238.00,0.0104
1237.00,0.0103
1236.00,0.0102
1235.00,0.0101
1234.00,0.0099
1233.00,0.0099
1232.00,0.0098
1231.00,0.0098
1230.00,0.0099
1229.00,0.0100
1228.00,0.0101
1227.00,0.0103
1226.00,0.0105
1225.00,0.0108
1224.00,0.0112
1223.00,0.0116
1222.00,0.0120
1221.00,0.0123
1220.00,0.0124
1219.00,0.0125
1218.00,0.0124
1217.00,0.0121
1216.00,0.0118
1215.00,0.0114
1214.00,0.0111
1213.00,0.0108
1212.00,0.0105
1211.00,0.0103
1210.00,0.0100
1209.00,0.0097
1208.00,0.0095
1207.00,0.0093
1206.00,0.0092
1205.00,0.0091
1204.00,0.0091
1203.00,0.0091
1202.00,0.0091
1201.00,0.0090
1200.00,0.0090
1199.00,0.0089
1198.00,0.0088
1197.00,0.0088
1196.00,0.0088
1195.00,0.0087
1194.00,0.0087
1193.00,0.0087
1192.00,0.0087
1191.00,0.0087
1190.00,0.0088
1189.00,0.0089
1188.00,0.0090
1187.00,0.0090
1186.00,0.0091
1185.00,0.0092
1184.00,0.0093
1183.00,0.0095
1182.00,0.0097
1181.00,0.0100
1180.00,0.0104
1179.00,0.0109
1178.00,0.0116
1177.00,0.0125
1176.00,0.0136
1175.00,0.0152
1174.00,0.0173
1173.00,0.0199
1172.00,0.0230
1171.00,0.0265
1170.00,0.0297
1169.00,0.0324
1168.00,0.0341
1167.00,0.0345
1166.00,0.0339
1165.00,0.0325
1164.00,0.0308
1163.00,0.0290
1162.00,0.0273
1161.00,0.0258
1160.00,0.0246
1159.00,0.0237
1158.00,0.0231
1157.00,0.0226
1156.00,0.0224
1155.00,0.0222
1154.00,0.0220
1153.00,0.0218
1152.00,0.0213
1151.00,0.0207
1150.00,0.0199
1149.00,0.0190
1148.00,0.0181
1147.00,0.0173
1146.00,0.0164
1145.00,0.0157
1144.00,0.0150
1143.00,0.0144
1142.00,0.0138
1141.00,0.0132
1140.00,0.0126
1139.00,0.0122
1138.00,0.0118
1137.00,0.0115
1136.00,0.0113
1135.00,0.0111
1134.00,0.0109
1133.00,0.0107
1132.00,0.0106
1131.00,0.0106
1130.00,0.0107
1129.00,0.0109
1128.00,0.0111
1127.00,0.0114
1126.00,0.0115
1125.00,0.0115
1124.00,0.0116
1123.00,0.0116
1122.00,0.0117
1121.00,0.0118
1120.00,0.0119
1119.00,0.0120
1118.00,0.0122
1117.00,0.0123
1116.00,0.0125
1115.00,0.0126
1114.00,0.0128
1113.00,0.0129
1112.00,0.0131
1111.00,0.0134
1110.00,0.0138
1109.00,0.0144
1108.00,0.0150
1107.00,0.0157
1106.00,0.0164
1105.00,0.0172
1104.00,0.0178
1103.00,0.0182
1102.00,0.0184
1101.00,0.0182
1100.00,0.0178
1099.00,0.0172
1098.00,0.0166
1097.00,0.0161
1096.00,0.0156
1095.00,0.0152
1094.00,0.0149
1093.00,0.0146
1092.00,0.0143
1091.00,0.0139
1090.00,0.0136
1089.00,0.0133
1088.00,0.0131
1087.00,0.0130
1086.00,0.0130
1085.00,0.0131
1084.00,0.0132
1083.00,0.0132
1082.00,0.0130
1081.00,0.0128
1080.00,0.0125
1079.00,0.0122
1078.00,0.0119
1077.00,0.0117
1076.00,0.0115
1075.00,0.0114
1074.00,0.0114
1073.00,0.0114
1072.00,0.0113
1071.00,0.0113
1070.00,0.0113
1069.00,0.0113
1068.00,0.0112
1067.00,0.0112
1066.00,0.0112
1065.00,0.0112
1064.00,0.0113
1063.00,0.0113
1062.00,0.0113
1061.00,0.0113
1060.00,0.0113
1059.00,0.0114
1058.00,0.0115
1057.00,0.0116
1056.00,0.0116
1055.00,0.0116
1054.00,0.0115
1053.00,0.0116
1052.00,0.0117
1051.00,0.0119
1050.00,0.0121
1049.00,0.0123
1048.00,0.0126
1047.00,0.0129
1046.00,0.0132
1045.00,0.0134
1044.00,0.0134
1043.00,0.0132
1042.00,0.0129
1041.00,0.0126
1040.00,0.0124
1039.00,0.0122
1038.00,0.0122
1037.00,0.0122
1036.00,0.0123
1035.00,0.0123
1034.00,0.0123
1033.00,0.0122
1032.00,0.0120
1031.00,0.0119
1030.00,0.0118
1029.00,0.0117
1028.00,0.0116
1027.00,0.0115
1026.00,0.0114
1025.00,0.0114
1024.00,0.0113
1023.00,0.0112
1022.00,0.0112
1021.00,0.0112
1020.00,0.0113
1019.00,0.0115
1018.00,0.0118
1017.00,0.0120
1016.00,0.0122
1015.00,0.0125
1014.00,0.0128
1013.00,0.0131
1012.00,0.0135
1011.00,0.0138
1010.00,0.0141
1009.00,0.0144
1008.00,0.0147
1007.00,0.0153
1006.00,0.0162
1005.00,0.0174
1004.00,0.0189
1003.00,0.0211
1002.00,0.0239
1001.00,0.0274
1000.00,0.0312
999.00,0.0343
998.00,0.0359
997.00,0.0353
996.00,0.0327
995.00,0.0290
994.00,0.0250
993.00,0.0214
992.00,0.0185
991.00,0.0164
990.00,0.0148
989.00,0.0138
988.00,0.0131
987.00,0.0128
986.00,0.0127
985.00,0.0130
984.00,0.0134
983.00,0.0142
982.00,0.0153
981.00,0.0169
980.00,0.0191
979.00,0.0220
978.00,0.0256
977.00,0.0298
976.00,0.0345
975.00,0.0388
974.00,0.0421
973.00,0.0434
972.00,0.0422
971.00,0.0387
970.00,0.0338
969.00,0.0286
968.00,0.0240
967.00,0.0203
966.00,0.0175
965.00,0.0155
964.00,0.0141
963.00,0.0131
962.00,0.0123
961.00,0.0116
960.00,0.0110
959.00,0.0106
958.00,0.0103
957.00,0.0101
956.00,0.0100
955.00,0.0098
954.00,0.0096
953.00,0.0095
952.00,0.0094
951.00,0.0094
950.00,0.0093
949.00,0.0093
948.00,0.0093
947.00,0.0094
946.00,0.0096
945.00,0.0099
944.00,0.0103
943.00,0.0107
942.00,0.0111
941.00,0.0113
940.00,0.0111
939.00,0.0108
938.00,0.0102
937.00,0.0097
936.00,0.0092
935.00,0.0088
934.00,0.0085
933.00,0.0083
932.00,0.0081
931.00,0.0079
930.00,0.0076
929.00,0.0074
928.00,0.0073
927.00,0.0073
926.00,0.0073
925.00,0.0073
924.00,0.0074
923.00,0.0074
922.00,0.0075
921.00,0.0076
920.00,0.0077
919.00,0.0077
918.00,0.0078
917.00,0.0079
916.00,0.0080
915.00,0.0081
914.00,0.0081
913.00,0.0080
912.00,0.0081
911.00,0.0082
910.00,0.0083
909.00,0.0086
908.00,0.0089
907.00,0.0095
906.00,0.0102
905.00,0.0114
904.00,0.0129
903.00,0.0149
902.00,0.0170
901.00,0.0190
900.00,0.0204
899.00,0.0207
898.00,0.0199
897.00,0.0181
896.00,0.0160
895.00,0.0140
894.00,0.0124
893.00,0.0113
892.00,0.0104
891.00,0.0098
890.00,0.0093
889.00,0.0089
888.00,0.0087
887.00,0.0085
886.00,0.0085
885.00,0.0085
884.00,0.0084
883.00,0.0084
882.00,0.0083
881.00,0.0083
880.00,0.0082
879.00,0.0083
878.00,0.0083
877.00,0.0084
876.00,0.0084
875.00,0.0084
874.00,0.0083
873.00,0.0083
872.00,0.0084
871.00,0.0085
870.00,0.0085
869.00,0.0085
868.00,0.0085
867.00,0.0085
866.00,0.0085
865.00,0.0086
864.00,0.0086
863.00,0.0087
862.00,0.0089
861.00,0.0092
860.00,0.0095
859.00,0.0097
858.00,0.0098
857.00,0.0098
856.00,0.0099
855.00,0.0100
854.00,0.0103
853.00,0.0106
852.00,0.0109
851.00,0.0112
850.00,0.0117
849.00,0.0124
848.00,0.0135
847.00,0.0151
846.00,0.0175
845.00,0.0209
844.00,0.0254
843.00,0.0303
842.00,0.0339
841.00,0.0348
840.00,0.0326
839.00,0.0283
838.00,0.0238
837.00,0.0202
836.00,0.0179
835.00,0.0164
834.00,0.0156
833.00,0.0149
832.00,0.0144
831.00,0.0141
830.00,0.0138
829.00,0.0137
828.00,0.0137
827.00,0.0136
826.00,0.0135
825.00,0.0134
824.00,0.0133
823.00,0.0132
822.00,0.0130
821.00,0.0128
820.00,0.0127
819.00,0.0129
818.00,0.0133
817.00,0.0140
816.00,0.0150
815.00,0.0161
814.00,0.0174
813.00,0.0189
812.00,0.0205
811.00,0.0221
810.00,0.0233
809.00,0.0239
808.00,0.0237
807.00,0.0227
806.00,0.0212
805.00,0.0194
804.00,0.0178
803.00,0.0165
802.00,0.0155
801.00,0.0146
800.00,0.0139
799.00,0.0132
798.00,0.0126
797.00,0.0122
796.00,0.0118
795.00,0.0114
794.00,0.0109
793.00,0.0104
792.00,0.0102
791.00,0.0101
790.00,0.0100
789.00,0.0099
788.00,0.0096
787.00,0.0093
786.00,0.0090
785.00,0.0088
784.00,0.0087
783.00,0.0085
782.00,0.0083
781.00,0.0081
780.00,0.0079
779.00,0.0078
778.00,0.0078
777.00,0.0080
776.00,0.0081
775.00,0.0083
774.00,0.0084
773.00,0.0086
772.00,0.0089
771.00,0.0093
770.00,0.0096
769.00,0.0098
768.00,0.0099
767.00,0.0098
766.00,0.0097
765.00,0.0097
764.00,0.0096
763.00,0.0094
762.00,0.0092
761.00,0.0090
760.00,0.0088
759.00,0.0086
758.00,0.0084
757.00,0.0083
756.00,0.0082
755.00,0.0082
754.00,0.0083
753.00,0.0083
752.00,0.0083
751.00,0.0082
750.00,0.0082
749.00,0.0082
748.00,0.0081
747.00,0.0081
746.00,0.0082
745.00,0.0083
744.00,0.0084
743.00,0.0085
742.00,0.0086
741.00,0.0087
740.00,0.0088
739.00,0.0090
738.00,0.0091
737.00,0.0093
736.00,0.0094
735.00,0.0097
734.00,0.0099
733.00,0.0100
732.00,0.0101
731.00,0.0101
730.00,0.0101
729.00,0.0101
728.00,0.0101
727.00,0.0101
726.00,0.0101
725.00,0.0101
724.00,0.0101
723.00,0.0101
722.00,0.0101
721.00,0.0101
720.00,0.0100
719.00,0.0099
718.00,0.0097
717.00,0.0093
716.00,0.0090
715.00,0.0087
714.00,0.0087
713.00,0.0087
712.00,0.0087
711.00,0.0086
710.00,0.0084
709.00,0.0083
708.00,0.0084
707.00,0.0084
706.00,0.0085
705.00,0.0085
704.00,0.0086
703.00,0.0087
702.00,0.0087
701.00,0.0085
700.00,0.0082
699.00,0.0079
698.00,0.0077
697.00,0.0077
696.00,0.0078
695.00,0.0079
694.00,0.0079
693.00,0.0078
692.00,0.0077
691.00,0.0077
690.00,0.0079
689.00,0.0080
688.00,0.0081
687.00,0.0080
686.00,0.0079
685.00,0.0078
684.00,0.0078
683.00,0.0078
682.00,0.0077
681.00,0.0077
680.00,0.0078
679.00,0.0079
678.00,0.0078
677.00,0.0077
676.00,0.0076
675.00,0.0076
674.00,0.0077
673.00,0.0080
672.00,0.0081
671.00,0.0082
670.00,0.0083
669.00,0.0085
668.00,0.0089
667.00,0.0091
666.00,0.0089
665.00,0.0085
664.00,0.0081
663.00,0.0077
662.00,0.0075
661.00,0.0076
660.00,0.0080
659.00,0.0083
658.00,0.0083
657.00,0.0081
656.00,0.0079
655.00,0.0076
654.00,0.0074
653.00,0.0073
652.00,0.0072
651.00,0.0072
650.00,0.0073
649.00,0.0076
648.00,0.0078
647.00,0.0079
646.00,0.0080
645.00,0.0081
644.00,0.0085
643.00,0.0087
642.00,0.0087
641.00,0.0084
640.00,0.0081
639.00,0.0079
638.00,0.0080
637.00,0.0081
636.00,0.0082
635.00,0.0084
634.00,0.0085
633.00,0.0087
632.00,0.0087
631.00,0.0088
630.00,0.0088
629.00,0.0087
628.00,0.0084
627.00,0.0081
626.00,0.0079
625.00,0.0079
624.00,0.0080
623.00,0.0082
622.00,0.0084
621.00,0.0086
620.00,0.0087
619.00,0.0086
618.00,0.0083
617.00,0.0081
616.00,0.0079
615.00,0.0078
614.00,0.0078
613.00,0.0078
612.00,0.0077
611.00,0.0077
610.00,0.0078
609.00,0.0080
608.00,0.0080
607.00,0.0079
606.00,0.0077
605.00,0.0074
604.00,0.0073
603.00,0.0074
602.00,0.0076
601.00,0.0078
600.00,0.0079
599.00,0.0080
598.00,0.0080
597.00,0.0082
596.00,0.0084
595.00,0.0086
594.00,0.0088
593.00,0.0089
592.00,0.0091
591.00,0.0093
590.00,0.0093
589.00,0.0091
588.00,0.0089
587.00,0.0088
586.00,0.0089
585.00,0.0090
584.00,0.0091
583.00,0.0092
582.00,0.0093
581.00,0.0095
580.00,0.0097
579.00,0.0096
578.00,0.0094
577.00,0.0092
576.00,0.0090
575.00,0.0088
574.00,0.0088
573.00,0.0087
572.00,0.0086
571.00,0.0086
570.00,0.0087
569.00,0.0090
568.00,0.0092
567.00,0.0092
566.00,0.0091
565.00,0.0089
564.00,0.0087
563.00,0.0085
562.00,0.0085
561.00,0.0085
560.00,0.0085
559.00,0.0083
558.00,0.0081
557.00,0.0079
556.00,0.0077
555.00,0.0073
554.00,0.0070
553.00,0.0070
552.00,0.0074
551.00,0.0079
550.00,0.0084
549.00,0.0088
548.00,0.0090
547.00,0.0090
546.00,0.0089
545.00,0.0088
544.00,0.0088
543.00,0.0089
542.00,0.0092
541.00,0.0097
540.00,0.0102
539.00,0.0104
538.00,0.0102
537.00,0.0100
536.00,0.0100
535.00,0.0103
534.00,0.0107
533.00,0.0110
532.00,0.0111
531.00,0.0111
530.00,0.0110
529.00,0.0110
528.00,0.0112
527.00,0.0113
526.00,0.0113
525.00,0.0114
524.00,0.0115
523.00,0.0114
522.00,0.0109
521.00,0.0099
520.00,0.0087
519.00,0.0079
518.00,0.0077
517.00,0.0081
516.00,0.0087
515.00,0.0092
514.00,0.0093
513.00,0.0092
512.00,0.0092
511.00,0.0095
510.00,0.0097
509.00,0.0096
508.00,0.0093
507.00,0.0091
506.00,0.0091
505.00,0.0093
504.00,0.0096
503.00,0.0098
502.00,0.0096
501.00,0.0093
500.00,0.0089
499.00,0.0086
498.00,0.0085
497.00,0.0087
496.00,0.0092
495.00,0.0099
494.00,0.0107
493.00,0.0110
492.00,0.0108
491.00,0.0100
490.00,0.0088
489.00,0.0074
488.00,0.0061
487.00,0.0053
486.00,0.0052
485.00,0.0058
484.00,0.0070
483.00,0.0087
482.00,0.0104
481.00,0.0115
480.00,0.0117
479.00,0.0111
478.00,0.0102
477.00,0.0096
476.00,0.0095
475.00,0.0100
474.00,0.0110
473.00,0.0122
472.00,0.0129
471.00,0.0128
470.00,0.0120
469.00,0.0110
468.00,0.0105
467.00,0.0107
466.00,0.0116
465.00,0.0129
464.00,0.0141
463.00,0.0152
462.00,0.0163
461.00,0.0178
460.00,0.0196
459.00,0.0211
458.00,0.0213
457.00,0.0204
456.00,0.0189
455.00,0.0176
454.00,0.0163
453.00,0.0148
452.00,0.0132
451.00,0.0120
450.00,0.0113
