Created as New Dataset,Sample 094 By Administrator Date Tuesday, September 09 2025
cm-1,A
4000.00,0.0012
3999.00,0.0012
3998.00,0.0012
3997.00,0.0012
3996.00,0.0012
3995.00,0.0012
3994.00,0.0012
3993.00,0.0012
3992.00,0.0012
3991.00,0.0012
3990.00,0.0012
3989.00,0.0012
3988.00,0.0012
3987.00,0.0011
3986.00,0.0011
3985.00,0.0011
3984.00,0.0011
3983.00,0.0011
3982.00,0.0011
3981.00,0.0011
3980.00,0.0011
3979.00,0.0011
3978.00,0.0012
3977.00,0.0012
3976.00,0.0012
3975.00,0.0012
3974.00,0.0011
3973.00,0.0011
3972.00,0.0011
3971.00,0.0010
3970.00,0.0010
3969.00,0.0010
3968.00,0.0010
3967.00,0.0010
3966.00,0.0010
3965.00,0.0010
3964.00,0.0011
3963.00,0.0011
3962.00,0.0011
3961.00,0.0010
3960.00,0.0010
3959.00,0.0010
3958.00,0.0011
3957.00,0.0011
3956.00,0.0011
3955.00,0.0010
3954.00,0.0010
3953.00,0.0010
3952.00,0.0010
3951.00,0.0010
3950.00,0.0009
3949.00,0.0009
3948.00,0.0009
3947.00,0.0009
3946.00,0.0009
3945.00,0.0009
3944.00,0.0010
3943.00,0.0010
3942.00,0.0010
3941.00,0.0010
3940.00,0.0011
3939.00,0.0011
3938.00,0.0011
3937.00,0.0011
3936.00,0.0011
3935.00,0.0011
3934.00,0.0010
3933.00,0.0010
3932.00,0.0010
3931.00,0.0009
3930.00,0.0009
3929.00,0.0009
3928.00,0.0009
3927.00,0.0009
3926.00,0.0009
3925.00,0.0009
3924.00,0.0009
3923.00,0.0009
3922.00,0.0010
3921.00,0.0010
3920.00,0.0010
3919.00,0.0010
3918.00,0.0009
3917.00,0.0009
3916.00,0.0009
3915.00,0.0009
3914.00,0.0008
3913.00,0.0008
3912.00,0.0009
3911.00,0.0009
3910.00,0.0009
3909.00,0.0010
3908.00,0.0010
3907.00,0.0010
3906.00,0.0010
3905.00,0.0010
3904.00,0.0011
3903.00,0.0011
3902.00,0.0011
3901.00,0.0011
3900.00,0.0010
3899.00,0.0010
3898.00,0.0010
3897.00,0.0010
3896.00,0.0010
3895.00,0.0010
3894.00,0.0011
3893.00,0.0011
3892.00,0.0011
3891.00,0.0010
3890.00,0.0010
3889.00,0.0009
3888.00,0.0009
3887.00,0.0009
3886.00,0.0009
3885.00,0.0009
3884.00,0.0009
3883.00,0.0009
3882.00,0.0009
3881.00,0.0010
3880.00,0.0010
3879.00,0.0010
3878.00,0.0010
3877.00,0.0010
3876.00,0.0010
3875.00,0.0010
3874.00,0.0010
3873.00,0.0010
3872.00,0.0010
3871.00,0.0010
3870.00,0.0009
3869.00,0.0009
3868.00,0.0009
3867.00,0.0010
3866.00,0.0009
3865.00,0.0009
3864.00,0.0009
3863.00,0.0009
3862.00,0.0008
3861.00,0.0009
3860.00,0.0009
3859.00,0.0009
3858.00,0.0009
3857.00,0.0009
3856.00,0.0009
3855.00,0.0009
3854.00,0.0008
3853.00,0.0008
3852.00,0.0008
3851.00,0.0008
3850.00,0.0008
3849.00,0.0008
3848.00,0.0008
3847.00,0.0009
3846.00,0.0009
3845.00,0.0010
3844.00,0.0010
3843.00,0.0010
3842.00,0.0010
3841.00,0.0009
3840.00,0.0008
3839.00,0.0008
3838.00,0.0008
3837.00,0.0009
3836.00,0.0009
3835.00,0.0010
3834.00,0.0010
3833.00,0.0010
3832.00,0.0010
3831.00,0.0011
3830.00,0.0011
3829.00,0.0011
3828.00,0.0010
3827.00,0.0010
3826.00,0.0009
3825.00,0.0009
3824.00,0.0009
3823.00,0.0010
3822.00,0.0010
3821.00,0.0010
3820.00,0.0009
3819.00,0.0009
3818.00,0.0009
3817.00,0.0009
3816.00,0.0009
3815.00,0.0009
3814.00,0.0009
3813.00,0.0009
3812.00,0.0009
3811.00,0.0009
3810.00,0.0009
3809.00,0.0009
3808.00,0.0009
3807.00,0.0008
3806.00,0.0008
3805.00,0.0008
3804.00,0.0008
3803.00,0.0009
3802.00,0.0009
3801.00,0.0009
3800.00,0.0009
3799.00,0.0009
3798.00,0.0008
3797.00,0.0008
3796.00,0.0008
3795.00,0.0008
3794.00,0.0008
3793.00,0.0009
3792.00,0.0009
3791.00,0.0009
3790.00,0.0009
3789.00,0.0010
3788.00,0.0010
3787.00,0.0010
3786.00,0.0010
3785.00,0.0010
3784.00,0.0010
3783.00,0.0010
3782.00,0.0010
3781.00,0.0009
3780.00,0.0009
3779.00,0.0009
3778.00,0.0009
3777.00,0.0009
3776.00,0.0009
3775.00,0.0009
3774.00,0.0010
3773.00,0.0010
3772.00,0.0010
3771.00,0.0010
3770.00,0.0010
3769.00,0.0010
3768.00,0.0010
3767.00,0.0009
3766.00,0.0009
3765.00,0.0009
3764.00,0.0009
3763.00,0.0009
3762.00,0.0010
3761.00,0.0010
3760.00,0.0010
3759.00,0.0009
3758.00,0.0009
3757.00,0.0009
3756.00,0.0010
3755.00,0.0010
3754.00,0.0011
3753.00,0.0011
3752.00,0.0011
3751.00,0.0010
3750.00,0.0009
3749.00,0.0009
3748.00,0.0009
3747.00,0.0009
3746.00,0.0009
3745.00,0.0010
3744.00,0.0010
3743.00,0.0010
3742.00,0.0009
3741.00,0.0009
3740.00,0.0009
3739.00,0.0009
3738.00,0.0009
3737.00,0.0008
3736.00,0.0008
3735.00,0.0008
3734.00,0.0008
3733.00,0.0008
3732.00,0.0008
3731.00,0.0008
3730.00,0.0008
3729.00,0.0009
3728.00,0.0009
3727.00,0.0010
3726.00,0.0010
3725.00,0.0010
3724.00,0.0010
3723.00,0.0009
3722.00,0.0009
3721.00,0.0008
3720.00,0.0008
3719.00,0.0008
3718.00,0.0008
3717.00,0.0008
3716.00,0.0008
3715.00,0.0009
3714.00,0.0009
3713.00,0.0009
3712.00,0.0009
3711.00,0.0008
3710.00,0.0008
3709.00,0.0008
3708.00,0.0007
3707.00,0.0007
3706.00,0.0007
3705.00,0.0008
3704.00,0.0008
3703.00,0.0008
3702.00,0.0008
3701.00,0.0008
3700.00,0.0008
3699.00,0.0008
3698.00,0.0008
3697.00,0.0008
3696.00,0.0008
3695.00,0.0008
3694.00,0.0008
3693.00,0.0008
3692.00,0.0008
3691.00,0.0008
3690.00,0.0008
3689.00,0.0008
3688.00,0.0008
3687.00,0.0008
3686.00,0.0008
3685.00,0.0009
3684.00,0.0009
3683.00,0.0009
3682.00,0.0010
3681.00,0.0010
3680.00,0.0010
3679.00,0.0009
3678.00,0.0009
3677.00,0.0009
3676.00,0.0009
3675.00,0.0009
3674.00,0.0009
3673.00,0.0009
3672.00,0.0009
3671.00,0.0009
3670.00,0.0009
3669.00,0.0009
3668.00,0.0009
3667.00,0.0009
3666.00,0.0009
3665.00,0.0009
3664.00,0.0009
3663.00,0.0009
3662.00,0.0009
3661.00,0.0009
3660.00,0.0009
3659.00,0.0009
3658.00,0.0009
3657.00,0.0009
3656.00,0.0009
3655.00,0.0009
3654.00,0.0009
3653.00,0.0009
3652.00,0.0009
3651.00,0.0009
3650.00,0.0009
3649.00,0.0009
3648.00,0.0010
3647.00,0.0010
3646.00,0.0011
3645.00,0.0011
3644.00,0.0011
3643.00,0.0012
3642.00,0.0012
3641.00,0.0012
3640.00,0.0013
3639.00,0.0013
3638.00,0.0013
3637.00,0.0013
3636.00,0.0014
3635.00,0.0014
3634.00,0.0014
3633.00,0.0014
3632.00,0.0014
3631.00,0.0014
3630.00,0.0014
3629.00,0.0015
3628.00,0.0015
3627.00,0.0015
3626.00,0.0015
3625.00,0.0015
3624.00,0.0016
3623.00,0.0016
3622.00,0.0016
3621.00,0.0016
3620.00,0.0017
3619.00,0.0017
3618.00,0.0018
3617.00,0.0018
3616.00,0.0018
3615.00,0.0018
3614.00,0.0018
3613.00,0.0018
3612.00,0.0019
3611.00,0.0019
3610.00,0.0020
3609.00,0.0021
3608.00,0.0021
3607.00,0.0021
3606.00,0.0022
3605.00,0.0022
3604.00,0.0022
3603.00,0.0022
3602.00,0.0022
3601.00,0.0022
3600.00,0.0022
3599.00,0.0022
3598.00,0.0023
3597.00,0.0023
3596.00,0.0023
3595.00,0.0024
3594.00,0.0024
3593.00,0.0024
3592.00,0.0025
3591.00,0.0026
3590.00,0.0026
3589.00,0.0026
3588.00,0.0027
3587.00,0.0027
3586.00,0.0028
3585.00,0.0028
3584.00,0.0029
3583.00,0.0029
3582.00,0.0029
3581.00,0.0030
3580.00,0.0030
3579.00,0.0031
3578.00,0.0031
3577.00,0.0032
3576.00,0.0032
3575.00,0.0032
3574.00,0.0032
3573.00,0.0032
3572.00,0.0032
3571.00,0.0033
3570.00,0.0034
3569.00,0.0035
3568.00,0.0035
3567.00,0.0036
3566.00,0.0036
3565.00,0.0036
3564.00,0.0036
3563.00,0.0036
3562.00,0.0037
3561.00,0.0038
3560.00,0.0038
3559.00,0.0039
3558.00,0.0039
3557.00,0.0040
3556.00,0.0040
3555.00,0.0041
3554.00,0.0041
3553.00,0.0041
3552.00,0.0041
3551.00,0.0042
3550.00,0.0042
3549.00,0.0042
3548.00,0.0043
3547.00,0.0044
3546.00,0.0045
3545.00,0.0045
3544.00,0.0046
3543.00,0.0046
3542.00,0.0046
3541.00,0.0047
3540.00,0.0048
3539.00,0.0048
3538.00,0.0048
3537.00,0.0048
3536.00,0.0048
3535.00,0.0048
3534.00,0.0049
3533.00,0.0049
3532.00,0.0049
3531.00,0.0050
3530.00,0.0051
3529.00,0.0051
3528.00,0.0052
3527.00,0.0052
3526.00,0.0053
3525.00,0.0053
3524.00,0.0053
3523.00,0.0054
3522.00,0.0054
3521.00,0.0055
3520.00,0.0056
3519.00,0.0056
3518.00,0.0057
3517.00,0.0057
3516.00,0.0057
3515.00,0.0057
3514.00,0.0057
3513.00,0.0058
3512.00,0.0058
3511.00,0.0059
3510.00,0.0059
3509.00,0.0060
3508.00,0.0061
3507.00,0.0061
3506.00,0.0061
3505.00,0.0062
3504.00,0.0062
3503.00,0.0062
3502.00,0.0063
3501.00,0.0063
3500.00,0.0063
3499.00,0.0063
3498.00,0.0063
3497.00,0.0064
3496.00,0.0064
3495.00,0.0065
3494.00,0.0065
3493.00,0.0066
3492.00,0.0066
3491.00,0.0067
3490.00,0.0067
3489.00,0.0067
3488.00,0.0067
3487.00,0.0067
3486.00,0.0067
3485.00,0.0068
3484.00,0.0068
3483.00,0.0069
3482.00,0.0070
3481.00,0.0070
3480.00,0.0070
3479.00,0.0071
3478.00,0.0071
3477.00,0.0072
3476.00,0.0072
3475.00,0.0073
3474.00,0.0074
3473.00,0.0074
3472.00,0.0074
3471.00,0.0073
3470.00,0.0073
3469.00,0.0073
3468.00,0.0073
3467.00,0.0073
3466.00,0.0074
3465.00,0.0074
3464.00,0.0075
3463.00,0.0075
3462.00,0.0076
3461.00,0.0077
3460.00,0.0077
3459.00,0.0077
3458.00,0.0077
3457.00,0.0077
3456.00,0.0078
3455.00,0.0078
3454.00,0.0078
3453.00,0.0078
3452.00,0.0079
3451.00,0.0079
3450.00,0.0079
3449.00,0.0080
3448.00,0.0080
3447.00,0.0080
3446.00,0.0080
3445.00,0.0081
3444.00,0.0081
3443.00,0.0081
3442.00,0.0081
3441.00,0.0082
3440.00,0.0082
3439.00,0.0082
3438.00,0.0082
3437.00,0.0082
3436.00,0.0083
3435.00,0.0083
3434.00,0.0084
3433.00,0.0084
3432.00,0.0085
3431.00,0.0085
3430.00,0.0085
3429.00,0.0085
3428.00,0.0085
3427.00,0.0085
3426.00,0.0086
3425.00,0.0086
3424.00,0.0086
3423.00,0.0086
3422.00,0.0086
3421.00,0.0086
3420.00,0.0086
3419.00,0.0087
3418.00,0.0087
3417.00,0.0088
3416.00,0.0088
3415.00,0.0089
3414.00,0.0089
3413.00,0.0089
3412.00,0.0089
3411.00,0.0088
3410.00,0.0088
3409.00,0.0088
3408.00,0.0089
3407.00,0.0089
3406.00,0.0089
3405.00,0.0090
3404.00,0.0090
3403.00,0.0090
3402.00,0.0090
3401.00,0.0090
3400.00,0.0090
3399.00,0.0090
3398.00,0.0091
3397.00,0.0091
3396.00,0.0091
3395.00,0.0091
3394.00,0.0090
3393.00,0.0090
3392.00,0.0090
3391.00,0.0090
3390.00,0.0090
3389.00,0.0090
3388.00,0.0090
3387.00,0.0090
3386.00,0.0090
3385.00,0.0090
3384.00,0.0090
3383.00,0.0090
3382.00,0.0090
3381.00,0.0090
3380.00,0.0090
3379.00,0.0090
3378.00,0.0090
3377.00,0.0090
3376.00,0.0091
3375.00,0.0091
3374.00,0.0091
3373.00,0.0092
3372.00,0.0092
3371.00,0.0091
3370.00,0.0091
3369.00,0.0091
3368.00,0.0091
3367.00,0.0091
3366.00,0.0091
3365.00,0.0091
3364.00,0.0091
3363.00,0.0091
3362.00,0.0091
3361.00,0.0091
3360.00,0.0091
3359.00,0.0091
3358.00,0.0091
3357.00,0.0091
3356.00,0.0091
3355.00,0.0091
3354.00,0.0091
3353.00,0.0091
3352.00,0.0091
3351.00,0.0091
3350.00,0.0091
3349.00,0.0091
3348.00,0.0091
3347.00,0.0091
3346.00,0.0090
3345.00,0.0090
3344.00,0.0090
3343.00,0.0090
3342.00,0.0091
3341.00,0.0090
3340.00,0.0090
3339.00,0.0089
3338.00,0.0089
3337.00,0.0088
3336.00,0.0088
3335.00,0.0088
3334.00,0.0088
3333.00,0.0088
3332.00,0.0088
3331.00,0.0088
3330.00,0.0087
3329.00,0.0087
3328.00,0.0087
3327.00,0.0086
3326.00,0.0086
3325.00,0.0087
3324.00,0.0087
3323.00,0.0086
3322.00,0.0086
3321.00,0.0085
3320.00,0.0085
3319.00,0.0085
3318.00,0.0085
3317.00,0.0085
3316.00,0.0085
3315.00,0.0085
3314.00,0.0085
3313.00,0.0085
3312.00,0.0085
3311.00,0.0084
3310.00,0.0084
3309.00,0.0083
3308.00,0.0083
3307.00,0.0082
3306.00,0.0082
3305.00,0.0082
3304.00,0.0082
3303.00,0.0082
3302.00,0.0083
3301.00,0.0083
3300.00,0.0083
3299.00,0.0083
3298.00,0.0083
3297.00,0.0083
3296.00,0.0083
3295.00,0.0083
3294.00,0.0082
3293.00,0.0082
3292.00,0.0082
3291.00,0.0082
3290.00,0.0081
3289.00,0.0081
3288.00,0.0081
3287.00,0.0081
3286.00,0.0080
3285.00,0.0080
3284.00,0.0080
3283.00,0.0080
3282.00,0.0080
3281.00,0.0080
3280.00,0.0079
3279.00,0.0079
3278.00,0.0078
3277.00,0.0078
3276.00,0.0078
3275.00,0.0078
3274.00,0.0078
3273.00,0.0078
3272.00,0.0077
3271.00,0.0077
3270.00,0.0076
3269.00,0.0076
3268.00,0.0076
3267.00,0.0076
3266.00,0.0075
3265.00,0.0075
3264.00,0.0075
3263.00,0.0075
3262.00,0.0075
3261.00,0.0075
3260.00,0.0075
3259.00,0.0074
3258.00,0.0073
3257.00,0.0073
3256.00,0.0072
3255.00,0.0072
3254.00,0.0071
3253.00,0.0071
3252.00,0.0071
3251.00,0.0071
3250.00,0.0071
3249.00,0.0071
3248.00,0.0070
3247.00,0.0070
3246.00,0.0070
3245.00,0.0069
3244.00,0.0069
3243.00,0.0069
3242.00,0.0069
3241.00,0.0069
3240.00,0.0069
3239.00,0.0068
3238.00,0.0068
3237.00,0.0068
3236.00,0.0068
3235.00,0.0068
3234.00,0.0067
3233.00,0.0067
3232.00,0.0068
3231.00,0.0068
3230.00,0.0068
3229.00,0.0068
3228.00,0.0068
3227.00,0.0069
3226.00,0.0069
3225.00,0.0069
3224.00,0.0069
3223.00,0.0069
3222.00,0.0069
3221.00,0.0069
3220.00,0.0069
3219.00,0.0068
3218.00,0.0068
3217.00,0.0068
3216.00,0.0068
3215.00,0.0068
3214.00,0.0068
3213.00,0.0068
3212.00,0.0068
3211.00,0.0069
3210.00,0.0069
3209.00,0.0069
3208.00,0.0069
3207.00,0.0069
3206.00,0.0068
3205.00,0.0068
3204.00,0.0068
3203.00,0.0068
3202.00,0.0068
3201.00,0.0068
3200.00,0.0068
3199.00,0.0068
3198.00,0.0068
3197.00,0.0068
3196.00,0.0067
3195.00,0.0067
3194.00,0.0067
3193.00,0.0067
3192.00,0.0066
3191.00,0.0066
3190.00,0.0066
3189.00,0.0066
3188.00,0.0065
3187.00,0.0065
3186.00,0.0065
3185.00,0.0065
3184.00,0.0064
3183.00,0.0064
3182.00,0.0063
3181.00,0.0063
3180.00,0.0062
3179.00,0.0062
3178.00,0.0062
3177.00,0.0062
3176.00,0.0061
3175.00,0.0061
3174.00,0.0061
3173.00,0.0061
3172.00,0.0060
3171.00,0.0060
3170.00,0.0060
3169.00,0.0060
3168.00,0.0060
3167.00,0.0059
3166.00,0.0059
3165.00,0.0059
3164.00,0.0059
3163.00,0.0059
3162.00,0.0059
3161.00,0.0058
3160.00,0.0058
3159.00,0.0058
3158.00,0.0058
3157.00,0.0058
3156.00,0.0058
3155.00,0.0058
3154.00,0.0058
3153.00,0.0058
3152.00,0.0057
3151.00,0.0057
3150.00,0.0056
3149.00,0.0057
3148.00,0.0057
3147.00,0.0057
3146.00,0.0057
3145.00,0.0056
3144.00,0.0056
3143.00,0.0055
3142.00,0.0055
3141.00,0.0055
3140.00,0.0055
3139.00,0.0055
3138.00,0.0055
3137.00,0.0054
3136.00,0.0054
3135.00,0.0053
3134.00,0.0053
3133.00,0.0052
3132.00,0.0052
3131.00,0.0051
3130.00,0.0051
3129.00,0.0051
3128.00,0.0051
3127.00,0.0051
3126.00,0.0051
3125.00,0.0051
3124.00,0.0050
3123.00,0.0050
3122.00,0.0049
3121.00,0.0049
3120.00,0.0048
3119.00,0.0048
3118.00,0.0048
3117.00,0.0048
3116.00,0.0047
3115.00,0.0047
3114.00,0.0047
3113.00,0.0047
3112.00,0.0046
3111.00,0.0046
3110.00,0.0046
3109.00,0.0046
3108.00,0.0046
3107.00,0.0046
3106.00,0.0046
3105.00,0.0046
3104.00,0.0046
3103.00,0.0045
3102.00,0.0045
3101.00,0.0044
3100.00,0.0044
3099.00,0.0045
3098.00,0.0045
3097.00,0.0045
3096.00,0.0045
3095.00,0.0045
3094.00,0.0044
3093.00,0.0044
3092.00,0.0044
3091.00,0.0044
3090.00,0.0044
3089.00,0.0044
3088.00,0.0044
3087.00,0.0043
3086.00,0.0043
3085.00,0.0043
3084.00,0.0043
3083.00,0.0042
3082.00,0.0042
3081.00,0.0042
3080.00,0.0042
3079.00,0.0043
3078.00,0.0043
3077.00,0.0043
3076.00,0.0043
3075.00,0.0043
3074.00,0.0043
3073.00,0.0043
3072.00,0.0043
3071.00,0.0043
3070.00,0.0043
3069.00,0.0044
3068.00,0.0044
3067.00,0.0044
3066.00,0.0044
3065.00,0.0044
3064.00,0.0045
3063.00,0.0045
3062.00,0.0044
3061.00,0.0044
3060.00,0.0044
3059.00,0.0044
3058.00,0.0044
3057.00,0.0044
3056.00,0.0044
3055.00,0.0044
3054.00,0.0044
3053.00,0.0045
3052.00,0.0045
3051.00,0.0045
3050.00,0.0046
3049.00,0.0046
3048.00,0.0046
3047.00,0.0046
3046.00,0.0046
3045.00,0.0046
3044.00,0.0046
3043.00,0.0046
3042.00,0.0047
3041.00,0.0047
3040.00,0.0047
3039.00,0.0048
3038.00,0.0048
3037.00,0.0048
3036.00,0.0049
3035.00,0.0049
3034.00,0.0049
3033.00,0.0049
3032.00,0.0050
3031.00,0.0050
3030.00,0.0050
3029.00,0.0051
3028.00,0.0051
3027.00,0.0052
3026.00,0.0053
3025.00,0.0053
3024.00,0.0054
3023.00,0.0054
3022.00,0.0054
3021.00,0.0055
3020.00,0.0056
3019.00,0.0057
3018.00,0.0057
3017.00,0.0058
3016.00,0.0059
3015.00,0.0060
3014.00,0.0061
3013.00,0.0061
3012.00,0.0062
3011.00,0.0063
3010.00,0.0064
3009.00,0.0065
3008.00,0.0066
3007.00,0.0067
3006.00,0.0068
3005.00,0.0070
3004.00,0.0071
3003.00,0.0073
3002.00,0.0075
3001.00,0.0077
3000.00,0.0079
2999.00,0.0081
2998.00,0.0084
2997.00,0.0088
2996.00,0.0091
2995.00,0.0095
2994.00,0.0100
2993.00,0.0104
2992.00,0.0110
2991.00,0.0115
2990.00,0.0121
2989.00,0.0128
2988.00,0.0136
2987.00,0.0145
2986.00,0.0154
2985.00,0.0164
2984.00,0.0175
2983.00,0.0188
2982.00,0.0203
2981.00,0.0221
2980.00,0.0242
2979.00,0.0267
2978.00,0.0294
2977.00,0.0325
2976.00,0.0360
2975.00,0.0399
2974.00,0.0443
2973.00,0.0493
2972.00,0.0550
2971.00,0.0614
2970.00,0.0687
2969.00,0.0767
2968.00,0.0857
2967.00,0.0953
2966.00,0.1058
2965.00,0.1167
2964.00,0.1279
2963.00,0.1389
2962.00,0.1493
2961.00,0.1587
2960.00,0.1665
2959.00,0.1726
2958.00,0.1770
2957.00,0.1803
2956.00,0.1828
2955.00,0.1851
2954.00,0.1876
2953.00,0.1902
2952.00,0.1925
2951.00,0.1938
2950.00,0.1931
2949.00,0.1898
2948.00,0.1833
2947.00,0.1738
2946.00,0.1623
2945.00,0.1497
2944.00,0.1374
2943.00,0.1264
2942.00,0.1176
2941.00,0.1111
2940.00,0.1071
2939.00,0.1053
2938.00,0.1056
2937.00,0.1076
2936.00,0.1112
2935.00,0.1162
2934.00,0.1225
2933.00,0.1299
2932.00,0.1382
2931.00,0.1473
2930.00,0.1567
2929.00,0.1663
2928.00,0.1757
2927.00,0.1846
2926.00,0.1930
2925.00,0.2007
2924.00,0.2081
2923.00,0.2151
2922.00,0.2217
2921.00,0.2280
2920.00,0.2334
2919.00,0.2375
2918.00,0.2397
2917.00,0.2395
2916.00,0.2368
2915.00,0.2319
2914.00,0.2253
2913.00,0.2179
2912.00,0.2104
2911.00,0.2032
2910.00,0.1965
2909.00,0.1905
2908.00,0.1848
2907.00,0.1792
2906.00,0.1736
2905.00,0.1677
2904.00,0.1615
2903.00,0.1551
2902.00,0.1485
2901.00,0.1419
2900.00,0.1354
2899.00,0.1292
2898.00,0.1234
2897.00,0.1182
2896.00,0.1135
2895.00,0.1095
2894.00,0.1062
2893.00,0.1036
2892.00,0.1017
2891.00,0.1004
2890.00,0.0996
2889.00,0.0993
2888.00,0.0994
2887.00,0.0999
2886.00,0.1007
2885.00,0.1019
2884.00,0.1035
2883.00,0.1054
2882.00,0.1078
2881.00,0.1104
2880.00,0.1129
2879.00,0.1150
2878.00,0.1164
2877.00,0.1170
2876.00,0.1166
2875.00,0.1158
2874.00,0.1150
2873.00,0.1146
2872.00,0.1150
2871.00,0.1160
2870.00,0.1176
2869.00,0.1193
2868.00,0.1203
2867.00,0.1201
2866.00,0.1178
2865.00,0.1133
2864.00,0.1067
2863.00,0.0989
2862.00,0.0907
2861.00,0.0830
2860.00,0.0764
2859.00,0.0710
2858.00,0.0670
2857.00,0.0641
2856.00,0.0623
2855.00,0.0612
2854.00,0.0609
2853.00,0.0611
2852.00,0.0619
2851.00,0.0632
2850.00,0.0651
2849.00,0.0674
2848.00,0.0704
2847.00,0.0741
2846.00,0.0787
2845.00,0.0842
2844.00,0.0906
2843.00,0.0977
2842.00,0.1052
2841.00,0.1124
2840.00,0.1186
2839.00,0.1228
2838.00,0.1241
2837.00,0.1220
2836.00,0.1163
2835.00,0.1077
2834.00,0.0972
2833.00,0.0860
2832.00,0.0752
2831.00,0.0656
2830.00,0.0574
2829.00,0.0508
2828.00,0.0454
2827.00,0.0410
2826.00,0.0375
2825.00,0.0345
2824.00,0.0321
2823.00,0.0300
2822.00,0.0283
2821.00,0.0267
2820.00,0.0254
2819.00,0.0242
2818.00,0.0232
2817.00,0.0223
2816.00,0.0215
2815.00,0.0208
2814.00,0.0202
2813.00,0.0197
2812.00,0.0192
2811.00,0.0187
2810.00,0.0181
2809.00,0.0176
2808.00,0.0171
2807.00,0.0165
2806.00,0.0159
2805.00,0.0152
2804.00,0.0146
2803.00,0.0140
2802.00,0.0134
2801.00,0.0130
2800.00,0.0126
2799.00,0.0122
2798.00,0.0120
2797.00,0.0118
2796.00,0.0116
2795.00,0.0113
2794.00,0.0111
2793.00,0.0108
2792.00,0.0104
2791.00,0.0101
2790.00,0.0097
2789.00,0.0094
2788.00,0.0090
2787.00,0.0087
2786.00,0.0084
2785.00,0.0081
2784.00,0.0079
2783.00,0.0077
2782.00,0.0075
2781.00,0.0073
2780.00,0.0071
2779.00,0.0069
2778.00,0.0067
2777.00,0.0066
2776.00,0.0065
2775.00,0.0064
2774.00,0.0063
2773.00,0.0063
2772.00,0.0062
2771.00,0.0062
2770.00,0.0061
2769.00,0.0061
2768.00,0.0060
2767.00,0.0060
2766.00,0.0060
2765.00,0.0059
2764.00,0.0059
2763.00,0.0059
2762.00,0.0058
2761.00,0.0058
2760.00,0.0057
2759.00,0.0057
2758.00,0.0057
2757.00,0.0057
2756.00,0.0057
2755.00,0.0057
2754.00,0.0056
2753.00,0.0056
2752.00,0.0056
2751.00,0.0056
2750.00,0.0055
2749.00,0.0055
2748.00,0.0055
2747.00,0.0055
2746.00,0.0056
2745.00,0.0057
2744.00,0.0058
2743.00,0.0058
2742.00,0.0059
2741.00,0.0061
2740.00,0.0062
2739.00,0.0063
2738.00,0.0065
2737.00,0.0066
2736.00,0.0067
2735.00,0.0069
2734.00,0.0070
2733.00,0.0071
2732.00,0.0073
2731.00,0.0075
2730.00,0.0077
2729.00,0.0079
2728.00,0.0082
2727.00,0.0084
2726.00,0.0087
2725.00,0.0089
2724.00,0.0091
2723.00,0.0091
2722.00,0.0090
2721.00,0.0089
2720.00,0.0086
2719.00,0.0083
2718.00,0.0080
2717.00,0.0077
2716.00,0.0074
2715.00,0.0071
2714.00,0.0069
2713.00,0.0067
2712.00,0.0064
2711.00,0.0062
2710.00,0.0060
2709.00,0.0059
2708.00,0.0058
2707.00,0.0057
2706.00,0.0055
2705.00,0.0054
2704.00,0.0053
2703.00,0.0053
2702.00,0.0052
2701.00,0.0051
2700.00,0.0050
2699.00,0.0049
2698.00,0.0049
2697.00,0.0049
2696.00,0.0048
2695.00,0.0048
2694.00,0.0048
2693.00,0.0049
2692.00,0.0049
2691.00,0.0049
2690.00,0.0048
2689.00,0.0048
2688.00,0.0048
2687.00,0.0048
2686.00,0.0048
2685.00,0.0049
2684.00,0.0049
2683.00,0.0049
2682.00,0.0049
2681.00,0.0049
2680.00,0.0049
2679.00,0.0049
2678.00,0.0049
2677.00,0.0049
2676.00,0.0049
2675.00,0.0048
2674.00,0.0048
2673.00,0.0047
2672.00,0.0047
2671.00,0.0047
2670.00,0.0047
2669.00,0.0047
2668.00,0.0047
2667.00,0.0048
2666.00,0.0048
2665.00,0.0048
2664.00,0.0049
2663.00,0.0050
2662.00,0.0050
2661.00,0.0050
2660.00,0.0051
2659.00,0.0051
2658.00,0.0050
2657.00,0.0050
2656.00,0.0050
2655.00,0.0049
2654.00,0.0049
2653.00,0.0048
2652.00,0.0047
2651.00,0.0046
2650.00,0.0046
2649.00,0.0045
2648.00,0.0045
2647.00,0.0045
2646.00,0.0044
2645.00,0.0044
2644.00,0.0043
2643.00,0.0043
2642.00,0.0042
2641.00,0.0042
2640.00,0.0042
2639.00,0.0042
2638.00,0.0042
2637.00,0.0042
2636.00,0.0042
2635.00,0.0042
2634.00,0.0042
2633.00,0.0041
2632.00,0.0041
2631.00,0.0041
2630.00,0.0041
2629.00,0.0042
2628.00,0.0042
2627.00,0.0042
2626.00,0.0042
2625.00,0.0042
2624.00,0.0042
2623.00,0.0043
2622.00,0.0043
2621.00,0.0043
2620.00,0.0043
2619.00,0.0043
2618.00,0.0043
2617.00,0.0043
2616.00,0.0043
2615.00,0.0043
2614.00,0.0042
2613.00,0.0042
2612.00,0.0041
2611.00,0.0041
2610.00,0.0040
2609.00,0.0040
2608.00,0.0039
2607.00,0.0038
2606.00,0.0037
2605.00,0.0036
2604.00,0.0036
2603.00,0.0035
2602.00,0.0034
2601.00,0.0034
2600.00,0.0034
2599.00,0.0035
2598.00,0.0035
2597.00,0.0035
2596.00,0.0035
2595.00,0.0035
2594.00,0.0035
2593.00,0.0035
2592.00,0.0035
2591.00,0.0035
2590.00,0.0036
2589.00,0.0037
2588.00,0.0038
2587.00,0.0040
2586.00,0.0041
2585.00,0.0042
2584.00,0.0043
2583.00,0.0043
2582.00,0.0043
2581.00,0.0042
2580.00,0.0041
2579.00,0.0039
2578.00,0.0038
2577.00,0.0038
2576.00,0.0037
2575.00,0.0037
2574.00,0.0036
2573.00,0.0035
2572.00,0.0034
2571.00,0.0033
2570.00,0.0032
2569.00,0.0032
2568.00,0.0031
2567.00,0.0030
2566.00,0.0030
2565.00,0.0029
2564.00,0.0028
2563.00,0.0028
2562.00,0.0027
2561.00,0.0028
2560.00,0.0028
2559.00,0.0028
2558.00,0.0027
2557.00,0.0027
2556.00,0.0027
2555.00,0.0026
2554.00,0.0026
2553.00,0.0025
2552.00,0.0025
2551.00,0.0025
2550.00,0.0025
2549.00,0.0024
2548.00,0.0023
2547.00,0.0023
2546.00,0.0022
2545.00,0.0022
2544.00,0.0022
2543.00,0.0021
2542.00,0.0021
2541.00,0.0021
2540.00,0.0020
2539.00,0.0020
2538.00,0.0019
2537.00,0.0019
2536.00,0.0019
2535.00,0.0019
2534.00,0.0019
2533.00,0.0019
2532.00,0.0019
2531.00,0.0019
2530.00,0.0019
2529.00,0.0018
2528.00,0.0017
2527.00,0.0017
2526.00,0.0017
2525.00,0.0017
2524.00,0.0017
2523.00,0.0016
2522.00,0.0016
2521.00,0.0016
2520.00,0.0017
2519.00,0.0017
2518.00,0.0017
2517.00,0.0017
2516.00,0.0016
2515.00,0.0016
2514.00,0.0015
2513.00,0.0015
2512.00,0.0014
2511.00,0.0014
2510.00,0.0013
2509.00,0.0013
2508.00,0.0014
2507.00,0.0014
2506.00,0.0015
2505.00,0.0015
2504.00,0.0015
2503.00,0.0014
2502.00,0.0014
2501.00,0.0014
2500.00,0.0014
2499.00,0.0015
2498.00,0.0015
2497.00,0.0014
2496.00,0.0014
2495.00,0.0013
2494.00,0.0013
2493.00,0.0013
2492.00,0.0012
2491.00,0.0012
2490.00,0.0012
2489.00,0.0013
2488.00,0.0014
2487.00,0.0015
2486.00,0.0015
2485.00,0.0014
2484.00,0.0014
2483.00,0.0013
2482.00,0.0013
2481.00,0.0013
2480.00,0.0013
2479.00,0.0013
2478.00,0.0013
2477.00,0.0012
2476.00,0.0012
2475.00,0.0012
2474.00,0.0012
2473.00,0.0012
2472.00,0.0012
2471.00,0.0012
2470.00,0.0012
2469.00,0.0012
2468.00,0.0012
2467.00,0.0013
2466.00,0.0013
2465.00,0.0013
2464.00,0.0012
2463.00,0.0012
2462.00,0.0012
2461.00,0.0012
2460.00,0.0013
2459.00,0.0014
2458.00,0.0014
2457.00,0.0014
2456.00,0.0013
2455.00,0.0013
2454.00,0.0013
2453.00,0.0014
2452.00,0.0014
2451.00,0.0014
2450.00,0.0014
2449.00,0.0014
2448.00,0.0015
2447.00,0.0015
2446.00,0.0015
2445.00,0.0014
2444.00,0.0014
2443.00,0.0014
2442.00,0.0014
2441.00,0.0013
2440.00,0.0013
2439.00,0.0013
2438.00,0.0014
2437.00,0.0014
2436.00,0.0015
2435.00,0.0015
2434.00,0.0015
2433.00,0.0015
2432.00,0.0015
2431.00,0.0015
2430.00,0.0015
2429.00,0.0015
2428.00,0.0015
2427.00,0.0015
2426.00,0.0016
2425.00,0.0016
2424.00,0.0016
2423.00,0.0015
2422.00,0.0015
2421.00,0.0014
2420.00,0.0014
2419.00,0.0014
2418.00,0.0014
2417.00,0.0014
2416.00,0.0014
2415.00,0.0013
2414.00,0.0012
2413.00,0.0012
2412.00,0.0013
2411.00,0.0013
2410.00,0.0014
2409.00,0.0014
2408.00,0.0014
2407.00,0.0013
2406.00,0.0013
2405.00,0.0012
2404.00,0.0012
2403.00,0.0012
2402.00,0.0013
2401.00,0.0013
2400.00,0.0013
2399.00,0.0012
2398.00,0.0012
2397.00,0.0011
2396.00,0.0011
2395.00,0.0011
2394.00,0.0011
2393.00,0.0012
2392.00,0.0012
2391.00,0.0012
2390.00,0.0011
2389.00,0.0011
2388.00,0.0011
2387.00,0.0012
2386.00,0.0012
2385.00,0.0011
2384.00,0.0010
2383.00,0.0009
2382.00,0.0008
2381.00,0.0008
2380.00,0.0008
2379.00,0.0008
2378.00,0.0007
2377.00,0.0007
2376.00,0.0007
2375.00,0.0008
2374.00,0.0008
2373.00,0.0007
2372.00,0.0007
2371.00,0.0007
2370.00,0.0007
2369.00,0.0007
2368.00,0.0007
2367.00,0.0006
2366.00,0.0007
2365.00,0.0007
2364.00,0.0008
2363.00,0.0008
2362.00,0.0007
2361.00,0.0007
2360.00,0.0007
2359.00,0.0007
2358.00,0.0007
2357.00,0.0007
2356.00,0.0007
2355.00,0.0007
2354.00,0.0007
2353.00,0.0007
2352.00,0.0006
2351.00,0.0006
2350.00,0.0007
2349.00,0.0008
2348.00,0.0009
2347.00,0.0010
2346.00,0.0009
2345.00,0.0009
2344.00,0.0009
2343.00,0.0010
2342.00,0.0011
2341.00,0.0011
2340.00,0.0010
2339.00,0.0010
2338.00,0.0010
2337.00,0.0010
2336.00,0.0010
2335.00,0.0010
2334.00,0.0010
2333.00,0.0010
2332.00,0.0010
2331.00,0.0010
2330.00,0.0010
2329.00,0.0012
2328.00,0.0014
2327.00,0.0017
2326.00,0.0022
2325.00,0.0025
2324.00,0.0026
2323.00,0.0024
2322.00,0.0022
2321.00,0.0021
2320.00,0.0021
2319.00,0.0020
2318.00,0.0020
2317.00,0.0019
2316.00,0.0018
2315.00,0.0017
2314.00,0.0016
2313.00,0.0016
2312.00,0.0016
2311.00,0.0016
2310.00,0.0016
2309.00,0.0016
2308.00,0.0016
2307.00,0.0016
2306.00,0.0016
2305.00,0.0017
2304.00,0.0017
2303.00,0.0017
2302.00,0.0017
2301.00,0.0017
2300.00,0.0017
2299.00,0.0017
2298.00,0.0017
2297.00,0.0018
2296.00,0.0018
2295.00,0.0019
2294.00,0.0019
2293.00,0.0020
2292.00,0.0021
2291.00,0.0022
2290.00,0.0022
2289.00,0.0022
2288.00,0.0021
2287.00,0.0022
2286.00,0.0022
2285.00,0.0022
2284.00,0.0022
2283.00,0.0021
2282.00,0.0019
2281.00,0.0018
2280.00,0.0017
2279.00,0.0017
2278.00,0.0016
2277.00,0.0017
2276.00,0.0017
2275.00,0.0018
2274.00,0.0017
2273.00,0.0017
2272.00,0.0016
2271.00,0.0015
2270.00,0.0014
2269.00,0.0014
2268.00,0.0014
2267.00,0.0015
2266.00,0.0015
2265.00,0.0016
2264.00,0.0017
2263.00,0.0017
2262.00,0.0016
2261.00,0.0015
2260.00,0.0015
2259.00,0.0015
2258.00,0.0016
2257.00,0.0016
2256.00,0.0015
2255.00,0.0014
2254.00,0.0012
2253.00,0.0011
2252.00,0.0011
2251.00,0.0011
2250.00,0.0011
2249.00,0.0011
2248.00,0.0012
2247.00,0.0012
2246.00,0.0012
2245.00,0.0013
2244.00,0.0014
2243.00,0.0015
2242.00,0.0014
2241.00,0.0014
2240.00,0.0014
2239.00,0.0014
2238.00,0.0013
2237.00,0.0013
2236.00,0.0014
2235.00,0.0014
2234.00,0.0013
2233.00,0.0012
2232.00,0.0011
2231.00,0.0010
2230.00,0.0009
2229.00,0.0009
2228.00,0.0009
2227.00,0.0009
2226.00,0.0009
2225.00,0.0009
2224.00,0.0009
2223.00,0.0008
2222.00,0.0006
2221.00,0.0006
2220.00,0.0006
2219.00,0.0008
2218.00,0.0009
2217.00,0.0009
2216.00,0.0007
2215.00,0.0006
2214.00,0.0005
2213.00,0.0007
2212.00,0.0008
2211.00,0.0009
2210.00,0.0008
2209.00,0.0008
2208.00,0.0008
2207.00,0.0009
2206.00,0.0010
2205.00,0.0010
2204.00,0.0009
2203.00,0.0008
2202.00,0.0008
2201.00,0.0009
2200.00,0.0010
2199.00,0.0011
2198.00,0.0011
2197.00,0.0011
2196.00,0.0011
2195.00,0.0011
2194.00,0.0011
2193.00,0.0010
2192.00,0.0010
2191.00,0.0011
2190.00,0.0012
2189.00,0.0014
2188.00,0.0015
2187.00,0.0014
2186.00,0.0013
2185.00,0.0011
2184.00,0.0009
2183.00,0.0006
2182.00,0.0005
2181.00,0.0005
2180.00,0.0005
2179.00,0.0006
2178.00,0.0005
2177.00,0.0004
2176.00,0.0003
2175.00,0.0003
2174.00,0.0004
2173.00,0.0008
2172.00,0.0014
2171.00,0.0019
2170.00,0.0021
2169.00,0.0023
2168.00,0.0023
2167.00,0.0024
2166.00,0.0024
2165.00,0.0025
2164.00,0.0025
2163.00,0.0025
2162.00,0.0023
2161.00,0.0016
2160.00,0.0004
2159.00,-0.0009
2158.00,-0.0018
2157.00,-0.0022
2156.00,-0.0021
2155.00,-0.0019
2154.00,-0.0016
2153.00,-0.0013
2152.00,-0.0009
2151.00,-0.0008
2150.00,-0.0008
2149.00,-0.0009
2148.00,-0.0011
2147.00,-0.0012
2146.00,-0.0012
2145.00,-0.0012
2144.00,-0.0010
2143.00,-0.0009
2142.00,-0.0009
2141.00,-0.0009
2140.00,-0.0009
2139.00,-0.0008
2138.00,-0.0007
2137.00,-0.0006
2136.00,-0.0006
2135.00,-0.0007
2134.00,-0.0009
2133.00,-0.0010
2132.00,-0.0010
2131.00,-0.0008
2130.00,-0.0006
2129.00,-0.0005
2128.00,-0.0004
2127.00,-0.0003
2126.00,-0.0001
2125.00,0.0001
2124.00,0.0002
2123.00,0.0003
2122.00,0.0003
2121.00,0.0002
2120.00,0.0001
2119.00,0.0001
2118.00,0.0002
2117.00,0.0004
2116.00,0.0007
2115.00,0.0009
2114.00,0.0010
2113.00,0.0009
2112.00,0.0008
2111.00,0.0006
2110.00,0.0005
2109.00,0.0005
2108.00,0.0004
2107.00,0.0005
2106.00,0.0005
2105.00,0.0006
2104.00,0.0006
2103.00,0.0007
2102.00,0.0006
2101.00,0.0005
2100.00,0.0005
2099.00,0.0004
2098.00,0.0004
2097.00,0.0003
2096.00,0.0002
2095.00,0.0001
2094.00,0.0000
2093.00,-0.0000
2092.00,-0.0000
2091.00,0.0000
2090.00,0.0001
2089.00,0.0004
2088.00,0.0007
2087.00,0.0008
2086.00,0.0009
2085.00,0.0009
2084.00,0.0009
2083.00,0.0009
2082.00,0.0009
2081.00,0.0009
2080.00,0.0009
2079.00,0.0009
2078.00,0.0009
2077.00,0.0009
2076.00,0.0009
2075.00,0.0009
2074.00,0.0007
2073.00,0.0005
2072.00,0.0003
2071.00,0.0001
2070.00,-0.0001
2069.00,-0.0001
2068.00,0.0001
2067.00,0.0002
2066.00,0.0002
2065.00,0.0002
2064.00,0.0002
2063.00,0.0003
2062.00,0.0004
2061.00,0.0005
2060.00,0.0004
2059.00,0.0003
2058.00,0.0002
2057.00,0.0002
2056.00,0.0003
2055.00,0.0004
2054.00,0.0006
2053.00,0.0010
2052.00,0.0014
2051.00,0.0017
2050.00,0.0015
2049.00,0.0010
2048.00,0.0006
2047.00,0.0002
2046.00,-0.0000
2045.00,-0.0002
2044.00,-0.0003
2043.00,-0.0002
2042.00,0.0001
2041.00,0.0003
2040.00,0.0004
2039.00,0.0004
2038.00,0.0003
2037.00,0.0003
2036.00,0.0004
2035.00,0.0004
2034.00,0.0003
2033.00,-0.0000
2032.00,-0.0004
2031.00,-0.0007
2030.00,-0.0009
2029.00,-0.0009
2028.00,-0.0008
2027.00,-0.0005
2026.00,-0.0001
2025.00,0.0002
2024.00,0.0002
2023.00,-0.0000
2022.00,-0.0001
2021.00,-0.0000
2020.00,0.0001
2019.00,-0.0001
2018.00,-0.0005
2017.00,-0.0009
2016.00,-0.0013
2015.00,-0.0014
2014.00,-0.0013
2013.00,-0.0009
2012.00,-0.0005
2011.00,-0.0003
2010.00,-0.0004
2009.00,-0.0006
2008.00,-0.0008
2007.00,-0.0009
2006.00,-0.0010
2005.00,-0.0011
2004.00,-0.0011
2003.00,-0.0012
2002.00,-0.0013
2001.00,-0.0013
2000.00,-0.0013
1999.00,-0.0013
1998.00,-0.0012
1997.00,-0.0010
1996.00,-0.0008
1995.00,-0.0007
1994.00,-0.0006
1993.00,-0.0004
1992.00,-0.0003
1991.00,-0.0002
1990.00,-0.0002
1989.00,-0.0001
1988.00,-0.0001
1987.00,-0.0000
1986.00,0.0001
1985.00,0.0002
1984.00,0.0004
1983.00,0.0007
1982.00,0.0010
1981.00,0.0012
1980.00,0.0011
1979.00,0.0007
1978.00,0.0002
1977.00,-0.0001
1976.00,-0.0001
1975.00,-0.0000
1974.00,-0.0002
1973.00,-0.0005
1972.00,-0.0009
1971.00,-0.0013
1970.00,-0.0014
1969.00,-0.0012
1968.00,-0.0010
1967.00,-0.0010
1966.00,-0.0010
1965.00,-0.0009
1964.00,-0.0009
1963.00,-0.0009
1962.00,-0.0010
1961.00,-0.0009
1960.00,-0.0008
1959.00,-0.0009
1958.00,-0.0011
1957.00,-0.0012
1956.00,-0.0013
1955.00,-0.0013
1954.00,-0.0013
1953.00,-0.0013
1952.00,-0.0012
1951.00,-0.0011
1950.00,-0.0011
1949.00,-0.0010
1948.00,-0.0010
1947.00,-0.0010
1946.00,-0.0012
1945.00,-0.0012
1944.00,-0.0012
1943.00,-0.0012
1942.00,-0.0012
1941.00,-0.0012
1940.00,-0.0011
1939.00,-0.0009
1938.00,-0.0007
1937.00,-0.0006
1936.00,-0.0004
1935.00,-0.0004
1934.00,-0.0004
1933.00,-0.0005
1932.00,-0.0004
1931.00,-0.0004
1930.00,-0.0004
1929.00,-0.0004
1928.00,-0.0004
1927.00,-0.0004
1926.00,-0.0003
1925.00,-0.0002
1924.00,-0.0001
1923.00,-0.0001
1922.00,0.0000
1921.00,0.0000
1920.00,-0.0000
1919.00,-0.0001
1918.00,-0.0002
1917.00,-0.0003
1916.00,-0.0002
1915.00,-0.0002
1914.00,-0.0001
1913.00,-0.0001
1912.00,-0.0001
1911.00,-0.0001
1910.00,-0.0001
1909.00,-0.0002
1908.00,-0.0001
1907.00,-0.0000
1906.00,0.0001
1905.00,0.0001
1904.00,0.0000
1903.00,-0.0000
1902.00,-0.0001
1901.00,-0.0001
1900.00,-0.0001
1899.00,0.0000
1898.00,0.0001
1897.00,0.0002
1896.00,0.0002
1895.00,0.0002
1894.00,0.0002
1893.00,0.0002
1892.00,0.0003
1891.00,0.0003
1890.00,0.0003
1889.00,0.0002
1888.00,0.0002
1887.00,0.0001
1886.00,0.0002
1885.00,0.0002
1884.00,0.0002
1883.00,0.0001
1882.00,0.0001
1881.00,0.0001
1880.00,0.0002
1879.00,0.0003
1878.00,0.0003
1877.00,0.0004
1876.00,0.0004
1875.00,0.0003
1874.00,0.0002
1873.00,0.0002
1872.00,0.0002
1871.00,0.0003
1870.00,0.0003
1869.00,0.0004
1868.00,0.0004
1867.00,0.0003
1866.00,0.0002
1865.00,0.0002
1864.00,0.0002
1863.00,0.0002
1862.00,0.0003
1861.00,0.0004
1860.00,0.0004
1859.00,0.0004
1858.00,0.0003
1857.00,0.0003
1856.00,0.0003
1855.00,0.0003
1854.00,0.0003
1853.00,0.0004
1852.00,0.0005
1851.00,0.0005
1850.00,0.0005
1849.00,0.0005
1848.00,0.0005
1847.00,0.0005
1846.00,0.0005
1845.00,0.0006
1844.00,0.0006
1843.00,0.0006
1842.00,0.0005
1841.00,0.0005
1840.00,0.0005
1839.00,0.0004
1838.00,0.0004
1837.00,0.0004
1836.00,0.0004
1835.00,0.0004
1834.00,0.0004
1833.00,0.0005
1832.00,0.0005
1831.00,0.0006
1830.00,0.0006
1829.00,0.0007
1828.00,0.0007
1827.00,0.0007
1826.00,0.0006
1825.00,0.0007
1824.00,0.0008
1823.00,0.0008
1822.00,0.0008
1821.00,0.0007
1820.00,0.0006
1819.00,0.0004
1818.00,0.0003
1817.00,0.0003
1816.00,0.0003
1815.00,0.0004
1814.00,0.0005
1813.00,0.0005
1812.00,0.0005
1811.00,0.0006
1810.00,0.0006
1809.00,0.0006
1808.00,0.0007
1807.00,0.0008
1806.00,0.0008
1805.00,0.0008
1804.00,0.0008
1803.00,0.0008
1802.00,0.0009
1801.00,0.0009
1800.00,0.0010
1799.00,0.0010
1798.00,0.0010
1797.00,0.0009
1796.00,0.0010
1795.00,0.0010
1794.00,0.0011
1793.00,0.0012
1792.00,0.0013
1791.00,0.0013
1790.00,0.0013
1789.00,0.0013
1788.00,0.0013
1787.00,0.0013
1786.00,0.0012
1785.00,0.0012
1784.00,0.0012
1783.00,0.0012
1782.00,0.0011
1781.00,0.0011
1780.00,0.0012
1779.00,0.0012
1778.00,0.0013
1777.00,0.0013
1776.00,0.0013
1775.00,0.0013
1774.00,0.0013
1773.00,0.0013
1772.00,0.0015
1771.00,0.0016
1770.00,0.0016
1769.00,0.0016
1768.00,0.0016
1767.00,0.0015
1766.00,0.0015
1765.00,0.0016
1764.00,0.0017
1763.00,0.0017
1762.00,0.0017
1761.00,0.0017
1760.00,0.0017
1759.00,0.0018
1758.00,0.0018
1757.00,0.0019
1756.00,0.0020
1755.00,0.0020
1754.00,0.0020
1753.00,0.0020
1752.00,0.0021
1751.00,0.0021
1750.00,0.0022
1749.00,0.0023
1748.00,0.0024
1747.00,0.0026
1746.00,0.0027
1745.00,0.0027
1744.00,0.0028
1743.00,0.0029
1742.00,0.0030
1741.00,0.0030
1740.00,0.0030
1739.00,0.0031
1738.00,0.0031
1737.00,0.0031
1736.00,0.0032
1735.00,0.0032
1734.00,0.0031
1733.00,0.0031
1732.00,0.0031
1731.00,0.0031
1730.00,0.0031
1729.00,0.0032
1728.00,0.0032
1727.00,0.0032
1726.00,0.0031
1725.00,0.0031
1724.00,0.0031
1723.00,0.0032
1722.00,0.0032
1721.00,0.0031
1720.00,0.0031
1719.00,0.0030
1718.00,0.0030
1717.00,0.0031
1716.00,0.0032
1715.00,0.0032
1714.00,0.0032
1713.00,0.0032
1712.00,0.0033
1711.00,0.0034
1710.00,0.0035
1709.00,0.0036
1708.00,0.0037
1707.00,0.0038
1706.00,0.0039
1705.00,0.0041
1704.00,0.0043
1703.00,0.0045
1702.00,0.0047
1701.00,0.0049
1700.00,0.0051
1699.00,0.0052
1698.00,0.0052
1697.00,0.0054
1696.00,0.0058
1695.00,0.0063
1694.00,0.0067
1693.00,0.0070
1692.00,0.0073
1691.00,0.0077
1690.00,0.0082
1689.00,0.0086
1688.00,0.0090
1687.00,0.0093
1686.00,0.0097
1685.00,0.0103
1684.00,0.0111
1683.00,0.0117
1682.00,0.0122
1681.00,0.0125
1680.00,0.0129
1679.00,0.0133
1678.00,0.0136
1677.00,0.0140
1676.00,0.0143
1675.00,0.0147
1674.00,0.0149
1673.00,0.0151
1672.00,0.0153
1671.00,0.0155
1670.00,0.0157
1669.00,0.0158
1668.00,0.0160
1667.00,0.0161
1666.00,0.0161
1665.00,0.0161
1664.00,0.0162
1663.00,0.0162
1662.00,0.0162
1661.00,0.0162
1660.00,0.0162
1659.00,0.0161
1658.00,0.0160
1657.00,0.0159
1656.00,0.0158
1655.00,0.0156
1654.00,0.0152
1653.00,0.0148
1652.00,0.0146
1651.00,0.0145
1650.00,0.0145
1649.00,0.0143
1648.00,0.0141
1647.00,0.0138
1646.00,0.0135
1645.00,0.0133
1644.00,0.0131
1643.00,0.0129
1642.00,0.0127
1641.00,0.0125
1640.00,0.0123
1639.00,0.0122
1638.00,0.0120
1637.00,0.0119
1636.00,0.0116
1635.00,0.0113
1634.00,0.0110
1633.00,0.0108
1632.00,0.0107
1631.00,0.0106
1630.00,0.0105
1629.00,0.0104
1628.00,0.0103
1627.00,0.0101
1626.00,0.0100
1625.00,0.0098
1624.00,0.0097
1623.00,0.0096
1622.00,0.0095
1621.00,0.0095
1620.00,0.0095
1619.00,0.0094
1618.00,0.0092
1617.00,0.0090
1616.00,0.0089
1615.00,0.0089
1614.00,0.0089
1613.00,0.0089
1612.00,0.0089
1611.00,0.0088
1610.00,0.0088
1609.00,0.0087
1608.00,0.0087
1607.00,0.0086
1606.00,0.0085
1605.00,0.0085
1604.00,0.0085
1603.00,0.0084
1602.00,0.0084
1601.00,0.0084
1600.00,0.0084
1599.00,0.0084
1598.00,0.0083
1597.00,0.0083
1596.00,0.0083
1595.00,0.0082
1594.00,0.0082
1593.00,0.0081
1592.00,0.0082
1591.00,0.0082
1590.00,0.0083
1589.00,0.0084
1588.00,0.0085
1587.00,0.0085
1586.00,0.0086
1585.00,0.0088
1584.00,0.0090
1583.00,0.0092
1582.00,0.0093
1581.00,0.0095
1580.00,0.0097
1579.00,0.0098
1578.00,0.0097
1577.00,0.0097
1576.00,0.0096
1575.00,0.0095
1574.00,0.0094
1573.00,0.0094
1572.00,0.0094
1571.00,0.0092
1570.00,0.0089
1569.00,0.0087
1568.00,0.0086
1567.00,0.0086
1566.00,0.0086
1565.00,0.0086
1564.00,0.0086
1563.00,0.0086
1562.00,0.0086
1561.00,0.0087
1560.00,0.0087
1559.00,0.0088
1558.00,0.0088
1557.00,0.0089
1556.00,0.0090
1555.00,0.0090
1554.00,0.0092
1553.00,0.0093
1552.00,0.0095
1551.00,0.0097
1550.00,0.0098
1549.00,0.0100
1548.00,0.0102
1547.00,0.0104
1546.00,0.0106
1545.00,0.0108
1544.00,0.0111
1543.00,0.0112
1542.00,0.0112
1541.00,0.0111
1540.00,0.0107
1539.00,0.0102
1538.00,0.0099
1537.00,0.0098
1536.00,0.0097
1535.00,0.0095
1534.00,0.0092
1533.00,0.0089
1532.00,0.0086
1531.00,0.0084
1530.00,0.0082
1529.00,0.0081
1528.00,0.0081
1527.00,0.0080
1526.00,0.0079
1525.00,0.0078
1524.00,0.0078
1523.00,0.0077
1522.00,0.0076
1521.00,0.0076
1520.00,0.0076
1519.00,0.0076
1518.00,0.0077
1517.00,0.0077
1516.00,0.0078
1515.00,0.0077
1514.00,0.0077
1513.00,0.0078
1512.00,0.0079
1511.00,0.0080
1510.00,0.0081
1509.00,0.0081
1508.00,0.0082
1507.00,0.0082
1506.00,0.0082
1505.00,0.0083
1504.00,0.0086
1503.00,0.0088
1502.00,0.0090
1501.00,0.0093
1500.00,0.0096
1499.00,0.0098
1498.00,0.0100
1497.00,0.0105
1496.00,0.0109
1495.00,0.0113
1494.00,0.0116
1493.00,0.0119
1492.00,0.0123
1491.00,0.0127
1490.00,0.0130
1489.00,0.0135
1488.00,0.0140
1487.00,0.0144
1486.00,0.0148
1485.00,0.0154
1484.00,0.0161
1483.00,0.0168
1482.00,0.0177
1481.00,0.0188
1480.00,0.0200
1479.00,0.0213
1478.00,0.0228
1477.00,0.0247
1476.00,0.0270
1475.00,0.0295
1474.00,0.0330
1473.00,0.0382
1472.00,0.0445
1471.00,0.0507
1470.00,0.0568
1469.00,0.0632
1468.00,0.0701
1467.00,0.0776
1466.00,0.0861
1465.00,0.0954
1464.00,0.1036
1463.00,0.1096
1462.00,0.1137
1461.00,0.1167
1460.00,0.1191
1459.00,0.1209
1458.00,0.1228
1457.00,0.1248
1456.00,0.1260
1455.00,0.1263
1454.00,0.1260
1453.00,0.1253
1452.00,0.1235
1451.00,0.1203
1450.00,0.1155
1449.00,0.1084
1448.00,0.0990
1447.00,0.0888
1446.00,0.0795
1445.00,0.0716
1444.00,0.0648
1443.00,0.0593
1442.00,0.0552
1441.00,0.0524
1440.00,0.0507
1439.00,0.0499
1438.00,0.0497
1437.00,0.0493
1436.00,0.0478
1435.00,0.0448
1434.00,0.0409
1433.00,0.0364
1432.00,0.0318
1431.00,0.0278
1430.00,0.0247
1429.00,0.0226
1428.00,0.0211
1427.00,0.0203
1426.00,0.0198
1425.00,0.0193
1424.00,0.0188
1423.00,0.0185
1422.00,0.0183
1421.00,0.0179
1420.00,0.0174
1419.00,0.0169
1418.00,0.0164
1417.00,0.0160
1416.00,0.0155
1415.00,0.0152
1414.00,0.0150
1413.00,0.0147
1412.00,0.0144
1411.00,0.0142
1410.00,0.0141
1409.00,0.0140
1408.00,0.0138
1407.00,0.0137
1406.00,0.0137
1405.00,0.0136
1404.00,0.0134
1403.00,0.0134
1402.00,0.0135
1401.00,0.0136
1400.00,0.0136
1399.00,0.0138
1398.00,0.0140
1397.00,0.0141
1396.00,0.0143
1395.00,0.0146
1394.00,0.0151
1393.00,0.0156
1392.00,0.0162
1391.00,0.0170
1390.00,0.0183
1389.00,0.0201
1388.00,0.0227
1387.00,0.0266
1386.00,0.0316
1385.00,0.0380
1384.00,0.0463
1383.00,0.0574
1382.00,0.0719
1381.00,0.0901
1380.00,0.1121
1379.00,0.1366
1378.00,0.1598
1377.00,0.1765
1376.00,0.1819
1375.00,0.1733
1374.00,0.1529
1373.00,0.1278
1372.00,0.1045
1371.00,0.0848
1370.00,0.0689
1369.00,0.0567
1368.00,0.0481
1367.00,0.0428
1366.00,0.0399
1365.00,0.0387
1364.00,0.0389
1363.00,0.0402
1362.00,0.0422
1361.00,0.0443
1360.00,0.0459
1359.00,0.0463
1358.00,0.0452
1357.00,0.0426
1356.00,0.0389
1355.00,0.0348
1354.00,0.0309
1353.00,0.0275
1352.00,0.0248
1351.00,0.0226
1350.00,0.0208
1349.00,0.0194
1348.00,0.0183
1347.00,0.0175
1346.00,0.0168
1345.00,0.0162
1344.00,0.0157
1343.00,0.0153
1342.00,0.0149
1341.00,0.0145
1340.00,0.0142
1339.00,0.0140
1338.00,0.0139
1337.00,0.0139
1336.00,0.0140
1335.00,0.0142
1334.00,0.0146
1333.00,0.0150
1332.00,0.0155
1331.00,0.0158
1330.00,0.0160
1329.00,0.0159
1328.00,0.0156
1327.00,0.0152
1326.00,0.0146
1325.00,0.0141
1324.00,0.0135
1323.00,0.0130
1322.00,0.0127
1321.00,0.0124
1320.00,0.0122
1319.00,0.0120
1318.00,0.0118
1317.00,0.0116
1316.00,0.0115
1315.00,0.0113
1314.00,0.0112
1313.00,0.0112
1312.00,0.0114
1311.00,0.0117
1310.00,0.0122
1309.00,0.0130
1308.00,0.0142
1307.00,0.0157
1306.00,0.0171
1305.00,0.0181
1304.00,0.0185
1303.00,0.0183
1302.00,0.0178
1301.00,0.0172
1300.00,0.0169
1299.00,0.0169
1298.00,0.0171
1297.00,0.0173
1296.00,0.0175
1295.00,0.0175
1294.00,0.0173
1293.00,0.0169
1292.00,0.0165
1291.00,0.0159
1290.00,0.0154
1289.00,0.0148
1288.00,0.0143
1287.00,0.0139
1286.00,0.0135
1285.00,0.0131
1284.00,0.0128
1283.00,0.0125
1282.00,0.0123
1281.00,0.0121
1280.00,0.0119
1279.00,0.0117
1278.00,0.0116
1277.00,0.0115
1276.00,0.0114
1275.00,0.0113
1274.00,0.0112
1273.00,0.0112
1272.00,0.0112
1271.00,0.0112
1270.00,0.0112
1269.00,0.0112
1268.00,0.0112
1267.00,0.0113
1266.00,0.0115
1265.00,0.0117
1264.00,0.0120
1263.00,0.0124
1262.00,0.0128
1261.00,0.0133
1260.00,0.0140
1259.00,0.0148
1258.00,0.0157
1257.00,0.0165
1256.00,0.0168
1255.00,0.0165
1254.00,0.0157
1253.00,0.0146
1252.00,0.0135
1251.00,0.0127
1250.00,0.0120
1249.00,0.0116
1248.00,0.0113
1247.00,0.0110
1246.00,0.0109
1245.00,0.0107
1244.00,0.0106
1243.00,0.0106
1242.00,0.0105
1241.00,0.0105
1240.00,0.0104
1239.00,0.0105
1238.00,0.0105
1237.00,0.0104
1236.00,0.0103
1235.00,0.0102
1234.00,0.0102
1233.00,0.0101
1232.00,0.0101
1231.00,0.0101
1230.00,0.0102
1229.00,0.0103
1228.00,0.0104
1227.00,0.0106
1226.00,0.0107
1225.00,0.0109
1224.00,0.0111
1223.00,0.0114
1222.00,0.0118
1221.00,0.0121
1220.00,0.0124
1219.00,0.0125
1218.00,0.0124
1217.00,0.0122
1216.00,0.0120
1215.00,0.0117
1214.00,0.0114
1213.00,0.0110
1212.00,0.0107
1211.00,0.0104
1210.00,0.0101
1209.00,0.0099
1208.00,0.0096
1207.00,0.0095
1206.00,0.0094
1205.00,0.0093
1204.00,0.0093
1203.00,0.0093
1202.00,0.0093
1201.00,0.0093
1200.00,0.0092
1199.00,0.0092
1198.00,0.0092
1197.00,0.0093
1196.00,0.0093
1195.00,0.0093
1194.00,0.0094
1193.00,0.0094
1192.00,0.0094
1191.00,0.0094
1190.00,0.0094
1189.00,0.0094
1188.00,0.0094
1187.00,0.0094
1186.00,0.0094
1185.00,0.0095
1184.00,0.0097
1183.00,0.0099
1182.00,0.0102
1181.00,0.0105
1180.00,0.0109
1179.00,0.0115
1178.00,0.0122
1177.00,0.0133
1176.00,0.0147
1175.00,0.0166
1174.00,0.0191
1173.00,0.0223
1172.00,0.0261
1171.00,0.0302
1170.00,0.0342
1169.00,0.0375
1168.00,0.0395
1167.00,0.0400
1166.00,0.0391
1165.00,0.0372
1164.00,0.0348
1163.00,0.0323
1162.00,0.0300
1161.00,0.0280
1160.00,0.0264
1159.00,0.0252
1158.00,0.0243
1157.00,0.0236
1156.00,0.0231
1155.00,0.0227
1154.00,0.0224
1153.00,0.0221
1152.00,0.0216
1151.00,0.0209
1150.00,0.0200
1149.00,0.0191
1148.00,0.0181
1147.00,0.0172
1146.00,0.0164
1145.00,0.0157
1144.00,0.0151
1143.00,0.0145
1142.00,0.0139
1141.00,0.0134
1140.00,0.0129
1139.00,0.0124
1138.00,0.0121
1137.00,0.0118
1136.00,0.0116
1135.00,0.0115
1134.00,0.0113
1133.00,0.0112
1132.00,0.0112
1131.00,0.0112
1130.00,0.0113
1129.00,0.0114
1128.00,0.0115
1127.00,0.0117
1126.00,0.0119
1125.00,0.0120
1124.00,0.0122
1123.00,0.0122
1122.00,0.0122
1121.00,0.0123
1120.00,0.0124
1119.00,0.0126
1118.00,0.0128
1117.00,0.0130
1116.00,0.0131
1115.00,0.0133
1114.00,0.0135
1113.00,0.0136
1112.00,0.0138
1111.00,0.0140
1110.00,0.0143
1109.00,0.0147
1108.00,0.0152
1107.00,0.0157
1106.00,0.0164
1105.00,0.0170
1104.00,0.0175
1103.00,0.0179
1102.00,0.0180
1101.00,0.0177
1100.00,0.0173
1099.00,0.0166
1098.00,0.0159
1097.00,0.0152
1096.00,0.0145
1095.00,0.0140
1094.00,0.0136
1093.00,0.0133
1092.00,0.0130
1091.00,0.0128
1090.00,0.0126
1089.00,0.0124
1088.00,0.0122
1087.00,0.0120
1086.00,0.0119
1085.00,0.0117
1084.00,0.0116
1083.00,0.0115
1082.00,0.0114
1081.00,0.0112
1080.00,0.0111
1079.00,0.0110
1078.00,0.0109
1077.00,0.0107
1076.00,0.0106
1075.00,0.0105
1074.00,0.0104
1073.00,0.0104
1072.00,0.0104
1071.00,0.0104
1070.00,0.0104
1069.00,0.0104
1068.00,0.0105
1067.00,0.0105
1066.00,0.0105
1065.00,0.0105
1064.00,0.0106
1063.00,0.0107
1062.00,0.0108
1061.00,0.0108
1060.00,0.0108
1059.00,0.0108
1058.00,0.0108
1057.00,0.0108
1056.00,0.0109
1055.00,0.0111
1054.00,0.0112
1053.00,0.0113
1052.00,0.0115
1051.00,0.0117
1050.00,0.0120
1049.00,0.0123
1048.00,0.0126
1047.00,0.0130
1046.00,0.0134
1045.00,0.0136
1044.00,0.0137
1043.00,0.0136
1042.00,0.0134
1041.00,0.0132
1040.00,0.0130
1039.00,0.0128
1038.00,0.0128
1037.00,0.0127
1036.00,0.0126
1035.00,0.0125
1034.00,0.0123
1033.00,0.0121
1032.00,0.0120
1031.00,0.0119
1030.00,0.0119
1029.00,0.0118
1028.00,0.0118
1027.00,0.0118
1026.00,0.0118
1025.00,0.0118
1024.00,0.0119
1023.00,0.0120
1022.00,0.0121
1021.00,0.0122
1020.00,0.0123
1019.00,0.0123
1018.00,0.0124
1017.00,0.0126
1016.00,0.0127
1015.00,0.0130
1014.00,0.0134
1013.00,0.0138
1012.00,0.0142
1011.00,0.0147
1010.00,0.0151
1009.00,0.0155
1008.00,0.0161
1007.00,0.0169
1006.00,0.0180
1005.00,0.0195
1004.00,0.0215
1003.00,0.0243
1002.00,0.0279
1001.00,0.0322
1000.00,0.0369
999.00,0.0409
998.00,0.0430
997.00,0.0425
996.00,0.0394
995.00,0.0347
994.00,0.0296
993.00,0.0251
992.00,0.0215
991.00,0.0189
990.00,0.0170
989.00,0.0156
988.00,0.0147
987.00,0.0143
986.00,0.0141
985.00,0.0142
984.00,0.0146
983.00,0.0154
982.00,0.0166
981.00,0.0184
980.00,0.0207
979.00,0.0238
978.00,0.0278
977.00,0.0327
976.00,0.0382
975.00,0.0437
974.00,0.0481
973.00,0.0503
972.00,0.0492
971.00,0.0452
970.00,0.0391
969.00,0.0326
968.00,0.0269
967.00,0.0224
966.00,0.0192
965.00,0.0168
964.00,0.0152
963.00,0.0140
962.00,0.0130
961.00,0.0123
960.00,0.0117
959.00,0.0111
958.00,0.0105
957.00,0.0100
956.00,0.0097
955.00,0.0095
954.00,0.0093
953.00,0.0092
952.00,0.0091
951.00,0.0090
950.00,0.0089
949.00,0.0088
948.00,0.0088
947.00,0.0089
946.00,0.0091
945.00,0.0094
944.00,0.0097
943.00,0.0100
942.00,0.0103
941.00,0.0105
940.00,0.0104
939.00,0.0102
938.00,0.0098
937.00,0.0094
936.00,0.0089
935.00,0.0085
934.00,0.0082
933.00,0.0079
932.00,0.0078
931.00,0.0077
930.00,0.0076
929.00,0.0076
928.00,0.0077
927.00,0.0077
926.00,0.0078
925.00,0.0077
924.00,0.0077
923.00,0.0077
922.00,0.0077
921.00,0.0078
920.00,0.0079
919.00,0.0080
918.00,0.0081
917.00,0.0082
916.00,0.0082
915.00,0.0083
914.00,0.0084
913.00,0.0086
912.00,0.0087
911.00,0.0089
910.00,0.0090
909.00,0.0092
908.00,0.0095
907.00,0.0099
906.00,0.0105
905.00,0.0115
904.00,0.0129
903.00,0.0148
902.00,0.0167
901.00,0.0185
900.00,0.0196
899.00,0.0199
898.00,0.0192
897.00,0.0176
896.00,0.0158
895.00,0.0139
894.00,0.0125
893.00,0.0114
892.00,0.0105
891.00,0.0099
890.00,0.0095
889.00,0.0092
888.00,0.0090
887.00,0.0089
886.00,0.0089
885.00,0.0088
884.00,0.0087
883.00,0.0086
882.00,0.0087
881.00,0.0087
880.00,0.0086
879.00,0.0086
878.00,0.0085
877.00,0.0085
876.00,0.0086
875.00,0.0087
874.00,0.0088
873.00,0.0089
872.00,0.0089
871.00,0.0089
870.00,0.0088
869.00,0.0087
868.00,0.0087
867.00,0.0088
866.00,0.0090
865.00,0.0092
864.00,0.0093
863.00,0.0094
862.00,0.0095
861.00,0.0097
860.00,0.0098
859.00,0.0101
858.00,0.0103
857.00,0.0105
856.00,0.0106
855.00,0.0108
854.00,0.0111
853.00,0.0115
852.00,0.0119
851.00,0.0124
850.00,0.0131
849.00,0.0139
848.00,0.0152
847.00,0.0171
846.00,0.0200
845.00,0.0243
844.00,0.0301
843.00,0.0365
842.00,0.0415
841.00,0.0431
840.00,0.0405
839.00,0.0350
838.00,0.0289
837.00,0.0239
836.00,0.0205
835.00,0.0184
834.00,0.0171
833.00,0.0162
832.00,0.0154
831.00,0.0147
830.00,0.0141
829.00,0.0137
828.00,0.0134
827.00,0.0132
826.00,0.0132
825.00,0.0132
824.00,0.0131
823.00,0.0129
822.00,0.0126
821.00,0.0125
820.00,0.0127
819.00,0.0130
818.00,0.0134
817.00,0.0139
816.00,0.0144
815.00,0.0152
814.00,0.0164
813.00,0.0180
812.00,0.0198
811.00,0.0215
810.00,0.0228
809.00,0.0234
808.00,0.0233
807.00,0.0223
806.00,0.0209
805.00,0.0192
804.00,0.0176
803.00,0.0163
802.00,0.0152
801.00,0.0144
800.00,0.0138
799.00,0.0132
798.00,0.0127
797.00,0.0122
796.00,0.0117
795.00,0.0113
794.00,0.0110
793.00,0.0108
792.00,0.0106
791.00,0.0104
790.00,0.0102
789.00,0.0100
788.00,0.0098
787.00,0.0096
786.00,0.0095
785.00,0.0093
784.00,0.0091
783.00,0.0090
782.00,0.0089
781.00,0.0086
780.00,0.0083
779.00,0.0082
778.00,0.0082
777.00,0.0082
776.00,0.0083
775.00,0.0084
774.00,0.0086
773.00,0.0089
772.00,0.0093
771.00,0.0098
770.00,0.0102
769.00,0.0105
768.00,0.0108
767.00,0.0108
766.00,0.0107
765.00,0.0103
764.00,0.0099
763.00,0.0094
762.00,0.0091
761.00,0.0088
760.00,0.0084
759.00,0.0082
758.00,0.0079
757.00,0.0078
756.00,0.0077
755.00,0.0076
754.00,0.0075
753.00,0.0075
752.00,0.0074
751.00,0.0075
750.00,0.0076
749.00,0.0077
748.00,0.0078
747.00,0.0078
746.00,0.0079
745.00,0.0080
744.00,0.0081
743.00,0.0083
742.00,0.0084
741.00,0.0085
740.00,0.0086
739.00,0.0087
738.00,0.0090
737.00,0.0093
736.00,0.0096
735.00,0.0098
734.00,0.0100
733.00,0.0099
732.00,0.0098
731.00,0.0098
730.00,0.0100
729.00,0.0101
728.00,0.0102
727.00,0.0101
726.00,0.0101
725.00,0.0100
724.00,0.0098
723.00,0.0097
722.00,0.0097
721.00,0.0097
720.00,0.0096
719.00,0.0094
718.00,0.0091
717.00,0.0089
716.00,0.0086
715.00,0.0085
714.00,0.0084
713.00,0.0084
712.00,0.0085
711.00,0.0086
710.00,0.0087
709.00,0.0088
708.00,0.0089
707.00,0.0089
706.00,0.0089
705.00,0.0088
704.00,0.0087
703.00,0.0086
702.00,0.0085
701.00,0.0085
700.00,0.0085
699.00,0.0085
698.00,0.0084
697.00,0.0082
696.00,0.0081
695.00,0.0080
694.00,0.0080
693.00,0.0080
692.00,0.0079
691.00,0.0080
690.00,0.0081
689.00,0.0080
688.00,0.0079
687.00,0.0078
686.00,0.0078
685.00,0.0079
684.00,0.0080
683.00,0.0081
682.00,0.0081
681.00,0.0080
680.00,0.0080
679.00,0.0080
678.00,0.0082
677.00,0.0083
676.00,0.0083
675.00,0.0083
674.00,0.0083
673.00,0.0084
672.00,0.0084
671.00,0.0084
670.00,0.0084
669.00,0.0082
668.00,0.0080
667.00,0.0082
666.00,0.0084
665.00,0.0084
664.00,0.0084
663.00,0.0084
662.00,0.0085
661.00,0.0085
660.00,0.0085
659.00,0.0084
658.00,0.0085
657.00,0.0085
656.00,0.0085
655.00,0.0086
654.00,0.0087
653.00,0.0087
652.00,0.0085
651.00,0.0083
650.00,0.0081
649.00,0.0082
648.00,0.0086
647.00,0.0091
646.00,0.0094
645.00,0.0095
644.00,0.0093
643.00,0.0090
642.00,0.0088
641.00,0.0087
640.00,0.0086
639.00,0.0087
638.00,0.0087
637.00,0.0088
636.00,0.0088
635.00,0.0088
634.00,0.0090
633.00,0.0092
632.00,0.0093
631.00,0.0093
630.00,0.0092
629.00,0.0092
628.00,0.0094
627.00,0.0096
626.00,0.0097
625.00,0.0095
624.00,0.0091
623.00,0.0088
622.00,0.0087
621.00,0.0087
620.00,0.0088
619.00,0.0090
618.00,0.0092
617.00,0.0093
616.00,0.0093
615.00,0.0092
614.00,0.0091
613.00,0.0091
612.00,0.0091
611.00,0.0091
610.00,0.0091
609.00,0.0090
608.00,0.0090
607.00,0.0089
606.00,0.0088
605.00,0.0088
604.00,0.0089
603.00,0.0089
602.00,0.0088
601.00,0.0089
600.00,0.0090
599.00,0.0093
598.00,0.0094
597.00,0.0095
596.00,0.0094
595.00,0.0092
594.00,0.0091
593.00,0.0090
592.00,0.0090
591.00,0.0091
590.00,0.0093
589.00,0.0096
588.00,0.0100
587.00,0.0104
586.00,0.0107
585.00,0.0107
584.00,0.0106
583.00,0.0105
582.00,0.0105
581.00,0.0103
580.00,0.0100
579.00,0.0095
578.00,0.0093
577.00,0.0094
576.00,0.0096
575.00,0.0099
574.00,0.0101
573.00,0.0102
572.00,0.0101
571.00,0.0100
570.00,0.0097
569.00,0.0094
568.00,0.0092
567.00,0.0090
566.00,0.0090
565.00,0.0091
564.00,0.0092
563.00,0.0094
562.00,0.0097
561.00,0.0099
560.00,0.0098
559.00,0.0096
558.00,0.0092
557.00,0.0090
556.00,0.0091
555.00,0.0094
554.00,0.0098
553.00,0.0099
552.00,0.0098
551.00,0.0095
550.00,0.0093
549.00,0.0093
548.00,0.0096
547.00,0.0098
546.00,0.0098
545.00,0.0096
544.00,0.0094
543.00,0.0092
542.00,0.0092
541.00,0.0092
540.00,0.0093
539.00,0.0092
538.00,0.0091
537.00,0.0091
536.00,0.0094
535.00,0.0098
534.00,0.0103
533.00,0.0106
532.00,0.0110
531.00,0.0112
530.00,0.0112
529.00,0.0110
528.00,0.0109
527.00,0.0110
526.00,0.0111
525.00,0.0110
524.00,0.0109
523.00,0.0109
522.00,0.0108
521.00,0.0106
520.00,0.0103
519.00,0.0101
518.00,0.0101
517.00,0.0101
516.00,0.0099
515.00,0.0097
514.00,0.0096
513.00,0.0094
512.00,0.0089
511.00,0.0083
510.00,0.0079
509.00,0.0078
508.00,0.0081
507.00,0.0087
506.00,0.0094
505.00,0.0098
504.00,0.0099
503.00,0.0097
502.00,0.0095
501.00,0.0092
500.00,0.0087
499.00,0.0083
498.00,0.0081
497.00,0.0084
496.00,0.0085
495.00,0.0083
494.00,0.0080
493.00,0.0083
492.00,0.0092
491.00,0.0103
490.00,0.0113
489.00,0.0116
488.00,0.0112
487.00,0.0101
486.00,0.0087
485.00,0.0074
484.00,0.0067
483.00,0.0070
482.00,0.0081
481.00,0.0094
480.00,0.0103
479.00,0.0105
478.00,0.0103
477.00,0.0102
476.00,0.0106
475.00,0.0118
474.00,0.0134
473.00,0.0144
472.00,0.0142
471.00,0.0128
470.00,0.0112
469.00,0.0102
468.00,0.0100
467.00,0.0106
466.00,0.0118
465.00,0.0130
464.00,0.0139
463.00,0.0147
462.00,0.0155
461.00,0.0163
460.00,0.0169
459.00,0.0170
458.00,0.0171
457.00,0.0179
456.00,0.0187
455.00,0.0191
454.00,0.0191
453.00,0.0183
452.00,0.0168
451.00,0.0149
450.00,0.0132
