Created as New Dataset,Sample 017 By Administrator Date Wednesday, September 10 2025
cm-1,A
4000.00,0.0009
3999.00,0.0009
3998.00,0.0008
3997.00,0.0008
3996.00,0.0008
3995.00,0.0008
3994.00,0.0008
3993.00,0.0009
3992.00,0.0009
3991.00,0.0009
3990.00,0.0009
3989.00,0.0009
3988.00,0.0009
3987.00,0.0008
3986.00,0.0008
3985.00,0.0008
3984.00,0.0008
3983.00,0.0008
3982.00,0.0008
3981.00,0.0008
3980.00,0.0008
3979.00,0.0007
3978.00,0.0007
3977.00,0.0007
3976.00,0.0007
3975.00,0.0007
3974.00,0.0007
3973.00,0.0007
3972.00,0.0007
3971.00,0.0007
3970.00,0.0007
3969.00,0.0007
3968.00,0.0007
3967.00,0.0008
3966.00,0.0008
3965.00,0.0008
3964.00,0.0007
3963.00,0.0007
3962.00,0.0007
3961.00,0.0007
3960.00,0.0007
3959.00,0.0007
3958.00,0.0007
3957.00,0.0007
3956.00,0.0006
3955.00,0.0006
3954.00,0.0006
3953.00,0.0006
3952.00,0.0006
3951.00,0.0006
3950.00,0.0006
3949.00,0.0006
3948.00,0.0006
3947.00,0.0006
3946.00,0.0006
3945.00,0.0006
3944.00,0.0006
3943.00,0.0006
3942.00,0.0006
3941.00,0.0007
3940.00,0.0007
3939.00,0.0007
3938.00,0.0007
3937.00,0.0007
3936.00,0.0007
3935.00,0.0007
3934.00,0.0007
3933.00,0.0007
3932.00,0.0007
3931.00,0.0007
3930.00,0.0007
3929.00,0.0007
3928.00,0.0007
3927.00,0.0007
3926.00,0.0007
3925.00,0.0007
3924.00,0.0007
3923.00,0.0007
3922.00,0.0007
3921.00,0.0006
3920.00,0.0006
3919.00,0.0006
3918.00,0.0006
3917.00,0.0006
3916.00,0.0006
3915.00,0.0005
3914.00,0.0005
3913.00,0.0006
3912.00,0.0006
3911.00,0.0007
3910.00,0.0007
3909.00,0.0007
3908.00,0.0007
3907.00,0.0006
3906.00,0.0006
3905.00,0.0006
3904.00,0.0006
3903.00,0.0006
3902.00,0.0006
3901.00,0.0006
3900.00,0.0006
3899.00,0.0006
3898.00,0.0006
3897.00,0.0006
3896.00,0.0006
3895.00,0.0006
3894.00,0.0006
3893.00,0.0006
3892.00,0.0006
3891.00,0.0007
3890.00,0.0006
3889.00,0.0006
3888.00,0.0006
3887.00,0.0006
3886.00,0.0006
3885.00,0.0006
3884.00,0.0006
3883.00,0.0005
3882.00,0.0005
3881.00,0.0006
3880.00,0.0006
3879.00,0.0006
3878.00,0.0006
3877.00,0.0006
3876.00,0.0006
3875.00,0.0006
3874.00,0.0006
3873.00,0.0005
3872.00,0.0005
3871.00,0.0005
3870.00,0.0005
3869.00,0.0005
3868.00,0.0005
3867.00,0.0005
3866.00,0.0005
3865.00,0.0005
3864.00,0.0005
3863.00,0.0005
3862.00,0.0005
3861.00,0.0005
3860.00,0.0006
3859.00,0.0006
3858.00,0.0006
3857.00,0.0006
3856.00,0.0006
3855.00,0.0006
3854.00,0.0006
3853.00,0.0006
3852.00,0.0005
3851.00,0.0005
3850.00,0.0005
3849.00,0.0005
3848.00,0.0005
3847.00,0.0005
3846.00,0.0005
3845.00,0.0005
3844.00,0.0005
3843.00,0.0005
3842.00,0.0005
3841.00,0.0005
3840.00,0.0005
3839.00,0.0005
3838.00,0.0005
3837.00,0.0005
3836.00,0.0005
3835.00,0.0005
3834.00,0.0005
3833.00,0.0005
3832.00,0.0005
3831.00,0.0005
3830.00,0.0005
3829.00,0.0005
3828.00,0.0005
3827.00,0.0005
3826.00,0.0005
3825.00,0.0005
3824.00,0.0005
3823.00,0.0005
3822.00,0.0005
3821.00,0.0005
3820.00,0.0004
3819.00,0.0004
3818.00,0.0004
3817.00,0.0005
3816.00,0.0005
3815.00,0.0006
3814.00,0.0006
3813.00,0.0006
3812.00,0.0006
3811.00,0.0006
3810.00,0.0006
3809.00,0.0006
3808.00,0.0006
3807.00,0.0006
3806.00,0.0006
3805.00,0.0005
3804.00,0.0005
3803.00,0.0005
3802.00,0.0005
3801.00,0.0005
3800.00,0.0005
3799.00,0.0005
3798.00,0.0005
3797.00,0.0005
3796.00,0.0005
3795.00,0.0005
3794.00,0.0006
3793.00,0.0006
3792.00,0.0006
3791.00,0.0006
3790.00,0.0006
3789.00,0.0006
3788.00,0.0006
3787.00,0.0005
3786.00,0.0005
3785.00,0.0005
3784.00,0.0006
3783.00,0.0006
3782.00,0.0006
3781.00,0.0006
3780.00,0.0006
3779.00,0.0006
3778.00,0.0007
3777.00,0.0007
3776.00,0.0008
3775.00,0.0008
3774.00,0.0008
3773.00,0.0008
3772.00,0.0007
3771.00,0.0007
3770.00,0.0007
3769.00,0.0006
3768.00,0.0006
3767.00,0.0006
3766.00,0.0006
3765.00,0.0007
3764.00,0.0007
3763.00,0.0007
3762.00,0.0007
3761.00,0.0007
3760.00,0.0007
3759.00,0.0007
3758.00,0.0007
3757.00,0.0007
3756.00,0.0007
3755.00,0.0007
3754.00,0.0007
3753.00,0.0007
3752.00,0.0007
3751.00,0.0006
3750.00,0.0006
3749.00,0.0006
3748.00,0.0006
3747.00,0.0005
3746.00,0.0005
3745.00,0.0005
3744.00,0.0005
3743.00,0.0005
3742.00,0.0005
3741.00,0.0005
3740.00,0.0005
3739.00,0.0005
3738.00,0.0005
3737.00,0.0004
3736.00,0.0003
3735.00,0.0002
3734.00,0.0001
3733.00,0.0001
3732.00,0.0001
3731.00,0.0001
3730.00,0.0002
3729.00,0.0002
3728.00,0.0003
3727.00,0.0003
3726.00,0.0004
3725.00,0.0004
3724.00,0.0003
3723.00,0.0004
3722.00,0.0004
3721.00,0.0004
3720.00,0.0004
3719.00,0.0004
3718.00,0.0004
3717.00,0.0004
3716.00,0.0004
3715.00,0.0004
3714.00,0.0004
3713.00,0.0004
3712.00,0.0004
3711.00,0.0003
3710.00,0.0003
3709.00,0.0003
3708.00,0.0003
3707.00,0.0004
3706.00,0.0004
3705.00,0.0004
3704.00,0.0004
3703.00,0.0003
3702.00,0.0003
3701.00,0.0003
3700.00,0.0003
3699.00,0.0004
3698.00,0.0004
3697.00,0.0004
3696.00,0.0005
3695.00,0.0005
3694.00,0.0005
3693.00,0.0004
3692.00,0.0004
3691.00,0.0004
3690.00,0.0004
3689.00,0.0004
3688.00,0.0004
3687.00,0.0004
3686.00,0.0004
3685.00,0.0004
3684.00,0.0005
3683.00,0.0005
3682.00,0.0005
3681.00,0.0005
3680.00,0.0005
3679.00,0.0004
3678.00,0.0004
3677.00,0.0003
3676.00,0.0003
3675.00,0.0004
3674.00,0.0004
3673.00,0.0004
3672.00,0.0004
3671.00,0.0004
3670.00,0.0004
3669.00,0.0003
3668.00,0.0003
3667.00,0.0003
3666.00,0.0004
3665.00,0.0004
3664.00,0.0005
3663.00,0.0005
3662.00,0.0005
3661.00,0.0005
3660.00,0.0005
3659.00,0.0005
3658.00,0.0005
3657.00,0.0005
3656.00,0.0006
3655.00,0.0006
3654.00,0.0006
3653.00,0.0006
3652.00,0.0006
3651.00,0.0005
3650.00,0.0005
3649.00,0.0004
3648.00,0.0004
3647.00,0.0004
3646.00,0.0005
3645.00,0.0006
3644.00,0.0006
3643.00,0.0006
3642.00,0.0006
3641.00,0.0006
3640.00,0.0006
3639.00,0.0005
3638.00,0.0005
3637.00,0.0005
3636.00,0.0005
3635.00,0.0005
3634.00,0.0005
3633.00,0.0005
3632.00,0.0004
3631.00,0.0004
3630.00,0.0005
3629.00,0.0005
3628.00,0.0006
3627.00,0.0005
3626.00,0.0005
3625.00,0.0006
3624.00,0.0006
3623.00,0.0006
3622.00,0.0006
3621.00,0.0006
3620.00,0.0006
3619.00,0.0006
3618.00,0.0007
3617.00,0.0007
3616.00,0.0007
3615.00,0.0007
3614.00,0.0007
3613.00,0.0007
3612.00,0.0007
3611.00,0.0007
3610.00,0.0007
3609.00,0.0007
3608.00,0.0007
3607.00,0.0007
3606.00,0.0007
3605.00,0.0007
3604.00,0.0008
3603.00,0.0008
3602.00,0.0008
3601.00,0.0007
3600.00,0.0007
3599.00,0.0007
3598.00,0.0007
3597.00,0.0007
3596.00,0.0008
3595.00,0.0008
3594.00,0.0009
3593.00,0.0009
3592.00,0.0009
3591.00,0.0008
3590.00,0.0008
3589.00,0.0009
3588.00,0.0009
3587.00,0.0009
3586.00,0.0010
3585.00,0.0010
3584.00,0.0010
3583.00,0.0010
3582.00,0.0010
3581.00,0.0010
3580.00,0.0011
3579.00,0.0011
3578.00,0.0012
3577.00,0.0012
3576.00,0.0013
3575.00,0.0013
3574.00,0.0013
3573.00,0.0012
3572.00,0.0012
3571.00,0.0013
3570.00,0.0013
3569.00,0.0014
3568.00,0.0014
3567.00,0.0014
3566.00,0.0013
3565.00,0.0013
3564.00,0.0012
3563.00,0.0013
3562.00,0.0013
3561.00,0.0014
3560.00,0.0014
3559.00,0.0015
3558.00,0.0015
3557.00,0.0015
3556.00,0.0015
3555.00,0.0016
3554.00,0.0016
3553.00,0.0016
3552.00,0.0016
3551.00,0.0017
3550.00,0.0017
3549.00,0.0017
3548.00,0.0018
3547.00,0.0018
3546.00,0.0018
3545.00,0.0018
3544.00,0.0018
3543.00,0.0018
3542.00,0.0018
3541.00,0.0019
3540.00,0.0019
3539.00,0.0019
3538.00,0.0019
3537.00,0.0020
3536.00,0.0020
3535.00,0.0020
3534.00,0.0020
3533.00,0.0020
3532.00,0.0020
3531.00,0.0021
3530.00,0.0021
3529.00,0.0021
3528.00,0.0021
3527.00,0.0022
3526.00,0.0022
3525.00,0.0023
3524.00,0.0023
3523.00,0.0023
3522.00,0.0023
3521.00,0.0023
3520.00,0.0023
3519.00,0.0023
3518.00,0.0023
3517.00,0.0023
3516.00,0.0023
3515.00,0.0023
3514.00,0.0024
3513.00,0.0024
3512.00,0.0024
3511.00,0.0024
3510.00,0.0024
3509.00,0.0024
3508.00,0.0024
3507.00,0.0025
3506.00,0.0025
3505.00,0.0025
3504.00,0.0025
3503.00,0.0026
3502.00,0.0026
3501.00,0.0026
3500.00,0.0026
3499.00,0.0026
3498.00,0.0026
3497.00,0.0026
3496.00,0.0026
3495.00,0.0027
3494.00,0.0028
3493.00,0.0028
3492.00,0.0028
3491.00,0.0028
3490.00,0.0028
3489.00,0.0028
3488.00,0.0028
3487.00,0.0029
3486.00,0.0029
3485.00,0.0030
3484.00,0.0030
3483.00,0.0030
3482.00,0.0030
3481.00,0.0030
3480.00,0.0030
3479.00,0.0031
3478.00,0.0031
3477.00,0.0032
3476.00,0.0032
3475.00,0.0032
3474.00,0.0032
3473.00,0.0032
3472.00,0.0032
3471.00,0.0032
3470.00,0.0032
3469.00,0.0032
3468.00,0.0032
3467.00,0.0032
3466.00,0.0032
3465.00,0.0033
3464.00,0.0033
3463.00,0.0034
3462.00,0.0034
3461.00,0.0034
3460.00,0.0035
3459.00,0.0035
3458.00,0.0035
3457.00,0.0035
3456.00,0.0035
3455.00,0.0035
3454.00,0.0035
3453.00,0.0035
3452.00,0.0035
3451.00,0.0035
3450.00,0.0035
3449.00,0.0035
3448.00,0.0035
3447.00,0.0035
3446.00,0.0035
3445.00,0.0036
3444.00,0.0036
3443.00,0.0037
3442.00,0.0037
3441.00,0.0038
3440.00,0.0038
3439.00,0.0038
3438.00,0.0038
3437.00,0.0039
3436.00,0.0039
3435.00,0.0039
3434.00,0.0039
3433.00,0.0039
3432.00,0.0039
3431.00,0.0039
3430.00,0.0039
3429.00,0.0040
3428.00,0.0040
3427.00,0.0040
3426.00,0.0040
3425.00,0.0040
3424.00,0.0040
3423.00,0.0040
3422.00,0.0041
3421.00,0.0041
3420.00,0.0042
3419.00,0.0042
3418.00,0.0043
3417.00,0.0043
3416.00,0.0043
3415.00,0.0044
3414.00,0.0044
3413.00,0.0044
3412.00,0.0044
3411.00,0.0044
3410.00,0.0044
3409.00,0.0043
3408.00,0.0043
3407.00,0.0043
3406.00,0.0044
3405.00,0.0044
3404.00,0.0044
3403.00,0.0044
3402.00,0.0044
3401.00,0.0044
3400.00,0.0044
3399.00,0.0045
3398.00,0.0045
3397.00,0.0044
3396.00,0.0044
3395.00,0.0044
3394.00,0.0044
3393.00,0.0044
3392.00,0.0044
3391.00,0.0044
3390.00,0.0044
3389.00,0.0044
3388.00,0.0045
3387.00,0.0045
3386.00,0.0045
3385.00,0.0045
3384.00,0.0045
3383.00,0.0045
3382.00,0.0045
3381.00,0.0045
3380.00,0.0045
3379.00,0.0045
3378.00,0.0046
3377.00,0.0046
3376.00,0.0046
3375.00,0.0046
3374.00,0.0046
3373.00,0.0046
3372.00,0.0046
3371.00,0.0046
3370.00,0.0046
3369.00,0.0046
3368.00,0.0046
3367.00,0.0046
3366.00,0.0046
3365.00,0.0046
3364.00,0.0046
3363.00,0.0046
3362.00,0.0046
3361.00,0.0047
3360.00,0.0047
3359.00,0.0047
3358.00,0.0047
3357.00,0.0047
3356.00,0.0048
3355.00,0.0048
3354.00,0.0047
3353.00,0.0047
3352.00,0.0047
3351.00,0.0047
3350.00,0.0046
3349.00,0.0046
3348.00,0.0046
3347.00,0.0046
3346.00,0.0046
3345.00,0.0047
3344.00,0.0047
3343.00,0.0047
3342.00,0.0047
3341.00,0.0047
3340.00,0.0047
3339.00,0.0047
3338.00,0.0047
3337.00,0.0047
3336.00,0.0047
3335.00,0.0047
3334.00,0.0047
3333.00,0.0047
3332.00,0.0047
3331.00,0.0047
3330.00,0.0046
3329.00,0.0046
3328.00,0.0046
3327.00,0.0046
3326.00,0.0046
3325.00,0.0046
3324.00,0.0046
3323.00,0.0046
3322.00,0.0046
3321.00,0.0046
3320.00,0.0046
3319.00,0.0045
3318.00,0.0045
3317.00,0.0045
3316.00,0.0045
3315.00,0.0045
3314.00,0.0045
3313.00,0.0045
3312.00,0.0045
3311.00,0.0045
3310.00,0.0045
3309.00,0.0045
3308.00,0.0045
3307.00,0.0045
3306.00,0.0045
3305.00,0.0045
3304.00,0.0045
3303.00,0.0045
3302.00,0.0045
3301.00,0.0045
3300.00,0.0045
3299.00,0.0045
3298.00,0.0045
3297.00,0.0044
3296.00,0.0044
3295.00,0.0044
3294.00,0.0044
3293.00,0.0044
3292.00,0.0044
3291.00,0.0044
3290.00,0.0043
3289.00,0.0043
3288.00,0.0043
3287.00,0.0043
3286.00,0.0042
3285.00,0.0042
3284.00,0.0042
3283.00,0.0042
3282.00,0.0042
3281.00,0.0042
3280.00,0.0042
3279.00,0.0042
3278.00,0.0043
3277.00,0.0043
3276.00,0.0043
3275.00,0.0043
3274.00,0.0043
3273.00,0.0042
3272.00,0.0042
3271.00,0.0041
3270.00,0.0041
3269.00,0.0041
3268.00,0.0041
3267.00,0.0041
3266.00,0.0041
3265.00,0.0040
3264.00,0.0040
3263.00,0.0040
3262.00,0.0039
3261.00,0.0039
3260.00,0.0039
3259.00,0.0039
3258.00,0.0039
3257.00,0.0039
3256.00,0.0039
3255.00,0.0039
3254.00,0.0039
3253.00,0.0039
3252.00,0.0038
3251.00,0.0038
3250.00,0.0038
3249.00,0.0038
3248.00,0.0037
3247.00,0.0037
3246.00,0.0038
3245.00,0.0038
3244.00,0.0038
3243.00,0.0038
3242.00,0.0038
3241.00,0.0038
3240.00,0.0038
3239.00,0.0038
3238.00,0.0037
3237.00,0.0037
3236.00,0.0037
3235.00,0.0037
3234.00,0.0037
3233.00,0.0038
3232.00,0.0038
3231.00,0.0037
3230.00,0.0037
3229.00,0.0038
3228.00,0.0038
3227.00,0.0039
3226.00,0.0039
3225.00,0.0039
3224.00,0.0040
3223.00,0.0040
3222.00,0.0039
3221.00,0.0039
3220.00,0.0040
3219.00,0.0040
3218.00,0.0041
3217.00,0.0041
3216.00,0.0042
3215.00,0.0042
3214.00,0.0042
3213.00,0.0042
3212.00,0.0042
3211.00,0.0042
3210.00,0.0042
3209.00,0.0042
3208.00,0.0042
3207.00,0.0042
3206.00,0.0043
3205.00,0.0043
3204.00,0.0043
3203.00,0.0044
3202.00,0.0044
3201.00,0.0044
3200.00,0.0045
3199.00,0.0045
3198.00,0.0045
3197.00,0.0045
3196.00,0.0045
3195.00,0.0045
3194.00,0.0045
3193.00,0.0044
3192.00,0.0044
3191.00,0.0044
3190.00,0.0044
3189.00,0.0044
3188.00,0.0044
3187.00,0.0044
3186.00,0.0044
3185.00,0.0044
3184.00,0.0043
3183.00,0.0043
3182.00,0.0043
3181.00,0.0043
3180.00,0.0043
3179.00,0.0043
3178.00,0.0042
3177.00,0.0041
3176.00,0.0041
3175.00,0.0041
3174.00,0.0041
3173.00,0.0040
3172.00,0.0040
3171.00,0.0039
3170.00,0.0039
3169.00,0.0039
3168.00,0.0038
3167.00,0.0038
3166.00,0.0038
3165.00,0.0038
3164.00,0.0038
3163.00,0.0038
3162.00,0.0039
3161.00,0.0039
3160.00,0.0039
3159.00,0.0039
3158.00,0.0039
3157.00,0.0039
3156.00,0.0038
3155.00,0.0038
3154.00,0.0038
3153.00,0.0038
3152.00,0.0038
3151.00,0.0038
3150.00,0.0039
3149.00,0.0039
3148.00,0.0039
3147.00,0.0038
3146.00,0.0038
3145.00,0.0037
3144.00,0.0037
3143.00,0.0037
3142.00,0.0037
3141.00,0.0036
3140.00,0.0036
3139.00,0.0036
3138.00,0.0036
3137.00,0.0036
3136.00,0.0035
3135.00,0.0035
3134.00,0.0035
3133.00,0.0035
3132.00,0.0035
3131.00,0.0035
3130.00,0.0035
3129.00,0.0034
3128.00,0.0034
3127.00,0.0034
3126.00,0.0034
3125.00,0.0034
3124.00,0.0034
3123.00,0.0033
3122.00,0.0033
3121.00,0.0032
3120.00,0.0032
3119.00,0.0032
3118.00,0.0032
3117.00,0.0032
3116.00,0.0032
3115.00,0.0033
3114.00,0.0032
3113.00,0.0032
3112.00,0.0032
3111.00,0.0031
3110.00,0.0031
3109.00,0.0031
3108.00,0.0031
3107.00,0.0031
3106.00,0.0030
3105.00,0.0030
3104.00,0.0030
3103.00,0.0030
3102.00,0.0030
3101.00,0.0030
3100.00,0.0029
3099.00,0.0029
3098.00,0.0029
3097.00,0.0029
3096.00,0.0029
3095.00,0.0029
3094.00,0.0030
3093.00,0.0030
3092.00,0.0029
3091.00,0.0029
3090.00,0.0029
3089.00,0.0028
3088.00,0.0028
3087.00,0.0028
3086.00,0.0028
3085.00,0.0028
3084.00,0.0028
3083.00,0.0028
3082.00,0.0027
3081.00,0.0027
3080.00,0.0027
3079.00,0.0028
3078.00,0.0028
3077.00,0.0028
3076.00,0.0028
3075.00,0.0028
3074.00,0.0028
3073.00,0.0028
3072.00,0.0028
3071.00,0.0028
3070.00,0.0028
3069.00,0.0028
3068.00,0.0028
3067.00,0.0028
3066.00,0.0029
3065.00,0.0029
3064.00,0.0029
3063.00,0.0030
3062.00,0.0030
3061.00,0.0031
3060.00,0.0031
3059.00,0.0031
3058.00,0.0030
3057.00,0.0030
3056.00,0.0030
3055.00,0.0031
3054.00,0.0031
3053.00,0.0031
3052.00,0.0031
3051.00,0.0031
3050.00,0.0031
3049.00,0.0031
3048.00,0.0032
3047.00,0.0032
3046.00,0.0032
3045.00,0.0033
3044.00,0.0033
3043.00,0.0033
3042.00,0.0033
3041.00,0.0034
3040.00,0.0034
3039.00,0.0034
3038.00,0.0035
3037.00,0.0035
3036.00,0.0035
3035.00,0.0035
3034.00,0.0035
3033.00,0.0035
3032.00,0.0036
3031.00,0.0036
3030.00,0.0036
3029.00,0.0037
3028.00,0.0038
3027.00,0.0038
3026.00,0.0039
3025.00,0.0040
3024.00,0.0040
3023.00,0.0041
3022.00,0.0042
3021.00,0.0043
3020.00,0.0044
3019.00,0.0045
3018.00,0.0046
3017.00,0.0046
3016.00,0.0047
3015.00,0.0048
3014.00,0.0049
3013.00,0.0050
3012.00,0.0051
3011.00,0.0053
3010.00,0.0055
3009.00,0.0057
3008.00,0.0059
3007.00,0.0061
3006.00,0.0063
3005.00,0.0065
3004.00,0.0067
3003.00,0.0069
3002.00,0.0071
3001.00,0.0074
3000.00,0.0077
2999.00,0.0080
2998.00,0.0084
2997.00,0.0087
2996.00,0.0092
2995.00,0.0096
2994.00,0.0102
2993.00,0.0108
2992.00,0.0114
2991.00,0.0120
2990.00,0.0128
2989.00,0.0135
2988.00,0.0144
2987.00,0.0154
2986.00,0.0165
2985.00,0.0177
2984.00,0.0191
2983.00,0.0207
2982.00,0.0224
2981.00,0.0244
2980.00,0.0266
2979.00,0.0291
2978.00,0.0320
2977.00,0.0352
2976.00,0.0389
2975.00,0.0431
2974.00,0.0479
2973.00,0.0534
2972.00,0.0596
2971.00,0.0666
2970.00,0.0744
2969.00,0.0830
2968.00,0.0927
2967.00,0.1032
2966.00,0.1146
2965.00,0.1266
2964.00,0.1391
2963.00,0.1516
2962.00,0.1635
2961.00,0.1742
2960.00,0.1831
2959.00,0.1900
2958.00,0.1949
2957.00,0.1979
2956.00,0.1999
2955.00,0.2014
2954.00,0.2027
2953.00,0.2040
2952.00,0.2048
2951.00,0.2046
2950.00,0.2024
2949.00,0.1976
2948.00,0.1899
2947.00,0.1793
2946.00,0.1668
2945.00,0.1534
2944.00,0.1403
2943.00,0.1287
2942.00,0.1193
2941.00,0.1124
2940.00,0.1079
2939.00,0.1058
2938.00,0.1057
2937.00,0.1075
2936.00,0.1108
2935.00,0.1157
2934.00,0.1218
2933.00,0.1290
2932.00,0.1371
2931.00,0.1459
2930.00,0.1552
2929.00,0.1645
2928.00,0.1736
2927.00,0.1822
2926.00,0.1903
2925.00,0.1978
2924.00,0.2049
2923.00,0.2117
2922.00,0.2184
2921.00,0.2247
2920.00,0.2304
2919.00,0.2348
2918.00,0.2374
2917.00,0.2377
2916.00,0.2355
2915.00,0.2312
2914.00,0.2254
2913.00,0.2188
2912.00,0.2121
2911.00,0.2057
2910.00,0.1999
2909.00,0.1946
2908.00,0.1895
2907.00,0.1845
2906.00,0.1792
2905.00,0.1735
2904.00,0.1673
2903.00,0.1607
2902.00,0.1539
2901.00,0.1469
2900.00,0.1401
2899.00,0.1336
2898.00,0.1276
2897.00,0.1221
2896.00,0.1172
2895.00,0.1131
2894.00,0.1097
2893.00,0.1070
2892.00,0.1049
2891.00,0.1035
2890.00,0.1026
2889.00,0.1022
2888.00,0.1023
2887.00,0.1027
2886.00,0.1035
2885.00,0.1046
2884.00,0.1060
2883.00,0.1078
2882.00,0.1099
2881.00,0.1122
2880.00,0.1143
2879.00,0.1161
2878.00,0.1172
2877.00,0.1174
2876.00,0.1169
2875.00,0.1160
2874.00,0.1152
2873.00,0.1149
2872.00,0.1153
2871.00,0.1164
2870.00,0.1180
2869.00,0.1196
2868.00,0.1206
2867.00,0.1200
2866.00,0.1174
2865.00,0.1125
2864.00,0.1055
2863.00,0.0971
2862.00,0.0884
2861.00,0.0803
2860.00,0.0732
2859.00,0.0675
2858.00,0.0632
2857.00,0.0601
2856.00,0.0581
2855.00,0.0570
2854.00,0.0567
2853.00,0.0571
2852.00,0.0582
2851.00,0.0599
2850.00,0.0622
2849.00,0.0653
2848.00,0.0690
2847.00,0.0737
2846.00,0.0792
2845.00,0.0857
2844.00,0.0931
2843.00,0.1010
2842.00,0.1092
2841.00,0.1170
2840.00,0.1235
2839.00,0.1277
2838.00,0.1288
2837.00,0.1263
2836.00,0.1201
2835.00,0.1108
2834.00,0.0998
2833.00,0.0881
2832.00,0.0769
2831.00,0.0669
2830.00,0.0585
2829.00,0.0516
2828.00,0.0460
2827.00,0.0415
2826.00,0.0379
2825.00,0.0349
2824.00,0.0324
2823.00,0.0303
2822.00,0.0284
2821.00,0.0268
2820.00,0.0254
2819.00,0.0242
2818.00,0.0231
2817.00,0.0222
2816.00,0.0214
2815.00,0.0207
2814.00,0.0201
2813.00,0.0195
2812.00,0.0189
2811.00,0.0184
2810.00,0.0179
2809.00,0.0174
2808.00,0.0168
2807.00,0.0162
2806.00,0.0156
2805.00,0.0149
2804.00,0.0143
2803.00,0.0137
2802.00,0.0131
2801.00,0.0126
2800.00,0.0122
2799.00,0.0119
2798.00,0.0117
2797.00,0.0115
2796.00,0.0113
2795.00,0.0111
2794.00,0.0108
2793.00,0.0105
2792.00,0.0102
2791.00,0.0098
2790.00,0.0094
2789.00,0.0091
2788.00,0.0087
2787.00,0.0084
2786.00,0.0081
2785.00,0.0078
2784.00,0.0075
2783.00,0.0073
2782.00,0.0070
2781.00,0.0068
2780.00,0.0067
2779.00,0.0065
2778.00,0.0063
2777.00,0.0061
2776.00,0.0060
2775.00,0.0059
2774.00,0.0058
2773.00,0.0057
2772.00,0.0057
2771.00,0.0056
2770.00,0.0056
2769.00,0.0055
2768.00,0.0055
2767.00,0.0055
2766.00,0.0054
2765.00,0.0054
2764.00,0.0054
2763.00,0.0053
2762.00,0.0053
2761.00,0.0053
2760.00,0.0053
2759.00,0.0052
2758.00,0.0052
2757.00,0.0051
2756.00,0.0051
2755.00,0.0051
2754.00,0.0050
2753.00,0.0051
2752.00,0.0051
2751.00,0.0051
2750.00,0.0051
2749.00,0.0051
2748.00,0.0051
2747.00,0.0052
2746.00,0.0052
2745.00,0.0052
2744.00,0.0053
2743.00,0.0054
2742.00,0.0055
2741.00,0.0056
2740.00,0.0058
2739.00,0.0059
2738.00,0.0061
2737.00,0.0062
2736.00,0.0063
2735.00,0.0064
2734.00,0.0066
2733.00,0.0067
2732.00,0.0069
2731.00,0.0071
2730.00,0.0073
2729.00,0.0076
2728.00,0.0078
2727.00,0.0081
2726.00,0.0083
2725.00,0.0085
2724.00,0.0087
2723.00,0.0087
2722.00,0.0086
2721.00,0.0085
2720.00,0.0082
2719.00,0.0078
2718.00,0.0075
2717.00,0.0072
2716.00,0.0069
2715.00,0.0066
2714.00,0.0064
2713.00,0.0062
2712.00,0.0060
2711.00,0.0058
2710.00,0.0057
2709.00,0.0056
2708.00,0.0055
2707.00,0.0054
2706.00,0.0052
2705.00,0.0051
2704.00,0.0050
2703.00,0.0049
2702.00,0.0049
2701.00,0.0048
2700.00,0.0047
2699.00,0.0046
2698.00,0.0046
2697.00,0.0045
2696.00,0.0045
2695.00,0.0045
2694.00,0.0045
2693.00,0.0045
2692.00,0.0045
2691.00,0.0045
2690.00,0.0045
2689.00,0.0045
2688.00,0.0045
2687.00,0.0045
2686.00,0.0045
2685.00,0.0045
2684.00,0.0045
2683.00,0.0045
2682.00,0.0045
2681.00,0.0045
2680.00,0.0045
2679.00,0.0045
2678.00,0.0045
2677.00,0.0045
2676.00,0.0045
2675.00,0.0045
2674.00,0.0044
2673.00,0.0044
2672.00,0.0044
2671.00,0.0043
2670.00,0.0043
2669.00,0.0043
2668.00,0.0043
2667.00,0.0043
2666.00,0.0044
2665.00,0.0045
2664.00,0.0045
2663.00,0.0046
2662.00,0.0046
2661.00,0.0046
2660.00,0.0047
2659.00,0.0047
2658.00,0.0047
2657.00,0.0046
2656.00,0.0046
2655.00,0.0045
2654.00,0.0045
2653.00,0.0044
2652.00,0.0044
2651.00,0.0043
2650.00,0.0043
2649.00,0.0043
2648.00,0.0043
2647.00,0.0043
2646.00,0.0043
2645.00,0.0042
2644.00,0.0042
2643.00,0.0042
2642.00,0.0041
2641.00,0.0040
2640.00,0.0040
2639.00,0.0039
2638.00,0.0038
2637.00,0.0038
2636.00,0.0037
2635.00,0.0037
2634.00,0.0037
2633.00,0.0037
2632.00,0.0038
2631.00,0.0038
2630.00,0.0038
2629.00,0.0038
2628.00,0.0038
2627.00,0.0038
2626.00,0.0038
2625.00,0.0038
2624.00,0.0038
2623.00,0.0038
2622.00,0.0039
2621.00,0.0039
2620.00,0.0040
2619.00,0.0040
2618.00,0.0041
2617.00,0.0041
2616.00,0.0040
2615.00,0.0040
2614.00,0.0039
2613.00,0.0039
2612.00,0.0039
2611.00,0.0038
2610.00,0.0037
2609.00,0.0036
2608.00,0.0035
2607.00,0.0034
2606.00,0.0034
2605.00,0.0033
2604.00,0.0032
2603.00,0.0032
2602.00,0.0032
2601.00,0.0032
2600.00,0.0031
2599.00,0.0031
2598.00,0.0031
2597.00,0.0030
2596.00,0.0030
2595.00,0.0030
2594.00,0.0031
2593.00,0.0032
2592.00,0.0032
2591.00,0.0033
2590.00,0.0033
2589.00,0.0034
2588.00,0.0035
2587.00,0.0036
2586.00,0.0037
2585.00,0.0038
2584.00,0.0039
2583.00,0.0039
2582.00,0.0039
2581.00,0.0038
2580.00,0.0037
2579.00,0.0036
2578.00,0.0035
2577.00,0.0035
2576.00,0.0034
2575.00,0.0033
2574.00,0.0032
2573.00,0.0032
2572.00,0.0031
2571.00,0.0029
2570.00,0.0028
2569.00,0.0027
2568.00,0.0027
2567.00,0.0026
2566.00,0.0024
2565.00,0.0023
2564.00,0.0022
2563.00,0.0022
2562.00,0.0022
2561.00,0.0022
2560.00,0.0023
2559.00,0.0023
2558.00,0.0023
2557.00,0.0023
2556.00,0.0023
2555.00,0.0022
2554.00,0.0022
2553.00,0.0021
2552.00,0.0021
2551.00,0.0020
2550.00,0.0020
2549.00,0.0020
2548.00,0.0019
2547.00,0.0019
2546.00,0.0018
2545.00,0.0017
2544.00,0.0016
2543.00,0.0016
2542.00,0.0016
2541.00,0.0016
2540.00,0.0016
2539.00,0.0016
2538.00,0.0016
2537.00,0.0017
2536.00,0.0017
2535.00,0.0016
2534.00,0.0016
2533.00,0.0015
2532.00,0.0015
2531.00,0.0015
2530.00,0.0015
2529.00,0.0014
2528.00,0.0014
2527.00,0.0014
2526.00,0.0014
2525.00,0.0014
2524.00,0.0014
2523.00,0.0014
2522.00,0.0014
2521.00,0.0013
2520.00,0.0012
2519.00,0.0012
2518.00,0.0011
2517.00,0.0011
2516.00,0.0010
2515.00,0.0010
2514.00,0.0010
2513.00,0.0010
2512.00,0.0010
2511.00,0.0010
2510.00,0.0011
2509.00,0.0011
2508.00,0.0012
2507.00,0.0011
2506.00,0.0010
2505.00,0.0009
2504.00,0.0009
2503.00,0.0009
2502.00,0.0009
2501.00,0.0010
2500.00,0.0010
2499.00,0.0011
2498.00,0.0011
2497.00,0.0011
2496.00,0.0011
2495.00,0.0011
2494.00,0.0010
2493.00,0.0010
2492.00,0.0009
2491.00,0.0009
2490.00,0.0009
2489.00,0.0009
2488.00,0.0009
2487.00,0.0009
2486.00,0.0009
2485.00,0.0009
2484.00,0.0008
2483.00,0.0008
2482.00,0.0008
2481.00,0.0008
2480.00,0.0008
2479.00,0.0008
2478.00,0.0008
2477.00,0.0009
2476.00,0.0009
2475.00,0.0009
2474.00,0.0009
2473.00,0.0009
2472.00,0.0009
2471.00,0.0009
2470.00,0.0008
2469.00,0.0008
2468.00,0.0008
2467.00,0.0008
2466.00,0.0008
2465.00,0.0008
2464.00,0.0008
2463.00,0.0009
2462.00,0.0009
2461.00,0.0009
2460.00,0.0010
2459.00,0.0010
2458.00,0.0010
2457.00,0.0010
2456.00,0.0010
2455.00,0.0010
2454.00,0.0010
2453.00,0.0011
2452.00,0.0011
2451.00,0.0010
2450.00,0.0010
2449.00,0.0010
2448.00,0.0010
2447.00,0.0010
2446.00,0.0010
2445.00,0.0010
2444.00,0.0010
2443.00,0.0010
2442.00,0.0009
2441.00,0.0010
2440.00,0.0010
2439.00,0.0010
2438.00,0.0011
2437.00,0.0011
2436.00,0.0011
2435.00,0.0012
2434.00,0.0012
2433.00,0.0012
2432.00,0.0012
2431.00,0.0012
2430.00,0.0012
2429.00,0.0012
2428.00,0.0011
2427.00,0.0011
2426.00,0.0011
2425.00,0.0011
2424.00,0.0012
2423.00,0.0012
2422.00,0.0012
2421.00,0.0011
2420.00,0.0011
2419.00,0.0010
2418.00,0.0010
2417.00,0.0009
2416.00,0.0009
2415.00,0.0009
2414.00,0.0009
2413.00,0.0008
2412.00,0.0008
2411.00,0.0008
2410.00,0.0008
2409.00,0.0009
2408.00,0.0009
2407.00,0.0008
2406.00,0.0008
2405.00,0.0008
2404.00,0.0008
2403.00,0.0008
2402.00,0.0008
2401.00,0.0008
2400.00,0.0009
2399.00,0.0010
2398.00,0.0010
2397.00,0.0010
2396.00,0.0009
2395.00,0.0008
2394.00,0.0008
2393.00,0.0007
2392.00,0.0007
2391.00,0.0008
2390.00,0.0008
2389.00,0.0008
2388.00,0.0008
2387.00,0.0007
2386.00,0.0006
2385.00,0.0006
2384.00,0.0005
2383.00,0.0005
2382.00,0.0005
2381.00,0.0004
2380.00,0.0004
2379.00,0.0003
2378.00,0.0003
2377.00,0.0003
2376.00,0.0004
2375.00,0.0005
2374.00,0.0005
2373.00,0.0005
2372.00,0.0005
2371.00,0.0005
2370.00,0.0004
2369.00,0.0004
2368.00,0.0004
2367.00,0.0004
2366.00,0.0004
2365.00,0.0004
2364.00,0.0004
2363.00,0.0005
2362.00,0.0005
2361.00,0.0006
2360.00,0.0007
2359.00,0.0007
2358.00,0.0007
2357.00,0.0007
2356.00,0.0007
2355.00,0.0007
2354.00,0.0007
2353.00,0.0006
2352.00,0.0005
2351.00,0.0005
2350.00,0.0006
2349.00,0.0006
2348.00,0.0006
2347.00,0.0006
2346.00,0.0006
2345.00,0.0006
2344.00,0.0007
2343.00,0.0007
2342.00,0.0008
2341.00,0.0008
2340.00,0.0008
2339.00,0.0008
2338.00,0.0008
2337.00,0.0008
2336.00,0.0008
2335.00,0.0008
2334.00,0.0008
2333.00,0.0008
2332.00,0.0007
2331.00,0.0007
2330.00,0.0007
2329.00,0.0008
2328.00,0.0010
2327.00,0.0013
2326.00,0.0017
2325.00,0.0020
2324.00,0.0021
2323.00,0.0020
2322.00,0.0018
2321.00,0.0016
2320.00,0.0014
2319.00,0.0013
2318.00,0.0012
2317.00,0.0012
2316.00,0.0011
2315.00,0.0010
2314.00,0.0009
2313.00,0.0009
2312.00,0.0008
2311.00,0.0008
2310.00,0.0008
2309.00,0.0008
2308.00,0.0008
2307.00,0.0008
2306.00,0.0008
2305.00,0.0008
2304.00,0.0009
2303.00,0.0009
2302.00,0.0009
2301.00,0.0009
2300.00,0.0009
2299.00,0.0010
2298.00,0.0012
2297.00,0.0012
2296.00,0.0012
2295.00,0.0012
2294.00,0.0012
2293.00,0.0013
2292.00,0.0014
2291.00,0.0016
2290.00,0.0017
2289.00,0.0018
2288.00,0.0019
2287.00,0.0019
2286.00,0.0020
2285.00,0.0019
2284.00,0.0018
2283.00,0.0017
2282.00,0.0015
2281.00,0.0014
2280.00,0.0013
2279.00,0.0013
2278.00,0.0014
2277.00,0.0014
2276.00,0.0015
2275.00,0.0015
2274.00,0.0014
2273.00,0.0014
2272.00,0.0014
2271.00,0.0014
2270.00,0.0014
2269.00,0.0014
2268.00,0.0013
2267.00,0.0012
2266.00,0.0011
2265.00,0.0010
2264.00,0.0010
2263.00,0.0010
2262.00,0.0010
2261.00,0.0011
2260.00,0.0012
2259.00,0.0013
2258.00,0.0013
2257.00,0.0013
2256.00,0.0012
2255.00,0.0011
2254.00,0.0010
2253.00,0.0009
2252.00,0.0009
2251.00,0.0008
2250.00,0.0007
2249.00,0.0007
2248.00,0.0008
2247.00,0.0008
2246.00,0.0009
2245.00,0.0010
2244.00,0.0010
2243.00,0.0009
2242.00,0.0008
2241.00,0.0008
2240.00,0.0007
2239.00,0.0007
2238.00,0.0006
2237.00,0.0006
2236.00,0.0007
2235.00,0.0007
2234.00,0.0008
2233.00,0.0007
2232.00,0.0006
2231.00,0.0005
2230.00,0.0005
2229.00,0.0005
2228.00,0.0005
2227.00,0.0005
2226.00,0.0005
2225.00,0.0005
2224.00,0.0006
2223.00,0.0007
2222.00,0.0008
2221.00,0.0009
2220.00,0.0009
2219.00,0.0008
2218.00,0.0007
2217.00,0.0006
2216.00,0.0005
2215.00,0.0003
2214.00,0.0002
2213.00,0.0001
2212.00,0.0000
2211.00,0.0000
2210.00,0.0001
2209.00,0.0002
2208.00,0.0002
2207.00,0.0002
2206.00,0.0003
2205.00,0.0004
2204.00,0.0005
2203.00,0.0006
2202.00,0.0007
2201.00,0.0007
2200.00,0.0008
2199.00,0.0007
2198.00,0.0006
2197.00,0.0005
2196.00,0.0006
2195.00,0.0008
2194.00,0.0010
2193.00,0.0012
2192.00,0.0012
2191.00,0.0011
2190.00,0.0010
2189.00,0.0012
2188.00,0.0015
2187.00,0.0017
2186.00,0.0019
2185.00,0.0019
2184.00,0.0017
2183.00,0.0013
2182.00,0.0007
2181.00,0.0003
2180.00,0.0002
2179.00,0.0004
2178.00,0.0005
2177.00,0.0005
2176.00,0.0003
2175.00,0.0003
2174.00,0.0006
2173.00,0.0009
2172.00,0.0012
2171.00,0.0012
2170.00,0.0013
2169.00,0.0014
2168.00,0.0016
2167.00,0.0017
2166.00,0.0018
2165.00,0.0018
2164.00,0.0018
2163.00,0.0019
2162.00,0.0017
2161.00,0.0011
2160.00,0.0000
2159.00,-0.0012
2158.00,-0.0021
2157.00,-0.0024
2156.00,-0.0024
2155.00,-0.0021
2154.00,-0.0020
2153.00,-0.0019
2152.00,-0.0018
2151.00,-0.0017
2150.00,-0.0015
2149.00,-0.0013
2148.00,-0.0012
2147.00,-0.0014
2146.00,-0.0016
2145.00,-0.0017
2144.00,-0.0016
2143.00,-0.0014
2142.00,-0.0012
2141.00,-0.0011
2140.00,-0.0010
2139.00,-0.0009
2138.00,-0.0009
2137.00,-0.0008
2136.00,-0.0008
2135.00,-0.0011
2134.00,-0.0013
2133.00,-0.0015
2132.00,-0.0016
2131.00,-0.0016
2130.00,-0.0015
2129.00,-0.0013
2128.00,-0.0011
2127.00,-0.0009
2126.00,-0.0007
2125.00,-0.0007
2124.00,-0.0007
2123.00,-0.0006
2122.00,-0.0006
2121.00,-0.0005
2120.00,-0.0004
2119.00,-0.0004
2118.00,-0.0003
2117.00,-0.0002
2116.00,0.0000
2115.00,0.0002
2114.00,0.0002
2113.00,0.0002
2112.00,0.0001
2111.00,0.0000
2110.00,0.0001
2109.00,0.0002
2108.00,0.0002
2107.00,0.0002
2106.00,0.0002
2105.00,0.0002
2104.00,0.0001
2103.00,0.0001
2102.00,0.0000
2101.00,0.0000
2100.00,0.0001
2099.00,0.0002
2098.00,0.0001
2097.00,0.0000
2096.00,-0.0002
2095.00,-0.0003
2094.00,-0.0004
2093.00,-0.0004
2092.00,-0.0003
2091.00,-0.0003
2090.00,-0.0003
2089.00,-0.0003
2088.00,-0.0003
2087.00,-0.0002
2086.00,-0.0001
2085.00,0.0001
2084.00,0.0003
2083.00,0.0004
2082.00,0.0006
2081.00,0.0007
2080.00,0.0007
2079.00,0.0007
2078.00,0.0005
2077.00,0.0004
2076.00,0.0003
2075.00,0.0003
2074.00,0.0003
2073.00,0.0003
2072.00,0.0003
2071.00,0.0003
2070.00,0.0003
2069.00,0.0003
2068.00,0.0002
2067.00,0.0001
2066.00,0.0000
2065.00,0.0001
2064.00,0.0001
2063.00,0.0002
2062.00,0.0001
2061.00,0.0000
2060.00,-0.0000
2059.00,-0.0000
2058.00,-0.0000
2057.00,0.0001
2056.00,0.0001
2055.00,0.0002
2054.00,0.0004
2053.00,0.0008
2052.00,0.0012
2051.00,0.0015
2050.00,0.0014
2049.00,0.0010
2048.00,0.0007
2047.00,0.0004
2046.00,0.0003
2045.00,0.0002
2044.00,0.0001
2043.00,-0.0001
2042.00,-0.0003
2041.00,-0.0005
2040.00,-0.0005
2039.00,-0.0004
2038.00,-0.0001
2037.00,0.0001
2036.00,0.0002
2035.00,0.0001
2034.00,-0.0000
2033.00,-0.0001
2032.00,-0.0002
2031.00,-0.0003
2030.00,-0.0004
2029.00,-0.0004
2028.00,-0.0003
2027.00,-0.0003
2026.00,-0.0004
2025.00,-0.0005
2024.00,-0.0005
2023.00,-0.0005
2022.00,-0.0006
2021.00,-0.0007
2020.00,-0.0009
2019.00,-0.0011
2018.00,-0.0012
2017.00,-0.0012
2016.00,-0.0010
2015.00,-0.0007
2014.00,-0.0005
2013.00,-0.0005
2012.00,-0.0007
2011.00,-0.0010
2010.00,-0.0011
2009.00,-0.0011
2008.00,-0.0011
2007.00,-0.0012
2006.00,-0.0014
2005.00,-0.0015
2004.00,-0.0015
2003.00,-0.0014
2002.00,-0.0014
2001.00,-0.0013
2000.00,-0.0013
1999.00,-0.0013
1998.00,-0.0013
1997.00,-0.0013
1996.00,-0.0013
1995.00,-0.0013
1994.00,-0.0012
1993.00,-0.0010
1992.00,-0.0007
1991.00,-0.0006
1990.00,-0.0006
1989.00,-0.0007
1988.00,-0.0006
1987.00,-0.0004
1986.00,-0.0003
1985.00,-0.0001
1984.00,-0.0001
1983.00,0.0000
1982.00,0.0003
1981.00,0.0006
1980.00,0.0006
1979.00,0.0002
1978.00,-0.0006
1977.00,-0.0013
1976.00,-0.0016
1975.00,-0.0016
1974.00,-0.0015
1973.00,-0.0013
1972.00,-0.0010
1971.00,-0.0010
1970.00,-0.0011
1969.00,-0.0015
1968.00,-0.0017
1967.00,-0.0019
1966.00,-0.0018
1965.00,-0.0017
1964.00,-0.0016
1963.00,-0.0016
1962.00,-0.0015
1961.00,-0.0015
1960.00,-0.0016
1959.00,-0.0018
1958.00,-0.0021
1957.00,-0.0022
1956.00,-0.0022
1955.00,-0.0022
1954.00,-0.0021
1953.00,-0.0020
1952.00,-0.0019
1951.00,-0.0018
1950.00,-0.0018
1949.00,-0.0016
1948.00,-0.0015
1947.00,-0.0016
1946.00,-0.0017
1945.00,-0.0020
1944.00,-0.0022
1943.00,-0.0022
1942.00,-0.0020
1941.00,-0.0018
1940.00,-0.0016
1939.00,-0.0015
1938.00,-0.0015
1937.00,-0.0013
1936.00,-0.0012
1935.00,-0.0012
1934.00,-0.0014
1933.00,-0.0015
1932.00,-0.0016
1931.00,-0.0015
1930.00,-0.0013
1929.00,-0.0010
1928.00,-0.0009
1927.00,-0.0008
1926.00,-0.0009
1925.00,-0.0009
1924.00,-0.0008
1923.00,-0.0008
1922.00,-0.0007
1921.00,-0.0005
1920.00,-0.0004
1919.00,-0.0003
1918.00,-0.0003
1917.00,-0.0003
1916.00,-0.0003
1915.00,-0.0004
1914.00,-0.0004
1913.00,-0.0005
1912.00,-0.0004
1911.00,-0.0004
1910.00,-0.0004
1909.00,-0.0004
1908.00,-0.0004
1907.00,-0.0004
1906.00,-0.0004
1905.00,-0.0005
1904.00,-0.0005
1903.00,-0.0006
1902.00,-0.0006
1901.00,-0.0005
1900.00,-0.0003
1899.00,-0.0002
1898.00,-0.0002
1897.00,-0.0002
1896.00,-0.0003
1895.00,-0.0004
1894.00,-0.0004
1893.00,-0.0004
1892.00,-0.0003
1891.00,-0.0002
1890.00,-0.0002
1889.00,-0.0002
1888.00,-0.0003
1887.00,-0.0003
1886.00,-0.0003
1885.00,-0.0003
1884.00,-0.0002
1883.00,-0.0003
1882.00,-0.0003
1881.00,-0.0003
1880.00,-0.0003
1879.00,-0.0003
1878.00,-0.0003
1877.00,-0.0004
1876.00,-0.0004
1875.00,-0.0004
1874.00,-0.0004
1873.00,-0.0003
1872.00,-0.0003
1871.00,-0.0003
1870.00,-0.0004
1869.00,-0.0004
1868.00,-0.0003
1867.00,-0.0002
1866.00,-0.0001
1865.00,-0.0001
1864.00,-0.0000
1863.00,0.0000
1862.00,0.0000
1861.00,-0.0000
1860.00,-0.0001
1859.00,-0.0001
1858.00,-0.0002
1857.00,-0.0001
1856.00,-0.0001
1855.00,-0.0000
1854.00,-0.0000
1853.00,-0.0001
1852.00,-0.0001
1851.00,-0.0001
1850.00,-0.0000
1849.00,-0.0000
1848.00,-0.0000
1847.00,-0.0000
1846.00,-0.0001
1845.00,-0.0000
1844.00,0.0001
1843.00,0.0001
1842.00,0.0001
1841.00,-0.0000
1840.00,-0.0001
1839.00,-0.0001
1838.00,-0.0000
1837.00,-0.0000
1836.00,0.0000
1835.00,0.0000
1834.00,-0.0000
1833.00,0.0000
1832.00,0.0001
1831.00,0.0001
1830.00,0.0002
1829.00,0.0002
1828.00,0.0003
1827.00,0.0003
1826.00,0.0004
1825.00,0.0004
1824.00,0.0004
1823.00,0.0003
1822.00,0.0002
1821.00,0.0002
1820.00,0.0001
1819.00,-0.0001
1818.00,-0.0002
1817.00,-0.0003
1816.00,-0.0002
1815.00,-0.0001
1814.00,-0.0000
1813.00,0.0000
1812.00,0.0001
1811.00,0.0001
1810.00,0.0001
1809.00,0.0001
1808.00,0.0002
1807.00,0.0002
1806.00,0.0003
1805.00,0.0003
1804.00,0.0004
1803.00,0.0004
1802.00,0.0004
1801.00,0.0004
1800.00,0.0004
1799.00,0.0004
1798.00,0.0004
1797.00,0.0004
1796.00,0.0004
1795.00,0.0004
1794.00,0.0005
1793.00,0.0005
1792.00,0.0006
1791.00,0.0007
1790.00,0.0006
1789.00,0.0006
1788.00,0.0006
1787.00,0.0007
1786.00,0.0007
1785.00,0.0007
1784.00,0.0007
1783.00,0.0007
1782.00,0.0007
1781.00,0.0007
1780.00,0.0007
1779.00,0.0006
1778.00,0.0006
1777.00,0.0006
1776.00,0.0006
1775.00,0.0006
1774.00,0.0007
1773.00,0.0007
1772.00,0.0007
1771.00,0.0008
1770.00,0.0008
1769.00,0.0009
1768.00,0.0009
1767.00,0.0009
1766.00,0.0009
1765.00,0.0009
1764.00,0.0009
1763.00,0.0010
1762.00,0.0011
1761.00,0.0012
1760.00,0.0012
1759.00,0.0012
1758.00,0.0012
1757.00,0.0012
1756.00,0.0012
1755.00,0.0012
1754.00,0.0012
1753.00,0.0013
1752.00,0.0013
1751.00,0.0014
1750.00,0.0014
1749.00,0.0014
1748.00,0.0015
1747.00,0.0015
1746.00,0.0015
1745.00,0.0015
1744.00,0.0016
1743.00,0.0016
1742.00,0.0017
1741.00,0.0018
1740.00,0.0020
1739.00,0.0021
1738.00,0.0020
1737.00,0.0020
1736.00,0.0019
1735.00,0.0019
1734.00,0.0019
1733.00,0.0019
1732.00,0.0019
1731.00,0.0018
1730.00,0.0018
1729.00,0.0018
1728.00,0.0019
1727.00,0.0019
1726.00,0.0019
1725.00,0.0019
1724.00,0.0020
1723.00,0.0020
1722.00,0.0019
1721.00,0.0019
1720.00,0.0018
1719.00,0.0017
1718.00,0.0017
1717.00,0.0018
1716.00,0.0019
1715.00,0.0020
1714.00,0.0021
1713.00,0.0021
1712.00,0.0021
1711.00,0.0021
1710.00,0.0021
1709.00,0.0021
1708.00,0.0021
1707.00,0.0021
1706.00,0.0021
1705.00,0.0021
1704.00,0.0021
1703.00,0.0021
1702.00,0.0021
1701.00,0.0022
1700.00,0.0022
1699.00,0.0022
1698.00,0.0023
1697.00,0.0023
1696.00,0.0025
1695.00,0.0025
1694.00,0.0026
1693.00,0.0026
1692.00,0.0026
1691.00,0.0026
1690.00,0.0026
1689.00,0.0027
1688.00,0.0027
1687.00,0.0026
1686.00,0.0026
1685.00,0.0027
1684.00,0.0028
1683.00,0.0029
1682.00,0.0030
1681.00,0.0031
1680.00,0.0031
1679.00,0.0032
1678.00,0.0033
1677.00,0.0034
1676.00,0.0035
1675.00,0.0036
1674.00,0.0037
1673.00,0.0037
1672.00,0.0038
1671.00,0.0039
1670.00,0.0039
1669.00,0.0040
1668.00,0.0040
1667.00,0.0040
1666.00,0.0040
1665.00,0.0040
1664.00,0.0040
1663.00,0.0041
1662.00,0.0041
1661.00,0.0042
1660.00,0.0043
1659.00,0.0044
1658.00,0.0044
1657.00,0.0045
1656.00,0.0046
1655.00,0.0046
1654.00,0.0047
1653.00,0.0049
1652.00,0.0050
1651.00,0.0050
1650.00,0.0051
1649.00,0.0051
1648.00,0.0052
1647.00,0.0054
1646.00,0.0055
1645.00,0.0055
1644.00,0.0055
1643.00,0.0055
1642.00,0.0055
1641.00,0.0055
1640.00,0.0055
1639.00,0.0056
1638.00,0.0055
1637.00,0.0055
1636.00,0.0056
1635.00,0.0056
1634.00,0.0056
1633.00,0.0056
1632.00,0.0056
1631.00,0.0056
1630.00,0.0056
1629.00,0.0055
1628.00,0.0055
1627.00,0.0055
1626.00,0.0055
1625.00,0.0055
1624.00,0.0054
1623.00,0.0054
1622.00,0.0053
1621.00,0.0053
1620.00,0.0053
1619.00,0.0052
1618.00,0.0053
1617.00,0.0053
1616.00,0.0053
1615.00,0.0053
1614.00,0.0053
1613.00,0.0053
1612.00,0.0053
1611.00,0.0053
1610.00,0.0052
1609.00,0.0052
1608.00,0.0052
1607.00,0.0053
1606.00,0.0053
1605.00,0.0053
1604.00,0.0052
1603.00,0.0052
1602.00,0.0051
1601.00,0.0051
1600.00,0.0051
1599.00,0.0051
1598.00,0.0051
1597.00,0.0051
1596.00,0.0051
1595.00,0.0051
1594.00,0.0051
1593.00,0.0051
1592.00,0.0051
1591.00,0.0051
1590.00,0.0051
1589.00,0.0051
1588.00,0.0052
1587.00,0.0053
1586.00,0.0054
1585.00,0.0055
1584.00,0.0057
1583.00,0.0058
1582.00,0.0059
1581.00,0.0061
1580.00,0.0063
1579.00,0.0063
1578.00,0.0064
1577.00,0.0064
1576.00,0.0064
1575.00,0.0064
1574.00,0.0063
1573.00,0.0063
1572.00,0.0062
1571.00,0.0061
1570.00,0.0059
1569.00,0.0059
1568.00,0.0058
1567.00,0.0058
1566.00,0.0058
1565.00,0.0059
1564.00,0.0059
1563.00,0.0059
1562.00,0.0059
1561.00,0.0060
1560.00,0.0060
1559.00,0.0060
1558.00,0.0060
1557.00,0.0060
1556.00,0.0061
1555.00,0.0062
1554.00,0.0062
1553.00,0.0063
1552.00,0.0064
1551.00,0.0065
1550.00,0.0066
1549.00,0.0068
1548.00,0.0069
1547.00,0.0071
1546.00,0.0072
1545.00,0.0074
1544.00,0.0076
1543.00,0.0077
1542.00,0.0078
1541.00,0.0077
1540.00,0.0077
1539.00,0.0075
1538.00,0.0074
1537.00,0.0073
1536.00,0.0072
1535.00,0.0070
1534.00,0.0067
1533.00,0.0065
1532.00,0.0063
1531.00,0.0062
1530.00,0.0061
1529.00,0.0060
1528.00,0.0059
1527.00,0.0058
1526.00,0.0056
1525.00,0.0056
1524.00,0.0055
1523.00,0.0055
1522.00,0.0054
1521.00,0.0054
1520.00,0.0055
1519.00,0.0055
1518.00,0.0055
1517.00,0.0055
1516.00,0.0056
1515.00,0.0056
1514.00,0.0056
1513.00,0.0057
1512.00,0.0058
1511.00,0.0059
1510.00,0.0060
1509.00,0.0061
1508.00,0.0062
1507.00,0.0062
1506.00,0.0062
1505.00,0.0064
1504.00,0.0065
1503.00,0.0067
1502.00,0.0068
1501.00,0.0071
1500.00,0.0074
1499.00,0.0077
1498.00,0.0080
1497.00,0.0084
1496.00,0.0088
1495.00,0.0092
1494.00,0.0095
1493.00,0.0099
1492.00,0.0102
1491.00,0.0105
1490.00,0.0107
1489.00,0.0111
1488.00,0.0116
1487.00,0.0121
1486.00,0.0127
1485.00,0.0133
1484.00,0.0140
1483.00,0.0147
1482.00,0.0156
1481.00,0.0168
1480.00,0.0180
1479.00,0.0193
1478.00,0.0207
1477.00,0.0226
1476.00,0.0248
1475.00,0.0272
1474.00,0.0305
1473.00,0.0356
1472.00,0.0418
1471.00,0.0480
1470.00,0.0540
1469.00,0.0602
1468.00,0.0669
1467.00,0.0744
1466.00,0.0829
1465.00,0.0924
1464.00,0.1009
1463.00,0.1072
1462.00,0.1115
1461.00,0.1149
1460.00,0.1175
1459.00,0.1197
1458.00,0.1221
1457.00,0.1246
1456.00,0.1263
1455.00,0.1269
1454.00,0.1268
1453.00,0.1262
1452.00,0.1245
1451.00,0.1215
1450.00,0.1166
1449.00,0.1093
1448.00,0.0996
1447.00,0.0889
1446.00,0.0792
1445.00,0.0708
1444.00,0.0636
1443.00,0.0577
1442.00,0.0532
1441.00,0.0502
1440.00,0.0483
1439.00,0.0473
1438.00,0.0469
1437.00,0.0463
1436.00,0.0446
1435.00,0.0416
1434.00,0.0377
1433.00,0.0332
1432.00,0.0286
1431.00,0.0246
1430.00,0.0216
1429.00,0.0193
1428.00,0.0177
1427.00,0.0168
1426.00,0.0162
1425.00,0.0156
1424.00,0.0150
1423.00,0.0147
1422.00,0.0145
1421.00,0.0143
1420.00,0.0140
1419.00,0.0138
1418.00,0.0136
1417.00,0.0133
1416.00,0.0130
1415.00,0.0128
1414.00,0.0127
1413.00,0.0125
1412.00,0.0123
1411.00,0.0122
1410.00,0.0122
1409.00,0.0121
1408.00,0.0120
1407.00,0.0120
1406.00,0.0120
1405.00,0.0120
1404.00,0.0120
1403.00,0.0120
1402.00,0.0122
1401.00,0.0123
1400.00,0.0124
1399.00,0.0126
1398.00,0.0128
1397.00,0.0130
1396.00,0.0132
1395.00,0.0136
1394.00,0.0141
1393.00,0.0147
1392.00,0.0153
1391.00,0.0162
1390.00,0.0175
1389.00,0.0193
1388.00,0.0220
1387.00,0.0260
1386.00,0.0313
1385.00,0.0379
1384.00,0.0465
1383.00,0.0577
1382.00,0.0722
1381.00,0.0902
1380.00,0.1116
1379.00,0.1353
1378.00,0.1576
1377.00,0.1737
1376.00,0.1789
1375.00,0.1705
1374.00,0.1503
1373.00,0.1257
1372.00,0.1027
1371.00,0.0834
1370.00,0.0676
1369.00,0.0554
1368.00,0.0469
1367.00,0.0415
1366.00,0.0387
1365.00,0.0375
1364.00,0.0376
1363.00,0.0389
1362.00,0.0409
1361.00,0.0430
1360.00,0.0446
1359.00,0.0449
1358.00,0.0438
1357.00,0.0412
1356.00,0.0376
1355.00,0.0335
1354.00,0.0295
1353.00,0.0262
1352.00,0.0235
1351.00,0.0213
1350.00,0.0195
1349.00,0.0181
1348.00,0.0170
1347.00,0.0161
1346.00,0.0153
1345.00,0.0147
1344.00,0.0142
1343.00,0.0138
1342.00,0.0134
1341.00,0.0130
1340.00,0.0127
1339.00,0.0125
1338.00,0.0123
1337.00,0.0123
1336.00,0.0123
1335.00,0.0125
1334.00,0.0128
1333.00,0.0132
1332.00,0.0136
1331.00,0.0140
1330.00,0.0140
1329.00,0.0139
1328.00,0.0135
1327.00,0.0129
1326.00,0.0123
1325.00,0.0117
1324.00,0.0111
1323.00,0.0107
1322.00,0.0103
1321.00,0.0099
1320.00,0.0097
1319.00,0.0094
1318.00,0.0092
1317.00,0.0090
1316.00,0.0089
1315.00,0.0087
1314.00,0.0087
1313.00,0.0088
1312.00,0.0090
1311.00,0.0094
1310.00,0.0100
1309.00,0.0110
1308.00,0.0123
1307.00,0.0139
1306.00,0.0154
1305.00,0.0165
1304.00,0.0168
1303.00,0.0164
1302.00,0.0155
1301.00,0.0147
1300.00,0.0141
1299.00,0.0137
1298.00,0.0136
1297.00,0.0134
1296.00,0.0132
1295.00,0.0128
1294.00,0.0124
1293.00,0.0118
1292.00,0.0113
1291.00,0.0108
1290.00,0.0104
1289.00,0.0100
1288.00,0.0096
1287.00,0.0093
1286.00,0.0090
1285.00,0.0088
1284.00,0.0086
1283.00,0.0085
1282.00,0.0084
1281.00,0.0083
1280.00,0.0082
1279.00,0.0081
1278.00,0.0080
1277.00,0.0079
1276.00,0.0078
1275.00,0.0078
1274.00,0.0079
1273.00,0.0079
1272.00,0.0080
1271.00,0.0081
1270.00,0.0082
1269.00,0.0084
1268.00,0.0086
1267.00,0.0088
1266.00,0.0091
1265.00,0.0094
1264.00,0.0097
1263.00,0.0101
1262.00,0.0106
1261.00,0.0112
1260.00,0.0121
1259.00,0.0131
1258.00,0.0141
1257.00,0.0150
1256.00,0.0154
1255.00,0.0152
1254.00,0.0145
1253.00,0.0134
1252.00,0.0123
1251.00,0.0114
1250.00,0.0107
1249.00,0.0102
1248.00,0.0098
1247.00,0.0096
1246.00,0.0094
1245.00,0.0094
1244.00,0.0093
1243.00,0.0092
1242.00,0.0091
1241.00,0.0090
1240.00,0.0089
1239.00,0.0088
1238.00,0.0086
1237.00,0.0085
1236.00,0.0085
1235.00,0.0084
1234.00,0.0084
1233.00,0.0084
1232.00,0.0083
1231.00,0.0083
1230.00,0.0083
1229.00,0.0083
1228.00,0.0083
1227.00,0.0084
1226.00,0.0086
1225.00,0.0088
1224.00,0.0091
1223.00,0.0094
1222.00,0.0097
1221.00,0.0100
1220.00,0.0101
1219.00,0.0102
1218.00,0.0101
1217.00,0.0100
1216.00,0.0098
1215.00,0.0095
1214.00,0.0093
1213.00,0.0090
1212.00,0.0087
1211.00,0.0085
1210.00,0.0083
1209.00,0.0081
1208.00,0.0080
1207.00,0.0078
1206.00,0.0077
1205.00,0.0077
1204.00,0.0076
1203.00,0.0076
1202.00,0.0076
1201.00,0.0076
1200.00,0.0075
1199.00,0.0075
1198.00,0.0075
1197.00,0.0075
1196.00,0.0074
1195.00,0.0075
1194.00,0.0076
1193.00,0.0077
1192.00,0.0077
1191.00,0.0078
1190.00,0.0078
1189.00,0.0079
1188.00,0.0079
1187.00,0.0080
1186.00,0.0080
1185.00,0.0081
1184.00,0.0082
1183.00,0.0085
1182.00,0.0088
1181.00,0.0092
1180.00,0.0098
1179.00,0.0104
1178.00,0.0113
1177.00,0.0124
1176.00,0.0140
1175.00,0.0161
1174.00,0.0188
1173.00,0.0223
1172.00,0.0263
1171.00,0.0308
1170.00,0.0352
1169.00,0.0388
1168.00,0.0412
1167.00,0.0418
1166.00,0.0409
1165.00,0.0388
1164.00,0.0361
1163.00,0.0334
1162.00,0.0309
1161.00,0.0287
1160.00,0.0270
1159.00,0.0256
1158.00,0.0246
1157.00,0.0238
1156.00,0.0231
1155.00,0.0226
1154.00,0.0222
1153.00,0.0217
1152.00,0.0212
1151.00,0.0205
1150.00,0.0196
1149.00,0.0186
1148.00,0.0176
1147.00,0.0166
1146.00,0.0156
1145.00,0.0147
1144.00,0.0139
1143.00,0.0132
1142.00,0.0126
1141.00,0.0120
1140.00,0.0114
1139.00,0.0110
1138.00,0.0106
1137.00,0.0102
1136.00,0.0100
1135.00,0.0098
1134.00,0.0096
1133.00,0.0095
1132.00,0.0094
1131.00,0.0093
1130.00,0.0093
1129.00,0.0093
1128.00,0.0095
1127.00,0.0097
1126.00,0.0098
1125.00,0.0099
1124.00,0.0100
1123.00,0.0101
1122.00,0.0101
1121.00,0.0102
1120.00,0.0103
1119.00,0.0104
1118.00,0.0104
1117.00,0.0105
1116.00,0.0106
1115.00,0.0107
1114.00,0.0109
1113.00,0.0112
1112.00,0.0114
1111.00,0.0116
1110.00,0.0118
1109.00,0.0122
1108.00,0.0127
1107.00,0.0134
1106.00,0.0140
1105.00,0.0145
1104.00,0.0149
1103.00,0.0152
1102.00,0.0152
1101.00,0.0150
1100.00,0.0146
1099.00,0.0140
1098.00,0.0133
1097.00,0.0126
1096.00,0.0120
1095.00,0.0116
1094.00,0.0113
1093.00,0.0110
1092.00,0.0107
1091.00,0.0103
1090.00,0.0100
1089.00,0.0098
1088.00,0.0097
1087.00,0.0097
1086.00,0.0096
1085.00,0.0095
1084.00,0.0095
1083.00,0.0094
1082.00,0.0093
1081.00,0.0091
1080.00,0.0089
1079.00,0.0088
1078.00,0.0087
1077.00,0.0087
1076.00,0.0087
1075.00,0.0087
1074.00,0.0087
1073.00,0.0086
1072.00,0.0086
1071.00,0.0085
1070.00,0.0086
1069.00,0.0086
1068.00,0.0086
1067.00,0.0086
1066.00,0.0086
1065.00,0.0086
1064.00,0.0086
1063.00,0.0086
1062.00,0.0086
1061.00,0.0087
1060.00,0.0087
1059.00,0.0087
1058.00,0.0087
1057.00,0.0087
1056.00,0.0087
1055.00,0.0088
1054.00,0.0090
1053.00,0.0092
1052.00,0.0093
1051.00,0.0095
1050.00,0.0098
1049.00,0.0102
1048.00,0.0106
1047.00,0.0111
1046.00,0.0114
1045.00,0.0115
1044.00,0.0114
1043.00,0.0112
1042.00,0.0109
1041.00,0.0107
1040.00,0.0105
1039.00,0.0104
1038.00,0.0103
1037.00,0.0103
1036.00,0.0103
1035.00,0.0103
1034.00,0.0103
1033.00,0.0102
1032.00,0.0100
1031.00,0.0098
1030.00,0.0098
1029.00,0.0097
1028.00,0.0097
1027.00,0.0097
1026.00,0.0097
1025.00,0.0097
1024.00,0.0097
1023.00,0.0097
1022.00,0.0098
1021.00,0.0099
1020.00,0.0101
1019.00,0.0102
1018.00,0.0104
1017.00,0.0105
1016.00,0.0108
1015.00,0.0111
1014.00,0.0115
1013.00,0.0119
1012.00,0.0124
1011.00,0.0129
1010.00,0.0134
1009.00,0.0140
1008.00,0.0146
1007.00,0.0154
1006.00,0.0166
1005.00,0.0181
1004.00,0.0203
1003.00,0.0233
1002.00,0.0272
1001.00,0.0321
1000.00,0.0373
999.00,0.0419
998.00,0.0445
997.00,0.0442
996.00,0.0410
995.00,0.0359
994.00,0.0303
993.00,0.0253
992.00,0.0213
991.00,0.0184
990.00,0.0163
989.00,0.0148
988.00,0.0138
987.00,0.0133
986.00,0.0132
985.00,0.0133
984.00,0.0137
983.00,0.0146
982.00,0.0159
981.00,0.0179
980.00,0.0205
979.00,0.0240
978.00,0.0284
977.00,0.0337
976.00,0.0398
975.00,0.0460
974.00,0.0510
973.00,0.0535
972.00,0.0525
971.00,0.0482
970.00,0.0417
969.00,0.0346
968.00,0.0282
967.00,0.0232
966.00,0.0195
965.00,0.0169
964.00,0.0150
963.00,0.0137
962.00,0.0126
961.00,0.0118
960.00,0.0111
959.00,0.0106
958.00,0.0101
957.00,0.0097
956.00,0.0093
955.00,0.0091
954.00,0.0089
953.00,0.0088
952.00,0.0087
951.00,0.0086
950.00,0.0085
949.00,0.0085
948.00,0.0084
947.00,0.0085
946.00,0.0086
945.00,0.0089
944.00,0.0092
943.00,0.0095
942.00,0.0096
941.00,0.0096
940.00,0.0094
939.00,0.0091
938.00,0.0087
937.00,0.0083
936.00,0.0080
935.00,0.0077
934.00,0.0075
933.00,0.0074
932.00,0.0072
931.00,0.0070
930.00,0.0069
929.00,0.0067
928.00,0.0065
927.00,0.0064
926.00,0.0064
925.00,0.0064
924.00,0.0063
923.00,0.0063
922.00,0.0064
921.00,0.0065
920.00,0.0067
919.00,0.0069
918.00,0.0070
917.00,0.0071
916.00,0.0073
915.00,0.0074
914.00,0.0075
913.00,0.0076
912.00,0.0076
911.00,0.0076
910.00,0.0076
909.00,0.0077
908.00,0.0079
907.00,0.0083
906.00,0.0090
905.00,0.0100
904.00,0.0113
903.00,0.0130
902.00,0.0149
901.00,0.0166
900.00,0.0179
899.00,0.0182
898.00,0.0176
897.00,0.0162
896.00,0.0144
895.00,0.0126
894.00,0.0111
893.00,0.0100
892.00,0.0092
891.00,0.0086
890.00,0.0083
889.00,0.0080
888.00,0.0079
887.00,0.0078
886.00,0.0076
885.00,0.0075
884.00,0.0073
883.00,0.0073
882.00,0.0073
881.00,0.0074
880.00,0.0075
879.00,0.0076
878.00,0.0077
877.00,0.0078
876.00,0.0079
875.00,0.0079
874.00,0.0079
873.00,0.0078
872.00,0.0077
871.00,0.0076
870.00,0.0076
869.00,0.0075
868.00,0.0075
867.00,0.0076
866.00,0.0078
865.00,0.0080
864.00,0.0082
863.00,0.0084
862.00,0.0085
861.00,0.0085
860.00,0.0086
859.00,0.0087
858.00,0.0089
857.00,0.0091
856.00,0.0093
855.00,0.0095
854.00,0.0099
853.00,0.0102
852.00,0.0106
851.00,0.0112
850.00,0.0121
849.00,0.0131
848.00,0.0146
847.00,0.0167
846.00,0.0198
845.00,0.0244
844.00,0.0306
843.00,0.0375
842.00,0.0431
841.00,0.0448
840.00,0.0420
839.00,0.0359
838.00,0.0291
837.00,0.0237
836.00,0.0200
835.00,0.0178
834.00,0.0163
833.00,0.0153
832.00,0.0145
831.00,0.0139
830.00,0.0134
829.00,0.0131
828.00,0.0128
827.00,0.0126
826.00,0.0124
825.00,0.0123
824.00,0.0121
823.00,0.0118
822.00,0.0115
821.00,0.0114
820.00,0.0115
819.00,0.0117
818.00,0.0121
817.00,0.0125
816.00,0.0132
815.00,0.0140
814.00,0.0152
813.00,0.0166
812.00,0.0182
811.00,0.0196
810.00,0.0206
809.00,0.0211
808.00,0.0209
807.00,0.0201
806.00,0.0189
805.00,0.0175
804.00,0.0161
803.00,0.0149
802.00,0.0139
801.00,0.0131
800.00,0.0123
799.00,0.0117
798.00,0.0111
797.00,0.0107
796.00,0.0103
795.00,0.0101
794.00,0.0099
793.00,0.0097
792.00,0.0094
791.00,0.0092
790.00,0.0089
789.00,0.0085
788.00,0.0081
787.00,0.0078
786.00,0.0075
785.00,0.0072
784.00,0.0070
783.00,0.0069
782.00,0.0068
781.00,0.0068
780.00,0.0068
779.00,0.0068
778.00,0.0067
777.00,0.0066
776.00,0.0066
775.00,0.0067
774.00,0.0069
773.00,0.0073
772.00,0.0077
771.00,0.0080
770.00,0.0082
769.00,0.0084
768.00,0.0084
767.00,0.0083
766.00,0.0082
765.00,0.0080
764.00,0.0078
763.00,0.0076
762.00,0.0074
761.00,0.0072
760.00,0.0070
759.00,0.0067
758.00,0.0063
757.00,0.0061
756.00,0.0059
755.00,0.0058
754.00,0.0057
753.00,0.0056
752.00,0.0055
751.00,0.0055
750.00,0.0055
749.00,0.0055
748.00,0.0055
747.00,0.0055
746.00,0.0055
745.00,0.0055
744.00,0.0056
743.00,0.0057
742.00,0.0058
741.00,0.0060
740.00,0.0061
739.00,0.0062
738.00,0.0064
737.00,0.0065
736.00,0.0066
735.00,0.0067
734.00,0.0067
733.00,0.0068
732.00,0.0069
731.00,0.0070
730.00,0.0071
729.00,0.0070
728.00,0.0070
727.00,0.0069
726.00,0.0068
725.00,0.0067
724.00,0.0066
723.00,0.0065
722.00,0.0064
721.00,0.0062
720.00,0.0061
719.00,0.0061
718.00,0.0061
717.00,0.0061
716.00,0.0060
715.00,0.0060
714.00,0.0060
713.00,0.0060
712.00,0.0060
711.00,0.0059
710.00,0.0057
709.00,0.0056
708.00,0.0057
707.00,0.0059
706.00,0.0061
705.00,0.0062
704.00,0.0061
703.00,0.0058
702.00,0.0056
701.00,0.0053
700.00,0.0052
699.00,0.0051
698.00,0.0051
697.00,0.0051
696.00,0.0051
695.00,0.0052
694.00,0.0052
693.00,0.0053
692.00,0.0052
691.00,0.0051
690.00,0.0051
689.00,0.0052
688.00,0.0054
687.00,0.0054
686.00,0.0053
685.00,0.0052
684.00,0.0052
683.00,0.0051
682.00,0.0050
681.00,0.0050
680.00,0.0051
679.00,0.0052
678.00,0.0054
677.00,0.0056
676.00,0.0056
675.00,0.0055
674.00,0.0054
673.00,0.0053
672.00,0.0053
671.00,0.0055
670.00,0.0056
669.00,0.0058
668.00,0.0058
667.00,0.0059
666.00,0.0058
665.00,0.0057
664.00,0.0055
663.00,0.0053
662.00,0.0052
661.00,0.0051
660.00,0.0052
659.00,0.0054
658.00,0.0055
657.00,0.0054
656.00,0.0052
655.00,0.0051
654.00,0.0052
653.00,0.0054
652.00,0.0057
651.00,0.0057
650.00,0.0056
649.00,0.0055
648.00,0.0056
647.00,0.0058
646.00,0.0060
645.00,0.0060
644.00,0.0059
643.00,0.0057
642.00,0.0055
641.00,0.0055
640.00,0.0055
639.00,0.0056
638.00,0.0057
637.00,0.0057
636.00,0.0056
635.00,0.0055
634.00,0.0054
633.00,0.0053
632.00,0.0051
631.00,0.0048
630.00,0.0048
629.00,0.0051
628.00,0.0055
627.00,0.0059
626.00,0.0061
625.00,0.0061
624.00,0.0059
623.00,0.0057
622.00,0.0055
621.00,0.0053
620.00,0.0053
619.00,0.0053
618.00,0.0052
617.00,0.0053
616.00,0.0056
615.00,0.0058
614.00,0.0059
613.00,0.0057
612.00,0.0053
611.00,0.0050
610.00,0.0049
609.00,0.0050
608.00,0.0053
607.00,0.0056
606.00,0.0057
605.00,0.0057
604.00,0.0054
603.00,0.0052
602.00,0.0052
601.00,0.0054
600.00,0.0057
599.00,0.0058
598.00,0.0058
597.00,0.0058
596.00,0.0060
595.00,0.0062
594.00,0.0064
593.00,0.0063
592.00,0.0060
591.00,0.0057
590.00,0.0056
589.00,0.0056
588.00,0.0057
587.00,0.0059
586.00,0.0062
585.00,0.0063
584.00,0.0063
583.00,0.0063
582.00,0.0063
581.00,0.0065
580.00,0.0067
579.00,0.0067
578.00,0.0067
577.00,0.0066
576.00,0.0064
575.00,0.0062
574.00,0.0059
573.00,0.0058
572.00,0.0058
571.00,0.0058
570.00,0.0058
569.00,0.0058
568.00,0.0059
567.00,0.0061
566.00,0.0063
565.00,0.0067
564.00,0.0069
563.00,0.0069
562.00,0.0065
561.00,0.0059
560.00,0.0054
559.00,0.0052
558.00,0.0055
557.00,0.0058
556.00,0.0059
555.00,0.0059
554.00,0.0059
553.00,0.0060
552.00,0.0062
551.00,0.0063
550.00,0.0063
549.00,0.0060
548.00,0.0056
547.00,0.0054
546.00,0.0055
545.00,0.0058
544.00,0.0062
543.00,0.0066
542.00,0.0068
541.00,0.0069
540.00,0.0068
539.00,0.0066
538.00,0.0065
537.00,0.0064
536.00,0.0063
535.00,0.0064
534.00,0.0068
533.00,0.0073
532.00,0.0079
531.00,0.0085
530.00,0.0088
529.00,0.0087
528.00,0.0084
527.00,0.0081
526.00,0.0083
525.00,0.0088
524.00,0.0094
523.00,0.0096
522.00,0.0095
521.00,0.0090
520.00,0.0085
519.00,0.0080
518.00,0.0078
517.00,0.0078
516.00,0.0079
515.00,0.0079
514.00,0.0074
513.00,0.0067
512.00,0.0061
511.00,0.0057
510.00,0.0056
509.00,0.0056
508.00,0.0057
507.00,0.0061
506.00,0.0067
505.00,0.0071
504.00,0.0072
503.00,0.0070
502.00,0.0068
501.00,0.0066
500.00,0.0062
499.00,0.0057
498.00,0.0052
497.00,0.0051
496.00,0.0055
495.00,0.0064
494.00,0.0072
493.00,0.0076
492.00,0.0072
491.00,0.0066
490.00,0.0063
489.00,0.0062
488.00,0.0062
487.00,0.0061
486.00,0.0061
485.00,0.0063
484.00,0.0065
483.00,0.0066
482.00,0.0066
481.00,0.0067
480.00,0.0068
479.00,0.0069
478.00,0.0069
477.00,0.0068
476.00,0.0066
475.00,0.0067
474.00,0.0072
473.00,0.0077
472.00,0.0077
471.00,0.0071
470.00,0.0066
469.00,0.0064
468.00,0.0068
467.00,0.0076
466.00,0.0086
465.00,0.0098
464.00,0.0110
463.00,0.0121
462.00,0.0128
461.00,0.0130
460.00,0.0128
459.00,0.0126
458.00,0.0128
457.00,0.0137
456.00,0.0148
455.00,0.0153
454.00,0.0150
453.00,0.0141
452.00,0.0130
451.00,0.0122
450.00,0.0118
