Created as New Dataset,Sample 007 By Administrator Date Wednesday, September 10 2025
cm-1,A
4000.00,0.0011
3999.00,0.0011
3998.00,0.0011
3997.00,0.0011
3996.00,0.0011
3995.00,0.0011
3994.00,0.0012
3993.00,0.0012
3992.00,0.0012
3991.00,0.0012
3990.00,0.0012
3989.00,0.0012
3988.00,0.0012
3987.00,0.0012
3986.00,0.0012
3985.00,0.0011
3984.00,0.0011
3983.00,0.0011
3982.00,0.0011
3981.00,0.0011
3980.00,0.0011
3979.00,0.0011
3978.00,0.0011
3977.00,0.0011
3976.00,0.0011
3975.00,0.0010
3974.00,0.0010
3973.00,0.0010
3972.00,0.0010
3971.00,0.0010
3970.00,0.0009
3969.00,0.0010
3968.00,0.0010
3967.00,0.0010
3966.00,0.0010
3965.00,0.0010
3964.00,0.0010
3963.00,0.0010
3962.00,0.0010
3961.00,0.0010
3960.00,0.0010
3959.00,0.0010
3958.00,0.0010
3957.00,0.0010
3956.00,0.0010
3955.00,0.0010
3954.00,0.0010
3953.00,0.0010
3952.00,0.0010
3951.00,0.0011
3950.00,0.0011
3949.00,0.0011
3948.00,0.0011
3947.00,0.0011
3946.00,0.0011
3945.00,0.0011
3944.00,0.0011
3943.00,0.0011
3942.00,0.0011
3941.00,0.0011
3940.00,0.0011
3939.00,0.0010
3938.00,0.0010
3937.00,0.0010
3936.00,0.0010
3935.00,0.0010
3934.00,0.0011
3933.00,0.0011
3932.00,0.0011
3931.00,0.0011
3930.00,0.0010
3929.00,0.0010
3928.00,0.0010
3927.00,0.0010
3926.00,0.0010
3925.00,0.0010
3924.00,0.0011
3923.00,0.0010
3922.00,0.0010
3921.00,0.0010
3920.00,0.0011
3919.00,0.0011
3918.00,0.0011
3917.00,0.0011
3916.00,0.0011
3915.00,0.0011
3914.00,0.0010
3913.00,0.0010
3912.00,0.0010
3911.00,0.0010
3910.00,0.0010
3909.00,0.0010
3908.00,0.0010
3907.00,0.0010
3906.00,0.0011
3905.00,0.0012
3904.00,0.0012
3903.00,0.0013
3902.00,0.0012
3901.00,0.0012
3900.00,0.0011
3899.00,0.0011
3898.00,0.0011
3897.00,0.0011
3896.00,0.0011
3895.00,0.0011
3894.00,0.0010
3893.00,0.0010
3892.00,0.0009
3891.00,0.0009
3890.00,0.0009
3889.00,0.0009
3888.00,0.0009
3887.00,0.0010
3886.00,0.0010
3885.00,0.0010
3884.00,0.0010
3883.00,0.0010
3882.00,0.0010
3881.00,0.0010
3880.00,0.0010
3879.00,0.0010
3878.00,0.0010
3877.00,0.0010
3876.00,0.0010
3875.00,0.0010
3874.00,0.0010
3873.00,0.0011
3872.00,0.0011
3871.00,0.0011
3870.00,0.0011
3869.00,0.0011
3868.00,0.0010
3867.00,0.0010
3866.00,0.0010
3865.00,0.0009
3864.00,0.0009
3863.00,0.0009
3862.00,0.0009
3861.00,0.0008
3860.00,0.0009
3859.00,0.0009
3858.00,0.0009
3857.00,0.0010
3856.00,0.0010
3855.00,0.0011
3854.00,0.0011
3853.00,0.0011
3852.00,0.0011
3851.00,0.0011
3850.00,0.0010
3849.00,0.0010
3848.00,0.0009
3847.00,0.0009
3846.00,0.0009
3845.00,0.0009
3844.00,0.0009
3843.00,0.0009
3842.00,0.0009
3841.00,0.0009
3840.00,0.0009
3839.00,0.0009
3838.00,0.0008
3837.00,0.0008
3836.00,0.0008
3835.00,0.0008
3834.00,0.0008
3833.00,0.0008
3832.00,0.0008
3831.00,0.0009
3830.00,0.0009
3829.00,0.0009
3828.00,0.0009
3827.00,0.0009
3826.00,0.0009
3825.00,0.0009
3824.00,0.0009
3823.00,0.0009
3822.00,0.0009
3821.00,0.0009
3820.00,0.0009
3819.00,0.0009
3818.00,0.0009
3817.00,0.0009
3816.00,0.0008
3815.00,0.0009
3814.00,0.0009
3813.00,0.0009
3812.00,0.0010
3811.00,0.0010
3810.00,0.0010
3809.00,0.0010
3808.00,0.0010
3807.00,0.0009
3806.00,0.0009
3805.00,0.0008
3804.00,0.0008
3803.00,0.0007
3802.00,0.0007
3801.00,0.0008
3800.00,0.0008
3799.00,0.0009
3798.00,0.0009
3797.00,0.0009
3796.00,0.0009
3795.00,0.0009
3794.00,0.0009
3793.00,0.0009
3792.00,0.0009
3791.00,0.0009
3790.00,0.0009
3789.00,0.0009
3788.00,0.0009
3787.00,0.0009
3786.00,0.0009
3785.00,0.0009
3784.00,0.0009
3783.00,0.0009
3782.00,0.0009
3781.00,0.0009
3780.00,0.0009
3779.00,0.0009
3778.00,0.0009
3777.00,0.0009
3776.00,0.0009
3775.00,0.0009
3774.00,0.0009
3773.00,0.0009
3772.00,0.0010
3771.00,0.0010
3770.00,0.0010
3769.00,0.0010
3768.00,0.0010
3767.00,0.0010
3766.00,0.0010
3765.00,0.0010
3764.00,0.0010
3763.00,0.0010
3762.00,0.0010
3761.00,0.0010
3760.00,0.0010
3759.00,0.0010
3758.00,0.0010
3757.00,0.0010
3756.00,0.0010
3755.00,0.0010
3754.00,0.0010
3753.00,0.0010
3752.00,0.0010
3751.00,0.0009
3750.00,0.0009
3749.00,0.0009
3748.00,0.0009
3747.00,0.0009
3746.00,0.0009
3745.00,0.0009
3744.00,0.0009
3743.00,0.0010
3742.00,0.0010
3741.00,0.0010
3740.00,0.0010
3739.00,0.0010
3738.00,0.0010
3737.00,0.0010
3736.00,0.0010
3735.00,0.0009
3734.00,0.0009
3733.00,0.0008
3732.00,0.0008
3731.00,0.0008
3730.00,0.0009
3729.00,0.0009
3728.00,0.0010
3727.00,0.0010
3726.00,0.0010
3725.00,0.0009
3724.00,0.0009
3723.00,0.0009
3722.00,0.0008
3721.00,0.0008
3720.00,0.0009
3719.00,0.0009
3718.00,0.0009
3717.00,0.0009
3716.00,0.0009
3715.00,0.0009
3714.00,0.0009
3713.00,0.0009
3712.00,0.0009
3711.00,0.0008
3710.00,0.0008
3709.00,0.0008
3708.00,0.0008
3707.00,0.0009
3706.00,0.0009
3705.00,0.0008
3704.00,0.0008
3703.00,0.0008
3702.00,0.0008
3701.00,0.0008
3700.00,0.0009
3699.00,0.0009
3698.00,0.0009
3697.00,0.0009
3696.00,0.0009
3695.00,0.0009
3694.00,0.0009
3693.00,0.0008
3692.00,0.0008
3691.00,0.0008
3690.00,0.0008
3689.00,0.0009
3688.00,0.0009
3687.00,0.0010
3686.00,0.0010
3685.00,0.0010
3684.00,0.0010
3683.00,0.0010
3682.00,0.0010
3681.00,0.0010
3680.00,0.0010
3679.00,0.0010
3678.00,0.0010
3677.00,0.0010
3676.00,0.0010
3675.00,0.0010
3674.00,0.0010
3673.00,0.0010
3672.00,0.0010
3671.00,0.0010
3670.00,0.0010
3669.00,0.0010
3668.00,0.0010
3667.00,0.0010
3666.00,0.0010
3665.00,0.0010
3664.00,0.0011
3663.00,0.0011
3662.00,0.0011
3661.00,0.0011
3660.00,0.0011
3659.00,0.0012
3658.00,0.0012
3657.00,0.0012
3656.00,0.0012
3655.00,0.0012
3654.00,0.0012
3653.00,0.0012
3652.00,0.0012
3651.00,0.0012
3650.00,0.0013
3649.00,0.0014
3648.00,0.0014
3647.00,0.0015
3646.00,0.0015
3645.00,0.0015
3644.00,0.0015
3643.00,0.0014
3642.00,0.0014
3641.00,0.0013
3640.00,0.0013
3639.00,0.0014
3638.00,0.0014
3637.00,0.0014
3636.00,0.0014
3635.00,0.0014
3634.00,0.0014
3633.00,0.0014
3632.00,0.0014
3631.00,0.0013
3630.00,0.0013
3629.00,0.0014
3628.00,0.0014
3627.00,0.0014
3626.00,0.0014
3625.00,0.0014
3624.00,0.0014
3623.00,0.0015
3622.00,0.0015
3621.00,0.0015
3620.00,0.0015
3619.00,0.0015
3618.00,0.0015
3617.00,0.0015
3616.00,0.0016
3615.00,0.0016
3614.00,0.0016
3613.00,0.0017
3612.00,0.0018
3611.00,0.0018
3610.00,0.0019
3609.00,0.0020
3608.00,0.0020
3607.00,0.0020
3606.00,0.0020
3605.00,0.0019
3604.00,0.0019
3603.00,0.0019
3602.00,0.0020
3601.00,0.0020
3600.00,0.0020
3599.00,0.0020
3598.00,0.0021
3597.00,0.0021
3596.00,0.0022
3595.00,0.0022
3594.00,0.0023
3593.00,0.0023
3592.00,0.0023
3591.00,0.0023
3590.00,0.0023
3589.00,0.0024
3588.00,0.0025
3587.00,0.0025
3586.00,0.0026
3585.00,0.0026
3584.00,0.0026
3583.00,0.0026
3582.00,0.0026
3581.00,0.0026
3580.00,0.0026
3579.00,0.0026
3578.00,0.0026
3577.00,0.0026
3576.00,0.0027
3575.00,0.0027
3574.00,0.0027
3573.00,0.0027
3572.00,0.0027
3571.00,0.0028
3570.00,0.0029
3569.00,0.0031
3568.00,0.0032
3567.00,0.0033
3566.00,0.0033
3565.00,0.0033
3564.00,0.0033
3563.00,0.0032
3562.00,0.0032
3561.00,0.0032
3560.00,0.0032
3559.00,0.0032
3558.00,0.0033
3557.00,0.0034
3556.00,0.0035
3555.00,0.0035
3554.00,0.0036
3553.00,0.0036
3552.00,0.0036
3551.00,0.0036
3550.00,0.0037
3549.00,0.0038
3548.00,0.0038
3547.00,0.0039
3546.00,0.0040
3545.00,0.0040
3544.00,0.0041
3543.00,0.0041
3542.00,0.0041
3541.00,0.0040
3540.00,0.0040
3539.00,0.0041
3538.00,0.0041
3537.00,0.0042
3536.00,0.0042
3535.00,0.0043
3534.00,0.0043
3533.00,0.0043
3532.00,0.0044
3531.00,0.0044
3530.00,0.0045
3529.00,0.0045
3528.00,0.0045
3527.00,0.0045
3526.00,0.0046
3525.00,0.0046
3524.00,0.0047
3523.00,0.0047
3522.00,0.0048
3521.00,0.0048
3520.00,0.0048
3519.00,0.0048
3518.00,0.0049
3517.00,0.0049
3516.00,0.0050
3515.00,0.0050
3514.00,0.0051
3513.00,0.0051
3512.00,0.0052
3511.00,0.0052
3510.00,0.0052
3509.00,0.0053
3508.00,0.0053
3507.00,0.0054
3506.00,0.0054
3505.00,0.0055
3504.00,0.0055
3503.00,0.0055
3502.00,0.0055
3501.00,0.0055
3500.00,0.0055
3499.00,0.0056
3498.00,0.0056
3497.00,0.0057
3496.00,0.0057
3495.00,0.0058
3494.00,0.0058
3493.00,0.0059
3492.00,0.0060
3491.00,0.0060
3490.00,0.0060
3489.00,0.0061
3488.00,0.0061
3487.00,0.0061
3486.00,0.0061
3485.00,0.0062
3484.00,0.0062
3483.00,0.0063
3482.00,0.0064
3481.00,0.0064
3480.00,0.0064
3479.00,0.0064
3478.00,0.0064
3477.00,0.0064
3476.00,0.0065
3475.00,0.0066
3474.00,0.0066
3473.00,0.0067
3472.00,0.0067
3471.00,0.0068
3470.00,0.0068
3469.00,0.0069
3468.00,0.0069
3467.00,0.0069
3466.00,0.0070
3465.00,0.0070
3464.00,0.0070
3463.00,0.0071
3462.00,0.0071
3461.00,0.0072
3460.00,0.0072
3459.00,0.0072
3458.00,0.0072
3457.00,0.0073
3456.00,0.0073
3455.00,0.0073
3454.00,0.0073
3453.00,0.0074
3452.00,0.0074
3451.00,0.0074
3450.00,0.0074
3449.00,0.0075
3448.00,0.0075
3447.00,0.0076
3446.00,0.0077
3445.00,0.0078
3444.00,0.0078
3443.00,0.0078
3442.00,0.0078
3441.00,0.0078
3440.00,0.0078
3439.00,0.0079
3438.00,0.0079
3437.00,0.0079
3436.00,0.0079
3435.00,0.0080
3434.00,0.0080
3433.00,0.0081
3432.00,0.0081
3431.00,0.0082
3430.00,0.0083
3429.00,0.0083
3428.00,0.0084
3427.00,0.0084
3426.00,0.0084
3425.00,0.0085
3424.00,0.0085
3423.00,0.0085
3422.00,0.0086
3421.00,0.0086
3420.00,0.0087
3419.00,0.0087
3418.00,0.0087
3417.00,0.0088
3416.00,0.0089
3415.00,0.0089
3414.00,0.0089
3413.00,0.0090
3412.00,0.0090
3411.00,0.0091
3410.00,0.0091
3409.00,0.0092
3408.00,0.0092
3407.00,0.0092
3406.00,0.0093
3405.00,0.0094
3404.00,0.0095
3403.00,0.0097
3402.00,0.0097
3401.00,0.0098
3400.00,0.0099
3399.00,0.0099
3398.00,0.0099
3397.00,0.0099
3396.00,0.0100
3395.00,0.0100
3394.00,0.0100
3393.00,0.0100
3392.00,0.0100
3391.00,0.0100
3390.00,0.0099
3389.00,0.0098
3388.00,0.0097
3387.00,0.0097
3386.00,0.0097
3385.00,0.0097
3384.00,0.0097
3383.00,0.0097
3382.00,0.0097
3381.00,0.0096
3380.00,0.0096
3379.00,0.0096
3378.00,0.0097
3377.00,0.0097
3376.00,0.0097
3375.00,0.0097
3374.00,0.0097
3373.00,0.0097
3372.00,0.0097
3371.00,0.0096
3370.00,0.0096
3369.00,0.0096
3368.00,0.0096
3367.00,0.0096
3366.00,0.0096
3365.00,0.0096
3364.00,0.0096
3363.00,0.0096
3362.00,0.0096
3361.00,0.0097
3360.00,0.0097
3359.00,0.0098
3358.00,0.0098
3357.00,0.0098
3356.00,0.0098
3355.00,0.0098
3354.00,0.0098
3353.00,0.0098
3352.00,0.0098
3351.00,0.0097
3350.00,0.0097
3349.00,0.0097
3348.00,0.0098
3347.00,0.0098
3346.00,0.0098
3345.00,0.0098
3344.00,0.0098
3343.00,0.0098
3342.00,0.0098
3341.00,0.0099
3340.00,0.0099
3339.00,0.0098
3338.00,0.0098
3337.00,0.0098
3336.00,0.0097
3335.00,0.0097
3334.00,0.0097
3333.00,0.0097
3332.00,0.0097
3331.00,0.0097
3330.00,0.0097
3329.00,0.0097
3328.00,0.0097
3327.00,0.0096
3326.00,0.0096
3325.00,0.0096
3324.00,0.0096
3323.00,0.0096
3322.00,0.0096
3321.00,0.0096
3320.00,0.0096
3319.00,0.0096
3318.00,0.0096
3317.00,0.0096
3316.00,0.0096
3315.00,0.0096
3314.00,0.0096
3313.00,0.0095
3312.00,0.0095
3311.00,0.0095
3310.00,0.0095
3309.00,0.0095
3308.00,0.0094
3307.00,0.0094
3306.00,0.0094
3305.00,0.0094
3304.00,0.0094
3303.00,0.0094
3302.00,0.0094
3301.00,0.0094
3300.00,0.0094
3299.00,0.0093
3298.00,0.0093
3297.00,0.0092
3296.00,0.0092
3295.00,0.0092
3294.00,0.0091
3293.00,0.0091
3292.00,0.0091
3291.00,0.0091
3290.00,0.0091
3289.00,0.0091
3288.00,0.0091
3287.00,0.0090
3286.00,0.0090
3285.00,0.0090
3284.00,0.0090
3283.00,0.0090
3282.00,0.0090
3281.00,0.0090
3280.00,0.0090
3279.00,0.0089
3278.00,0.0089
3277.00,0.0088
3276.00,0.0088
3275.00,0.0088
3274.00,0.0088
3273.00,0.0087
3272.00,0.0087
3271.00,0.0086
3270.00,0.0086
3269.00,0.0086
3268.00,0.0086
3267.00,0.0085
3266.00,0.0085
3265.00,0.0084
3264.00,0.0084
3263.00,0.0083
3262.00,0.0083
3261.00,0.0083
3260.00,0.0083
3259.00,0.0082
3258.00,0.0082
3257.00,0.0082
3256.00,0.0082
3255.00,0.0082
3254.00,0.0082
3253.00,0.0082
3252.00,0.0081
3251.00,0.0081
3250.00,0.0080
3249.00,0.0080
3248.00,0.0079
3247.00,0.0079
3246.00,0.0079
3245.00,0.0079
3244.00,0.0079
3243.00,0.0079
3242.00,0.0079
3241.00,0.0079
3240.00,0.0079
3239.00,0.0079
3238.00,0.0078
3237.00,0.0078
3236.00,0.0078
3235.00,0.0078
3234.00,0.0078
3233.00,0.0078
3232.00,0.0079
3231.00,0.0079
3230.00,0.0079
3229.00,0.0079
3228.00,0.0078
3227.00,0.0078
3226.00,0.0078
3225.00,0.0078
3224.00,0.0079
3223.00,0.0079
3222.00,0.0079
3221.00,0.0079
3220.00,0.0079
3219.00,0.0079
3218.00,0.0079
3217.00,0.0080
3216.00,0.0080
3215.00,0.0080
3214.00,0.0080
3213.00,0.0080
3212.00,0.0081
3211.00,0.0081
3210.00,0.0081
3209.00,0.0081
3208.00,0.0081
3207.00,0.0081
3206.00,0.0081
3205.00,0.0081
3204.00,0.0081
3203.00,0.0081
3202.00,0.0081
3201.00,0.0081
3200.00,0.0081
3199.00,0.0081
3198.00,0.0082
3197.00,0.0082
3196.00,0.0082
3195.00,0.0082
3194.00,0.0082
3193.00,0.0082
3192.00,0.0081
3191.00,0.0081
3190.00,0.0081
3189.00,0.0081
3188.00,0.0081
3187.00,0.0080
3186.00,0.0080
3185.00,0.0079
3184.00,0.0079
3183.00,0.0078
3182.00,0.0077
3181.00,0.0077
3180.00,0.0076
3179.00,0.0075
3178.00,0.0075
3177.00,0.0075
3176.00,0.0074
3175.00,0.0074
3174.00,0.0074
3173.00,0.0074
3172.00,0.0074
3171.00,0.0073
3170.00,0.0073
3169.00,0.0072
3168.00,0.0072
3167.00,0.0071
3166.00,0.0071
3165.00,0.0070
3164.00,0.0070
3163.00,0.0070
3162.00,0.0070
3161.00,0.0069
3160.00,0.0069
3159.00,0.0068
3158.00,0.0068
3157.00,0.0068
3156.00,0.0068
3155.00,0.0067
3154.00,0.0067
3153.00,0.0066
3152.00,0.0066
3151.00,0.0065
3150.00,0.0065
3149.00,0.0065
3148.00,0.0065
3147.00,0.0065
3146.00,0.0064
3145.00,0.0064
3144.00,0.0063
3143.00,0.0063
3142.00,0.0063
3141.00,0.0063
3140.00,0.0063
3139.00,0.0063
3138.00,0.0062
3137.00,0.0062
3136.00,0.0061
3135.00,0.0061
3134.00,0.0060
3133.00,0.0060
3132.00,0.0060
3131.00,0.0059
3130.00,0.0059
3129.00,0.0059
3128.00,0.0059
3127.00,0.0058
3126.00,0.0058
3125.00,0.0057
3124.00,0.0057
3123.00,0.0057
3122.00,0.0057
3121.00,0.0056
3120.00,0.0055
3119.00,0.0055
3118.00,0.0054
3117.00,0.0054
3116.00,0.0054
3115.00,0.0054
3114.00,0.0054
3113.00,0.0054
3112.00,0.0054
3111.00,0.0053
3110.00,0.0053
3109.00,0.0053
3108.00,0.0052
3107.00,0.0052
3106.00,0.0052
3105.00,0.0052
3104.00,0.0052
3103.00,0.0051
3102.00,0.0051
3101.00,0.0051
3100.00,0.0050
3099.00,0.0050
3098.00,0.0050
3097.00,0.0050
3096.00,0.0049
3095.00,0.0049
3094.00,0.0048
3093.00,0.0048
3092.00,0.0048
3091.00,0.0048
3090.00,0.0048
3089.00,0.0048
3088.00,0.0048
3087.00,0.0048
3086.00,0.0047
3085.00,0.0047
3084.00,0.0046
3083.00,0.0046
3082.00,0.0045
3081.00,0.0045
3080.00,0.0045
3079.00,0.0045
3078.00,0.0046
3077.00,0.0046
3076.00,0.0046
3075.00,0.0046
3074.00,0.0046
3073.00,0.0047
3072.00,0.0047
3071.00,0.0047
3070.00,0.0046
3069.00,0.0046
3068.00,0.0046
3067.00,0.0046
3066.00,0.0046
3065.00,0.0047
3064.00,0.0047
3063.00,0.0047
3062.00,0.0047
3061.00,0.0047
3060.00,0.0047
3059.00,0.0048
3058.00,0.0048
3057.00,0.0048
3056.00,0.0048
3055.00,0.0048
3054.00,0.0047
3053.00,0.0047
3052.00,0.0047
3051.00,0.0047
3050.00,0.0047
3049.00,0.0048
3048.00,0.0048
3047.00,0.0048
3046.00,0.0048
3045.00,0.0048
3044.00,0.0048
3043.00,0.0048
3042.00,0.0048
3041.00,0.0049
3040.00,0.0050
3039.00,0.0050
3038.00,0.0051
3037.00,0.0051
3036.00,0.0051
3035.00,0.0051
3034.00,0.0051
3033.00,0.0052
3032.00,0.0052
3031.00,0.0052
3030.00,0.0052
3029.00,0.0053
3028.00,0.0054
3027.00,0.0054
3026.00,0.0055
3025.00,0.0055
3024.00,0.0056
3023.00,0.0056
3022.00,0.0056
3021.00,0.0057
3020.00,0.0058
3019.00,0.0059
3018.00,0.0060
3017.00,0.0061
3016.00,0.0062
3015.00,0.0063
3014.00,0.0064
3013.00,0.0066
3012.00,0.0067
3011.00,0.0069
3010.00,0.0071
3009.00,0.0072
3008.00,0.0074
3007.00,0.0076
3006.00,0.0078
3005.00,0.0080
3004.00,0.0082
3003.00,0.0084
3002.00,0.0087
3001.00,0.0089
3000.00,0.0092
2999.00,0.0095
2998.00,0.0098
2997.00,0.0101
2996.00,0.0105
2995.00,0.0109
2994.00,0.0114
2993.00,0.0119
2992.00,0.0124
2991.00,0.0129
2990.00,0.0135
2989.00,0.0142
2988.00,0.0150
2987.00,0.0159
2986.00,0.0169
2985.00,0.0181
2984.00,0.0194
2983.00,0.0208
2982.00,0.0223
2981.00,0.0239
2980.00,0.0257
2979.00,0.0277
2978.00,0.0300
2977.00,0.0326
2976.00,0.0355
2975.00,0.0388
2974.00,0.0427
2973.00,0.0470
2972.00,0.0519
2971.00,0.0573
2970.00,0.0632
2969.00,0.0696
2968.00,0.0765
2967.00,0.0838
2966.00,0.0912
2965.00,0.0985
2964.00,0.1056
2963.00,0.1121
2962.00,0.1179
2961.00,0.1231
2960.00,0.1277
2959.00,0.1321
2958.00,0.1367
2957.00,0.1420
2956.00,0.1481
2955.00,0.1553
2954.00,0.1634
2953.00,0.1719
2952.00,0.1800
2951.00,0.1867
2950.00,0.1910
2949.00,0.1917
2948.00,0.1883
2947.00,0.1807
2946.00,0.1698
2945.00,0.1570
2944.00,0.1440
2943.00,0.1320
2942.00,0.1223
2941.00,0.1151
2940.00,0.1106
2939.00,0.1086
2938.00,0.1089
2937.00,0.1110
2936.00,0.1150
2935.00,0.1206
2934.00,0.1276
2933.00,0.1360
2932.00,0.1455
2931.00,0.1560
2930.00,0.1672
2929.00,0.1787
2928.00,0.1902
2927.00,0.2015
2926.00,0.2124
2925.00,0.2228
2924.00,0.2329
2923.00,0.2429
2922.00,0.2528
2921.00,0.2623
2920.00,0.2710
2919.00,0.2782
2918.00,0.2828
2917.00,0.2840
2916.00,0.2813
2915.00,0.2751
2914.00,0.2659
2913.00,0.2550
2912.00,0.2433
2911.00,0.2318
2910.00,0.2208
2909.00,0.2106
2908.00,0.2011
2907.00,0.1921
2906.00,0.1835
2905.00,0.1753
2904.00,0.1673
2903.00,0.1596
2902.00,0.1521
2901.00,0.1450
2900.00,0.1383
2899.00,0.1320
2898.00,0.1263
2897.00,0.1212
2896.00,0.1167
2895.00,0.1129
2894.00,0.1098
2893.00,0.1075
2892.00,0.1058
2891.00,0.1048
2890.00,0.1043
2889.00,0.1043
2888.00,0.1048
2887.00,0.1056
2886.00,0.1068
2885.00,0.1085
2884.00,0.1107
2883.00,0.1135
2882.00,0.1168
2881.00,0.1205
2880.00,0.1243
2879.00,0.1277
2878.00,0.1304
2877.00,0.1318
2876.00,0.1320
2875.00,0.1314
2874.00,0.1305
2873.00,0.1300
2872.00,0.1302
2871.00,0.1313
2870.00,0.1331
2869.00,0.1351
2868.00,0.1367
2867.00,0.1367
2866.00,0.1345
2865.00,0.1293
2864.00,0.1216
2863.00,0.1122
2862.00,0.1021
2861.00,0.0924
2860.00,0.0839
2859.00,0.0770
2858.00,0.0717
2857.00,0.0679
2856.00,0.0652
2855.00,0.0636
2854.00,0.0628
2853.00,0.0627
2852.00,0.0632
2851.00,0.0644
2850.00,0.0660
2849.00,0.0681
2848.00,0.0708
2847.00,0.0741
2846.00,0.0782
2845.00,0.0833
2844.00,0.0891
2843.00,0.0957
2842.00,0.1027
2841.00,0.1095
2840.00,0.1155
2839.00,0.1197
2838.00,0.1213
2837.00,0.1197
2836.00,0.1146
2835.00,0.1065
2834.00,0.0964
2833.00,0.0855
2832.00,0.0749
2831.00,0.0653
2830.00,0.0571
2829.00,0.0503
2828.00,0.0449
2827.00,0.0405
2826.00,0.0370
2825.00,0.0341
2824.00,0.0317
2823.00,0.0297
2822.00,0.0280
2821.00,0.0266
2820.00,0.0253
2819.00,0.0242
2818.00,0.0233
2817.00,0.0225
2816.00,0.0217
2815.00,0.0211
2814.00,0.0205
2813.00,0.0200
2812.00,0.0194
2811.00,0.0189
2810.00,0.0182
2809.00,0.0176
2808.00,0.0170
2807.00,0.0163
2806.00,0.0157
2805.00,0.0150
2804.00,0.0144
2803.00,0.0138
2802.00,0.0132
2801.00,0.0127
2800.00,0.0123
2799.00,0.0120
2798.00,0.0117
2797.00,0.0115
2796.00,0.0112
2795.00,0.0109
2794.00,0.0106
2793.00,0.0104
2792.00,0.0101
2791.00,0.0098
2790.00,0.0095
2789.00,0.0092
2788.00,0.0090
2787.00,0.0088
2786.00,0.0085
2785.00,0.0083
2784.00,0.0081
2783.00,0.0079
2782.00,0.0077
2781.00,0.0075
2780.00,0.0073
2779.00,0.0072
2778.00,0.0070
2777.00,0.0069
2776.00,0.0068
2775.00,0.0067
2774.00,0.0066
2773.00,0.0066
2772.00,0.0065
2771.00,0.0064
2770.00,0.0064
2769.00,0.0064
2768.00,0.0063
2767.00,0.0063
2766.00,0.0063
2765.00,0.0062
2764.00,0.0062
2763.00,0.0061
2762.00,0.0061
2761.00,0.0061
2760.00,0.0061
2759.00,0.0061
2758.00,0.0060
2757.00,0.0060
2756.00,0.0060
2755.00,0.0059
2754.00,0.0059
2753.00,0.0059
2752.00,0.0059
2751.00,0.0059
2750.00,0.0058
2749.00,0.0058
2748.00,0.0059
2747.00,0.0059
2746.00,0.0060
2745.00,0.0060
2744.00,0.0061
2743.00,0.0062
2742.00,0.0063
2741.00,0.0065
2740.00,0.0066
2739.00,0.0067
2738.00,0.0068
2737.00,0.0070
2736.00,0.0071
2735.00,0.0073
2734.00,0.0074
2733.00,0.0076
2732.00,0.0078
2731.00,0.0080
2730.00,0.0082
2729.00,0.0085
2728.00,0.0088
2727.00,0.0091
2726.00,0.0093
2725.00,0.0096
2724.00,0.0098
2723.00,0.0099
2722.00,0.0098
2721.00,0.0096
2720.00,0.0092
2719.00,0.0088
2718.00,0.0085
2717.00,0.0081
2716.00,0.0078
2715.00,0.0075
2714.00,0.0073
2713.00,0.0070
2712.00,0.0068
2711.00,0.0066
2710.00,0.0064
2709.00,0.0062
2708.00,0.0061
2707.00,0.0059
2706.00,0.0058
2705.00,0.0057
2704.00,0.0056
2703.00,0.0055
2702.00,0.0054
2701.00,0.0053
2700.00,0.0052
2699.00,0.0052
2698.00,0.0051
2697.00,0.0050
2696.00,0.0050
2695.00,0.0050
2694.00,0.0050
2693.00,0.0050
2692.00,0.0050
2691.00,0.0050
2690.00,0.0050
2689.00,0.0050
2688.00,0.0050
2687.00,0.0050
2686.00,0.0050
2685.00,0.0050
2684.00,0.0050
2683.00,0.0050
2682.00,0.0051
2681.00,0.0051
2680.00,0.0051
2679.00,0.0051
2678.00,0.0051
2677.00,0.0051
2676.00,0.0051
2675.00,0.0050
2674.00,0.0050
2673.00,0.0050
2672.00,0.0050
2671.00,0.0050
2670.00,0.0050
2669.00,0.0050
2668.00,0.0050
2667.00,0.0050
2666.00,0.0051
2665.00,0.0051
2664.00,0.0052
2663.00,0.0053
2662.00,0.0053
2661.00,0.0053
2660.00,0.0053
2659.00,0.0053
2658.00,0.0053
2657.00,0.0052
2656.00,0.0052
2655.00,0.0051
2654.00,0.0051
2653.00,0.0050
2652.00,0.0050
2651.00,0.0049
2650.00,0.0049
2649.00,0.0048
2648.00,0.0048
2647.00,0.0047
2646.00,0.0047
2645.00,0.0046
2644.00,0.0046
2643.00,0.0045
2642.00,0.0045
2641.00,0.0044
2640.00,0.0044
2639.00,0.0044
2638.00,0.0043
2637.00,0.0042
2636.00,0.0042
2635.00,0.0042
2634.00,0.0042
2633.00,0.0042
2632.00,0.0043
2631.00,0.0043
2630.00,0.0043
2629.00,0.0044
2628.00,0.0044
2627.00,0.0044
2626.00,0.0044
2625.00,0.0044
2624.00,0.0044
2623.00,0.0044
2622.00,0.0044
2621.00,0.0045
2620.00,0.0045
2619.00,0.0045
2618.00,0.0045
2617.00,0.0044
2616.00,0.0044
2615.00,0.0044
2614.00,0.0044
2613.00,0.0044
2612.00,0.0044
2611.00,0.0043
2610.00,0.0042
2609.00,0.0042
2608.00,0.0041
2607.00,0.0040
2606.00,0.0039
2605.00,0.0039
2604.00,0.0038
2603.00,0.0038
2602.00,0.0038
2601.00,0.0037
2600.00,0.0037
2599.00,0.0037
2598.00,0.0037
2597.00,0.0038
2596.00,0.0038
2595.00,0.0038
2594.00,0.0038
2593.00,0.0038
2592.00,0.0039
2591.00,0.0039
2590.00,0.0040
2589.00,0.0041
2588.00,0.0042
2587.00,0.0043
2586.00,0.0044
2585.00,0.0045
2584.00,0.0046
2583.00,0.0046
2582.00,0.0046
2581.00,0.0045
2580.00,0.0045
2579.00,0.0044
2578.00,0.0043
2577.00,0.0042
2576.00,0.0041
2575.00,0.0040
2574.00,0.0038
2573.00,0.0037
2572.00,0.0036
2571.00,0.0035
2570.00,0.0033
2569.00,0.0032
2568.00,0.0031
2567.00,0.0031
2566.00,0.0030
2565.00,0.0030
2564.00,0.0030
2563.00,0.0030
2562.00,0.0029
2561.00,0.0029
2560.00,0.0028
2559.00,0.0028
2558.00,0.0028
2557.00,0.0028
2556.00,0.0028
2555.00,0.0028
2554.00,0.0028
2553.00,0.0027
2552.00,0.0027
2551.00,0.0026
2550.00,0.0026
2549.00,0.0025
2548.00,0.0025
2547.00,0.0025
2546.00,0.0024
2545.00,0.0024
2544.00,0.0023
2543.00,0.0022
2542.00,0.0022
2541.00,0.0022
2540.00,0.0023
2539.00,0.0023
2538.00,0.0022
2537.00,0.0022
2536.00,0.0021
2535.00,0.0021
2534.00,0.0021
2533.00,0.0020
2532.00,0.0020
2531.00,0.0020
2530.00,0.0019
2529.00,0.0018
2528.00,0.0018
2527.00,0.0019
2526.00,0.0019
2525.00,0.0019
2524.00,0.0019
2523.00,0.0018
2522.00,0.0018
2521.00,0.0019
2520.00,0.0019
2519.00,0.0019
2518.00,0.0018
2517.00,0.0018
2516.00,0.0018
2515.00,0.0017
2514.00,0.0017
2513.00,0.0016
2512.00,0.0016
2511.00,0.0015
2510.00,0.0015
2509.00,0.0015
2508.00,0.0016
2507.00,0.0016
2506.00,0.0017
2505.00,0.0017
2504.00,0.0016
2503.00,0.0015
2502.00,0.0015
2501.00,0.0015
2500.00,0.0015
2499.00,0.0015
2498.00,0.0015
2497.00,0.0015
2496.00,0.0015
2495.00,0.0015
2494.00,0.0016
2493.00,0.0016
2492.00,0.0016
2491.00,0.0016
2490.00,0.0016
2489.00,0.0016
2488.00,0.0015
2487.00,0.0015
2486.00,0.0014
2485.00,0.0014
2484.00,0.0014
2483.00,0.0014
2482.00,0.0014
2481.00,0.0015
2480.00,0.0015
2479.00,0.0014
2478.00,0.0013
2477.00,0.0012
2476.00,0.0012
2475.00,0.0013
2474.00,0.0014
2473.00,0.0014
2472.00,0.0014
2471.00,0.0014
2470.00,0.0014
2469.00,0.0014
2468.00,0.0014
2467.00,0.0014
2466.00,0.0014
2465.00,0.0013
2464.00,0.0013
2463.00,0.0013
2462.00,0.0014
2461.00,0.0014
2460.00,0.0014
2459.00,0.0014
2458.00,0.0014
2457.00,0.0014
2456.00,0.0014
2455.00,0.0015
2454.00,0.0015
2453.00,0.0016
2452.00,0.0016
2451.00,0.0015
2450.00,0.0015
2449.00,0.0014
2448.00,0.0015
2447.00,0.0015
2446.00,0.0015
2445.00,0.0015
2444.00,0.0014
2443.00,0.0013
2442.00,0.0013
2441.00,0.0013
2440.00,0.0013
2439.00,0.0013
2438.00,0.0014
2437.00,0.0014
2436.00,0.0014
2435.00,0.0014
2434.00,0.0014
2433.00,0.0014
2432.00,0.0015
2431.00,0.0015
2430.00,0.0016
2429.00,0.0016
2428.00,0.0016
2427.00,0.0017
2426.00,0.0017
2425.00,0.0018
2424.00,0.0017
2423.00,0.0016
2422.00,0.0015
2421.00,0.0015
2420.00,0.0015
2419.00,0.0015
2418.00,0.0016
2417.00,0.0016
2416.00,0.0016
2415.00,0.0015
2414.00,0.0015
2413.00,0.0014
2412.00,0.0013
2411.00,0.0013
2410.00,0.0013
2409.00,0.0013
2408.00,0.0014
2407.00,0.0014
2406.00,0.0014
2405.00,0.0014
2404.00,0.0014
2403.00,0.0014
2402.00,0.0014
2401.00,0.0014
2400.00,0.0014
2399.00,0.0014
2398.00,0.0014
2397.00,0.0014
2396.00,0.0014
2395.00,0.0014
2394.00,0.0013
2393.00,0.0013
2392.00,0.0013
2391.00,0.0013
2390.00,0.0013
2389.00,0.0013
2388.00,0.0012
2387.00,0.0012
2386.00,0.0011
2385.00,0.0010
2384.00,0.0010
2383.00,0.0009
2382.00,0.0009
2381.00,0.0010
2380.00,0.0010
2379.00,0.0010
2378.00,0.0010
2377.00,0.0010
2376.00,0.0009
2375.00,0.0009
2374.00,0.0009
2373.00,0.0009
2372.00,0.0009
2371.00,0.0009
2370.00,0.0009
2369.00,0.0009
2368.00,0.0008
2367.00,0.0008
2366.00,0.0009
2365.00,0.0010
2364.00,0.0011
2363.00,0.0011
2362.00,0.0011
2361.00,0.0010
2360.00,0.0009
2359.00,0.0008
2358.00,0.0008
2357.00,0.0008
2356.00,0.0009
2355.00,0.0009
2354.00,0.0009
2353.00,0.0009
2352.00,0.0008
2351.00,0.0007
2350.00,0.0007
2349.00,0.0008
2348.00,0.0010
2347.00,0.0012
2346.00,0.0014
2345.00,0.0014
2344.00,0.0014
2343.00,0.0013
2342.00,0.0012
2341.00,0.0012
2340.00,0.0011
2339.00,0.0010
2338.00,0.0010
2337.00,0.0010
2336.00,0.0011
2335.00,0.0012
2334.00,0.0012
2333.00,0.0011
2332.00,0.0010
2331.00,0.0009
2330.00,0.0009
2329.00,0.0009
2328.00,0.0011
2327.00,0.0014
2326.00,0.0018
2325.00,0.0022
2324.00,0.0024
2323.00,0.0023
2322.00,0.0021
2321.00,0.0017
2320.00,0.0015
2319.00,0.0014
2318.00,0.0013
2317.00,0.0012
2316.00,0.0012
2315.00,0.0012
2314.00,0.0011
2313.00,0.0011
2312.00,0.0010
2311.00,0.0010
2310.00,0.0010
2309.00,0.0011
2308.00,0.0010
2307.00,0.0010
2306.00,0.0010
2305.00,0.0010
2304.00,0.0011
2303.00,0.0012
2302.00,0.0012
2301.00,0.0013
2300.00,0.0013
2299.00,0.0014
2298.00,0.0014
2297.00,0.0014
2296.00,0.0014
2295.00,0.0015
2294.00,0.0015
2293.00,0.0016
2292.00,0.0017
2291.00,0.0019
2290.00,0.0019
2289.00,0.0020
2288.00,0.0020
2287.00,0.0020
2286.00,0.0021
2285.00,0.0021
2284.00,0.0021
2283.00,0.0021
2282.00,0.0020
2281.00,0.0019
2280.00,0.0018
2279.00,0.0017
2278.00,0.0017
2277.00,0.0017
2276.00,0.0017
2275.00,0.0018
2274.00,0.0018
2273.00,0.0018
2272.00,0.0018
2271.00,0.0018
2270.00,0.0017
2269.00,0.0017
2268.00,0.0016
2267.00,0.0015
2266.00,0.0014
2265.00,0.0013
2264.00,0.0013
2263.00,0.0014
2262.00,0.0015
2261.00,0.0016
2260.00,0.0016
2259.00,0.0017
2258.00,0.0017
2257.00,0.0017
2256.00,0.0016
2255.00,0.0015
2254.00,0.0015
2253.00,0.0014
2252.00,0.0015
2251.00,0.0014
2250.00,0.0013
2249.00,0.0012
2248.00,0.0011
2247.00,0.0010
2246.00,0.0009
2245.00,0.0009
2244.00,0.0009
2243.00,0.0010
2242.00,0.0010
2241.00,0.0011
2240.00,0.0011
2239.00,0.0011
2238.00,0.0011
2237.00,0.0012
2236.00,0.0014
2235.00,0.0015
2234.00,0.0016
2233.00,0.0016
2232.00,0.0015
2231.00,0.0014
2230.00,0.0012
2229.00,0.0012
2228.00,0.0012
2227.00,0.0012
2226.00,0.0012
2225.00,0.0012
2224.00,0.0011
2223.00,0.0011
2222.00,0.0010
2221.00,0.0010
2220.00,0.0010
2219.00,0.0010
2218.00,0.0010
2217.00,0.0010
2216.00,0.0010
2215.00,0.0010
2214.00,0.0009
2213.00,0.0009
2212.00,0.0009
2211.00,0.0007
2210.00,0.0006
2209.00,0.0005
2208.00,0.0005
2207.00,0.0006
2206.00,0.0008
2205.00,0.0010
2204.00,0.0011
2203.00,0.0012
2202.00,0.0013
2201.00,0.0014
2200.00,0.0015
2199.00,0.0015
2198.00,0.0015
2197.00,0.0015
2196.00,0.0014
2195.00,0.0014
2194.00,0.0014
2193.00,0.0014
2192.00,0.0013
2191.00,0.0011
2190.00,0.0009
2189.00,0.0008
2188.00,0.0008
2187.00,0.0008
2186.00,0.0009
2185.00,0.0011
2184.00,0.0012
2183.00,0.0013
2182.00,0.0012
2181.00,0.0012
2180.00,0.0014
2179.00,0.0015
2178.00,0.0016
2177.00,0.0016
2176.00,0.0014
2175.00,0.0012
2174.00,0.0010
2173.00,0.0011
2172.00,0.0013
2171.00,0.0015
2170.00,0.0016
2169.00,0.0016
2168.00,0.0016
2167.00,0.0016
2166.00,0.0016
2165.00,0.0018
2164.00,0.0020
2163.00,0.0023
2162.00,0.0024
2161.00,0.0022
2160.00,0.0013
2159.00,-0.0000
2158.00,-0.0012
2157.00,-0.0018
2156.00,-0.0018
2155.00,-0.0016
2154.00,-0.0013
2153.00,-0.0009
2152.00,-0.0007
2151.00,-0.0005
2150.00,-0.0004
2149.00,-0.0005
2148.00,-0.0006
2147.00,-0.0008
2146.00,-0.0009
2145.00,-0.0009
2144.00,-0.0007
2143.00,-0.0007
2142.00,-0.0006
2141.00,-0.0005
2140.00,-0.0003
2139.00,-0.0002
2138.00,-0.0002
2137.00,-0.0004
2136.00,-0.0007
2135.00,-0.0011
2134.00,-0.0013
2133.00,-0.0013
2132.00,-0.0011
2131.00,-0.0009
2130.00,-0.0008
2129.00,-0.0007
2128.00,-0.0006
2127.00,-0.0005
2126.00,-0.0004
2125.00,-0.0004
2124.00,-0.0003
2123.00,-0.0003
2122.00,-0.0002
2121.00,-0.0002
2120.00,-0.0001
2119.00,-0.0001
2118.00,0.0000
2117.00,0.0002
2116.00,0.0005
2115.00,0.0007
2114.00,0.0008
2113.00,0.0007
2112.00,0.0007
2111.00,0.0006
2110.00,0.0007
2109.00,0.0007
2108.00,0.0008
2107.00,0.0009
2106.00,0.0008
2105.00,0.0008
2104.00,0.0007
2103.00,0.0006
2102.00,0.0006
2101.00,0.0006
2100.00,0.0006
2099.00,0.0007
2098.00,0.0007
2097.00,0.0006
2096.00,0.0004
2095.00,0.0002
2094.00,0.0000
2093.00,-0.0000
2092.00,0.0000
2091.00,0.0001
2090.00,0.0003
2089.00,0.0005
2088.00,0.0006
2087.00,0.0006
2086.00,0.0006
2085.00,0.0006
2084.00,0.0006
2083.00,0.0006
2082.00,0.0006
2081.00,0.0006
2080.00,0.0006
2079.00,0.0005
2078.00,0.0005
2077.00,0.0005
2076.00,0.0006
2075.00,0.0006
2074.00,0.0005
2073.00,0.0003
2072.00,0.0003
2071.00,0.0004
2070.00,0.0006
2069.00,0.0008
2068.00,0.0009
2067.00,0.0009
2066.00,0.0007
2065.00,0.0005
2064.00,0.0003
2063.00,0.0002
2062.00,0.0002
2061.00,0.0003
2060.00,0.0004
2059.00,0.0006
2058.00,0.0008
2057.00,0.0010
2056.00,0.0011
2055.00,0.0011
2054.00,0.0011
2053.00,0.0013
2052.00,0.0016
2051.00,0.0019
2050.00,0.0020
2049.00,0.0018
2048.00,0.0015
2047.00,0.0013
2046.00,0.0011
2045.00,0.0009
2044.00,0.0006
2043.00,0.0002
2042.00,-0.0003
2041.00,-0.0005
2040.00,-0.0005
2039.00,-0.0003
2038.00,-0.0001
2037.00,0.0001
2036.00,0.0003
2035.00,0.0005
2034.00,0.0006
2033.00,0.0006
2032.00,0.0005
2031.00,0.0003
2030.00,-0.0000
2029.00,-0.0005
2028.00,-0.0009
2027.00,-0.0012
2026.00,-0.0013
2025.00,-0.0011
2024.00,-0.0008
2023.00,-0.0005
2022.00,-0.0003
2021.00,-0.0003
2020.00,-0.0005
2019.00,-0.0008
2018.00,-0.0010
2017.00,-0.0008
2016.00,-0.0004
2015.00,-0.0000
2014.00,0.0000
2013.00,-0.0002
2012.00,-0.0005
2011.00,-0.0006
2010.00,-0.0007
2009.00,-0.0007
2008.00,-0.0007
2007.00,-0.0007
2006.00,-0.0007
2005.00,-0.0007
2004.00,-0.0007
2003.00,-0.0007
2002.00,-0.0007
2001.00,-0.0007
2000.00,-0.0006
1999.00,-0.0006
1998.00,-0.0006
1997.00,-0.0005
1996.00,-0.0003
1995.00,-0.0001
1994.00,0.0000
1993.00,0.0001
1992.00,0.0003
1991.00,0.0005
1990.00,0.0006
1989.00,0.0006
1988.00,0.0006
1987.00,0.0006
1986.00,0.0007
1985.00,0.0008
1984.00,0.0010
1983.00,0.0012
1982.00,0.0015
1981.00,0.0016
1980.00,0.0016
1979.00,0.0012
1978.00,0.0006
1977.00,0.0001
1976.00,-0.0000
1975.00,0.0000
1974.00,0.0001
1973.00,0.0002
1972.00,0.0001
1971.00,-0.0000
1970.00,-0.0002
1969.00,-0.0003
1968.00,-0.0004
1967.00,-0.0005
1966.00,-0.0007
1965.00,-0.0008
1964.00,-0.0008
1963.00,-0.0007
1962.00,-0.0009
1961.00,-0.0012
1960.00,-0.0016
1959.00,-0.0018
1958.00,-0.0016
1957.00,-0.0013
1956.00,-0.0010
1955.00,-0.0008
1954.00,-0.0008
1953.00,-0.0009
1952.00,-0.0009
1951.00,-0.0008
1950.00,-0.0007
1949.00,-0.0005
1948.00,-0.0004
1947.00,-0.0004
1946.00,-0.0005
1945.00,-0.0007
1944.00,-0.0009
1943.00,-0.0009
1942.00,-0.0008
1941.00,-0.0007
1940.00,-0.0007
1939.00,-0.0007
1938.00,-0.0006
1937.00,-0.0005
1936.00,-0.0004
1935.00,-0.0004
1934.00,-0.0005
1933.00,-0.0007
1932.00,-0.0007
1931.00,-0.0007
1930.00,-0.0005
1929.00,-0.0003
1928.00,-0.0003
1927.00,-0.0003
1926.00,-0.0003
1925.00,-0.0002
1924.00,-0.0001
1923.00,-0.0000
1922.00,0.0000
1921.00,0.0000
1920.00,0.0000
1919.00,0.0000
1918.00,0.0001
1917.00,0.0001
1916.00,0.0002
1915.00,0.0003
1914.00,0.0003
1913.00,0.0003
1912.00,0.0004
1911.00,0.0004
1910.00,0.0004
1909.00,0.0003
1908.00,0.0003
1907.00,0.0002
1906.00,0.0002
1905.00,0.0002
1904.00,0.0002
1903.00,0.0002
1902.00,0.0002
1901.00,0.0002
1900.00,0.0003
1899.00,0.0004
1898.00,0.0005
1897.00,0.0006
1896.00,0.0006
1895.00,0.0007
1894.00,0.0006
1893.00,0.0006
1892.00,0.0005
1891.00,0.0004
1890.00,0.0003
1889.00,0.0003
1888.00,0.0004
1887.00,0.0004
1886.00,0.0004
1885.00,0.0004
1884.00,0.0004
1883.00,0.0004
1882.00,0.0003
1881.00,0.0004
1880.00,0.0004
1879.00,0.0004
1878.00,0.0004
1877.00,0.0004
1876.00,0.0005
1875.00,0.0005
1874.00,0.0004
1873.00,0.0005
1872.00,0.0005
1871.00,0.0006
1870.00,0.0007
1869.00,0.0007
1868.00,0.0006
1867.00,0.0006
1866.00,0.0005
1865.00,0.0005
1864.00,0.0005
1863.00,0.0005
1862.00,0.0006
1861.00,0.0006
1860.00,0.0007
1859.00,0.0007
1858.00,0.0006
1857.00,0.0006
1856.00,0.0006
1855.00,0.0006
1854.00,0.0006
1853.00,0.0006
1852.00,0.0006
1851.00,0.0006
1850.00,0.0006
1849.00,0.0006
1848.00,0.0006
1847.00,0.0006
1846.00,0.0006
1845.00,0.0006
1844.00,0.0006
1843.00,0.0006
1842.00,0.0006
1841.00,0.0006
1840.00,0.0006
1839.00,0.0006
1838.00,0.0007
1837.00,0.0007
1836.00,0.0007
1835.00,0.0007
1834.00,0.0007
1833.00,0.0007
1832.00,0.0007
1831.00,0.0007
1830.00,0.0008
1829.00,0.0008
1828.00,0.0009
1827.00,0.0009
1826.00,0.0009
1825.00,0.0009
1824.00,0.0009
1823.00,0.0009
1822.00,0.0009
1821.00,0.0009
1820.00,0.0009
1819.00,0.0008
1818.00,0.0007
1817.00,0.0006
1816.00,0.0006
1815.00,0.0006
1814.00,0.0007
1813.00,0.0007
1812.00,0.0008
1811.00,0.0008
1810.00,0.0008
1809.00,0.0008
1808.00,0.0008
1807.00,0.0008
1806.00,0.0008
1805.00,0.0009
1804.00,0.0009
1803.00,0.0009
1802.00,0.0009
1801.00,0.0010
1800.00,0.0010
1799.00,0.0010
1798.00,0.0011
1797.00,0.0010
1796.00,0.0010
1795.00,0.0010
1794.00,0.0010
1793.00,0.0010
1792.00,0.0011
1791.00,0.0012
1790.00,0.0012
1789.00,0.0013
1788.00,0.0014
1787.00,0.0014
1786.00,0.0015
1785.00,0.0014
1784.00,0.0014
1783.00,0.0014
1782.00,0.0014
1781.00,0.0014
1780.00,0.0013
1779.00,0.0013
1778.00,0.0013
1777.00,0.0013
1776.00,0.0013
1775.00,0.0014
1774.00,0.0014
1773.00,0.0014
1772.00,0.0014
1771.00,0.0015
1770.00,0.0015
1769.00,0.0015
1768.00,0.0016
1767.00,0.0016
1766.00,0.0016
1765.00,0.0017
1764.00,0.0017
1763.00,0.0016
1762.00,0.0016
1761.00,0.0017
1760.00,0.0018
1759.00,0.0019
1758.00,0.0019
1757.00,0.0019
1756.00,0.0019
1755.00,0.0019
1754.00,0.0020
1753.00,0.0020
1752.00,0.0021
1751.00,0.0021
1750.00,0.0022
1749.00,0.0023
1748.00,0.0023
1747.00,0.0024
1746.00,0.0024
1745.00,0.0024
1744.00,0.0024
1743.00,0.0024
1742.00,0.0025
1741.00,0.0025
1740.00,0.0026
1739.00,0.0027
1738.00,0.0027
1737.00,0.0027
1736.00,0.0027
1735.00,0.0027
1734.00,0.0028
1733.00,0.0029
1732.00,0.0030
1731.00,0.0031
1730.00,0.0030
1729.00,0.0030
1728.00,0.0030
1727.00,0.0030
1726.00,0.0030
1725.00,0.0030
1724.00,0.0029
1723.00,0.0029
1722.00,0.0028
1721.00,0.0029
1720.00,0.0029
1719.00,0.0029
1718.00,0.0030
1717.00,0.0031
1716.00,0.0031
1715.00,0.0031
1714.00,0.0031
1713.00,0.0031
1712.00,0.0031
1711.00,0.0031
1710.00,0.0032
1709.00,0.0032
1708.00,0.0032
1707.00,0.0032
1706.00,0.0032
1705.00,0.0033
1704.00,0.0034
1703.00,0.0035
1702.00,0.0035
1701.00,0.0037
1700.00,0.0039
1699.00,0.0041
1698.00,0.0041
1697.00,0.0041
1696.00,0.0042
1695.00,0.0043
1694.00,0.0044
1693.00,0.0044
1692.00,0.0045
1691.00,0.0046
1690.00,0.0046
1689.00,0.0047
1688.00,0.0048
1687.00,0.0049
1686.00,0.0051
1685.00,0.0054
1684.00,0.0057
1683.00,0.0059
1682.00,0.0060
1681.00,0.0060
1680.00,0.0061
1679.00,0.0062
1678.00,0.0062
1677.00,0.0063
1676.00,0.0065
1675.00,0.0066
1674.00,0.0068
1673.00,0.0070
1672.00,0.0071
1671.00,0.0073
1670.00,0.0074
1669.00,0.0076
1668.00,0.0078
1667.00,0.0078
1666.00,0.0079
1665.00,0.0080
1664.00,0.0081
1663.00,0.0081
1662.00,0.0082
1661.00,0.0082
1660.00,0.0083
1659.00,0.0084
1658.00,0.0086
1657.00,0.0087
1656.00,0.0089
1655.00,0.0091
1654.00,0.0094
1653.00,0.0099
1652.00,0.0103
1651.00,0.0106
1650.00,0.0107
1649.00,0.0110
1648.00,0.0114
1647.00,0.0118
1646.00,0.0120
1645.00,0.0120
1644.00,0.0118
1643.00,0.0115
1642.00,0.0112
1641.00,0.0110
1640.00,0.0109
1639.00,0.0108
1638.00,0.0107
1637.00,0.0107
1636.00,0.0106
1635.00,0.0105
1634.00,0.0104
1633.00,0.0104
1632.00,0.0104
1631.00,0.0103
1630.00,0.0103
1629.00,0.0103
1628.00,0.0103
1627.00,0.0102
1626.00,0.0101
1625.00,0.0100
1624.00,0.0099
1623.00,0.0098
1622.00,0.0098
1621.00,0.0097
1620.00,0.0097
1619.00,0.0096
1618.00,0.0096
1617.00,0.0096
1616.00,0.0096
1615.00,0.0096
1614.00,0.0095
1613.00,0.0095
1612.00,0.0094
1611.00,0.0094
1610.00,0.0094
1609.00,0.0095
1608.00,0.0095
1607.00,0.0095
1606.00,0.0095
1605.00,0.0095
1604.00,0.0096
1603.00,0.0096
1602.00,0.0096
1601.00,0.0096
1600.00,0.0096
1599.00,0.0096
1598.00,0.0095
1597.00,0.0094
1596.00,0.0094
1595.00,0.0093
1594.00,0.0093
1593.00,0.0093
1592.00,0.0093
1591.00,0.0093
1590.00,0.0093
1589.00,0.0093
1588.00,0.0093
1587.00,0.0093
1586.00,0.0093
1585.00,0.0094
1584.00,0.0096
1583.00,0.0097
1582.00,0.0098
1581.00,0.0099
1580.00,0.0100
1579.00,0.0101
1578.00,0.0101
1577.00,0.0102
1576.00,0.0101
1575.00,0.0100
1574.00,0.0099
1573.00,0.0098
1572.00,0.0097
1571.00,0.0096
1570.00,0.0094
1569.00,0.0093
1568.00,0.0092
1567.00,0.0092
1566.00,0.0092
1565.00,0.0092
1564.00,0.0092
1563.00,0.0093
1562.00,0.0093
1561.00,0.0093
1560.00,0.0094
1559.00,0.0094
1558.00,0.0094
1557.00,0.0095
1556.00,0.0096
1555.00,0.0097
1554.00,0.0098
1553.00,0.0098
1552.00,0.0099
1551.00,0.0100
1550.00,0.0101
1549.00,0.0102
1548.00,0.0103
1547.00,0.0104
1546.00,0.0105
1545.00,0.0106
1544.00,0.0108
1543.00,0.0109
1542.00,0.0111
1541.00,0.0111
1540.00,0.0111
1539.00,0.0109
1538.00,0.0107
1537.00,0.0104
1536.00,0.0102
1535.00,0.0099
1534.00,0.0096
1533.00,0.0093
1532.00,0.0091
1531.00,0.0089
1530.00,0.0087
1529.00,0.0085
1528.00,0.0084
1527.00,0.0083
1526.00,0.0081
1525.00,0.0080
1524.00,0.0080
1523.00,0.0080
1522.00,0.0079
1521.00,0.0078
1520.00,0.0078
1519.00,0.0077
1518.00,0.0077
1517.00,0.0077
1516.00,0.0077
1515.00,0.0077
1514.00,0.0077
1513.00,0.0078
1512.00,0.0079
1511.00,0.0080
1510.00,0.0080
1509.00,0.0082
1508.00,0.0084
1507.00,0.0085
1506.00,0.0085
1505.00,0.0086
1504.00,0.0087
1503.00,0.0088
1502.00,0.0089
1501.00,0.0091
1500.00,0.0095
1499.00,0.0099
1498.00,0.0103
1497.00,0.0108
1496.00,0.0112
1495.00,0.0116
1494.00,0.0118
1493.00,0.0122
1492.00,0.0126
1491.00,0.0129
1490.00,0.0133
1489.00,0.0138
1488.00,0.0143
1487.00,0.0148
1486.00,0.0153
1485.00,0.0159
1484.00,0.0166
1483.00,0.0174
1482.00,0.0182
1481.00,0.0194
1480.00,0.0206
1479.00,0.0219
1478.00,0.0234
1477.00,0.0253
1476.00,0.0276
1475.00,0.0302
1474.00,0.0339
1473.00,0.0394
1472.00,0.0461
1471.00,0.0527
1470.00,0.0591
1469.00,0.0657
1468.00,0.0729
1467.00,0.0809
1466.00,0.0901
1465.00,0.1002
1464.00,0.1093
1463.00,0.1158
1462.00,0.1200
1461.00,0.1231
1460.00,0.1251
1459.00,0.1265
1458.00,0.1273
1457.00,0.1279
1456.00,0.1276
1455.00,0.1267
1454.00,0.1254
1453.00,0.1234
1452.00,0.1204
1451.00,0.1160
1450.00,0.1102
1449.00,0.1023
1448.00,0.0927
1447.00,0.0829
1446.00,0.0742
1445.00,0.0670
1444.00,0.0609
1443.00,0.0561
1442.00,0.0526
1441.00,0.0504
1440.00,0.0493
1439.00,0.0491
1438.00,0.0498
1437.00,0.0505
1436.00,0.0498
1435.00,0.0473
1434.00,0.0433
1433.00,0.0385
1432.00,0.0335
1431.00,0.0291
1430.00,0.0257
1429.00,0.0233
1428.00,0.0217
1427.00,0.0209
1426.00,0.0203
1425.00,0.0199
1424.00,0.0194
1423.00,0.0191
1422.00,0.0190
1421.00,0.0188
1420.00,0.0186
1419.00,0.0184
1418.00,0.0181
1417.00,0.0178
1416.00,0.0174
1415.00,0.0172
1414.00,0.0170
1413.00,0.0168
1412.00,0.0165
1411.00,0.0163
1410.00,0.0161
1409.00,0.0160
1408.00,0.0158
1407.00,0.0158
1406.00,0.0158
1405.00,0.0157
1404.00,0.0157
1403.00,0.0157
1402.00,0.0159
1401.00,0.0159
1400.00,0.0160
1399.00,0.0161
1398.00,0.0164
1397.00,0.0166
1396.00,0.0168
1395.00,0.0171
1394.00,0.0177
1393.00,0.0182
1392.00,0.0188
1391.00,0.0196
1390.00,0.0208
1389.00,0.0224
1388.00,0.0250
1387.00,0.0288
1386.00,0.0340
1385.00,0.0405
1384.00,0.0490
1383.00,0.0607
1382.00,0.0764
1381.00,0.0970
1380.00,0.1232
1379.00,0.1539
1378.00,0.1847
1377.00,0.2087
1376.00,0.2190
1375.00,0.2107
1374.00,0.1859
1373.00,0.1543
1372.00,0.1247
1371.00,0.1001
1370.00,0.0802
1369.00,0.0650
1368.00,0.0545
1367.00,0.0481
1366.00,0.0446
1365.00,0.0432
1364.00,0.0435
1363.00,0.0452
1362.00,0.0478
1361.00,0.0505
1360.00,0.0526
1359.00,0.0532
1358.00,0.0520
1357.00,0.0489
1356.00,0.0446
1355.00,0.0396
1354.00,0.0349
1353.00,0.0308
1352.00,0.0276
1351.00,0.0250
1350.00,0.0230
1349.00,0.0214
1348.00,0.0201
1347.00,0.0191
1346.00,0.0183
1345.00,0.0177
1344.00,0.0171
1343.00,0.0167
1342.00,0.0163
1341.00,0.0159
1340.00,0.0156
1339.00,0.0153
1338.00,0.0151
1337.00,0.0150
1336.00,0.0151
1335.00,0.0153
1334.00,0.0157
1333.00,0.0161
1332.00,0.0167
1331.00,0.0171
1330.00,0.0172
1329.00,0.0170
1328.00,0.0166
1327.00,0.0159
1326.00,0.0151
1325.00,0.0144
1324.00,0.0137
1323.00,0.0132
1322.00,0.0127
1321.00,0.0124
1320.00,0.0121
1319.00,0.0119
1318.00,0.0117
1317.00,0.0115
1316.00,0.0113
1315.00,0.0112
1314.00,0.0111
1313.00,0.0111
1312.00,0.0111
1311.00,0.0113
1310.00,0.0115
1309.00,0.0120
1308.00,0.0125
1307.00,0.0133
1306.00,0.0140
1305.00,0.0146
1304.00,0.0149
1303.00,0.0150
1302.00,0.0149
1301.00,0.0148
1300.00,0.0149
1299.00,0.0150
1298.00,0.0153
1297.00,0.0154
1296.00,0.0155
1295.00,0.0153
1294.00,0.0149
1293.00,0.0144
1292.00,0.0138
1291.00,0.0132
1290.00,0.0126
1289.00,0.0121
1288.00,0.0116
1287.00,0.0113
1286.00,0.0110
1285.00,0.0108
1284.00,0.0106
1283.00,0.0104
1282.00,0.0103
1281.00,0.0102
1280.00,0.0101
1279.00,0.0100
1278.00,0.0099
1277.00,0.0099
1276.00,0.0099
1275.00,0.0099
1274.00,0.0099
1273.00,0.0099
1272.00,0.0099
1271.00,0.0099
1270.00,0.0099
1269.00,0.0100
1268.00,0.0101
1267.00,0.0103
1266.00,0.0106
1265.00,0.0108
1264.00,0.0111
1263.00,0.0114
1262.00,0.0117
1261.00,0.0120
1260.00,0.0124
1259.00,0.0128
1258.00,0.0133
1257.00,0.0137
1256.00,0.0138
1255.00,0.0137
1254.00,0.0133
1253.00,0.0127
1252.00,0.0122
1251.00,0.0118
1250.00,0.0115
1249.00,0.0112
1248.00,0.0111
1247.00,0.0110
1246.00,0.0109
1245.00,0.0108
1244.00,0.0107
1243.00,0.0106
1242.00,0.0105
1241.00,0.0104
1240.00,0.0103
1239.00,0.0103
1238.00,0.0102
1237.00,0.0101
1236.00,0.0101
1235.00,0.0100
1234.00,0.0100
1233.00,0.0099
1232.00,0.0099
1231.00,0.0099
1230.00,0.0099
1229.00,0.0099
1228.00,0.0100
1227.00,0.0101
1226.00,0.0103
1225.00,0.0106
1224.00,0.0110
1223.00,0.0114
1222.00,0.0118
1221.00,0.0121
1220.00,0.0124
1219.00,0.0125
1218.00,0.0124
1217.00,0.0122
1216.00,0.0119
1215.00,0.0115
1214.00,0.0111
1213.00,0.0106
1212.00,0.0103
1211.00,0.0100
1210.00,0.0097
1209.00,0.0096
1208.00,0.0094
1207.00,0.0093
1206.00,0.0092
1205.00,0.0092
1204.00,0.0091
1203.00,0.0090
1202.00,0.0090
1201.00,0.0089
1200.00,0.0089
1199.00,0.0089
1198.00,0.0089
1197.00,0.0089
1196.00,0.0089
1195.00,0.0089
1194.00,0.0088
1193.00,0.0088
1192.00,0.0088
1191.00,0.0087
1190.00,0.0088
1189.00,0.0088
1188.00,0.0088
1187.00,0.0088
1186.00,0.0089
1185.00,0.0090
1184.00,0.0091
1183.00,0.0092
1182.00,0.0094
1181.00,0.0096
1180.00,0.0099
1179.00,0.0103
1178.00,0.0108
1177.00,0.0115
1176.00,0.0123
1175.00,0.0134
1174.00,0.0149
1173.00,0.0168
1172.00,0.0191
1171.00,0.0215
1170.00,0.0238
1169.00,0.0256
1168.00,0.0269
1167.00,0.0273
1166.00,0.0272
1165.00,0.0265
1164.00,0.0256
1163.00,0.0247
1162.00,0.0239
1161.00,0.0233
1160.00,0.0227
1159.00,0.0224
1158.00,0.0222
1157.00,0.0221
1156.00,0.0221
1155.00,0.0221
1154.00,0.0222
1153.00,0.0221
1152.00,0.0219
1151.00,0.0215
1150.00,0.0208
1149.00,0.0200
1148.00,0.0190
1147.00,0.0181
1146.00,0.0173
1145.00,0.0165
1144.00,0.0159
1143.00,0.0153
1142.00,0.0148
1141.00,0.0143
1140.00,0.0139
1139.00,0.0134
1138.00,0.0130
1137.00,0.0126
1136.00,0.0124
1135.00,0.0123
1134.00,0.0122
1133.00,0.0123
1132.00,0.0124
1131.00,0.0125
1130.00,0.0127
1129.00,0.0129
1128.00,0.0131
1127.00,0.0132
1126.00,0.0134
1125.00,0.0136
1124.00,0.0139
1123.00,0.0141
1122.00,0.0144
1121.00,0.0145
1120.00,0.0147
1119.00,0.0149
1118.00,0.0151
1117.00,0.0154
1116.00,0.0155
1115.00,0.0157
1114.00,0.0158
1113.00,0.0160
1112.00,0.0161
1111.00,0.0163
1110.00,0.0167
1109.00,0.0172
1108.00,0.0178
1107.00,0.0185
1106.00,0.0193
1105.00,0.0201
1104.00,0.0208
1103.00,0.0211
1102.00,0.0210
1101.00,0.0206
1100.00,0.0200
1099.00,0.0194
1098.00,0.0187
1097.00,0.0181
1096.00,0.0175
1095.00,0.0169
1094.00,0.0164
1093.00,0.0160
1092.00,0.0157
1091.00,0.0155
1090.00,0.0153
1089.00,0.0151
1088.00,0.0149
1087.00,0.0148
1086.00,0.0146
1085.00,0.0145
1084.00,0.0144
1083.00,0.0144
1082.00,0.0144
1081.00,0.0144
1080.00,0.0142
1079.00,0.0140
1078.00,0.0138
1077.00,0.0136
1076.00,0.0136
1075.00,0.0136
1074.00,0.0135
1073.00,0.0135
1072.00,0.0134
1071.00,0.0135
1070.00,0.0135
1069.00,0.0135
1068.00,0.0135
1067.00,0.0135
1066.00,0.0135
1065.00,0.0137
1064.00,0.0138
1063.00,0.0140
1062.00,0.0140
1061.00,0.0141
1060.00,0.0141
1059.00,0.0142
1058.00,0.0143
1057.00,0.0142
1056.00,0.0141
1055.00,0.0140
1054.00,0.0140
1053.00,0.0141
1052.00,0.0143
1051.00,0.0145
1050.00,0.0147
1049.00,0.0148
1048.00,0.0149
1047.00,0.0149
1046.00,0.0150
1045.00,0.0151
1044.00,0.0151
1043.00,0.0150
1042.00,0.0150
1041.00,0.0149
1040.00,0.0148
1039.00,0.0148
1038.00,0.0149
1037.00,0.0150
1036.00,0.0150
1035.00,0.0150
1034.00,0.0149
1033.00,0.0147
1032.00,0.0145
1031.00,0.0145
1030.00,0.0145
1029.00,0.0145
1028.00,0.0145
1027.00,0.0144
1026.00,0.0143
1025.00,0.0142
1024.00,0.0141
1023.00,0.0141
1022.00,0.0141
1021.00,0.0140
1020.00,0.0140
1019.00,0.0139
1018.00,0.0139
1017.00,0.0140
1016.00,0.0141
1015.00,0.0142
1014.00,0.0144
1013.00,0.0146
1012.00,0.0148
1011.00,0.0149
1010.00,0.0150
1009.00,0.0151
1008.00,0.0153
1007.00,0.0158
1006.00,0.0164
1005.00,0.0172
1004.00,0.0184
1003.00,0.0198
1002.00,0.0217
1001.00,0.0239
1000.00,0.0262
999.00,0.0279
998.00,0.0286
997.00,0.0279
996.00,0.0259
995.00,0.0234
994.00,0.0207
993.00,0.0185
992.00,0.0167
991.00,0.0153
990.00,0.0144
989.00,0.0138
988.00,0.0134
987.00,0.0132
986.00,0.0132
985.00,0.0134
984.00,0.0137
983.00,0.0143
982.00,0.0152
981.00,0.0166
980.00,0.0185
979.00,0.0208
978.00,0.0237
977.00,0.0268
976.00,0.0301
975.00,0.0329
974.00,0.0347
973.00,0.0350
972.00,0.0337
971.00,0.0309
970.00,0.0275
969.00,0.0240
968.00,0.0211
967.00,0.0187
966.00,0.0170
965.00,0.0156
964.00,0.0145
963.00,0.0136
962.00,0.0129
961.00,0.0124
960.00,0.0120
959.00,0.0117
958.00,0.0114
957.00,0.0111
956.00,0.0109
955.00,0.0107
954.00,0.0106
953.00,0.0105
952.00,0.0105
951.00,0.0104
950.00,0.0104
949.00,0.0103
948.00,0.0103
947.00,0.0104
946.00,0.0106
945.00,0.0110
944.00,0.0114
943.00,0.0118
942.00,0.0121
941.00,0.0122
940.00,0.0121
939.00,0.0118
938.00,0.0113
937.00,0.0107
936.00,0.0102
935.00,0.0097
934.00,0.0093
933.00,0.0089
932.00,0.0086
931.00,0.0084
930.00,0.0083
929.00,0.0082
928.00,0.0082
927.00,0.0081
926.00,0.0082
925.00,0.0082
924.00,0.0082
923.00,0.0082
922.00,0.0082
921.00,0.0083
920.00,0.0085
919.00,0.0086
918.00,0.0088
917.00,0.0089
916.00,0.0090
915.00,0.0091
914.00,0.0091
913.00,0.0093
912.00,0.0094
911.00,0.0095
910.00,0.0097
909.00,0.0098
908.00,0.0101
907.00,0.0105
906.00,0.0112
905.00,0.0123
904.00,0.0141
903.00,0.0163
902.00,0.0188
901.00,0.0210
900.00,0.0225
899.00,0.0228
898.00,0.0219
897.00,0.0200
896.00,0.0177
895.00,0.0155
894.00,0.0136
893.00,0.0121
892.00,0.0112
891.00,0.0105
890.00,0.0102
889.00,0.0099
888.00,0.0097
887.00,0.0095
886.00,0.0093
885.00,0.0092
884.00,0.0090
883.00,0.0090
882.00,0.0090
881.00,0.0090
880.00,0.0091
879.00,0.0093
878.00,0.0094
877.00,0.0097
876.00,0.0099
875.00,0.0100
874.00,0.0100
873.00,0.0098
872.00,0.0095
871.00,0.0092
870.00,0.0089
869.00,0.0088
868.00,0.0088
867.00,0.0088
866.00,0.0088
865.00,0.0089
864.00,0.0089
863.00,0.0090
862.00,0.0091
861.00,0.0092
860.00,0.0095
859.00,0.0098
858.00,0.0101
857.00,0.0102
856.00,0.0102
855.00,0.0101
854.00,0.0101
853.00,0.0102
852.00,0.0104
851.00,0.0107
850.00,0.0112
849.00,0.0118
848.00,0.0124
847.00,0.0133
846.00,0.0147
845.00,0.0168
844.00,0.0195
843.00,0.0223
842.00,0.0242
841.00,0.0244
840.00,0.0228
839.00,0.0201
838.00,0.0175
837.00,0.0155
836.00,0.0143
835.00,0.0134
834.00,0.0129
833.00,0.0125
832.00,0.0122
831.00,0.0121
830.00,0.0119
829.00,0.0119
828.00,0.0119
827.00,0.0120
826.00,0.0121
825.00,0.0121
824.00,0.0121
823.00,0.0120
822.00,0.0121
821.00,0.0123
820.00,0.0127
819.00,0.0130
818.00,0.0135
817.00,0.0142
816.00,0.0151
815.00,0.0164
814.00,0.0181
813.00,0.0200
812.00,0.0220
811.00,0.0239
810.00,0.0254
809.00,0.0262
808.00,0.0261
807.00,0.0251
806.00,0.0234
805.00,0.0213
804.00,0.0194
803.00,0.0177
802.00,0.0164
801.00,0.0153
800.00,0.0143
799.00,0.0135
798.00,0.0128
797.00,0.0122
796.00,0.0118
795.00,0.0114
794.00,0.0111
793.00,0.0109
792.00,0.0107
791.00,0.0105
790.00,0.0104
789.00,0.0101
788.00,0.0099
787.00,0.0096
786.00,0.0093
785.00,0.0091
784.00,0.0088
783.00,0.0086
782.00,0.0085
781.00,0.0084
780.00,0.0084
779.00,0.0083
778.00,0.0082
777.00,0.0080
776.00,0.0080
775.00,0.0081
774.00,0.0084
773.00,0.0086
772.00,0.0088
771.00,0.0089
770.00,0.0090
769.00,0.0092
768.00,0.0094
767.00,0.0095
766.00,0.0096
765.00,0.0095
764.00,0.0094
763.00,0.0091
762.00,0.0088
761.00,0.0084
760.00,0.0081
759.00,0.0079
758.00,0.0079
757.00,0.0079
756.00,0.0077
755.00,0.0076
754.00,0.0075
753.00,0.0075
752.00,0.0077
751.00,0.0078
750.00,0.0078
749.00,0.0077
748.00,0.0076
747.00,0.0076
746.00,0.0077
745.00,0.0079
744.00,0.0080
743.00,0.0081
742.00,0.0082
741.00,0.0084
740.00,0.0086
739.00,0.0087
738.00,0.0088
737.00,0.0088
736.00,0.0090
735.00,0.0093
734.00,0.0097
733.00,0.0098
732.00,0.0098
731.00,0.0097
730.00,0.0096
729.00,0.0095
728.00,0.0096
727.00,0.0097
726.00,0.0098
725.00,0.0100
724.00,0.0101
723.00,0.0102
722.00,0.0102
721.00,0.0100
720.00,0.0098
719.00,0.0095
718.00,0.0093
717.00,0.0091
716.00,0.0091
715.00,0.0091
714.00,0.0092
713.00,0.0093
712.00,0.0093
711.00,0.0092
710.00,0.0092
709.00,0.0092
708.00,0.0092
707.00,0.0091
706.00,0.0090
705.00,0.0091
704.00,0.0092
703.00,0.0092
702.00,0.0091
701.00,0.0089
700.00,0.0087
699.00,0.0085
698.00,0.0084
697.00,0.0084
696.00,0.0084
695.00,0.0084
694.00,0.0085
693.00,0.0086
692.00,0.0088
691.00,0.0090
690.00,0.0091
689.00,0.0090
688.00,0.0088
687.00,0.0087
686.00,0.0087
685.00,0.0088
684.00,0.0088
683.00,0.0088
682.00,0.0088
681.00,0.0089
680.00,0.0090
679.00,0.0091
678.00,0.0091
677.00,0.0091
676.00,0.0090
675.00,0.0090
674.00,0.0090
673.00,0.0090
672.00,0.0090
671.00,0.0091
670.00,0.0092
669.00,0.0092
668.00,0.0091
667.00,0.0090
666.00,0.0089
665.00,0.0089
664.00,0.0091
663.00,0.0092
662.00,0.0094
661.00,0.0095
660.00,0.0094
659.00,0.0093
658.00,0.0093
657.00,0.0092
656.00,0.0092
655.00,0.0091
654.00,0.0091
653.00,0.0093
652.00,0.0095
651.00,0.0094
650.00,0.0092
649.00,0.0090
648.00,0.0089
647.00,0.0091
646.00,0.0093
645.00,0.0096
644.00,0.0096
643.00,0.0095
642.00,0.0093
641.00,0.0091
640.00,0.0090
639.00,0.0089
638.00,0.0090
637.00,0.0091
636.00,0.0093
635.00,0.0095
634.00,0.0098
633.00,0.0100
632.00,0.0100
631.00,0.0099
630.00,0.0097
629.00,0.0095
628.00,0.0097
627.00,0.0101
626.00,0.0105
625.00,0.0107
624.00,0.0107
623.00,0.0106
622.00,0.0105
621.00,0.0104
620.00,0.0102
619.00,0.0099
618.00,0.0095
617.00,0.0092
616.00,0.0091
615.00,0.0092
614.00,0.0094
613.00,0.0096
612.00,0.0096
611.00,0.0095
610.00,0.0094
609.00,0.0093
608.00,0.0094
607.00,0.0096
606.00,0.0096
605.00,0.0096
604.00,0.0095
603.00,0.0095
602.00,0.0096
601.00,0.0096
600.00,0.0096
599.00,0.0098
598.00,0.0098
597.00,0.0098
596.00,0.0098
595.00,0.0098
594.00,0.0099
593.00,0.0099
592.00,0.0097
591.00,0.0095
590.00,0.0094
589.00,0.0094
588.00,0.0096
587.00,0.0099
586.00,0.0102
585.00,0.0104
584.00,0.0104
583.00,0.0104
582.00,0.0105
581.00,0.0107
580.00,0.0109
579.00,0.0112
578.00,0.0114
577.00,0.0115
576.00,0.0114
575.00,0.0113
574.00,0.0111
573.00,0.0108
572.00,0.0106
571.00,0.0103
570.00,0.0102
569.00,0.0103
568.00,0.0106
567.00,0.0108
566.00,0.0108
565.00,0.0105
564.00,0.0103
563.00,0.0103
562.00,0.0106
561.00,0.0109
560.00,0.0112
559.00,0.0114
558.00,0.0114
557.00,0.0112
556.00,0.0110
555.00,0.0109
554.00,0.0109
553.00,0.0109
552.00,0.0108
551.00,0.0105
550.00,0.0101
549.00,0.0099
548.00,0.0099
547.00,0.0102
546.00,0.0104
545.00,0.0105
544.00,0.0106
543.00,0.0107
542.00,0.0107
541.00,0.0104
540.00,0.0100
539.00,0.0098
538.00,0.0100
537.00,0.0106
536.00,0.0114
535.00,0.0122
534.00,0.0127
533.00,0.0129
532.00,0.0128
531.00,0.0126
530.00,0.0127
529.00,0.0129
528.00,0.0131
527.00,0.0131
526.00,0.0128
525.00,0.0124
524.00,0.0122
523.00,0.0121
522.00,0.0120
521.00,0.0119
520.00,0.0116
519.00,0.0111
518.00,0.0107
517.00,0.0105
516.00,0.0105
515.00,0.0106
514.00,0.0106
513.00,0.0104
512.00,0.0104
511.00,0.0106
510.00,0.0112
509.00,0.0116
508.00,0.0115
507.00,0.0111
506.00,0.0105
505.00,0.0100
504.00,0.0098
503.00,0.0099
502.00,0.0099
501.00,0.0095
500.00,0.0089
499.00,0.0086
498.00,0.0088
497.00,0.0096
496.00,0.0104
495.00,0.0107
494.00,0.0107
493.00,0.0107
492.00,0.0105
491.00,0.0100
490.00,0.0092
489.00,0.0085
488.00,0.0083
487.00,0.0084
486.00,0.0084
485.00,0.0082
484.00,0.0080
483.00,0.0080
482.00,0.0082
481.00,0.0085
480.00,0.0090
479.00,0.0096
478.00,0.0100
477.00,0.0101
476.00,0.0104
475.00,0.0111
474.00,0.0117
473.00,0.0116
472.00,0.0110
471.00,0.0108
470.00,0.0115
469.00,0.0127
468.00,0.0140
467.00,0.0150
466.00,0.0155
465.00,0.0151
464.00,0.0142
463.00,0.0137
462.00,0.0144
461.00,0.0160
460.00,0.0179
459.00,0.0193
458.00,0.0198
457.00,0.0195
456.00,0.0188
455.00,0.0180
454.00,0.0169
453.00,0.0153
452.00,0.0136
451.00,0.0123
450.00,0.0120
