Created as New Dataset,Sample 150 By Administrator Date Tuesday, September 09 2025
cm-1,A
4000.00,0.0011
3999.00,0.0011
3998.00,0.0011
3997.00,0.0011
3996.00,0.0011
3995.00,0.0011
3994.00,0.0011
3993.00,0.0011
3992.00,0.0011
3991.00,0.0011
3990.00,0.0011
3989.00,0.0011
3988.00,0.0011
3987.00,0.0011
3986.00,0.0011
3985.00,0.0011
3984.00,0.0011
3983.00,0.0011
3982.00,0.0010
3981.00,0.0010
3980.00,0.0010
3979.00,0.0010
3978.00,0.0010
3977.00,0.0010
3976.00,0.0010
3975.00,0.0010
3974.00,0.0010
3973.00,0.0010
3972.00,0.0010
3971.00,0.0010
3970.00,0.0010
3969.00,0.0010
3968.00,0.0010
3967.00,0.0010
3966.00,0.0010
3965.00,0.0010
3964.00,0.0010
3963.00,0.0010
3962.00,0.0010
3961.00,0.0010
3960.00,0.0010
3959.00,0.0010
3958.00,0.0010
3957.00,0.0010
3956.00,0.0010
3955.00,0.0010
3954.00,0.0009
3953.00,0.0009
3952.00,0.0009
3951.00,0.0009
3950.00,0.0010
3949.00,0.0010
3948.00,0.0010
3947.00,0.0010
3946.00,0.0010
3945.00,0.0010
3944.00,0.0010
3943.00,0.0009
3942.00,0.0009
3941.00,0.0009
3940.00,0.0009
3939.00,0.0009
3938.00,0.0010
3937.00,0.0010
3936.00,0.0010
3935.00,0.0010
3934.00,0.0010
3933.00,0.0010
3932.00,0.0010
3931.00,0.0010
3930.00,0.0010
3929.00,0.0010
3928.00,0.0010
3927.00,0.0010
3926.00,0.0009
3925.00,0.0009
3924.00,0.0009
3923.00,0.0010
3922.00,0.0010
3921.00,0.0010
3920.00,0.0010
3919.00,0.0010
3918.00,0.0011
3917.00,0.0011
3916.00,0.0011
3915.00,0.0011
3914.00,0.0010
3913.00,0.0010
3912.00,0.0009
3911.00,0.0009
3910.00,0.0009
3909.00,0.0009
3908.00,0.0010
3907.00,0.0009
3906.00,0.0009
3905.00,0.0009
3904.00,0.0009
3903.00,0.0009
3902.00,0.0009
3901.00,0.0010
3900.00,0.0010
3899.00,0.0010
3898.00,0.0010
3897.00,0.0010
3896.00,0.0010
3895.00,0.0010
3894.00,0.0010
3893.00,0.0010
3892.00,0.0010
3891.00,0.0010
3890.00,0.0010
3889.00,0.0010
3888.00,0.0010
3887.00,0.0010
3886.00,0.0011
3885.00,0.0011
3884.00,0.0010
3883.00,0.0010
3882.00,0.0009
3881.00,0.0009
3880.00,0.0009
3879.00,0.0009
3878.00,0.0009
3877.00,0.0009
3876.00,0.0009
3875.00,0.0009
3874.00,0.0010
3873.00,0.0010
3872.00,0.0010
3871.00,0.0010
3870.00,0.0010
3869.00,0.0010
3868.00,0.0010
3867.00,0.0010
3866.00,0.0009
3865.00,0.0009
3864.00,0.0009
3863.00,0.0009
3862.00,0.0009
3861.00,0.0009
3860.00,0.0009
3859.00,0.0010
3858.00,0.0010
3857.00,0.0010
3856.00,0.0010
3855.00,0.0010
3854.00,0.0010
3853.00,0.0010
3852.00,0.0009
3851.00,0.0009
3850.00,0.0009
3849.00,0.0008
3848.00,0.0008
3847.00,0.0008
3846.00,0.0008
3845.00,0.0009
3844.00,0.0009
3843.00,0.0009
3842.00,0.0009
3841.00,0.0009
3840.00,0.0010
3839.00,0.0009
3838.00,0.0009
3837.00,0.0009
3836.00,0.0008
3835.00,0.0008
3834.00,0.0008
3833.00,0.0008
3832.00,0.0008
3831.00,0.0008
3830.00,0.0008
3829.00,0.0008
3828.00,0.0008
3827.00,0.0008
3826.00,0.0008
3825.00,0.0009
3824.00,0.0009
3823.00,0.0009
3822.00,0.0009
3821.00,0.0009
3820.00,0.0009
3819.00,0.0009
3818.00,0.0009
3817.00,0.0009
3816.00,0.0009
3815.00,0.0009
3814.00,0.0009
3813.00,0.0009
3812.00,0.0009
3811.00,0.0009
3810.00,0.0009
3809.00,0.0009
3808.00,0.0009
3807.00,0.0008
3806.00,0.0008
3805.00,0.0008
3804.00,0.0008
3803.00,0.0008
3802.00,0.0008
3801.00,0.0008
3800.00,0.0008
3799.00,0.0008
3798.00,0.0008
3797.00,0.0009
3796.00,0.0009
3795.00,0.0009
3794.00,0.0009
3793.00,0.0009
3792.00,0.0009
3791.00,0.0009
3790.00,0.0009
3789.00,0.0009
3788.00,0.0009
3787.00,0.0009
3786.00,0.0008
3785.00,0.0008
3784.00,0.0008
3783.00,0.0008
3782.00,0.0009
3781.00,0.0009
3780.00,0.0009
3779.00,0.0010
3778.00,0.0010
3777.00,0.0009
3776.00,0.0009
3775.00,0.0009
3774.00,0.0009
3773.00,0.0009
3772.00,0.0009
3771.00,0.0010
3770.00,0.0010
3769.00,0.0010
3768.00,0.0010
3767.00,0.0010
3766.00,0.0010
3765.00,0.0010
3764.00,0.0010
3763.00,0.0010
3762.00,0.0010
3761.00,0.0010
3760.00,0.0010
3759.00,0.0010
3758.00,0.0010
3757.00,0.0011
3756.00,0.0011
3755.00,0.0011
3754.00,0.0011
3753.00,0.0010
3752.00,0.0010
3751.00,0.0010
3750.00,0.0010
3749.00,0.0010
3748.00,0.0010
3747.00,0.0011
3746.00,0.0011
3745.00,0.0011
3744.00,0.0011
3743.00,0.0010
3742.00,0.0009
3741.00,0.0008
3740.00,0.0007
3739.00,0.0007
3738.00,0.0007
3737.00,0.0007
3736.00,0.0008
3735.00,0.0009
3734.00,0.0009
3733.00,0.0009
3732.00,0.0009
3731.00,0.0009
3730.00,0.0009
3729.00,0.0008
3728.00,0.0008
3727.00,0.0007
3726.00,0.0007
3725.00,0.0007
3724.00,0.0007
3723.00,0.0008
3722.00,0.0008
3721.00,0.0008
3720.00,0.0008
3719.00,0.0008
3718.00,0.0008
3717.00,0.0008
3716.00,0.0009
3715.00,0.0009
3714.00,0.0009
3713.00,0.0009
3712.00,0.0009
3711.00,0.0008
3710.00,0.0008
3709.00,0.0007
3708.00,0.0007
3707.00,0.0007
3706.00,0.0007
3705.00,0.0007
3704.00,0.0008
3703.00,0.0008
3702.00,0.0008
3701.00,0.0008
3700.00,0.0008
3699.00,0.0008
3698.00,0.0008
3697.00,0.0008
3696.00,0.0008
3695.00,0.0008
3694.00,0.0008
3693.00,0.0008
3692.00,0.0008
3691.00,0.0008
3690.00,0.0008
3689.00,0.0009
3688.00,0.0009
3687.00,0.0009
3686.00,0.0009
3685.00,0.0009
3684.00,0.0009
3683.00,0.0009
3682.00,0.0009
3681.00,0.0009
3680.00,0.0009
3679.00,0.0009
3678.00,0.0010
3677.00,0.0009
3676.00,0.0009
3675.00,0.0009
3674.00,0.0009
3673.00,0.0009
3672.00,0.0009
3671.00,0.0009
3670.00,0.0009
3669.00,0.0009
3668.00,0.0008
3667.00,0.0009
3666.00,0.0009
3665.00,0.0009
3664.00,0.0009
3663.00,0.0009
3662.00,0.0009
3661.00,0.0009
3660.00,0.0010
3659.00,0.0010
3658.00,0.0010
3657.00,0.0010
3656.00,0.0010
3655.00,0.0010
3654.00,0.0010
3653.00,0.0010
3652.00,0.0010
3651.00,0.0010
3650.00,0.0011
3649.00,0.0012
3648.00,0.0012
3647.00,0.0012
3646.00,0.0012
3645.00,0.0012
3644.00,0.0012
3643.00,0.0012
3642.00,0.0012
3641.00,0.0012
3640.00,0.0012
3639.00,0.0012
3638.00,0.0012
3637.00,0.0013
3636.00,0.0013
3635.00,0.0014
3634.00,0.0014
3633.00,0.0014
3632.00,0.0014
3631.00,0.0014
3630.00,0.0014
3629.00,0.0014
3628.00,0.0015
3627.00,0.0015
3626.00,0.0015
3625.00,0.0015
3624.00,0.0015
3623.00,0.0015
3622.00,0.0015
3621.00,0.0014
3620.00,0.0014
3619.00,0.0014
3618.00,0.0015
3617.00,0.0015
3616.00,0.0016
3615.00,0.0016
3614.00,0.0017
3613.00,0.0018
3612.00,0.0018
3611.00,0.0019
3610.00,0.0019
3609.00,0.0018
3608.00,0.0018
3607.00,0.0018
3606.00,0.0018
3605.00,0.0019
3604.00,0.0019
3603.00,0.0020
3602.00,0.0020
3601.00,0.0020
3600.00,0.0020
3599.00,0.0020
3598.00,0.0020
3597.00,0.0021
3596.00,0.0021
3595.00,0.0022
3594.00,0.0022
3593.00,0.0023
3592.00,0.0023
3591.00,0.0023
3590.00,0.0024
3589.00,0.0024
3588.00,0.0025
3587.00,0.0025
3586.00,0.0025
3585.00,0.0026
3584.00,0.0026
3583.00,0.0026
3582.00,0.0026
3581.00,0.0026
3580.00,0.0027
3579.00,0.0027
3578.00,0.0027
3577.00,0.0027
3576.00,0.0028
3575.00,0.0028
3574.00,0.0029
3573.00,0.0029
3572.00,0.0029
3571.00,0.0030
3570.00,0.0030
3569.00,0.0030
3568.00,0.0031
3567.00,0.0031
3566.00,0.0031
3565.00,0.0031
3564.00,0.0031
3563.00,0.0031
3562.00,0.0032
3561.00,0.0032
3560.00,0.0033
3559.00,0.0034
3558.00,0.0035
3557.00,0.0035
3556.00,0.0035
3555.00,0.0035
3554.00,0.0035
3553.00,0.0034
3552.00,0.0034
3551.00,0.0034
3550.00,0.0035
3549.00,0.0035
3548.00,0.0035
3547.00,0.0036
3546.00,0.0036
3545.00,0.0037
3544.00,0.0037
3543.00,0.0037
3542.00,0.0038
3541.00,0.0038
3540.00,0.0038
3539.00,0.0039
3538.00,0.0039
3537.00,0.0039
3536.00,0.0039
3535.00,0.0039
3534.00,0.0039
3533.00,0.0039
3532.00,0.0039
3531.00,0.0039
3530.00,0.0039
3529.00,0.0039
3528.00,0.0040
3527.00,0.0040
3526.00,0.0040
3525.00,0.0041
3524.00,0.0041
3523.00,0.0041
3522.00,0.0041
3521.00,0.0041
3520.00,0.0042
3519.00,0.0042
3518.00,0.0043
3517.00,0.0043
3516.00,0.0043
3515.00,0.0043
3514.00,0.0043
3513.00,0.0043
3512.00,0.0044
3511.00,0.0044
3510.00,0.0044
3509.00,0.0045
3508.00,0.0045
3507.00,0.0045
3506.00,0.0045
3505.00,0.0044
3504.00,0.0044
3503.00,0.0045
3502.00,0.0046
3501.00,0.0046
3500.00,0.0047
3499.00,0.0047
3498.00,0.0047
3497.00,0.0047
3496.00,0.0047
3495.00,0.0048
3494.00,0.0048
3493.00,0.0049
3492.00,0.0049
3491.00,0.0050
3490.00,0.0050
3489.00,0.0050
3488.00,0.0050
3487.00,0.0050
3486.00,0.0050
3485.00,0.0050
3484.00,0.0050
3483.00,0.0051
3482.00,0.0051
3481.00,0.0051
3480.00,0.0052
3479.00,0.0052
3478.00,0.0052
3477.00,0.0053
3476.00,0.0053
3475.00,0.0053
3474.00,0.0053
3473.00,0.0054
3472.00,0.0054
3471.00,0.0054
3470.00,0.0054
3469.00,0.0054
3468.00,0.0055
3467.00,0.0055
3466.00,0.0055
3465.00,0.0055
3464.00,0.0055
3463.00,0.0056
3462.00,0.0056
3461.00,0.0056
3460.00,0.0057
3459.00,0.0057
3458.00,0.0057
3457.00,0.0057
3456.00,0.0057
3455.00,0.0057
3454.00,0.0058
3453.00,0.0058
3452.00,0.0059
3451.00,0.0059
3450.00,0.0059
3449.00,0.0059
3448.00,0.0059
3447.00,0.0059
3446.00,0.0059
3445.00,0.0060
3444.00,0.0060
3443.00,0.0060
3442.00,0.0061
3441.00,0.0061
3440.00,0.0061
3439.00,0.0061
3438.00,0.0062
3437.00,0.0062
3436.00,0.0062
3435.00,0.0062
3434.00,0.0063
3433.00,0.0063
3432.00,0.0063
3431.00,0.0063
3430.00,0.0063
3429.00,0.0063
3428.00,0.0063
3427.00,0.0064
3426.00,0.0064
3425.00,0.0064
3424.00,0.0064
3423.00,0.0065
3422.00,0.0065
3421.00,0.0065
3420.00,0.0065
3419.00,0.0065
3418.00,0.0065
3417.00,0.0066
3416.00,0.0066
3415.00,0.0066
3414.00,0.0066
3413.00,0.0066
3412.00,0.0066
3411.00,0.0066
3410.00,0.0067
3409.00,0.0067
3408.00,0.0067
3407.00,0.0068
3406.00,0.0067
3405.00,0.0067
3404.00,0.0067
3403.00,0.0067
3402.00,0.0067
3401.00,0.0067
3400.00,0.0067
3399.00,0.0067
3398.00,0.0067
3397.00,0.0067
3396.00,0.0067
3395.00,0.0067
3394.00,0.0068
3393.00,0.0068
3392.00,0.0068
3391.00,0.0068
3390.00,0.0068
3389.00,0.0068
3388.00,0.0068
3387.00,0.0068
3386.00,0.0068
3385.00,0.0069
3384.00,0.0069
3383.00,0.0069
3382.00,0.0069
3381.00,0.0069
3380.00,0.0070
3379.00,0.0070
3378.00,0.0070
3377.00,0.0070
3376.00,0.0070
3375.00,0.0070
3374.00,0.0070
3373.00,0.0070
3372.00,0.0070
3371.00,0.0071
3370.00,0.0071
3369.00,0.0071
3368.00,0.0072
3367.00,0.0072
3366.00,0.0072
3365.00,0.0072
3364.00,0.0072
3363.00,0.0072
3362.00,0.0072
3361.00,0.0072
3360.00,0.0072
3359.00,0.0072
3358.00,0.0072
3357.00,0.0072
3356.00,0.0072
3355.00,0.0072
3354.00,0.0072
3353.00,0.0072
3352.00,0.0072
3351.00,0.0072
3350.00,0.0072
3349.00,0.0072
3348.00,0.0073
3347.00,0.0073
3346.00,0.0073
3345.00,0.0073
3344.00,0.0073
3343.00,0.0072
3342.00,0.0072
3341.00,0.0072
3340.00,0.0072
3339.00,0.0072
3338.00,0.0072
3337.00,0.0071
3336.00,0.0071
3335.00,0.0071
3334.00,0.0071
3333.00,0.0071
3332.00,0.0071
3331.00,0.0071
3330.00,0.0071
3329.00,0.0071
3328.00,0.0071
3327.00,0.0071
3326.00,0.0071
3325.00,0.0071
3324.00,0.0071
3323.00,0.0071
3322.00,0.0070
3321.00,0.0070
3320.00,0.0070
3319.00,0.0070
3318.00,0.0070
3317.00,0.0070
3316.00,0.0070
3315.00,0.0070
3314.00,0.0070
3313.00,0.0071
3312.00,0.0071
3311.00,0.0070
3310.00,0.0070
3309.00,0.0070
3308.00,0.0069
3307.00,0.0069
3306.00,0.0068
3305.00,0.0068
3304.00,0.0068
3303.00,0.0068
3302.00,0.0068
3301.00,0.0068
3300.00,0.0068
3299.00,0.0067
3298.00,0.0067
3297.00,0.0067
3296.00,0.0067
3295.00,0.0066
3294.00,0.0066
3293.00,0.0066
3292.00,0.0066
3291.00,0.0066
3290.00,0.0066
3289.00,0.0066
3288.00,0.0067
3287.00,0.0067
3286.00,0.0067
3285.00,0.0067
3284.00,0.0067
3283.00,0.0066
3282.00,0.0066
3281.00,0.0065
3280.00,0.0065
3279.00,0.0065
3278.00,0.0064
3277.00,0.0064
3276.00,0.0063
3275.00,0.0063
3274.00,0.0063
3273.00,0.0063
3272.00,0.0063
3271.00,0.0063
3270.00,0.0062
3269.00,0.0062
3268.00,0.0062
3267.00,0.0062
3266.00,0.0062
3265.00,0.0062
3264.00,0.0062
3263.00,0.0062
3262.00,0.0061
3261.00,0.0061
3260.00,0.0061
3259.00,0.0060
3258.00,0.0060
3257.00,0.0059
3256.00,0.0059
3255.00,0.0059
3254.00,0.0058
3253.00,0.0058
3252.00,0.0058
3251.00,0.0058
3250.00,0.0058
3249.00,0.0058
3248.00,0.0058
3247.00,0.0058
3246.00,0.0058
3245.00,0.0059
3244.00,0.0059
3243.00,0.0059
3242.00,0.0059
3241.00,0.0059
3240.00,0.0058
3239.00,0.0058
3238.00,0.0058
3237.00,0.0057
3236.00,0.0057
3235.00,0.0057
3234.00,0.0057
3233.00,0.0057
3232.00,0.0057
3231.00,0.0058
3230.00,0.0058
3229.00,0.0058
3228.00,0.0057
3227.00,0.0057
3226.00,0.0057
3225.00,0.0057
3224.00,0.0058
3223.00,0.0058
3222.00,0.0058
3221.00,0.0059
3220.00,0.0059
3219.00,0.0059
3218.00,0.0060
3217.00,0.0060
3216.00,0.0060
3215.00,0.0060
3214.00,0.0060
3213.00,0.0060
3212.00,0.0060
3211.00,0.0060
3210.00,0.0060
3209.00,0.0060
3208.00,0.0060
3207.00,0.0060
3206.00,0.0060
3205.00,0.0060
3204.00,0.0060
3203.00,0.0060
3202.00,0.0060
3201.00,0.0060
3200.00,0.0059
3199.00,0.0060
3198.00,0.0060
3197.00,0.0060
3196.00,0.0060
3195.00,0.0060
3194.00,0.0060
3193.00,0.0060
3192.00,0.0060
3191.00,0.0060
3190.00,0.0059
3189.00,0.0059
3188.00,0.0058
3187.00,0.0058
3186.00,0.0057
3185.00,0.0057
3184.00,0.0057
3183.00,0.0057
3182.00,0.0057
3181.00,0.0057
3180.00,0.0056
3179.00,0.0056
3178.00,0.0056
3177.00,0.0056
3176.00,0.0056
3175.00,0.0056
3174.00,0.0055
3173.00,0.0055
3172.00,0.0055
3171.00,0.0054
3170.00,0.0054
3169.00,0.0053
3168.00,0.0053
3167.00,0.0053
3166.00,0.0053
3165.00,0.0053
3164.00,0.0053
3163.00,0.0053
3162.00,0.0053
3161.00,0.0052
3160.00,0.0052
3159.00,0.0052
3158.00,0.0052
3157.00,0.0051
3156.00,0.0051
3155.00,0.0051
3154.00,0.0051
3153.00,0.0051
3152.00,0.0051
3151.00,0.0051
3150.00,0.0052
3149.00,0.0052
3148.00,0.0052
3147.00,0.0052
3146.00,0.0052
3145.00,0.0051
3144.00,0.0051
3143.00,0.0051
3142.00,0.0050
3141.00,0.0050
3140.00,0.0049
3139.00,0.0049
3138.00,0.0049
3137.00,0.0049
3136.00,0.0048
3135.00,0.0048
3134.00,0.0047
3133.00,0.0047
3132.00,0.0047
3131.00,0.0047
3130.00,0.0047
3129.00,0.0047
3128.00,0.0046
3127.00,0.0046
3126.00,0.0045
3125.00,0.0045
3124.00,0.0045
3123.00,0.0044
3122.00,0.0044
3121.00,0.0044
3120.00,0.0043
3119.00,0.0043
3118.00,0.0042
3117.00,0.0042
3116.00,0.0042
3115.00,0.0042
3114.00,0.0042
3113.00,0.0042
3112.00,0.0042
3111.00,0.0042
3110.00,0.0042
3109.00,0.0042
3108.00,0.0042
3107.00,0.0041
3106.00,0.0041
3105.00,0.0041
3104.00,0.0041
3103.00,0.0041
3102.00,0.0041
3101.00,0.0041
3100.00,0.0041
3099.00,0.0041
3098.00,0.0041
3097.00,0.0040
3096.00,0.0040
3095.00,0.0040
3094.00,0.0040
3093.00,0.0040
3092.00,0.0040
3091.00,0.0039
3090.00,0.0039
3089.00,0.0039
3088.00,0.0039
3087.00,0.0039
3086.00,0.0039
3085.00,0.0039
3084.00,0.0039
3083.00,0.0039
3082.00,0.0039
3081.00,0.0039
3080.00,0.0039
3079.00,0.0039
3078.00,0.0039
3077.00,0.0039
3076.00,0.0040
3075.00,0.0040
3074.00,0.0041
3073.00,0.0041
3072.00,0.0041
3071.00,0.0041
3070.00,0.0041
3069.00,0.0040
3068.00,0.0041
3067.00,0.0041
3066.00,0.0041
3065.00,0.0042
3064.00,0.0042
3063.00,0.0042
3062.00,0.0042
3061.00,0.0042
3060.00,0.0042
3059.00,0.0042
3058.00,0.0042
3057.00,0.0042
3056.00,0.0042
3055.00,0.0042
3054.00,0.0041
3053.00,0.0041
3052.00,0.0042
3051.00,0.0042
3050.00,0.0043
3049.00,0.0043
3048.00,0.0043
3047.00,0.0043
3046.00,0.0043
3045.00,0.0043
3044.00,0.0043
3043.00,0.0043
3042.00,0.0044
3041.00,0.0044
3040.00,0.0044
3039.00,0.0045
3038.00,0.0045
3037.00,0.0045
3036.00,0.0046
3035.00,0.0046
3034.00,0.0046
3033.00,0.0047
3032.00,0.0047
3031.00,0.0047
3030.00,0.0048
3029.00,0.0049
3028.00,0.0049
3027.00,0.0050
3026.00,0.0050
3025.00,0.0050
3024.00,0.0051
3023.00,0.0051
3022.00,0.0052
3021.00,0.0053
3020.00,0.0054
3019.00,0.0054
3018.00,0.0055
3017.00,0.0055
3016.00,0.0056
3015.00,0.0056
3014.00,0.0057
3013.00,0.0059
3012.00,0.0060
3011.00,0.0062
3010.00,0.0063
3009.00,0.0065
3008.00,0.0066
3007.00,0.0068
3006.00,0.0070
3005.00,0.0071
3004.00,0.0074
3003.00,0.0076
3002.00,0.0078
3001.00,0.0081
3000.00,0.0083
2999.00,0.0086
2998.00,0.0089
2997.00,0.0093
2996.00,0.0097
2995.00,0.0101
2994.00,0.0105
2993.00,0.0110
2992.00,0.0116
2991.00,0.0122
2990.00,0.0129
2989.00,0.0137
2988.00,0.0145
2987.00,0.0154
2986.00,0.0164
2985.00,0.0176
2984.00,0.0189
2983.00,0.0203
2982.00,0.0220
2981.00,0.0238
2980.00,0.0259
2979.00,0.0282
2978.00,0.0309
2977.00,0.0338
2976.00,0.0372
2975.00,0.0410
2974.00,0.0453
2973.00,0.0502
2972.00,0.0558
2971.00,0.0621
2970.00,0.0691
2969.00,0.0769
2968.00,0.0853
2967.00,0.0945
2966.00,0.1043
2965.00,0.1145
2964.00,0.1249
2963.00,0.1352
2962.00,0.1447
2961.00,0.1532
2960.00,0.1602
2959.00,0.1658
2958.00,0.1700
2957.00,0.1733
2956.00,0.1761
2955.00,0.1788
2954.00,0.1818
2953.00,0.1848
2952.00,0.1873
2951.00,0.1888
2950.00,0.1883
2949.00,0.1852
2948.00,0.1791
2947.00,0.1703
2946.00,0.1595
2945.00,0.1476
2944.00,0.1360
2943.00,0.1257
2942.00,0.1174
2941.00,0.1114
2940.00,0.1078
2939.00,0.1063
2938.00,0.1069
2937.00,0.1091
2936.00,0.1130
2935.00,0.1182
2934.00,0.1248
2933.00,0.1324
2932.00,0.1411
2931.00,0.1504
2930.00,0.1603
2929.00,0.1704
2928.00,0.1804
2927.00,0.1902
2926.00,0.1997
2925.00,0.2087
2924.00,0.2175
2923.00,0.2262
2922.00,0.2347
2921.00,0.2427
2920.00,0.2499
2919.00,0.2555
2918.00,0.2585
2917.00,0.2585
2916.00,0.2550
2915.00,0.2485
2914.00,0.2399
2913.00,0.2302
2912.00,0.2205
2911.00,0.2115
2910.00,0.2034
2909.00,0.1963
2908.00,0.1898
2907.00,0.1836
2906.00,0.1775
2905.00,0.1712
2904.00,0.1648
2903.00,0.1582
2902.00,0.1515
2901.00,0.1449
2900.00,0.1385
2899.00,0.1324
2898.00,0.1267
2897.00,0.1214
2896.00,0.1167
2895.00,0.1126
2894.00,0.1092
2893.00,0.1064
2892.00,0.1043
2891.00,0.1027
2890.00,0.1016
2889.00,0.1010
2888.00,0.1009
2887.00,0.1011
2886.00,0.1016
2885.00,0.1025
2884.00,0.1039
2883.00,0.1056
2882.00,0.1077
2881.00,0.1100
2880.00,0.1124
2879.00,0.1143
2878.00,0.1157
2877.00,0.1163
2876.00,0.1161
2875.00,0.1155
2874.00,0.1149
2873.00,0.1146
2872.00,0.1149
2871.00,0.1158
2870.00,0.1172
2869.00,0.1186
2868.00,0.1195
2867.00,0.1190
2866.00,0.1167
2865.00,0.1123
2864.00,0.1060
2863.00,0.0986
2862.00,0.0910
2861.00,0.0839
2860.00,0.0779
2859.00,0.0732
2858.00,0.0700
2857.00,0.0680
2856.00,0.0673
2855.00,0.0675
2854.00,0.0688
2853.00,0.0707
2852.00,0.0732
2851.00,0.0759
2850.00,0.0783
2849.00,0.0803
2848.00,0.0821
2847.00,0.0840
2846.00,0.0864
2845.00,0.0898
2844.00,0.0943
2843.00,0.0997
2842.00,0.1057
2841.00,0.1115
2840.00,0.1165
2839.00,0.1198
2838.00,0.1205
2837.00,0.1181
2836.00,0.1124
2835.00,0.1040
2834.00,0.0939
2833.00,0.0832
2832.00,0.0729
2831.00,0.0636
2830.00,0.0558
2829.00,0.0493
2828.00,0.0441
2827.00,0.0398
2826.00,0.0364
2825.00,0.0335
2824.00,0.0311
2823.00,0.0291
2822.00,0.0274
2821.00,0.0259
2820.00,0.0246
2819.00,0.0235
2818.00,0.0226
2817.00,0.0217
2816.00,0.0210
2815.00,0.0203
2814.00,0.0197
2813.00,0.0191
2812.00,0.0186
2811.00,0.0181
2810.00,0.0176
2809.00,0.0170
2808.00,0.0165
2807.00,0.0159
2806.00,0.0153
2805.00,0.0147
2804.00,0.0141
2803.00,0.0135
2802.00,0.0130
2801.00,0.0126
2800.00,0.0122
2799.00,0.0119
2798.00,0.0117
2797.00,0.0114
2796.00,0.0112
2795.00,0.0109
2794.00,0.0106
2793.00,0.0103
2792.00,0.0100
2791.00,0.0096
2790.00,0.0093
2789.00,0.0090
2788.00,0.0087
2787.00,0.0085
2786.00,0.0082
2785.00,0.0080
2784.00,0.0078
2783.00,0.0075
2782.00,0.0073
2781.00,0.0072
2780.00,0.0070
2779.00,0.0068
2778.00,0.0066
2777.00,0.0065
2776.00,0.0064
2775.00,0.0062
2774.00,0.0062
2773.00,0.0061
2772.00,0.0061
2771.00,0.0060
2770.00,0.0059
2769.00,0.0059
2768.00,0.0058
2767.00,0.0058
2766.00,0.0058
2765.00,0.0058
2764.00,0.0058
2763.00,0.0057
2762.00,0.0057
2761.00,0.0056
2760.00,0.0055
2759.00,0.0055
2758.00,0.0055
2757.00,0.0055
2756.00,0.0055
2755.00,0.0055
2754.00,0.0055
2753.00,0.0055
2752.00,0.0054
2751.00,0.0054
2750.00,0.0054
2749.00,0.0054
2748.00,0.0054
2747.00,0.0054
2746.00,0.0055
2745.00,0.0056
2744.00,0.0057
2743.00,0.0057
2742.00,0.0058
2741.00,0.0059
2740.00,0.0061
2739.00,0.0062
2738.00,0.0063
2737.00,0.0064
2736.00,0.0066
2735.00,0.0067
2734.00,0.0069
2733.00,0.0070
2732.00,0.0072
2731.00,0.0073
2730.00,0.0075
2729.00,0.0077
2728.00,0.0080
2727.00,0.0082
2726.00,0.0085
2725.00,0.0087
2724.00,0.0088
2723.00,0.0088
2722.00,0.0087
2721.00,0.0085
2720.00,0.0083
2719.00,0.0080
2718.00,0.0077
2717.00,0.0074
2716.00,0.0071
2715.00,0.0068
2714.00,0.0066
2713.00,0.0064
2712.00,0.0062
2711.00,0.0060
2710.00,0.0058
2709.00,0.0057
2708.00,0.0056
2707.00,0.0055
2706.00,0.0054
2705.00,0.0053
2704.00,0.0052
2703.00,0.0052
2702.00,0.0051
2701.00,0.0050
2700.00,0.0049
2699.00,0.0049
2698.00,0.0048
2697.00,0.0048
2696.00,0.0048
2695.00,0.0047
2694.00,0.0047
2693.00,0.0047
2692.00,0.0048
2691.00,0.0048
2690.00,0.0047
2689.00,0.0047
2688.00,0.0047
2687.00,0.0047
2686.00,0.0047
2685.00,0.0047
2684.00,0.0047
2683.00,0.0047
2682.00,0.0047
2681.00,0.0047
2680.00,0.0048
2679.00,0.0048
2678.00,0.0048
2677.00,0.0048
2676.00,0.0048
2675.00,0.0047
2674.00,0.0047
2673.00,0.0047
2672.00,0.0046
2671.00,0.0046
2670.00,0.0047
2669.00,0.0047
2668.00,0.0047
2667.00,0.0047
2666.00,0.0047
2665.00,0.0047
2664.00,0.0048
2663.00,0.0048
2662.00,0.0049
2661.00,0.0050
2660.00,0.0050
2659.00,0.0050
2658.00,0.0050
2657.00,0.0049
2656.00,0.0049
2655.00,0.0048
2654.00,0.0048
2653.00,0.0047
2652.00,0.0047
2651.00,0.0047
2650.00,0.0046
2649.00,0.0046
2648.00,0.0045
2647.00,0.0045
2646.00,0.0045
2645.00,0.0044
2644.00,0.0044
2643.00,0.0043
2642.00,0.0043
2641.00,0.0043
2640.00,0.0042
2639.00,0.0042
2638.00,0.0042
2637.00,0.0042
2636.00,0.0042
2635.00,0.0041
2634.00,0.0041
2633.00,0.0041
2632.00,0.0041
2631.00,0.0042
2630.00,0.0042
2629.00,0.0042
2628.00,0.0042
2627.00,0.0042
2626.00,0.0042
2625.00,0.0042
2624.00,0.0042
2623.00,0.0042
2622.00,0.0043
2621.00,0.0043
2620.00,0.0043
2619.00,0.0043
2618.00,0.0042
2617.00,0.0042
2616.00,0.0042
2615.00,0.0042
2614.00,0.0042
2613.00,0.0042
2612.00,0.0041
2611.00,0.0041
2610.00,0.0040
2609.00,0.0039
2608.00,0.0038
2607.00,0.0037
2606.00,0.0037
2605.00,0.0036
2604.00,0.0035
2603.00,0.0034
2602.00,0.0034
2601.00,0.0033
2600.00,0.0034
2599.00,0.0034
2598.00,0.0034
2597.00,0.0034
2596.00,0.0034
2595.00,0.0034
2594.00,0.0034
2593.00,0.0035
2592.00,0.0035
2591.00,0.0036
2590.00,0.0036
2589.00,0.0036
2588.00,0.0037
2587.00,0.0037
2586.00,0.0038
2585.00,0.0039
2584.00,0.0040
2583.00,0.0040
2582.00,0.0039
2581.00,0.0039
2580.00,0.0038
2579.00,0.0037
2578.00,0.0037
2577.00,0.0035
2576.00,0.0034
2575.00,0.0033
2574.00,0.0032
2573.00,0.0032
2572.00,0.0031
2571.00,0.0030
2570.00,0.0030
2569.00,0.0029
2568.00,0.0028
2567.00,0.0027
2566.00,0.0027
2565.00,0.0027
2564.00,0.0027
2563.00,0.0027
2562.00,0.0026
2561.00,0.0026
2560.00,0.0026
2559.00,0.0026
2558.00,0.0025
2557.00,0.0025
2556.00,0.0025
2555.00,0.0024
2554.00,0.0025
2553.00,0.0025
2552.00,0.0025
2551.00,0.0024
2550.00,0.0023
2549.00,0.0022
2548.00,0.0022
2547.00,0.0022
2546.00,0.0022
2545.00,0.0022
2544.00,0.0021
2543.00,0.0020
2542.00,0.0019
2541.00,0.0018
2540.00,0.0018
2539.00,0.0017
2538.00,0.0018
2537.00,0.0018
2536.00,0.0018
2535.00,0.0018
2534.00,0.0018
2533.00,0.0018
2532.00,0.0018
2531.00,0.0018
2530.00,0.0018
2529.00,0.0017
2528.00,0.0017
2527.00,0.0017
2526.00,0.0017
2525.00,0.0017
2524.00,0.0017
2523.00,0.0018
2522.00,0.0018
2521.00,0.0018
2520.00,0.0018
2519.00,0.0017
2518.00,0.0017
2517.00,0.0016
2516.00,0.0015
2515.00,0.0014
2514.00,0.0014
2513.00,0.0013
2512.00,0.0014
2511.00,0.0014
2510.00,0.0013
2509.00,0.0013
2508.00,0.0013
2507.00,0.0013
2506.00,0.0013
2505.00,0.0013
2504.00,0.0013
2503.00,0.0014
2502.00,0.0014
2501.00,0.0014
2500.00,0.0013
2499.00,0.0013
2498.00,0.0013
2497.00,0.0013
2496.00,0.0013
2495.00,0.0013
2494.00,0.0013
2493.00,0.0013
2492.00,0.0013
2491.00,0.0013
2490.00,0.0013
2489.00,0.0013
2488.00,0.0013
2487.00,0.0014
2486.00,0.0014
2485.00,0.0014
2484.00,0.0014
2483.00,0.0013
2482.00,0.0013
2481.00,0.0012
2480.00,0.0011
2479.00,0.0011
2478.00,0.0011
2477.00,0.0011
2476.00,0.0011
2475.00,0.0012
2474.00,0.0012
2473.00,0.0012
2472.00,0.0012
2471.00,0.0011
2470.00,0.0011
2469.00,0.0011
2468.00,0.0011
2467.00,0.0011
2466.00,0.0011
2465.00,0.0011
2464.00,0.0011
2463.00,0.0012
2462.00,0.0012
2461.00,0.0012
2460.00,0.0012
2459.00,0.0013
2458.00,0.0013
2457.00,0.0014
2456.00,0.0014
2455.00,0.0015
2454.00,0.0015
2453.00,0.0014
2452.00,0.0014
2451.00,0.0013
2450.00,0.0012
2449.00,0.0011
2448.00,0.0011
2447.00,0.0011
2446.00,0.0011
2445.00,0.0012
2444.00,0.0012
2443.00,0.0013
2442.00,0.0013
2441.00,0.0013
2440.00,0.0013
2439.00,0.0013
2438.00,0.0012
2437.00,0.0013
2436.00,0.0014
2435.00,0.0014
2434.00,0.0015
2433.00,0.0015
2432.00,0.0015
2431.00,0.0014
2430.00,0.0014
2429.00,0.0014
2428.00,0.0014
2427.00,0.0014
2426.00,0.0014
2425.00,0.0014
2424.00,0.0013
2423.00,0.0013
2422.00,0.0013
2421.00,0.0013
2420.00,0.0012
2419.00,0.0012
2418.00,0.0012
2417.00,0.0012
2416.00,0.0012
2415.00,0.0012
2414.00,0.0012
2413.00,0.0011
2412.00,0.0011
2411.00,0.0011
2410.00,0.0012
2409.00,0.0013
2408.00,0.0013
2407.00,0.0013
2406.00,0.0012
2405.00,0.0011
2404.00,0.0011
2403.00,0.0010
2402.00,0.0010
2401.00,0.0010
2400.00,0.0010
2399.00,0.0010
2398.00,0.0010
2397.00,0.0010
2396.00,0.0009
2395.00,0.0009
2394.00,0.0010
2393.00,0.0010
2392.00,0.0011
2391.00,0.0011
2390.00,0.0011
2389.00,0.0010
2388.00,0.0010
2387.00,0.0010
2386.00,0.0009
2385.00,0.0009
2384.00,0.0008
2383.00,0.0007
2382.00,0.0007
2381.00,0.0006
2380.00,0.0006
2379.00,0.0006
2378.00,0.0006
2377.00,0.0006
2376.00,0.0007
2375.00,0.0007
2374.00,0.0008
2373.00,0.0008
2372.00,0.0008
2371.00,0.0008
2370.00,0.0007
2369.00,0.0007
2368.00,0.0007
2367.00,0.0007
2366.00,0.0007
2365.00,0.0007
2364.00,0.0007
2363.00,0.0007
2362.00,0.0007
2361.00,0.0008
2360.00,0.0009
2359.00,0.0009
2358.00,0.0009
2357.00,0.0009
2356.00,0.0008
2355.00,0.0008
2354.00,0.0006
2353.00,0.0006
2352.00,0.0006
2351.00,0.0007
2350.00,0.0008
2349.00,0.0009
2348.00,0.0009
2347.00,0.0009
2346.00,0.0009
2345.00,0.0009
2344.00,0.0009
2343.00,0.0010
2342.00,0.0011
2341.00,0.0011
2340.00,0.0011
2339.00,0.0010
2338.00,0.0010
2337.00,0.0009
2336.00,0.0009
2335.00,0.0009
2334.00,0.0009
2333.00,0.0009
2332.00,0.0009
2331.00,0.0009
2330.00,0.0009
2329.00,0.0010
2328.00,0.0011
2327.00,0.0015
2326.00,0.0019
2325.00,0.0023
2324.00,0.0024
2323.00,0.0023
2322.00,0.0021
2321.00,0.0019
2320.00,0.0017
2319.00,0.0016
2318.00,0.0015
2317.00,0.0015
2316.00,0.0014
2315.00,0.0013
2314.00,0.0012
2313.00,0.0011
2312.00,0.0010
2311.00,0.0010
2310.00,0.0010
2309.00,0.0009
2308.00,0.0010
2307.00,0.0010
2306.00,0.0011
2305.00,0.0011
2304.00,0.0011
2303.00,0.0011
2302.00,0.0011
2301.00,0.0011
2300.00,0.0012
2299.00,0.0012
2298.00,0.0013
2297.00,0.0013
2296.00,0.0014
2295.00,0.0014
2294.00,0.0015
2293.00,0.0015
2292.00,0.0016
2291.00,0.0017
2290.00,0.0017
2289.00,0.0018
2288.00,0.0019
2287.00,0.0020
2286.00,0.0020
2285.00,0.0020
2284.00,0.0021
2283.00,0.0020
2282.00,0.0019
2281.00,0.0018
2280.00,0.0017
2279.00,0.0016
2278.00,0.0015
2277.00,0.0015
2276.00,0.0015
2275.00,0.0014
2274.00,0.0014
2273.00,0.0014
2272.00,0.0014
2271.00,0.0015
2270.00,0.0016
2269.00,0.0017
2268.00,0.0017
2267.00,0.0015
2266.00,0.0014
2265.00,0.0014
2264.00,0.0014
2263.00,0.0015
2262.00,0.0015
2261.00,0.0015
2260.00,0.0016
2259.00,0.0015
2258.00,0.0014
2257.00,0.0012
2256.00,0.0010
2255.00,0.0009
2254.00,0.0009
2253.00,0.0010
2252.00,0.0011
2251.00,0.0012
2250.00,0.0012
2249.00,0.0011
2248.00,0.0010
2247.00,0.0010
2246.00,0.0009
2245.00,0.0009
2244.00,0.0009
2243.00,0.0009
2242.00,0.0010
2241.00,0.0011
2240.00,0.0012
2239.00,0.0012
2238.00,0.0013
2237.00,0.0012
2236.00,0.0012
2235.00,0.0012
2234.00,0.0012
2233.00,0.0012
2232.00,0.0011
2231.00,0.0011
2230.00,0.0011
2229.00,0.0011
2228.00,0.0010
2227.00,0.0008
2226.00,0.0006
2225.00,0.0004
2224.00,0.0003
2223.00,0.0003
2222.00,0.0005
2221.00,0.0008
2220.00,0.0011
2219.00,0.0013
2218.00,0.0013
2217.00,0.0012
2216.00,0.0010
2215.00,0.0008
2214.00,0.0006
2213.00,0.0004
2212.00,0.0004
2211.00,0.0004
2210.00,0.0003
2209.00,0.0003
2208.00,0.0004
2207.00,0.0004
2206.00,0.0005
2205.00,0.0006
2204.00,0.0007
2203.00,0.0008
2202.00,0.0008
2201.00,0.0007
2200.00,0.0006
2199.00,0.0005
2198.00,0.0006
2197.00,0.0008
2196.00,0.0010
2195.00,0.0012
2194.00,0.0012
2193.00,0.0012
2192.00,0.0010
2191.00,0.0009
2190.00,0.0010
2189.00,0.0013
2188.00,0.0016
2187.00,0.0018
2186.00,0.0017
2185.00,0.0015
2184.00,0.0010
2183.00,0.0005
2182.00,0.0001
2181.00,0.0000
2180.00,0.0001
2179.00,0.0003
2178.00,0.0004
2177.00,0.0003
2176.00,0.0001
2175.00,0.0000
2174.00,0.0002
2173.00,0.0005
2172.00,0.0008
2171.00,0.0011
2170.00,0.0015
2169.00,0.0020
2168.00,0.0023
2167.00,0.0022
2166.00,0.0018
2165.00,0.0015
2164.00,0.0015
2163.00,0.0019
2162.00,0.0022
2161.00,0.0019
2160.00,0.0009
2159.00,-0.0005
2158.00,-0.0016
2157.00,-0.0022
2156.00,-0.0024
2155.00,-0.0022
2154.00,-0.0019
2153.00,-0.0016
2152.00,-0.0013
2151.00,-0.0011
2150.00,-0.0010
2149.00,-0.0011
2148.00,-0.0012
2147.00,-0.0013
2146.00,-0.0014
2145.00,-0.0014
2144.00,-0.0014
2143.00,-0.0013
2142.00,-0.0011
2141.00,-0.0009
2140.00,-0.0008
2139.00,-0.0007
2138.00,-0.0008
2137.00,-0.0010
2136.00,-0.0011
2135.00,-0.0013
2134.00,-0.0015
2133.00,-0.0015
2132.00,-0.0013
2131.00,-0.0011
2130.00,-0.0010
2129.00,-0.0009
2128.00,-0.0009
2127.00,-0.0008
2126.00,-0.0006
2125.00,-0.0004
2124.00,-0.0001
2123.00,0.0000
2122.00,0.0001
2121.00,0.0001
2120.00,0.0001
2119.00,0.0001
2118.00,0.0001
2117.00,0.0002
2116.00,0.0003
2115.00,0.0005
2114.00,0.0006
2113.00,0.0007
2112.00,0.0007
2111.00,0.0006
2110.00,0.0005
2109.00,0.0004
2108.00,0.0004
2107.00,0.0005
2106.00,0.0005
2105.00,0.0004
2104.00,0.0004
2103.00,0.0004
2102.00,0.0004
2101.00,0.0004
2100.00,0.0004
2099.00,0.0004
2098.00,0.0003
2097.00,0.0001
2096.00,-0.0001
2095.00,-0.0004
2094.00,-0.0006
2093.00,-0.0005
2092.00,-0.0002
2091.00,0.0002
2090.00,0.0006
2089.00,0.0008
2088.00,0.0008
2087.00,0.0007
2086.00,0.0006
2085.00,0.0006
2084.00,0.0007
2083.00,0.0007
2082.00,0.0006
2081.00,0.0005
2080.00,0.0006
2079.00,0.0007
2078.00,0.0009
2077.00,0.0009
2076.00,0.0008
2075.00,0.0006
2074.00,0.0004
2073.00,0.0003
2072.00,0.0001
2071.00,0.0001
2070.00,0.0001
2069.00,0.0003
2068.00,0.0005
2067.00,0.0007
2066.00,0.0007
2065.00,0.0007
2064.00,0.0008
2063.00,0.0008
2062.00,0.0007
2061.00,0.0006
2060.00,0.0005
2059.00,0.0004
2058.00,0.0003
2057.00,0.0003
2056.00,0.0002
2055.00,0.0003
2054.00,0.0004
2053.00,0.0009
2052.00,0.0015
2051.00,0.0018
2050.00,0.0018
2049.00,0.0015
2048.00,0.0010
2047.00,0.0006
2046.00,0.0003
2045.00,0.0002
2044.00,0.0002
2043.00,0.0003
2042.00,0.0002
2041.00,0.0002
2040.00,0.0002
2039.00,0.0004
2038.00,0.0007
2037.00,0.0011
2036.00,0.0014
2035.00,0.0014
2034.00,0.0012
2033.00,0.0009
2032.00,0.0004
2031.00,-0.0000
2030.00,-0.0004
2029.00,-0.0006
2028.00,-0.0007
2027.00,-0.0006
2026.00,-0.0005
2025.00,-0.0005
2024.00,-0.0006
2023.00,-0.0008
2022.00,-0.0009
2021.00,-0.0009
2020.00,-0.0008
2019.00,-0.0008
2018.00,-0.0008
2017.00,-0.0008
2016.00,-0.0008
2015.00,-0.0009
2014.00,-0.0011
2013.00,-0.0013
2012.00,-0.0012
2011.00,-0.0010
2010.00,-0.0007
2009.00,-0.0005
2008.00,-0.0006
2007.00,-0.0008
2006.00,-0.0009
2005.00,-0.0010
2004.00,-0.0010
2003.00,-0.0011
2002.00,-0.0012
2001.00,-0.0011
2000.00,-0.0010
1999.00,-0.0009
1998.00,-0.0008
1997.00,-0.0007
1996.00,-0.0007
1995.00,-0.0007
1994.00,-0.0008
1993.00,-0.0008
1992.00,-0.0006
1991.00,-0.0005
1990.00,-0.0003
1989.00,-0.0001
1988.00,0.0001
1987.00,0.0002
1986.00,0.0003
1985.00,0.0005
1984.00,0.0006
1983.00,0.0005
1982.00,0.0004
1981.00,0.0005
1980.00,0.0006
1979.00,0.0005
1978.00,0.0000
1977.00,-0.0005
1976.00,-0.0009
1975.00,-0.0011
1974.00,-0.0012
1973.00,-0.0013
1972.00,-0.0013
1971.00,-0.0012
1970.00,-0.0011
1969.00,-0.0009
1968.00,-0.0007
1967.00,-0.0006
1966.00,-0.0007
1965.00,-0.0009
1964.00,-0.0012
1963.00,-0.0013
1962.00,-0.0013
1961.00,-0.0013
1960.00,-0.0014
1959.00,-0.0015
1958.00,-0.0015
1957.00,-0.0013
1956.00,-0.0011
1955.00,-0.0009
1954.00,-0.0008
1953.00,-0.0009
1952.00,-0.0010
1951.00,-0.0012
1950.00,-0.0013
1949.00,-0.0013
1948.00,-0.0013
1947.00,-0.0013
1946.00,-0.0011
1945.00,-0.0009
1944.00,-0.0008
1943.00,-0.0009
1942.00,-0.0009
1941.00,-0.0009
1940.00,-0.0009
1939.00,-0.0008
1938.00,-0.0007
1937.00,-0.0006
1936.00,-0.0005
1935.00,-0.0005
1934.00,-0.0006
1933.00,-0.0006
1932.00,-0.0006
1931.00,-0.0005
1930.00,-0.0005
1929.00,-0.0004
1928.00,-0.0004
1927.00,-0.0005
1926.00,-0.0005
1925.00,-0.0005
1924.00,-0.0005
1923.00,-0.0004
1922.00,-0.0002
1921.00,-0.0001
1920.00,0.0000
1919.00,0.0000
1918.00,-0.0000
1917.00,-0.0000
1916.00,0.0000
1915.00,0.0000
1914.00,-0.0000
1913.00,-0.0001
1912.00,-0.0002
1911.00,-0.0002
1910.00,-0.0001
1909.00,-0.0000
1908.00,0.0001
1907.00,0.0002
1906.00,0.0002
1905.00,0.0002
1904.00,0.0001
1903.00,-0.0000
1902.00,-0.0000
1901.00,0.0000
1900.00,0.0001
1899.00,0.0001
1898.00,0.0002
1897.00,0.0001
1896.00,0.0000
1895.00,-0.0001
1894.00,-0.0001
1893.00,0.0000
1892.00,0.0002
1891.00,0.0004
1890.00,0.0004
1889.00,0.0004
1888.00,0.0003
1887.00,0.0001
1886.00,0.0001
1885.00,0.0001
1884.00,0.0001
1883.00,0.0001
1882.00,0.0001
1881.00,0.0001
1880.00,0.0001
1879.00,0.0001
1878.00,0.0001
1877.00,0.0000
1876.00,0.0000
1875.00,0.0000
1874.00,0.0001
1873.00,0.0002
1872.00,0.0003
1871.00,0.0003
1870.00,0.0003
1869.00,0.0003
1868.00,0.0003
1867.00,0.0004
1866.00,0.0004
1865.00,0.0004
1864.00,0.0003
1863.00,0.0003
1862.00,0.0003
1861.00,0.0003
1860.00,0.0003
1859.00,0.0003
1858.00,0.0002
1857.00,0.0002
1856.00,0.0002
1855.00,0.0002
1854.00,0.0002
1853.00,0.0002
1852.00,0.0003
1851.00,0.0003
1850.00,0.0003
1849.00,0.0004
1848.00,0.0005
1847.00,0.0005
1846.00,0.0005
1845.00,0.0005
1844.00,0.0005
1843.00,0.0005
1842.00,0.0005
1841.00,0.0005
1840.00,0.0005
1839.00,0.0005
1838.00,0.0005
1837.00,0.0005
1836.00,0.0005
1835.00,0.0006
1834.00,0.0006
1833.00,0.0007
1832.00,0.0007
1831.00,0.0006
1830.00,0.0006
1829.00,0.0006
1828.00,0.0006
1827.00,0.0006
1826.00,0.0006
1825.00,0.0007
1824.00,0.0007
1823.00,0.0007
1822.00,0.0006
1821.00,0.0005
1820.00,0.0004
1819.00,0.0003
1818.00,0.0002
1817.00,0.0002
1816.00,0.0003
1815.00,0.0003
1814.00,0.0004
1813.00,0.0005
1812.00,0.0005
1811.00,0.0005
1810.00,0.0005
1809.00,0.0006
1808.00,0.0007
1807.00,0.0008
1806.00,0.0009
1805.00,0.0009
1804.00,0.0009
1803.00,0.0009
1802.00,0.0009
1801.00,0.0009
1800.00,0.0009
1799.00,0.0009
1798.00,0.0008
1797.00,0.0008
1796.00,0.0008
1795.00,0.0008
1794.00,0.0009
1793.00,0.0010
1792.00,0.0010
1791.00,0.0011
1790.00,0.0010
1789.00,0.0010
1788.00,0.0010
1787.00,0.0010
1786.00,0.0010
1785.00,0.0011
1784.00,0.0012
1783.00,0.0012
1782.00,0.0012
1781.00,0.0012
1780.00,0.0012
1779.00,0.0013
1778.00,0.0013
1777.00,0.0013
1776.00,0.0013
1775.00,0.0013
1774.00,0.0013
1773.00,0.0013
1772.00,0.0014
1771.00,0.0014
1770.00,0.0014
1769.00,0.0015
1768.00,0.0015
1767.00,0.0015
1766.00,0.0015
1765.00,0.0015
1764.00,0.0016
1763.00,0.0016
1762.00,0.0016
1761.00,0.0017
1760.00,0.0017
1759.00,0.0018
1758.00,0.0018
1757.00,0.0019
1756.00,0.0019
1755.00,0.0020
1754.00,0.0020
1753.00,0.0021
1752.00,0.0022
1751.00,0.0023
1750.00,0.0024
1749.00,0.0025
1748.00,0.0026
1747.00,0.0026
1746.00,0.0027
1745.00,0.0028
1744.00,0.0029
1743.00,0.0029
1742.00,0.0029
1741.00,0.0030
1740.00,0.0030
1739.00,0.0031
1738.00,0.0031
1737.00,0.0031
1736.00,0.0032
1735.00,0.0032
1734.00,0.0032
1733.00,0.0032
1732.00,0.0032
1731.00,0.0032
1730.00,0.0031
1729.00,0.0031
1728.00,0.0031
1727.00,0.0031
1726.00,0.0031
1725.00,0.0031
1724.00,0.0031
1723.00,0.0031
1722.00,0.0031
1721.00,0.0031
1720.00,0.0032
1719.00,0.0032
1718.00,0.0031
1717.00,0.0031
1716.00,0.0031
1715.00,0.0031
1714.00,0.0031
1713.00,0.0031
1712.00,0.0032
1711.00,0.0032
1710.00,0.0032
1709.00,0.0032
1708.00,0.0033
1707.00,0.0034
1706.00,0.0035
1705.00,0.0035
1704.00,0.0036
1703.00,0.0036
1702.00,0.0037
1701.00,0.0038
1700.00,0.0039
1699.00,0.0040
1698.00,0.0040
1697.00,0.0040
1696.00,0.0041
1695.00,0.0042
1694.00,0.0043
1693.00,0.0044
1692.00,0.0045
1691.00,0.0046
1690.00,0.0047
1689.00,0.0048
1688.00,0.0049
1687.00,0.0050
1686.00,0.0051
1685.00,0.0052
1684.00,0.0054
1683.00,0.0056
1682.00,0.0056
1681.00,0.0057
1680.00,0.0059
1679.00,0.0060
1678.00,0.0061
1677.00,0.0062
1676.00,0.0064
1675.00,0.0066
1674.00,0.0068
1673.00,0.0069
1672.00,0.0069
1671.00,0.0070
1670.00,0.0071
1669.00,0.0072
1668.00,0.0073
1667.00,0.0074
1666.00,0.0074
1665.00,0.0075
1664.00,0.0076
1663.00,0.0077
1662.00,0.0078
1661.00,0.0079
1660.00,0.0080
1659.00,0.0081
1658.00,0.0082
1657.00,0.0082
1656.00,0.0083
1655.00,0.0083
1654.00,0.0084
1653.00,0.0086
1652.00,0.0088
1651.00,0.0088
1650.00,0.0088
1649.00,0.0089
1648.00,0.0089
1647.00,0.0089
1646.00,0.0089
1645.00,0.0089
1644.00,0.0089
1643.00,0.0089
1642.00,0.0089
1641.00,0.0090
1640.00,0.0091
1639.00,0.0092
1638.00,0.0092
1637.00,0.0092
1636.00,0.0093
1635.00,0.0093
1634.00,0.0093
1633.00,0.0093
1632.00,0.0094
1631.00,0.0095
1630.00,0.0095
1629.00,0.0096
1628.00,0.0096
1627.00,0.0096
1626.00,0.0096
1625.00,0.0096
1624.00,0.0096
1623.00,0.0095
1622.00,0.0095
1621.00,0.0095
1620.00,0.0095
1619.00,0.0094
1618.00,0.0094
1617.00,0.0094
1616.00,0.0094
1615.00,0.0093
1614.00,0.0092
1613.00,0.0092
1612.00,0.0092
1611.00,0.0091
1610.00,0.0091
1609.00,0.0091
1608.00,0.0091
1607.00,0.0092
1606.00,0.0092
1605.00,0.0092
1604.00,0.0093
1603.00,0.0094
1602.00,0.0095
1601.00,0.0095
1600.00,0.0096
1599.00,0.0097
1598.00,0.0098
1597.00,0.0099
1596.00,0.0101
1595.00,0.0103
1594.00,0.0104
1593.00,0.0106
1592.00,0.0109
1591.00,0.0113
1590.00,0.0117
1589.00,0.0123
1588.00,0.0129
1587.00,0.0137
1586.00,0.0146
1585.00,0.0156
1584.00,0.0168
1583.00,0.0181
1582.00,0.0194
1581.00,0.0207
1580.00,0.0218
1579.00,0.0226
1578.00,0.0230
1577.00,0.0229
1576.00,0.0224
1575.00,0.0216
1574.00,0.0208
1573.00,0.0200
1572.00,0.0192
1571.00,0.0182
1570.00,0.0171
1569.00,0.0160
1568.00,0.0152
1567.00,0.0146
1566.00,0.0141
1565.00,0.0137
1564.00,0.0134
1563.00,0.0131
1562.00,0.0130
1561.00,0.0129
1560.00,0.0129
1559.00,0.0130
1558.00,0.0130
1557.00,0.0131
1556.00,0.0132
1555.00,0.0134
1554.00,0.0138
1553.00,0.0142
1552.00,0.0147
1551.00,0.0153
1550.00,0.0162
1549.00,0.0173
1548.00,0.0184
1547.00,0.0195
1546.00,0.0209
1545.00,0.0225
1544.00,0.0241
1543.00,0.0255
1542.00,0.0265
1541.00,0.0267
1540.00,0.0258
1539.00,0.0241
1538.00,0.0225
1537.00,0.0212
1536.00,0.0199
1535.00,0.0184
1534.00,0.0167
1533.00,0.0151
1532.00,0.0140
1531.00,0.0133
1530.00,0.0127
1529.00,0.0122
1528.00,0.0117
1527.00,0.0113
1526.00,0.0109
1525.00,0.0106
1524.00,0.0105
1523.00,0.0103
1522.00,0.0102
1521.00,0.0101
1520.00,0.0101
1519.00,0.0100
1518.00,0.0099
1517.00,0.0098
1516.00,0.0099
1515.00,0.0099
1514.00,0.0099
1513.00,0.0100
1512.00,0.0100
1511.00,0.0100
1510.00,0.0100
1509.00,0.0100
1508.00,0.0101
1507.00,0.0102
1506.00,0.0102
1505.00,0.0104
1504.00,0.0106
1503.00,0.0107
1502.00,0.0108
1501.00,0.0110
1500.00,0.0113
1499.00,0.0115
1498.00,0.0118
1497.00,0.0122
1496.00,0.0126
1495.00,0.0130
1494.00,0.0133
1493.00,0.0137
1492.00,0.0141
1491.00,0.0146
1490.00,0.0151
1489.00,0.0159
1488.00,0.0168
1487.00,0.0177
1486.00,0.0187
1485.00,0.0199
1484.00,0.0213
1483.00,0.0227
1482.00,0.0244
1481.00,0.0264
1480.00,0.0285
1479.00,0.0304
1478.00,0.0325
1477.00,0.0349
1476.00,0.0375
1475.00,0.0403
1474.00,0.0439
1473.00,0.0489
1472.00,0.0547
1471.00,0.0603
1470.00,0.0657
1469.00,0.0715
1468.00,0.0778
1467.00,0.0848
1466.00,0.0929
1465.00,0.1017
1464.00,0.1094
1463.00,0.1148
1462.00,0.1184
1461.00,0.1210
1460.00,0.1231
1459.00,0.1246
1458.00,0.1261
1457.00,0.1276
1456.00,0.1284
1455.00,0.1283
1454.00,0.1277
1453.00,0.1264
1452.00,0.1242
1451.00,0.1206
1450.00,0.1154
1449.00,0.1081
1448.00,0.0987
1447.00,0.0888
1446.00,0.0799
1445.00,0.0723
1444.00,0.0659
1443.00,0.0608
1442.00,0.0570
1441.00,0.0545
1440.00,0.0530
1439.00,0.0523
1438.00,0.0523
1437.00,0.0522
1436.00,0.0510
1435.00,0.0484
1434.00,0.0447
1433.00,0.0403
1432.00,0.0357
1431.00,0.0317
1430.00,0.0285
1429.00,0.0262
1428.00,0.0247
1427.00,0.0238
1426.00,0.0233
1425.00,0.0229
1424.00,0.0225
1423.00,0.0223
1422.00,0.0222
1421.00,0.0219
1420.00,0.0215
1419.00,0.0210
1418.00,0.0206
1417.00,0.0201
1416.00,0.0197
1415.00,0.0194
1414.00,0.0191
1413.00,0.0187
1412.00,0.0184
1411.00,0.0181
1410.00,0.0179
1409.00,0.0176
1408.00,0.0173
1407.00,0.0170
1406.00,0.0168
1405.00,0.0165
1404.00,0.0162
1403.00,0.0161
1402.00,0.0162
1401.00,0.0161
1400.00,0.0161
1399.00,0.0161
1398.00,0.0162
1397.00,0.0162
1396.00,0.0163
1395.00,0.0167
1394.00,0.0171
1393.00,0.0176
1392.00,0.0182
1391.00,0.0190
1390.00,0.0202
1389.00,0.0218
1388.00,0.0243
1387.00,0.0281
1386.00,0.0332
1385.00,0.0396
1384.00,0.0479
1383.00,0.0590
1382.00,0.0734
1381.00,0.0915
1380.00,0.1134
1379.00,0.1376
1378.00,0.1606
1377.00,0.1771
1376.00,0.1823
1375.00,0.1736
1374.00,0.1530
1373.00,0.1279
1372.00,0.1046
1371.00,0.0852
1370.00,0.0695
1369.00,0.0574
1368.00,0.0490
1367.00,0.0438
1366.00,0.0409
1365.00,0.0397
1364.00,0.0398
1363.00,0.0410
1362.00,0.0429
1361.00,0.0450
1360.00,0.0464
1359.00,0.0468
1358.00,0.0456
1357.00,0.0431
1356.00,0.0396
1355.00,0.0356
1354.00,0.0318
1353.00,0.0285
1352.00,0.0258
1351.00,0.0237
1350.00,0.0219
1349.00,0.0205
1348.00,0.0194
1347.00,0.0184
1346.00,0.0177
1345.00,0.0170
1344.00,0.0165
1343.00,0.0161
1342.00,0.0158
1341.00,0.0156
1340.00,0.0153
1339.00,0.0151
1338.00,0.0150
1337.00,0.0150
1336.00,0.0151
1335.00,0.0152
1334.00,0.0154
1333.00,0.0157
1332.00,0.0161
1331.00,0.0163
1330.00,0.0164
1329.00,0.0163
1328.00,0.0159
1327.00,0.0154
1326.00,0.0148
1325.00,0.0141
1324.00,0.0136
1323.00,0.0132
1322.00,0.0129
1321.00,0.0126
1320.00,0.0124
1319.00,0.0122
1318.00,0.0120
1317.00,0.0117
1316.00,0.0115
1315.00,0.0112
1314.00,0.0111
1313.00,0.0111
1312.00,0.0113
1311.00,0.0116
1310.00,0.0121
1309.00,0.0129
1308.00,0.0139
1307.00,0.0152
1306.00,0.0165
1305.00,0.0174
1304.00,0.0177
1303.00,0.0175
1302.00,0.0169
1301.00,0.0163
1300.00,0.0159
1299.00,0.0156
1298.00,0.0155
1297.00,0.0154
1296.00,0.0152
1295.00,0.0149
1294.00,0.0145
1293.00,0.0141
1292.00,0.0136
1291.00,0.0131
1290.00,0.0127
1289.00,0.0122
1288.00,0.0119
1287.00,0.0115
1286.00,0.0112
1285.00,0.0109
1284.00,0.0107
1283.00,0.0105
1282.00,0.0104
1281.00,0.0103
1280.00,0.0103
1279.00,0.0102
1278.00,0.0102
1277.00,0.0101
1276.00,0.0100
1275.00,0.0100
1274.00,0.0099
1273.00,0.0099
1272.00,0.0099
1271.00,0.0100
1270.00,0.0101
1269.00,0.0102
1268.00,0.0104
1267.00,0.0105
1266.00,0.0107
1265.00,0.0110
1264.00,0.0114
1263.00,0.0118
1262.00,0.0124
1261.00,0.0130
1260.00,0.0137
1259.00,0.0145
1258.00,0.0153
1257.00,0.0160
1256.00,0.0162
1255.00,0.0160
1254.00,0.0154
1253.00,0.0145
1252.00,0.0136
1251.00,0.0130
1250.00,0.0125
1249.00,0.0122
1248.00,0.0119
1247.00,0.0118
1246.00,0.0118
1245.00,0.0118
1244.00,0.0118
1243.00,0.0117
1242.00,0.0116
1241.00,0.0115
1240.00,0.0115
1239.00,0.0116
1238.00,0.0117
1237.00,0.0117
1236.00,0.0118
1235.00,0.0118
1234.00,0.0119
1233.00,0.0120
1232.00,0.0121
1231.00,0.0122
1230.00,0.0123
1229.00,0.0124
1228.00,0.0125
1227.00,0.0127
1226.00,0.0129
1225.00,0.0131
1224.00,0.0134
1223.00,0.0137
1222.00,0.0139
1221.00,0.0142
1220.00,0.0144
1219.00,0.0145
1218.00,0.0145
1217.00,0.0144
1216.00,0.0142
1215.00,0.0140
1214.00,0.0137
1213.00,0.0133
1212.00,0.0130
1211.00,0.0127
1210.00,0.0125
1209.00,0.0123
1208.00,0.0121
1207.00,0.0120
1206.00,0.0119
1205.00,0.0119
1204.00,0.0119
1203.00,0.0119
1202.00,0.0119
1201.00,0.0119
1200.00,0.0120
1199.00,0.0120
1198.00,0.0120
1197.00,0.0120
1196.00,0.0120
1195.00,0.0121
1194.00,0.0122
1193.00,0.0122
1192.00,0.0123
1191.00,0.0124
1190.00,0.0124
1189.00,0.0124
1188.00,0.0124
1187.00,0.0124
1186.00,0.0125
1185.00,0.0126
1184.00,0.0127
1183.00,0.0128
1182.00,0.0130
1181.00,0.0132
1180.00,0.0135
1179.00,0.0139
1178.00,0.0145
1177.00,0.0155
1176.00,0.0168
1175.00,0.0185
1174.00,0.0207
1173.00,0.0235
1172.00,0.0268
1171.00,0.0305
1170.00,0.0341
1169.00,0.0369
1168.00,0.0387
1167.00,0.0391
1166.00,0.0382
1165.00,0.0365
1164.00,0.0344
1163.00,0.0322
1162.00,0.0302
1161.00,0.0285
1160.00,0.0272
1159.00,0.0261
1158.00,0.0252
1157.00,0.0244
1156.00,0.0238
1155.00,0.0234
1154.00,0.0230
1153.00,0.0225
1152.00,0.0219
1151.00,0.0213
1150.00,0.0205
1149.00,0.0196
1148.00,0.0187
1147.00,0.0177
1146.00,0.0168
1145.00,0.0161
1144.00,0.0154
1143.00,0.0148
1142.00,0.0142
1141.00,0.0137
1140.00,0.0133
1139.00,0.0129
1138.00,0.0125
1137.00,0.0122
1136.00,0.0121
1135.00,0.0119
1134.00,0.0119
1133.00,0.0119
1132.00,0.0119
1131.00,0.0120
1130.00,0.0121
1129.00,0.0124
1128.00,0.0127
1127.00,0.0128
1126.00,0.0129
1125.00,0.0128
1124.00,0.0127
1123.00,0.0127
1122.00,0.0127
1121.00,0.0127
1120.00,0.0127
1119.00,0.0127
1118.00,0.0128
1117.00,0.0129
1116.00,0.0130
1115.00,0.0132
1114.00,0.0134
1113.00,0.0136
1112.00,0.0138
1111.00,0.0139
1110.00,0.0141
1109.00,0.0144
1108.00,0.0147
1107.00,0.0152
1106.00,0.0158
1105.00,0.0164
1104.00,0.0169
1103.00,0.0172
1102.00,0.0172
1101.00,0.0169
1100.00,0.0164
1099.00,0.0158
1098.00,0.0152
1097.00,0.0146
1096.00,0.0140
1095.00,0.0135
1094.00,0.0130
1093.00,0.0127
1092.00,0.0123
1091.00,0.0121
1090.00,0.0119
1089.00,0.0117
1088.00,0.0115
1087.00,0.0114
1086.00,0.0113
1085.00,0.0112
1084.00,0.0110
1083.00,0.0109
1082.00,0.0108
1081.00,0.0107
1080.00,0.0105
1079.00,0.0104
1078.00,0.0103
1077.00,0.0102
1076.00,0.0101
1075.00,0.0100
1074.00,0.0099
1073.00,0.0099
1072.00,0.0099
1071.00,0.0098
1070.00,0.0098
1069.00,0.0098
1068.00,0.0099
1067.00,0.0099
1066.00,0.0099
1065.00,0.0099
1064.00,0.0098
1063.00,0.0098
1062.00,0.0099
1061.00,0.0100
1060.00,0.0100
1059.00,0.0101
1058.00,0.0102
1057.00,0.0103
1056.00,0.0105
1055.00,0.0106
1054.00,0.0108
1053.00,0.0110
1052.00,0.0112
1051.00,0.0114
1050.00,0.0117
1049.00,0.0120
1048.00,0.0124
1047.00,0.0128
1046.00,0.0132
1045.00,0.0134
1044.00,0.0135
1043.00,0.0134
1042.00,0.0132
1041.00,0.0130
1040.00,0.0130
1039.00,0.0131
1038.00,0.0133
1037.00,0.0134
1036.00,0.0135
1035.00,0.0135
1034.00,0.0132
1033.00,0.0128
1032.00,0.0124
1031.00,0.0121
1030.00,0.0118
1029.00,0.0116
1028.00,0.0114
1027.00,0.0113
1026.00,0.0112
1025.00,0.0111
1024.00,0.0112
1023.00,0.0112
1022.00,0.0113
1021.00,0.0114
1020.00,0.0116
1019.00,0.0118
1018.00,0.0121
1017.00,0.0125
1016.00,0.0130
1015.00,0.0135
1014.00,0.0142
1013.00,0.0148
1012.00,0.0154
1011.00,0.0159
1010.00,0.0161
1009.00,0.0163
1008.00,0.0164
1007.00,0.0168
1006.00,0.0175
1005.00,0.0186
1004.00,0.0202
1003.00,0.0225
1002.00,0.0255
1001.00,0.0293
1000.00,0.0334
999.00,0.0370
998.00,0.0389
997.00,0.0385
996.00,0.0357
995.00,0.0315
994.00,0.0268
993.00,0.0226
992.00,0.0193
991.00,0.0170
990.00,0.0154
989.00,0.0144
988.00,0.0136
987.00,0.0132
986.00,0.0131
985.00,0.0133
984.00,0.0138
983.00,0.0147
982.00,0.0160
981.00,0.0178
980.00,0.0201
979.00,0.0231
978.00,0.0270
977.00,0.0317
976.00,0.0369
975.00,0.0419
974.00,0.0458
973.00,0.0475
972.00,0.0464
971.00,0.0425
970.00,0.0370
969.00,0.0310
968.00,0.0258
967.00,0.0216
966.00,0.0185
965.00,0.0163
964.00,0.0147
963.00,0.0135
962.00,0.0125
961.00,0.0118
960.00,0.0112
959.00,0.0108
958.00,0.0105
957.00,0.0103
956.00,0.0100
955.00,0.0097
954.00,0.0094
953.00,0.0092
952.00,0.0090
951.00,0.0089
950.00,0.0089
949.00,0.0089
948.00,0.0090
947.00,0.0091
946.00,0.0093
945.00,0.0095
944.00,0.0097
943.00,0.0100
942.00,0.0101
941.00,0.0101
940.00,0.0101
939.00,0.0100
938.00,0.0098
937.00,0.0095
936.00,0.0091
935.00,0.0087
934.00,0.0083
933.00,0.0079
932.00,0.0077
931.00,0.0076
930.00,0.0075
929.00,0.0074
928.00,0.0073
927.00,0.0072
926.00,0.0071
925.00,0.0071
924.00,0.0072
923.00,0.0073
922.00,0.0075
921.00,0.0076
920.00,0.0078
919.00,0.0078
918.00,0.0079
917.00,0.0080
916.00,0.0080
915.00,0.0080
914.00,0.0080
913.00,0.0081
912.00,0.0082
911.00,0.0083
910.00,0.0084
909.00,0.0085
908.00,0.0088
907.00,0.0093
906.00,0.0100
905.00,0.0109
904.00,0.0122
903.00,0.0138
902.00,0.0156
901.00,0.0174
900.00,0.0186
899.00,0.0189
898.00,0.0183
897.00,0.0169
896.00,0.0151
895.00,0.0134
894.00,0.0120
893.00,0.0110
892.00,0.0102
891.00,0.0095
890.00,0.0090
889.00,0.0087
888.00,0.0084
887.00,0.0082
886.00,0.0082
885.00,0.0083
884.00,0.0085
883.00,0.0088
882.00,0.0091
881.00,0.0093
880.00,0.0094
879.00,0.0094
878.00,0.0095
877.00,0.0096
876.00,0.0096
875.00,0.0095
874.00,0.0093
873.00,0.0090
872.00,0.0087
871.00,0.0086
870.00,0.0085
869.00,0.0085
868.00,0.0084
867.00,0.0085
866.00,0.0085
865.00,0.0086
864.00,0.0087
863.00,0.0089
862.00,0.0090
861.00,0.0092
860.00,0.0094
859.00,0.0096
858.00,0.0098
857.00,0.0099
856.00,0.0101
855.00,0.0102
854.00,0.0105
853.00,0.0108
852.00,0.0113
851.00,0.0119
850.00,0.0126
849.00,0.0134
848.00,0.0145
847.00,0.0161
846.00,0.0187
845.00,0.0226
844.00,0.0278
843.00,0.0333
842.00,0.0374
841.00,0.0383
840.00,0.0357
839.00,0.0310
838.00,0.0260
837.00,0.0220
836.00,0.0192
835.00,0.0174
834.00,0.0163
833.00,0.0156
832.00,0.0151
831.00,0.0147
830.00,0.0143
829.00,0.0139
828.00,0.0135
827.00,0.0132
826.00,0.0130
825.00,0.0128
824.00,0.0125
823.00,0.0123
822.00,0.0122
821.00,0.0123
820.00,0.0125
819.00,0.0128
818.00,0.0131
817.00,0.0135
816.00,0.0142
815.00,0.0151
814.00,0.0162
813.00,0.0177
812.00,0.0191
811.00,0.0205
810.00,0.0214
809.00,0.0217
808.00,0.0215
807.00,0.0207
806.00,0.0196
805.00,0.0183
804.00,0.0169
803.00,0.0157
802.00,0.0146
801.00,0.0137
800.00,0.0130
799.00,0.0125
798.00,0.0121
797.00,0.0116
796.00,0.0112
795.00,0.0109
794.00,0.0107
793.00,0.0105
792.00,0.0104
791.00,0.0102
790.00,0.0100
789.00,0.0098
788.00,0.0096
787.00,0.0094
786.00,0.0092
785.00,0.0091
784.00,0.0090
783.00,0.0088
782.00,0.0086
781.00,0.0084
780.00,0.0082
779.00,0.0081
778.00,0.0081
777.00,0.0081
776.00,0.0083
775.00,0.0084
774.00,0.0087
773.00,0.0089
772.00,0.0092
771.00,0.0095
770.00,0.0099
769.00,0.0103
768.00,0.0106
767.00,0.0107
766.00,0.0105
765.00,0.0103
764.00,0.0099
763.00,0.0095
762.00,0.0090
761.00,0.0086
760.00,0.0082
759.00,0.0080
758.00,0.0079
757.00,0.0077
756.00,0.0076
755.00,0.0076
754.00,0.0075
753.00,0.0074
752.00,0.0073
751.00,0.0072
750.00,0.0072
749.00,0.0073
748.00,0.0074
747.00,0.0076
746.00,0.0078
745.00,0.0079
744.00,0.0080
743.00,0.0082
742.00,0.0084
741.00,0.0085
740.00,0.0086
739.00,0.0088
738.00,0.0089
737.00,0.0090
736.00,0.0091
735.00,0.0092
734.00,0.0094
733.00,0.0098
732.00,0.0102
731.00,0.0105
730.00,0.0106
729.00,0.0106
728.00,0.0104
727.00,0.0103
726.00,0.0103
725.00,0.0105
724.00,0.0106
723.00,0.0106
722.00,0.0106
721.00,0.0104
720.00,0.0102
719.00,0.0100
718.00,0.0097
717.00,0.0095
716.00,0.0092
715.00,0.0090
714.00,0.0089
713.00,0.0088
712.00,0.0087
711.00,0.0088
710.00,0.0088
709.00,0.0087
708.00,0.0086
707.00,0.0085
706.00,0.0084
705.00,0.0084
704.00,0.0085
703.00,0.0085
702.00,0.0086
701.00,0.0086
700.00,0.0085
699.00,0.0083
698.00,0.0081
697.00,0.0080
696.00,0.0081
695.00,0.0084
694.00,0.0086
693.00,0.0087
692.00,0.0088
691.00,0.0089
690.00,0.0091
689.00,0.0092
688.00,0.0093
687.00,0.0093
686.00,0.0093
685.00,0.0092
684.00,0.0091
683.00,0.0090
682.00,0.0089
681.00,0.0090
680.00,0.0091
679.00,0.0092
678.00,0.0093
677.00,0.0093
676.00,0.0093
675.00,0.0092
674.00,0.0092
673.00,0.0093
672.00,0.0094
671.00,0.0096
670.00,0.0098
669.00,0.0100
668.00,0.0103
667.00,0.0102
666.00,0.0098
665.00,0.0094
664.00,0.0090
663.00,0.0088
662.00,0.0085
661.00,0.0083
660.00,0.0080
659.00,0.0079
658.00,0.0078
657.00,0.0077
656.00,0.0077
655.00,0.0078
654.00,0.0079
653.00,0.0080
652.00,0.0080
651.00,0.0080
650.00,0.0080
649.00,0.0080
648.00,0.0081
647.00,0.0081
646.00,0.0081
645.00,0.0079
644.00,0.0077
643.00,0.0077
642.00,0.0079
641.00,0.0082
640.00,0.0084
639.00,0.0086
638.00,0.0087
637.00,0.0086
636.00,0.0086
635.00,0.0086
634.00,0.0087
633.00,0.0088
632.00,0.0088
631.00,0.0086
630.00,0.0083
629.00,0.0080
628.00,0.0079
627.00,0.0080
626.00,0.0081
625.00,0.0083
624.00,0.0084
623.00,0.0086
622.00,0.0088
621.00,0.0089
620.00,0.0088
619.00,0.0086
618.00,0.0084
617.00,0.0082
616.00,0.0081
615.00,0.0082
614.00,0.0084
613.00,0.0087
612.00,0.0090
611.00,0.0092
610.00,0.0093
609.00,0.0094
608.00,0.0095
607.00,0.0096
606.00,0.0096
605.00,0.0095
604.00,0.0095
603.00,0.0096
602.00,0.0096
601.00,0.0094
600.00,0.0091
599.00,0.0090
598.00,0.0090
597.00,0.0092
596.00,0.0093
595.00,0.0094
594.00,0.0092
593.00,0.0089
592.00,0.0086
591.00,0.0084
590.00,0.0083
589.00,0.0083
588.00,0.0086
587.00,0.0089
586.00,0.0092
585.00,0.0093
584.00,0.0092
583.00,0.0093
582.00,0.0096
581.00,0.0100
580.00,0.0102
579.00,0.0102
578.00,0.0100
577.00,0.0097
576.00,0.0094
575.00,0.0092
574.00,0.0091
573.00,0.0090
572.00,0.0090
571.00,0.0091
570.00,0.0092
569.00,0.0091
568.00,0.0089
567.00,0.0087
566.00,0.0088
565.00,0.0090
564.00,0.0092
563.00,0.0092
562.00,0.0093
561.00,0.0092
560.00,0.0092
559.00,0.0092
558.00,0.0092
557.00,0.0091
556.00,0.0089
555.00,0.0086
554.00,0.0087
553.00,0.0092
552.00,0.0098
551.00,0.0102
550.00,0.0100
549.00,0.0094
548.00,0.0088
547.00,0.0085
546.00,0.0086
545.00,0.0087
544.00,0.0088
543.00,0.0088
542.00,0.0088
541.00,0.0088
540.00,0.0089
539.00,0.0092
538.00,0.0096
537.00,0.0100
536.00,0.0102
535.00,0.0102
534.00,0.0103
533.00,0.0103
532.00,0.0103
531.00,0.0104
530.00,0.0104
529.00,0.0106
528.00,0.0109
527.00,0.0113
526.00,0.0116
525.00,0.0117
524.00,0.0118
523.00,0.0118
522.00,0.0117
521.00,0.0111
520.00,0.0103
519.00,0.0097
518.00,0.0095
517.00,0.0094
516.00,0.0091
515.00,0.0088
514.00,0.0087
513.00,0.0085
512.00,0.0081
511.00,0.0078
510.00,0.0079
509.00,0.0084
508.00,0.0089
507.00,0.0091
506.00,0.0088
505.00,0.0084
504.00,0.0080
503.00,0.0079
502.00,0.0082
501.00,0.0085
500.00,0.0085
499.00,0.0085
498.00,0.0086
497.00,0.0088
496.00,0.0089
495.00,0.0088
494.00,0.0085
493.00,0.0080
492.00,0.0075
491.00,0.0071
490.00,0.0073
489.00,0.0080
488.00,0.0090
487.00,0.0097
486.00,0.0100
485.00,0.0098
484.00,0.0093
483.00,0.0089
482.00,0.0088
481.00,0.0087
480.00,0.0084
479.00,0.0081
478.00,0.0080
477.00,0.0086
476.00,0.0098
475.00,0.0111
474.00,0.0121
473.00,0.0124
472.00,0.0122
471.00,0.0117
470.00,0.0116
469.00,0.0118
468.00,0.0124
467.00,0.0130
466.00,0.0133
465.00,0.0131
464.00,0.0124
463.00,0.0116
462.00,0.0111
461.00,0.0114
460.00,0.0127
459.00,0.0146
458.00,0.0164
457.00,0.0172
456.00,0.0167
455.00,0.0158
454.00,0.0150
453.00,0.0142
452.00,0.0129
451.00,0.0115
450.00,0.0106
