Created as New Dataset,Sample 123 By Administrator Date Tuesday, September 09 2025
cm-1,A
4000.00,0.0007
3999.00,0.0007
3998.00,0.0007
3997.00,0.0007
3996.00,0.0007
3995.00,0.0007
3994.00,0.0007
3993.00,0.0006
3992.00,0.0006
3991.00,0.0006
3990.00,0.0006
3989.00,0.0006
3988.00,0.0006
3987.00,0.0006
3986.00,0.0006
3985.00,0.0006
3984.00,0.0006
3983.00,0.0006
3982.00,0.0006
3981.00,0.0006
3980.00,0.0006
3979.00,0.0006
3978.00,0.0006
3977.00,0.0006
3976.00,0.0006
3975.00,0.0006
3974.00,0.0006
3973.00,0.0006
3972.00,0.0006
3971.00,0.0006
3970.00,0.0006
3969.00,0.0005
3968.00,0.0005
3967.00,0.0005
3966.00,0.0005
3965.00,0.0005
3964.00,0.0005
3963.00,0.0005
3962.00,0.0005
3961.00,0.0005
3960.00,0.0006
3959.00,0.0006
3958.00,0.0005
3957.00,0.0005
3956.00,0.0005
3955.00,0.0005
3954.00,0.0005
3953.00,0.0005
3952.00,0.0005
3951.00,0.0005
3950.00,0.0005
3949.00,0.0005
3948.00,0.0005
3947.00,0.0005
3946.00,0.0005
3945.00,0.0005
3944.00,0.0005
3943.00,0.0005
3942.00,0.0005
3941.00,0.0005
3940.00,0.0005
3939.00,0.0005
3938.00,0.0005
3937.00,0.0006
3936.00,0.0006
3935.00,0.0006
3934.00,0.0006
3933.00,0.0006
3932.00,0.0006
3931.00,0.0006
3930.00,0.0006
3929.00,0.0006
3928.00,0.0006
3927.00,0.0005
3926.00,0.0005
3925.00,0.0006
3924.00,0.0006
3923.00,0.0007
3922.00,0.0007
3921.00,0.0007
3920.00,0.0006
3919.00,0.0005
3918.00,0.0005
3917.00,0.0005
3916.00,0.0005
3915.00,0.0005
3914.00,0.0005
3913.00,0.0005
3912.00,0.0005
3911.00,0.0005
3910.00,0.0006
3909.00,0.0006
3908.00,0.0006
3907.00,0.0006
3906.00,0.0006
3905.00,0.0006
3904.00,0.0006
3903.00,0.0006
3902.00,0.0006
3901.00,0.0006
3900.00,0.0006
3899.00,0.0006
3898.00,0.0006
3897.00,0.0006
3896.00,0.0006
3895.00,0.0006
3894.00,0.0005
3893.00,0.0005
3892.00,0.0005
3891.00,0.0005
3890.00,0.0005
3889.00,0.0005
3888.00,0.0005
3887.00,0.0005
3886.00,0.0005
3885.00,0.0005
3884.00,0.0005
3883.00,0.0005
3882.00,0.0005
3881.00,0.0005
3880.00,0.0005
3879.00,0.0006
3878.00,0.0006
3877.00,0.0005
3876.00,0.0005
3875.00,0.0006
3874.00,0.0006
3873.00,0.0006
3872.00,0.0006
3871.00,0.0006
3870.00,0.0005
3869.00,0.0005
3868.00,0.0005
3867.00,0.0004
3866.00,0.0004
3865.00,0.0004
3864.00,0.0005
3863.00,0.0005
3862.00,0.0005
3861.00,0.0005
3860.00,0.0005
3859.00,0.0006
3858.00,0.0006
3857.00,0.0006
3856.00,0.0006
3855.00,0.0006
3854.00,0.0006
3853.00,0.0006
3852.00,0.0006
3851.00,0.0006
3850.00,0.0005
3849.00,0.0005
3848.00,0.0005
3847.00,0.0005
3846.00,0.0005
3845.00,0.0005
3844.00,0.0005
3843.00,0.0005
3842.00,0.0005
3841.00,0.0005
3840.00,0.0005
3839.00,0.0005
3838.00,0.0005
3837.00,0.0005
3836.00,0.0005
3835.00,0.0005
3834.00,0.0005
3833.00,0.0005
3832.00,0.0006
3831.00,0.0006
3830.00,0.0006
3829.00,0.0006
3828.00,0.0005
3827.00,0.0005
3826.00,0.0006
3825.00,0.0006
3824.00,0.0006
3823.00,0.0005
3822.00,0.0005
3821.00,0.0005
3820.00,0.0005
3819.00,0.0005
3818.00,0.0005
3817.00,0.0005
3816.00,0.0005
3815.00,0.0005
3814.00,0.0005
3813.00,0.0006
3812.00,0.0006
3811.00,0.0006
3810.00,0.0006
3809.00,0.0006
3808.00,0.0005
3807.00,0.0005
3806.00,0.0005
3805.00,0.0005
3804.00,0.0005
3803.00,0.0004
3802.00,0.0004
3801.00,0.0005
3800.00,0.0005
3799.00,0.0005
3798.00,0.0005
3797.00,0.0004
3796.00,0.0005
3795.00,0.0005
3794.00,0.0005
3793.00,0.0005
3792.00,0.0005
3791.00,0.0006
3790.00,0.0006
3789.00,0.0006
3788.00,0.0005
3787.00,0.0005
3786.00,0.0005
3785.00,0.0004
3784.00,0.0004
3783.00,0.0004
3782.00,0.0004
3781.00,0.0004
3780.00,0.0004
3779.00,0.0004
3778.00,0.0004
3777.00,0.0004
3776.00,0.0004
3775.00,0.0005
3774.00,0.0005
3773.00,0.0006
3772.00,0.0006
3771.00,0.0005
3770.00,0.0005
3769.00,0.0005
3768.00,0.0005
3767.00,0.0006
3766.00,0.0006
3765.00,0.0006
3764.00,0.0006
3763.00,0.0006
3762.00,0.0006
3761.00,0.0006
3760.00,0.0006
3759.00,0.0006
3758.00,0.0006
3757.00,0.0006
3756.00,0.0006
3755.00,0.0006
3754.00,0.0006
3753.00,0.0006
3752.00,0.0006
3751.00,0.0006
3750.00,0.0006
3749.00,0.0006
3748.00,0.0006
3747.00,0.0007
3746.00,0.0006
3745.00,0.0006
3744.00,0.0006
3743.00,0.0006
3742.00,0.0006
3741.00,0.0005
3740.00,0.0005
3739.00,0.0004
3738.00,0.0004
3737.00,0.0004
3736.00,0.0004
3735.00,0.0004
3734.00,0.0004
3733.00,0.0005
3732.00,0.0005
3731.00,0.0005
3730.00,0.0005
3729.00,0.0005
3728.00,0.0005
3727.00,0.0005
3726.00,0.0005
3725.00,0.0005
3724.00,0.0005
3723.00,0.0005
3722.00,0.0005
3721.00,0.0005
3720.00,0.0005
3719.00,0.0005
3718.00,0.0004
3717.00,0.0004
3716.00,0.0004
3715.00,0.0004
3714.00,0.0004
3713.00,0.0004
3712.00,0.0004
3711.00,0.0004
3710.00,0.0004
3709.00,0.0003
3708.00,0.0003
3707.00,0.0003
3706.00,0.0004
3705.00,0.0004
3704.00,0.0004
3703.00,0.0004
3702.00,0.0004
3701.00,0.0004
3700.00,0.0004
3699.00,0.0004
3698.00,0.0004
3697.00,0.0004
3696.00,0.0004
3695.00,0.0004
3694.00,0.0004
3693.00,0.0004
3692.00,0.0004
3691.00,0.0004
3690.00,0.0004
3689.00,0.0004
3688.00,0.0004
3687.00,0.0004
3686.00,0.0003
3685.00,0.0003
3684.00,0.0003
3683.00,0.0004
3682.00,0.0004
3681.00,0.0004
3680.00,0.0005
3679.00,0.0006
3678.00,0.0006
3677.00,0.0006
3676.00,0.0005
3675.00,0.0005
3674.00,0.0005
3673.00,0.0005
3672.00,0.0005
3671.00,0.0005
3670.00,0.0005
3669.00,0.0004
3668.00,0.0004
3667.00,0.0003
3666.00,0.0003
3665.00,0.0003
3664.00,0.0003
3663.00,0.0003
3662.00,0.0004
3661.00,0.0004
3660.00,0.0003
3659.00,0.0003
3658.00,0.0003
3657.00,0.0003
3656.00,0.0004
3655.00,0.0004
3654.00,0.0004
3653.00,0.0004
3652.00,0.0004
3651.00,0.0004
3650.00,0.0004
3649.00,0.0004
3648.00,0.0004
3647.00,0.0004
3646.00,0.0004
3645.00,0.0004
3644.00,0.0004
3643.00,0.0004
3642.00,0.0004
3641.00,0.0005
3640.00,0.0005
3639.00,0.0005
3638.00,0.0005
3637.00,0.0005
3636.00,0.0005
3635.00,0.0005
3634.00,0.0005
3633.00,0.0005
3632.00,0.0005
3631.00,0.0005
3630.00,0.0006
3629.00,0.0006
3628.00,0.0006
3627.00,0.0006
3626.00,0.0005
3625.00,0.0005
3624.00,0.0005
3623.00,0.0005
3622.00,0.0006
3621.00,0.0006
3620.00,0.0007
3619.00,0.0007
3618.00,0.0007
3617.00,0.0006
3616.00,0.0006
3615.00,0.0006
3614.00,0.0006
3613.00,0.0007
3612.00,0.0007
3611.00,0.0008
3610.00,0.0008
3609.00,0.0008
3608.00,0.0008
3607.00,0.0008
3606.00,0.0008
3605.00,0.0008
3604.00,0.0007
3603.00,0.0007
3602.00,0.0007
3601.00,0.0007
3600.00,0.0008
3599.00,0.0009
3598.00,0.0009
3597.00,0.0010
3596.00,0.0010
3595.00,0.0009
3594.00,0.0009
3593.00,0.0009
3592.00,0.0009
3591.00,0.0010
3590.00,0.0010
3589.00,0.0011
3588.00,0.0011
3587.00,0.0011
3586.00,0.0011
3585.00,0.0011
3584.00,0.0011
3583.00,0.0011
3582.00,0.0011
3581.00,0.0011
3580.00,0.0011
3579.00,0.0011
3578.00,0.0011
3577.00,0.0011
3576.00,0.0011
3575.00,0.0011
3574.00,0.0011
3573.00,0.0012
3572.00,0.0012
3571.00,0.0013
3570.00,0.0013
3569.00,0.0014
3568.00,0.0014
3567.00,0.0014
3566.00,0.0014
3565.00,0.0014
3564.00,0.0013
3563.00,0.0013
3562.00,0.0014
3561.00,0.0014
3560.00,0.0015
3559.00,0.0015
3558.00,0.0015
3557.00,0.0015
3556.00,0.0015
3555.00,0.0015
3554.00,0.0015
3553.00,0.0016
3552.00,0.0016
3551.00,0.0017
3550.00,0.0018
3549.00,0.0018
3548.00,0.0018
3547.00,0.0019
3546.00,0.0018
3545.00,0.0018
3544.00,0.0018
3543.00,0.0017
3542.00,0.0018
3541.00,0.0018
3540.00,0.0019
3539.00,0.0019
3538.00,0.0020
3537.00,0.0020
3536.00,0.0019
3535.00,0.0019
3534.00,0.0019
3533.00,0.0020
3532.00,0.0020
3531.00,0.0021
3530.00,0.0021
3529.00,0.0021
3528.00,0.0021
3527.00,0.0022
3526.00,0.0022
3525.00,0.0022
3524.00,0.0022
3523.00,0.0023
3522.00,0.0023
3521.00,0.0023
3520.00,0.0022
3519.00,0.0022
3518.00,0.0021
3517.00,0.0021
3516.00,0.0021
3515.00,0.0022
3514.00,0.0023
3513.00,0.0023
3512.00,0.0024
3511.00,0.0024
3510.00,0.0024
3509.00,0.0024
3508.00,0.0024
3507.00,0.0025
3506.00,0.0025
3505.00,0.0025
3504.00,0.0025
3503.00,0.0025
3502.00,0.0025
3501.00,0.0026
3500.00,0.0026
3499.00,0.0026
3498.00,0.0026
3497.00,0.0026
3496.00,0.0027
3495.00,0.0027
3494.00,0.0028
3493.00,0.0029
3492.00,0.0029
3491.00,0.0029
3490.00,0.0029
3489.00,0.0028
3488.00,0.0028
3487.00,0.0028
3486.00,0.0029
3485.00,0.0029
3484.00,0.0029
3483.00,0.0030
3482.00,0.0030
3481.00,0.0030
3480.00,0.0030
3479.00,0.0030
3478.00,0.0030
3477.00,0.0031
3476.00,0.0031
3475.00,0.0031
3474.00,0.0032
3473.00,0.0032
3472.00,0.0032
3471.00,0.0032
3470.00,0.0032
3469.00,0.0032
3468.00,0.0032
3467.00,0.0032
3466.00,0.0033
3465.00,0.0033
3464.00,0.0033
3463.00,0.0033
3462.00,0.0033
3461.00,0.0033
3460.00,0.0034
3459.00,0.0035
3458.00,0.0035
3457.00,0.0035
3456.00,0.0035
3455.00,0.0035
3454.00,0.0035
3453.00,0.0036
3452.00,0.0036
3451.00,0.0036
3450.00,0.0036
3449.00,0.0036
3448.00,0.0036
3447.00,0.0036
3446.00,0.0037
3445.00,0.0037
3444.00,0.0037
3443.00,0.0037
3442.00,0.0037
3441.00,0.0037
3440.00,0.0037
3439.00,0.0038
3438.00,0.0038
3437.00,0.0038
3436.00,0.0038
3435.00,0.0039
3434.00,0.0039
3433.00,0.0039
3432.00,0.0040
3431.00,0.0040
3430.00,0.0040
3429.00,0.0041
3428.00,0.0041
3427.00,0.0041
3426.00,0.0041
3425.00,0.0041
3424.00,0.0041
3423.00,0.0041
3422.00,0.0042
3421.00,0.0042
3420.00,0.0043
3419.00,0.0043
3418.00,0.0043
3417.00,0.0043
3416.00,0.0043
3415.00,0.0043
3414.00,0.0043
3413.00,0.0044
3412.00,0.0044
3411.00,0.0044
3410.00,0.0044
3409.00,0.0044
3408.00,0.0044
3407.00,0.0044
3406.00,0.0044
3405.00,0.0045
3404.00,0.0045
3403.00,0.0045
3402.00,0.0046
3401.00,0.0046
3400.00,0.0046
3399.00,0.0047
3398.00,0.0047
3397.00,0.0047
3396.00,0.0048
3395.00,0.0048
3394.00,0.0048
3393.00,0.0048
3392.00,0.0048
3391.00,0.0048
3390.00,0.0048
3389.00,0.0047
3388.00,0.0047
3387.00,0.0047
3386.00,0.0047
3385.00,0.0048
3384.00,0.0048
3383.00,0.0048
3382.00,0.0047
3381.00,0.0047
3380.00,0.0047
3379.00,0.0048
3378.00,0.0048
3377.00,0.0048
3376.00,0.0048
3375.00,0.0048
3374.00,0.0048
3373.00,0.0049
3372.00,0.0049
3371.00,0.0050
3370.00,0.0050
3369.00,0.0050
3368.00,0.0050
3367.00,0.0050
3366.00,0.0051
3365.00,0.0051
3364.00,0.0050
3363.00,0.0050
3362.00,0.0050
3361.00,0.0051
3360.00,0.0051
3359.00,0.0051
3358.00,0.0051
3357.00,0.0051
3356.00,0.0051
3355.00,0.0051
3354.00,0.0051
3353.00,0.0051
3352.00,0.0051
3351.00,0.0051
3350.00,0.0051
3349.00,0.0051
3348.00,0.0052
3347.00,0.0052
3346.00,0.0052
3345.00,0.0052
3344.00,0.0052
3343.00,0.0052
3342.00,0.0052
3341.00,0.0052
3340.00,0.0052
3339.00,0.0052
3338.00,0.0052
3337.00,0.0052
3336.00,0.0052
3335.00,0.0052
3334.00,0.0053
3333.00,0.0053
3332.00,0.0052
3331.00,0.0052
3330.00,0.0052
3329.00,0.0052
3328.00,0.0052
3327.00,0.0052
3326.00,0.0052
3325.00,0.0052
3324.00,0.0051
3323.00,0.0051
3322.00,0.0051
3321.00,0.0051
3320.00,0.0051
3319.00,0.0051
3318.00,0.0051
3317.00,0.0051
3316.00,0.0052
3315.00,0.0052
3314.00,0.0052
3313.00,0.0052
3312.00,0.0052
3311.00,0.0052
3310.00,0.0052
3309.00,0.0052
3308.00,0.0052
3307.00,0.0052
3306.00,0.0052
3305.00,0.0053
3304.00,0.0053
3303.00,0.0053
3302.00,0.0053
3301.00,0.0053
3300.00,0.0052
3299.00,0.0052
3298.00,0.0052
3297.00,0.0052
3296.00,0.0052
3295.00,0.0053
3294.00,0.0053
3293.00,0.0053
3292.00,0.0053
3291.00,0.0053
3290.00,0.0053
3289.00,0.0053
3288.00,0.0052
3287.00,0.0052
3286.00,0.0052
3285.00,0.0051
3284.00,0.0051
3283.00,0.0051
3282.00,0.0051
3281.00,0.0051
3280.00,0.0051
3279.00,0.0051
3278.00,0.0050
3277.00,0.0050
3276.00,0.0049
3275.00,0.0049
3274.00,0.0049
3273.00,0.0049
3272.00,0.0049
3271.00,0.0049
3270.00,0.0049
3269.00,0.0049
3268.00,0.0049
3267.00,0.0049
3266.00,0.0049
3265.00,0.0048
3264.00,0.0048
3263.00,0.0048
3262.00,0.0047
3261.00,0.0047
3260.00,0.0047
3259.00,0.0046
3258.00,0.0046
3257.00,0.0045
3256.00,0.0045
3255.00,0.0045
3254.00,0.0045
3253.00,0.0045
3252.00,0.0045
3251.00,0.0045
3250.00,0.0045
3249.00,0.0045
3248.00,0.0045
3247.00,0.0044
3246.00,0.0044
3245.00,0.0044
3244.00,0.0045
3243.00,0.0045
3242.00,0.0045
3241.00,0.0044
3240.00,0.0044
3239.00,0.0043
3238.00,0.0043
3237.00,0.0043
3236.00,0.0044
3235.00,0.0044
3234.00,0.0045
3233.00,0.0045
3232.00,0.0045
3231.00,0.0045
3230.00,0.0045
3229.00,0.0045
3228.00,0.0045
3227.00,0.0045
3226.00,0.0045
3225.00,0.0045
3224.00,0.0045
3223.00,0.0045
3222.00,0.0046
3221.00,0.0046
3220.00,0.0047
3219.00,0.0047
3218.00,0.0046
3217.00,0.0047
3216.00,0.0047
3215.00,0.0047
3214.00,0.0047
3213.00,0.0048
3212.00,0.0048
3211.00,0.0048
3210.00,0.0048
3209.00,0.0048
3208.00,0.0047
3207.00,0.0047
3206.00,0.0047
3205.00,0.0047
3204.00,0.0048
3203.00,0.0048
3202.00,0.0049
3201.00,0.0049
3200.00,0.0049
3199.00,0.0049
3198.00,0.0049
3197.00,0.0049
3196.00,0.0050
3195.00,0.0050
3194.00,0.0049
3193.00,0.0049
3192.00,0.0049
3191.00,0.0049
3190.00,0.0049
3189.00,0.0049
3188.00,0.0049
3187.00,0.0048
3186.00,0.0048
3185.00,0.0048
3184.00,0.0048
3183.00,0.0048
3182.00,0.0048
3181.00,0.0048
3180.00,0.0047
3179.00,0.0047
3178.00,0.0046
3177.00,0.0046
3176.00,0.0045
3175.00,0.0045
3174.00,0.0045
3173.00,0.0045
3172.00,0.0044
3171.00,0.0044
3170.00,0.0044
3169.00,0.0043
3168.00,0.0043
3167.00,0.0043
3166.00,0.0043
3165.00,0.0042
3164.00,0.0042
3163.00,0.0042
3162.00,0.0042
3161.00,0.0041
3160.00,0.0041
3159.00,0.0041
3158.00,0.0041
3157.00,0.0041
3156.00,0.0041
3155.00,0.0041
3154.00,0.0042
3153.00,0.0041
3152.00,0.0041
3151.00,0.0041
3150.00,0.0041
3149.00,0.0041
3148.00,0.0041
3147.00,0.0041
3146.00,0.0041
3145.00,0.0041
3144.00,0.0041
3143.00,0.0040
3142.00,0.0040
3141.00,0.0040
3140.00,0.0040
3139.00,0.0040
3138.00,0.0040
3137.00,0.0039
3136.00,0.0039
3135.00,0.0039
3134.00,0.0039
3133.00,0.0038
3132.00,0.0038
3131.00,0.0038
3130.00,0.0038
3129.00,0.0037
3128.00,0.0037
3127.00,0.0037
3126.00,0.0037
3125.00,0.0037
3124.00,0.0036
3123.00,0.0036
3122.00,0.0035
3121.00,0.0034
3120.00,0.0034
3119.00,0.0034
3118.00,0.0034
3117.00,0.0033
3116.00,0.0033
3115.00,0.0033
3114.00,0.0033
3113.00,0.0034
3112.00,0.0034
3111.00,0.0034
3110.00,0.0033
3109.00,0.0033
3108.00,0.0033
3107.00,0.0033
3106.00,0.0033
3105.00,0.0033
3104.00,0.0033
3103.00,0.0033
3102.00,0.0032
3101.00,0.0032
3100.00,0.0032
3099.00,0.0031
3098.00,0.0031
3097.00,0.0031
3096.00,0.0031
3095.00,0.0031
3094.00,0.0031
3093.00,0.0031
3092.00,0.0031
3091.00,0.0031
3090.00,0.0031
3089.00,0.0030
3088.00,0.0030
3087.00,0.0030
3086.00,0.0030
3085.00,0.0030
3084.00,0.0030
3083.00,0.0030
3082.00,0.0030
3081.00,0.0030
3080.00,0.0030
3079.00,0.0030
3078.00,0.0031
3077.00,0.0031
3076.00,0.0031
3075.00,0.0031
3074.00,0.0030
3073.00,0.0030
3072.00,0.0030
3071.00,0.0030
3070.00,0.0030
3069.00,0.0030
3068.00,0.0030
3067.00,0.0030
3066.00,0.0031
3065.00,0.0031
3064.00,0.0032
3063.00,0.0032
3062.00,0.0032
3061.00,0.0032
3060.00,0.0032
3059.00,0.0032
3058.00,0.0032
3057.00,0.0032
3056.00,0.0033
3055.00,0.0033
3054.00,0.0032
3053.00,0.0033
3052.00,0.0033
3051.00,0.0033
3050.00,0.0034
3049.00,0.0034
3048.00,0.0034
3047.00,0.0034
3046.00,0.0035
3045.00,0.0035
3044.00,0.0035
3043.00,0.0035
3042.00,0.0035
3041.00,0.0035
3040.00,0.0035
3039.00,0.0036
3038.00,0.0036
3037.00,0.0037
3036.00,0.0037
3035.00,0.0037
3034.00,0.0037
3033.00,0.0038
3032.00,0.0038
3031.00,0.0039
3030.00,0.0039
3029.00,0.0039
3028.00,0.0040
3027.00,0.0040
3026.00,0.0040
3025.00,0.0041
3024.00,0.0041
3023.00,0.0042
3022.00,0.0042
3021.00,0.0043
3020.00,0.0044
3019.00,0.0044
3018.00,0.0045
3017.00,0.0046
3016.00,0.0047
3015.00,0.0048
3014.00,0.0049
3013.00,0.0051
3012.00,0.0052
3011.00,0.0054
3010.00,0.0055
3009.00,0.0056
3008.00,0.0058
3007.00,0.0059
3006.00,0.0061
3005.00,0.0063
3004.00,0.0065
3003.00,0.0067
3002.00,0.0069
3001.00,0.0071
3000.00,0.0074
2999.00,0.0077
2998.00,0.0081
2997.00,0.0085
2996.00,0.0089
2995.00,0.0093
2994.00,0.0097
2993.00,0.0103
2992.00,0.0108
2991.00,0.0114
2990.00,0.0121
2989.00,0.0129
2988.00,0.0137
2987.00,0.0147
2986.00,0.0158
2985.00,0.0170
2984.00,0.0184
2983.00,0.0199
2982.00,0.0215
2981.00,0.0234
2980.00,0.0255
2979.00,0.0279
2978.00,0.0306
2977.00,0.0338
2976.00,0.0373
2975.00,0.0414
2974.00,0.0461
2973.00,0.0514
2972.00,0.0573
2971.00,0.0640
2970.00,0.0715
2969.00,0.0798
2968.00,0.0889
2967.00,0.0989
2966.00,0.1096
2965.00,0.1209
2964.00,0.1324
2963.00,0.1437
2962.00,0.1542
2961.00,0.1635
2960.00,0.1712
2959.00,0.1771
2958.00,0.1814
2957.00,0.1845
2956.00,0.1869
2955.00,0.1892
2954.00,0.1917
2953.00,0.1942
2952.00,0.1963
2951.00,0.1973
2950.00,0.1961
2949.00,0.1923
2948.00,0.1853
2947.00,0.1754
2946.00,0.1634
2945.00,0.1504
2944.00,0.1377
2943.00,0.1263
2942.00,0.1171
2941.00,0.1102
2940.00,0.1058
2939.00,0.1036
2938.00,0.1036
2937.00,0.1053
2936.00,0.1086
2935.00,0.1135
2934.00,0.1196
2933.00,0.1268
2932.00,0.1349
2931.00,0.1437
2930.00,0.1530
2929.00,0.1623
2928.00,0.1715
2927.00,0.1802
2926.00,0.1884
2925.00,0.1960
2924.00,0.2031
2923.00,0.2099
2922.00,0.2163
2921.00,0.2224
2920.00,0.2277
2919.00,0.2317
2918.00,0.2339
2917.00,0.2340
2916.00,0.2318
2915.00,0.2276
2914.00,0.2221
2913.00,0.2157
2912.00,0.2091
2911.00,0.2028
2910.00,0.1969
2909.00,0.1915
2908.00,0.1862
2907.00,0.1810
2906.00,0.1756
2905.00,0.1698
2904.00,0.1636
2903.00,0.1571
2902.00,0.1504
2901.00,0.1438
2900.00,0.1372
2899.00,0.1309
2898.00,0.1250
2897.00,0.1196
2896.00,0.1149
2895.00,0.1108
2894.00,0.1075
2893.00,0.1048
2892.00,0.1029
2891.00,0.1015
2890.00,0.1007
2889.00,0.1003
2888.00,0.1003
2887.00,0.1007
2886.00,0.1015
2885.00,0.1026
2884.00,0.1041
2883.00,0.1059
2882.00,0.1081
2881.00,0.1105
2880.00,0.1129
2879.00,0.1148
2878.00,0.1160
2877.00,0.1163
2876.00,0.1158
2875.00,0.1150
2874.00,0.1142
2873.00,0.1139
2872.00,0.1142
2871.00,0.1153
2870.00,0.1169
2869.00,0.1184
2868.00,0.1193
2867.00,0.1187
2866.00,0.1160
2865.00,0.1110
2864.00,0.1040
2863.00,0.0957
2862.00,0.0870
2861.00,0.0788
2860.00,0.0718
2859.00,0.0661
2858.00,0.0618
2857.00,0.0587
2856.00,0.0566
2855.00,0.0554
2854.00,0.0548
2853.00,0.0549
2852.00,0.0555
2851.00,0.0568
2850.00,0.0589
2849.00,0.0618
2848.00,0.0657
2847.00,0.0705
2846.00,0.0762
2845.00,0.0827
2844.00,0.0900
2843.00,0.0978
2842.00,0.1057
2841.00,0.1131
2840.00,0.1194
2839.00,0.1236
2838.00,0.1248
2837.00,0.1224
2836.00,0.1166
2835.00,0.1077
2834.00,0.0970
2833.00,0.0856
2832.00,0.0747
2831.00,0.0649
2830.00,0.0567
2829.00,0.0500
2828.00,0.0445
2827.00,0.0401
2826.00,0.0366
2825.00,0.0336
2824.00,0.0312
2823.00,0.0291
2822.00,0.0274
2821.00,0.0259
2820.00,0.0246
2819.00,0.0234
2818.00,0.0223
2817.00,0.0214
2816.00,0.0207
2815.00,0.0200
2814.00,0.0194
2813.00,0.0189
2812.00,0.0183
2811.00,0.0178
2810.00,0.0173
2809.00,0.0168
2808.00,0.0162
2807.00,0.0156
2806.00,0.0150
2805.00,0.0144
2804.00,0.0137
2803.00,0.0131
2802.00,0.0126
2801.00,0.0122
2800.00,0.0118
2799.00,0.0115
2798.00,0.0112
2797.00,0.0110
2796.00,0.0108
2795.00,0.0105
2794.00,0.0103
2793.00,0.0100
2792.00,0.0097
2791.00,0.0093
2790.00,0.0089
2789.00,0.0086
2788.00,0.0082
2787.00,0.0079
2786.00,0.0077
2785.00,0.0074
2784.00,0.0072
2783.00,0.0070
2782.00,0.0068
2781.00,0.0066
2780.00,0.0064
2779.00,0.0062
2778.00,0.0060
2777.00,0.0059
2776.00,0.0058
2775.00,0.0057
2774.00,0.0056
2773.00,0.0055
2772.00,0.0054
2771.00,0.0054
2770.00,0.0054
2769.00,0.0053
2768.00,0.0053
2767.00,0.0053
2766.00,0.0053
2765.00,0.0053
2764.00,0.0052
2763.00,0.0052
2762.00,0.0052
2761.00,0.0051
2760.00,0.0051
2759.00,0.0051
2758.00,0.0050
2757.00,0.0050
2756.00,0.0049
2755.00,0.0049
2754.00,0.0049
2753.00,0.0049
2752.00,0.0049
2751.00,0.0049
2750.00,0.0049
2749.00,0.0048
2748.00,0.0049
2747.00,0.0049
2746.00,0.0050
2745.00,0.0050
2744.00,0.0051
2743.00,0.0052
2742.00,0.0053
2741.00,0.0054
2740.00,0.0056
2739.00,0.0057
2738.00,0.0058
2737.00,0.0059
2736.00,0.0061
2735.00,0.0062
2734.00,0.0064
2733.00,0.0065
2732.00,0.0067
2731.00,0.0069
2730.00,0.0071
2729.00,0.0073
2728.00,0.0076
2727.00,0.0079
2726.00,0.0082
2725.00,0.0084
2724.00,0.0086
2723.00,0.0086
2722.00,0.0085
2721.00,0.0083
2720.00,0.0080
2719.00,0.0077
2718.00,0.0073
2717.00,0.0070
2716.00,0.0067
2715.00,0.0065
2714.00,0.0063
2713.00,0.0061
2712.00,0.0059
2711.00,0.0057
2710.00,0.0055
2709.00,0.0054
2708.00,0.0053
2707.00,0.0052
2706.00,0.0051
2705.00,0.0049
2704.00,0.0048
2703.00,0.0047
2702.00,0.0046
2701.00,0.0045
2700.00,0.0044
2699.00,0.0044
2698.00,0.0044
2697.00,0.0043
2696.00,0.0043
2695.00,0.0043
2694.00,0.0043
2693.00,0.0043
2692.00,0.0043
2691.00,0.0043
2690.00,0.0043
2689.00,0.0043
2688.00,0.0043
2687.00,0.0043
2686.00,0.0042
2685.00,0.0042
2684.00,0.0042
2683.00,0.0042
2682.00,0.0042
2681.00,0.0043
2680.00,0.0043
2679.00,0.0043
2678.00,0.0043
2677.00,0.0043
2676.00,0.0043
2675.00,0.0043
2674.00,0.0042
2673.00,0.0042
2672.00,0.0042
2671.00,0.0042
2670.00,0.0042
2669.00,0.0042
2668.00,0.0042
2667.00,0.0042
2666.00,0.0043
2665.00,0.0044
2664.00,0.0044
2663.00,0.0044
2662.00,0.0044
2661.00,0.0044
2660.00,0.0044
2659.00,0.0045
2658.00,0.0045
2657.00,0.0045
2656.00,0.0045
2655.00,0.0044
2654.00,0.0043
2653.00,0.0043
2652.00,0.0042
2651.00,0.0041
2650.00,0.0041
2649.00,0.0040
2648.00,0.0040
2647.00,0.0040
2646.00,0.0039
2645.00,0.0039
2644.00,0.0039
2643.00,0.0039
2642.00,0.0038
2641.00,0.0037
2640.00,0.0037
2639.00,0.0036
2638.00,0.0036
2637.00,0.0035
2636.00,0.0035
2635.00,0.0035
2634.00,0.0035
2633.00,0.0035
2632.00,0.0035
2631.00,0.0035
2630.00,0.0035
2629.00,0.0036
2628.00,0.0036
2627.00,0.0037
2626.00,0.0038
2625.00,0.0038
2624.00,0.0038
2623.00,0.0037
2622.00,0.0037
2621.00,0.0037
2620.00,0.0038
2619.00,0.0038
2618.00,0.0037
2617.00,0.0037
2616.00,0.0037
2615.00,0.0037
2614.00,0.0036
2613.00,0.0036
2612.00,0.0036
2611.00,0.0035
2610.00,0.0035
2609.00,0.0034
2608.00,0.0033
2607.00,0.0033
2606.00,0.0032
2605.00,0.0032
2604.00,0.0031
2603.00,0.0031
2602.00,0.0030
2601.00,0.0029
2600.00,0.0029
2599.00,0.0028
2598.00,0.0029
2597.00,0.0029
2596.00,0.0030
2595.00,0.0030
2594.00,0.0031
2593.00,0.0031
2592.00,0.0031
2591.00,0.0031
2590.00,0.0031
2589.00,0.0032
2588.00,0.0033
2587.00,0.0034
2586.00,0.0035
2585.00,0.0036
2584.00,0.0037
2583.00,0.0037
2582.00,0.0037
2581.00,0.0036
2580.00,0.0036
2579.00,0.0035
2578.00,0.0034
2577.00,0.0033
2576.00,0.0032
2575.00,0.0031
2574.00,0.0030
2573.00,0.0030
2572.00,0.0029
2571.00,0.0028
2570.00,0.0027
2569.00,0.0026
2568.00,0.0026
2567.00,0.0025
2566.00,0.0024
2565.00,0.0023
2564.00,0.0023
2563.00,0.0022
2562.00,0.0022
2561.00,0.0022
2560.00,0.0022
2559.00,0.0022
2558.00,0.0021
2557.00,0.0021
2556.00,0.0021
2555.00,0.0020
2554.00,0.0020
2553.00,0.0020
2552.00,0.0020
2551.00,0.0020
2550.00,0.0020
2549.00,0.0019
2548.00,0.0019
2547.00,0.0018
2546.00,0.0018
2545.00,0.0017
2544.00,0.0016
2543.00,0.0016
2542.00,0.0016
2541.00,0.0016
2540.00,0.0016
2539.00,0.0016
2538.00,0.0016
2537.00,0.0016
2536.00,0.0015
2535.00,0.0014
2534.00,0.0014
2533.00,0.0014
2532.00,0.0014
2531.00,0.0014
2530.00,0.0014
2529.00,0.0014
2528.00,0.0014
2527.00,0.0013
2526.00,0.0013
2525.00,0.0013
2524.00,0.0012
2523.00,0.0012
2522.00,0.0011
2521.00,0.0010
2520.00,0.0010
2519.00,0.0010
2518.00,0.0009
2517.00,0.0009
2516.00,0.0009
2515.00,0.0009
2514.00,0.0009
2513.00,0.0010
2512.00,0.0010
2511.00,0.0010
2510.00,0.0010
2509.00,0.0010
2508.00,0.0009
2507.00,0.0009
2506.00,0.0008
2505.00,0.0008
2504.00,0.0008
2503.00,0.0008
2502.00,0.0008
2501.00,0.0008
2500.00,0.0008
2499.00,0.0008
2498.00,0.0008
2497.00,0.0008
2496.00,0.0008
2495.00,0.0008
2494.00,0.0009
2493.00,0.0010
2492.00,0.0010
2491.00,0.0010
2490.00,0.0010
2489.00,0.0009
2488.00,0.0009
2487.00,0.0008
2486.00,0.0009
2485.00,0.0009
2484.00,0.0009
2483.00,0.0009
2482.00,0.0008
2481.00,0.0008
2480.00,0.0007
2479.00,0.0007
2478.00,0.0007
2477.00,0.0008
2476.00,0.0008
2475.00,0.0008
2474.00,0.0008
2473.00,0.0008
2472.00,0.0007
2471.00,0.0007
2470.00,0.0007
2469.00,0.0007
2468.00,0.0006
2467.00,0.0006
2466.00,0.0006
2465.00,0.0006
2464.00,0.0007
2463.00,0.0007
2462.00,0.0007
2461.00,0.0007
2460.00,0.0008
2459.00,0.0009
2458.00,0.0009
2457.00,0.0010
2456.00,0.0010
2455.00,0.0010
2454.00,0.0010
2453.00,0.0009
2452.00,0.0010
2451.00,0.0010
2450.00,0.0010
2449.00,0.0010
2448.00,0.0009
2447.00,0.0009
2446.00,0.0008
2445.00,0.0008
2444.00,0.0009
2443.00,0.0009
2442.00,0.0009
2441.00,0.0009
2440.00,0.0009
2439.00,0.0009
2438.00,0.0010
2437.00,0.0010
2436.00,0.0011
2435.00,0.0011
2434.00,0.0011
2433.00,0.0010
2432.00,0.0010
2431.00,0.0010
2430.00,0.0010
2429.00,0.0010
2428.00,0.0010
2427.00,0.0010
2426.00,0.0010
2425.00,0.0009
2424.00,0.0009
2423.00,0.0009
2422.00,0.0009
2421.00,0.0008
2420.00,0.0008
2419.00,0.0007
2418.00,0.0008
2417.00,0.0008
2416.00,0.0008
2415.00,0.0009
2414.00,0.0009
2413.00,0.0009
2412.00,0.0008
2411.00,0.0008
2410.00,0.0008
2409.00,0.0008
2408.00,0.0008
2407.00,0.0008
2406.00,0.0008
2405.00,0.0008
2404.00,0.0008
2403.00,0.0008
2402.00,0.0008
2401.00,0.0009
2400.00,0.0009
2399.00,0.0009
2398.00,0.0009
2397.00,0.0008
2396.00,0.0008
2395.00,0.0007
2394.00,0.0007
2393.00,0.0007
2392.00,0.0007
2391.00,0.0007
2390.00,0.0007
2389.00,0.0007
2388.00,0.0006
2387.00,0.0006
2386.00,0.0006
2385.00,0.0005
2384.00,0.0005
2383.00,0.0005
2382.00,0.0005
2381.00,0.0004
2380.00,0.0004
2379.00,0.0004
2378.00,0.0004
2377.00,0.0004
2376.00,0.0004
2375.00,0.0004
2374.00,0.0004
2373.00,0.0004
2372.00,0.0004
2371.00,0.0004
2370.00,0.0003
2369.00,0.0002
2368.00,0.0001
2367.00,0.0001
2366.00,0.0001
2365.00,0.0002
2364.00,0.0002
2363.00,0.0003
2362.00,0.0004
2361.00,0.0005
2360.00,0.0005
2359.00,0.0005
2358.00,0.0005
2357.00,0.0005
2356.00,0.0005
2355.00,0.0005
2354.00,0.0004
2353.00,0.0004
2352.00,0.0004
2351.00,0.0004
2350.00,0.0005
2349.00,0.0005
2348.00,0.0005
2347.00,0.0006
2346.00,0.0006
2345.00,0.0006
2344.00,0.0006
2343.00,0.0006
2342.00,0.0006
2341.00,0.0007
2340.00,0.0008
2339.00,0.0008
2338.00,0.0008
2337.00,0.0008
2336.00,0.0009
2335.00,0.0009
2334.00,0.0008
2333.00,0.0007
2332.00,0.0006
2331.00,0.0006
2330.00,0.0006
2329.00,0.0008
2328.00,0.0010
2327.00,0.0014
2326.00,0.0018
2325.00,0.0021
2324.00,0.0022
2323.00,0.0022
2322.00,0.0020
2321.00,0.0019
2320.00,0.0017
2319.00,0.0015
2318.00,0.0014
2317.00,0.0013
2316.00,0.0012
2315.00,0.0011
2314.00,0.0010
2313.00,0.0010
2312.00,0.0010
2311.00,0.0011
2310.00,0.0011
2309.00,0.0011
2308.00,0.0011
2307.00,0.0011
2306.00,0.0011
2305.00,0.0011
2304.00,0.0010
2303.00,0.0010
2302.00,0.0010
2301.00,0.0011
2300.00,0.0011
2299.00,0.0011
2298.00,0.0011
2297.00,0.0012
2296.00,0.0013
2295.00,0.0013
2294.00,0.0013
2293.00,0.0014
2292.00,0.0014
2291.00,0.0015
2290.00,0.0016
2289.00,0.0017
2288.00,0.0018
2287.00,0.0018
2286.00,0.0018
2285.00,0.0016
2284.00,0.0015
2283.00,0.0015
2282.00,0.0014
2281.00,0.0014
2280.00,0.0014
2279.00,0.0014
2278.00,0.0013
2277.00,0.0013
2276.00,0.0013
2275.00,0.0013
2274.00,0.0013
2273.00,0.0012
2272.00,0.0012
2271.00,0.0011
2270.00,0.0012
2269.00,0.0012
2268.00,0.0011
2267.00,0.0009
2266.00,0.0007
2265.00,0.0007
2264.00,0.0006
2263.00,0.0006
2262.00,0.0007
2261.00,0.0008
2260.00,0.0011
2259.00,0.0012
2258.00,0.0012
2257.00,0.0011
2256.00,0.0010
2255.00,0.0009
2254.00,0.0009
2253.00,0.0010
2252.00,0.0011
2251.00,0.0011
2250.00,0.0011
2249.00,0.0010
2248.00,0.0009
2247.00,0.0009
2246.00,0.0008
2245.00,0.0007
2244.00,0.0006
2243.00,0.0006
2242.00,0.0006
2241.00,0.0007
2240.00,0.0008
2239.00,0.0009
2238.00,0.0009
2237.00,0.0008
2236.00,0.0008
2235.00,0.0007
2234.00,0.0007
2233.00,0.0007
2232.00,0.0008
2231.00,0.0008
2230.00,0.0008
2229.00,0.0009
2228.00,0.0010
2227.00,0.0010
2226.00,0.0009
2225.00,0.0009
2224.00,0.0009
2223.00,0.0010
2222.00,0.0011
2221.00,0.0010
2220.00,0.0009
2219.00,0.0007
2218.00,0.0007
2217.00,0.0008
2216.00,0.0009
2215.00,0.0010
2214.00,0.0010
2213.00,0.0009
2212.00,0.0008
2211.00,0.0007
2210.00,0.0006
2209.00,0.0006
2208.00,0.0006
2207.00,0.0005
2206.00,0.0004
2205.00,0.0004
2204.00,0.0003
2203.00,0.0004
2202.00,0.0005
2201.00,0.0006
2200.00,0.0007
2199.00,0.0006
2198.00,0.0006
2197.00,0.0005
2196.00,0.0005
2195.00,0.0005
2194.00,0.0005
2193.00,0.0005
2192.00,0.0006
2191.00,0.0008
2190.00,0.0010
2189.00,0.0011
2188.00,0.0012
2187.00,0.0014
2186.00,0.0016
2185.00,0.0016
2184.00,0.0014
2183.00,0.0010
2182.00,0.0008
2181.00,0.0008
2180.00,0.0009
2179.00,0.0012
2178.00,0.0013
2177.00,0.0013
2176.00,0.0011
2175.00,0.0009
2174.00,0.0007
2173.00,0.0006
2172.00,0.0005
2171.00,0.0006
2170.00,0.0007
2169.00,0.0009
2168.00,0.0011
2167.00,0.0011
2166.00,0.0011
2165.00,0.0011
2164.00,0.0012
2163.00,0.0012
2162.00,0.0012
2161.00,0.0010
2160.00,0.0002
2159.00,-0.0010
2158.00,-0.0021
2157.00,-0.0026
2156.00,-0.0026
2155.00,-0.0024
2154.00,-0.0021
2153.00,-0.0018
2152.00,-0.0017
2151.00,-0.0016
2150.00,-0.0016
2149.00,-0.0016
2148.00,-0.0016
2147.00,-0.0017
2146.00,-0.0017
2145.00,-0.0016
2144.00,-0.0015
2143.00,-0.0013
2142.00,-0.0011
2141.00,-0.0009
2140.00,-0.0007
2139.00,-0.0006
2138.00,-0.0007
2137.00,-0.0009
2136.00,-0.0012
2135.00,-0.0015
2134.00,-0.0018
2133.00,-0.0018
2132.00,-0.0017
2131.00,-0.0014
2130.00,-0.0011
2129.00,-0.0009
2128.00,-0.0007
2127.00,-0.0005
2126.00,-0.0005
2125.00,-0.0005
2124.00,-0.0006
2123.00,-0.0008
2122.00,-0.0008
2121.00,-0.0008
2120.00,-0.0007
2119.00,-0.0005
2118.00,-0.0004
2117.00,-0.0002
2116.00,0.0000
2115.00,0.0002
2114.00,0.0003
2113.00,0.0004
2112.00,0.0003
2111.00,0.0002
2110.00,0.0001
2109.00,0.0000
2108.00,0.0000
2107.00,0.0001
2106.00,0.0002
2105.00,0.0003
2104.00,0.0002
2103.00,0.0001
2102.00,-0.0000
2101.00,-0.0001
2100.00,-0.0001
2099.00,-0.0001
2098.00,-0.0001
2097.00,-0.0001
2096.00,-0.0002
2095.00,-0.0004
2094.00,-0.0004
2093.00,-0.0002
2092.00,-0.0000
2091.00,0.0001
2090.00,0.0000
2089.00,-0.0001
2088.00,-0.0001
2087.00,-0.0001
2086.00,-0.0000
2085.00,0.0002
2084.00,0.0003
2083.00,0.0004
2082.00,0.0003
2081.00,0.0003
2080.00,0.0002
2079.00,0.0002
2078.00,0.0003
2077.00,0.0003
2076.00,0.0003
2075.00,0.0002
2074.00,0.0000
2073.00,-0.0001
2072.00,-0.0001
2071.00,-0.0002
2070.00,-0.0002
2069.00,-0.0001
2068.00,-0.0001
2067.00,-0.0000
2066.00,-0.0000
2065.00,-0.0001
2064.00,-0.0002
2063.00,-0.0004
2062.00,-0.0005
2061.00,-0.0005
2060.00,-0.0004
2059.00,-0.0002
2058.00,-0.0001
2057.00,-0.0001
2056.00,-0.0000
2055.00,0.0000
2054.00,0.0001
2053.00,0.0004
2052.00,0.0007
2051.00,0.0009
2050.00,0.0008
2049.00,0.0004
2048.00,0.0000
2047.00,-0.0002
2046.00,-0.0002
2045.00,-0.0002
2044.00,-0.0002
2043.00,-0.0001
2042.00,0.0001
2041.00,0.0002
2040.00,0.0003
2039.00,0.0003
2038.00,0.0002
2037.00,0.0002
2036.00,0.0002
2035.00,0.0003
2034.00,0.0003
2033.00,0.0002
2032.00,0.0002
2031.00,0.0000
2030.00,-0.0002
2029.00,-0.0006
2028.00,-0.0010
2027.00,-0.0014
2026.00,-0.0015
2025.00,-0.0013
2024.00,-0.0010
2023.00,-0.0009
2022.00,-0.0009
2021.00,-0.0010
2020.00,-0.0010
2019.00,-0.0009
2018.00,-0.0009
2017.00,-0.0010
2016.00,-0.0012
2015.00,-0.0014
2014.00,-0.0015
2013.00,-0.0016
2012.00,-0.0014
2011.00,-0.0012
2010.00,-0.0010
2009.00,-0.0010
2008.00,-0.0014
2007.00,-0.0021
2006.00,-0.0027
2005.00,-0.0029
2004.00,-0.0027
2003.00,-0.0023
2002.00,-0.0019
2001.00,-0.0016
2000.00,-0.0015
1999.00,-0.0013
1998.00,-0.0012
1997.00,-0.0010
1996.00,-0.0008
1995.00,-0.0007
1994.00,-0.0008
1993.00,-0.0008
1992.00,-0.0008
1991.00,-0.0008
1990.00,-0.0008
1989.00,-0.0008
1988.00,-0.0007
1987.00,-0.0007
1986.00,-0.0005
1985.00,-0.0003
1984.00,0.0001
1983.00,0.0004
1982.00,0.0006
1981.00,0.0008
1980.00,0.0007
1979.00,0.0003
1978.00,-0.0002
1977.00,-0.0007
1976.00,-0.0011
1975.00,-0.0015
1974.00,-0.0020
1973.00,-0.0023
1972.00,-0.0022
1971.00,-0.0019
1970.00,-0.0015
1969.00,-0.0013
1968.00,-0.0013
1967.00,-0.0014
1966.00,-0.0015
1965.00,-0.0016
1964.00,-0.0015
1963.00,-0.0015
1962.00,-0.0015
1961.00,-0.0016
1960.00,-0.0018
1959.00,-0.0020
1958.00,-0.0021
1957.00,-0.0019
1956.00,-0.0016
1955.00,-0.0013
1954.00,-0.0011
1953.00,-0.0011
1952.00,-0.0013
1951.00,-0.0016
1950.00,-0.0019
1949.00,-0.0019
1948.00,-0.0018
1947.00,-0.0017
1946.00,-0.0017
1945.00,-0.0018
1944.00,-0.0020
1943.00,-0.0019
1942.00,-0.0017
1941.00,-0.0014
1940.00,-0.0012
1939.00,-0.0011
1938.00,-0.0012
1937.00,-0.0013
1936.00,-0.0013
1935.00,-0.0013
1934.00,-0.0012
1933.00,-0.0012
1932.00,-0.0011
1931.00,-0.0010
1930.00,-0.0009
1929.00,-0.0007
1928.00,-0.0006
1927.00,-0.0005
1926.00,-0.0005
1925.00,-0.0005
1924.00,-0.0004
1923.00,-0.0002
1922.00,-0.0001
1921.00,-0.0001
1920.00,-0.0002
1919.00,-0.0004
1918.00,-0.0005
1917.00,-0.0006
1916.00,-0.0005
1915.00,-0.0005
1914.00,-0.0004
1913.00,-0.0004
1912.00,-0.0003
1911.00,-0.0003
1910.00,-0.0003
1909.00,-0.0003
1908.00,-0.0003
1907.00,-0.0004
1906.00,-0.0004
1905.00,-0.0004
1904.00,-0.0005
1903.00,-0.0005
1902.00,-0.0005
1901.00,-0.0003
1900.00,-0.0002
1899.00,-0.0000
1898.00,0.0001
1897.00,0.0001
1896.00,-0.0000
1895.00,-0.0001
1894.00,-0.0001
1893.00,-0.0001
1892.00,-0.0001
1891.00,-0.0001
1890.00,-0.0000
1889.00,-0.0000
1888.00,-0.0000
1887.00,-0.0000
1886.00,-0.0001
1885.00,-0.0001
1884.00,-0.0001
1883.00,-0.0001
1882.00,-0.0001
1881.00,-0.0002
1880.00,-0.0003
1879.00,-0.0004
1878.00,-0.0005
1877.00,-0.0004
1876.00,-0.0003
1875.00,-0.0002
1874.00,-0.0000
1873.00,0.0001
1872.00,0.0001
1871.00,0.0001
1870.00,0.0000
1869.00,-0.0000
1868.00,-0.0001
1867.00,-0.0001
1866.00,-0.0001
1865.00,-0.0001
1864.00,-0.0000
1863.00,0.0000
1862.00,0.0000
1861.00,0.0000
1860.00,0.0000
1859.00,-0.0000
1858.00,-0.0001
1857.00,-0.0000
1856.00,0.0000
1855.00,0.0001
1854.00,0.0001
1853.00,0.0000
1852.00,-0.0000
1851.00,-0.0001
1850.00,-0.0001
1849.00,-0.0001
1848.00,-0.0000
1847.00,0.0000
1846.00,0.0001
1845.00,0.0002
1844.00,0.0002
1843.00,0.0002
1842.00,0.0002
1841.00,0.0002
1840.00,0.0002
1839.00,0.0002
1838.00,0.0002
1837.00,0.0002
1836.00,0.0003
1835.00,0.0003
1834.00,0.0003
1833.00,0.0003
1832.00,0.0003
1831.00,0.0002
1830.00,0.0002
1829.00,0.0002
1828.00,0.0002
1827.00,0.0002
1826.00,0.0002
1825.00,0.0002
1824.00,0.0003
1823.00,0.0003
1822.00,0.0003
1821.00,0.0003
1820.00,0.0003
1819.00,0.0002
1818.00,0.0001
1817.00,0.0000
1816.00,-0.0000
1815.00,-0.0000
1814.00,0.0000
1813.00,0.0000
1812.00,0.0001
1811.00,0.0002
1810.00,0.0002
1809.00,0.0002
1808.00,0.0002
1807.00,0.0003
1806.00,0.0003
1805.00,0.0004
1804.00,0.0004
1803.00,0.0004
1802.00,0.0004
1801.00,0.0005
1800.00,0.0005
1799.00,0.0005
1798.00,0.0005
1797.00,0.0005
1796.00,0.0005
1795.00,0.0005
1794.00,0.0005
1793.00,0.0004
1792.00,0.0004
1791.00,0.0004
1790.00,0.0004
1789.00,0.0004
1788.00,0.0004
1787.00,0.0005
1786.00,0.0005
1785.00,0.0004
1784.00,0.0004
1783.00,0.0004
1782.00,0.0004
1781.00,0.0005
1780.00,0.0005
1779.00,0.0004
1778.00,0.0003
1777.00,0.0001
1776.00,0.0000
1775.00,-0.0001
1774.00,-0.0001
1773.00,-0.0001
1772.00,-0.0000
1771.00,0.0001
1770.00,0.0002
1769.00,0.0003
1768.00,0.0003
1767.00,0.0003
1766.00,0.0003
1765.00,0.0004
1764.00,0.0004
1763.00,0.0005
1762.00,0.0006
1761.00,0.0007
1760.00,0.0008
1759.00,0.0008
1758.00,0.0008
1757.00,0.0008
1756.00,0.0008
1755.00,0.0007
1754.00,0.0007
1753.00,0.0007
1752.00,0.0007
1751.00,0.0008
1750.00,0.0007
1749.00,0.0007
1748.00,0.0007
1747.00,0.0007
1746.00,0.0007
1745.00,0.0007
1744.00,0.0007
1743.00,0.0007
1742.00,0.0007
1741.00,0.0007
1740.00,0.0007
1739.00,0.0008
1738.00,0.0008
1737.00,0.0008
1736.00,0.0008
1735.00,0.0007
1734.00,0.0007
1733.00,0.0007
1732.00,0.0007
1731.00,0.0008
1730.00,0.0008
1729.00,0.0008
1728.00,0.0008
1727.00,0.0008
1726.00,0.0008
1725.00,0.0008
1724.00,0.0008
1723.00,0.0009
1722.00,0.0009
1721.00,0.0010
1720.00,0.0011
1719.00,0.0011
1718.00,0.0011
1717.00,0.0011
1716.00,0.0012
1715.00,0.0013
1714.00,0.0013
1713.00,0.0014
1712.00,0.0014
1711.00,0.0014
1710.00,0.0015
1709.00,0.0015
1708.00,0.0016
1707.00,0.0016
1706.00,0.0017
1705.00,0.0018
1704.00,0.0020
1703.00,0.0021
1702.00,0.0022
1701.00,0.0024
1700.00,0.0026
1699.00,0.0026
1698.00,0.0026
1697.00,0.0027
1696.00,0.0030
1695.00,0.0033
1694.00,0.0035
1693.00,0.0036
1692.00,0.0038
1691.00,0.0039
1690.00,0.0041
1689.00,0.0042
1688.00,0.0043
1687.00,0.0043
1686.00,0.0044
1685.00,0.0046
1684.00,0.0050
1683.00,0.0054
1682.00,0.0056
1681.00,0.0058
1680.00,0.0060
1679.00,0.0061
1678.00,0.0063
1677.00,0.0064
1676.00,0.0066
1675.00,0.0067
1674.00,0.0068
1673.00,0.0069
1672.00,0.0071
1671.00,0.0072
1670.00,0.0074
1669.00,0.0076
1668.00,0.0077
1667.00,0.0077
1666.00,0.0078
1665.00,0.0078
1664.00,0.0080
1663.00,0.0081
1662.00,0.0082
1661.00,0.0082
1660.00,0.0082
1659.00,0.0083
1658.00,0.0083
1657.00,0.0084
1656.00,0.0085
1655.00,0.0085
1654.00,0.0085
1653.00,0.0086
1652.00,0.0086
1651.00,0.0086
1650.00,0.0087
1649.00,0.0088
1648.00,0.0088
1647.00,0.0089
1646.00,0.0088
1645.00,0.0088
1644.00,0.0087
1643.00,0.0086
1642.00,0.0085
1641.00,0.0084
1640.00,0.0083
1639.00,0.0083
1638.00,0.0081
1637.00,0.0081
1636.00,0.0080
1635.00,0.0081
1634.00,0.0081
1633.00,0.0080
1632.00,0.0080
1631.00,0.0080
1630.00,0.0079
1629.00,0.0079
1628.00,0.0079
1627.00,0.0078
1626.00,0.0077
1625.00,0.0076
1624.00,0.0074
1623.00,0.0073
1622.00,0.0072
1621.00,0.0071
1620.00,0.0070
1619.00,0.0069
1618.00,0.0068
1617.00,0.0067
1616.00,0.0067
1615.00,0.0067
1614.00,0.0066
1613.00,0.0066
1612.00,0.0065
1611.00,0.0065
1610.00,0.0064
1609.00,0.0063
1608.00,0.0063
1607.00,0.0063
1606.00,0.0063
1605.00,0.0063
1604.00,0.0063
1603.00,0.0063
1602.00,0.0064
1601.00,0.0064
1600.00,0.0064
1599.00,0.0064
1598.00,0.0063
1597.00,0.0064
1596.00,0.0064
1595.00,0.0064
1594.00,0.0064
1593.00,0.0064
1592.00,0.0065
1591.00,0.0065
1590.00,0.0066
1589.00,0.0066
1588.00,0.0067
1587.00,0.0068
1586.00,0.0069
1585.00,0.0071
1584.00,0.0073
1583.00,0.0074
1582.00,0.0076
1581.00,0.0077
1580.00,0.0079
1579.00,0.0079
1578.00,0.0079
1577.00,0.0079
1576.00,0.0079
1575.00,0.0079
1574.00,0.0079
1573.00,0.0079
1572.00,0.0079
1571.00,0.0079
1570.00,0.0078
1569.00,0.0077
1568.00,0.0077
1567.00,0.0076
1566.00,0.0076
1565.00,0.0075
1564.00,0.0075
1563.00,0.0075
1562.00,0.0075
1561.00,0.0076
1560.00,0.0077
1559.00,0.0079
1558.00,0.0081
1557.00,0.0082
1556.00,0.0082
1555.00,0.0083
1554.00,0.0083
1553.00,0.0084
1552.00,0.0085
1551.00,0.0087
1550.00,0.0089
1549.00,0.0091
1548.00,0.0092
1547.00,0.0094
1546.00,0.0096
1545.00,0.0098
1544.00,0.0100
1543.00,0.0101
1542.00,0.0101
1541.00,0.0099
1540.00,0.0096
1539.00,0.0092
1538.00,0.0090
1537.00,0.0089
1536.00,0.0088
1535.00,0.0087
1534.00,0.0084
1533.00,0.0081
1532.00,0.0079
1531.00,0.0076
1530.00,0.0075
1529.00,0.0075
1528.00,0.0074
1527.00,0.0073
1526.00,0.0072
1525.00,0.0071
1524.00,0.0071
1523.00,0.0070
1522.00,0.0070
1521.00,0.0071
1520.00,0.0071
1519.00,0.0070
1518.00,0.0070
1517.00,0.0069
1516.00,0.0070
1515.00,0.0070
1514.00,0.0070
1513.00,0.0071
1512.00,0.0071
1511.00,0.0071
1510.00,0.0071
1509.00,0.0071
1508.00,0.0072
1507.00,0.0072
1506.00,0.0072
1505.00,0.0072
1504.00,0.0074
1503.00,0.0075
1502.00,0.0076
1501.00,0.0078
1500.00,0.0081
1499.00,0.0082
1498.00,0.0083
1497.00,0.0085
1496.00,0.0088
1495.00,0.0091
1494.00,0.0093
1493.00,0.0097
1492.00,0.0100
1491.00,0.0103
1490.00,0.0106
1489.00,0.0110
1488.00,0.0115
1487.00,0.0120
1486.00,0.0125
1485.00,0.0131
1484.00,0.0139
1483.00,0.0147
1482.00,0.0156
1481.00,0.0167
1480.00,0.0180
1479.00,0.0192
1478.00,0.0206
1477.00,0.0224
1476.00,0.0246
1475.00,0.0270
1474.00,0.0303
1473.00,0.0354
1472.00,0.0416
1471.00,0.0478
1470.00,0.0537
1469.00,0.0599
1468.00,0.0666
1467.00,0.0740
1466.00,0.0824
1465.00,0.0917
1464.00,0.0999
1463.00,0.1061
1462.00,0.1105
1461.00,0.1139
1460.00,0.1167
1459.00,0.1188
1458.00,0.1209
1457.00,0.1230
1456.00,0.1243
1455.00,0.1246
1454.00,0.1244
1453.00,0.1236
1452.00,0.1216
1451.00,0.1182
1450.00,0.1130
1449.00,0.1056
1448.00,0.0959
1447.00,0.0856
1446.00,0.0763
1445.00,0.0683
1444.00,0.0615
1443.00,0.0560
1442.00,0.0519
1441.00,0.0491
1440.00,0.0474
1439.00,0.0466
1438.00,0.0464
1437.00,0.0459
1436.00,0.0443
1435.00,0.0414
1434.00,0.0374
1433.00,0.0329
1432.00,0.0282
1431.00,0.0242
1430.00,0.0212
1429.00,0.0190
1428.00,0.0175
1427.00,0.0166
1426.00,0.0160
1425.00,0.0154
1424.00,0.0149
1423.00,0.0146
1422.00,0.0144
1421.00,0.0142
1420.00,0.0139
1419.00,0.0136
1418.00,0.0133
1417.00,0.0130
1416.00,0.0127
1415.00,0.0125
1414.00,0.0124
1413.00,0.0123
1412.00,0.0121
1411.00,0.0121
1410.00,0.0120
1409.00,0.0120
1408.00,0.0118
1407.00,0.0118
1406.00,0.0118
1405.00,0.0118
1404.00,0.0118
1403.00,0.0119
1402.00,0.0121
1401.00,0.0122
1400.00,0.0123
1399.00,0.0126
1398.00,0.0128
1397.00,0.0130
1396.00,0.0132
1395.00,0.0136
1394.00,0.0141
1393.00,0.0146
1392.00,0.0152
1391.00,0.0161
1390.00,0.0174
1389.00,0.0192
1388.00,0.0218
1387.00,0.0258
1386.00,0.0311
1385.00,0.0376
1384.00,0.0461
1383.00,0.0574
1382.00,0.0721
1381.00,0.0903
1380.00,0.1122
1379.00,0.1365
1378.00,0.1594
1377.00,0.1759
1376.00,0.1812
1375.00,0.1724
1374.00,0.1518
1373.00,0.1266
1372.00,0.1031
1371.00,0.0834
1370.00,0.0676
1369.00,0.0554
1368.00,0.0469
1367.00,0.0416
1366.00,0.0388
1365.00,0.0376
1364.00,0.0378
1363.00,0.0391
1362.00,0.0410
1361.00,0.0430
1360.00,0.0445
1359.00,0.0448
1358.00,0.0437
1357.00,0.0412
1356.00,0.0375
1355.00,0.0335
1354.00,0.0295
1353.00,0.0262
1352.00,0.0235
1351.00,0.0213
1350.00,0.0196
1349.00,0.0181
1348.00,0.0170
1347.00,0.0161
1346.00,0.0153
1345.00,0.0147
1344.00,0.0142
1343.00,0.0139
1342.00,0.0135
1341.00,0.0133
1340.00,0.0131
1339.00,0.0130
1338.00,0.0129
1337.00,0.0128
1336.00,0.0128
1335.00,0.0129
1334.00,0.0131
1333.00,0.0135
1332.00,0.0139
1331.00,0.0142
1330.00,0.0143
1329.00,0.0142
1328.00,0.0138
1327.00,0.0133
1326.00,0.0127
1325.00,0.0121
1324.00,0.0115
1323.00,0.0110
1322.00,0.0107
1321.00,0.0104
1320.00,0.0101
1319.00,0.0099
1318.00,0.0096
1317.00,0.0094
1316.00,0.0092
1315.00,0.0090
1314.00,0.0090
1313.00,0.0091
1312.00,0.0093
1311.00,0.0096
1310.00,0.0101
1309.00,0.0108
1308.00,0.0119
1307.00,0.0132
1306.00,0.0145
1305.00,0.0155
1304.00,0.0159
1303.00,0.0156
1302.00,0.0150
1301.00,0.0143
1300.00,0.0137
1299.00,0.0134
1298.00,0.0133
1297.00,0.0133
1296.00,0.0131
1295.00,0.0128
1294.00,0.0123
1293.00,0.0118
1292.00,0.0112
1291.00,0.0107
1290.00,0.0102
1289.00,0.0098
1288.00,0.0095
1287.00,0.0092
1286.00,0.0089
1285.00,0.0087
1284.00,0.0084
1283.00,0.0082
1282.00,0.0080
1281.00,0.0079
1280.00,0.0077
1279.00,0.0076
1278.00,0.0075
1277.00,0.0074
1276.00,0.0074
1275.00,0.0075
1274.00,0.0075
1273.00,0.0076
1272.00,0.0076
1271.00,0.0077
1270.00,0.0078
1269.00,0.0079
1268.00,0.0081
1267.00,0.0083
1266.00,0.0085
1265.00,0.0088
1264.00,0.0091
1263.00,0.0095
1262.00,0.0099
1261.00,0.0105
1260.00,0.0112
1259.00,0.0121
1258.00,0.0131
1257.00,0.0138
1256.00,0.0141
1255.00,0.0139
1254.00,0.0132
1253.00,0.0122
1252.00,0.0111
1251.00,0.0103
1250.00,0.0097
1249.00,0.0092
1248.00,0.0089
1247.00,0.0087
1246.00,0.0086
1245.00,0.0085
1244.00,0.0085
1243.00,0.0084
1242.00,0.0083
1241.00,0.0082
1240.00,0.0081
1239.00,0.0080
1238.00,0.0079
1237.00,0.0078
1236.00,0.0077
1235.00,0.0077
1234.00,0.0076
1233.00,0.0076
1232.00,0.0076
1231.00,0.0075
1230.00,0.0075
1229.00,0.0076
1228.00,0.0077
1227.00,0.0078
1226.00,0.0080
1225.00,0.0082
1224.00,0.0085
1223.00,0.0088
1222.00,0.0091
1221.00,0.0094
1220.00,0.0095
1219.00,0.0096
1218.00,0.0096
1217.00,0.0094
1216.00,0.0091
1215.00,0.0088
1214.00,0.0086
1213.00,0.0083
1212.00,0.0080
1211.00,0.0077
1210.00,0.0075
1209.00,0.0073
1208.00,0.0072
1207.00,0.0070
1206.00,0.0068
1205.00,0.0066
1204.00,0.0064
1203.00,0.0063
1202.00,0.0062
1201.00,0.0061
1200.00,0.0061
1199.00,0.0061
1198.00,0.0061
1197.00,0.0061
1196.00,0.0061
1195.00,0.0062
1194.00,0.0063
1193.00,0.0063
1192.00,0.0064
1191.00,0.0064
1190.00,0.0064
1189.00,0.0066
1188.00,0.0067
1187.00,0.0069
1186.00,0.0070
1185.00,0.0072
1184.00,0.0075
1183.00,0.0077
1182.00,0.0080
1181.00,0.0084
1180.00,0.0088
1179.00,0.0095
1178.00,0.0103
1177.00,0.0114
1176.00,0.0129
1175.00,0.0148
1174.00,0.0173
1173.00,0.0204
1172.00,0.0241
1171.00,0.0282
1170.00,0.0322
1169.00,0.0355
1168.00,0.0376
1167.00,0.0382
1166.00,0.0374
1165.00,0.0356
1164.00,0.0333
1163.00,0.0309
1162.00,0.0287
1161.00,0.0269
1160.00,0.0253
1159.00,0.0240
1158.00,0.0230
1157.00,0.0223
1156.00,0.0217
1155.00,0.0213
1154.00,0.0209
1153.00,0.0205
1152.00,0.0199
1151.00,0.0192
1150.00,0.0184
1149.00,0.0175
1148.00,0.0165
1147.00,0.0155
1146.00,0.0146
1145.00,0.0137
1144.00,0.0130
1143.00,0.0123
1142.00,0.0116
1141.00,0.0110
1140.00,0.0104
1139.00,0.0099
1138.00,0.0095
1137.00,0.0092
1136.00,0.0089
1135.00,0.0086
1134.00,0.0083
1133.00,0.0080
1132.00,0.0079
1131.00,0.0078
1130.00,0.0079
1129.00,0.0080
1128.00,0.0081
1127.00,0.0083
1126.00,0.0084
1125.00,0.0086
1124.00,0.0086
1123.00,0.0087
1122.00,0.0088
1121.00,0.0088
1120.00,0.0088
1119.00,0.0089
1118.00,0.0091
1117.00,0.0092
1116.00,0.0093
1115.00,0.0094
1114.00,0.0095
1113.00,0.0096
1112.00,0.0098
1111.00,0.0101
1110.00,0.0106
1109.00,0.0111
1108.00,0.0117
1107.00,0.0124
1106.00,0.0130
1105.00,0.0136
1104.00,0.0141
1103.00,0.0144
1102.00,0.0145
1101.00,0.0143
1100.00,0.0138
1099.00,0.0132
1098.00,0.0125
1097.00,0.0119
1096.00,0.0114
1095.00,0.0110
1094.00,0.0107
1093.00,0.0103
1092.00,0.0100
1091.00,0.0097
1090.00,0.0095
1089.00,0.0093
1088.00,0.0091
1087.00,0.0090
1086.00,0.0089
1085.00,0.0089
1084.00,0.0088
1083.00,0.0088
1082.00,0.0087
1081.00,0.0086
1080.00,0.0084
1079.00,0.0083
1078.00,0.0082
1077.00,0.0081
1076.00,0.0081
1075.00,0.0080
1074.00,0.0079
1073.00,0.0079
1072.00,0.0079
1071.00,0.0079
1070.00,0.0080
1069.00,0.0080
1068.00,0.0080
1067.00,0.0081
1066.00,0.0082
1065.00,0.0083
1064.00,0.0084
1063.00,0.0084
1062.00,0.0084
1061.00,0.0084
1060.00,0.0084
1059.00,0.0085
1058.00,0.0085
1057.00,0.0085
1056.00,0.0086
1055.00,0.0087
1054.00,0.0088
1053.00,0.0089
1052.00,0.0090
1051.00,0.0092
1050.00,0.0094
1049.00,0.0097
1048.00,0.0101
1047.00,0.0104
1046.00,0.0106
1045.00,0.0108
1044.00,0.0108
1043.00,0.0107
1042.00,0.0104
1041.00,0.0101
1040.00,0.0098
1039.00,0.0098
1038.00,0.0099
1037.00,0.0101
1036.00,0.0102
1035.00,0.0101
1034.00,0.0100
1033.00,0.0099
1032.00,0.0098
1031.00,0.0097
1030.00,0.0096
1029.00,0.0096
1028.00,0.0096
1027.00,0.0095
1026.00,0.0096
1025.00,0.0096
1024.00,0.0095
1023.00,0.0095
1022.00,0.0095
1021.00,0.0095
1020.00,0.0096
1019.00,0.0097
1018.00,0.0099
1017.00,0.0101
1016.00,0.0103
1015.00,0.0106
1014.00,0.0109
1013.00,0.0114
1012.00,0.0120
1011.00,0.0125
1010.00,0.0131
1009.00,0.0136
1008.00,0.0142
1007.00,0.0150
1006.00,0.0160
1005.00,0.0174
1004.00,0.0194
1003.00,0.0220
1002.00,0.0256
1001.00,0.0299
1000.00,0.0345
999.00,0.0385
998.00,0.0406
997.00,0.0402
996.00,0.0372
995.00,0.0326
994.00,0.0276
993.00,0.0231
992.00,0.0197
991.00,0.0172
990.00,0.0154
989.00,0.0142
988.00,0.0134
987.00,0.0129
986.00,0.0128
985.00,0.0130
984.00,0.0135
983.00,0.0144
982.00,0.0157
981.00,0.0175
980.00,0.0200
979.00,0.0234
978.00,0.0276
977.00,0.0326
976.00,0.0381
975.00,0.0435
974.00,0.0477
973.00,0.0496
972.00,0.0485
971.00,0.0444
970.00,0.0384
969.00,0.0320
968.00,0.0263
967.00,0.0218
966.00,0.0186
965.00,0.0162
964.00,0.0144
963.00,0.0131
962.00,0.0121
961.00,0.0113
960.00,0.0106
959.00,0.0101
958.00,0.0097
957.00,0.0094
956.00,0.0091
955.00,0.0088
954.00,0.0086
953.00,0.0085
952.00,0.0083
951.00,0.0082
950.00,0.0081
949.00,0.0080
948.00,0.0080
947.00,0.0082
946.00,0.0084
945.00,0.0087
944.00,0.0089
943.00,0.0091
942.00,0.0093
941.00,0.0094
940.00,0.0094
939.00,0.0092
938.00,0.0088
937.00,0.0084
936.00,0.0080
935.00,0.0077
934.00,0.0074
933.00,0.0072
932.00,0.0070
931.00,0.0069
930.00,0.0067
929.00,0.0066
928.00,0.0064
927.00,0.0063
926.00,0.0062
925.00,0.0062
924.00,0.0063
923.00,0.0065
922.00,0.0066
921.00,0.0067
920.00,0.0068
919.00,0.0068
918.00,0.0068
917.00,0.0069
916.00,0.0070
915.00,0.0071
914.00,0.0072
913.00,0.0073
912.00,0.0074
911.00,0.0075
910.00,0.0076
909.00,0.0077
908.00,0.0078
907.00,0.0083
906.00,0.0089
905.00,0.0099
904.00,0.0113
903.00,0.0130
902.00,0.0149
901.00,0.0167
900.00,0.0179
899.00,0.0183
898.00,0.0177
897.00,0.0163
896.00,0.0145
895.00,0.0128
894.00,0.0114
893.00,0.0103
892.00,0.0094
891.00,0.0088
890.00,0.0084
889.00,0.0081
888.00,0.0080
887.00,0.0078
886.00,0.0076
885.00,0.0075
884.00,0.0074
883.00,0.0075
882.00,0.0075
881.00,0.0075
880.00,0.0075
879.00,0.0075
878.00,0.0075
877.00,0.0076
876.00,0.0077
875.00,0.0078
874.00,0.0079
873.00,0.0078
872.00,0.0078
871.00,0.0077
870.00,0.0077
869.00,0.0078
868.00,0.0079
867.00,0.0080
866.00,0.0081
865.00,0.0082
864.00,0.0082
863.00,0.0083
862.00,0.0084
861.00,0.0086
860.00,0.0087
859.00,0.0090
858.00,0.0092
857.00,0.0093
856.00,0.0094
855.00,0.0095
854.00,0.0096
853.00,0.0099
852.00,0.0103
851.00,0.0109
850.00,0.0117
849.00,0.0127
848.00,0.0141
847.00,0.0160
846.00,0.0189
845.00,0.0230
844.00,0.0285
843.00,0.0344
842.00,0.0388
841.00,0.0400
840.00,0.0373
839.00,0.0322
838.00,0.0265
837.00,0.0220
836.00,0.0189
835.00,0.0169
834.00,0.0156
833.00,0.0146
832.00,0.0139
831.00,0.0133
830.00,0.0129
829.00,0.0126
828.00,0.0124
827.00,0.0123
826.00,0.0121
825.00,0.0119
824.00,0.0117
823.00,0.0117
822.00,0.0117
821.00,0.0118
820.00,0.0120
819.00,0.0121
818.00,0.0124
817.00,0.0128
816.00,0.0135
815.00,0.0143
814.00,0.0154
813.00,0.0167
812.00,0.0181
811.00,0.0195
810.00,0.0206
809.00,0.0212
808.00,0.0211
807.00,0.0205
806.00,0.0193
805.00,0.0179
804.00,0.0165
803.00,0.0152
802.00,0.0141
801.00,0.0133
800.00,0.0126
799.00,0.0120
798.00,0.0115
797.00,0.0111
796.00,0.0107
795.00,0.0102
794.00,0.0098
793.00,0.0094
792.00,0.0092
791.00,0.0091
790.00,0.0090
789.00,0.0088
788.00,0.0084
787.00,0.0079
786.00,0.0075
785.00,0.0072
784.00,0.0070
783.00,0.0069
782.00,0.0069
781.00,0.0069
780.00,0.0068
779.00,0.0067
778.00,0.0065
777.00,0.0063
776.00,0.0063
775.00,0.0065
774.00,0.0069
773.00,0.0074
772.00,0.0078
771.00,0.0081
770.00,0.0084
769.00,0.0085
768.00,0.0086
767.00,0.0086
766.00,0.0086
765.00,0.0085
764.00,0.0082
763.00,0.0077
762.00,0.0073
761.00,0.0070
760.00,0.0068
759.00,0.0067
758.00,0.0066
757.00,0.0064
756.00,0.0062
755.00,0.0060
754.00,0.0059
753.00,0.0058
752.00,0.0057
751.00,0.0056
750.00,0.0057
749.00,0.0057
748.00,0.0057
747.00,0.0056
746.00,0.0056
745.00,0.0057
744.00,0.0058
743.00,0.0060
742.00,0.0062
741.00,0.0065
740.00,0.0066
739.00,0.0068
738.00,0.0069
737.00,0.0069
736.00,0.0069
735.00,0.0071
734.00,0.0074
733.00,0.0077
732.00,0.0078
731.00,0.0077
730.00,0.0075
729.00,0.0074
728.00,0.0073
727.00,0.0073
726.00,0.0072
725.00,0.0071
724.00,0.0071
723.00,0.0071
722.00,0.0071
721.00,0.0070
720.00,0.0069
719.00,0.0069
718.00,0.0068
717.00,0.0068
716.00,0.0066
715.00,0.0065
714.00,0.0064
713.00,0.0063
712.00,0.0063
711.00,0.0062
710.00,0.0062
709.00,0.0062
708.00,0.0063
707.00,0.0064
706.00,0.0065
705.00,0.0066
704.00,0.0067
703.00,0.0068
702.00,0.0068
701.00,0.0067
700.00,0.0065
699.00,0.0063
698.00,0.0062
697.00,0.0062
696.00,0.0062
695.00,0.0063
694.00,0.0064
693.00,0.0064
692.00,0.0064
691.00,0.0062
690.00,0.0061
689.00,0.0060
688.00,0.0059
687.00,0.0059
686.00,0.0059
685.00,0.0060
684.00,0.0059
683.00,0.0058
682.00,0.0058
681.00,0.0058
680.00,0.0058
679.00,0.0059
678.00,0.0058
677.00,0.0057
676.00,0.0056
675.00,0.0056
674.00,0.0057
673.00,0.0059
672.00,0.0061
671.00,0.0062
670.00,0.0063
669.00,0.0064
668.00,0.0067
667.00,0.0069
666.00,0.0068
665.00,0.0067
664.00,0.0066
663.00,0.0065
662.00,0.0064
661.00,0.0063
660.00,0.0061
659.00,0.0060
658.00,0.0060
657.00,0.0062
656.00,0.0063
655.00,0.0062
654.00,0.0062
653.00,0.0062
652.00,0.0063
651.00,0.0064
650.00,0.0064
649.00,0.0063
648.00,0.0062
647.00,0.0061
646.00,0.0060
645.00,0.0058
644.00,0.0057
643.00,0.0057
642.00,0.0058
641.00,0.0061
640.00,0.0064
639.00,0.0066
638.00,0.0067
637.00,0.0066
636.00,0.0064
635.00,0.0062
634.00,0.0061
633.00,0.0061
632.00,0.0062
631.00,0.0065
630.00,0.0069
629.00,0.0070
628.00,0.0070
627.00,0.0070
626.00,0.0072
625.00,0.0073
624.00,0.0073
623.00,0.0070
622.00,0.0068
621.00,0.0066
620.00,0.0067
619.00,0.0067
618.00,0.0067
617.00,0.0066
616.00,0.0066
615.00,0.0067
614.00,0.0068
613.00,0.0067
612.00,0.0065
611.00,0.0066
610.00,0.0069
609.00,0.0073
608.00,0.0075
607.00,0.0075
606.00,0.0073
605.00,0.0070
604.00,0.0068
603.00,0.0066
602.00,0.0065
601.00,0.0064
600.00,0.0063
599.00,0.0062
598.00,0.0063
597.00,0.0064
596.00,0.0065
595.00,0.0066
594.00,0.0067
593.00,0.0068
592.00,0.0067
591.00,0.0065
590.00,0.0063
589.00,0.0061
588.00,0.0059
587.00,0.0060
586.00,0.0062
585.00,0.0064
584.00,0.0065
583.00,0.0065
582.00,0.0064
581.00,0.0064
580.00,0.0066
579.00,0.0069
578.00,0.0071
577.00,0.0072
576.00,0.0073
575.00,0.0074
574.00,0.0076
573.00,0.0076
572.00,0.0074
571.00,0.0071
570.00,0.0067
569.00,0.0066
568.00,0.0067
567.00,0.0067
566.00,0.0066
565.00,0.0064
564.00,0.0063
563.00,0.0064
562.00,0.0067
561.00,0.0070
560.00,0.0071
559.00,0.0070
558.00,0.0067
557.00,0.0065
556.00,0.0066
555.00,0.0068
554.00,0.0070
553.00,0.0070
552.00,0.0070
551.00,0.0070
550.00,0.0069
549.00,0.0067
548.00,0.0063
547.00,0.0059
546.00,0.0059
545.00,0.0062
544.00,0.0067
543.00,0.0072
542.00,0.0074
541.00,0.0076
540.00,0.0078
539.00,0.0078
538.00,0.0077
537.00,0.0076
536.00,0.0075
535.00,0.0077
534.00,0.0081
533.00,0.0083
532.00,0.0083
531.00,0.0081
530.00,0.0079
529.00,0.0078
528.00,0.0079
527.00,0.0082
526.00,0.0083
525.00,0.0080
524.00,0.0075
523.00,0.0070
522.00,0.0068
521.00,0.0069
520.00,0.0074
519.00,0.0082
518.00,0.0088
517.00,0.0087
516.00,0.0080
515.00,0.0072
514.00,0.0069
513.00,0.0072
512.00,0.0077
511.00,0.0080
510.00,0.0082
509.00,0.0082
508.00,0.0081
507.00,0.0081
506.00,0.0082
505.00,0.0082
504.00,0.0079
503.00,0.0070
502.00,0.0061
501.00,0.0058
500.00,0.0059
499.00,0.0063
498.00,0.0065
497.00,0.0068
496.00,0.0069
495.00,0.0067
494.00,0.0061
493.00,0.0055
492.00,0.0052
491.00,0.0056
490.00,0.0061
489.00,0.0062
488.00,0.0061
487.00,0.0062
486.00,0.0066
485.00,0.0071
484.00,0.0075
483.00,0.0075
482.00,0.0074
481.00,0.0074
480.00,0.0077
479.00,0.0079
478.00,0.0077
477.00,0.0068
476.00,0.0059
475.00,0.0057
474.00,0.0065
473.00,0.0077
472.00,0.0086
471.00,0.0090
470.00,0.0091
469.00,0.0092
468.00,0.0092
467.00,0.0094
466.00,0.0100
465.00,0.0109
464.00,0.0120
463.00,0.0132
462.00,0.0144
461.00,0.0155
460.00,0.0164
459.00,0.0169
458.00,0.0168
457.00,0.0159
456.00,0.0146
455.00,0.0133
454.00,0.0119
453.00,0.0105
452.00,0.0092
451.00,0.0082
450.00,0.0078
