Created as New Dataset,Sample 011 By Administrator Date Wednesday, September 10 2025
cm-1,A
4000.00,0.0011
3999.00,0.0011
3998.00,0.0011
3997.00,0.0010
3996.00,0.0011
3995.00,0.0011
3994.00,0.0011
3993.00,0.0012
3992.00,0.0012
3991.00,0.0012
3990.00,0.0012
3989.00,0.0012
3988.00,0.0012
3987.00,0.0011
3986.00,0.0011
3985.00,0.0011
3984.00,0.0011
3983.00,0.0010
3982.00,0.0010
3981.00,0.0010
3980.00,0.0010
3979.00,0.0011
3978.00,0.0011
3977.00,0.0011
3976.00,0.0011
3975.00,0.0011
3974.00,0.0010
3973.00,0.0010
3972.00,0.0010
3971.00,0.0010
3970.00,0.0010
3969.00,0.0010
3968.00,0.0010
3967.00,0.0010
3966.00,0.0011
3965.00,0.0010
3964.00,0.0010
3963.00,0.0010
3962.00,0.0010
3961.00,0.0010
3960.00,0.0010
3959.00,0.0010
3958.00,0.0009
3957.00,0.0009
3956.00,0.0009
3955.00,0.0009
3954.00,0.0010
3953.00,0.0010
3952.00,0.0010
3951.00,0.0010
3950.00,0.0011
3949.00,0.0010
3948.00,0.0010
3947.00,0.0010
3946.00,0.0010
3945.00,0.0010
3944.00,0.0010
3943.00,0.0010
3942.00,0.0010
3941.00,0.0010
3940.00,0.0010
3939.00,0.0010
3938.00,0.0009
3937.00,0.0009
3936.00,0.0010
3935.00,0.0010
3934.00,0.0011
3933.00,0.0011
3932.00,0.0011
3931.00,0.0011
3930.00,0.0010
3929.00,0.0010
3928.00,0.0010
3927.00,0.0011
3926.00,0.0011
3925.00,0.0011
3924.00,0.0011
3923.00,0.0011
3922.00,0.0011
3921.00,0.0010
3920.00,0.0010
3919.00,0.0010
3918.00,0.0010
3917.00,0.0010
3916.00,0.0010
3915.00,0.0010
3914.00,0.0010
3913.00,0.0010
3912.00,0.0010
3911.00,0.0010
3910.00,0.0009
3909.00,0.0009
3908.00,0.0009
3907.00,0.0010
3906.00,0.0010
3905.00,0.0011
3904.00,0.0012
3903.00,0.0012
3902.00,0.0011
3901.00,0.0011
3900.00,0.0010
3899.00,0.0010
3898.00,0.0010
3897.00,0.0010
3896.00,0.0010
3895.00,0.0010
3894.00,0.0010
3893.00,0.0010
3892.00,0.0010
3891.00,0.0009
3890.00,0.0009
3889.00,0.0009
3888.00,0.0009
3887.00,0.0009
3886.00,0.0010
3885.00,0.0010
3884.00,0.0010
3883.00,0.0010
3882.00,0.0010
3881.00,0.0010
3880.00,0.0010
3879.00,0.0010
3878.00,0.0010
3877.00,0.0010
3876.00,0.0010
3875.00,0.0010
3874.00,0.0010
3873.00,0.0010
3872.00,0.0011
3871.00,0.0010
3870.00,0.0010
3869.00,0.0010
3868.00,0.0010
3867.00,0.0010
3866.00,0.0010
3865.00,0.0009
3864.00,0.0009
3863.00,0.0009
3862.00,0.0009
3861.00,0.0009
3860.00,0.0009
3859.00,0.0009
3858.00,0.0009
3857.00,0.0009
3856.00,0.0010
3855.00,0.0010
3854.00,0.0010
3853.00,0.0010
3852.00,0.0010
3851.00,0.0010
3850.00,0.0010
3849.00,0.0009
3848.00,0.0009
3847.00,0.0009
3846.00,0.0009
3845.00,0.0009
3844.00,0.0009
3843.00,0.0009
3842.00,0.0009
3841.00,0.0009
3840.00,0.0009
3839.00,0.0009
3838.00,0.0008
3837.00,0.0008
3836.00,0.0008
3835.00,0.0008
3834.00,0.0007
3833.00,0.0007
3832.00,0.0008
3831.00,0.0008
3830.00,0.0008
3829.00,0.0009
3828.00,0.0009
3827.00,0.0009
3826.00,0.0009
3825.00,0.0009
3824.00,0.0009
3823.00,0.0009
3822.00,0.0008
3821.00,0.0008
3820.00,0.0008
3819.00,0.0008
3818.00,0.0008
3817.00,0.0008
3816.00,0.0008
3815.00,0.0009
3814.00,0.0010
3813.00,0.0010
3812.00,0.0010
3811.00,0.0010
3810.00,0.0010
3809.00,0.0009
3808.00,0.0009
3807.00,0.0008
3806.00,0.0008
3805.00,0.0008
3804.00,0.0008
3803.00,0.0008
3802.00,0.0008
3801.00,0.0008
3800.00,0.0008
3799.00,0.0009
3798.00,0.0009
3797.00,0.0009
3796.00,0.0009
3795.00,0.0009
3794.00,0.0009
3793.00,0.0009
3792.00,0.0009
3791.00,0.0008
3790.00,0.0008
3789.00,0.0008
3788.00,0.0009
3787.00,0.0009
3786.00,0.0009
3785.00,0.0010
3784.00,0.0010
3783.00,0.0010
3782.00,0.0010
3781.00,0.0009
3780.00,0.0009
3779.00,0.0009
3778.00,0.0010
3777.00,0.0009
3776.00,0.0009
3775.00,0.0009
3774.00,0.0009
3773.00,0.0009
3772.00,0.0009
3771.00,0.0009
3770.00,0.0009
3769.00,0.0009
3768.00,0.0009
3767.00,0.0010
3766.00,0.0010
3765.00,0.0010
3764.00,0.0010
3763.00,0.0010
3762.00,0.0010
3761.00,0.0010
3760.00,0.0010
3759.00,0.0010
3758.00,0.0010
3757.00,0.0010
3756.00,0.0010
3755.00,0.0010
3754.00,0.0010
3753.00,0.0009
3752.00,0.0009
3751.00,0.0009
3750.00,0.0009
3749.00,0.0009
3748.00,0.0009
3747.00,0.0009
3746.00,0.0009
3745.00,0.0009
3744.00,0.0009
3743.00,0.0010
3742.00,0.0010
3741.00,0.0010
3740.00,0.0010
3739.00,0.0010
3738.00,0.0010
3737.00,0.0010
3736.00,0.0010
3735.00,0.0010
3734.00,0.0009
3733.00,0.0009
3732.00,0.0008
3731.00,0.0008
3730.00,0.0008
3729.00,0.0008
3728.00,0.0009
3727.00,0.0009
3726.00,0.0009
3725.00,0.0009
3724.00,0.0009
3723.00,0.0009
3722.00,0.0009
3721.00,0.0009
3720.00,0.0010
3719.00,0.0010
3718.00,0.0010
3717.00,0.0009
3716.00,0.0009
3715.00,0.0009
3714.00,0.0008
3713.00,0.0008
3712.00,0.0008
3711.00,0.0008
3710.00,0.0009
3709.00,0.0009
3708.00,0.0010
3707.00,0.0010
3706.00,0.0009
3705.00,0.0009
3704.00,0.0009
3703.00,0.0009
3702.00,0.0009
3701.00,0.0009
3700.00,0.0009
3699.00,0.0010
3698.00,0.0010
3697.00,0.0010
3696.00,0.0009
3695.00,0.0009
3694.00,0.0009
3693.00,0.0008
3692.00,0.0008
3691.00,0.0007
3690.00,0.0007
3689.00,0.0007
3688.00,0.0008
3687.00,0.0009
3686.00,0.0009
3685.00,0.0010
3684.00,0.0010
3683.00,0.0010
3682.00,0.0011
3681.00,0.0011
3680.00,0.0011
3679.00,0.0011
3678.00,0.0011
3677.00,0.0011
3676.00,0.0010
3675.00,0.0010
3674.00,0.0010
3673.00,0.0010
3672.00,0.0010
3671.00,0.0010
3670.00,0.0010
3669.00,0.0010
3668.00,0.0011
3667.00,0.0011
3666.00,0.0011
3665.00,0.0011
3664.00,0.0012
3663.00,0.0012
3662.00,0.0012
3661.00,0.0013
3660.00,0.0013
3659.00,0.0013
3658.00,0.0012
3657.00,0.0012
3656.00,0.0012
3655.00,0.0012
3654.00,0.0012
3653.00,0.0013
3652.00,0.0013
3651.00,0.0013
3650.00,0.0014
3649.00,0.0014
3648.00,0.0015
3647.00,0.0015
3646.00,0.0015
3645.00,0.0015
3644.00,0.0015
3643.00,0.0015
3642.00,0.0014
3641.00,0.0014
3640.00,0.0014
3639.00,0.0015
3638.00,0.0015
3637.00,0.0015
3636.00,0.0016
3635.00,0.0016
3634.00,0.0016
3633.00,0.0015
3632.00,0.0016
3631.00,0.0016
3630.00,0.0016
3629.00,0.0016
3628.00,0.0016
3627.00,0.0016
3626.00,0.0016
3625.00,0.0016
3624.00,0.0016
3623.00,0.0017
3622.00,0.0017
3621.00,0.0017
3620.00,0.0017
3619.00,0.0017
3618.00,0.0017
3617.00,0.0018
3616.00,0.0019
3615.00,0.0019
3614.00,0.0019
3613.00,0.0020
3612.00,0.0020
3611.00,0.0021
3610.00,0.0021
3609.00,0.0021
3608.00,0.0022
3607.00,0.0022
3606.00,0.0022
3605.00,0.0022
3604.00,0.0022
3603.00,0.0022
3602.00,0.0022
3601.00,0.0022
3600.00,0.0023
3599.00,0.0023
3598.00,0.0024
3597.00,0.0024
3596.00,0.0025
3595.00,0.0025
3594.00,0.0026
3593.00,0.0026
3592.00,0.0026
3591.00,0.0026
3590.00,0.0027
3589.00,0.0027
3588.00,0.0028
3587.00,0.0028
3586.00,0.0029
3585.00,0.0029
3584.00,0.0029
3583.00,0.0029
3582.00,0.0029
3581.00,0.0029
3580.00,0.0029
3579.00,0.0029
3578.00,0.0030
3577.00,0.0030
3576.00,0.0031
3575.00,0.0031
3574.00,0.0032
3573.00,0.0032
3572.00,0.0033
3571.00,0.0033
3570.00,0.0034
3569.00,0.0035
3568.00,0.0036
3567.00,0.0037
3566.00,0.0037
3565.00,0.0037
3564.00,0.0037
3563.00,0.0037
3562.00,0.0037
3561.00,0.0037
3560.00,0.0037
3559.00,0.0038
3558.00,0.0038
3557.00,0.0039
3556.00,0.0040
3555.00,0.0040
3554.00,0.0041
3553.00,0.0041
3552.00,0.0041
3551.00,0.0041
3550.00,0.0042
3549.00,0.0043
3548.00,0.0044
3547.00,0.0045
3546.00,0.0045
3545.00,0.0045
3544.00,0.0045
3543.00,0.0045
3542.00,0.0045
3541.00,0.0045
3540.00,0.0045
3539.00,0.0045
3538.00,0.0045
3537.00,0.0046
3536.00,0.0047
3535.00,0.0047
3534.00,0.0047
3533.00,0.0048
3532.00,0.0048
3531.00,0.0048
3530.00,0.0049
3529.00,0.0049
3528.00,0.0050
3527.00,0.0050
3526.00,0.0051
3525.00,0.0052
3524.00,0.0052
3523.00,0.0052
3522.00,0.0053
3521.00,0.0053
3520.00,0.0053
3519.00,0.0053
3518.00,0.0053
3517.00,0.0053
3516.00,0.0054
3515.00,0.0054
3514.00,0.0055
3513.00,0.0055
3512.00,0.0056
3511.00,0.0056
3510.00,0.0057
3509.00,0.0057
3508.00,0.0058
3507.00,0.0059
3506.00,0.0059
3505.00,0.0060
3504.00,0.0060
3503.00,0.0060
3502.00,0.0060
3501.00,0.0060
3500.00,0.0060
3499.00,0.0060
3498.00,0.0061
3497.00,0.0061
3496.00,0.0062
3495.00,0.0063
3494.00,0.0063
3493.00,0.0064
3492.00,0.0064
3491.00,0.0064
3490.00,0.0065
3489.00,0.0065
3488.00,0.0065
3487.00,0.0066
3486.00,0.0066
3485.00,0.0066
3484.00,0.0066
3483.00,0.0067
3482.00,0.0067
3481.00,0.0067
3480.00,0.0068
3479.00,0.0068
3478.00,0.0068
3477.00,0.0069
3476.00,0.0069
3475.00,0.0069
3474.00,0.0070
3473.00,0.0070
3472.00,0.0071
3471.00,0.0071
3470.00,0.0072
3469.00,0.0072
3468.00,0.0073
3467.00,0.0073
3466.00,0.0073
3465.00,0.0073
3464.00,0.0074
3463.00,0.0074
3462.00,0.0075
3461.00,0.0075
3460.00,0.0075
3459.00,0.0076
3458.00,0.0076
3457.00,0.0076
3456.00,0.0077
3455.00,0.0077
3454.00,0.0077
3453.00,0.0078
3452.00,0.0078
3451.00,0.0078
3450.00,0.0079
3449.00,0.0079
3448.00,0.0079
3447.00,0.0079
3446.00,0.0080
3445.00,0.0080
3444.00,0.0080
3443.00,0.0080
3442.00,0.0081
3441.00,0.0081
3440.00,0.0081
3439.00,0.0082
3438.00,0.0082
3437.00,0.0083
3436.00,0.0083
3435.00,0.0083
3434.00,0.0084
3433.00,0.0084
3432.00,0.0085
3431.00,0.0085
3430.00,0.0086
3429.00,0.0087
3428.00,0.0087
3427.00,0.0087
3426.00,0.0088
3425.00,0.0088
3424.00,0.0088
3423.00,0.0088
3422.00,0.0088
3421.00,0.0089
3420.00,0.0089
3419.00,0.0089
3418.00,0.0090
3417.00,0.0090
3416.00,0.0090
3415.00,0.0090
3414.00,0.0091
3413.00,0.0091
3412.00,0.0091
3411.00,0.0092
3410.00,0.0092
3409.00,0.0092
3408.00,0.0092
3407.00,0.0093
3406.00,0.0093
3405.00,0.0094
3404.00,0.0095
3403.00,0.0095
3402.00,0.0096
3401.00,0.0096
3400.00,0.0096
3399.00,0.0097
3398.00,0.0097
3397.00,0.0097
3396.00,0.0097
3395.00,0.0097
3394.00,0.0097
3393.00,0.0098
3392.00,0.0098
3391.00,0.0098
3390.00,0.0098
3389.00,0.0097
3388.00,0.0097
3387.00,0.0097
3386.00,0.0097
3385.00,0.0097
3384.00,0.0097
3383.00,0.0097
3382.00,0.0097
3381.00,0.0097
3380.00,0.0097
3379.00,0.0097
3378.00,0.0097
3377.00,0.0097
3376.00,0.0097
3375.00,0.0097
3374.00,0.0097
3373.00,0.0097
3372.00,0.0098
3371.00,0.0098
3370.00,0.0098
3369.00,0.0097
3368.00,0.0097
3367.00,0.0097
3366.00,0.0097
3365.00,0.0097
3364.00,0.0097
3363.00,0.0098
3362.00,0.0098
3361.00,0.0099
3360.00,0.0099
3359.00,0.0099
3358.00,0.0099
3357.00,0.0099
3356.00,0.0099
3355.00,0.0099
3354.00,0.0099
3353.00,0.0099
3352.00,0.0099
3351.00,0.0099
3350.00,0.0099
3349.00,0.0098
3348.00,0.0098
3347.00,0.0098
3346.00,0.0098
3345.00,0.0098
3344.00,0.0099
3343.00,0.0099
3342.00,0.0099
3341.00,0.0099
3340.00,0.0099
3339.00,0.0099
3338.00,0.0099
3337.00,0.0099
3336.00,0.0099
3335.00,0.0099
3334.00,0.0099
3333.00,0.0099
3332.00,0.0099
3331.00,0.0099
3330.00,0.0098
3329.00,0.0098
3328.00,0.0098
3327.00,0.0098
3326.00,0.0098
3325.00,0.0098
3324.00,0.0098
3323.00,0.0097
3322.00,0.0097
3321.00,0.0097
3320.00,0.0097
3319.00,0.0098
3318.00,0.0097
3317.00,0.0097
3316.00,0.0097
3315.00,0.0097
3314.00,0.0096
3313.00,0.0096
3312.00,0.0096
3311.00,0.0096
3310.00,0.0096
3309.00,0.0096
3308.00,0.0096
3307.00,0.0096
3306.00,0.0096
3305.00,0.0095
3304.00,0.0095
3303.00,0.0095
3302.00,0.0095
3301.00,0.0095
3300.00,0.0095
3299.00,0.0094
3298.00,0.0093
3297.00,0.0093
3296.00,0.0093
3295.00,0.0093
3294.00,0.0093
3293.00,0.0093
3292.00,0.0093
3291.00,0.0093
3290.00,0.0093
3289.00,0.0093
3288.00,0.0092
3287.00,0.0092
3286.00,0.0091
3285.00,0.0090
3284.00,0.0090
3283.00,0.0090
3282.00,0.0090
3281.00,0.0090
3280.00,0.0089
3279.00,0.0089
3278.00,0.0089
3277.00,0.0088
3276.00,0.0088
3275.00,0.0087
3274.00,0.0087
3273.00,0.0087
3272.00,0.0087
3271.00,0.0087
3270.00,0.0087
3269.00,0.0087
3268.00,0.0087
3267.00,0.0086
3266.00,0.0085
3265.00,0.0085
3264.00,0.0084
3263.00,0.0084
3262.00,0.0084
3261.00,0.0084
3260.00,0.0083
3259.00,0.0083
3258.00,0.0083
3257.00,0.0083
3256.00,0.0083
3255.00,0.0083
3254.00,0.0082
3253.00,0.0082
3252.00,0.0082
3251.00,0.0082
3250.00,0.0081
3249.00,0.0081
3248.00,0.0081
3247.00,0.0080
3246.00,0.0080
3245.00,0.0080
3244.00,0.0080
3243.00,0.0081
3242.00,0.0081
3241.00,0.0080
3240.00,0.0080
3239.00,0.0080
3238.00,0.0079
3237.00,0.0079
3236.00,0.0078
3235.00,0.0078
3234.00,0.0078
3233.00,0.0079
3232.00,0.0079
3231.00,0.0079
3230.00,0.0079
3229.00,0.0079
3228.00,0.0079
3227.00,0.0079
3226.00,0.0079
3225.00,0.0079
3224.00,0.0079
3223.00,0.0080
3222.00,0.0080
3221.00,0.0080
3220.00,0.0080
3219.00,0.0080
3218.00,0.0080
3217.00,0.0081
3216.00,0.0081
3215.00,0.0081
3214.00,0.0081
3213.00,0.0081
3212.00,0.0082
3211.00,0.0082
3210.00,0.0082
3209.00,0.0081
3208.00,0.0081
3207.00,0.0081
3206.00,0.0081
3205.00,0.0082
3204.00,0.0082
3203.00,0.0082
3202.00,0.0082
3201.00,0.0082
3200.00,0.0082
3199.00,0.0082
3198.00,0.0082
3197.00,0.0082
3196.00,0.0082
3195.00,0.0082
3194.00,0.0082
3193.00,0.0082
3192.00,0.0081
3191.00,0.0081
3190.00,0.0081
3189.00,0.0081
3188.00,0.0080
3187.00,0.0080
3186.00,0.0079
3185.00,0.0079
3184.00,0.0078
3183.00,0.0078
3182.00,0.0077
3181.00,0.0077
3180.00,0.0076
3179.00,0.0076
3178.00,0.0076
3177.00,0.0075
3176.00,0.0075
3175.00,0.0075
3174.00,0.0074
3173.00,0.0074
3172.00,0.0074
3171.00,0.0073
3170.00,0.0073
3169.00,0.0073
3168.00,0.0072
3167.00,0.0071
3166.00,0.0070
3165.00,0.0070
3164.00,0.0069
3163.00,0.0069
3162.00,0.0069
3161.00,0.0069
3160.00,0.0069
3159.00,0.0069
3158.00,0.0069
3157.00,0.0069
3156.00,0.0068
3155.00,0.0068
3154.00,0.0067
3153.00,0.0067
3152.00,0.0067
3151.00,0.0066
3150.00,0.0066
3149.00,0.0066
3148.00,0.0066
3147.00,0.0065
3146.00,0.0065
3145.00,0.0065
3144.00,0.0065
3143.00,0.0065
3142.00,0.0065
3141.00,0.0065
3140.00,0.0065
3139.00,0.0064
3138.00,0.0064
3137.00,0.0064
3136.00,0.0063
3135.00,0.0063
3134.00,0.0062
3133.00,0.0062
3132.00,0.0062
3131.00,0.0061
3130.00,0.0061
3129.00,0.0061
3128.00,0.0060
3127.00,0.0059
3126.00,0.0059
3125.00,0.0058
3124.00,0.0058
3123.00,0.0058
3122.00,0.0057
3121.00,0.0057
3120.00,0.0057
3119.00,0.0056
3118.00,0.0056
3117.00,0.0055
3116.00,0.0055
3115.00,0.0055
3114.00,0.0055
3113.00,0.0055
3112.00,0.0055
3111.00,0.0054
3110.00,0.0054
3109.00,0.0054
3108.00,0.0054
3107.00,0.0053
3106.00,0.0053
3105.00,0.0053
3104.00,0.0052
3103.00,0.0052
3102.00,0.0052
3101.00,0.0051
3100.00,0.0051
3099.00,0.0051
3098.00,0.0052
3097.00,0.0052
3096.00,0.0051
3095.00,0.0051
3094.00,0.0051
3093.00,0.0050
3092.00,0.0050
3091.00,0.0050
3090.00,0.0050
3089.00,0.0050
3088.00,0.0050
3087.00,0.0050
3086.00,0.0050
3085.00,0.0049
3084.00,0.0049
3083.00,0.0048
3082.00,0.0047
3081.00,0.0047
3080.00,0.0047
3079.00,0.0047
3078.00,0.0048
3077.00,0.0048
3076.00,0.0048
3075.00,0.0048
3074.00,0.0048
3073.00,0.0049
3072.00,0.0049
3071.00,0.0048
3070.00,0.0048
3069.00,0.0048
3068.00,0.0048
3067.00,0.0048
3066.00,0.0048
3065.00,0.0049
3064.00,0.0049
3063.00,0.0049
3062.00,0.0049
3061.00,0.0049
3060.00,0.0049
3059.00,0.0049
3058.00,0.0049
3057.00,0.0049
3056.00,0.0049
3055.00,0.0049
3054.00,0.0049
3053.00,0.0049
3052.00,0.0049
3051.00,0.0049
3050.00,0.0049
3049.00,0.0049
3048.00,0.0050
3047.00,0.0050
3046.00,0.0050
3045.00,0.0050
3044.00,0.0050
3043.00,0.0050
3042.00,0.0051
3041.00,0.0051
3040.00,0.0052
3039.00,0.0052
3038.00,0.0053
3037.00,0.0053
3036.00,0.0054
3035.00,0.0054
3034.00,0.0054
3033.00,0.0054
3032.00,0.0054
3031.00,0.0054
3030.00,0.0055
3029.00,0.0056
3028.00,0.0056
3027.00,0.0057
3026.00,0.0057
3025.00,0.0057
3024.00,0.0057
3023.00,0.0057
3022.00,0.0058
3021.00,0.0059
3020.00,0.0060
3019.00,0.0061
3018.00,0.0062
3017.00,0.0063
3016.00,0.0064
3015.00,0.0065
3014.00,0.0067
3013.00,0.0068
3012.00,0.0069
3011.00,0.0071
3010.00,0.0072
3009.00,0.0074
3008.00,0.0076
3007.00,0.0078
3006.00,0.0080
3005.00,0.0082
3004.00,0.0084
3003.00,0.0086
3002.00,0.0089
3001.00,0.0091
3000.00,0.0094
2999.00,0.0098
2998.00,0.0101
2997.00,0.0105
2996.00,0.0109
2995.00,0.0113
2994.00,0.0117
2993.00,0.0122
2992.00,0.0127
2991.00,0.0133
2990.00,0.0140
2989.00,0.0147
2988.00,0.0155
2987.00,0.0164
2986.00,0.0174
2985.00,0.0186
2984.00,0.0200
2983.00,0.0214
2982.00,0.0230
2981.00,0.0247
2980.00,0.0266
2979.00,0.0287
2978.00,0.0311
2977.00,0.0338
2976.00,0.0369
2975.00,0.0405
2974.00,0.0445
2973.00,0.0491
2972.00,0.0542
2971.00,0.0600
2970.00,0.0663
2969.00,0.0733
2968.00,0.0809
2967.00,0.0890
2966.00,0.0975
2965.00,0.1061
2964.00,0.1146
2963.00,0.1226
2962.00,0.1299
2961.00,0.1361
2960.00,0.1414
2959.00,0.1459
2958.00,0.1499
2957.00,0.1540
2956.00,0.1586
2955.00,0.1640
2954.00,0.1702
2953.00,0.1767
2952.00,0.1829
2951.00,0.1877
2950.00,0.1903
2949.00,0.1896
2948.00,0.1852
2947.00,0.1772
2946.00,0.1662
2945.00,0.1538
2944.00,0.1412
2943.00,0.1300
2942.00,0.1208
2941.00,0.1142
2940.00,0.1101
2939.00,0.1085
2938.00,0.1089
2937.00,0.1112
2936.00,0.1151
2935.00,0.1207
2934.00,0.1276
2933.00,0.1357
2932.00,0.1449
2931.00,0.1550
2930.00,0.1658
2929.00,0.1767
2928.00,0.1877
2927.00,0.1984
2926.00,0.2086
2925.00,0.2185
2924.00,0.2280
2923.00,0.2374
2922.00,0.2465
2921.00,0.2553
2920.00,0.2632
2919.00,0.2694
2918.00,0.2730
2917.00,0.2733
2916.00,0.2700
2915.00,0.2634
2914.00,0.2542
2913.00,0.2436
2912.00,0.2327
2911.00,0.2222
2910.00,0.2125
2909.00,0.2036
2908.00,0.1955
2907.00,0.1878
2906.00,0.1804
2905.00,0.1732
2904.00,0.1659
2903.00,0.1588
2902.00,0.1517
2901.00,0.1448
2900.00,0.1381
2899.00,0.1319
2898.00,0.1262
2897.00,0.1210
2896.00,0.1164
2895.00,0.1125
2894.00,0.1094
2893.00,0.1069
2892.00,0.1051
2891.00,0.1039
2890.00,0.1032
2889.00,0.1030
2888.00,0.1032
2887.00,0.1038
2886.00,0.1048
2885.00,0.1062
2884.00,0.1081
2883.00,0.1105
2882.00,0.1133
2881.00,0.1165
2880.00,0.1197
2879.00,0.1225
2878.00,0.1246
2877.00,0.1256
2876.00,0.1256
2875.00,0.1250
2874.00,0.1242
2873.00,0.1237
2872.00,0.1240
2871.00,0.1251
2870.00,0.1268
2869.00,0.1286
2868.00,0.1299
2867.00,0.1299
2866.00,0.1277
2865.00,0.1229
2864.00,0.1159
2863.00,0.1073
2862.00,0.0983
2861.00,0.0898
2860.00,0.0824
2859.00,0.0765
2858.00,0.0721
2857.00,0.0691
2856.00,0.0672
2855.00,0.0663
2854.00,0.0662
2853.00,0.0668
2852.00,0.0680
2851.00,0.0696
2850.00,0.0714
2849.00,0.0735
2848.00,0.0757
2847.00,0.0784
2846.00,0.0818
2845.00,0.0862
2844.00,0.0915
2843.00,0.0976
2842.00,0.1042
2841.00,0.1108
2840.00,0.1164
2839.00,0.1203
2838.00,0.1216
2837.00,0.1196
2836.00,0.1143
2835.00,0.1061
2834.00,0.0959
2833.00,0.0850
2832.00,0.0745
2831.00,0.0650
2830.00,0.0570
2829.00,0.0504
2828.00,0.0450
2827.00,0.0407
2826.00,0.0371
2825.00,0.0342
2824.00,0.0318
2823.00,0.0298
2822.00,0.0281
2821.00,0.0267
2820.00,0.0254
2819.00,0.0243
2818.00,0.0233
2817.00,0.0225
2816.00,0.0217
2815.00,0.0210
2814.00,0.0204
2813.00,0.0199
2812.00,0.0194
2811.00,0.0188
2810.00,0.0183
2809.00,0.0177
2808.00,0.0171
2807.00,0.0164
2806.00,0.0158
2805.00,0.0151
2804.00,0.0144
2803.00,0.0138
2802.00,0.0133
2801.00,0.0128
2800.00,0.0124
2799.00,0.0121
2798.00,0.0119
2797.00,0.0117
2796.00,0.0114
2795.00,0.0112
2794.00,0.0109
2793.00,0.0106
2792.00,0.0103
2791.00,0.0100
2790.00,0.0096
2789.00,0.0093
2788.00,0.0090
2787.00,0.0088
2786.00,0.0085
2785.00,0.0083
2784.00,0.0080
2783.00,0.0078
2782.00,0.0076
2781.00,0.0075
2780.00,0.0073
2779.00,0.0072
2778.00,0.0070
2777.00,0.0069
2776.00,0.0068
2775.00,0.0067
2774.00,0.0066
2773.00,0.0065
2772.00,0.0064
2771.00,0.0063
2770.00,0.0063
2769.00,0.0063
2768.00,0.0063
2767.00,0.0062
2766.00,0.0062
2765.00,0.0061
2764.00,0.0061
2763.00,0.0061
2762.00,0.0061
2761.00,0.0060
2760.00,0.0060
2759.00,0.0060
2758.00,0.0060
2757.00,0.0059
2756.00,0.0059
2755.00,0.0059
2754.00,0.0059
2753.00,0.0059
2752.00,0.0058
2751.00,0.0058
2750.00,0.0058
2749.00,0.0058
2748.00,0.0058
2747.00,0.0058
2746.00,0.0059
2745.00,0.0059
2744.00,0.0060
2743.00,0.0061
2742.00,0.0063
2741.00,0.0064
2740.00,0.0065
2739.00,0.0066
2738.00,0.0067
2737.00,0.0068
2736.00,0.0070
2735.00,0.0071
2734.00,0.0073
2733.00,0.0074
2732.00,0.0076
2731.00,0.0078
2730.00,0.0080
2729.00,0.0083
2728.00,0.0085
2727.00,0.0088
2726.00,0.0091
2725.00,0.0093
2724.00,0.0095
2723.00,0.0095
2722.00,0.0094
2721.00,0.0092
2720.00,0.0089
2719.00,0.0085
2718.00,0.0082
2717.00,0.0078
2716.00,0.0076
2715.00,0.0073
2714.00,0.0071
2713.00,0.0069
2712.00,0.0067
2711.00,0.0064
2710.00,0.0063
2709.00,0.0061
2708.00,0.0059
2707.00,0.0058
2706.00,0.0057
2705.00,0.0055
2704.00,0.0054
2703.00,0.0054
2702.00,0.0053
2701.00,0.0052
2700.00,0.0052
2699.00,0.0051
2698.00,0.0051
2697.00,0.0050
2696.00,0.0050
2695.00,0.0049
2694.00,0.0049
2693.00,0.0050
2692.00,0.0050
2691.00,0.0050
2690.00,0.0050
2689.00,0.0050
2688.00,0.0050
2687.00,0.0049
2686.00,0.0049
2685.00,0.0049
2684.00,0.0050
2683.00,0.0050
2682.00,0.0050
2681.00,0.0050
2680.00,0.0050
2679.00,0.0051
2678.00,0.0051
2677.00,0.0051
2676.00,0.0050
2675.00,0.0050
2674.00,0.0050
2673.00,0.0049
2672.00,0.0049
2671.00,0.0049
2670.00,0.0049
2669.00,0.0048
2668.00,0.0049
2667.00,0.0049
2666.00,0.0050
2665.00,0.0050
2664.00,0.0051
2663.00,0.0051
2662.00,0.0051
2661.00,0.0052
2660.00,0.0052
2659.00,0.0052
2658.00,0.0052
2657.00,0.0051
2656.00,0.0051
2655.00,0.0051
2654.00,0.0050
2653.00,0.0049
2652.00,0.0048
2651.00,0.0048
2650.00,0.0047
2649.00,0.0047
2648.00,0.0046
2647.00,0.0046
2646.00,0.0046
2645.00,0.0045
2644.00,0.0045
2643.00,0.0045
2642.00,0.0045
2641.00,0.0044
2640.00,0.0044
2639.00,0.0043
2638.00,0.0042
2637.00,0.0042
2636.00,0.0041
2635.00,0.0041
2634.00,0.0041
2633.00,0.0042
2632.00,0.0042
2631.00,0.0042
2630.00,0.0042
2629.00,0.0042
2628.00,0.0042
2627.00,0.0043
2626.00,0.0043
2625.00,0.0043
2624.00,0.0043
2623.00,0.0043
2622.00,0.0043
2621.00,0.0044
2620.00,0.0044
2619.00,0.0045
2618.00,0.0045
2617.00,0.0045
2616.00,0.0045
2615.00,0.0044
2614.00,0.0044
2613.00,0.0043
2612.00,0.0043
2611.00,0.0042
2610.00,0.0041
2609.00,0.0040
2608.00,0.0040
2607.00,0.0039
2606.00,0.0039
2605.00,0.0038
2604.00,0.0037
2603.00,0.0036
2602.00,0.0036
2601.00,0.0036
2600.00,0.0036
2599.00,0.0036
2598.00,0.0036
2597.00,0.0037
2596.00,0.0037
2595.00,0.0037
2594.00,0.0037
2593.00,0.0037
2592.00,0.0037
2591.00,0.0037
2590.00,0.0038
2589.00,0.0039
2588.00,0.0040
2587.00,0.0041
2586.00,0.0042
2585.00,0.0042
2584.00,0.0043
2583.00,0.0043
2582.00,0.0043
2581.00,0.0043
2580.00,0.0043
2579.00,0.0042
2578.00,0.0042
2577.00,0.0041
2576.00,0.0040
2575.00,0.0038
2574.00,0.0037
2573.00,0.0036
2572.00,0.0035
2571.00,0.0034
2570.00,0.0032
2569.00,0.0031
2568.00,0.0030
2567.00,0.0029
2566.00,0.0029
2565.00,0.0029
2564.00,0.0028
2563.00,0.0028
2562.00,0.0028
2561.00,0.0027
2560.00,0.0027
2559.00,0.0027
2558.00,0.0027
2557.00,0.0027
2556.00,0.0027
2555.00,0.0027
2554.00,0.0027
2553.00,0.0026
2552.00,0.0025
2551.00,0.0025
2550.00,0.0024
2549.00,0.0023
2548.00,0.0023
2547.00,0.0023
2546.00,0.0023
2545.00,0.0022
2544.00,0.0022
2543.00,0.0021
2542.00,0.0020
2541.00,0.0020
2540.00,0.0021
2539.00,0.0021
2538.00,0.0020
2537.00,0.0020
2536.00,0.0019
2535.00,0.0019
2534.00,0.0019
2533.00,0.0019
2532.00,0.0019
2531.00,0.0019
2530.00,0.0019
2529.00,0.0019
2528.00,0.0018
2527.00,0.0019
2526.00,0.0019
2525.00,0.0019
2524.00,0.0018
2523.00,0.0018
2522.00,0.0017
2521.00,0.0017
2520.00,0.0017
2519.00,0.0017
2518.00,0.0017
2517.00,0.0017
2516.00,0.0017
2515.00,0.0017
2514.00,0.0016
2513.00,0.0015
2512.00,0.0014
2511.00,0.0014
2510.00,0.0014
2509.00,0.0015
2508.00,0.0015
2507.00,0.0016
2506.00,0.0016
2505.00,0.0016
2504.00,0.0015
2503.00,0.0016
2502.00,0.0016
2501.00,0.0016
2500.00,0.0015
2499.00,0.0015
2498.00,0.0014
2497.00,0.0014
2496.00,0.0014
2495.00,0.0015
2494.00,0.0015
2493.00,0.0015
2492.00,0.0015
2491.00,0.0015
2490.00,0.0015
2489.00,0.0015
2488.00,0.0014
2487.00,0.0013
2486.00,0.0012
2485.00,0.0012
2484.00,0.0012
2483.00,0.0013
2482.00,0.0013
2481.00,0.0014
2480.00,0.0014
2479.00,0.0013
2478.00,0.0013
2477.00,0.0013
2476.00,0.0014
2475.00,0.0014
2474.00,0.0014
2473.00,0.0014
2472.00,0.0013
2471.00,0.0013
2470.00,0.0012
2469.00,0.0013
2468.00,0.0013
2467.00,0.0013
2466.00,0.0013
2465.00,0.0013
2464.00,0.0013
2463.00,0.0014
2462.00,0.0014
2461.00,0.0014
2460.00,0.0014
2459.00,0.0014
2458.00,0.0014
2457.00,0.0014
2456.00,0.0014
2455.00,0.0014
2454.00,0.0014
2453.00,0.0015
2452.00,0.0015
2451.00,0.0015
2450.00,0.0015
2449.00,0.0014
2448.00,0.0014
2447.00,0.0014
2446.00,0.0014
2445.00,0.0014
2444.00,0.0014
2443.00,0.0014
2442.00,0.0014
2441.00,0.0013
2440.00,0.0013
2439.00,0.0014
2438.00,0.0014
2437.00,0.0014
2436.00,0.0014
2435.00,0.0014
2434.00,0.0014
2433.00,0.0014
2432.00,0.0014
2431.00,0.0014
2430.00,0.0014
2429.00,0.0015
2428.00,0.0015
2427.00,0.0015
2426.00,0.0016
2425.00,0.0016
2424.00,0.0015
2423.00,0.0015
2422.00,0.0014
2421.00,0.0014
2420.00,0.0014
2419.00,0.0014
2418.00,0.0014
2417.00,0.0014
2416.00,0.0014
2415.00,0.0013
2414.00,0.0013
2413.00,0.0013
2412.00,0.0013
2411.00,0.0013
2410.00,0.0013
2409.00,0.0013
2408.00,0.0014
2407.00,0.0014
2406.00,0.0014
2405.00,0.0014
2404.00,0.0013
2403.00,0.0013
2402.00,0.0013
2401.00,0.0013
2400.00,0.0014
2399.00,0.0013
2398.00,0.0013
2397.00,0.0013
2396.00,0.0013
2395.00,0.0013
2394.00,0.0013
2393.00,0.0012
2392.00,0.0012
2391.00,0.0012
2390.00,0.0012
2389.00,0.0012
2388.00,0.0012
2387.00,0.0011
2386.00,0.0011
2385.00,0.0010
2384.00,0.0009
2383.00,0.0009
2382.00,0.0009
2381.00,0.0010
2380.00,0.0010
2379.00,0.0010
2378.00,0.0009
2377.00,0.0009
2376.00,0.0009
2375.00,0.0009
2374.00,0.0009
2373.00,0.0009
2372.00,0.0009
2371.00,0.0009
2370.00,0.0008
2369.00,0.0008
2368.00,0.0008
2367.00,0.0008
2366.00,0.0009
2365.00,0.0009
2364.00,0.0009
2363.00,0.0009
2362.00,0.0009
2361.00,0.0009
2360.00,0.0009
2359.00,0.0009
2358.00,0.0009
2357.00,0.0009
2356.00,0.0009
2355.00,0.0008
2354.00,0.0008
2353.00,0.0007
2352.00,0.0007
2351.00,0.0007
2350.00,0.0007
2349.00,0.0008
2348.00,0.0010
2347.00,0.0012
2346.00,0.0013
2345.00,0.0014
2344.00,0.0013
2343.00,0.0012
2342.00,0.0011
2341.00,0.0011
2340.00,0.0011
2339.00,0.0011
2338.00,0.0011
2337.00,0.0011
2336.00,0.0011
2335.00,0.0011
2334.00,0.0011
2333.00,0.0011
2332.00,0.0009
2331.00,0.0008
2330.00,0.0008
2329.00,0.0008
2328.00,0.0010
2327.00,0.0013
2326.00,0.0017
2325.00,0.0021
2324.00,0.0023
2323.00,0.0022
2322.00,0.0020
2321.00,0.0018
2320.00,0.0016
2319.00,0.0014
2318.00,0.0013
2317.00,0.0012
2316.00,0.0012
2315.00,0.0013
2314.00,0.0012
2313.00,0.0012
2312.00,0.0011
2311.00,0.0011
2310.00,0.0011
2309.00,0.0011
2308.00,0.0011
2307.00,0.0011
2306.00,0.0011
2305.00,0.0012
2304.00,0.0012
2303.00,0.0012
2302.00,0.0013
2301.00,0.0014
2300.00,0.0014
2299.00,0.0015
2298.00,0.0015
2297.00,0.0015
2296.00,0.0015
2295.00,0.0015
2294.00,0.0015
2293.00,0.0017
2292.00,0.0018
2291.00,0.0020
2290.00,0.0020
2289.00,0.0020
2288.00,0.0019
2287.00,0.0019
2286.00,0.0020
2285.00,0.0020
2284.00,0.0020
2283.00,0.0019
2282.00,0.0018
2281.00,0.0017
2280.00,0.0017
2279.00,0.0017
2278.00,0.0016
2277.00,0.0016
2276.00,0.0016
2275.00,0.0017
2274.00,0.0017
2273.00,0.0017
2272.00,0.0016
2271.00,0.0015
2270.00,0.0014
2269.00,0.0014
2268.00,0.0014
2267.00,0.0014
2266.00,0.0013
2265.00,0.0013
2264.00,0.0013
2263.00,0.0013
2262.00,0.0014
2261.00,0.0015
2260.00,0.0016
2259.00,0.0016
2258.00,0.0016
2257.00,0.0015
2256.00,0.0013
2255.00,0.0012
2254.00,0.0012
2253.00,0.0013
2252.00,0.0014
2251.00,0.0014
2250.00,0.0013
2249.00,0.0012
2248.00,0.0011
2247.00,0.0011
2246.00,0.0011
2245.00,0.0012
2244.00,0.0012
2243.00,0.0011
2242.00,0.0010
2241.00,0.0010
2240.00,0.0009
2239.00,0.0009
2238.00,0.0008
2237.00,0.0009
2236.00,0.0011
2235.00,0.0013
2234.00,0.0014
2233.00,0.0014
2232.00,0.0014
2231.00,0.0014
2230.00,0.0014
2229.00,0.0014
2228.00,0.0014
2227.00,0.0013
2226.00,0.0012
2225.00,0.0011
2224.00,0.0010
2223.00,0.0009
2222.00,0.0008
2221.00,0.0009
2220.00,0.0010
2219.00,0.0010
2218.00,0.0010
2217.00,0.0009
2216.00,0.0010
2215.00,0.0011
2214.00,0.0013
2213.00,0.0014
2212.00,0.0014
2211.00,0.0013
2210.00,0.0011
2209.00,0.0009
2208.00,0.0008
2207.00,0.0009
2206.00,0.0011
2205.00,0.0013
2204.00,0.0014
2203.00,0.0014
2202.00,0.0013
2201.00,0.0012
2200.00,0.0011
2199.00,0.0010
2198.00,0.0010
2197.00,0.0011
2196.00,0.0013
2195.00,0.0016
2194.00,0.0017
2193.00,0.0016
2192.00,0.0015
2191.00,0.0014
2190.00,0.0013
2189.00,0.0012
2188.00,0.0011
2187.00,0.0011
2186.00,0.0013
2185.00,0.0015
2184.00,0.0017
2183.00,0.0016
2182.00,0.0014
2181.00,0.0013
2180.00,0.0013
2179.00,0.0013
2178.00,0.0013
2177.00,0.0012
2176.00,0.0011
2175.00,0.0009
2174.00,0.0009
2173.00,0.0009
2172.00,0.0011
2171.00,0.0012
2170.00,0.0014
2169.00,0.0015
2168.00,0.0016
2167.00,0.0017
2166.00,0.0018
2165.00,0.0019
2164.00,0.0019
2163.00,0.0020
2162.00,0.0020
2161.00,0.0016
2160.00,0.0007
2159.00,-0.0005
2158.00,-0.0016
2157.00,-0.0021
2156.00,-0.0020
2155.00,-0.0018
2154.00,-0.0015
2153.00,-0.0013
2152.00,-0.0010
2151.00,-0.0006
2150.00,-0.0003
2149.00,-0.0002
2148.00,-0.0004
2147.00,-0.0008
2146.00,-0.0011
2145.00,-0.0011
2144.00,-0.0010
2143.00,-0.0008
2142.00,-0.0007
2141.00,-0.0006
2140.00,-0.0004
2139.00,-0.0003
2138.00,-0.0003
2137.00,-0.0004
2136.00,-0.0006
2135.00,-0.0010
2134.00,-0.0012
2133.00,-0.0013
2132.00,-0.0012
2131.00,-0.0010
2130.00,-0.0008
2129.00,-0.0007
2128.00,-0.0006
2127.00,-0.0004
2126.00,-0.0002
2125.00,0.0000
2124.00,0.0001
2123.00,0.0001
2122.00,-0.0000
2121.00,-0.0001
2120.00,-0.0002
2119.00,-0.0002
2118.00,-0.0001
2117.00,0.0001
2116.00,0.0004
2115.00,0.0006
2114.00,0.0007
2113.00,0.0007
2112.00,0.0006
2111.00,0.0006
2110.00,0.0007
2109.00,0.0007
2108.00,0.0008
2107.00,0.0008
2106.00,0.0007
2105.00,0.0007
2104.00,0.0006
2103.00,0.0005
2102.00,0.0004
2101.00,0.0004
2100.00,0.0004
2099.00,0.0005
2098.00,0.0005
2097.00,0.0005
2096.00,0.0004
2095.00,0.0003
2094.00,0.0001
2093.00,0.0001
2092.00,0.0001
2091.00,0.0001
2090.00,0.0001
2089.00,0.0002
2088.00,0.0003
2087.00,0.0004
2086.00,0.0005
2085.00,0.0006
2084.00,0.0006
2083.00,0.0006
2082.00,0.0006
2081.00,0.0007
2080.00,0.0007
2079.00,0.0007
2078.00,0.0007
2077.00,0.0007
2076.00,0.0007
2075.00,0.0006
2074.00,0.0005
2073.00,0.0005
2072.00,0.0005
2071.00,0.0005
2070.00,0.0004
2069.00,0.0004
2068.00,0.0005
2067.00,0.0005
2066.00,0.0005
2065.00,0.0003
2064.00,0.0001
2063.00,-0.0001
2062.00,-0.0001
2061.00,0.0000
2060.00,0.0002
2059.00,0.0005
2058.00,0.0007
2057.00,0.0009
2056.00,0.0009
2055.00,0.0009
2054.00,0.0010
2053.00,0.0013
2052.00,0.0017
2051.00,0.0020
2050.00,0.0019
2049.00,0.0015
2048.00,0.0011
2047.00,0.0007
2046.00,0.0005
2045.00,0.0003
2044.00,0.0003
2043.00,0.0003
2042.00,0.0004
2041.00,0.0004
2040.00,0.0003
2039.00,0.0002
2038.00,0.0001
2037.00,0.0002
2036.00,0.0003
2035.00,0.0003
2034.00,0.0002
2033.00,0.0001
2032.00,0.0000
2031.00,-0.0001
2030.00,-0.0002
2029.00,-0.0003
2028.00,-0.0004
2027.00,-0.0005
2026.00,-0.0005
2025.00,-0.0005
2024.00,-0.0005
2023.00,-0.0006
2022.00,-0.0007
2021.00,-0.0007
2020.00,-0.0006
2019.00,-0.0006
2018.00,-0.0008
2017.00,-0.0010
2016.00,-0.0011
2015.00,-0.0010
2014.00,-0.0009
2013.00,-0.0007
2012.00,-0.0006
2011.00,-0.0005
2010.00,-0.0005
2009.00,-0.0005
2008.00,-0.0006
2007.00,-0.0008
2006.00,-0.0010
2005.00,-0.0011
2004.00,-0.0011
2003.00,-0.0012
2002.00,-0.0012
2001.00,-0.0012
2000.00,-0.0010
1999.00,-0.0008
1998.00,-0.0007
1997.00,-0.0007
1996.00,-0.0007
1995.00,-0.0007
1994.00,-0.0006
1993.00,-0.0003
1992.00,-0.0000
1991.00,0.0002
1990.00,0.0003
1989.00,0.0003
1988.00,0.0003
1987.00,0.0004
1986.00,0.0006
1985.00,0.0008
1984.00,0.0009
1983.00,0.0010
1982.00,0.0011
1981.00,0.0013
1980.00,0.0015
1979.00,0.0014
1978.00,0.0010
1977.00,0.0005
1976.00,0.0002
1975.00,0.0000
1974.00,-0.0001
1973.00,-0.0001
1972.00,-0.0002
1971.00,-0.0002
1970.00,-0.0003
1969.00,-0.0003
1968.00,-0.0003
1967.00,-0.0004
1966.00,-0.0005
1965.00,-0.0006
1964.00,-0.0007
1963.00,-0.0009
1962.00,-0.0011
1961.00,-0.0013
1960.00,-0.0014
1959.00,-0.0016
1958.00,-0.0016
1957.00,-0.0016
1956.00,-0.0015
1955.00,-0.0015
1954.00,-0.0014
1953.00,-0.0012
1952.00,-0.0011
1951.00,-0.0011
1950.00,-0.0011
1949.00,-0.0010
1948.00,-0.0010
1947.00,-0.0010
1946.00,-0.0010
1945.00,-0.0010
1944.00,-0.0009
1943.00,-0.0009
1942.00,-0.0009
1941.00,-0.0010
1940.00,-0.0010
1939.00,-0.0010
1938.00,-0.0009
1937.00,-0.0009
1936.00,-0.0009
1935.00,-0.0010
1934.00,-0.0010
1933.00,-0.0009
1932.00,-0.0008
1931.00,-0.0006
1930.00,-0.0004
1929.00,-0.0002
1928.00,-0.0002
1927.00,-0.0001
1926.00,-0.0001
1925.00,-0.0001
1924.00,-0.0001
1923.00,-0.0002
1922.00,-0.0003
1921.00,-0.0003
1920.00,-0.0003
1919.00,-0.0003
1918.00,-0.0001
1917.00,0.0000
1916.00,0.0002
1915.00,0.0004
1914.00,0.0004
1913.00,0.0004
1912.00,0.0003
1911.00,0.0001
1910.00,0.0001
1909.00,0.0001
1908.00,0.0002
1907.00,0.0002
1906.00,0.0002
1905.00,0.0002
1904.00,0.0002
1903.00,0.0002
1902.00,0.0002
1901.00,0.0003
1900.00,0.0004
1899.00,0.0004
1898.00,0.0004
1897.00,0.0004
1896.00,0.0004
1895.00,0.0004
1894.00,0.0004
1893.00,0.0004
1892.00,0.0003
1891.00,0.0003
1890.00,0.0002
1889.00,0.0002
1888.00,0.0002
1887.00,0.0002
1886.00,0.0002
1885.00,0.0002
1884.00,0.0002
1883.00,0.0002
1882.00,0.0002
1881.00,0.0002
1880.00,0.0003
1879.00,0.0003
1878.00,0.0003
1877.00,0.0003
1876.00,0.0003
1875.00,0.0003
1874.00,0.0003
1873.00,0.0003
1872.00,0.0004
1871.00,0.0005
1870.00,0.0005
1869.00,0.0005
1868.00,0.0005
1867.00,0.0004
1866.00,0.0004
1865.00,0.0004
1864.00,0.0004
1863.00,0.0005
1862.00,0.0005
1861.00,0.0006
1860.00,0.0007
1859.00,0.0007
1858.00,0.0007
1857.00,0.0006
1856.00,0.0006
1855.00,0.0006
1854.00,0.0005
1853.00,0.0005
1852.00,0.0005
1851.00,0.0006
1850.00,0.0006
1849.00,0.0006
1848.00,0.0006
1847.00,0.0006
1846.00,0.0006
1845.00,0.0006
1844.00,0.0006
1843.00,0.0006
1842.00,0.0006
1841.00,0.0006
1840.00,0.0006
1839.00,0.0005
1838.00,0.0005
1837.00,0.0006
1836.00,0.0006
1835.00,0.0007
1834.00,0.0007
1833.00,0.0007
1832.00,0.0007
1831.00,0.0007
1830.00,0.0007
1829.00,0.0007
1828.00,0.0008
1827.00,0.0009
1826.00,0.0009
1825.00,0.0008
1824.00,0.0008
1823.00,0.0008
1822.00,0.0007
1821.00,0.0007
1820.00,0.0006
1819.00,0.0005
1818.00,0.0004
1817.00,0.0004
1816.00,0.0004
1815.00,0.0004
1814.00,0.0005
1813.00,0.0006
1812.00,0.0007
1811.00,0.0008
1810.00,0.0008
1809.00,0.0008
1808.00,0.0008
1807.00,0.0007
1806.00,0.0007
1805.00,0.0007
1804.00,0.0008
1803.00,0.0009
1802.00,0.0010
1801.00,0.0010
1800.00,0.0010
1799.00,0.0010
1798.00,0.0010
1797.00,0.0010
1796.00,0.0010
1795.00,0.0010
1794.00,0.0010
1793.00,0.0011
1792.00,0.0012
1791.00,0.0012
1790.00,0.0012
1789.00,0.0012
1788.00,0.0012
1787.00,0.0013
1786.00,0.0013
1785.00,0.0013
1784.00,0.0013
1783.00,0.0013
1782.00,0.0013
1781.00,0.0013
1780.00,0.0014
1779.00,0.0014
1778.00,0.0013
1777.00,0.0013
1776.00,0.0014
1775.00,0.0014
1774.00,0.0014
1773.00,0.0014
1772.00,0.0014
1771.00,0.0015
1770.00,0.0015
1769.00,0.0016
1768.00,0.0016
1767.00,0.0016
1766.00,0.0015
1765.00,0.0016
1764.00,0.0016
1763.00,0.0016
1762.00,0.0017
1761.00,0.0017
1760.00,0.0018
1759.00,0.0019
1758.00,0.0019
1757.00,0.0019
1756.00,0.0019
1755.00,0.0020
1754.00,0.0020
1753.00,0.0021
1752.00,0.0023
1751.00,0.0024
1750.00,0.0024
1749.00,0.0025
1748.00,0.0025
1747.00,0.0026
1746.00,0.0027
1745.00,0.0028
1744.00,0.0028
1743.00,0.0029
1742.00,0.0030
1741.00,0.0031
1740.00,0.0032
1739.00,0.0032
1738.00,0.0032
1737.00,0.0032
1736.00,0.0032
1735.00,0.0032
1734.00,0.0033
1733.00,0.0033
1732.00,0.0034
1731.00,0.0034
1730.00,0.0034
1729.00,0.0034
1728.00,0.0034
1727.00,0.0033
1726.00,0.0033
1725.00,0.0033
1724.00,0.0032
1723.00,0.0032
1722.00,0.0032
1721.00,0.0032
1720.00,0.0033
1719.00,0.0033
1718.00,0.0033
1717.00,0.0034
1716.00,0.0034
1715.00,0.0033
1714.00,0.0033
1713.00,0.0033
1712.00,0.0033
1711.00,0.0034
1710.00,0.0035
1709.00,0.0035
1708.00,0.0035
1707.00,0.0036
1706.00,0.0036
1705.00,0.0037
1704.00,0.0038
1703.00,0.0038
1702.00,0.0039
1701.00,0.0041
1700.00,0.0043
1699.00,0.0045
1698.00,0.0045
1697.00,0.0045
1696.00,0.0046
1695.00,0.0047
1694.00,0.0047
1693.00,0.0048
1692.00,0.0048
1691.00,0.0050
1690.00,0.0051
1689.00,0.0052
1688.00,0.0053
1687.00,0.0054
1686.00,0.0055
1685.00,0.0057
1684.00,0.0061
1683.00,0.0064
1682.00,0.0066
1681.00,0.0067
1680.00,0.0068
1679.00,0.0070
1678.00,0.0071
1677.00,0.0073
1676.00,0.0076
1675.00,0.0078
1674.00,0.0080
1673.00,0.0081
1672.00,0.0082
1671.00,0.0083
1670.00,0.0084
1669.00,0.0086
1668.00,0.0088
1667.00,0.0089
1666.00,0.0090
1665.00,0.0090
1664.00,0.0092
1663.00,0.0093
1662.00,0.0093
1661.00,0.0094
1660.00,0.0095
1659.00,0.0096
1658.00,0.0097
1657.00,0.0099
1656.00,0.0100
1655.00,0.0102
1654.00,0.0104
1653.00,0.0108
1652.00,0.0112
1651.00,0.0114
1650.00,0.0115
1649.00,0.0116
1648.00,0.0118
1647.00,0.0120
1646.00,0.0121
1645.00,0.0121
1644.00,0.0120
1643.00,0.0119
1642.00,0.0118
1641.00,0.0117
1640.00,0.0117
1639.00,0.0117
1638.00,0.0116
1637.00,0.0116
1636.00,0.0116
1635.00,0.0117
1634.00,0.0117
1633.00,0.0117
1632.00,0.0117
1631.00,0.0116
1630.00,0.0116
1629.00,0.0116
1628.00,0.0116
1627.00,0.0115
1626.00,0.0114
1625.00,0.0113
1624.00,0.0112
1623.00,0.0111
1622.00,0.0111
1621.00,0.0111
1620.00,0.0111
1619.00,0.0111
1618.00,0.0111
1617.00,0.0111
1616.00,0.0111
1615.00,0.0111
1614.00,0.0110
1613.00,0.0109
1612.00,0.0109
1611.00,0.0109
1610.00,0.0110
1609.00,0.0110
1608.00,0.0110
1607.00,0.0110
1606.00,0.0110
1605.00,0.0110
1604.00,0.0110
1603.00,0.0110
1602.00,0.0111
1601.00,0.0111
1600.00,0.0112
1599.00,0.0112
1598.00,0.0111
1597.00,0.0111
1596.00,0.0111
1595.00,0.0112
1594.00,0.0112
1593.00,0.0113
1592.00,0.0114
1591.00,0.0115
1590.00,0.0117
1589.00,0.0119
1588.00,0.0121
1587.00,0.0124
1586.00,0.0127
1585.00,0.0132
1584.00,0.0137
1583.00,0.0143
1582.00,0.0148
1581.00,0.0154
1580.00,0.0158
1579.00,0.0162
1578.00,0.0163
1577.00,0.0162
1576.00,0.0159
1575.00,0.0155
1574.00,0.0151
1573.00,0.0149
1572.00,0.0146
1571.00,0.0142
1570.00,0.0137
1569.00,0.0132
1568.00,0.0128
1567.00,0.0125
1566.00,0.0123
1565.00,0.0122
1564.00,0.0121
1563.00,0.0120
1562.00,0.0120
1561.00,0.0120
1560.00,0.0121
1559.00,0.0120
1558.00,0.0121
1557.00,0.0123
1556.00,0.0124
1555.00,0.0126
1554.00,0.0127
1553.00,0.0130
1552.00,0.0132
1551.00,0.0135
1550.00,0.0139
1549.00,0.0144
1548.00,0.0149
1547.00,0.0154
1546.00,0.0160
1545.00,0.0166
1544.00,0.0173
1543.00,0.0178
1542.00,0.0182
1541.00,0.0184
1540.00,0.0179
1539.00,0.0172
1538.00,0.0164
1537.00,0.0158
1536.00,0.0152
1535.00,0.0145
1534.00,0.0137
1533.00,0.0128
1532.00,0.0122
1531.00,0.0117
1530.00,0.0113
1529.00,0.0110
1528.00,0.0107
1527.00,0.0104
1526.00,0.0100
1525.00,0.0098
1524.00,0.0097
1523.00,0.0095
1522.00,0.0093
1521.00,0.0092
1520.00,0.0092
1519.00,0.0092
1518.00,0.0092
1517.00,0.0092
1516.00,0.0092
1515.00,0.0091
1514.00,0.0090
1513.00,0.0091
1512.00,0.0092
1511.00,0.0092
1510.00,0.0092
1509.00,0.0093
1508.00,0.0094
1507.00,0.0094
1506.00,0.0094
1505.00,0.0096
1504.00,0.0097
1503.00,0.0098
1502.00,0.0099
1501.00,0.0101
1500.00,0.0105
1499.00,0.0110
1498.00,0.0114
1497.00,0.0119
1496.00,0.0125
1495.00,0.0129
1494.00,0.0132
1493.00,0.0137
1492.00,0.0142
1491.00,0.0146
1490.00,0.0150
1489.00,0.0155
1488.00,0.0161
1487.00,0.0167
1486.00,0.0173
1485.00,0.0181
1484.00,0.0190
1483.00,0.0200
1482.00,0.0212
1481.00,0.0227
1480.00,0.0243
1479.00,0.0259
1478.00,0.0276
1477.00,0.0298
1476.00,0.0322
1475.00,0.0349
1474.00,0.0386
1473.00,0.0439
1472.00,0.0504
1471.00,0.0566
1470.00,0.0626
1469.00,0.0689
1468.00,0.0757
1467.00,0.0833
1466.00,0.0920
1465.00,0.1016
1464.00,0.1102
1463.00,0.1163
1462.00,0.1202
1461.00,0.1230
1460.00,0.1251
1459.00,0.1265
1458.00,0.1278
1457.00,0.1290
1456.00,0.1293
1455.00,0.1287
1454.00,0.1276
1453.00,0.1260
1452.00,0.1233
1451.00,0.1194
1450.00,0.1139
1449.00,0.1062
1448.00,0.0966
1447.00,0.0866
1446.00,0.0777
1445.00,0.0702
1444.00,0.0639
1443.00,0.0588
1442.00,0.0552
1441.00,0.0528
1440.00,0.0515
1439.00,0.0512
1438.00,0.0517
1437.00,0.0522
1436.00,0.0513
1435.00,0.0486
1434.00,0.0447
1433.00,0.0399
1432.00,0.0350
1431.00,0.0307
1430.00,0.0274
1429.00,0.0251
1428.00,0.0235
1427.00,0.0226
1426.00,0.0221
1425.00,0.0217
1424.00,0.0213
1423.00,0.0210
1422.00,0.0209
1421.00,0.0208
1420.00,0.0205
1419.00,0.0203
1418.00,0.0201
1417.00,0.0197
1416.00,0.0192
1415.00,0.0188
1414.00,0.0185
1413.00,0.0182
1412.00,0.0178
1411.00,0.0176
1410.00,0.0174
1409.00,0.0171
1408.00,0.0169
1407.00,0.0168
1406.00,0.0167
1405.00,0.0166
1404.00,0.0164
1403.00,0.0164
1402.00,0.0165
1401.00,0.0166
1400.00,0.0165
1399.00,0.0166
1398.00,0.0168
1397.00,0.0170
1396.00,0.0172
1395.00,0.0176
1394.00,0.0181
1393.00,0.0186
1392.00,0.0192
1391.00,0.0200
1390.00,0.0211
1389.00,0.0228
1388.00,0.0254
1387.00,0.0292
1386.00,0.0343
1385.00,0.0407
1384.00,0.0492
1383.00,0.0606
1382.00,0.0758
1381.00,0.0955
1380.00,0.1201
1379.00,0.1484
1378.00,0.1763
1377.00,0.1975
1376.00,0.2058
1375.00,0.1971
1374.00,0.1738
1373.00,0.1446
1372.00,0.1174
1371.00,0.0948
1370.00,0.0766
1369.00,0.0626
1368.00,0.0528
1367.00,0.0468
1366.00,0.0435
1365.00,0.0422
1364.00,0.0424
1363.00,0.0439
1362.00,0.0463
1361.00,0.0488
1360.00,0.0507
1359.00,0.0512
1358.00,0.0500
1357.00,0.0472
1356.00,0.0431
1355.00,0.0385
1354.00,0.0341
1353.00,0.0303
1352.00,0.0273
1351.00,0.0249
1350.00,0.0230
1349.00,0.0214
1348.00,0.0202
1347.00,0.0193
1346.00,0.0185
1345.00,0.0179
1344.00,0.0174
1343.00,0.0170
1342.00,0.0166
1341.00,0.0162
1340.00,0.0158
1339.00,0.0155
1338.00,0.0153
1337.00,0.0152
1336.00,0.0152
1335.00,0.0154
1334.00,0.0157
1333.00,0.0162
1332.00,0.0167
1331.00,0.0170
1330.00,0.0171
1329.00,0.0169
1328.00,0.0165
1327.00,0.0159
1326.00,0.0152
1325.00,0.0146
1324.00,0.0140
1323.00,0.0135
1322.00,0.0131
1321.00,0.0128
1320.00,0.0125
1319.00,0.0122
1318.00,0.0119
1317.00,0.0117
1316.00,0.0114
1315.00,0.0112
1314.00,0.0112
1313.00,0.0112
1312.00,0.0113
1311.00,0.0115
1310.00,0.0119
1309.00,0.0125
1308.00,0.0133
1307.00,0.0143
1306.00,0.0153
1305.00,0.0161
1304.00,0.0164
1303.00,0.0163
1302.00,0.0159
1301.00,0.0156
1300.00,0.0155
1299.00,0.0155
1298.00,0.0156
1297.00,0.0156
1296.00,0.0156
1295.00,0.0153
1294.00,0.0149
1293.00,0.0144
1292.00,0.0139
1291.00,0.0133
1290.00,0.0128
1289.00,0.0123
1288.00,0.0118
1287.00,0.0115
1286.00,0.0112
1285.00,0.0110
1284.00,0.0107
1283.00,0.0106
1282.00,0.0104
1281.00,0.0104
1280.00,0.0103
1279.00,0.0103
1278.00,0.0102
1277.00,0.0102
1276.00,0.0101
1275.00,0.0100
1274.00,0.0100
1273.00,0.0100
1272.00,0.0100
1271.00,0.0100
1270.00,0.0101
1269.00,0.0102
1268.00,0.0103
1267.00,0.0106
1266.00,0.0109
1265.00,0.0112
1264.00,0.0116
1263.00,0.0119
1262.00,0.0123
1261.00,0.0127
1260.00,0.0132
1259.00,0.0138
1258.00,0.0145
1257.00,0.0151
1256.00,0.0153
1255.00,0.0152
1254.00,0.0147
1253.00,0.0140
1252.00,0.0133
1251.00,0.0127
1250.00,0.0123
1249.00,0.0120
1248.00,0.0118
1247.00,0.0116
1246.00,0.0115
1245.00,0.0114
1244.00,0.0114
1243.00,0.0113
1242.00,0.0112
1241.00,0.0112
1240.00,0.0111
1239.00,0.0110
1238.00,0.0110
1237.00,0.0110
1236.00,0.0109
1235.00,0.0109
1234.00,0.0109
1233.00,0.0109
1232.00,0.0109
1231.00,0.0109
1230.00,0.0110
1229.00,0.0111
1228.00,0.0112
1227.00,0.0113
1226.00,0.0116
1225.00,0.0118
1224.00,0.0122
1223.00,0.0126
1222.00,0.0130
1221.00,0.0133
1220.00,0.0136
1219.00,0.0137
1218.00,0.0136
1217.00,0.0134
1216.00,0.0131
1215.00,0.0128
1214.00,0.0124
1213.00,0.0121
1212.00,0.0117
1211.00,0.0114
1210.00,0.0112
1209.00,0.0109
1208.00,0.0107
1207.00,0.0106
1206.00,0.0105
1205.00,0.0104
1204.00,0.0103
1203.00,0.0103
1202.00,0.0103
1201.00,0.0103
1200.00,0.0103
1199.00,0.0103
1198.00,0.0104
1197.00,0.0105
1196.00,0.0105
1195.00,0.0106
1194.00,0.0106
1193.00,0.0106
1192.00,0.0105
1191.00,0.0105
1190.00,0.0105
1189.00,0.0105
1188.00,0.0105
1187.00,0.0105
1186.00,0.0105
1185.00,0.0106
1184.00,0.0107
1183.00,0.0109
1182.00,0.0110
1181.00,0.0113
1180.00,0.0116
1179.00,0.0121
1178.00,0.0127
1177.00,0.0135
1176.00,0.0146
1175.00,0.0160
1174.00,0.0178
1173.00,0.0201
1172.00,0.0229
1171.00,0.0259
1170.00,0.0288
1169.00,0.0312
1168.00,0.0326
1167.00,0.0330
1166.00,0.0325
1165.00,0.0313
1164.00,0.0298
1163.00,0.0282
1162.00,0.0268
1161.00,0.0257
1160.00,0.0248
1159.00,0.0242
1158.00,0.0237
1157.00,0.0234
1156.00,0.0232
1155.00,0.0230
1154.00,0.0229
1153.00,0.0227
1152.00,0.0224
1151.00,0.0219
1150.00,0.0212
1149.00,0.0204
1148.00,0.0195
1147.00,0.0185
1146.00,0.0177
1145.00,0.0169
1144.00,0.0162
1143.00,0.0156
1142.00,0.0151
1141.00,0.0147
1140.00,0.0142
1139.00,0.0138
1138.00,0.0135
1137.00,0.0132
1136.00,0.0130
1135.00,0.0129
1134.00,0.0128
1133.00,0.0128
1132.00,0.0128
1131.00,0.0129
1130.00,0.0131
1129.00,0.0133
1128.00,0.0134
1127.00,0.0136
1126.00,0.0138
1125.00,0.0140
1124.00,0.0142
1123.00,0.0144
1122.00,0.0146
1121.00,0.0147
1120.00,0.0147
1119.00,0.0148
1118.00,0.0150
1117.00,0.0152
1116.00,0.0154
1115.00,0.0155
1114.00,0.0156
1113.00,0.0157
1112.00,0.0158
1111.00,0.0160
1110.00,0.0162
1109.00,0.0166
1108.00,0.0171
1107.00,0.0176
1106.00,0.0183
1105.00,0.0189
1104.00,0.0194
1103.00,0.0197
1102.00,0.0196
1101.00,0.0192
1100.00,0.0187
1099.00,0.0181
1098.00,0.0175
1097.00,0.0169
1096.00,0.0164
1095.00,0.0158
1094.00,0.0154
1093.00,0.0150
1092.00,0.0147
1091.00,0.0145
1090.00,0.0143
1089.00,0.0141
1088.00,0.0139
1087.00,0.0138
1086.00,0.0137
1085.00,0.0136
1084.00,0.0134
1083.00,0.0133
1082.00,0.0133
1081.00,0.0132
1080.00,0.0130
1079.00,0.0129
1078.00,0.0127
1077.00,0.0125
1076.00,0.0124
1075.00,0.0123
1074.00,0.0122
1073.00,0.0121
1072.00,0.0121
1071.00,0.0121
1070.00,0.0121
1069.00,0.0121
1068.00,0.0121
1067.00,0.0121
1066.00,0.0121
1065.00,0.0120
1064.00,0.0120
1063.00,0.0120
1062.00,0.0119
1061.00,0.0119
1060.00,0.0118
1059.00,0.0118
1058.00,0.0118
1057.00,0.0119
1056.00,0.0119
1055.00,0.0120
1054.00,0.0121
1053.00,0.0122
1052.00,0.0124
1051.00,0.0126
1050.00,0.0128
1049.00,0.0129
1048.00,0.0131
1047.00,0.0133
1046.00,0.0135
1045.00,0.0137
1044.00,0.0138
1043.00,0.0138
1042.00,0.0137
1041.00,0.0135
1040.00,0.0134
1039.00,0.0133
1038.00,0.0133
1037.00,0.0134
1036.00,0.0134
1035.00,0.0134
1034.00,0.0132
1033.00,0.0130
1032.00,0.0127
1031.00,0.0126
1030.00,0.0124
1029.00,0.0123
1028.00,0.0122
1027.00,0.0120
1026.00,0.0119
1025.00,0.0119
1024.00,0.0119
1023.00,0.0119
1022.00,0.0119
1021.00,0.0119
1020.00,0.0119
1019.00,0.0119
1018.00,0.0120
1017.00,0.0121
1016.00,0.0123
1015.00,0.0127
1014.00,0.0131
1013.00,0.0136
1012.00,0.0140
1011.00,0.0143
1010.00,0.0146
1009.00,0.0148
1008.00,0.0150
1007.00,0.0153
1006.00,0.0159
1005.00,0.0169
1004.00,0.0183
1003.00,0.0202
1002.00,0.0227
1001.00,0.0258
1000.00,0.0291
999.00,0.0318
998.00,0.0330
997.00,0.0323
996.00,0.0298
995.00,0.0263
994.00,0.0227
993.00,0.0195
992.00,0.0170
991.00,0.0151
990.00,0.0139
989.00,0.0131
988.00,0.0126
987.00,0.0123
986.00,0.0123
985.00,0.0125
984.00,0.0129
983.00,0.0136
982.00,0.0146
981.00,0.0161
980.00,0.0182
979.00,0.0209
978.00,0.0243
977.00,0.0282
976.00,0.0324
975.00,0.0364
974.00,0.0392
973.00,0.0402
972.00,0.0389
971.00,0.0356
970.00,0.0310
969.00,0.0264
968.00,0.0225
967.00,0.0194
966.00,0.0171
965.00,0.0154
964.00,0.0142
963.00,0.0133
962.00,0.0125
961.00,0.0119
960.00,0.0114
959.00,0.0110
958.00,0.0107
957.00,0.0104
956.00,0.0102
955.00,0.0101
954.00,0.0099
953.00,0.0099
952.00,0.0098
951.00,0.0098
950.00,0.0098
949.00,0.0097
948.00,0.0097
947.00,0.0098
946.00,0.0099
945.00,0.0102
944.00,0.0106
943.00,0.0110
942.00,0.0114
941.00,0.0115
940.00,0.0114
939.00,0.0110
938.00,0.0105
937.00,0.0100
936.00,0.0094
935.00,0.0090
934.00,0.0086
933.00,0.0083
932.00,0.0081
931.00,0.0079
930.00,0.0078
929.00,0.0078
928.00,0.0077
927.00,0.0077
926.00,0.0078
925.00,0.0078
924.00,0.0079
923.00,0.0079
922.00,0.0079
921.00,0.0080
920.00,0.0080
919.00,0.0081
918.00,0.0082
917.00,0.0083
916.00,0.0083
915.00,0.0083
914.00,0.0083
913.00,0.0084
912.00,0.0086
911.00,0.0088
910.00,0.0090
909.00,0.0092
908.00,0.0094
907.00,0.0098
906.00,0.0104
905.00,0.0115
904.00,0.0131
903.00,0.0152
902.00,0.0174
901.00,0.0195
900.00,0.0209
899.00,0.0212
898.00,0.0204
897.00,0.0187
896.00,0.0165
895.00,0.0143
894.00,0.0125
893.00,0.0112
892.00,0.0103
891.00,0.0097
890.00,0.0094
889.00,0.0093
888.00,0.0091
887.00,0.0089
886.00,0.0088
885.00,0.0087
884.00,0.0087
883.00,0.0088
882.00,0.0089
881.00,0.0090
880.00,0.0090
879.00,0.0091
878.00,0.0092
877.00,0.0093
876.00,0.0094
875.00,0.0093
874.00,0.0093
873.00,0.0092
872.00,0.0090
871.00,0.0088
870.00,0.0085
869.00,0.0084
868.00,0.0083
867.00,0.0084
866.00,0.0085
865.00,0.0085
864.00,0.0086
863.00,0.0086
862.00,0.0087
861.00,0.0089
860.00,0.0092
859.00,0.0095
858.00,0.0098
857.00,0.0099
856.00,0.0100
855.00,0.0101
854.00,0.0102
853.00,0.0104
852.00,0.0107
851.00,0.0112
850.00,0.0118
849.00,0.0125
848.00,0.0135
847.00,0.0149
846.00,0.0169
845.00,0.0198
844.00,0.0237
843.00,0.0277
842.00,0.0307
841.00,0.0313
840.00,0.0293
839.00,0.0256
838.00,0.0217
837.00,0.0187
836.00,0.0166
835.00,0.0153
834.00,0.0145
833.00,0.0139
832.00,0.0135
831.00,0.0132
830.00,0.0130
829.00,0.0128
828.00,0.0125
827.00,0.0123
826.00,0.0121
825.00,0.0120
824.00,0.0118
823.00,0.0118
822.00,0.0119
821.00,0.0122
820.00,0.0125
819.00,0.0128
818.00,0.0133
817.00,0.0139
816.00,0.0148
815.00,0.0160
814.00,0.0175
813.00,0.0193
812.00,0.0212
811.00,0.0230
810.00,0.0244
809.00,0.0250
808.00,0.0248
807.00,0.0237
806.00,0.0221
805.00,0.0202
804.00,0.0183
803.00,0.0167
802.00,0.0154
801.00,0.0144
800.00,0.0135
799.00,0.0128
798.00,0.0122
797.00,0.0118
796.00,0.0114
795.00,0.0110
794.00,0.0107
793.00,0.0105
792.00,0.0104
791.00,0.0102
790.00,0.0100
789.00,0.0098
788.00,0.0096
787.00,0.0093
786.00,0.0091
785.00,0.0088
784.00,0.0087
783.00,0.0086
782.00,0.0085
781.00,0.0084
780.00,0.0083
779.00,0.0081
778.00,0.0080
777.00,0.0080
776.00,0.0081
775.00,0.0083
774.00,0.0085
773.00,0.0088
772.00,0.0092
771.00,0.0095
770.00,0.0098
769.00,0.0100
768.00,0.0100
767.00,0.0100
766.00,0.0099
765.00,0.0097
764.00,0.0093
763.00,0.0090
762.00,0.0086
761.00,0.0083
760.00,0.0081
759.00,0.0079
758.00,0.0079
757.00,0.0080
756.00,0.0081
755.00,0.0080
754.00,0.0079
753.00,0.0079
752.00,0.0079
751.00,0.0078
750.00,0.0077
749.00,0.0076
748.00,0.0075
747.00,0.0075
746.00,0.0076
745.00,0.0078
744.00,0.0079
743.00,0.0081
742.00,0.0084
741.00,0.0086
740.00,0.0089
739.00,0.0091
738.00,0.0092
737.00,0.0093
736.00,0.0095
735.00,0.0099
734.00,0.0102
733.00,0.0105
732.00,0.0105
731.00,0.0103
730.00,0.0102
729.00,0.0102
728.00,0.0102
727.00,0.0102
726.00,0.0102
725.00,0.0103
724.00,0.0105
723.00,0.0106
722.00,0.0107
721.00,0.0106
720.00,0.0103
719.00,0.0099
718.00,0.0095
717.00,0.0091
716.00,0.0088
715.00,0.0088
714.00,0.0089
713.00,0.0091
712.00,0.0091
711.00,0.0092
710.00,0.0092
709.00,0.0092
708.00,0.0092
707.00,0.0092
706.00,0.0092
705.00,0.0092
704.00,0.0091
703.00,0.0090
702.00,0.0088
701.00,0.0087
700.00,0.0086
699.00,0.0086
698.00,0.0086
697.00,0.0085
696.00,0.0084
695.00,0.0082
694.00,0.0082
693.00,0.0083
692.00,0.0084
691.00,0.0084
690.00,0.0083
689.00,0.0082
688.00,0.0082
687.00,0.0083
686.00,0.0084
685.00,0.0086
684.00,0.0087
683.00,0.0087
682.00,0.0088
681.00,0.0088
680.00,0.0088
679.00,0.0088
678.00,0.0087
677.00,0.0087
676.00,0.0088
675.00,0.0089
674.00,0.0090
673.00,0.0090
672.00,0.0089
671.00,0.0088
670.00,0.0088
669.00,0.0086
668.00,0.0083
667.00,0.0081
666.00,0.0082
665.00,0.0084
664.00,0.0085
663.00,0.0085
662.00,0.0085
661.00,0.0085
660.00,0.0085
659.00,0.0085
658.00,0.0084
657.00,0.0084
656.00,0.0083
655.00,0.0083
654.00,0.0082
653.00,0.0081
652.00,0.0082
651.00,0.0082
650.00,0.0083
649.00,0.0084
648.00,0.0084
647.00,0.0085
646.00,0.0087
645.00,0.0089
644.00,0.0090
643.00,0.0090
642.00,0.0087
641.00,0.0084
640.00,0.0081
639.00,0.0080
638.00,0.0080
637.00,0.0081
636.00,0.0082
635.00,0.0082
634.00,0.0083
633.00,0.0084
632.00,0.0085
631.00,0.0085
630.00,0.0086
629.00,0.0088
628.00,0.0091
627.00,0.0094
626.00,0.0095
625.00,0.0094
624.00,0.0093
623.00,0.0091
622.00,0.0090
621.00,0.0090
620.00,0.0091
619.00,0.0090
618.00,0.0087
617.00,0.0084
616.00,0.0082
615.00,0.0082
614.00,0.0083
613.00,0.0083
612.00,0.0083
611.00,0.0082
610.00,0.0080
609.00,0.0079
608.00,0.0078
607.00,0.0079
606.00,0.0079
605.00,0.0079
604.00,0.0078
603.00,0.0078
602.00,0.0078
601.00,0.0079
600.00,0.0082
599.00,0.0085
598.00,0.0087
597.00,0.0087
596.00,0.0086
595.00,0.0087
594.00,0.0088
593.00,0.0089
592.00,0.0089
591.00,0.0089
590.00,0.0089
589.00,0.0090
588.00,0.0091
587.00,0.0092
586.00,0.0093
585.00,0.0092
584.00,0.0090
583.00,0.0090
582.00,0.0092
581.00,0.0095
580.00,0.0097
579.00,0.0097
578.00,0.0098
577.00,0.0098
576.00,0.0097
575.00,0.0095
574.00,0.0093
573.00,0.0093
572.00,0.0095
571.00,0.0096
570.00,0.0094
569.00,0.0090
568.00,0.0085
567.00,0.0083
566.00,0.0084
565.00,0.0086
564.00,0.0088
563.00,0.0088
562.00,0.0088
561.00,0.0089
560.00,0.0091
559.00,0.0093
558.00,0.0094
557.00,0.0095
556.00,0.0094
555.00,0.0092
554.00,0.0090
553.00,0.0091
552.00,0.0092
551.00,0.0092
550.00,0.0088
549.00,0.0085
548.00,0.0084
547.00,0.0087
546.00,0.0090
545.00,0.0092
544.00,0.0093
543.00,0.0094
542.00,0.0096
541.00,0.0097
540.00,0.0097
539.00,0.0096
538.00,0.0094
537.00,0.0092
536.00,0.0091
535.00,0.0093
534.00,0.0096
533.00,0.0099
532.00,0.0101
531.00,0.0102
530.00,0.0106
529.00,0.0112
528.00,0.0117
527.00,0.0118
526.00,0.0113
525.00,0.0105
524.00,0.0100
523.00,0.0100
522.00,0.0103
521.00,0.0106
520.00,0.0106
519.00,0.0103
518.00,0.0098
517.00,0.0095
516.00,0.0094
515.00,0.0095
514.00,0.0095
513.00,0.0094
512.00,0.0094
511.00,0.0096
510.00,0.0099
509.00,0.0099
508.00,0.0097
507.00,0.0095
506.00,0.0094
505.00,0.0096
504.00,0.0099
503.00,0.0099
502.00,0.0095
501.00,0.0086
500.00,0.0078
499.00,0.0080
498.00,0.0089
497.00,0.0100
496.00,0.0105
495.00,0.0103
494.00,0.0099
493.00,0.0094
492.00,0.0089
491.00,0.0085
490.00,0.0082
489.00,0.0082
488.00,0.0082
487.00,0.0082
486.00,0.0079
485.00,0.0074
484.00,0.0073
483.00,0.0080
482.00,0.0091
481.00,0.0100
480.00,0.0100
479.00,0.0090
478.00,0.0078
477.00,0.0073
476.00,0.0078
475.00,0.0087
474.00,0.0095
473.00,0.0099
472.00,0.0102
471.00,0.0108
470.00,0.0117
469.00,0.0125
468.00,0.0132
467.00,0.0136
466.00,0.0138
465.00,0.0135
464.00,0.0133
463.00,0.0138
462.00,0.0154
461.00,0.0178
460.00,0.0200
459.00,0.0211
458.00,0.0208
457.00,0.0195
456.00,0.0182
455.00,0.0172
454.00,0.0164
453.00,0.0157
452.00,0.0147
451.00,0.0137
450.00,0.0132
