Created as New Dataset,Sample 169 By Administrator Date Tuesday, September 09 2025
cm-1,A
4000.00,0.0013
3999.00,0.0014
3998.00,0.0014
3997.00,0.0013
3996.00,0.0013
3995.00,0.0013
3994.00,0.0013
3993.00,0.0013
3992.00,0.0013
3991.00,0.0013
3990.00,0.0013
3989.00,0.0013
3988.00,0.0013
3987.00,0.0013
3986.00,0.0013
3985.00,0.0013
3984.00,0.0013
3983.00,0.0013
3982.00,0.0013
3981.00,0.0013
3980.00,0.0013
3979.00,0.0012
3978.00,0.0012
3977.00,0.0012
3976.00,0.0012
3975.00,0.0012
3974.00,0.0012
3973.00,0.0012
3972.00,0.0012
3971.00,0.0012
3970.00,0.0012
3969.00,0.0012
3968.00,0.0011
3967.00,0.0011
3966.00,0.0011
3965.00,0.0011
3964.00,0.0011
3963.00,0.0011
3962.00,0.0011
3961.00,0.0011
3960.00,0.0011
3959.00,0.0012
3958.00,0.0012
3957.00,0.0012
3956.00,0.0012
3955.00,0.0012
3954.00,0.0012
3953.00,0.0012
3952.00,0.0012
3951.00,0.0012
3950.00,0.0011
3949.00,0.0011
3948.00,0.0011
3947.00,0.0011
3946.00,0.0011
3945.00,0.0011
3944.00,0.0011
3943.00,0.0011
3942.00,0.0011
3941.00,0.0011
3940.00,0.0011
3939.00,0.0011
3938.00,0.0011
3937.00,0.0011
3936.00,0.0011
3935.00,0.0011
3934.00,0.0011
3933.00,0.0012
3932.00,0.0012
3931.00,0.0012
3930.00,0.0012
3929.00,0.0012
3928.00,0.0012
3927.00,0.0012
3926.00,0.0013
3925.00,0.0013
3924.00,0.0013
3923.00,0.0013
3922.00,0.0012
3921.00,0.0012
3920.00,0.0011
3919.00,0.0011
3918.00,0.0011
3917.00,0.0010
3916.00,0.0010
3915.00,0.0010
3914.00,0.0011
3913.00,0.0011
3912.00,0.0011
3911.00,0.0011
3910.00,0.0011
3909.00,0.0011
3908.00,0.0011
3907.00,0.0011
3906.00,0.0012
3905.00,0.0012
3904.00,0.0013
3903.00,0.0013
3902.00,0.0012
3901.00,0.0012
3900.00,0.0012
3899.00,0.0011
3898.00,0.0011
3897.00,0.0011
3896.00,0.0011
3895.00,0.0011
3894.00,0.0011
3893.00,0.0011
3892.00,0.0011
3891.00,0.0011
3890.00,0.0011
3889.00,0.0011
3888.00,0.0010
3887.00,0.0010
3886.00,0.0010
3885.00,0.0010
3884.00,0.0011
3883.00,0.0011
3882.00,0.0011
3881.00,0.0012
3880.00,0.0011
3879.00,0.0011
3878.00,0.0010
3877.00,0.0010
3876.00,0.0010
3875.00,0.0010
3874.00,0.0010
3873.00,0.0010
3872.00,0.0010
3871.00,0.0010
3870.00,0.0010
3869.00,0.0010
3868.00,0.0010
3867.00,0.0010
3866.00,0.0011
3865.00,0.0011
3864.00,0.0011
3863.00,0.0011
3862.00,0.0011
3861.00,0.0011
3860.00,0.0010
3859.00,0.0010
3858.00,0.0010
3857.00,0.0009
3856.00,0.0009
3855.00,0.0009
3854.00,0.0009
3853.00,0.0009
3852.00,0.0008
3851.00,0.0009
3850.00,0.0009
3849.00,0.0009
3848.00,0.0010
3847.00,0.0010
3846.00,0.0010
3845.00,0.0010
3844.00,0.0010
3843.00,0.0010
3842.00,0.0010
3841.00,0.0010
3840.00,0.0010
3839.00,0.0010
3838.00,0.0010
3837.00,0.0010
3836.00,0.0010
3835.00,0.0010
3834.00,0.0010
3833.00,0.0010
3832.00,0.0010
3831.00,0.0010
3830.00,0.0010
3829.00,0.0010
3828.00,0.0010
3827.00,0.0010
3826.00,0.0010
3825.00,0.0010
3824.00,0.0010
3823.00,0.0010
3822.00,0.0010
3821.00,0.0010
3820.00,0.0009
3819.00,0.0009
3818.00,0.0009
3817.00,0.0010
3816.00,0.0010
3815.00,0.0010
3814.00,0.0010
3813.00,0.0010
3812.00,0.0011
3811.00,0.0011
3810.00,0.0011
3809.00,0.0011
3808.00,0.0011
3807.00,0.0011
3806.00,0.0010
3805.00,0.0010
3804.00,0.0009
3803.00,0.0009
3802.00,0.0010
3801.00,0.0010
3800.00,0.0010
3799.00,0.0011
3798.00,0.0011
3797.00,0.0011
3796.00,0.0011
3795.00,0.0011
3794.00,0.0010
3793.00,0.0010
3792.00,0.0010
3791.00,0.0011
3790.00,0.0011
3789.00,0.0011
3788.00,0.0011
3787.00,0.0011
3786.00,0.0011
3785.00,0.0011
3784.00,0.0011
3783.00,0.0011
3782.00,0.0011
3781.00,0.0011
3780.00,0.0011
3779.00,0.0011
3778.00,0.0011
3777.00,0.0011
3776.00,0.0011
3775.00,0.0011
3774.00,0.0012
3773.00,0.0012
3772.00,0.0012
3771.00,0.0012
3770.00,0.0012
3769.00,0.0012
3768.00,0.0012
3767.00,0.0012
3766.00,0.0012
3765.00,0.0013
3764.00,0.0013
3763.00,0.0013
3762.00,0.0013
3761.00,0.0013
3760.00,0.0013
3759.00,0.0012
3758.00,0.0012
3757.00,0.0011
3756.00,0.0011
3755.00,0.0010
3754.00,0.0010
3753.00,0.0009
3752.00,0.0009
3751.00,0.0010
3750.00,0.0009
3749.00,0.0009
3748.00,0.0010
3747.00,0.0010
3746.00,0.0010
3745.00,0.0010
3744.00,0.0010
3743.00,0.0010
3742.00,0.0010
3741.00,0.0010
3740.00,0.0011
3739.00,0.0011
3738.00,0.0010
3737.00,0.0010
3736.00,0.0010
3735.00,0.0010
3734.00,0.0010
3733.00,0.0010
3732.00,0.0010
3731.00,0.0010
3730.00,0.0009
3729.00,0.0009
3728.00,0.0010
3727.00,0.0010
3726.00,0.0010
3725.00,0.0010
3724.00,0.0010
3723.00,0.0009
3722.00,0.0009
3721.00,0.0010
3720.00,0.0011
3719.00,0.0011
3718.00,0.0012
3717.00,0.0011
3716.00,0.0011
3715.00,0.0011
3714.00,0.0010
3713.00,0.0009
3712.00,0.0009
3711.00,0.0008
3710.00,0.0008
3709.00,0.0009
3708.00,0.0009
3707.00,0.0009
3706.00,0.0009
3705.00,0.0010
3704.00,0.0010
3703.00,0.0010
3702.00,0.0011
3701.00,0.0010
3700.00,0.0010
3699.00,0.0010
3698.00,0.0010
3697.00,0.0010
3696.00,0.0010
3695.00,0.0009
3694.00,0.0009
3693.00,0.0009
3692.00,0.0009
3691.00,0.0009
3690.00,0.0010
3689.00,0.0011
3688.00,0.0011
3687.00,0.0011
3686.00,0.0011
3685.00,0.0011
3684.00,0.0011
3683.00,0.0011
3682.00,0.0011
3681.00,0.0011
3680.00,0.0010
3679.00,0.0010
3678.00,0.0010
3677.00,0.0010
3676.00,0.0010
3675.00,0.0010
3674.00,0.0010
3673.00,0.0009
3672.00,0.0009
3671.00,0.0009
3670.00,0.0010
3669.00,0.0010
3668.00,0.0010
3667.00,0.0010
3666.00,0.0011
3665.00,0.0011
3664.00,0.0012
3663.00,0.0012
3662.00,0.0012
3661.00,0.0012
3660.00,0.0012
3659.00,0.0012
3658.00,0.0012
3657.00,0.0012
3656.00,0.0012
3655.00,0.0011
3654.00,0.0011
3653.00,0.0011
3652.00,0.0011
3651.00,0.0011
3650.00,0.0012
3649.00,0.0012
3648.00,0.0012
3647.00,0.0013
3646.00,0.0013
3645.00,0.0013
3644.00,0.0014
3643.00,0.0014
3642.00,0.0014
3641.00,0.0015
3640.00,0.0015
3639.00,0.0015
3638.00,0.0015
3637.00,0.0015
3636.00,0.0015
3635.00,0.0014
3634.00,0.0014
3633.00,0.0014
3632.00,0.0014
3631.00,0.0013
3630.00,0.0013
3629.00,0.0013
3628.00,0.0013
3627.00,0.0013
3626.00,0.0013
3625.00,0.0013
3624.00,0.0014
3623.00,0.0014
3622.00,0.0014
3621.00,0.0014
3620.00,0.0015
3619.00,0.0016
3618.00,0.0016
3617.00,0.0017
3616.00,0.0017
3615.00,0.0017
3614.00,0.0017
3613.00,0.0017
3612.00,0.0017
3611.00,0.0017
3610.00,0.0018
3609.00,0.0018
3608.00,0.0019
3607.00,0.0019
3606.00,0.0019
3605.00,0.0018
3604.00,0.0018
3603.00,0.0019
3602.00,0.0019
3601.00,0.0020
3600.00,0.0020
3599.00,0.0020
3598.00,0.0020
3597.00,0.0020
3596.00,0.0020
3595.00,0.0021
3594.00,0.0021
3593.00,0.0021
3592.00,0.0021
3591.00,0.0022
3590.00,0.0023
3589.00,0.0023
3588.00,0.0024
3587.00,0.0024
3586.00,0.0024
3585.00,0.0024
3584.00,0.0024
3583.00,0.0024
3582.00,0.0024
3581.00,0.0025
3580.00,0.0025
3579.00,0.0026
3578.00,0.0027
3577.00,0.0027
3576.00,0.0027
3575.00,0.0028
3574.00,0.0028
3573.00,0.0028
3572.00,0.0028
3571.00,0.0028
3570.00,0.0028
3569.00,0.0029
3568.00,0.0030
3567.00,0.0031
3566.00,0.0031
3565.00,0.0032
3564.00,0.0032
3563.00,0.0032
3562.00,0.0032
3561.00,0.0033
3560.00,0.0033
3559.00,0.0033
3558.00,0.0033
3557.00,0.0033
3556.00,0.0034
3555.00,0.0034
3554.00,0.0035
3553.00,0.0036
3552.00,0.0036
3551.00,0.0037
3550.00,0.0037
3549.00,0.0037
3548.00,0.0038
3547.00,0.0038
3546.00,0.0038
3545.00,0.0038
3544.00,0.0039
3543.00,0.0039
3542.00,0.0040
3541.00,0.0041
3540.00,0.0041
3539.00,0.0042
3538.00,0.0042
3537.00,0.0042
3536.00,0.0042
3535.00,0.0043
3534.00,0.0043
3533.00,0.0043
3532.00,0.0044
3531.00,0.0044
3530.00,0.0045
3529.00,0.0045
3528.00,0.0046
3527.00,0.0046
3526.00,0.0047
3525.00,0.0047
3524.00,0.0047
3523.00,0.0048
3522.00,0.0048
3521.00,0.0048
3520.00,0.0048
3519.00,0.0049
3518.00,0.0049
3517.00,0.0050
3516.00,0.0051
3515.00,0.0051
3514.00,0.0052
3513.00,0.0053
3512.00,0.0053
3511.00,0.0054
3510.00,0.0054
3509.00,0.0054
3508.00,0.0055
3507.00,0.0055
3506.00,0.0056
3505.00,0.0057
3504.00,0.0058
3503.00,0.0058
3502.00,0.0058
3501.00,0.0058
3500.00,0.0058
3499.00,0.0057
3498.00,0.0058
3497.00,0.0058
3496.00,0.0059
3495.00,0.0059
3494.00,0.0060
3493.00,0.0061
3492.00,0.0061
3491.00,0.0061
3490.00,0.0061
3489.00,0.0061
3488.00,0.0062
3487.00,0.0062
3486.00,0.0063
3485.00,0.0063
3484.00,0.0064
3483.00,0.0064
3482.00,0.0064
3481.00,0.0065
3480.00,0.0065
3479.00,0.0066
3478.00,0.0067
3477.00,0.0067
3476.00,0.0068
3475.00,0.0068
3474.00,0.0069
3473.00,0.0069
3472.00,0.0070
3471.00,0.0070
3470.00,0.0070
3469.00,0.0071
3468.00,0.0071
3467.00,0.0072
3466.00,0.0072
3465.00,0.0073
3464.00,0.0073
3463.00,0.0074
3462.00,0.0074
3461.00,0.0074
3460.00,0.0075
3459.00,0.0075
3458.00,0.0075
3457.00,0.0076
3456.00,0.0076
3455.00,0.0076
3454.00,0.0077
3453.00,0.0078
3452.00,0.0078
3451.00,0.0079
3450.00,0.0079
3449.00,0.0080
3448.00,0.0080
3447.00,0.0080
3446.00,0.0081
3445.00,0.0081
3444.00,0.0082
3443.00,0.0082
3442.00,0.0083
3441.00,0.0083
3440.00,0.0084
3439.00,0.0085
3438.00,0.0086
3437.00,0.0086
3436.00,0.0087
3435.00,0.0087
3434.00,0.0087
3433.00,0.0087
3432.00,0.0087
3431.00,0.0088
3430.00,0.0089
3429.00,0.0090
3428.00,0.0091
3427.00,0.0092
3426.00,0.0093
3425.00,0.0094
3424.00,0.0094
3423.00,0.0095
3422.00,0.0095
3421.00,0.0095
3420.00,0.0095
3419.00,0.0096
3418.00,0.0096
3417.00,0.0097
3416.00,0.0098
3415.00,0.0099
3414.00,0.0099
3413.00,0.0100
3412.00,0.0100
3411.00,0.0101
3410.00,0.0101
3409.00,0.0101
3408.00,0.0102
3407.00,0.0103
3406.00,0.0103
3405.00,0.0104
3404.00,0.0105
3403.00,0.0106
3402.00,0.0107
3401.00,0.0109
3400.00,0.0110
3399.00,0.0111
3398.00,0.0111
3397.00,0.0112
3396.00,0.0111
3395.00,0.0111
3394.00,0.0111
3393.00,0.0111
3392.00,0.0111
3391.00,0.0111
3390.00,0.0111
3389.00,0.0110
3388.00,0.0110
3387.00,0.0110
3386.00,0.0110
3385.00,0.0110
3384.00,0.0110
3383.00,0.0110
3382.00,0.0110
3381.00,0.0110
3380.00,0.0110
3379.00,0.0110
3378.00,0.0110
3377.00,0.0110
3376.00,0.0110
3375.00,0.0110
3374.00,0.0111
3373.00,0.0111
3372.00,0.0111
3371.00,0.0111
3370.00,0.0111
3369.00,0.0111
3368.00,0.0111
3367.00,0.0110
3366.00,0.0110
3365.00,0.0111
3364.00,0.0111
3363.00,0.0112
3362.00,0.0112
3361.00,0.0113
3360.00,0.0113
3359.00,0.0113
3358.00,0.0113
3357.00,0.0113
3356.00,0.0113
3355.00,0.0114
3354.00,0.0114
3353.00,0.0115
3352.00,0.0115
3351.00,0.0115
3350.00,0.0116
3349.00,0.0116
3348.00,0.0116
3347.00,0.0117
3346.00,0.0117
3345.00,0.0118
3344.00,0.0118
3343.00,0.0119
3342.00,0.0119
3341.00,0.0119
3340.00,0.0119
3339.00,0.0119
3338.00,0.0120
3337.00,0.0120
3336.00,0.0120
3335.00,0.0121
3334.00,0.0122
3333.00,0.0122
3332.00,0.0123
3331.00,0.0123
3330.00,0.0124
3329.00,0.0124
3328.00,0.0124
3327.00,0.0125
3326.00,0.0125
3325.00,0.0126
3324.00,0.0127
3323.00,0.0127
3322.00,0.0128
3321.00,0.0128
3320.00,0.0129
3319.00,0.0129
3318.00,0.0129
3317.00,0.0130
3316.00,0.0130
3315.00,0.0130
3314.00,0.0131
3313.00,0.0131
3312.00,0.0132
3311.00,0.0132
3310.00,0.0132
3309.00,0.0131
3308.00,0.0130
3307.00,0.0130
3306.00,0.0130
3305.00,0.0130
3304.00,0.0130
3303.00,0.0130
3302.00,0.0129
3301.00,0.0129
3300.00,0.0128
3299.00,0.0128
3298.00,0.0127
3297.00,0.0127
3296.00,0.0126
3295.00,0.0126
3294.00,0.0125
3293.00,0.0124
3292.00,0.0124
3291.00,0.0124
3290.00,0.0123
3289.00,0.0123
3288.00,0.0122
3287.00,0.0122
3286.00,0.0121
3285.00,0.0121
3284.00,0.0121
3283.00,0.0120
3282.00,0.0120
3281.00,0.0120
3280.00,0.0120
3279.00,0.0120
3278.00,0.0120
3277.00,0.0119
3276.00,0.0118
3275.00,0.0117
3274.00,0.0116
3273.00,0.0116
3272.00,0.0116
3271.00,0.0115
3270.00,0.0115
3269.00,0.0114
3268.00,0.0113
3267.00,0.0113
3266.00,0.0112
3265.00,0.0112
3264.00,0.0112
3263.00,0.0112
3262.00,0.0111
3261.00,0.0110
3260.00,0.0110
3259.00,0.0109
3258.00,0.0109
3257.00,0.0108
3256.00,0.0108
3255.00,0.0108
3254.00,0.0107
3253.00,0.0107
3252.00,0.0106
3251.00,0.0105
3250.00,0.0104
3249.00,0.0104
3248.00,0.0104
3247.00,0.0104
3246.00,0.0104
3245.00,0.0104
3244.00,0.0104
3243.00,0.0104
3242.00,0.0104
3241.00,0.0104
3240.00,0.0103
3239.00,0.0103
3238.00,0.0102
3237.00,0.0102
3236.00,0.0101
3235.00,0.0101
3234.00,0.0101
3233.00,0.0102
3232.00,0.0102
3231.00,0.0103
3230.00,0.0103
3229.00,0.0103
3228.00,0.0103
3227.00,0.0104
3226.00,0.0104
3225.00,0.0105
3224.00,0.0105
3223.00,0.0105
3222.00,0.0106
3221.00,0.0106
3220.00,0.0106
3219.00,0.0107
3218.00,0.0108
3217.00,0.0108
3216.00,0.0109
3215.00,0.0110
3214.00,0.0111
3213.00,0.0111
3212.00,0.0112
3211.00,0.0112
3210.00,0.0113
3209.00,0.0113
3208.00,0.0114
3207.00,0.0114
3206.00,0.0115
3205.00,0.0115
3204.00,0.0115
3203.00,0.0115
3202.00,0.0114
3201.00,0.0114
3200.00,0.0114
3199.00,0.0115
3198.00,0.0115
3197.00,0.0115
3196.00,0.0115
3195.00,0.0115
3194.00,0.0115
3193.00,0.0115
3192.00,0.0114
3191.00,0.0114
3190.00,0.0113
3189.00,0.0112
3188.00,0.0111
3187.00,0.0110
3186.00,0.0110
3185.00,0.0109
3184.00,0.0109
3183.00,0.0108
3182.00,0.0108
3181.00,0.0107
3180.00,0.0106
3179.00,0.0105
3178.00,0.0104
3177.00,0.0103
3176.00,0.0102
3175.00,0.0101
3174.00,0.0100
3173.00,0.0100
3172.00,0.0099
3171.00,0.0099
3170.00,0.0098
3169.00,0.0097
3168.00,0.0096
3167.00,0.0095
3166.00,0.0094
3165.00,0.0093
3164.00,0.0093
3163.00,0.0093
3162.00,0.0092
3161.00,0.0092
3160.00,0.0092
3159.00,0.0092
3158.00,0.0092
3157.00,0.0091
3156.00,0.0091
3155.00,0.0091
3154.00,0.0090
3153.00,0.0090
3152.00,0.0089
3151.00,0.0089
3150.00,0.0089
3149.00,0.0088
3148.00,0.0088
3147.00,0.0088
3146.00,0.0088
3145.00,0.0088
3144.00,0.0088
3143.00,0.0088
3142.00,0.0087
3141.00,0.0087
3140.00,0.0087
3139.00,0.0086
3138.00,0.0086
3137.00,0.0085
3136.00,0.0085
3135.00,0.0085
3134.00,0.0085
3133.00,0.0084
3132.00,0.0084
3131.00,0.0084
3130.00,0.0083
3129.00,0.0083
3128.00,0.0083
3127.00,0.0083
3126.00,0.0083
3125.00,0.0082
3124.00,0.0082
3123.00,0.0082
3122.00,0.0081
3121.00,0.0080
3120.00,0.0080
3119.00,0.0079
3118.00,0.0078
3117.00,0.0078
3116.00,0.0077
3115.00,0.0077
3114.00,0.0076
3113.00,0.0075
3112.00,0.0075
3111.00,0.0074
3110.00,0.0074
3109.00,0.0073
3108.00,0.0073
3107.00,0.0072
3106.00,0.0071
3105.00,0.0071
3104.00,0.0070
3103.00,0.0070
3102.00,0.0069
3101.00,0.0069
3100.00,0.0068
3099.00,0.0068
3098.00,0.0067
3097.00,0.0066
3096.00,0.0066
3095.00,0.0066
3094.00,0.0066
3093.00,0.0066
3092.00,0.0066
3091.00,0.0065
3090.00,0.0065
3089.00,0.0065
3088.00,0.0064
3087.00,0.0063
3086.00,0.0063
3085.00,0.0062
3084.00,0.0062
3083.00,0.0061
3082.00,0.0061
3081.00,0.0062
3080.00,0.0062
3079.00,0.0062
3078.00,0.0062
3077.00,0.0062
3076.00,0.0061
3075.00,0.0062
3074.00,0.0062
3073.00,0.0062
3072.00,0.0062
3071.00,0.0062
3070.00,0.0062
3069.00,0.0061
3068.00,0.0061
3067.00,0.0061
3066.00,0.0061
3065.00,0.0062
3064.00,0.0062
3063.00,0.0062
3062.00,0.0061
3061.00,0.0061
3060.00,0.0060
3059.00,0.0060
3058.00,0.0060
3057.00,0.0060
3056.00,0.0060
3055.00,0.0060
3054.00,0.0059
3053.00,0.0059
3052.00,0.0060
3051.00,0.0060
3050.00,0.0060
3049.00,0.0060
3048.00,0.0060
3047.00,0.0060
3046.00,0.0060
3045.00,0.0060
3044.00,0.0060
3043.00,0.0060
3042.00,0.0060
3041.00,0.0060
3040.00,0.0061
3039.00,0.0061
3038.00,0.0062
3037.00,0.0062
3036.00,0.0062
3035.00,0.0061
3034.00,0.0062
3033.00,0.0062
3032.00,0.0063
3031.00,0.0064
3030.00,0.0064
3029.00,0.0064
3028.00,0.0065
3027.00,0.0065
3026.00,0.0065
3025.00,0.0065
3024.00,0.0065
3023.00,0.0066
3022.00,0.0067
3021.00,0.0068
3020.00,0.0069
3019.00,0.0069
3018.00,0.0070
3017.00,0.0071
3016.00,0.0072
3015.00,0.0073
3014.00,0.0074
3013.00,0.0076
3012.00,0.0077
3011.00,0.0079
3010.00,0.0081
3009.00,0.0082
3008.00,0.0084
3007.00,0.0085
3006.00,0.0087
3005.00,0.0089
3004.00,0.0091
3003.00,0.0093
3002.00,0.0096
3001.00,0.0098
3000.00,0.0101
2999.00,0.0103
2998.00,0.0107
2997.00,0.0110
2996.00,0.0113
2995.00,0.0117
2994.00,0.0121
2993.00,0.0126
2992.00,0.0132
2991.00,0.0139
2990.00,0.0146
2989.00,0.0153
2988.00,0.0161
2987.00,0.0170
2986.00,0.0181
2985.00,0.0192
2984.00,0.0205
2983.00,0.0220
2982.00,0.0237
2981.00,0.0255
2980.00,0.0275
2979.00,0.0298
2978.00,0.0324
2977.00,0.0353
2976.00,0.0386
2975.00,0.0424
2974.00,0.0467
2973.00,0.0517
2972.00,0.0573
2971.00,0.0636
2970.00,0.0707
2969.00,0.0785
2968.00,0.0870
2967.00,0.0963
2966.00,0.1062
2965.00,0.1166
2964.00,0.1270
2963.00,0.1371
2962.00,0.1463
2961.00,0.1543
2960.00,0.1607
2959.00,0.1657
2958.00,0.1695
2957.00,0.1727
2956.00,0.1758
2955.00,0.1795
2954.00,0.1837
2953.00,0.1882
2952.00,0.1924
2951.00,0.1952
2950.00,0.1958
2949.00,0.1932
2948.00,0.1872
2947.00,0.1779
2946.00,0.1662
2945.00,0.1533
2944.00,0.1406
2943.00,0.1292
2942.00,0.1200
2941.00,0.1132
2940.00,0.1089
2939.00,0.1070
2938.00,0.1071
2937.00,0.1090
2936.00,0.1125
2935.00,0.1175
2934.00,0.1239
2933.00,0.1314
2932.00,0.1400
2931.00,0.1494
2930.00,0.1594
2929.00,0.1695
2928.00,0.1795
2927.00,0.1891
2926.00,0.1982
2925.00,0.2068
2924.00,0.2150
2923.00,0.2230
2922.00,0.2307
2921.00,0.2379
2920.00,0.2441
2919.00,0.2488
2918.00,0.2512
2917.00,0.2508
2916.00,0.2476
2915.00,0.2418
2914.00,0.2344
2913.00,0.2260
2912.00,0.2176
2911.00,0.2096
2910.00,0.2023
2909.00,0.1957
2908.00,0.1895
2907.00,0.1835
2906.00,0.1774
2905.00,0.1711
2904.00,0.1646
2903.00,0.1579
2902.00,0.1511
2901.00,0.1443
2900.00,0.1378
2899.00,0.1315
2898.00,0.1256
2897.00,0.1203
2896.00,0.1156
2895.00,0.1116
2894.00,0.1084
2893.00,0.1059
2892.00,0.1040
2891.00,0.1027
2890.00,0.1020
2889.00,0.1017
2888.00,0.1018
2887.00,0.1023
2886.00,0.1031
2885.00,0.1043
2884.00,0.1059
2883.00,0.1079
2882.00,0.1104
2881.00,0.1130
2880.00,0.1156
2879.00,0.1178
2878.00,0.1193
2877.00,0.1198
2876.00,0.1195
2875.00,0.1187
2874.00,0.1180
2873.00,0.1176
2872.00,0.1180
2871.00,0.1192
2870.00,0.1209
2869.00,0.1226
2868.00,0.1237
2867.00,0.1234
2866.00,0.1210
2865.00,0.1161
2864.00,0.1092
2863.00,0.1008
2862.00,0.0921
2861.00,0.0838
2860.00,0.0767
2859.00,0.0710
2858.00,0.0666
2857.00,0.0636
2856.00,0.0615
2855.00,0.0604
2854.00,0.0599
2853.00,0.0602
2852.00,0.0610
2851.00,0.0625
2850.00,0.0645
2849.00,0.0672
2848.00,0.0704
2847.00,0.0743
2846.00,0.0790
2845.00,0.0846
2844.00,0.0910
2843.00,0.0981
2842.00,0.1056
2841.00,0.1127
2840.00,0.1186
2839.00,0.1226
2838.00,0.1237
2837.00,0.1214
2836.00,0.1158
2835.00,0.1072
2834.00,0.0969
2833.00,0.0859
2832.00,0.0753
2831.00,0.0658
2830.00,0.0577
2829.00,0.0511
2828.00,0.0458
2827.00,0.0415
2826.00,0.0380
2825.00,0.0351
2824.00,0.0327
2823.00,0.0307
2822.00,0.0289
2821.00,0.0274
2820.00,0.0261
2819.00,0.0249
2818.00,0.0239
2817.00,0.0230
2816.00,0.0223
2815.00,0.0216
2814.00,0.0210
2813.00,0.0204
2812.00,0.0199
2811.00,0.0193
2810.00,0.0188
2809.00,0.0183
2808.00,0.0177
2807.00,0.0171
2806.00,0.0165
2805.00,0.0158
2804.00,0.0152
2803.00,0.0146
2802.00,0.0141
2801.00,0.0136
2800.00,0.0133
2799.00,0.0129
2798.00,0.0127
2797.00,0.0124
2796.00,0.0122
2795.00,0.0120
2794.00,0.0117
2793.00,0.0114
2792.00,0.0111
2791.00,0.0108
2790.00,0.0104
2789.00,0.0101
2788.00,0.0098
2787.00,0.0095
2786.00,0.0092
2785.00,0.0089
2784.00,0.0086
2783.00,0.0084
2782.00,0.0082
2781.00,0.0080
2780.00,0.0079
2779.00,0.0077
2778.00,0.0076
2777.00,0.0074
2776.00,0.0073
2775.00,0.0072
2774.00,0.0071
2773.00,0.0070
2772.00,0.0069
2771.00,0.0069
2770.00,0.0068
2769.00,0.0068
2768.00,0.0068
2767.00,0.0068
2766.00,0.0067
2765.00,0.0067
2764.00,0.0067
2763.00,0.0066
2762.00,0.0065
2761.00,0.0065
2760.00,0.0065
2759.00,0.0064
2758.00,0.0064
2757.00,0.0064
2756.00,0.0063
2755.00,0.0063
2754.00,0.0063
2753.00,0.0063
2752.00,0.0063
2751.00,0.0063
2750.00,0.0063
2749.00,0.0063
2748.00,0.0063
2747.00,0.0063
2746.00,0.0063
2745.00,0.0063
2744.00,0.0064
2743.00,0.0066
2742.00,0.0067
2741.00,0.0068
2740.00,0.0070
2739.00,0.0071
2738.00,0.0072
2737.00,0.0073
2736.00,0.0074
2735.00,0.0076
2734.00,0.0077
2733.00,0.0079
2732.00,0.0080
2731.00,0.0082
2730.00,0.0084
2729.00,0.0087
2728.00,0.0089
2727.00,0.0092
2726.00,0.0095
2725.00,0.0097
2724.00,0.0098
2723.00,0.0098
2722.00,0.0098
2721.00,0.0096
2720.00,0.0093
2719.00,0.0089
2718.00,0.0085
2717.00,0.0082
2716.00,0.0079
2715.00,0.0076
2714.00,0.0074
2713.00,0.0073
2712.00,0.0071
2711.00,0.0070
2710.00,0.0068
2709.00,0.0067
2708.00,0.0065
2707.00,0.0064
2706.00,0.0063
2705.00,0.0062
2704.00,0.0061
2703.00,0.0060
2702.00,0.0059
2701.00,0.0058
2700.00,0.0057
2699.00,0.0056
2698.00,0.0056
2697.00,0.0056
2696.00,0.0056
2695.00,0.0056
2694.00,0.0056
2693.00,0.0055
2692.00,0.0055
2691.00,0.0055
2690.00,0.0055
2689.00,0.0055
2688.00,0.0055
2687.00,0.0055
2686.00,0.0055
2685.00,0.0055
2684.00,0.0055
2683.00,0.0055
2682.00,0.0055
2681.00,0.0054
2680.00,0.0054
2679.00,0.0054
2678.00,0.0055
2677.00,0.0055
2676.00,0.0055
2675.00,0.0055
2674.00,0.0055
2673.00,0.0055
2672.00,0.0054
2671.00,0.0054
2670.00,0.0054
2669.00,0.0054
2668.00,0.0054
2667.00,0.0054
2666.00,0.0054
2665.00,0.0055
2664.00,0.0055
2663.00,0.0056
2662.00,0.0057
2661.00,0.0057
2660.00,0.0057
2659.00,0.0057
2658.00,0.0057
2657.00,0.0056
2656.00,0.0056
2655.00,0.0056
2654.00,0.0055
2653.00,0.0055
2652.00,0.0054
2651.00,0.0053
2650.00,0.0053
2649.00,0.0052
2648.00,0.0052
2647.00,0.0052
2646.00,0.0051
2645.00,0.0051
2644.00,0.0050
2643.00,0.0050
2642.00,0.0049
2641.00,0.0048
2640.00,0.0048
2639.00,0.0048
2638.00,0.0048
2637.00,0.0047
2636.00,0.0047
2635.00,0.0047
2634.00,0.0047
2633.00,0.0047
2632.00,0.0047
2631.00,0.0047
2630.00,0.0047
2629.00,0.0047
2628.00,0.0047
2627.00,0.0047
2626.00,0.0047
2625.00,0.0047
2624.00,0.0048
2623.00,0.0048
2622.00,0.0049
2621.00,0.0049
2620.00,0.0049
2619.00,0.0049
2618.00,0.0049
2617.00,0.0049
2616.00,0.0049
2615.00,0.0049
2614.00,0.0049
2613.00,0.0049
2612.00,0.0049
2611.00,0.0048
2610.00,0.0047
2609.00,0.0047
2608.00,0.0046
2607.00,0.0044
2606.00,0.0043
2605.00,0.0042
2604.00,0.0041
2603.00,0.0041
2602.00,0.0041
2601.00,0.0040
2600.00,0.0040
2599.00,0.0040
2598.00,0.0040
2597.00,0.0040
2596.00,0.0040
2595.00,0.0040
2594.00,0.0040
2593.00,0.0040
2592.00,0.0041
2591.00,0.0041
2590.00,0.0042
2589.00,0.0043
2588.00,0.0044
2587.00,0.0044
2586.00,0.0045
2585.00,0.0045
2584.00,0.0046
2583.00,0.0047
2582.00,0.0047
2581.00,0.0047
2580.00,0.0046
2579.00,0.0045
2578.00,0.0044
2577.00,0.0043
2576.00,0.0042
2575.00,0.0041
2574.00,0.0040
2573.00,0.0039
2572.00,0.0037
2571.00,0.0036
2570.00,0.0036
2569.00,0.0035
2568.00,0.0035
2567.00,0.0035
2566.00,0.0034
2565.00,0.0033
2564.00,0.0032
2563.00,0.0032
2562.00,0.0032
2561.00,0.0033
2560.00,0.0033
2559.00,0.0033
2558.00,0.0032
2557.00,0.0031
2556.00,0.0031
2555.00,0.0031
2554.00,0.0031
2553.00,0.0032
2552.00,0.0031
2551.00,0.0031
2550.00,0.0030
2549.00,0.0029
2548.00,0.0028
2547.00,0.0028
2546.00,0.0027
2545.00,0.0026
2544.00,0.0026
2543.00,0.0026
2542.00,0.0026
2541.00,0.0025
2540.00,0.0025
2539.00,0.0024
2538.00,0.0024
2537.00,0.0024
2536.00,0.0024
2535.00,0.0023
2534.00,0.0023
2533.00,0.0022
2532.00,0.0022
2531.00,0.0023
2530.00,0.0023
2529.00,0.0023
2528.00,0.0023
2527.00,0.0023
2526.00,0.0022
2525.00,0.0021
2524.00,0.0021
2523.00,0.0020
2522.00,0.0020
2521.00,0.0019
2520.00,0.0019
2519.00,0.0018
2518.00,0.0018
2517.00,0.0018
2516.00,0.0018
2515.00,0.0018
2514.00,0.0018
2513.00,0.0018
2512.00,0.0018
2511.00,0.0018
2510.00,0.0019
2509.00,0.0019
2508.00,0.0018
2507.00,0.0018
2506.00,0.0018
2505.00,0.0017
2504.00,0.0017
2503.00,0.0017
2502.00,0.0017
2501.00,0.0017
2500.00,0.0018
2499.00,0.0018
2498.00,0.0018
2497.00,0.0018
2496.00,0.0018
2495.00,0.0018
2494.00,0.0017
2493.00,0.0017
2492.00,0.0017
2491.00,0.0017
2490.00,0.0017
2489.00,0.0017
2488.00,0.0017
2487.00,0.0017
2486.00,0.0017
2485.00,0.0017
2484.00,0.0018
2483.00,0.0018
2482.00,0.0017
2481.00,0.0017
2480.00,0.0016
2479.00,0.0015
2478.00,0.0015
2477.00,0.0015
2476.00,0.0016
2475.00,0.0016
2474.00,0.0016
2473.00,0.0016
2472.00,0.0016
2471.00,0.0016
2470.00,0.0015
2469.00,0.0015
2468.00,0.0015
2467.00,0.0015
2466.00,0.0015
2465.00,0.0015
2464.00,0.0015
2463.00,0.0015
2462.00,0.0016
2461.00,0.0017
2460.00,0.0017
2459.00,0.0018
2458.00,0.0018
2457.00,0.0019
2456.00,0.0019
2455.00,0.0018
2454.00,0.0018
2453.00,0.0018
2452.00,0.0018
2451.00,0.0018
2450.00,0.0018
2449.00,0.0018
2448.00,0.0019
2447.00,0.0019
2446.00,0.0018
2445.00,0.0017
2444.00,0.0016
2443.00,0.0016
2442.00,0.0015
2441.00,0.0016
2440.00,0.0016
2439.00,0.0017
2438.00,0.0017
2437.00,0.0017
2436.00,0.0017
2435.00,0.0017
2434.00,0.0017
2433.00,0.0017
2432.00,0.0017
2431.00,0.0018
2430.00,0.0018
2429.00,0.0018
2428.00,0.0018
2427.00,0.0018
2426.00,0.0017
2425.00,0.0017
2424.00,0.0017
2423.00,0.0017
2422.00,0.0018
2421.00,0.0018
2420.00,0.0018
2419.00,0.0017
2418.00,0.0017
2417.00,0.0016
2416.00,0.0016
2415.00,0.0015
2414.00,0.0015
2413.00,0.0015
2412.00,0.0016
2411.00,0.0017
2410.00,0.0017
2409.00,0.0017
2408.00,0.0017
2407.00,0.0016
2406.00,0.0015
2405.00,0.0015
2404.00,0.0015
2403.00,0.0015
2402.00,0.0015
2401.00,0.0015
2400.00,0.0015
2399.00,0.0015
2398.00,0.0015
2397.00,0.0015
2396.00,0.0015
2395.00,0.0015
2394.00,0.0015
2393.00,0.0015
2392.00,0.0015
2391.00,0.0015
2390.00,0.0015
2389.00,0.0015
2388.00,0.0014
2387.00,0.0014
2386.00,0.0013
2385.00,0.0013
2384.00,0.0013
2383.00,0.0012
2382.00,0.0011
2381.00,0.0011
2380.00,0.0010
2379.00,0.0010
2378.00,0.0010
2377.00,0.0010
2376.00,0.0011
2375.00,0.0012
2374.00,0.0012
2373.00,0.0012
2372.00,0.0012
2371.00,0.0011
2370.00,0.0011
2369.00,0.0010
2368.00,0.0010
2367.00,0.0010
2366.00,0.0011
2365.00,0.0011
2364.00,0.0011
2363.00,0.0012
2362.00,0.0011
2361.00,0.0011
2360.00,0.0012
2359.00,0.0012
2358.00,0.0013
2357.00,0.0012
2356.00,0.0012
2355.00,0.0012
2354.00,0.0011
2353.00,0.0011
2352.00,0.0011
2351.00,0.0012
2350.00,0.0012
2349.00,0.0012
2348.00,0.0013
2347.00,0.0013
2346.00,0.0013
2345.00,0.0014
2344.00,0.0014
2343.00,0.0014
2342.00,0.0014
2341.00,0.0015
2340.00,0.0015
2339.00,0.0015
2338.00,0.0014
2337.00,0.0014
2336.00,0.0013
2335.00,0.0013
2334.00,0.0013
2333.00,0.0013
2332.00,0.0013
2331.00,0.0013
2330.00,0.0013
2329.00,0.0014
2328.00,0.0016
2327.00,0.0020
2326.00,0.0024
2325.00,0.0027
2324.00,0.0029
2323.00,0.0028
2322.00,0.0026
2321.00,0.0024
2320.00,0.0022
2319.00,0.0022
2318.00,0.0021
2317.00,0.0021
2316.00,0.0021
2315.00,0.0020
2314.00,0.0019
2313.00,0.0018
2312.00,0.0018
2311.00,0.0017
2310.00,0.0017
2309.00,0.0017
2308.00,0.0018
2307.00,0.0018
2306.00,0.0018
2305.00,0.0018
2304.00,0.0019
2303.00,0.0019
2302.00,0.0019
2301.00,0.0019
2300.00,0.0019
2299.00,0.0019
2298.00,0.0019
2297.00,0.0019
2296.00,0.0020
2295.00,0.0020
2294.00,0.0020
2293.00,0.0021
2292.00,0.0022
2291.00,0.0023
2290.00,0.0023
2289.00,0.0024
2288.00,0.0025
2287.00,0.0025
2286.00,0.0026
2285.00,0.0025
2284.00,0.0024
2283.00,0.0023
2282.00,0.0023
2281.00,0.0024
2280.00,0.0024
2279.00,0.0023
2278.00,0.0022
2277.00,0.0020
2276.00,0.0019
2275.00,0.0019
2274.00,0.0019
2273.00,0.0019
2272.00,0.0020
2271.00,0.0021
2270.00,0.0021
2269.00,0.0021
2268.00,0.0020
2267.00,0.0018
2266.00,0.0016
2265.00,0.0016
2264.00,0.0017
2263.00,0.0018
2262.00,0.0020
2261.00,0.0021
2260.00,0.0021
2259.00,0.0021
2258.00,0.0020
2257.00,0.0018
2256.00,0.0017
2255.00,0.0016
2254.00,0.0015
2253.00,0.0015
2252.00,0.0015
2251.00,0.0015
2250.00,0.0015
2249.00,0.0015
2248.00,0.0015
2247.00,0.0015
2246.00,0.0015
2245.00,0.0014
2244.00,0.0015
2243.00,0.0015
2242.00,0.0015
2241.00,0.0014
2240.00,0.0014
2239.00,0.0013
2238.00,0.0013
2237.00,0.0013
2236.00,0.0014
2235.00,0.0015
2234.00,0.0016
2233.00,0.0016
2232.00,0.0015
2231.00,0.0014
2230.00,0.0014
2229.00,0.0014
2228.00,0.0013
2227.00,0.0012
2226.00,0.0010
2225.00,0.0009
2224.00,0.0008
2223.00,0.0008
2222.00,0.0009
2221.00,0.0011
2220.00,0.0011
2219.00,0.0011
2218.00,0.0010
2217.00,0.0009
2216.00,0.0008
2215.00,0.0008
2214.00,0.0007
2213.00,0.0007
2212.00,0.0008
2211.00,0.0010
2210.00,0.0011
2209.00,0.0011
2208.00,0.0012
2207.00,0.0012
2206.00,0.0011
2205.00,0.0010
2204.00,0.0009
2203.00,0.0010
2202.00,0.0011
2201.00,0.0013
2200.00,0.0014
2199.00,0.0015
2198.00,0.0014
2197.00,0.0013
2196.00,0.0011
2195.00,0.0010
2194.00,0.0009
2193.00,0.0009
2192.00,0.0010
2191.00,0.0011
2190.00,0.0013
2189.00,0.0014
2188.00,0.0015
2187.00,0.0015
2186.00,0.0015
2185.00,0.0015
2184.00,0.0013
2183.00,0.0011
2182.00,0.0009
2181.00,0.0008
2180.00,0.0009
2179.00,0.0011
2178.00,0.0013
2177.00,0.0014
2176.00,0.0012
2175.00,0.0010
2174.00,0.0010
2173.00,0.0011
2172.00,0.0013
2171.00,0.0015
2170.00,0.0016
2169.00,0.0017
2168.00,0.0016
2167.00,0.0014
2166.00,0.0013
2165.00,0.0016
2164.00,0.0021
2163.00,0.0027
2162.00,0.0030
2161.00,0.0027
2160.00,0.0015
2159.00,-0.0003
2158.00,-0.0019
2157.00,-0.0027
2156.00,-0.0028
2155.00,-0.0027
2154.00,-0.0025
2153.00,-0.0023
2152.00,-0.0021
2151.00,-0.0018
2150.00,-0.0014
2149.00,-0.0009
2148.00,-0.0005
2147.00,-0.0003
2146.00,-0.0002
2145.00,-0.0003
2144.00,-0.0004
2143.00,-0.0005
2142.00,-0.0006
2141.00,-0.0006
2140.00,-0.0006
2139.00,-0.0006
2138.00,-0.0006
2137.00,-0.0006
2136.00,-0.0007
2135.00,-0.0008
2134.00,-0.0010
2133.00,-0.0010
2132.00,-0.0009
2131.00,-0.0007
2130.00,-0.0005
2129.00,-0.0004
2128.00,-0.0003
2127.00,-0.0004
2126.00,-0.0003
2125.00,-0.0002
2124.00,-0.0001
2123.00,-0.0000
2122.00,0.0001
2121.00,0.0002
2120.00,0.0003
2119.00,0.0004
2118.00,0.0005
2117.00,0.0006
2116.00,0.0006
2115.00,0.0007
2114.00,0.0008
2113.00,0.0010
2112.00,0.0010
2111.00,0.0010
2110.00,0.0009
2109.00,0.0007
2108.00,0.0007
2107.00,0.0006
2106.00,0.0005
2105.00,0.0006
2104.00,0.0007
2103.00,0.0008
2102.00,0.0008
2101.00,0.0008
2100.00,0.0007
2099.00,0.0007
2098.00,0.0006
2097.00,0.0005
2096.00,0.0002
2095.00,0.0000
2094.00,-0.0001
2093.00,0.0001
2092.00,0.0004
2091.00,0.0006
2090.00,0.0008
2089.00,0.0008
2088.00,0.0008
2087.00,0.0007
2086.00,0.0007
2085.00,0.0008
2084.00,0.0009
2083.00,0.0010
2082.00,0.0012
2081.00,0.0013
2080.00,0.0013
2079.00,0.0011
2078.00,0.0010
2077.00,0.0009
2076.00,0.0009
2075.00,0.0009
2074.00,0.0008
2073.00,0.0007
2072.00,0.0006
2071.00,0.0006
2070.00,0.0005
2069.00,0.0004
2068.00,0.0003
2067.00,0.0003
2066.00,0.0003
2065.00,0.0003
2064.00,0.0004
2063.00,0.0004
2062.00,0.0004
2061.00,0.0003
2060.00,0.0003
2059.00,0.0003
2058.00,0.0005
2057.00,0.0007
2056.00,0.0008
2055.00,0.0008
2054.00,0.0009
2053.00,0.0012
2052.00,0.0017
2051.00,0.0021
2050.00,0.0021
2049.00,0.0017
2048.00,0.0013
2047.00,0.0008
2046.00,0.0005
2045.00,0.0003
2044.00,0.0002
2043.00,0.0003
2042.00,0.0004
2041.00,0.0006
2040.00,0.0007
2039.00,0.0008
2038.00,0.0008
2037.00,0.0009
2036.00,0.0009
2035.00,0.0006
2034.00,0.0002
2033.00,0.0000
2032.00,-0.0000
2031.00,0.0000
2030.00,0.0000
2029.00,0.0001
2028.00,0.0001
2027.00,0.0001
2026.00,-0.0001
2025.00,-0.0004
2024.00,-0.0006
2023.00,-0.0008
2022.00,-0.0008
2021.00,-0.0007
2020.00,-0.0006
2019.00,-0.0005
2018.00,-0.0003
2017.00,-0.0001
2016.00,0.0001
2015.00,0.0001
2014.00,-0.0001
2013.00,-0.0002
2012.00,-0.0003
2011.00,-0.0005
2010.00,-0.0008
2009.00,-0.0011
2008.00,-0.0014
2007.00,-0.0017
2006.00,-0.0017
2005.00,-0.0015
2004.00,-0.0011
2003.00,-0.0009
2002.00,-0.0009
2001.00,-0.0010
2000.00,-0.0011
1999.00,-0.0011
1998.00,-0.0009
1997.00,-0.0008
1996.00,-0.0008
1995.00,-0.0011
1994.00,-0.0013
1993.00,-0.0013
1992.00,-0.0009
1991.00,-0.0004
1990.00,0.0001
1989.00,0.0004
1988.00,0.0007
1987.00,0.0007
1986.00,0.0005
1985.00,0.0003
1984.00,0.0002
1983.00,0.0003
1982.00,0.0006
1981.00,0.0010
1980.00,0.0012
1979.00,0.0011
1978.00,0.0006
1977.00,-0.0001
1976.00,-0.0006
1975.00,-0.0012
1974.00,-0.0015
1973.00,-0.0016
1972.00,-0.0014
1971.00,-0.0011
1970.00,-0.0007
1969.00,-0.0006
1968.00,-0.0007
1967.00,-0.0009
1966.00,-0.0012
1965.00,-0.0014
1964.00,-0.0015
1963.00,-0.0015
1962.00,-0.0016
1961.00,-0.0016
1960.00,-0.0017
1959.00,-0.0019
1958.00,-0.0019
1957.00,-0.0017
1956.00,-0.0015
1955.00,-0.0012
1954.00,-0.0011
1953.00,-0.0012
1952.00,-0.0013
1951.00,-0.0014
1950.00,-0.0014
1949.00,-0.0013
1948.00,-0.0012
1947.00,-0.0013
1946.00,-0.0015
1945.00,-0.0015
1944.00,-0.0013
1943.00,-0.0011
1942.00,-0.0009
1941.00,-0.0008
1940.00,-0.0008
1939.00,-0.0009
1938.00,-0.0010
1937.00,-0.0009
1936.00,-0.0007
1935.00,-0.0005
1934.00,-0.0003
1933.00,-0.0002
1932.00,-0.0002
1931.00,-0.0002
1930.00,-0.0004
1929.00,-0.0005
1928.00,-0.0005
1927.00,-0.0003
1926.00,-0.0002
1925.00,-0.0001
1924.00,-0.0001
1923.00,-0.0002
1922.00,-0.0003
1921.00,-0.0003
1920.00,-0.0002
1919.00,-0.0001
1918.00,0.0000
1917.00,0.0001
1916.00,0.0001
1915.00,0.0000
1914.00,-0.0000
1913.00,-0.0000
1912.00,0.0000
1911.00,0.0000
1910.00,0.0000
1909.00,-0.0000
1908.00,-0.0001
1907.00,-0.0002
1906.00,-0.0001
1905.00,0.0000
1904.00,0.0002
1903.00,0.0002
1902.00,0.0002
1901.00,0.0002
1900.00,0.0003
1899.00,0.0004
1898.00,0.0005
1897.00,0.0005
1896.00,0.0005
1895.00,0.0005
1894.00,0.0005
1893.00,0.0005
1892.00,0.0005
1891.00,0.0005
1890.00,0.0004
1889.00,0.0004
1888.00,0.0004
1887.00,0.0004
1886.00,0.0003
1885.00,0.0003
1884.00,0.0003
1883.00,0.0002
1882.00,0.0001
1881.00,0.0001
1880.00,0.0001
1879.00,0.0002
1878.00,0.0002
1877.00,0.0003
1876.00,0.0004
1875.00,0.0005
1874.00,0.0005
1873.00,0.0004
1872.00,0.0004
1871.00,0.0003
1870.00,0.0002
1869.00,0.0002
1868.00,0.0003
1867.00,0.0004
1866.00,0.0004
1865.00,0.0004
1864.00,0.0005
1863.00,0.0004
1862.00,0.0004
1861.00,0.0005
1860.00,0.0005
1859.00,0.0005
1858.00,0.0005
1857.00,0.0006
1856.00,0.0006
1855.00,0.0007
1854.00,0.0007
1853.00,0.0007
1852.00,0.0007
1851.00,0.0006
1850.00,0.0006
1849.00,0.0007
1848.00,0.0007
1847.00,0.0008
1846.00,0.0008
1845.00,0.0009
1844.00,0.0009
1843.00,0.0008
1842.00,0.0008
1841.00,0.0007
1840.00,0.0006
1839.00,0.0005
1838.00,0.0005
1837.00,0.0005
1836.00,0.0006
1835.00,0.0007
1834.00,0.0007
1833.00,0.0007
1832.00,0.0007
1831.00,0.0007
1830.00,0.0008
1829.00,0.0009
1828.00,0.0009
1827.00,0.0008
1826.00,0.0007
1825.00,0.0006
1824.00,0.0007
1823.00,0.0008
1822.00,0.0008
1821.00,0.0008
1820.00,0.0008
1819.00,0.0007
1818.00,0.0006
1817.00,0.0005
1816.00,0.0005
1815.00,0.0006
1814.00,0.0006
1813.00,0.0007
1812.00,0.0007
1811.00,0.0007
1810.00,0.0008
1809.00,0.0008
1808.00,0.0009
1807.00,0.0009
1806.00,0.0009
1805.00,0.0009
1804.00,0.0009
1803.00,0.0009
1802.00,0.0008
1801.00,0.0009
1800.00,0.0009
1799.00,0.0010
1798.00,0.0011
1797.00,0.0011
1796.00,0.0012
1795.00,0.0013
1794.00,0.0013
1793.00,0.0013
1792.00,0.0013
1791.00,0.0013
1790.00,0.0013
1789.00,0.0013
1788.00,0.0013
1787.00,0.0013
1786.00,0.0013
1785.00,0.0014
1784.00,0.0014
1783.00,0.0014
1782.00,0.0014
1781.00,0.0013
1780.00,0.0013
1779.00,0.0013
1778.00,0.0013
1777.00,0.0014
1776.00,0.0014
1775.00,0.0015
1774.00,0.0015
1773.00,0.0015
1772.00,0.0015
1771.00,0.0014
1770.00,0.0014
1769.00,0.0014
1768.00,0.0015
1767.00,0.0016
1766.00,0.0016
1765.00,0.0016
1764.00,0.0016
1763.00,0.0017
1762.00,0.0017
1761.00,0.0018
1760.00,0.0019
1759.00,0.0019
1758.00,0.0019
1757.00,0.0020
1756.00,0.0020
1755.00,0.0021
1754.00,0.0021
1753.00,0.0022
1752.00,0.0022
1751.00,0.0022
1750.00,0.0022
1749.00,0.0022
1748.00,0.0022
1747.00,0.0022
1746.00,0.0022
1745.00,0.0022
1744.00,0.0022
1743.00,0.0022
1742.00,0.0023
1741.00,0.0023
1740.00,0.0024
1739.00,0.0025
1738.00,0.0025
1737.00,0.0025
1736.00,0.0026
1735.00,0.0026
1734.00,0.0026
1733.00,0.0025
1732.00,0.0024
1731.00,0.0023
1730.00,0.0023
1729.00,0.0024
1728.00,0.0024
1727.00,0.0025
1726.00,0.0025
1725.00,0.0025
1724.00,0.0026
1723.00,0.0026
1722.00,0.0027
1721.00,0.0027
1720.00,0.0028
1719.00,0.0029
1718.00,0.0030
1717.00,0.0031
1716.00,0.0032
1715.00,0.0032
1714.00,0.0032
1713.00,0.0032
1712.00,0.0032
1711.00,0.0033
1710.00,0.0033
1709.00,0.0034
1708.00,0.0034
1707.00,0.0035
1706.00,0.0036
1705.00,0.0037
1704.00,0.0038
1703.00,0.0039
1702.00,0.0040
1701.00,0.0042
1700.00,0.0045
1699.00,0.0047
1698.00,0.0047
1697.00,0.0048
1696.00,0.0049
1695.00,0.0050
1694.00,0.0050
1693.00,0.0050
1692.00,0.0051
1691.00,0.0052
1690.00,0.0054
1689.00,0.0056
1688.00,0.0058
1687.00,0.0060
1686.00,0.0061
1685.00,0.0063
1684.00,0.0065
1683.00,0.0067
1682.00,0.0068
1681.00,0.0070
1680.00,0.0072
1679.00,0.0074
1678.00,0.0076
1677.00,0.0077
1676.00,0.0079
1675.00,0.0081
1674.00,0.0083
1673.00,0.0084
1672.00,0.0085
1671.00,0.0087
1670.00,0.0090
1669.00,0.0093
1668.00,0.0095
1667.00,0.0096
1666.00,0.0097
1665.00,0.0099
1664.00,0.0101
1663.00,0.0104
1662.00,0.0108
1661.00,0.0111
1660.00,0.0115
1659.00,0.0118
1658.00,0.0121
1657.00,0.0125
1656.00,0.0129
1655.00,0.0134
1654.00,0.0141
1653.00,0.0150
1652.00,0.0155
1651.00,0.0157
1650.00,0.0159
1649.00,0.0162
1648.00,0.0168
1647.00,0.0175
1646.00,0.0182
1645.00,0.0186
1644.00,0.0188
1643.00,0.0189
1642.00,0.0190
1641.00,0.0190
1640.00,0.0191
1639.00,0.0191
1638.00,0.0191
1637.00,0.0190
1636.00,0.0190
1635.00,0.0189
1634.00,0.0187
1633.00,0.0184
1632.00,0.0182
1631.00,0.0179
1630.00,0.0176
1629.00,0.0173
1628.00,0.0171
1627.00,0.0169
1626.00,0.0166
1625.00,0.0164
1624.00,0.0162
1623.00,0.0160
1622.00,0.0157
1621.00,0.0156
1620.00,0.0155
1619.00,0.0154
1618.00,0.0153
1617.00,0.0153
1616.00,0.0153
1615.00,0.0153
1614.00,0.0153
1613.00,0.0153
1612.00,0.0153
1611.00,0.0154
1610.00,0.0154
1609.00,0.0153
1608.00,0.0153
1607.00,0.0152
1606.00,0.0152
1605.00,0.0151
1604.00,0.0151
1603.00,0.0149
1602.00,0.0148
1601.00,0.0146
1600.00,0.0144
1599.00,0.0142
1598.00,0.0140
1597.00,0.0138
1596.00,0.0136
1595.00,0.0134
1594.00,0.0131
1593.00,0.0130
1592.00,0.0129
1591.00,0.0128
1590.00,0.0128
1589.00,0.0128
1588.00,0.0129
1587.00,0.0131
1586.00,0.0132
1585.00,0.0135
1584.00,0.0137
1583.00,0.0139
1582.00,0.0140
1581.00,0.0140
1580.00,0.0140
1579.00,0.0139
1578.00,0.0137
1577.00,0.0134
1576.00,0.0131
1575.00,0.0128
1574.00,0.0126
1573.00,0.0124
1572.00,0.0122
1571.00,0.0120
1570.00,0.0119
1569.00,0.0119
1568.00,0.0119
1567.00,0.0119
1566.00,0.0119
1565.00,0.0119
1564.00,0.0119
1563.00,0.0119
1562.00,0.0119
1561.00,0.0119
1560.00,0.0120
1559.00,0.0120
1558.00,0.0120
1557.00,0.0120
1556.00,0.0121
1555.00,0.0122
1554.00,0.0124
1553.00,0.0126
1552.00,0.0129
1551.00,0.0132
1550.00,0.0136
1549.00,0.0141
1548.00,0.0146
1547.00,0.0150
1546.00,0.0155
1545.00,0.0162
1544.00,0.0169
1543.00,0.0176
1542.00,0.0183
1541.00,0.0191
1540.00,0.0199
1539.00,0.0204
1538.00,0.0206
1537.00,0.0206
1536.00,0.0205
1535.00,0.0204
1534.00,0.0201
1533.00,0.0198
1532.00,0.0194
1531.00,0.0189
1530.00,0.0184
1529.00,0.0178
1528.00,0.0173
1527.00,0.0166
1526.00,0.0160
1525.00,0.0154
1524.00,0.0149
1523.00,0.0144
1522.00,0.0138
1521.00,0.0133
1520.00,0.0129
1519.00,0.0125
1518.00,0.0121
1517.00,0.0118
1516.00,0.0116
1515.00,0.0114
1514.00,0.0113
1513.00,0.0112
1512.00,0.0111
1511.00,0.0109
1510.00,0.0107
1509.00,0.0106
1508.00,0.0106
1507.00,0.0106
1506.00,0.0106
1505.00,0.0107
1504.00,0.0108
1503.00,0.0109
1502.00,0.0110
1501.00,0.0114
1500.00,0.0120
1499.00,0.0128
1498.00,0.0139
1497.00,0.0152
1496.00,0.0165
1495.00,0.0174
1494.00,0.0178
1493.00,0.0180
1492.00,0.0179
1491.00,0.0175
1490.00,0.0169
1489.00,0.0166
1488.00,0.0165
1487.00,0.0165
1486.00,0.0167
1485.00,0.0171
1484.00,0.0176
1483.00,0.0181
1482.00,0.0189
1481.00,0.0198
1480.00,0.0209
1479.00,0.0221
1478.00,0.0234
1477.00,0.0252
1476.00,0.0274
1475.00,0.0299
1474.00,0.0334
1473.00,0.0385
1472.00,0.0449
1471.00,0.0511
1470.00,0.0571
1469.00,0.0634
1468.00,0.0701
1467.00,0.0775
1466.00,0.0860
1465.00,0.0953
1464.00,0.1037
1463.00,0.1098
1462.00,0.1141
1461.00,0.1172
1460.00,0.1196
1459.00,0.1215
1458.00,0.1234
1457.00,0.1252
1456.00,0.1262
1455.00,0.1262
1454.00,0.1258
1453.00,0.1248
1452.00,0.1229
1451.00,0.1196
1450.00,0.1146
1449.00,0.1073
1448.00,0.0978
1447.00,0.0877
1446.00,0.0784
1445.00,0.0706
1444.00,0.0639
1443.00,0.0584
1442.00,0.0544
1441.00,0.0517
1440.00,0.0501
1439.00,0.0494
1438.00,0.0493
1437.00,0.0493
1436.00,0.0481
1435.00,0.0454
1434.00,0.0416
1433.00,0.0371
1432.00,0.0325
1431.00,0.0285
1430.00,0.0254
1429.00,0.0232
1428.00,0.0217
1427.00,0.0209
1426.00,0.0204
1425.00,0.0201
1424.00,0.0198
1423.00,0.0198
1422.00,0.0199
1421.00,0.0200
1420.00,0.0200
1419.00,0.0200
1418.00,0.0200
1417.00,0.0198
1416.00,0.0195
1415.00,0.0192
1414.00,0.0189
1413.00,0.0185
1412.00,0.0180
1411.00,0.0177
1410.00,0.0174
1409.00,0.0172
1408.00,0.0169
1407.00,0.0168
1406.00,0.0167
1405.00,0.0166
1404.00,0.0165
1403.00,0.0165
1402.00,0.0166
1401.00,0.0166
1400.00,0.0166
1399.00,0.0167
1398.00,0.0169
1397.00,0.0170
1396.00,0.0172
1395.00,0.0175
1394.00,0.0181
1393.00,0.0186
1392.00,0.0192
1391.00,0.0201
1390.00,0.0213
1389.00,0.0230
1388.00,0.0256
1387.00,0.0295
1386.00,0.0346
1385.00,0.0411
1384.00,0.0495
1383.00,0.0607
1382.00,0.0753
1381.00,0.0938
1380.00,0.1163
1379.00,0.1418
1378.00,0.1665
1377.00,0.1849
1376.00,0.1916
1375.00,0.1832
1374.00,0.1620
1373.00,0.1356
1372.00,0.1109
1371.00,0.0901
1370.00,0.0734
1369.00,0.0604
1368.00,0.0514
1367.00,0.0458
1366.00,0.0427
1365.00,0.0414
1364.00,0.0416
1363.00,0.0429
1362.00,0.0451
1361.00,0.0475
1360.00,0.0493
1359.00,0.0498
1358.00,0.0487
1357.00,0.0461
1356.00,0.0423
1355.00,0.0380
1354.00,0.0339
1353.00,0.0303
1352.00,0.0274
1351.00,0.0251
1350.00,0.0232
1349.00,0.0217
1348.00,0.0205
1347.00,0.0196
1346.00,0.0188
1345.00,0.0183
1344.00,0.0178
1343.00,0.0175
1342.00,0.0171
1341.00,0.0168
1340.00,0.0164
1339.00,0.0161
1338.00,0.0159
1337.00,0.0157
1336.00,0.0157
1335.00,0.0158
1334.00,0.0160
1333.00,0.0164
1332.00,0.0168
1331.00,0.0172
1330.00,0.0173
1329.00,0.0171
1328.00,0.0167
1327.00,0.0162
1326.00,0.0155
1325.00,0.0148
1324.00,0.0142
1323.00,0.0137
1322.00,0.0133
1321.00,0.0130
1320.00,0.0127
1319.00,0.0124
1318.00,0.0122
1317.00,0.0120
1316.00,0.0119
1315.00,0.0118
1314.00,0.0117
1313.00,0.0118
1312.00,0.0119
1311.00,0.0121
1310.00,0.0126
1309.00,0.0134
1308.00,0.0144
1307.00,0.0158
1306.00,0.0171
1305.00,0.0181
1304.00,0.0185
1303.00,0.0182
1302.00,0.0176
1301.00,0.0170
1300.00,0.0165
1299.00,0.0163
1298.00,0.0162
1297.00,0.0161
1296.00,0.0160
1295.00,0.0157
1294.00,0.0153
1293.00,0.0148
1292.00,0.0142
1291.00,0.0137
1290.00,0.0131
1289.00,0.0127
1288.00,0.0122
1287.00,0.0119
1286.00,0.0116
1285.00,0.0114
1284.00,0.0112
1283.00,0.0110
1282.00,0.0109
1281.00,0.0107
1280.00,0.0105
1279.00,0.0104
1278.00,0.0102
1277.00,0.0102
1276.00,0.0101
1275.00,0.0101
1274.00,0.0102
1273.00,0.0102
1272.00,0.0103
1271.00,0.0104
1270.00,0.0105
1269.00,0.0106
1268.00,0.0108
1267.00,0.0110
1266.00,0.0112
1265.00,0.0114
1264.00,0.0117
1263.00,0.0121
1262.00,0.0126
1261.00,0.0131
1260.00,0.0138
1259.00,0.0147
1258.00,0.0156
1257.00,0.0165
1256.00,0.0169
1255.00,0.0169
1254.00,0.0163
1253.00,0.0155
1252.00,0.0146
1251.00,0.0138
1250.00,0.0133
1249.00,0.0129
1248.00,0.0126
1247.00,0.0124
1246.00,0.0122
1245.00,0.0121
1244.00,0.0121
1243.00,0.0120
1242.00,0.0120
1241.00,0.0119
1240.00,0.0117
1239.00,0.0116
1238.00,0.0114
1237.00,0.0112
1236.00,0.0111
1235.00,0.0110
1234.00,0.0109
1233.00,0.0109
1232.00,0.0108
1231.00,0.0108
1230.00,0.0107
1229.00,0.0108
1228.00,0.0109
1227.00,0.0110
1226.00,0.0112
1225.00,0.0115
1224.00,0.0118
1223.00,0.0122
1222.00,0.0125
1221.00,0.0128
1220.00,0.0131
1219.00,0.0131
1218.00,0.0131
1217.00,0.0129
1216.00,0.0125
1215.00,0.0122
1214.00,0.0118
1213.00,0.0115
1212.00,0.0113
1211.00,0.0110
1210.00,0.0108
1209.00,0.0105
1208.00,0.0103
1207.00,0.0101
1206.00,0.0100
1205.00,0.0099
1204.00,0.0099
1203.00,0.0098
1202.00,0.0098
1201.00,0.0098
1200.00,0.0098
1199.00,0.0097
1198.00,0.0097
1197.00,0.0097
1196.00,0.0097
1195.00,0.0097
1194.00,0.0097
1193.00,0.0097
1192.00,0.0097
1191.00,0.0097
1190.00,0.0098
1189.00,0.0098
1188.00,0.0098
1187.00,0.0099
1186.00,0.0100
1185.00,0.0102
1184.00,0.0104
1183.00,0.0105
1182.00,0.0108
1181.00,0.0111
1180.00,0.0115
1179.00,0.0121
1178.00,0.0128
1177.00,0.0137
1176.00,0.0150
1175.00,0.0168
1174.00,0.0190
1173.00,0.0219
1172.00,0.0252
1171.00,0.0289
1170.00,0.0326
1169.00,0.0356
1168.00,0.0376
1167.00,0.0383
1166.00,0.0376
1165.00,0.0361
1164.00,0.0340
1163.00,0.0319
1162.00,0.0299
1161.00,0.0282
1160.00,0.0268
1159.00,0.0257
1158.00,0.0249
1157.00,0.0244
1156.00,0.0240
1155.00,0.0238
1154.00,0.0236
1153.00,0.0233
1152.00,0.0228
1151.00,0.0221
1150.00,0.0212
1149.00,0.0202
1148.00,0.0192
1147.00,0.0184
1146.00,0.0176
1145.00,0.0168
1144.00,0.0161
1143.00,0.0155
1142.00,0.0149
1141.00,0.0143
1140.00,0.0138
1139.00,0.0133
1138.00,0.0130
1137.00,0.0127
1136.00,0.0124
1135.00,0.0122
1134.00,0.0120
1133.00,0.0118
1132.00,0.0117
1131.00,0.0116
1130.00,0.0117
1129.00,0.0119
1128.00,0.0121
1127.00,0.0123
1126.00,0.0125
1125.00,0.0126
1124.00,0.0126
1123.00,0.0126
1122.00,0.0126
1121.00,0.0127
1120.00,0.0128
1119.00,0.0130
1118.00,0.0132
1117.00,0.0133
1116.00,0.0135
1115.00,0.0137
1114.00,0.0138
1113.00,0.0140
1112.00,0.0142
1111.00,0.0145
1110.00,0.0148
1109.00,0.0153
1108.00,0.0160
1107.00,0.0167
1106.00,0.0175
1105.00,0.0182
1104.00,0.0188
1103.00,0.0191
1102.00,0.0192
1101.00,0.0190
1100.00,0.0186
1099.00,0.0181
1098.00,0.0176
1097.00,0.0171
1096.00,0.0167
1095.00,0.0164
1094.00,0.0161
1093.00,0.0158
1092.00,0.0154
1091.00,0.0151
1090.00,0.0148
1089.00,0.0146
1088.00,0.0145
1087.00,0.0144
1086.00,0.0144
1085.00,0.0145
1084.00,0.0145
1083.00,0.0145
1082.00,0.0144
1081.00,0.0141
1080.00,0.0139
1079.00,0.0136
1078.00,0.0133
1077.00,0.0131
1076.00,0.0129
1075.00,0.0127
1074.00,0.0126
1073.00,0.0125
1072.00,0.0124
1071.00,0.0123
1070.00,0.0123
1069.00,0.0123
1068.00,0.0123
1067.00,0.0123
1066.00,0.0123
1065.00,0.0123
1064.00,0.0123
1063.00,0.0123
1062.00,0.0123
1061.00,0.0123
1060.00,0.0123
1059.00,0.0124
1058.00,0.0124
1057.00,0.0125
1056.00,0.0126
1055.00,0.0127
1054.00,0.0128
1053.00,0.0130
1052.00,0.0131
1051.00,0.0132
1050.00,0.0134
1049.00,0.0136
1048.00,0.0138
1047.00,0.0141
1046.00,0.0144
1045.00,0.0145
1044.00,0.0144
1043.00,0.0143
1042.00,0.0140
1041.00,0.0137
1040.00,0.0135
1039.00,0.0134
1038.00,0.0134
1037.00,0.0134
1036.00,0.0134
1035.00,0.0134
1034.00,0.0132
1033.00,0.0131
1032.00,0.0130
1031.00,0.0129
1030.00,0.0129
1029.00,0.0128
1028.00,0.0127
1027.00,0.0125
1026.00,0.0124
1025.00,0.0123
1024.00,0.0123
1023.00,0.0122
1022.00,0.0122
1021.00,0.0123
1020.00,0.0124
1019.00,0.0126
1018.00,0.0129
1017.00,0.0130
1016.00,0.0132
1015.00,0.0135
1014.00,0.0139
1013.00,0.0143
1012.00,0.0147
1011.00,0.0151
1010.00,0.0154
1009.00,0.0157
1008.00,0.0162
1007.00,0.0168
1006.00,0.0177
1005.00,0.0189
1004.00,0.0206
1003.00,0.0230
1002.00,0.0262
1001.00,0.0301
1000.00,0.0345
999.00,0.0382
998.00,0.0403
997.00,0.0399
996.00,0.0371
995.00,0.0330
994.00,0.0284
993.00,0.0243
992.00,0.0210
991.00,0.0185
990.00,0.0166
989.00,0.0154
988.00,0.0145
987.00,0.0141
986.00,0.0140
985.00,0.0142
984.00,0.0146
983.00,0.0153
982.00,0.0165
981.00,0.0182
980.00,0.0206
979.00,0.0237
978.00,0.0276
977.00,0.0323
976.00,0.0375
975.00,0.0424
974.00,0.0463
973.00,0.0481
972.00,0.0470
971.00,0.0433
970.00,0.0378
969.00,0.0319
968.00,0.0267
967.00,0.0225
966.00,0.0194
965.00,0.0171
964.00,0.0155
963.00,0.0143
962.00,0.0134
961.00,0.0127
960.00,0.0121
959.00,0.0117
958.00,0.0113
957.00,0.0111
956.00,0.0109
955.00,0.0107
954.00,0.0106
953.00,0.0105
952.00,0.0104
951.00,0.0103
950.00,0.0101
949.00,0.0100
948.00,0.0100
947.00,0.0100
946.00,0.0102
945.00,0.0105
944.00,0.0109
943.00,0.0113
942.00,0.0116
941.00,0.0118
940.00,0.0116
939.00,0.0113
938.00,0.0108
937.00,0.0103
936.00,0.0099
935.00,0.0095
934.00,0.0092
933.00,0.0090
932.00,0.0088
931.00,0.0086
930.00,0.0083
929.00,0.0081
928.00,0.0080
927.00,0.0079
926.00,0.0079
925.00,0.0080
924.00,0.0080
923.00,0.0081
922.00,0.0082
921.00,0.0082
920.00,0.0083
919.00,0.0085
918.00,0.0086
917.00,0.0087
916.00,0.0087
915.00,0.0086
914.00,0.0085
913.00,0.0085
912.00,0.0086
911.00,0.0087
910.00,0.0090
909.00,0.0092
908.00,0.0095
907.00,0.0098
906.00,0.0104
905.00,0.0114
904.00,0.0129
903.00,0.0148
902.00,0.0169
901.00,0.0188
900.00,0.0202
899.00,0.0205
898.00,0.0198
897.00,0.0183
896.00,0.0163
895.00,0.0145
894.00,0.0129
893.00,0.0117
892.00,0.0109
891.00,0.0103
890.00,0.0098
889.00,0.0094
888.00,0.0090
887.00,0.0088
886.00,0.0087
885.00,0.0087
884.00,0.0087
883.00,0.0087
882.00,0.0087
881.00,0.0087
880.00,0.0087
879.00,0.0087
878.00,0.0088
877.00,0.0089
876.00,0.0090
875.00,0.0090
874.00,0.0090
873.00,0.0090
872.00,0.0090
871.00,0.0090
870.00,0.0090
869.00,0.0090
868.00,0.0089
867.00,0.0090
866.00,0.0091
865.00,0.0092
864.00,0.0093
863.00,0.0094
862.00,0.0096
861.00,0.0100
860.00,0.0103
859.00,0.0105
858.00,0.0105
857.00,0.0104
856.00,0.0105
855.00,0.0107
854.00,0.0110
853.00,0.0114
852.00,0.0118
851.00,0.0123
850.00,0.0129
849.00,0.0138
848.00,0.0150
847.00,0.0167
846.00,0.0192
845.00,0.0230
844.00,0.0280
843.00,0.0335
842.00,0.0379
841.00,0.0392
840.00,0.0369
839.00,0.0322
838.00,0.0270
837.00,0.0228
836.00,0.0201
835.00,0.0184
834.00,0.0174
833.00,0.0166
832.00,0.0160
831.00,0.0155
830.00,0.0152
829.00,0.0150
828.00,0.0150
827.00,0.0150
826.00,0.0150
825.00,0.0149
824.00,0.0147
823.00,0.0144
822.00,0.0141
821.00,0.0138
820.00,0.0136
819.00,0.0137
818.00,0.0140
817.00,0.0147
816.00,0.0155
815.00,0.0166
814.00,0.0179
813.00,0.0194
812.00,0.0209
811.00,0.0224
810.00,0.0235
809.00,0.0241
808.00,0.0239
807.00,0.0229
806.00,0.0214
805.00,0.0196
804.00,0.0179
803.00,0.0166
802.00,0.0156
801.00,0.0149
800.00,0.0144
799.00,0.0139
798.00,0.0134
797.00,0.0129
796.00,0.0125
795.00,0.0121
794.00,0.0116
793.00,0.0112
792.00,0.0110
791.00,0.0109
790.00,0.0109
789.00,0.0108
788.00,0.0105
787.00,0.0102
786.00,0.0099
785.00,0.0098
784.00,0.0096
783.00,0.0095
782.00,0.0093
781.00,0.0090
780.00,0.0087
779.00,0.0085
778.00,0.0085
777.00,0.0086
776.00,0.0088
775.00,0.0090
774.00,0.0092
773.00,0.0095
772.00,0.0098
771.00,0.0101
770.00,0.0103
769.00,0.0105
768.00,0.0106
767.00,0.0106
766.00,0.0106
765.00,0.0105
764.00,0.0104
763.00,0.0102
762.00,0.0101
761.00,0.0098
760.00,0.0096
759.00,0.0094
758.00,0.0093
757.00,0.0092
756.00,0.0092
755.00,0.0091
754.00,0.0091
753.00,0.0090
752.00,0.0088
751.00,0.0087
750.00,0.0088
749.00,0.0089
748.00,0.0090
747.00,0.0090
746.00,0.0091
745.00,0.0091
744.00,0.0092
743.00,0.0093
742.00,0.0093
741.00,0.0094
740.00,0.0095
739.00,0.0097
738.00,0.0100
737.00,0.0103
736.00,0.0107
735.00,0.0110
734.00,0.0112
733.00,0.0112
732.00,0.0111
731.00,0.0110
730.00,0.0110
729.00,0.0111
728.00,0.0111
727.00,0.0111
726.00,0.0112
725.00,0.0113
724.00,0.0113
723.00,0.0114
722.00,0.0114
721.00,0.0113
720.00,0.0111
719.00,0.0108
718.00,0.0105
717.00,0.0101
716.00,0.0098
715.00,0.0096
714.00,0.0095
713.00,0.0095
712.00,0.0095
711.00,0.0094
710.00,0.0092
709.00,0.0092
708.00,0.0093
707.00,0.0094
706.00,0.0095
705.00,0.0096
704.00,0.0097
703.00,0.0097
702.00,0.0096
701.00,0.0093
700.00,0.0089
699.00,0.0086
698.00,0.0084
697.00,0.0084
696.00,0.0085
695.00,0.0086
694.00,0.0087
693.00,0.0088
692.00,0.0090
691.00,0.0091
690.00,0.0092
689.00,0.0092
688.00,0.0091
687.00,0.0089
686.00,0.0087
685.00,0.0085
684.00,0.0084
683.00,0.0084
682.00,0.0085
681.00,0.0086
680.00,0.0087
679.00,0.0088
678.00,0.0088
677.00,0.0087
676.00,0.0085
675.00,0.0083
674.00,0.0084
673.00,0.0086
672.00,0.0089
671.00,0.0090
670.00,0.0090
669.00,0.0089
668.00,0.0091
667.00,0.0094
666.00,0.0095
665.00,0.0094
664.00,0.0092
663.00,0.0089
662.00,0.0086
661.00,0.0086
660.00,0.0089
659.00,0.0092
658.00,0.0094
657.00,0.0094
656.00,0.0093
655.00,0.0092
654.00,0.0090
653.00,0.0088
652.00,0.0086
651.00,0.0085
650.00,0.0085
649.00,0.0086
648.00,0.0086
647.00,0.0086
646.00,0.0087
645.00,0.0088
644.00,0.0090
643.00,0.0091
642.00,0.0091
641.00,0.0089
640.00,0.0087
639.00,0.0086
638.00,0.0088
637.00,0.0090
636.00,0.0092
635.00,0.0093
634.00,0.0092
633.00,0.0092
632.00,0.0092
631.00,0.0093
630.00,0.0094
629.00,0.0093
628.00,0.0090
627.00,0.0087
626.00,0.0086
625.00,0.0087
624.00,0.0090
623.00,0.0092
622.00,0.0094
621.00,0.0095
620.00,0.0096
619.00,0.0096
618.00,0.0095
617.00,0.0094
616.00,0.0092
615.00,0.0093
614.00,0.0093
613.00,0.0093
612.00,0.0092
611.00,0.0092
610.00,0.0092
609.00,0.0093
608.00,0.0093
607.00,0.0093
606.00,0.0093
605.00,0.0093
604.00,0.0093
603.00,0.0094
602.00,0.0094
601.00,0.0093
600.00,0.0091
599.00,0.0090
598.00,0.0090
597.00,0.0091
596.00,0.0092
595.00,0.0094
594.00,0.0095
593.00,0.0096
592.00,0.0096
591.00,0.0097
590.00,0.0097
589.00,0.0095
588.00,0.0094
587.00,0.0093
586.00,0.0094
585.00,0.0095
584.00,0.0096
583.00,0.0096
582.00,0.0095
581.00,0.0095
580.00,0.0096
579.00,0.0096
578.00,0.0096
577.00,0.0096
576.00,0.0095
575.00,0.0095
574.00,0.0095
573.00,0.0095
572.00,0.0094
571.00,0.0093
570.00,0.0094
569.00,0.0097
568.00,0.0099
567.00,0.0101
566.00,0.0101
565.00,0.0100
564.00,0.0098
563.00,0.0096
562.00,0.0095
561.00,0.0095
560.00,0.0095
559.00,0.0093
558.00,0.0091
557.00,0.0091
556.00,0.0093
555.00,0.0093
554.00,0.0093
553.00,0.0093
552.00,0.0094
551.00,0.0095
550.00,0.0094
549.00,0.0093
548.00,0.0093
547.00,0.0093
546.00,0.0093
545.00,0.0092
544.00,0.0092
543.00,0.0094
542.00,0.0098
541.00,0.0102
540.00,0.0106
539.00,0.0108
538.00,0.0108
537.00,0.0107
536.00,0.0105
535.00,0.0105
534.00,0.0106
533.00,0.0107
532.00,0.0108
531.00,0.0112
530.00,0.0118
529.00,0.0123
528.00,0.0124
527.00,0.0121
526.00,0.0114
525.00,0.0109
524.00,0.0108
523.00,0.0109
522.00,0.0110
521.00,0.0108
520.00,0.0103
519.00,0.0095
518.00,0.0088
517.00,0.0083
516.00,0.0081
515.00,0.0084
514.00,0.0091
513.00,0.0098
512.00,0.0102
511.00,0.0104
510.00,0.0104
509.00,0.0102
508.00,0.0099
507.00,0.0097
506.00,0.0098
505.00,0.0101
504.00,0.0106
503.00,0.0108
502.00,0.0107
501.00,0.0101
500.00,0.0094
499.00,0.0088
498.00,0.0087
497.00,0.0087
496.00,0.0088
495.00,0.0090
494.00,0.0094
493.00,0.0101
492.00,0.0109
491.00,0.0111
490.00,0.0106
489.00,0.0093
488.00,0.0080
487.00,0.0072
486.00,0.0071
485.00,0.0076
484.00,0.0083
483.00,0.0090
482.00,0.0095
481.00,0.0095
480.00,0.0090
479.00,0.0085
478.00,0.0089
477.00,0.0100
476.00,0.0111
475.00,0.0116
474.00,0.0116
473.00,0.0116
472.00,0.0116
471.00,0.0116
470.00,0.0116
469.00,0.0119
468.00,0.0126
467.00,0.0132
466.00,0.0136
465.00,0.0136
464.00,0.0135
463.00,0.0136
462.00,0.0145
461.00,0.0163
460.00,0.0183
459.00,0.0193
458.00,0.0188
457.00,0.0178
456.00,0.0173
455.00,0.0175
454.00,0.0174
453.00,0.0166
452.00,0.0150
451.00,0.0135
450.00,0.0126
