Created as New Dataset,Sample 165 By Administrator Date Tuesday, September 09 2025
cm-1,A
4000.00,0.0011
3999.00,0.0011
3998.00,0.0011
3997.00,0.0010
3996.00,0.0010
3995.00,0.0010
3994.00,0.0010
3993.00,0.0010
3992.00,0.0010
3991.00,0.0010
3990.00,0.0010
3989.00,0.0010
3988.00,0.0010
3987.00,0.0010
3986.00,0.0010
3985.00,0.0010
3984.00,0.0010
3983.00,0.0010
3982.00,0.0010
3981.00,0.0009
3980.00,0.0009
3979.00,0.0009
3978.00,0.0009
3977.00,0.0009
3976.00,0.0009
3975.00,0.0009
3974.00,0.0009
3973.00,0.0009
3972.00,0.0009
3971.00,0.0008
3970.00,0.0008
3969.00,0.0008
3968.00,0.0008
3967.00,0.0008
3966.00,0.0007
3965.00,0.0007
3964.00,0.0007
3963.00,0.0008
3962.00,0.0008
3961.00,0.0008
3960.00,0.0008
3959.00,0.0008
3958.00,0.0009
3957.00,0.0009
3956.00,0.0009
3955.00,0.0009
3954.00,0.0008
3953.00,0.0008
3952.00,0.0008
3951.00,0.0008
3950.00,0.0007
3949.00,0.0007
3948.00,0.0007
3947.00,0.0007
3946.00,0.0007
3945.00,0.0007
3944.00,0.0007
3943.00,0.0008
3942.00,0.0008
3941.00,0.0008
3940.00,0.0008
3939.00,0.0008
3938.00,0.0008
3937.00,0.0008
3936.00,0.0008
3935.00,0.0008
3934.00,0.0008
3933.00,0.0008
3932.00,0.0008
3931.00,0.0008
3930.00,0.0008
3929.00,0.0008
3928.00,0.0008
3927.00,0.0009
3926.00,0.0009
3925.00,0.0009
3924.00,0.0009
3923.00,0.0009
3922.00,0.0009
3921.00,0.0009
3920.00,0.0009
3919.00,0.0008
3918.00,0.0008
3917.00,0.0008
3916.00,0.0008
3915.00,0.0008
3914.00,0.0008
3913.00,0.0008
3912.00,0.0009
3911.00,0.0009
3910.00,0.0008
3909.00,0.0008
3908.00,0.0008
3907.00,0.0008
3906.00,0.0008
3905.00,0.0008
3904.00,0.0009
3903.00,0.0009
3902.00,0.0008
3901.00,0.0008
3900.00,0.0008
3899.00,0.0008
3898.00,0.0008
3897.00,0.0008
3896.00,0.0008
3895.00,0.0008
3894.00,0.0008
3893.00,0.0008
3892.00,0.0008
3891.00,0.0008
3890.00,0.0008
3889.00,0.0008
3888.00,0.0008
3887.00,0.0008
3886.00,0.0007
3885.00,0.0007
3884.00,0.0007
3883.00,0.0008
3882.00,0.0008
3881.00,0.0008
3880.00,0.0008
3879.00,0.0008
3878.00,0.0007
3877.00,0.0007
3876.00,0.0007
3875.00,0.0007
3874.00,0.0007
3873.00,0.0007
3872.00,0.0007
3871.00,0.0007
3870.00,0.0007
3869.00,0.0007
3868.00,0.0007
3867.00,0.0007
3866.00,0.0007
3865.00,0.0007
3864.00,0.0007
3863.00,0.0007
3862.00,0.0007
3861.00,0.0007
3860.00,0.0007
3859.00,0.0007
3858.00,0.0006
3857.00,0.0006
3856.00,0.0006
3855.00,0.0006
3854.00,0.0006
3853.00,0.0006
3852.00,0.0005
3851.00,0.0005
3850.00,0.0005
3849.00,0.0006
3848.00,0.0006
3847.00,0.0007
3846.00,0.0007
3845.00,0.0007
3844.00,0.0007
3843.00,0.0007
3842.00,0.0008
3841.00,0.0008
3840.00,0.0008
3839.00,0.0008
3838.00,0.0008
3837.00,0.0008
3836.00,0.0008
3835.00,0.0008
3834.00,0.0008
3833.00,0.0008
3832.00,0.0008
3831.00,0.0008
3830.00,0.0008
3829.00,0.0007
3828.00,0.0008
3827.00,0.0008
3826.00,0.0008
3825.00,0.0008
3824.00,0.0008
3823.00,0.0008
3822.00,0.0007
3821.00,0.0006
3820.00,0.0006
3819.00,0.0006
3818.00,0.0006
3817.00,0.0007
3816.00,0.0007
3815.00,0.0007
3814.00,0.0007
3813.00,0.0007
3812.00,0.0008
3811.00,0.0008
3810.00,0.0008
3809.00,0.0008
3808.00,0.0008
3807.00,0.0008
3806.00,0.0008
3805.00,0.0007
3804.00,0.0007
3803.00,0.0007
3802.00,0.0007
3801.00,0.0007
3800.00,0.0007
3799.00,0.0007
3798.00,0.0007
3797.00,0.0007
3796.00,0.0007
3795.00,0.0007
3794.00,0.0006
3793.00,0.0007
3792.00,0.0007
3791.00,0.0007
3790.00,0.0008
3789.00,0.0008
3788.00,0.0008
3787.00,0.0008
3786.00,0.0008
3785.00,0.0008
3784.00,0.0008
3783.00,0.0008
3782.00,0.0008
3781.00,0.0008
3780.00,0.0008
3779.00,0.0007
3778.00,0.0007
3777.00,0.0007
3776.00,0.0007
3775.00,0.0007
3774.00,0.0008
3773.00,0.0009
3772.00,0.0009
3771.00,0.0009
3770.00,0.0009
3769.00,0.0009
3768.00,0.0009
3767.00,0.0009
3766.00,0.0009
3765.00,0.0009
3764.00,0.0009
3763.00,0.0009
3762.00,0.0009
3761.00,0.0009
3760.00,0.0008
3759.00,0.0008
3758.00,0.0008
3757.00,0.0007
3756.00,0.0007
3755.00,0.0007
3754.00,0.0006
3753.00,0.0006
3752.00,0.0006
3751.00,0.0006
3750.00,0.0006
3749.00,0.0006
3748.00,0.0006
3747.00,0.0006
3746.00,0.0006
3745.00,0.0006
3744.00,0.0006
3743.00,0.0006
3742.00,0.0006
3741.00,0.0006
3740.00,0.0006
3739.00,0.0006
3738.00,0.0005
3737.00,0.0005
3736.00,0.0005
3735.00,0.0006
3734.00,0.0006
3733.00,0.0006
3732.00,0.0006
3731.00,0.0005
3730.00,0.0005
3729.00,0.0006
3728.00,0.0006
3727.00,0.0007
3726.00,0.0007
3725.00,0.0007
3724.00,0.0007
3723.00,0.0006
3722.00,0.0006
3721.00,0.0007
3720.00,0.0007
3719.00,0.0007
3718.00,0.0007
3717.00,0.0007
3716.00,0.0007
3715.00,0.0007
3714.00,0.0006
3713.00,0.0006
3712.00,0.0006
3711.00,0.0006
3710.00,0.0006
3709.00,0.0006
3708.00,0.0006
3707.00,0.0006
3706.00,0.0006
3705.00,0.0007
3704.00,0.0007
3703.00,0.0007
3702.00,0.0007
3701.00,0.0007
3700.00,0.0007
3699.00,0.0007
3698.00,0.0007
3697.00,0.0007
3696.00,0.0007
3695.00,0.0007
3694.00,0.0007
3693.00,0.0007
3692.00,0.0007
3691.00,0.0007
3690.00,0.0007
3689.00,0.0006
3688.00,0.0006
3687.00,0.0006
3686.00,0.0006
3685.00,0.0006
3684.00,0.0007
3683.00,0.0008
3682.00,0.0008
3681.00,0.0008
3680.00,0.0008
3679.00,0.0008
3678.00,0.0008
3677.00,0.0007
3676.00,0.0007
3675.00,0.0007
3674.00,0.0007
3673.00,0.0007
3672.00,0.0006
3671.00,0.0006
3670.00,0.0006
3669.00,0.0006
3668.00,0.0006
3667.00,0.0006
3666.00,0.0007
3665.00,0.0007
3664.00,0.0008
3663.00,0.0009
3662.00,0.0009
3661.00,0.0009
3660.00,0.0009
3659.00,0.0009
3658.00,0.0009
3657.00,0.0008
3656.00,0.0008
3655.00,0.0007
3654.00,0.0007
3653.00,0.0008
3652.00,0.0008
3651.00,0.0008
3650.00,0.0008
3649.00,0.0008
3648.00,0.0007
3647.00,0.0007
3646.00,0.0008
3645.00,0.0009
3644.00,0.0009
3643.00,0.0009
3642.00,0.0009
3641.00,0.0009
3640.00,0.0009
3639.00,0.0009
3638.00,0.0009
3637.00,0.0009
3636.00,0.0010
3635.00,0.0010
3634.00,0.0010
3633.00,0.0010
3632.00,0.0009
3631.00,0.0009
3630.00,0.0008
3629.00,0.0008
3628.00,0.0008
3627.00,0.0008
3626.00,0.0009
3625.00,0.0009
3624.00,0.0009
3623.00,0.0010
3622.00,0.0010
3621.00,0.0010
3620.00,0.0010
3619.00,0.0010
3618.00,0.0010
3617.00,0.0010
3616.00,0.0011
3615.00,0.0011
3614.00,0.0011
3613.00,0.0011
3612.00,0.0012
3611.00,0.0012
3610.00,0.0012
3609.00,0.0012
3608.00,0.0013
3607.00,0.0013
3606.00,0.0013
3605.00,0.0013
3604.00,0.0013
3603.00,0.0013
3602.00,0.0013
3601.00,0.0013
3600.00,0.0013
3599.00,0.0013
3598.00,0.0013
3597.00,0.0013
3596.00,0.0014
3595.00,0.0014
3594.00,0.0015
3593.00,0.0015
3592.00,0.0015
3591.00,0.0016
3590.00,0.0016
3589.00,0.0016
3588.00,0.0017
3587.00,0.0017
3586.00,0.0017
3585.00,0.0017
3584.00,0.0016
3583.00,0.0017
3582.00,0.0017
3581.00,0.0018
3580.00,0.0018
3579.00,0.0019
3578.00,0.0019
3577.00,0.0020
3576.00,0.0020
3575.00,0.0021
3574.00,0.0021
3573.00,0.0021
3572.00,0.0021
3571.00,0.0021
3570.00,0.0021
3569.00,0.0021
3568.00,0.0021
3567.00,0.0022
3566.00,0.0022
3565.00,0.0022
3564.00,0.0023
3563.00,0.0023
3562.00,0.0024
3561.00,0.0024
3560.00,0.0025
3559.00,0.0025
3558.00,0.0026
3557.00,0.0026
3556.00,0.0026
3555.00,0.0026
3554.00,0.0026
3553.00,0.0027
3552.00,0.0027
3551.00,0.0028
3550.00,0.0028
3549.00,0.0028
3548.00,0.0028
3547.00,0.0028
3546.00,0.0028
3545.00,0.0029
3544.00,0.0029
3543.00,0.0030
3542.00,0.0030
3541.00,0.0031
3540.00,0.0031
3539.00,0.0032
3538.00,0.0032
3537.00,0.0033
3536.00,0.0033
3535.00,0.0034
3534.00,0.0034
3533.00,0.0034
3532.00,0.0034
3531.00,0.0034
3530.00,0.0035
3529.00,0.0035
3528.00,0.0035
3527.00,0.0036
3526.00,0.0036
3525.00,0.0037
3524.00,0.0037
3523.00,0.0038
3522.00,0.0038
3521.00,0.0038
3520.00,0.0038
3519.00,0.0038
3518.00,0.0039
3517.00,0.0040
3516.00,0.0041
3515.00,0.0042
3514.00,0.0042
3513.00,0.0043
3512.00,0.0043
3511.00,0.0043
3510.00,0.0044
3509.00,0.0044
3508.00,0.0044
3507.00,0.0044
3506.00,0.0045
3505.00,0.0045
3504.00,0.0045
3503.00,0.0046
3502.00,0.0046
3501.00,0.0046
3500.00,0.0047
3499.00,0.0047
3498.00,0.0047
3497.00,0.0047
3496.00,0.0048
3495.00,0.0048
3494.00,0.0049
3493.00,0.0049
3492.00,0.0049
3491.00,0.0049
3490.00,0.0049
3489.00,0.0050
3488.00,0.0050
3487.00,0.0050
3486.00,0.0051
3485.00,0.0051
3484.00,0.0051
3483.00,0.0051
3482.00,0.0051
3481.00,0.0052
3480.00,0.0053
3479.00,0.0053
3478.00,0.0054
3477.00,0.0055
3476.00,0.0055
3475.00,0.0056
3474.00,0.0056
3473.00,0.0056
3472.00,0.0057
3471.00,0.0057
3470.00,0.0057
3469.00,0.0057
3468.00,0.0058
3467.00,0.0058
3466.00,0.0059
3465.00,0.0059
3464.00,0.0059
3463.00,0.0059
3462.00,0.0060
3461.00,0.0060
3460.00,0.0060
3459.00,0.0061
3458.00,0.0062
3457.00,0.0062
3456.00,0.0063
3455.00,0.0063
3454.00,0.0064
3453.00,0.0064
3452.00,0.0064
3451.00,0.0065
3450.00,0.0065
3449.00,0.0065
3448.00,0.0066
3447.00,0.0066
3446.00,0.0066
3445.00,0.0067
3444.00,0.0067
3443.00,0.0067
3442.00,0.0067
3441.00,0.0067
3440.00,0.0068
3439.00,0.0069
3438.00,0.0070
3437.00,0.0071
3436.00,0.0071
3435.00,0.0072
3434.00,0.0072
3433.00,0.0072
3432.00,0.0072
3431.00,0.0073
3430.00,0.0073
3429.00,0.0074
3428.00,0.0075
3427.00,0.0076
3426.00,0.0077
3425.00,0.0077
3424.00,0.0077
3423.00,0.0077
3422.00,0.0076
3421.00,0.0077
3420.00,0.0078
3419.00,0.0079
3418.00,0.0080
3417.00,0.0080
3416.00,0.0080
3415.00,0.0081
3414.00,0.0081
3413.00,0.0081
3412.00,0.0082
3411.00,0.0082
3410.00,0.0083
3409.00,0.0083
3408.00,0.0084
3407.00,0.0084
3406.00,0.0084
3405.00,0.0084
3404.00,0.0084
3403.00,0.0085
3402.00,0.0085
3401.00,0.0086
3400.00,0.0086
3399.00,0.0087
3398.00,0.0087
3397.00,0.0087
3396.00,0.0088
3395.00,0.0088
3394.00,0.0088
3393.00,0.0088
3392.00,0.0088
3391.00,0.0088
3390.00,0.0088
3389.00,0.0088
3388.00,0.0088
3387.00,0.0088
3386.00,0.0088
3385.00,0.0088
3384.00,0.0088
3383.00,0.0088
3382.00,0.0089
3381.00,0.0089
3380.00,0.0089
3379.00,0.0089
3378.00,0.0089
3377.00,0.0089
3376.00,0.0090
3375.00,0.0090
3374.00,0.0090
3373.00,0.0090
3372.00,0.0090
3371.00,0.0090
3370.00,0.0090
3369.00,0.0090
3368.00,0.0091
3367.00,0.0091
3366.00,0.0091
3365.00,0.0091
3364.00,0.0091
3363.00,0.0091
3362.00,0.0092
3361.00,0.0092
3360.00,0.0093
3359.00,0.0093
3358.00,0.0093
3357.00,0.0093
3356.00,0.0093
3355.00,0.0093
3354.00,0.0094
3353.00,0.0094
3352.00,0.0094
3351.00,0.0094
3350.00,0.0094
3349.00,0.0095
3348.00,0.0095
3347.00,0.0096
3346.00,0.0096
3345.00,0.0096
3344.00,0.0097
3343.00,0.0097
3342.00,0.0098
3341.00,0.0098
3340.00,0.0098
3339.00,0.0098
3338.00,0.0098
3337.00,0.0099
3336.00,0.0099
3335.00,0.0100
3334.00,0.0100
3333.00,0.0100
3332.00,0.0100
3331.00,0.0101
3330.00,0.0101
3329.00,0.0101
3328.00,0.0102
3327.00,0.0102
3326.00,0.0103
3325.00,0.0103
3324.00,0.0104
3323.00,0.0104
3322.00,0.0104
3321.00,0.0104
3320.00,0.0105
3319.00,0.0105
3318.00,0.0105
3317.00,0.0105
3316.00,0.0105
3315.00,0.0105
3314.00,0.0106
3313.00,0.0106
3312.00,0.0106
3311.00,0.0106
3310.00,0.0106
3309.00,0.0106
3308.00,0.0106
3307.00,0.0105
3306.00,0.0105
3305.00,0.0105
3304.00,0.0105
3303.00,0.0105
3302.00,0.0104
3301.00,0.0104
3300.00,0.0104
3299.00,0.0104
3298.00,0.0103
3297.00,0.0103
3296.00,0.0102
3295.00,0.0102
3294.00,0.0101
3293.00,0.0101
3292.00,0.0101
3291.00,0.0101
3290.00,0.0101
3289.00,0.0101
3288.00,0.0101
3287.00,0.0100
3286.00,0.0100
3285.00,0.0099
3284.00,0.0098
3283.00,0.0098
3282.00,0.0098
3281.00,0.0097
3280.00,0.0097
3279.00,0.0097
3278.00,0.0097
3277.00,0.0096
3276.00,0.0096
3275.00,0.0095
3274.00,0.0095
3273.00,0.0094
3272.00,0.0094
3271.00,0.0093
3270.00,0.0093
3269.00,0.0092
3268.00,0.0092
3267.00,0.0092
3266.00,0.0091
3265.00,0.0091
3264.00,0.0090
3263.00,0.0090
3262.00,0.0090
3261.00,0.0090
3260.00,0.0090
3259.00,0.0090
3258.00,0.0089
3257.00,0.0089
3256.00,0.0088
3255.00,0.0088
3254.00,0.0087
3253.00,0.0087
3252.00,0.0087
3251.00,0.0086
3250.00,0.0085
3249.00,0.0085
3248.00,0.0085
3247.00,0.0085
3246.00,0.0085
3245.00,0.0085
3244.00,0.0084
3243.00,0.0084
3242.00,0.0084
3241.00,0.0084
3240.00,0.0083
3239.00,0.0083
3238.00,0.0083
3237.00,0.0083
3236.00,0.0083
3235.00,0.0084
3234.00,0.0084
3233.00,0.0084
3232.00,0.0084
3231.00,0.0085
3230.00,0.0085
3229.00,0.0085
3228.00,0.0085
3227.00,0.0085
3226.00,0.0085
3225.00,0.0085
3224.00,0.0086
3223.00,0.0086
3222.00,0.0086
3221.00,0.0086
3220.00,0.0087
3219.00,0.0087
3218.00,0.0087
3217.00,0.0088
3216.00,0.0089
3215.00,0.0089
3214.00,0.0090
3213.00,0.0090
3212.00,0.0090
3211.00,0.0091
3210.00,0.0091
3209.00,0.0092
3208.00,0.0092
3207.00,0.0093
3206.00,0.0093
3205.00,0.0093
3204.00,0.0093
3203.00,0.0093
3202.00,0.0093
3201.00,0.0092
3200.00,0.0092
3199.00,0.0092
3198.00,0.0093
3197.00,0.0093
3196.00,0.0093
3195.00,0.0093
3194.00,0.0093
3193.00,0.0092
3192.00,0.0091
3191.00,0.0091
3190.00,0.0090
3189.00,0.0090
3188.00,0.0089
3187.00,0.0089
3186.00,0.0088
3185.00,0.0088
3184.00,0.0088
3183.00,0.0087
3182.00,0.0087
3181.00,0.0086
3180.00,0.0086
3179.00,0.0085
3178.00,0.0084
3177.00,0.0084
3176.00,0.0083
3175.00,0.0083
3174.00,0.0082
3173.00,0.0082
3172.00,0.0081
3171.00,0.0081
3170.00,0.0080
3169.00,0.0079
3168.00,0.0079
3167.00,0.0078
3166.00,0.0077
3165.00,0.0077
3164.00,0.0077
3163.00,0.0077
3162.00,0.0076
3161.00,0.0076
3160.00,0.0076
3159.00,0.0076
3158.00,0.0075
3157.00,0.0075
3156.00,0.0075
3155.00,0.0075
3154.00,0.0074
3153.00,0.0073
3152.00,0.0073
3151.00,0.0073
3150.00,0.0073
3149.00,0.0073
3148.00,0.0073
3147.00,0.0073
3146.00,0.0072
3145.00,0.0072
3144.00,0.0072
3143.00,0.0072
3142.00,0.0072
3141.00,0.0072
3140.00,0.0071
3139.00,0.0071
3138.00,0.0071
3137.00,0.0071
3136.00,0.0070
3135.00,0.0070
3134.00,0.0070
3133.00,0.0070
3132.00,0.0070
3131.00,0.0070
3130.00,0.0069
3129.00,0.0069
3128.00,0.0068
3127.00,0.0068
3126.00,0.0068
3125.00,0.0068
3124.00,0.0068
3123.00,0.0067
3122.00,0.0066
3121.00,0.0066
3120.00,0.0065
3119.00,0.0065
3118.00,0.0065
3117.00,0.0064
3116.00,0.0064
3115.00,0.0063
3114.00,0.0063
3113.00,0.0063
3112.00,0.0062
3111.00,0.0062
3110.00,0.0062
3109.00,0.0061
3108.00,0.0061
3107.00,0.0061
3106.00,0.0060
3105.00,0.0059
3104.00,0.0059
3103.00,0.0058
3102.00,0.0058
3101.00,0.0058
3100.00,0.0057
3099.00,0.0057
3098.00,0.0057
3097.00,0.0056
3096.00,0.0056
3095.00,0.0055
3094.00,0.0055
3093.00,0.0055
3092.00,0.0055
3091.00,0.0054
3090.00,0.0054
3089.00,0.0054
3088.00,0.0053
3087.00,0.0053
3086.00,0.0053
3085.00,0.0052
3084.00,0.0052
3083.00,0.0051
3082.00,0.0051
3081.00,0.0051
3080.00,0.0051
3079.00,0.0051
3078.00,0.0052
3077.00,0.0052
3076.00,0.0052
3075.00,0.0052
3074.00,0.0053
3073.00,0.0053
3072.00,0.0053
3071.00,0.0053
3070.00,0.0053
3069.00,0.0053
3068.00,0.0052
3067.00,0.0053
3066.00,0.0053
3065.00,0.0053
3064.00,0.0052
3063.00,0.0052
3062.00,0.0052
3061.00,0.0052
3060.00,0.0051
3059.00,0.0051
3058.00,0.0052
3057.00,0.0052
3056.00,0.0052
3055.00,0.0052
3054.00,0.0052
3053.00,0.0051
3052.00,0.0052
3051.00,0.0052
3050.00,0.0052
3049.00,0.0052
3048.00,0.0052
3047.00,0.0052
3046.00,0.0052
3045.00,0.0052
3044.00,0.0052
3043.00,0.0052
3042.00,0.0052
3041.00,0.0052
3040.00,0.0052
3039.00,0.0052
3038.00,0.0053
3037.00,0.0053
3036.00,0.0054
3035.00,0.0054
3034.00,0.0054
3033.00,0.0054
3032.00,0.0055
3031.00,0.0055
3030.00,0.0056
3029.00,0.0056
3028.00,0.0057
3027.00,0.0057
3026.00,0.0057
3025.00,0.0057
3024.00,0.0058
3023.00,0.0058
3022.00,0.0059
3021.00,0.0060
3020.00,0.0061
3019.00,0.0062
3018.00,0.0062
3017.00,0.0063
3016.00,0.0064
3015.00,0.0065
3014.00,0.0067
3013.00,0.0068
3012.00,0.0070
3011.00,0.0072
3010.00,0.0073
3009.00,0.0075
3008.00,0.0076
3007.00,0.0078
3006.00,0.0080
3005.00,0.0082
3004.00,0.0084
3003.00,0.0086
3002.00,0.0089
3001.00,0.0091
3000.00,0.0094
2999.00,0.0096
2998.00,0.0099
2997.00,0.0103
2996.00,0.0107
2995.00,0.0110
2994.00,0.0115
2993.00,0.0120
2992.00,0.0126
2991.00,0.0132
2990.00,0.0139
2989.00,0.0146
2988.00,0.0155
2987.00,0.0164
2986.00,0.0175
2985.00,0.0187
2984.00,0.0200
2983.00,0.0215
2982.00,0.0231
2981.00,0.0249
2980.00,0.0270
2979.00,0.0293
2978.00,0.0319
2977.00,0.0348
2976.00,0.0382
2975.00,0.0420
2974.00,0.0464
2973.00,0.0515
2972.00,0.0572
2971.00,0.0636
2970.00,0.0708
2969.00,0.0787
2968.00,0.0873
2967.00,0.0966
2966.00,0.1065
2965.00,0.1167
2964.00,0.1268
2963.00,0.1365
2962.00,0.1451
2961.00,0.1523
2960.00,0.1579
2959.00,0.1620
2958.00,0.1653
2957.00,0.1684
2956.00,0.1720
2955.00,0.1765
2954.00,0.1820
2953.00,0.1880
2952.00,0.1938
2951.00,0.1982
2950.00,0.2001
2949.00,0.1983
2948.00,0.1926
2947.00,0.1832
2946.00,0.1710
2945.00,0.1574
2944.00,0.1439
2943.00,0.1318
2942.00,0.1219
2941.00,0.1146
2940.00,0.1100
2939.00,0.1077
2938.00,0.1076
2937.00,0.1093
2936.00,0.1128
2935.00,0.1179
2934.00,0.1244
2933.00,0.1322
2932.00,0.1411
2931.00,0.1509
2930.00,0.1613
2929.00,0.1721
2928.00,0.1827
2927.00,0.1930
2926.00,0.2028
2925.00,0.2121
2924.00,0.2209
2923.00,0.2295
2922.00,0.2379
2921.00,0.2458
2920.00,0.2528
2919.00,0.2581
2918.00,0.2608
2917.00,0.2604
2916.00,0.2567
2915.00,0.2504
2914.00,0.2421
2913.00,0.2330
2912.00,0.2238
2911.00,0.2152
2910.00,0.2072
2909.00,0.2000
2908.00,0.1933
2907.00,0.1868
2906.00,0.1803
2905.00,0.1737
2904.00,0.1668
2903.00,0.1597
2902.00,0.1527
2901.00,0.1457
2900.00,0.1389
2899.00,0.1325
2898.00,0.1265
2897.00,0.1211
2896.00,0.1164
2895.00,0.1125
2894.00,0.1092
2893.00,0.1067
2892.00,0.1048
2891.00,0.1036
2890.00,0.1030
2889.00,0.1029
2888.00,0.1031
2887.00,0.1038
2886.00,0.1047
2885.00,0.1060
2884.00,0.1077
2883.00,0.1099
2882.00,0.1125
2881.00,0.1152
2880.00,0.1180
2879.00,0.1202
2878.00,0.1216
2877.00,0.1221
2876.00,0.1217
2875.00,0.1208
2874.00,0.1200
2873.00,0.1198
2872.00,0.1203
2871.00,0.1217
2870.00,0.1236
2869.00,0.1256
2868.00,0.1270
2867.00,0.1269
2866.00,0.1245
2865.00,0.1195
2864.00,0.1121
2863.00,0.1032
2862.00,0.0939
2861.00,0.0850
2860.00,0.0773
2859.00,0.0711
2858.00,0.0663
2857.00,0.0629
2856.00,0.0606
2855.00,0.0592
2854.00,0.0586
2853.00,0.0586
2852.00,0.0593
2851.00,0.0606
2850.00,0.0627
2849.00,0.0654
2848.00,0.0689
2847.00,0.0733
2846.00,0.0785
2845.00,0.0847
2844.00,0.0916
2843.00,0.0991
2842.00,0.1068
2841.00,0.1141
2840.00,0.1200
2839.00,0.1238
2838.00,0.1245
2837.00,0.1219
2836.00,0.1158
2835.00,0.1069
2834.00,0.0963
2833.00,0.0852
2832.00,0.0745
2831.00,0.0651
2830.00,0.0570
2829.00,0.0504
2828.00,0.0451
2827.00,0.0408
2826.00,0.0374
2825.00,0.0345
2824.00,0.0321
2823.00,0.0301
2822.00,0.0284
2821.00,0.0269
2820.00,0.0256
2819.00,0.0244
2818.00,0.0234
2817.00,0.0225
2816.00,0.0217
2815.00,0.0211
2814.00,0.0205
2813.00,0.0199
2812.00,0.0193
2811.00,0.0188
2810.00,0.0182
2809.00,0.0177
2808.00,0.0171
2807.00,0.0165
2806.00,0.0158
2805.00,0.0151
2804.00,0.0145
2803.00,0.0139
2802.00,0.0134
2801.00,0.0130
2800.00,0.0126
2799.00,0.0123
2798.00,0.0120
2797.00,0.0118
2796.00,0.0116
2795.00,0.0113
2794.00,0.0111
2793.00,0.0108
2792.00,0.0105
2791.00,0.0101
2790.00,0.0098
2789.00,0.0095
2788.00,0.0091
2787.00,0.0088
2786.00,0.0085
2785.00,0.0083
2784.00,0.0080
2783.00,0.0078
2782.00,0.0076
2781.00,0.0074
2780.00,0.0072
2779.00,0.0071
2778.00,0.0069
2777.00,0.0068
2776.00,0.0067
2775.00,0.0066
2774.00,0.0065
2773.00,0.0064
2772.00,0.0063
2771.00,0.0062
2770.00,0.0062
2769.00,0.0062
2768.00,0.0062
2767.00,0.0062
2766.00,0.0062
2765.00,0.0061
2764.00,0.0061
2763.00,0.0060
2762.00,0.0059
2761.00,0.0059
2760.00,0.0058
2759.00,0.0058
2758.00,0.0058
2757.00,0.0058
2756.00,0.0058
2755.00,0.0058
2754.00,0.0058
2753.00,0.0058
2752.00,0.0058
2751.00,0.0057
2750.00,0.0057
2749.00,0.0057
2748.00,0.0057
2747.00,0.0058
2746.00,0.0058
2745.00,0.0059
2744.00,0.0060
2743.00,0.0061
2742.00,0.0062
2741.00,0.0063
2740.00,0.0064
2739.00,0.0065
2738.00,0.0067
2737.00,0.0068
2736.00,0.0070
2735.00,0.0071
2734.00,0.0073
2733.00,0.0074
2732.00,0.0076
2731.00,0.0078
2730.00,0.0080
2729.00,0.0082
2728.00,0.0085
2727.00,0.0088
2726.00,0.0090
2725.00,0.0093
2724.00,0.0094
2723.00,0.0095
2722.00,0.0094
2721.00,0.0092
2720.00,0.0090
2719.00,0.0086
2718.00,0.0083
2717.00,0.0079
2716.00,0.0076
2715.00,0.0073
2714.00,0.0071
2713.00,0.0068
2712.00,0.0066
2711.00,0.0065
2710.00,0.0063
2709.00,0.0062
2708.00,0.0061
2707.00,0.0059
2706.00,0.0058
2705.00,0.0057
2704.00,0.0056
2703.00,0.0055
2702.00,0.0054
2701.00,0.0053
2700.00,0.0051
2699.00,0.0051
2698.00,0.0050
2697.00,0.0050
2696.00,0.0050
2695.00,0.0050
2694.00,0.0050
2693.00,0.0049
2692.00,0.0049
2691.00,0.0049
2690.00,0.0049
2689.00,0.0050
2688.00,0.0050
2687.00,0.0050
2686.00,0.0050
2685.00,0.0050
2684.00,0.0049
2683.00,0.0049
2682.00,0.0049
2681.00,0.0049
2680.00,0.0050
2679.00,0.0050
2678.00,0.0050
2677.00,0.0050
2676.00,0.0050
2675.00,0.0050
2674.00,0.0050
2673.00,0.0050
2672.00,0.0050
2671.00,0.0049
2670.00,0.0049
2669.00,0.0049
2668.00,0.0049
2667.00,0.0049
2666.00,0.0049
2665.00,0.0050
2664.00,0.0050
2663.00,0.0051
2662.00,0.0052
2661.00,0.0052
2660.00,0.0052
2659.00,0.0052
2658.00,0.0051
2657.00,0.0051
2656.00,0.0051
2655.00,0.0050
2654.00,0.0050
2653.00,0.0049
2652.00,0.0049
2651.00,0.0048
2650.00,0.0048
2649.00,0.0047
2648.00,0.0047
2647.00,0.0046
2646.00,0.0046
2645.00,0.0045
2644.00,0.0044
2643.00,0.0044
2642.00,0.0043
2641.00,0.0043
2640.00,0.0043
2639.00,0.0043
2638.00,0.0043
2637.00,0.0043
2636.00,0.0043
2635.00,0.0042
2634.00,0.0042
2633.00,0.0041
2632.00,0.0041
2631.00,0.0041
2630.00,0.0041
2629.00,0.0042
2628.00,0.0042
2627.00,0.0043
2626.00,0.0043
2625.00,0.0043
2624.00,0.0043
2623.00,0.0043
2622.00,0.0043
2621.00,0.0043
2620.00,0.0043
2619.00,0.0042
2618.00,0.0042
2617.00,0.0042
2616.00,0.0042
2615.00,0.0042
2614.00,0.0042
2613.00,0.0042
2612.00,0.0042
2611.00,0.0042
2610.00,0.0041
2609.00,0.0040
2608.00,0.0039
2607.00,0.0038
2606.00,0.0038
2605.00,0.0037
2604.00,0.0037
2603.00,0.0036
2602.00,0.0036
2601.00,0.0035
2600.00,0.0034
2599.00,0.0034
2598.00,0.0034
2597.00,0.0034
2596.00,0.0034
2595.00,0.0035
2594.00,0.0035
2593.00,0.0036
2592.00,0.0036
2591.00,0.0037
2590.00,0.0038
2589.00,0.0038
2588.00,0.0039
2587.00,0.0039
2586.00,0.0040
2585.00,0.0041
2584.00,0.0041
2583.00,0.0042
2582.00,0.0042
2581.00,0.0042
2580.00,0.0041
2579.00,0.0041
2578.00,0.0040
2577.00,0.0040
2576.00,0.0038
2575.00,0.0037
2574.00,0.0036
2573.00,0.0034
2572.00,0.0033
2571.00,0.0031
2570.00,0.0030
2569.00,0.0029
2568.00,0.0029
2567.00,0.0028
2566.00,0.0028
2565.00,0.0028
2564.00,0.0027
2563.00,0.0027
2562.00,0.0026
2561.00,0.0027
2560.00,0.0027
2559.00,0.0028
2558.00,0.0028
2557.00,0.0027
2556.00,0.0027
2555.00,0.0027
2554.00,0.0027
2553.00,0.0027
2552.00,0.0026
2551.00,0.0026
2550.00,0.0025
2549.00,0.0024
2548.00,0.0024
2547.00,0.0024
2546.00,0.0023
2545.00,0.0022
2544.00,0.0021
2543.00,0.0021
2542.00,0.0021
2541.00,0.0021
2540.00,0.0021
2539.00,0.0020
2538.00,0.0020
2537.00,0.0020
2536.00,0.0020
2535.00,0.0020
2534.00,0.0019
2533.00,0.0018
2532.00,0.0018
2531.00,0.0018
2530.00,0.0017
2529.00,0.0017
2528.00,0.0017
2527.00,0.0018
2526.00,0.0018
2525.00,0.0018
2524.00,0.0018
2523.00,0.0017
2522.00,0.0016
2521.00,0.0015
2520.00,0.0014
2519.00,0.0013
2518.00,0.0013
2517.00,0.0013
2516.00,0.0014
2515.00,0.0014
2514.00,0.0014
2513.00,0.0014
2512.00,0.0014
2511.00,0.0014
2510.00,0.0014
2509.00,0.0015
2508.00,0.0014
2507.00,0.0014
2506.00,0.0013
2505.00,0.0013
2504.00,0.0013
2503.00,0.0013
2502.00,0.0013
2501.00,0.0013
2500.00,0.0013
2499.00,0.0013
2498.00,0.0013
2497.00,0.0014
2496.00,0.0014
2495.00,0.0014
2494.00,0.0014
2493.00,0.0013
2492.00,0.0012
2491.00,0.0012
2490.00,0.0012
2489.00,0.0012
2488.00,0.0013
2487.00,0.0013
2486.00,0.0014
2485.00,0.0014
2484.00,0.0014
2483.00,0.0014
2482.00,0.0013
2481.00,0.0013
2480.00,0.0012
2479.00,0.0012
2478.00,0.0012
2477.00,0.0012
2476.00,0.0013
2475.00,0.0013
2474.00,0.0013
2473.00,0.0013
2472.00,0.0013
2471.00,0.0012
2470.00,0.0012
2469.00,0.0011
2468.00,0.0011
2467.00,0.0011
2466.00,0.0011
2465.00,0.0010
2464.00,0.0010
2463.00,0.0011
2462.00,0.0012
2461.00,0.0012
2460.00,0.0013
2459.00,0.0013
2458.00,0.0013
2457.00,0.0013
2456.00,0.0012
2455.00,0.0012
2454.00,0.0012
2453.00,0.0012
2452.00,0.0013
2451.00,0.0013
2450.00,0.0013
2449.00,0.0013
2448.00,0.0013
2447.00,0.0013
2446.00,0.0012
2445.00,0.0012
2444.00,0.0012
2443.00,0.0011
2442.00,0.0011
2441.00,0.0011
2440.00,0.0012
2439.00,0.0012
2438.00,0.0013
2437.00,0.0014
2436.00,0.0014
2435.00,0.0014
2434.00,0.0014
2433.00,0.0014
2432.00,0.0014
2431.00,0.0014
2430.00,0.0014
2429.00,0.0013
2428.00,0.0013
2427.00,0.0013
2426.00,0.0013
2425.00,0.0013
2424.00,0.0013
2423.00,0.0014
2422.00,0.0015
2421.00,0.0014
2420.00,0.0014
2419.00,0.0013
2418.00,0.0013
2417.00,0.0012
2416.00,0.0012
2415.00,0.0012
2414.00,0.0012
2413.00,0.0012
2412.00,0.0012
2411.00,0.0013
2410.00,0.0013
2409.00,0.0013
2408.00,0.0012
2407.00,0.0011
2406.00,0.0010
2405.00,0.0010
2404.00,0.0010
2403.00,0.0010
2402.00,0.0010
2401.00,0.0010
2400.00,0.0010
2399.00,0.0010
2398.00,0.0010
2397.00,0.0011
2396.00,0.0011
2395.00,0.0011
2394.00,0.0011
2393.00,0.0011
2392.00,0.0011
2391.00,0.0011
2390.00,0.0011
2389.00,0.0010
2388.00,0.0010
2387.00,0.0009
2386.00,0.0009
2385.00,0.0008
2384.00,0.0007
2383.00,0.0007
2382.00,0.0006
2381.00,0.0006
2380.00,0.0005
2379.00,0.0005
2378.00,0.0005
2377.00,0.0006
2376.00,0.0006
2375.00,0.0007
2374.00,0.0008
2373.00,0.0008
2372.00,0.0008
2371.00,0.0008
2370.00,0.0007
2369.00,0.0007
2368.00,0.0007
2367.00,0.0007
2366.00,0.0007
2365.00,0.0007
2364.00,0.0007
2363.00,0.0007
2362.00,0.0008
2361.00,0.0008
2360.00,0.0009
2359.00,0.0009
2358.00,0.0010
2357.00,0.0011
2356.00,0.0010
2355.00,0.0009
2354.00,0.0007
2353.00,0.0006
2352.00,0.0007
2351.00,0.0008
2350.00,0.0008
2349.00,0.0009
2348.00,0.0008
2347.00,0.0008
2346.00,0.0009
2345.00,0.0010
2344.00,0.0010
2343.00,0.0011
2342.00,0.0010
2341.00,0.0010
2340.00,0.0010
2339.00,0.0010
2338.00,0.0010
2337.00,0.0011
2336.00,0.0011
2335.00,0.0011
2334.00,0.0011
2333.00,0.0010
2332.00,0.0009
2331.00,0.0009
2330.00,0.0009
2329.00,0.0009
2328.00,0.0011
2327.00,0.0014
2326.00,0.0018
2325.00,0.0021
2324.00,0.0022
2323.00,0.0022
2322.00,0.0020
2321.00,0.0019
2320.00,0.0017
2319.00,0.0016
2318.00,0.0015
2317.00,0.0015
2316.00,0.0014
2315.00,0.0013
2314.00,0.0012
2313.00,0.0011
2312.00,0.0011
2311.00,0.0011
2310.00,0.0011
2309.00,0.0011
2308.00,0.0012
2307.00,0.0012
2306.00,0.0012
2305.00,0.0012
2304.00,0.0011
2303.00,0.0011
2302.00,0.0011
2301.00,0.0011
2300.00,0.0011
2299.00,0.0012
2298.00,0.0012
2297.00,0.0013
2296.00,0.0014
2295.00,0.0014
2294.00,0.0015
2293.00,0.0015
2292.00,0.0016
2291.00,0.0017
2290.00,0.0018
2289.00,0.0019
2288.00,0.0020
2287.00,0.0020
2286.00,0.0019
2285.00,0.0018
2284.00,0.0017
2283.00,0.0017
2282.00,0.0016
2281.00,0.0017
2280.00,0.0017
2279.00,0.0017
2278.00,0.0016
2277.00,0.0015
2276.00,0.0015
2275.00,0.0015
2274.00,0.0015
2273.00,0.0016
2272.00,0.0016
2271.00,0.0017
2270.00,0.0017
2269.00,0.0017
2268.00,0.0015
2267.00,0.0014
2266.00,0.0012
2265.00,0.0011
2264.00,0.0012
2263.00,0.0014
2262.00,0.0016
2261.00,0.0017
2260.00,0.0017
2259.00,0.0016
2258.00,0.0015
2257.00,0.0015
2256.00,0.0016
2255.00,0.0015
2254.00,0.0014
2253.00,0.0012
2252.00,0.0010
2251.00,0.0008
2250.00,0.0008
2249.00,0.0008
2248.00,0.0009
2247.00,0.0010
2246.00,0.0010
2245.00,0.0010
2244.00,0.0010
2243.00,0.0010
2242.00,0.0010
2241.00,0.0010
2240.00,0.0011
2239.00,0.0011
2238.00,0.0010
2237.00,0.0010
2236.00,0.0009
2235.00,0.0010
2234.00,0.0011
2233.00,0.0011
2232.00,0.0011
2231.00,0.0011
2230.00,0.0011
2229.00,0.0011
2228.00,0.0011
2227.00,0.0010
2226.00,0.0010
2225.00,0.0009
2224.00,0.0009
2223.00,0.0008
2222.00,0.0007
2221.00,0.0008
2220.00,0.0009
2219.00,0.0009
2218.00,0.0007
2217.00,0.0005
2216.00,0.0004
2215.00,0.0005
2214.00,0.0006
2213.00,0.0005
2212.00,0.0004
2211.00,0.0003
2210.00,0.0003
2209.00,0.0004
2208.00,0.0004
2207.00,0.0004
2206.00,0.0004
2205.00,0.0005
2204.00,0.0006
2203.00,0.0007
2202.00,0.0008
2201.00,0.0010
2200.00,0.0010
2199.00,0.0010
2198.00,0.0009
2197.00,0.0008
2196.00,0.0006
2195.00,0.0004
2194.00,0.0004
2193.00,0.0005
2192.00,0.0006
2191.00,0.0008
2190.00,0.0009
2189.00,0.0010
2188.00,0.0010
2187.00,0.0010
2186.00,0.0010
2185.00,0.0010
2184.00,0.0009
2183.00,0.0007
2182.00,0.0005
2181.00,0.0003
2180.00,0.0003
2179.00,0.0004
2178.00,0.0004
2177.00,0.0003
2176.00,0.0000
2175.00,-0.0002
2174.00,-0.0001
2173.00,0.0003
2172.00,0.0007
2171.00,0.0010
2170.00,0.0012
2169.00,0.0013
2168.00,0.0014
2167.00,0.0013
2166.00,0.0014
2165.00,0.0016
2164.00,0.0020
2163.00,0.0022
2162.00,0.0022
2161.00,0.0015
2160.00,0.0002
2159.00,-0.0014
2158.00,-0.0027
2157.00,-0.0032
2156.00,-0.0030
2155.00,-0.0027
2154.00,-0.0026
2153.00,-0.0026
2152.00,-0.0026
2151.00,-0.0024
2150.00,-0.0021
2149.00,-0.0016
2148.00,-0.0010
2147.00,-0.0005
2146.00,-0.0004
2145.00,-0.0005
2144.00,-0.0007
2143.00,-0.0008
2142.00,-0.0008
2141.00,-0.0008
2140.00,-0.0008
2139.00,-0.0009
2138.00,-0.0010
2137.00,-0.0010
2136.00,-0.0011
2135.00,-0.0012
2134.00,-0.0013
2133.00,-0.0014
2132.00,-0.0013
2131.00,-0.0013
2130.00,-0.0011
2129.00,-0.0009
2128.00,-0.0007
2127.00,-0.0006
2126.00,-0.0005
2125.00,-0.0004
2124.00,-0.0003
2123.00,-0.0003
2122.00,-0.0003
2121.00,-0.0003
2120.00,-0.0003
2119.00,-0.0002
2118.00,-0.0000
2117.00,0.0001
2116.00,0.0002
2115.00,0.0003
2114.00,0.0004
2113.00,0.0005
2112.00,0.0005
2111.00,0.0006
2110.00,0.0005
2109.00,0.0005
2108.00,0.0004
2107.00,0.0003
2106.00,0.0003
2105.00,0.0003
2104.00,0.0003
2103.00,0.0003
2102.00,0.0002
2101.00,0.0002
2100.00,0.0002
2099.00,0.0003
2098.00,0.0003
2097.00,0.0003
2096.00,0.0001
2095.00,-0.0001
2094.00,-0.0003
2093.00,-0.0002
2092.00,-0.0000
2091.00,0.0002
2090.00,0.0004
2089.00,0.0004
2088.00,0.0004
2087.00,0.0003
2086.00,0.0003
2085.00,0.0003
2084.00,0.0005
2083.00,0.0006
2082.00,0.0007
2081.00,0.0008
2080.00,0.0008
2079.00,0.0007
2078.00,0.0006
2077.00,0.0007
2076.00,0.0009
2075.00,0.0010
2074.00,0.0010
2073.00,0.0008
2072.00,0.0006
2071.00,0.0005
2070.00,0.0004
2069.00,0.0004
2068.00,0.0004
2067.00,0.0002
2066.00,0.0001
2065.00,0.0000
2064.00,0.0000
2063.00,0.0000
2062.00,0.0001
2061.00,0.0000
2060.00,0.0000
2059.00,0.0000
2058.00,0.0001
2057.00,0.0003
2056.00,0.0004
2055.00,0.0004
2054.00,0.0005
2053.00,0.0008
2052.00,0.0013
2051.00,0.0017
2050.00,0.0017
2049.00,0.0015
2048.00,0.0011
2047.00,0.0009
2046.00,0.0008
2045.00,0.0008
2044.00,0.0008
2043.00,0.0007
2042.00,0.0006
2041.00,0.0004
2040.00,0.0002
2039.00,0.0000
2038.00,0.0000
2037.00,0.0002
2036.00,0.0002
2035.00,0.0001
2034.00,-0.0002
2033.00,-0.0003
2032.00,-0.0003
2031.00,-0.0003
2030.00,-0.0002
2029.00,-0.0001
2028.00,-0.0000
2027.00,-0.0002
2026.00,-0.0005
2025.00,-0.0007
2024.00,-0.0009
2023.00,-0.0009
2022.00,-0.0009
2021.00,-0.0010
2020.00,-0.0012
2019.00,-0.0014
2018.00,-0.0013
2017.00,-0.0009
2016.00,-0.0005
2015.00,-0.0004
2014.00,-0.0006
2013.00,-0.0008
2012.00,-0.0009
2011.00,-0.0008
2010.00,-0.0008
2009.00,-0.0011
2008.00,-0.0014
2007.00,-0.0017
2006.00,-0.0018
2005.00,-0.0016
2004.00,-0.0014
2003.00,-0.0013
2002.00,-0.0014
2001.00,-0.0015
2000.00,-0.0016
1999.00,-0.0016
1998.00,-0.0015
1997.00,-0.0015
1996.00,-0.0014
1995.00,-0.0014
1994.00,-0.0013
1993.00,-0.0011
1992.00,-0.0008
1991.00,-0.0005
1990.00,-0.0003
1989.00,-0.0002
1988.00,-0.0002
1987.00,-0.0002
1986.00,-0.0002
1985.00,-0.0001
1984.00,0.0001
1983.00,0.0002
1982.00,0.0004
1981.00,0.0007
1980.00,0.0008
1979.00,0.0005
1978.00,-0.0001
1977.00,-0.0007
1976.00,-0.0012
1975.00,-0.0015
1974.00,-0.0016
1973.00,-0.0015
1972.00,-0.0013
1971.00,-0.0011
1970.00,-0.0010
1969.00,-0.0010
1968.00,-0.0011
1967.00,-0.0013
1966.00,-0.0013
1965.00,-0.0012
1964.00,-0.0012
1963.00,-0.0013
1962.00,-0.0017
1961.00,-0.0021
1960.00,-0.0023
1959.00,-0.0023
1958.00,-0.0021
1957.00,-0.0018
1956.00,-0.0016
1955.00,-0.0015
1954.00,-0.0016
1953.00,-0.0017
1952.00,-0.0018
1951.00,-0.0020
1950.00,-0.0021
1949.00,-0.0020
1948.00,-0.0018
1947.00,-0.0018
1946.00,-0.0018
1945.00,-0.0018
1944.00,-0.0015
1943.00,-0.0012
1942.00,-0.0010
1941.00,-0.0009
1940.00,-0.0010
1939.00,-0.0010
1938.00,-0.0011
1937.00,-0.0011
1936.00,-0.0009
1935.00,-0.0007
1934.00,-0.0006
1933.00,-0.0005
1932.00,-0.0006
1931.00,-0.0007
1930.00,-0.0008
1929.00,-0.0008
1928.00,-0.0008
1927.00,-0.0008
1926.00,-0.0008
1925.00,-0.0009
1924.00,-0.0008
1923.00,-0.0007
1922.00,-0.0005
1921.00,-0.0003
1920.00,-0.0002
1919.00,-0.0001
1918.00,-0.0001
1917.00,-0.0002
1916.00,-0.0002
1915.00,-0.0003
1914.00,-0.0003
1913.00,-0.0002
1912.00,-0.0001
1911.00,-0.0001
1910.00,-0.0002
1909.00,-0.0003
1908.00,-0.0004
1907.00,-0.0004
1906.00,-0.0003
1905.00,-0.0002
1904.00,-0.0001
1903.00,-0.0000
1902.00,-0.0000
1901.00,-0.0001
1900.00,-0.0001
1899.00,-0.0002
1898.00,-0.0002
1897.00,-0.0002
1896.00,-0.0001
1895.00,0.0001
1894.00,0.0002
1893.00,0.0002
1892.00,0.0002
1891.00,0.0001
1890.00,0.0000
1889.00,0.0000
1888.00,-0.0000
1887.00,-0.0000
1886.00,-0.0001
1885.00,-0.0001
1884.00,-0.0001
1883.00,-0.0002
1882.00,-0.0002
1881.00,-0.0003
1880.00,-0.0003
1879.00,-0.0003
1878.00,-0.0003
1877.00,-0.0002
1876.00,-0.0001
1875.00,-0.0000
1874.00,0.0001
1873.00,0.0002
1872.00,0.0002
1871.00,0.0002
1870.00,0.0001
1869.00,0.0001
1868.00,0.0001
1867.00,0.0001
1866.00,0.0001
1865.00,0.0002
1864.00,0.0002
1863.00,0.0003
1862.00,0.0003
1861.00,0.0003
1860.00,0.0003
1859.00,0.0003
1858.00,0.0003
1857.00,0.0003
1856.00,0.0003
1855.00,0.0004
1854.00,0.0004
1853.00,0.0004
1852.00,0.0004
1851.00,0.0003
1850.00,0.0002
1849.00,0.0003
1848.00,0.0003
1847.00,0.0004
1846.00,0.0004
1845.00,0.0004
1844.00,0.0005
1843.00,0.0005
1842.00,0.0005
1841.00,0.0004
1840.00,0.0004
1839.00,0.0003
1838.00,0.0003
1837.00,0.0003
1836.00,0.0004
1835.00,0.0004
1834.00,0.0005
1833.00,0.0005
1832.00,0.0004
1831.00,0.0004
1830.00,0.0004
1829.00,0.0005
1828.00,0.0005
1827.00,0.0005
1826.00,0.0004
1825.00,0.0004
1824.00,0.0004
1823.00,0.0004
1822.00,0.0004
1821.00,0.0004
1820.00,0.0004
1819.00,0.0003
1818.00,0.0002
1817.00,0.0002
1816.00,0.0001
1815.00,0.0002
1814.00,0.0002
1813.00,0.0003
1812.00,0.0003
1811.00,0.0004
1810.00,0.0004
1809.00,0.0005
1808.00,0.0005
1807.00,0.0005
1806.00,0.0005
1805.00,0.0005
1804.00,0.0005
1803.00,0.0006
1802.00,0.0006
1801.00,0.0006
1800.00,0.0006
1799.00,0.0006
1798.00,0.0006
1797.00,0.0006
1796.00,0.0007
1795.00,0.0007
1794.00,0.0008
1793.00,0.0008
1792.00,0.0008
1791.00,0.0009
1790.00,0.0009
1789.00,0.0009
1788.00,0.0010
1787.00,0.0010
1786.00,0.0010
1785.00,0.0010
1784.00,0.0010
1783.00,0.0010
1782.00,0.0010
1781.00,0.0010
1780.00,0.0010
1779.00,0.0010
1778.00,0.0009
1777.00,0.0010
1776.00,0.0010
1775.00,0.0010
1774.00,0.0010
1773.00,0.0010
1772.00,0.0010
1771.00,0.0010
1770.00,0.0010
1769.00,0.0010
1768.00,0.0010
1767.00,0.0011
1766.00,0.0012
1765.00,0.0012
1764.00,0.0013
1763.00,0.0013
1762.00,0.0014
1761.00,0.0015
1760.00,0.0015
1759.00,0.0015
1758.00,0.0015
1757.00,0.0015
1756.00,0.0015
1755.00,0.0016
1754.00,0.0016
1753.00,0.0016
1752.00,0.0017
1751.00,0.0018
1750.00,0.0018
1749.00,0.0017
1748.00,0.0018
1747.00,0.0017
1746.00,0.0017
1745.00,0.0017
1744.00,0.0017
1743.00,0.0017
1742.00,0.0018
1741.00,0.0018
1740.00,0.0019
1739.00,0.0020
1738.00,0.0020
1737.00,0.0020
1736.00,0.0020
1735.00,0.0020
1734.00,0.0021
1733.00,0.0021
1732.00,0.0020
1731.00,0.0019
1730.00,0.0019
1729.00,0.0019
1728.00,0.0019
1727.00,0.0019
1726.00,0.0019
1725.00,0.0020
1724.00,0.0020
1723.00,0.0020
1722.00,0.0021
1721.00,0.0021
1720.00,0.0023
1719.00,0.0024
1718.00,0.0025
1717.00,0.0026
1716.00,0.0026
1715.00,0.0026
1714.00,0.0026
1713.00,0.0026
1712.00,0.0026
1711.00,0.0026
1710.00,0.0026
1709.00,0.0026
1708.00,0.0027
1707.00,0.0027
1706.00,0.0028
1705.00,0.0030
1704.00,0.0031
1703.00,0.0032
1702.00,0.0032
1701.00,0.0033
1700.00,0.0036
1699.00,0.0037
1698.00,0.0038
1697.00,0.0039
1696.00,0.0040
1695.00,0.0041
1694.00,0.0042
1693.00,0.0042
1692.00,0.0043
1691.00,0.0044
1690.00,0.0045
1689.00,0.0047
1688.00,0.0048
1687.00,0.0050
1686.00,0.0050
1685.00,0.0051
1684.00,0.0052
1683.00,0.0054
1682.00,0.0055
1681.00,0.0057
1680.00,0.0059
1679.00,0.0061
1678.00,0.0061
1677.00,0.0062
1676.00,0.0063
1675.00,0.0064
1674.00,0.0066
1673.00,0.0067
1672.00,0.0069
1671.00,0.0070
1670.00,0.0072
1669.00,0.0074
1668.00,0.0076
1667.00,0.0077
1666.00,0.0078
1665.00,0.0080
1664.00,0.0081
1663.00,0.0084
1662.00,0.0087
1661.00,0.0089
1660.00,0.0092
1659.00,0.0095
1658.00,0.0097
1657.00,0.0100
1656.00,0.0104
1655.00,0.0107
1654.00,0.0112
1653.00,0.0118
1652.00,0.0121
1651.00,0.0122
1650.00,0.0122
1649.00,0.0123
1648.00,0.0126
1647.00,0.0131
1646.00,0.0136
1645.00,0.0139
1644.00,0.0141
1643.00,0.0143
1642.00,0.0144
1641.00,0.0146
1640.00,0.0147
1639.00,0.0148
1638.00,0.0149
1637.00,0.0149
1636.00,0.0149
1635.00,0.0148
1634.00,0.0147
1633.00,0.0145
1632.00,0.0143
1631.00,0.0140
1630.00,0.0138
1629.00,0.0136
1628.00,0.0134
1627.00,0.0132
1626.00,0.0131
1625.00,0.0129
1624.00,0.0128
1623.00,0.0127
1622.00,0.0126
1621.00,0.0125
1620.00,0.0125
1619.00,0.0124
1618.00,0.0124
1617.00,0.0124
1616.00,0.0124
1615.00,0.0124
1614.00,0.0124
1613.00,0.0124
1612.00,0.0124
1611.00,0.0124
1610.00,0.0125
1609.00,0.0124
1608.00,0.0124
1607.00,0.0124
1606.00,0.0124
1605.00,0.0124
1604.00,0.0123
1603.00,0.0122
1602.00,0.0121
1601.00,0.0119
1600.00,0.0118
1599.00,0.0116
1598.00,0.0114
1597.00,0.0112
1596.00,0.0111
1595.00,0.0109
1594.00,0.0107
1593.00,0.0106
1592.00,0.0105
1591.00,0.0104
1590.00,0.0104
1589.00,0.0105
1588.00,0.0105
1587.00,0.0106
1586.00,0.0107
1585.00,0.0109
1584.00,0.0111
1583.00,0.0112
1582.00,0.0112
1581.00,0.0112
1580.00,0.0111
1579.00,0.0110
1578.00,0.0108
1577.00,0.0107
1576.00,0.0105
1575.00,0.0103
1574.00,0.0101
1573.00,0.0099
1572.00,0.0098
1571.00,0.0097
1570.00,0.0096
1569.00,0.0096
1568.00,0.0097
1567.00,0.0097
1566.00,0.0097
1565.00,0.0097
1564.00,0.0097
1563.00,0.0097
1562.00,0.0097
1561.00,0.0097
1560.00,0.0098
1559.00,0.0099
1558.00,0.0099
1557.00,0.0100
1556.00,0.0100
1555.00,0.0102
1554.00,0.0103
1553.00,0.0106
1552.00,0.0108
1551.00,0.0110
1550.00,0.0113
1549.00,0.0117
1548.00,0.0120
1547.00,0.0123
1546.00,0.0126
1545.00,0.0131
1544.00,0.0136
1543.00,0.0140
1542.00,0.0145
1541.00,0.0150
1540.00,0.0156
1539.00,0.0161
1538.00,0.0163
1537.00,0.0164
1536.00,0.0164
1535.00,0.0164
1534.00,0.0162
1533.00,0.0160
1532.00,0.0157
1531.00,0.0154
1530.00,0.0151
1529.00,0.0147
1528.00,0.0143
1527.00,0.0139
1526.00,0.0134
1525.00,0.0130
1524.00,0.0127
1523.00,0.0123
1522.00,0.0118
1521.00,0.0114
1520.00,0.0111
1519.00,0.0108
1518.00,0.0104
1517.00,0.0102
1516.00,0.0100
1515.00,0.0099
1514.00,0.0098
1513.00,0.0098
1512.00,0.0097
1511.00,0.0097
1510.00,0.0096
1509.00,0.0096
1508.00,0.0096
1507.00,0.0096
1506.00,0.0095
1505.00,0.0096
1504.00,0.0097
1503.00,0.0098
1502.00,0.0099
1501.00,0.0102
1500.00,0.0108
1499.00,0.0114
1498.00,0.0123
1497.00,0.0135
1496.00,0.0147
1495.00,0.0156
1494.00,0.0161
1493.00,0.0163
1492.00,0.0163
1491.00,0.0160
1490.00,0.0156
1489.00,0.0153
1488.00,0.0153
1487.00,0.0154
1486.00,0.0156
1485.00,0.0160
1484.00,0.0165
1483.00,0.0170
1482.00,0.0177
1481.00,0.0187
1480.00,0.0197
1479.00,0.0208
1478.00,0.0222
1477.00,0.0240
1476.00,0.0262
1475.00,0.0287
1474.00,0.0322
1473.00,0.0374
1472.00,0.0438
1471.00,0.0501
1470.00,0.0562
1469.00,0.0626
1468.00,0.0696
1467.00,0.0773
1466.00,0.0861
1465.00,0.0958
1464.00,0.1045
1463.00,0.1108
1462.00,0.1151
1461.00,0.1183
1460.00,0.1208
1459.00,0.1228
1458.00,0.1247
1457.00,0.1266
1456.00,0.1274
1455.00,0.1272
1454.00,0.1265
1453.00,0.1253
1452.00,0.1231
1451.00,0.1197
1450.00,0.1145
1449.00,0.1071
1448.00,0.0975
1447.00,0.0872
1446.00,0.0778
1445.00,0.0699
1444.00,0.0632
1443.00,0.0578
1442.00,0.0538
1441.00,0.0511
1440.00,0.0495
1439.00,0.0488
1438.00,0.0489
1437.00,0.0489
1436.00,0.0477
1435.00,0.0450
1434.00,0.0411
1433.00,0.0364
1432.00,0.0317
1431.00,0.0275
1430.00,0.0244
1429.00,0.0222
1428.00,0.0208
1427.00,0.0199
1426.00,0.0194
1425.00,0.0189
1424.00,0.0185
1423.00,0.0184
1422.00,0.0184
1421.00,0.0184
1420.00,0.0183
1419.00,0.0183
1418.00,0.0183
1417.00,0.0181
1416.00,0.0178
1415.00,0.0175
1414.00,0.0173
1413.00,0.0170
1412.00,0.0166
1411.00,0.0163
1410.00,0.0162
1409.00,0.0160
1408.00,0.0158
1407.00,0.0157
1406.00,0.0156
1405.00,0.0155
1404.00,0.0154
1403.00,0.0154
1402.00,0.0155
1401.00,0.0155
1400.00,0.0156
1399.00,0.0158
1398.00,0.0160
1397.00,0.0162
1396.00,0.0163
1395.00,0.0167
1394.00,0.0172
1393.00,0.0177
1392.00,0.0183
1391.00,0.0193
1390.00,0.0206
1389.00,0.0223
1388.00,0.0250
1387.00,0.0289
1386.00,0.0340
1385.00,0.0404
1384.00,0.0489
1383.00,0.0601
1382.00,0.0749
1381.00,0.0935
1380.00,0.1166
1379.00,0.1431
1378.00,0.1694
1377.00,0.1896
1376.00,0.1979
1375.00,0.1903
1374.00,0.1685
1373.00,0.1408
1372.00,0.1146
1371.00,0.0926
1370.00,0.0748
1369.00,0.0612
1368.00,0.0517
1367.00,0.0458
1366.00,0.0426
1365.00,0.0414
1364.00,0.0416
1363.00,0.0430
1362.00,0.0453
1361.00,0.0477
1360.00,0.0496
1359.00,0.0501
1358.00,0.0490
1357.00,0.0462
1356.00,0.0422
1355.00,0.0377
1354.00,0.0334
1353.00,0.0296
1352.00,0.0266
1351.00,0.0242
1350.00,0.0222
1349.00,0.0207
1348.00,0.0195
1347.00,0.0185
1346.00,0.0178
1345.00,0.0171
1344.00,0.0166
1343.00,0.0162
1342.00,0.0159
1341.00,0.0156
1340.00,0.0154
1339.00,0.0152
1338.00,0.0149
1337.00,0.0147
1336.00,0.0147
1335.00,0.0148
1334.00,0.0150
1333.00,0.0154
1332.00,0.0159
1331.00,0.0162
1330.00,0.0163
1329.00,0.0161
1328.00,0.0157
1327.00,0.0151
1326.00,0.0144
1325.00,0.0137
1324.00,0.0131
1323.00,0.0126
1322.00,0.0122
1321.00,0.0118
1320.00,0.0116
1319.00,0.0114
1318.00,0.0112
1317.00,0.0110
1316.00,0.0109
1315.00,0.0108
1314.00,0.0108
1313.00,0.0108
1312.00,0.0109
1311.00,0.0111
1310.00,0.0115
1309.00,0.0122
1308.00,0.0132
1307.00,0.0145
1306.00,0.0157
1305.00,0.0166
1304.00,0.0169
1303.00,0.0167
1302.00,0.0162
1301.00,0.0157
1300.00,0.0153
1299.00,0.0151
1298.00,0.0151
1297.00,0.0150
1296.00,0.0149
1295.00,0.0146
1294.00,0.0142
1293.00,0.0136
1292.00,0.0130
1291.00,0.0125
1290.00,0.0120
1289.00,0.0116
1288.00,0.0112
1287.00,0.0109
1286.00,0.0106
1285.00,0.0103
1284.00,0.0101
1283.00,0.0099
1282.00,0.0097
1281.00,0.0096
1280.00,0.0095
1279.00,0.0094
1278.00,0.0093
1277.00,0.0093
1276.00,0.0092
1275.00,0.0092
1274.00,0.0092
1273.00,0.0092
1272.00,0.0092
1271.00,0.0092
1270.00,0.0093
1269.00,0.0094
1268.00,0.0096
1267.00,0.0098
1266.00,0.0100
1265.00,0.0102
1264.00,0.0105
1263.00,0.0108
1262.00,0.0112
1261.00,0.0117
1260.00,0.0123
1259.00,0.0131
1258.00,0.0141
1257.00,0.0149
1256.00,0.0153
1255.00,0.0153
1254.00,0.0148
1253.00,0.0140
1252.00,0.0132
1251.00,0.0125
1250.00,0.0120
1249.00,0.0116
1248.00,0.0113
1247.00,0.0111
1246.00,0.0110
1245.00,0.0109
1244.00,0.0108
1243.00,0.0107
1242.00,0.0106
1241.00,0.0105
1240.00,0.0104
1239.00,0.0102
1238.00,0.0101
1237.00,0.0099
1236.00,0.0098
1235.00,0.0098
1234.00,0.0097
1233.00,0.0096
1232.00,0.0096
1231.00,0.0096
1230.00,0.0096
1229.00,0.0097
1228.00,0.0097
1227.00,0.0099
1226.00,0.0101
1225.00,0.0103
1224.00,0.0106
1223.00,0.0110
1222.00,0.0114
1221.00,0.0118
1220.00,0.0120
1219.00,0.0120
1218.00,0.0118
1217.00,0.0116
1216.00,0.0113
1215.00,0.0110
1214.00,0.0107
1213.00,0.0104
1212.00,0.0101
1211.00,0.0098
1210.00,0.0096
1209.00,0.0093
1208.00,0.0091
1207.00,0.0089
1206.00,0.0088
1205.00,0.0088
1204.00,0.0087
1203.00,0.0087
1202.00,0.0086
1201.00,0.0086
1200.00,0.0086
1199.00,0.0086
1198.00,0.0085
1197.00,0.0085
1196.00,0.0085
1195.00,0.0085
1194.00,0.0084
1193.00,0.0084
1192.00,0.0084
1191.00,0.0085
1190.00,0.0085
1189.00,0.0086
1188.00,0.0086
1187.00,0.0087
1186.00,0.0088
1185.00,0.0089
1184.00,0.0090
1183.00,0.0092
1182.00,0.0095
1181.00,0.0098
1180.00,0.0102
1179.00,0.0108
1178.00,0.0115
1177.00,0.0124
1176.00,0.0137
1175.00,0.0154
1174.00,0.0175
1173.00,0.0203
1172.00,0.0236
1171.00,0.0272
1170.00,0.0308
1169.00,0.0337
1168.00,0.0355
1167.00,0.0359
1166.00,0.0352
1165.00,0.0337
1164.00,0.0317
1163.00,0.0298
1162.00,0.0280
1161.00,0.0264
1160.00,0.0252
1159.00,0.0242
1158.00,0.0234
1157.00,0.0228
1156.00,0.0225
1155.00,0.0222
1154.00,0.0220
1153.00,0.0218
1152.00,0.0213
1151.00,0.0206
1150.00,0.0197
1149.00,0.0188
1148.00,0.0178
1147.00,0.0170
1146.00,0.0162
1145.00,0.0155
1144.00,0.0149
1143.00,0.0143
1142.00,0.0136
1141.00,0.0130
1140.00,0.0125
1139.00,0.0120
1138.00,0.0117
1137.00,0.0114
1136.00,0.0111
1135.00,0.0108
1134.00,0.0106
1133.00,0.0104
1132.00,0.0103
1131.00,0.0103
1130.00,0.0104
1129.00,0.0105
1128.00,0.0107
1127.00,0.0109
1126.00,0.0111
1125.00,0.0112
1124.00,0.0111
1123.00,0.0111
1122.00,0.0111
1121.00,0.0111
1120.00,0.0112
1119.00,0.0113
1118.00,0.0115
1117.00,0.0117
1116.00,0.0118
1115.00,0.0120
1114.00,0.0122
1113.00,0.0123
1112.00,0.0126
1111.00,0.0129
1110.00,0.0133
1109.00,0.0138
1108.00,0.0144
1107.00,0.0150
1106.00,0.0157
1105.00,0.0164
1104.00,0.0170
1103.00,0.0175
1102.00,0.0177
1101.00,0.0175
1100.00,0.0171
1099.00,0.0166
1098.00,0.0159
1097.00,0.0154
1096.00,0.0149
1095.00,0.0145
1094.00,0.0142
1093.00,0.0139
1092.00,0.0136
1091.00,0.0133
1090.00,0.0130
1089.00,0.0128
1088.00,0.0126
1087.00,0.0125
1086.00,0.0125
1085.00,0.0125
1084.00,0.0125
1083.00,0.0124
1082.00,0.0123
1081.00,0.0122
1080.00,0.0119
1079.00,0.0117
1078.00,0.0115
1077.00,0.0113
1076.00,0.0112
1075.00,0.0111
1074.00,0.0110
1073.00,0.0110
1072.00,0.0109
1071.00,0.0109
1070.00,0.0109
1069.00,0.0109
1068.00,0.0109
1067.00,0.0108
1066.00,0.0108
1065.00,0.0108
1064.00,0.0108
1063.00,0.0108
1062.00,0.0107
1061.00,0.0108
1060.00,0.0108
1059.00,0.0109
1058.00,0.0110
1057.00,0.0110
1056.00,0.0111
1055.00,0.0111
1054.00,0.0112
1053.00,0.0112
1052.00,0.0113
1051.00,0.0115
1050.00,0.0117
1049.00,0.0120
1048.00,0.0122
1047.00,0.0125
1046.00,0.0128
1045.00,0.0129
1044.00,0.0129
1043.00,0.0127
1042.00,0.0125
1041.00,0.0123
1040.00,0.0120
1039.00,0.0119
1038.00,0.0118
1037.00,0.0118
1036.00,0.0119
1035.00,0.0119
1034.00,0.0119
1033.00,0.0118
1032.00,0.0116
1031.00,0.0116
1030.00,0.0115
1029.00,0.0115
1028.00,0.0114
1027.00,0.0113
1026.00,0.0112
1025.00,0.0111
1024.00,0.0110
1023.00,0.0109
1022.00,0.0109
1021.00,0.0109
1020.00,0.0110
1019.00,0.0112
1018.00,0.0114
1017.00,0.0117
1016.00,0.0119
1015.00,0.0121
1014.00,0.0125
1013.00,0.0128
1012.00,0.0132
1011.00,0.0136
1010.00,0.0139
1009.00,0.0142
1008.00,0.0147
1007.00,0.0154
1006.00,0.0163
1005.00,0.0176
1004.00,0.0193
1003.00,0.0215
1002.00,0.0246
1001.00,0.0285
1000.00,0.0326
999.00,0.0360
998.00,0.0378
997.00,0.0372
996.00,0.0345
995.00,0.0304
994.00,0.0261
993.00,0.0222
992.00,0.0191
991.00,0.0168
990.00,0.0152
989.00,0.0141
988.00,0.0133
987.00,0.0130
986.00,0.0129
985.00,0.0131
984.00,0.0136
983.00,0.0143
982.00,0.0154
981.00,0.0171
980.00,0.0193
979.00,0.0224
978.00,0.0262
977.00,0.0307
976.00,0.0356
975.00,0.0403
974.00,0.0439
973.00,0.0454
972.00,0.0443
971.00,0.0406
970.00,0.0353
969.00,0.0297
968.00,0.0248
967.00,0.0209
966.00,0.0180
965.00,0.0159
964.00,0.0143
963.00,0.0132
962.00,0.0124
961.00,0.0116
960.00,0.0110
959.00,0.0106
958.00,0.0103
957.00,0.0101
956.00,0.0100
955.00,0.0097
954.00,0.0095
953.00,0.0093
952.00,0.0092
951.00,0.0092
950.00,0.0092
949.00,0.0092
948.00,0.0092
947.00,0.0093
946.00,0.0095
945.00,0.0098
944.00,0.0101
943.00,0.0105
942.00,0.0108
941.00,0.0109
940.00,0.0108
939.00,0.0104
938.00,0.0100
937.00,0.0095
936.00,0.0090
935.00,0.0086
934.00,0.0083
933.00,0.0081
932.00,0.0079
931.00,0.0078
930.00,0.0076
929.00,0.0073
928.00,0.0072
927.00,0.0072
926.00,0.0072
925.00,0.0072
924.00,0.0072
923.00,0.0073
922.00,0.0074
921.00,0.0075
920.00,0.0076
919.00,0.0077
918.00,0.0079
917.00,0.0080
916.00,0.0080
915.00,0.0080
914.00,0.0079
913.00,0.0079
912.00,0.0080
911.00,0.0082
910.00,0.0085
909.00,0.0087
908.00,0.0089
907.00,0.0093
906.00,0.0100
905.00,0.0110
904.00,0.0125
903.00,0.0144
902.00,0.0165
901.00,0.0185
900.00,0.0199
899.00,0.0202
898.00,0.0194
897.00,0.0178
896.00,0.0158
895.00,0.0138
894.00,0.0123
893.00,0.0111
892.00,0.0103
891.00,0.0096
890.00,0.0090
889.00,0.0086
888.00,0.0083
887.00,0.0082
886.00,0.0082
885.00,0.0081
884.00,0.0082
883.00,0.0082
882.00,0.0083
881.00,0.0083
880.00,0.0082
879.00,0.0083
878.00,0.0084
877.00,0.0086
876.00,0.0087
875.00,0.0087
874.00,0.0087
873.00,0.0087
872.00,0.0087
871.00,0.0087
870.00,0.0086
869.00,0.0086
868.00,0.0085
867.00,0.0085
866.00,0.0085
865.00,0.0085
864.00,0.0086
863.00,0.0087
862.00,0.0089
861.00,0.0093
860.00,0.0096
859.00,0.0099
858.00,0.0101
857.00,0.0101
856.00,0.0101
855.00,0.0103
854.00,0.0105
853.00,0.0108
852.00,0.0111
851.00,0.0114
850.00,0.0120
849.00,0.0127
848.00,0.0137
847.00,0.0153
846.00,0.0178
845.00,0.0214
844.00,0.0263
843.00,0.0315
842.00,0.0356
841.00,0.0367
840.00,0.0344
839.00,0.0298
838.00,0.0249
837.00,0.0210
836.00,0.0184
835.00,0.0168
834.00,0.0158
833.00,0.0151
832.00,0.0146
831.00,0.0143
830.00,0.0140
829.00,0.0138
828.00,0.0137
827.00,0.0135
826.00,0.0135
825.00,0.0135
824.00,0.0134
823.00,0.0133
822.00,0.0130
821.00,0.0128
820.00,0.0127
819.00,0.0128
818.00,0.0132
817.00,0.0139
816.00,0.0147
815.00,0.0157
814.00,0.0168
813.00,0.0183
812.00,0.0199
811.00,0.0215
810.00,0.0228
809.00,0.0235
808.00,0.0233
807.00,0.0224
806.00,0.0208
805.00,0.0189
804.00,0.0171
803.00,0.0156
802.00,0.0145
801.00,0.0138
800.00,0.0133
799.00,0.0128
798.00,0.0124
797.00,0.0120
796.00,0.0116
795.00,0.0111
794.00,0.0106
793.00,0.0102
792.00,0.0099
791.00,0.0098
790.00,0.0097
789.00,0.0095
788.00,0.0093
787.00,0.0091
786.00,0.0089
785.00,0.0087
784.00,0.0085
783.00,0.0083
782.00,0.0081
781.00,0.0080
780.00,0.0078
779.00,0.0077
778.00,0.0078
777.00,0.0079
776.00,0.0081
775.00,0.0083
774.00,0.0085
773.00,0.0088
772.00,0.0090
771.00,0.0092
770.00,0.0094
769.00,0.0096
768.00,0.0097
767.00,0.0098
766.00,0.0097
765.00,0.0096
764.00,0.0095
763.00,0.0092
762.00,0.0089
761.00,0.0086
760.00,0.0084
759.00,0.0083
758.00,0.0082
757.00,0.0080
756.00,0.0079
755.00,0.0077
754.00,0.0077
753.00,0.0077
752.00,0.0078
751.00,0.0079
750.00,0.0080
749.00,0.0080
748.00,0.0080
747.00,0.0079
746.00,0.0079
745.00,0.0079
744.00,0.0079
743.00,0.0079
742.00,0.0080
741.00,0.0080
740.00,0.0082
739.00,0.0084
738.00,0.0086
737.00,0.0089
736.00,0.0092
735.00,0.0094
734.00,0.0096
733.00,0.0096
732.00,0.0096
731.00,0.0096
730.00,0.0096
729.00,0.0096
728.00,0.0096
727.00,0.0095
726.00,0.0095
725.00,0.0096
724.00,0.0097
723.00,0.0097
722.00,0.0097
721.00,0.0096
720.00,0.0094
719.00,0.0093
718.00,0.0091
717.00,0.0088
716.00,0.0084
715.00,0.0082
714.00,0.0081
713.00,0.0081
712.00,0.0080
711.00,0.0079
710.00,0.0078
709.00,0.0078
708.00,0.0078
707.00,0.0079
706.00,0.0079
705.00,0.0080
704.00,0.0081
703.00,0.0082
702.00,0.0081
701.00,0.0079
700.00,0.0077
699.00,0.0074
698.00,0.0072
697.00,0.0072
696.00,0.0072
695.00,0.0074
694.00,0.0075
693.00,0.0075
692.00,0.0075
691.00,0.0074
690.00,0.0074
689.00,0.0075
688.00,0.0076
687.00,0.0076
686.00,0.0074
685.00,0.0072
684.00,0.0071
683.00,0.0072
682.00,0.0074
681.00,0.0075
680.00,0.0076
679.00,0.0077
678.00,0.0078
677.00,0.0078
676.00,0.0076
675.00,0.0075
674.00,0.0074
673.00,0.0074
672.00,0.0074
671.00,0.0074
670.00,0.0074
669.00,0.0076
668.00,0.0080
667.00,0.0083
666.00,0.0083
665.00,0.0080
664.00,0.0076
663.00,0.0073
662.00,0.0071
661.00,0.0072
660.00,0.0075
659.00,0.0077
658.00,0.0077
657.00,0.0077
656.00,0.0076
655.00,0.0076
654.00,0.0075
653.00,0.0073
652.00,0.0071
651.00,0.0069
650.00,0.0070
649.00,0.0072
648.00,0.0075
647.00,0.0077
646.00,0.0077
645.00,0.0077
644.00,0.0079
643.00,0.0080
642.00,0.0080
641.00,0.0079
640.00,0.0077
639.00,0.0076
638.00,0.0076
637.00,0.0077
636.00,0.0078
635.00,0.0080
634.00,0.0082
633.00,0.0082
632.00,0.0082
631.00,0.0081
630.00,0.0080
629.00,0.0078
628.00,0.0076
627.00,0.0074
626.00,0.0074
625.00,0.0076
624.00,0.0079
623.00,0.0081
622.00,0.0083
621.00,0.0084
620.00,0.0084
619.00,0.0085
618.00,0.0085
617.00,0.0084
616.00,0.0083
615.00,0.0081
614.00,0.0080
613.00,0.0080
612.00,0.0081
611.00,0.0081
610.00,0.0081
609.00,0.0082
608.00,0.0082
607.00,0.0083
606.00,0.0083
605.00,0.0081
604.00,0.0080
603.00,0.0080
602.00,0.0080
601.00,0.0079
600.00,0.0078
599.00,0.0077
598.00,0.0078
597.00,0.0080
596.00,0.0082
595.00,0.0083
594.00,0.0085
593.00,0.0087
592.00,0.0088
591.00,0.0088
590.00,0.0086
589.00,0.0084
588.00,0.0083
587.00,0.0083
586.00,0.0085
585.00,0.0086
584.00,0.0087
583.00,0.0087
582.00,0.0086
581.00,0.0087
580.00,0.0087
579.00,0.0087
578.00,0.0087
577.00,0.0088
576.00,0.0089
575.00,0.0089
574.00,0.0086
573.00,0.0083
572.00,0.0080
571.00,0.0080
570.00,0.0082
569.00,0.0085
568.00,0.0088
567.00,0.0089
566.00,0.0088
565.00,0.0086
564.00,0.0084
563.00,0.0085
562.00,0.0087
561.00,0.0090
560.00,0.0091
559.00,0.0090
558.00,0.0088
557.00,0.0085
556.00,0.0081
555.00,0.0077
554.00,0.0075
553.00,0.0076
552.00,0.0080
551.00,0.0085
550.00,0.0087
549.00,0.0086
548.00,0.0083
547.00,0.0080
546.00,0.0079
545.00,0.0080
544.00,0.0082
543.00,0.0084
542.00,0.0088
541.00,0.0093
540.00,0.0096
539.00,0.0096
538.00,0.0093
537.00,0.0090
536.00,0.0089
535.00,0.0091
534.00,0.0094
533.00,0.0096
532.00,0.0098
531.00,0.0101
530.00,0.0108
529.00,0.0117
528.00,0.0124
527.00,0.0125
526.00,0.0120
525.00,0.0112
524.00,0.0106
523.00,0.0102
522.00,0.0101
521.00,0.0100
520.00,0.0097
519.00,0.0094
518.00,0.0093
517.00,0.0095
516.00,0.0098
515.00,0.0100
514.00,0.0102
513.00,0.0106
512.00,0.0107
511.00,0.0103
510.00,0.0096
509.00,0.0088
508.00,0.0082
507.00,0.0080
506.00,0.0080
505.00,0.0084
504.00,0.0090
503.00,0.0096
502.00,0.0098
501.00,0.0094
500.00,0.0088
499.00,0.0083
498.00,0.0080
497.00,0.0079
496.00,0.0080
495.00,0.0081
494.00,0.0084
493.00,0.0087
492.00,0.0087
491.00,0.0082
490.00,0.0073
489.00,0.0065
488.00,0.0060
487.00,0.0060
486.00,0.0062
485.00,0.0066
484.00,0.0071
483.00,0.0074
482.00,0.0074
481.00,0.0071
480.00,0.0070
479.00,0.0072
478.00,0.0077
477.00,0.0083
476.00,0.0086
475.00,0.0087
474.00,0.0088
473.00,0.0090
472.00,0.0096
471.00,0.0103
470.00,0.0111
469.00,0.0119
468.00,0.0125
467.00,0.0126
466.00,0.0124
465.00,0.0123
464.00,0.0128
463.00,0.0140
462.00,0.0158
461.00,0.0179
460.00,0.0199
459.00,0.0214
458.00,0.0218
457.00,0.0209
456.00,0.0193
455.00,0.0178
454.00,0.0164
453.00,0.0149
452.00,0.0132
451.00,0.0117
450.00,0.0108
