Created as New Dataset,Sample 089 By Administrator Date Tuesday, September 09 2025
cm-1,A
4000.00,0.0010
3999.00,0.0011
3998.00,0.0011
3997.00,0.0011
3996.00,0.0011
3995.00,0.0011
3994.00,0.0011
3993.00,0.0010
3992.00,0.0010
3991.00,0.0010
3990.00,0.0010
3989.00,0.0010
3988.00,0.0009
3987.00,0.0009
3986.00,0.0009
3985.00,0.0009
3984.00,0.0009
3983.00,0.0009
3982.00,0.0009
3981.00,0.0009
3980.00,0.0009
3979.00,0.0009
3978.00,0.0009
3977.00,0.0009
3976.00,0.0009
3975.00,0.0009
3974.00,0.0008
3973.00,0.0008
3972.00,0.0008
3971.00,0.0008
3970.00,0.0008
3969.00,0.0008
3968.00,0.0008
3967.00,0.0009
3966.00,0.0009
3965.00,0.0008
3964.00,0.0008
3963.00,0.0008
3962.00,0.0008
3961.00,0.0008
3960.00,0.0008
3959.00,0.0008
3958.00,0.0008
3957.00,0.0008
3956.00,0.0008
3955.00,0.0008
3954.00,0.0008
3953.00,0.0008
3952.00,0.0008
3951.00,0.0008
3950.00,0.0008
3949.00,0.0007
3948.00,0.0007
3947.00,0.0007
3946.00,0.0008
3945.00,0.0008
3944.00,0.0008
3943.00,0.0008
3942.00,0.0009
3941.00,0.0009
3940.00,0.0009
3939.00,0.0009
3938.00,0.0009
3937.00,0.0009
3936.00,0.0009
3935.00,0.0009
3934.00,0.0009
3933.00,0.0008
3932.00,0.0008
3931.00,0.0008
3930.00,0.0008
3929.00,0.0008
3928.00,0.0008
3927.00,0.0008
3926.00,0.0008
3925.00,0.0008
3924.00,0.0008
3923.00,0.0008
3922.00,0.0007
3921.00,0.0007
3920.00,0.0007
3919.00,0.0008
3918.00,0.0008
3917.00,0.0008
3916.00,0.0008
3915.00,0.0008
3914.00,0.0008
3913.00,0.0007
3912.00,0.0007
3911.00,0.0007
3910.00,0.0008
3909.00,0.0008
3908.00,0.0008
3907.00,0.0007
3906.00,0.0007
3905.00,0.0007
3904.00,0.0008
3903.00,0.0008
3902.00,0.0008
3901.00,0.0008
3900.00,0.0007
3899.00,0.0007
3898.00,0.0007
3897.00,0.0007
3896.00,0.0007
3895.00,0.0008
3894.00,0.0008
3893.00,0.0009
3892.00,0.0009
3891.00,0.0009
3890.00,0.0008
3889.00,0.0008
3888.00,0.0008
3887.00,0.0008
3886.00,0.0008
3885.00,0.0008
3884.00,0.0008
3883.00,0.0007
3882.00,0.0007
3881.00,0.0008
3880.00,0.0008
3879.00,0.0009
3878.00,0.0008
3877.00,0.0008
3876.00,0.0008
3875.00,0.0008
3874.00,0.0008
3873.00,0.0008
3872.00,0.0008
3871.00,0.0008
3870.00,0.0008
3869.00,0.0008
3868.00,0.0009
3867.00,0.0009
3866.00,0.0009
3865.00,0.0008
3864.00,0.0008
3863.00,0.0007
3862.00,0.0007
3861.00,0.0007
3860.00,0.0007
3859.00,0.0007
3858.00,0.0007
3857.00,0.0008
3856.00,0.0008
3855.00,0.0008
3854.00,0.0008
3853.00,0.0009
3852.00,0.0009
3851.00,0.0008
3850.00,0.0008
3849.00,0.0008
3848.00,0.0008
3847.00,0.0008
3846.00,0.0008
3845.00,0.0009
3844.00,0.0009
3843.00,0.0009
3842.00,0.0008
3841.00,0.0008
3840.00,0.0008
3839.00,0.0008
3838.00,0.0008
3837.00,0.0008
3836.00,0.0008
3835.00,0.0008
3834.00,0.0008
3833.00,0.0009
3832.00,0.0009
3831.00,0.0010
3830.00,0.0010
3829.00,0.0010
3828.00,0.0009
3827.00,0.0009
3826.00,0.0009
3825.00,0.0008
3824.00,0.0008
3823.00,0.0008
3822.00,0.0008
3821.00,0.0008
3820.00,0.0008
3819.00,0.0009
3818.00,0.0009
3817.00,0.0009
3816.00,0.0009
3815.00,0.0009
3814.00,0.0009
3813.00,0.0009
3812.00,0.0009
3811.00,0.0009
3810.00,0.0008
3809.00,0.0008
3808.00,0.0008
3807.00,0.0007
3806.00,0.0007
3805.00,0.0007
3804.00,0.0007
3803.00,0.0007
3802.00,0.0008
3801.00,0.0008
3800.00,0.0007
3799.00,0.0007
3798.00,0.0007
3797.00,0.0007
3796.00,0.0007
3795.00,0.0007
3794.00,0.0007
3793.00,0.0008
3792.00,0.0008
3791.00,0.0008
3790.00,0.0008
3789.00,0.0008
3788.00,0.0008
3787.00,0.0008
3786.00,0.0008
3785.00,0.0008
3784.00,0.0008
3783.00,0.0008
3782.00,0.0008
3781.00,0.0008
3780.00,0.0008
3779.00,0.0008
3778.00,0.0008
3777.00,0.0008
3776.00,0.0007
3775.00,0.0007
3774.00,0.0008
3773.00,0.0008
3772.00,0.0008
3771.00,0.0008
3770.00,0.0008
3769.00,0.0008
3768.00,0.0008
3767.00,0.0008
3766.00,0.0008
3765.00,0.0008
3764.00,0.0008
3763.00,0.0009
3762.00,0.0009
3761.00,0.0009
3760.00,0.0009
3759.00,0.0009
3758.00,0.0009
3757.00,0.0009
3756.00,0.0009
3755.00,0.0009
3754.00,0.0009
3753.00,0.0009
3752.00,0.0009
3751.00,0.0008
3750.00,0.0008
3749.00,0.0009
3748.00,0.0009
3747.00,0.0009
3746.00,0.0008
3745.00,0.0008
3744.00,0.0008
3743.00,0.0008
3742.00,0.0008
3741.00,0.0007
3740.00,0.0007
3739.00,0.0006
3738.00,0.0006
3737.00,0.0006
3736.00,0.0006
3735.00,0.0007
3734.00,0.0007
3733.00,0.0007
3732.00,0.0007
3731.00,0.0007
3730.00,0.0006
3729.00,0.0006
3728.00,0.0006
3727.00,0.0007
3726.00,0.0007
3725.00,0.0008
3724.00,0.0007
3723.00,0.0006
3722.00,0.0006
3721.00,0.0005
3720.00,0.0005
3719.00,0.0005
3718.00,0.0006
3717.00,0.0006
3716.00,0.0007
3715.00,0.0007
3714.00,0.0007
3713.00,0.0008
3712.00,0.0008
3711.00,0.0008
3710.00,0.0007
3709.00,0.0007
3708.00,0.0007
3707.00,0.0006
3706.00,0.0006
3705.00,0.0006
3704.00,0.0005
3703.00,0.0005
3702.00,0.0004
3701.00,0.0004
3700.00,0.0004
3699.00,0.0004
3698.00,0.0004
3697.00,0.0004
3696.00,0.0004
3695.00,0.0005
3694.00,0.0005
3693.00,0.0006
3692.00,0.0007
3691.00,0.0007
3690.00,0.0007
3689.00,0.0006
3688.00,0.0006
3687.00,0.0006
3686.00,0.0006
3685.00,0.0006
3684.00,0.0006
3683.00,0.0006
3682.00,0.0006
3681.00,0.0006
3680.00,0.0006
3679.00,0.0006
3678.00,0.0006
3677.00,0.0006
3676.00,0.0007
3675.00,0.0007
3674.00,0.0007
3673.00,0.0007
3672.00,0.0006
3671.00,0.0006
3670.00,0.0006
3669.00,0.0006
3668.00,0.0005
3667.00,0.0005
3666.00,0.0005
3665.00,0.0005
3664.00,0.0005
3663.00,0.0005
3662.00,0.0005
3661.00,0.0005
3660.00,0.0005
3659.00,0.0005
3658.00,0.0005
3657.00,0.0005
3656.00,0.0005
3655.00,0.0005
3654.00,0.0005
3653.00,0.0005
3652.00,0.0005
3651.00,0.0006
3650.00,0.0006
3649.00,0.0005
3648.00,0.0005
3647.00,0.0005
3646.00,0.0005
3645.00,0.0005
3644.00,0.0006
3643.00,0.0006
3642.00,0.0006
3641.00,0.0006
3640.00,0.0006
3639.00,0.0007
3638.00,0.0007
3637.00,0.0007
3636.00,0.0007
3635.00,0.0007
3634.00,0.0007
3633.00,0.0007
3632.00,0.0006
3631.00,0.0006
3630.00,0.0006
3629.00,0.0006
3628.00,0.0006
3627.00,0.0007
3626.00,0.0007
3625.00,0.0008
3624.00,0.0008
3623.00,0.0008
3622.00,0.0009
3621.00,0.0009
3620.00,0.0009
3619.00,0.0010
3618.00,0.0010
3617.00,0.0010
3616.00,0.0010
3615.00,0.0010
3614.00,0.0010
3613.00,0.0010
3612.00,0.0011
3611.00,0.0011
3610.00,0.0011
3609.00,0.0012
3608.00,0.0012
3607.00,0.0012
3606.00,0.0012
3605.00,0.0012
3604.00,0.0012
3603.00,0.0012
3602.00,0.0012
3601.00,0.0012
3600.00,0.0012
3599.00,0.0012
3598.00,0.0012
3597.00,0.0011
3596.00,0.0012
3595.00,0.0012
3594.00,0.0012
3593.00,0.0012
3592.00,0.0013
3591.00,0.0013
3590.00,0.0014
3589.00,0.0014
3588.00,0.0014
3587.00,0.0015
3586.00,0.0015
3585.00,0.0015
3584.00,0.0016
3583.00,0.0016
3582.00,0.0016
3581.00,0.0016
3580.00,0.0016
3579.00,0.0016
3578.00,0.0017
3577.00,0.0017
3576.00,0.0017
3575.00,0.0017
3574.00,0.0017
3573.00,0.0017
3572.00,0.0017
3571.00,0.0017
3570.00,0.0017
3569.00,0.0018
3568.00,0.0018
3567.00,0.0019
3566.00,0.0019
3565.00,0.0020
3564.00,0.0020
3563.00,0.0020
3562.00,0.0020
3561.00,0.0020
3560.00,0.0021
3559.00,0.0021
3558.00,0.0021
3557.00,0.0022
3556.00,0.0022
3555.00,0.0022
3554.00,0.0022
3553.00,0.0022
3552.00,0.0022
3551.00,0.0023
3550.00,0.0023
3549.00,0.0023
3548.00,0.0023
3547.00,0.0024
3546.00,0.0024
3545.00,0.0025
3544.00,0.0025
3543.00,0.0024
3542.00,0.0025
3541.00,0.0025
3540.00,0.0025
3539.00,0.0026
3538.00,0.0026
3537.00,0.0026
3536.00,0.0026
3535.00,0.0026
3534.00,0.0027
3533.00,0.0027
3532.00,0.0027
3531.00,0.0027
3530.00,0.0027
3529.00,0.0028
3528.00,0.0028
3527.00,0.0029
3526.00,0.0029
3525.00,0.0029
3524.00,0.0030
3523.00,0.0030
3522.00,0.0030
3521.00,0.0030
3520.00,0.0031
3519.00,0.0030
3518.00,0.0030
3517.00,0.0030
3516.00,0.0030
3515.00,0.0030
3514.00,0.0031
3513.00,0.0031
3512.00,0.0031
3511.00,0.0032
3510.00,0.0032
3509.00,0.0032
3508.00,0.0033
3507.00,0.0034
3506.00,0.0034
3505.00,0.0034
3504.00,0.0034
3503.00,0.0034
3502.00,0.0034
3501.00,0.0035
3500.00,0.0035
3499.00,0.0035
3498.00,0.0035
3497.00,0.0035
3496.00,0.0035
3495.00,0.0036
3494.00,0.0036
3493.00,0.0036
3492.00,0.0036
3491.00,0.0035
3490.00,0.0035
3489.00,0.0035
3488.00,0.0036
3487.00,0.0036
3486.00,0.0036
3485.00,0.0037
3484.00,0.0037
3483.00,0.0037
3482.00,0.0038
3481.00,0.0038
3480.00,0.0038
3479.00,0.0039
3478.00,0.0039
3477.00,0.0039
3476.00,0.0039
3475.00,0.0039
3474.00,0.0040
3473.00,0.0040
3472.00,0.0040
3471.00,0.0040
3470.00,0.0040
3469.00,0.0040
3468.00,0.0040
3467.00,0.0040
3466.00,0.0041
3465.00,0.0041
3464.00,0.0042
3463.00,0.0042
3462.00,0.0042
3461.00,0.0042
3460.00,0.0042
3459.00,0.0043
3458.00,0.0043
3457.00,0.0043
3456.00,0.0043
3455.00,0.0043
3454.00,0.0043
3453.00,0.0043
3452.00,0.0044
3451.00,0.0044
3450.00,0.0044
3449.00,0.0044
3448.00,0.0045
3447.00,0.0045
3446.00,0.0045
3445.00,0.0045
3444.00,0.0045
3443.00,0.0045
3442.00,0.0046
3441.00,0.0046
3440.00,0.0046
3439.00,0.0046
3438.00,0.0046
3437.00,0.0046
3436.00,0.0046
3435.00,0.0046
3434.00,0.0047
3433.00,0.0047
3432.00,0.0047
3431.00,0.0047
3430.00,0.0047
3429.00,0.0047
3428.00,0.0047
3427.00,0.0048
3426.00,0.0048
3425.00,0.0048
3424.00,0.0048
3423.00,0.0048
3422.00,0.0048
3421.00,0.0048
3420.00,0.0048
3419.00,0.0049
3418.00,0.0049
3417.00,0.0050
3416.00,0.0050
3415.00,0.0051
3414.00,0.0051
3413.00,0.0051
3412.00,0.0051
3411.00,0.0051
3410.00,0.0051
3409.00,0.0051
3408.00,0.0052
3407.00,0.0052
3406.00,0.0053
3405.00,0.0053
3404.00,0.0053
3403.00,0.0054
3402.00,0.0054
3401.00,0.0054
3400.00,0.0054
3399.00,0.0054
3398.00,0.0054
3397.00,0.0054
3396.00,0.0054
3395.00,0.0054
3394.00,0.0054
3393.00,0.0054
3392.00,0.0054
3391.00,0.0054
3390.00,0.0054
3389.00,0.0054
3388.00,0.0054
3387.00,0.0053
3386.00,0.0053
3385.00,0.0053
3384.00,0.0052
3383.00,0.0052
3382.00,0.0052
3381.00,0.0052
3380.00,0.0052
3379.00,0.0052
3378.00,0.0052
3377.00,0.0052
3376.00,0.0052
3375.00,0.0052
3374.00,0.0052
3373.00,0.0052
3372.00,0.0052
3371.00,0.0052
3370.00,0.0052
3369.00,0.0052
3368.00,0.0052
3367.00,0.0052
3366.00,0.0052
3365.00,0.0052
3364.00,0.0053
3363.00,0.0053
3362.00,0.0052
3361.00,0.0052
3360.00,0.0052
3359.00,0.0051
3358.00,0.0052
3357.00,0.0052
3356.00,0.0052
3355.00,0.0052
3354.00,0.0052
3353.00,0.0052
3352.00,0.0052
3351.00,0.0052
3350.00,0.0052
3349.00,0.0052
3348.00,0.0052
3347.00,0.0052
3346.00,0.0052
3345.00,0.0052
3344.00,0.0052
3343.00,0.0052
3342.00,0.0052
3341.00,0.0052
3340.00,0.0052
3339.00,0.0051
3338.00,0.0051
3337.00,0.0050
3336.00,0.0050
3335.00,0.0050
3334.00,0.0050
3333.00,0.0050
3332.00,0.0050
3331.00,0.0050
3330.00,0.0049
3329.00,0.0049
3328.00,0.0049
3327.00,0.0049
3326.00,0.0049
3325.00,0.0048
3324.00,0.0048
3323.00,0.0049
3322.00,0.0049
3321.00,0.0049
3320.00,0.0049
3319.00,0.0048
3318.00,0.0048
3317.00,0.0048
3316.00,0.0048
3315.00,0.0048
3314.00,0.0048
3313.00,0.0048
3312.00,0.0048
3311.00,0.0048
3310.00,0.0048
3309.00,0.0048
3308.00,0.0048
3307.00,0.0047
3306.00,0.0047
3305.00,0.0047
3304.00,0.0048
3303.00,0.0048
3302.00,0.0048
3301.00,0.0048
3300.00,0.0048
3299.00,0.0048
3298.00,0.0048
3297.00,0.0048
3296.00,0.0048
3295.00,0.0047
3294.00,0.0047
3293.00,0.0047
3292.00,0.0046
3291.00,0.0046
3290.00,0.0046
3289.00,0.0046
3288.00,0.0046
3287.00,0.0046
3286.00,0.0046
3285.00,0.0046
3284.00,0.0046
3283.00,0.0046
3282.00,0.0046
3281.00,0.0046
3280.00,0.0045
3279.00,0.0045
3278.00,0.0045
3277.00,0.0045
3276.00,0.0045
3275.00,0.0044
3274.00,0.0044
3273.00,0.0044
3272.00,0.0044
3271.00,0.0044
3270.00,0.0043
3269.00,0.0043
3268.00,0.0043
3267.00,0.0044
3266.00,0.0044
3265.00,0.0043
3264.00,0.0043
3263.00,0.0043
3262.00,0.0042
3261.00,0.0042
3260.00,0.0042
3259.00,0.0042
3258.00,0.0042
3257.00,0.0042
3256.00,0.0042
3255.00,0.0042
3254.00,0.0042
3253.00,0.0042
3252.00,0.0041
3251.00,0.0041
3250.00,0.0041
3249.00,0.0041
3248.00,0.0041
3247.00,0.0040
3246.00,0.0040
3245.00,0.0041
3244.00,0.0041
3243.00,0.0040
3242.00,0.0040
3241.00,0.0040
3240.00,0.0040
3239.00,0.0041
3238.00,0.0041
3237.00,0.0041
3236.00,0.0040
3235.00,0.0040
3234.00,0.0040
3233.00,0.0040
3232.00,0.0040
3231.00,0.0041
3230.00,0.0041
3229.00,0.0041
3228.00,0.0041
3227.00,0.0041
3226.00,0.0041
3225.00,0.0042
3224.00,0.0042
3223.00,0.0042
3222.00,0.0042
3221.00,0.0043
3220.00,0.0043
3219.00,0.0043
3218.00,0.0043
3217.00,0.0043
3216.00,0.0043
3215.00,0.0043
3214.00,0.0043
3213.00,0.0043
3212.00,0.0044
3211.00,0.0044
3210.00,0.0044
3209.00,0.0044
3208.00,0.0045
3207.00,0.0045
3206.00,0.0045
3205.00,0.0045
3204.00,0.0045
3203.00,0.0045
3202.00,0.0045
3201.00,0.0045
3200.00,0.0045
3199.00,0.0045
3198.00,0.0045
3197.00,0.0045
3196.00,0.0045
3195.00,0.0045
3194.00,0.0045
3193.00,0.0045
3192.00,0.0045
3191.00,0.0045
3190.00,0.0045
3189.00,0.0045
3188.00,0.0045
3187.00,0.0044
3186.00,0.0044
3185.00,0.0044
3184.00,0.0044
3183.00,0.0044
3182.00,0.0043
3181.00,0.0043
3180.00,0.0042
3179.00,0.0042
3178.00,0.0041
3177.00,0.0041
3176.00,0.0041
3175.00,0.0041
3174.00,0.0041
3173.00,0.0041
3172.00,0.0041
3171.00,0.0041
3170.00,0.0041
3169.00,0.0041
3168.00,0.0040
3167.00,0.0040
3166.00,0.0040
3165.00,0.0040
3164.00,0.0039
3163.00,0.0039
3162.00,0.0038
3161.00,0.0038
3160.00,0.0038
3159.00,0.0038
3158.00,0.0039
3157.00,0.0039
3156.00,0.0040
3155.00,0.0040
3154.00,0.0040
3153.00,0.0039
3152.00,0.0039
3151.00,0.0038
3150.00,0.0038
3149.00,0.0038
3148.00,0.0039
3147.00,0.0039
3146.00,0.0039
3145.00,0.0039
3144.00,0.0039
3143.00,0.0038
3142.00,0.0038
3141.00,0.0037
3140.00,0.0037
3139.00,0.0037
3138.00,0.0036
3137.00,0.0036
3136.00,0.0036
3135.00,0.0036
3134.00,0.0036
3133.00,0.0036
3132.00,0.0035
3131.00,0.0035
3130.00,0.0034
3129.00,0.0034
3128.00,0.0034
3127.00,0.0034
3126.00,0.0033
3125.00,0.0033
3124.00,0.0033
3123.00,0.0032
3122.00,0.0032
3121.00,0.0032
3120.00,0.0032
3119.00,0.0032
3118.00,0.0032
3117.00,0.0032
3116.00,0.0032
3115.00,0.0031
3114.00,0.0031
3113.00,0.0031
3112.00,0.0031
3111.00,0.0031
3110.00,0.0031
3109.00,0.0031
3108.00,0.0031
3107.00,0.0030
3106.00,0.0030
3105.00,0.0029
3104.00,0.0029
3103.00,0.0029
3102.00,0.0029
3101.00,0.0029
3100.00,0.0029
3099.00,0.0029
3098.00,0.0029
3097.00,0.0030
3096.00,0.0030
3095.00,0.0030
3094.00,0.0030
3093.00,0.0029
3092.00,0.0029
3091.00,0.0029
3090.00,0.0029
3089.00,0.0029
3088.00,0.0029
3087.00,0.0029
3086.00,0.0029
3085.00,0.0029
3084.00,0.0029
3083.00,0.0029
3082.00,0.0028
3081.00,0.0028
3080.00,0.0029
3079.00,0.0029
3078.00,0.0029
3077.00,0.0029
3076.00,0.0029
3075.00,0.0029
3074.00,0.0029
3073.00,0.0029
3072.00,0.0030
3071.00,0.0030
3070.00,0.0030
3069.00,0.0030
3068.00,0.0030
3067.00,0.0030
3066.00,0.0031
3065.00,0.0031
3064.00,0.0031
3063.00,0.0032
3062.00,0.0032
3061.00,0.0032
3060.00,0.0031
3059.00,0.0031
3058.00,0.0031
3057.00,0.0031
3056.00,0.0031
3055.00,0.0031
3054.00,0.0031
3053.00,0.0032
3052.00,0.0032
3051.00,0.0032
3050.00,0.0033
3049.00,0.0033
3048.00,0.0033
3047.00,0.0033
3046.00,0.0033
3045.00,0.0033
3044.00,0.0033
3043.00,0.0033
3042.00,0.0034
3041.00,0.0034
3040.00,0.0034
3039.00,0.0035
3038.00,0.0035
3037.00,0.0036
3036.00,0.0036
3035.00,0.0036
3034.00,0.0037
3033.00,0.0037
3032.00,0.0038
3031.00,0.0038
3030.00,0.0039
3029.00,0.0039
3028.00,0.0040
3027.00,0.0040
3026.00,0.0040
3025.00,0.0041
3024.00,0.0041
3023.00,0.0042
3022.00,0.0042
3021.00,0.0043
3020.00,0.0044
3019.00,0.0045
3018.00,0.0046
3017.00,0.0047
3016.00,0.0048
3015.00,0.0049
3014.00,0.0049
3013.00,0.0050
3012.00,0.0051
3011.00,0.0052
3010.00,0.0053
3009.00,0.0054
3008.00,0.0056
3007.00,0.0057
3006.00,0.0059
3005.00,0.0060
3004.00,0.0062
3003.00,0.0064
3002.00,0.0065
3001.00,0.0067
3000.00,0.0069
2999.00,0.0072
2998.00,0.0076
2997.00,0.0079
2996.00,0.0082
2995.00,0.0086
2994.00,0.0090
2993.00,0.0094
2992.00,0.0099
2991.00,0.0105
2990.00,0.0112
2989.00,0.0119
2988.00,0.0127
2987.00,0.0136
2986.00,0.0145
2985.00,0.0155
2984.00,0.0166
2983.00,0.0179
2982.00,0.0194
2981.00,0.0212
2980.00,0.0233
2979.00,0.0258
2978.00,0.0285
2977.00,0.0315
2976.00,0.0349
2975.00,0.0388
2974.00,0.0432
2973.00,0.0482
2972.00,0.0538
2971.00,0.0602
2970.00,0.0673
2969.00,0.0753
2968.00,0.0839
2967.00,0.0933
2966.00,0.1031
2965.00,0.1133
2964.00,0.1233
2963.00,0.1329
2962.00,0.1415
2961.00,0.1489
2960.00,0.1549
2959.00,0.1597
2958.00,0.1637
2957.00,0.1675
2956.00,0.1716
2955.00,0.1764
2954.00,0.1820
2953.00,0.1880
2952.00,0.1937
2951.00,0.1980
2950.00,0.1999
2949.00,0.1984
2948.00,0.1928
2947.00,0.1835
2946.00,0.1713
2945.00,0.1576
2944.00,0.1439
2943.00,0.1317
2942.00,0.1216
2941.00,0.1143
2940.00,0.1096
2939.00,0.1074
2938.00,0.1074
2937.00,0.1095
2936.00,0.1133
2935.00,0.1187
2934.00,0.1255
2933.00,0.1337
2932.00,0.1429
2931.00,0.1530
2930.00,0.1637
2929.00,0.1747
2928.00,0.1855
2927.00,0.1960
2926.00,0.2060
2925.00,0.2154
2924.00,0.2244
2923.00,0.2332
2922.00,0.2417
2921.00,0.2498
2920.00,0.2569
2919.00,0.2625
2918.00,0.2656
2917.00,0.2656
2916.00,0.2623
2915.00,0.2560
2914.00,0.2477
2913.00,0.2381
2912.00,0.2284
2911.00,0.2190
2910.00,0.2104
2909.00,0.2025
2908.00,0.1951
2907.00,0.1881
2906.00,0.1812
2905.00,0.1741
2904.00,0.1670
2903.00,0.1597
2902.00,0.1525
2901.00,0.1454
2900.00,0.1386
2899.00,0.1321
2898.00,0.1261
2897.00,0.1207
2896.00,0.1159
2895.00,0.1119
2894.00,0.1086
2893.00,0.1060
2892.00,0.1042
2891.00,0.1030
2890.00,0.1024
2889.00,0.1024
2888.00,0.1028
2887.00,0.1035
2886.00,0.1046
2885.00,0.1060
2884.00,0.1080
2883.00,0.1105
2882.00,0.1134
2881.00,0.1166
2880.00,0.1198
2879.00,0.1226
2878.00,0.1245
2877.00,0.1253
2876.00,0.1251
2875.00,0.1242
2874.00,0.1233
2873.00,0.1228
2872.00,0.1230
2871.00,0.1242
2870.00,0.1260
2869.00,0.1279
2868.00,0.1292
2867.00,0.1290
2866.00,0.1264
2865.00,0.1212
2864.00,0.1136
2863.00,0.1043
2862.00,0.0946
2861.00,0.0854
2860.00,0.0775
2859.00,0.0710
2858.00,0.0661
2857.00,0.0626
2856.00,0.0603
2855.00,0.0589
2854.00,0.0584
2853.00,0.0585
2852.00,0.0594
2851.00,0.0609
2850.00,0.0631
2849.00,0.0658
2848.00,0.0692
2847.00,0.0734
2846.00,0.0784
2845.00,0.0843
2844.00,0.0912
2843.00,0.0987
2842.00,0.1066
2841.00,0.1143
2840.00,0.1208
2839.00,0.1252
2838.00,0.1267
2837.00,0.1246
2836.00,0.1189
2835.00,0.1099
2834.00,0.0990
2833.00,0.0874
2832.00,0.0762
2831.00,0.0663
2830.00,0.0578
2829.00,0.0508
2828.00,0.0452
2827.00,0.0407
2826.00,0.0371
2825.00,0.0341
2824.00,0.0317
2823.00,0.0296
2822.00,0.0278
2821.00,0.0263
2820.00,0.0250
2819.00,0.0238
2818.00,0.0228
2817.00,0.0219
2816.00,0.0211
2815.00,0.0204
2814.00,0.0198
2813.00,0.0193
2812.00,0.0187
2811.00,0.0182
2810.00,0.0177
2809.00,0.0171
2808.00,0.0165
2807.00,0.0159
2806.00,0.0152
2805.00,0.0145
2804.00,0.0139
2803.00,0.0133
2802.00,0.0128
2801.00,0.0123
2800.00,0.0118
2799.00,0.0115
2798.00,0.0112
2797.00,0.0110
2796.00,0.0108
2795.00,0.0106
2794.00,0.0103
2793.00,0.0100
2792.00,0.0097
2791.00,0.0094
2790.00,0.0090
2789.00,0.0087
2788.00,0.0083
2787.00,0.0080
2786.00,0.0078
2785.00,0.0075
2784.00,0.0073
2783.00,0.0071
2782.00,0.0069
2781.00,0.0067
2780.00,0.0065
2779.00,0.0063
2778.00,0.0062
2777.00,0.0061
2776.00,0.0059
2775.00,0.0058
2774.00,0.0058
2773.00,0.0057
2772.00,0.0056
2771.00,0.0056
2770.00,0.0056
2769.00,0.0056
2768.00,0.0055
2767.00,0.0055
2766.00,0.0054
2765.00,0.0054
2764.00,0.0054
2763.00,0.0053
2762.00,0.0053
2761.00,0.0053
2760.00,0.0053
2759.00,0.0052
2758.00,0.0052
2757.00,0.0052
2756.00,0.0052
2755.00,0.0052
2754.00,0.0052
2753.00,0.0052
2752.00,0.0052
2751.00,0.0052
2750.00,0.0051
2749.00,0.0051
2748.00,0.0051
2747.00,0.0051
2746.00,0.0052
2745.00,0.0053
2744.00,0.0054
2743.00,0.0055
2742.00,0.0055
2741.00,0.0056
2740.00,0.0058
2739.00,0.0059
2738.00,0.0061
2737.00,0.0062
2736.00,0.0064
2735.00,0.0066
2734.00,0.0067
2733.00,0.0069
2732.00,0.0070
2731.00,0.0072
2730.00,0.0074
2729.00,0.0077
2728.00,0.0080
2727.00,0.0083
2726.00,0.0086
2725.00,0.0088
2724.00,0.0090
2723.00,0.0090
2722.00,0.0089
2721.00,0.0087
2720.00,0.0084
2719.00,0.0081
2718.00,0.0078
2717.00,0.0074
2716.00,0.0071
2715.00,0.0068
2714.00,0.0066
2713.00,0.0063
2712.00,0.0061
2711.00,0.0059
2710.00,0.0057
2709.00,0.0055
2708.00,0.0054
2707.00,0.0053
2706.00,0.0052
2705.00,0.0051
2704.00,0.0050
2703.00,0.0049
2702.00,0.0048
2701.00,0.0047
2700.00,0.0046
2699.00,0.0046
2698.00,0.0045
2697.00,0.0045
2696.00,0.0044
2695.00,0.0044
2694.00,0.0044
2693.00,0.0044
2692.00,0.0044
2691.00,0.0044
2690.00,0.0044
2689.00,0.0044
2688.00,0.0044
2687.00,0.0044
2686.00,0.0044
2685.00,0.0044
2684.00,0.0045
2683.00,0.0045
2682.00,0.0045
2681.00,0.0045
2680.00,0.0046
2679.00,0.0046
2678.00,0.0046
2677.00,0.0046
2676.00,0.0046
2675.00,0.0045
2674.00,0.0045
2673.00,0.0044
2672.00,0.0044
2671.00,0.0044
2670.00,0.0044
2669.00,0.0044
2668.00,0.0044
2667.00,0.0044
2666.00,0.0044
2665.00,0.0045
2664.00,0.0045
2663.00,0.0046
2662.00,0.0047
2661.00,0.0047
2660.00,0.0047
2659.00,0.0047
2658.00,0.0047
2657.00,0.0047
2656.00,0.0047
2655.00,0.0046
2654.00,0.0046
2653.00,0.0045
2652.00,0.0044
2651.00,0.0043
2650.00,0.0043
2649.00,0.0043
2648.00,0.0043
2647.00,0.0042
2646.00,0.0042
2645.00,0.0041
2644.00,0.0040
2643.00,0.0039
2642.00,0.0039
2641.00,0.0038
2640.00,0.0038
2639.00,0.0037
2638.00,0.0037
2637.00,0.0037
2636.00,0.0037
2635.00,0.0038
2634.00,0.0038
2633.00,0.0037
2632.00,0.0037
2631.00,0.0038
2630.00,0.0038
2629.00,0.0039
2628.00,0.0039
2627.00,0.0039
2626.00,0.0039
2625.00,0.0039
2624.00,0.0039
2623.00,0.0039
2622.00,0.0039
2621.00,0.0039
2620.00,0.0039
2619.00,0.0039
2618.00,0.0040
2617.00,0.0040
2616.00,0.0041
2615.00,0.0041
2614.00,0.0040
2613.00,0.0040
2612.00,0.0039
2611.00,0.0039
2610.00,0.0038
2609.00,0.0037
2608.00,0.0036
2607.00,0.0035
2606.00,0.0034
2605.00,0.0033
2604.00,0.0033
2603.00,0.0032
2602.00,0.0031
2601.00,0.0031
2600.00,0.0031
2599.00,0.0032
2598.00,0.0032
2597.00,0.0033
2596.00,0.0033
2595.00,0.0032
2594.00,0.0032
2593.00,0.0032
2592.00,0.0033
2591.00,0.0034
2590.00,0.0035
2589.00,0.0036
2588.00,0.0036
2587.00,0.0037
2586.00,0.0039
2585.00,0.0040
2584.00,0.0041
2583.00,0.0041
2582.00,0.0041
2581.00,0.0040
2580.00,0.0039
2579.00,0.0038
2578.00,0.0037
2577.00,0.0035
2576.00,0.0035
2575.00,0.0034
2574.00,0.0034
2573.00,0.0033
2572.00,0.0032
2571.00,0.0030
2570.00,0.0029
2569.00,0.0028
2568.00,0.0027
2567.00,0.0026
2566.00,0.0025
2565.00,0.0025
2564.00,0.0024
2563.00,0.0024
2562.00,0.0024
2561.00,0.0024
2560.00,0.0024
2559.00,0.0024
2558.00,0.0023
2557.00,0.0023
2556.00,0.0023
2555.00,0.0023
2554.00,0.0023
2553.00,0.0023
2552.00,0.0023
2551.00,0.0022
2550.00,0.0021
2549.00,0.0020
2548.00,0.0020
2547.00,0.0019
2546.00,0.0019
2545.00,0.0019
2544.00,0.0018
2543.00,0.0018
2542.00,0.0018
2541.00,0.0018
2540.00,0.0017
2539.00,0.0017
2538.00,0.0017
2537.00,0.0017
2536.00,0.0017
2535.00,0.0017
2534.00,0.0016
2533.00,0.0016
2532.00,0.0017
2531.00,0.0017
2530.00,0.0016
2529.00,0.0015
2528.00,0.0015
2527.00,0.0015
2526.00,0.0014
2525.00,0.0014
2524.00,0.0014
2523.00,0.0013
2522.00,0.0013
2521.00,0.0013
2520.00,0.0013
2519.00,0.0012
2518.00,0.0012
2517.00,0.0012
2516.00,0.0012
2515.00,0.0012
2514.00,0.0012
2513.00,0.0012
2512.00,0.0011
2511.00,0.0011
2510.00,0.0011
2509.00,0.0011
2508.00,0.0011
2507.00,0.0012
2506.00,0.0012
2505.00,0.0012
2504.00,0.0012
2503.00,0.0011
2502.00,0.0011
2501.00,0.0011
2500.00,0.0011
2499.00,0.0011
2498.00,0.0011
2497.00,0.0010
2496.00,0.0010
2495.00,0.0010
2494.00,0.0011
2493.00,0.0011
2492.00,0.0010
2491.00,0.0009
2490.00,0.0009
2489.00,0.0010
2488.00,0.0011
2487.00,0.0012
2486.00,0.0012
2485.00,0.0012
2484.00,0.0011
2483.00,0.0010
2482.00,0.0010
2481.00,0.0010
2480.00,0.0010
2479.00,0.0010
2478.00,0.0010
2477.00,0.0010
2476.00,0.0010
2475.00,0.0010
2474.00,0.0010
2473.00,0.0010
2472.00,0.0009
2471.00,0.0009
2470.00,0.0008
2469.00,0.0008
2468.00,0.0009
2467.00,0.0009
2466.00,0.0009
2465.00,0.0009
2464.00,0.0009
2463.00,0.0009
2462.00,0.0009
2461.00,0.0010
2460.00,0.0010
2459.00,0.0010
2458.00,0.0010
2457.00,0.0010
2456.00,0.0010
2455.00,0.0011
2454.00,0.0011
2453.00,0.0012
2452.00,0.0012
2451.00,0.0012
2450.00,0.0012
2449.00,0.0012
2448.00,0.0012
2447.00,0.0012
2446.00,0.0012
2445.00,0.0012
2444.00,0.0012
2443.00,0.0012
2442.00,0.0012
2441.00,0.0011
2440.00,0.0011
2439.00,0.0011
2438.00,0.0012
2437.00,0.0012
2436.00,0.0012
2435.00,0.0012
2434.00,0.0012
2433.00,0.0012
2432.00,0.0012
2431.00,0.0012
2430.00,0.0012
2429.00,0.0012
2428.00,0.0012
2427.00,0.0013
2426.00,0.0013
2425.00,0.0013
2424.00,0.0013
2423.00,0.0012
2422.00,0.0012
2421.00,0.0012
2420.00,0.0011
2419.00,0.0012
2418.00,0.0012
2417.00,0.0012
2416.00,0.0013
2415.00,0.0012
2414.00,0.0012
2413.00,0.0011
2412.00,0.0011
2411.00,0.0011
2410.00,0.0011
2409.00,0.0011
2408.00,0.0011
2407.00,0.0010
2406.00,0.0009
2405.00,0.0009
2404.00,0.0009
2403.00,0.0009
2402.00,0.0010
2401.00,0.0011
2400.00,0.0011
2399.00,0.0011
2398.00,0.0010
2397.00,0.0009
2396.00,0.0009
2395.00,0.0009
2394.00,0.0009
2393.00,0.0009
2392.00,0.0008
2391.00,0.0008
2390.00,0.0007
2389.00,0.0007
2388.00,0.0006
2387.00,0.0006
2386.00,0.0006
2385.00,0.0006
2384.00,0.0005
2383.00,0.0004
2382.00,0.0003
2381.00,0.0002
2380.00,0.0002
2379.00,0.0001
2378.00,0.0001
2377.00,0.0001
2376.00,0.0001
2375.00,0.0001
2374.00,0.0002
2373.00,0.0002
2372.00,0.0001
2371.00,0.0001
2370.00,0.0001
2369.00,0.0001
2368.00,0.0001
2367.00,-0.0000
2366.00,-0.0000
2365.00,0.0000
2364.00,0.0001
2363.00,0.0001
2362.00,0.0001
2361.00,0.0001
2360.00,0.0000
2359.00,0.0001
2358.00,0.0001
2357.00,0.0001
2356.00,0.0001
2355.00,0.0001
2354.00,0.0001
2353.00,0.0000
2352.00,-0.0000
2351.00,-0.0000
2350.00,0.0001
2349.00,0.0002
2348.00,0.0004
2347.00,0.0004
2346.00,0.0004
2345.00,0.0003
2344.00,0.0003
2343.00,0.0003
2342.00,0.0004
2341.00,0.0004
2340.00,0.0005
2339.00,0.0005
2338.00,0.0005
2337.00,0.0005
2336.00,0.0005
2335.00,0.0005
2334.00,0.0005
2333.00,0.0005
2332.00,0.0004
2331.00,0.0005
2330.00,0.0005
2329.00,0.0006
2328.00,0.0007
2327.00,0.0010
2326.00,0.0014
2325.00,0.0017
2324.00,0.0018
2323.00,0.0017
2322.00,0.0015
2321.00,0.0014
2320.00,0.0013
2319.00,0.0012
2318.00,0.0011
2317.00,0.0010
2316.00,0.0010
2315.00,0.0009
2314.00,0.0008
2313.00,0.0008
2312.00,0.0007
2311.00,0.0007
2310.00,0.0007
2309.00,0.0007
2308.00,0.0008
2307.00,0.0008
2306.00,0.0008
2305.00,0.0009
2304.00,0.0010
2303.00,0.0010
2302.00,0.0011
2301.00,0.0011
2300.00,0.0011
2299.00,0.0011
2298.00,0.0011
2297.00,0.0012
2296.00,0.0012
2295.00,0.0013
2294.00,0.0014
2293.00,0.0015
2292.00,0.0015
2291.00,0.0016
2290.00,0.0017
2289.00,0.0017
2288.00,0.0018
2287.00,0.0018
2286.00,0.0019
2285.00,0.0019
2284.00,0.0019
2283.00,0.0017
2282.00,0.0015
2281.00,0.0014
2280.00,0.0013
2279.00,0.0013
2278.00,0.0014
2277.00,0.0015
2276.00,0.0017
2275.00,0.0018
2274.00,0.0017
2273.00,0.0016
2272.00,0.0015
2271.00,0.0014
2270.00,0.0013
2269.00,0.0012
2268.00,0.0011
2267.00,0.0010
2266.00,0.0010
2265.00,0.0011
2264.00,0.0012
2263.00,0.0013
2262.00,0.0012
2261.00,0.0011
2260.00,0.0010
2259.00,0.0011
2258.00,0.0012
2257.00,0.0013
2256.00,0.0012
2255.00,0.0011
2254.00,0.0010
2253.00,0.0009
2252.00,0.0008
2251.00,0.0008
2250.00,0.0009
2249.00,0.0009
2248.00,0.0009
2247.00,0.0008
2246.00,0.0007
2245.00,0.0006
2244.00,0.0007
2243.00,0.0009
2242.00,0.0010
2241.00,0.0010
2240.00,0.0010
2239.00,0.0009
2238.00,0.0008
2237.00,0.0009
2236.00,0.0010
2235.00,0.0011
2234.00,0.0010
2233.00,0.0010
2232.00,0.0008
2231.00,0.0007
2230.00,0.0005
2229.00,0.0005
2228.00,0.0006
2227.00,0.0007
2226.00,0.0009
2225.00,0.0010
2224.00,0.0010
2223.00,0.0008
2222.00,0.0007
2221.00,0.0006
2220.00,0.0006
2219.00,0.0008
2218.00,0.0009
2217.00,0.0009
2216.00,0.0007
2215.00,0.0006
2214.00,0.0006
2213.00,0.0007
2212.00,0.0007
2211.00,0.0007
2210.00,0.0006
2209.00,0.0005
2208.00,0.0005
2207.00,0.0005
2206.00,0.0004
2205.00,0.0004
2204.00,0.0003
2203.00,0.0003
2202.00,0.0004
2201.00,0.0007
2200.00,0.0009
2199.00,0.0010
2198.00,0.0010
2197.00,0.0009
2196.00,0.0008
2195.00,0.0007
2194.00,0.0007
2193.00,0.0007
2192.00,0.0008
2191.00,0.0008
2190.00,0.0007
2189.00,0.0007
2188.00,0.0008
2187.00,0.0010
2186.00,0.0011
2185.00,0.0011
2184.00,0.0010
2183.00,0.0007
2182.00,0.0004
2181.00,0.0003
2180.00,0.0004
2179.00,0.0004
2178.00,0.0004
2177.00,0.0002
2176.00,0.0001
2175.00,0.0001
2174.00,0.0003
2173.00,0.0007
2172.00,0.0012
2171.00,0.0016
2170.00,0.0018
2169.00,0.0019
2168.00,0.0020
2167.00,0.0021
2166.00,0.0022
2165.00,0.0023
2164.00,0.0024
2163.00,0.0024
2162.00,0.0022
2161.00,0.0015
2160.00,0.0005
2159.00,-0.0006
2158.00,-0.0017
2157.00,-0.0023
2156.00,-0.0025
2155.00,-0.0024
2154.00,-0.0021
2153.00,-0.0018
2152.00,-0.0016
2151.00,-0.0015
2150.00,-0.0014
2149.00,-0.0014
2148.00,-0.0013
2147.00,-0.0012
2146.00,-0.0011
2145.00,-0.0010
2144.00,-0.0010
2143.00,-0.0011
2142.00,-0.0012
2141.00,-0.0013
2140.00,-0.0013
2139.00,-0.0012
2138.00,-0.0012
2137.00,-0.0013
2136.00,-0.0013
2135.00,-0.0015
2134.00,-0.0016
2133.00,-0.0016
2132.00,-0.0014
2131.00,-0.0012
2130.00,-0.0010
2129.00,-0.0008
2128.00,-0.0007
2127.00,-0.0005
2126.00,-0.0004
2125.00,-0.0003
2124.00,-0.0002
2123.00,-0.0001
2122.00,-0.0001
2121.00,-0.0001
2120.00,-0.0001
2119.00,-0.0001
2118.00,-0.0001
2117.00,0.0000
2116.00,0.0002
2115.00,0.0004
2114.00,0.0005
2113.00,0.0005
2112.00,0.0004
2111.00,0.0004
2110.00,0.0004
2109.00,0.0004
2108.00,0.0004
2107.00,0.0003
2106.00,0.0002
2105.00,0.0001
2104.00,0.0001
2103.00,0.0002
2102.00,0.0002
2101.00,0.0002
2100.00,0.0003
2099.00,0.0003
2098.00,0.0003
2097.00,0.0001
2096.00,-0.0001
2095.00,-0.0002
2094.00,-0.0003
2093.00,-0.0002
2092.00,-0.0001
2091.00,-0.0000
2090.00,0.0001
2089.00,0.0002
2088.00,0.0003
2087.00,0.0004
2086.00,0.0004
2085.00,0.0003
2084.00,0.0003
2083.00,0.0002
2082.00,0.0003
2081.00,0.0004
2080.00,0.0004
2079.00,0.0004
2078.00,0.0003
2077.00,0.0002
2076.00,0.0002
2075.00,0.0001
2074.00,0.0000
2073.00,-0.0001
2072.00,-0.0001
2071.00,-0.0002
2070.00,-0.0002
2069.00,-0.0001
2068.00,-0.0001
2067.00,-0.0002
2066.00,-0.0003
2065.00,-0.0004
2064.00,-0.0004
2063.00,-0.0002
2062.00,-0.0000
2061.00,0.0000
2060.00,-0.0000
2059.00,-0.0001
2058.00,-0.0000
2057.00,0.0001
2056.00,0.0003
2055.00,0.0003
2054.00,0.0004
2053.00,0.0006
2052.00,0.0010
2051.00,0.0013
2050.00,0.0013
2049.00,0.0010
2048.00,0.0005
2047.00,0.0002
2046.00,-0.0000
2045.00,-0.0002
2044.00,-0.0004
2043.00,-0.0005
2042.00,-0.0004
2041.00,-0.0001
2040.00,0.0003
2039.00,0.0006
2038.00,0.0008
2037.00,0.0009
2036.00,0.0008
2035.00,0.0005
2034.00,0.0001
2033.00,-0.0003
2032.00,-0.0006
2031.00,-0.0009
2030.00,-0.0011
2029.00,-0.0013
2028.00,-0.0012
2027.00,-0.0010
2026.00,-0.0007
2025.00,-0.0003
2024.00,-0.0002
2023.00,-0.0003
2022.00,-0.0003
2021.00,-0.0002
2020.00,-0.0002
2019.00,-0.0003
2018.00,-0.0006
2017.00,-0.0008
2016.00,-0.0009
2015.00,-0.0009
2014.00,-0.0010
2013.00,-0.0010
2012.00,-0.0009
2011.00,-0.0009
2010.00,-0.0009
2009.00,-0.0009
2008.00,-0.0010
2007.00,-0.0013
2006.00,-0.0015
2005.00,-0.0016
2004.00,-0.0017
2003.00,-0.0018
2002.00,-0.0018
2001.00,-0.0017
2000.00,-0.0016
1999.00,-0.0014
1998.00,-0.0012
1997.00,-0.0010
1996.00,-0.0009
1995.00,-0.0008
1994.00,-0.0009
1993.00,-0.0008
1992.00,-0.0006
1991.00,-0.0003
1990.00,-0.0001
1989.00,0.0002
1988.00,0.0003
1987.00,0.0004
1986.00,0.0003
1985.00,0.0002
1984.00,0.0002
1983.00,0.0002
1982.00,0.0004
1981.00,0.0007
1980.00,0.0009
1979.00,0.0006
1978.00,0.0001
1977.00,-0.0003
1976.00,-0.0006
1975.00,-0.0006
1974.00,-0.0007
1973.00,-0.0008
1972.00,-0.0010
1971.00,-0.0011
1970.00,-0.0012
1969.00,-0.0011
1968.00,-0.0009
1967.00,-0.0007
1966.00,-0.0006
1965.00,-0.0006
1964.00,-0.0007
1963.00,-0.0010
1962.00,-0.0013
1961.00,-0.0013
1960.00,-0.0011
1959.00,-0.0008
1958.00,-0.0008
1957.00,-0.0011
1956.00,-0.0014
1955.00,-0.0018
1954.00,-0.0019
1953.00,-0.0017
1952.00,-0.0015
1951.00,-0.0012
1950.00,-0.0011
1949.00,-0.0011
1948.00,-0.0012
1947.00,-0.0012
1946.00,-0.0013
1945.00,-0.0013
1944.00,-0.0013
1943.00,-0.0014
1942.00,-0.0014
1941.00,-0.0014
1940.00,-0.0013
1939.00,-0.0011
1938.00,-0.0009
1937.00,-0.0008
1936.00,-0.0008
1935.00,-0.0009
1934.00,-0.0010
1933.00,-0.0010
1932.00,-0.0010
1931.00,-0.0010
1930.00,-0.0010
1929.00,-0.0011
1928.00,-0.0011
1927.00,-0.0010
1926.00,-0.0009
1925.00,-0.0008
1924.00,-0.0007
1923.00,-0.0005
1922.00,-0.0004
1921.00,-0.0004
1920.00,-0.0004
1919.00,-0.0005
1918.00,-0.0005
1917.00,-0.0004
1916.00,-0.0003
1915.00,-0.0002
1914.00,-0.0001
1913.00,0.0000
1912.00,0.0000
1911.00,-0.0001
1910.00,-0.0002
1909.00,-0.0003
1908.00,-0.0004
1907.00,-0.0004
1906.00,-0.0004
1905.00,-0.0004
1904.00,-0.0003
1903.00,-0.0003
1902.00,-0.0004
1901.00,-0.0003
1900.00,-0.0003
1899.00,-0.0003
1898.00,-0.0003
1897.00,-0.0003
1896.00,-0.0002
1895.00,-0.0001
1894.00,-0.0000
1893.00,0.0001
1892.00,0.0001
1891.00,0.0001
1890.00,0.0000
1889.00,-0.0000
1888.00,-0.0001
1887.00,-0.0001
1886.00,-0.0000
1885.00,-0.0000
1884.00,-0.0000
1883.00,-0.0000
1882.00,-0.0000
1881.00,0.0000
1880.00,0.0001
1879.00,0.0001
1878.00,0.0001
1877.00,0.0001
1876.00,0.0001
1875.00,0.0000
1874.00,-0.0000
1873.00,-0.0000
1872.00,-0.0000
1871.00,0.0001
1870.00,0.0001
1869.00,0.0002
1868.00,0.0002
1867.00,0.0000
1866.00,-0.0001
1865.00,-0.0001
1864.00,-0.0001
1863.00,-0.0001
1862.00,-0.0000
1861.00,0.0000
1860.00,0.0001
1859.00,0.0001
1858.00,0.0000
1857.00,0.0000
1856.00,0.0000
1855.00,0.0000
1854.00,0.0001
1853.00,0.0001
1852.00,0.0002
1851.00,0.0002
1850.00,0.0002
1849.00,0.0002
1848.00,0.0002
1847.00,0.0002
1846.00,0.0003
1845.00,0.0003
1844.00,0.0004
1843.00,0.0005
1842.00,0.0005
1841.00,0.0004
1840.00,0.0003
1839.00,0.0003
1838.00,0.0002
1837.00,0.0003
1836.00,0.0003
1835.00,0.0004
1834.00,0.0004
1833.00,0.0004
1832.00,0.0004
1831.00,0.0004
1830.00,0.0004
1829.00,0.0004
1828.00,0.0005
1827.00,0.0004
1826.00,0.0004
1825.00,0.0003
1824.00,0.0004
1823.00,0.0004
1822.00,0.0004
1821.00,0.0003
1820.00,0.0003
1819.00,0.0002
1818.00,0.0001
1817.00,0.0001
1816.00,0.0001
1815.00,0.0001
1814.00,0.0002
1813.00,0.0002
1812.00,0.0002
1811.00,0.0003
1810.00,0.0004
1809.00,0.0004
1808.00,0.0005
1807.00,0.0005
1806.00,0.0005
1805.00,0.0005
1804.00,0.0005
1803.00,0.0005
1802.00,0.0006
1801.00,0.0006
1800.00,0.0007
1799.00,0.0007
1798.00,0.0007
1797.00,0.0007
1796.00,0.0006
1795.00,0.0006
1794.00,0.0007
1793.00,0.0007
1792.00,0.0008
1791.00,0.0009
1790.00,0.0009
1789.00,0.0009
1788.00,0.0008
1787.00,0.0008
1786.00,0.0008
1785.00,0.0009
1784.00,0.0009
1783.00,0.0009
1782.00,0.0009
1781.00,0.0009
1780.00,0.0009
1779.00,0.0009
1778.00,0.0009
1777.00,0.0009
1776.00,0.0009
1775.00,0.0009
1774.00,0.0009
1773.00,0.0009
1772.00,0.0010
1771.00,0.0011
1770.00,0.0011
1769.00,0.0012
1768.00,0.0012
1767.00,0.0011
1766.00,0.0011
1765.00,0.0011
1764.00,0.0011
1763.00,0.0012
1762.00,0.0012
1761.00,0.0012
1760.00,0.0012
1759.00,0.0013
1758.00,0.0013
1757.00,0.0013
1756.00,0.0014
1755.00,0.0014
1754.00,0.0014
1753.00,0.0014
1752.00,0.0014
1751.00,0.0015
1750.00,0.0015
1749.00,0.0016
1748.00,0.0017
1747.00,0.0017
1746.00,0.0017
1745.00,0.0018
1744.00,0.0018
1743.00,0.0018
1742.00,0.0018
1741.00,0.0018
1740.00,0.0018
1739.00,0.0019
1738.00,0.0020
1737.00,0.0020
1736.00,0.0021
1735.00,0.0021
1734.00,0.0021
1733.00,0.0021
1732.00,0.0021
1731.00,0.0020
1730.00,0.0020
1729.00,0.0021
1728.00,0.0021
1727.00,0.0021
1726.00,0.0022
1725.00,0.0022
1724.00,0.0022
1723.00,0.0022
1722.00,0.0022
1721.00,0.0022
1720.00,0.0021
1719.00,0.0021
1718.00,0.0021
1717.00,0.0022
1716.00,0.0023
1715.00,0.0024
1714.00,0.0023
1713.00,0.0024
1712.00,0.0024
1711.00,0.0024
1710.00,0.0025
1709.00,0.0025
1708.00,0.0026
1707.00,0.0026
1706.00,0.0027
1705.00,0.0028
1704.00,0.0030
1703.00,0.0030
1702.00,0.0031
1701.00,0.0032
1700.00,0.0034
1699.00,0.0035
1698.00,0.0036
1697.00,0.0037
1696.00,0.0039
1695.00,0.0041
1694.00,0.0043
1693.00,0.0045
1692.00,0.0046
1691.00,0.0048
1690.00,0.0050
1689.00,0.0052
1688.00,0.0054
1687.00,0.0056
1686.00,0.0058
1685.00,0.0061
1684.00,0.0065
1683.00,0.0068
1682.00,0.0070
1681.00,0.0072
1680.00,0.0074
1679.00,0.0076
1678.00,0.0078
1677.00,0.0080
1676.00,0.0082
1675.00,0.0084
1674.00,0.0085
1673.00,0.0085
1672.00,0.0086
1671.00,0.0087
1670.00,0.0088
1669.00,0.0089
1668.00,0.0090
1667.00,0.0090
1666.00,0.0090
1665.00,0.0090
1664.00,0.0090
1663.00,0.0089
1662.00,0.0088
1661.00,0.0088
1660.00,0.0088
1659.00,0.0088
1658.00,0.0088
1657.00,0.0088
1656.00,0.0088
1655.00,0.0087
1654.00,0.0085
1653.00,0.0084
1652.00,0.0083
1651.00,0.0083
1650.00,0.0084
1649.00,0.0084
1648.00,0.0085
1647.00,0.0085
1646.00,0.0084
1645.00,0.0083
1644.00,0.0082
1643.00,0.0080
1642.00,0.0078
1641.00,0.0076
1640.00,0.0074
1639.00,0.0073
1638.00,0.0071
1637.00,0.0070
1636.00,0.0068
1635.00,0.0067
1634.00,0.0066
1633.00,0.0065
1632.00,0.0065
1631.00,0.0065
1630.00,0.0064
1629.00,0.0064
1628.00,0.0063
1627.00,0.0062
1626.00,0.0061
1625.00,0.0060
1624.00,0.0059
1623.00,0.0058
1622.00,0.0057
1621.00,0.0057
1620.00,0.0057
1619.00,0.0056
1618.00,0.0055
1617.00,0.0055
1616.00,0.0054
1615.00,0.0054
1614.00,0.0054
1613.00,0.0054
1612.00,0.0054
1611.00,0.0053
1610.00,0.0053
1609.00,0.0053
1608.00,0.0052
1607.00,0.0052
1606.00,0.0052
1605.00,0.0052
1604.00,0.0051
1603.00,0.0051
1602.00,0.0051
1601.00,0.0051
1600.00,0.0051
1599.00,0.0051
1598.00,0.0051
1597.00,0.0051
1596.00,0.0050
1595.00,0.0050
1594.00,0.0049
1593.00,0.0050
1592.00,0.0050
1591.00,0.0051
1590.00,0.0051
1589.00,0.0051
1588.00,0.0052
1587.00,0.0052
1586.00,0.0052
1585.00,0.0053
1584.00,0.0055
1583.00,0.0056
1582.00,0.0057
1581.00,0.0059
1580.00,0.0061
1579.00,0.0061
1578.00,0.0062
1577.00,0.0062
1576.00,0.0062
1575.00,0.0062
1574.00,0.0061
1573.00,0.0060
1572.00,0.0059
1571.00,0.0058
1570.00,0.0056
1569.00,0.0055
1568.00,0.0054
1567.00,0.0053
1566.00,0.0052
1565.00,0.0052
1564.00,0.0053
1563.00,0.0053
1562.00,0.0054
1561.00,0.0054
1560.00,0.0054
1559.00,0.0055
1558.00,0.0055
1557.00,0.0055
1556.00,0.0056
1555.00,0.0056
1554.00,0.0057
1553.00,0.0058
1552.00,0.0059
1551.00,0.0060
1550.00,0.0061
1549.00,0.0062
1548.00,0.0063
1547.00,0.0064
1546.00,0.0065
1545.00,0.0067
1544.00,0.0068
1543.00,0.0069
1542.00,0.0069
1541.00,0.0069
1540.00,0.0068
1539.00,0.0066
1538.00,0.0065
1537.00,0.0064
1536.00,0.0063
1535.00,0.0062
1534.00,0.0060
1533.00,0.0058
1532.00,0.0058
1531.00,0.0057
1530.00,0.0056
1529.00,0.0056
1528.00,0.0056
1527.00,0.0055
1526.00,0.0055
1525.00,0.0054
1524.00,0.0054
1523.00,0.0054
1522.00,0.0053
1521.00,0.0054
1520.00,0.0054
1519.00,0.0055
1518.00,0.0055
1517.00,0.0055
1516.00,0.0056
1515.00,0.0056
1514.00,0.0057
1513.00,0.0058
1512.00,0.0060
1511.00,0.0061
1510.00,0.0062
1509.00,0.0063
1508.00,0.0065
1507.00,0.0065
1506.00,0.0066
1505.00,0.0067
1504.00,0.0069
1503.00,0.0070
1502.00,0.0071
1501.00,0.0074
1500.00,0.0076
1499.00,0.0078
1498.00,0.0080
1497.00,0.0084
1496.00,0.0088
1495.00,0.0091
1494.00,0.0093
1493.00,0.0096
1492.00,0.0100
1491.00,0.0103
1490.00,0.0107
1489.00,0.0113
1488.00,0.0118
1487.00,0.0123
1486.00,0.0127
1485.00,0.0133
1484.00,0.0141
1483.00,0.0148
1482.00,0.0157
1481.00,0.0168
1480.00,0.0180
1479.00,0.0192
1478.00,0.0207
1477.00,0.0225
1476.00,0.0248
1475.00,0.0273
1474.00,0.0308
1473.00,0.0361
1472.00,0.0426
1471.00,0.0491
1470.00,0.0553
1469.00,0.0620
1468.00,0.0691
1467.00,0.0771
1466.00,0.0862
1465.00,0.0961
1464.00,0.1049
1463.00,0.1113
1462.00,0.1156
1461.00,0.1187
1460.00,0.1210
1459.00,0.1228
1458.00,0.1244
1457.00,0.1260
1456.00,0.1267
1455.00,0.1264
1454.00,0.1257
1453.00,0.1244
1452.00,0.1221
1451.00,0.1184
1450.00,0.1131
1449.00,0.1054
1448.00,0.0957
1447.00,0.0853
1446.00,0.0759
1445.00,0.0680
1444.00,0.0612
1443.00,0.0557
1442.00,0.0518
1441.00,0.0491
1440.00,0.0476
1439.00,0.0471
1438.00,0.0473
1437.00,0.0474
1436.00,0.0463
1435.00,0.0435
1434.00,0.0395
1433.00,0.0347
1432.00,0.0298
1431.00,0.0255
1430.00,0.0223
1429.00,0.0199
1428.00,0.0184
1427.00,0.0175
1426.00,0.0170
1425.00,0.0165
1424.00,0.0160
1423.00,0.0156
1422.00,0.0154
1421.00,0.0151
1420.00,0.0147
1419.00,0.0144
1418.00,0.0140
1417.00,0.0136
1416.00,0.0132
1415.00,0.0129
1414.00,0.0127
1413.00,0.0125
1412.00,0.0123
1411.00,0.0122
1410.00,0.0121
1409.00,0.0120
1408.00,0.0119
1407.00,0.0118
1406.00,0.0118
1405.00,0.0117
1404.00,0.0116
1403.00,0.0117
1402.00,0.0118
1401.00,0.0119
1400.00,0.0120
1399.00,0.0122
1398.00,0.0125
1397.00,0.0126
1396.00,0.0128
1395.00,0.0132
1394.00,0.0137
1393.00,0.0142
1392.00,0.0148
1391.00,0.0157
1390.00,0.0170
1389.00,0.0188
1388.00,0.0215
1387.00,0.0254
1386.00,0.0306
1385.00,0.0372
1384.00,0.0458
1383.00,0.0575
1382.00,0.0728
1381.00,0.0925
1380.00,0.1169
1379.00,0.1448
1378.00,0.1721
1377.00,0.1927
1376.00,0.2005
1375.00,0.1917
1374.00,0.1687
1373.00,0.1399
1372.00,0.1130
1371.00,0.0905
1370.00,0.0725
1369.00,0.0588
1368.00,0.0492
1367.00,0.0433
1366.00,0.0402
1365.00,0.0389
1364.00,0.0393
1363.00,0.0408
1362.00,0.0432
1361.00,0.0456
1360.00,0.0474
1359.00,0.0479
1358.00,0.0467
1357.00,0.0439
1356.00,0.0398
1355.00,0.0352
1354.00,0.0308
1353.00,0.0271
1352.00,0.0240
1351.00,0.0216
1350.00,0.0197
1349.00,0.0181
1348.00,0.0169
1347.00,0.0160
1346.00,0.0152
1345.00,0.0146
1344.00,0.0141
1343.00,0.0137
1342.00,0.0134
1341.00,0.0131
1340.00,0.0128
1339.00,0.0126
1338.00,0.0125
1337.00,0.0124
1336.00,0.0125
1335.00,0.0127
1334.00,0.0131
1333.00,0.0135
1332.00,0.0140
1331.00,0.0144
1330.00,0.0146
1329.00,0.0146
1328.00,0.0142
1327.00,0.0137
1326.00,0.0130
1325.00,0.0123
1324.00,0.0117
1323.00,0.0111
1322.00,0.0107
1321.00,0.0104
1320.00,0.0102
1319.00,0.0100
1318.00,0.0098
1317.00,0.0096
1316.00,0.0094
1315.00,0.0092
1314.00,0.0092
1313.00,0.0092
1312.00,0.0093
1311.00,0.0095
1310.00,0.0099
1309.00,0.0106
1308.00,0.0116
1307.00,0.0129
1306.00,0.0141
1305.00,0.0150
1304.00,0.0153
1303.00,0.0151
1302.00,0.0147
1301.00,0.0144
1300.00,0.0142
1299.00,0.0142
1298.00,0.0143
1297.00,0.0145
1296.00,0.0145
1295.00,0.0144
1294.00,0.0141
1293.00,0.0137
1292.00,0.0131
1291.00,0.0125
1290.00,0.0120
1289.00,0.0115
1288.00,0.0110
1287.00,0.0107
1286.00,0.0104
1285.00,0.0101
1284.00,0.0098
1283.00,0.0096
1282.00,0.0094
1281.00,0.0092
1280.00,0.0090
1279.00,0.0089
1278.00,0.0088
1277.00,0.0088
1276.00,0.0087
1275.00,0.0087
1274.00,0.0087
1273.00,0.0087
1272.00,0.0086
1271.00,0.0086
1270.00,0.0087
1269.00,0.0087
1268.00,0.0088
1267.00,0.0090
1266.00,0.0092
1265.00,0.0094
1264.00,0.0096
1263.00,0.0098
1262.00,0.0101
1261.00,0.0105
1260.00,0.0111
1259.00,0.0118
1258.00,0.0125
1257.00,0.0132
1256.00,0.0134
1255.00,0.0132
1254.00,0.0126
1253.00,0.0118
1252.00,0.0109
1251.00,0.0102
1250.00,0.0097
1249.00,0.0093
1248.00,0.0091
1247.00,0.0089
1246.00,0.0087
1245.00,0.0086
1244.00,0.0085
1243.00,0.0084
1242.00,0.0084
1241.00,0.0084
1240.00,0.0084
1239.00,0.0084
1238.00,0.0083
1237.00,0.0083
1236.00,0.0083
1235.00,0.0082
1234.00,0.0082
1233.00,0.0082
1232.00,0.0081
1231.00,0.0081
1230.00,0.0081
1229.00,0.0082
1228.00,0.0083
1227.00,0.0085
1226.00,0.0087
1225.00,0.0090
1224.00,0.0093
1223.00,0.0097
1222.00,0.0101
1221.00,0.0104
1220.00,0.0105
1219.00,0.0106
1218.00,0.0106
1217.00,0.0105
1216.00,0.0102
1215.00,0.0099
1214.00,0.0096
1213.00,0.0093
1212.00,0.0089
1211.00,0.0086
1210.00,0.0083
1209.00,0.0080
1208.00,0.0078
1207.00,0.0077
1206.00,0.0077
1205.00,0.0077
1204.00,0.0077
1203.00,0.0076
1202.00,0.0075
1201.00,0.0074
1200.00,0.0074
1199.00,0.0074
1198.00,0.0074
1197.00,0.0074
1196.00,0.0074
1195.00,0.0074
1194.00,0.0074
1193.00,0.0075
1192.00,0.0075
1191.00,0.0075
1190.00,0.0075
1189.00,0.0075
1188.00,0.0075
1187.00,0.0075
1186.00,0.0075
1185.00,0.0076
1184.00,0.0076
1183.00,0.0077
1182.00,0.0079
1181.00,0.0081
1180.00,0.0084
1179.00,0.0089
1178.00,0.0095
1177.00,0.0104
1176.00,0.0117
1175.00,0.0133
1174.00,0.0155
1173.00,0.0182
1172.00,0.0215
1171.00,0.0250
1170.00,0.0283
1169.00,0.0310
1168.00,0.0327
1167.00,0.0330
1166.00,0.0322
1165.00,0.0306
1164.00,0.0287
1163.00,0.0267
1162.00,0.0250
1161.00,0.0235
1160.00,0.0223
1159.00,0.0214
1158.00,0.0207
1157.00,0.0202
1156.00,0.0199
1155.00,0.0197
1154.00,0.0195
1153.00,0.0192
1152.00,0.0187
1151.00,0.0180
1150.00,0.0171
1149.00,0.0161
1148.00,0.0150
1147.00,0.0141
1146.00,0.0133
1145.00,0.0126
1144.00,0.0119
1143.00,0.0113
1142.00,0.0107
1141.00,0.0102
1140.00,0.0098
1139.00,0.0094
1138.00,0.0091
1137.00,0.0089
1136.00,0.0086
1135.00,0.0084
1134.00,0.0083
1133.00,0.0081
1132.00,0.0080
1131.00,0.0080
1130.00,0.0081
1129.00,0.0082
1128.00,0.0083
1127.00,0.0085
1126.00,0.0086
1125.00,0.0087
1124.00,0.0088
1123.00,0.0087
1122.00,0.0086
1121.00,0.0086
1120.00,0.0087
1119.00,0.0088
1118.00,0.0090
1117.00,0.0092
1116.00,0.0093
1115.00,0.0094
1114.00,0.0096
1113.00,0.0098
1112.00,0.0101
1111.00,0.0104
1110.00,0.0108
1109.00,0.0112
1108.00,0.0118
1107.00,0.0125
1106.00,0.0133
1105.00,0.0140
1104.00,0.0145
1103.00,0.0149
1102.00,0.0149
1101.00,0.0147
1100.00,0.0142
1099.00,0.0135
1098.00,0.0127
1097.00,0.0120
1096.00,0.0113
1095.00,0.0108
1094.00,0.0104
1093.00,0.0101
1092.00,0.0098
1091.00,0.0096
1090.00,0.0095
1089.00,0.0093
1088.00,0.0091
1087.00,0.0089
1086.00,0.0088
1085.00,0.0087
1084.00,0.0086
1083.00,0.0086
1082.00,0.0086
1081.00,0.0085
1080.00,0.0083
1079.00,0.0081
1078.00,0.0080
1077.00,0.0079
1076.00,0.0078
1075.00,0.0077
1074.00,0.0077
1073.00,0.0077
1072.00,0.0078
1071.00,0.0078
1070.00,0.0079
1069.00,0.0079
1068.00,0.0080
1067.00,0.0080
1066.00,0.0080
1065.00,0.0080
1064.00,0.0080
1063.00,0.0080
1062.00,0.0080
1061.00,0.0081
1060.00,0.0082
1059.00,0.0083
1058.00,0.0084
1057.00,0.0086
1056.00,0.0086
1055.00,0.0087
1054.00,0.0087
1053.00,0.0087
1052.00,0.0088
1051.00,0.0090
1050.00,0.0093
1049.00,0.0095
1048.00,0.0098
1047.00,0.0101
1046.00,0.0103
1045.00,0.0105
1044.00,0.0106
1043.00,0.0105
1042.00,0.0103
1041.00,0.0101
1040.00,0.0100
1039.00,0.0100
1038.00,0.0100
1037.00,0.0100
1036.00,0.0101
1035.00,0.0100
1034.00,0.0099
1033.00,0.0098
1032.00,0.0096
1031.00,0.0095
1030.00,0.0095
1029.00,0.0095
1028.00,0.0096
1027.00,0.0096
1026.00,0.0096
1025.00,0.0096
1024.00,0.0096
1023.00,0.0096
1022.00,0.0097
1021.00,0.0098
1020.00,0.0098
1019.00,0.0098
1018.00,0.0098
1017.00,0.0100
1016.00,0.0103
1015.00,0.0106
1014.00,0.0110
1013.00,0.0114
1012.00,0.0118
1011.00,0.0121
1010.00,0.0124
1009.00,0.0128
1008.00,0.0132
1007.00,0.0139
1006.00,0.0148
1005.00,0.0161
1004.00,0.0179
1003.00,0.0202
1002.00,0.0232
1001.00,0.0269
1000.00,0.0307
999.00,0.0339
998.00,0.0355
997.00,0.0348
996.00,0.0320
995.00,0.0280
994.00,0.0238
993.00,0.0201
992.00,0.0173
991.00,0.0152
990.00,0.0137
989.00,0.0126
988.00,0.0119
987.00,0.0115
986.00,0.0114
985.00,0.0116
984.00,0.0121
983.00,0.0128
982.00,0.0139
981.00,0.0155
980.00,0.0177
979.00,0.0206
978.00,0.0243
977.00,0.0286
976.00,0.0333
975.00,0.0379
974.00,0.0413
973.00,0.0426
972.00,0.0413
971.00,0.0376
970.00,0.0324
969.00,0.0271
968.00,0.0224
967.00,0.0188
966.00,0.0161
965.00,0.0142
964.00,0.0128
963.00,0.0117
962.00,0.0109
961.00,0.0102
960.00,0.0097
959.00,0.0092
958.00,0.0087
957.00,0.0084
956.00,0.0081
955.00,0.0080
954.00,0.0079
953.00,0.0077
952.00,0.0076
951.00,0.0075
950.00,0.0075
949.00,0.0075
948.00,0.0075
947.00,0.0076
946.00,0.0078
945.00,0.0080
944.00,0.0083
943.00,0.0086
942.00,0.0089
941.00,0.0091
940.00,0.0091
939.00,0.0089
938.00,0.0087
937.00,0.0083
936.00,0.0079
935.00,0.0074
934.00,0.0071
933.00,0.0068
932.00,0.0065
931.00,0.0064
930.00,0.0063
929.00,0.0062
928.00,0.0062
927.00,0.0062
926.00,0.0063
925.00,0.0063
924.00,0.0063
923.00,0.0063
922.00,0.0064
921.00,0.0066
920.00,0.0068
919.00,0.0069
918.00,0.0071
917.00,0.0072
916.00,0.0072
915.00,0.0072
914.00,0.0073
913.00,0.0074
912.00,0.0074
911.00,0.0075
910.00,0.0077
909.00,0.0079
908.00,0.0081
907.00,0.0086
906.00,0.0092
905.00,0.0103
904.00,0.0119
903.00,0.0139
902.00,0.0161
901.00,0.0181
900.00,0.0194
899.00,0.0198
898.00,0.0190
897.00,0.0174
896.00,0.0154
895.00,0.0134
894.00,0.0118
893.00,0.0105
892.00,0.0095
891.00,0.0087
890.00,0.0082
889.00,0.0079
888.00,0.0077
887.00,0.0077
886.00,0.0076
885.00,0.0076
884.00,0.0076
883.00,0.0075
882.00,0.0075
881.00,0.0075
880.00,0.0074
879.00,0.0074
878.00,0.0074
877.00,0.0074
876.00,0.0074
875.00,0.0074
874.00,0.0075
873.00,0.0075
872.00,0.0075
871.00,0.0075
870.00,0.0075
869.00,0.0074
868.00,0.0074
867.00,0.0074
866.00,0.0075
865.00,0.0076
864.00,0.0078
863.00,0.0079
862.00,0.0081
861.00,0.0082
860.00,0.0084
859.00,0.0086
858.00,0.0088
857.00,0.0089
856.00,0.0090
855.00,0.0092
854.00,0.0094
853.00,0.0097
852.00,0.0100
851.00,0.0104
850.00,0.0109
849.00,0.0116
848.00,0.0127
847.00,0.0143
846.00,0.0167
845.00,0.0202
844.00,0.0249
843.00,0.0299
842.00,0.0336
841.00,0.0345
840.00,0.0321
839.00,0.0276
838.00,0.0228
837.00,0.0190
836.00,0.0166
835.00,0.0151
834.00,0.0141
833.00,0.0133
832.00,0.0127
831.00,0.0122
830.00,0.0119
829.00,0.0117
828.00,0.0115
827.00,0.0114
826.00,0.0113
825.00,0.0112
824.00,0.0111
823.00,0.0110
822.00,0.0109
821.00,0.0108
820.00,0.0110
819.00,0.0114
818.00,0.0119
817.00,0.0125
816.00,0.0132
815.00,0.0143
814.00,0.0157
813.00,0.0175
812.00,0.0195
811.00,0.0213
810.00,0.0227
809.00,0.0234
808.00,0.0231
807.00,0.0221
806.00,0.0204
805.00,0.0186
804.00,0.0170
803.00,0.0155
802.00,0.0143
801.00,0.0133
800.00,0.0125
799.00,0.0118
798.00,0.0113
797.00,0.0108
796.00,0.0103
795.00,0.0100
794.00,0.0097
793.00,0.0095
792.00,0.0093
791.00,0.0091
790.00,0.0088
789.00,0.0085
788.00,0.0083
787.00,0.0081
786.00,0.0079
785.00,0.0077
784.00,0.0075
783.00,0.0074
782.00,0.0072
781.00,0.0070
780.00,0.0068
779.00,0.0067
778.00,0.0066
777.00,0.0066
776.00,0.0066
775.00,0.0067
774.00,0.0068
773.00,0.0070
772.00,0.0073
771.00,0.0077
770.00,0.0080
769.00,0.0083
768.00,0.0084
767.00,0.0083
766.00,0.0082
765.00,0.0079
764.00,0.0075
763.00,0.0073
762.00,0.0071
761.00,0.0069
760.00,0.0067
759.00,0.0065
758.00,0.0064
757.00,0.0062
756.00,0.0060
755.00,0.0059
754.00,0.0058
753.00,0.0058
752.00,0.0057
751.00,0.0058
750.00,0.0058
749.00,0.0059
748.00,0.0059
747.00,0.0059
746.00,0.0058
745.00,0.0057
744.00,0.0057
743.00,0.0058
742.00,0.0060
741.00,0.0062
740.00,0.0065
739.00,0.0068
738.00,0.0070
737.00,0.0071
736.00,0.0072
735.00,0.0073
734.00,0.0074
733.00,0.0074
732.00,0.0075
731.00,0.0075
730.00,0.0076
729.00,0.0077
728.00,0.0077
727.00,0.0075
726.00,0.0074
725.00,0.0073
724.00,0.0073
723.00,0.0074
722.00,0.0074
721.00,0.0074
720.00,0.0072
719.00,0.0070
718.00,0.0068
717.00,0.0066
716.00,0.0063
715.00,0.0061
714.00,0.0059
713.00,0.0059
712.00,0.0061
711.00,0.0062
710.00,0.0063
709.00,0.0063
708.00,0.0063
707.00,0.0063
706.00,0.0063
705.00,0.0062
704.00,0.0061
703.00,0.0061
702.00,0.0061
701.00,0.0062
700.00,0.0063
699.00,0.0062
698.00,0.0060
697.00,0.0057
696.00,0.0055
695.00,0.0054
694.00,0.0055
693.00,0.0057
692.00,0.0059
691.00,0.0060
690.00,0.0062
689.00,0.0062
688.00,0.0060
687.00,0.0059
686.00,0.0057
685.00,0.0056
684.00,0.0055
683.00,0.0054
682.00,0.0054
681.00,0.0053
680.00,0.0053
679.00,0.0053
678.00,0.0054
677.00,0.0056
676.00,0.0058
675.00,0.0061
674.00,0.0064
673.00,0.0065
672.00,0.0066
671.00,0.0065
670.00,0.0064
669.00,0.0061
668.00,0.0060
667.00,0.0061
666.00,0.0061
665.00,0.0061
664.00,0.0061
663.00,0.0062
662.00,0.0062
661.00,0.0062
660.00,0.0062
659.00,0.0062
658.00,0.0062
657.00,0.0061
656.00,0.0059
655.00,0.0059
654.00,0.0060
653.00,0.0061
652.00,0.0061
651.00,0.0059
650.00,0.0057
649.00,0.0058
648.00,0.0062
647.00,0.0067
646.00,0.0071
645.00,0.0072
644.00,0.0070
643.00,0.0067
642.00,0.0064
641.00,0.0062
640.00,0.0061
639.00,0.0060
638.00,0.0059
637.00,0.0060
636.00,0.0061
635.00,0.0062
634.00,0.0064
633.00,0.0065
632.00,0.0065
631.00,0.0065
630.00,0.0064
629.00,0.0065
628.00,0.0066
627.00,0.0067
626.00,0.0067
625.00,0.0064
624.00,0.0062
623.00,0.0060
622.00,0.0061
621.00,0.0062
620.00,0.0063
619.00,0.0063
618.00,0.0065
617.00,0.0066
616.00,0.0066
615.00,0.0065
614.00,0.0064
613.00,0.0064
612.00,0.0063
611.00,0.0063
610.00,0.0063
609.00,0.0063
608.00,0.0061
607.00,0.0059
606.00,0.0057
605.00,0.0058
604.00,0.0060
603.00,0.0063
602.00,0.0065
601.00,0.0067
600.00,0.0069
599.00,0.0069
598.00,0.0068
597.00,0.0066
596.00,0.0065
595.00,0.0065
594.00,0.0064
593.00,0.0064
592.00,0.0064
591.00,0.0064
590.00,0.0064
589.00,0.0065
588.00,0.0066
587.00,0.0070
586.00,0.0073
585.00,0.0076
584.00,0.0076
583.00,0.0076
582.00,0.0075
581.00,0.0074
580.00,0.0073
579.00,0.0070
578.00,0.0068
577.00,0.0067
576.00,0.0066
575.00,0.0065
574.00,0.0065
573.00,0.0065
572.00,0.0065
571.00,0.0065
570.00,0.0066
569.00,0.0068
568.00,0.0070
567.00,0.0070
566.00,0.0069
565.00,0.0068
564.00,0.0068
563.00,0.0070
562.00,0.0070
561.00,0.0069
560.00,0.0067
559.00,0.0066
558.00,0.0065
557.00,0.0065
556.00,0.0065
555.00,0.0067
554.00,0.0070
553.00,0.0072
552.00,0.0071
551.00,0.0069
550.00,0.0069
549.00,0.0073
548.00,0.0077
547.00,0.0079
546.00,0.0077
545.00,0.0072
544.00,0.0067
543.00,0.0066
542.00,0.0067
541.00,0.0071
540.00,0.0073
539.00,0.0074
538.00,0.0074
537.00,0.0074
536.00,0.0076
535.00,0.0078
534.00,0.0082
533.00,0.0085
532.00,0.0088
531.00,0.0089
530.00,0.0087
529.00,0.0084
528.00,0.0083
527.00,0.0081
526.00,0.0080
525.00,0.0078
524.00,0.0077
523.00,0.0078
522.00,0.0077
521.00,0.0074
520.00,0.0071
519.00,0.0070
518.00,0.0071
517.00,0.0073
516.00,0.0073
515.00,0.0072
514.00,0.0068
513.00,0.0063
512.00,0.0057
511.00,0.0053
510.00,0.0052
509.00,0.0052
508.00,0.0055
507.00,0.0061
506.00,0.0067
505.00,0.0071
504.00,0.0073
503.00,0.0072
502.00,0.0072
501.00,0.0071
500.00,0.0070
499.00,0.0069
498.00,0.0068
497.00,0.0066
496.00,0.0065
495.00,0.0063
494.00,0.0063
493.00,0.0066
492.00,0.0071
491.00,0.0076
490.00,0.0076
489.00,0.0071
488.00,0.0062
487.00,0.0055
486.00,0.0051
485.00,0.0050
484.00,0.0054
483.00,0.0063
482.00,0.0077
481.00,0.0089
480.00,0.0094
479.00,0.0091
478.00,0.0084
477.00,0.0079
476.00,0.0082
475.00,0.0092
474.00,0.0105
473.00,0.0109
472.00,0.0100
471.00,0.0085
470.00,0.0072
469.00,0.0065
468.00,0.0064
467.00,0.0068
466.00,0.0076
465.00,0.0086
464.00,0.0100
463.00,0.0117
462.00,0.0138
461.00,0.0158
460.00,0.0171
459.00,0.0172
458.00,0.0164
457.00,0.0153
456.00,0.0142
455.00,0.0131
454.00,0.0121
453.00,0.0113
452.00,0.0105
451.00,0.0096
450.00,0.0085
