Created as New Dataset,Sample 014 By Administrator Date Wednesday, September 10 2025
cm-1,A
4000.00,0.0008
3999.00,0.0008
3998.00,0.0008
3997.00,0.0008
3996.00,0.0008
3995.00,0.0008
3994.00,0.0008
3993.00,0.0009
3992.00,0.0009
3991.00,0.0009
3990.00,0.0009
3989.00,0.0008
3988.00,0.0008
3987.00,0.0008
3986.00,0.0007
3985.00,0.0007
3984.00,0.0007
3983.00,0.0007
3982.00,0.0008
3981.00,0.0008
3980.00,0.0008
3979.00,0.0007
3978.00,0.0007
3977.00,0.0007
3976.00,0.0007
3975.00,0.0007
3974.00,0.0007
3973.00,0.0007
3972.00,0.0007
3971.00,0.0006
3970.00,0.0006
3969.00,0.0006
3968.00,0.0006
3967.00,0.0006
3966.00,0.0007
3965.00,0.0007
3964.00,0.0007
3963.00,0.0007
3962.00,0.0007
3961.00,0.0007
3960.00,0.0007
3959.00,0.0006
3958.00,0.0006
3957.00,0.0006
3956.00,0.0006
3955.00,0.0006
3954.00,0.0006
3953.00,0.0006
3952.00,0.0006
3951.00,0.0006
3950.00,0.0007
3949.00,0.0007
3948.00,0.0007
3947.00,0.0007
3946.00,0.0006
3945.00,0.0006
3944.00,0.0006
3943.00,0.0006
3942.00,0.0006
3941.00,0.0006
3940.00,0.0006
3939.00,0.0007
3938.00,0.0007
3937.00,0.0007
3936.00,0.0007
3935.00,0.0007
3934.00,0.0007
3933.00,0.0007
3932.00,0.0007
3931.00,0.0007
3930.00,0.0007
3929.00,0.0007
3928.00,0.0007
3927.00,0.0007
3926.00,0.0007
3925.00,0.0007
3924.00,0.0007
3923.00,0.0008
3922.00,0.0008
3921.00,0.0008
3920.00,0.0008
3919.00,0.0007
3918.00,0.0007
3917.00,0.0007
3916.00,0.0007
3915.00,0.0007
3914.00,0.0007
3913.00,0.0007
3912.00,0.0007
3911.00,0.0007
3910.00,0.0007
3909.00,0.0007
3908.00,0.0007
3907.00,0.0007
3906.00,0.0007
3905.00,0.0008
3904.00,0.0008
3903.00,0.0008
3902.00,0.0009
3901.00,0.0009
3900.00,0.0009
3899.00,0.0009
3898.00,0.0008
3897.00,0.0008
3896.00,0.0008
3895.00,0.0008
3894.00,0.0008
3893.00,0.0008
3892.00,0.0008
3891.00,0.0008
3890.00,0.0008
3889.00,0.0008
3888.00,0.0007
3887.00,0.0007
3886.00,0.0008
3885.00,0.0008
3884.00,0.0008
3883.00,0.0007
3882.00,0.0007
3881.00,0.0007
3880.00,0.0008
3879.00,0.0008
3878.00,0.0008
3877.00,0.0008
3876.00,0.0008
3875.00,0.0008
3874.00,0.0008
3873.00,0.0008
3872.00,0.0007
3871.00,0.0007
3870.00,0.0008
3869.00,0.0008
3868.00,0.0008
3867.00,0.0009
3866.00,0.0009
3865.00,0.0009
3864.00,0.0008
3863.00,0.0008
3862.00,0.0007
3861.00,0.0007
3860.00,0.0007
3859.00,0.0007
3858.00,0.0007
3857.00,0.0008
3856.00,0.0008
3855.00,0.0009
3854.00,0.0009
3853.00,0.0009
3852.00,0.0009
3851.00,0.0009
3850.00,0.0009
3849.00,0.0008
3848.00,0.0008
3847.00,0.0008
3846.00,0.0007
3845.00,0.0007
3844.00,0.0007
3843.00,0.0008
3842.00,0.0008
3841.00,0.0009
3840.00,0.0009
3839.00,0.0010
3838.00,0.0010
3837.00,0.0010
3836.00,0.0010
3835.00,0.0010
3834.00,0.0010
3833.00,0.0010
3832.00,0.0009
3831.00,0.0009
3830.00,0.0008
3829.00,0.0008
3828.00,0.0008
3827.00,0.0007
3826.00,0.0007
3825.00,0.0008
3824.00,0.0008
3823.00,0.0009
3822.00,0.0010
3821.00,0.0010
3820.00,0.0010
3819.00,0.0010
3818.00,0.0010
3817.00,0.0010
3816.00,0.0010
3815.00,0.0009
3814.00,0.0009
3813.00,0.0009
3812.00,0.0009
3811.00,0.0009
3810.00,0.0008
3809.00,0.0008
3808.00,0.0008
3807.00,0.0008
3806.00,0.0008
3805.00,0.0008
3804.00,0.0008
3803.00,0.0009
3802.00,0.0009
3801.00,0.0009
3800.00,0.0010
3799.00,0.0010
3798.00,0.0010
3797.00,0.0010
3796.00,0.0009
3795.00,0.0008
3794.00,0.0007
3793.00,0.0007
3792.00,0.0006
3791.00,0.0006
3790.00,0.0007
3789.00,0.0007
3788.00,0.0006
3787.00,0.0006
3786.00,0.0006
3785.00,0.0006
3784.00,0.0006
3783.00,0.0007
3782.00,0.0007
3781.00,0.0008
3780.00,0.0008
3779.00,0.0008
3778.00,0.0008
3777.00,0.0008
3776.00,0.0008
3775.00,0.0008
3774.00,0.0008
3773.00,0.0008
3772.00,0.0008
3771.00,0.0008
3770.00,0.0009
3769.00,0.0009
3768.00,0.0009
3767.00,0.0009
3766.00,0.0009
3765.00,0.0009
3764.00,0.0009
3763.00,0.0009
3762.00,0.0009
3761.00,0.0009
3760.00,0.0009
3759.00,0.0009
3758.00,0.0009
3757.00,0.0009
3756.00,0.0009
3755.00,0.0010
3754.00,0.0010
3753.00,0.0011
3752.00,0.0011
3751.00,0.0012
3750.00,0.0012
3749.00,0.0013
3748.00,0.0013
3747.00,0.0012
3746.00,0.0011
3745.00,0.0011
3744.00,0.0010
3743.00,0.0010
3742.00,0.0009
3741.00,0.0009
3740.00,0.0009
3739.00,0.0009
3738.00,0.0010
3737.00,0.0010
3736.00,0.0010
3735.00,0.0009
3734.00,0.0009
3733.00,0.0009
3732.00,0.0008
3731.00,0.0008
3730.00,0.0007
3729.00,0.0007
3728.00,0.0006
3727.00,0.0006
3726.00,0.0007
3725.00,0.0007
3724.00,0.0006
3723.00,0.0006
3722.00,0.0006
3721.00,0.0005
3720.00,0.0005
3719.00,0.0006
3718.00,0.0006
3717.00,0.0006
3716.00,0.0006
3715.00,0.0006
3714.00,0.0006
3713.00,0.0007
3712.00,0.0007
3711.00,0.0007
3710.00,0.0007
3709.00,0.0007
3708.00,0.0007
3707.00,0.0007
3706.00,0.0007
3705.00,0.0007
3704.00,0.0006
3703.00,0.0006
3702.00,0.0006
3701.00,0.0005
3700.00,0.0005
3699.00,0.0005
3698.00,0.0005
3697.00,0.0005
3696.00,0.0005
3695.00,0.0005
3694.00,0.0006
3693.00,0.0006
3692.00,0.0007
3691.00,0.0008
3690.00,0.0008
3689.00,0.0008
3688.00,0.0008
3687.00,0.0008
3686.00,0.0007
3685.00,0.0007
3684.00,0.0006
3683.00,0.0006
3682.00,0.0006
3681.00,0.0006
3680.00,0.0006
3679.00,0.0006
3678.00,0.0006
3677.00,0.0007
3676.00,0.0007
3675.00,0.0007
3674.00,0.0007
3673.00,0.0008
3672.00,0.0008
3671.00,0.0008
3670.00,0.0007
3669.00,0.0007
3668.00,0.0007
3667.00,0.0006
3666.00,0.0006
3665.00,0.0005
3664.00,0.0005
3663.00,0.0004
3662.00,0.0004
3661.00,0.0004
3660.00,0.0004
3659.00,0.0005
3658.00,0.0005
3657.00,0.0005
3656.00,0.0006
3655.00,0.0006
3654.00,0.0006
3653.00,0.0007
3652.00,0.0007
3651.00,0.0008
3650.00,0.0008
3649.00,0.0008
3648.00,0.0009
3647.00,0.0009
3646.00,0.0010
3645.00,0.0009
3644.00,0.0009
3643.00,0.0008
3642.00,0.0007
3641.00,0.0007
3640.00,0.0006
3639.00,0.0006
3638.00,0.0006
3637.00,0.0005
3636.00,0.0005
3635.00,0.0006
3634.00,0.0006
3633.00,0.0006
3632.00,0.0007
3631.00,0.0007
3630.00,0.0007
3629.00,0.0007
3628.00,0.0007
3627.00,0.0007
3626.00,0.0007
3625.00,0.0006
3624.00,0.0006
3623.00,0.0006
3622.00,0.0006
3621.00,0.0006
3620.00,0.0007
3619.00,0.0007
3618.00,0.0008
3617.00,0.0008
3616.00,0.0008
3615.00,0.0008
3614.00,0.0008
3613.00,0.0008
3612.00,0.0008
3611.00,0.0008
3610.00,0.0008
3609.00,0.0008
3608.00,0.0007
3607.00,0.0007
3606.00,0.0006
3605.00,0.0006
3604.00,0.0006
3603.00,0.0006
3602.00,0.0006
3601.00,0.0006
3600.00,0.0007
3599.00,0.0007
3598.00,0.0007
3597.00,0.0008
3596.00,0.0008
3595.00,0.0007
3594.00,0.0007
3593.00,0.0007
3592.00,0.0006
3591.00,0.0007
3590.00,0.0007
3589.00,0.0007
3588.00,0.0008
3587.00,0.0008
3586.00,0.0008
3585.00,0.0008
3584.00,0.0008
3583.00,0.0008
3582.00,0.0007
3581.00,0.0007
3580.00,0.0008
3579.00,0.0008
3578.00,0.0009
3577.00,0.0009
3576.00,0.0010
3575.00,0.0009
3574.00,0.0009
3573.00,0.0009
3572.00,0.0009
3571.00,0.0010
3570.00,0.0010
3569.00,0.0011
3568.00,0.0012
3567.00,0.0012
3566.00,0.0012
3565.00,0.0012
3564.00,0.0012
3563.00,0.0012
3562.00,0.0012
3561.00,0.0012
3560.00,0.0012
3559.00,0.0012
3558.00,0.0012
3557.00,0.0011
3556.00,0.0012
3555.00,0.0012
3554.00,0.0012
3553.00,0.0013
3552.00,0.0013
3551.00,0.0013
3550.00,0.0014
3549.00,0.0014
3548.00,0.0014
3547.00,0.0014
3546.00,0.0014
3545.00,0.0014
3544.00,0.0014
3543.00,0.0014
3542.00,0.0014
3541.00,0.0015
3540.00,0.0015
3539.00,0.0015
3538.00,0.0015
3537.00,0.0015
3536.00,0.0016
3535.00,0.0016
3534.00,0.0016
3533.00,0.0016
3532.00,0.0016
3531.00,0.0016
3530.00,0.0017
3529.00,0.0017
3528.00,0.0018
3527.00,0.0019
3526.00,0.0019
3525.00,0.0019
3524.00,0.0019
3523.00,0.0019
3522.00,0.0019
3521.00,0.0019
3520.00,0.0018
3519.00,0.0018
3518.00,0.0018
3517.00,0.0018
3516.00,0.0018
3515.00,0.0018
3514.00,0.0018
3513.00,0.0018
3512.00,0.0018
3511.00,0.0018
3510.00,0.0019
3509.00,0.0019
3508.00,0.0020
3507.00,0.0020
3506.00,0.0020
3505.00,0.0021
3504.00,0.0021
3503.00,0.0021
3502.00,0.0021
3501.00,0.0021
3500.00,0.0021
3499.00,0.0021
3498.00,0.0021
3497.00,0.0021
3496.00,0.0022
3495.00,0.0022
3494.00,0.0023
3493.00,0.0023
3492.00,0.0023
3491.00,0.0023
3490.00,0.0023
3489.00,0.0022
3488.00,0.0023
3487.00,0.0023
3486.00,0.0023
3485.00,0.0024
3484.00,0.0024
3483.00,0.0024
3482.00,0.0024
3481.00,0.0024
3480.00,0.0025
3479.00,0.0025
3478.00,0.0025
3477.00,0.0025
3476.00,0.0025
3475.00,0.0026
3474.00,0.0026
3473.00,0.0026
3472.00,0.0026
3471.00,0.0026
3470.00,0.0026
3469.00,0.0026
3468.00,0.0026
3467.00,0.0026
3466.00,0.0026
3465.00,0.0026
3464.00,0.0026
3463.00,0.0027
3462.00,0.0027
3461.00,0.0027
3460.00,0.0028
3459.00,0.0028
3458.00,0.0028
3457.00,0.0028
3456.00,0.0028
3455.00,0.0027
3454.00,0.0027
3453.00,0.0027
3452.00,0.0028
3451.00,0.0028
3450.00,0.0029
3449.00,0.0029
3448.00,0.0029
3447.00,0.0029
3446.00,0.0029
3445.00,0.0029
3444.00,0.0030
3443.00,0.0030
3442.00,0.0030
3441.00,0.0031
3440.00,0.0031
3439.00,0.0031
3438.00,0.0031
3437.00,0.0031
3436.00,0.0032
3435.00,0.0032
3434.00,0.0032
3433.00,0.0032
3432.00,0.0032
3431.00,0.0032
3430.00,0.0032
3429.00,0.0032
3428.00,0.0032
3427.00,0.0033
3426.00,0.0033
3425.00,0.0034
3424.00,0.0034
3423.00,0.0034
3422.00,0.0034
3421.00,0.0034
3420.00,0.0034
3419.00,0.0034
3418.00,0.0035
3417.00,0.0035
3416.00,0.0035
3415.00,0.0035
3414.00,0.0035
3413.00,0.0034
3412.00,0.0034
3411.00,0.0034
3410.00,0.0034
3409.00,0.0034
3408.00,0.0035
3407.00,0.0035
3406.00,0.0035
3405.00,0.0034
3404.00,0.0034
3403.00,0.0035
3402.00,0.0035
3401.00,0.0036
3400.00,0.0036
3399.00,0.0036
3398.00,0.0036
3397.00,0.0036
3396.00,0.0036
3395.00,0.0036
3394.00,0.0036
3393.00,0.0036
3392.00,0.0036
3391.00,0.0036
3390.00,0.0035
3389.00,0.0035
3388.00,0.0035
3387.00,0.0035
3386.00,0.0036
3385.00,0.0036
3384.00,0.0036
3383.00,0.0036
3382.00,0.0036
3381.00,0.0036
3380.00,0.0036
3379.00,0.0036
3378.00,0.0036
3377.00,0.0036
3376.00,0.0036
3375.00,0.0036
3374.00,0.0036
3373.00,0.0036
3372.00,0.0036
3371.00,0.0036
3370.00,0.0036
3369.00,0.0036
3368.00,0.0035
3367.00,0.0035
3366.00,0.0036
3365.00,0.0036
3364.00,0.0036
3363.00,0.0036
3362.00,0.0036
3361.00,0.0036
3360.00,0.0036
3359.00,0.0036
3358.00,0.0036
3357.00,0.0037
3356.00,0.0037
3355.00,0.0037
3354.00,0.0037
3353.00,0.0036
3352.00,0.0036
3351.00,0.0036
3350.00,0.0035
3349.00,0.0035
3348.00,0.0035
3347.00,0.0035
3346.00,0.0036
3345.00,0.0036
3344.00,0.0036
3343.00,0.0036
3342.00,0.0036
3341.00,0.0035
3340.00,0.0035
3339.00,0.0035
3338.00,0.0035
3337.00,0.0036
3336.00,0.0036
3335.00,0.0036
3334.00,0.0036
3333.00,0.0035
3332.00,0.0035
3331.00,0.0035
3330.00,0.0034
3329.00,0.0034
3328.00,0.0034
3327.00,0.0035
3326.00,0.0035
3325.00,0.0035
3324.00,0.0035
3323.00,0.0034
3322.00,0.0034
3321.00,0.0034
3320.00,0.0034
3319.00,0.0034
3318.00,0.0034
3317.00,0.0034
3316.00,0.0034
3315.00,0.0034
3314.00,0.0034
3313.00,0.0034
3312.00,0.0033
3311.00,0.0033
3310.00,0.0033
3309.00,0.0034
3308.00,0.0034
3307.00,0.0033
3306.00,0.0033
3305.00,0.0033
3304.00,0.0033
3303.00,0.0033
3302.00,0.0033
3301.00,0.0033
3300.00,0.0033
3299.00,0.0032
3298.00,0.0032
3297.00,0.0032
3296.00,0.0032
3295.00,0.0032
3294.00,0.0033
3293.00,0.0033
3292.00,0.0033
3291.00,0.0033
3290.00,0.0033
3289.00,0.0033
3288.00,0.0032
3287.00,0.0032
3286.00,0.0032
3285.00,0.0032
3284.00,0.0032
3283.00,0.0031
3282.00,0.0031
3281.00,0.0031
3280.00,0.0031
3279.00,0.0032
3278.00,0.0032
3277.00,0.0032
3276.00,0.0032
3275.00,0.0032
3274.00,0.0032
3273.00,0.0032
3272.00,0.0032
3271.00,0.0031
3270.00,0.0031
3269.00,0.0031
3268.00,0.0031
3267.00,0.0031
3266.00,0.0031
3265.00,0.0031
3264.00,0.0031
3263.00,0.0030
3262.00,0.0030
3261.00,0.0030
3260.00,0.0030
3259.00,0.0030
3258.00,0.0030
3257.00,0.0030
3256.00,0.0030
3255.00,0.0030
3254.00,0.0029
3253.00,0.0029
3252.00,0.0028
3251.00,0.0029
3250.00,0.0029
3249.00,0.0029
3248.00,0.0029
3247.00,0.0029
3246.00,0.0029
3245.00,0.0029
3244.00,0.0029
3243.00,0.0029
3242.00,0.0029
3241.00,0.0028
3240.00,0.0028
3239.00,0.0028
3238.00,0.0028
3237.00,0.0028
3236.00,0.0028
3235.00,0.0028
3234.00,0.0028
3233.00,0.0029
3232.00,0.0029
3231.00,0.0029
3230.00,0.0030
3229.00,0.0030
3228.00,0.0030
3227.00,0.0030
3226.00,0.0030
3225.00,0.0031
3224.00,0.0031
3223.00,0.0031
3222.00,0.0031
3221.00,0.0031
3220.00,0.0031
3219.00,0.0031
3218.00,0.0031
3217.00,0.0032
3216.00,0.0032
3215.00,0.0032
3214.00,0.0032
3213.00,0.0032
3212.00,0.0033
3211.00,0.0033
3210.00,0.0033
3209.00,0.0034
3208.00,0.0034
3207.00,0.0034
3206.00,0.0034
3205.00,0.0034
3204.00,0.0034
3203.00,0.0034
3202.00,0.0035
3201.00,0.0035
3200.00,0.0035
3199.00,0.0035
3198.00,0.0035
3197.00,0.0035
3196.00,0.0035
3195.00,0.0035
3194.00,0.0035
3193.00,0.0035
3192.00,0.0035
3191.00,0.0035
3190.00,0.0035
3189.00,0.0034
3188.00,0.0034
3187.00,0.0034
3186.00,0.0034
3185.00,0.0034
3184.00,0.0034
3183.00,0.0034
3182.00,0.0034
3181.00,0.0033
3180.00,0.0033
3179.00,0.0033
3178.00,0.0032
3177.00,0.0032
3176.00,0.0032
3175.00,0.0031
3174.00,0.0031
3173.00,0.0031
3172.00,0.0031
3171.00,0.0030
3170.00,0.0030
3169.00,0.0030
3168.00,0.0030
3167.00,0.0030
3166.00,0.0029
3165.00,0.0029
3164.00,0.0029
3163.00,0.0029
3162.00,0.0029
3161.00,0.0030
3160.00,0.0030
3159.00,0.0030
3158.00,0.0029
3157.00,0.0029
3156.00,0.0029
3155.00,0.0029
3154.00,0.0029
3153.00,0.0029
3152.00,0.0029
3151.00,0.0029
3150.00,0.0030
3149.00,0.0030
3148.00,0.0030
3147.00,0.0030
3146.00,0.0030
3145.00,0.0029
3144.00,0.0029
3143.00,0.0029
3142.00,0.0028
3141.00,0.0028
3140.00,0.0028
3139.00,0.0028
3138.00,0.0027
3137.00,0.0027
3136.00,0.0027
3135.00,0.0027
3134.00,0.0027
3133.00,0.0027
3132.00,0.0027
3131.00,0.0027
3130.00,0.0026
3129.00,0.0026
3128.00,0.0026
3127.00,0.0026
3126.00,0.0026
3125.00,0.0026
3124.00,0.0026
3123.00,0.0025
3122.00,0.0025
3121.00,0.0025
3120.00,0.0025
3119.00,0.0024
3118.00,0.0024
3117.00,0.0024
3116.00,0.0024
3115.00,0.0024
3114.00,0.0024
3113.00,0.0024
3112.00,0.0024
3111.00,0.0024
3110.00,0.0024
3109.00,0.0024
3108.00,0.0024
3107.00,0.0024
3106.00,0.0024
3105.00,0.0023
3104.00,0.0023
3103.00,0.0023
3102.00,0.0023
3101.00,0.0023
3100.00,0.0023
3099.00,0.0023
3098.00,0.0023
3097.00,0.0023
3096.00,0.0023
3095.00,0.0023
3094.00,0.0024
3093.00,0.0023
3092.00,0.0023
3091.00,0.0023
3090.00,0.0022
3089.00,0.0022
3088.00,0.0022
3087.00,0.0022
3086.00,0.0022
3085.00,0.0022
3084.00,0.0022
3083.00,0.0022
3082.00,0.0022
3081.00,0.0022
3080.00,0.0022
3079.00,0.0022
3078.00,0.0022
3077.00,0.0022
3076.00,0.0022
3075.00,0.0021
3074.00,0.0021
3073.00,0.0022
3072.00,0.0022
3071.00,0.0022
3070.00,0.0023
3069.00,0.0023
3068.00,0.0023
3067.00,0.0023
3066.00,0.0024
3065.00,0.0024
3064.00,0.0025
3063.00,0.0025
3062.00,0.0025
3061.00,0.0025
3060.00,0.0026
3059.00,0.0026
3058.00,0.0026
3057.00,0.0026
3056.00,0.0025
3055.00,0.0025
3054.00,0.0026
3053.00,0.0026
3052.00,0.0026
3051.00,0.0026
3050.00,0.0026
3049.00,0.0026
3048.00,0.0026
3047.00,0.0027
3046.00,0.0027
3045.00,0.0028
3044.00,0.0028
3043.00,0.0028
3042.00,0.0028
3041.00,0.0028
3040.00,0.0029
3039.00,0.0029
3038.00,0.0029
3037.00,0.0030
3036.00,0.0030
3035.00,0.0030
3034.00,0.0030
3033.00,0.0030
3032.00,0.0031
3031.00,0.0031
3030.00,0.0032
3029.00,0.0032
3028.00,0.0033
3027.00,0.0033
3026.00,0.0034
3025.00,0.0035
3024.00,0.0035
3023.00,0.0036
3022.00,0.0037
3021.00,0.0038
3020.00,0.0039
3019.00,0.0040
3018.00,0.0041
3017.00,0.0042
3016.00,0.0043
3015.00,0.0043
3014.00,0.0044
3013.00,0.0046
3012.00,0.0047
3011.00,0.0049
3010.00,0.0050
3009.00,0.0052
3008.00,0.0053
3007.00,0.0055
3006.00,0.0056
3005.00,0.0058
3004.00,0.0060
3003.00,0.0062
3002.00,0.0065
3001.00,0.0067
3000.00,0.0070
2999.00,0.0072
2998.00,0.0075
2997.00,0.0079
2996.00,0.0082
2995.00,0.0087
2994.00,0.0091
2993.00,0.0097
2992.00,0.0102
2991.00,0.0109
2990.00,0.0115
2989.00,0.0122
2988.00,0.0130
2987.00,0.0139
2986.00,0.0149
2985.00,0.0160
2984.00,0.0172
2983.00,0.0186
2982.00,0.0202
2981.00,0.0219
2980.00,0.0239
2979.00,0.0261
2978.00,0.0286
2977.00,0.0315
2976.00,0.0347
2975.00,0.0384
2974.00,0.0427
2973.00,0.0474
2972.00,0.0528
2971.00,0.0588
2970.00,0.0654
2969.00,0.0727
2968.00,0.0805
2967.00,0.0887
2966.00,0.0972
2965.00,0.1056
2964.00,0.1138
2963.00,0.1212
2962.00,0.1277
2961.00,0.1332
2960.00,0.1379
2959.00,0.1421
2958.00,0.1465
2957.00,0.1516
2956.00,0.1578
2955.00,0.1655
2954.00,0.1743
2953.00,0.1839
2952.00,0.1930
2951.00,0.2005
2950.00,0.2050
2949.00,0.2054
2948.00,0.2010
2947.00,0.1920
2946.00,0.1794
2945.00,0.1648
2944.00,0.1501
2943.00,0.1368
2942.00,0.1258
2941.00,0.1178
2940.00,0.1125
2939.00,0.1100
2938.00,0.1098
2937.00,0.1118
2936.00,0.1157
2935.00,0.1214
2934.00,0.1286
2933.00,0.1372
2932.00,0.1472
2931.00,0.1582
2930.00,0.1700
2929.00,0.1821
2928.00,0.1943
2927.00,0.2063
2926.00,0.2179
2925.00,0.2290
2924.00,0.2398
2923.00,0.2505
2922.00,0.2611
2921.00,0.2714
2920.00,0.2808
2919.00,0.2883
2918.00,0.2927
2917.00,0.2932
2916.00,0.2895
2915.00,0.2819
2914.00,0.2716
2913.00,0.2597
2912.00,0.2475
2911.00,0.2357
2910.00,0.2248
2909.00,0.2148
2908.00,0.2055
2907.00,0.1967
2906.00,0.1882
2905.00,0.1799
2904.00,0.1717
2903.00,0.1637
2902.00,0.1560
2901.00,0.1486
2900.00,0.1415
2899.00,0.1349
2898.00,0.1288
2897.00,0.1234
2896.00,0.1187
2895.00,0.1147
2894.00,0.1115
2893.00,0.1091
2892.00,0.1074
2891.00,0.1064
2890.00,0.1061
2889.00,0.1062
2888.00,0.1068
2887.00,0.1078
2886.00,0.1091
2885.00,0.1108
2884.00,0.1130
2883.00,0.1158
2882.00,0.1191
2881.00,0.1228
2880.00,0.1265
2879.00,0.1297
2878.00,0.1320
2877.00,0.1330
2876.00,0.1328
2875.00,0.1320
2874.00,0.1310
2873.00,0.1306
2872.00,0.1310
2871.00,0.1324
2870.00,0.1346
2869.00,0.1370
2868.00,0.1387
2867.00,0.1388
2866.00,0.1362
2865.00,0.1306
2864.00,0.1222
2863.00,0.1118
2862.00,0.1008
2861.00,0.0903
2860.00,0.0812
2859.00,0.0737
2858.00,0.0679
2857.00,0.0637
2856.00,0.0608
2855.00,0.0589
2854.00,0.0578
2853.00,0.0576
2852.00,0.0581
2851.00,0.0594
2850.00,0.0615
2849.00,0.0644
2848.00,0.0681
2847.00,0.0726
2846.00,0.0781
2845.00,0.0845
2844.00,0.0917
2843.00,0.0994
2842.00,0.1073
2841.00,0.1149
2840.00,0.1212
2839.00,0.1254
2838.00,0.1266
2837.00,0.1242
2836.00,0.1182
2835.00,0.1092
2834.00,0.0983
2833.00,0.0867
2832.00,0.0756
2831.00,0.0656
2830.00,0.0572
2829.00,0.0504
2828.00,0.0448
2827.00,0.0404
2826.00,0.0368
2825.00,0.0338
2824.00,0.0314
2823.00,0.0293
2822.00,0.0276
2821.00,0.0261
2820.00,0.0248
2819.00,0.0236
2818.00,0.0227
2817.00,0.0218
2816.00,0.0210
2815.00,0.0203
2814.00,0.0197
2813.00,0.0191
2812.00,0.0186
2811.00,0.0180
2810.00,0.0175
2809.00,0.0169
2808.00,0.0163
2807.00,0.0156
2806.00,0.0149
2805.00,0.0142
2804.00,0.0135
2803.00,0.0129
2802.00,0.0123
2801.00,0.0118
2800.00,0.0114
2799.00,0.0111
2798.00,0.0108
2797.00,0.0106
2796.00,0.0104
2795.00,0.0102
2794.00,0.0099
2793.00,0.0096
2792.00,0.0093
2791.00,0.0090
2790.00,0.0087
2789.00,0.0084
2788.00,0.0081
2787.00,0.0078
2786.00,0.0075
2785.00,0.0073
2784.00,0.0071
2783.00,0.0069
2782.00,0.0066
2781.00,0.0064
2780.00,0.0062
2779.00,0.0061
2778.00,0.0060
2777.00,0.0058
2776.00,0.0057
2775.00,0.0056
2774.00,0.0056
2773.00,0.0055
2772.00,0.0054
2771.00,0.0054
2770.00,0.0053
2769.00,0.0053
2768.00,0.0052
2767.00,0.0052
2766.00,0.0052
2765.00,0.0051
2764.00,0.0051
2763.00,0.0051
2762.00,0.0051
2761.00,0.0051
2760.00,0.0050
2759.00,0.0050
2758.00,0.0049
2757.00,0.0049
2756.00,0.0049
2755.00,0.0049
2754.00,0.0049
2753.00,0.0049
2752.00,0.0049
2751.00,0.0049
2750.00,0.0049
2749.00,0.0049
2748.00,0.0049
2747.00,0.0050
2746.00,0.0050
2745.00,0.0051
2744.00,0.0051
2743.00,0.0052
2742.00,0.0053
2741.00,0.0055
2740.00,0.0056
2739.00,0.0058
2738.00,0.0059
2737.00,0.0061
2736.00,0.0062
2735.00,0.0064
2734.00,0.0066
2733.00,0.0068
2732.00,0.0070
2731.00,0.0072
2730.00,0.0075
2729.00,0.0077
2728.00,0.0080
2727.00,0.0083
2726.00,0.0086
2725.00,0.0089
2724.00,0.0091
2723.00,0.0091
2722.00,0.0091
2721.00,0.0088
2720.00,0.0085
2719.00,0.0081
2718.00,0.0078
2717.00,0.0074
2716.00,0.0071
2715.00,0.0068
2714.00,0.0065
2713.00,0.0063
2712.00,0.0060
2711.00,0.0058
2710.00,0.0056
2709.00,0.0055
2708.00,0.0053
2707.00,0.0052
2706.00,0.0050
2705.00,0.0049
2704.00,0.0048
2703.00,0.0047
2702.00,0.0046
2701.00,0.0045
2700.00,0.0045
2699.00,0.0044
2698.00,0.0043
2697.00,0.0043
2696.00,0.0043
2695.00,0.0042
2694.00,0.0042
2693.00,0.0042
2692.00,0.0042
2691.00,0.0042
2690.00,0.0042
2689.00,0.0042
2688.00,0.0042
2687.00,0.0042
2686.00,0.0042
2685.00,0.0042
2684.00,0.0042
2683.00,0.0043
2682.00,0.0043
2681.00,0.0043
2680.00,0.0043
2679.00,0.0043
2678.00,0.0043
2677.00,0.0043
2676.00,0.0043
2675.00,0.0043
2674.00,0.0043
2673.00,0.0043
2672.00,0.0042
2671.00,0.0042
2670.00,0.0042
2669.00,0.0042
2668.00,0.0042
2667.00,0.0042
2666.00,0.0043
2665.00,0.0044
2664.00,0.0044
2663.00,0.0045
2662.00,0.0046
2661.00,0.0046
2660.00,0.0046
2659.00,0.0046
2658.00,0.0046
2657.00,0.0046
2656.00,0.0046
2655.00,0.0045
2654.00,0.0045
2653.00,0.0044
2652.00,0.0044
2651.00,0.0043
2650.00,0.0043
2649.00,0.0042
2648.00,0.0041
2647.00,0.0041
2646.00,0.0041
2645.00,0.0041
2644.00,0.0040
2643.00,0.0040
2642.00,0.0039
2641.00,0.0038
2640.00,0.0038
2639.00,0.0037
2638.00,0.0037
2637.00,0.0036
2636.00,0.0036
2635.00,0.0036
2634.00,0.0036
2633.00,0.0037
2632.00,0.0037
2631.00,0.0037
2630.00,0.0038
2629.00,0.0038
2628.00,0.0038
2627.00,0.0038
2626.00,0.0037
2625.00,0.0038
2624.00,0.0038
2623.00,0.0039
2622.00,0.0039
2621.00,0.0039
2620.00,0.0039
2619.00,0.0039
2618.00,0.0039
2617.00,0.0039
2616.00,0.0038
2615.00,0.0038
2614.00,0.0038
2613.00,0.0038
2612.00,0.0038
2611.00,0.0038
2610.00,0.0037
2609.00,0.0036
2608.00,0.0035
2607.00,0.0034
2606.00,0.0033
2605.00,0.0032
2604.00,0.0031
2603.00,0.0031
2602.00,0.0031
2601.00,0.0031
2600.00,0.0031
2599.00,0.0031
2598.00,0.0030
2597.00,0.0030
2596.00,0.0030
2595.00,0.0031
2594.00,0.0031
2593.00,0.0032
2592.00,0.0032
2591.00,0.0033
2590.00,0.0034
2589.00,0.0035
2588.00,0.0035
2587.00,0.0036
2586.00,0.0037
2585.00,0.0039
2584.00,0.0040
2583.00,0.0040
2582.00,0.0040
2581.00,0.0040
2580.00,0.0039
2579.00,0.0038
2578.00,0.0037
2577.00,0.0036
2576.00,0.0035
2575.00,0.0034
2574.00,0.0033
2573.00,0.0032
2572.00,0.0031
2571.00,0.0030
2570.00,0.0028
2569.00,0.0027
2568.00,0.0026
2567.00,0.0025
2566.00,0.0024
2565.00,0.0023
2564.00,0.0022
2563.00,0.0022
2562.00,0.0022
2561.00,0.0022
2560.00,0.0021
2559.00,0.0021
2558.00,0.0021
2557.00,0.0021
2556.00,0.0021
2555.00,0.0021
2554.00,0.0021
2553.00,0.0021
2552.00,0.0020
2551.00,0.0020
2550.00,0.0020
2549.00,0.0020
2548.00,0.0019
2547.00,0.0019
2546.00,0.0017
2545.00,0.0016
2544.00,0.0015
2543.00,0.0015
2542.00,0.0014
2541.00,0.0014
2540.00,0.0014
2539.00,0.0015
2538.00,0.0015
2537.00,0.0015
2536.00,0.0015
2535.00,0.0015
2534.00,0.0014
2533.00,0.0014
2532.00,0.0014
2531.00,0.0014
2530.00,0.0014
2529.00,0.0014
2528.00,0.0013
2527.00,0.0012
2526.00,0.0012
2525.00,0.0012
2524.00,0.0013
2523.00,0.0013
2522.00,0.0013
2521.00,0.0012
2520.00,0.0011
2519.00,0.0011
2518.00,0.0010
2517.00,0.0011
2516.00,0.0010
2515.00,0.0010
2514.00,0.0009
2513.00,0.0009
2512.00,0.0009
2511.00,0.0009
2510.00,0.0009
2509.00,0.0009
2508.00,0.0010
2507.00,0.0010
2506.00,0.0009
2505.00,0.0009
2504.00,0.0009
2503.00,0.0009
2502.00,0.0009
2501.00,0.0009
2500.00,0.0009
2499.00,0.0010
2498.00,0.0010
2497.00,0.0010
2496.00,0.0010
2495.00,0.0009
2494.00,0.0009
2493.00,0.0009
2492.00,0.0008
2491.00,0.0008
2490.00,0.0008
2489.00,0.0008
2488.00,0.0008
2487.00,0.0008
2486.00,0.0008
2485.00,0.0008
2484.00,0.0008
2483.00,0.0008
2482.00,0.0008
2481.00,0.0008
2480.00,0.0008
2479.00,0.0008
2478.00,0.0008
2477.00,0.0008
2476.00,0.0009
2475.00,0.0009
2474.00,0.0009
2473.00,0.0009
2472.00,0.0008
2471.00,0.0008
2470.00,0.0008
2469.00,0.0008
2468.00,0.0008
2467.00,0.0008
2466.00,0.0008
2465.00,0.0008
2464.00,0.0009
2463.00,0.0009
2462.00,0.0009
2461.00,0.0009
2460.00,0.0009
2459.00,0.0010
2458.00,0.0010
2457.00,0.0010
2456.00,0.0009
2455.00,0.0010
2454.00,0.0010
2453.00,0.0010
2452.00,0.0010
2451.00,0.0009
2450.00,0.0009
2449.00,0.0009
2448.00,0.0010
2447.00,0.0010
2446.00,0.0010
2445.00,0.0010
2444.00,0.0010
2443.00,0.0010
2442.00,0.0010
2441.00,0.0010
2440.00,0.0010
2439.00,0.0009
2438.00,0.0009
2437.00,0.0010
2436.00,0.0011
2435.00,0.0011
2434.00,0.0012
2433.00,0.0012
2432.00,0.0012
2431.00,0.0011
2430.00,0.0011
2429.00,0.0010
2428.00,0.0010
2427.00,0.0010
2426.00,0.0010
2425.00,0.0010
2424.00,0.0010
2423.00,0.0010
2422.00,0.0010
2421.00,0.0010
2420.00,0.0010
2419.00,0.0010
2418.00,0.0009
2417.00,0.0009
2416.00,0.0008
2415.00,0.0008
2414.00,0.0007
2413.00,0.0008
2412.00,0.0008
2411.00,0.0008
2410.00,0.0008
2409.00,0.0008
2408.00,0.0008
2407.00,0.0007
2406.00,0.0007
2405.00,0.0007
2404.00,0.0007
2403.00,0.0007
2402.00,0.0007
2401.00,0.0007
2400.00,0.0007
2399.00,0.0007
2398.00,0.0007
2397.00,0.0007
2396.00,0.0007
2395.00,0.0006
2394.00,0.0006
2393.00,0.0006
2392.00,0.0006
2391.00,0.0006
2390.00,0.0006
2389.00,0.0006
2388.00,0.0005
2387.00,0.0005
2386.00,0.0004
2385.00,0.0004
2384.00,0.0004
2383.00,0.0004
2382.00,0.0003
2381.00,0.0002
2380.00,0.0002
2379.00,0.0001
2378.00,0.0001
2377.00,0.0001
2376.00,0.0002
2375.00,0.0002
2374.00,0.0002
2373.00,0.0001
2372.00,0.0001
2371.00,0.0001
2370.00,0.0002
2369.00,0.0001
2368.00,0.0001
2367.00,0.0001
2366.00,-0.0000
2365.00,-0.0001
2364.00,-0.0001
2363.00,-0.0001
2362.00,-0.0000
2361.00,0.0000
2360.00,0.0001
2359.00,0.0001
2358.00,0.0002
2357.00,0.0002
2356.00,0.0003
2355.00,0.0002
2354.00,0.0002
2353.00,0.0001
2352.00,0.0001
2351.00,0.0002
2350.00,0.0002
2349.00,0.0002
2348.00,0.0002
2347.00,0.0003
2346.00,0.0004
2345.00,0.0004
2344.00,0.0005
2343.00,0.0005
2342.00,0.0004
2341.00,0.0004
2340.00,0.0004
2339.00,0.0004
2338.00,0.0005
2337.00,0.0005
2336.00,0.0005
2335.00,0.0005
2334.00,0.0005
2333.00,0.0004
2332.00,0.0004
2331.00,0.0004
2330.00,0.0004
2329.00,0.0005
2328.00,0.0006
2327.00,0.0009
2326.00,0.0013
2325.00,0.0017
2324.00,0.0018
2323.00,0.0017
2322.00,0.0015
2321.00,0.0013
2320.00,0.0011
2319.00,0.0010
2318.00,0.0009
2317.00,0.0008
2316.00,0.0007
2315.00,0.0006
2314.00,0.0006
2313.00,0.0006
2312.00,0.0006
2311.00,0.0006
2310.00,0.0006
2309.00,0.0006
2308.00,0.0005
2307.00,0.0005
2306.00,0.0005
2305.00,0.0006
2304.00,0.0007
2303.00,0.0007
2302.00,0.0008
2301.00,0.0008
2300.00,0.0008
2299.00,0.0008
2298.00,0.0009
2297.00,0.0009
2296.00,0.0009
2295.00,0.0010
2294.00,0.0010
2293.00,0.0011
2292.00,0.0012
2291.00,0.0014
2290.00,0.0015
2289.00,0.0015
2288.00,0.0016
2287.00,0.0016
2286.00,0.0016
2285.00,0.0016
2284.00,0.0015
2283.00,0.0013
2282.00,0.0012
2281.00,0.0011
2280.00,0.0011
2279.00,0.0012
2278.00,0.0013
2277.00,0.0014
2276.00,0.0015
2275.00,0.0015
2274.00,0.0014
2273.00,0.0013
2272.00,0.0012
2271.00,0.0012
2270.00,0.0011
2269.00,0.0011
2268.00,0.0011
2267.00,0.0010
2266.00,0.0010
2265.00,0.0009
2264.00,0.0008
2263.00,0.0007
2262.00,0.0007
2261.00,0.0008
2260.00,0.0009
2259.00,0.0010
2258.00,0.0011
2257.00,0.0011
2256.00,0.0010
2255.00,0.0009
2254.00,0.0008
2253.00,0.0008
2252.00,0.0008
2251.00,0.0008
2250.00,0.0007
2249.00,0.0007
2248.00,0.0007
2247.00,0.0007
2246.00,0.0006
2245.00,0.0006
2244.00,0.0006
2243.00,0.0006
2242.00,0.0005
2241.00,0.0005
2240.00,0.0006
2239.00,0.0007
2238.00,0.0008
2237.00,0.0008
2236.00,0.0007
2235.00,0.0007
2234.00,0.0006
2233.00,0.0005
2232.00,0.0005
2231.00,0.0004
2230.00,0.0003
2229.00,0.0003
2228.00,0.0003
2227.00,0.0003
2226.00,0.0003
2225.00,0.0003
2224.00,0.0003
2223.00,0.0004
2222.00,0.0005
2221.00,0.0005
2220.00,0.0005
2219.00,0.0004
2218.00,0.0003
2217.00,0.0003
2216.00,0.0004
2215.00,0.0004
2214.00,0.0004
2213.00,0.0003
2212.00,0.0002
2211.00,0.0002
2210.00,0.0002
2209.00,0.0002
2208.00,0.0002
2207.00,0.0002
2206.00,0.0002
2205.00,0.0003
2204.00,0.0004
2203.00,0.0005
2202.00,0.0005
2201.00,0.0004
2200.00,0.0004
2199.00,0.0003
2198.00,0.0003
2197.00,0.0003
2196.00,0.0005
2195.00,0.0008
2194.00,0.0011
2193.00,0.0013
2192.00,0.0014
2191.00,0.0013
2190.00,0.0013
2189.00,0.0012
2188.00,0.0012
2187.00,0.0012
2186.00,0.0013
2185.00,0.0013
2184.00,0.0012
2183.00,0.0010
2182.00,0.0007
2181.00,0.0005
2180.00,0.0004
2179.00,0.0003
2178.00,0.0003
2177.00,0.0003
2176.00,0.0003
2175.00,0.0004
2174.00,0.0005
2173.00,0.0007
2172.00,0.0008
2171.00,0.0008
2170.00,0.0008
2169.00,0.0009
2168.00,0.0009
2167.00,0.0010
2166.00,0.0012
2165.00,0.0014
2164.00,0.0016
2163.00,0.0018
2162.00,0.0017
2161.00,0.0011
2160.00,-0.0002
2159.00,-0.0019
2158.00,-0.0032
2157.00,-0.0038
2156.00,-0.0036
2155.00,-0.0030
2154.00,-0.0025
2153.00,-0.0022
2152.00,-0.0020
2151.00,-0.0019
2150.00,-0.0017
2149.00,-0.0015
2148.00,-0.0014
2147.00,-0.0014
2146.00,-0.0014
2145.00,-0.0015
2144.00,-0.0015
2143.00,-0.0015
2142.00,-0.0015
2141.00,-0.0014
2140.00,-0.0013
2139.00,-0.0012
2138.00,-0.0012
2137.00,-0.0013
2136.00,-0.0013
2135.00,-0.0015
2134.00,-0.0017
2133.00,-0.0019
2132.00,-0.0019
2131.00,-0.0018
2130.00,-0.0016
2129.00,-0.0014
2128.00,-0.0013
2127.00,-0.0012
2126.00,-0.0012
2125.00,-0.0012
2124.00,-0.0011
2123.00,-0.0010
2122.00,-0.0008
2121.00,-0.0007
2120.00,-0.0006
2119.00,-0.0005
2118.00,-0.0005
2117.00,-0.0003
2116.00,-0.0001
2115.00,0.0001
2114.00,0.0002
2113.00,0.0002
2112.00,0.0002
2111.00,0.0002
2110.00,0.0003
2109.00,0.0003
2108.00,0.0003
2107.00,0.0002
2106.00,0.0001
2105.00,0.0000
2104.00,0.0000
2103.00,0.0000
2102.00,0.0000
2101.00,0.0001
2100.00,0.0001
2099.00,0.0001
2098.00,0.0000
2097.00,-0.0001
2096.00,-0.0004
2095.00,-0.0007
2094.00,-0.0008
2093.00,-0.0007
2092.00,-0.0006
2091.00,-0.0004
2090.00,-0.0004
2089.00,-0.0003
2088.00,-0.0002
2087.00,-0.0001
2086.00,0.0000
2085.00,0.0002
2084.00,0.0003
2083.00,0.0004
2082.00,0.0004
2081.00,0.0004
2080.00,0.0004
2079.00,0.0004
2078.00,0.0003
2077.00,0.0003
2076.00,0.0003
2075.00,0.0003
2074.00,0.0003
2073.00,0.0003
2072.00,0.0002
2071.00,0.0002
2070.00,0.0001
2069.00,-0.0000
2068.00,-0.0001
2067.00,-0.0002
2066.00,-0.0002
2065.00,-0.0001
2064.00,0.0000
2063.00,0.0001
2062.00,0.0000
2061.00,-0.0001
2060.00,-0.0003
2059.00,-0.0003
2058.00,-0.0003
2057.00,-0.0001
2056.00,0.0001
2055.00,0.0003
2054.00,0.0004
2053.00,0.0007
2052.00,0.0009
2051.00,0.0010
2050.00,0.0009
2049.00,0.0007
2048.00,0.0005
2047.00,0.0003
2046.00,0.0001
2045.00,-0.0001
2044.00,-0.0003
2043.00,-0.0006
2042.00,-0.0008
2041.00,-0.0008
2040.00,-0.0007
2039.00,-0.0005
2038.00,-0.0004
2037.00,-0.0002
2036.00,-0.0001
2035.00,-0.0001
2034.00,-0.0002
2033.00,-0.0004
2032.00,-0.0007
2031.00,-0.0012
2030.00,-0.0016
2029.00,-0.0017
2028.00,-0.0014
2027.00,-0.0010
2026.00,-0.0008
2025.00,-0.0007
2024.00,-0.0007
2023.00,-0.0007
2022.00,-0.0007
2021.00,-0.0007
2020.00,-0.0008
2019.00,-0.0011
2018.00,-0.0013
2017.00,-0.0014
2016.00,-0.0014
2015.00,-0.0013
2014.00,-0.0011
2013.00,-0.0010
2012.00,-0.0010
2011.00,-0.0012
2010.00,-0.0013
2009.00,-0.0013
2008.00,-0.0012
2007.00,-0.0014
2006.00,-0.0015
2005.00,-0.0015
2004.00,-0.0014
2003.00,-0.0013
2002.00,-0.0012
2001.00,-0.0011
2000.00,-0.0010
1999.00,-0.0010
1998.00,-0.0011
1997.00,-0.0012
1996.00,-0.0012
1995.00,-0.0012
1994.00,-0.0010
1993.00,-0.0007
1992.00,-0.0003
1991.00,-0.0001
1990.00,-0.0001
1989.00,-0.0001
1988.00,-0.0001
1987.00,-0.0001
1986.00,0.0000
1985.00,0.0003
1984.00,0.0005
1983.00,0.0007
1982.00,0.0008
1981.00,0.0009
1980.00,0.0008
1979.00,0.0003
1978.00,-0.0005
1977.00,-0.0012
1976.00,-0.0015
1975.00,-0.0015
1974.00,-0.0012
1973.00,-0.0010
1972.00,-0.0010
1971.00,-0.0013
1970.00,-0.0017
1969.00,-0.0020
1968.00,-0.0023
1967.00,-0.0023
1966.00,-0.0022
1965.00,-0.0019
1964.00,-0.0016
1963.00,-0.0016
1962.00,-0.0018
1961.00,-0.0019
1960.00,-0.0020
1959.00,-0.0021
1958.00,-0.0021
1957.00,-0.0020
1956.00,-0.0019
1955.00,-0.0018
1954.00,-0.0018
1953.00,-0.0017
1952.00,-0.0016
1951.00,-0.0016
1950.00,-0.0016
1949.00,-0.0016
1948.00,-0.0016
1947.00,-0.0015
1946.00,-0.0016
1945.00,-0.0017
1944.00,-0.0017
1943.00,-0.0018
1942.00,-0.0019
1941.00,-0.0018
1940.00,-0.0018
1939.00,-0.0016
1938.00,-0.0015
1937.00,-0.0013
1936.00,-0.0012
1935.00,-0.0012
1934.00,-0.0013
1933.00,-0.0014
1932.00,-0.0015
1931.00,-0.0014
1930.00,-0.0013
1929.00,-0.0012
1928.00,-0.0011
1927.00,-0.0011
1926.00,-0.0010
1925.00,-0.0010
1924.00,-0.0010
1923.00,-0.0009
1922.00,-0.0007
1921.00,-0.0006
1920.00,-0.0004
1919.00,-0.0004
1918.00,-0.0005
1917.00,-0.0006
1916.00,-0.0007
1915.00,-0.0008
1914.00,-0.0008
1913.00,-0.0007
1912.00,-0.0006
1911.00,-0.0006
1910.00,-0.0005
1909.00,-0.0004
1908.00,-0.0003
1907.00,-0.0003
1906.00,-0.0004
1905.00,-0.0005
1904.00,-0.0005
1903.00,-0.0006
1902.00,-0.0006
1901.00,-0.0005
1900.00,-0.0004
1899.00,-0.0004
1898.00,-0.0004
1897.00,-0.0004
1896.00,-0.0004
1895.00,-0.0005
1894.00,-0.0005
1893.00,-0.0005
1892.00,-0.0004
1891.00,-0.0003
1890.00,-0.0003
1889.00,-0.0002
1888.00,-0.0002
1887.00,-0.0002
1886.00,-0.0002
1885.00,-0.0002
1884.00,-0.0003
1883.00,-0.0004
1882.00,-0.0004
1881.00,-0.0005
1880.00,-0.0005
1879.00,-0.0004
1878.00,-0.0004
1877.00,-0.0004
1876.00,-0.0003
1875.00,-0.0002
1874.00,-0.0002
1873.00,-0.0002
1872.00,-0.0003
1871.00,-0.0004
1870.00,-0.0004
1869.00,-0.0003
1868.00,-0.0003
1867.00,-0.0002
1866.00,-0.0002
1865.00,-0.0001
1864.00,-0.0001
1863.00,-0.0001
1862.00,-0.0002
1861.00,-0.0003
1860.00,-0.0004
1859.00,-0.0004
1858.00,-0.0003
1857.00,-0.0001
1856.00,-0.0001
1855.00,-0.0000
1854.00,-0.0001
1853.00,-0.0002
1852.00,-0.0002
1851.00,-0.0002
1850.00,-0.0002
1849.00,-0.0002
1848.00,-0.0002
1847.00,-0.0002
1846.00,-0.0002
1845.00,-0.0002
1844.00,-0.0001
1843.00,-0.0001
1842.00,-0.0001
1841.00,-0.0001
1840.00,-0.0002
1839.00,-0.0002
1838.00,-0.0002
1837.00,-0.0002
1836.00,-0.0001
1835.00,-0.0001
1834.00,-0.0000
1833.00,0.0001
1832.00,0.0001
1831.00,0.0001
1830.00,0.0001
1829.00,0.0001
1828.00,0.0001
1827.00,0.0001
1826.00,0.0002
1825.00,0.0002
1824.00,0.0002
1823.00,0.0001
1822.00,0.0000
1821.00,-0.0000
1820.00,-0.0001
1819.00,-0.0002
1818.00,-0.0003
1817.00,-0.0003
1816.00,-0.0003
1815.00,-0.0002
1814.00,-0.0001
1813.00,-0.0001
1812.00,-0.0001
1811.00,-0.0001
1810.00,0.0000
1809.00,0.0001
1808.00,0.0001
1807.00,0.0002
1806.00,0.0001
1805.00,0.0001
1804.00,0.0002
1803.00,0.0002
1802.00,0.0002
1801.00,0.0002
1800.00,0.0002
1799.00,0.0002
1798.00,0.0003
1797.00,0.0003
1796.00,0.0003
1795.00,0.0003
1794.00,0.0003
1793.00,0.0003
1792.00,0.0004
1791.00,0.0004
1790.00,0.0005
1789.00,0.0005
1788.00,0.0005
1787.00,0.0006
1786.00,0.0006
1785.00,0.0006
1784.00,0.0006
1783.00,0.0005
1782.00,0.0005
1781.00,0.0005
1780.00,0.0005
1779.00,0.0005
1778.00,0.0005
1777.00,0.0005
1776.00,0.0005
1775.00,0.0006
1774.00,0.0006
1773.00,0.0006
1772.00,0.0006
1771.00,0.0006
1770.00,0.0006
1769.00,0.0007
1768.00,0.0007
1767.00,0.0008
1766.00,0.0008
1765.00,0.0008
1764.00,0.0008
1763.00,0.0009
1762.00,0.0010
1761.00,0.0010
1760.00,0.0010
1759.00,0.0010
1758.00,0.0010
1757.00,0.0010
1756.00,0.0011
1755.00,0.0011
1754.00,0.0011
1753.00,0.0011
1752.00,0.0012
1751.00,0.0012
1750.00,0.0012
1749.00,0.0013
1748.00,0.0013
1747.00,0.0013
1746.00,0.0013
1745.00,0.0013
1744.00,0.0014
1743.00,0.0014
1742.00,0.0015
1741.00,0.0016
1740.00,0.0017
1739.00,0.0018
1738.00,0.0018
1737.00,0.0017
1736.00,0.0017
1735.00,0.0016
1734.00,0.0016
1733.00,0.0016
1732.00,0.0016
1731.00,0.0016
1730.00,0.0016
1729.00,0.0017
1728.00,0.0017
1727.00,0.0018
1726.00,0.0018
1725.00,0.0018
1724.00,0.0018
1723.00,0.0018
1722.00,0.0018
1721.00,0.0018
1720.00,0.0018
1719.00,0.0017
1718.00,0.0017
1717.00,0.0018
1716.00,0.0018
1715.00,0.0018
1714.00,0.0018
1713.00,0.0018
1712.00,0.0019
1711.00,0.0019
1710.00,0.0020
1709.00,0.0020
1708.00,0.0020
1707.00,0.0020
1706.00,0.0020
1705.00,0.0020
1704.00,0.0020
1703.00,0.0020
1702.00,0.0020
1701.00,0.0020
1700.00,0.0021
1699.00,0.0022
1698.00,0.0022
1697.00,0.0022
1696.00,0.0022
1695.00,0.0023
1694.00,0.0023
1693.00,0.0023
1692.00,0.0023
1691.00,0.0024
1690.00,0.0024
1689.00,0.0024
1688.00,0.0024
1687.00,0.0024
1686.00,0.0024
1685.00,0.0025
1684.00,0.0025
1683.00,0.0025
1682.00,0.0025
1681.00,0.0026
1680.00,0.0027
1679.00,0.0028
1678.00,0.0028
1677.00,0.0029
1676.00,0.0029
1675.00,0.0029
1674.00,0.0029
1673.00,0.0030
1672.00,0.0030
1671.00,0.0031
1670.00,0.0032
1669.00,0.0032
1668.00,0.0032
1667.00,0.0032
1666.00,0.0032
1665.00,0.0032
1664.00,0.0033
1663.00,0.0033
1662.00,0.0033
1661.00,0.0033
1660.00,0.0033
1659.00,0.0034
1658.00,0.0034
1657.00,0.0034
1656.00,0.0035
1655.00,0.0036
1654.00,0.0036
1653.00,0.0037
1652.00,0.0038
1651.00,0.0039
1650.00,0.0039
1649.00,0.0040
1648.00,0.0041
1647.00,0.0041
1646.00,0.0042
1645.00,0.0042
1644.00,0.0042
1643.00,0.0042
1642.00,0.0042
1641.00,0.0041
1640.00,0.0041
1639.00,0.0042
1638.00,0.0042
1637.00,0.0042
1636.00,0.0042
1635.00,0.0041
1634.00,0.0041
1633.00,0.0041
1632.00,0.0041
1631.00,0.0041
1630.00,0.0041
1629.00,0.0041
1628.00,0.0041
1627.00,0.0041
1626.00,0.0041
1625.00,0.0041
1624.00,0.0040
1623.00,0.0039
1622.00,0.0039
1621.00,0.0038
1620.00,0.0038
1619.00,0.0038
1618.00,0.0038
1617.00,0.0038
1616.00,0.0037
1615.00,0.0037
1614.00,0.0037
1613.00,0.0037
1612.00,0.0037
1611.00,0.0037
1610.00,0.0037
1609.00,0.0037
1608.00,0.0037
1607.00,0.0037
1606.00,0.0037
1605.00,0.0036
1604.00,0.0036
1603.00,0.0035
1602.00,0.0035
1601.00,0.0035
1600.00,0.0035
1599.00,0.0034
1598.00,0.0034
1597.00,0.0034
1596.00,0.0034
1595.00,0.0034
1594.00,0.0034
1593.00,0.0034
1592.00,0.0034
1591.00,0.0034
1590.00,0.0034
1589.00,0.0034
1588.00,0.0034
1587.00,0.0034
1586.00,0.0034
1585.00,0.0035
1584.00,0.0036
1583.00,0.0036
1582.00,0.0035
1581.00,0.0035
1580.00,0.0036
1579.00,0.0036
1578.00,0.0036
1577.00,0.0037
1576.00,0.0037
1575.00,0.0037
1574.00,0.0037
1573.00,0.0037
1572.00,0.0037
1571.00,0.0036
1570.00,0.0036
1569.00,0.0036
1568.00,0.0037
1567.00,0.0037
1566.00,0.0037
1565.00,0.0038
1564.00,0.0038
1563.00,0.0039
1562.00,0.0039
1561.00,0.0040
1560.00,0.0040
1559.00,0.0039
1558.00,0.0038
1557.00,0.0038
1556.00,0.0038
1555.00,0.0039
1554.00,0.0039
1553.00,0.0040
1552.00,0.0041
1551.00,0.0041
1550.00,0.0042
1549.00,0.0043
1548.00,0.0043
1547.00,0.0044
1546.00,0.0044
1545.00,0.0045
1544.00,0.0045
1543.00,0.0045
1542.00,0.0046
1541.00,0.0045
1540.00,0.0045
1539.00,0.0044
1538.00,0.0044
1537.00,0.0045
1536.00,0.0045
1535.00,0.0045
1534.00,0.0044
1533.00,0.0044
1532.00,0.0044
1531.00,0.0043
1530.00,0.0043
1529.00,0.0043
1528.00,0.0043
1527.00,0.0043
1526.00,0.0043
1525.00,0.0043
1524.00,0.0043
1523.00,0.0042
1522.00,0.0041
1521.00,0.0041
1520.00,0.0042
1519.00,0.0042
1518.00,0.0042
1517.00,0.0043
1516.00,0.0045
1515.00,0.0046
1514.00,0.0046
1513.00,0.0047
1512.00,0.0048
1511.00,0.0049
1510.00,0.0049
1509.00,0.0051
1508.00,0.0052
1507.00,0.0053
1506.00,0.0053
1505.00,0.0055
1504.00,0.0056
1503.00,0.0057
1502.00,0.0058
1501.00,0.0060
1500.00,0.0063
1499.00,0.0066
1498.00,0.0068
1497.00,0.0072
1496.00,0.0076
1495.00,0.0080
1494.00,0.0083
1493.00,0.0086
1492.00,0.0090
1491.00,0.0093
1490.00,0.0095
1489.00,0.0099
1488.00,0.0103
1487.00,0.0108
1486.00,0.0112
1485.00,0.0118
1484.00,0.0124
1483.00,0.0131
1482.00,0.0139
1481.00,0.0150
1480.00,0.0162
1479.00,0.0173
1478.00,0.0187
1477.00,0.0206
1476.00,0.0228
1475.00,0.0254
1474.00,0.0290
1473.00,0.0344
1472.00,0.0412
1471.00,0.0479
1470.00,0.0545
1469.00,0.0614
1468.00,0.0689
1467.00,0.0772
1466.00,0.0868
1465.00,0.0973
1464.00,0.1068
1463.00,0.1135
1462.00,0.1180
1461.00,0.1213
1460.00,0.1236
1459.00,0.1251
1458.00,0.1263
1457.00,0.1271
1456.00,0.1270
1455.00,0.1261
1454.00,0.1249
1453.00,0.1231
1452.00,0.1202
1451.00,0.1160
1450.00,0.1101
1449.00,0.1021
1448.00,0.0920
1447.00,0.0816
1446.00,0.0723
1445.00,0.0646
1444.00,0.0581
1443.00,0.0528
1442.00,0.0490
1441.00,0.0465
1440.00,0.0452
1439.00,0.0448
1438.00,0.0453
1437.00,0.0457
1436.00,0.0449
1435.00,0.0421
1434.00,0.0380
1433.00,0.0331
1432.00,0.0280
1431.00,0.0235
1430.00,0.0201
1429.00,0.0176
1428.00,0.0160
1427.00,0.0150
1426.00,0.0144
1425.00,0.0138
1424.00,0.0132
1423.00,0.0128
1422.00,0.0126
1421.00,0.0124
1420.00,0.0120
1419.00,0.0118
1418.00,0.0117
1417.00,0.0115
1416.00,0.0113
1415.00,0.0112
1414.00,0.0112
1413.00,0.0110
1412.00,0.0109
1411.00,0.0108
1410.00,0.0108
1409.00,0.0107
1408.00,0.0107
1407.00,0.0107
1406.00,0.0108
1405.00,0.0107
1404.00,0.0107
1403.00,0.0108
1402.00,0.0110
1401.00,0.0111
1400.00,0.0112
1399.00,0.0114
1398.00,0.0117
1397.00,0.0120
1396.00,0.0122
1395.00,0.0126
1394.00,0.0132
1393.00,0.0138
1392.00,0.0145
1391.00,0.0154
1390.00,0.0167
1389.00,0.0185
1388.00,0.0212
1387.00,0.0252
1386.00,0.0307
1385.00,0.0374
1384.00,0.0462
1383.00,0.0580
1382.00,0.0738
1381.00,0.0942
1380.00,0.1202
1379.00,0.1509
1378.00,0.1822
1377.00,0.2074
1376.00,0.2190
1375.00,0.2115
1374.00,0.1866
1373.00,0.1543
1372.00,0.1239
1371.00,0.0984
1370.00,0.0779
1369.00,0.0624
1368.00,0.0518
1367.00,0.0453
1366.00,0.0419
1365.00,0.0405
1364.00,0.0408
1363.00,0.0425
1362.00,0.0451
1361.00,0.0479
1360.00,0.0500
1359.00,0.0506
1358.00,0.0493
1357.00,0.0461
1356.00,0.0416
1355.00,0.0365
1354.00,0.0317
1353.00,0.0276
1352.00,0.0244
1351.00,0.0218
1350.00,0.0197
1349.00,0.0181
1348.00,0.0167
1347.00,0.0156
1346.00,0.0148
1345.00,0.0141
1344.00,0.0135
1343.00,0.0131
1342.00,0.0127
1341.00,0.0124
1340.00,0.0121
1339.00,0.0118
1338.00,0.0116
1337.00,0.0116
1336.00,0.0118
1335.00,0.0120
1334.00,0.0125
1333.00,0.0130
1332.00,0.0135
1331.00,0.0139
1330.00,0.0141
1329.00,0.0139
1328.00,0.0134
1327.00,0.0127
1326.00,0.0120
1325.00,0.0112
1324.00,0.0105
1323.00,0.0099
1322.00,0.0094
1321.00,0.0091
1320.00,0.0088
1319.00,0.0085
1318.00,0.0083
1317.00,0.0081
1316.00,0.0080
1315.00,0.0079
1314.00,0.0078
1313.00,0.0078
1312.00,0.0079
1311.00,0.0081
1310.00,0.0084
1309.00,0.0090
1308.00,0.0098
1307.00,0.0107
1306.00,0.0116
1305.00,0.0122
1304.00,0.0125
1303.00,0.0124
1302.00,0.0122
1301.00,0.0121
1300.00,0.0121
1299.00,0.0123
1298.00,0.0125
1297.00,0.0127
1296.00,0.0127
1295.00,0.0125
1294.00,0.0120
1293.00,0.0114
1292.00,0.0108
1291.00,0.0102
1290.00,0.0097
1289.00,0.0093
1288.00,0.0089
1287.00,0.0086
1286.00,0.0084
1285.00,0.0081
1284.00,0.0080
1283.00,0.0078
1282.00,0.0076
1281.00,0.0075
1280.00,0.0074
1279.00,0.0073
1278.00,0.0072
1277.00,0.0071
1276.00,0.0071
1275.00,0.0070
1274.00,0.0070
1273.00,0.0070
1272.00,0.0070
1271.00,0.0070
1270.00,0.0071
1269.00,0.0071
1268.00,0.0072
1267.00,0.0073
1266.00,0.0074
1265.00,0.0076
1264.00,0.0078
1263.00,0.0080
1262.00,0.0083
1261.00,0.0087
1260.00,0.0092
1259.00,0.0097
1258.00,0.0103
1257.00,0.0108
1256.00,0.0111
1255.00,0.0110
1254.00,0.0106
1253.00,0.0100
1252.00,0.0094
1251.00,0.0089
1250.00,0.0085
1249.00,0.0083
1248.00,0.0081
1247.00,0.0080
1246.00,0.0079
1245.00,0.0079
1244.00,0.0079
1243.00,0.0078
1242.00,0.0076
1241.00,0.0075
1240.00,0.0074
1239.00,0.0073
1238.00,0.0073
1237.00,0.0072
1236.00,0.0072
1235.00,0.0071
1234.00,0.0071
1233.00,0.0071
1232.00,0.0071
1231.00,0.0072
1230.00,0.0072
1229.00,0.0073
1228.00,0.0074
1227.00,0.0076
1226.00,0.0078
1225.00,0.0080
1224.00,0.0084
1223.00,0.0087
1222.00,0.0091
1221.00,0.0094
1220.00,0.0096
1219.00,0.0097
1218.00,0.0097
1217.00,0.0095
1216.00,0.0093
1215.00,0.0090
1214.00,0.0086
1213.00,0.0082
1212.00,0.0079
1211.00,0.0076
1210.00,0.0074
1209.00,0.0072
1208.00,0.0070
1207.00,0.0069
1206.00,0.0067
1205.00,0.0066
1204.00,0.0065
1203.00,0.0065
1202.00,0.0064
1201.00,0.0064
1200.00,0.0063
1199.00,0.0063
1198.00,0.0063
1197.00,0.0063
1196.00,0.0063
1195.00,0.0063
1194.00,0.0063
1193.00,0.0063
1192.00,0.0063
1191.00,0.0064
1190.00,0.0065
1189.00,0.0065
1188.00,0.0065
1187.00,0.0065
1186.00,0.0064
1185.00,0.0064
1184.00,0.0065
1183.00,0.0066
1182.00,0.0068
1181.00,0.0071
1180.00,0.0074
1179.00,0.0078
1178.00,0.0083
1177.00,0.0090
1176.00,0.0100
1175.00,0.0112
1174.00,0.0129
1173.00,0.0150
1172.00,0.0175
1171.00,0.0202
1170.00,0.0227
1169.00,0.0248
1168.00,0.0260
1167.00,0.0264
1166.00,0.0259
1165.00,0.0249
1164.00,0.0237
1163.00,0.0225
1162.00,0.0214
1161.00,0.0205
1160.00,0.0198
1159.00,0.0193
1158.00,0.0189
1157.00,0.0186
1156.00,0.0183
1155.00,0.0181
1154.00,0.0180
1153.00,0.0178
1152.00,0.0175
1151.00,0.0169
1150.00,0.0161
1149.00,0.0152
1148.00,0.0143
1147.00,0.0135
1146.00,0.0127
1145.00,0.0119
1144.00,0.0112
1143.00,0.0105
1142.00,0.0098
1141.00,0.0093
1140.00,0.0088
1139.00,0.0084
1138.00,0.0081
1137.00,0.0078
1136.00,0.0076
1135.00,0.0074
1134.00,0.0072
1133.00,0.0071
1132.00,0.0070
1131.00,0.0069
1130.00,0.0068
1129.00,0.0068
1128.00,0.0069
1127.00,0.0069
1126.00,0.0070
1125.00,0.0071
1124.00,0.0071
1123.00,0.0072
1122.00,0.0072
1121.00,0.0072
1120.00,0.0072
1119.00,0.0072
1118.00,0.0073
1117.00,0.0074
1116.00,0.0075
1115.00,0.0077
1114.00,0.0079
1113.00,0.0080
1112.00,0.0082
1111.00,0.0085
1110.00,0.0088
1109.00,0.0094
1108.00,0.0101
1107.00,0.0110
1106.00,0.0118
1105.00,0.0125
1104.00,0.0131
1103.00,0.0135
1102.00,0.0136
1101.00,0.0134
1100.00,0.0128
1099.00,0.0121
1098.00,0.0113
1097.00,0.0106
1096.00,0.0099
1095.00,0.0094
1094.00,0.0091
1093.00,0.0087
1092.00,0.0084
1091.00,0.0081
1090.00,0.0079
1089.00,0.0077
1088.00,0.0075
1087.00,0.0074
1086.00,0.0073
1085.00,0.0073
1084.00,0.0072
1083.00,0.0071
1082.00,0.0071
1081.00,0.0070
1080.00,0.0070
1079.00,0.0069
1078.00,0.0068
1077.00,0.0067
1076.00,0.0067
1075.00,0.0067
1074.00,0.0067
1073.00,0.0068
1072.00,0.0068
1071.00,0.0069
1070.00,0.0070
1069.00,0.0070
1068.00,0.0069
1067.00,0.0069
1066.00,0.0068
1065.00,0.0068
1064.00,0.0069
1063.00,0.0070
1062.00,0.0071
1061.00,0.0071
1060.00,0.0071
1059.00,0.0070
1058.00,0.0069
1057.00,0.0068
1056.00,0.0068
1055.00,0.0069
1054.00,0.0070
1053.00,0.0071
1052.00,0.0072
1051.00,0.0073
1050.00,0.0075
1049.00,0.0077
1048.00,0.0080
1047.00,0.0083
1046.00,0.0085
1045.00,0.0086
1044.00,0.0086
1043.00,0.0084
1042.00,0.0082
1041.00,0.0080
1040.00,0.0079
1039.00,0.0079
1038.00,0.0081
1037.00,0.0082
1036.00,0.0083
1035.00,0.0083
1034.00,0.0082
1033.00,0.0080
1032.00,0.0079
1031.00,0.0078
1030.00,0.0078
1029.00,0.0078
1028.00,0.0078
1027.00,0.0078
1026.00,0.0079
1025.00,0.0079
1024.00,0.0078
1023.00,0.0078
1022.00,0.0078
1021.00,0.0078
1020.00,0.0080
1019.00,0.0081
1018.00,0.0083
1017.00,0.0084
1016.00,0.0086
1015.00,0.0087
1014.00,0.0089
1013.00,0.0091
1012.00,0.0093
1011.00,0.0096
1010.00,0.0100
1009.00,0.0104
1008.00,0.0108
1007.00,0.0113
1006.00,0.0120
1005.00,0.0129
1004.00,0.0142
1003.00,0.0160
1002.00,0.0182
1001.00,0.0209
1000.00,0.0237
999.00,0.0259
998.00,0.0269
997.00,0.0262
996.00,0.0241
995.00,0.0213
994.00,0.0183
993.00,0.0157
992.00,0.0137
991.00,0.0122
990.00,0.0110
989.00,0.0102
988.00,0.0096
987.00,0.0094
986.00,0.0094
985.00,0.0097
984.00,0.0101
983.00,0.0109
982.00,0.0120
981.00,0.0135
980.00,0.0155
979.00,0.0181
978.00,0.0212
977.00,0.0247
976.00,0.0285
975.00,0.0319
974.00,0.0342
973.00,0.0348
972.00,0.0334
971.00,0.0303
970.00,0.0263
969.00,0.0222
968.00,0.0187
967.00,0.0160
966.00,0.0140
965.00,0.0125
964.00,0.0115
963.00,0.0107
962.00,0.0100
961.00,0.0094
960.00,0.0089
959.00,0.0085
958.00,0.0082
957.00,0.0080
956.00,0.0078
955.00,0.0077
954.00,0.0077
953.00,0.0076
952.00,0.0075
951.00,0.0074
950.00,0.0074
949.00,0.0074
948.00,0.0074
947.00,0.0076
946.00,0.0078
945.00,0.0082
944.00,0.0086
943.00,0.0090
942.00,0.0093
941.00,0.0094
940.00,0.0094
939.00,0.0091
938.00,0.0086
937.00,0.0081
936.00,0.0076
935.00,0.0072
934.00,0.0069
933.00,0.0067
932.00,0.0065
931.00,0.0064
930.00,0.0063
929.00,0.0063
928.00,0.0063
927.00,0.0062
926.00,0.0061
925.00,0.0059
924.00,0.0059
923.00,0.0059
922.00,0.0060
921.00,0.0061
920.00,0.0063
919.00,0.0065
918.00,0.0067
917.00,0.0069
916.00,0.0070
915.00,0.0070
914.00,0.0070
913.00,0.0070
912.00,0.0071
911.00,0.0072
910.00,0.0074
909.00,0.0077
908.00,0.0081
907.00,0.0086
906.00,0.0093
905.00,0.0104
904.00,0.0120
903.00,0.0141
902.00,0.0165
901.00,0.0188
900.00,0.0203
899.00,0.0207
898.00,0.0198
897.00,0.0180
896.00,0.0158
895.00,0.0135
894.00,0.0116
893.00,0.0101
892.00,0.0090
891.00,0.0083
890.00,0.0078
889.00,0.0074
888.00,0.0072
887.00,0.0071
886.00,0.0069
885.00,0.0068
884.00,0.0067
883.00,0.0066
882.00,0.0065
881.00,0.0065
880.00,0.0065
879.00,0.0066
878.00,0.0067
877.00,0.0068
876.00,0.0069
875.00,0.0069
874.00,0.0068
873.00,0.0067
872.00,0.0068
871.00,0.0068
870.00,0.0069
869.00,0.0068
868.00,0.0068
867.00,0.0068
866.00,0.0069
865.00,0.0070
864.00,0.0071
863.00,0.0073
862.00,0.0074
861.00,0.0076
860.00,0.0078
859.00,0.0079
858.00,0.0079
857.00,0.0078
856.00,0.0079
855.00,0.0080
854.00,0.0083
853.00,0.0085
852.00,0.0088
851.00,0.0091
850.00,0.0096
849.00,0.0102
848.00,0.0111
847.00,0.0123
846.00,0.0141
845.00,0.0165
844.00,0.0196
843.00,0.0228
842.00,0.0251
841.00,0.0254
840.00,0.0235
839.00,0.0203
838.00,0.0170
837.00,0.0145
836.00,0.0129
835.00,0.0120
834.00,0.0114
833.00,0.0109
832.00,0.0105
831.00,0.0102
830.00,0.0100
829.00,0.0098
828.00,0.0098
827.00,0.0098
826.00,0.0098
825.00,0.0098
824.00,0.0097
823.00,0.0097
822.00,0.0098
821.00,0.0100
820.00,0.0103
819.00,0.0107
818.00,0.0111
817.00,0.0117
816.00,0.0124
815.00,0.0135
814.00,0.0152
813.00,0.0172
812.00,0.0195
811.00,0.0216
810.00,0.0230
809.00,0.0236
808.00,0.0233
807.00,0.0221
806.00,0.0204
805.00,0.0184
804.00,0.0165
803.00,0.0149
802.00,0.0135
801.00,0.0124
800.00,0.0115
799.00,0.0108
798.00,0.0102
797.00,0.0098
796.00,0.0094
795.00,0.0091
794.00,0.0089
793.00,0.0086
792.00,0.0084
791.00,0.0083
790.00,0.0081
789.00,0.0079
788.00,0.0076
787.00,0.0073
786.00,0.0070
785.00,0.0068
784.00,0.0066
783.00,0.0066
782.00,0.0065
781.00,0.0065
780.00,0.0063
779.00,0.0061
778.00,0.0059
777.00,0.0057
776.00,0.0057
775.00,0.0059
774.00,0.0062
773.00,0.0065
772.00,0.0068
771.00,0.0070
770.00,0.0071
769.00,0.0071
768.00,0.0070
767.00,0.0069
766.00,0.0068
765.00,0.0067
764.00,0.0065
763.00,0.0062
762.00,0.0060
761.00,0.0058
760.00,0.0057
759.00,0.0055
758.00,0.0053
757.00,0.0052
756.00,0.0052
755.00,0.0051
754.00,0.0051
753.00,0.0050
752.00,0.0050
751.00,0.0049
750.00,0.0049
749.00,0.0049
748.00,0.0049
747.00,0.0049
746.00,0.0049
745.00,0.0050
744.00,0.0051
743.00,0.0051
742.00,0.0051
741.00,0.0052
740.00,0.0054
739.00,0.0056
738.00,0.0058
737.00,0.0060
736.00,0.0061
735.00,0.0062
734.00,0.0062
733.00,0.0062
732.00,0.0062
731.00,0.0061
730.00,0.0060
729.00,0.0059
728.00,0.0058
727.00,0.0058
726.00,0.0057
725.00,0.0057
724.00,0.0057
723.00,0.0057
722.00,0.0057
721.00,0.0056
720.00,0.0054
719.00,0.0053
718.00,0.0053
717.00,0.0053
716.00,0.0054
715.00,0.0055
714.00,0.0057
713.00,0.0057
712.00,0.0056
711.00,0.0054
710.00,0.0052
709.00,0.0050
708.00,0.0049
707.00,0.0049
706.00,0.0050
705.00,0.0050
704.00,0.0049
703.00,0.0047
702.00,0.0046
701.00,0.0044
700.00,0.0043
699.00,0.0043
698.00,0.0044
697.00,0.0046
696.00,0.0047
695.00,0.0048
694.00,0.0048
693.00,0.0048
692.00,0.0048
691.00,0.0047
690.00,0.0047
689.00,0.0046
688.00,0.0046
687.00,0.0046
686.00,0.0046
685.00,0.0046
684.00,0.0044
683.00,0.0043
682.00,0.0042
681.00,0.0043
680.00,0.0044
679.00,0.0046
678.00,0.0046
677.00,0.0046
676.00,0.0046
675.00,0.0047
674.00,0.0048
673.00,0.0048
672.00,0.0048
671.00,0.0048
670.00,0.0049
669.00,0.0049
668.00,0.0049
667.00,0.0050
666.00,0.0050
665.00,0.0049
664.00,0.0046
663.00,0.0044
662.00,0.0043
661.00,0.0043
660.00,0.0045
659.00,0.0048
658.00,0.0049
657.00,0.0048
656.00,0.0046
655.00,0.0044
654.00,0.0044
653.00,0.0047
652.00,0.0048
651.00,0.0048
650.00,0.0047
649.00,0.0047
648.00,0.0049
647.00,0.0052
646.00,0.0054
645.00,0.0054
644.00,0.0052
643.00,0.0050
642.00,0.0046
641.00,0.0044
640.00,0.0043
639.00,0.0045
638.00,0.0047
637.00,0.0048
636.00,0.0048
635.00,0.0048
634.00,0.0048
633.00,0.0048
632.00,0.0047
631.00,0.0045
630.00,0.0045
629.00,0.0046
628.00,0.0048
627.00,0.0051
626.00,0.0051
625.00,0.0051
624.00,0.0050
623.00,0.0049
622.00,0.0048
621.00,0.0047
620.00,0.0046
619.00,0.0046
618.00,0.0048
617.00,0.0051
616.00,0.0054
615.00,0.0056
614.00,0.0055
613.00,0.0053
612.00,0.0050
611.00,0.0048
610.00,0.0047
609.00,0.0048
608.00,0.0049
607.00,0.0049
606.00,0.0049
605.00,0.0050
604.00,0.0049
603.00,0.0049
602.00,0.0048
601.00,0.0048
600.00,0.0049
599.00,0.0050
598.00,0.0051
597.00,0.0052
596.00,0.0053
595.00,0.0053
594.00,0.0052
593.00,0.0050
592.00,0.0049
591.00,0.0050
590.00,0.0051
589.00,0.0052
588.00,0.0051
587.00,0.0050
586.00,0.0050
585.00,0.0051
584.00,0.0054
583.00,0.0058
582.00,0.0060
581.00,0.0062
580.00,0.0063
579.00,0.0063
578.00,0.0062
577.00,0.0060
576.00,0.0057
575.00,0.0054
574.00,0.0052
573.00,0.0051
572.00,0.0051
571.00,0.0050
570.00,0.0050
569.00,0.0051
568.00,0.0053
567.00,0.0055
566.00,0.0056
565.00,0.0056
564.00,0.0058
563.00,0.0060
562.00,0.0060
561.00,0.0058
560.00,0.0055
559.00,0.0054
558.00,0.0055
557.00,0.0056
556.00,0.0057
555.00,0.0059
554.00,0.0060
553.00,0.0062
552.00,0.0063
551.00,0.0064
550.00,0.0062
549.00,0.0058
548.00,0.0053
547.00,0.0050
546.00,0.0049
545.00,0.0051
544.00,0.0054
543.00,0.0058
542.00,0.0061
541.00,0.0061
540.00,0.0060
539.00,0.0061
538.00,0.0063
537.00,0.0067
536.00,0.0072
535.00,0.0076
534.00,0.0080
533.00,0.0084
532.00,0.0089
531.00,0.0092
530.00,0.0091
529.00,0.0086
528.00,0.0080
527.00,0.0076
526.00,0.0077
525.00,0.0079
524.00,0.0080
523.00,0.0076
522.00,0.0071
521.00,0.0067
520.00,0.0068
519.00,0.0071
518.00,0.0073
517.00,0.0073
516.00,0.0071
515.00,0.0068
514.00,0.0063
513.00,0.0055
512.00,0.0048
511.00,0.0046
510.00,0.0048
509.00,0.0052
508.00,0.0054
507.00,0.0056
506.00,0.0059
505.00,0.0062
504.00,0.0062
503.00,0.0060
502.00,0.0059
501.00,0.0057
500.00,0.0057
499.00,0.0060
498.00,0.0065
497.00,0.0070
496.00,0.0073
495.00,0.0077
494.00,0.0080
493.00,0.0081
492.00,0.0076
491.00,0.0067
490.00,0.0061
489.00,0.0062
488.00,0.0066
487.00,0.0070
486.00,0.0071
485.00,0.0066
484.00,0.0056
483.00,0.0047
482.00,0.0041
481.00,0.0040
480.00,0.0042
479.00,0.0047
478.00,0.0054
477.00,0.0059
476.00,0.0061
475.00,0.0060
474.00,0.0064
473.00,0.0073
472.00,0.0078
471.00,0.0074
470.00,0.0065
469.00,0.0061
468.00,0.0063
467.00,0.0068
466.00,0.0075
465.00,0.0082
464.00,0.0090
463.00,0.0101
462.00,0.0114
461.00,0.0129
460.00,0.0142
459.00,0.0151
458.00,0.0154
457.00,0.0156
456.00,0.0154
455.00,0.0146
454.00,0.0132
453.00,0.0118
452.00,0.0110
451.00,0.0109
450.00,0.0111
