Created as New Dataset,Sample 089 By Administrator Date Tuesday, September 09 2025
cm-1,A
4000.00,0.0019
3999.00,0.0019
3998.00,0.0019
3997.00,0.0020
3996.00,0.0020
3995.00,0.0020
3994.00,0.0020
3993.00,0.0020
3992.00,0.0019
3991.00,0.0019
3990.00,0.0019
3989.00,0.0019
3988.00,0.0019
3987.00,0.0019
3986.00,0.0019
3985.00,0.0019
3984.00,0.0019
3983.00,0.0019
3982.00,0.0019
3981.00,0.0019
3980.00,0.0019
3979.00,0.0019
3978.00,0.0019
3977.00,0.0019
3976.00,0.0019
3975.00,0.0018
3974.00,0.0018
3973.00,0.0018
3972.00,0.0018
3971.00,0.0018
3970.00,0.0018
3969.00,0.0018
3968.00,0.0018
3967.00,0.0018
3966.00,0.0018
3965.00,0.0018
3964.00,0.0018
3963.00,0.0018
3962.00,0.0017
3961.00,0.0017
3960.00,0.0018
3959.00,0.0018
3958.00,0.0018
3957.00,0.0018
3956.00,0.0018
3955.00,0.0018
3954.00,0.0017
3953.00,0.0017
3952.00,0.0018
3951.00,0.0018
3950.00,0.0018
3949.00,0.0018
3948.00,0.0018
3947.00,0.0018
3946.00,0.0018
3945.00,0.0019
3944.00,0.0019
3943.00,0.0019
3942.00,0.0019
3941.00,0.0019
3940.00,0.0019
3939.00,0.0019
3938.00,0.0018
3937.00,0.0018
3936.00,0.0018
3935.00,0.0018
3934.00,0.0019
3933.00,0.0019
3932.00,0.0019
3931.00,0.0019
3930.00,0.0019
3929.00,0.0019
3928.00,0.0019
3927.00,0.0018
3926.00,0.0018
3925.00,0.0018
3924.00,0.0019
3923.00,0.0019
3922.00,0.0019
3921.00,0.0019
3920.00,0.0019
3919.00,0.0019
3918.00,0.0019
3917.00,0.0019
3916.00,0.0018
3915.00,0.0018
3914.00,0.0018
3913.00,0.0018
3912.00,0.0018
3911.00,0.0018
3910.00,0.0018
3909.00,0.0018
3908.00,0.0018
3907.00,0.0018
3906.00,0.0018
3905.00,0.0018
3904.00,0.0018
3903.00,0.0018
3902.00,0.0018
3901.00,0.0018
3900.00,0.0018
3899.00,0.0018
3898.00,0.0018
3897.00,0.0018
3896.00,0.0018
3895.00,0.0018
3894.00,0.0018
3893.00,0.0018
3892.00,0.0018
3891.00,0.0018
3890.00,0.0018
3889.00,0.0018
3888.00,0.0019
3887.00,0.0019
3886.00,0.0019
3885.00,0.0019
3884.00,0.0019
3883.00,0.0018
3882.00,0.0018
3881.00,0.0018
3880.00,0.0018
3879.00,0.0018
3878.00,0.0018
3877.00,0.0018
3876.00,0.0018
3875.00,0.0018
3874.00,0.0018
3873.00,0.0018
3872.00,0.0018
3871.00,0.0018
3870.00,0.0018
3869.00,0.0018
3868.00,0.0018
3867.00,0.0018
3866.00,0.0017
3865.00,0.0017
3864.00,0.0017
3863.00,0.0017
3862.00,0.0018
3861.00,0.0018
3860.00,0.0018
3859.00,0.0018
3858.00,0.0018
3857.00,0.0018
3856.00,0.0018
3855.00,0.0018
3854.00,0.0018
3853.00,0.0018
3852.00,0.0018
3851.00,0.0018
3850.00,0.0018
3849.00,0.0018
3848.00,0.0018
3847.00,0.0018
3846.00,0.0018
3845.00,0.0018
3844.00,0.0019
3843.00,0.0019
3842.00,0.0018
3841.00,0.0018
3840.00,0.0018
3839.00,0.0018
3838.00,0.0018
3837.00,0.0018
3836.00,0.0018
3835.00,0.0018
3834.00,0.0017
3833.00,0.0017
3832.00,0.0017
3831.00,0.0018
3830.00,0.0018
3829.00,0.0019
3828.00,0.0019
3827.00,0.0019
3826.00,0.0020
3825.00,0.0020
3824.00,0.0020
3823.00,0.0020
3822.00,0.0019
3821.00,0.0019
3820.00,0.0019
3819.00,0.0018
3818.00,0.0018
3817.00,0.0019
3816.00,0.0019
3815.00,0.0019
3814.00,0.0019
3813.00,0.0019
3812.00,0.0019
3811.00,0.0020
3810.00,0.0019
3809.00,0.0019
3808.00,0.0019
3807.00,0.0019
3806.00,0.0019
3805.00,0.0020
3804.00,0.0020
3803.00,0.0019
3802.00,0.0019
3801.00,0.0019
3800.00,0.0019
3799.00,0.0019
3798.00,0.0019
3797.00,0.0019
3796.00,0.0018
3795.00,0.0018
3794.00,0.0018
3793.00,0.0018
3792.00,0.0018
3791.00,0.0017
3790.00,0.0017
3789.00,0.0018
3788.00,0.0018
3787.00,0.0018
3786.00,0.0018
3785.00,0.0018
3784.00,0.0018
3783.00,0.0018
3782.00,0.0018
3781.00,0.0018
3780.00,0.0018
3779.00,0.0018
3778.00,0.0018
3777.00,0.0018
3776.00,0.0019
3775.00,0.0019
3774.00,0.0019
3773.00,0.0019
3772.00,0.0019
3771.00,0.0019
3770.00,0.0020
3769.00,0.0020
3768.00,0.0020
3767.00,0.0019
3766.00,0.0019
3765.00,0.0018
3764.00,0.0018
3763.00,0.0019
3762.00,0.0019
3761.00,0.0020
3760.00,0.0020
3759.00,0.0020
3758.00,0.0019
3757.00,0.0019
3756.00,0.0019
3755.00,0.0019
3754.00,0.0020
3753.00,0.0020
3752.00,0.0020
3751.00,0.0020
3750.00,0.0020
3749.00,0.0019
3748.00,0.0019
3747.00,0.0019
3746.00,0.0018
3745.00,0.0018
3744.00,0.0017
3743.00,0.0018
3742.00,0.0018
3741.00,0.0019
3740.00,0.0019
3739.00,0.0019
3738.00,0.0019
3737.00,0.0018
3736.00,0.0017
3735.00,0.0017
3734.00,0.0016
3733.00,0.0017
3732.00,0.0017
3731.00,0.0017
3730.00,0.0018
3729.00,0.0018
3728.00,0.0018
3727.00,0.0018
3726.00,0.0017
3725.00,0.0017
3724.00,0.0017
3723.00,0.0018
3722.00,0.0018
3721.00,0.0018
3720.00,0.0018
3719.00,0.0018
3718.00,0.0018
3717.00,0.0018
3716.00,0.0018
3715.00,0.0018
3714.00,0.0018
3713.00,0.0019
3712.00,0.0019
3711.00,0.0019
3710.00,0.0019
3709.00,0.0018
3708.00,0.0017
3707.00,0.0017
3706.00,0.0017
3705.00,0.0017
3704.00,0.0017
3703.00,0.0018
3702.00,0.0018
3701.00,0.0018
3700.00,0.0018
3699.00,0.0018
3698.00,0.0018
3697.00,0.0018
3696.00,0.0018
3695.00,0.0018
3694.00,0.0018
3693.00,0.0018
3692.00,0.0018
3691.00,0.0017
3690.00,0.0016
3689.00,0.0016
3688.00,0.0016
3687.00,0.0017
3686.00,0.0017
3685.00,0.0017
3684.00,0.0017
3683.00,0.0018
3682.00,0.0018
3681.00,0.0018
3680.00,0.0018
3679.00,0.0019
3678.00,0.0018
3677.00,0.0018
3676.00,0.0018
3675.00,0.0018
3674.00,0.0018
3673.00,0.0018
3672.00,0.0018
3671.00,0.0018
3670.00,0.0018
3669.00,0.0018
3668.00,0.0018
3667.00,0.0018
3666.00,0.0018
3665.00,0.0018
3664.00,0.0018
3663.00,0.0018
3662.00,0.0018
3661.00,0.0018
3660.00,0.0018
3659.00,0.0018
3658.00,0.0018
3657.00,0.0019
3656.00,0.0018
3655.00,0.0018
3654.00,0.0018
3653.00,0.0018
3652.00,0.0018
3651.00,0.0018
3650.00,0.0019
3649.00,0.0020
3648.00,0.0020
3647.00,0.0020
3646.00,0.0019
3645.00,0.0019
3644.00,0.0019
3643.00,0.0018
3642.00,0.0018
3641.00,0.0018
3640.00,0.0018
3639.00,0.0018
3638.00,0.0019
3637.00,0.0019
3636.00,0.0019
3635.00,0.0020
3634.00,0.0019
3633.00,0.0019
3632.00,0.0019
3631.00,0.0018
3630.00,0.0018
3629.00,0.0019
3628.00,0.0019
3627.00,0.0019
3626.00,0.0019
3625.00,0.0019
3624.00,0.0020
3623.00,0.0020
3622.00,0.0020
3621.00,0.0020
3620.00,0.0020
3619.00,0.0020
3618.00,0.0020
3617.00,0.0020
3616.00,0.0020
3615.00,0.0020
3614.00,0.0020
3613.00,0.0020
3612.00,0.0021
3611.00,0.0021
3610.00,0.0021
3609.00,0.0022
3608.00,0.0022
3607.00,0.0022
3606.00,0.0022
3605.00,0.0021
3604.00,0.0021
3603.00,0.0021
3602.00,0.0021
3601.00,0.0021
3600.00,0.0021
3599.00,0.0022
3598.00,0.0022
3597.00,0.0022
3596.00,0.0022
3595.00,0.0022
3594.00,0.0022
3593.00,0.0022
3592.00,0.0022
3591.00,0.0022
3590.00,0.0022
3589.00,0.0022
3588.00,0.0023
3587.00,0.0023
3586.00,0.0024
3585.00,0.0024
3584.00,0.0024
3583.00,0.0024
3582.00,0.0024
3581.00,0.0024
3580.00,0.0024
3579.00,0.0025
3578.00,0.0025
3577.00,0.0026
3576.00,0.0026
3575.00,0.0026
3574.00,0.0026
3573.00,0.0026
3572.00,0.0026
3571.00,0.0026
3570.00,0.0027
3569.00,0.0027
3568.00,0.0028
3567.00,0.0028
3566.00,0.0028
3565.00,0.0028
3564.00,0.0028
3563.00,0.0028
3562.00,0.0027
3561.00,0.0028
3560.00,0.0028
3559.00,0.0028
3558.00,0.0028
3557.00,0.0029
3556.00,0.0029
3555.00,0.0030
3554.00,0.0030
3553.00,0.0031
3552.00,0.0031
3551.00,0.0031
3550.00,0.0031
3549.00,0.0031
3548.00,0.0031
3547.00,0.0031
3546.00,0.0031
3545.00,0.0031
3544.00,0.0031
3543.00,0.0031
3542.00,0.0031
3541.00,0.0031
3540.00,0.0032
3539.00,0.0032
3538.00,0.0032
3537.00,0.0033
3536.00,0.0033
3535.00,0.0033
3534.00,0.0033
3533.00,0.0034
3532.00,0.0034
3531.00,0.0034
3530.00,0.0035
3529.00,0.0035
3528.00,0.0035
3527.00,0.0035
3526.00,0.0035
3525.00,0.0035
3524.00,0.0035
3523.00,0.0036
3522.00,0.0036
3521.00,0.0035
3520.00,0.0035
3519.00,0.0035
3518.00,0.0036
3517.00,0.0036
3516.00,0.0036
3515.00,0.0036
3514.00,0.0036
3513.00,0.0037
3512.00,0.0037
3511.00,0.0037
3510.00,0.0038
3509.00,0.0038
3508.00,0.0038
3507.00,0.0038
3506.00,0.0039
3505.00,0.0039
3504.00,0.0039
3503.00,0.0039
3502.00,0.0039
3501.00,0.0039
3500.00,0.0039
3499.00,0.0039
3498.00,0.0039
3497.00,0.0039
3496.00,0.0040
3495.00,0.0040
3494.00,0.0041
3493.00,0.0041
3492.00,0.0042
3491.00,0.0042
3490.00,0.0042
3489.00,0.0043
3488.00,0.0043
3487.00,0.0043
3486.00,0.0043
3485.00,0.0042
3484.00,0.0042
3483.00,0.0043
3482.00,0.0043
3481.00,0.0043
3480.00,0.0043
3479.00,0.0043
3478.00,0.0043
3477.00,0.0043
3476.00,0.0044
3475.00,0.0044
3474.00,0.0044
3473.00,0.0044
3472.00,0.0045
3471.00,0.0045
3470.00,0.0045
3469.00,0.0045
3468.00,0.0046
3467.00,0.0046
3466.00,0.0046
3465.00,0.0046
3464.00,0.0046
3463.00,0.0046
3462.00,0.0047
3461.00,0.0047
3460.00,0.0047
3459.00,0.0048
3458.00,0.0048
3457.00,0.0048
3456.00,0.0049
3455.00,0.0049
3454.00,0.0049
3453.00,0.0049
3452.00,0.0049
3451.00,0.0049
3450.00,0.0049
3449.00,0.0050
3448.00,0.0050
3447.00,0.0050
3446.00,0.0051
3445.00,0.0051
3444.00,0.0051
3443.00,0.0051
3442.00,0.0051
3441.00,0.0051
3440.00,0.0051
3439.00,0.0051
3438.00,0.0052
3437.00,0.0052
3436.00,0.0052
3435.00,0.0052
3434.00,0.0052
3433.00,0.0052
3432.00,0.0052
3431.00,0.0052
3430.00,0.0052
3429.00,0.0053
3428.00,0.0053
3427.00,0.0053
3426.00,0.0053
3425.00,0.0054
3424.00,0.0054
3423.00,0.0054
3422.00,0.0054
3421.00,0.0054
3420.00,0.0055
3419.00,0.0055
3418.00,0.0055
3417.00,0.0055
3416.00,0.0055
3415.00,0.0055
3414.00,0.0055
3413.00,0.0055
3412.00,0.0055
3411.00,0.0055
3410.00,0.0055
3409.00,0.0055
3408.00,0.0055
3407.00,0.0056
3406.00,0.0056
3405.00,0.0057
3404.00,0.0057
3403.00,0.0057
3402.00,0.0058
3401.00,0.0058
3400.00,0.0057
3399.00,0.0057
3398.00,0.0057
3397.00,0.0057
3396.00,0.0057
3395.00,0.0057
3394.00,0.0057
3393.00,0.0057
3392.00,0.0058
3391.00,0.0058
3390.00,0.0059
3389.00,0.0059
3388.00,0.0059
3387.00,0.0059
3386.00,0.0059
3385.00,0.0059
3384.00,0.0059
3383.00,0.0059
3382.00,0.0059
3381.00,0.0059
3380.00,0.0059
3379.00,0.0059
3378.00,0.0059
3377.00,0.0059
3376.00,0.0059
3375.00,0.0059
3374.00,0.0059
3373.00,0.0059
3372.00,0.0059
3371.00,0.0059
3370.00,0.0059
3369.00,0.0059
3368.00,0.0059
3367.00,0.0059
3366.00,0.0059
3365.00,0.0060
3364.00,0.0060
3363.00,0.0061
3362.00,0.0061
3361.00,0.0061
3360.00,0.0061
3359.00,0.0061
3358.00,0.0061
3357.00,0.0061
3356.00,0.0061
3355.00,0.0060
3354.00,0.0060
3353.00,0.0060
3352.00,0.0060
3351.00,0.0060
3350.00,0.0060
3349.00,0.0060
3348.00,0.0060
3347.00,0.0061
3346.00,0.0061
3345.00,0.0061
3344.00,0.0061
3343.00,0.0061
3342.00,0.0061
3341.00,0.0061
3340.00,0.0060
3339.00,0.0060
3338.00,0.0060
3337.00,0.0060
3336.00,0.0060
3335.00,0.0060
3334.00,0.0061
3333.00,0.0061
3332.00,0.0061
3331.00,0.0061
3330.00,0.0060
3329.00,0.0060
3328.00,0.0060
3327.00,0.0060
3326.00,0.0060
3325.00,0.0060
3324.00,0.0060
3323.00,0.0059
3322.00,0.0059
3321.00,0.0059
3320.00,0.0058
3319.00,0.0058
3318.00,0.0057
3317.00,0.0057
3316.00,0.0057
3315.00,0.0058
3314.00,0.0058
3313.00,0.0059
3312.00,0.0059
3311.00,0.0059
3310.00,0.0058
3309.00,0.0059
3308.00,0.0059
3307.00,0.0059
3306.00,0.0060
3305.00,0.0060
3304.00,0.0060
3303.00,0.0060
3302.00,0.0060
3301.00,0.0060
3300.00,0.0060
3299.00,0.0059
3298.00,0.0059
3297.00,0.0059
3296.00,0.0058
3295.00,0.0058
3294.00,0.0058
3293.00,0.0058
3292.00,0.0057
3291.00,0.0057
3290.00,0.0057
3289.00,0.0057
3288.00,0.0058
3287.00,0.0058
3286.00,0.0058
3285.00,0.0058
3284.00,0.0057
3283.00,0.0057
3282.00,0.0057
3281.00,0.0057
3280.00,0.0057
3279.00,0.0057
3278.00,0.0057
3277.00,0.0057
3276.00,0.0057
3275.00,0.0057
3274.00,0.0058
3273.00,0.0058
3272.00,0.0057
3271.00,0.0057
3270.00,0.0056
3269.00,0.0056
3268.00,0.0055
3267.00,0.0055
3266.00,0.0056
3265.00,0.0056
3264.00,0.0056
3263.00,0.0056
3262.00,0.0056
3261.00,0.0055
3260.00,0.0055
3259.00,0.0055
3258.00,0.0055
3257.00,0.0054
3256.00,0.0054
3255.00,0.0054
3254.00,0.0054
3253.00,0.0055
3252.00,0.0054
3251.00,0.0054
3250.00,0.0054
3249.00,0.0054
3248.00,0.0054
3247.00,0.0053
3246.00,0.0054
3245.00,0.0054
3244.00,0.0053
3243.00,0.0053
3242.00,0.0053
3241.00,0.0052
3240.00,0.0052
3239.00,0.0053
3238.00,0.0053
3237.00,0.0053
3236.00,0.0053
3235.00,0.0053
3234.00,0.0053
3233.00,0.0053
3232.00,0.0053
3231.00,0.0053
3230.00,0.0053
3229.00,0.0053
3228.00,0.0054
3227.00,0.0054
3226.00,0.0054
3225.00,0.0054
3224.00,0.0054
3223.00,0.0054
3222.00,0.0054
3221.00,0.0054
3220.00,0.0055
3219.00,0.0054
3218.00,0.0054
3217.00,0.0055
3216.00,0.0055
3215.00,0.0055
3214.00,0.0055
3213.00,0.0055
3212.00,0.0055
3211.00,0.0055
3210.00,0.0056
3209.00,0.0056
3208.00,0.0056
3207.00,0.0057
3206.00,0.0056
3205.00,0.0056
3204.00,0.0056
3203.00,0.0056
3202.00,0.0057
3201.00,0.0056
3200.00,0.0056
3199.00,0.0056
3198.00,0.0056
3197.00,0.0056
3196.00,0.0056
3195.00,0.0056
3194.00,0.0057
3193.00,0.0057
3192.00,0.0057
3191.00,0.0057
3190.00,0.0056
3189.00,0.0056
3188.00,0.0056
3187.00,0.0055
3186.00,0.0055
3185.00,0.0054
3184.00,0.0054
3183.00,0.0054
3182.00,0.0054
3181.00,0.0053
3180.00,0.0053
3179.00,0.0053
3178.00,0.0054
3177.00,0.0054
3176.00,0.0053
3175.00,0.0053
3174.00,0.0053
3173.00,0.0053
3172.00,0.0053
3171.00,0.0053
3170.00,0.0052
3169.00,0.0052
3168.00,0.0052
3167.00,0.0052
3166.00,0.0052
3165.00,0.0052
3164.00,0.0052
3163.00,0.0052
3162.00,0.0052
3161.00,0.0052
3160.00,0.0052
3159.00,0.0051
3158.00,0.0051
3157.00,0.0051
3156.00,0.0050
3155.00,0.0050
3154.00,0.0050
3153.00,0.0050
3152.00,0.0050
3151.00,0.0050
3150.00,0.0050
3149.00,0.0050
3148.00,0.0049
3147.00,0.0049
3146.00,0.0049
3145.00,0.0049
3144.00,0.0049
3143.00,0.0048
3142.00,0.0048
3141.00,0.0048
3140.00,0.0048
3139.00,0.0048
3138.00,0.0047
3137.00,0.0047
3136.00,0.0047
3135.00,0.0047
3134.00,0.0047
3133.00,0.0047
3132.00,0.0046
3131.00,0.0046
3130.00,0.0046
3129.00,0.0046
3128.00,0.0045
3127.00,0.0045
3126.00,0.0045
3125.00,0.0045
3124.00,0.0045
3123.00,0.0045
3122.00,0.0044
3121.00,0.0044
3120.00,0.0044
3119.00,0.0044
3118.00,0.0044
3117.00,0.0044
3116.00,0.0044
3115.00,0.0044
3114.00,0.0044
3113.00,0.0044
3112.00,0.0043
3111.00,0.0043
3110.00,0.0043
3109.00,0.0043
3108.00,0.0043
3107.00,0.0043
3106.00,0.0043
3105.00,0.0043
3104.00,0.0042
3103.00,0.0042
3102.00,0.0042
3101.00,0.0042
3100.00,0.0041
3099.00,0.0041
3098.00,0.0041
3097.00,0.0041
3096.00,0.0041
3095.00,0.0041
3094.00,0.0041
3093.00,0.0040
3092.00,0.0040
3091.00,0.0040
3090.00,0.0040
3089.00,0.0040
3088.00,0.0040
3087.00,0.0040
3086.00,0.0040
3085.00,0.0040
3084.00,0.0040
3083.00,0.0040
3082.00,0.0040
3081.00,0.0040
3080.00,0.0039
3079.00,0.0039
3078.00,0.0039
3077.00,0.0040
3076.00,0.0040
3075.00,0.0040
3074.00,0.0040
3073.00,0.0040
3072.00,0.0040
3071.00,0.0040
3070.00,0.0040
3069.00,0.0040
3068.00,0.0040
3067.00,0.0041
3066.00,0.0041
3065.00,0.0041
3064.00,0.0040
3063.00,0.0040
3062.00,0.0040
3061.00,0.0040
3060.00,0.0041
3059.00,0.0041
3058.00,0.0041
3057.00,0.0041
3056.00,0.0041
3055.00,0.0041
3054.00,0.0041
3053.00,0.0041
3052.00,0.0042
3051.00,0.0042
3050.00,0.0042
3049.00,0.0042
3048.00,0.0042
3047.00,0.0042
3046.00,0.0042
3045.00,0.0042
3044.00,0.0042
3043.00,0.0043
3042.00,0.0043
3041.00,0.0043
3040.00,0.0043
3039.00,0.0043
3038.00,0.0043
3037.00,0.0044
3036.00,0.0044
3035.00,0.0044
3034.00,0.0044
3033.00,0.0044
3032.00,0.0044
3031.00,0.0045
3030.00,0.0045
3029.00,0.0046
3028.00,0.0047
3027.00,0.0047
3026.00,0.0048
3025.00,0.0048
3024.00,0.0049
3023.00,0.0049
3022.00,0.0050
3021.00,0.0050
3020.00,0.0051
3019.00,0.0051
3018.00,0.0052
3017.00,0.0052
3016.00,0.0052
3015.00,0.0053
3014.00,0.0054
3013.00,0.0055
3012.00,0.0056
3011.00,0.0057
3010.00,0.0059
3009.00,0.0060
3008.00,0.0061
3007.00,0.0062
3006.00,0.0064
3005.00,0.0066
3004.00,0.0068
3003.00,0.0069
3002.00,0.0071
3001.00,0.0073
3000.00,0.0076
2999.00,0.0078
2998.00,0.0081
2997.00,0.0084
2996.00,0.0087
2995.00,0.0091
2994.00,0.0095
2993.00,0.0099
2992.00,0.0104
2991.00,0.0109
2990.00,0.0115
2989.00,0.0121
2988.00,0.0128
2987.00,0.0137
2986.00,0.0146
2985.00,0.0156
2984.00,0.0167
2983.00,0.0179
2982.00,0.0193
2981.00,0.0209
2980.00,0.0227
2979.00,0.0248
2978.00,0.0271
2977.00,0.0297
2976.00,0.0327
2975.00,0.0361
2974.00,0.0398
2973.00,0.0440
2972.00,0.0487
2971.00,0.0538
2970.00,0.0595
2969.00,0.0656
2968.00,0.0722
2967.00,0.0791
2966.00,0.0863
2965.00,0.0936
2964.00,0.1005
2963.00,0.1069
2962.00,0.1123
2961.00,0.1166
2960.00,0.1197
2959.00,0.1221
2958.00,0.1242
2957.00,0.1263
2956.00,0.1290
2955.00,0.1323
2954.00,0.1363
2953.00,0.1403
2952.00,0.1439
2951.00,0.1461
2950.00,0.1462
2949.00,0.1439
2948.00,0.1389
2947.00,0.1316
2946.00,0.1228
2945.00,0.1133
2944.00,0.1043
2943.00,0.0964
2942.00,0.0901
2941.00,0.0856
2940.00,0.0829
2939.00,0.0818
2938.00,0.0823
2937.00,0.0841
2936.00,0.0871
2935.00,0.0911
2934.00,0.0961
2933.00,0.1019
2932.00,0.1084
2931.00,0.1154
2930.00,0.1227
2929.00,0.1302
2928.00,0.1376
2927.00,0.1448
2926.00,0.1516
2925.00,0.1581
2924.00,0.1643
2923.00,0.1704
2922.00,0.1763
2921.00,0.1817
2920.00,0.1864
2919.00,0.1897
2918.00,0.1911
2917.00,0.1904
2916.00,0.1876
2915.00,0.1830
2914.00,0.1773
2913.00,0.1711
2912.00,0.1650
2911.00,0.1593
2910.00,0.1541
2909.00,0.1493
2908.00,0.1449
2907.00,0.1405
2906.00,0.1360
2905.00,0.1314
2904.00,0.1267
2903.00,0.1218
2902.00,0.1170
2901.00,0.1121
2900.00,0.1075
2899.00,0.1030
2898.00,0.0988
2897.00,0.0949
2896.00,0.0915
2895.00,0.0886
2894.00,0.0862
2893.00,0.0843
2892.00,0.0828
2891.00,0.0818
2890.00,0.0812
2889.00,0.0809
2888.00,0.0809
2887.00,0.0812
2886.00,0.0817
2885.00,0.0824
2884.00,0.0835
2883.00,0.0848
2882.00,0.0864
2881.00,0.0880
2880.00,0.0896
2879.00,0.0907
2878.00,0.0914
2877.00,0.0914
2876.00,0.0910
2875.00,0.0905
2874.00,0.0902
2873.00,0.0903
2872.00,0.0909
2871.00,0.0920
2870.00,0.0933
2869.00,0.0945
2868.00,0.0951
2867.00,0.0945
2866.00,0.0923
2865.00,0.0883
2864.00,0.0828
2863.00,0.0765
2862.00,0.0700
2861.00,0.0640
2860.00,0.0588
2859.00,0.0548
2858.00,0.0518
2857.00,0.0498
2856.00,0.0486
2855.00,0.0481
2854.00,0.0482
2853.00,0.0488
2852.00,0.0498
2851.00,0.0512
2850.00,0.0530
2849.00,0.0551
2848.00,0.0577
2847.00,0.0609
2846.00,0.0646
2845.00,0.0689
2844.00,0.0737
2843.00,0.0787
2842.00,0.0836
2841.00,0.0880
2840.00,0.0913
2839.00,0.0929
2838.00,0.0925
2837.00,0.0898
2836.00,0.0849
2835.00,0.0784
2834.00,0.0709
2833.00,0.0632
2832.00,0.0559
2831.00,0.0494
2830.00,0.0438
2829.00,0.0393
2828.00,0.0355
2827.00,0.0325
2826.00,0.0301
2825.00,0.0280
2824.00,0.0263
2823.00,0.0248
2822.00,0.0235
2821.00,0.0224
2820.00,0.0214
2819.00,0.0205
2818.00,0.0198
2817.00,0.0191
2816.00,0.0185
2815.00,0.0180
2814.00,0.0175
2813.00,0.0170
2812.00,0.0166
2811.00,0.0162
2810.00,0.0158
2809.00,0.0154
2808.00,0.0149
2807.00,0.0145
2806.00,0.0140
2805.00,0.0135
2804.00,0.0130
2803.00,0.0125
2802.00,0.0121
2801.00,0.0117
2800.00,0.0114
2799.00,0.0112
2798.00,0.0110
2797.00,0.0108
2796.00,0.0106
2795.00,0.0104
2794.00,0.0102
2793.00,0.0099
2792.00,0.0097
2791.00,0.0094
2790.00,0.0091
2789.00,0.0089
2788.00,0.0086
2787.00,0.0084
2786.00,0.0081
2785.00,0.0079
2784.00,0.0077
2783.00,0.0076
2782.00,0.0074
2781.00,0.0073
2780.00,0.0072
2779.00,0.0071
2778.00,0.0069
2777.00,0.0068
2776.00,0.0067
2775.00,0.0066
2774.00,0.0065
2773.00,0.0064
2772.00,0.0064
2771.00,0.0063
2770.00,0.0063
2769.00,0.0062
2768.00,0.0062
2767.00,0.0061
2766.00,0.0061
2765.00,0.0061
2764.00,0.0061
2763.00,0.0061
2762.00,0.0061
2761.00,0.0061
2760.00,0.0061
2759.00,0.0060
2758.00,0.0060
2757.00,0.0060
2756.00,0.0060
2755.00,0.0060
2754.00,0.0059
2753.00,0.0059
2752.00,0.0059
2751.00,0.0058
2750.00,0.0058
2749.00,0.0058
2748.00,0.0059
2747.00,0.0059
2746.00,0.0059
2745.00,0.0059
2744.00,0.0060
2743.00,0.0061
2742.00,0.0061
2741.00,0.0062
2740.00,0.0063
2739.00,0.0064
2738.00,0.0065
2737.00,0.0066
2736.00,0.0067
2735.00,0.0069
2734.00,0.0070
2733.00,0.0071
2732.00,0.0073
2731.00,0.0074
2730.00,0.0076
2729.00,0.0077
2728.00,0.0079
2727.00,0.0081
2726.00,0.0083
2725.00,0.0084
2724.00,0.0085
2723.00,0.0086
2722.00,0.0085
2721.00,0.0084
2720.00,0.0081
2719.00,0.0079
2718.00,0.0076
2717.00,0.0074
2716.00,0.0072
2715.00,0.0070
2714.00,0.0068
2713.00,0.0066
2712.00,0.0065
2711.00,0.0064
2710.00,0.0062
2709.00,0.0061
2708.00,0.0060
2707.00,0.0059
2706.00,0.0058
2705.00,0.0057
2704.00,0.0056
2703.00,0.0055
2702.00,0.0055
2701.00,0.0054
2700.00,0.0053
2699.00,0.0053
2698.00,0.0053
2697.00,0.0053
2696.00,0.0053
2695.00,0.0053
2694.00,0.0053
2693.00,0.0053
2692.00,0.0053
2691.00,0.0052
2690.00,0.0052
2689.00,0.0052
2688.00,0.0052
2687.00,0.0052
2686.00,0.0052
2685.00,0.0052
2684.00,0.0053
2683.00,0.0053
2682.00,0.0053
2681.00,0.0053
2680.00,0.0053
2679.00,0.0053
2678.00,0.0053
2677.00,0.0053
2676.00,0.0053
2675.00,0.0052
2674.00,0.0052
2673.00,0.0052
2672.00,0.0052
2671.00,0.0053
2670.00,0.0052
2669.00,0.0052
2668.00,0.0052
2667.00,0.0052
2666.00,0.0053
2665.00,0.0053
2664.00,0.0054
2663.00,0.0055
2662.00,0.0055
2661.00,0.0055
2660.00,0.0055
2659.00,0.0055
2658.00,0.0055
2657.00,0.0055
2656.00,0.0055
2655.00,0.0055
2654.00,0.0054
2653.00,0.0054
2652.00,0.0053
2651.00,0.0053
2650.00,0.0053
2649.00,0.0052
2648.00,0.0051
2647.00,0.0051
2646.00,0.0050
2645.00,0.0050
2644.00,0.0050
2643.00,0.0050
2642.00,0.0050
2641.00,0.0050
2640.00,0.0049
2639.00,0.0049
2638.00,0.0049
2637.00,0.0048
2636.00,0.0048
2635.00,0.0047
2634.00,0.0047
2633.00,0.0048
2632.00,0.0048
2631.00,0.0048
2630.00,0.0048
2629.00,0.0048
2628.00,0.0048
2627.00,0.0048
2626.00,0.0049
2625.00,0.0049
2624.00,0.0049
2623.00,0.0049
2622.00,0.0049
2621.00,0.0049
2620.00,0.0049
2619.00,0.0049
2618.00,0.0049
2617.00,0.0049
2616.00,0.0049
2615.00,0.0049
2614.00,0.0049
2613.00,0.0049
2612.00,0.0049
2611.00,0.0048
2610.00,0.0048
2609.00,0.0047
2608.00,0.0047
2607.00,0.0046
2606.00,0.0046
2605.00,0.0045
2604.00,0.0044
2603.00,0.0043
2602.00,0.0043
2601.00,0.0043
2600.00,0.0044
2599.00,0.0044
2598.00,0.0044
2597.00,0.0044
2596.00,0.0044
2595.00,0.0044
2594.00,0.0044
2593.00,0.0044
2592.00,0.0044
2591.00,0.0043
2590.00,0.0043
2589.00,0.0044
2588.00,0.0044
2587.00,0.0045
2586.00,0.0046
2585.00,0.0047
2584.00,0.0048
2583.00,0.0048
2582.00,0.0048
2581.00,0.0048
2580.00,0.0047
2579.00,0.0045
2578.00,0.0044
2577.00,0.0043
2576.00,0.0043
2575.00,0.0042
2574.00,0.0041
2573.00,0.0041
2572.00,0.0041
2571.00,0.0040
2570.00,0.0040
2569.00,0.0039
2568.00,0.0039
2567.00,0.0038
2566.00,0.0038
2565.00,0.0038
2564.00,0.0038
2563.00,0.0037
2562.00,0.0036
2561.00,0.0035
2560.00,0.0035
2559.00,0.0035
2558.00,0.0034
2557.00,0.0034
2556.00,0.0034
2555.00,0.0034
2554.00,0.0034
2553.00,0.0034
2552.00,0.0034
2551.00,0.0034
2550.00,0.0033
2549.00,0.0033
2548.00,0.0033
2547.00,0.0033
2546.00,0.0032
2545.00,0.0032
2544.00,0.0031
2543.00,0.0031
2542.00,0.0031
2541.00,0.0030
2540.00,0.0030
2539.00,0.0030
2538.00,0.0030
2537.00,0.0030
2536.00,0.0029
2535.00,0.0029
2534.00,0.0028
2533.00,0.0028
2532.00,0.0029
2531.00,0.0029
2530.00,0.0030
2529.00,0.0030
2528.00,0.0031
2527.00,0.0031
2526.00,0.0030
2525.00,0.0030
2524.00,0.0029
2523.00,0.0028
2522.00,0.0028
2521.00,0.0027
2520.00,0.0026
2519.00,0.0026
2518.00,0.0026
2517.00,0.0026
2516.00,0.0027
2515.00,0.0027
2514.00,0.0027
2513.00,0.0026
2512.00,0.0026
2511.00,0.0026
2510.00,0.0026
2509.00,0.0026
2508.00,0.0026
2507.00,0.0026
2506.00,0.0025
2505.00,0.0025
2504.00,0.0024
2503.00,0.0024
2502.00,0.0024
2501.00,0.0024
2500.00,0.0025
2499.00,0.0025
2498.00,0.0025
2497.00,0.0025
2496.00,0.0025
2495.00,0.0026
2494.00,0.0026
2493.00,0.0025
2492.00,0.0025
2491.00,0.0025
2490.00,0.0024
2489.00,0.0024
2488.00,0.0024
2487.00,0.0024
2486.00,0.0023
2485.00,0.0023
2484.00,0.0023
2483.00,0.0023
2482.00,0.0023
2481.00,0.0024
2480.00,0.0024
2479.00,0.0024
2478.00,0.0024
2477.00,0.0023
2476.00,0.0022
2475.00,0.0022
2474.00,0.0022
2473.00,0.0023
2472.00,0.0023
2471.00,0.0023
2470.00,0.0023
2469.00,0.0023
2468.00,0.0023
2467.00,0.0024
2466.00,0.0024
2465.00,0.0024
2464.00,0.0025
2463.00,0.0024
2462.00,0.0024
2461.00,0.0024
2460.00,0.0025
2459.00,0.0025
2458.00,0.0026
2457.00,0.0026
2456.00,0.0026
2455.00,0.0025
2454.00,0.0025
2453.00,0.0025
2452.00,0.0025
2451.00,0.0025
2450.00,0.0024
2449.00,0.0024
2448.00,0.0024
2447.00,0.0024
2446.00,0.0024
2445.00,0.0024
2444.00,0.0024
2443.00,0.0023
2442.00,0.0023
2441.00,0.0023
2440.00,0.0024
2439.00,0.0024
2438.00,0.0024
2437.00,0.0024
2436.00,0.0025
2435.00,0.0025
2434.00,0.0026
2433.00,0.0026
2432.00,0.0026
2431.00,0.0025
2430.00,0.0025
2429.00,0.0024
2428.00,0.0024
2427.00,0.0024
2426.00,0.0024
2425.00,0.0024
2424.00,0.0023
2423.00,0.0023
2422.00,0.0022
2421.00,0.0023
2420.00,0.0023
2419.00,0.0023
2418.00,0.0023
2417.00,0.0023
2416.00,0.0023
2415.00,0.0023
2414.00,0.0023
2413.00,0.0023
2412.00,0.0023
2411.00,0.0023
2410.00,0.0023
2409.00,0.0023
2408.00,0.0023
2407.00,0.0023
2406.00,0.0023
2405.00,0.0022
2404.00,0.0022
2403.00,0.0022
2402.00,0.0022
2401.00,0.0022
2400.00,0.0022
2399.00,0.0022
2398.00,0.0022
2397.00,0.0022
2396.00,0.0022
2395.00,0.0022
2394.00,0.0022
2393.00,0.0022
2392.00,0.0022
2391.00,0.0022
2390.00,0.0022
2389.00,0.0021
2388.00,0.0021
2387.00,0.0020
2386.00,0.0020
2385.00,0.0019
2384.00,0.0018
2383.00,0.0018
2382.00,0.0017
2381.00,0.0017
2380.00,0.0016
2379.00,0.0016
2378.00,0.0017
2377.00,0.0017
2376.00,0.0017
2375.00,0.0017
2374.00,0.0016
2373.00,0.0015
2372.00,0.0015
2371.00,0.0014
2370.00,0.0014
2369.00,0.0014
2368.00,0.0013
2367.00,0.0013
2366.00,0.0012
2365.00,0.0012
2364.00,0.0013
2363.00,0.0014
2362.00,0.0015
2361.00,0.0016
2360.00,0.0016
2359.00,0.0016
2358.00,0.0016
2357.00,0.0017
2356.00,0.0017
2355.00,0.0017
2354.00,0.0016
2353.00,0.0016
2352.00,0.0016
2351.00,0.0016
2350.00,0.0016
2349.00,0.0017
2348.00,0.0017
2347.00,0.0017
2346.00,0.0017
2345.00,0.0017
2344.00,0.0017
2343.00,0.0018
2342.00,0.0019
2341.00,0.0020
2340.00,0.0021
2339.00,0.0021
2338.00,0.0020
2337.00,0.0020
2336.00,0.0020
2335.00,0.0020
2334.00,0.0019
2333.00,0.0019
2332.00,0.0018
2331.00,0.0018
2330.00,0.0019
2329.00,0.0020
2328.00,0.0022
2327.00,0.0026
2326.00,0.0031
2325.00,0.0036
2324.00,0.0037
2323.00,0.0037
2322.00,0.0034
2321.00,0.0032
2320.00,0.0030
2319.00,0.0029
2318.00,0.0028
2317.00,0.0028
2316.00,0.0027
2315.00,0.0026
2314.00,0.0025
2313.00,0.0025
2312.00,0.0024
2311.00,0.0024
2310.00,0.0024
2309.00,0.0024
2308.00,0.0025
2307.00,0.0025
2306.00,0.0026
2305.00,0.0026
2304.00,0.0026
2303.00,0.0026
2302.00,0.0026
2301.00,0.0026
2300.00,0.0027
2299.00,0.0027
2298.00,0.0027
2297.00,0.0028
2296.00,0.0028
2295.00,0.0028
2294.00,0.0029
2293.00,0.0030
2292.00,0.0031
2291.00,0.0032
2290.00,0.0032
2289.00,0.0033
2288.00,0.0033
2287.00,0.0034
2286.00,0.0034
2285.00,0.0035
2284.00,0.0034
2283.00,0.0034
2282.00,0.0032
2281.00,0.0031
2280.00,0.0030
2279.00,0.0030
2278.00,0.0030
2277.00,0.0030
2276.00,0.0029
2275.00,0.0029
2274.00,0.0028
2273.00,0.0028
2272.00,0.0027
2271.00,0.0027
2270.00,0.0027
2269.00,0.0027
2268.00,0.0027
2267.00,0.0027
2266.00,0.0026
2265.00,0.0025
2264.00,0.0025
2263.00,0.0025
2262.00,0.0025
2261.00,0.0026
2260.00,0.0026
2259.00,0.0027
2258.00,0.0027
2257.00,0.0027
2256.00,0.0027
2255.00,0.0025
2254.00,0.0022
2253.00,0.0020
2252.00,0.0020
2251.00,0.0020
2250.00,0.0021
2249.00,0.0022
2248.00,0.0023
2247.00,0.0025
2246.00,0.0026
2245.00,0.0026
2244.00,0.0025
2243.00,0.0024
2242.00,0.0022
2241.00,0.0022
2240.00,0.0022
2239.00,0.0022
2238.00,0.0023
2237.00,0.0023
2236.00,0.0024
2235.00,0.0024
2234.00,0.0023
2233.00,0.0023
2232.00,0.0022
2231.00,0.0022
2230.00,0.0022
2229.00,0.0023
2228.00,0.0024
2227.00,0.0024
2226.00,0.0024
2225.00,0.0024
2224.00,0.0024
2223.00,0.0024
2222.00,0.0023
2221.00,0.0022
2220.00,0.0022
2219.00,0.0023
2218.00,0.0023
2217.00,0.0023
2216.00,0.0022
2215.00,0.0022
2214.00,0.0021
2213.00,0.0021
2212.00,0.0020
2211.00,0.0019
2210.00,0.0019
2209.00,0.0020
2208.00,0.0022
2207.00,0.0024
2206.00,0.0025
2205.00,0.0026
2204.00,0.0025
2203.00,0.0025
2202.00,0.0024
2201.00,0.0024
2200.00,0.0024
2199.00,0.0024
2198.00,0.0024
2197.00,0.0023
2196.00,0.0023
2195.00,0.0022
2194.00,0.0021
2193.00,0.0022
2192.00,0.0023
2191.00,0.0025
2190.00,0.0025
2189.00,0.0025
2188.00,0.0024
2187.00,0.0025
2186.00,0.0027
2185.00,0.0028
2184.00,0.0027
2183.00,0.0024
2182.00,0.0019
2181.00,0.0016
2180.00,0.0016
2179.00,0.0017
2178.00,0.0019
2177.00,0.0017
2176.00,0.0013
2175.00,0.0011
2174.00,0.0012
2173.00,0.0016
2172.00,0.0023
2171.00,0.0028
2170.00,0.0032
2169.00,0.0035
2168.00,0.0035
2167.00,0.0034
2166.00,0.0032
2165.00,0.0031
2164.00,0.0032
2163.00,0.0036
2162.00,0.0039
2161.00,0.0035
2160.00,0.0022
2159.00,0.0004
2158.00,-0.0011
2157.00,-0.0018
2156.00,-0.0016
2155.00,-0.0012
2154.00,-0.0008
2153.00,-0.0006
2152.00,-0.0005
2151.00,-0.0004
2150.00,-0.0002
2149.00,-0.0000
2148.00,0.0000
2147.00,-0.0000
2146.00,-0.0001
2145.00,-0.0002
2144.00,-0.0003
2143.00,-0.0003
2142.00,-0.0002
2141.00,0.0000
2140.00,0.0002
2139.00,0.0002
2138.00,0.0001
2137.00,-0.0002
2136.00,-0.0004
2135.00,-0.0007
2134.00,-0.0008
2133.00,-0.0007
2132.00,-0.0005
2131.00,-0.0003
2130.00,-0.0001
2129.00,0.0001
2128.00,0.0002
2127.00,0.0002
2126.00,0.0002
2125.00,0.0003
2124.00,0.0004
2123.00,0.0007
2122.00,0.0009
2121.00,0.0010
2120.00,0.0010
2119.00,0.0012
2118.00,0.0014
2117.00,0.0016
2116.00,0.0018
2115.00,0.0019
2114.00,0.0019
2113.00,0.0017
2112.00,0.0016
2111.00,0.0015
2110.00,0.0015
2109.00,0.0016
2108.00,0.0016
2107.00,0.0016
2106.00,0.0016
2105.00,0.0016
2104.00,0.0017
2103.00,0.0019
2102.00,0.0020
2101.00,0.0021
2100.00,0.0021
2099.00,0.0021
2098.00,0.0019
2097.00,0.0017
2096.00,0.0013
2095.00,0.0011
2094.00,0.0010
2093.00,0.0011
2092.00,0.0013
2091.00,0.0015
2090.00,0.0017
2089.00,0.0019
2088.00,0.0020
2087.00,0.0020
2086.00,0.0021
2085.00,0.0021
2084.00,0.0021
2083.00,0.0021
2082.00,0.0021
2081.00,0.0021
2080.00,0.0020
2079.00,0.0019
2078.00,0.0018
2077.00,0.0018
2076.00,0.0018
2075.00,0.0018
2074.00,0.0018
2073.00,0.0018
2072.00,0.0018
2071.00,0.0017
2070.00,0.0016
2069.00,0.0016
2068.00,0.0018
2067.00,0.0019
2066.00,0.0019
2065.00,0.0018
2064.00,0.0015
2063.00,0.0012
2062.00,0.0011
2061.00,0.0013
2060.00,0.0017
2059.00,0.0019
2058.00,0.0021
2057.00,0.0021
2056.00,0.0020
2055.00,0.0018
2054.00,0.0018
2053.00,0.0022
2052.00,0.0027
2051.00,0.0030
2050.00,0.0030
2049.00,0.0027
2048.00,0.0025
2047.00,0.0024
2046.00,0.0022
2045.00,0.0020
2044.00,0.0017
2043.00,0.0015
2042.00,0.0014
2041.00,0.0015
2040.00,0.0017
2039.00,0.0019
2038.00,0.0022
2037.00,0.0023
2036.00,0.0021
2035.00,0.0017
2034.00,0.0013
2033.00,0.0012
2032.00,0.0011
2031.00,0.0010
2030.00,0.0008
2029.00,0.0008
2028.00,0.0008
2027.00,0.0007
2026.00,0.0005
2025.00,0.0004
2024.00,0.0003
2023.00,0.0002
2022.00,0.0002
2021.00,0.0002
2020.00,0.0002
2019.00,0.0002
2018.00,0.0003
2017.00,0.0006
2016.00,0.0009
2015.00,0.0011
2014.00,0.0013
2013.00,0.0014
2012.00,0.0013
2011.00,0.0010
2010.00,0.0008
2009.00,0.0008
2008.00,0.0010
2007.00,0.0011
2006.00,0.0012
2005.00,0.0011
2004.00,0.0008
2003.00,0.0005
2002.00,0.0003
2001.00,0.0002
2000.00,0.0003
1999.00,0.0004
1998.00,0.0005
1997.00,0.0006
1996.00,0.0007
1995.00,0.0008
1994.00,0.0008
1993.00,0.0008
1992.00,0.0008
1991.00,0.0009
1990.00,0.0011
1989.00,0.0012
1988.00,0.0012
1987.00,0.0012
1986.00,0.0012
1985.00,0.0014
1984.00,0.0018
1983.00,0.0022
1982.00,0.0026
1981.00,0.0029
1980.00,0.0029
1979.00,0.0026
1978.00,0.0020
1977.00,0.0015
1976.00,0.0012
1975.00,0.0010
1974.00,0.0008
1973.00,0.0007
1972.00,0.0006
1971.00,0.0005
1970.00,0.0005
1969.00,0.0006
1968.00,0.0006
1967.00,0.0006
1966.00,0.0006
1965.00,0.0006
1964.00,0.0006
1963.00,0.0005
1962.00,0.0003
1961.00,-0.0000
1960.00,-0.0004
1959.00,-0.0007
1958.00,-0.0007
1957.00,-0.0004
1956.00,-0.0000
1955.00,0.0003
1954.00,0.0004
1953.00,0.0005
1952.00,0.0006
1951.00,0.0006
1950.00,0.0006
1949.00,0.0005
1948.00,0.0002
1947.00,-0.0001
1946.00,-0.0002
1945.00,-0.0002
1944.00,-0.0001
1943.00,0.0000
1942.00,0.0002
1941.00,0.0004
1940.00,0.0006
1939.00,0.0006
1938.00,0.0007
1937.00,0.0007
1936.00,0.0007
1935.00,0.0008
1934.00,0.0007
1933.00,0.0007
1932.00,0.0007
1931.00,0.0007
1930.00,0.0006
1929.00,0.0006
1928.00,0.0006
1927.00,0.0006
1926.00,0.0007
1925.00,0.0010
1924.00,0.0012
1923.00,0.0014
1922.00,0.0014
1921.00,0.0014
1920.00,0.0015
1919.00,0.0015
1918.00,0.0016
1917.00,0.0017
1916.00,0.0017
1915.00,0.0016
1914.00,0.0014
1913.00,0.0013
1912.00,0.0012
1911.00,0.0012
1910.00,0.0013
1909.00,0.0014
1908.00,0.0014
1907.00,0.0015
1906.00,0.0015
1905.00,0.0015
1904.00,0.0015
1903.00,0.0015
1902.00,0.0014
1901.00,0.0015
1900.00,0.0015
1899.00,0.0015
1898.00,0.0015
1897.00,0.0015
1896.00,0.0016
1895.00,0.0016
1894.00,0.0017
1893.00,0.0018
1892.00,0.0019
1891.00,0.0019
1890.00,0.0018
1889.00,0.0018
1888.00,0.0018
1887.00,0.0018
1886.00,0.0018
1885.00,0.0016
1884.00,0.0015
1883.00,0.0013
1882.00,0.0013
1881.00,0.0014
1880.00,0.0015
1879.00,0.0016
1878.00,0.0016
1877.00,0.0015
1876.00,0.0015
1875.00,0.0016
1874.00,0.0017
1873.00,0.0018
1872.00,0.0018
1871.00,0.0019
1870.00,0.0018
1869.00,0.0018
1868.00,0.0018
1867.00,0.0017
1866.00,0.0016
1865.00,0.0015
1864.00,0.0015
1863.00,0.0015
1862.00,0.0016
1861.00,0.0017
1860.00,0.0017
1859.00,0.0017
1858.00,0.0016
1857.00,0.0015
1856.00,0.0015
1855.00,0.0016
1854.00,0.0016
1853.00,0.0016
1852.00,0.0016
1851.00,0.0016
1850.00,0.0016
1849.00,0.0017
1848.00,0.0018
1847.00,0.0018
1846.00,0.0018
1845.00,0.0018
1844.00,0.0018
1843.00,0.0017
1842.00,0.0017
1841.00,0.0017
1840.00,0.0017
1839.00,0.0017
1838.00,0.0018
1837.00,0.0018
1836.00,0.0018
1835.00,0.0018
1834.00,0.0018
1833.00,0.0019
1832.00,0.0019
1831.00,0.0019
1830.00,0.0019
1829.00,0.0020
1828.00,0.0020
1827.00,0.0020
1826.00,0.0020
1825.00,0.0019
1824.00,0.0020
1823.00,0.0020
1822.00,0.0020
1821.00,0.0020
1820.00,0.0019
1819.00,0.0017
1818.00,0.0016
1817.00,0.0015
1816.00,0.0015
1815.00,0.0016
1814.00,0.0017
1813.00,0.0018
1812.00,0.0019
1811.00,0.0019
1810.00,0.0019
1809.00,0.0019
1808.00,0.0019
1807.00,0.0019
1806.00,0.0019
1805.00,0.0020
1804.00,0.0021
1803.00,0.0022
1802.00,0.0022
1801.00,0.0023
1800.00,0.0023
1799.00,0.0023
1798.00,0.0023
1797.00,0.0024
1796.00,0.0024
1795.00,0.0024
1794.00,0.0025
1793.00,0.0025
1792.00,0.0025
1791.00,0.0024
1790.00,0.0024
1789.00,0.0024
1788.00,0.0025
1787.00,0.0025
1786.00,0.0025
1785.00,0.0025
1784.00,0.0025
1783.00,0.0025
1782.00,0.0025
1781.00,0.0025
1780.00,0.0024
1779.00,0.0024
1778.00,0.0024
1777.00,0.0024
1776.00,0.0024
1775.00,0.0024
1774.00,0.0024
1773.00,0.0024
1772.00,0.0025
1771.00,0.0025
1770.00,0.0026
1769.00,0.0026
1768.00,0.0026
1767.00,0.0026
1766.00,0.0027
1765.00,0.0027
1764.00,0.0029
1763.00,0.0029
1762.00,0.0029
1761.00,0.0029
1760.00,0.0028
1759.00,0.0028
1758.00,0.0028
1757.00,0.0029
1756.00,0.0030
1755.00,0.0031
1754.00,0.0032
1753.00,0.0032
1752.00,0.0032
1751.00,0.0033
1750.00,0.0034
1749.00,0.0035
1748.00,0.0035
1747.00,0.0034
1746.00,0.0034
1745.00,0.0035
1744.00,0.0036
1743.00,0.0037
1742.00,0.0037
1741.00,0.0037
1740.00,0.0038
1739.00,0.0038
1738.00,0.0038
1737.00,0.0039
1736.00,0.0039
1735.00,0.0039
1734.00,0.0039
1733.00,0.0039
1732.00,0.0039
1731.00,0.0039
1730.00,0.0038
1729.00,0.0038
1728.00,0.0037
1727.00,0.0037
1726.00,0.0036
1725.00,0.0037
1724.00,0.0037
1723.00,0.0037
1722.00,0.0037
1721.00,0.0037
1720.00,0.0036
1719.00,0.0036
1718.00,0.0036
1717.00,0.0037
1716.00,0.0037
1715.00,0.0038
1714.00,0.0037
1713.00,0.0037
1712.00,0.0038
1711.00,0.0038
1710.00,0.0039
1709.00,0.0039
1708.00,0.0040
1707.00,0.0039
1706.00,0.0039
1705.00,0.0040
1704.00,0.0040
1703.00,0.0041
1702.00,0.0041
1701.00,0.0042
1700.00,0.0043
1699.00,0.0043
1698.00,0.0044
1697.00,0.0044
1696.00,0.0045
1695.00,0.0045
1694.00,0.0045
1693.00,0.0045
1692.00,0.0046
1691.00,0.0048
1690.00,0.0049
1689.00,0.0050
1688.00,0.0052
1687.00,0.0052
1686.00,0.0052
1685.00,0.0052
1684.00,0.0053
1683.00,0.0054
1682.00,0.0054
1681.00,0.0056
1680.00,0.0057
1679.00,0.0058
1678.00,0.0058
1677.00,0.0059
1676.00,0.0060
1675.00,0.0060
1674.00,0.0060
1673.00,0.0060
1672.00,0.0061
1671.00,0.0062
1670.00,0.0063
1669.00,0.0064
1668.00,0.0064
1667.00,0.0064
1666.00,0.0064
1665.00,0.0065
1664.00,0.0065
1663.00,0.0066
1662.00,0.0067
1661.00,0.0068
1660.00,0.0069
1659.00,0.0069
1658.00,0.0070
1657.00,0.0071
1656.00,0.0072
1655.00,0.0073
1654.00,0.0073
1653.00,0.0073
1652.00,0.0074
1651.00,0.0074
1650.00,0.0075
1649.00,0.0076
1648.00,0.0078
1647.00,0.0079
1646.00,0.0079
1645.00,0.0079
1644.00,0.0079
1643.00,0.0078
1642.00,0.0078
1641.00,0.0078
1640.00,0.0079
1639.00,0.0080
1638.00,0.0080
1637.00,0.0081
1636.00,0.0081
1635.00,0.0081
1634.00,0.0081
1633.00,0.0080
1632.00,0.0081
1631.00,0.0081
1630.00,0.0080
1629.00,0.0080
1628.00,0.0080
1627.00,0.0080
1626.00,0.0081
1625.00,0.0081
1624.00,0.0082
1623.00,0.0082
1622.00,0.0082
1621.00,0.0081
1620.00,0.0081
1619.00,0.0081
1618.00,0.0082
1617.00,0.0082
1616.00,0.0082
1615.00,0.0082
1614.00,0.0082
1613.00,0.0082
1612.00,0.0083
1611.00,0.0083
1610.00,0.0083
1609.00,0.0084
1608.00,0.0084
1607.00,0.0084
1606.00,0.0084
1605.00,0.0084
1604.00,0.0084
1603.00,0.0084
1602.00,0.0085
1601.00,0.0085
1600.00,0.0085
1599.00,0.0086
1598.00,0.0086
1597.00,0.0086
1596.00,0.0086
1595.00,0.0086
1594.00,0.0086
1593.00,0.0086
1592.00,0.0086
1591.00,0.0087
1590.00,0.0088
1589.00,0.0089
1588.00,0.0090
1587.00,0.0090
1586.00,0.0091
1585.00,0.0092
1584.00,0.0093
1583.00,0.0094
1582.00,0.0095
1581.00,0.0097
1580.00,0.0100
1579.00,0.0101
1578.00,0.0101
1577.00,0.0101
1576.00,0.0100
1575.00,0.0098
1574.00,0.0096
1573.00,0.0095
1572.00,0.0094
1571.00,0.0093
1570.00,0.0091
1569.00,0.0089
1568.00,0.0088
1567.00,0.0087
1566.00,0.0086
1565.00,0.0085
1564.00,0.0085
1563.00,0.0086
1562.00,0.0086
1561.00,0.0086
1560.00,0.0086
1559.00,0.0088
1558.00,0.0088
1557.00,0.0089
1556.00,0.0089
1555.00,0.0090
1554.00,0.0091
1553.00,0.0091
1552.00,0.0092
1551.00,0.0093
1550.00,0.0094
1549.00,0.0095
1548.00,0.0097
1547.00,0.0099
1546.00,0.0102
1545.00,0.0105
1544.00,0.0108
1543.00,0.0109
1542.00,0.0109
1541.00,0.0108
1540.00,0.0106
1539.00,0.0103
1538.00,0.0100
1537.00,0.0098
1536.00,0.0097
1535.00,0.0095
1534.00,0.0092
1533.00,0.0090
1532.00,0.0089
1531.00,0.0087
1530.00,0.0087
1529.00,0.0086
1528.00,0.0086
1527.00,0.0086
1526.00,0.0086
1525.00,0.0086
1524.00,0.0087
1523.00,0.0088
1522.00,0.0089
1521.00,0.0089
1520.00,0.0090
1519.00,0.0090
1518.00,0.0091
1517.00,0.0093
1516.00,0.0094
1515.00,0.0093
1514.00,0.0093
1513.00,0.0093
1512.00,0.0095
1511.00,0.0097
1510.00,0.0099
1509.00,0.0102
1508.00,0.0105
1507.00,0.0106
1506.00,0.0106
1505.00,0.0107
1504.00,0.0108
1503.00,0.0109
1502.00,0.0111
1501.00,0.0113
1500.00,0.0117
1499.00,0.0119
1498.00,0.0122
1497.00,0.0127
1496.00,0.0131
1495.00,0.0134
1494.00,0.0136
1493.00,0.0139
1492.00,0.0143
1491.00,0.0148
1490.00,0.0153
1489.00,0.0159
1488.00,0.0165
1487.00,0.0169
1486.00,0.0173
1485.00,0.0179
1484.00,0.0185
1483.00,0.0192
1482.00,0.0200
1481.00,0.0211
1480.00,0.0221
1479.00,0.0231
1478.00,0.0244
1477.00,0.0261
1476.00,0.0280
1475.00,0.0302
1474.00,0.0330
1473.00,0.0374
1472.00,0.0426
1471.00,0.0476
1470.00,0.0522
1469.00,0.0568
1468.00,0.0618
1467.00,0.0673
1466.00,0.0738
1465.00,0.0811
1464.00,0.0875
1463.00,0.0920
1462.00,0.0947
1461.00,0.0965
1460.00,0.0978
1459.00,0.0990
1458.00,0.1011
1457.00,0.1038
1456.00,0.1055
1455.00,0.1056
1454.00,0.1047
1453.00,0.1035
1452.00,0.1017
1451.00,0.0991
1450.00,0.0954
1449.00,0.0903
1448.00,0.0839
1447.00,0.0771
1446.00,0.0706
1445.00,0.0649
1444.00,0.0600
1443.00,0.0560
1442.00,0.0530
1441.00,0.0510
1440.00,0.0496
1439.00,0.0489
1438.00,0.0489
1437.00,0.0490
1436.00,0.0484
1435.00,0.0464
1434.00,0.0433
1433.00,0.0397
1432.00,0.0361
1431.00,0.0330
1430.00,0.0307
1429.00,0.0289
1428.00,0.0277
1427.00,0.0268
1426.00,0.0262
1425.00,0.0256
1424.00,0.0251
1423.00,0.0247
1422.00,0.0245
1421.00,0.0242
1420.00,0.0239
1419.00,0.0236
1418.00,0.0232
1417.00,0.0227
1416.00,0.0222
1415.00,0.0217
1414.00,0.0213
1413.00,0.0208
1412.00,0.0204
1411.00,0.0201
1410.00,0.0198
1409.00,0.0194
1408.00,0.0190
1407.00,0.0187
1406.00,0.0185
1405.00,0.0183
1404.00,0.0182
1403.00,0.0180
1402.00,0.0180
1401.00,0.0179
1400.00,0.0178
1399.00,0.0178
1398.00,0.0178
1397.00,0.0177
1396.00,0.0177
1395.00,0.0178
1394.00,0.0180
1393.00,0.0182
1392.00,0.0185
1391.00,0.0190
1390.00,0.0198
1389.00,0.0211
1388.00,0.0230
1387.00,0.0259
1386.00,0.0297
1385.00,0.0346
1384.00,0.0411
1383.00,0.0498
1382.00,0.0610
1381.00,0.0748
1380.00,0.0915
1379.00,0.1103
1378.00,0.1285
1377.00,0.1418
1376.00,0.1466
1375.00,0.1407
1374.00,0.1255
1373.00,0.1061
1372.00,0.0876
1371.00,0.0718
1370.00,0.0588
1369.00,0.0489
1368.00,0.0420
1367.00,0.0378
1366.00,0.0354
1365.00,0.0345
1364.00,0.0347
1363.00,0.0357
1362.00,0.0373
1361.00,0.0389
1360.00,0.0399
1359.00,0.0400
1358.00,0.0388
1357.00,0.0366
1356.00,0.0335
1355.00,0.0302
1354.00,0.0271
1353.00,0.0244
1352.00,0.0223
1351.00,0.0206
1350.00,0.0191
1349.00,0.0179
1348.00,0.0170
1347.00,0.0162
1346.00,0.0156
1345.00,0.0150
1344.00,0.0146
1343.00,0.0143
1342.00,0.0141
1341.00,0.0139
1340.00,0.0137
1339.00,0.0136
1338.00,0.0134
1337.00,0.0133
1336.00,0.0133
1335.00,0.0134
1334.00,0.0136
1333.00,0.0138
1332.00,0.0141
1331.00,0.0142
1330.00,0.0143
1329.00,0.0142
1328.00,0.0139
1327.00,0.0135
1326.00,0.0130
1325.00,0.0125
1324.00,0.0121
1323.00,0.0117
1322.00,0.0114
1321.00,0.0111
1320.00,0.0110
1319.00,0.0108
1318.00,0.0106
1317.00,0.0104
1316.00,0.0103
1315.00,0.0101
1314.00,0.0100
1313.00,0.0100
1312.00,0.0101
1311.00,0.0103
1310.00,0.0107
1309.00,0.0112
1308.00,0.0120
1307.00,0.0130
1306.00,0.0139
1305.00,0.0145
1304.00,0.0147
1303.00,0.0145
1302.00,0.0140
1301.00,0.0136
1300.00,0.0132
1299.00,0.0131
1298.00,0.0130
1297.00,0.0130
1296.00,0.0129
1295.00,0.0127
1294.00,0.0124
1293.00,0.0120
1292.00,0.0116
1291.00,0.0112
1290.00,0.0109
1289.00,0.0106
1288.00,0.0104
1287.00,0.0101
1286.00,0.0100
1285.00,0.0098
1284.00,0.0097
1283.00,0.0096
1282.00,0.0094
1281.00,0.0093
1280.00,0.0092
1279.00,0.0091
1278.00,0.0091
1277.00,0.0091
1276.00,0.0090
1275.00,0.0090
1274.00,0.0090
1273.00,0.0090
1272.00,0.0091
1271.00,0.0091
1270.00,0.0092
1269.00,0.0093
1268.00,0.0094
1267.00,0.0095
1266.00,0.0096
1265.00,0.0098
1264.00,0.0099
1263.00,0.0102
1262.00,0.0105
1261.00,0.0109
1260.00,0.0114
1259.00,0.0120
1258.00,0.0126
1257.00,0.0131
1256.00,0.0134
1255.00,0.0133
1254.00,0.0129
1253.00,0.0122
1252.00,0.0115
1251.00,0.0109
1250.00,0.0105
1249.00,0.0102
1248.00,0.0100
1247.00,0.0099
1246.00,0.0098
1245.00,0.0098
1244.00,0.0097
1243.00,0.0096
1242.00,0.0095
1241.00,0.0094
1240.00,0.0093
1239.00,0.0092
1238.00,0.0092
1237.00,0.0092
1236.00,0.0091
1235.00,0.0091
1234.00,0.0091
1233.00,0.0090
1232.00,0.0090
1231.00,0.0090
1230.00,0.0091
1229.00,0.0092
1228.00,0.0092
1227.00,0.0093
1226.00,0.0094
1225.00,0.0095
1224.00,0.0097
1223.00,0.0099
1222.00,0.0101
1221.00,0.0103
1220.00,0.0104
1219.00,0.0104
1218.00,0.0104
1217.00,0.0104
1216.00,0.0103
1215.00,0.0101
1214.00,0.0098
1213.00,0.0096
1212.00,0.0094
1211.00,0.0092
1210.00,0.0090
1209.00,0.0089
1208.00,0.0088
1207.00,0.0087
1206.00,0.0087
1205.00,0.0086
1204.00,0.0086
1203.00,0.0086
1202.00,0.0086
1201.00,0.0086
1200.00,0.0086
1199.00,0.0086
1198.00,0.0086
1197.00,0.0086
1196.00,0.0086
1195.00,0.0087
1194.00,0.0087
1193.00,0.0087
1192.00,0.0087
1191.00,0.0086
1190.00,0.0086
1189.00,0.0086
1188.00,0.0087
1187.00,0.0088
1186.00,0.0088
1185.00,0.0088
1184.00,0.0089
1183.00,0.0090
1182.00,0.0092
1181.00,0.0094
1180.00,0.0097
1179.00,0.0102
1178.00,0.0108
1177.00,0.0116
1176.00,0.0126
1175.00,0.0140
1174.00,0.0158
1173.00,0.0180
1172.00,0.0206
1171.00,0.0235
1170.00,0.0262
1169.00,0.0284
1168.00,0.0297
1167.00,0.0299
1166.00,0.0292
1165.00,0.0279
1164.00,0.0264
1163.00,0.0249
1162.00,0.0236
1161.00,0.0225
1160.00,0.0217
1159.00,0.0211
1158.00,0.0205
1157.00,0.0200
1156.00,0.0196
1155.00,0.0193
1154.00,0.0190
1153.00,0.0188
1152.00,0.0184
1151.00,0.0178
1150.00,0.0172
1149.00,0.0164
1148.00,0.0156
1147.00,0.0149
1146.00,0.0142
1145.00,0.0136
1144.00,0.0131
1143.00,0.0126
1142.00,0.0121
1141.00,0.0117
1140.00,0.0112
1139.00,0.0109
1138.00,0.0105
1137.00,0.0103
1136.00,0.0101
1135.00,0.0100
1134.00,0.0099
1133.00,0.0099
1132.00,0.0099
1131.00,0.0099
1130.00,0.0100
1129.00,0.0100
1128.00,0.0101
1127.00,0.0102
1126.00,0.0102
1125.00,0.0103
1124.00,0.0103
1123.00,0.0103
1122.00,0.0103
1121.00,0.0103
1120.00,0.0103
1119.00,0.0104
1118.00,0.0105
1117.00,0.0105
1116.00,0.0105
1115.00,0.0106
1114.00,0.0107
1113.00,0.0109
1112.00,0.0110
1111.00,0.0111
1110.00,0.0113
1109.00,0.0116
1108.00,0.0121
1107.00,0.0126
1106.00,0.0131
1105.00,0.0136
1104.00,0.0139
1103.00,0.0140
1102.00,0.0140
1101.00,0.0137
1100.00,0.0135
1099.00,0.0131
1098.00,0.0127
1097.00,0.0122
1096.00,0.0118
1095.00,0.0115
1094.00,0.0113
1093.00,0.0111
1092.00,0.0109
1091.00,0.0107
1090.00,0.0105
1089.00,0.0103
1088.00,0.0101
1087.00,0.0100
1086.00,0.0099
1085.00,0.0099
1084.00,0.0099
1083.00,0.0100
1082.00,0.0099
1081.00,0.0098
1080.00,0.0096
1079.00,0.0094
1078.00,0.0093
1077.00,0.0092
1076.00,0.0092
1075.00,0.0092
1074.00,0.0091
1073.00,0.0091
1072.00,0.0091
1071.00,0.0091
1070.00,0.0091
1069.00,0.0091
1068.00,0.0091
1067.00,0.0091
1066.00,0.0091
1065.00,0.0090
1064.00,0.0089
1063.00,0.0089
1062.00,0.0089
1061.00,0.0089
1060.00,0.0089
1059.00,0.0090
1058.00,0.0090
1057.00,0.0090
1056.00,0.0091
1055.00,0.0093
1054.00,0.0094
1053.00,0.0096
1052.00,0.0097
1051.00,0.0099
1050.00,0.0102
1049.00,0.0104
1048.00,0.0106
1047.00,0.0109
1046.00,0.0110
1045.00,0.0111
1044.00,0.0110
1043.00,0.0109
1042.00,0.0108
1041.00,0.0107
1040.00,0.0106
1039.00,0.0105
1038.00,0.0105
1037.00,0.0106
1036.00,0.0107
1035.00,0.0107
1034.00,0.0106
1033.00,0.0105
1032.00,0.0103
1031.00,0.0102
1030.00,0.0100
1029.00,0.0100
1028.00,0.0100
1027.00,0.0101
1026.00,0.0101
1025.00,0.0101
1024.00,0.0101
1023.00,0.0100
1022.00,0.0100
1021.00,0.0100
1020.00,0.0100
1019.00,0.0101
1018.00,0.0102
1017.00,0.0103
1016.00,0.0104
1015.00,0.0106
1014.00,0.0110
1013.00,0.0114
1012.00,0.0118
1011.00,0.0122
1010.00,0.0126
1009.00,0.0129
1008.00,0.0133
1007.00,0.0138
1006.00,0.0145
1005.00,0.0155
1004.00,0.0168
1003.00,0.0187
1002.00,0.0213
1001.00,0.0244
1000.00,0.0276
999.00,0.0302
998.00,0.0313
997.00,0.0306
996.00,0.0283
995.00,0.0251
994.00,0.0217
993.00,0.0187
992.00,0.0164
991.00,0.0146
990.00,0.0134
989.00,0.0126
988.00,0.0121
987.00,0.0118
986.00,0.0117
985.00,0.0118
984.00,0.0122
983.00,0.0128
982.00,0.0138
981.00,0.0153
980.00,0.0172
979.00,0.0198
978.00,0.0229
977.00,0.0266
976.00,0.0304
975.00,0.0340
974.00,0.0366
973.00,0.0374
972.00,0.0361
971.00,0.0329
970.00,0.0286
969.00,0.0243
968.00,0.0207
967.00,0.0179
966.00,0.0157
965.00,0.0142
964.00,0.0130
963.00,0.0121
962.00,0.0114
961.00,0.0108
960.00,0.0103
959.00,0.0100
958.00,0.0097
957.00,0.0094
956.00,0.0092
955.00,0.0091
954.00,0.0090
953.00,0.0089
952.00,0.0088
951.00,0.0087
950.00,0.0086
949.00,0.0086
948.00,0.0087
947.00,0.0088
946.00,0.0089
945.00,0.0091
944.00,0.0093
943.00,0.0095
942.00,0.0096
941.00,0.0096
940.00,0.0094
939.00,0.0092
938.00,0.0090
937.00,0.0086
936.00,0.0083
935.00,0.0080
934.00,0.0078
933.00,0.0077
932.00,0.0076
931.00,0.0076
930.00,0.0075
929.00,0.0075
928.00,0.0074
927.00,0.0073
926.00,0.0073
925.00,0.0073
924.00,0.0073
923.00,0.0074
922.00,0.0075
921.00,0.0076
920.00,0.0078
919.00,0.0079
918.00,0.0080
917.00,0.0080
916.00,0.0080
915.00,0.0080
914.00,0.0081
913.00,0.0082
912.00,0.0083
911.00,0.0084
910.00,0.0085
909.00,0.0086
908.00,0.0087
907.00,0.0091
906.00,0.0096
905.00,0.0103
904.00,0.0114
903.00,0.0127
902.00,0.0141
901.00,0.0155
900.00,0.0165
899.00,0.0168
898.00,0.0164
897.00,0.0154
896.00,0.0140
895.00,0.0125
894.00,0.0112
893.00,0.0103
892.00,0.0096
891.00,0.0091
890.00,0.0088
889.00,0.0086
888.00,0.0085
887.00,0.0085
886.00,0.0085
885.00,0.0086
884.00,0.0088
883.00,0.0090
882.00,0.0094
881.00,0.0099
880.00,0.0103
879.00,0.0108
878.00,0.0114
877.00,0.0120
876.00,0.0125
875.00,0.0128
874.00,0.0128
873.00,0.0124
872.00,0.0117
871.00,0.0109
870.00,0.0102
869.00,0.0097
868.00,0.0093
867.00,0.0091
866.00,0.0089
865.00,0.0088
864.00,0.0088
863.00,0.0089
862.00,0.0090
861.00,0.0092
860.00,0.0093
859.00,0.0093
858.00,0.0093
857.00,0.0094
856.00,0.0096
855.00,0.0098
854.00,0.0101
853.00,0.0104
852.00,0.0107
851.00,0.0111
850.00,0.0114
849.00,0.0119
848.00,0.0126
847.00,0.0138
846.00,0.0157
845.00,0.0187
844.00,0.0225
843.00,0.0266
842.00,0.0295
841.00,0.0299
840.00,0.0277
839.00,0.0239
838.00,0.0201
837.00,0.0172
836.00,0.0153
835.00,0.0142
834.00,0.0135
833.00,0.0130
832.00,0.0125
831.00,0.0121
830.00,0.0118
829.00,0.0116
828.00,0.0114
827.00,0.0113
826.00,0.0111
825.00,0.0111
824.00,0.0112
823.00,0.0113
822.00,0.0115
821.00,0.0115
820.00,0.0115
819.00,0.0115
818.00,0.0117
817.00,0.0121
816.00,0.0126
815.00,0.0133
814.00,0.0143
813.00,0.0155
812.00,0.0169
811.00,0.0181
810.00,0.0189
809.00,0.0193
808.00,0.0190
807.00,0.0182
806.00,0.0171
805.00,0.0159
804.00,0.0149
803.00,0.0141
802.00,0.0133
801.00,0.0126
800.00,0.0121
799.00,0.0116
798.00,0.0112
797.00,0.0109
796.00,0.0106
795.00,0.0103
794.00,0.0101
793.00,0.0099
792.00,0.0097
791.00,0.0096
790.00,0.0095
789.00,0.0092
788.00,0.0089
787.00,0.0086
786.00,0.0084
785.00,0.0082
784.00,0.0080
783.00,0.0079
782.00,0.0078
781.00,0.0078
780.00,0.0078
779.00,0.0078
778.00,0.0078
777.00,0.0078
776.00,0.0079
775.00,0.0080
774.00,0.0082
773.00,0.0084
772.00,0.0086
771.00,0.0088
770.00,0.0090
769.00,0.0092
768.00,0.0093
767.00,0.0093
766.00,0.0093
765.00,0.0091
764.00,0.0089
763.00,0.0086
762.00,0.0084
761.00,0.0081
760.00,0.0078
759.00,0.0075
758.00,0.0073
757.00,0.0072
756.00,0.0072
755.00,0.0073
754.00,0.0074
753.00,0.0074
752.00,0.0073
751.00,0.0072
750.00,0.0071
749.00,0.0071
748.00,0.0072
747.00,0.0071
746.00,0.0071
745.00,0.0070
744.00,0.0071
743.00,0.0072
742.00,0.0074
741.00,0.0077
740.00,0.0078
739.00,0.0079
738.00,0.0081
737.00,0.0081
736.00,0.0082
735.00,0.0082
734.00,0.0083
733.00,0.0084
732.00,0.0085
731.00,0.0085
730.00,0.0085
729.00,0.0085
728.00,0.0085
727.00,0.0084
726.00,0.0082
725.00,0.0081
724.00,0.0080
723.00,0.0081
722.00,0.0081
721.00,0.0081
720.00,0.0080
719.00,0.0079
718.00,0.0078
717.00,0.0078
716.00,0.0080
715.00,0.0082
714.00,0.0085
713.00,0.0086
712.00,0.0086
711.00,0.0083
710.00,0.0081
709.00,0.0079
708.00,0.0079
707.00,0.0079
706.00,0.0079
705.00,0.0078
704.00,0.0077
703.00,0.0076
702.00,0.0075
701.00,0.0075
700.00,0.0074
699.00,0.0074
698.00,0.0073
697.00,0.0072
696.00,0.0072
695.00,0.0073
694.00,0.0074
693.00,0.0076
692.00,0.0077
691.00,0.0077
690.00,0.0076
689.00,0.0076
688.00,0.0076
687.00,0.0078
686.00,0.0079
685.00,0.0079
684.00,0.0077
683.00,0.0075
682.00,0.0072
681.00,0.0070
680.00,0.0069
679.00,0.0069
678.00,0.0070
677.00,0.0071
676.00,0.0071
675.00,0.0071
674.00,0.0072
673.00,0.0073
672.00,0.0073
671.00,0.0073
670.00,0.0074
669.00,0.0074
668.00,0.0075
667.00,0.0077
666.00,0.0077
665.00,0.0076
664.00,0.0075
663.00,0.0076
662.00,0.0077
661.00,0.0077
660.00,0.0078
659.00,0.0076
658.00,0.0073
657.00,0.0071
656.00,0.0070
655.00,0.0070
654.00,0.0069
653.00,0.0068
652.00,0.0069
651.00,0.0071
650.00,0.0073
649.00,0.0074
648.00,0.0073
647.00,0.0072
646.00,0.0072
645.00,0.0075
644.00,0.0077
643.00,0.0077
642.00,0.0076
641.00,0.0074
640.00,0.0073
639.00,0.0074
638.00,0.0075
637.00,0.0077
636.00,0.0077
635.00,0.0077
634.00,0.0076
633.00,0.0076
632.00,0.0076
631.00,0.0077
630.00,0.0077
629.00,0.0078
628.00,0.0079
627.00,0.0079
626.00,0.0079
625.00,0.0079
624.00,0.0078
623.00,0.0076
622.00,0.0075
621.00,0.0074
620.00,0.0075
619.00,0.0076
618.00,0.0079
617.00,0.0081
616.00,0.0084
615.00,0.0084
614.00,0.0083
613.00,0.0080
612.00,0.0077
611.00,0.0076
610.00,0.0076
609.00,0.0076
608.00,0.0077
607.00,0.0076
606.00,0.0075
605.00,0.0075
604.00,0.0075
603.00,0.0077
602.00,0.0080
601.00,0.0084
600.00,0.0085
599.00,0.0086
598.00,0.0084
597.00,0.0080
596.00,0.0075
595.00,0.0073
594.00,0.0074
593.00,0.0076
592.00,0.0079
591.00,0.0081
590.00,0.0084
589.00,0.0085
588.00,0.0086
587.00,0.0086
586.00,0.0086
585.00,0.0085
584.00,0.0084
583.00,0.0082
582.00,0.0083
581.00,0.0085
580.00,0.0087
579.00,0.0086
578.00,0.0082
577.00,0.0079
576.00,0.0077
575.00,0.0077
574.00,0.0077
573.00,0.0076
572.00,0.0076
571.00,0.0076
570.00,0.0078
569.00,0.0079
568.00,0.0080
567.00,0.0081
566.00,0.0080
565.00,0.0078
564.00,0.0077
563.00,0.0077
562.00,0.0077
561.00,0.0077
560.00,0.0076
559.00,0.0077
558.00,0.0079
557.00,0.0082
556.00,0.0084
555.00,0.0085
554.00,0.0084
553.00,0.0082
552.00,0.0081
551.00,0.0082
550.00,0.0085
549.00,0.0089
548.00,0.0091
547.00,0.0092
546.00,0.0093
545.00,0.0093
544.00,0.0093
543.00,0.0091
542.00,0.0088
541.00,0.0085
540.00,0.0085
539.00,0.0085
538.00,0.0086
537.00,0.0085
536.00,0.0084
535.00,0.0085
534.00,0.0087
533.00,0.0088
532.00,0.0088
531.00,0.0087
530.00,0.0088
529.00,0.0088
528.00,0.0088
527.00,0.0087
526.00,0.0086
525.00,0.0085
524.00,0.0086
523.00,0.0088
522.00,0.0092
521.00,0.0095
520.00,0.0097
519.00,0.0098
518.00,0.0098
517.00,0.0099
516.00,0.0100
515.00,0.0099
514.00,0.0096
513.00,0.0088
512.00,0.0080
511.00,0.0076
510.00,0.0076
509.00,0.0080
508.00,0.0085
507.00,0.0092
506.00,0.0100
505.00,0.0106
504.00,0.0108
503.00,0.0106
502.00,0.0103
501.00,0.0098
500.00,0.0091
499.00,0.0086
498.00,0.0084
497.00,0.0086
496.00,0.0087
495.00,0.0085
494.00,0.0080
493.00,0.0074
492.00,0.0070
491.00,0.0066
490.00,0.0064
489.00,0.0063
488.00,0.0066
487.00,0.0072
486.00,0.0079
485.00,0.0083
484.00,0.0084
483.00,0.0084
482.00,0.0083
481.00,0.0081
480.00,0.0077
479.00,0.0074
478.00,0.0075
477.00,0.0080
476.00,0.0084
475.00,0.0089
474.00,0.0095
473.00,0.0102
472.00,0.0107
471.00,0.0105
470.00,0.0102
469.00,0.0099
468.00,0.0096
467.00,0.0095
466.00,0.0095
465.00,0.0097
464.00,0.0101
463.00,0.0107
462.00,0.0116
461.00,0.0127
460.00,0.0132
459.00,0.0130
458.00,0.0127
457.00,0.0134
456.00,0.0146
455.00,0.0156
454.00,0.0157
453.00,0.0149
452.00,0.0137
451.00,0.0124
450.00,0.0112
