Created as New Dataset,Sample 016 By Administrator Date Wednesday, September 10 2025
cm-1,A
4000.00,0.0009
3999.00,0.0009
3998.00,0.0009
3997.00,0.0008
3996.00,0.0008
3995.00,0.0008
3994.00,0.0008
3993.00,0.0008
3992.00,0.0009
3991.00,0.0009
3990.00,0.0009
3989.00,0.0009
3988.00,0.0009
3987.00,0.0008
3986.00,0.0008
3985.00,0.0008
3984.00,0.0008
3983.00,0.0008
3982.00,0.0008
3981.00,0.0008
3980.00,0.0008
3979.00,0.0008
3978.00,0.0007
3977.00,0.0007
3976.00,0.0007
3975.00,0.0007
3974.00,0.0006
3973.00,0.0006
3972.00,0.0006
3971.00,0.0006
3970.00,0.0006
3969.00,0.0007
3968.00,0.0007
3967.00,0.0007
3966.00,0.0007
3965.00,0.0007
3964.00,0.0007
3963.00,0.0007
3962.00,0.0007
3961.00,0.0006
3960.00,0.0006
3959.00,0.0006
3958.00,0.0006
3957.00,0.0006
3956.00,0.0006
3955.00,0.0006
3954.00,0.0006
3953.00,0.0006
3952.00,0.0006
3951.00,0.0006
3950.00,0.0006
3949.00,0.0006
3948.00,0.0006
3947.00,0.0006
3946.00,0.0006
3945.00,0.0006
3944.00,0.0006
3943.00,0.0006
3942.00,0.0006
3941.00,0.0006
3940.00,0.0006
3939.00,0.0007
3938.00,0.0007
3937.00,0.0007
3936.00,0.0007
3935.00,0.0007
3934.00,0.0007
3933.00,0.0007
3932.00,0.0007
3931.00,0.0007
3930.00,0.0007
3929.00,0.0007
3928.00,0.0007
3927.00,0.0007
3926.00,0.0007
3925.00,0.0007
3924.00,0.0007
3923.00,0.0007
3922.00,0.0007
3921.00,0.0007
3920.00,0.0006
3919.00,0.0006
3918.00,0.0006
3917.00,0.0006
3916.00,0.0006
3915.00,0.0006
3914.00,0.0006
3913.00,0.0007
3912.00,0.0007
3911.00,0.0007
3910.00,0.0007
3909.00,0.0007
3908.00,0.0007
3907.00,0.0006
3906.00,0.0006
3905.00,0.0006
3904.00,0.0006
3903.00,0.0006
3902.00,0.0006
3901.00,0.0006
3900.00,0.0006
3899.00,0.0006
3898.00,0.0006
3897.00,0.0006
3896.00,0.0007
3895.00,0.0007
3894.00,0.0007
3893.00,0.0007
3892.00,0.0007
3891.00,0.0007
3890.00,0.0007
3889.00,0.0007
3888.00,0.0006
3887.00,0.0006
3886.00,0.0006
3885.00,0.0006
3884.00,0.0006
3883.00,0.0005
3882.00,0.0005
3881.00,0.0006
3880.00,0.0006
3879.00,0.0007
3878.00,0.0006
3877.00,0.0006
3876.00,0.0006
3875.00,0.0006
3874.00,0.0006
3873.00,0.0006
3872.00,0.0005
3871.00,0.0005
3870.00,0.0005
3869.00,0.0005
3868.00,0.0005
3867.00,0.0005
3866.00,0.0005
3865.00,0.0005
3864.00,0.0005
3863.00,0.0005
3862.00,0.0005
3861.00,0.0005
3860.00,0.0005
3859.00,0.0006
3858.00,0.0006
3857.00,0.0006
3856.00,0.0006
3855.00,0.0006
3854.00,0.0006
3853.00,0.0006
3852.00,0.0005
3851.00,0.0005
3850.00,0.0005
3849.00,0.0005
3848.00,0.0005
3847.00,0.0005
3846.00,0.0005
3845.00,0.0005
3844.00,0.0005
3843.00,0.0004
3842.00,0.0004
3841.00,0.0005
3840.00,0.0005
3839.00,0.0005
3838.00,0.0005
3837.00,0.0005
3836.00,0.0005
3835.00,0.0004
3834.00,0.0004
3833.00,0.0004
3832.00,0.0004
3831.00,0.0004
3830.00,0.0004
3829.00,0.0004
3828.00,0.0004
3827.00,0.0004
3826.00,0.0005
3825.00,0.0005
3824.00,0.0004
3823.00,0.0004
3822.00,0.0005
3821.00,0.0005
3820.00,0.0005
3819.00,0.0004
3818.00,0.0004
3817.00,0.0004
3816.00,0.0004
3815.00,0.0005
3814.00,0.0006
3813.00,0.0006
3812.00,0.0006
3811.00,0.0007
3810.00,0.0006
3809.00,0.0006
3808.00,0.0006
3807.00,0.0006
3806.00,0.0006
3805.00,0.0006
3804.00,0.0005
3803.00,0.0005
3802.00,0.0006
3801.00,0.0006
3800.00,0.0005
3799.00,0.0005
3798.00,0.0005
3797.00,0.0005
3796.00,0.0005
3795.00,0.0005
3794.00,0.0005
3793.00,0.0005
3792.00,0.0005
3791.00,0.0005
3790.00,0.0006
3789.00,0.0006
3788.00,0.0006
3787.00,0.0005
3786.00,0.0005
3785.00,0.0005
3784.00,0.0005
3783.00,0.0005
3782.00,0.0005
3781.00,0.0005
3780.00,0.0006
3779.00,0.0006
3778.00,0.0006
3777.00,0.0007
3776.00,0.0007
3775.00,0.0007
3774.00,0.0007
3773.00,0.0007
3772.00,0.0007
3771.00,0.0007
3770.00,0.0006
3769.00,0.0006
3768.00,0.0006
3767.00,0.0006
3766.00,0.0006
3765.00,0.0006
3764.00,0.0007
3763.00,0.0006
3762.00,0.0006
3761.00,0.0006
3760.00,0.0006
3759.00,0.0006
3758.00,0.0006
3757.00,0.0006
3756.00,0.0006
3755.00,0.0006
3754.00,0.0005
3753.00,0.0005
3752.00,0.0006
3751.00,0.0006
3750.00,0.0007
3749.00,0.0007
3748.00,0.0006
3747.00,0.0005
3746.00,0.0005
3745.00,0.0005
3744.00,0.0005
3743.00,0.0005
3742.00,0.0004
3741.00,0.0003
3740.00,0.0003
3739.00,0.0003
3738.00,0.0003
3737.00,0.0003
3736.00,0.0004
3735.00,0.0003
3734.00,0.0003
3733.00,0.0003
3732.00,0.0002
3731.00,0.0002
3730.00,0.0002
3729.00,0.0002
3728.00,0.0003
3727.00,0.0003
3726.00,0.0003
3725.00,0.0003
3724.00,0.0002
3723.00,0.0002
3722.00,0.0003
3721.00,0.0003
3720.00,0.0004
3719.00,0.0004
3718.00,0.0004
3717.00,0.0004
3716.00,0.0004
3715.00,0.0004
3714.00,0.0004
3713.00,0.0003
3712.00,0.0003
3711.00,0.0002
3710.00,0.0002
3709.00,0.0002
3708.00,0.0002
3707.00,0.0003
3706.00,0.0003
3705.00,0.0003
3704.00,0.0003
3703.00,0.0003
3702.00,0.0003
3701.00,0.0003
3700.00,0.0003
3699.00,0.0003
3698.00,0.0003
3697.00,0.0003
3696.00,0.0003
3695.00,0.0003
3694.00,0.0003
3693.00,0.0003
3692.00,0.0003
3691.00,0.0003
3690.00,0.0003
3689.00,0.0003
3688.00,0.0003
3687.00,0.0004
3686.00,0.0004
3685.00,0.0004
3684.00,0.0004
3683.00,0.0005
3682.00,0.0004
3681.00,0.0004
3680.00,0.0004
3679.00,0.0004
3678.00,0.0003
3677.00,0.0003
3676.00,0.0003
3675.00,0.0003
3674.00,0.0003
3673.00,0.0002
3672.00,0.0003
3671.00,0.0003
3670.00,0.0004
3669.00,0.0004
3668.00,0.0004
3667.00,0.0003
3666.00,0.0003
3665.00,0.0003
3664.00,0.0004
3663.00,0.0004
3662.00,0.0004
3661.00,0.0004
3660.00,0.0004
3659.00,0.0004
3658.00,0.0004
3657.00,0.0004
3656.00,0.0005
3655.00,0.0005
3654.00,0.0005
3653.00,0.0004
3652.00,0.0004
3651.00,0.0004
3650.00,0.0003
3649.00,0.0003
3648.00,0.0002
3647.00,0.0003
3646.00,0.0004
3645.00,0.0004
3644.00,0.0004
3643.00,0.0004
3642.00,0.0004
3641.00,0.0004
3640.00,0.0003
3639.00,0.0003
3638.00,0.0003
3637.00,0.0003
3636.00,0.0003
3635.00,0.0004
3634.00,0.0004
3633.00,0.0004
3632.00,0.0003
3631.00,0.0003
3630.00,0.0003
3629.00,0.0004
3628.00,0.0004
3627.00,0.0003
3626.00,0.0003
3625.00,0.0004
3624.00,0.0004
3623.00,0.0004
3622.00,0.0004
3621.00,0.0004
3620.00,0.0004
3619.00,0.0004
3618.00,0.0004
3617.00,0.0004
3616.00,0.0004
3615.00,0.0004
3614.00,0.0004
3613.00,0.0004
3612.00,0.0004
3611.00,0.0004
3610.00,0.0004
3609.00,0.0004
3608.00,0.0003
3607.00,0.0003
3606.00,0.0003
3605.00,0.0003
3604.00,0.0004
3603.00,0.0004
3602.00,0.0004
3601.00,0.0004
3600.00,0.0005
3599.00,0.0005
3598.00,0.0005
3597.00,0.0005
3596.00,0.0005
3595.00,0.0005
3594.00,0.0005
3593.00,0.0004
3592.00,0.0004
3591.00,0.0004
3590.00,0.0005
3589.00,0.0005
3588.00,0.0005
3587.00,0.0006
3586.00,0.0006
3585.00,0.0006
3584.00,0.0006
3583.00,0.0006
3582.00,0.0006
3581.00,0.0006
3580.00,0.0006
3579.00,0.0006
3578.00,0.0007
3577.00,0.0008
3576.00,0.0008
3575.00,0.0008
3574.00,0.0008
3573.00,0.0007
3572.00,0.0007
3571.00,0.0007
3570.00,0.0007
3569.00,0.0008
3568.00,0.0008
3567.00,0.0008
3566.00,0.0008
3565.00,0.0007
3564.00,0.0007
3563.00,0.0007
3562.00,0.0008
3561.00,0.0009
3560.00,0.0009
3559.00,0.0009
3558.00,0.0009
3557.00,0.0009
3556.00,0.0009
3555.00,0.0009
3554.00,0.0009
3553.00,0.0009
3552.00,0.0009
3551.00,0.0010
3550.00,0.0010
3549.00,0.0010
3548.00,0.0011
3547.00,0.0011
3546.00,0.0011
3545.00,0.0012
3544.00,0.0012
3543.00,0.0012
3542.00,0.0012
3541.00,0.0013
3540.00,0.0013
3539.00,0.0013
3538.00,0.0013
3537.00,0.0013
3536.00,0.0014
3535.00,0.0014
3534.00,0.0014
3533.00,0.0014
3532.00,0.0014
3531.00,0.0014
3530.00,0.0014
3529.00,0.0015
3528.00,0.0015
3527.00,0.0015
3526.00,0.0015
3525.00,0.0016
3524.00,0.0016
3523.00,0.0016
3522.00,0.0015
3521.00,0.0015
3520.00,0.0016
3519.00,0.0016
3518.00,0.0016
3517.00,0.0016
3516.00,0.0017
3515.00,0.0017
3514.00,0.0017
3513.00,0.0017
3512.00,0.0017
3511.00,0.0016
3510.00,0.0016
3509.00,0.0016
3508.00,0.0016
3507.00,0.0016
3506.00,0.0016
3505.00,0.0016
3504.00,0.0017
3503.00,0.0017
3502.00,0.0018
3501.00,0.0018
3500.00,0.0018
3499.00,0.0018
3498.00,0.0018
3497.00,0.0018
3496.00,0.0018
3495.00,0.0019
3494.00,0.0019
3493.00,0.0020
3492.00,0.0020
3491.00,0.0019
3490.00,0.0019
3489.00,0.0019
3488.00,0.0019
3487.00,0.0020
3486.00,0.0020
3485.00,0.0020
3484.00,0.0021
3483.00,0.0021
3482.00,0.0021
3481.00,0.0021
3480.00,0.0021
3479.00,0.0021
3478.00,0.0022
3477.00,0.0022
3476.00,0.0022
3475.00,0.0022
3474.00,0.0022
3473.00,0.0022
3472.00,0.0023
3471.00,0.0023
3470.00,0.0023
3469.00,0.0023
3468.00,0.0023
3467.00,0.0023
3466.00,0.0023
3465.00,0.0023
3464.00,0.0023
3463.00,0.0024
3462.00,0.0024
3461.00,0.0024
3460.00,0.0024
3459.00,0.0025
3458.00,0.0025
3457.00,0.0025
3456.00,0.0025
3455.00,0.0024
3454.00,0.0024
3453.00,0.0024
3452.00,0.0025
3451.00,0.0025
3450.00,0.0025
3449.00,0.0025
3448.00,0.0025
3447.00,0.0025
3446.00,0.0025
3445.00,0.0026
3444.00,0.0026
3443.00,0.0026
3442.00,0.0027
3441.00,0.0027
3440.00,0.0028
3439.00,0.0028
3438.00,0.0028
3437.00,0.0028
3436.00,0.0028
3435.00,0.0028
3434.00,0.0028
3433.00,0.0028
3432.00,0.0028
3431.00,0.0028
3430.00,0.0028
3429.00,0.0029
3428.00,0.0029
3427.00,0.0029
3426.00,0.0030
3425.00,0.0030
3424.00,0.0030
3423.00,0.0030
3422.00,0.0030
3421.00,0.0030
3420.00,0.0030
3419.00,0.0030
3418.00,0.0030
3417.00,0.0031
3416.00,0.0031
3415.00,0.0031
3414.00,0.0031
3413.00,0.0032
3412.00,0.0032
3411.00,0.0032
3410.00,0.0032
3409.00,0.0032
3408.00,0.0031
3407.00,0.0031
3406.00,0.0031
3405.00,0.0031
3404.00,0.0031
3403.00,0.0031
3402.00,0.0031
3401.00,0.0031
3400.00,0.0031
3399.00,0.0031
3398.00,0.0031
3397.00,0.0031
3396.00,0.0031
3395.00,0.0031
3394.00,0.0031
3393.00,0.0031
3392.00,0.0031
3391.00,0.0031
3390.00,0.0031
3389.00,0.0031
3388.00,0.0031
3387.00,0.0031
3386.00,0.0032
3385.00,0.0032
3384.00,0.0032
3383.00,0.0032
3382.00,0.0032
3381.00,0.0032
3380.00,0.0032
3379.00,0.0032
3378.00,0.0032
3377.00,0.0032
3376.00,0.0033
3375.00,0.0032
3374.00,0.0032
3373.00,0.0032
3372.00,0.0032
3371.00,0.0033
3370.00,0.0033
3369.00,0.0033
3368.00,0.0033
3367.00,0.0032
3366.00,0.0032
3365.00,0.0032
3364.00,0.0033
3363.00,0.0033
3362.00,0.0033
3361.00,0.0033
3360.00,0.0033
3359.00,0.0032
3358.00,0.0032
3357.00,0.0033
3356.00,0.0033
3355.00,0.0033
3354.00,0.0033
3353.00,0.0033
3352.00,0.0033
3351.00,0.0033
3350.00,0.0033
3349.00,0.0032
3348.00,0.0033
3347.00,0.0033
3346.00,0.0033
3345.00,0.0033
3344.00,0.0033
3343.00,0.0033
3342.00,0.0033
3341.00,0.0033
3340.00,0.0033
3339.00,0.0033
3338.00,0.0032
3337.00,0.0032
3336.00,0.0033
3335.00,0.0033
3334.00,0.0033
3333.00,0.0033
3332.00,0.0033
3331.00,0.0032
3330.00,0.0032
3329.00,0.0032
3328.00,0.0032
3327.00,0.0033
3326.00,0.0033
3325.00,0.0033
3324.00,0.0032
3323.00,0.0032
3322.00,0.0031
3321.00,0.0031
3320.00,0.0031
3319.00,0.0032
3318.00,0.0032
3317.00,0.0032
3316.00,0.0032
3315.00,0.0032
3314.00,0.0032
3313.00,0.0032
3312.00,0.0031
3311.00,0.0031
3310.00,0.0031
3309.00,0.0031
3308.00,0.0031
3307.00,0.0031
3306.00,0.0031
3305.00,0.0030
3304.00,0.0030
3303.00,0.0031
3302.00,0.0031
3301.00,0.0031
3300.00,0.0031
3299.00,0.0031
3298.00,0.0031
3297.00,0.0030
3296.00,0.0030
3295.00,0.0030
3294.00,0.0030
3293.00,0.0030
3292.00,0.0030
3291.00,0.0030
3290.00,0.0030
3289.00,0.0030
3288.00,0.0030
3287.00,0.0030
3286.00,0.0030
3285.00,0.0030
3284.00,0.0030
3283.00,0.0030
3282.00,0.0030
3281.00,0.0029
3280.00,0.0029
3279.00,0.0029
3278.00,0.0029
3277.00,0.0029
3276.00,0.0030
3275.00,0.0030
3274.00,0.0030
3273.00,0.0029
3272.00,0.0029
3271.00,0.0028
3270.00,0.0028
3269.00,0.0028
3268.00,0.0028
3267.00,0.0029
3266.00,0.0029
3265.00,0.0029
3264.00,0.0029
3263.00,0.0028
3262.00,0.0028
3261.00,0.0027
3260.00,0.0027
3259.00,0.0027
3258.00,0.0028
3257.00,0.0028
3256.00,0.0028
3255.00,0.0028
3254.00,0.0028
3253.00,0.0027
3252.00,0.0027
3251.00,0.0027
3250.00,0.0027
3249.00,0.0027
3248.00,0.0027
3247.00,0.0027
3246.00,0.0027
3245.00,0.0027
3244.00,0.0027
3243.00,0.0027
3242.00,0.0027
3241.00,0.0027
3240.00,0.0027
3239.00,0.0027
3238.00,0.0027
3237.00,0.0026
3236.00,0.0026
3235.00,0.0026
3234.00,0.0027
3233.00,0.0027
3232.00,0.0027
3231.00,0.0027
3230.00,0.0027
3229.00,0.0027
3228.00,0.0028
3227.00,0.0028
3226.00,0.0028
3225.00,0.0029
3224.00,0.0029
3223.00,0.0029
3222.00,0.0030
3221.00,0.0030
3220.00,0.0030
3219.00,0.0030
3218.00,0.0031
3217.00,0.0031
3216.00,0.0032
3215.00,0.0032
3214.00,0.0032
3213.00,0.0032
3212.00,0.0032
3211.00,0.0032
3210.00,0.0032
3209.00,0.0032
3208.00,0.0032
3207.00,0.0032
3206.00,0.0032
3205.00,0.0033
3204.00,0.0033
3203.00,0.0034
3202.00,0.0034
3201.00,0.0034
3200.00,0.0034
3199.00,0.0034
3198.00,0.0034
3197.00,0.0034
3196.00,0.0034
3195.00,0.0034
3194.00,0.0034
3193.00,0.0034
3192.00,0.0034
3191.00,0.0034
3190.00,0.0034
3189.00,0.0034
3188.00,0.0034
3187.00,0.0033
3186.00,0.0033
3185.00,0.0033
3184.00,0.0033
3183.00,0.0033
3182.00,0.0033
3181.00,0.0032
3180.00,0.0032
3179.00,0.0032
3178.00,0.0032
3177.00,0.0032
3176.00,0.0031
3175.00,0.0031
3174.00,0.0031
3173.00,0.0030
3172.00,0.0030
3171.00,0.0030
3170.00,0.0029
3169.00,0.0029
3168.00,0.0030
3167.00,0.0030
3166.00,0.0030
3165.00,0.0029
3164.00,0.0029
3163.00,0.0029
3162.00,0.0029
3161.00,0.0029
3160.00,0.0029
3159.00,0.0029
3158.00,0.0029
3157.00,0.0029
3156.00,0.0030
3155.00,0.0030
3154.00,0.0030
3153.00,0.0030
3152.00,0.0030
3151.00,0.0030
3150.00,0.0030
3149.00,0.0031
3148.00,0.0031
3147.00,0.0030
3146.00,0.0030
3145.00,0.0030
3144.00,0.0029
3143.00,0.0029
3142.00,0.0029
3141.00,0.0028
3140.00,0.0028
3139.00,0.0029
3138.00,0.0029
3137.00,0.0028
3136.00,0.0028
3135.00,0.0028
3134.00,0.0028
3133.00,0.0028
3132.00,0.0028
3131.00,0.0028
3130.00,0.0028
3129.00,0.0027
3128.00,0.0027
3127.00,0.0027
3126.00,0.0026
3125.00,0.0026
3124.00,0.0026
3123.00,0.0026
3122.00,0.0026
3121.00,0.0026
3120.00,0.0026
3119.00,0.0025
3118.00,0.0024
3117.00,0.0024
3116.00,0.0024
3115.00,0.0025
3114.00,0.0025
3113.00,0.0025
3112.00,0.0025
3111.00,0.0024
3110.00,0.0024
3109.00,0.0024
3108.00,0.0024
3107.00,0.0023
3106.00,0.0024
3105.00,0.0024
3104.00,0.0024
3103.00,0.0024
3102.00,0.0024
3101.00,0.0024
3100.00,0.0024
3099.00,0.0023
3098.00,0.0023
3097.00,0.0023
3096.00,0.0023
3095.00,0.0023
3094.00,0.0023
3093.00,0.0023
3092.00,0.0023
3091.00,0.0022
3090.00,0.0022
3089.00,0.0023
3088.00,0.0023
3087.00,0.0023
3086.00,0.0022
3085.00,0.0022
3084.00,0.0022
3083.00,0.0022
3082.00,0.0022
3081.00,0.0022
3080.00,0.0022
3079.00,0.0022
3078.00,0.0022
3077.00,0.0022
3076.00,0.0022
3075.00,0.0022
3074.00,0.0022
3073.00,0.0022
3072.00,0.0022
3071.00,0.0022
3070.00,0.0023
3069.00,0.0023
3068.00,0.0023
3067.00,0.0024
3066.00,0.0024
3065.00,0.0025
3064.00,0.0025
3063.00,0.0025
3062.00,0.0025
3061.00,0.0025
3060.00,0.0026
3059.00,0.0026
3058.00,0.0026
3057.00,0.0026
3056.00,0.0026
3055.00,0.0026
3054.00,0.0026
3053.00,0.0026
3052.00,0.0026
3051.00,0.0026
3050.00,0.0026
3049.00,0.0026
3048.00,0.0027
3047.00,0.0027
3046.00,0.0028
3045.00,0.0028
3044.00,0.0028
3043.00,0.0028
3042.00,0.0028
3041.00,0.0028
3040.00,0.0028
3039.00,0.0029
3038.00,0.0029
3037.00,0.0030
3036.00,0.0030
3035.00,0.0030
3034.00,0.0030
3033.00,0.0031
3032.00,0.0031
3031.00,0.0031
3030.00,0.0031
3029.00,0.0032
3028.00,0.0033
3027.00,0.0034
3026.00,0.0035
3025.00,0.0036
3024.00,0.0036
3023.00,0.0037
3022.00,0.0037
3021.00,0.0038
3020.00,0.0039
3019.00,0.0040
3018.00,0.0041
3017.00,0.0042
3016.00,0.0043
3015.00,0.0044
3014.00,0.0045
3013.00,0.0046
3012.00,0.0048
3011.00,0.0050
3010.00,0.0051
3009.00,0.0053
3008.00,0.0055
3007.00,0.0057
3006.00,0.0059
3005.00,0.0061
3004.00,0.0063
3003.00,0.0065
3002.00,0.0068
3001.00,0.0071
3000.00,0.0074
2999.00,0.0077
2998.00,0.0080
2997.00,0.0083
2996.00,0.0087
2995.00,0.0091
2994.00,0.0097
2993.00,0.0103
2992.00,0.0109
2991.00,0.0116
2990.00,0.0124
2989.00,0.0132
2988.00,0.0140
2987.00,0.0150
2986.00,0.0161
2985.00,0.0174
2984.00,0.0187
2983.00,0.0203
2982.00,0.0221
2981.00,0.0241
2980.00,0.0263
2979.00,0.0289
2978.00,0.0317
2977.00,0.0350
2976.00,0.0387
2975.00,0.0429
2974.00,0.0478
2973.00,0.0533
2972.00,0.0596
2971.00,0.0667
2970.00,0.0747
2969.00,0.0836
2968.00,0.0934
2967.00,0.1041
2966.00,0.1155
2965.00,0.1276
2964.00,0.1400
2963.00,0.1523
2962.00,0.1638
2961.00,0.1741
2960.00,0.1825
2959.00,0.1889
2958.00,0.1933
2957.00,0.1964
2956.00,0.1985
2955.00,0.2006
2954.00,0.2028
2953.00,0.2052
2952.00,0.2072
2951.00,0.2080
2950.00,0.2066
2949.00,0.2023
2948.00,0.1946
2947.00,0.1839
2946.00,0.1708
2945.00,0.1568
2944.00,0.1430
2943.00,0.1308
2942.00,0.1208
2941.00,0.1135
2940.00,0.1087
2939.00,0.1063
2938.00,0.1061
2937.00,0.1077
2936.00,0.1111
2935.00,0.1160
2934.00,0.1223
2933.00,0.1297
2932.00,0.1381
2931.00,0.1472
2930.00,0.1568
2929.00,0.1665
2928.00,0.1760
2927.00,0.1851
2926.00,0.1936
2925.00,0.2015
2924.00,0.2090
2923.00,0.2162
2922.00,0.2231
2921.00,0.2297
2920.00,0.2356
2919.00,0.2402
2918.00,0.2428
2917.00,0.2430
2916.00,0.2406
2915.00,0.2361
2914.00,0.2300
2913.00,0.2231
2912.00,0.2161
2911.00,0.2094
2910.00,0.2032
2909.00,0.1976
2908.00,0.1923
2907.00,0.1870
2906.00,0.1815
2905.00,0.1755
2904.00,0.1691
2903.00,0.1622
2902.00,0.1552
2901.00,0.1481
2900.00,0.1411
2899.00,0.1345
2898.00,0.1283
2897.00,0.1227
2896.00,0.1178
2895.00,0.1136
2894.00,0.1102
2893.00,0.1074
2892.00,0.1054
2891.00,0.1040
2890.00,0.1032
2889.00,0.1030
2888.00,0.1031
2887.00,0.1036
2886.00,0.1045
2885.00,0.1058
2884.00,0.1074
2883.00,0.1094
2882.00,0.1117
2881.00,0.1142
2880.00,0.1165
2879.00,0.1185
2878.00,0.1196
2877.00,0.1198
2876.00,0.1192
2875.00,0.1182
2874.00,0.1173
2873.00,0.1169
2872.00,0.1174
2871.00,0.1186
2870.00,0.1203
2869.00,0.1220
2868.00,0.1230
2867.00,0.1225
2866.00,0.1197
2865.00,0.1145
2864.00,0.1070
2863.00,0.0982
2862.00,0.0889
2861.00,0.0802
2860.00,0.0726
2859.00,0.0664
2858.00,0.0617
2857.00,0.0584
2856.00,0.0561
2855.00,0.0548
2854.00,0.0542
2853.00,0.0545
2852.00,0.0554
2851.00,0.0571
2850.00,0.0596
2849.00,0.0629
2848.00,0.0670
2847.00,0.0722
2846.00,0.0782
2845.00,0.0852
2844.00,0.0931
2843.00,0.1015
2842.00,0.1101
2841.00,0.1182
2840.00,0.1251
2839.00,0.1296
2838.00,0.1308
2837.00,0.1282
2836.00,0.1219
2835.00,0.1124
2834.00,0.1011
2833.00,0.0891
2832.00,0.0777
2831.00,0.0675
2830.00,0.0589
2829.00,0.0519
2828.00,0.0462
2827.00,0.0417
2826.00,0.0379
2825.00,0.0349
2824.00,0.0324
2823.00,0.0302
2822.00,0.0283
2821.00,0.0267
2820.00,0.0253
2819.00,0.0241
2818.00,0.0230
2817.00,0.0221
2816.00,0.0213
2815.00,0.0206
2814.00,0.0200
2813.00,0.0194
2812.00,0.0189
2811.00,0.0184
2810.00,0.0179
2809.00,0.0174
2808.00,0.0168
2807.00,0.0162
2806.00,0.0155
2805.00,0.0148
2804.00,0.0141
2803.00,0.0135
2802.00,0.0130
2801.00,0.0125
2800.00,0.0121
2799.00,0.0118
2798.00,0.0115
2797.00,0.0113
2796.00,0.0111
2795.00,0.0109
2794.00,0.0107
2793.00,0.0104
2792.00,0.0100
2791.00,0.0096
2790.00,0.0092
2789.00,0.0088
2788.00,0.0085
2787.00,0.0082
2786.00,0.0079
2785.00,0.0076
2784.00,0.0073
2783.00,0.0071
2782.00,0.0069
2781.00,0.0066
2780.00,0.0065
2779.00,0.0063
2778.00,0.0061
2777.00,0.0059
2776.00,0.0058
2775.00,0.0057
2774.00,0.0056
2773.00,0.0055
2772.00,0.0054
2771.00,0.0053
2770.00,0.0053
2769.00,0.0053
2768.00,0.0052
2767.00,0.0052
2766.00,0.0052
2765.00,0.0052
2764.00,0.0052
2763.00,0.0052
2762.00,0.0052
2761.00,0.0051
2760.00,0.0051
2759.00,0.0051
2758.00,0.0051
2757.00,0.0050
2756.00,0.0050
2755.00,0.0050
2754.00,0.0050
2753.00,0.0050
2752.00,0.0049
2751.00,0.0049
2750.00,0.0049
2749.00,0.0049
2748.00,0.0049
2747.00,0.0050
2746.00,0.0050
2745.00,0.0051
2744.00,0.0051
2743.00,0.0052
2742.00,0.0053
2741.00,0.0055
2740.00,0.0057
2739.00,0.0058
2738.00,0.0060
2737.00,0.0061
2736.00,0.0062
2735.00,0.0064
2734.00,0.0065
2733.00,0.0067
2732.00,0.0069
2731.00,0.0071
2730.00,0.0073
2729.00,0.0075
2728.00,0.0078
2727.00,0.0080
2726.00,0.0083
2725.00,0.0086
2724.00,0.0088
2723.00,0.0088
2722.00,0.0087
2721.00,0.0085
2720.00,0.0082
2719.00,0.0079
2718.00,0.0075
2717.00,0.0072
2716.00,0.0069
2715.00,0.0066
2714.00,0.0064
2713.00,0.0062
2712.00,0.0059
2711.00,0.0058
2710.00,0.0056
2709.00,0.0055
2708.00,0.0054
2707.00,0.0053
2706.00,0.0051
2705.00,0.0050
2704.00,0.0049
2703.00,0.0048
2702.00,0.0047
2701.00,0.0046
2700.00,0.0045
2699.00,0.0045
2698.00,0.0044
2697.00,0.0044
2696.00,0.0044
2695.00,0.0044
2694.00,0.0044
2693.00,0.0044
2692.00,0.0043
2691.00,0.0043
2690.00,0.0044
2689.00,0.0044
2688.00,0.0044
2687.00,0.0044
2686.00,0.0043
2685.00,0.0044
2684.00,0.0044
2683.00,0.0044
2682.00,0.0044
2681.00,0.0044
2680.00,0.0044
2679.00,0.0044
2678.00,0.0044
2677.00,0.0044
2676.00,0.0044
2675.00,0.0044
2674.00,0.0043
2673.00,0.0043
2672.00,0.0043
2671.00,0.0043
2670.00,0.0043
2669.00,0.0043
2668.00,0.0043
2667.00,0.0043
2666.00,0.0043
2665.00,0.0044
2664.00,0.0045
2663.00,0.0045
2662.00,0.0046
2661.00,0.0046
2660.00,0.0046
2659.00,0.0046
2658.00,0.0046
2657.00,0.0046
2656.00,0.0046
2655.00,0.0045
2654.00,0.0045
2653.00,0.0044
2652.00,0.0044
2651.00,0.0043
2650.00,0.0043
2649.00,0.0042
2648.00,0.0042
2647.00,0.0042
2646.00,0.0042
2645.00,0.0041
2644.00,0.0041
2643.00,0.0041
2642.00,0.0040
2641.00,0.0040
2640.00,0.0039
2639.00,0.0038
2638.00,0.0037
2637.00,0.0037
2636.00,0.0036
2635.00,0.0036
2634.00,0.0037
2633.00,0.0037
2632.00,0.0038
2631.00,0.0038
2630.00,0.0038
2629.00,0.0038
2628.00,0.0038
2627.00,0.0038
2626.00,0.0038
2625.00,0.0039
2624.00,0.0039
2623.00,0.0039
2622.00,0.0040
2621.00,0.0040
2620.00,0.0040
2619.00,0.0040
2618.00,0.0041
2617.00,0.0040
2616.00,0.0040
2615.00,0.0040
2614.00,0.0039
2613.00,0.0039
2612.00,0.0038
2611.00,0.0037
2610.00,0.0037
2609.00,0.0036
2608.00,0.0035
2607.00,0.0034
2606.00,0.0033
2605.00,0.0033
2604.00,0.0032
2603.00,0.0031
2602.00,0.0031
2601.00,0.0030
2600.00,0.0030
2599.00,0.0030
2598.00,0.0030
2597.00,0.0030
2596.00,0.0030
2595.00,0.0030
2594.00,0.0031
2593.00,0.0031
2592.00,0.0032
2591.00,0.0032
2590.00,0.0032
2589.00,0.0033
2588.00,0.0033
2587.00,0.0035
2586.00,0.0036
2585.00,0.0038
2584.00,0.0038
2583.00,0.0039
2582.00,0.0038
2581.00,0.0038
2580.00,0.0037
2579.00,0.0037
2578.00,0.0036
2577.00,0.0036
2576.00,0.0035
2575.00,0.0034
2574.00,0.0033
2573.00,0.0032
2572.00,0.0030
2571.00,0.0029
2570.00,0.0029
2569.00,0.0028
2568.00,0.0027
2567.00,0.0027
2566.00,0.0025
2565.00,0.0024
2564.00,0.0023
2563.00,0.0022
2562.00,0.0022
2561.00,0.0022
2560.00,0.0022
2559.00,0.0022
2558.00,0.0022
2557.00,0.0022
2556.00,0.0022
2555.00,0.0022
2554.00,0.0022
2553.00,0.0022
2552.00,0.0022
2551.00,0.0021
2550.00,0.0021
2549.00,0.0020
2548.00,0.0019
2547.00,0.0018
2546.00,0.0017
2545.00,0.0017
2544.00,0.0016
2543.00,0.0016
2542.00,0.0015
2541.00,0.0015
2540.00,0.0015
2539.00,0.0015
2538.00,0.0015
2537.00,0.0015
2536.00,0.0015
2535.00,0.0015
2534.00,0.0015
2533.00,0.0015
2532.00,0.0015
2531.00,0.0015
2530.00,0.0015
2529.00,0.0014
2528.00,0.0013
2527.00,0.0013
2526.00,0.0012
2525.00,0.0012
2524.00,0.0013
2523.00,0.0013
2522.00,0.0013
2521.00,0.0012
2520.00,0.0012
2519.00,0.0011
2518.00,0.0011
2517.00,0.0010
2516.00,0.0010
2515.00,0.0010
2514.00,0.0010
2513.00,0.0009
2512.00,0.0009
2511.00,0.0009
2510.00,0.0009
2509.00,0.0009
2508.00,0.0010
2507.00,0.0010
2506.00,0.0009
2505.00,0.0009
2504.00,0.0009
2503.00,0.0009
2502.00,0.0009
2501.00,0.0010
2500.00,0.0010
2499.00,0.0011
2498.00,0.0011
2497.00,0.0010
2496.00,0.0010
2495.00,0.0009
2494.00,0.0009
2493.00,0.0008
2492.00,0.0008
2491.00,0.0007
2490.00,0.0007
2489.00,0.0008
2488.00,0.0009
2487.00,0.0009
2486.00,0.0010
2485.00,0.0010
2484.00,0.0009
2483.00,0.0009
2482.00,0.0008
2481.00,0.0008
2480.00,0.0008
2479.00,0.0008
2478.00,0.0008
2477.00,0.0008
2476.00,0.0009
2475.00,0.0009
2474.00,0.0009
2473.00,0.0009
2472.00,0.0009
2471.00,0.0008
2470.00,0.0008
2469.00,0.0008
2468.00,0.0007
2467.00,0.0007
2466.00,0.0007
2465.00,0.0007
2464.00,0.0007
2463.00,0.0008
2462.00,0.0009
2461.00,0.0009
2460.00,0.0009
2459.00,0.0009
2458.00,0.0009
2457.00,0.0009
2456.00,0.0009
2455.00,0.0009
2454.00,0.0010
2453.00,0.0010
2452.00,0.0010
2451.00,0.0010
2450.00,0.0011
2449.00,0.0011
2448.00,0.0011
2447.00,0.0011
2446.00,0.0010
2445.00,0.0010
2444.00,0.0010
2443.00,0.0010
2442.00,0.0010
2441.00,0.0010
2440.00,0.0010
2439.00,0.0011
2438.00,0.0011
2437.00,0.0012
2436.00,0.0012
2435.00,0.0012
2434.00,0.0012
2433.00,0.0012
2432.00,0.0012
2431.00,0.0012
2430.00,0.0011
2429.00,0.0011
2428.00,0.0010
2427.00,0.0010
2426.00,0.0011
2425.00,0.0011
2424.00,0.0012
2423.00,0.0011
2422.00,0.0011
2421.00,0.0011
2420.00,0.0011
2419.00,0.0011
2418.00,0.0010
2417.00,0.0009
2416.00,0.0009
2415.00,0.0008
2414.00,0.0008
2413.00,0.0008
2412.00,0.0007
2411.00,0.0008
2410.00,0.0008
2409.00,0.0008
2408.00,0.0008
2407.00,0.0008
2406.00,0.0007
2405.00,0.0007
2404.00,0.0007
2403.00,0.0007
2402.00,0.0008
2401.00,0.0008
2400.00,0.0008
2399.00,0.0008
2398.00,0.0008
2397.00,0.0008
2396.00,0.0008
2395.00,0.0008
2394.00,0.0008
2393.00,0.0007
2392.00,0.0007
2391.00,0.0007
2390.00,0.0007
2389.00,0.0007
2388.00,0.0007
2387.00,0.0006
2386.00,0.0006
2385.00,0.0005
2384.00,0.0003
2383.00,0.0002
2382.00,0.0001
2381.00,0.0000
2380.00,-0.0000
2379.00,-0.0001
2378.00,-0.0001
2377.00,-0.0001
2376.00,-0.0000
2375.00,-0.0000
2374.00,-0.0000
2373.00,-0.0000
2372.00,-0.0000
2371.00,-0.0001
2370.00,-0.0001
2369.00,-0.0002
2368.00,-0.0003
2367.00,-0.0004
2366.00,-0.0005
2365.00,-0.0004
2364.00,-0.0003
2363.00,-0.0002
2362.00,-0.0001
2361.00,-0.0000
2360.00,-0.0000
2359.00,-0.0000
2358.00,-0.0001
2357.00,-0.0000
2356.00,-0.0000
2355.00,-0.0000
2354.00,-0.0000
2353.00,-0.0001
2352.00,-0.0001
2351.00,-0.0001
2350.00,-0.0001
2349.00,-0.0001
2348.00,-0.0000
2347.00,-0.0000
2346.00,-0.0000
2345.00,0.0000
2344.00,0.0001
2343.00,0.0001
2342.00,0.0000
2341.00,0.0000
2340.00,0.0001
2339.00,0.0002
2338.00,0.0003
2337.00,0.0003
2336.00,0.0004
2335.00,0.0003
2334.00,0.0003
2333.00,0.0002
2332.00,0.0002
2331.00,0.0002
2330.00,0.0002
2329.00,0.0004
2328.00,0.0006
2327.00,0.0009
2326.00,0.0012
2325.00,0.0015
2324.00,0.0017
2323.00,0.0016
2322.00,0.0015
2321.00,0.0013
2320.00,0.0012
2319.00,0.0011
2318.00,0.0011
2317.00,0.0010
2316.00,0.0009
2315.00,0.0008
2314.00,0.0008
2313.00,0.0007
2312.00,0.0007
2311.00,0.0007
2310.00,0.0007
2309.00,0.0007
2308.00,0.0007
2307.00,0.0007
2306.00,0.0007
2305.00,0.0007
2304.00,0.0007
2303.00,0.0007
2302.00,0.0007
2301.00,0.0008
2300.00,0.0009
2299.00,0.0010
2298.00,0.0010
2297.00,0.0011
2296.00,0.0011
2295.00,0.0011
2294.00,0.0012
2293.00,0.0013
2292.00,0.0014
2291.00,0.0016
2290.00,0.0017
2289.00,0.0018
2288.00,0.0018
2287.00,0.0019
2286.00,0.0019
2285.00,0.0019
2284.00,0.0019
2283.00,0.0017
2282.00,0.0016
2281.00,0.0015
2280.00,0.0015
2279.00,0.0014
2278.00,0.0014
2277.00,0.0014
2276.00,0.0014
2275.00,0.0013
2274.00,0.0012
2273.00,0.0011
2272.00,0.0012
2271.00,0.0012
2270.00,0.0012
2269.00,0.0012
2268.00,0.0012
2267.00,0.0011
2266.00,0.0009
2265.00,0.0008
2264.00,0.0007
2263.00,0.0008
2262.00,0.0009
2261.00,0.0010
2260.00,0.0012
2259.00,0.0013
2258.00,0.0013
2257.00,0.0012
2256.00,0.0011
2255.00,0.0010
2254.00,0.0009
2253.00,0.0008
2252.00,0.0007
2251.00,0.0006
2250.00,0.0006
2249.00,0.0006
2248.00,0.0006
2247.00,0.0007
2246.00,0.0007
2245.00,0.0007
2244.00,0.0007
2243.00,0.0008
2242.00,0.0008
2241.00,0.0009
2240.00,0.0010
2239.00,0.0010
2238.00,0.0010
2237.00,0.0010
2236.00,0.0009
2235.00,0.0008
2234.00,0.0007
2233.00,0.0006
2232.00,0.0006
2231.00,0.0006
2230.00,0.0006
2229.00,0.0005
2228.00,0.0005
2227.00,0.0005
2226.00,0.0005
2225.00,0.0006
2224.00,0.0006
2223.00,0.0007
2222.00,0.0008
2221.00,0.0008
2220.00,0.0006
2219.00,0.0004
2218.00,0.0003
2217.00,0.0003
2216.00,0.0005
2215.00,0.0007
2214.00,0.0007
2213.00,0.0006
2212.00,0.0004
2211.00,0.0003
2210.00,0.0003
2209.00,0.0004
2208.00,0.0005
2207.00,0.0006
2206.00,0.0006
2205.00,0.0007
2204.00,0.0007
2203.00,0.0007
2202.00,0.0007
2201.00,0.0006
2200.00,0.0005
2199.00,0.0003
2198.00,0.0002
2197.00,0.0003
2196.00,0.0005
2195.00,0.0008
2194.00,0.0011
2193.00,0.0013
2192.00,0.0013
2191.00,0.0013
2190.00,0.0012
2189.00,0.0014
2188.00,0.0015
2187.00,0.0017
2186.00,0.0017
2185.00,0.0016
2184.00,0.0014
2183.00,0.0011
2182.00,0.0007
2181.00,0.0005
2180.00,0.0006
2179.00,0.0007
2178.00,0.0007
2177.00,0.0006
2176.00,0.0004
2175.00,0.0004
2174.00,0.0005
2173.00,0.0007
2172.00,0.0009
2171.00,0.0011
2170.00,0.0013
2169.00,0.0014
2168.00,0.0015
2167.00,0.0016
2166.00,0.0018
2165.00,0.0020
2164.00,0.0022
2163.00,0.0021
2162.00,0.0018
2161.00,0.0010
2160.00,-0.0003
2159.00,-0.0017
2158.00,-0.0026
2157.00,-0.0029
2156.00,-0.0026
2155.00,-0.0021
2154.00,-0.0018
2153.00,-0.0017
2152.00,-0.0017
2151.00,-0.0017
2150.00,-0.0016
2149.00,-0.0014
2148.00,-0.0014
2147.00,-0.0015
2146.00,-0.0016
2145.00,-0.0016
2144.00,-0.0015
2143.00,-0.0014
2142.00,-0.0012
2141.00,-0.0012
2140.00,-0.0012
2139.00,-0.0014
2138.00,-0.0015
2137.00,-0.0015
2136.00,-0.0014
2135.00,-0.0014
2134.00,-0.0016
2133.00,-0.0018
2132.00,-0.0018
2131.00,-0.0017
2130.00,-0.0015
2129.00,-0.0013
2128.00,-0.0012
2127.00,-0.0011
2126.00,-0.0011
2125.00,-0.0010
2124.00,-0.0010
2123.00,-0.0009
2122.00,-0.0008
2121.00,-0.0007
2120.00,-0.0006
2119.00,-0.0006
2118.00,-0.0005
2117.00,-0.0004
2116.00,-0.0003
2115.00,-0.0002
2114.00,-0.0001
2113.00,-0.0001
2112.00,-0.0001
2111.00,-0.0000
2110.00,0.0000
2109.00,0.0001
2108.00,0.0002
2107.00,0.0001
2106.00,0.0001
2105.00,-0.0000
2104.00,-0.0001
2103.00,-0.0002
2102.00,-0.0002
2101.00,-0.0001
2100.00,-0.0001
2099.00,-0.0001
2098.00,-0.0001
2097.00,-0.0001
2096.00,-0.0003
2095.00,-0.0005
2094.00,-0.0006
2093.00,-0.0006
2092.00,-0.0004
2091.00,-0.0003
2090.00,-0.0003
2089.00,-0.0002
2088.00,-0.0002
2087.00,-0.0000
2086.00,0.0001
2085.00,0.0002
2084.00,0.0003
2083.00,0.0003
2082.00,0.0003
2081.00,0.0004
2080.00,0.0004
2079.00,0.0004
2078.00,0.0004
2077.00,0.0004
2076.00,0.0003
2075.00,0.0003
2074.00,0.0004
2073.00,0.0004
2072.00,0.0004
2071.00,0.0002
2070.00,0.0001
2069.00,0.0000
2068.00,-0.0000
2067.00,-0.0001
2066.00,-0.0001
2065.00,-0.0001
2064.00,0.0000
2063.00,0.0001
2062.00,0.0001
2061.00,0.0000
2060.00,-0.0002
2059.00,-0.0004
2058.00,-0.0004
2057.00,-0.0003
2056.00,-0.0001
2055.00,0.0000
2054.00,0.0002
2053.00,0.0005
2052.00,0.0008
2051.00,0.0009
2050.00,0.0009
2049.00,0.0007
2048.00,0.0005
2047.00,0.0005
2046.00,0.0003
2045.00,0.0001
2044.00,-0.0002
2043.00,-0.0005
2042.00,-0.0006
2041.00,-0.0004
2040.00,-0.0002
2039.00,-0.0000
2038.00,0.0001
2037.00,0.0001
2036.00,-0.0001
2035.00,-0.0005
2034.00,-0.0007
2033.00,-0.0009
2032.00,-0.0009
2031.00,-0.0009
2030.00,-0.0009
2029.00,-0.0008
2028.00,-0.0007
2027.00,-0.0005
2026.00,-0.0003
2025.00,-0.0003
2024.00,-0.0004
2023.00,-0.0007
2022.00,-0.0010
2021.00,-0.0012
2020.00,-0.0014
2019.00,-0.0015
2018.00,-0.0016
2017.00,-0.0015
2016.00,-0.0012
2015.00,-0.0009
2014.00,-0.0007
2013.00,-0.0007
2012.00,-0.0010
2011.00,-0.0013
2010.00,-0.0014
2009.00,-0.0015
2008.00,-0.0015
2007.00,-0.0017
2006.00,-0.0018
2005.00,-0.0017
2004.00,-0.0016
2003.00,-0.0014
2002.00,-0.0012
2001.00,-0.0011
2000.00,-0.0010
1999.00,-0.0012
1998.00,-0.0015
1997.00,-0.0016
1996.00,-0.0016
1995.00,-0.0014
1994.00,-0.0011
1993.00,-0.0009
1992.00,-0.0007
1991.00,-0.0006
1990.00,-0.0006
1989.00,-0.0005
1988.00,-0.0004
1987.00,-0.0003
1986.00,-0.0003
1985.00,-0.0003
1984.00,-0.0002
1983.00,-0.0001
1982.00,0.0001
1981.00,0.0003
1980.00,0.0004
1979.00,0.0001
1978.00,-0.0005
1977.00,-0.0012
1976.00,-0.0015
1975.00,-0.0016
1974.00,-0.0015
1973.00,-0.0013
1972.00,-0.0011
1971.00,-0.0010
1970.00,-0.0011
1969.00,-0.0014
1968.00,-0.0018
1967.00,-0.0022
1966.00,-0.0023
1965.00,-0.0022
1964.00,-0.0020
1963.00,-0.0019
1962.00,-0.0019
1961.00,-0.0019
1960.00,-0.0020
1959.00,-0.0022
1958.00,-0.0023
1957.00,-0.0022
1956.00,-0.0020
1955.00,-0.0019
1954.00,-0.0019
1953.00,-0.0020
1952.00,-0.0020
1951.00,-0.0019
1950.00,-0.0018
1949.00,-0.0016
1948.00,-0.0015
1947.00,-0.0015
1946.00,-0.0016
1945.00,-0.0017
1944.00,-0.0019
1943.00,-0.0019
1942.00,-0.0019
1941.00,-0.0018
1940.00,-0.0016
1939.00,-0.0014
1938.00,-0.0013
1937.00,-0.0011
1936.00,-0.0011
1935.00,-0.0011
1934.00,-0.0012
1933.00,-0.0013
1932.00,-0.0014
1931.00,-0.0014
1930.00,-0.0015
1929.00,-0.0015
1928.00,-0.0014
1927.00,-0.0014
1926.00,-0.0013
1925.00,-0.0012
1924.00,-0.0010
1923.00,-0.0008
1922.00,-0.0007
1921.00,-0.0005
1920.00,-0.0004
1919.00,-0.0004
1918.00,-0.0005
1917.00,-0.0006
1916.00,-0.0007
1915.00,-0.0007
1914.00,-0.0007
1913.00,-0.0007
1912.00,-0.0007
1911.00,-0.0007
1910.00,-0.0006
1909.00,-0.0006
1908.00,-0.0005
1907.00,-0.0004
1906.00,-0.0005
1905.00,-0.0006
1904.00,-0.0007
1903.00,-0.0008
1902.00,-0.0008
1901.00,-0.0007
1900.00,-0.0005
1899.00,-0.0004
1898.00,-0.0004
1897.00,-0.0004
1896.00,-0.0004
1895.00,-0.0004
1894.00,-0.0003
1893.00,-0.0003
1892.00,-0.0002
1891.00,-0.0002
1890.00,-0.0002
1889.00,-0.0002
1888.00,-0.0001
1887.00,-0.0001
1886.00,-0.0001
1885.00,-0.0001
1884.00,-0.0002
1883.00,-0.0002
1882.00,-0.0003
1881.00,-0.0003
1880.00,-0.0002
1879.00,-0.0002
1878.00,-0.0002
1877.00,-0.0003
1876.00,-0.0003
1875.00,-0.0004
1874.00,-0.0003
1873.00,-0.0003
1872.00,-0.0003
1871.00,-0.0003
1870.00,-0.0004
1869.00,-0.0004
1868.00,-0.0003
1867.00,-0.0002
1866.00,-0.0001
1865.00,-0.0000
1864.00,-0.0000
1863.00,0.0000
1862.00,-0.0000
1861.00,-0.0001
1860.00,-0.0001
1859.00,-0.0002
1858.00,-0.0002
1857.00,-0.0002
1856.00,-0.0001
1855.00,-0.0001
1854.00,-0.0001
1853.00,-0.0001
1852.00,-0.0001
1851.00,-0.0000
1850.00,0.0000
1849.00,0.0000
1848.00,0.0001
1847.00,0.0000
1846.00,0.0000
1845.00,0.0000
1844.00,0.0000
1843.00,0.0001
1842.00,0.0001
1841.00,0.0001
1840.00,0.0001
1839.00,0.0000
1838.00,-0.0000
1837.00,-0.0001
1836.00,-0.0001
1835.00,-0.0001
1834.00,-0.0000
1833.00,0.0000
1832.00,0.0000
1831.00,0.0001
1830.00,0.0001
1829.00,0.0002
1828.00,0.0002
1827.00,0.0003
1826.00,0.0003
1825.00,0.0003
1824.00,0.0003
1823.00,0.0002
1822.00,0.0001
1821.00,0.0001
1820.00,0.0000
1819.00,-0.0000
1818.00,-0.0001
1817.00,-0.0002
1816.00,-0.0001
1815.00,-0.0001
1814.00,0.0000
1813.00,0.0000
1812.00,0.0001
1811.00,0.0001
1810.00,0.0001
1809.00,0.0001
1808.00,0.0002
1807.00,0.0002
1806.00,0.0002
1805.00,0.0003
1804.00,0.0003
1803.00,0.0003
1802.00,0.0003
1801.00,0.0003
1800.00,0.0003
1799.00,0.0003
1798.00,0.0003
1797.00,0.0003
1796.00,0.0003
1795.00,0.0003
1794.00,0.0003
1793.00,0.0003
1792.00,0.0004
1791.00,0.0005
1790.00,0.0005
1789.00,0.0005
1788.00,0.0005
1787.00,0.0005
1786.00,0.0005
1785.00,0.0005
1784.00,0.0005
1783.00,0.0005
1782.00,0.0005
1781.00,0.0005
1780.00,0.0005
1779.00,0.0005
1778.00,0.0005
1777.00,0.0005
1776.00,0.0005
1775.00,0.0005
1774.00,0.0006
1773.00,0.0006
1772.00,0.0007
1771.00,0.0007
1770.00,0.0007
1769.00,0.0008
1768.00,0.0008
1767.00,0.0008
1766.00,0.0008
1765.00,0.0008
1764.00,0.0008
1763.00,0.0009
1762.00,0.0009
1761.00,0.0010
1760.00,0.0010
1759.00,0.0010
1758.00,0.0010
1757.00,0.0011
1756.00,0.0012
1755.00,0.0012
1754.00,0.0012
1753.00,0.0013
1752.00,0.0013
1751.00,0.0013
1750.00,0.0012
1749.00,0.0012
1748.00,0.0012
1747.00,0.0012
1746.00,0.0013
1745.00,0.0013
1744.00,0.0014
1743.00,0.0014
1742.00,0.0015
1741.00,0.0015
1740.00,0.0016
1739.00,0.0016
1738.00,0.0016
1737.00,0.0015
1736.00,0.0015
1735.00,0.0015
1734.00,0.0015
1733.00,0.0014
1732.00,0.0014
1731.00,0.0014
1730.00,0.0015
1729.00,0.0015
1728.00,0.0016
1727.00,0.0016
1726.00,0.0016
1725.00,0.0016
1724.00,0.0017
1723.00,0.0017
1722.00,0.0017
1721.00,0.0017
1720.00,0.0016
1719.00,0.0016
1718.00,0.0017
1717.00,0.0017
1716.00,0.0017
1715.00,0.0017
1714.00,0.0017
1713.00,0.0017
1712.00,0.0018
1711.00,0.0018
1710.00,0.0018
1709.00,0.0019
1708.00,0.0019
1707.00,0.0019
1706.00,0.0019
1705.00,0.0019
1704.00,0.0019
1703.00,0.0019
1702.00,0.0019
1701.00,0.0019
1700.00,0.0020
1699.00,0.0020
1698.00,0.0020
1697.00,0.0021
1696.00,0.0022
1695.00,0.0022
1694.00,0.0022
1693.00,0.0022
1692.00,0.0022
1691.00,0.0022
1690.00,0.0023
1689.00,0.0023
1688.00,0.0023
1687.00,0.0023
1686.00,0.0023
1685.00,0.0023
1684.00,0.0024
1683.00,0.0024
1682.00,0.0024
1681.00,0.0025
1680.00,0.0026
1679.00,0.0026
1678.00,0.0027
1677.00,0.0027
1676.00,0.0028
1675.00,0.0028
1674.00,0.0028
1673.00,0.0028
1672.00,0.0028
1671.00,0.0029
1670.00,0.0029
1669.00,0.0030
1668.00,0.0031
1667.00,0.0031
1666.00,0.0031
1665.00,0.0031
1664.00,0.0031
1663.00,0.0031
1662.00,0.0031
1661.00,0.0031
1660.00,0.0031
1659.00,0.0032
1658.00,0.0033
1657.00,0.0033
1656.00,0.0034
1655.00,0.0035
1654.00,0.0035
1653.00,0.0035
1652.00,0.0035
1651.00,0.0036
1650.00,0.0036
1649.00,0.0037
1648.00,0.0037
1647.00,0.0038
1646.00,0.0039
1645.00,0.0039
1644.00,0.0039
1643.00,0.0040
1642.00,0.0040
1641.00,0.0040
1640.00,0.0040
1639.00,0.0040
1638.00,0.0040
1637.00,0.0040
1636.00,0.0041
1635.00,0.0041
1634.00,0.0040
1633.00,0.0040
1632.00,0.0040
1631.00,0.0040
1630.00,0.0040
1629.00,0.0040
1628.00,0.0039
1627.00,0.0039
1626.00,0.0039
1625.00,0.0038
1624.00,0.0038
1623.00,0.0038
1622.00,0.0038
1621.00,0.0038
1620.00,0.0038
1619.00,0.0038
1618.00,0.0037
1617.00,0.0037
1616.00,0.0037
1615.00,0.0037
1614.00,0.0037
1613.00,0.0037
1612.00,0.0037
1611.00,0.0037
1610.00,0.0037
1609.00,0.0037
1608.00,0.0038
1607.00,0.0038
1606.00,0.0038
1605.00,0.0037
1604.00,0.0037
1603.00,0.0036
1602.00,0.0036
1601.00,0.0035
1600.00,0.0035
1599.00,0.0034
1598.00,0.0034
1597.00,0.0035
1596.00,0.0035
1595.00,0.0035
1594.00,0.0035
1593.00,0.0035
1592.00,0.0034
1591.00,0.0035
1590.00,0.0035
1589.00,0.0035
1588.00,0.0035
1587.00,0.0035
1586.00,0.0035
1585.00,0.0036
1584.00,0.0036
1583.00,0.0036
1582.00,0.0036
1581.00,0.0036
1580.00,0.0036
1579.00,0.0036
1578.00,0.0036
1577.00,0.0036
1576.00,0.0036
1575.00,0.0036
1574.00,0.0036
1573.00,0.0037
1572.00,0.0037
1571.00,0.0037
1570.00,0.0037
1569.00,0.0037
1568.00,0.0037
1567.00,0.0038
1566.00,0.0038
1565.00,0.0038
1564.00,0.0039
1563.00,0.0040
1562.00,0.0040
1561.00,0.0040
1560.00,0.0041
1559.00,0.0040
1558.00,0.0039
1557.00,0.0039
1556.00,0.0039
1555.00,0.0040
1554.00,0.0040
1553.00,0.0041
1552.00,0.0042
1551.00,0.0042
1550.00,0.0042
1549.00,0.0043
1548.00,0.0043
1547.00,0.0044
1546.00,0.0044
1545.00,0.0045
1544.00,0.0046
1543.00,0.0047
1542.00,0.0046
1541.00,0.0046
1540.00,0.0045
1539.00,0.0044
1538.00,0.0044
1537.00,0.0045
1536.00,0.0045
1535.00,0.0045
1534.00,0.0045
1533.00,0.0044
1532.00,0.0044
1531.00,0.0044
1530.00,0.0044
1529.00,0.0044
1528.00,0.0044
1527.00,0.0043
1526.00,0.0043
1525.00,0.0043
1524.00,0.0043
1523.00,0.0043
1522.00,0.0043
1521.00,0.0043
1520.00,0.0043
1519.00,0.0043
1518.00,0.0043
1517.00,0.0043
1516.00,0.0044
1515.00,0.0045
1514.00,0.0045
1513.00,0.0046
1512.00,0.0048
1511.00,0.0048
1510.00,0.0049
1509.00,0.0050
1508.00,0.0052
1507.00,0.0052
1506.00,0.0052
1505.00,0.0053
1504.00,0.0054
1503.00,0.0055
1502.00,0.0056
1501.00,0.0058
1500.00,0.0060
1499.00,0.0063
1498.00,0.0065
1497.00,0.0069
1496.00,0.0073
1495.00,0.0076
1494.00,0.0079
1493.00,0.0082
1492.00,0.0085
1491.00,0.0087
1490.00,0.0089
1489.00,0.0093
1488.00,0.0097
1487.00,0.0102
1486.00,0.0106
1485.00,0.0111
1484.00,0.0117
1483.00,0.0124
1482.00,0.0132
1481.00,0.0142
1480.00,0.0153
1479.00,0.0164
1478.00,0.0178
1477.00,0.0197
1476.00,0.0219
1475.00,0.0243
1474.00,0.0277
1473.00,0.0328
1472.00,0.0392
1471.00,0.0456
1470.00,0.0516
1469.00,0.0580
1468.00,0.0649
1467.00,0.0726
1466.00,0.0815
1465.00,0.0912
1464.00,0.1000
1463.00,0.1063
1462.00,0.1108
1461.00,0.1142
1460.00,0.1168
1459.00,0.1191
1458.00,0.1214
1457.00,0.1239
1456.00,0.1254
1455.00,0.1258
1454.00,0.1257
1453.00,0.1249
1452.00,0.1232
1451.00,0.1200
1450.00,0.1150
1449.00,0.1075
1448.00,0.0976
1447.00,0.0868
1446.00,0.0769
1445.00,0.0684
1444.00,0.0612
1443.00,0.0553
1442.00,0.0509
1441.00,0.0479
1440.00,0.0459
1439.00,0.0449
1438.00,0.0446
1437.00,0.0440
1436.00,0.0424
1435.00,0.0393
1434.00,0.0354
1433.00,0.0309
1432.00,0.0262
1431.00,0.0222
1430.00,0.0190
1429.00,0.0168
1428.00,0.0152
1427.00,0.0143
1426.00,0.0137
1425.00,0.0131
1424.00,0.0125
1423.00,0.0121
1422.00,0.0119
1421.00,0.0116
1420.00,0.0113
1419.00,0.0111
1418.00,0.0110
1417.00,0.0108
1416.00,0.0107
1415.00,0.0106
1414.00,0.0105
1413.00,0.0104
1412.00,0.0102
1411.00,0.0102
1410.00,0.0102
1409.00,0.0102
1408.00,0.0101
1407.00,0.0102
1406.00,0.0103
1405.00,0.0103
1404.00,0.0103
1403.00,0.0105
1402.00,0.0107
1401.00,0.0108
1400.00,0.0109
1399.00,0.0111
1398.00,0.0114
1397.00,0.0116
1396.00,0.0119
1395.00,0.0123
1394.00,0.0129
1393.00,0.0134
1392.00,0.0141
1391.00,0.0151
1390.00,0.0164
1389.00,0.0182
1388.00,0.0210
1387.00,0.0251
1386.00,0.0305
1385.00,0.0372
1384.00,0.0458
1383.00,0.0573
1382.00,0.0721
1381.00,0.0906
1380.00,0.1128
1379.00,0.1375
1378.00,0.1611
1377.00,0.1783
1376.00,0.1841
1375.00,0.1755
1374.00,0.1545
1373.00,0.1286
1372.00,0.1046
1371.00,0.0844
1370.00,0.0681
1369.00,0.0555
1368.00,0.0467
1367.00,0.0412
1366.00,0.0383
1365.00,0.0371
1364.00,0.0372
1363.00,0.0385
1362.00,0.0406
1361.00,0.0428
1360.00,0.0445
1359.00,0.0449
1358.00,0.0438
1357.00,0.0411
1356.00,0.0373
1355.00,0.0330
1354.00,0.0289
1353.00,0.0254
1352.00,0.0226
1351.00,0.0204
1350.00,0.0185
1349.00,0.0171
1348.00,0.0159
1347.00,0.0150
1346.00,0.0142
1345.00,0.0136
1344.00,0.0131
1343.00,0.0127
1342.00,0.0124
1341.00,0.0121
1340.00,0.0118
1339.00,0.0116
1338.00,0.0115
1337.00,0.0114
1336.00,0.0115
1335.00,0.0117
1334.00,0.0120
1333.00,0.0124
1332.00,0.0128
1331.00,0.0132
1330.00,0.0134
1329.00,0.0133
1328.00,0.0129
1327.00,0.0124
1326.00,0.0118
1325.00,0.0111
1324.00,0.0104
1323.00,0.0099
1322.00,0.0094
1321.00,0.0091
1320.00,0.0088
1319.00,0.0086
1318.00,0.0084
1317.00,0.0082
1316.00,0.0081
1315.00,0.0080
1314.00,0.0080
1313.00,0.0081
1312.00,0.0083
1311.00,0.0087
1310.00,0.0093
1309.00,0.0102
1308.00,0.0115
1307.00,0.0130
1306.00,0.0145
1305.00,0.0155
1304.00,0.0158
1303.00,0.0154
1302.00,0.0146
1301.00,0.0138
1300.00,0.0132
1299.00,0.0129
1298.00,0.0128
1297.00,0.0127
1296.00,0.0125
1295.00,0.0122
1294.00,0.0118
1293.00,0.0112
1292.00,0.0107
1291.00,0.0101
1290.00,0.0097
1289.00,0.0093
1288.00,0.0089
1287.00,0.0086
1286.00,0.0083
1285.00,0.0081
1284.00,0.0079
1283.00,0.0078
1282.00,0.0076
1281.00,0.0075
1280.00,0.0074
1279.00,0.0073
1278.00,0.0072
1277.00,0.0072
1276.00,0.0072
1275.00,0.0072
1274.00,0.0072
1273.00,0.0072
1272.00,0.0073
1271.00,0.0073
1270.00,0.0074
1269.00,0.0075
1268.00,0.0077
1267.00,0.0079
1266.00,0.0081
1265.00,0.0084
1264.00,0.0087
1263.00,0.0091
1262.00,0.0096
1261.00,0.0102
1260.00,0.0110
1259.00,0.0119
1258.00,0.0129
1257.00,0.0137
1256.00,0.0141
1255.00,0.0140
1254.00,0.0133
1253.00,0.0123
1252.00,0.0112
1251.00,0.0103
1250.00,0.0097
1249.00,0.0092
1248.00,0.0089
1247.00,0.0087
1246.00,0.0085
1245.00,0.0084
1244.00,0.0083
1243.00,0.0082
1242.00,0.0081
1241.00,0.0080
1240.00,0.0079
1239.00,0.0078
1238.00,0.0077
1237.00,0.0076
1236.00,0.0076
1235.00,0.0076
1234.00,0.0076
1233.00,0.0075
1232.00,0.0074
1231.00,0.0073
1230.00,0.0073
1229.00,0.0073
1228.00,0.0074
1227.00,0.0076
1226.00,0.0078
1225.00,0.0080
1224.00,0.0082
1223.00,0.0085
1222.00,0.0087
1221.00,0.0090
1220.00,0.0091
1219.00,0.0092
1218.00,0.0091
1217.00,0.0090
1216.00,0.0088
1215.00,0.0086
1214.00,0.0083
1213.00,0.0080
1212.00,0.0077
1211.00,0.0074
1210.00,0.0073
1209.00,0.0071
1208.00,0.0070
1207.00,0.0070
1206.00,0.0069
1205.00,0.0068
1204.00,0.0067
1203.00,0.0066
1202.00,0.0066
1201.00,0.0066
1200.00,0.0066
1199.00,0.0065
1198.00,0.0065
1197.00,0.0065
1196.00,0.0064
1195.00,0.0064
1194.00,0.0065
1193.00,0.0065
1192.00,0.0066
1191.00,0.0067
1190.00,0.0068
1189.00,0.0068
1188.00,0.0069
1187.00,0.0069
1186.00,0.0070
1185.00,0.0071
1184.00,0.0072
1183.00,0.0075
1182.00,0.0077
1181.00,0.0080
1180.00,0.0085
1179.00,0.0092
1178.00,0.0101
1177.00,0.0113
1176.00,0.0128
1175.00,0.0149
1174.00,0.0176
1173.00,0.0210
1172.00,0.0249
1171.00,0.0293
1170.00,0.0336
1169.00,0.0371
1168.00,0.0392
1167.00,0.0398
1166.00,0.0389
1165.00,0.0369
1164.00,0.0344
1163.00,0.0317
1162.00,0.0293
1161.00,0.0272
1160.00,0.0255
1159.00,0.0241
1158.00,0.0231
1157.00,0.0222
1156.00,0.0216
1155.00,0.0211
1154.00,0.0206
1153.00,0.0201
1152.00,0.0196
1151.00,0.0188
1150.00,0.0179
1149.00,0.0170
1148.00,0.0160
1147.00,0.0150
1146.00,0.0140
1145.00,0.0131
1144.00,0.0123
1143.00,0.0115
1142.00,0.0109
1141.00,0.0103
1140.00,0.0097
1139.00,0.0092
1138.00,0.0088
1137.00,0.0085
1136.00,0.0083
1135.00,0.0081
1134.00,0.0079
1133.00,0.0077
1132.00,0.0076
1131.00,0.0074
1130.00,0.0073
1129.00,0.0072
1128.00,0.0073
1127.00,0.0074
1126.00,0.0075
1125.00,0.0076
1124.00,0.0076
1123.00,0.0076
1122.00,0.0076
1121.00,0.0076
1120.00,0.0077
1119.00,0.0078
1118.00,0.0079
1117.00,0.0080
1116.00,0.0081
1115.00,0.0083
1114.00,0.0085
1113.00,0.0086
1112.00,0.0089
1111.00,0.0091
1110.00,0.0095
1109.00,0.0100
1108.00,0.0106
1107.00,0.0112
1106.00,0.0118
1105.00,0.0124
1104.00,0.0129
1103.00,0.0132
1102.00,0.0133
1101.00,0.0131
1100.00,0.0126
1099.00,0.0120
1098.00,0.0114
1097.00,0.0108
1096.00,0.0102
1095.00,0.0097
1094.00,0.0093
1093.00,0.0090
1092.00,0.0087
1091.00,0.0085
1090.00,0.0083
1089.00,0.0081
1088.00,0.0080
1087.00,0.0080
1086.00,0.0079
1085.00,0.0078
1084.00,0.0077
1083.00,0.0076
1082.00,0.0076
1081.00,0.0075
1080.00,0.0074
1079.00,0.0073
1078.00,0.0072
1077.00,0.0071
1076.00,0.0070
1075.00,0.0071
1074.00,0.0071
1073.00,0.0072
1072.00,0.0072
1071.00,0.0072
1070.00,0.0072
1069.00,0.0072
1068.00,0.0073
1067.00,0.0073
1066.00,0.0074
1065.00,0.0074
1064.00,0.0074
1063.00,0.0073
1062.00,0.0073
1061.00,0.0073
1060.00,0.0074
1059.00,0.0075
1058.00,0.0075
1057.00,0.0076
1056.00,0.0076
1055.00,0.0077
1054.00,0.0079
1053.00,0.0080
1052.00,0.0082
1051.00,0.0085
1050.00,0.0088
1049.00,0.0092
1048.00,0.0096
1047.00,0.0099
1046.00,0.0102
1045.00,0.0103
1044.00,0.0102
1043.00,0.0100
1042.00,0.0097
1041.00,0.0093
1040.00,0.0091
1039.00,0.0089
1038.00,0.0088
1037.00,0.0088
1036.00,0.0087
1035.00,0.0087
1034.00,0.0087
1033.00,0.0086
1032.00,0.0085
1031.00,0.0084
1030.00,0.0084
1029.00,0.0084
1028.00,0.0083
1027.00,0.0083
1026.00,0.0083
1025.00,0.0084
1024.00,0.0085
1023.00,0.0086
1022.00,0.0087
1021.00,0.0087
1020.00,0.0088
1019.00,0.0090
1018.00,0.0092
1017.00,0.0094
1016.00,0.0097
1015.00,0.0100
1014.00,0.0103
1013.00,0.0106
1012.00,0.0110
1011.00,0.0114
1010.00,0.0119
1009.00,0.0126
1008.00,0.0133
1007.00,0.0142
1006.00,0.0155
1005.00,0.0171
1004.00,0.0192
1003.00,0.0221
1002.00,0.0259
1001.00,0.0306
1000.00,0.0358
999.00,0.0403
998.00,0.0428
997.00,0.0425
996.00,0.0393
995.00,0.0343
994.00,0.0288
993.00,0.0239
992.00,0.0201
991.00,0.0173
990.00,0.0153
989.00,0.0139
988.00,0.0130
987.00,0.0125
986.00,0.0123
985.00,0.0124
984.00,0.0129
983.00,0.0137
982.00,0.0151
981.00,0.0170
980.00,0.0196
979.00,0.0231
978.00,0.0275
977.00,0.0328
976.00,0.0387
975.00,0.0446
974.00,0.0494
973.00,0.0517
972.00,0.0507
971.00,0.0465
970.00,0.0402
969.00,0.0333
968.00,0.0271
967.00,0.0222
966.00,0.0186
965.00,0.0160
964.00,0.0141
963.00,0.0128
962.00,0.0118
961.00,0.0111
960.00,0.0104
959.00,0.0099
958.00,0.0094
957.00,0.0089
956.00,0.0086
955.00,0.0083
954.00,0.0082
953.00,0.0081
952.00,0.0080
951.00,0.0080
950.00,0.0079
949.00,0.0079
948.00,0.0079
947.00,0.0080
946.00,0.0082
945.00,0.0084
944.00,0.0087
943.00,0.0090
942.00,0.0092
941.00,0.0093
940.00,0.0091
939.00,0.0088
938.00,0.0083
937.00,0.0079
936.00,0.0075
935.00,0.0072
934.00,0.0070
933.00,0.0067
932.00,0.0065
931.00,0.0064
930.00,0.0063
929.00,0.0062
928.00,0.0062
927.00,0.0061
926.00,0.0060
925.00,0.0059
924.00,0.0059
923.00,0.0059
922.00,0.0060
921.00,0.0061
920.00,0.0062
919.00,0.0064
918.00,0.0066
917.00,0.0068
916.00,0.0068
915.00,0.0069
914.00,0.0070
913.00,0.0070
912.00,0.0071
911.00,0.0072
910.00,0.0074
909.00,0.0075
908.00,0.0077
907.00,0.0081
906.00,0.0087
905.00,0.0097
904.00,0.0111
903.00,0.0128
902.00,0.0148
901.00,0.0165
900.00,0.0178
899.00,0.0181
898.00,0.0175
897.00,0.0161
896.00,0.0143
895.00,0.0125
894.00,0.0110
893.00,0.0098
892.00,0.0089
891.00,0.0083
890.00,0.0078
889.00,0.0075
888.00,0.0073
887.00,0.0071
886.00,0.0070
885.00,0.0069
884.00,0.0068
883.00,0.0066
882.00,0.0066
881.00,0.0066
880.00,0.0067
879.00,0.0068
878.00,0.0069
877.00,0.0069
876.00,0.0070
875.00,0.0069
874.00,0.0068
873.00,0.0067
872.00,0.0067
871.00,0.0068
870.00,0.0068
869.00,0.0068
868.00,0.0068
867.00,0.0070
866.00,0.0072
865.00,0.0074
864.00,0.0075
863.00,0.0077
862.00,0.0079
861.00,0.0081
860.00,0.0082
859.00,0.0083
858.00,0.0085
857.00,0.0086
856.00,0.0087
855.00,0.0089
854.00,0.0092
853.00,0.0095
852.00,0.0100
851.00,0.0106
850.00,0.0113
849.00,0.0124
848.00,0.0139
847.00,0.0160
846.00,0.0191
845.00,0.0235
844.00,0.0295
843.00,0.0362
842.00,0.0415
841.00,0.0431
840.00,0.0402
839.00,0.0343
838.00,0.0277
837.00,0.0225
836.00,0.0189
835.00,0.0168
834.00,0.0155
833.00,0.0146
832.00,0.0139
831.00,0.0133
830.00,0.0127
829.00,0.0123
828.00,0.0120
827.00,0.0119
826.00,0.0118
825.00,0.0116
824.00,0.0114
823.00,0.0112
822.00,0.0111
821.00,0.0111
820.00,0.0113
819.00,0.0116
818.00,0.0119
817.00,0.0123
816.00,0.0128
815.00,0.0136
814.00,0.0147
813.00,0.0162
812.00,0.0179
811.00,0.0195
810.00,0.0207
809.00,0.0212
808.00,0.0210
807.00,0.0200
806.00,0.0187
805.00,0.0172
804.00,0.0158
803.00,0.0146
802.00,0.0135
801.00,0.0125
800.00,0.0117
799.00,0.0109
798.00,0.0102
797.00,0.0097
796.00,0.0094
795.00,0.0092
794.00,0.0091
793.00,0.0090
792.00,0.0088
791.00,0.0086
790.00,0.0084
789.00,0.0081
788.00,0.0078
787.00,0.0075
786.00,0.0073
785.00,0.0071
784.00,0.0069
783.00,0.0067
782.00,0.0065
781.00,0.0064
780.00,0.0062
779.00,0.0061
778.00,0.0059
777.00,0.0059
776.00,0.0060
775.00,0.0062
774.00,0.0065
773.00,0.0069
772.00,0.0072
771.00,0.0076
770.00,0.0079
769.00,0.0080
768.00,0.0081
767.00,0.0080
766.00,0.0078
765.00,0.0074
764.00,0.0069
763.00,0.0066
762.00,0.0063
761.00,0.0062
760.00,0.0061
759.00,0.0059
758.00,0.0057
757.00,0.0055
756.00,0.0054
755.00,0.0053
754.00,0.0052
753.00,0.0051
752.00,0.0049
751.00,0.0049
750.00,0.0048
749.00,0.0048
748.00,0.0048
747.00,0.0048
746.00,0.0049
745.00,0.0050
744.00,0.0052
743.00,0.0053
742.00,0.0053
741.00,0.0052
740.00,0.0051
739.00,0.0052
738.00,0.0055
737.00,0.0057
736.00,0.0059
735.00,0.0060
734.00,0.0060
733.00,0.0061
732.00,0.0060
731.00,0.0060
730.00,0.0058
729.00,0.0057
728.00,0.0056
727.00,0.0056
726.00,0.0055
725.00,0.0056
724.00,0.0056
723.00,0.0056
722.00,0.0055
721.00,0.0054
720.00,0.0053
719.00,0.0054
718.00,0.0054
717.00,0.0055
716.00,0.0054
715.00,0.0052
714.00,0.0051
713.00,0.0051
712.00,0.0050
711.00,0.0050
710.00,0.0050
709.00,0.0050
708.00,0.0050
707.00,0.0051
706.00,0.0052
705.00,0.0051
704.00,0.0049
703.00,0.0047
702.00,0.0044
701.00,0.0042
700.00,0.0042
699.00,0.0042
698.00,0.0043
697.00,0.0043
696.00,0.0043
695.00,0.0042
694.00,0.0042
693.00,0.0043
692.00,0.0044
691.00,0.0044
690.00,0.0045
689.00,0.0046
688.00,0.0047
687.00,0.0048
686.00,0.0047
685.00,0.0045
684.00,0.0042
683.00,0.0039
682.00,0.0037
681.00,0.0038
680.00,0.0040
679.00,0.0042
678.00,0.0045
677.00,0.0046
676.00,0.0046
675.00,0.0046
674.00,0.0045
673.00,0.0043
672.00,0.0042
671.00,0.0042
670.00,0.0045
669.00,0.0048
668.00,0.0051
667.00,0.0050
666.00,0.0048
665.00,0.0045
664.00,0.0043
663.00,0.0042
662.00,0.0042
661.00,0.0043
660.00,0.0045
659.00,0.0048
658.00,0.0048
657.00,0.0045
656.00,0.0040
655.00,0.0036
654.00,0.0036
653.00,0.0038
652.00,0.0042
651.00,0.0044
650.00,0.0045
649.00,0.0045
648.00,0.0046
647.00,0.0047
646.00,0.0048
645.00,0.0047
644.00,0.0047
643.00,0.0047
642.00,0.0047
641.00,0.0046
640.00,0.0046
639.00,0.0046
638.00,0.0047
637.00,0.0046
636.00,0.0045
635.00,0.0045
634.00,0.0045
633.00,0.0046
632.00,0.0046
631.00,0.0046
630.00,0.0046
629.00,0.0047
628.00,0.0049
627.00,0.0049
626.00,0.0049
625.00,0.0049
624.00,0.0048
623.00,0.0046
622.00,0.0044
621.00,0.0043
620.00,0.0043
619.00,0.0045
618.00,0.0048
617.00,0.0050
616.00,0.0052
615.00,0.0054
614.00,0.0055
613.00,0.0054
612.00,0.0051
611.00,0.0048
610.00,0.0047
609.00,0.0047
608.00,0.0047
607.00,0.0048
606.00,0.0049
605.00,0.0050
604.00,0.0049
603.00,0.0047
602.00,0.0046
601.00,0.0044
600.00,0.0044
599.00,0.0044
598.00,0.0046
597.00,0.0047
596.00,0.0048
595.00,0.0048
594.00,0.0048
593.00,0.0047
592.00,0.0045
591.00,0.0044
590.00,0.0045
589.00,0.0046
588.00,0.0047
587.00,0.0048
586.00,0.0050
585.00,0.0052
584.00,0.0053
583.00,0.0054
582.00,0.0054
581.00,0.0056
580.00,0.0057
579.00,0.0058
578.00,0.0057
577.00,0.0056
576.00,0.0056
575.00,0.0056
574.00,0.0057
573.00,0.0057
572.00,0.0056
571.00,0.0055
570.00,0.0053
569.00,0.0052
568.00,0.0053
567.00,0.0054
566.00,0.0056
565.00,0.0059
564.00,0.0060
563.00,0.0060
562.00,0.0056
561.00,0.0051
560.00,0.0047
559.00,0.0045
558.00,0.0047
557.00,0.0049
556.00,0.0050
555.00,0.0051
554.00,0.0052
553.00,0.0054
552.00,0.0056
551.00,0.0055
550.00,0.0051
549.00,0.0048
548.00,0.0047
547.00,0.0050
546.00,0.0053
545.00,0.0054
544.00,0.0054
543.00,0.0055
542.00,0.0056
541.00,0.0058
540.00,0.0058
539.00,0.0059
538.00,0.0060
537.00,0.0061
536.00,0.0062
535.00,0.0064
534.00,0.0066
533.00,0.0068
532.00,0.0071
531.00,0.0075
530.00,0.0079
529.00,0.0081
528.00,0.0081
527.00,0.0081
526.00,0.0082
525.00,0.0084
524.00,0.0084
523.00,0.0081
522.00,0.0076
521.00,0.0072
520.00,0.0071
519.00,0.0070
518.00,0.0069
517.00,0.0065
516.00,0.0061
515.00,0.0058
514.00,0.0055
513.00,0.0051
512.00,0.0046
511.00,0.0044
510.00,0.0046
509.00,0.0049
508.00,0.0053
507.00,0.0056
506.00,0.0057
505.00,0.0057
504.00,0.0054
503.00,0.0053
502.00,0.0053
501.00,0.0052
500.00,0.0049
499.00,0.0045
498.00,0.0044
497.00,0.0047
496.00,0.0053
495.00,0.0062
494.00,0.0070
493.00,0.0071
492.00,0.0067
491.00,0.0062
490.00,0.0064
489.00,0.0070
488.00,0.0073
487.00,0.0072
486.00,0.0069
485.00,0.0066
484.00,0.0063
483.00,0.0058
482.00,0.0052
481.00,0.0049
480.00,0.0049
479.00,0.0052
478.00,0.0057
477.00,0.0063
476.00,0.0070
475.00,0.0076
474.00,0.0080
473.00,0.0080
472.00,0.0075
471.00,0.0065
470.00,0.0059
469.00,0.0060
468.00,0.0068
467.00,0.0078
466.00,0.0086
465.00,0.0092
464.00,0.0100
463.00,0.0114
462.00,0.0129
461.00,0.0138
460.00,0.0138
459.00,0.0130
458.00,0.0122
457.00,0.0121
456.00,0.0128
455.00,0.0141
454.00,0.0154
453.00,0.0160
452.00,0.0157
451.00,0.0147
450.00,0.0138
