Created as New Dataset,Sample 113 By Administrator Date Tuesday, September 09 2025
cm-1,A
4000.00,0.0006
3999.00,0.0006
3998.00,0.0006
3997.00,0.0006
3996.00,0.0006
3995.00,0.0006
3994.00,0.0006
3993.00,0.0006
3992.00,0.0006
3991.00,0.0006
3990.00,0.0005
3989.00,0.0005
3988.00,0.0005
3987.00,0.0005
3986.00,0.0006
3985.00,0.0006
3984.00,0.0006
3983.00,0.0006
3982.00,0.0006
3981.00,0.0006
3980.00,0.0006
3979.00,0.0006
3978.00,0.0006
3977.00,0.0006
3976.00,0.0005
3975.00,0.0005
3974.00,0.0005
3973.00,0.0005
3972.00,0.0005
3971.00,0.0005
3970.00,0.0005
3969.00,0.0005
3968.00,0.0004
3967.00,0.0004
3966.00,0.0004
3965.00,0.0004
3964.00,0.0004
3963.00,0.0004
3962.00,0.0004
3961.00,0.0004
3960.00,0.0005
3959.00,0.0004
3958.00,0.0004
3957.00,0.0004
3956.00,0.0004
3955.00,0.0004
3954.00,0.0004
3953.00,0.0004
3952.00,0.0004
3951.00,0.0004
3950.00,0.0005
3949.00,0.0005
3948.00,0.0005
3947.00,0.0005
3946.00,0.0005
3945.00,0.0005
3944.00,0.0005
3943.00,0.0005
3942.00,0.0005
3941.00,0.0005
3940.00,0.0005
3939.00,0.0005
3938.00,0.0005
3937.00,0.0005
3936.00,0.0005
3935.00,0.0005
3934.00,0.0005
3933.00,0.0005
3932.00,0.0005
3931.00,0.0005
3930.00,0.0005
3929.00,0.0005
3928.00,0.0005
3927.00,0.0005
3926.00,0.0005
3925.00,0.0005
3924.00,0.0005
3923.00,0.0005
3922.00,0.0005
3921.00,0.0005
3920.00,0.0005
3919.00,0.0005
3918.00,0.0005
3917.00,0.0004
3916.00,0.0004
3915.00,0.0004
3914.00,0.0004
3913.00,0.0004
3912.00,0.0004
3911.00,0.0005
3910.00,0.0005
3909.00,0.0005
3908.00,0.0005
3907.00,0.0005
3906.00,0.0004
3905.00,0.0004
3904.00,0.0004
3903.00,0.0004
3902.00,0.0005
3901.00,0.0005
3900.00,0.0005
3899.00,0.0006
3898.00,0.0006
3897.00,0.0006
3896.00,0.0005
3895.00,0.0005
3894.00,0.0005
3893.00,0.0004
3892.00,0.0004
3891.00,0.0004
3890.00,0.0004
3889.00,0.0004
3888.00,0.0004
3887.00,0.0004
3886.00,0.0004
3885.00,0.0004
3884.00,0.0004
3883.00,0.0004
3882.00,0.0004
3881.00,0.0004
3880.00,0.0004
3879.00,0.0004
3878.00,0.0004
3877.00,0.0004
3876.00,0.0004
3875.00,0.0004
3874.00,0.0004
3873.00,0.0004
3872.00,0.0003
3871.00,0.0003
3870.00,0.0003
3869.00,0.0003
3868.00,0.0003
3867.00,0.0003
3866.00,0.0003
3865.00,0.0003
3864.00,0.0004
3863.00,0.0004
3862.00,0.0004
3861.00,0.0004
3860.00,0.0004
3859.00,0.0004
3858.00,0.0004
3857.00,0.0004
3856.00,0.0004
3855.00,0.0004
3854.00,0.0004
3853.00,0.0004
3852.00,0.0004
3851.00,0.0004
3850.00,0.0003
3849.00,0.0003
3848.00,0.0003
3847.00,0.0003
3846.00,0.0003
3845.00,0.0003
3844.00,0.0003
3843.00,0.0003
3842.00,0.0003
3841.00,0.0003
3840.00,0.0003
3839.00,0.0003
3838.00,0.0003
3837.00,0.0003
3836.00,0.0003
3835.00,0.0002
3834.00,0.0002
3833.00,0.0003
3832.00,0.0004
3831.00,0.0004
3830.00,0.0004
3829.00,0.0004
3828.00,0.0004
3827.00,0.0003
3826.00,0.0003
3825.00,0.0003
3824.00,0.0003
3823.00,0.0002
3822.00,0.0002
3821.00,0.0002
3820.00,0.0002
3819.00,0.0003
3818.00,0.0002
3817.00,0.0003
3816.00,0.0003
3815.00,0.0004
3814.00,0.0004
3813.00,0.0004
3812.00,0.0004
3811.00,0.0004
3810.00,0.0004
3809.00,0.0004
3808.00,0.0004
3807.00,0.0004
3806.00,0.0004
3805.00,0.0004
3804.00,0.0003
3803.00,0.0003
3802.00,0.0003
3801.00,0.0003
3800.00,0.0003
3799.00,0.0003
3798.00,0.0002
3797.00,0.0002
3796.00,0.0003
3795.00,0.0003
3794.00,0.0003
3793.00,0.0004
3792.00,0.0004
3791.00,0.0004
3790.00,0.0004
3789.00,0.0005
3788.00,0.0005
3787.00,0.0004
3786.00,0.0004
3785.00,0.0004
3784.00,0.0004
3783.00,0.0003
3782.00,0.0003
3781.00,0.0002
3780.00,0.0002
3779.00,0.0002
3778.00,0.0003
3777.00,0.0003
3776.00,0.0004
3775.00,0.0004
3774.00,0.0005
3773.00,0.0004
3772.00,0.0004
3771.00,0.0004
3770.00,0.0004
3769.00,0.0004
3768.00,0.0004
3767.00,0.0004
3766.00,0.0004
3765.00,0.0004
3764.00,0.0005
3763.00,0.0005
3762.00,0.0005
3761.00,0.0005
3760.00,0.0005
3759.00,0.0005
3758.00,0.0005
3757.00,0.0004
3756.00,0.0004
3755.00,0.0004
3754.00,0.0003
3753.00,0.0003
3752.00,0.0002
3751.00,0.0002
3750.00,0.0002
3749.00,0.0003
3748.00,0.0003
3747.00,0.0003
3746.00,0.0003
3745.00,0.0003
3744.00,0.0004
3743.00,0.0004
3742.00,0.0004
3741.00,0.0004
3740.00,0.0004
3739.00,0.0004
3738.00,0.0004
3737.00,0.0004
3736.00,0.0004
3735.00,0.0003
3734.00,0.0003
3733.00,0.0003
3732.00,0.0003
3731.00,0.0003
3730.00,0.0003
3729.00,0.0003
3728.00,0.0003
3727.00,0.0004
3726.00,0.0004
3725.00,0.0004
3724.00,0.0004
3723.00,0.0004
3722.00,0.0003
3721.00,0.0003
3720.00,0.0003
3719.00,0.0003
3718.00,0.0003
3717.00,0.0003
3716.00,0.0003
3715.00,0.0003
3714.00,0.0003
3713.00,0.0003
3712.00,0.0003
3711.00,0.0002
3710.00,0.0002
3709.00,0.0002
3708.00,0.0001
3707.00,0.0002
3706.00,0.0002
3705.00,0.0002
3704.00,0.0002
3703.00,0.0002
3702.00,0.0002
3701.00,0.0002
3700.00,0.0002
3699.00,0.0002
3698.00,0.0002
3697.00,0.0002
3696.00,0.0002
3695.00,0.0001
3694.00,0.0001
3693.00,0.0001
3692.00,0.0001
3691.00,0.0000
3690.00,0.0000
3689.00,0.0001
3688.00,0.0001
3687.00,0.0002
3686.00,0.0002
3685.00,0.0003
3684.00,0.0003
3683.00,0.0003
3682.00,0.0003
3681.00,0.0003
3680.00,0.0003
3679.00,0.0004
3678.00,0.0004
3677.00,0.0004
3676.00,0.0004
3675.00,0.0003
3674.00,0.0003
3673.00,0.0003
3672.00,0.0002
3671.00,0.0002
3670.00,0.0003
3669.00,0.0003
3668.00,0.0003
3667.00,0.0002
3666.00,0.0002
3665.00,0.0002
3664.00,0.0003
3663.00,0.0003
3662.00,0.0003
3661.00,0.0003
3660.00,0.0003
3659.00,0.0002
3658.00,0.0002
3657.00,0.0002
3656.00,0.0001
3655.00,0.0001
3654.00,0.0001
3653.00,0.0001
3652.00,0.0001
3651.00,0.0001
3650.00,0.0001
3649.00,0.0001
3648.00,0.0001
3647.00,0.0001
3646.00,0.0002
3645.00,0.0002
3644.00,0.0003
3643.00,0.0003
3642.00,0.0003
3641.00,0.0003
3640.00,0.0003
3639.00,0.0004
3638.00,0.0004
3637.00,0.0004
3636.00,0.0004
3635.00,0.0003
3634.00,0.0003
3633.00,0.0003
3632.00,0.0003
3631.00,0.0003
3630.00,0.0003
3629.00,0.0003
3628.00,0.0003
3627.00,0.0003
3626.00,0.0003
3625.00,0.0004
3624.00,0.0004
3623.00,0.0004
3622.00,0.0004
3621.00,0.0004
3620.00,0.0004
3619.00,0.0004
3618.00,0.0004
3617.00,0.0004
3616.00,0.0004
3615.00,0.0003
3614.00,0.0004
3613.00,0.0004
3612.00,0.0005
3611.00,0.0005
3610.00,0.0006
3609.00,0.0006
3608.00,0.0006
3607.00,0.0005
3606.00,0.0005
3605.00,0.0004
3604.00,0.0004
3603.00,0.0004
3602.00,0.0004
3601.00,0.0004
3600.00,0.0005
3599.00,0.0006
3598.00,0.0006
3597.00,0.0007
3596.00,0.0007
3595.00,0.0006
3594.00,0.0006
3593.00,0.0006
3592.00,0.0006
3591.00,0.0006
3590.00,0.0006
3589.00,0.0006
3588.00,0.0006
3587.00,0.0006
3586.00,0.0006
3585.00,0.0007
3584.00,0.0007
3583.00,0.0007
3582.00,0.0007
3581.00,0.0007
3580.00,0.0007
3579.00,0.0007
3578.00,0.0007
3577.00,0.0007
3576.00,0.0007
3575.00,0.0008
3574.00,0.0008
3573.00,0.0009
3572.00,0.0009
3571.00,0.0009
3570.00,0.0010
3569.00,0.0010
3568.00,0.0010
3567.00,0.0011
3566.00,0.0010
3565.00,0.0010
3564.00,0.0010
3563.00,0.0010
3562.00,0.0010
3561.00,0.0010
3560.00,0.0010
3559.00,0.0010
3558.00,0.0010
3557.00,0.0011
3556.00,0.0011
3555.00,0.0012
3554.00,0.0012
3553.00,0.0012
3552.00,0.0013
3551.00,0.0013
3550.00,0.0013
3549.00,0.0014
3548.00,0.0014
3547.00,0.0014
3546.00,0.0014
3545.00,0.0014
3544.00,0.0013
3543.00,0.0013
3542.00,0.0013
3541.00,0.0014
3540.00,0.0014
3539.00,0.0015
3538.00,0.0015
3537.00,0.0015
3536.00,0.0015
3535.00,0.0015
3534.00,0.0015
3533.00,0.0015
3532.00,0.0015
3531.00,0.0016
3530.00,0.0016
3529.00,0.0017
3528.00,0.0017
3527.00,0.0017
3526.00,0.0017
3525.00,0.0018
3524.00,0.0018
3523.00,0.0018
3522.00,0.0018
3521.00,0.0017
3520.00,0.0017
3519.00,0.0016
3518.00,0.0016
3517.00,0.0016
3516.00,0.0017
3515.00,0.0017
3514.00,0.0018
3513.00,0.0018
3512.00,0.0018
3511.00,0.0018
3510.00,0.0018
3509.00,0.0018
3508.00,0.0019
3507.00,0.0019
3506.00,0.0020
3505.00,0.0020
3504.00,0.0020
3503.00,0.0021
3502.00,0.0021
3501.00,0.0021
3500.00,0.0021
3499.00,0.0021
3498.00,0.0021
3497.00,0.0021
3496.00,0.0021
3495.00,0.0021
3494.00,0.0022
3493.00,0.0022
3492.00,0.0023
3491.00,0.0023
3490.00,0.0022
3489.00,0.0022
3488.00,0.0022
3487.00,0.0023
3486.00,0.0023
3485.00,0.0023
3484.00,0.0024
3483.00,0.0024
3482.00,0.0024
3481.00,0.0024
3480.00,0.0024
3479.00,0.0024
3478.00,0.0024
3477.00,0.0025
3476.00,0.0025
3475.00,0.0025
3474.00,0.0025
3473.00,0.0025
3472.00,0.0025
3471.00,0.0025
3470.00,0.0025
3469.00,0.0026
3468.00,0.0026
3467.00,0.0027
3466.00,0.0027
3465.00,0.0027
3464.00,0.0027
3463.00,0.0027
3462.00,0.0027
3461.00,0.0027
3460.00,0.0028
3459.00,0.0029
3458.00,0.0029
3457.00,0.0029
3456.00,0.0029
3455.00,0.0029
3454.00,0.0029
3453.00,0.0029
3452.00,0.0029
3451.00,0.0029
3450.00,0.0029
3449.00,0.0029
3448.00,0.0029
3447.00,0.0029
3446.00,0.0030
3445.00,0.0030
3444.00,0.0031
3443.00,0.0031
3442.00,0.0031
3441.00,0.0030
3440.00,0.0030
3439.00,0.0031
3438.00,0.0031
3437.00,0.0031
3436.00,0.0031
3435.00,0.0031
3434.00,0.0031
3433.00,0.0032
3432.00,0.0032
3431.00,0.0033
3430.00,0.0033
3429.00,0.0034
3428.00,0.0034
3427.00,0.0033
3426.00,0.0033
3425.00,0.0033
3424.00,0.0033
3423.00,0.0034
3422.00,0.0034
3421.00,0.0035
3420.00,0.0035
3419.00,0.0035
3418.00,0.0035
3417.00,0.0035
3416.00,0.0035
3415.00,0.0036
3414.00,0.0036
3413.00,0.0036
3412.00,0.0036
3411.00,0.0036
3410.00,0.0037
3409.00,0.0037
3408.00,0.0037
3407.00,0.0038
3406.00,0.0038
3405.00,0.0038
3404.00,0.0037
3403.00,0.0037
3402.00,0.0038
3401.00,0.0038
3400.00,0.0038
3399.00,0.0039
3398.00,0.0039
3397.00,0.0040
3396.00,0.0040
3395.00,0.0040
3394.00,0.0040
3393.00,0.0040
3392.00,0.0040
3391.00,0.0039
3390.00,0.0039
3389.00,0.0039
3388.00,0.0039
3387.00,0.0039
3386.00,0.0039
3385.00,0.0039
3384.00,0.0040
3383.00,0.0040
3382.00,0.0039
3381.00,0.0039
3380.00,0.0039
3379.00,0.0039
3378.00,0.0039
3377.00,0.0039
3376.00,0.0039
3375.00,0.0039
3374.00,0.0039
3373.00,0.0039
3372.00,0.0039
3371.00,0.0040
3370.00,0.0040
3369.00,0.0040
3368.00,0.0041
3367.00,0.0041
3366.00,0.0041
3365.00,0.0041
3364.00,0.0041
3363.00,0.0040
3362.00,0.0040
3361.00,0.0041
3360.00,0.0041
3359.00,0.0041
3358.00,0.0041
3357.00,0.0041
3356.00,0.0041
3355.00,0.0041
3354.00,0.0041
3353.00,0.0042
3352.00,0.0042
3351.00,0.0042
3350.00,0.0042
3349.00,0.0042
3348.00,0.0042
3347.00,0.0042
3346.00,0.0042
3345.00,0.0042
3344.00,0.0042
3343.00,0.0042
3342.00,0.0042
3341.00,0.0041
3340.00,0.0041
3339.00,0.0041
3338.00,0.0041
3337.00,0.0041
3336.00,0.0041
3335.00,0.0041
3334.00,0.0041
3333.00,0.0041
3332.00,0.0041
3331.00,0.0041
3330.00,0.0041
3329.00,0.0040
3328.00,0.0040
3327.00,0.0040
3326.00,0.0040
3325.00,0.0040
3324.00,0.0041
3323.00,0.0041
3322.00,0.0041
3321.00,0.0041
3320.00,0.0040
3319.00,0.0040
3318.00,0.0040
3317.00,0.0040
3316.00,0.0040
3315.00,0.0040
3314.00,0.0041
3313.00,0.0041
3312.00,0.0041
3311.00,0.0041
3310.00,0.0041
3309.00,0.0041
3308.00,0.0041
3307.00,0.0041
3306.00,0.0040
3305.00,0.0040
3304.00,0.0040
3303.00,0.0040
3302.00,0.0040
3301.00,0.0041
3300.00,0.0041
3299.00,0.0041
3298.00,0.0041
3297.00,0.0041
3296.00,0.0041
3295.00,0.0040
3294.00,0.0040
3293.00,0.0041
3292.00,0.0041
3291.00,0.0041
3290.00,0.0041
3289.00,0.0041
3288.00,0.0041
3287.00,0.0041
3286.00,0.0041
3285.00,0.0040
3284.00,0.0040
3283.00,0.0040
3282.00,0.0040
3281.00,0.0040
3280.00,0.0040
3279.00,0.0039
3278.00,0.0039
3277.00,0.0039
3276.00,0.0038
3275.00,0.0038
3274.00,0.0038
3273.00,0.0038
3272.00,0.0038
3271.00,0.0038
3270.00,0.0038
3269.00,0.0038
3268.00,0.0038
3267.00,0.0038
3266.00,0.0037
3265.00,0.0037
3264.00,0.0037
3263.00,0.0036
3262.00,0.0036
3261.00,0.0036
3260.00,0.0036
3259.00,0.0036
3258.00,0.0035
3257.00,0.0035
3256.00,0.0035
3255.00,0.0036
3254.00,0.0036
3253.00,0.0036
3252.00,0.0036
3251.00,0.0036
3250.00,0.0036
3249.00,0.0036
3248.00,0.0035
3247.00,0.0035
3246.00,0.0035
3245.00,0.0034
3244.00,0.0034
3243.00,0.0034
3242.00,0.0034
3241.00,0.0034
3240.00,0.0034
3239.00,0.0034
3238.00,0.0034
3237.00,0.0034
3236.00,0.0034
3235.00,0.0034
3234.00,0.0035
3233.00,0.0035
3232.00,0.0035
3231.00,0.0035
3230.00,0.0035
3229.00,0.0035
3228.00,0.0035
3227.00,0.0035
3226.00,0.0035
3225.00,0.0035
3224.00,0.0036
3223.00,0.0036
3222.00,0.0036
3221.00,0.0036
3220.00,0.0036
3219.00,0.0036
3218.00,0.0037
3217.00,0.0037
3216.00,0.0038
3215.00,0.0038
3214.00,0.0038
3213.00,0.0039
3212.00,0.0038
3211.00,0.0038
3210.00,0.0038
3209.00,0.0039
3208.00,0.0039
3207.00,0.0039
3206.00,0.0039
3205.00,0.0039
3204.00,0.0039
3203.00,0.0040
3202.00,0.0040
3201.00,0.0040
3200.00,0.0040
3199.00,0.0040
3198.00,0.0040
3197.00,0.0040
3196.00,0.0040
3195.00,0.0040
3194.00,0.0040
3193.00,0.0040
3192.00,0.0040
3191.00,0.0039
3190.00,0.0039
3189.00,0.0039
3188.00,0.0039
3187.00,0.0039
3186.00,0.0039
3185.00,0.0038
3184.00,0.0038
3183.00,0.0038
3182.00,0.0038
3181.00,0.0038
3180.00,0.0038
3179.00,0.0038
3178.00,0.0038
3177.00,0.0037
3176.00,0.0037
3175.00,0.0037
3174.00,0.0036
3173.00,0.0036
3172.00,0.0036
3171.00,0.0036
3170.00,0.0035
3169.00,0.0035
3168.00,0.0035
3167.00,0.0035
3166.00,0.0035
3165.00,0.0035
3164.00,0.0035
3163.00,0.0034
3162.00,0.0034
3161.00,0.0034
3160.00,0.0034
3159.00,0.0034
3158.00,0.0034
3157.00,0.0034
3156.00,0.0033
3155.00,0.0033
3154.00,0.0033
3153.00,0.0033
3152.00,0.0032
3151.00,0.0032
3150.00,0.0032
3149.00,0.0032
3148.00,0.0032
3147.00,0.0032
3146.00,0.0032
3145.00,0.0032
3144.00,0.0032
3143.00,0.0032
3142.00,0.0032
3141.00,0.0032
3140.00,0.0032
3139.00,0.0032
3138.00,0.0032
3137.00,0.0031
3136.00,0.0031
3135.00,0.0031
3134.00,0.0031
3133.00,0.0031
3132.00,0.0031
3131.00,0.0030
3130.00,0.0030
3129.00,0.0030
3128.00,0.0030
3127.00,0.0030
3126.00,0.0030
3125.00,0.0030
3124.00,0.0029
3123.00,0.0029
3122.00,0.0028
3121.00,0.0027
3120.00,0.0027
3119.00,0.0026
3118.00,0.0026
3117.00,0.0026
3116.00,0.0026
3115.00,0.0027
3114.00,0.0027
3113.00,0.0027
3112.00,0.0027
3111.00,0.0027
3110.00,0.0027
3109.00,0.0027
3108.00,0.0027
3107.00,0.0027
3106.00,0.0027
3105.00,0.0026
3104.00,0.0026
3103.00,0.0026
3102.00,0.0025
3101.00,0.0025
3100.00,0.0025
3099.00,0.0025
3098.00,0.0025
3097.00,0.0025
3096.00,0.0025
3095.00,0.0025
3094.00,0.0025
3093.00,0.0025
3092.00,0.0025
3091.00,0.0025
3090.00,0.0025
3089.00,0.0025
3088.00,0.0025
3087.00,0.0024
3086.00,0.0024
3085.00,0.0024
3084.00,0.0024
3083.00,0.0024
3082.00,0.0024
3081.00,0.0023
3080.00,0.0023
3079.00,0.0024
3078.00,0.0024
3077.00,0.0024
3076.00,0.0024
3075.00,0.0024
3074.00,0.0024
3073.00,0.0024
3072.00,0.0024
3071.00,0.0024
3070.00,0.0024
3069.00,0.0024
3068.00,0.0024
3067.00,0.0024
3066.00,0.0025
3065.00,0.0025
3064.00,0.0026
3063.00,0.0026
3062.00,0.0026
3061.00,0.0027
3060.00,0.0027
3059.00,0.0027
3058.00,0.0027
3057.00,0.0027
3056.00,0.0027
3055.00,0.0027
3054.00,0.0027
3053.00,0.0027
3052.00,0.0027
3051.00,0.0028
3050.00,0.0028
3049.00,0.0029
3048.00,0.0029
3047.00,0.0028
3046.00,0.0029
3045.00,0.0029
3044.00,0.0029
3043.00,0.0029
3042.00,0.0029
3041.00,0.0029
3040.00,0.0030
3039.00,0.0030
3038.00,0.0030
3037.00,0.0030
3036.00,0.0031
3035.00,0.0031
3034.00,0.0031
3033.00,0.0032
3032.00,0.0032
3031.00,0.0033
3030.00,0.0033
3029.00,0.0033
3028.00,0.0034
3027.00,0.0034
3026.00,0.0035
3025.00,0.0035
3024.00,0.0036
3023.00,0.0037
3022.00,0.0038
3021.00,0.0039
3020.00,0.0039
3019.00,0.0040
3018.00,0.0040
3017.00,0.0041
3016.00,0.0042
3015.00,0.0043
3014.00,0.0044
3013.00,0.0046
3012.00,0.0047
3011.00,0.0048
3010.00,0.0050
3009.00,0.0051
3008.00,0.0053
3007.00,0.0054
3006.00,0.0056
3005.00,0.0058
3004.00,0.0060
3003.00,0.0062
3002.00,0.0065
3001.00,0.0068
3000.00,0.0070
2999.00,0.0073
2998.00,0.0076
2997.00,0.0080
2996.00,0.0084
2995.00,0.0088
2994.00,0.0092
2993.00,0.0097
2992.00,0.0103
2991.00,0.0109
2990.00,0.0115
2989.00,0.0122
2988.00,0.0130
2987.00,0.0139
2986.00,0.0149
2985.00,0.0161
2984.00,0.0174
2983.00,0.0188
2982.00,0.0203
2981.00,0.0221
2980.00,0.0240
2979.00,0.0262
2978.00,0.0288
2977.00,0.0316
2976.00,0.0350
2975.00,0.0388
2974.00,0.0431
2973.00,0.0479
2972.00,0.0534
2971.00,0.0594
2970.00,0.0661
2969.00,0.0735
2968.00,0.0815
2967.00,0.0901
2966.00,0.0990
2965.00,0.1081
2964.00,0.1169
2963.00,0.1250
2962.00,0.1322
2961.00,0.1383
2960.00,0.1433
2959.00,0.1477
2958.00,0.1517
2957.00,0.1561
2956.00,0.1612
2955.00,0.1674
2954.00,0.1745
2953.00,0.1821
2952.00,0.1893
2951.00,0.1949
2950.00,0.1979
2949.00,0.1972
2948.00,0.1923
2947.00,0.1835
2946.00,0.1715
2945.00,0.1579
2944.00,0.1442
2943.00,0.1317
2942.00,0.1215
2941.00,0.1139
2940.00,0.1090
2939.00,0.1066
2938.00,0.1064
2937.00,0.1083
2936.00,0.1119
2935.00,0.1172
2934.00,0.1240
2933.00,0.1321
2932.00,0.1414
2931.00,0.1516
2930.00,0.1625
2929.00,0.1736
2928.00,0.1847
2927.00,0.1955
2926.00,0.2058
2925.00,0.2156
2924.00,0.2249
2923.00,0.2339
2922.00,0.2427
2921.00,0.2511
2920.00,0.2587
2919.00,0.2645
2918.00,0.2678
2917.00,0.2679
2916.00,0.2646
2915.00,0.2584
2914.00,0.2501
2913.00,0.2406
2912.00,0.2307
2911.00,0.2212
2910.00,0.2122
2909.00,0.2040
2908.00,0.1962
2907.00,0.1888
2906.00,0.1815
2905.00,0.1741
2904.00,0.1667
2903.00,0.1593
2902.00,0.1521
2901.00,0.1451
2900.00,0.1384
2899.00,0.1320
2898.00,0.1261
2897.00,0.1208
2896.00,0.1162
2895.00,0.1123
2894.00,0.1091
2893.00,0.1066
2892.00,0.1048
2891.00,0.1036
2890.00,0.1031
2889.00,0.1030
2888.00,0.1034
2887.00,0.1041
2886.00,0.1053
2885.00,0.1068
2884.00,0.1088
2883.00,0.1113
2882.00,0.1143
2881.00,0.1175
2880.00,0.1208
2879.00,0.1236
2878.00,0.1256
2877.00,0.1265
2876.00,0.1263
2875.00,0.1255
2874.00,0.1245
2873.00,0.1241
2872.00,0.1244
2871.00,0.1256
2870.00,0.1275
2869.00,0.1295
2868.00,0.1309
2867.00,0.1306
2866.00,0.1280
2865.00,0.1225
2864.00,0.1146
2863.00,0.1050
2862.00,0.0949
2861.00,0.0853
2860.00,0.0770
2859.00,0.0702
2858.00,0.0650
2857.00,0.0612
2856.00,0.0584
2855.00,0.0566
2854.00,0.0556
2853.00,0.0552
2852.00,0.0555
2851.00,0.0565
2850.00,0.0583
2849.00,0.0611
2848.00,0.0649
2847.00,0.0696
2846.00,0.0753
2845.00,0.0819
2844.00,0.0891
2843.00,0.0967
2842.00,0.1045
2841.00,0.1119
2840.00,0.1181
2839.00,0.1223
2838.00,0.1236
2837.00,0.1214
2836.00,0.1157
2835.00,0.1070
2834.00,0.0963
2833.00,0.0849
2832.00,0.0740
2831.00,0.0643
2830.00,0.0560
2829.00,0.0493
2828.00,0.0438
2827.00,0.0394
2826.00,0.0359
2825.00,0.0329
2824.00,0.0305
2823.00,0.0285
2822.00,0.0268
2821.00,0.0253
2820.00,0.0241
2819.00,0.0230
2818.00,0.0220
2817.00,0.0212
2816.00,0.0204
2815.00,0.0198
2814.00,0.0192
2813.00,0.0186
2812.00,0.0180
2811.00,0.0175
2810.00,0.0169
2809.00,0.0164
2808.00,0.0158
2807.00,0.0151
2806.00,0.0145
2805.00,0.0138
2804.00,0.0131
2803.00,0.0125
2802.00,0.0120
2801.00,0.0115
2800.00,0.0111
2799.00,0.0108
2798.00,0.0105
2797.00,0.0103
2796.00,0.0101
2795.00,0.0098
2794.00,0.0096
2793.00,0.0093
2792.00,0.0090
2791.00,0.0087
2790.00,0.0084
2789.00,0.0081
2788.00,0.0078
2787.00,0.0075
2786.00,0.0073
2785.00,0.0070
2784.00,0.0068
2783.00,0.0066
2782.00,0.0064
2781.00,0.0062
2780.00,0.0061
2779.00,0.0059
2778.00,0.0058
2777.00,0.0056
2776.00,0.0055
2775.00,0.0054
2774.00,0.0054
2773.00,0.0053
2772.00,0.0052
2771.00,0.0052
2770.00,0.0051
2769.00,0.0051
2768.00,0.0051
2767.00,0.0050
2766.00,0.0050
2765.00,0.0050
2764.00,0.0050
2763.00,0.0049
2762.00,0.0049
2761.00,0.0049
2760.00,0.0048
2759.00,0.0048
2758.00,0.0048
2757.00,0.0048
2756.00,0.0047
2755.00,0.0047
2754.00,0.0047
2753.00,0.0047
2752.00,0.0047
2751.00,0.0047
2750.00,0.0046
2749.00,0.0046
2748.00,0.0047
2747.00,0.0047
2746.00,0.0048
2745.00,0.0049
2744.00,0.0050
2743.00,0.0050
2742.00,0.0051
2741.00,0.0053
2740.00,0.0054
2739.00,0.0056
2738.00,0.0057
2737.00,0.0059
2736.00,0.0060
2735.00,0.0062
2734.00,0.0064
2733.00,0.0065
2732.00,0.0067
2731.00,0.0069
2730.00,0.0071
2729.00,0.0074
2728.00,0.0077
2727.00,0.0080
2726.00,0.0083
2725.00,0.0085
2724.00,0.0087
2723.00,0.0087
2722.00,0.0087
2721.00,0.0085
2720.00,0.0081
2719.00,0.0078
2718.00,0.0074
2717.00,0.0070
2716.00,0.0067
2715.00,0.0065
2714.00,0.0062
2713.00,0.0060
2712.00,0.0057
2711.00,0.0055
2710.00,0.0053
2709.00,0.0052
2708.00,0.0051
2707.00,0.0049
2706.00,0.0048
2705.00,0.0047
2704.00,0.0046
2703.00,0.0045
2702.00,0.0044
2701.00,0.0043
2700.00,0.0042
2699.00,0.0042
2698.00,0.0041
2697.00,0.0041
2696.00,0.0040
2695.00,0.0040
2694.00,0.0040
2693.00,0.0040
2692.00,0.0041
2691.00,0.0041
2690.00,0.0041
2689.00,0.0041
2688.00,0.0040
2687.00,0.0040
2686.00,0.0040
2685.00,0.0040
2684.00,0.0040
2683.00,0.0040
2682.00,0.0040
2681.00,0.0040
2680.00,0.0041
2679.00,0.0041
2678.00,0.0041
2677.00,0.0042
2676.00,0.0041
2675.00,0.0041
2674.00,0.0041
2673.00,0.0040
2672.00,0.0040
2671.00,0.0040
2670.00,0.0040
2669.00,0.0041
2668.00,0.0041
2667.00,0.0041
2666.00,0.0041
2665.00,0.0041
2664.00,0.0042
2663.00,0.0042
2662.00,0.0043
2661.00,0.0043
2660.00,0.0043
2659.00,0.0043
2658.00,0.0043
2657.00,0.0043
2656.00,0.0043
2655.00,0.0043
2654.00,0.0042
2653.00,0.0041
2652.00,0.0040
2651.00,0.0039
2650.00,0.0038
2649.00,0.0038
2648.00,0.0037
2647.00,0.0037
2646.00,0.0037
2645.00,0.0037
2644.00,0.0037
2643.00,0.0036
2642.00,0.0036
2641.00,0.0036
2640.00,0.0035
2639.00,0.0035
2638.00,0.0035
2637.00,0.0034
2636.00,0.0034
2635.00,0.0034
2634.00,0.0034
2633.00,0.0034
2632.00,0.0034
2631.00,0.0034
2630.00,0.0033
2629.00,0.0034
2628.00,0.0034
2627.00,0.0035
2626.00,0.0035
2625.00,0.0035
2624.00,0.0036
2623.00,0.0036
2622.00,0.0036
2621.00,0.0036
2620.00,0.0036
2619.00,0.0036
2618.00,0.0036
2617.00,0.0036
2616.00,0.0036
2615.00,0.0036
2614.00,0.0036
2613.00,0.0036
2612.00,0.0036
2611.00,0.0035
2610.00,0.0035
2609.00,0.0034
2608.00,0.0033
2607.00,0.0032
2606.00,0.0031
2605.00,0.0031
2604.00,0.0031
2603.00,0.0030
2602.00,0.0030
2601.00,0.0029
2600.00,0.0029
2599.00,0.0029
2598.00,0.0029
2597.00,0.0029
2596.00,0.0029
2595.00,0.0030
2594.00,0.0030
2593.00,0.0030
2592.00,0.0030
2591.00,0.0031
2590.00,0.0031
2589.00,0.0032
2588.00,0.0032
2587.00,0.0034
2586.00,0.0035
2585.00,0.0036
2584.00,0.0036
2583.00,0.0036
2582.00,0.0036
2581.00,0.0036
2580.00,0.0036
2579.00,0.0035
2578.00,0.0034
2577.00,0.0033
2576.00,0.0032
2575.00,0.0031
2574.00,0.0031
2573.00,0.0029
2572.00,0.0028
2571.00,0.0027
2570.00,0.0026
2569.00,0.0025
2568.00,0.0025
2567.00,0.0024
2566.00,0.0023
2565.00,0.0022
2564.00,0.0021
2563.00,0.0021
2562.00,0.0020
2561.00,0.0020
2560.00,0.0020
2559.00,0.0020
2558.00,0.0020
2557.00,0.0020
2556.00,0.0020
2555.00,0.0020
2554.00,0.0020
2553.00,0.0020
2552.00,0.0020
2551.00,0.0019
2550.00,0.0019
2549.00,0.0018
2548.00,0.0018
2547.00,0.0017
2546.00,0.0016
2545.00,0.0016
2544.00,0.0016
2543.00,0.0015
2542.00,0.0015
2541.00,0.0015
2540.00,0.0014
2539.00,0.0014
2538.00,0.0013
2537.00,0.0013
2536.00,0.0013
2535.00,0.0013
2534.00,0.0013
2533.00,0.0013
2532.00,0.0012
2531.00,0.0012
2530.00,0.0013
2529.00,0.0013
2528.00,0.0013
2527.00,0.0012
2526.00,0.0012
2525.00,0.0011
2524.00,0.0010
2523.00,0.0010
2522.00,0.0009
2521.00,0.0008
2520.00,0.0008
2519.00,0.0008
2518.00,0.0009
2517.00,0.0009
2516.00,0.0009
2515.00,0.0009
2514.00,0.0008
2513.00,0.0009
2512.00,0.0009
2511.00,0.0008
2510.00,0.0008
2509.00,0.0008
2508.00,0.0008
2507.00,0.0007
2506.00,0.0007
2505.00,0.0008
2504.00,0.0008
2503.00,0.0008
2502.00,0.0008
2501.00,0.0007
2500.00,0.0007
2499.00,0.0006
2498.00,0.0006
2497.00,0.0007
2496.00,0.0007
2495.00,0.0008
2494.00,0.0008
2493.00,0.0008
2492.00,0.0008
2491.00,0.0008
2490.00,0.0007
2489.00,0.0007
2488.00,0.0008
2487.00,0.0008
2486.00,0.0007
2485.00,0.0007
2484.00,0.0007
2483.00,0.0007
2482.00,0.0007
2481.00,0.0008
2480.00,0.0007
2479.00,0.0007
2478.00,0.0006
2477.00,0.0006
2476.00,0.0006
2475.00,0.0007
2474.00,0.0007
2473.00,0.0007
2472.00,0.0007
2471.00,0.0007
2470.00,0.0007
2469.00,0.0007
2468.00,0.0007
2467.00,0.0007
2466.00,0.0007
2465.00,0.0007
2464.00,0.0007
2463.00,0.0007
2462.00,0.0008
2461.00,0.0008
2460.00,0.0008
2459.00,0.0009
2458.00,0.0009
2457.00,0.0009
2456.00,0.0009
2455.00,0.0009
2454.00,0.0009
2453.00,0.0009
2452.00,0.0009
2451.00,0.0009
2450.00,0.0009
2449.00,0.0009
2448.00,0.0009
2447.00,0.0009
2446.00,0.0008
2445.00,0.0008
2444.00,0.0007
2443.00,0.0008
2442.00,0.0008
2441.00,0.0008
2440.00,0.0009
2439.00,0.0008
2438.00,0.0008
2437.00,0.0008
2436.00,0.0008
2435.00,0.0008
2434.00,0.0008
2433.00,0.0008
2432.00,0.0008
2431.00,0.0008
2430.00,0.0008
2429.00,0.0008
2428.00,0.0009
2427.00,0.0009
2426.00,0.0009
2425.00,0.0009
2424.00,0.0009
2423.00,0.0009
2422.00,0.0009
2421.00,0.0008
2420.00,0.0008
2419.00,0.0007
2418.00,0.0007
2417.00,0.0007
2416.00,0.0008
2415.00,0.0008
2414.00,0.0008
2413.00,0.0008
2412.00,0.0007
2411.00,0.0007
2410.00,0.0007
2409.00,0.0007
2408.00,0.0007
2407.00,0.0007
2406.00,0.0007
2405.00,0.0007
2404.00,0.0007
2403.00,0.0007
2402.00,0.0006
2401.00,0.0006
2400.00,0.0006
2399.00,0.0006
2398.00,0.0007
2397.00,0.0007
2396.00,0.0006
2395.00,0.0006
2394.00,0.0006
2393.00,0.0006
2392.00,0.0006
2391.00,0.0006
2390.00,0.0006
2389.00,0.0006
2388.00,0.0005
2387.00,0.0005
2386.00,0.0004
2385.00,0.0004
2384.00,0.0004
2383.00,0.0003
2382.00,0.0003
2381.00,0.0002
2380.00,0.0002
2379.00,0.0002
2378.00,0.0002
2377.00,0.0002
2376.00,0.0003
2375.00,0.0002
2374.00,0.0002
2373.00,0.0002
2372.00,0.0002
2371.00,0.0001
2370.00,0.0001
2369.00,0.0001
2368.00,0.0000
2367.00,0.0000
2366.00,-0.0000
2365.00,-0.0000
2364.00,-0.0000
2363.00,0.0000
2362.00,0.0001
2361.00,0.0002
2360.00,0.0003
2359.00,0.0003
2358.00,0.0002
2357.00,0.0001
2356.00,0.0001
2355.00,0.0001
2354.00,0.0001
2353.00,0.0001
2352.00,0.0001
2351.00,0.0001
2350.00,0.0001
2349.00,0.0002
2348.00,0.0003
2347.00,0.0004
2346.00,0.0004
2345.00,0.0003
2344.00,0.0002
2343.00,0.0001
2342.00,0.0001
2341.00,0.0002
2340.00,0.0003
2339.00,0.0004
2338.00,0.0004
2337.00,0.0004
2336.00,0.0005
2335.00,0.0005
2334.00,0.0005
2333.00,0.0004
2332.00,0.0004
2331.00,0.0003
2330.00,0.0003
2329.00,0.0004
2328.00,0.0006
2327.00,0.0010
2326.00,0.0014
2325.00,0.0018
2324.00,0.0019
2323.00,0.0018
2322.00,0.0016
2321.00,0.0014
2320.00,0.0012
2319.00,0.0010
2318.00,0.0009
2317.00,0.0008
2316.00,0.0007
2315.00,0.0007
2314.00,0.0006
2313.00,0.0006
2312.00,0.0006
2311.00,0.0007
2310.00,0.0007
2309.00,0.0008
2308.00,0.0008
2307.00,0.0009
2306.00,0.0009
2305.00,0.0009
2304.00,0.0010
2303.00,0.0010
2302.00,0.0009
2301.00,0.0009
2300.00,0.0009
2299.00,0.0010
2298.00,0.0010
2297.00,0.0011
2296.00,0.0012
2295.00,0.0013
2294.00,0.0014
2293.00,0.0015
2292.00,0.0015
2291.00,0.0015
2290.00,0.0016
2289.00,0.0016
2288.00,0.0016
2287.00,0.0017
2286.00,0.0016
2285.00,0.0016
2284.00,0.0015
2283.00,0.0014
2282.00,0.0013
2281.00,0.0012
2280.00,0.0012
2279.00,0.0012
2278.00,0.0012
2277.00,0.0012
2276.00,0.0011
2275.00,0.0011
2274.00,0.0011
2273.00,0.0012
2272.00,0.0012
2271.00,0.0012
2270.00,0.0012
2269.00,0.0012
2268.00,0.0011
2267.00,0.0010
2266.00,0.0009
2265.00,0.0009
2264.00,0.0008
2263.00,0.0008
2262.00,0.0008
2261.00,0.0008
2260.00,0.0009
2259.00,0.0009
2258.00,0.0010
2257.00,0.0010
2256.00,0.0009
2255.00,0.0009
2254.00,0.0008
2253.00,0.0008
2252.00,0.0007
2251.00,0.0007
2250.00,0.0008
2249.00,0.0009
2248.00,0.0010
2247.00,0.0010
2246.00,0.0009
2245.00,0.0010
2244.00,0.0010
2243.00,0.0009
2242.00,0.0009
2241.00,0.0008
2240.00,0.0007
2239.00,0.0005
2238.00,0.0004
2237.00,0.0003
2236.00,0.0003
2235.00,0.0003
2234.00,0.0004
2233.00,0.0005
2232.00,0.0006
2231.00,0.0006
2230.00,0.0006
2229.00,0.0007
2228.00,0.0008
2227.00,0.0008
2226.00,0.0008
2225.00,0.0007
2224.00,0.0006
2223.00,0.0005
2222.00,0.0004
2221.00,0.0004
2220.00,0.0004
2219.00,0.0005
2218.00,0.0005
2217.00,0.0005
2216.00,0.0006
2215.00,0.0006
2214.00,0.0006
2213.00,0.0005
2212.00,0.0005
2211.00,0.0004
2210.00,0.0003
2209.00,0.0003
2208.00,0.0003
2207.00,0.0004
2206.00,0.0004
2205.00,0.0004
2204.00,0.0004
2203.00,0.0004
2202.00,0.0004
2201.00,0.0005
2200.00,0.0006
2199.00,0.0007
2198.00,0.0007
2197.00,0.0006
2196.00,0.0006
2195.00,0.0005
2194.00,0.0004
2193.00,0.0003
2192.00,0.0003
2191.00,0.0004
2190.00,0.0005
2189.00,0.0006
2188.00,0.0008
2187.00,0.0011
2186.00,0.0013
2185.00,0.0014
2184.00,0.0013
2183.00,0.0009
2182.00,0.0006
2181.00,0.0005
2180.00,0.0007
2179.00,0.0010
2178.00,0.0012
2177.00,0.0012
2176.00,0.0010
2175.00,0.0008
2174.00,0.0007
2173.00,0.0008
2172.00,0.0008
2171.00,0.0008
2170.00,0.0008
2169.00,0.0010
2168.00,0.0011
2167.00,0.0012
2166.00,0.0011
2165.00,0.0009
2164.00,0.0009
2163.00,0.0010
2162.00,0.0010
2161.00,0.0007
2160.00,-0.0003
2159.00,-0.0017
2158.00,-0.0029
2157.00,-0.0033
2156.00,-0.0032
2155.00,-0.0029
2154.00,-0.0026
2153.00,-0.0023
2152.00,-0.0019
2151.00,-0.0016
2150.00,-0.0015
2149.00,-0.0015
2148.00,-0.0017
2147.00,-0.0019
2146.00,-0.0019
2145.00,-0.0018
2144.00,-0.0017
2143.00,-0.0016
2142.00,-0.0015
2141.00,-0.0013
2140.00,-0.0011
2139.00,-0.0011
2138.00,-0.0012
2137.00,-0.0013
2136.00,-0.0015
2135.00,-0.0018
2134.00,-0.0020
2133.00,-0.0020
2132.00,-0.0018
2131.00,-0.0016
2130.00,-0.0015
2129.00,-0.0014
2128.00,-0.0013
2127.00,-0.0012
2126.00,-0.0010
2125.00,-0.0009
2124.00,-0.0008
2123.00,-0.0008
2122.00,-0.0008
2121.00,-0.0007
2120.00,-0.0006
2119.00,-0.0004
2118.00,-0.0002
2117.00,-0.0001
2116.00,0.0001
2115.00,0.0001
2114.00,0.0002
2113.00,0.0002
2112.00,0.0001
2111.00,0.0001
2110.00,-0.0000
2109.00,-0.0001
2108.00,-0.0002
2107.00,-0.0002
2106.00,-0.0001
2105.00,-0.0000
2104.00,0.0001
2103.00,0.0001
2102.00,-0.0000
2101.00,-0.0001
2100.00,-0.0002
2099.00,-0.0003
2098.00,-0.0003
2097.00,-0.0004
2096.00,-0.0006
2095.00,-0.0008
2094.00,-0.0007
2093.00,-0.0006
2092.00,-0.0003
2091.00,-0.0002
2090.00,-0.0002
2089.00,-0.0002
2088.00,-0.0002
2087.00,-0.0002
2086.00,-0.0001
2085.00,0.0000
2084.00,0.0002
2083.00,0.0004
2082.00,0.0004
2081.00,0.0004
2080.00,0.0003
2079.00,0.0002
2078.00,0.0001
2077.00,-0.0000
2076.00,-0.0001
2075.00,-0.0001
2074.00,-0.0000
2073.00,-0.0000
2072.00,-0.0001
2071.00,-0.0001
2070.00,-0.0001
2069.00,-0.0000
2068.00,0.0001
2067.00,0.0001
2066.00,0.0000
2065.00,-0.0001
2064.00,-0.0003
2063.00,-0.0005
2062.00,-0.0006
2061.00,-0.0007
2060.00,-0.0006
2059.00,-0.0005
2058.00,-0.0003
2057.00,-0.0002
2056.00,-0.0002
2055.00,-0.0003
2054.00,-0.0003
2053.00,0.0000
2052.00,0.0004
2051.00,0.0006
2050.00,0.0004
2049.00,-0.0000
2048.00,-0.0002
2047.00,-0.0002
2046.00,-0.0001
2045.00,0.0001
2044.00,0.0001
2043.00,0.0000
2042.00,-0.0000
2041.00,-0.0001
2040.00,-0.0001
2039.00,-0.0001
2038.00,-0.0001
2037.00,0.0001
2036.00,0.0004
2035.00,0.0005
2034.00,0.0004
2033.00,-0.0000
2032.00,-0.0005
2031.00,-0.0008
2030.00,-0.0011
2029.00,-0.0013
2028.00,-0.0015
2027.00,-0.0018
2026.00,-0.0019
2025.00,-0.0019
2024.00,-0.0016
2023.00,-0.0013
2022.00,-0.0012
2021.00,-0.0012
2020.00,-0.0012
2019.00,-0.0011
2018.00,-0.0009
2017.00,-0.0008
2016.00,-0.0008
2015.00,-0.0010
2014.00,-0.0013
2013.00,-0.0015
2012.00,-0.0016
2011.00,-0.0017
2010.00,-0.0016
2009.00,-0.0015
2008.00,-0.0016
2007.00,-0.0018
2006.00,-0.0021
2005.00,-0.0023
2004.00,-0.0023
2003.00,-0.0022
2002.00,-0.0020
2001.00,-0.0017
2000.00,-0.0015
1999.00,-0.0013
1998.00,-0.0012
1997.00,-0.0010
1996.00,-0.0009
1995.00,-0.0009
1994.00,-0.0007
1993.00,-0.0004
1992.00,-0.0001
1991.00,0.0000
1990.00,0.0001
1989.00,0.0001
1988.00,0.0000
1987.00,-0.0001
1986.00,-0.0003
1985.00,-0.0005
1984.00,-0.0005
1983.00,-0.0004
1982.00,-0.0001
1981.00,0.0004
1980.00,0.0007
1979.00,0.0007
1978.00,0.0003
1977.00,-0.0002
1976.00,-0.0005
1975.00,-0.0009
1974.00,-0.0012
1973.00,-0.0015
1972.00,-0.0015
1971.00,-0.0014
1970.00,-0.0014
1969.00,-0.0016
1968.00,-0.0019
1967.00,-0.0021
1966.00,-0.0020
1965.00,-0.0019
1964.00,-0.0017
1963.00,-0.0016
1962.00,-0.0017
1961.00,-0.0017
1960.00,-0.0018
1959.00,-0.0018
1958.00,-0.0018
1957.00,-0.0017
1956.00,-0.0016
1955.00,-0.0014
1954.00,-0.0013
1953.00,-0.0013
1952.00,-0.0014
1951.00,-0.0015
1950.00,-0.0016
1949.00,-0.0016
1948.00,-0.0015
1947.00,-0.0013
1946.00,-0.0013
1945.00,-0.0013
1944.00,-0.0015
1943.00,-0.0016
1942.00,-0.0016
1941.00,-0.0015
1940.00,-0.0014
1939.00,-0.0013
1938.00,-0.0014
1937.00,-0.0015
1936.00,-0.0015
1935.00,-0.0015
1934.00,-0.0014
1933.00,-0.0013
1932.00,-0.0012
1931.00,-0.0012
1930.00,-0.0012
1929.00,-0.0012
1928.00,-0.0011
1927.00,-0.0011
1926.00,-0.0010
1925.00,-0.0008
1924.00,-0.0007
1923.00,-0.0005
1922.00,-0.0004
1921.00,-0.0004
1920.00,-0.0004
1919.00,-0.0006
1918.00,-0.0007
1917.00,-0.0007
1916.00,-0.0006
1915.00,-0.0004
1914.00,-0.0003
1913.00,-0.0004
1912.00,-0.0004
1911.00,-0.0004
1910.00,-0.0004
1909.00,-0.0004
1908.00,-0.0003
1907.00,-0.0004
1906.00,-0.0004
1905.00,-0.0005
1904.00,-0.0005
1903.00,-0.0005
1902.00,-0.0004
1901.00,-0.0003
1900.00,-0.0002
1899.00,-0.0002
1898.00,-0.0002
1897.00,-0.0002
1896.00,-0.0002
1895.00,-0.0003
1894.00,-0.0003
1893.00,-0.0003
1892.00,-0.0002
1891.00,-0.0002
1890.00,-0.0002
1889.00,-0.0001
1888.00,-0.0000
1887.00,-0.0001
1886.00,-0.0002
1885.00,-0.0003
1884.00,-0.0004
1883.00,-0.0004
1882.00,-0.0004
1881.00,-0.0004
1880.00,-0.0004
1879.00,-0.0005
1878.00,-0.0006
1877.00,-0.0006
1876.00,-0.0005
1875.00,-0.0004
1874.00,-0.0004
1873.00,-0.0004
1872.00,-0.0004
1871.00,-0.0004
1870.00,-0.0004
1869.00,-0.0003
1868.00,-0.0003
1867.00,-0.0003
1866.00,-0.0002
1865.00,-0.0001
1864.00,-0.0000
1863.00,0.0000
1862.00,0.0001
1861.00,0.0001
1860.00,-0.0000
1859.00,-0.0001
1858.00,-0.0002
1857.00,-0.0002
1856.00,-0.0002
1855.00,-0.0001
1854.00,-0.0001
1853.00,-0.0001
1852.00,-0.0001
1851.00,-0.0000
1850.00,0.0000
1849.00,0.0000
1848.00,0.0000
1847.00,-0.0000
1846.00,-0.0001
1845.00,-0.0000
1844.00,0.0000
1843.00,0.0001
1842.00,0.0001
1841.00,0.0001
1840.00,0.0001
1839.00,0.0001
1838.00,0.0001
1837.00,0.0001
1836.00,0.0002
1835.00,0.0002
1834.00,0.0001
1833.00,0.0001
1832.00,0.0001
1831.00,0.0001
1830.00,0.0001
1829.00,0.0002
1828.00,0.0002
1827.00,0.0002
1826.00,0.0002
1825.00,0.0001
1824.00,0.0002
1823.00,0.0002
1822.00,0.0002
1821.00,0.0002
1820.00,0.0001
1819.00,-0.0000
1818.00,-0.0002
1817.00,-0.0002
1816.00,-0.0003
1815.00,-0.0003
1814.00,-0.0003
1813.00,-0.0003
1812.00,-0.0002
1811.00,-0.0001
1810.00,0.0000
1809.00,0.0001
1808.00,0.0001
1807.00,0.0001
1806.00,0.0001
1805.00,0.0002
1804.00,0.0002
1803.00,0.0002
1802.00,0.0002
1801.00,0.0002
1800.00,0.0002
1799.00,0.0002
1798.00,0.0003
1797.00,0.0003
1796.00,0.0003
1795.00,0.0004
1794.00,0.0004
1793.00,0.0004
1792.00,0.0004
1791.00,0.0004
1790.00,0.0004
1789.00,0.0004
1788.00,0.0004
1787.00,0.0004
1786.00,0.0003
1785.00,0.0003
1784.00,0.0002
1783.00,0.0002
1782.00,0.0002
1781.00,0.0002
1780.00,0.0002
1779.00,0.0001
1778.00,0.0000
1777.00,-0.0000
1776.00,-0.0001
1775.00,-0.0001
1774.00,-0.0002
1773.00,-0.0002
1772.00,-0.0002
1771.00,-0.0002
1770.00,-0.0001
1769.00,0.0001
1768.00,0.0002
1767.00,0.0002
1766.00,0.0002
1765.00,0.0001
1764.00,0.0002
1763.00,0.0002
1762.00,0.0002
1761.00,0.0003
1760.00,0.0003
1759.00,0.0003
1758.00,0.0004
1757.00,0.0004
1756.00,0.0004
1755.00,0.0003
1754.00,0.0003
1753.00,0.0003
1752.00,0.0003
1751.00,0.0003
1750.00,0.0003
1749.00,0.0003
1748.00,0.0003
1747.00,0.0003
1746.00,0.0003
1745.00,0.0003
1744.00,0.0003
1743.00,0.0004
1742.00,0.0003
1741.00,0.0003
1740.00,0.0003
1739.00,0.0003
1738.00,0.0002
1737.00,0.0002
1736.00,0.0002
1735.00,0.0001
1734.00,0.0001
1733.00,0.0002
1732.00,0.0002
1731.00,0.0002
1730.00,0.0002
1729.00,0.0003
1728.00,0.0003
1727.00,0.0004
1726.00,0.0004
1725.00,0.0004
1724.00,0.0003
1723.00,0.0004
1722.00,0.0004
1721.00,0.0005
1720.00,0.0005
1719.00,0.0005
1718.00,0.0006
1717.00,0.0007
1716.00,0.0007
1715.00,0.0008
1714.00,0.0008
1713.00,0.0008
1712.00,0.0008
1711.00,0.0009
1710.00,0.0010
1709.00,0.0010
1708.00,0.0011
1707.00,0.0011
1706.00,0.0012
1705.00,0.0012
1704.00,0.0013
1703.00,0.0014
1702.00,0.0015
1701.00,0.0016
1700.00,0.0017
1699.00,0.0018
1698.00,0.0019
1697.00,0.0021
1696.00,0.0023
1695.00,0.0025
1694.00,0.0026
1693.00,0.0027
1692.00,0.0028
1691.00,0.0029
1690.00,0.0030
1689.00,0.0031
1688.00,0.0032
1687.00,0.0033
1686.00,0.0033
1685.00,0.0034
1684.00,0.0036
1683.00,0.0038
1682.00,0.0040
1681.00,0.0042
1680.00,0.0044
1679.00,0.0045
1678.00,0.0046
1677.00,0.0047
1676.00,0.0048
1675.00,0.0049
1674.00,0.0050
1673.00,0.0051
1672.00,0.0052
1671.00,0.0053
1670.00,0.0054
1669.00,0.0055
1668.00,0.0056
1667.00,0.0057
1666.00,0.0057
1665.00,0.0058
1664.00,0.0058
1663.00,0.0059
1662.00,0.0059
1661.00,0.0059
1660.00,0.0060
1659.00,0.0060
1658.00,0.0061
1657.00,0.0062
1656.00,0.0063
1655.00,0.0063
1654.00,0.0063
1653.00,0.0063
1652.00,0.0063
1651.00,0.0064
1650.00,0.0065
1649.00,0.0066
1648.00,0.0067
1647.00,0.0068
1646.00,0.0069
1645.00,0.0069
1644.00,0.0068
1643.00,0.0067
1642.00,0.0067
1641.00,0.0066
1640.00,0.0065
1639.00,0.0064
1638.00,0.0062
1637.00,0.0061
1636.00,0.0061
1635.00,0.0061
1634.00,0.0061
1633.00,0.0061
1632.00,0.0061
1631.00,0.0061
1630.00,0.0060
1629.00,0.0060
1628.00,0.0059
1627.00,0.0059
1626.00,0.0058
1625.00,0.0058
1624.00,0.0057
1623.00,0.0056
1622.00,0.0055
1621.00,0.0054
1620.00,0.0054
1619.00,0.0053
1618.00,0.0052
1617.00,0.0051
1616.00,0.0051
1615.00,0.0050
1614.00,0.0050
1613.00,0.0050
1612.00,0.0050
1611.00,0.0049
1610.00,0.0047
1609.00,0.0046
1608.00,0.0046
1607.00,0.0046
1606.00,0.0047
1605.00,0.0047
1604.00,0.0048
1603.00,0.0048
1602.00,0.0048
1601.00,0.0048
1600.00,0.0048
1599.00,0.0047
1598.00,0.0047
1597.00,0.0047
1596.00,0.0047
1595.00,0.0047
1594.00,0.0047
1593.00,0.0047
1592.00,0.0047
1591.00,0.0047
1590.00,0.0048
1589.00,0.0048
1588.00,0.0049
1587.00,0.0049
1586.00,0.0050
1585.00,0.0051
1584.00,0.0052
1583.00,0.0053
1582.00,0.0054
1581.00,0.0055
1580.00,0.0055
1579.00,0.0056
1578.00,0.0056
1577.00,0.0056
1576.00,0.0056
1575.00,0.0057
1574.00,0.0056
1573.00,0.0056
1572.00,0.0056
1571.00,0.0056
1570.00,0.0055
1569.00,0.0055
1568.00,0.0055
1567.00,0.0055
1566.00,0.0055
1565.00,0.0055
1564.00,0.0055
1563.00,0.0055
1562.00,0.0055
1561.00,0.0055
1560.00,0.0055
1559.00,0.0057
1558.00,0.0058
1557.00,0.0059
1556.00,0.0060
1555.00,0.0060
1554.00,0.0061
1553.00,0.0061
1552.00,0.0063
1551.00,0.0064
1550.00,0.0064
1549.00,0.0065
1548.00,0.0066
1547.00,0.0067
1546.00,0.0068
1545.00,0.0068
1544.00,0.0069
1543.00,0.0069
1542.00,0.0069
1541.00,0.0068
1540.00,0.0067
1539.00,0.0065
1538.00,0.0064
1537.00,0.0064
1536.00,0.0064
1535.00,0.0063
1534.00,0.0062
1533.00,0.0060
1532.00,0.0058
1531.00,0.0057
1530.00,0.0057
1529.00,0.0057
1528.00,0.0057
1527.00,0.0056
1526.00,0.0055
1525.00,0.0055
1524.00,0.0055
1523.00,0.0055
1522.00,0.0055
1521.00,0.0055
1520.00,0.0056
1519.00,0.0055
1518.00,0.0055
1517.00,0.0056
1516.00,0.0057
1515.00,0.0057
1514.00,0.0057
1513.00,0.0058
1512.00,0.0058
1511.00,0.0058
1510.00,0.0058
1509.00,0.0059
1508.00,0.0060
1507.00,0.0060
1506.00,0.0061
1505.00,0.0062
1504.00,0.0063
1503.00,0.0064
1502.00,0.0066
1501.00,0.0067
1500.00,0.0069
1499.00,0.0070
1498.00,0.0072
1497.00,0.0074
1496.00,0.0078
1495.00,0.0080
1494.00,0.0083
1493.00,0.0086
1492.00,0.0090
1491.00,0.0092
1490.00,0.0095
1489.00,0.0099
1488.00,0.0104
1487.00,0.0109
1486.00,0.0113
1485.00,0.0120
1484.00,0.0127
1483.00,0.0134
1482.00,0.0143
1481.00,0.0154
1480.00,0.0166
1479.00,0.0178
1478.00,0.0192
1477.00,0.0211
1476.00,0.0232
1475.00,0.0256
1474.00,0.0289
1473.00,0.0342
1472.00,0.0407
1471.00,0.0473
1470.00,0.0536
1469.00,0.0602
1468.00,0.0674
1467.00,0.0753
1466.00,0.0844
1465.00,0.0943
1464.00,0.1032
1463.00,0.1097
1462.00,0.1142
1461.00,0.1175
1460.00,0.1199
1459.00,0.1216
1458.00,0.1230
1457.00,0.1241
1456.00,0.1244
1455.00,0.1239
1454.00,0.1230
1453.00,0.1214
1452.00,0.1186
1451.00,0.1145
1450.00,0.1088
1449.00,0.1009
1448.00,0.0911
1447.00,0.0809
1446.00,0.0719
1445.00,0.0643
1444.00,0.0579
1443.00,0.0528
1442.00,0.0491
1441.00,0.0466
1440.00,0.0453
1439.00,0.0448
1438.00,0.0451
1437.00,0.0453
1436.00,0.0442
1435.00,0.0414
1434.00,0.0374
1433.00,0.0326
1432.00,0.0276
1431.00,0.0233
1430.00,0.0200
1429.00,0.0177
1428.00,0.0162
1427.00,0.0152
1426.00,0.0146
1425.00,0.0140
1424.00,0.0134
1423.00,0.0131
1422.00,0.0129
1421.00,0.0127
1420.00,0.0124
1419.00,0.0121
1418.00,0.0119
1417.00,0.0116
1416.00,0.0113
1415.00,0.0111
1414.00,0.0111
1413.00,0.0109
1412.00,0.0108
1411.00,0.0107
1410.00,0.0107
1409.00,0.0107
1408.00,0.0105
1407.00,0.0105
1406.00,0.0105
1405.00,0.0106
1404.00,0.0106
1403.00,0.0108
1402.00,0.0110
1401.00,0.0111
1400.00,0.0112
1399.00,0.0115
1398.00,0.0117
1397.00,0.0120
1396.00,0.0122
1395.00,0.0126
1394.00,0.0132
1393.00,0.0138
1392.00,0.0145
1391.00,0.0154
1390.00,0.0167
1389.00,0.0185
1388.00,0.0211
1387.00,0.0250
1386.00,0.0303
1385.00,0.0369
1384.00,0.0456
1383.00,0.0574
1382.00,0.0729
1381.00,0.0928
1380.00,0.1177
1379.00,0.1465
1378.00,0.1751
1377.00,0.1971
1376.00,0.2060
1375.00,0.1976
1374.00,0.1738
1373.00,0.1438
1372.00,0.1157
1371.00,0.0923
1370.00,0.0735
1369.00,0.0593
1368.00,0.0496
1367.00,0.0436
1366.00,0.0404
1365.00,0.0392
1364.00,0.0394
1363.00,0.0410
1362.00,0.0433
1361.00,0.0458
1360.00,0.0476
1359.00,0.0481
1358.00,0.0468
1357.00,0.0439
1356.00,0.0397
1355.00,0.0350
1354.00,0.0306
1353.00,0.0268
1352.00,0.0238
1351.00,0.0214
1350.00,0.0194
1349.00,0.0179
1348.00,0.0166
1347.00,0.0156
1346.00,0.0148
1345.00,0.0142
1344.00,0.0137
1343.00,0.0132
1342.00,0.0129
1341.00,0.0126
1340.00,0.0123
1339.00,0.0122
1338.00,0.0121
1337.00,0.0121
1336.00,0.0121
1335.00,0.0123
1334.00,0.0126
1333.00,0.0130
1332.00,0.0135
1331.00,0.0139
1330.00,0.0140
1329.00,0.0139
1328.00,0.0134
1327.00,0.0128
1326.00,0.0121
1325.00,0.0115
1324.00,0.0109
1323.00,0.0103
1322.00,0.0099
1321.00,0.0095
1320.00,0.0091
1319.00,0.0088
1318.00,0.0086
1317.00,0.0084
1316.00,0.0082
1315.00,0.0081
1314.00,0.0080
1313.00,0.0080
1312.00,0.0081
1311.00,0.0084
1310.00,0.0087
1309.00,0.0093
1308.00,0.0100
1307.00,0.0110
1306.00,0.0119
1305.00,0.0126
1304.00,0.0130
1303.00,0.0129
1302.00,0.0126
1301.00,0.0123
1300.00,0.0122
1299.00,0.0122
1298.00,0.0123
1297.00,0.0123
1296.00,0.0123
1295.00,0.0121
1294.00,0.0117
1293.00,0.0111
1292.00,0.0105
1291.00,0.0100
1290.00,0.0095
1289.00,0.0090
1288.00,0.0086
1287.00,0.0083
1286.00,0.0080
1285.00,0.0077
1284.00,0.0075
1283.00,0.0073
1282.00,0.0071
1281.00,0.0069
1280.00,0.0068
1279.00,0.0067
1278.00,0.0066
1277.00,0.0065
1276.00,0.0065
1275.00,0.0065
1274.00,0.0065
1273.00,0.0065
1272.00,0.0066
1271.00,0.0066
1270.00,0.0067
1269.00,0.0068
1268.00,0.0069
1267.00,0.0070
1266.00,0.0071
1265.00,0.0073
1264.00,0.0075
1263.00,0.0078
1262.00,0.0081
1261.00,0.0085
1260.00,0.0091
1259.00,0.0097
1258.00,0.0104
1257.00,0.0109
1256.00,0.0112
1255.00,0.0111
1254.00,0.0106
1253.00,0.0099
1252.00,0.0092
1251.00,0.0087
1250.00,0.0082
1249.00,0.0079
1248.00,0.0077
1247.00,0.0076
1246.00,0.0075
1245.00,0.0074
1244.00,0.0073
1243.00,0.0073
1242.00,0.0072
1241.00,0.0071
1240.00,0.0070
1239.00,0.0070
1238.00,0.0069
1237.00,0.0068
1236.00,0.0067
1235.00,0.0067
1234.00,0.0067
1233.00,0.0067
1232.00,0.0066
1231.00,0.0065
1230.00,0.0065
1229.00,0.0066
1228.00,0.0067
1227.00,0.0068
1226.00,0.0071
1225.00,0.0074
1224.00,0.0077
1223.00,0.0081
1222.00,0.0085
1221.00,0.0088
1220.00,0.0090
1219.00,0.0091
1218.00,0.0091
1217.00,0.0089
1216.00,0.0086
1215.00,0.0083
1214.00,0.0079
1213.00,0.0075
1212.00,0.0072
1211.00,0.0069
1210.00,0.0066
1209.00,0.0064
1208.00,0.0063
1207.00,0.0061
1206.00,0.0059
1205.00,0.0056
1204.00,0.0054
1203.00,0.0053
1202.00,0.0052
1201.00,0.0051
1200.00,0.0050
1199.00,0.0050
1198.00,0.0050
1197.00,0.0050
1196.00,0.0051
1195.00,0.0051
1194.00,0.0051
1193.00,0.0051
1192.00,0.0051
1191.00,0.0051
1190.00,0.0051
1189.00,0.0052
1188.00,0.0053
1187.00,0.0054
1186.00,0.0056
1185.00,0.0057
1184.00,0.0059
1183.00,0.0062
1182.00,0.0064
1181.00,0.0067
1180.00,0.0071
1179.00,0.0077
1178.00,0.0083
1177.00,0.0091
1176.00,0.0102
1175.00,0.0116
1174.00,0.0135
1173.00,0.0157
1172.00,0.0185
1171.00,0.0215
1170.00,0.0244
1169.00,0.0267
1168.00,0.0282
1167.00,0.0285
1166.00,0.0280
1165.00,0.0269
1164.00,0.0255
1163.00,0.0240
1162.00,0.0227
1161.00,0.0215
1160.00,0.0206
1159.00,0.0199
1158.00,0.0195
1157.00,0.0191
1156.00,0.0189
1155.00,0.0187
1154.00,0.0186
1153.00,0.0183
1152.00,0.0179
1151.00,0.0173
1150.00,0.0166
1149.00,0.0157
1148.00,0.0148
1147.00,0.0139
1146.00,0.0131
1145.00,0.0122
1144.00,0.0115
1143.00,0.0108
1142.00,0.0101
1141.00,0.0095
1140.00,0.0089
1139.00,0.0085
1138.00,0.0081
1137.00,0.0079
1136.00,0.0076
1135.00,0.0074
1134.00,0.0072
1133.00,0.0069
1132.00,0.0068
1131.00,0.0067
1130.00,0.0068
1129.00,0.0069
1128.00,0.0071
1127.00,0.0072
1126.00,0.0073
1125.00,0.0074
1124.00,0.0074
1123.00,0.0074
1122.00,0.0074
1121.00,0.0073
1120.00,0.0073
1119.00,0.0074
1118.00,0.0076
1117.00,0.0078
1116.00,0.0080
1115.00,0.0081
1114.00,0.0082
1113.00,0.0084
1112.00,0.0087
1111.00,0.0090
1110.00,0.0094
1109.00,0.0098
1108.00,0.0104
1107.00,0.0111
1106.00,0.0119
1105.00,0.0126
1104.00,0.0132
1103.00,0.0136
1102.00,0.0136
1101.00,0.0133
1100.00,0.0129
1099.00,0.0123
1098.00,0.0116
1097.00,0.0109
1096.00,0.0104
1095.00,0.0099
1094.00,0.0096
1093.00,0.0092
1092.00,0.0088
1091.00,0.0085
1090.00,0.0082
1089.00,0.0080
1088.00,0.0079
1087.00,0.0077
1086.00,0.0076
1085.00,0.0076
1084.00,0.0075
1083.00,0.0074
1082.00,0.0073
1081.00,0.0071
1080.00,0.0069
1079.00,0.0068
1078.00,0.0068
1077.00,0.0067
1076.00,0.0067
1075.00,0.0067
1074.00,0.0066
1073.00,0.0066
1072.00,0.0067
1071.00,0.0067
1070.00,0.0068
1069.00,0.0068
1068.00,0.0068
1067.00,0.0069
1066.00,0.0070
1065.00,0.0071
1064.00,0.0072
1063.00,0.0073
1062.00,0.0073
1061.00,0.0073
1060.00,0.0073
1059.00,0.0073
1058.00,0.0074
1057.00,0.0074
1056.00,0.0074
1055.00,0.0074
1054.00,0.0074
1053.00,0.0074
1052.00,0.0073
1051.00,0.0074
1050.00,0.0076
1049.00,0.0079
1048.00,0.0081
1047.00,0.0083
1046.00,0.0084
1045.00,0.0086
1044.00,0.0086
1043.00,0.0085
1042.00,0.0083
1041.00,0.0082
1040.00,0.0081
1039.00,0.0081
1038.00,0.0082
1037.00,0.0084
1036.00,0.0085
1035.00,0.0085
1034.00,0.0085
1033.00,0.0085
1032.00,0.0085
1031.00,0.0084
1030.00,0.0083
1029.00,0.0082
1028.00,0.0082
1027.00,0.0081
1026.00,0.0081
1025.00,0.0081
1024.00,0.0081
1023.00,0.0081
1022.00,0.0081
1021.00,0.0082
1020.00,0.0082
1019.00,0.0083
1018.00,0.0083
1017.00,0.0084
1016.00,0.0086
1015.00,0.0088
1014.00,0.0091
1013.00,0.0094
1012.00,0.0098
1011.00,0.0102
1010.00,0.0106
1009.00,0.0111
1008.00,0.0116
1007.00,0.0122
1006.00,0.0129
1005.00,0.0139
1004.00,0.0153
1003.00,0.0172
1002.00,0.0197
1001.00,0.0229
1000.00,0.0261
999.00,0.0287
998.00,0.0300
997.00,0.0293
996.00,0.0269
995.00,0.0236
994.00,0.0200
993.00,0.0170
992.00,0.0146
991.00,0.0129
990.00,0.0118
989.00,0.0111
988.00,0.0106
987.00,0.0103
986.00,0.0102
985.00,0.0104
984.00,0.0109
983.00,0.0117
982.00,0.0128
981.00,0.0144
980.00,0.0165
979.00,0.0193
978.00,0.0227
977.00,0.0267
976.00,0.0308
975.00,0.0346
974.00,0.0373
973.00,0.0381
972.00,0.0366
971.00,0.0332
970.00,0.0288
969.00,0.0242
968.00,0.0203
967.00,0.0172
966.00,0.0149
965.00,0.0133
964.00,0.0121
963.00,0.0112
962.00,0.0105
961.00,0.0099
960.00,0.0094
959.00,0.0090
958.00,0.0086
957.00,0.0083
956.00,0.0081
955.00,0.0080
954.00,0.0079
953.00,0.0077
952.00,0.0076
951.00,0.0074
950.00,0.0073
949.00,0.0074
948.00,0.0075
947.00,0.0078
946.00,0.0081
945.00,0.0084
944.00,0.0087
943.00,0.0090
942.00,0.0092
941.00,0.0093
940.00,0.0092
939.00,0.0089
938.00,0.0086
937.00,0.0082
936.00,0.0077
935.00,0.0074
934.00,0.0070
933.00,0.0067
932.00,0.0064
931.00,0.0062
930.00,0.0061
929.00,0.0060
928.00,0.0059
927.00,0.0059
926.00,0.0060
925.00,0.0060
924.00,0.0060
923.00,0.0061
922.00,0.0062
921.00,0.0063
920.00,0.0064
919.00,0.0065
918.00,0.0065
917.00,0.0065
916.00,0.0065
915.00,0.0065
914.00,0.0066
913.00,0.0068
912.00,0.0069
911.00,0.0071
910.00,0.0072
909.00,0.0074
908.00,0.0077
907.00,0.0081
906.00,0.0088
905.00,0.0099
904.00,0.0116
903.00,0.0136
902.00,0.0158
901.00,0.0178
900.00,0.0192
899.00,0.0196
898.00,0.0188
897.00,0.0172
896.00,0.0151
895.00,0.0131
894.00,0.0115
893.00,0.0102
892.00,0.0092
891.00,0.0084
890.00,0.0078
889.00,0.0074
888.00,0.0072
887.00,0.0071
886.00,0.0070
885.00,0.0069
884.00,0.0069
883.00,0.0068
882.00,0.0069
881.00,0.0070
880.00,0.0070
879.00,0.0070
878.00,0.0069
877.00,0.0069
876.00,0.0069
875.00,0.0070
874.00,0.0071
873.00,0.0071
872.00,0.0069
871.00,0.0068
870.00,0.0067
869.00,0.0068
868.00,0.0070
867.00,0.0072
866.00,0.0073
865.00,0.0074
864.00,0.0075
863.00,0.0075
862.00,0.0076
861.00,0.0077
860.00,0.0079
859.00,0.0081
858.00,0.0084
857.00,0.0086
856.00,0.0086
855.00,0.0086
854.00,0.0086
853.00,0.0088
852.00,0.0091
851.00,0.0095
850.00,0.0100
849.00,0.0107
848.00,0.0116
847.00,0.0130
846.00,0.0150
845.00,0.0179
844.00,0.0217
843.00,0.0255
842.00,0.0281
841.00,0.0284
840.00,0.0263
839.00,0.0228
838.00,0.0191
837.00,0.0161
836.00,0.0142
835.00,0.0130
834.00,0.0122
833.00,0.0117
832.00,0.0113
831.00,0.0109
830.00,0.0107
829.00,0.0105
828.00,0.0105
827.00,0.0104
826.00,0.0102
825.00,0.0100
824.00,0.0099
823.00,0.0100
822.00,0.0102
821.00,0.0105
820.00,0.0107
819.00,0.0110
818.00,0.0114
817.00,0.0120
816.00,0.0129
815.00,0.0140
814.00,0.0153
813.00,0.0169
812.00,0.0187
811.00,0.0204
810.00,0.0216
809.00,0.0222
808.00,0.0219
807.00,0.0210
806.00,0.0196
805.00,0.0180
804.00,0.0163
803.00,0.0148
802.00,0.0136
801.00,0.0127
800.00,0.0121
799.00,0.0114
798.00,0.0108
797.00,0.0103
796.00,0.0098
795.00,0.0094
794.00,0.0090
793.00,0.0086
792.00,0.0084
791.00,0.0083
790.00,0.0081
789.00,0.0079
788.00,0.0076
787.00,0.0073
786.00,0.0070
785.00,0.0067
784.00,0.0064
783.00,0.0062
782.00,0.0062
781.00,0.0061
780.00,0.0060
779.00,0.0059
778.00,0.0057
777.00,0.0056
776.00,0.0056
775.00,0.0058
774.00,0.0062
773.00,0.0067
772.00,0.0070
771.00,0.0073
770.00,0.0075
769.00,0.0077
768.00,0.0078
767.00,0.0078
766.00,0.0078
765.00,0.0076
764.00,0.0073
763.00,0.0069
762.00,0.0065
761.00,0.0061
760.00,0.0059
759.00,0.0057
758.00,0.0056
757.00,0.0054
756.00,0.0053
755.00,0.0052
754.00,0.0052
753.00,0.0051
752.00,0.0051
751.00,0.0051
750.00,0.0052
749.00,0.0051
748.00,0.0051
747.00,0.0050
746.00,0.0051
745.00,0.0052
744.00,0.0053
743.00,0.0053
742.00,0.0054
741.00,0.0055
740.00,0.0058
739.00,0.0060
738.00,0.0062
737.00,0.0063
736.00,0.0064
735.00,0.0067
734.00,0.0069
733.00,0.0071
732.00,0.0071
731.00,0.0070
730.00,0.0069
729.00,0.0067
728.00,0.0065
727.00,0.0063
726.00,0.0062
725.00,0.0062
724.00,0.0062
723.00,0.0063
722.00,0.0063
721.00,0.0062
720.00,0.0061
719.00,0.0059
718.00,0.0058
717.00,0.0057
716.00,0.0056
715.00,0.0056
714.00,0.0057
713.00,0.0057
712.00,0.0056
711.00,0.0056
710.00,0.0055
709.00,0.0054
708.00,0.0053
707.00,0.0053
706.00,0.0052
705.00,0.0053
704.00,0.0054
703.00,0.0055
702.00,0.0056
701.00,0.0057
700.00,0.0057
699.00,0.0057
698.00,0.0056
697.00,0.0056
696.00,0.0057
695.00,0.0057
694.00,0.0056
693.00,0.0055
692.00,0.0052
691.00,0.0050
690.00,0.0049
689.00,0.0049
688.00,0.0049
687.00,0.0048
686.00,0.0048
685.00,0.0049
684.00,0.0050
683.00,0.0051
682.00,0.0051
681.00,0.0050
680.00,0.0050
679.00,0.0050
678.00,0.0051
677.00,0.0052
676.00,0.0051
675.00,0.0050
674.00,0.0048
673.00,0.0047
672.00,0.0048
671.00,0.0050
670.00,0.0052
669.00,0.0055
668.00,0.0058
667.00,0.0058
666.00,0.0057
665.00,0.0056
664.00,0.0055
663.00,0.0054
662.00,0.0053
661.00,0.0051
660.00,0.0051
659.00,0.0053
658.00,0.0055
657.00,0.0056
656.00,0.0056
655.00,0.0055
654.00,0.0054
653.00,0.0054
652.00,0.0055
651.00,0.0055
650.00,0.0054
649.00,0.0053
648.00,0.0052
647.00,0.0052
646.00,0.0053
645.00,0.0052
644.00,0.0051
643.00,0.0050
642.00,0.0052
641.00,0.0055
640.00,0.0057
639.00,0.0058
638.00,0.0057
637.00,0.0056
636.00,0.0055
635.00,0.0055
634.00,0.0055
633.00,0.0056
632.00,0.0057
631.00,0.0058
630.00,0.0059
629.00,0.0058
628.00,0.0057
627.00,0.0056
626.00,0.0056
625.00,0.0057
624.00,0.0059
623.00,0.0058
622.00,0.0056
621.00,0.0054
620.00,0.0053
619.00,0.0053
618.00,0.0052
617.00,0.0053
616.00,0.0055
615.00,0.0057
614.00,0.0059
613.00,0.0058
612.00,0.0055
611.00,0.0052
610.00,0.0051
609.00,0.0054
608.00,0.0057
607.00,0.0059
606.00,0.0059
605.00,0.0057
604.00,0.0055
603.00,0.0055
602.00,0.0055
601.00,0.0055
600.00,0.0055
599.00,0.0055
598.00,0.0055
597.00,0.0057
596.00,0.0059
595.00,0.0059
594.00,0.0058
593.00,0.0055
592.00,0.0052
591.00,0.0051
590.00,0.0051
589.00,0.0052
588.00,0.0053
587.00,0.0054
586.00,0.0054
585.00,0.0052
584.00,0.0051
583.00,0.0053
582.00,0.0057
581.00,0.0061
580.00,0.0064
579.00,0.0064
578.00,0.0064
577.00,0.0063
576.00,0.0061
575.00,0.0060
574.00,0.0060
573.00,0.0059
572.00,0.0058
571.00,0.0055
570.00,0.0054
569.00,0.0054
568.00,0.0054
567.00,0.0055
566.00,0.0055
565.00,0.0056
564.00,0.0057
563.00,0.0059
562.00,0.0061
561.00,0.0065
560.00,0.0067
559.00,0.0068
558.00,0.0066
557.00,0.0062
556.00,0.0061
555.00,0.0063
554.00,0.0065
553.00,0.0067
552.00,0.0066
551.00,0.0064
550.00,0.0062
549.00,0.0061
548.00,0.0061
547.00,0.0063
546.00,0.0064
545.00,0.0064
544.00,0.0062
543.00,0.0061
542.00,0.0062
541.00,0.0064
540.00,0.0067
539.00,0.0069
538.00,0.0070
537.00,0.0070
536.00,0.0071
535.00,0.0074
534.00,0.0077
533.00,0.0080
532.00,0.0080
531.00,0.0080
530.00,0.0080
529.00,0.0082
528.00,0.0084
527.00,0.0086
526.00,0.0086
525.00,0.0082
524.00,0.0077
523.00,0.0072
522.00,0.0067
521.00,0.0065
520.00,0.0066
519.00,0.0069
518.00,0.0070
517.00,0.0067
516.00,0.0063
515.00,0.0062
514.00,0.0065
513.00,0.0070
512.00,0.0072
511.00,0.0069
510.00,0.0065
509.00,0.0059
508.00,0.0055
507.00,0.0054
506.00,0.0056
505.00,0.0060
504.00,0.0061
503.00,0.0060
502.00,0.0060
501.00,0.0063
500.00,0.0064
499.00,0.0061
498.00,0.0055
497.00,0.0050
496.00,0.0047
495.00,0.0044
494.00,0.0041
493.00,0.0037
492.00,0.0036
491.00,0.0039
490.00,0.0046
489.00,0.0054
488.00,0.0061
487.00,0.0065
486.00,0.0069
485.00,0.0073
484.00,0.0080
483.00,0.0083
482.00,0.0081
481.00,0.0075
480.00,0.0075
479.00,0.0081
478.00,0.0085
477.00,0.0079
476.00,0.0066
475.00,0.0056
474.00,0.0056
473.00,0.0064
472.00,0.0069
471.00,0.0069
470.00,0.0067
469.00,0.0068
468.00,0.0077
467.00,0.0090
466.00,0.0102
465.00,0.0113
464.00,0.0124
463.00,0.0137
462.00,0.0148
461.00,0.0155
460.00,0.0157
459.00,0.0156
458.00,0.0155
457.00,0.0152
456.00,0.0147
455.00,0.0140
454.00,0.0130
453.00,0.0118
452.00,0.0104
451.00,0.0092
450.00,0.0083
