Created as New Dataset,Sample 103 By Administrator Date Tuesday, September 09 2025
cm-1,A
4000.00,0.0006
3999.00,0.0006
3998.00,0.0006
3997.00,0.0006
3996.00,0.0006
3995.00,0.0006
3994.00,0.0006
3993.00,0.0006
3992.00,0.0005
3991.00,0.0005
3990.00,0.0005
3989.00,0.0005
3988.00,0.0006
3987.00,0.0005
3986.00,0.0005
3985.00,0.0005
3984.00,0.0005
3983.00,0.0005
3982.00,0.0005
3981.00,0.0005
3980.00,0.0005
3979.00,0.0005
3978.00,0.0005
3977.00,0.0005
3976.00,0.0005
3975.00,0.0005
3974.00,0.0005
3973.00,0.0005
3972.00,0.0005
3971.00,0.0005
3970.00,0.0004
3969.00,0.0004
3968.00,0.0004
3967.00,0.0004
3966.00,0.0004
3965.00,0.0003
3964.00,0.0003
3963.00,0.0003
3962.00,0.0003
3961.00,0.0004
3960.00,0.0004
3959.00,0.0004
3958.00,0.0004
3957.00,0.0004
3956.00,0.0004
3955.00,0.0004
3954.00,0.0004
3953.00,0.0003
3952.00,0.0003
3951.00,0.0003
3950.00,0.0003
3949.00,0.0003
3948.00,0.0003
3947.00,0.0003
3946.00,0.0004
3945.00,0.0004
3944.00,0.0004
3943.00,0.0004
3942.00,0.0004
3941.00,0.0004
3940.00,0.0004
3939.00,0.0005
3938.00,0.0005
3937.00,0.0005
3936.00,0.0005
3935.00,0.0005
3934.00,0.0005
3933.00,0.0005
3932.00,0.0005
3931.00,0.0005
3930.00,0.0005
3929.00,0.0005
3928.00,0.0005
3927.00,0.0005
3926.00,0.0005
3925.00,0.0005
3924.00,0.0005
3923.00,0.0005
3922.00,0.0005
3921.00,0.0005
3920.00,0.0005
3919.00,0.0004
3918.00,0.0004
3917.00,0.0003
3916.00,0.0003
3915.00,0.0003
3914.00,0.0003
3913.00,0.0004
3912.00,0.0004
3911.00,0.0004
3910.00,0.0004
3909.00,0.0004
3908.00,0.0004
3907.00,0.0004
3906.00,0.0004
3905.00,0.0004
3904.00,0.0004
3903.00,0.0004
3902.00,0.0005
3901.00,0.0005
3900.00,0.0005
3899.00,0.0005
3898.00,0.0005
3897.00,0.0005
3896.00,0.0005
3895.00,0.0005
3894.00,0.0005
3893.00,0.0004
3892.00,0.0004
3891.00,0.0003
3890.00,0.0004
3889.00,0.0004
3888.00,0.0004
3887.00,0.0004
3886.00,0.0004
3885.00,0.0003
3884.00,0.0003
3883.00,0.0004
3882.00,0.0004
3881.00,0.0004
3880.00,0.0005
3879.00,0.0005
3878.00,0.0005
3877.00,0.0005
3876.00,0.0005
3875.00,0.0005
3874.00,0.0005
3873.00,0.0005
3872.00,0.0005
3871.00,0.0005
3870.00,0.0004
3869.00,0.0004
3868.00,0.0005
3867.00,0.0005
3866.00,0.0005
3865.00,0.0004
3864.00,0.0004
3863.00,0.0005
3862.00,0.0005
3861.00,0.0005
3860.00,0.0005
3859.00,0.0005
3858.00,0.0005
3857.00,0.0006
3856.00,0.0007
3855.00,0.0007
3854.00,0.0007
3853.00,0.0006
3852.00,0.0006
3851.00,0.0006
3850.00,0.0005
3849.00,0.0005
3848.00,0.0004
3847.00,0.0004
3846.00,0.0005
3845.00,0.0005
3844.00,0.0005
3843.00,0.0005
3842.00,0.0006
3841.00,0.0006
3840.00,0.0007
3839.00,0.0007
3838.00,0.0007
3837.00,0.0007
3836.00,0.0007
3835.00,0.0007
3834.00,0.0006
3833.00,0.0006
3832.00,0.0006
3831.00,0.0006
3830.00,0.0006
3829.00,0.0006
3828.00,0.0005
3827.00,0.0005
3826.00,0.0005
3825.00,0.0006
3824.00,0.0006
3823.00,0.0006
3822.00,0.0005
3821.00,0.0005
3820.00,0.0005
3819.00,0.0005
3818.00,0.0006
3817.00,0.0005
3816.00,0.0005
3815.00,0.0005
3814.00,0.0005
3813.00,0.0006
3812.00,0.0006
3811.00,0.0005
3810.00,0.0005
3809.00,0.0005
3808.00,0.0005
3807.00,0.0005
3806.00,0.0005
3805.00,0.0005
3804.00,0.0006
3803.00,0.0006
3802.00,0.0006
3801.00,0.0005
3800.00,0.0005
3799.00,0.0006
3798.00,0.0005
3797.00,0.0005
3796.00,0.0005
3795.00,0.0005
3794.00,0.0005
3793.00,0.0004
3792.00,0.0004
3791.00,0.0004
3790.00,0.0004
3789.00,0.0005
3788.00,0.0005
3787.00,0.0005
3786.00,0.0005
3785.00,0.0005
3784.00,0.0005
3783.00,0.0005
3782.00,0.0005
3781.00,0.0005
3780.00,0.0005
3779.00,0.0005
3778.00,0.0005
3777.00,0.0005
3776.00,0.0005
3775.00,0.0005
3774.00,0.0005
3773.00,0.0005
3772.00,0.0006
3771.00,0.0006
3770.00,0.0006
3769.00,0.0006
3768.00,0.0006
3767.00,0.0006
3766.00,0.0006
3765.00,0.0005
3764.00,0.0006
3763.00,0.0006
3762.00,0.0006
3761.00,0.0006
3760.00,0.0006
3759.00,0.0006
3758.00,0.0006
3757.00,0.0006
3756.00,0.0005
3755.00,0.0005
3754.00,0.0006
3753.00,0.0006
3752.00,0.0006
3751.00,0.0006
3750.00,0.0006
3749.00,0.0006
3748.00,0.0007
3747.00,0.0007
3746.00,0.0007
3745.00,0.0006
3744.00,0.0006
3743.00,0.0006
3742.00,0.0006
3741.00,0.0006
3740.00,0.0005
3739.00,0.0005
3738.00,0.0005
3737.00,0.0005
3736.00,0.0005
3735.00,0.0005
3734.00,0.0005
3733.00,0.0005
3732.00,0.0005
3731.00,0.0005
3730.00,0.0005
3729.00,0.0004
3728.00,0.0004
3727.00,0.0003
3726.00,0.0003
3725.00,0.0003
3724.00,0.0003
3723.00,0.0004
3722.00,0.0004
3721.00,0.0004
3720.00,0.0004
3719.00,0.0004
3718.00,0.0004
3717.00,0.0004
3716.00,0.0004
3715.00,0.0004
3714.00,0.0003
3713.00,0.0003
3712.00,0.0003
3711.00,0.0003
3710.00,0.0004
3709.00,0.0004
3708.00,0.0004
3707.00,0.0003
3706.00,0.0003
3705.00,0.0003
3704.00,0.0003
3703.00,0.0003
3702.00,0.0003
3701.00,0.0003
3700.00,0.0003
3699.00,0.0003
3698.00,0.0003
3697.00,0.0002
3696.00,0.0002
3695.00,0.0002
3694.00,0.0003
3693.00,0.0003
3692.00,0.0003
3691.00,0.0003
3690.00,0.0003
3689.00,0.0003
3688.00,0.0003
3687.00,0.0003
3686.00,0.0003
3685.00,0.0003
3684.00,0.0003
3683.00,0.0003
3682.00,0.0003
3681.00,0.0003
3680.00,0.0004
3679.00,0.0004
3678.00,0.0005
3677.00,0.0005
3676.00,0.0005
3675.00,0.0004
3674.00,0.0005
3673.00,0.0005
3672.00,0.0005
3671.00,0.0005
3670.00,0.0004
3669.00,0.0004
3668.00,0.0004
3667.00,0.0003
3666.00,0.0003
3665.00,0.0002
3664.00,0.0002
3663.00,0.0002
3662.00,0.0002
3661.00,0.0002
3660.00,0.0002
3659.00,0.0002
3658.00,0.0002
3657.00,0.0002
3656.00,0.0002
3655.00,0.0002
3654.00,0.0002
3653.00,0.0002
3652.00,0.0003
3651.00,0.0004
3650.00,0.0004
3649.00,0.0004
3648.00,0.0004
3647.00,0.0004
3646.00,0.0003
3645.00,0.0003
3644.00,0.0002
3643.00,0.0002
3642.00,0.0002
3641.00,0.0002
3640.00,0.0003
3639.00,0.0003
3638.00,0.0003
3637.00,0.0003
3636.00,0.0003
3635.00,0.0003
3634.00,0.0002
3633.00,0.0002
3632.00,0.0002
3631.00,0.0002
3630.00,0.0003
3629.00,0.0004
3628.00,0.0004
3627.00,0.0004
3626.00,0.0003
3625.00,0.0003
3624.00,0.0003
3623.00,0.0003
3622.00,0.0003
3621.00,0.0003
3620.00,0.0003
3619.00,0.0004
3618.00,0.0004
3617.00,0.0004
3616.00,0.0004
3615.00,0.0004
3614.00,0.0004
3613.00,0.0004
3612.00,0.0005
3611.00,0.0005
3610.00,0.0005
3609.00,0.0005
3608.00,0.0004
3607.00,0.0004
3606.00,0.0003
3605.00,0.0003
3604.00,0.0003
3603.00,0.0003
3602.00,0.0003
3601.00,0.0003
3600.00,0.0004
3599.00,0.0005
3598.00,0.0005
3597.00,0.0005
3596.00,0.0005
3595.00,0.0004
3594.00,0.0004
3593.00,0.0004
3592.00,0.0004
3591.00,0.0004
3590.00,0.0005
3589.00,0.0005
3588.00,0.0005
3587.00,0.0005
3586.00,0.0006
3585.00,0.0006
3584.00,0.0006
3583.00,0.0006
3582.00,0.0006
3581.00,0.0006
3580.00,0.0006
3579.00,0.0005
3578.00,0.0005
3577.00,0.0005
3576.00,0.0005
3575.00,0.0005
3574.00,0.0006
3573.00,0.0006
3572.00,0.0007
3571.00,0.0007
3570.00,0.0007
3569.00,0.0007
3568.00,0.0007
3567.00,0.0007
3566.00,0.0006
3565.00,0.0007
3564.00,0.0007
3563.00,0.0007
3562.00,0.0008
3561.00,0.0008
3560.00,0.0008
3559.00,0.0008
3558.00,0.0008
3557.00,0.0008
3556.00,0.0009
3555.00,0.0009
3554.00,0.0009
3553.00,0.0010
3552.00,0.0010
3551.00,0.0010
3550.00,0.0010
3549.00,0.0010
3548.00,0.0009
3547.00,0.0009
3546.00,0.0009
3545.00,0.0009
3544.00,0.0009
3543.00,0.0009
3542.00,0.0010
3541.00,0.0010
3540.00,0.0011
3539.00,0.0011
3538.00,0.0011
3537.00,0.0011
3536.00,0.0010
3535.00,0.0010
3534.00,0.0011
3533.00,0.0011
3532.00,0.0011
3531.00,0.0011
3530.00,0.0011
3529.00,0.0011
3528.00,0.0011
3527.00,0.0012
3526.00,0.0012
3525.00,0.0013
3524.00,0.0013
3523.00,0.0013
3522.00,0.0013
3521.00,0.0013
3520.00,0.0013
3519.00,0.0012
3518.00,0.0012
3517.00,0.0011
3516.00,0.0012
3515.00,0.0012
3514.00,0.0013
3513.00,0.0013
3512.00,0.0013
3511.00,0.0013
3510.00,0.0013
3509.00,0.0013
3508.00,0.0014
3507.00,0.0014
3506.00,0.0014
3505.00,0.0014
3504.00,0.0014
3503.00,0.0014
3502.00,0.0014
3501.00,0.0014
3500.00,0.0014
3499.00,0.0014
3498.00,0.0014
3497.00,0.0014
3496.00,0.0014
3495.00,0.0014
3494.00,0.0015
3493.00,0.0016
3492.00,0.0016
3491.00,0.0016
3490.00,0.0016
3489.00,0.0015
3488.00,0.0015
3487.00,0.0015
3486.00,0.0015
3485.00,0.0016
3484.00,0.0016
3483.00,0.0017
3482.00,0.0017
3481.00,0.0017
3480.00,0.0017
3479.00,0.0017
3478.00,0.0017
3477.00,0.0017
3476.00,0.0017
3475.00,0.0017
3474.00,0.0017
3473.00,0.0017
3472.00,0.0017
3471.00,0.0017
3470.00,0.0017
3469.00,0.0017
3468.00,0.0017
3467.00,0.0017
3466.00,0.0017
3465.00,0.0017
3464.00,0.0017
3463.00,0.0018
3462.00,0.0018
3461.00,0.0019
3460.00,0.0020
3459.00,0.0020
3458.00,0.0021
3457.00,0.0021
3456.00,0.0021
3455.00,0.0020
3454.00,0.0020
3453.00,0.0020
3452.00,0.0020
3451.00,0.0020
3450.00,0.0020
3449.00,0.0020
3448.00,0.0020
3447.00,0.0020
3446.00,0.0021
3445.00,0.0021
3444.00,0.0021
3443.00,0.0021
3442.00,0.0021
3441.00,0.0022
3440.00,0.0022
3439.00,0.0022
3438.00,0.0022
3437.00,0.0022
3436.00,0.0021
3435.00,0.0021
3434.00,0.0021
3433.00,0.0021
3432.00,0.0022
3431.00,0.0022
3430.00,0.0023
3429.00,0.0023
3428.00,0.0024
3427.00,0.0024
3426.00,0.0023
3425.00,0.0023
3424.00,0.0023
3423.00,0.0023
3422.00,0.0023
3421.00,0.0024
3420.00,0.0024
3419.00,0.0024
3418.00,0.0024
3417.00,0.0024
3416.00,0.0024
3415.00,0.0024
3414.00,0.0024
3413.00,0.0024
3412.00,0.0024
3411.00,0.0024
3410.00,0.0024
3409.00,0.0024
3408.00,0.0025
3407.00,0.0025
3406.00,0.0025
3405.00,0.0024
3404.00,0.0024
3403.00,0.0024
3402.00,0.0024
3401.00,0.0024
3400.00,0.0024
3399.00,0.0024
3398.00,0.0024
3397.00,0.0024
3396.00,0.0024
3395.00,0.0025
3394.00,0.0025
3393.00,0.0025
3392.00,0.0025
3391.00,0.0025
3390.00,0.0025
3389.00,0.0024
3388.00,0.0024
3387.00,0.0025
3386.00,0.0025
3385.00,0.0025
3384.00,0.0025
3383.00,0.0025
3382.00,0.0025
3381.00,0.0025
3380.00,0.0025
3379.00,0.0025
3378.00,0.0025
3377.00,0.0025
3376.00,0.0025
3375.00,0.0024
3374.00,0.0024
3373.00,0.0025
3372.00,0.0025
3371.00,0.0026
3370.00,0.0027
3369.00,0.0027
3368.00,0.0027
3367.00,0.0027
3366.00,0.0027
3365.00,0.0027
3364.00,0.0027
3363.00,0.0027
3362.00,0.0027
3361.00,0.0026
3360.00,0.0026
3359.00,0.0026
3358.00,0.0026
3357.00,0.0026
3356.00,0.0026
3355.00,0.0026
3354.00,0.0026
3353.00,0.0027
3352.00,0.0027
3351.00,0.0027
3350.00,0.0027
3349.00,0.0027
3348.00,0.0027
3347.00,0.0027
3346.00,0.0027
3345.00,0.0027
3344.00,0.0027
3343.00,0.0027
3342.00,0.0027
3341.00,0.0026
3340.00,0.0026
3339.00,0.0026
3338.00,0.0026
3337.00,0.0026
3336.00,0.0026
3335.00,0.0027
3334.00,0.0027
3333.00,0.0027
3332.00,0.0027
3331.00,0.0027
3330.00,0.0026
3329.00,0.0026
3328.00,0.0026
3327.00,0.0026
3326.00,0.0025
3325.00,0.0025
3324.00,0.0025
3323.00,0.0025
3322.00,0.0025
3321.00,0.0025
3320.00,0.0025
3319.00,0.0025
3318.00,0.0026
3317.00,0.0026
3316.00,0.0026
3315.00,0.0026
3314.00,0.0026
3313.00,0.0026
3312.00,0.0026
3311.00,0.0026
3310.00,0.0026
3309.00,0.0026
3308.00,0.0025
3307.00,0.0025
3306.00,0.0025
3305.00,0.0025
3304.00,0.0025
3303.00,0.0025
3302.00,0.0025
3301.00,0.0025
3300.00,0.0025
3299.00,0.0024
3298.00,0.0024
3297.00,0.0024
3296.00,0.0024
3295.00,0.0024
3294.00,0.0025
3293.00,0.0025
3292.00,0.0025
3291.00,0.0026
3290.00,0.0026
3289.00,0.0026
3288.00,0.0026
3287.00,0.0026
3286.00,0.0025
3285.00,0.0025
3284.00,0.0025
3283.00,0.0025
3282.00,0.0025
3281.00,0.0025
3280.00,0.0025
3279.00,0.0025
3278.00,0.0025
3277.00,0.0025
3276.00,0.0024
3275.00,0.0024
3274.00,0.0025
3273.00,0.0025
3272.00,0.0025
3271.00,0.0024
3270.00,0.0024
3269.00,0.0024
3268.00,0.0024
3267.00,0.0024
3266.00,0.0023
3265.00,0.0023
3264.00,0.0023
3263.00,0.0023
3262.00,0.0022
3261.00,0.0022
3260.00,0.0022
3259.00,0.0022
3258.00,0.0022
3257.00,0.0022
3256.00,0.0022
3255.00,0.0022
3254.00,0.0022
3253.00,0.0023
3252.00,0.0023
3251.00,0.0023
3250.00,0.0023
3249.00,0.0023
3248.00,0.0022
3247.00,0.0022
3246.00,0.0022
3245.00,0.0022
3244.00,0.0022
3243.00,0.0022
3242.00,0.0022
3241.00,0.0022
3240.00,0.0021
3239.00,0.0021
3238.00,0.0021
3237.00,0.0021
3236.00,0.0022
3235.00,0.0023
3234.00,0.0023
3233.00,0.0024
3232.00,0.0024
3231.00,0.0023
3230.00,0.0023
3229.00,0.0023
3228.00,0.0024
3227.00,0.0024
3226.00,0.0025
3225.00,0.0024
3224.00,0.0024
3223.00,0.0024
3222.00,0.0024
3221.00,0.0025
3220.00,0.0025
3219.00,0.0025
3218.00,0.0025
3217.00,0.0026
3216.00,0.0026
3215.00,0.0026
3214.00,0.0027
3213.00,0.0027
3212.00,0.0027
3211.00,0.0027
3210.00,0.0027
3209.00,0.0027
3208.00,0.0027
3207.00,0.0028
3206.00,0.0028
3205.00,0.0028
3204.00,0.0028
3203.00,0.0028
3202.00,0.0028
3201.00,0.0028
3200.00,0.0028
3199.00,0.0028
3198.00,0.0028
3197.00,0.0028
3196.00,0.0029
3195.00,0.0028
3194.00,0.0028
3193.00,0.0028
3192.00,0.0028
3191.00,0.0028
3190.00,0.0028
3189.00,0.0028
3188.00,0.0028
3187.00,0.0027
3186.00,0.0027
3185.00,0.0027
3184.00,0.0027
3183.00,0.0027
3182.00,0.0027
3181.00,0.0027
3180.00,0.0027
3179.00,0.0027
3178.00,0.0026
3177.00,0.0026
3176.00,0.0026
3175.00,0.0026
3174.00,0.0026
3173.00,0.0026
3172.00,0.0025
3171.00,0.0025
3170.00,0.0024
3169.00,0.0024
3168.00,0.0024
3167.00,0.0024
3166.00,0.0024
3165.00,0.0024
3164.00,0.0025
3163.00,0.0024
3162.00,0.0024
3161.00,0.0024
3160.00,0.0024
3159.00,0.0024
3158.00,0.0024
3157.00,0.0024
3156.00,0.0024
3155.00,0.0024
3154.00,0.0024
3153.00,0.0024
3152.00,0.0024
3151.00,0.0023
3150.00,0.0023
3149.00,0.0024
3148.00,0.0024
3147.00,0.0024
3146.00,0.0024
3145.00,0.0024
3144.00,0.0024
3143.00,0.0024
3142.00,0.0024
3141.00,0.0024
3140.00,0.0024
3139.00,0.0024
3138.00,0.0024
3137.00,0.0024
3136.00,0.0024
3135.00,0.0024
3134.00,0.0024
3133.00,0.0023
3132.00,0.0023
3131.00,0.0023
3130.00,0.0023
3129.00,0.0022
3128.00,0.0022
3127.00,0.0022
3126.00,0.0022
3125.00,0.0022
3124.00,0.0022
3123.00,0.0021
3122.00,0.0021
3121.00,0.0020
3120.00,0.0020
3119.00,0.0020
3118.00,0.0020
3117.00,0.0021
3116.00,0.0021
3115.00,0.0021
3114.00,0.0021
3113.00,0.0021
3112.00,0.0021
3111.00,0.0021
3110.00,0.0020
3109.00,0.0020
3108.00,0.0020
3107.00,0.0020
3106.00,0.0020
3105.00,0.0021
3104.00,0.0021
3103.00,0.0021
3102.00,0.0020
3101.00,0.0020
3100.00,0.0020
3099.00,0.0020
3098.00,0.0019
3097.00,0.0019
3096.00,0.0019
3095.00,0.0019
3094.00,0.0019
3093.00,0.0019
3092.00,0.0019
3091.00,0.0019
3090.00,0.0020
3089.00,0.0020
3088.00,0.0019
3087.00,0.0019
3086.00,0.0019
3085.00,0.0019
3084.00,0.0019
3083.00,0.0019
3082.00,0.0019
3081.00,0.0019
3080.00,0.0020
3079.00,0.0020
3078.00,0.0020
3077.00,0.0020
3076.00,0.0020
3075.00,0.0020
3074.00,0.0020
3073.00,0.0020
3072.00,0.0020
3071.00,0.0020
3070.00,0.0020
3069.00,0.0020
3068.00,0.0020
3067.00,0.0020
3066.00,0.0021
3065.00,0.0021
3064.00,0.0021
3063.00,0.0022
3062.00,0.0022
3061.00,0.0022
3060.00,0.0023
3059.00,0.0023
3058.00,0.0023
3057.00,0.0024
3056.00,0.0024
3055.00,0.0024
3054.00,0.0024
3053.00,0.0024
3052.00,0.0025
3051.00,0.0025
3050.00,0.0025
3049.00,0.0025
3048.00,0.0025
3047.00,0.0025
3046.00,0.0025
3045.00,0.0025
3044.00,0.0025
3043.00,0.0026
3042.00,0.0026
3041.00,0.0026
3040.00,0.0026
3039.00,0.0026
3038.00,0.0026
3037.00,0.0026
3036.00,0.0027
3035.00,0.0027
3034.00,0.0027
3033.00,0.0028
3032.00,0.0029
3031.00,0.0030
3030.00,0.0030
3029.00,0.0031
3028.00,0.0031
3027.00,0.0032
3026.00,0.0032
3025.00,0.0032
3024.00,0.0033
3023.00,0.0034
3022.00,0.0035
3021.00,0.0035
3020.00,0.0036
3019.00,0.0036
3018.00,0.0037
3017.00,0.0038
3016.00,0.0038
3015.00,0.0040
3014.00,0.0041
3013.00,0.0042
3012.00,0.0044
3011.00,0.0045
3010.00,0.0046
3009.00,0.0048
3008.00,0.0049
3007.00,0.0051
3006.00,0.0052
3005.00,0.0054
3004.00,0.0057
3003.00,0.0059
3002.00,0.0062
3001.00,0.0065
3000.00,0.0068
2999.00,0.0071
2998.00,0.0074
2997.00,0.0077
2996.00,0.0081
2995.00,0.0084
2994.00,0.0089
2993.00,0.0093
2992.00,0.0099
2991.00,0.0105
2990.00,0.0111
2989.00,0.0118
2988.00,0.0127
2987.00,0.0136
2986.00,0.0146
2985.00,0.0158
2984.00,0.0170
2983.00,0.0184
2982.00,0.0199
2981.00,0.0217
2980.00,0.0236
2979.00,0.0258
2978.00,0.0283
2977.00,0.0312
2976.00,0.0344
2975.00,0.0382
2974.00,0.0424
2973.00,0.0471
2972.00,0.0524
2971.00,0.0583
2970.00,0.0648
2969.00,0.0718
2968.00,0.0794
2967.00,0.0874
2966.00,0.0957
2965.00,0.1040
2964.00,0.1120
2963.00,0.1193
2962.00,0.1257
2961.00,0.1311
2960.00,0.1356
2959.00,0.1398
2958.00,0.1441
2957.00,0.1491
2956.00,0.1551
2955.00,0.1624
2954.00,0.1707
2953.00,0.1794
2952.00,0.1877
2951.00,0.1944
2950.00,0.1983
2949.00,0.1982
2948.00,0.1938
2947.00,0.1852
2946.00,0.1732
2945.00,0.1594
2944.00,0.1455
2943.00,0.1328
2942.00,0.1224
2941.00,0.1146
2940.00,0.1096
2939.00,0.1072
2938.00,0.1071
2937.00,0.1091
2936.00,0.1129
2935.00,0.1183
2934.00,0.1252
2933.00,0.1334
2932.00,0.1429
2931.00,0.1534
2930.00,0.1646
2929.00,0.1762
2928.00,0.1877
2927.00,0.1990
2926.00,0.2099
2925.00,0.2203
2924.00,0.2303
2923.00,0.2401
2922.00,0.2498
2921.00,0.2591
2920.00,0.2676
2919.00,0.2742
2918.00,0.2781
2917.00,0.2785
2916.00,0.2752
2915.00,0.2685
2914.00,0.2594
2913.00,0.2490
2912.00,0.2381
2911.00,0.2275
2910.00,0.2176
2909.00,0.2085
2908.00,0.1999
2907.00,0.1917
2906.00,0.1838
2905.00,0.1760
2904.00,0.1683
2903.00,0.1606
2902.00,0.1532
2901.00,0.1461
2900.00,0.1393
2899.00,0.1330
2898.00,0.1271
2897.00,0.1219
2896.00,0.1172
2895.00,0.1133
2894.00,0.1101
2893.00,0.1076
2892.00,0.1058
2891.00,0.1047
2890.00,0.1042
2889.00,0.1042
2888.00,0.1046
2887.00,0.1054
2886.00,0.1066
2885.00,0.1082
2884.00,0.1102
2883.00,0.1128
2882.00,0.1158
2881.00,0.1192
2880.00,0.1226
2879.00,0.1256
2878.00,0.1277
2877.00,0.1287
2876.00,0.1286
2875.00,0.1278
2874.00,0.1270
2873.00,0.1266
2872.00,0.1269
2871.00,0.1283
2870.00,0.1303
2869.00,0.1325
2868.00,0.1340
2867.00,0.1339
2866.00,0.1312
2865.00,0.1257
2864.00,0.1175
2863.00,0.1076
2862.00,0.0971
2861.00,0.0872
2860.00,0.0786
2859.00,0.0716
2858.00,0.0662
2857.00,0.0622
2856.00,0.0594
2855.00,0.0575
2854.00,0.0565
2853.00,0.0561
2852.00,0.0565
2851.00,0.0575
2850.00,0.0594
2849.00,0.0621
2848.00,0.0658
2847.00,0.0704
2846.00,0.0760
2845.00,0.0824
2844.00,0.0895
2843.00,0.0970
2842.00,0.1046
2841.00,0.1117
2840.00,0.1177
2839.00,0.1216
2838.00,0.1227
2837.00,0.1204
2836.00,0.1146
2835.00,0.1059
2834.00,0.0953
2833.00,0.0841
2832.00,0.0733
2831.00,0.0637
2830.00,0.0555
2829.00,0.0488
2828.00,0.0434
2827.00,0.0391
2826.00,0.0356
2825.00,0.0327
2824.00,0.0304
2823.00,0.0284
2822.00,0.0267
2821.00,0.0253
2820.00,0.0240
2819.00,0.0229
2818.00,0.0220
2817.00,0.0211
2816.00,0.0204
2815.00,0.0198
2814.00,0.0192
2813.00,0.0186
2812.00,0.0181
2811.00,0.0175
2810.00,0.0169
2809.00,0.0164
2808.00,0.0157
2807.00,0.0151
2806.00,0.0144
2805.00,0.0138
2804.00,0.0131
2803.00,0.0125
2802.00,0.0120
2801.00,0.0115
2800.00,0.0111
2799.00,0.0107
2798.00,0.0104
2797.00,0.0102
2796.00,0.0100
2795.00,0.0097
2794.00,0.0095
2793.00,0.0092
2792.00,0.0089
2791.00,0.0086
2790.00,0.0083
2789.00,0.0080
2788.00,0.0077
2787.00,0.0075
2786.00,0.0073
2785.00,0.0071
2784.00,0.0069
2783.00,0.0067
2782.00,0.0065
2781.00,0.0063
2780.00,0.0062
2779.00,0.0060
2778.00,0.0059
2777.00,0.0057
2776.00,0.0056
2775.00,0.0055
2774.00,0.0054
2773.00,0.0054
2772.00,0.0053
2771.00,0.0053
2770.00,0.0052
2769.00,0.0052
2768.00,0.0052
2767.00,0.0051
2766.00,0.0051
2765.00,0.0051
2764.00,0.0050
2763.00,0.0050
2762.00,0.0050
2761.00,0.0049
2760.00,0.0049
2759.00,0.0049
2758.00,0.0048
2757.00,0.0048
2756.00,0.0048
2755.00,0.0048
2754.00,0.0048
2753.00,0.0048
2752.00,0.0047
2751.00,0.0047
2750.00,0.0047
2749.00,0.0047
2748.00,0.0047
2747.00,0.0048
2746.00,0.0048
2745.00,0.0049
2744.00,0.0050
2743.00,0.0051
2742.00,0.0052
2741.00,0.0053
2740.00,0.0054
2739.00,0.0055
2738.00,0.0057
2737.00,0.0059
2736.00,0.0061
2735.00,0.0063
2734.00,0.0065
2733.00,0.0067
2732.00,0.0068
2731.00,0.0070
2730.00,0.0073
2729.00,0.0075
2728.00,0.0078
2727.00,0.0081
2726.00,0.0084
2725.00,0.0086
2724.00,0.0088
2723.00,0.0088
2722.00,0.0087
2721.00,0.0085
2720.00,0.0082
2719.00,0.0079
2718.00,0.0075
2717.00,0.0072
2716.00,0.0068
2715.00,0.0065
2714.00,0.0063
2713.00,0.0060
2712.00,0.0058
2711.00,0.0056
2710.00,0.0054
2709.00,0.0053
2708.00,0.0051
2707.00,0.0050
2706.00,0.0048
2705.00,0.0047
2704.00,0.0046
2703.00,0.0044
2702.00,0.0043
2701.00,0.0043
2700.00,0.0042
2699.00,0.0042
2698.00,0.0042
2697.00,0.0042
2696.00,0.0042
2695.00,0.0041
2694.00,0.0041
2693.00,0.0041
2692.00,0.0041
2691.00,0.0041
2690.00,0.0041
2689.00,0.0041
2688.00,0.0041
2687.00,0.0041
2686.00,0.0040
2685.00,0.0040
2684.00,0.0040
2683.00,0.0040
2682.00,0.0040
2681.00,0.0041
2680.00,0.0041
2679.00,0.0041
2678.00,0.0041
2677.00,0.0041
2676.00,0.0041
2675.00,0.0041
2674.00,0.0041
2673.00,0.0041
2672.00,0.0040
2671.00,0.0040
2670.00,0.0041
2669.00,0.0041
2668.00,0.0041
2667.00,0.0041
2666.00,0.0042
2665.00,0.0042
2664.00,0.0043
2663.00,0.0043
2662.00,0.0044
2661.00,0.0044
2660.00,0.0044
2659.00,0.0044
2658.00,0.0044
2657.00,0.0044
2656.00,0.0044
2655.00,0.0044
2654.00,0.0043
2653.00,0.0042
2652.00,0.0041
2651.00,0.0041
2650.00,0.0040
2649.00,0.0039
2648.00,0.0039
2647.00,0.0038
2646.00,0.0038
2645.00,0.0038
2644.00,0.0038
2643.00,0.0038
2642.00,0.0038
2641.00,0.0037
2640.00,0.0037
2639.00,0.0036
2638.00,0.0036
2637.00,0.0036
2636.00,0.0035
2635.00,0.0035
2634.00,0.0035
2633.00,0.0035
2632.00,0.0035
2631.00,0.0036
2630.00,0.0036
2629.00,0.0036
2628.00,0.0036
2627.00,0.0036
2626.00,0.0036
2625.00,0.0036
2624.00,0.0036
2623.00,0.0036
2622.00,0.0036
2621.00,0.0036
2620.00,0.0036
2619.00,0.0037
2618.00,0.0037
2617.00,0.0037
2616.00,0.0037
2615.00,0.0037
2614.00,0.0037
2613.00,0.0036
2612.00,0.0036
2611.00,0.0035
2610.00,0.0035
2609.00,0.0034
2608.00,0.0033
2607.00,0.0032
2606.00,0.0032
2605.00,0.0031
2604.00,0.0031
2603.00,0.0031
2602.00,0.0031
2601.00,0.0030
2600.00,0.0030
2599.00,0.0030
2598.00,0.0030
2597.00,0.0030
2596.00,0.0030
2595.00,0.0031
2594.00,0.0031
2593.00,0.0031
2592.00,0.0031
2591.00,0.0032
2590.00,0.0033
2589.00,0.0033
2588.00,0.0034
2587.00,0.0035
2586.00,0.0036
2585.00,0.0036
2584.00,0.0037
2583.00,0.0038
2582.00,0.0038
2581.00,0.0038
2580.00,0.0037
2579.00,0.0036
2578.00,0.0035
2577.00,0.0033
2576.00,0.0032
2575.00,0.0032
2574.00,0.0031
2573.00,0.0030
2572.00,0.0029
2571.00,0.0028
2570.00,0.0027
2569.00,0.0026
2568.00,0.0025
2567.00,0.0025
2566.00,0.0024
2565.00,0.0024
2564.00,0.0023
2563.00,0.0023
2562.00,0.0023
2561.00,0.0023
2560.00,0.0022
2559.00,0.0022
2558.00,0.0021
2557.00,0.0021
2556.00,0.0020
2555.00,0.0019
2554.00,0.0019
2553.00,0.0019
2552.00,0.0019
2551.00,0.0019
2550.00,0.0019
2549.00,0.0019
2548.00,0.0018
2547.00,0.0017
2546.00,0.0016
2545.00,0.0016
2544.00,0.0015
2543.00,0.0015
2542.00,0.0014
2541.00,0.0014
2540.00,0.0014
2539.00,0.0014
2538.00,0.0013
2537.00,0.0013
2536.00,0.0013
2535.00,0.0013
2534.00,0.0013
2533.00,0.0013
2532.00,0.0013
2531.00,0.0013
2530.00,0.0013
2529.00,0.0013
2528.00,0.0013
2527.00,0.0013
2526.00,0.0012
2525.00,0.0012
2524.00,0.0011
2523.00,0.0010
2522.00,0.0010
2521.00,0.0010
2520.00,0.0010
2519.00,0.0010
2518.00,0.0011
2517.00,0.0010
2516.00,0.0010
2515.00,0.0010
2514.00,0.0010
2513.00,0.0010
2512.00,0.0010
2511.00,0.0010
2510.00,0.0009
2509.00,0.0008
2508.00,0.0007
2507.00,0.0007
2506.00,0.0007
2505.00,0.0007
2504.00,0.0007
2503.00,0.0007
2502.00,0.0007
2501.00,0.0007
2500.00,0.0007
2499.00,0.0007
2498.00,0.0007
2497.00,0.0007
2496.00,0.0007
2495.00,0.0008
2494.00,0.0008
2493.00,0.0008
2492.00,0.0008
2491.00,0.0009
2490.00,0.0009
2489.00,0.0010
2488.00,0.0010
2487.00,0.0010
2486.00,0.0010
2485.00,0.0009
2484.00,0.0009
2483.00,0.0008
2482.00,0.0007
2481.00,0.0007
2480.00,0.0007
2479.00,0.0007
2478.00,0.0007
2477.00,0.0007
2476.00,0.0007
2475.00,0.0007
2474.00,0.0007
2473.00,0.0007
2472.00,0.0007
2471.00,0.0007
2470.00,0.0007
2469.00,0.0007
2468.00,0.0007
2467.00,0.0007
2466.00,0.0007
2465.00,0.0008
2464.00,0.0008
2463.00,0.0008
2462.00,0.0008
2461.00,0.0008
2460.00,0.0008
2459.00,0.0008
2458.00,0.0009
2457.00,0.0010
2456.00,0.0010
2455.00,0.0010
2454.00,0.0010
2453.00,0.0009
2452.00,0.0009
2451.00,0.0009
2450.00,0.0009
2449.00,0.0009
2448.00,0.0009
2447.00,0.0009
2446.00,0.0008
2445.00,0.0009
2444.00,0.0009
2443.00,0.0009
2442.00,0.0008
2441.00,0.0008
2440.00,0.0008
2439.00,0.0008
2438.00,0.0009
2437.00,0.0009
2436.00,0.0009
2435.00,0.0009
2434.00,0.0009
2433.00,0.0009
2432.00,0.0010
2431.00,0.0010
2430.00,0.0010
2429.00,0.0010
2428.00,0.0010
2427.00,0.0010
2426.00,0.0009
2425.00,0.0009
2424.00,0.0009
2423.00,0.0009
2422.00,0.0009
2421.00,0.0009
2420.00,0.0008
2419.00,0.0008
2418.00,0.0007
2417.00,0.0007
2416.00,0.0008
2415.00,0.0008
2414.00,0.0008
2413.00,0.0008
2412.00,0.0008
2411.00,0.0008
2410.00,0.0008
2409.00,0.0008
2408.00,0.0008
2407.00,0.0008
2406.00,0.0008
2405.00,0.0008
2404.00,0.0008
2403.00,0.0008
2402.00,0.0008
2401.00,0.0007
2400.00,0.0007
2399.00,0.0007
2398.00,0.0006
2397.00,0.0006
2396.00,0.0005
2395.00,0.0005
2394.00,0.0005
2393.00,0.0006
2392.00,0.0006
2391.00,0.0007
2390.00,0.0006
2389.00,0.0006
2388.00,0.0006
2387.00,0.0005
2386.00,0.0005
2385.00,0.0005
2384.00,0.0004
2383.00,0.0003
2382.00,0.0002
2381.00,0.0001
2380.00,0.0001
2379.00,0.0001
2378.00,0.0001
2377.00,0.0002
2376.00,0.0002
2375.00,0.0002
2374.00,0.0001
2373.00,0.0002
2372.00,0.0002
2371.00,0.0001
2370.00,0.0001
2369.00,-0.0000
2368.00,-0.0001
2367.00,-0.0001
2366.00,-0.0000
2365.00,0.0000
2364.00,0.0001
2363.00,0.0001
2362.00,0.0001
2361.00,0.0001
2360.00,0.0001
2359.00,0.0001
2358.00,0.0000
2357.00,-0.0000
2356.00,-0.0000
2355.00,0.0000
2354.00,0.0001
2353.00,0.0002
2352.00,0.0003
2351.00,0.0003
2350.00,0.0003
2349.00,0.0002
2348.00,0.0001
2347.00,0.0001
2346.00,0.0003
2345.00,0.0004
2344.00,0.0004
2343.00,0.0003
2342.00,0.0002
2341.00,0.0001
2340.00,0.0002
2339.00,0.0003
2338.00,0.0004
2337.00,0.0005
2336.00,0.0004
2335.00,0.0004
2334.00,0.0003
2333.00,0.0003
2332.00,0.0002
2331.00,0.0002
2330.00,0.0003
2329.00,0.0004
2328.00,0.0005
2327.00,0.0008
2326.00,0.0012
2325.00,0.0016
2324.00,0.0018
2323.00,0.0018
2322.00,0.0016
2321.00,0.0014
2320.00,0.0012
2319.00,0.0010
2318.00,0.0010
2317.00,0.0009
2316.00,0.0009
2315.00,0.0009
2314.00,0.0008
2313.00,0.0008
2312.00,0.0007
2311.00,0.0007
2310.00,0.0007
2309.00,0.0006
2308.00,0.0006
2307.00,0.0006
2306.00,0.0006
2305.00,0.0005
2304.00,0.0005
2303.00,0.0005
2302.00,0.0006
2301.00,0.0007
2300.00,0.0008
2299.00,0.0008
2298.00,0.0009
2297.00,0.0009
2296.00,0.0010
2295.00,0.0010
2294.00,0.0010
2293.00,0.0011
2292.00,0.0011
2291.00,0.0012
2290.00,0.0013
2289.00,0.0015
2288.00,0.0016
2287.00,0.0016
2286.00,0.0016
2285.00,0.0015
2284.00,0.0014
2283.00,0.0014
2282.00,0.0013
2281.00,0.0013
2280.00,0.0012
2279.00,0.0011
2278.00,0.0011
2277.00,0.0011
2276.00,0.0011
2275.00,0.0011
2274.00,0.0010
2273.00,0.0010
2272.00,0.0009
2271.00,0.0010
2270.00,0.0010
2269.00,0.0011
2268.00,0.0012
2267.00,0.0011
2266.00,0.0010
2265.00,0.0008
2264.00,0.0007
2263.00,0.0006
2262.00,0.0007
2261.00,0.0008
2260.00,0.0009
2259.00,0.0010
2258.00,0.0010
2257.00,0.0010
2256.00,0.0009
2255.00,0.0008
2254.00,0.0007
2253.00,0.0006
2252.00,0.0006
2251.00,0.0006
2250.00,0.0006
2249.00,0.0006
2248.00,0.0007
2247.00,0.0007
2246.00,0.0008
2245.00,0.0009
2244.00,0.0009
2243.00,0.0010
2242.00,0.0009
2241.00,0.0008
2240.00,0.0007
2239.00,0.0006
2238.00,0.0005
2237.00,0.0005
2236.00,0.0004
2235.00,0.0004
2234.00,0.0003
2233.00,0.0003
2232.00,0.0002
2231.00,0.0001
2230.00,0.0001
2229.00,0.0003
2228.00,0.0005
2227.00,0.0007
2226.00,0.0007
2225.00,0.0006
2224.00,0.0005
2223.00,0.0005
2222.00,0.0006
2221.00,0.0007
2220.00,0.0006
2219.00,0.0005
2218.00,0.0005
2217.00,0.0005
2216.00,0.0007
2215.00,0.0008
2214.00,0.0008
2213.00,0.0005
2212.00,0.0003
2211.00,0.0002
2210.00,0.0002
2209.00,0.0003
2208.00,0.0004
2207.00,0.0005
2206.00,0.0005
2205.00,0.0005
2204.00,0.0006
2203.00,0.0005
2202.00,0.0005
2201.00,0.0005
2200.00,0.0006
2199.00,0.0006
2198.00,0.0006
2197.00,0.0006
2196.00,0.0006
2195.00,0.0005
2194.00,0.0004
2193.00,0.0003
2192.00,0.0004
2191.00,0.0006
2190.00,0.0007
2189.00,0.0009
2188.00,0.0009
2187.00,0.0010
2186.00,0.0009
2185.00,0.0007
2184.00,0.0005
2183.00,0.0003
2182.00,0.0003
2181.00,0.0004
2180.00,0.0006
2179.00,0.0008
2178.00,0.0009
2177.00,0.0009
2176.00,0.0007
2175.00,0.0004
2174.00,0.0001
2173.00,-0.0000
2172.00,-0.0000
2171.00,0.0001
2170.00,0.0004
2169.00,0.0008
2168.00,0.0011
2167.00,0.0012
2166.00,0.0011
2165.00,0.0009
2164.00,0.0009
2163.00,0.0010
2162.00,0.0011
2161.00,0.0007
2160.00,-0.0003
2159.00,-0.0019
2158.00,-0.0030
2157.00,-0.0034
2156.00,-0.0031
2155.00,-0.0026
2154.00,-0.0022
2153.00,-0.0020
2152.00,-0.0019
2151.00,-0.0019
2150.00,-0.0019
2149.00,-0.0020
2148.00,-0.0020
2147.00,-0.0020
2146.00,-0.0019
2145.00,-0.0019
2144.00,-0.0018
2143.00,-0.0017
2142.00,-0.0016
2141.00,-0.0014
2140.00,-0.0012
2139.00,-0.0011
2138.00,-0.0010
2137.00,-0.0012
2136.00,-0.0014
2135.00,-0.0017
2134.00,-0.0019
2133.00,-0.0019
2132.00,-0.0017
2131.00,-0.0016
2130.00,-0.0015
2129.00,-0.0014
2128.00,-0.0013
2127.00,-0.0012
2126.00,-0.0010
2125.00,-0.0009
2124.00,-0.0009
2123.00,-0.0010
2122.00,-0.0010
2121.00,-0.0010
2120.00,-0.0008
2119.00,-0.0006
2118.00,-0.0004
2117.00,-0.0002
2116.00,-0.0001
2115.00,0.0000
2114.00,0.0002
2113.00,0.0003
2112.00,0.0003
2111.00,0.0001
2110.00,-0.0001
2109.00,-0.0002
2108.00,-0.0004
2107.00,-0.0005
2106.00,-0.0004
2105.00,-0.0002
2104.00,-0.0001
2103.00,-0.0000
2102.00,-0.0001
2101.00,-0.0003
2100.00,-0.0003
2099.00,-0.0003
2098.00,-0.0003
2097.00,-0.0003
2096.00,-0.0005
2095.00,-0.0007
2094.00,-0.0007
2093.00,-0.0006
2092.00,-0.0004
2091.00,-0.0002
2090.00,-0.0001
2089.00,-0.0000
2088.00,-0.0000
2087.00,-0.0001
2086.00,-0.0000
2085.00,0.0002
2084.00,0.0004
2083.00,0.0006
2082.00,0.0006
2081.00,0.0005
2080.00,0.0003
2079.00,0.0001
2078.00,0.0000
2077.00,0.0000
2076.00,-0.0000
2075.00,-0.0001
2074.00,-0.0003
2073.00,-0.0004
2072.00,-0.0004
2071.00,-0.0002
2070.00,-0.0001
2069.00,0.0001
2068.00,0.0002
2067.00,0.0002
2066.00,0.0001
2065.00,-0.0001
2064.00,-0.0003
2063.00,-0.0006
2062.00,-0.0008
2061.00,-0.0009
2060.00,-0.0007
2059.00,-0.0005
2058.00,-0.0003
2057.00,-0.0001
2056.00,-0.0001
2055.00,-0.0002
2054.00,-0.0002
2053.00,0.0001
2052.00,0.0006
2051.00,0.0010
2050.00,0.0011
2049.00,0.0008
2048.00,0.0006
2047.00,0.0004
2046.00,0.0004
2045.00,0.0002
2044.00,0.0000
2043.00,-0.0003
2042.00,-0.0004
2041.00,-0.0005
2040.00,-0.0003
2039.00,-0.0002
2038.00,0.0000
2037.00,0.0002
2036.00,0.0003
2035.00,0.0003
2034.00,0.0002
2033.00,-0.0000
2032.00,-0.0004
2031.00,-0.0008
2030.00,-0.0010
2029.00,-0.0011
2028.00,-0.0010
2027.00,-0.0011
2026.00,-0.0011
2025.00,-0.0011
2024.00,-0.0010
2023.00,-0.0010
2022.00,-0.0010
2021.00,-0.0010
2020.00,-0.0008
2019.00,-0.0006
2018.00,-0.0005
2017.00,-0.0007
2016.00,-0.0010
2015.00,-0.0014
2014.00,-0.0016
2013.00,-0.0016
2012.00,-0.0014
2011.00,-0.0011
2010.00,-0.0009
2009.00,-0.0008
2008.00,-0.0009
2007.00,-0.0012
2006.00,-0.0016
2005.00,-0.0019
2004.00,-0.0020
2003.00,-0.0019
2002.00,-0.0017
2001.00,-0.0016
2000.00,-0.0015
1999.00,-0.0014
1998.00,-0.0014
1997.00,-0.0012
1996.00,-0.0010
1995.00,-0.0007
1994.00,-0.0005
1993.00,-0.0004
1992.00,-0.0005
1991.00,-0.0006
1990.00,-0.0006
1989.00,-0.0006
1988.00,-0.0006
1987.00,-0.0006
1986.00,-0.0004
1985.00,-0.0002
1984.00,0.0000
1983.00,0.0002
1982.00,0.0005
1981.00,0.0007
1980.00,0.0006
1979.00,0.0002
1978.00,-0.0005
1977.00,-0.0011
1976.00,-0.0014
1975.00,-0.0016
1974.00,-0.0019
1973.00,-0.0022
1972.00,-0.0023
1971.00,-0.0022
1970.00,-0.0021
1969.00,-0.0020
1968.00,-0.0020
1967.00,-0.0020
1966.00,-0.0019
1965.00,-0.0016
1964.00,-0.0013
1963.00,-0.0012
1962.00,-0.0013
1961.00,-0.0015
1960.00,-0.0018
1959.00,-0.0021
1958.00,-0.0022
1957.00,-0.0020
1956.00,-0.0017
1955.00,-0.0015
1954.00,-0.0014
1953.00,-0.0015
1952.00,-0.0015
1951.00,-0.0015
1950.00,-0.0014
1949.00,-0.0012
1948.00,-0.0011
1947.00,-0.0012
1946.00,-0.0013
1945.00,-0.0015
1944.00,-0.0016
1943.00,-0.0017
1942.00,-0.0017
1941.00,-0.0015
1940.00,-0.0013
1939.00,-0.0012
1938.00,-0.0012
1937.00,-0.0013
1936.00,-0.0014
1935.00,-0.0014
1934.00,-0.0013
1933.00,-0.0012
1932.00,-0.0012
1931.00,-0.0012
1930.00,-0.0011
1929.00,-0.0011
1928.00,-0.0010
1927.00,-0.0010
1926.00,-0.0010
1925.00,-0.0009
1924.00,-0.0008
1923.00,-0.0007
1922.00,-0.0005
1921.00,-0.0005
1920.00,-0.0006
1919.00,-0.0007
1918.00,-0.0008
1917.00,-0.0007
1916.00,-0.0006
1915.00,-0.0005
1914.00,-0.0005
1913.00,-0.0005
1912.00,-0.0005
1911.00,-0.0005
1910.00,-0.0005
1909.00,-0.0005
1908.00,-0.0004
1907.00,-0.0003
1906.00,-0.0004
1905.00,-0.0004
1904.00,-0.0005
1903.00,-0.0005
1902.00,-0.0004
1901.00,-0.0003
1900.00,-0.0003
1899.00,-0.0003
1898.00,-0.0004
1897.00,-0.0004
1896.00,-0.0003
1895.00,-0.0003
1894.00,-0.0002
1893.00,-0.0002
1892.00,-0.0001
1891.00,-0.0001
1890.00,-0.0001
1889.00,-0.0001
1888.00,-0.0001
1887.00,-0.0002
1886.00,-0.0003
1885.00,-0.0003
1884.00,-0.0004
1883.00,-0.0004
1882.00,-0.0005
1881.00,-0.0005
1880.00,-0.0005
1879.00,-0.0006
1878.00,-0.0005
1877.00,-0.0005
1876.00,-0.0003
1875.00,-0.0002
1874.00,-0.0002
1873.00,-0.0002
1872.00,-0.0002
1871.00,-0.0002
1870.00,-0.0001
1869.00,-0.0001
1868.00,-0.0001
1867.00,-0.0001
1866.00,-0.0002
1865.00,-0.0002
1864.00,-0.0002
1863.00,-0.0001
1862.00,-0.0001
1861.00,-0.0000
1860.00,0.0000
1859.00,0.0000
1858.00,-0.0000
1857.00,-0.0000
1856.00,0.0000
1855.00,-0.0000
1854.00,-0.0000
1853.00,-0.0001
1852.00,-0.0001
1851.00,-0.0001
1850.00,-0.0001
1849.00,-0.0001
1848.00,-0.0000
1847.00,-0.0000
1846.00,-0.0000
1845.00,-0.0000
1844.00,0.0000
1843.00,0.0000
1842.00,0.0001
1841.00,0.0001
1840.00,0.0001
1839.00,0.0002
1838.00,0.0002
1837.00,0.0002
1836.00,0.0002
1835.00,0.0002
1834.00,0.0002
1833.00,0.0002
1832.00,0.0002
1831.00,0.0002
1830.00,0.0002
1829.00,0.0002
1828.00,0.0002
1827.00,0.0002
1826.00,0.0002
1825.00,0.0002
1824.00,0.0003
1823.00,0.0003
1822.00,0.0003
1821.00,0.0003
1820.00,0.0002
1819.00,0.0000
1818.00,-0.0002
1817.00,-0.0003
1816.00,-0.0003
1815.00,-0.0003
1814.00,-0.0003
1813.00,-0.0001
1812.00,-0.0000
1811.00,0.0001
1810.00,0.0002
1809.00,0.0002
1808.00,0.0002
1807.00,0.0002
1806.00,0.0003
1805.00,0.0003
1804.00,0.0003
1803.00,0.0003
1802.00,0.0003
1801.00,0.0003
1800.00,0.0003
1799.00,0.0004
1798.00,0.0004
1797.00,0.0005
1796.00,0.0005
1795.00,0.0005
1794.00,0.0005
1793.00,0.0005
1792.00,0.0005
1791.00,0.0005
1790.00,0.0005
1789.00,0.0006
1788.00,0.0006
1787.00,0.0006
1786.00,0.0006
1785.00,0.0006
1784.00,0.0006
1783.00,0.0006
1782.00,0.0006
1781.00,0.0007
1780.00,0.0007
1779.00,0.0007
1778.00,0.0007
1777.00,0.0008
1776.00,0.0009
1775.00,0.0009
1774.00,0.0009
1773.00,0.0010
1772.00,0.0010
1771.00,0.0010
1770.00,0.0011
1769.00,0.0011
1768.00,0.0011
1767.00,0.0011
1766.00,0.0011
1765.00,0.0011
1764.00,0.0012
1763.00,0.0012
1762.00,0.0013
1761.00,0.0013
1760.00,0.0013
1759.00,0.0014
1758.00,0.0014
1757.00,0.0014
1756.00,0.0014
1755.00,0.0013
1754.00,0.0013
1753.00,0.0013
1752.00,0.0014
1751.00,0.0014
1750.00,0.0015
1749.00,0.0015
1748.00,0.0015
1747.00,0.0015
1746.00,0.0015
1745.00,0.0015
1744.00,0.0015
1743.00,0.0015
1742.00,0.0015
1741.00,0.0016
1740.00,0.0016
1739.00,0.0016
1738.00,0.0016
1737.00,0.0016
1736.00,0.0016
1735.00,0.0016
1734.00,0.0016
1733.00,0.0017
1732.00,0.0017
1731.00,0.0017
1730.00,0.0017
1729.00,0.0017
1728.00,0.0017
1727.00,0.0017
1726.00,0.0017
1725.00,0.0017
1724.00,0.0017
1723.00,0.0017
1722.00,0.0017
1721.00,0.0017
1720.00,0.0018
1719.00,0.0018
1718.00,0.0019
1717.00,0.0020
1716.00,0.0021
1715.00,0.0021
1714.00,0.0020
1713.00,0.0020
1712.00,0.0019
1711.00,0.0019
1710.00,0.0019
1709.00,0.0019
1708.00,0.0020
1707.00,0.0020
1706.00,0.0020
1705.00,0.0020
1704.00,0.0020
1703.00,0.0019
1702.00,0.0019
1701.00,0.0020
1700.00,0.0021
1699.00,0.0022
1698.00,0.0022
1697.00,0.0023
1696.00,0.0023
1695.00,0.0023
1694.00,0.0024
1693.00,0.0024
1692.00,0.0024
1691.00,0.0025
1690.00,0.0025
1689.00,0.0025
1688.00,0.0025
1687.00,0.0025
1686.00,0.0026
1685.00,0.0026
1684.00,0.0026
1683.00,0.0026
1682.00,0.0026
1681.00,0.0027
1680.00,0.0028
1679.00,0.0029
1678.00,0.0029
1677.00,0.0029
1676.00,0.0029
1675.00,0.0029
1674.00,0.0030
1673.00,0.0030
1672.00,0.0031
1671.00,0.0031
1670.00,0.0031
1669.00,0.0032
1668.00,0.0032
1667.00,0.0033
1666.00,0.0033
1665.00,0.0033
1664.00,0.0034
1663.00,0.0034
1662.00,0.0035
1661.00,0.0035
1660.00,0.0035
1659.00,0.0035
1658.00,0.0035
1657.00,0.0036
1656.00,0.0037
1655.00,0.0038
1654.00,0.0038
1653.00,0.0038
1652.00,0.0038
1651.00,0.0038
1650.00,0.0038
1649.00,0.0038
1648.00,0.0039
1647.00,0.0038
1646.00,0.0038
1645.00,0.0038
1644.00,0.0039
1643.00,0.0039
1642.00,0.0039
1641.00,0.0040
1640.00,0.0040
1639.00,0.0040
1638.00,0.0039
1637.00,0.0039
1636.00,0.0039
1635.00,0.0039
1634.00,0.0039
1633.00,0.0039
1632.00,0.0039
1631.00,0.0039
1630.00,0.0039
1629.00,0.0039
1628.00,0.0039
1627.00,0.0038
1626.00,0.0038
1625.00,0.0039
1624.00,0.0039
1623.00,0.0038
1622.00,0.0038
1621.00,0.0037
1620.00,0.0037
1619.00,0.0037
1618.00,0.0037
1617.00,0.0037
1616.00,0.0036
1615.00,0.0036
1614.00,0.0036
1613.00,0.0036
1612.00,0.0036
1611.00,0.0036
1610.00,0.0036
1609.00,0.0036
1608.00,0.0036
1607.00,0.0036
1606.00,0.0036
1605.00,0.0036
1604.00,0.0036
1603.00,0.0036
1602.00,0.0036
1601.00,0.0036
1600.00,0.0036
1599.00,0.0035
1598.00,0.0035
1597.00,0.0035
1596.00,0.0035
1595.00,0.0035
1594.00,0.0035
1593.00,0.0035
1592.00,0.0035
1591.00,0.0036
1590.00,0.0036
1589.00,0.0036
1588.00,0.0037
1587.00,0.0038
1586.00,0.0038
1585.00,0.0039
1584.00,0.0041
1583.00,0.0042
1582.00,0.0043
1581.00,0.0044
1580.00,0.0045
1579.00,0.0046
1578.00,0.0047
1577.00,0.0048
1576.00,0.0048
1575.00,0.0047
1574.00,0.0046
1573.00,0.0046
1572.00,0.0045
1571.00,0.0044
1570.00,0.0043
1569.00,0.0043
1568.00,0.0043
1567.00,0.0042
1566.00,0.0041
1565.00,0.0041
1564.00,0.0040
1563.00,0.0040
1562.00,0.0040
1561.00,0.0041
1560.00,0.0042
1559.00,0.0042
1558.00,0.0042
1557.00,0.0042
1556.00,0.0043
1555.00,0.0043
1554.00,0.0043
1553.00,0.0043
1552.00,0.0044
1551.00,0.0044
1550.00,0.0045
1549.00,0.0046
1548.00,0.0047
1547.00,0.0048
1546.00,0.0049
1545.00,0.0051
1544.00,0.0054
1543.00,0.0056
1542.00,0.0057
1541.00,0.0057
1540.00,0.0056
1539.00,0.0054
1538.00,0.0052
1537.00,0.0051
1536.00,0.0050
1535.00,0.0049
1534.00,0.0048
1533.00,0.0046
1532.00,0.0045
1531.00,0.0044
1530.00,0.0043
1529.00,0.0043
1528.00,0.0044
1527.00,0.0044
1526.00,0.0043
1525.00,0.0043
1524.00,0.0043
1523.00,0.0043
1522.00,0.0043
1521.00,0.0044
1520.00,0.0044
1519.00,0.0044
1518.00,0.0044
1517.00,0.0044
1516.00,0.0045
1515.00,0.0046
1514.00,0.0046
1513.00,0.0047
1512.00,0.0048
1511.00,0.0049
1510.00,0.0050
1509.00,0.0051
1508.00,0.0054
1507.00,0.0054
1506.00,0.0055
1505.00,0.0055
1504.00,0.0056
1503.00,0.0057
1502.00,0.0058
1501.00,0.0060
1500.00,0.0062
1499.00,0.0064
1498.00,0.0066
1497.00,0.0069
1496.00,0.0073
1495.00,0.0075
1494.00,0.0078
1493.00,0.0080
1492.00,0.0084
1491.00,0.0087
1490.00,0.0090
1489.00,0.0095
1488.00,0.0101
1487.00,0.0105
1486.00,0.0110
1485.00,0.0116
1484.00,0.0124
1483.00,0.0131
1482.00,0.0141
1481.00,0.0152
1480.00,0.0164
1479.00,0.0175
1478.00,0.0189
1477.00,0.0208
1476.00,0.0229
1475.00,0.0254
1474.00,0.0289
1473.00,0.0342
1472.00,0.0408
1471.00,0.0473
1470.00,0.0537
1469.00,0.0605
1468.00,0.0678
1467.00,0.0759
1466.00,0.0852
1465.00,0.0953
1464.00,0.1043
1463.00,0.1109
1462.00,0.1154
1461.00,0.1187
1460.00,0.1211
1459.00,0.1227
1458.00,0.1238
1457.00,0.1245
1456.00,0.1244
1455.00,0.1236
1454.00,0.1224
1453.00,0.1205
1452.00,0.1175
1451.00,0.1131
1450.00,0.1071
1449.00,0.0991
1448.00,0.0893
1447.00,0.0791
1446.00,0.0702
1445.00,0.0628
1444.00,0.0566
1443.00,0.0516
1442.00,0.0480
1441.00,0.0457
1440.00,0.0444
1439.00,0.0441
1438.00,0.0445
1437.00,0.0449
1436.00,0.0439
1435.00,0.0412
1434.00,0.0371
1433.00,0.0322
1432.00,0.0272
1431.00,0.0228
1430.00,0.0195
1429.00,0.0171
1428.00,0.0155
1427.00,0.0145
1426.00,0.0139
1425.00,0.0133
1424.00,0.0128
1423.00,0.0125
1422.00,0.0123
1421.00,0.0121
1420.00,0.0117
1419.00,0.0115
1418.00,0.0112
1417.00,0.0109
1416.00,0.0106
1415.00,0.0105
1414.00,0.0105
1413.00,0.0104
1412.00,0.0103
1411.00,0.0103
1410.00,0.0103
1409.00,0.0102
1408.00,0.0101
1407.00,0.0101
1406.00,0.0102
1405.00,0.0102
1404.00,0.0102
1403.00,0.0104
1402.00,0.0106
1401.00,0.0107
1400.00,0.0109
1399.00,0.0111
1398.00,0.0114
1397.00,0.0116
1396.00,0.0119
1395.00,0.0123
1394.00,0.0130
1393.00,0.0136
1392.00,0.0143
1391.00,0.0152
1390.00,0.0164
1389.00,0.0182
1388.00,0.0209
1387.00,0.0248
1386.00,0.0302
1385.00,0.0368
1384.00,0.0456
1383.00,0.0575
1382.00,0.0732
1381.00,0.0935
1380.00,0.1190
1379.00,0.1488
1378.00,0.1788
1377.00,0.2025
1376.00,0.2127
1375.00,0.2046
1374.00,0.1802
1373.00,0.1491
1372.00,0.1198
1371.00,0.0954
1370.00,0.0759
1369.00,0.0611
1368.00,0.0509
1367.00,0.0447
1366.00,0.0413
1365.00,0.0400
1364.00,0.0403
1363.00,0.0419
1362.00,0.0443
1361.00,0.0468
1360.00,0.0486
1359.00,0.0490
1358.00,0.0477
1357.00,0.0446
1356.00,0.0403
1355.00,0.0355
1354.00,0.0309
1353.00,0.0270
1352.00,0.0239
1351.00,0.0215
1350.00,0.0195
1349.00,0.0178
1348.00,0.0166
1347.00,0.0155
1346.00,0.0147
1345.00,0.0140
1344.00,0.0135
1343.00,0.0131
1342.00,0.0128
1341.00,0.0125
1340.00,0.0122
1339.00,0.0121
1338.00,0.0120
1337.00,0.0119
1336.00,0.0120
1335.00,0.0122
1334.00,0.0125
1333.00,0.0129
1332.00,0.0134
1331.00,0.0138
1330.00,0.0139
1329.00,0.0138
1328.00,0.0134
1327.00,0.0127
1326.00,0.0120
1325.00,0.0114
1324.00,0.0107
1323.00,0.0102
1322.00,0.0098
1321.00,0.0094
1320.00,0.0091
1319.00,0.0089
1318.00,0.0086
1317.00,0.0083
1316.00,0.0081
1315.00,0.0080
1314.00,0.0079
1313.00,0.0080
1312.00,0.0081
1311.00,0.0083
1310.00,0.0086
1309.00,0.0091
1308.00,0.0097
1307.00,0.0105
1306.00,0.0113
1305.00,0.0119
1304.00,0.0123
1303.00,0.0123
1302.00,0.0122
1301.00,0.0121
1300.00,0.0121
1299.00,0.0122
1298.00,0.0124
1297.00,0.0125
1296.00,0.0125
1295.00,0.0123
1294.00,0.0120
1293.00,0.0114
1292.00,0.0109
1291.00,0.0103
1290.00,0.0098
1289.00,0.0093
1288.00,0.0089
1287.00,0.0086
1286.00,0.0083
1285.00,0.0081
1284.00,0.0079
1283.00,0.0077
1282.00,0.0076
1281.00,0.0074
1280.00,0.0073
1279.00,0.0072
1278.00,0.0071
1277.00,0.0070
1276.00,0.0070
1275.00,0.0070
1274.00,0.0071
1273.00,0.0071
1272.00,0.0071
1271.00,0.0071
1270.00,0.0071
1269.00,0.0071
1268.00,0.0072
1267.00,0.0073
1266.00,0.0074
1265.00,0.0076
1264.00,0.0077
1263.00,0.0079
1262.00,0.0082
1261.00,0.0086
1260.00,0.0090
1259.00,0.0096
1258.00,0.0102
1257.00,0.0107
1256.00,0.0110
1255.00,0.0108
1254.00,0.0104
1253.00,0.0099
1252.00,0.0093
1251.00,0.0088
1250.00,0.0084
1249.00,0.0081
1248.00,0.0079
1247.00,0.0078
1246.00,0.0077
1245.00,0.0077
1244.00,0.0076
1243.00,0.0076
1242.00,0.0076
1241.00,0.0076
1240.00,0.0076
1239.00,0.0076
1238.00,0.0076
1237.00,0.0075
1236.00,0.0074
1235.00,0.0074
1234.00,0.0074
1233.00,0.0075
1232.00,0.0075
1231.00,0.0074
1230.00,0.0074
1229.00,0.0075
1228.00,0.0076
1227.00,0.0078
1226.00,0.0081
1225.00,0.0084
1224.00,0.0088
1223.00,0.0092
1222.00,0.0096
1221.00,0.0099
1220.00,0.0101
1219.00,0.0102
1218.00,0.0101
1217.00,0.0099
1216.00,0.0095
1215.00,0.0091
1214.00,0.0088
1213.00,0.0084
1212.00,0.0081
1211.00,0.0079
1210.00,0.0077
1209.00,0.0075
1208.00,0.0073
1207.00,0.0071
1206.00,0.0070
1205.00,0.0068
1204.00,0.0068
1203.00,0.0067
1202.00,0.0068
1201.00,0.0068
1200.00,0.0068
1199.00,0.0068
1198.00,0.0069
1197.00,0.0069
1196.00,0.0069
1195.00,0.0068
1194.00,0.0068
1193.00,0.0068
1192.00,0.0067
1191.00,0.0066
1190.00,0.0065
1189.00,0.0065
1188.00,0.0065
1187.00,0.0065
1186.00,0.0066
1185.00,0.0066
1184.00,0.0067
1183.00,0.0069
1182.00,0.0071
1181.00,0.0073
1180.00,0.0075
1179.00,0.0079
1178.00,0.0084
1177.00,0.0091
1176.00,0.0101
1175.00,0.0113
1174.00,0.0129
1173.00,0.0148
1172.00,0.0172
1171.00,0.0198
1170.00,0.0223
1169.00,0.0243
1168.00,0.0256
1167.00,0.0260
1166.00,0.0256
1165.00,0.0247
1164.00,0.0236
1163.00,0.0225
1162.00,0.0214
1161.00,0.0206
1160.00,0.0199
1159.00,0.0193
1158.00,0.0190
1157.00,0.0187
1156.00,0.0185
1155.00,0.0184
1154.00,0.0182
1153.00,0.0180
1152.00,0.0175
1151.00,0.0168
1150.00,0.0160
1149.00,0.0151
1148.00,0.0142
1147.00,0.0132
1146.00,0.0123
1145.00,0.0115
1144.00,0.0108
1143.00,0.0102
1142.00,0.0096
1141.00,0.0091
1140.00,0.0086
1139.00,0.0082
1138.00,0.0079
1137.00,0.0075
1136.00,0.0072
1135.00,0.0069
1134.00,0.0067
1133.00,0.0065
1132.00,0.0064
1131.00,0.0064
1130.00,0.0065
1129.00,0.0066
1128.00,0.0068
1127.00,0.0070
1126.00,0.0071
1125.00,0.0072
1124.00,0.0072
1123.00,0.0072
1122.00,0.0071
1121.00,0.0070
1120.00,0.0069
1119.00,0.0070
1118.00,0.0071
1117.00,0.0073
1116.00,0.0075
1115.00,0.0076
1114.00,0.0077
1113.00,0.0078
1112.00,0.0079
1111.00,0.0081
1110.00,0.0085
1109.00,0.0090
1108.00,0.0097
1107.00,0.0104
1106.00,0.0111
1105.00,0.0118
1104.00,0.0125
1103.00,0.0128
1102.00,0.0129
1101.00,0.0126
1100.00,0.0121
1099.00,0.0114
1098.00,0.0108
1097.00,0.0101
1096.00,0.0096
1095.00,0.0091
1094.00,0.0087
1093.00,0.0084
1092.00,0.0081
1091.00,0.0079
1090.00,0.0077
1089.00,0.0075
1088.00,0.0073
1087.00,0.0071
1086.00,0.0070
1085.00,0.0070
1084.00,0.0070
1083.00,0.0070
1082.00,0.0069
1081.00,0.0068
1080.00,0.0066
1079.00,0.0064
1078.00,0.0063
1077.00,0.0062
1076.00,0.0062
1075.00,0.0061
1074.00,0.0061
1073.00,0.0061
1072.00,0.0062
1071.00,0.0063
1070.00,0.0063
1069.00,0.0064
1068.00,0.0064
1067.00,0.0064
1066.00,0.0064
1065.00,0.0064
1064.00,0.0064
1063.00,0.0063
1062.00,0.0062
1061.00,0.0062
1060.00,0.0062
1059.00,0.0062
1058.00,0.0064
1057.00,0.0065
1056.00,0.0067
1055.00,0.0067
1054.00,0.0068
1053.00,0.0067
1052.00,0.0067
1051.00,0.0068
1050.00,0.0070
1049.00,0.0072
1048.00,0.0074
1047.00,0.0075
1046.00,0.0076
1045.00,0.0078
1044.00,0.0078
1043.00,0.0078
1042.00,0.0077
1041.00,0.0076
1040.00,0.0076
1039.00,0.0076
1038.00,0.0077
1037.00,0.0078
1036.00,0.0079
1035.00,0.0079
1034.00,0.0079
1033.00,0.0079
1032.00,0.0079
1031.00,0.0078
1030.00,0.0077
1029.00,0.0077
1028.00,0.0076
1027.00,0.0076
1026.00,0.0075
1025.00,0.0074
1024.00,0.0074
1023.00,0.0074
1022.00,0.0075
1021.00,0.0076
1020.00,0.0076
1019.00,0.0077
1018.00,0.0078
1017.00,0.0080
1016.00,0.0082
1015.00,0.0084
1014.00,0.0087
1013.00,0.0090
1012.00,0.0094
1011.00,0.0099
1010.00,0.0103
1009.00,0.0107
1008.00,0.0111
1007.00,0.0115
1006.00,0.0120
1005.00,0.0128
1004.00,0.0140
1003.00,0.0156
1002.00,0.0178
1001.00,0.0204
1000.00,0.0231
999.00,0.0252
998.00,0.0261
997.00,0.0254
996.00,0.0234
995.00,0.0205
994.00,0.0175
993.00,0.0149
992.00,0.0129
991.00,0.0115
990.00,0.0106
989.00,0.0100
988.00,0.0096
987.00,0.0094
986.00,0.0095
985.00,0.0097
984.00,0.0102
983.00,0.0109
982.00,0.0119
981.00,0.0134
980.00,0.0154
979.00,0.0181
978.00,0.0213
977.00,0.0249
976.00,0.0286
975.00,0.0318
974.00,0.0339
973.00,0.0344
972.00,0.0330
971.00,0.0299
970.00,0.0260
969.00,0.0220
968.00,0.0185
967.00,0.0159
966.00,0.0140
965.00,0.0126
964.00,0.0115
963.00,0.0106
962.00,0.0099
961.00,0.0094
960.00,0.0089
959.00,0.0085
958.00,0.0082
957.00,0.0079
956.00,0.0077
955.00,0.0076
954.00,0.0075
953.00,0.0074
952.00,0.0073
951.00,0.0073
950.00,0.0072
949.00,0.0072
948.00,0.0073
947.00,0.0075
946.00,0.0078
945.00,0.0081
944.00,0.0084
943.00,0.0087
942.00,0.0089
941.00,0.0090
940.00,0.0090
939.00,0.0088
938.00,0.0083
937.00,0.0078
936.00,0.0074
935.00,0.0070
934.00,0.0067
933.00,0.0064
932.00,0.0062
931.00,0.0060
930.00,0.0060
929.00,0.0059
928.00,0.0059
927.00,0.0059
926.00,0.0059
925.00,0.0059
924.00,0.0060
923.00,0.0061
922.00,0.0063
921.00,0.0064
920.00,0.0065
919.00,0.0066
918.00,0.0066
917.00,0.0067
916.00,0.0068
915.00,0.0068
914.00,0.0069
913.00,0.0070
912.00,0.0071
911.00,0.0071
910.00,0.0072
909.00,0.0073
908.00,0.0075
907.00,0.0080
906.00,0.0088
905.00,0.0099
904.00,0.0115
903.00,0.0135
902.00,0.0157
901.00,0.0178
900.00,0.0193
899.00,0.0197
898.00,0.0190
897.00,0.0174
896.00,0.0154
895.00,0.0133
894.00,0.0116
893.00,0.0102
892.00,0.0091
891.00,0.0083
890.00,0.0077
889.00,0.0073
888.00,0.0071
887.00,0.0069
886.00,0.0066
885.00,0.0064
884.00,0.0063
883.00,0.0063
882.00,0.0064
881.00,0.0065
880.00,0.0065
879.00,0.0065
878.00,0.0066
877.00,0.0066
876.00,0.0067
875.00,0.0068
874.00,0.0068
873.00,0.0067
872.00,0.0066
871.00,0.0065
870.00,0.0064
869.00,0.0065
868.00,0.0067
867.00,0.0069
866.00,0.0070
865.00,0.0072
864.00,0.0073
863.00,0.0073
862.00,0.0074
861.00,0.0075
860.00,0.0076
859.00,0.0078
858.00,0.0079
857.00,0.0080
856.00,0.0081
855.00,0.0082
854.00,0.0083
853.00,0.0084
852.00,0.0086
851.00,0.0089
850.00,0.0093
849.00,0.0099
848.00,0.0107
847.00,0.0118
846.00,0.0134
845.00,0.0158
844.00,0.0189
843.00,0.0221
842.00,0.0242
841.00,0.0244
840.00,0.0226
839.00,0.0197
838.00,0.0167
837.00,0.0144
836.00,0.0130
835.00,0.0120
834.00,0.0114
833.00,0.0110
832.00,0.0107
831.00,0.0105
830.00,0.0104
829.00,0.0103
828.00,0.0102
827.00,0.0100
826.00,0.0099
825.00,0.0097
824.00,0.0095
823.00,0.0095
822.00,0.0096
821.00,0.0099
820.00,0.0102
819.00,0.0106
818.00,0.0111
817.00,0.0117
816.00,0.0125
815.00,0.0136
814.00,0.0150
813.00,0.0168
812.00,0.0186
811.00,0.0202
810.00,0.0214
809.00,0.0219
808.00,0.0217
807.00,0.0208
806.00,0.0193
805.00,0.0176
804.00,0.0159
803.00,0.0144
802.00,0.0132
801.00,0.0122
800.00,0.0114
799.00,0.0107
798.00,0.0101
797.00,0.0096
796.00,0.0093
795.00,0.0090
794.00,0.0087
793.00,0.0083
792.00,0.0080
791.00,0.0077
790.00,0.0076
789.00,0.0075
788.00,0.0073
787.00,0.0070
786.00,0.0067
785.00,0.0063
784.00,0.0061
783.00,0.0059
782.00,0.0059
781.00,0.0058
780.00,0.0057
779.00,0.0056
778.00,0.0055
777.00,0.0054
776.00,0.0054
775.00,0.0055
774.00,0.0057
773.00,0.0061
772.00,0.0065
771.00,0.0068
770.00,0.0070
769.00,0.0071
768.00,0.0072
767.00,0.0073
766.00,0.0073
765.00,0.0073
764.00,0.0070
763.00,0.0065
762.00,0.0060
761.00,0.0056
760.00,0.0054
759.00,0.0053
758.00,0.0052
757.00,0.0050
756.00,0.0048
755.00,0.0047
754.00,0.0046
753.00,0.0046
752.00,0.0048
751.00,0.0049
750.00,0.0050
749.00,0.0050
748.00,0.0048
747.00,0.0047
746.00,0.0046
745.00,0.0047
744.00,0.0047
743.00,0.0047
742.00,0.0047
741.00,0.0048
740.00,0.0050
739.00,0.0051
738.00,0.0053
737.00,0.0054
736.00,0.0057
735.00,0.0060
734.00,0.0063
733.00,0.0065
732.00,0.0064
731.00,0.0062
730.00,0.0060
729.00,0.0059
728.00,0.0057
727.00,0.0056
726.00,0.0055
725.00,0.0055
724.00,0.0054
723.00,0.0053
722.00,0.0051
721.00,0.0049
720.00,0.0047
719.00,0.0047
718.00,0.0048
717.00,0.0048
716.00,0.0049
715.00,0.0049
714.00,0.0049
713.00,0.0050
712.00,0.0049
711.00,0.0049
710.00,0.0048
709.00,0.0049
708.00,0.0049
707.00,0.0050
706.00,0.0050
705.00,0.0049
704.00,0.0049
703.00,0.0048
702.00,0.0048
701.00,0.0047
700.00,0.0045
699.00,0.0044
698.00,0.0044
697.00,0.0045
696.00,0.0046
695.00,0.0047
694.00,0.0049
693.00,0.0050
692.00,0.0049
691.00,0.0047
690.00,0.0046
689.00,0.0046
688.00,0.0045
687.00,0.0045
686.00,0.0045
685.00,0.0046
684.00,0.0046
683.00,0.0046
682.00,0.0045
681.00,0.0044
680.00,0.0042
679.00,0.0041
678.00,0.0042
677.00,0.0043
676.00,0.0044
675.00,0.0044
674.00,0.0044
673.00,0.0044
672.00,0.0043
671.00,0.0044
670.00,0.0047
669.00,0.0052
668.00,0.0057
667.00,0.0060
666.00,0.0058
665.00,0.0054
664.00,0.0050
663.00,0.0047
662.00,0.0044
661.00,0.0042
660.00,0.0041
659.00,0.0042
658.00,0.0045
657.00,0.0046
656.00,0.0047
655.00,0.0047
654.00,0.0047
653.00,0.0048
652.00,0.0048
651.00,0.0048
650.00,0.0045
649.00,0.0042
648.00,0.0041
647.00,0.0041
646.00,0.0044
645.00,0.0046
644.00,0.0046
643.00,0.0046
642.00,0.0046
641.00,0.0047
640.00,0.0048
639.00,0.0048
638.00,0.0048
637.00,0.0047
636.00,0.0046
635.00,0.0045
634.00,0.0044
633.00,0.0043
632.00,0.0042
631.00,0.0042
630.00,0.0045
629.00,0.0048
628.00,0.0048
627.00,0.0048
626.00,0.0048
625.00,0.0051
624.00,0.0053
623.00,0.0053
622.00,0.0050
621.00,0.0047
620.00,0.0046
619.00,0.0045
618.00,0.0046
617.00,0.0048
616.00,0.0050
615.00,0.0051
614.00,0.0051
613.00,0.0049
612.00,0.0047
611.00,0.0046
610.00,0.0048
609.00,0.0052
608.00,0.0054
607.00,0.0055
606.00,0.0053
605.00,0.0051
604.00,0.0049
603.00,0.0048
602.00,0.0048
601.00,0.0049
600.00,0.0050
599.00,0.0049
598.00,0.0048
597.00,0.0047
596.00,0.0045
595.00,0.0044
594.00,0.0043
593.00,0.0043
592.00,0.0044
591.00,0.0044
590.00,0.0042
589.00,0.0040
588.00,0.0039
587.00,0.0040
586.00,0.0044
585.00,0.0046
584.00,0.0047
583.00,0.0048
582.00,0.0049
581.00,0.0051
580.00,0.0052
579.00,0.0053
578.00,0.0054
577.00,0.0055
576.00,0.0057
575.00,0.0057
574.00,0.0056
573.00,0.0054
572.00,0.0051
571.00,0.0048
570.00,0.0045
569.00,0.0045
568.00,0.0046
567.00,0.0047
566.00,0.0046
565.00,0.0045
564.00,0.0043
563.00,0.0044
562.00,0.0047
561.00,0.0051
560.00,0.0053
559.00,0.0052
558.00,0.0050
557.00,0.0049
556.00,0.0050
555.00,0.0052
554.00,0.0052
553.00,0.0050
552.00,0.0048
551.00,0.0046
550.00,0.0045
549.00,0.0044
548.00,0.0044
547.00,0.0045
546.00,0.0046
545.00,0.0048
544.00,0.0050
543.00,0.0051
542.00,0.0052
541.00,0.0053
540.00,0.0053
539.00,0.0053
538.00,0.0052
537.00,0.0053
536.00,0.0056
535.00,0.0061
534.00,0.0065
533.00,0.0066
532.00,0.0064
531.00,0.0060
530.00,0.0059
529.00,0.0062
528.00,0.0067
527.00,0.0073
526.00,0.0076
525.00,0.0076
524.00,0.0072
523.00,0.0067
522.00,0.0062
521.00,0.0059
520.00,0.0059
519.00,0.0062
518.00,0.0064
517.00,0.0064
516.00,0.0062
515.00,0.0058
514.00,0.0057
513.00,0.0058
512.00,0.0062
511.00,0.0067
510.00,0.0069
509.00,0.0065
508.00,0.0055
507.00,0.0046
506.00,0.0042
505.00,0.0043
504.00,0.0045
503.00,0.0045
502.00,0.0044
501.00,0.0043
500.00,0.0042
499.00,0.0040
498.00,0.0038
497.00,0.0036
496.00,0.0036
495.00,0.0036
494.00,0.0035
493.00,0.0035
492.00,0.0036
491.00,0.0040
490.00,0.0043
489.00,0.0043
488.00,0.0043
487.00,0.0043
486.00,0.0047
485.00,0.0053
484.00,0.0057
483.00,0.0055
482.00,0.0051
481.00,0.0050
480.00,0.0055
479.00,0.0063
478.00,0.0067
477.00,0.0063
476.00,0.0053
475.00,0.0046
474.00,0.0042
473.00,0.0041
472.00,0.0041
471.00,0.0045
470.00,0.0056
469.00,0.0069
468.00,0.0079
467.00,0.0085
466.00,0.0091
465.00,0.0102
464.00,0.0121
463.00,0.0139
462.00,0.0148
461.00,0.0145
460.00,0.0137
459.00,0.0130
458.00,0.0128
457.00,0.0129
456.00,0.0126
455.00,0.0120
454.00,0.0112
453.00,0.0103
452.00,0.0095
451.00,0.0085
450.00,0.0075
