Created as New Dataset,Sample 068 By Administrator Date Friday, September 05 2025
cm-1,A
4000.00,0.0019
3999.00,0.0019
3998.00,0.0019
3997.00,0.0019
3996.00,0.0019
3995.00,0.0019
3994.00,0.0019
3993.00,0.0019
3992.00,0.0018
3991.00,0.0018
3990.00,0.0018
3989.00,0.0018
3988.00,0.0018
3987.00,0.0019
3986.00,0.0019
3985.00,0.0019
3984.00,0.0019
3983.00,0.0018
3982.00,0.0018
3981.00,0.0018
3980.00,0.0018
3979.00,0.0018
3978.00,0.0018
3977.00,0.0018
3976.00,0.0018
3975.00,0.0018
3974.00,0.0018
3973.00,0.0018
3972.00,0.0018
3971.00,0.0017
3970.00,0.0017
3969.00,0.0017
3968.00,0.0017
3967.00,0.0017
3966.00,0.0017
3965.00,0.0016
3964.00,0.0016
3963.00,0.0016
3962.00,0.0016
3961.00,0.0017
3960.00,0.0017
3959.00,0.0017
3958.00,0.0018
3957.00,0.0017
3956.00,0.0017
3955.00,0.0017
3954.00,0.0017
3953.00,0.0017
3952.00,0.0017
3951.00,0.0017
3950.00,0.0017
3949.00,0.0017
3948.00,0.0017
3947.00,0.0017
3946.00,0.0017
3945.00,0.0017
3944.00,0.0017
3943.00,0.0017
3942.00,0.0018
3941.00,0.0018
3940.00,0.0018
3939.00,0.0018
3938.00,0.0018
3937.00,0.0017
3936.00,0.0017
3935.00,0.0017
3934.00,0.0018
3933.00,0.0018
3932.00,0.0018
3931.00,0.0018
3930.00,0.0018
3929.00,0.0018
3928.00,0.0017
3927.00,0.0018
3926.00,0.0018
3925.00,0.0018
3924.00,0.0018
3923.00,0.0017
3922.00,0.0017
3921.00,0.0017
3920.00,0.0017
3919.00,0.0017
3918.00,0.0017
3917.00,0.0017
3916.00,0.0017
3915.00,0.0017
3914.00,0.0017
3913.00,0.0017
3912.00,0.0017
3911.00,0.0017
3910.00,0.0017
3909.00,0.0016
3908.00,0.0016
3907.00,0.0016
3906.00,0.0017
3905.00,0.0017
3904.00,0.0017
3903.00,0.0016
3902.00,0.0016
3901.00,0.0016
3900.00,0.0016
3899.00,0.0016
3898.00,0.0016
3897.00,0.0016
3896.00,0.0016
3895.00,0.0016
3894.00,0.0017
3893.00,0.0017
3892.00,0.0017
3891.00,0.0017
3890.00,0.0017
3889.00,0.0017
3888.00,0.0016
3887.00,0.0016
3886.00,0.0016
3885.00,0.0016
3884.00,0.0016
3883.00,0.0016
3882.00,0.0016
3881.00,0.0016
3880.00,0.0016
3879.00,0.0016
3878.00,0.0016
3877.00,0.0016
3876.00,0.0016
3875.00,0.0016
3874.00,0.0016
3873.00,0.0016
3872.00,0.0016
3871.00,0.0016
3870.00,0.0016
3869.00,0.0015
3868.00,0.0015
3867.00,0.0015
3866.00,0.0015
3865.00,0.0015
3864.00,0.0015
3863.00,0.0014
3862.00,0.0014
3861.00,0.0015
3860.00,0.0015
3859.00,0.0015
3858.00,0.0016
3857.00,0.0016
3856.00,0.0016
3855.00,0.0016
3854.00,0.0015
3853.00,0.0015
3852.00,0.0014
3851.00,0.0014
3850.00,0.0015
3849.00,0.0015
3848.00,0.0015
3847.00,0.0016
3846.00,0.0016
3845.00,0.0016
3844.00,0.0016
3843.00,0.0015
3842.00,0.0015
3841.00,0.0015
3840.00,0.0015
3839.00,0.0015
3838.00,0.0015
3837.00,0.0015
3836.00,0.0015
3835.00,0.0015
3834.00,0.0016
3833.00,0.0016
3832.00,0.0016
3831.00,0.0016
3830.00,0.0016
3829.00,0.0016
3828.00,0.0016
3827.00,0.0016
3826.00,0.0016
3825.00,0.0016
3824.00,0.0016
3823.00,0.0016
3822.00,0.0016
3821.00,0.0016
3820.00,0.0015
3819.00,0.0015
3818.00,0.0015
3817.00,0.0015
3816.00,0.0015
3815.00,0.0015
3814.00,0.0015
3813.00,0.0015
3812.00,0.0015
3811.00,0.0016
3810.00,0.0016
3809.00,0.0016
3808.00,0.0016
3807.00,0.0016
3806.00,0.0016
3805.00,0.0015
3804.00,0.0015
3803.00,0.0015
3802.00,0.0015
3801.00,0.0015
3800.00,0.0015
3799.00,0.0015
3798.00,0.0015
3797.00,0.0015
3796.00,0.0015
3795.00,0.0015
3794.00,0.0015
3793.00,0.0015
3792.00,0.0015
3791.00,0.0015
3790.00,0.0015
3789.00,0.0016
3788.00,0.0016
3787.00,0.0016
3786.00,0.0016
3785.00,0.0017
3784.00,0.0017
3783.00,0.0017
3782.00,0.0016
3781.00,0.0016
3780.00,0.0016
3779.00,0.0016
3778.00,0.0015
3777.00,0.0015
3776.00,0.0015
3775.00,0.0015
3774.00,0.0015
3773.00,0.0016
3772.00,0.0016
3771.00,0.0017
3770.00,0.0016
3769.00,0.0016
3768.00,0.0016
3767.00,0.0016
3766.00,0.0016
3765.00,0.0016
3764.00,0.0016
3763.00,0.0016
3762.00,0.0016
3761.00,0.0016
3760.00,0.0016
3759.00,0.0016
3758.00,0.0016
3757.00,0.0016
3756.00,0.0015
3755.00,0.0015
3754.00,0.0015
3753.00,0.0015
3752.00,0.0016
3751.00,0.0016
3750.00,0.0016
3749.00,0.0015
3748.00,0.0015
3747.00,0.0014
3746.00,0.0014
3745.00,0.0013
3744.00,0.0013
3743.00,0.0013
3742.00,0.0013
3741.00,0.0013
3740.00,0.0013
3739.00,0.0014
3738.00,0.0014
3737.00,0.0014
3736.00,0.0014
3735.00,0.0014
3734.00,0.0014
3733.00,0.0014
3732.00,0.0014
3731.00,0.0014
3730.00,0.0015
3729.00,0.0015
3728.00,0.0014
3727.00,0.0014
3726.00,0.0014
3725.00,0.0013
3724.00,0.0013
3723.00,0.0013
3722.00,0.0014
3721.00,0.0014
3720.00,0.0014
3719.00,0.0015
3718.00,0.0015
3717.00,0.0015
3716.00,0.0015
3715.00,0.0015
3714.00,0.0014
3713.00,0.0014
3712.00,0.0013
3711.00,0.0013
3710.00,0.0013
3709.00,0.0014
3708.00,0.0014
3707.00,0.0014
3706.00,0.0013
3705.00,0.0013
3704.00,0.0014
3703.00,0.0014
3702.00,0.0015
3701.00,0.0015
3700.00,0.0015
3699.00,0.0015
3698.00,0.0015
3697.00,0.0015
3696.00,0.0015
3695.00,0.0016
3694.00,0.0016
3693.00,0.0016
3692.00,0.0016
3691.00,0.0016
3690.00,0.0015
3689.00,0.0014
3688.00,0.0014
3687.00,0.0014
3686.00,0.0014
3685.00,0.0014
3684.00,0.0015
3683.00,0.0015
3682.00,0.0016
3681.00,0.0016
3680.00,0.0017
3679.00,0.0018
3678.00,0.0018
3677.00,0.0017
3676.00,0.0017
3675.00,0.0016
3674.00,0.0015
3673.00,0.0015
3672.00,0.0015
3671.00,0.0016
3670.00,0.0016
3669.00,0.0016
3668.00,0.0016
3667.00,0.0017
3666.00,0.0017
3665.00,0.0018
3664.00,0.0018
3663.00,0.0018
3662.00,0.0018
3661.00,0.0018
3660.00,0.0019
3659.00,0.0019
3658.00,0.0019
3657.00,0.0019
3656.00,0.0020
3655.00,0.0020
3654.00,0.0020
3653.00,0.0020
3652.00,0.0021
3651.00,0.0021
3650.00,0.0021
3649.00,0.0021
3648.00,0.0021
3647.00,0.0021
3646.00,0.0021
3645.00,0.0022
3644.00,0.0022
3643.00,0.0023
3642.00,0.0024
3641.00,0.0024
3640.00,0.0025
3639.00,0.0026
3638.00,0.0026
3637.00,0.0027
3636.00,0.0027
3635.00,0.0027
3634.00,0.0027
3633.00,0.0027
3632.00,0.0028
3631.00,0.0028
3630.00,0.0029
3629.00,0.0029
3628.00,0.0029
3627.00,0.0029
3626.00,0.0030
3625.00,0.0031
3624.00,0.0031
3623.00,0.0031
3622.00,0.0031
3621.00,0.0031
3620.00,0.0032
3619.00,0.0033
3618.00,0.0034
3617.00,0.0035
3616.00,0.0036
3615.00,0.0036
3614.00,0.0037
3613.00,0.0038
3612.00,0.0038
3611.00,0.0039
3610.00,0.0040
3609.00,0.0040
3608.00,0.0041
3607.00,0.0041
3606.00,0.0040
3605.00,0.0041
3604.00,0.0041
3603.00,0.0042
3602.00,0.0043
3601.00,0.0043
3600.00,0.0043
3599.00,0.0043
3598.00,0.0043
3597.00,0.0044
3596.00,0.0046
3595.00,0.0047
3594.00,0.0047
3593.00,0.0048
3592.00,0.0048
3591.00,0.0048
3590.00,0.0048
3589.00,0.0049
3588.00,0.0050
3587.00,0.0051
3586.00,0.0051
3585.00,0.0052
3584.00,0.0052
3583.00,0.0053
3582.00,0.0053
3581.00,0.0053
3580.00,0.0054
3579.00,0.0055
3578.00,0.0056
3577.00,0.0057
3576.00,0.0057
3575.00,0.0058
3574.00,0.0059
3573.00,0.0060
3572.00,0.0060
3571.00,0.0061
3570.00,0.0062
3569.00,0.0063
3568.00,0.0064
3567.00,0.0065
3566.00,0.0066
3565.00,0.0066
3564.00,0.0066
3563.00,0.0067
3562.00,0.0067
3561.00,0.0068
3560.00,0.0069
3559.00,0.0070
3558.00,0.0070
3557.00,0.0071
3556.00,0.0071
3555.00,0.0071
3554.00,0.0072
3553.00,0.0073
3552.00,0.0074
3551.00,0.0075
3550.00,0.0076
3549.00,0.0077
3548.00,0.0077
3547.00,0.0078
3546.00,0.0079
3545.00,0.0080
3544.00,0.0080
3543.00,0.0081
3542.00,0.0081
3541.00,0.0082
3540.00,0.0083
3539.00,0.0084
3538.00,0.0085
3537.00,0.0086
3536.00,0.0087
3535.00,0.0088
3534.00,0.0088
3533.00,0.0089
3532.00,0.0089
3531.00,0.0090
3530.00,0.0091
3529.00,0.0092
3528.00,0.0093
3527.00,0.0094
3526.00,0.0096
3525.00,0.0097
3524.00,0.0098
3523.00,0.0099
3522.00,0.0099
3521.00,0.0100
3520.00,0.0101
3519.00,0.0102
3518.00,0.0103
3517.00,0.0104
3516.00,0.0105
3515.00,0.0106
3514.00,0.0107
3513.00,0.0107
3512.00,0.0108
3511.00,0.0109
3510.00,0.0109
3509.00,0.0110
3508.00,0.0111
3507.00,0.0112
3506.00,0.0113
3505.00,0.0114
3504.00,0.0116
3503.00,0.0117
3502.00,0.0118
3501.00,0.0119
3500.00,0.0120
3499.00,0.0121
3498.00,0.0122
3497.00,0.0123
3496.00,0.0124
3495.00,0.0125
3494.00,0.0126
3493.00,0.0127
3492.00,0.0128
3491.00,0.0129
3490.00,0.0130
3489.00,0.0131
3488.00,0.0132
3487.00,0.0133
3486.00,0.0134
3485.00,0.0135
3484.00,0.0135
3483.00,0.0136
3482.00,0.0137
3481.00,0.0138
3480.00,0.0138
3479.00,0.0139
3478.00,0.0139
3477.00,0.0140
3476.00,0.0141
3475.00,0.0142
3474.00,0.0143
3473.00,0.0144
3472.00,0.0145
3471.00,0.0145
3470.00,0.0146
3469.00,0.0147
3468.00,0.0147
3467.00,0.0148
3466.00,0.0148
3465.00,0.0148
3464.00,0.0149
3463.00,0.0149
3462.00,0.0150
3461.00,0.0150
3460.00,0.0151
3459.00,0.0152
3458.00,0.0152
3457.00,0.0152
3456.00,0.0153
3455.00,0.0153
3454.00,0.0154
3453.00,0.0154
3452.00,0.0155
3451.00,0.0155
3450.00,0.0155
3449.00,0.0155
3448.00,0.0156
3447.00,0.0157
3446.00,0.0157
3445.00,0.0157
3444.00,0.0157
3443.00,0.0157
3442.00,0.0157
3441.00,0.0157
3440.00,0.0157
3439.00,0.0158
3438.00,0.0158
3437.00,0.0158
3436.00,0.0158
3435.00,0.0159
3434.00,0.0159
3433.00,0.0159
3432.00,0.0159
3431.00,0.0159
3430.00,0.0159
3429.00,0.0159
3428.00,0.0158
3427.00,0.0158
3426.00,0.0159
3425.00,0.0159
3424.00,0.0159
3423.00,0.0160
3422.00,0.0160
3421.00,0.0159
3420.00,0.0159
3419.00,0.0159
3418.00,0.0159
3417.00,0.0159
3416.00,0.0159
3415.00,0.0160
3414.00,0.0160
3413.00,0.0160
3412.00,0.0159
3411.00,0.0159
3410.00,0.0159
3409.00,0.0159
3408.00,0.0159
3407.00,0.0159
3406.00,0.0160
3405.00,0.0160
3404.00,0.0161
3403.00,0.0162
3402.00,0.0162
3401.00,0.0163
3400.00,0.0162
3399.00,0.0162
3398.00,0.0162
3397.00,0.0162
3396.00,0.0162
3395.00,0.0162
3394.00,0.0162
3393.00,0.0162
3392.00,0.0162
3391.00,0.0162
3390.00,0.0161
3389.00,0.0160
3388.00,0.0159
3387.00,0.0158
3386.00,0.0158
3385.00,0.0158
3384.00,0.0158
3383.00,0.0158
3382.00,0.0157
3381.00,0.0157
3380.00,0.0157
3379.00,0.0156
3378.00,0.0156
3377.00,0.0156
3376.00,0.0155
3375.00,0.0155
3374.00,0.0155
3373.00,0.0154
3372.00,0.0154
3371.00,0.0154
3370.00,0.0154
3369.00,0.0153
3368.00,0.0153
3367.00,0.0153
3366.00,0.0152
3365.00,0.0152
3364.00,0.0152
3363.00,0.0151
3362.00,0.0151
3361.00,0.0151
3360.00,0.0150
3359.00,0.0150
3358.00,0.0150
3357.00,0.0149
3356.00,0.0149
3355.00,0.0149
3354.00,0.0148
3353.00,0.0148
3352.00,0.0148
3351.00,0.0147
3350.00,0.0147
3349.00,0.0147
3348.00,0.0146
3347.00,0.0145
3346.00,0.0145
3345.00,0.0145
3344.00,0.0145
3343.00,0.0144
3342.00,0.0144
3341.00,0.0144
3340.00,0.0143
3339.00,0.0143
3338.00,0.0143
3337.00,0.0142
3336.00,0.0141
3335.00,0.0141
3334.00,0.0141
3333.00,0.0140
3332.00,0.0140
3331.00,0.0140
3330.00,0.0139
3329.00,0.0139
3328.00,0.0139
3327.00,0.0139
3326.00,0.0138
3325.00,0.0138
3324.00,0.0138
3323.00,0.0138
3322.00,0.0137
3321.00,0.0137
3320.00,0.0136
3319.00,0.0136
3318.00,0.0135
3317.00,0.0135
3316.00,0.0134
3315.00,0.0134
3314.00,0.0134
3313.00,0.0133
3312.00,0.0133
3311.00,0.0132
3310.00,0.0131
3309.00,0.0131
3308.00,0.0131
3307.00,0.0131
3306.00,0.0131
3305.00,0.0131
3304.00,0.0131
3303.00,0.0130
3302.00,0.0129
3301.00,0.0129
3300.00,0.0128
3299.00,0.0128
3298.00,0.0128
3297.00,0.0128
3296.00,0.0127
3295.00,0.0127
3294.00,0.0126
3293.00,0.0126
3292.00,0.0126
3291.00,0.0126
3290.00,0.0126
3289.00,0.0126
3288.00,0.0126
3287.00,0.0125
3286.00,0.0125
3285.00,0.0124
3284.00,0.0124
3283.00,0.0124
3282.00,0.0123
3281.00,0.0123
3280.00,0.0122
3279.00,0.0122
3278.00,0.0121
3277.00,0.0120
3276.00,0.0120
3275.00,0.0120
3274.00,0.0120
3273.00,0.0119
3272.00,0.0119
3271.00,0.0118
3270.00,0.0117
3269.00,0.0117
3268.00,0.0117
3267.00,0.0117
3266.00,0.0117
3265.00,0.0116
3264.00,0.0116
3263.00,0.0116
3262.00,0.0115
3261.00,0.0115
3260.00,0.0114
3259.00,0.0114
3258.00,0.0113
3257.00,0.0113
3256.00,0.0113
3255.00,0.0113
3254.00,0.0112
3253.00,0.0112
3252.00,0.0112
3251.00,0.0111
3250.00,0.0111
3249.00,0.0111
3248.00,0.0110
3247.00,0.0110
3246.00,0.0109
3245.00,0.0109
3244.00,0.0109
3243.00,0.0109
3242.00,0.0109
3241.00,0.0109
3240.00,0.0108
3239.00,0.0108
3238.00,0.0108
3237.00,0.0107
3236.00,0.0108
3235.00,0.0108
3234.00,0.0107
3233.00,0.0107
3232.00,0.0107
3231.00,0.0107
3230.00,0.0107
3229.00,0.0106
3228.00,0.0106
3227.00,0.0106
3226.00,0.0105
3225.00,0.0105
3224.00,0.0105
3223.00,0.0105
3222.00,0.0105
3221.00,0.0104
3220.00,0.0104
3219.00,0.0105
3218.00,0.0105
3217.00,0.0105
3216.00,0.0105
3215.00,0.0104
3214.00,0.0104
3213.00,0.0104
3212.00,0.0104
3211.00,0.0103
3210.00,0.0103
3209.00,0.0103
3208.00,0.0103
3207.00,0.0103
3206.00,0.0103
3205.00,0.0103
3204.00,0.0103
3203.00,0.0103
3202.00,0.0102
3201.00,0.0102
3200.00,0.0101
3199.00,0.0101
3198.00,0.0101
3197.00,0.0101
3196.00,0.0101
3195.00,0.0101
3194.00,0.0100
3193.00,0.0100
3192.00,0.0099
3191.00,0.0099
3190.00,0.0099
3189.00,0.0099
3188.00,0.0099
3187.00,0.0098
3186.00,0.0098
3185.00,0.0097
3184.00,0.0096
3183.00,0.0096
3182.00,0.0095
3181.00,0.0094
3180.00,0.0094
3179.00,0.0093
3178.00,0.0092
3177.00,0.0092
3176.00,0.0091
3175.00,0.0091
3174.00,0.0090
3173.00,0.0089
3172.00,0.0089
3171.00,0.0088
3170.00,0.0087
3169.00,0.0087
3168.00,0.0086
3167.00,0.0086
3166.00,0.0086
3165.00,0.0085
3164.00,0.0085
3163.00,0.0085
3162.00,0.0084
3161.00,0.0084
3160.00,0.0084
3159.00,0.0083
3158.00,0.0083
3157.00,0.0082
3156.00,0.0082
3155.00,0.0081
3154.00,0.0081
3153.00,0.0081
3152.00,0.0080
3151.00,0.0080
3150.00,0.0079
3149.00,0.0079
3148.00,0.0078
3147.00,0.0078
3146.00,0.0078
3145.00,0.0078
3144.00,0.0078
3143.00,0.0078
3142.00,0.0077
3141.00,0.0077
3140.00,0.0076
3139.00,0.0076
3138.00,0.0076
3137.00,0.0075
3136.00,0.0075
3135.00,0.0074
3134.00,0.0074
3133.00,0.0073
3132.00,0.0073
3131.00,0.0072
3130.00,0.0071
3129.00,0.0070
3128.00,0.0070
3127.00,0.0069
3126.00,0.0069
3125.00,0.0069
3124.00,0.0068
3123.00,0.0068
3122.00,0.0067
3121.00,0.0066
3120.00,0.0066
3119.00,0.0066
3118.00,0.0066
3117.00,0.0066
3116.00,0.0066
3115.00,0.0065
3114.00,0.0065
3113.00,0.0065
3112.00,0.0064
3111.00,0.0064
3110.00,0.0063
3109.00,0.0063
3108.00,0.0062
3107.00,0.0062
3106.00,0.0062
3105.00,0.0062
3104.00,0.0061
3103.00,0.0061
3102.00,0.0061
3101.00,0.0061
3100.00,0.0061
3099.00,0.0060
3098.00,0.0060
3097.00,0.0060
3096.00,0.0060
3095.00,0.0060
3094.00,0.0060
3093.00,0.0060
3092.00,0.0059
3091.00,0.0059
3090.00,0.0059
3089.00,0.0059
3088.00,0.0058
3087.00,0.0058
3086.00,0.0057
3085.00,0.0057
3084.00,0.0056
3083.00,0.0056
3082.00,0.0056
3081.00,0.0056
3080.00,0.0057
3079.00,0.0057
3078.00,0.0057
3077.00,0.0057
3076.00,0.0057
3075.00,0.0057
3074.00,0.0057
3073.00,0.0058
3072.00,0.0058
3071.00,0.0058
3070.00,0.0058
3069.00,0.0057
3068.00,0.0057
3067.00,0.0057
3066.00,0.0057
3065.00,0.0057
3064.00,0.0057
3063.00,0.0057
3062.00,0.0057
3061.00,0.0057
3060.00,0.0057
3059.00,0.0057
3058.00,0.0057
3057.00,0.0058
3056.00,0.0058
3055.00,0.0059
3054.00,0.0059
3053.00,0.0059
3052.00,0.0059
3051.00,0.0059
3050.00,0.0059
3049.00,0.0060
3048.00,0.0060
3047.00,0.0060
3046.00,0.0060
3045.00,0.0060
3044.00,0.0060
3043.00,0.0060
3042.00,0.0060
3041.00,0.0061
3040.00,0.0061
3039.00,0.0062
3038.00,0.0062
3037.00,0.0062
3036.00,0.0062
3035.00,0.0062
3034.00,0.0063
3033.00,0.0063
3032.00,0.0063
3031.00,0.0064
3030.00,0.0064
3029.00,0.0064
3028.00,0.0065
3027.00,0.0066
3026.00,0.0066
3025.00,0.0067
3024.00,0.0068
3023.00,0.0069
3022.00,0.0069
3021.00,0.0070
3020.00,0.0071
3019.00,0.0072
3018.00,0.0073
3017.00,0.0074
3016.00,0.0075
3015.00,0.0076
3014.00,0.0077
3013.00,0.0078
3012.00,0.0080
3011.00,0.0082
3010.00,0.0084
3009.00,0.0085
3008.00,0.0087
3007.00,0.0088
3006.00,0.0090
3005.00,0.0093
3004.00,0.0096
3003.00,0.0098
3002.00,0.0101
3001.00,0.0104
3000.00,0.0107
2999.00,0.0110
2998.00,0.0114
2997.00,0.0118
2996.00,0.0123
2995.00,0.0127
2994.00,0.0132
2993.00,0.0137
2992.00,0.0143
2991.00,0.0150
2990.00,0.0156
2989.00,0.0164
2988.00,0.0172
2987.00,0.0181
2986.00,0.0190
2985.00,0.0199
2984.00,0.0210
2983.00,0.0222
2982.00,0.0236
2981.00,0.0252
2980.00,0.0270
2979.00,0.0290
2978.00,0.0313
2977.00,0.0339
2976.00,0.0368
2975.00,0.0402
2974.00,0.0440
2973.00,0.0484
2972.00,0.0532
2971.00,0.0587
2970.00,0.0649
2969.00,0.0717
2968.00,0.0791
2967.00,0.0870
2966.00,0.0952
2965.00,0.1036
2964.00,0.1117
2963.00,0.1193
2962.00,0.1257
2961.00,0.1309
2960.00,0.1346
2959.00,0.1374
2958.00,0.1395
2957.00,0.1418
2956.00,0.1447
2955.00,0.1486
2954.00,0.1533
2953.00,0.1584
2952.00,0.1630
2951.00,0.1661
2950.00,0.1668
2949.00,0.1644
2948.00,0.1589
2947.00,0.1509
2946.00,0.1412
2945.00,0.1309
2944.00,0.1212
2943.00,0.1128
2942.00,0.1063
2941.00,0.1017
2940.00,0.0991
2939.00,0.0983
2938.00,0.0991
2937.00,0.1014
2936.00,0.1050
2935.00,0.1098
2934.00,0.1157
2933.00,0.1225
2932.00,0.1302
2931.00,0.1386
2930.00,0.1474
2929.00,0.1566
2928.00,0.1657
2927.00,0.1746
2926.00,0.1833
2925.00,0.1917
2924.00,0.1999
2923.00,0.2080
2922.00,0.2159
2921.00,0.2234
2920.00,0.2298
2919.00,0.2343
2918.00,0.2363
2917.00,0.2352
2916.00,0.2310
2915.00,0.2244
2914.00,0.2162
2913.00,0.2075
2912.00,0.1992
2911.00,0.1916
2910.00,0.1851
2909.00,0.1793
2908.00,0.1742
2907.00,0.1693
2906.00,0.1644
2905.00,0.1594
2904.00,0.1542
2903.00,0.1488
2902.00,0.1433
2901.00,0.1379
2900.00,0.1326
2899.00,0.1275
2898.00,0.1228
2897.00,0.1183
2896.00,0.1143
2895.00,0.1108
2894.00,0.1077
2893.00,0.1052
2892.00,0.1032
2891.00,0.1018
2890.00,0.1008
2889.00,0.1001
2888.00,0.0997
2887.00,0.0996
2886.00,0.0997
2885.00,0.1002
2884.00,0.1009
2883.00,0.1020
2882.00,0.1034
2881.00,0.1050
2880.00,0.1065
2879.00,0.1076
2878.00,0.1082
2877.00,0.1081
2876.00,0.1075
2875.00,0.1068
2874.00,0.1062
2873.00,0.1061
2872.00,0.1066
2871.00,0.1076
2870.00,0.1090
2869.00,0.1103
2868.00,0.1110
2867.00,0.1104
2866.00,0.1082
2865.00,0.1041
2864.00,0.0986
2863.00,0.0923
2862.00,0.0860
2861.00,0.0804
2860.00,0.0760
2859.00,0.0728
2858.00,0.0709
2857.00,0.0701
2856.00,0.0702
2855.00,0.0711
2854.00,0.0726
2853.00,0.0745
2852.00,0.0766
2851.00,0.0785
2850.00,0.0802
2849.00,0.0815
2848.00,0.0827
2847.00,0.0841
2846.00,0.0861
2845.00,0.0890
2844.00,0.0928
2843.00,0.0973
2842.00,0.1021
2841.00,0.1065
2840.00,0.1100
2839.00,0.1118
2838.00,0.1114
2837.00,0.1085
2836.00,0.1032
2835.00,0.0958
2834.00,0.0873
2833.00,0.0783
2832.00,0.0698
2831.00,0.0621
2830.00,0.0555
2829.00,0.0500
2828.00,0.0455
2827.00,0.0419
2826.00,0.0389
2825.00,0.0363
2824.00,0.0342
2823.00,0.0324
2822.00,0.0308
2821.00,0.0294
2820.00,0.0282
2819.00,0.0271
2818.00,0.0262
2817.00,0.0253
2816.00,0.0245
2815.00,0.0237
2814.00,0.0230
2813.00,0.0224
2812.00,0.0218
2811.00,0.0212
2810.00,0.0206
2809.00,0.0199
2808.00,0.0192
2807.00,0.0185
2806.00,0.0177
2805.00,0.0170
2804.00,0.0163
2803.00,0.0157
2802.00,0.0151
2801.00,0.0145
2800.00,0.0141
2799.00,0.0137
2798.00,0.0133
2797.00,0.0131
2796.00,0.0128
2795.00,0.0126
2794.00,0.0123
2793.00,0.0120
2792.00,0.0117
2791.00,0.0113
2790.00,0.0110
2789.00,0.0107
2788.00,0.0103
2787.00,0.0101
2786.00,0.0098
2785.00,0.0095
2784.00,0.0093
2783.00,0.0090
2782.00,0.0088
2781.00,0.0086
2780.00,0.0085
2779.00,0.0084
2778.00,0.0082
2777.00,0.0081
2776.00,0.0080
2775.00,0.0079
2774.00,0.0078
2773.00,0.0077
2772.00,0.0076
2771.00,0.0076
2770.00,0.0076
2769.00,0.0075
2768.00,0.0074
2767.00,0.0074
2766.00,0.0073
2765.00,0.0073
2764.00,0.0072
2763.00,0.0072
2762.00,0.0072
2761.00,0.0072
2760.00,0.0071
2759.00,0.0071
2758.00,0.0071
2757.00,0.0070
2756.00,0.0070
2755.00,0.0070
2754.00,0.0070
2753.00,0.0069
2752.00,0.0069
2751.00,0.0068
2750.00,0.0068
2749.00,0.0068
2748.00,0.0068
2747.00,0.0068
2746.00,0.0069
2745.00,0.0069
2744.00,0.0070
2743.00,0.0070
2742.00,0.0071
2741.00,0.0072
2740.00,0.0073
2739.00,0.0073
2738.00,0.0074
2737.00,0.0075
2736.00,0.0076
2735.00,0.0077
2734.00,0.0078
2733.00,0.0079
2732.00,0.0080
2731.00,0.0082
2730.00,0.0083
2729.00,0.0085
2728.00,0.0087
2727.00,0.0090
2726.00,0.0092
2725.00,0.0093
2724.00,0.0095
2723.00,0.0095
2722.00,0.0095
2721.00,0.0093
2720.00,0.0091
2719.00,0.0089
2718.00,0.0086
2717.00,0.0083
2716.00,0.0080
2715.00,0.0078
2714.00,0.0076
2713.00,0.0074
2712.00,0.0072
2711.00,0.0071
2710.00,0.0069
2709.00,0.0068
2708.00,0.0067
2707.00,0.0066
2706.00,0.0065
2705.00,0.0064
2704.00,0.0063
2703.00,0.0062
2702.00,0.0061
2701.00,0.0061
2700.00,0.0060
2699.00,0.0059
2698.00,0.0059
2697.00,0.0059
2696.00,0.0059
2695.00,0.0059
2694.00,0.0059
2693.00,0.0059
2692.00,0.0059
2691.00,0.0059
2690.00,0.0059
2689.00,0.0059
2688.00,0.0059
2687.00,0.0059
2686.00,0.0059
2685.00,0.0058
2684.00,0.0058
2683.00,0.0058
2682.00,0.0058
2681.00,0.0058
2680.00,0.0059
2679.00,0.0059
2678.00,0.0059
2677.00,0.0059
2676.00,0.0059
2675.00,0.0059
2674.00,0.0059
2673.00,0.0058
2672.00,0.0058
2671.00,0.0058
2670.00,0.0058
2669.00,0.0058
2668.00,0.0058
2667.00,0.0059
2666.00,0.0059
2665.00,0.0059
2664.00,0.0059
2663.00,0.0060
2662.00,0.0060
2661.00,0.0060
2660.00,0.0061
2659.00,0.0061
2658.00,0.0061
2657.00,0.0061
2656.00,0.0061
2655.00,0.0060
2654.00,0.0060
2653.00,0.0060
2652.00,0.0059
2651.00,0.0058
2650.00,0.0057
2649.00,0.0057
2648.00,0.0056
2647.00,0.0056
2646.00,0.0056
2645.00,0.0055
2644.00,0.0055
2643.00,0.0055
2642.00,0.0054
2641.00,0.0054
2640.00,0.0053
2639.00,0.0053
2638.00,0.0052
2637.00,0.0052
2636.00,0.0052
2635.00,0.0051
2634.00,0.0051
2633.00,0.0051
2632.00,0.0052
2631.00,0.0052
2630.00,0.0052
2629.00,0.0052
2628.00,0.0052
2627.00,0.0052
2626.00,0.0052
2625.00,0.0052
2624.00,0.0052
2623.00,0.0052
2622.00,0.0052
2621.00,0.0052
2620.00,0.0052
2619.00,0.0053
2618.00,0.0052
2617.00,0.0052
2616.00,0.0052
2615.00,0.0052
2614.00,0.0052
2613.00,0.0052
2612.00,0.0052
2611.00,0.0052
2610.00,0.0051
2609.00,0.0049
2608.00,0.0048
2607.00,0.0047
2606.00,0.0046
2605.00,0.0046
2604.00,0.0045
2603.00,0.0045
2602.00,0.0045
2601.00,0.0044
2600.00,0.0044
2599.00,0.0044
2598.00,0.0044
2597.00,0.0044
2596.00,0.0044
2595.00,0.0044
2594.00,0.0045
2593.00,0.0045
2592.00,0.0045
2591.00,0.0045
2590.00,0.0045
2589.00,0.0045
2588.00,0.0046
2587.00,0.0047
2586.00,0.0048
2585.00,0.0049
2584.00,0.0049
2583.00,0.0050
2582.00,0.0049
2581.00,0.0049
2580.00,0.0048
2579.00,0.0047
2578.00,0.0045
2577.00,0.0044
2576.00,0.0043
2575.00,0.0043
2574.00,0.0042
2573.00,0.0041
2572.00,0.0040
2571.00,0.0040
2570.00,0.0039
2569.00,0.0038
2568.00,0.0038
2567.00,0.0037
2566.00,0.0036
2565.00,0.0036
2564.00,0.0036
2563.00,0.0036
2562.00,0.0037
2561.00,0.0037
2560.00,0.0036
2559.00,0.0036
2558.00,0.0036
2557.00,0.0036
2556.00,0.0036
2555.00,0.0035
2554.00,0.0034
2553.00,0.0033
2552.00,0.0032
2551.00,0.0032
2550.00,0.0032
2549.00,0.0032
2548.00,0.0032
2547.00,0.0032
2546.00,0.0032
2545.00,0.0031
2544.00,0.0031
2543.00,0.0031
2542.00,0.0031
2541.00,0.0031
2540.00,0.0031
2539.00,0.0030
2538.00,0.0029
2537.00,0.0028
2536.00,0.0028
2535.00,0.0028
2534.00,0.0029
2533.00,0.0030
2532.00,0.0029
2531.00,0.0028
2530.00,0.0027
2529.00,0.0026
2528.00,0.0027
2527.00,0.0027
2526.00,0.0027
2525.00,0.0027
2524.00,0.0027
2523.00,0.0026
2522.00,0.0026
2521.00,0.0026
2520.00,0.0027
2519.00,0.0027
2518.00,0.0026
2517.00,0.0026
2516.00,0.0025
2515.00,0.0025
2514.00,0.0025
2513.00,0.0024
2512.00,0.0023
2511.00,0.0023
2510.00,0.0023
2509.00,0.0023
2508.00,0.0024
2507.00,0.0024
2506.00,0.0023
2505.00,0.0023
2504.00,0.0023
2503.00,0.0023
2502.00,0.0023
2501.00,0.0023
2500.00,0.0024
2499.00,0.0024
2498.00,0.0024
2497.00,0.0025
2496.00,0.0025
2495.00,0.0025
2494.00,0.0024
2493.00,0.0023
2492.00,0.0023
2491.00,0.0023
2490.00,0.0023
2489.00,0.0023
2488.00,0.0023
2487.00,0.0023
2486.00,0.0022
2485.00,0.0023
2484.00,0.0023
2483.00,0.0022
2482.00,0.0022
2481.00,0.0021
2480.00,0.0020
2479.00,0.0020
2478.00,0.0020
2477.00,0.0021
2476.00,0.0021
2475.00,0.0021
2474.00,0.0021
2473.00,0.0021
2472.00,0.0021
2471.00,0.0022
2470.00,0.0022
2469.00,0.0022
2468.00,0.0021
2467.00,0.0022
2466.00,0.0022
2465.00,0.0022
2464.00,0.0022
2463.00,0.0021
2462.00,0.0021
2461.00,0.0021
2460.00,0.0021
2459.00,0.0021
2458.00,0.0021
2457.00,0.0021
2456.00,0.0022
2455.00,0.0022
2454.00,0.0022
2453.00,0.0022
2452.00,0.0022
2451.00,0.0022
2450.00,0.0022
2449.00,0.0022
2448.00,0.0021
2447.00,0.0021
2446.00,0.0021
2445.00,0.0021
2444.00,0.0021
2443.00,0.0022
2442.00,0.0023
2441.00,0.0023
2440.00,0.0023
2439.00,0.0023
2438.00,0.0022
2437.00,0.0022
2436.00,0.0022
2435.00,0.0023
2434.00,0.0023
2433.00,0.0023
2432.00,0.0023
2431.00,0.0023
2430.00,0.0023
2429.00,0.0023
2428.00,0.0023
2427.00,0.0023
2426.00,0.0023
2425.00,0.0023
2424.00,0.0022
2423.00,0.0022
2422.00,0.0022
2421.00,0.0022
2420.00,0.0021
2419.00,0.0021
2418.00,0.0021
2417.00,0.0022
2416.00,0.0022
2415.00,0.0022
2414.00,0.0021
2413.00,0.0020
2412.00,0.0020
2411.00,0.0020
2410.00,0.0020
2409.00,0.0021
2408.00,0.0021
2407.00,0.0020
2406.00,0.0020
2405.00,0.0020
2404.00,0.0019
2403.00,0.0019
2402.00,0.0019
2401.00,0.0019
2400.00,0.0019
2399.00,0.0020
2398.00,0.0020
2397.00,0.0020
2396.00,0.0020
2395.00,0.0019
2394.00,0.0019
2393.00,0.0018
2392.00,0.0018
2391.00,0.0018
2390.00,0.0018
2389.00,0.0018
2388.00,0.0018
2387.00,0.0018
2386.00,0.0019
2385.00,0.0018
2384.00,0.0018
2383.00,0.0017
2382.00,0.0016
2381.00,0.0015
2380.00,0.0014
2379.00,0.0014
2378.00,0.0013
2377.00,0.0013
2376.00,0.0013
2375.00,0.0014
2374.00,0.0014
2373.00,0.0014
2372.00,0.0014
2371.00,0.0013
2370.00,0.0013
2369.00,0.0013
2368.00,0.0013
2367.00,0.0012
2366.00,0.0012
2365.00,0.0012
2364.00,0.0012
2363.00,0.0013
2362.00,0.0013
2361.00,0.0013
2360.00,0.0014
2359.00,0.0014
2358.00,0.0014
2357.00,0.0014
2356.00,0.0013
2355.00,0.0013
2354.00,0.0013
2353.00,0.0013
2352.00,0.0013
2351.00,0.0013
2350.00,0.0013
2349.00,0.0013
2348.00,0.0014
2347.00,0.0014
2346.00,0.0014
2345.00,0.0014
2344.00,0.0014
2343.00,0.0015
2342.00,0.0016
2341.00,0.0016
2340.00,0.0016
2339.00,0.0016
2338.00,0.0016
2337.00,0.0016
2336.00,0.0015
2335.00,0.0015
2334.00,0.0015
2333.00,0.0015
2332.00,0.0015
2331.00,0.0015
2330.00,0.0015
2329.00,0.0016
2328.00,0.0019
2327.00,0.0022
2326.00,0.0026
2325.00,0.0030
2324.00,0.0031
2323.00,0.0030
2322.00,0.0027
2321.00,0.0025
2320.00,0.0023
2319.00,0.0022
2318.00,0.0021
2317.00,0.0020
2316.00,0.0019
2315.00,0.0019
2314.00,0.0019
2313.00,0.0019
2312.00,0.0020
2311.00,0.0020
2310.00,0.0020
2309.00,0.0020
2308.00,0.0020
2307.00,0.0020
2306.00,0.0020
2305.00,0.0020
2304.00,0.0021
2303.00,0.0021
2302.00,0.0022
2301.00,0.0022
2300.00,0.0022
2299.00,0.0022
2298.00,0.0022
2297.00,0.0022
2296.00,0.0022
2295.00,0.0021
2294.00,0.0022
2293.00,0.0023
2292.00,0.0024
2291.00,0.0025
2290.00,0.0026
2289.00,0.0027
2288.00,0.0028
2287.00,0.0029
2286.00,0.0029
2285.00,0.0029
2284.00,0.0028
2283.00,0.0026
2282.00,0.0025
2281.00,0.0025
2280.00,0.0025
2279.00,0.0024
2278.00,0.0023
2277.00,0.0023
2276.00,0.0022
2275.00,0.0021
2274.00,0.0020
2273.00,0.0020
2272.00,0.0020
2271.00,0.0019
2270.00,0.0019
2269.00,0.0019
2268.00,0.0020
2267.00,0.0020
2266.00,0.0019
2265.00,0.0019
2264.00,0.0020
2263.00,0.0020
2262.00,0.0020
2261.00,0.0020
2260.00,0.0020
2259.00,0.0019
2258.00,0.0018
2257.00,0.0017
2256.00,0.0017
2255.00,0.0017
2254.00,0.0017
2253.00,0.0018
2252.00,0.0018
2251.00,0.0018
2250.00,0.0018
2249.00,0.0017
2248.00,0.0017
2247.00,0.0016
2246.00,0.0016
2245.00,0.0017
2244.00,0.0018
2243.00,0.0018
2242.00,0.0017
2241.00,0.0017
2240.00,0.0018
2239.00,0.0019
2238.00,0.0018
2237.00,0.0017
2236.00,0.0015
2235.00,0.0014
2234.00,0.0013
2233.00,0.0014
2232.00,0.0016
2231.00,0.0016
2230.00,0.0014
2229.00,0.0012
2228.00,0.0011
2227.00,0.0012
2226.00,0.0013
2225.00,0.0015
2224.00,0.0016
2223.00,0.0016
2222.00,0.0015
2221.00,0.0015
2220.00,0.0016
2219.00,0.0017
2218.00,0.0018
2217.00,0.0019
2216.00,0.0018
2215.00,0.0016
2214.00,0.0014
2213.00,0.0013
2212.00,0.0013
2211.00,0.0013
2210.00,0.0014
2209.00,0.0014
2208.00,0.0015
2207.00,0.0015
2206.00,0.0014
2205.00,0.0013
2204.00,0.0012
2203.00,0.0012
2202.00,0.0013
2201.00,0.0013
2200.00,0.0014
2199.00,0.0015
2198.00,0.0014
2197.00,0.0012
2196.00,0.0012
2195.00,0.0013
2194.00,0.0016
2193.00,0.0017
2192.00,0.0016
2191.00,0.0015
2190.00,0.0014
2189.00,0.0014
2188.00,0.0014
2187.00,0.0014
2186.00,0.0014
2185.00,0.0014
2184.00,0.0014
2183.00,0.0013
2182.00,0.0011
2181.00,0.0010
2180.00,0.0009
2179.00,0.0009
2178.00,0.0008
2177.00,0.0008
2176.00,0.0006
2175.00,0.0004
2174.00,0.0003
2173.00,0.0003
2172.00,0.0005
2171.00,0.0008
2170.00,0.0011
2169.00,0.0015
2168.00,0.0017
2167.00,0.0015
2166.00,0.0011
2165.00,0.0009
2164.00,0.0010
2163.00,0.0014
2162.00,0.0017
2161.00,0.0015
2160.00,0.0004
2159.00,-0.0010
2158.00,-0.0022
2157.00,-0.0026
2156.00,-0.0025
2155.00,-0.0021
2154.00,-0.0017
2153.00,-0.0013
2152.00,-0.0009
2151.00,-0.0007
2150.00,-0.0006
2149.00,-0.0007
2148.00,-0.0008
2147.00,-0.0009
2146.00,-0.0008
2145.00,-0.0008
2144.00,-0.0007
2143.00,-0.0006
2142.00,-0.0006
2141.00,-0.0004
2140.00,-0.0002
2139.00,-0.0002
2138.00,-0.0002
2137.00,-0.0004
2136.00,-0.0006
2135.00,-0.0008
2134.00,-0.0009
2133.00,-0.0009
2132.00,-0.0007
2131.00,-0.0005
2130.00,-0.0004
2129.00,-0.0004
2128.00,-0.0003
2127.00,-0.0001
2126.00,0.0002
2125.00,0.0005
2124.00,0.0007
2123.00,0.0008
2122.00,0.0008
2121.00,0.0008
2120.00,0.0008
2119.00,0.0008
2118.00,0.0008
2117.00,0.0010
2116.00,0.0011
2115.00,0.0012
2114.00,0.0013
2113.00,0.0013
2112.00,0.0013
2111.00,0.0014
2110.00,0.0014
2109.00,0.0013
2108.00,0.0012
2107.00,0.0011
2106.00,0.0010
2105.00,0.0009
2104.00,0.0010
2103.00,0.0010
2102.00,0.0010
2101.00,0.0010
2100.00,0.0011
2099.00,0.0012
2098.00,0.0012
2097.00,0.0011
2096.00,0.0009
2095.00,0.0006
2094.00,0.0005
2093.00,0.0004
2092.00,0.0005
2091.00,0.0005
2090.00,0.0006
2089.00,0.0007
2088.00,0.0007
2087.00,0.0007
2086.00,0.0007
2085.00,0.0008
2084.00,0.0010
2083.00,0.0012
2082.00,0.0013
2081.00,0.0014
2080.00,0.0014
2079.00,0.0014
2078.00,0.0014
2077.00,0.0015
2076.00,0.0016
2075.00,0.0016
2074.00,0.0015
2073.00,0.0013
2072.00,0.0011
2071.00,0.0010
2070.00,0.0009
2069.00,0.0008
2068.00,0.0008
2067.00,0.0010
2066.00,0.0012
2065.00,0.0013
2064.00,0.0012
2063.00,0.0010
2062.00,0.0007
2061.00,0.0006
2060.00,0.0005
2059.00,0.0005
2058.00,0.0006
2057.00,0.0008
2056.00,0.0008
2055.00,0.0008
2054.00,0.0009
2053.00,0.0013
2052.00,0.0018
2051.00,0.0022
2050.00,0.0022
2049.00,0.0018
2048.00,0.0015
2047.00,0.0012
2046.00,0.0010
2045.00,0.0008
2044.00,0.0006
2043.00,0.0004
2042.00,0.0003
2041.00,0.0003
2040.00,0.0005
2039.00,0.0006
2038.00,0.0006
2037.00,0.0007
2036.00,0.0008
2035.00,0.0009
2034.00,0.0008
2033.00,0.0005
2032.00,0.0001
2031.00,-0.0003
2030.00,-0.0004
2029.00,-0.0004
2028.00,-0.0004
2027.00,-0.0005
2026.00,-0.0007
2025.00,-0.0008
2024.00,-0.0009
2023.00,-0.0010
2022.00,-0.0009
2021.00,-0.0007
2020.00,-0.0006
2019.00,-0.0006
2018.00,-0.0007
2017.00,-0.0008
2016.00,-0.0008
2015.00,-0.0007
2014.00,-0.0006
2013.00,-0.0006
2012.00,-0.0006
2011.00,-0.0006
2010.00,-0.0006
2009.00,-0.0005
2008.00,-0.0006
2007.00,-0.0008
2006.00,-0.0008
2005.00,-0.0007
2004.00,-0.0006
2003.00,-0.0007
2002.00,-0.0008
2001.00,-0.0010
2000.00,-0.0012
1999.00,-0.0013
1998.00,-0.0012
1997.00,-0.0010
1996.00,-0.0007
1995.00,-0.0005
1994.00,-0.0004
1993.00,-0.0002
1992.00,0.0001
1991.00,0.0003
1990.00,0.0004
1989.00,0.0005
1988.00,0.0005
1987.00,0.0006
1986.00,0.0008
1985.00,0.0010
1984.00,0.0012
1983.00,0.0014
1982.00,0.0015
1981.00,0.0016
1980.00,0.0016
1979.00,0.0011
1978.00,0.0004
1977.00,-0.0001
1976.00,-0.0002
1975.00,-0.0001
1974.00,0.0001
1973.00,0.0001
1972.00,0.0001
1971.00,-0.0001
1970.00,-0.0002
1969.00,-0.0002
1968.00,-0.0002
1967.00,-0.0002
1966.00,-0.0003
1965.00,-0.0004
1964.00,-0.0004
1963.00,-0.0006
1962.00,-0.0009
1961.00,-0.0011
1960.00,-0.0012
1959.00,-0.0010
1958.00,-0.0007
1957.00,-0.0005
1956.00,-0.0004
1955.00,-0.0006
1954.00,-0.0008
1953.00,-0.0008
1952.00,-0.0007
1951.00,-0.0007
1950.00,-0.0008
1949.00,-0.0009
1948.00,-0.0010
1947.00,-0.0010
1946.00,-0.0010
1945.00,-0.0010
1944.00,-0.0009
1943.00,-0.0008
1942.00,-0.0007
1941.00,-0.0006
1940.00,-0.0006
1939.00,-0.0005
1938.00,-0.0004
1937.00,-0.0004
1936.00,-0.0003
1935.00,-0.0003
1934.00,-0.0002
1933.00,-0.0002
1932.00,-0.0001
1931.00,-0.0001
1930.00,-0.0000
1929.00,0.0001
1928.00,0.0002
1927.00,0.0003
1926.00,0.0004
1925.00,0.0004
1924.00,0.0003
1923.00,0.0002
1922.00,0.0001
1921.00,0.0002
1920.00,0.0003
1919.00,0.0003
1918.00,0.0003
1917.00,0.0003
1916.00,0.0004
1915.00,0.0005
1914.00,0.0005
1913.00,0.0005
1912.00,0.0005
1911.00,0.0004
1910.00,0.0003
1909.00,0.0003
1908.00,0.0003
1907.00,0.0003
1906.00,0.0003
1905.00,0.0004
1904.00,0.0005
1903.00,0.0005
1902.00,0.0005
1901.00,0.0004
1900.00,0.0004
1899.00,0.0004
1898.00,0.0004
1897.00,0.0005
1896.00,0.0006
1895.00,0.0007
1894.00,0.0007
1893.00,0.0007
1892.00,0.0007
1891.00,0.0007
1890.00,0.0006
1889.00,0.0005
1888.00,0.0005
1887.00,0.0005
1886.00,0.0004
1885.00,0.0005
1884.00,0.0006
1883.00,0.0007
1882.00,0.0007
1881.00,0.0008
1880.00,0.0009
1879.00,0.0008
1878.00,0.0008
1877.00,0.0007
1876.00,0.0007
1875.00,0.0007
1874.00,0.0007
1873.00,0.0008
1872.00,0.0008
1871.00,0.0008
1870.00,0.0007
1869.00,0.0006
1868.00,0.0006
1867.00,0.0006
1866.00,0.0007
1865.00,0.0008
1864.00,0.0009
1863.00,0.0010
1862.00,0.0010
1861.00,0.0010
1860.00,0.0009
1859.00,0.0008
1858.00,0.0007
1857.00,0.0007
1856.00,0.0008
1855.00,0.0008
1854.00,0.0008
1853.00,0.0008
1852.00,0.0009
1851.00,0.0009
1850.00,0.0010
1849.00,0.0009
1848.00,0.0009
1847.00,0.0008
1846.00,0.0007
1845.00,0.0007
1844.00,0.0007
1843.00,0.0007
1842.00,0.0008
1841.00,0.0009
1840.00,0.0010
1839.00,0.0010
1838.00,0.0011
1837.00,0.0011
1836.00,0.0012
1835.00,0.0012
1834.00,0.0012
1833.00,0.0013
1832.00,0.0013
1831.00,0.0013
1830.00,0.0012
1829.00,0.0013
1828.00,0.0013
1827.00,0.0013
1826.00,0.0013
1825.00,0.0013
1824.00,0.0014
1823.00,0.0014
1822.00,0.0013
1821.00,0.0012
1820.00,0.0011
1819.00,0.0009
1818.00,0.0009
1817.00,0.0009
1816.00,0.0009
1815.00,0.0009
1814.00,0.0010
1813.00,0.0010
1812.00,0.0011
1811.00,0.0011
1810.00,0.0012
1809.00,0.0012
1808.00,0.0013
1807.00,0.0013
1806.00,0.0014
1805.00,0.0015
1804.00,0.0015
1803.00,0.0015
1802.00,0.0015
1801.00,0.0015
1800.00,0.0015
1799.00,0.0014
1798.00,0.0014
1797.00,0.0014
1796.00,0.0015
1795.00,0.0015
1794.00,0.0016
1793.00,0.0016
1792.00,0.0016
1791.00,0.0017
1790.00,0.0017
1789.00,0.0017
1788.00,0.0017
1787.00,0.0018
1786.00,0.0018
1785.00,0.0017
1784.00,0.0017
1783.00,0.0017
1782.00,0.0017
1781.00,0.0018
1780.00,0.0018
1779.00,0.0018
1778.00,0.0018
1777.00,0.0017
1776.00,0.0017
1775.00,0.0018
1774.00,0.0018
1773.00,0.0018
1772.00,0.0019
1771.00,0.0019
1770.00,0.0020
1769.00,0.0021
1768.00,0.0022
1767.00,0.0022
1766.00,0.0021
1765.00,0.0021
1764.00,0.0021
1763.00,0.0021
1762.00,0.0021
1761.00,0.0022
1760.00,0.0023
1759.00,0.0023
1758.00,0.0023
1757.00,0.0023
1756.00,0.0023
1755.00,0.0023
1754.00,0.0023
1753.00,0.0024
1752.00,0.0024
1751.00,0.0025
1750.00,0.0025
1749.00,0.0025
1748.00,0.0025
1747.00,0.0026
1746.00,0.0026
1745.00,0.0027
1744.00,0.0028
1743.00,0.0029
1742.00,0.0030
1741.00,0.0030
1740.00,0.0031
1739.00,0.0031
1738.00,0.0031
1737.00,0.0031
1736.00,0.0032
1735.00,0.0032
1734.00,0.0032
1733.00,0.0033
1732.00,0.0033
1731.00,0.0033
1730.00,0.0033
1729.00,0.0033
1728.00,0.0033
1727.00,0.0034
1726.00,0.0034
1725.00,0.0034
1724.00,0.0034
1723.00,0.0034
1722.00,0.0034
1721.00,0.0034
1720.00,0.0035
1719.00,0.0035
1718.00,0.0034
1717.00,0.0035
1716.00,0.0035
1715.00,0.0036
1714.00,0.0036
1713.00,0.0037
1712.00,0.0037
1711.00,0.0038
1710.00,0.0039
1709.00,0.0040
1708.00,0.0041
1707.00,0.0042
1706.00,0.0043
1705.00,0.0045
1704.00,0.0047
1703.00,0.0048
1702.00,0.0050
1701.00,0.0053
1700.00,0.0055
1699.00,0.0056
1698.00,0.0056
1697.00,0.0058
1696.00,0.0061
1695.00,0.0063
1694.00,0.0065
1693.00,0.0066
1692.00,0.0067
1691.00,0.0068
1690.00,0.0069
1689.00,0.0070
1688.00,0.0071
1687.00,0.0072
1686.00,0.0073
1685.00,0.0074
1684.00,0.0075
1683.00,0.0075
1682.00,0.0075
1681.00,0.0076
1680.00,0.0077
1679.00,0.0077
1678.00,0.0078
1677.00,0.0079
1676.00,0.0081
1675.00,0.0082
1674.00,0.0083
1673.00,0.0082
1672.00,0.0083
1671.00,0.0083
1670.00,0.0083
1669.00,0.0084
1668.00,0.0084
1667.00,0.0084
1666.00,0.0084
1665.00,0.0085
1664.00,0.0086
1663.00,0.0087
1662.00,0.0088
1661.00,0.0088
1660.00,0.0089
1659.00,0.0089
1658.00,0.0090
1657.00,0.0092
1656.00,0.0093
1655.00,0.0094
1654.00,0.0096
1653.00,0.0099
1652.00,0.0102
1651.00,0.0102
1650.00,0.0103
1649.00,0.0105
1648.00,0.0107
1647.00,0.0110
1646.00,0.0112
1645.00,0.0112
1644.00,0.0111
1643.00,0.0109
1642.00,0.0108
1641.00,0.0106
1640.00,0.0105
1639.00,0.0103
1638.00,0.0101
1637.00,0.0100
1636.00,0.0100
1635.00,0.0101
1634.00,0.0101
1633.00,0.0101
1632.00,0.0100
1631.00,0.0100
1630.00,0.0100
1629.00,0.0099
1628.00,0.0098
1627.00,0.0097
1626.00,0.0095
1625.00,0.0094
1624.00,0.0093
1623.00,0.0092
1622.00,0.0091
1621.00,0.0090
1620.00,0.0090
1619.00,0.0089
1618.00,0.0088
1617.00,0.0087
1616.00,0.0087
1615.00,0.0086
1614.00,0.0086
1613.00,0.0085
1612.00,0.0085
1611.00,0.0084
1610.00,0.0084
1609.00,0.0084
1608.00,0.0084
1607.00,0.0084
1606.00,0.0084
1605.00,0.0083
1604.00,0.0082
1603.00,0.0081
1602.00,0.0080
1601.00,0.0080
1600.00,0.0080
1599.00,0.0080
1598.00,0.0080
1597.00,0.0080
1596.00,0.0080
1595.00,0.0079
1594.00,0.0079
1593.00,0.0079
1592.00,0.0080
1591.00,0.0080
1590.00,0.0081
1589.00,0.0082
1588.00,0.0083
1587.00,0.0085
1586.00,0.0086
1585.00,0.0088
1584.00,0.0091
1583.00,0.0094
1582.00,0.0097
1581.00,0.0101
1580.00,0.0103
1579.00,0.0104
1578.00,0.0104
1577.00,0.0103
1576.00,0.0103
1575.00,0.0102
1574.00,0.0101
1573.00,0.0099
1572.00,0.0097
1571.00,0.0095
1570.00,0.0092
1569.00,0.0090
1568.00,0.0088
1567.00,0.0087
1566.00,0.0087
1565.00,0.0086
1564.00,0.0086
1563.00,0.0086
1562.00,0.0086
1561.00,0.0086
1560.00,0.0086
1559.00,0.0086
1558.00,0.0088
1557.00,0.0089
1556.00,0.0090
1555.00,0.0091
1554.00,0.0092
1553.00,0.0094
1552.00,0.0096
1551.00,0.0098
1550.00,0.0100
1549.00,0.0103
1548.00,0.0105
1547.00,0.0108
1546.00,0.0111
1545.00,0.0115
1544.00,0.0119
1543.00,0.0121
1542.00,0.0123
1541.00,0.0124
1540.00,0.0123
1539.00,0.0120
1538.00,0.0116
1537.00,0.0113
1536.00,0.0110
1535.00,0.0107
1534.00,0.0102
1533.00,0.0097
1532.00,0.0094
1531.00,0.0092
1530.00,0.0090
1529.00,0.0089
1528.00,0.0088
1527.00,0.0086
1526.00,0.0084
1525.00,0.0082
1524.00,0.0081
1523.00,0.0080
1522.00,0.0079
1521.00,0.0080
1520.00,0.0081
1519.00,0.0082
1518.00,0.0082
1517.00,0.0083
1516.00,0.0083
1515.00,0.0083
1514.00,0.0083
1513.00,0.0084
1512.00,0.0085
1511.00,0.0086
1510.00,0.0086
1509.00,0.0087
1508.00,0.0088
1507.00,0.0089
1506.00,0.0089
1505.00,0.0090
1504.00,0.0092
1503.00,0.0093
1502.00,0.0095
1501.00,0.0098
1500.00,0.0101
1499.00,0.0103
1498.00,0.0106
1497.00,0.0110
1496.00,0.0115
1495.00,0.0119
1494.00,0.0122
1493.00,0.0126
1492.00,0.0131
1491.00,0.0135
1490.00,0.0141
1489.00,0.0147
1488.00,0.0155
1487.00,0.0162
1486.00,0.0169
1485.00,0.0178
1484.00,0.0188
1483.00,0.0198
1482.00,0.0211
1481.00,0.0226
1480.00,0.0242
1479.00,0.0258
1478.00,0.0275
1477.00,0.0297
1476.00,0.0322
1475.00,0.0350
1474.00,0.0387
1473.00,0.0438
1472.00,0.0498
1471.00,0.0554
1470.00,0.0607
1469.00,0.0663
1468.00,0.0722
1467.00,0.0786
1466.00,0.0859
1465.00,0.0939
1464.00,0.1009
1463.00,0.1058
1462.00,0.1091
1461.00,0.1114
1460.00,0.1130
1459.00,0.1141
1458.00,0.1150
1457.00,0.1158
1456.00,0.1160
1455.00,0.1156
1454.00,0.1149
1453.00,0.1137
1452.00,0.1116
1451.00,0.1086
1450.00,0.1043
1449.00,0.0983
1448.00,0.0906
1447.00,0.0824
1446.00,0.0748
1445.00,0.0683
1444.00,0.0627
1443.00,0.0579
1442.00,0.0543
1441.00,0.0516
1440.00,0.0499
1439.00,0.0490
1438.00,0.0487
1437.00,0.0485
1436.00,0.0473
1435.00,0.0450
1434.00,0.0418
1433.00,0.0382
1432.00,0.0344
1431.00,0.0310
1430.00,0.0284
1429.00,0.0265
1428.00,0.0252
1427.00,0.0244
1426.00,0.0239
1425.00,0.0235
1424.00,0.0231
1423.00,0.0228
1422.00,0.0227
1421.00,0.0226
1420.00,0.0224
1419.00,0.0222
1418.00,0.0220
1417.00,0.0217
1416.00,0.0213
1415.00,0.0210
1414.00,0.0208
1413.00,0.0206
1412.00,0.0204
1411.00,0.0202
1410.00,0.0201
1409.00,0.0199
1408.00,0.0196
1407.00,0.0194
1406.00,0.0193
1405.00,0.0190
1404.00,0.0188
1403.00,0.0188
1402.00,0.0188
1401.00,0.0188
1400.00,0.0188
1399.00,0.0189
1398.00,0.0190
1397.00,0.0191
1396.00,0.0193
1395.00,0.0196
1394.00,0.0200
1393.00,0.0204
1392.00,0.0208
1391.00,0.0215
1390.00,0.0225
1389.00,0.0238
1388.00,0.0258
1387.00,0.0287
1386.00,0.0327
1385.00,0.0378
1384.00,0.0447
1383.00,0.0544
1382.00,0.0673
1381.00,0.0838
1380.00,0.1040
1379.00,0.1267
1378.00,0.1486
1377.00,0.1644
1376.00,0.1696
1375.00,0.1614
1374.00,0.1424
1373.00,0.1195
1372.00,0.0987
1371.00,0.0816
1370.00,0.0679
1369.00,0.0573
1368.00,0.0499
1367.00,0.0452
1366.00,0.0425
1365.00,0.0412
1364.00,0.0412
1363.00,0.0419
1362.00,0.0433
1361.00,0.0448
1360.00,0.0459
1359.00,0.0461
1358.00,0.0451
1357.00,0.0430
1356.00,0.0400
1355.00,0.0366
1354.00,0.0334
1353.00,0.0307
1352.00,0.0285
1351.00,0.0268
1350.00,0.0254
1349.00,0.0243
1348.00,0.0233
1347.00,0.0224
1346.00,0.0217
1345.00,0.0211
1344.00,0.0207
1343.00,0.0204
1342.00,0.0202
1341.00,0.0200
1340.00,0.0198
1339.00,0.0197
1338.00,0.0197
1337.00,0.0197
1336.00,0.0197
1335.00,0.0198
1334.00,0.0200
1333.00,0.0203
1332.00,0.0207
1331.00,0.0209
1330.00,0.0210
1329.00,0.0209
1328.00,0.0206
1327.00,0.0203
1326.00,0.0199
1325.00,0.0195
1324.00,0.0191
1323.00,0.0188
1322.00,0.0186
1321.00,0.0184
1320.00,0.0183
1319.00,0.0183
1318.00,0.0181
1317.00,0.0180
1316.00,0.0179
1315.00,0.0179
1314.00,0.0179
1313.00,0.0179
1312.00,0.0179
1311.00,0.0181
1310.00,0.0184
1309.00,0.0189
1308.00,0.0196
1307.00,0.0205
1306.00,0.0214
1305.00,0.0220
1304.00,0.0221
1303.00,0.0217
1302.00,0.0211
1301.00,0.0205
1300.00,0.0201
1299.00,0.0199
1298.00,0.0198
1297.00,0.0198
1296.00,0.0196
1295.00,0.0194
1294.00,0.0190
1293.00,0.0186
1292.00,0.0182
1291.00,0.0178
1290.00,0.0174
1289.00,0.0170
1288.00,0.0168
1287.00,0.0166
1286.00,0.0163
1285.00,0.0161
1284.00,0.0159
1283.00,0.0157
1282.00,0.0155
1281.00,0.0153
1280.00,0.0151
1279.00,0.0150
1278.00,0.0150
1277.00,0.0149
1276.00,0.0149
1275.00,0.0150
1274.00,0.0151
1273.00,0.0152
1272.00,0.0155
1271.00,0.0158
1270.00,0.0162
1269.00,0.0167
1268.00,0.0173
1267.00,0.0179
1266.00,0.0185
1265.00,0.0191
1264.00,0.0195
1263.00,0.0197
1262.00,0.0199
1261.00,0.0200
1260.00,0.0202
1259.00,0.0205
1258.00,0.0208
1257.00,0.0210
1256.00,0.0208
1255.00,0.0202
1254.00,0.0192
1253.00,0.0181
1252.00,0.0170
1251.00,0.0161
1250.00,0.0155
1249.00,0.0151
1248.00,0.0147
1247.00,0.0145
1246.00,0.0142
1245.00,0.0141
1244.00,0.0139
1243.00,0.0138
1242.00,0.0137
1241.00,0.0137
1240.00,0.0136
1239.00,0.0135
1238.00,0.0134
1237.00,0.0133
1236.00,0.0133
1235.00,0.0133
1234.00,0.0133
1233.00,0.0134
1232.00,0.0134
1231.00,0.0134
1230.00,0.0134
1229.00,0.0135
1228.00,0.0137
1227.00,0.0139
1226.00,0.0141
1225.00,0.0145
1224.00,0.0149
1223.00,0.0154
1222.00,0.0160
1221.00,0.0164
1220.00,0.0168
1219.00,0.0171
1218.00,0.0174
1217.00,0.0176
1216.00,0.0178
1215.00,0.0178
1214.00,0.0178
1213.00,0.0177
1212.00,0.0176
1211.00,0.0175
1210.00,0.0174
1209.00,0.0173
1208.00,0.0172
1207.00,0.0173
1206.00,0.0174
1205.00,0.0176
1204.00,0.0177
1203.00,0.0179
1202.00,0.0180
1201.00,0.0181
1200.00,0.0182
1199.00,0.0183
1198.00,0.0184
1197.00,0.0186
1196.00,0.0187
1195.00,0.0188
1194.00,0.0188
1193.00,0.0189
1192.00,0.0189
1191.00,0.0189
1190.00,0.0190
1189.00,0.0190
1188.00,0.0190
1187.00,0.0191
1186.00,0.0191
1185.00,0.0191
1184.00,0.0192
1183.00,0.0194
1182.00,0.0196
1181.00,0.0199
1180.00,0.0204
1179.00,0.0210
1178.00,0.0218
1177.00,0.0228
1176.00,0.0241
1175.00,0.0258
1174.00,0.0280
1173.00,0.0307
1172.00,0.0340
1171.00,0.0376
1170.00,0.0411
1169.00,0.0440
1168.00,0.0459
1167.00,0.0465
1166.00,0.0461
1165.00,0.0451
1164.00,0.0439
1163.00,0.0428
1162.00,0.0420
1161.00,0.0415
1160.00,0.0412
1159.00,0.0412
1158.00,0.0412
1157.00,0.0415
1156.00,0.0418
1155.00,0.0422
1154.00,0.0425
1153.00,0.0427
1152.00,0.0427
1151.00,0.0425
1150.00,0.0420
1149.00,0.0414
1148.00,0.0408
1147.00,0.0402
1146.00,0.0397
1145.00,0.0392
1144.00,0.0388
1143.00,0.0385
1142.00,0.0383
1141.00,0.0383
1140.00,0.0383
1139.00,0.0385
1138.00,0.0388
1137.00,0.0391
1136.00,0.0396
1135.00,0.0402
1134.00,0.0410
1133.00,0.0418
1132.00,0.0426
1131.00,0.0435
1130.00,0.0444
1129.00,0.0453
1128.00,0.0461
1127.00,0.0469
1126.00,0.0477
1125.00,0.0485
1124.00,0.0492
1123.00,0.0500
1122.00,0.0507
1121.00,0.0513
1120.00,0.0519
1119.00,0.0523
1118.00,0.0527
1117.00,0.0531
1116.00,0.0535
1115.00,0.0538
1114.00,0.0542
1113.00,0.0545
1112.00,0.0548
1111.00,0.0550
1110.00,0.0553
1109.00,0.0556
1108.00,0.0559
1107.00,0.0564
1106.00,0.0569
1105.00,0.0574
1104.00,0.0578
1103.00,0.0580
1102.00,0.0580
1101.00,0.0578
1100.00,0.0574
1099.00,0.0568
1098.00,0.0563
1097.00,0.0558
1096.00,0.0554
1095.00,0.0551
1094.00,0.0549
1093.00,0.0547
1092.00,0.0547
1091.00,0.0547
1090.00,0.0548
1089.00,0.0550
1088.00,0.0552
1087.00,0.0556
1086.00,0.0562
1085.00,0.0568
1084.00,0.0574
1083.00,0.0579
1082.00,0.0584
1081.00,0.0588
1080.00,0.0591
1079.00,0.0593
1078.00,0.0596
1077.00,0.0599
1076.00,0.0602
1075.00,0.0605
1074.00,0.0607
1073.00,0.0609
1072.00,0.0611
1071.00,0.0612
1070.00,0.0613
1069.00,0.0615
1068.00,0.0617
1067.00,0.0619
1066.00,0.0621
1065.00,0.0622
1064.00,0.0623
1063.00,0.0624
1062.00,0.0624
1061.00,0.0623
1060.00,0.0622
1059.00,0.0621
1058.00,0.0618
1057.00,0.0615
1056.00,0.0611
1055.00,0.0607
1054.00,0.0603
1053.00,0.0599
1052.00,0.0596
1051.00,0.0592
1050.00,0.0587
1049.00,0.0581
1048.00,0.0576
1047.00,0.0572
1046.00,0.0568
1045.00,0.0563
1044.00,0.0556
1043.00,0.0547
1042.00,0.0539
1041.00,0.0530
1040.00,0.0522
1039.00,0.0515
1038.00,0.0509
1037.00,0.0504
1036.00,0.0499
1035.00,0.0494
1034.00,0.0488
1033.00,0.0480
1032.00,0.0473
1031.00,0.0466
1030.00,0.0459
1029.00,0.0453
1028.00,0.0447
1027.00,0.0441
1026.00,0.0434
1025.00,0.0428
1024.00,0.0423
1023.00,0.0418
1022.00,0.0412
1021.00,0.0406
1020.00,0.0401
1019.00,0.0395
1018.00,0.0391
1017.00,0.0386
1016.00,0.0381
1015.00,0.0376
1014.00,0.0371
1013.00,0.0366
1012.00,0.0362
1011.00,0.0358
1010.00,0.0354
1009.00,0.0349
1008.00,0.0345
1007.00,0.0343
1006.00,0.0344
1005.00,0.0348
1004.00,0.0358
1003.00,0.0374
1002.00,0.0400
1001.00,0.0433
1000.00,0.0469
999.00,0.0499
998.00,0.0511
997.00,0.0499
996.00,0.0467
995.00,0.0422
994.00,0.0375
993.00,0.0333
992.00,0.0299
991.00,0.0273
990.00,0.0254
989.00,0.0241
988.00,0.0232
987.00,0.0225
986.00,0.0221
985.00,0.0219
984.00,0.0219
983.00,0.0223
982.00,0.0232
981.00,0.0246
980.00,0.0267
979.00,0.0295
978.00,0.0330
977.00,0.0373
976.00,0.0419
975.00,0.0463
974.00,0.0495
973.00,0.0505
972.00,0.0490
971.00,0.0451
970.00,0.0399
969.00,0.0347
968.00,0.0304
967.00,0.0273
966.00,0.0253
965.00,0.0240
964.00,0.0232
963.00,0.0226
962.00,0.0223
961.00,0.0222
960.00,0.0221
959.00,0.0222
958.00,0.0223
957.00,0.0223
956.00,0.0224
955.00,0.0225
954.00,0.0226
953.00,0.0228
952.00,0.0229
951.00,0.0232
950.00,0.0233
949.00,0.0235
948.00,0.0235
947.00,0.0234
946.00,0.0234
945.00,0.0233
944.00,0.0233
943.00,0.0232
942.00,0.0231
941.00,0.0227
940.00,0.0222
939.00,0.0215
938.00,0.0207
937.00,0.0198
936.00,0.0190
935.00,0.0183
934.00,0.0177
933.00,0.0172
932.00,0.0169
931.00,0.0167
930.00,0.0166
929.00,0.0164
928.00,0.0163
927.00,0.0161
926.00,0.0160
925.00,0.0157
924.00,0.0155
923.00,0.0152
922.00,0.0149
921.00,0.0147
920.00,0.0145
919.00,0.0144
918.00,0.0143
917.00,0.0142
916.00,0.0140
915.00,0.0139
914.00,0.0138
913.00,0.0139
912.00,0.0140
911.00,0.0142
910.00,0.0144
909.00,0.0145
908.00,0.0146
907.00,0.0148
906.00,0.0153
905.00,0.0161
904.00,0.0171
903.00,0.0185
902.00,0.0201
901.00,0.0215
900.00,0.0226
899.00,0.0228
898.00,0.0223
897.00,0.0210
896.00,0.0195
895.00,0.0179
894.00,0.0166
893.00,0.0157
892.00,0.0151
891.00,0.0146
890.00,0.0143
889.00,0.0139
888.00,0.0136
887.00,0.0133
886.00,0.0131
885.00,0.0129
884.00,0.0128
883.00,0.0127
882.00,0.0128
881.00,0.0129
880.00,0.0130
879.00,0.0131
878.00,0.0132
877.00,0.0132
876.00,0.0133
875.00,0.0133
874.00,0.0133
873.00,0.0131
872.00,0.0128
871.00,0.0124
870.00,0.0121
869.00,0.0119
868.00,0.0119
867.00,0.0119
866.00,0.0119
865.00,0.0119
864.00,0.0120
863.00,0.0123
862.00,0.0126
861.00,0.0128
860.00,0.0130
859.00,0.0132
858.00,0.0134
857.00,0.0135
856.00,0.0137
855.00,0.0139
854.00,0.0140
853.00,0.0141
852.00,0.0143
851.00,0.0147
850.00,0.0152
849.00,0.0160
848.00,0.0171
847.00,0.0185
846.00,0.0207
845.00,0.0240
844.00,0.0288
843.00,0.0342
842.00,0.0384
841.00,0.0396
840.00,0.0370
839.00,0.0320
838.00,0.0266
837.00,0.0225
836.00,0.0199
835.00,0.0183
834.00,0.0174
833.00,0.0168
832.00,0.0163
831.00,0.0158
830.00,0.0155
829.00,0.0153
828.00,0.0153
827.00,0.0154
826.00,0.0155
825.00,0.0156
824.00,0.0157
823.00,0.0159
822.00,0.0162
821.00,0.0165
820.00,0.0168
819.00,0.0171
818.00,0.0175
817.00,0.0181
816.00,0.0189
815.00,0.0199
814.00,0.0212
813.00,0.0229
812.00,0.0246
811.00,0.0262
810.00,0.0273
809.00,0.0277
808.00,0.0274
807.00,0.0265
806.00,0.0253
805.00,0.0239
804.00,0.0225
803.00,0.0214
802.00,0.0204
801.00,0.0197
800.00,0.0191
799.00,0.0187
798.00,0.0183
797.00,0.0179
796.00,0.0174
795.00,0.0167
794.00,0.0161
793.00,0.0155
792.00,0.0152
791.00,0.0149
790.00,0.0145
789.00,0.0142
788.00,0.0138
787.00,0.0135
786.00,0.0132
785.00,0.0130
784.00,0.0128
783.00,0.0127
782.00,0.0126
781.00,0.0124
780.00,0.0122
779.00,0.0121
778.00,0.0120
777.00,0.0121
776.00,0.0122
775.00,0.0122
774.00,0.0121
773.00,0.0120
772.00,0.0119
771.00,0.0119
770.00,0.0119
769.00,0.0119
768.00,0.0119
767.00,0.0118
766.00,0.0116
765.00,0.0114
764.00,0.0113
763.00,0.0113
762.00,0.0114
761.00,0.0115
760.00,0.0116
759.00,0.0117
758.00,0.0117
757.00,0.0116
756.00,0.0114
755.00,0.0113
754.00,0.0114
753.00,0.0115
752.00,0.0116
751.00,0.0118
750.00,0.0119
749.00,0.0120
748.00,0.0122
747.00,0.0122
746.00,0.0124
745.00,0.0125
744.00,0.0127
743.00,0.0128
742.00,0.0129
741.00,0.0132
740.00,0.0135
739.00,0.0138
738.00,0.0142
737.00,0.0147
736.00,0.0151
735.00,0.0156
734.00,0.0160
733.00,0.0165
732.00,0.0170
731.00,0.0177
730.00,0.0183
729.00,0.0188
728.00,0.0190
727.00,0.0192
726.00,0.0194
725.00,0.0198
724.00,0.0203
723.00,0.0208
722.00,0.0214
721.00,0.0218
720.00,0.0217
719.00,0.0210
718.00,0.0200
717.00,0.0188
716.00,0.0179
715.00,0.0173
714.00,0.0170
713.00,0.0168
712.00,0.0167
711.00,0.0165
710.00,0.0163
709.00,0.0160
708.00,0.0156
707.00,0.0155
706.00,0.0155
705.00,0.0155
704.00,0.0154
703.00,0.0151
702.00,0.0149
701.00,0.0146
700.00,0.0144
699.00,0.0144
698.00,0.0143
697.00,0.0143
696.00,0.0142
695.00,0.0140
694.00,0.0138
693.00,0.0137
692.00,0.0138
691.00,0.0140
690.00,0.0143
689.00,0.0145
688.00,0.0147
687.00,0.0148
686.00,0.0148
685.00,0.0147
684.00,0.0147
683.00,0.0148
682.00,0.0149
681.00,0.0149
680.00,0.0148
679.00,0.0149
678.00,0.0152
677.00,0.0156
676.00,0.0159
675.00,0.0162
674.00,0.0166
673.00,0.0169
672.00,0.0172
671.00,0.0173
670.00,0.0175
669.00,0.0176
668.00,0.0178
667.00,0.0181
666.00,0.0181
665.00,0.0181
664.00,0.0180
663.00,0.0179
662.00,0.0180
661.00,0.0181
660.00,0.0183
659.00,0.0183
658.00,0.0181
657.00,0.0178
656.00,0.0175
655.00,0.0174
654.00,0.0175
653.00,0.0177
652.00,0.0179
651.00,0.0181
650.00,0.0182
649.00,0.0183
648.00,0.0181
647.00,0.0180
646.00,0.0179
645.00,0.0179
644.00,0.0179
643.00,0.0178
642.00,0.0178
641.00,0.0178
640.00,0.0178
639.00,0.0178
638.00,0.0178
637.00,0.0180
636.00,0.0182
635.00,0.0184
634.00,0.0186
633.00,0.0187
632.00,0.0186
631.00,0.0185
630.00,0.0184
629.00,0.0183
628.00,0.0184
627.00,0.0187
626.00,0.0191
625.00,0.0195
624.00,0.0199
623.00,0.0201
622.00,0.0201
621.00,0.0199
620.00,0.0197
619.00,0.0195
618.00,0.0194
617.00,0.0194
616.00,0.0196
615.00,0.0198
614.00,0.0200
613.00,0.0200
612.00,0.0199
611.00,0.0199
610.00,0.0199
609.00,0.0200
608.00,0.0202
607.00,0.0204
606.00,0.0205
605.00,0.0204
604.00,0.0202
603.00,0.0200
602.00,0.0197
601.00,0.0193
600.00,0.0192
599.00,0.0194
598.00,0.0199
597.00,0.0205
596.00,0.0210
595.00,0.0211
594.00,0.0209
593.00,0.0205
592.00,0.0201
591.00,0.0199
590.00,0.0201
589.00,0.0205
588.00,0.0208
587.00,0.0210
586.00,0.0210
585.00,0.0210
584.00,0.0210
583.00,0.0208
582.00,0.0207
581.00,0.0207
580.00,0.0210
579.00,0.0213
578.00,0.0216
577.00,0.0218
576.00,0.0217
575.00,0.0215
574.00,0.0213
573.00,0.0212
572.00,0.0212
571.00,0.0213
570.00,0.0215
569.00,0.0215
568.00,0.0213
567.00,0.0211
566.00,0.0210
565.00,0.0210
564.00,0.0210
563.00,0.0208
562.00,0.0206
561.00,0.0204
560.00,0.0203
559.00,0.0205
558.00,0.0206
557.00,0.0206
556.00,0.0205
555.00,0.0203
554.00,0.0201
553.00,0.0201
552.00,0.0201
551.00,0.0203
550.00,0.0206
549.00,0.0210
548.00,0.0213
547.00,0.0214
546.00,0.0215
545.00,0.0213
544.00,0.0211
543.00,0.0207
542.00,0.0205
541.00,0.0206
540.00,0.0210
539.00,0.0217
538.00,0.0225
537.00,0.0229
536.00,0.0228
535.00,0.0224
534.00,0.0220
533.00,0.0217
532.00,0.0216
531.00,0.0213
530.00,0.0211
529.00,0.0210
528.00,0.0211
527.00,0.0212
526.00,0.0212
525.00,0.0209
524.00,0.0206
523.00,0.0204
522.00,0.0202
521.00,0.0200
520.00,0.0197
519.00,0.0194
518.00,0.0190
517.00,0.0187
516.00,0.0186
515.00,0.0188
514.00,0.0191
513.00,0.0192
512.00,0.0189
511.00,0.0184
510.00,0.0182
509.00,0.0183
508.00,0.0187
507.00,0.0192
506.00,0.0197
505.00,0.0201
504.00,0.0203
503.00,0.0203
502.00,0.0199
501.00,0.0195
500.00,0.0193
499.00,0.0191
498.00,0.0186
497.00,0.0178
496.00,0.0173
495.00,0.0173
494.00,0.0179
493.00,0.0185
492.00,0.0185
491.00,0.0181
490.00,0.0178
489.00,0.0177
488.00,0.0180
487.00,0.0187
486.00,0.0195
485.00,0.0203
484.00,0.0205
483.00,0.0201
482.00,0.0194
481.00,0.0189
480.00,0.0187
479.00,0.0188
478.00,0.0192
477.00,0.0197
476.00,0.0202
475.00,0.0204
474.00,0.0200
473.00,0.0190
472.00,0.0180
471.00,0.0174
470.00,0.0176
469.00,0.0184
468.00,0.0194
467.00,0.0201
466.00,0.0204
465.00,0.0204
464.00,0.0201
463.00,0.0198
462.00,0.0199
461.00,0.0207
460.00,0.0218
459.00,0.0227
458.00,0.0228
457.00,0.0226
456.00,0.0227
455.00,0.0228
454.00,0.0224
453.00,0.0213
452.00,0.0202
451.00,0.0198
450.00,0.0197
