Created as New Dataset,Sample 088 By Administrator Date Wednesday, September 10 2025
cm-1,A
4000.00,0.0008
3999.00,0.0008
3998.00,0.0009
3997.00,0.0009
3996.00,0.0009
3995.00,0.0009
3994.00,0.0010
3993.00,0.0010
3992.00,0.0010
3991.00,0.0010
3990.00,0.0010
3989.00,0.0010
3988.00,0.0010
3987.00,0.0010
3986.00,0.0010
3985.00,0.0010
3984.00,0.0009
3983.00,0.0009
3982.00,0.0008
3981.00,0.0008
3980.00,0.0008
3979.00,0.0008
3978.00,0.0008
3977.00,0.0008
3976.00,0.0008
3975.00,0.0008
3974.00,0.0008
3973.00,0.0008
3972.00,0.0008
3971.00,0.0008
3970.00,0.0008
3969.00,0.0008
3968.00,0.0008
3967.00,0.0008
3966.00,0.0008
3965.00,0.0008
3964.00,0.0008
3963.00,0.0007
3962.00,0.0007
3961.00,0.0007
3960.00,0.0008
3959.00,0.0008
3958.00,0.0007
3957.00,0.0007
3956.00,0.0007
3955.00,0.0008
3954.00,0.0008
3953.00,0.0008
3952.00,0.0009
3951.00,0.0009
3950.00,0.0009
3949.00,0.0009
3948.00,0.0009
3947.00,0.0009
3946.00,0.0008
3945.00,0.0008
3944.00,0.0008
3943.00,0.0009
3942.00,0.0009
3941.00,0.0009
3940.00,0.0009
3939.00,0.0008
3938.00,0.0008
3937.00,0.0008
3936.00,0.0008
3935.00,0.0008
3934.00,0.0009
3933.00,0.0009
3932.00,0.0009
3931.00,0.0008
3930.00,0.0008
3929.00,0.0007
3928.00,0.0008
3927.00,0.0008
3926.00,0.0008
3925.00,0.0008
3924.00,0.0008
3923.00,0.0008
3922.00,0.0008
3921.00,0.0008
3920.00,0.0008
3919.00,0.0009
3918.00,0.0009
3917.00,0.0009
3916.00,0.0008
3915.00,0.0008
3914.00,0.0008
3913.00,0.0008
3912.00,0.0007
3911.00,0.0007
3910.00,0.0007
3909.00,0.0007
3908.00,0.0007
3907.00,0.0008
3906.00,0.0008
3905.00,0.0009
3904.00,0.0010
3903.00,0.0011
3902.00,0.0010
3901.00,0.0010
3900.00,0.0009
3899.00,0.0009
3898.00,0.0008
3897.00,0.0008
3896.00,0.0008
3895.00,0.0008
3894.00,0.0008
3893.00,0.0008
3892.00,0.0008
3891.00,0.0007
3890.00,0.0007
3889.00,0.0007
3888.00,0.0007
3887.00,0.0008
3886.00,0.0007
3885.00,0.0007
3884.00,0.0007
3883.00,0.0008
3882.00,0.0008
3881.00,0.0008
3880.00,0.0008
3879.00,0.0008
3878.00,0.0008
3877.00,0.0008
3876.00,0.0008
3875.00,0.0008
3874.00,0.0008
3873.00,0.0008
3872.00,0.0008
3871.00,0.0008
3870.00,0.0008
3869.00,0.0008
3868.00,0.0008
3867.00,0.0008
3866.00,0.0008
3865.00,0.0008
3864.00,0.0008
3863.00,0.0008
3862.00,0.0007
3861.00,0.0007
3860.00,0.0007
3859.00,0.0007
3858.00,0.0008
3857.00,0.0008
3856.00,0.0009
3855.00,0.0010
3854.00,0.0010
3853.00,0.0010
3852.00,0.0010
3851.00,0.0010
3850.00,0.0010
3849.00,0.0009
3848.00,0.0009
3847.00,0.0008
3846.00,0.0008
3845.00,0.0008
3844.00,0.0008
3843.00,0.0008
3842.00,0.0008
3841.00,0.0008
3840.00,0.0008
3839.00,0.0008
3838.00,0.0008
3837.00,0.0008
3836.00,0.0008
3835.00,0.0008
3834.00,0.0008
3833.00,0.0008
3832.00,0.0008
3831.00,0.0008
3830.00,0.0008
3829.00,0.0008
3828.00,0.0008
3827.00,0.0007
3826.00,0.0007
3825.00,0.0007
3824.00,0.0007
3823.00,0.0007
3822.00,0.0007
3821.00,0.0007
3820.00,0.0007
3819.00,0.0008
3818.00,0.0008
3817.00,0.0008
3816.00,0.0008
3815.00,0.0008
3814.00,0.0008
3813.00,0.0008
3812.00,0.0009
3811.00,0.0008
3810.00,0.0008
3809.00,0.0007
3808.00,0.0007
3807.00,0.0007
3806.00,0.0007
3805.00,0.0007
3804.00,0.0008
3803.00,0.0008
3802.00,0.0008
3801.00,0.0008
3800.00,0.0008
3799.00,0.0008
3798.00,0.0008
3797.00,0.0008
3796.00,0.0007
3795.00,0.0007
3794.00,0.0007
3793.00,0.0007
3792.00,0.0007
3791.00,0.0007
3790.00,0.0007
3789.00,0.0007
3788.00,0.0007
3787.00,0.0007
3786.00,0.0007
3785.00,0.0007
3784.00,0.0007
3783.00,0.0006
3782.00,0.0006
3781.00,0.0007
3780.00,0.0007
3779.00,0.0007
3778.00,0.0008
3777.00,0.0008
3776.00,0.0008
3775.00,0.0008
3774.00,0.0008
3773.00,0.0008
3772.00,0.0008
3771.00,0.0008
3770.00,0.0009
3769.00,0.0009
3768.00,0.0009
3767.00,0.0009
3766.00,0.0009
3765.00,0.0009
3764.00,0.0009
3763.00,0.0009
3762.00,0.0008
3761.00,0.0008
3760.00,0.0008
3759.00,0.0008
3758.00,0.0008
3757.00,0.0008
3756.00,0.0008
3755.00,0.0008
3754.00,0.0009
3753.00,0.0009
3752.00,0.0009
3751.00,0.0008
3750.00,0.0008
3749.00,0.0008
3748.00,0.0008
3747.00,0.0008
3746.00,0.0008
3745.00,0.0008
3744.00,0.0009
3743.00,0.0009
3742.00,0.0010
3741.00,0.0010
3740.00,0.0010
3739.00,0.0010
3738.00,0.0010
3737.00,0.0010
3736.00,0.0009
3735.00,0.0008
3734.00,0.0007
3733.00,0.0007
3732.00,0.0007
3731.00,0.0007
3730.00,0.0007
3729.00,0.0007
3728.00,0.0007
3727.00,0.0008
3726.00,0.0008
3725.00,0.0008
3724.00,0.0008
3723.00,0.0008
3722.00,0.0008
3721.00,0.0008
3720.00,0.0008
3719.00,0.0008
3718.00,0.0007
3717.00,0.0007
3716.00,0.0007
3715.00,0.0007
3714.00,0.0007
3713.00,0.0007
3712.00,0.0007
3711.00,0.0007
3710.00,0.0008
3709.00,0.0008
3708.00,0.0008
3707.00,0.0008
3706.00,0.0008
3705.00,0.0008
3704.00,0.0008
3703.00,0.0007
3702.00,0.0007
3701.00,0.0007
3700.00,0.0007
3699.00,0.0006
3698.00,0.0006
3697.00,0.0006
3696.00,0.0006
3695.00,0.0006
3694.00,0.0006
3693.00,0.0007
3692.00,0.0007
3691.00,0.0007
3690.00,0.0006
3689.00,0.0006
3688.00,0.0006
3687.00,0.0007
3686.00,0.0007
3685.00,0.0008
3684.00,0.0008
3683.00,0.0008
3682.00,0.0008
3681.00,0.0008
3680.00,0.0008
3679.00,0.0008
3678.00,0.0008
3677.00,0.0009
3676.00,0.0010
3675.00,0.0010
3674.00,0.0010
3673.00,0.0010
3672.00,0.0010
3671.00,0.0010
3670.00,0.0010
3669.00,0.0010
3668.00,0.0010
3667.00,0.0010
3666.00,0.0010
3665.00,0.0009
3664.00,0.0009
3663.00,0.0009
3662.00,0.0009
3661.00,0.0009
3660.00,0.0010
3659.00,0.0010
3658.00,0.0010
3657.00,0.0010
3656.00,0.0010
3655.00,0.0011
3654.00,0.0011
3653.00,0.0011
3652.00,0.0012
3651.00,0.0012
3650.00,0.0012
3649.00,0.0013
3648.00,0.0013
3647.00,0.0014
3646.00,0.0013
3645.00,0.0013
3644.00,0.0012
3643.00,0.0012
3642.00,0.0011
3641.00,0.0011
3640.00,0.0011
3639.00,0.0012
3638.00,0.0012
3637.00,0.0013
3636.00,0.0013
3635.00,0.0013
3634.00,0.0013
3633.00,0.0013
3632.00,0.0013
3631.00,0.0014
3630.00,0.0014
3629.00,0.0014
3628.00,0.0014
3627.00,0.0013
3626.00,0.0013
3625.00,0.0013
3624.00,0.0013
3623.00,0.0014
3622.00,0.0014
3621.00,0.0014
3620.00,0.0013
3619.00,0.0013
3618.00,0.0014
3617.00,0.0014
3616.00,0.0015
3615.00,0.0015
3614.00,0.0015
3613.00,0.0016
3612.00,0.0016
3611.00,0.0016
3610.00,0.0017
3609.00,0.0017
3608.00,0.0017
3607.00,0.0017
3606.00,0.0017
3605.00,0.0017
3604.00,0.0017
3603.00,0.0017
3602.00,0.0017
3601.00,0.0017
3600.00,0.0017
3599.00,0.0018
3598.00,0.0019
3597.00,0.0019
3596.00,0.0020
3595.00,0.0020
3594.00,0.0020
3593.00,0.0020
3592.00,0.0020
3591.00,0.0020
3590.00,0.0021
3589.00,0.0021
3588.00,0.0022
3587.00,0.0023
3586.00,0.0024
3585.00,0.0024
3584.00,0.0024
3583.00,0.0024
3582.00,0.0023
3581.00,0.0023
3580.00,0.0023
3579.00,0.0023
3578.00,0.0023
3577.00,0.0024
3576.00,0.0024
3575.00,0.0025
3574.00,0.0025
3573.00,0.0025
3572.00,0.0026
3571.00,0.0026
3570.00,0.0027
3569.00,0.0028
3568.00,0.0029
3567.00,0.0030
3566.00,0.0031
3565.00,0.0031
3564.00,0.0030
3563.00,0.0030
3562.00,0.0030
3561.00,0.0030
3560.00,0.0030
3559.00,0.0030
3558.00,0.0031
3557.00,0.0031
3556.00,0.0032
3555.00,0.0033
3554.00,0.0034
3553.00,0.0035
3552.00,0.0035
3551.00,0.0035
3550.00,0.0036
3549.00,0.0036
3548.00,0.0037
3547.00,0.0037
3546.00,0.0038
3545.00,0.0039
3544.00,0.0039
3543.00,0.0039
3542.00,0.0039
3541.00,0.0039
3540.00,0.0038
3539.00,0.0039
3538.00,0.0039
3537.00,0.0039
3536.00,0.0040
3535.00,0.0041
3534.00,0.0042
3533.00,0.0043
3532.00,0.0043
3531.00,0.0043
3530.00,0.0043
3529.00,0.0043
3528.00,0.0043
3527.00,0.0044
3526.00,0.0045
3525.00,0.0045
3524.00,0.0046
3523.00,0.0046
3522.00,0.0047
3521.00,0.0047
3520.00,0.0047
3519.00,0.0047
3518.00,0.0047
3517.00,0.0048
3516.00,0.0048
3515.00,0.0049
3514.00,0.0050
3513.00,0.0050
3512.00,0.0051
3511.00,0.0051
3510.00,0.0051
3509.00,0.0051
3508.00,0.0052
3507.00,0.0053
3506.00,0.0053
3505.00,0.0054
3504.00,0.0054
3503.00,0.0054
3502.00,0.0054
3501.00,0.0054
3500.00,0.0055
3499.00,0.0055
3498.00,0.0056
3497.00,0.0057
3496.00,0.0057
3495.00,0.0057
3494.00,0.0057
3493.00,0.0058
3492.00,0.0059
3491.00,0.0059
3490.00,0.0060
3489.00,0.0060
3488.00,0.0061
3487.00,0.0061
3486.00,0.0061
3485.00,0.0061
3484.00,0.0062
3483.00,0.0062
3482.00,0.0062
3481.00,0.0063
3480.00,0.0063
3479.00,0.0063
3478.00,0.0063
3477.00,0.0064
3476.00,0.0064
3475.00,0.0065
3474.00,0.0065
3473.00,0.0065
3472.00,0.0066
3471.00,0.0067
3470.00,0.0067
3469.00,0.0068
3468.00,0.0069
3467.00,0.0069
3466.00,0.0069
3465.00,0.0069
3464.00,0.0070
3463.00,0.0070
3462.00,0.0070
3461.00,0.0070
3460.00,0.0071
3459.00,0.0071
3458.00,0.0072
3457.00,0.0072
3456.00,0.0073
3455.00,0.0073
3454.00,0.0073
3453.00,0.0073
3452.00,0.0074
3451.00,0.0074
3450.00,0.0074
3449.00,0.0074
3448.00,0.0074
3447.00,0.0075
3446.00,0.0075
3445.00,0.0075
3444.00,0.0076
3443.00,0.0076
3442.00,0.0076
3441.00,0.0076
3440.00,0.0076
3439.00,0.0077
3438.00,0.0077
3437.00,0.0078
3436.00,0.0078
3435.00,0.0078
3434.00,0.0079
3433.00,0.0079
3432.00,0.0080
3431.00,0.0080
3430.00,0.0081
3429.00,0.0081
3428.00,0.0082
3427.00,0.0082
3426.00,0.0082
3425.00,0.0082
3424.00,0.0083
3423.00,0.0083
3422.00,0.0083
3421.00,0.0083
3420.00,0.0084
3419.00,0.0084
3418.00,0.0084
3417.00,0.0084
3416.00,0.0084
3415.00,0.0085
3414.00,0.0085
3413.00,0.0086
3412.00,0.0086
3411.00,0.0086
3410.00,0.0086
3409.00,0.0086
3408.00,0.0086
3407.00,0.0086
3406.00,0.0086
3405.00,0.0087
3404.00,0.0087
3403.00,0.0087
3402.00,0.0087
3401.00,0.0087
3400.00,0.0087
3399.00,0.0087
3398.00,0.0088
3397.00,0.0088
3396.00,0.0088
3395.00,0.0089
3394.00,0.0089
3393.00,0.0089
3392.00,0.0090
3391.00,0.0090
3390.00,0.0089
3389.00,0.0089
3388.00,0.0089
3387.00,0.0089
3386.00,0.0089
3385.00,0.0089
3384.00,0.0089
3383.00,0.0089
3382.00,0.0089
3381.00,0.0089
3380.00,0.0089
3379.00,0.0089
3378.00,0.0090
3377.00,0.0090
3376.00,0.0090
3375.00,0.0090
3374.00,0.0090
3373.00,0.0090
3372.00,0.0090
3371.00,0.0090
3370.00,0.0090
3369.00,0.0090
3368.00,0.0090
3367.00,0.0090
3366.00,0.0090
3365.00,0.0090
3364.00,0.0090
3363.00,0.0091
3362.00,0.0091
3361.00,0.0091
3360.00,0.0091
3359.00,0.0091
3358.00,0.0091
3357.00,0.0091
3356.00,0.0091
3355.00,0.0091
3354.00,0.0091
3353.00,0.0091
3352.00,0.0091
3351.00,0.0090
3350.00,0.0090
3349.00,0.0090
3348.00,0.0090
3347.00,0.0089
3346.00,0.0089
3345.00,0.0090
3344.00,0.0090
3343.00,0.0090
3342.00,0.0090
3341.00,0.0089
3340.00,0.0089
3339.00,0.0089
3338.00,0.0089
3337.00,0.0089
3336.00,0.0089
3335.00,0.0089
3334.00,0.0089
3333.00,0.0089
3332.00,0.0088
3331.00,0.0088
3330.00,0.0088
3329.00,0.0087
3328.00,0.0087
3327.00,0.0087
3326.00,0.0087
3325.00,0.0088
3324.00,0.0088
3323.00,0.0088
3322.00,0.0088
3321.00,0.0088
3320.00,0.0088
3319.00,0.0088
3318.00,0.0087
3317.00,0.0087
3316.00,0.0087
3315.00,0.0087
3314.00,0.0086
3313.00,0.0086
3312.00,0.0085
3311.00,0.0085
3310.00,0.0085
3309.00,0.0085
3308.00,0.0085
3307.00,0.0085
3306.00,0.0085
3305.00,0.0085
3304.00,0.0085
3303.00,0.0084
3302.00,0.0084
3301.00,0.0084
3300.00,0.0084
3299.00,0.0084
3298.00,0.0083
3297.00,0.0083
3296.00,0.0082
3295.00,0.0082
3294.00,0.0082
3293.00,0.0082
3292.00,0.0082
3291.00,0.0082
3290.00,0.0082
3289.00,0.0082
3288.00,0.0082
3287.00,0.0081
3286.00,0.0081
3285.00,0.0080
3284.00,0.0080
3283.00,0.0080
3282.00,0.0081
3281.00,0.0080
3280.00,0.0080
3279.00,0.0080
3278.00,0.0079
3277.00,0.0079
3276.00,0.0079
3275.00,0.0078
3274.00,0.0078
3273.00,0.0077
3272.00,0.0077
3271.00,0.0077
3270.00,0.0077
3269.00,0.0077
3268.00,0.0076
3267.00,0.0076
3266.00,0.0075
3265.00,0.0075
3264.00,0.0075
3263.00,0.0075
3262.00,0.0075
3261.00,0.0074
3260.00,0.0074
3259.00,0.0074
3258.00,0.0073
3257.00,0.0073
3256.00,0.0072
3255.00,0.0072
3254.00,0.0072
3253.00,0.0071
3252.00,0.0071
3251.00,0.0071
3250.00,0.0071
3249.00,0.0070
3248.00,0.0070
3247.00,0.0070
3246.00,0.0070
3245.00,0.0070
3244.00,0.0070
3243.00,0.0070
3242.00,0.0070
3241.00,0.0069
3240.00,0.0069
3239.00,0.0069
3238.00,0.0069
3237.00,0.0069
3236.00,0.0069
3235.00,0.0069
3234.00,0.0069
3233.00,0.0069
3232.00,0.0069
3231.00,0.0069
3230.00,0.0069
3229.00,0.0069
3228.00,0.0069
3227.00,0.0069
3226.00,0.0069
3225.00,0.0069
3224.00,0.0070
3223.00,0.0070
3222.00,0.0070
3221.00,0.0070
3220.00,0.0070
3219.00,0.0070
3218.00,0.0070
3217.00,0.0070
3216.00,0.0070
3215.00,0.0071
3214.00,0.0071
3213.00,0.0071
3212.00,0.0071
3211.00,0.0071
3210.00,0.0071
3209.00,0.0071
3208.00,0.0071
3207.00,0.0071
3206.00,0.0071
3205.00,0.0071
3204.00,0.0071
3203.00,0.0071
3202.00,0.0070
3201.00,0.0070
3200.00,0.0070
3199.00,0.0070
3198.00,0.0070
3197.00,0.0070
3196.00,0.0070
3195.00,0.0070
3194.00,0.0070
3193.00,0.0070
3192.00,0.0070
3191.00,0.0070
3190.00,0.0069
3189.00,0.0069
3188.00,0.0068
3187.00,0.0068
3186.00,0.0067
3185.00,0.0067
3184.00,0.0066
3183.00,0.0066
3182.00,0.0065
3181.00,0.0064
3180.00,0.0064
3179.00,0.0064
3178.00,0.0064
3177.00,0.0064
3176.00,0.0063
3175.00,0.0063
3174.00,0.0063
3173.00,0.0063
3172.00,0.0062
3171.00,0.0062
3170.00,0.0062
3169.00,0.0061
3168.00,0.0061
3167.00,0.0061
3166.00,0.0060
3165.00,0.0060
3164.00,0.0059
3163.00,0.0059
3162.00,0.0059
3161.00,0.0059
3160.00,0.0059
3159.00,0.0059
3158.00,0.0059
3157.00,0.0059
3156.00,0.0058
3155.00,0.0058
3154.00,0.0058
3153.00,0.0057
3152.00,0.0057
3151.00,0.0057
3150.00,0.0057
3149.00,0.0057
3148.00,0.0056
3147.00,0.0056
3146.00,0.0055
3145.00,0.0055
3144.00,0.0055
3143.00,0.0055
3142.00,0.0055
3141.00,0.0055
3140.00,0.0055
3139.00,0.0055
3138.00,0.0055
3137.00,0.0054
3136.00,0.0054
3135.00,0.0054
3134.00,0.0053
3133.00,0.0053
3132.00,0.0053
3131.00,0.0052
3130.00,0.0052
3129.00,0.0051
3128.00,0.0051
3127.00,0.0051
3126.00,0.0050
3125.00,0.0050
3124.00,0.0050
3123.00,0.0049
3122.00,0.0049
3121.00,0.0048
3120.00,0.0048
3119.00,0.0048
3118.00,0.0047
3117.00,0.0047
3116.00,0.0047
3115.00,0.0047
3114.00,0.0046
3113.00,0.0046
3112.00,0.0046
3111.00,0.0046
3110.00,0.0046
3109.00,0.0046
3108.00,0.0046
3107.00,0.0046
3106.00,0.0045
3105.00,0.0044
3104.00,0.0044
3103.00,0.0044
3102.00,0.0043
3101.00,0.0043
3100.00,0.0043
3099.00,0.0043
3098.00,0.0043
3097.00,0.0043
3096.00,0.0043
3095.00,0.0043
3094.00,0.0042
3093.00,0.0042
3092.00,0.0042
3091.00,0.0042
3090.00,0.0042
3089.00,0.0042
3088.00,0.0041
3087.00,0.0041
3086.00,0.0041
3085.00,0.0041
3084.00,0.0040
3083.00,0.0040
3082.00,0.0040
3081.00,0.0040
3080.00,0.0040
3079.00,0.0040
3078.00,0.0040
3077.00,0.0040
3076.00,0.0040
3075.00,0.0040
3074.00,0.0040
3073.00,0.0040
3072.00,0.0040
3071.00,0.0040
3070.00,0.0040
3069.00,0.0040
3068.00,0.0040
3067.00,0.0040
3066.00,0.0041
3065.00,0.0041
3064.00,0.0041
3063.00,0.0042
3062.00,0.0042
3061.00,0.0042
3060.00,0.0042
3059.00,0.0042
3058.00,0.0042
3057.00,0.0042
3056.00,0.0042
3055.00,0.0042
3054.00,0.0042
3053.00,0.0042
3052.00,0.0042
3051.00,0.0042
3050.00,0.0042
3049.00,0.0042
3048.00,0.0042
3047.00,0.0042
3046.00,0.0042
3045.00,0.0043
3044.00,0.0043
3043.00,0.0043
3042.00,0.0044
3041.00,0.0044
3040.00,0.0044
3039.00,0.0045
3038.00,0.0045
3037.00,0.0045
3036.00,0.0046
3035.00,0.0047
3034.00,0.0047
3033.00,0.0048
3032.00,0.0048
3031.00,0.0048
3030.00,0.0048
3029.00,0.0048
3028.00,0.0049
3027.00,0.0050
3026.00,0.0050
3025.00,0.0051
3024.00,0.0052
3023.00,0.0052
3022.00,0.0052
3021.00,0.0053
3020.00,0.0054
3019.00,0.0055
3018.00,0.0056
3017.00,0.0057
3016.00,0.0057
3015.00,0.0058
3014.00,0.0059
3013.00,0.0060
3012.00,0.0062
3011.00,0.0064
3010.00,0.0066
3009.00,0.0068
3008.00,0.0070
3007.00,0.0072
3006.00,0.0073
3005.00,0.0075
3004.00,0.0077
3003.00,0.0080
3002.00,0.0082
3001.00,0.0084
3000.00,0.0087
2999.00,0.0091
2998.00,0.0094
2997.00,0.0098
2996.00,0.0102
2995.00,0.0106
2994.00,0.0110
2993.00,0.0115
2992.00,0.0121
2991.00,0.0126
2990.00,0.0133
2989.00,0.0140
2988.00,0.0148
2987.00,0.0157
2986.00,0.0167
2985.00,0.0179
2984.00,0.0192
2983.00,0.0206
2982.00,0.0221
2981.00,0.0238
2980.00,0.0257
2979.00,0.0278
2978.00,0.0302
2977.00,0.0329
2976.00,0.0361
2975.00,0.0397
2974.00,0.0438
2973.00,0.0484
2972.00,0.0537
2971.00,0.0595
2970.00,0.0660
2969.00,0.0731
2968.00,0.0807
2967.00,0.0889
2966.00,0.0974
2965.00,0.1060
2964.00,0.1144
2963.00,0.1222
2962.00,0.1292
2961.00,0.1352
2960.00,0.1403
2959.00,0.1447
2958.00,0.1490
2957.00,0.1535
2956.00,0.1587
2955.00,0.1649
2954.00,0.1720
2953.00,0.1795
2952.00,0.1867
2951.00,0.1925
2950.00,0.1958
2949.00,0.1956
2948.00,0.1912
2947.00,0.1828
2946.00,0.1713
2945.00,0.1581
2944.00,0.1448
2943.00,0.1327
2942.00,0.1228
2941.00,0.1156
2940.00,0.1111
2939.00,0.1091
2938.00,0.1094
2937.00,0.1116
2936.00,0.1155
2935.00,0.1211
2934.00,0.1281
2933.00,0.1364
2932.00,0.1459
2931.00,0.1562
2930.00,0.1672
2929.00,0.1784
2928.00,0.1896
2927.00,0.2004
2926.00,0.2106
2925.00,0.2203
2924.00,0.2296
2923.00,0.2386
2922.00,0.2474
2921.00,0.2559
2920.00,0.2634
2919.00,0.2695
2918.00,0.2732
2917.00,0.2738
2916.00,0.2710
2915.00,0.2650
2914.00,0.2565
2913.00,0.2466
2912.00,0.2361
2911.00,0.2258
2910.00,0.2161
2909.00,0.2070
2908.00,0.1985
2907.00,0.1905
2906.00,0.1827
2905.00,0.1750
2904.00,0.1674
2903.00,0.1599
2902.00,0.1526
2901.00,0.1455
2900.00,0.1387
2899.00,0.1324
2898.00,0.1266
2897.00,0.1213
2896.00,0.1167
2895.00,0.1127
2894.00,0.1095
2893.00,0.1071
2892.00,0.1053
2891.00,0.1042
2890.00,0.1036
2889.00,0.1036
2888.00,0.1039
2887.00,0.1047
2886.00,0.1059
2885.00,0.1075
2884.00,0.1096
2883.00,0.1122
2882.00,0.1154
2881.00,0.1189
2880.00,0.1225
2879.00,0.1257
2878.00,0.1281
2877.00,0.1293
2876.00,0.1294
2875.00,0.1287
2874.00,0.1278
2873.00,0.1273
2872.00,0.1275
2871.00,0.1286
2870.00,0.1304
2869.00,0.1324
2868.00,0.1339
2867.00,0.1340
2866.00,0.1317
2865.00,0.1267
2864.00,0.1192
2863.00,0.1099
2862.00,0.1001
2861.00,0.0908
2860.00,0.0826
2859.00,0.0759
2858.00,0.0708
2857.00,0.0671
2856.00,0.0645
2855.00,0.0628
2854.00,0.0618
2853.00,0.0615
2852.00,0.0617
2851.00,0.0625
2850.00,0.0639
2849.00,0.0660
2848.00,0.0688
2847.00,0.0726
2846.00,0.0772
2845.00,0.0828
2844.00,0.0892
2843.00,0.0963
2842.00,0.1038
2841.00,0.1112
2840.00,0.1176
2839.00,0.1222
2838.00,0.1240
2837.00,0.1225
2836.00,0.1173
2835.00,0.1090
2834.00,0.0986
2833.00,0.0874
2832.00,0.0764
2831.00,0.0664
2830.00,0.0580
2829.00,0.0511
2828.00,0.0455
2827.00,0.0410
2826.00,0.0373
2825.00,0.0344
2824.00,0.0319
2823.00,0.0298
2822.00,0.0280
2821.00,0.0265
2820.00,0.0252
2819.00,0.0241
2818.00,0.0231
2817.00,0.0223
2816.00,0.0215
2815.00,0.0208
2814.00,0.0202
2813.00,0.0197
2812.00,0.0191
2811.00,0.0186
2810.00,0.0180
2809.00,0.0174
2808.00,0.0168
2807.00,0.0162
2806.00,0.0155
2805.00,0.0148
2804.00,0.0142
2803.00,0.0136
2802.00,0.0130
2801.00,0.0125
2800.00,0.0121
2799.00,0.0117
2798.00,0.0115
2797.00,0.0112
2796.00,0.0110
2795.00,0.0108
2794.00,0.0105
2793.00,0.0102
2792.00,0.0099
2791.00,0.0096
2790.00,0.0093
2789.00,0.0089
2788.00,0.0087
2787.00,0.0084
2786.00,0.0081
2785.00,0.0079
2784.00,0.0077
2783.00,0.0074
2782.00,0.0072
2781.00,0.0070
2780.00,0.0069
2779.00,0.0068
2778.00,0.0066
2777.00,0.0065
2776.00,0.0064
2775.00,0.0063
2774.00,0.0062
2773.00,0.0061
2772.00,0.0060
2771.00,0.0059
2770.00,0.0059
2769.00,0.0059
2768.00,0.0059
2767.00,0.0059
2766.00,0.0059
2765.00,0.0058
2764.00,0.0058
2763.00,0.0057
2762.00,0.0057
2761.00,0.0056
2760.00,0.0056
2759.00,0.0056
2758.00,0.0056
2757.00,0.0056
2756.00,0.0055
2755.00,0.0055
2754.00,0.0055
2753.00,0.0055
2752.00,0.0055
2751.00,0.0055
2750.00,0.0054
2749.00,0.0054
2748.00,0.0054
2747.00,0.0054
2746.00,0.0055
2745.00,0.0055
2744.00,0.0056
2743.00,0.0057
2742.00,0.0058
2741.00,0.0060
2740.00,0.0061
2739.00,0.0062
2738.00,0.0064
2737.00,0.0065
2736.00,0.0066
2735.00,0.0068
2734.00,0.0069
2733.00,0.0071
2732.00,0.0074
2731.00,0.0076
2730.00,0.0078
2729.00,0.0080
2728.00,0.0083
2727.00,0.0086
2726.00,0.0089
2725.00,0.0092
2724.00,0.0093
2723.00,0.0093
2722.00,0.0092
2721.00,0.0090
2720.00,0.0087
2719.00,0.0083
2718.00,0.0080
2717.00,0.0076
2716.00,0.0073
2715.00,0.0071
2714.00,0.0068
2713.00,0.0066
2712.00,0.0064
2711.00,0.0062
2710.00,0.0060
2709.00,0.0058
2708.00,0.0056
2707.00,0.0055
2706.00,0.0054
2705.00,0.0052
2704.00,0.0051
2703.00,0.0050
2702.00,0.0049
2701.00,0.0048
2700.00,0.0048
2699.00,0.0048
2698.00,0.0047
2697.00,0.0047
2696.00,0.0046
2695.00,0.0046
2694.00,0.0046
2693.00,0.0046
2692.00,0.0046
2691.00,0.0047
2690.00,0.0047
2689.00,0.0047
2688.00,0.0046
2687.00,0.0046
2686.00,0.0046
2685.00,0.0046
2684.00,0.0046
2683.00,0.0046
2682.00,0.0046
2681.00,0.0047
2680.00,0.0047
2679.00,0.0047
2678.00,0.0047
2677.00,0.0047
2676.00,0.0047
2675.00,0.0047
2674.00,0.0046
2673.00,0.0046
2672.00,0.0046
2671.00,0.0046
2670.00,0.0046
2669.00,0.0046
2668.00,0.0046
2667.00,0.0046
2666.00,0.0047
2665.00,0.0048
2664.00,0.0048
2663.00,0.0049
2662.00,0.0049
2661.00,0.0049
2660.00,0.0049
2659.00,0.0049
2658.00,0.0049
2657.00,0.0049
2656.00,0.0048
2655.00,0.0048
2654.00,0.0047
2653.00,0.0046
2652.00,0.0046
2651.00,0.0045
2650.00,0.0044
2649.00,0.0044
2648.00,0.0043
2647.00,0.0043
2646.00,0.0042
2645.00,0.0042
2644.00,0.0041
2643.00,0.0041
2642.00,0.0041
2641.00,0.0041
2640.00,0.0040
2639.00,0.0039
2638.00,0.0038
2637.00,0.0038
2636.00,0.0038
2635.00,0.0038
2634.00,0.0038
2633.00,0.0038
2632.00,0.0039
2631.00,0.0039
2630.00,0.0039
2629.00,0.0039
2628.00,0.0040
2627.00,0.0040
2626.00,0.0040
2625.00,0.0040
2624.00,0.0041
2623.00,0.0041
2622.00,0.0041
2621.00,0.0042
2620.00,0.0041
2619.00,0.0041
2618.00,0.0041
2617.00,0.0040
2616.00,0.0041
2615.00,0.0041
2614.00,0.0041
2613.00,0.0041
2612.00,0.0040
2611.00,0.0039
2610.00,0.0039
2609.00,0.0038
2608.00,0.0037
2607.00,0.0036
2606.00,0.0035
2605.00,0.0035
2604.00,0.0034
2603.00,0.0033
2602.00,0.0033
2601.00,0.0033
2600.00,0.0033
2599.00,0.0033
2598.00,0.0033
2597.00,0.0033
2596.00,0.0033
2595.00,0.0033
2594.00,0.0033
2593.00,0.0034
2592.00,0.0034
2591.00,0.0035
2590.00,0.0036
2589.00,0.0037
2588.00,0.0038
2587.00,0.0039
2586.00,0.0040
2585.00,0.0041
2584.00,0.0041
2583.00,0.0041
2582.00,0.0041
2581.00,0.0040
2580.00,0.0039
2579.00,0.0038
2578.00,0.0038
2577.00,0.0037
2576.00,0.0037
2575.00,0.0036
2574.00,0.0035
2573.00,0.0034
2572.00,0.0032
2571.00,0.0031
2570.00,0.0030
2569.00,0.0029
2568.00,0.0029
2567.00,0.0028
2566.00,0.0028
2565.00,0.0027
2564.00,0.0026
2563.00,0.0026
2562.00,0.0025
2561.00,0.0025
2560.00,0.0024
2559.00,0.0024
2558.00,0.0023
2557.00,0.0023
2556.00,0.0023
2555.00,0.0023
2554.00,0.0023
2553.00,0.0023
2552.00,0.0022
2551.00,0.0022
2550.00,0.0021
2549.00,0.0021
2548.00,0.0021
2547.00,0.0021
2546.00,0.0020
2545.00,0.0020
2544.00,0.0019
2543.00,0.0018
2542.00,0.0017
2541.00,0.0017
2540.00,0.0018
2539.00,0.0018
2538.00,0.0018
2537.00,0.0017
2536.00,0.0017
2535.00,0.0017
2534.00,0.0017
2533.00,0.0017
2532.00,0.0016
2531.00,0.0016
2530.00,0.0015
2529.00,0.0015
2528.00,0.0015
2527.00,0.0015
2526.00,0.0015
2525.00,0.0015
2524.00,0.0015
2523.00,0.0015
2522.00,0.0015
2521.00,0.0014
2520.00,0.0014
2519.00,0.0014
2518.00,0.0013
2517.00,0.0013
2516.00,0.0013
2515.00,0.0012
2514.00,0.0012
2513.00,0.0011
2512.00,0.0011
2511.00,0.0011
2510.00,0.0011
2509.00,0.0012
2508.00,0.0012
2507.00,0.0013
2506.00,0.0013
2505.00,0.0012
2504.00,0.0012
2503.00,0.0011
2502.00,0.0011
2501.00,0.0011
2500.00,0.0011
2499.00,0.0011
2498.00,0.0011
2497.00,0.0011
2496.00,0.0011
2495.00,0.0011
2494.00,0.0011
2493.00,0.0011
2492.00,0.0012
2491.00,0.0013
2490.00,0.0013
2489.00,0.0012
2488.00,0.0012
2487.00,0.0010
2486.00,0.0010
2485.00,0.0010
2484.00,0.0010
2483.00,0.0011
2482.00,0.0011
2481.00,0.0011
2480.00,0.0011
2479.00,0.0010
2478.00,0.0009
2477.00,0.0009
2476.00,0.0009
2475.00,0.0010
2474.00,0.0011
2473.00,0.0012
2472.00,0.0012
2471.00,0.0011
2470.00,0.0011
2469.00,0.0011
2468.00,0.0011
2467.00,0.0011
2466.00,0.0011
2465.00,0.0011
2464.00,0.0011
2463.00,0.0011
2462.00,0.0011
2461.00,0.0011
2460.00,0.0011
2459.00,0.0011
2458.00,0.0011
2457.00,0.0010
2456.00,0.0011
2455.00,0.0011
2454.00,0.0012
2453.00,0.0014
2452.00,0.0014
2451.00,0.0014
2450.00,0.0013
2449.00,0.0012
2448.00,0.0011
2447.00,0.0011
2446.00,0.0010
2445.00,0.0010
2444.00,0.0010
2443.00,0.0010
2442.00,0.0010
2441.00,0.0010
2440.00,0.0011
2439.00,0.0011
2438.00,0.0011
2437.00,0.0011
2436.00,0.0012
2435.00,0.0012
2434.00,0.0013
2433.00,0.0013
2432.00,0.0013
2431.00,0.0013
2430.00,0.0013
2429.00,0.0013
2428.00,0.0013
2427.00,0.0013
2426.00,0.0013
2425.00,0.0014
2424.00,0.0013
2423.00,0.0013
2422.00,0.0011
2421.00,0.0011
2420.00,0.0010
2419.00,0.0010
2418.00,0.0010
2417.00,0.0011
2416.00,0.0011
2415.00,0.0011
2414.00,0.0011
2413.00,0.0011
2412.00,0.0011
2411.00,0.0011
2410.00,0.0011
2409.00,0.0012
2408.00,0.0012
2407.00,0.0011
2406.00,0.0011
2405.00,0.0011
2404.00,0.0011
2403.00,0.0011
2402.00,0.0011
2401.00,0.0011
2400.00,0.0011
2399.00,0.0011
2398.00,0.0010
2397.00,0.0010
2396.00,0.0010
2395.00,0.0010
2394.00,0.0010
2393.00,0.0009
2392.00,0.0009
2391.00,0.0009
2390.00,0.0009
2389.00,0.0009
2388.00,0.0008
2387.00,0.0008
2386.00,0.0008
2385.00,0.0008
2384.00,0.0008
2383.00,0.0007
2382.00,0.0007
2381.00,0.0007
2380.00,0.0007
2379.00,0.0007
2378.00,0.0006
2377.00,0.0006
2376.00,0.0006
2375.00,0.0006
2374.00,0.0006
2373.00,0.0006
2372.00,0.0006
2371.00,0.0006
2370.00,0.0006
2369.00,0.0005
2368.00,0.0005
2367.00,0.0004
2366.00,0.0005
2365.00,0.0005
2364.00,0.0006
2363.00,0.0006
2362.00,0.0006
2361.00,0.0006
2360.00,0.0006
2359.00,0.0006
2358.00,0.0006
2357.00,0.0005
2356.00,0.0005
2355.00,0.0005
2354.00,0.0004
2353.00,0.0003
2352.00,0.0003
2351.00,0.0002
2350.00,0.0002
2349.00,0.0003
2348.00,0.0005
2347.00,0.0007
2346.00,0.0009
2345.00,0.0011
2344.00,0.0011
2343.00,0.0010
2342.00,0.0009
2341.00,0.0008
2340.00,0.0007
2339.00,0.0007
2338.00,0.0007
2337.00,0.0007
2336.00,0.0008
2335.00,0.0008
2334.00,0.0008
2333.00,0.0007
2332.00,0.0006
2331.00,0.0006
2330.00,0.0005
2329.00,0.0005
2328.00,0.0006
2327.00,0.0009
2326.00,0.0014
2325.00,0.0018
2324.00,0.0020
2323.00,0.0019
2322.00,0.0017
2321.00,0.0014
2320.00,0.0012
2319.00,0.0010
2318.00,0.0009
2317.00,0.0009
2316.00,0.0009
2315.00,0.0009
2314.00,0.0008
2313.00,0.0007
2312.00,0.0007
2311.00,0.0006
2310.00,0.0005
2309.00,0.0005
2308.00,0.0006
2307.00,0.0006
2306.00,0.0006
2305.00,0.0006
2304.00,0.0007
2303.00,0.0007
2302.00,0.0008
2301.00,0.0009
2300.00,0.0010
2299.00,0.0011
2298.00,0.0011
2297.00,0.0010
2296.00,0.0010
2295.00,0.0010
2294.00,0.0011
2293.00,0.0012
2292.00,0.0013
2291.00,0.0015
2290.00,0.0016
2289.00,0.0017
2288.00,0.0018
2287.00,0.0018
2286.00,0.0018
2285.00,0.0018
2284.00,0.0018
2283.00,0.0017
2282.00,0.0016
2281.00,0.0016
2280.00,0.0016
2279.00,0.0015
2278.00,0.0014
2277.00,0.0014
2276.00,0.0013
2275.00,0.0014
2274.00,0.0014
2273.00,0.0014
2272.00,0.0014
2271.00,0.0014
2270.00,0.0013
2269.00,0.0013
2268.00,0.0013
2267.00,0.0012
2266.00,0.0010
2265.00,0.0009
2264.00,0.0008
2263.00,0.0008
2262.00,0.0009
2261.00,0.0011
2260.00,0.0013
2259.00,0.0014
2258.00,0.0015
2257.00,0.0014
2256.00,0.0012
2255.00,0.0010
2254.00,0.0009
2253.00,0.0009
2252.00,0.0009
2251.00,0.0010
2250.00,0.0010
2249.00,0.0009
2248.00,0.0008
2247.00,0.0008
2246.00,0.0007
2245.00,0.0008
2244.00,0.0009
2243.00,0.0009
2242.00,0.0009
2241.00,0.0010
2240.00,0.0010
2239.00,0.0010
2238.00,0.0010
2237.00,0.0011
2236.00,0.0013
2235.00,0.0015
2234.00,0.0016
2233.00,0.0016
2232.00,0.0015
2231.00,0.0014
2230.00,0.0012
2229.00,0.0011
2228.00,0.0010
2227.00,0.0010
2226.00,0.0010
2225.00,0.0009
2224.00,0.0008
2223.00,0.0006
2222.00,0.0005
2221.00,0.0006
2220.00,0.0007
2219.00,0.0008
2218.00,0.0008
2217.00,0.0007
2216.00,0.0007
2215.00,0.0006
2214.00,0.0005
2213.00,0.0005
2212.00,0.0005
2211.00,0.0004
2210.00,0.0003
2209.00,0.0001
2208.00,0.0001
2207.00,0.0002
2206.00,0.0004
2205.00,0.0007
2204.00,0.0008
2203.00,0.0007
2202.00,0.0006
2201.00,0.0006
2200.00,0.0007
2199.00,0.0008
2198.00,0.0009
2197.00,0.0011
2196.00,0.0014
2195.00,0.0017
2194.00,0.0018
2193.00,0.0017
2192.00,0.0015
2191.00,0.0013
2190.00,0.0010
2189.00,0.0009
2188.00,0.0009
2187.00,0.0010
2186.00,0.0011
2185.00,0.0011
2184.00,0.0011
2183.00,0.0008
2182.00,0.0006
2181.00,0.0005
2180.00,0.0006
2179.00,0.0008
2178.00,0.0009
2177.00,0.0010
2176.00,0.0010
2175.00,0.0009
2174.00,0.0008
2173.00,0.0008
2172.00,0.0010
2171.00,0.0012
2170.00,0.0015
2169.00,0.0018
2168.00,0.0020
2167.00,0.0021
2166.00,0.0021
2165.00,0.0021
2164.00,0.0020
2163.00,0.0020
2162.00,0.0018
2161.00,0.0013
2160.00,0.0004
2159.00,-0.0007
2158.00,-0.0016
2157.00,-0.0022
2156.00,-0.0023
2155.00,-0.0021
2154.00,-0.0020
2153.00,-0.0017
2152.00,-0.0015
2151.00,-0.0013
2150.00,-0.0011
2149.00,-0.0011
2148.00,-0.0013
2147.00,-0.0014
2146.00,-0.0013
2145.00,-0.0010
2144.00,-0.0008
2143.00,-0.0008
2142.00,-0.0010
2141.00,-0.0011
2140.00,-0.0009
2139.00,-0.0008
2138.00,-0.0007
2137.00,-0.0008
2136.00,-0.0011
2135.00,-0.0014
2134.00,-0.0016
2133.00,-0.0016
2132.00,-0.0014
2131.00,-0.0012
2130.00,-0.0011
2129.00,-0.0009
2128.00,-0.0007
2127.00,-0.0006
2126.00,-0.0004
2125.00,-0.0004
2124.00,-0.0004
2123.00,-0.0005
2122.00,-0.0005
2121.00,-0.0005
2120.00,-0.0005
2119.00,-0.0005
2118.00,-0.0004
2117.00,-0.0002
2116.00,0.0001
2115.00,0.0004
2114.00,0.0006
2113.00,0.0006
2112.00,0.0005
2111.00,0.0004
2110.00,0.0003
2109.00,0.0003
2108.00,0.0004
2107.00,0.0005
2106.00,0.0005
2105.00,0.0006
2104.00,0.0005
2103.00,0.0005
2102.00,0.0004
2101.00,0.0004
2100.00,0.0005
2099.00,0.0006
2098.00,0.0007
2097.00,0.0006
2096.00,0.0004
2095.00,0.0001
2094.00,-0.0001
2093.00,-0.0002
2092.00,-0.0002
2091.00,-0.0001
2090.00,-0.0000
2089.00,0.0000
2088.00,0.0001
2087.00,0.0001
2086.00,0.0001
2085.00,0.0001
2084.00,0.0002
2083.00,0.0004
2082.00,0.0005
2081.00,0.0006
2080.00,0.0007
2079.00,0.0006
2078.00,0.0004
2077.00,0.0003
2076.00,0.0002
2075.00,0.0001
2074.00,0.0001
2073.00,0.0002
2072.00,0.0002
2071.00,0.0003
2070.00,0.0003
2069.00,0.0003
2068.00,0.0003
2067.00,0.0002
2066.00,0.0002
2065.00,0.0001
2064.00,0.0000
2063.00,-0.0001
2062.00,-0.0001
2061.00,-0.0001
2060.00,0.0000
2059.00,0.0003
2058.00,0.0005
2057.00,0.0008
2056.00,0.0008
2055.00,0.0008
2054.00,0.0008
2053.00,0.0010
2052.00,0.0013
2051.00,0.0016
2050.00,0.0016
2049.00,0.0013
2048.00,0.0009
2047.00,0.0005
2046.00,0.0003
2045.00,0.0003
2044.00,0.0003
2043.00,0.0004
2042.00,0.0003
2041.00,0.0001
2040.00,0.0000
2039.00,-0.0001
2038.00,-0.0001
2037.00,-0.0000
2036.00,-0.0000
2035.00,-0.0000
2034.00,-0.0001
2033.00,-0.0002
2032.00,-0.0003
2031.00,-0.0005
2030.00,-0.0007
2029.00,-0.0009
2028.00,-0.0009
2027.00,-0.0010
2026.00,-0.0009
2025.00,-0.0008
2024.00,-0.0006
2023.00,-0.0004
2022.00,-0.0004
2021.00,-0.0004
2020.00,-0.0005
2019.00,-0.0008
2018.00,-0.0011
2017.00,-0.0011
2016.00,-0.0009
2015.00,-0.0006
2014.00,-0.0003
2013.00,-0.0002
2012.00,-0.0003
2011.00,-0.0005
2010.00,-0.0008
2009.00,-0.0011
2008.00,-0.0013
2007.00,-0.0014
2006.00,-0.0014
2005.00,-0.0013
2004.00,-0.0014
2003.00,-0.0016
2002.00,-0.0018
2001.00,-0.0017
2000.00,-0.0015
1999.00,-0.0012
1998.00,-0.0011
1997.00,-0.0010
1996.00,-0.0009
1995.00,-0.0009
1994.00,-0.0008
1993.00,-0.0007
1992.00,-0.0005
1991.00,-0.0003
1990.00,-0.0001
1989.00,0.0001
1988.00,0.0002
1987.00,0.0003
1986.00,0.0005
1985.00,0.0006
1984.00,0.0009
1983.00,0.0010
1982.00,0.0010
1981.00,0.0009
1980.00,0.0008
1979.00,0.0006
1978.00,0.0003
1977.00,0.0000
1976.00,-0.0003
1975.00,-0.0004
1974.00,-0.0003
1973.00,-0.0001
1972.00,-0.0001
1971.00,-0.0003
1970.00,-0.0005
1969.00,-0.0005
1968.00,-0.0005
1967.00,-0.0006
1966.00,-0.0009
1965.00,-0.0011
1964.00,-0.0012
1963.00,-0.0011
1962.00,-0.0013
1961.00,-0.0017
1960.00,-0.0021
1959.00,-0.0024
1958.00,-0.0024
1957.00,-0.0023
1956.00,-0.0021
1955.00,-0.0018
1954.00,-0.0015
1953.00,-0.0013
1952.00,-0.0012
1951.00,-0.0012
1950.00,-0.0012
1949.00,-0.0012
1948.00,-0.0012
1947.00,-0.0012
1946.00,-0.0013
1945.00,-0.0014
1944.00,-0.0014
1943.00,-0.0014
1942.00,-0.0013
1941.00,-0.0012
1940.00,-0.0012
1939.00,-0.0012
1938.00,-0.0011
1937.00,-0.0010
1936.00,-0.0009
1935.00,-0.0007
1934.00,-0.0007
1933.00,-0.0007
1932.00,-0.0009
1931.00,-0.0009
1930.00,-0.0008
1929.00,-0.0007
1928.00,-0.0005
1927.00,-0.0005
1926.00,-0.0004
1925.00,-0.0003
1924.00,-0.0003
1923.00,-0.0003
1922.00,-0.0003
1921.00,-0.0004
1920.00,-0.0004
1919.00,-0.0003
1918.00,-0.0002
1917.00,-0.0001
1916.00,-0.0001
1915.00,-0.0000
1914.00,0.0000
1913.00,0.0001
1912.00,0.0002
1911.00,0.0002
1910.00,0.0003
1909.00,0.0002
1908.00,0.0001
1907.00,0.0000
1906.00,-0.0000
1905.00,-0.0001
1904.00,-0.0000
1903.00,0.0000
1902.00,0.0001
1901.00,0.0001
1900.00,0.0001
1899.00,0.0001
1898.00,0.0001
1897.00,0.0002
1896.00,0.0003
1895.00,0.0003
1894.00,0.0003
1893.00,0.0003
1892.00,0.0002
1891.00,0.0001
1890.00,0.0000
1889.00,-0.0000
1888.00,-0.0000
1887.00,0.0000
1886.00,0.0000
1885.00,0.0001
1884.00,0.0001
1883.00,0.0001
1882.00,0.0001
1881.00,0.0001
1880.00,0.0001
1879.00,0.0001
1878.00,0.0000
1877.00,0.0000
1876.00,0.0001
1875.00,0.0001
1874.00,0.0001
1873.00,0.0001
1872.00,0.0001
1871.00,0.0002
1870.00,0.0004
1869.00,0.0004
1868.00,0.0004
1867.00,0.0003
1866.00,0.0002
1865.00,0.0002
1864.00,0.0002
1863.00,0.0003
1862.00,0.0004
1861.00,0.0003
1860.00,0.0003
1859.00,0.0002
1858.00,0.0002
1857.00,0.0002
1856.00,0.0002
1855.00,0.0001
1854.00,0.0001
1853.00,0.0001
1852.00,0.0001
1851.00,0.0002
1850.00,0.0003
1849.00,0.0003
1848.00,0.0004
1847.00,0.0004
1846.00,0.0004
1845.00,0.0003
1844.00,0.0003
1843.00,0.0003
1842.00,0.0003
1841.00,0.0003
1840.00,0.0003
1839.00,0.0003
1838.00,0.0003
1837.00,0.0004
1836.00,0.0004
1835.00,0.0004
1834.00,0.0004
1833.00,0.0004
1832.00,0.0004
1831.00,0.0003
1830.00,0.0003
1829.00,0.0004
1828.00,0.0005
1827.00,0.0005
1826.00,0.0005
1825.00,0.0005
1824.00,0.0005
1823.00,0.0005
1822.00,0.0005
1821.00,0.0005
1820.00,0.0005
1819.00,0.0004
1818.00,0.0003
1817.00,0.0002
1816.00,0.0002
1815.00,0.0002
1814.00,0.0002
1813.00,0.0003
1812.00,0.0003
1811.00,0.0004
1810.00,0.0004
1809.00,0.0005
1808.00,0.0005
1807.00,0.0005
1806.00,0.0005
1805.00,0.0005
1804.00,0.0005
1803.00,0.0006
1802.00,0.0006
1801.00,0.0006
1800.00,0.0007
1799.00,0.0007
1798.00,0.0008
1797.00,0.0008
1796.00,0.0008
1795.00,0.0008
1794.00,0.0007
1793.00,0.0007
1792.00,0.0007
1791.00,0.0007
1790.00,0.0007
1789.00,0.0008
1788.00,0.0008
1787.00,0.0009
1786.00,0.0009
1785.00,0.0009
1784.00,0.0010
1783.00,0.0010
1782.00,0.0011
1781.00,0.0011
1780.00,0.0010
1779.00,0.0010
1778.00,0.0009
1777.00,0.0009
1776.00,0.0010
1775.00,0.0010
1774.00,0.0010
1773.00,0.0010
1772.00,0.0011
1771.00,0.0011
1770.00,0.0012
1769.00,0.0012
1768.00,0.0012
1767.00,0.0011
1766.00,0.0012
1765.00,0.0012
1764.00,0.0013
1763.00,0.0013
1762.00,0.0013
1761.00,0.0014
1760.00,0.0014
1759.00,0.0014
1758.00,0.0014
1757.00,0.0015
1756.00,0.0015
1755.00,0.0015
1754.00,0.0015
1753.00,0.0016
1752.00,0.0017
1751.00,0.0018
1750.00,0.0019
1749.00,0.0019
1748.00,0.0019
1747.00,0.0019
1746.00,0.0019
1745.00,0.0020
1744.00,0.0021
1743.00,0.0021
1742.00,0.0022
1741.00,0.0022
1740.00,0.0023
1739.00,0.0023
1738.00,0.0024
1737.00,0.0024
1736.00,0.0025
1735.00,0.0025
1734.00,0.0025
1733.00,0.0026
1732.00,0.0027
1731.00,0.0027
1730.00,0.0027
1729.00,0.0026
1728.00,0.0026
1727.00,0.0026
1726.00,0.0026
1725.00,0.0026
1724.00,0.0026
1723.00,0.0026
1722.00,0.0026
1721.00,0.0026
1720.00,0.0026
1719.00,0.0026
1718.00,0.0026
1717.00,0.0027
1716.00,0.0027
1715.00,0.0027
1714.00,0.0026
1713.00,0.0027
1712.00,0.0027
1711.00,0.0027
1710.00,0.0028
1709.00,0.0028
1708.00,0.0028
1707.00,0.0029
1706.00,0.0029
1705.00,0.0030
1704.00,0.0030
1703.00,0.0031
1702.00,0.0031
1701.00,0.0032
1700.00,0.0033
1699.00,0.0034
1698.00,0.0035
1697.00,0.0035
1696.00,0.0035
1695.00,0.0036
1694.00,0.0037
1693.00,0.0038
1692.00,0.0039
1691.00,0.0039
1690.00,0.0039
1689.00,0.0040
1688.00,0.0041
1687.00,0.0041
1686.00,0.0042
1685.00,0.0044
1684.00,0.0047
1683.00,0.0049
1682.00,0.0051
1681.00,0.0052
1680.00,0.0053
1679.00,0.0054
1678.00,0.0054
1677.00,0.0055
1676.00,0.0056
1675.00,0.0057
1674.00,0.0059
1673.00,0.0060
1672.00,0.0061
1671.00,0.0062
1670.00,0.0063
1669.00,0.0065
1668.00,0.0067
1667.00,0.0068
1666.00,0.0069
1665.00,0.0069
1664.00,0.0070
1663.00,0.0071
1662.00,0.0071
1661.00,0.0072
1660.00,0.0073
1659.00,0.0074
1658.00,0.0075
1657.00,0.0076
1656.00,0.0077
1655.00,0.0078
1654.00,0.0078
1653.00,0.0080
1652.00,0.0084
1651.00,0.0086
1650.00,0.0086
1649.00,0.0086
1648.00,0.0087
1647.00,0.0088
1646.00,0.0089
1645.00,0.0090
1644.00,0.0090
1643.00,0.0090
1642.00,0.0090
1641.00,0.0090
1640.00,0.0090
1639.00,0.0091
1638.00,0.0091
1637.00,0.0091
1636.00,0.0090
1635.00,0.0090
1634.00,0.0090
1633.00,0.0090
1632.00,0.0090
1631.00,0.0090
1630.00,0.0089
1629.00,0.0088
1628.00,0.0087
1627.00,0.0086
1626.00,0.0086
1625.00,0.0086
1624.00,0.0085
1623.00,0.0085
1622.00,0.0085
1621.00,0.0085
1620.00,0.0086
1619.00,0.0085
1618.00,0.0085
1617.00,0.0084
1616.00,0.0084
1615.00,0.0083
1614.00,0.0083
1613.00,0.0083
1612.00,0.0083
1611.00,0.0083
1610.00,0.0084
1609.00,0.0084
1608.00,0.0084
1607.00,0.0084
1606.00,0.0084
1605.00,0.0084
1604.00,0.0084
1603.00,0.0084
1602.00,0.0084
1601.00,0.0084
1600.00,0.0083
1599.00,0.0083
1598.00,0.0082
1597.00,0.0081
1596.00,0.0081
1595.00,0.0080
1594.00,0.0080
1593.00,0.0079
1592.00,0.0079
1591.00,0.0078
1590.00,0.0078
1589.00,0.0078
1588.00,0.0077
1587.00,0.0077
1586.00,0.0077
1585.00,0.0077
1584.00,0.0077
1583.00,0.0077
1582.00,0.0077
1581.00,0.0078
1580.00,0.0078
1579.00,0.0078
1578.00,0.0078
1577.00,0.0078
1576.00,0.0078
1575.00,0.0078
1574.00,0.0078
1573.00,0.0078
1572.00,0.0078
1571.00,0.0077
1570.00,0.0076
1569.00,0.0076
1568.00,0.0077
1567.00,0.0077
1566.00,0.0078
1565.00,0.0078
1564.00,0.0079
1563.00,0.0079
1562.00,0.0079
1561.00,0.0079
1560.00,0.0080
1559.00,0.0080
1558.00,0.0082
1557.00,0.0084
1556.00,0.0085
1555.00,0.0085
1554.00,0.0085
1553.00,0.0086
1552.00,0.0087
1551.00,0.0087
1550.00,0.0087
1549.00,0.0087
1548.00,0.0087
1547.00,0.0088
1546.00,0.0088
1545.00,0.0088
1544.00,0.0089
1543.00,0.0090
1542.00,0.0090
1541.00,0.0091
1540.00,0.0090
1539.00,0.0089
1538.00,0.0087
1537.00,0.0086
1536.00,0.0085
1535.00,0.0083
1534.00,0.0081
1533.00,0.0079
1532.00,0.0078
1531.00,0.0077
1530.00,0.0076
1529.00,0.0074
1528.00,0.0073
1527.00,0.0072
1526.00,0.0070
1525.00,0.0070
1524.00,0.0070
1523.00,0.0069
1522.00,0.0068
1521.00,0.0067
1520.00,0.0067
1519.00,0.0067
1518.00,0.0066
1517.00,0.0066
1516.00,0.0066
1515.00,0.0066
1514.00,0.0065
1513.00,0.0066
1512.00,0.0067
1511.00,0.0068
1510.00,0.0068
1509.00,0.0069
1508.00,0.0070
1507.00,0.0070
1506.00,0.0071
1505.00,0.0072
1504.00,0.0074
1503.00,0.0075
1502.00,0.0077
1501.00,0.0079
1500.00,0.0083
1499.00,0.0086
1498.00,0.0090
1497.00,0.0096
1496.00,0.0101
1495.00,0.0105
1494.00,0.0108
1493.00,0.0112
1492.00,0.0116
1491.00,0.0119
1490.00,0.0122
1489.00,0.0126
1488.00,0.0131
1487.00,0.0135
1486.00,0.0140
1485.00,0.0145
1484.00,0.0151
1483.00,0.0158
1482.00,0.0166
1481.00,0.0176
1480.00,0.0188
1479.00,0.0200
1478.00,0.0214
1477.00,0.0233
1476.00,0.0255
1475.00,0.0280
1474.00,0.0316
1473.00,0.0369
1472.00,0.0435
1471.00,0.0500
1470.00,0.0564
1469.00,0.0630
1468.00,0.0703
1467.00,0.0783
1466.00,0.0875
1465.00,0.0975
1464.00,0.1065
1463.00,0.1129
1462.00,0.1173
1461.00,0.1204
1460.00,0.1226
1459.00,0.1241
1458.00,0.1252
1457.00,0.1261
1456.00,0.1264
1455.00,0.1260
1454.00,0.1250
1453.00,0.1234
1452.00,0.1206
1451.00,0.1166
1450.00,0.1110
1449.00,0.1033
1448.00,0.0934
1447.00,0.0831
1446.00,0.0739
1445.00,0.0663
1444.00,0.0599
1443.00,0.0547
1442.00,0.0510
1441.00,0.0485
1440.00,0.0471
1439.00,0.0467
1438.00,0.0471
1437.00,0.0475
1436.00,0.0466
1435.00,0.0439
1434.00,0.0399
1433.00,0.0351
1432.00,0.0301
1431.00,0.0257
1430.00,0.0224
1429.00,0.0200
1428.00,0.0184
1427.00,0.0174
1426.00,0.0169
1425.00,0.0164
1424.00,0.0158
1423.00,0.0155
1422.00,0.0154
1421.00,0.0152
1420.00,0.0149
1419.00,0.0147
1418.00,0.0146
1417.00,0.0143
1416.00,0.0141
1415.00,0.0139
1414.00,0.0139
1413.00,0.0137
1412.00,0.0136
1411.00,0.0135
1410.00,0.0135
1409.00,0.0134
1408.00,0.0133
1407.00,0.0133
1406.00,0.0134
1405.00,0.0134
1404.00,0.0134
1403.00,0.0135
1402.00,0.0137
1401.00,0.0139
1400.00,0.0140
1399.00,0.0141
1398.00,0.0143
1397.00,0.0145
1396.00,0.0148
1395.00,0.0152
1394.00,0.0158
1393.00,0.0164
1392.00,0.0170
1391.00,0.0179
1390.00,0.0191
1389.00,0.0208
1388.00,0.0234
1387.00,0.0273
1386.00,0.0325
1385.00,0.0390
1384.00,0.0476
1383.00,0.0593
1382.00,0.0749
1381.00,0.0953
1380.00,0.1210
1379.00,0.1509
1378.00,0.1803
1377.00,0.2026
1376.00,0.2112
1375.00,0.2019
1374.00,0.1771
1373.00,0.1465
1372.00,0.1182
1371.00,0.0948
1370.00,0.0760
1369.00,0.0616
1368.00,0.0516
1367.00,0.0455
1366.00,0.0422
1365.00,0.0409
1364.00,0.0412
1363.00,0.0428
1362.00,0.0453
1361.00,0.0479
1360.00,0.0499
1359.00,0.0505
1358.00,0.0494
1357.00,0.0465
1356.00,0.0423
1355.00,0.0375
1354.00,0.0329
1353.00,0.0290
1352.00,0.0259
1351.00,0.0235
1350.00,0.0215
1349.00,0.0199
1348.00,0.0187
1347.00,0.0177
1346.00,0.0169
1345.00,0.0163
1344.00,0.0158
1343.00,0.0153
1342.00,0.0148
1341.00,0.0144
1340.00,0.0140
1339.00,0.0137
1338.00,0.0135
1337.00,0.0135
1336.00,0.0135
1335.00,0.0137
1334.00,0.0141
1333.00,0.0145
1332.00,0.0150
1331.00,0.0154
1330.00,0.0156
1329.00,0.0155
1328.00,0.0150
1327.00,0.0144
1326.00,0.0137
1325.00,0.0130
1324.00,0.0124
1323.00,0.0118
1322.00,0.0113
1321.00,0.0109
1320.00,0.0106
1319.00,0.0104
1318.00,0.0102
1317.00,0.0100
1316.00,0.0099
1315.00,0.0097
1314.00,0.0097
1313.00,0.0097
1312.00,0.0098
1311.00,0.0100
1310.00,0.0104
1309.00,0.0110
1308.00,0.0118
1307.00,0.0128
1306.00,0.0138
1305.00,0.0145
1304.00,0.0148
1303.00,0.0148
1302.00,0.0145
1301.00,0.0142
1300.00,0.0141
1299.00,0.0142
1298.00,0.0143
1297.00,0.0144
1296.00,0.0144
1295.00,0.0142
1294.00,0.0138
1293.00,0.0132
1292.00,0.0126
1291.00,0.0120
1290.00,0.0115
1289.00,0.0110
1288.00,0.0106
1287.00,0.0102
1286.00,0.0100
1285.00,0.0097
1284.00,0.0095
1283.00,0.0093
1282.00,0.0092
1281.00,0.0091
1280.00,0.0090
1279.00,0.0089
1278.00,0.0088
1277.00,0.0088
1276.00,0.0087
1275.00,0.0086
1274.00,0.0086
1273.00,0.0086
1272.00,0.0087
1271.00,0.0087
1270.00,0.0088
1269.00,0.0088
1268.00,0.0089
1267.00,0.0091
1266.00,0.0093
1265.00,0.0095
1264.00,0.0098
1263.00,0.0101
1262.00,0.0104
1261.00,0.0108
1260.00,0.0113
1259.00,0.0120
1258.00,0.0127
1257.00,0.0133
1256.00,0.0136
1255.00,0.0135
1254.00,0.0130
1253.00,0.0124
1252.00,0.0117
1251.00,0.0112
1250.00,0.0107
1249.00,0.0104
1248.00,0.0102
1247.00,0.0101
1246.00,0.0100
1245.00,0.0099
1244.00,0.0098
1243.00,0.0097
1242.00,0.0097
1241.00,0.0096
1240.00,0.0095
1239.00,0.0094
1238.00,0.0093
1237.00,0.0092
1236.00,0.0091
1235.00,0.0091
1234.00,0.0090
1233.00,0.0089
1232.00,0.0089
1231.00,0.0090
1230.00,0.0090
1229.00,0.0091
1228.00,0.0092
1227.00,0.0093
1226.00,0.0094
1225.00,0.0097
1224.00,0.0100
1223.00,0.0104
1222.00,0.0108
1221.00,0.0111
1220.00,0.0113
1219.00,0.0114
1218.00,0.0113
1217.00,0.0112
1216.00,0.0109
1215.00,0.0105
1214.00,0.0101
1213.00,0.0096
1212.00,0.0093
1211.00,0.0090
1210.00,0.0088
1209.00,0.0086
1208.00,0.0084
1207.00,0.0083
1206.00,0.0083
1205.00,0.0082
1204.00,0.0080
1203.00,0.0079
1202.00,0.0078
1201.00,0.0078
1200.00,0.0078
1199.00,0.0078
1198.00,0.0079
1197.00,0.0079
1196.00,0.0079
1195.00,0.0079
1194.00,0.0080
1193.00,0.0080
1192.00,0.0080
1191.00,0.0080
1190.00,0.0080
1189.00,0.0080
1188.00,0.0080
1187.00,0.0080
1186.00,0.0081
1185.00,0.0082
1184.00,0.0083
1183.00,0.0085
1182.00,0.0087
1181.00,0.0089
1180.00,0.0092
1179.00,0.0097
1178.00,0.0103
1177.00,0.0111
1176.00,0.0122
1175.00,0.0135
1174.00,0.0153
1173.00,0.0176
1172.00,0.0203
1171.00,0.0231
1170.00,0.0260
1169.00,0.0283
1168.00,0.0299
1167.00,0.0304
1166.00,0.0300
1165.00,0.0289
1164.00,0.0275
1163.00,0.0260
1162.00,0.0247
1161.00,0.0237
1160.00,0.0228
1159.00,0.0222
1158.00,0.0217
1157.00,0.0214
1156.00,0.0213
1155.00,0.0212
1154.00,0.0211
1153.00,0.0210
1152.00,0.0207
1151.00,0.0203
1150.00,0.0196
1149.00,0.0188
1148.00,0.0178
1147.00,0.0169
1146.00,0.0160
1145.00,0.0153
1144.00,0.0146
1143.00,0.0141
1142.00,0.0136
1141.00,0.0131
1140.00,0.0126
1139.00,0.0122
1138.00,0.0118
1137.00,0.0115
1136.00,0.0112
1135.00,0.0110
1134.00,0.0108
1133.00,0.0108
1132.00,0.0108
1131.00,0.0109
1130.00,0.0110
1129.00,0.0110
1128.00,0.0111
1127.00,0.0113
1126.00,0.0115
1125.00,0.0117
1124.00,0.0120
1123.00,0.0122
1122.00,0.0123
1121.00,0.0124
1120.00,0.0124
1119.00,0.0125
1118.00,0.0126
1117.00,0.0127
1116.00,0.0128
1115.00,0.0129
1114.00,0.0130
1113.00,0.0131
1112.00,0.0133
1111.00,0.0134
1110.00,0.0137
1109.00,0.0142
1108.00,0.0147
1107.00,0.0154
1106.00,0.0162
1105.00,0.0170
1104.00,0.0176
1103.00,0.0179
1102.00,0.0179
1101.00,0.0176
1100.00,0.0170
1099.00,0.0163
1098.00,0.0156
1097.00,0.0149
1096.00,0.0144
1095.00,0.0139
1094.00,0.0135
1093.00,0.0130
1092.00,0.0127
1091.00,0.0125
1090.00,0.0124
1089.00,0.0122
1088.00,0.0121
1087.00,0.0120
1086.00,0.0119
1085.00,0.0118
1084.00,0.0117
1083.00,0.0116
1082.00,0.0115
1081.00,0.0114
1080.00,0.0113
1079.00,0.0111
1078.00,0.0109
1077.00,0.0107
1076.00,0.0106
1075.00,0.0105
1074.00,0.0103
1073.00,0.0102
1072.00,0.0102
1071.00,0.0102
1070.00,0.0103
1069.00,0.0103
1068.00,0.0103
1067.00,0.0102
1066.00,0.0102
1065.00,0.0102
1064.00,0.0102
1063.00,0.0102
1062.00,0.0102
1061.00,0.0103
1060.00,0.0104
1059.00,0.0104
1058.00,0.0104
1057.00,0.0103
1056.00,0.0103
1055.00,0.0102
1054.00,0.0102
1053.00,0.0103
1052.00,0.0104
1051.00,0.0107
1050.00,0.0109
1049.00,0.0111
1048.00,0.0113
1047.00,0.0115
1046.00,0.0117
1045.00,0.0118
1044.00,0.0118
1043.00,0.0117
1042.00,0.0115
1041.00,0.0113
1040.00,0.0112
1039.00,0.0111
1038.00,0.0110
1037.00,0.0110
1036.00,0.0109
1035.00,0.0108
1034.00,0.0108
1033.00,0.0106
1032.00,0.0105
1031.00,0.0104
1030.00,0.0103
1029.00,0.0103
1028.00,0.0103
1027.00,0.0103
1026.00,0.0103
1025.00,0.0102
1024.00,0.0102
1023.00,0.0102
1022.00,0.0103
1021.00,0.0103
1020.00,0.0102
1019.00,0.0102
1018.00,0.0102
1017.00,0.0103
1016.00,0.0105
1015.00,0.0107
1014.00,0.0111
1013.00,0.0115
1012.00,0.0118
1011.00,0.0121
1010.00,0.0123
1009.00,0.0126
1008.00,0.0129
1007.00,0.0135
1006.00,0.0142
1005.00,0.0153
1004.00,0.0168
1003.00,0.0188
1002.00,0.0213
1001.00,0.0244
1000.00,0.0275
999.00,0.0300
998.00,0.0312
997.00,0.0305
996.00,0.0281
995.00,0.0247
994.00,0.0212
993.00,0.0182
992.00,0.0158
991.00,0.0141
990.00,0.0130
989.00,0.0122
988.00,0.0118
987.00,0.0115
986.00,0.0114
985.00,0.0116
984.00,0.0121
983.00,0.0127
982.00,0.0137
981.00,0.0151
980.00,0.0171
979.00,0.0198
978.00,0.0232
977.00,0.0271
976.00,0.0312
975.00,0.0349
974.00,0.0375
973.00,0.0384
972.00,0.0372
971.00,0.0340
970.00,0.0297
969.00,0.0252
968.00,0.0214
967.00,0.0184
966.00,0.0162
965.00,0.0146
964.00,0.0133
963.00,0.0122
962.00,0.0115
961.00,0.0109
960.00,0.0105
959.00,0.0102
958.00,0.0099
957.00,0.0097
956.00,0.0095
955.00,0.0093
954.00,0.0092
953.00,0.0091
952.00,0.0090
951.00,0.0090
950.00,0.0089
949.00,0.0089
948.00,0.0089
947.00,0.0092
946.00,0.0095
945.00,0.0099
944.00,0.0103
943.00,0.0106
942.00,0.0108
941.00,0.0109
940.00,0.0108
939.00,0.0106
938.00,0.0102
937.00,0.0097
936.00,0.0091
935.00,0.0086
934.00,0.0082
933.00,0.0079
932.00,0.0076
931.00,0.0075
930.00,0.0074
929.00,0.0073
928.00,0.0072
927.00,0.0072
926.00,0.0072
925.00,0.0073
924.00,0.0073
923.00,0.0074
922.00,0.0074
921.00,0.0075
920.00,0.0076
919.00,0.0077
918.00,0.0078
917.00,0.0079
916.00,0.0080
915.00,0.0081
914.00,0.0082
913.00,0.0082
912.00,0.0083
911.00,0.0083
910.00,0.0084
909.00,0.0086
908.00,0.0089
907.00,0.0094
906.00,0.0102
905.00,0.0114
904.00,0.0130
903.00,0.0151
902.00,0.0173
901.00,0.0194
900.00,0.0208
899.00,0.0211
898.00,0.0202
897.00,0.0184
896.00,0.0161
895.00,0.0140
894.00,0.0123
893.00,0.0109
892.00,0.0099
891.00,0.0092
890.00,0.0089
889.00,0.0087
888.00,0.0086
887.00,0.0085
886.00,0.0083
885.00,0.0080
884.00,0.0079
883.00,0.0078
882.00,0.0079
881.00,0.0079
880.00,0.0079
879.00,0.0079
878.00,0.0079
877.00,0.0079
876.00,0.0079
875.00,0.0079
874.00,0.0080
873.00,0.0080
872.00,0.0080
871.00,0.0080
870.00,0.0079
869.00,0.0079
868.00,0.0079
867.00,0.0079
866.00,0.0080
865.00,0.0081
864.00,0.0081
863.00,0.0081
862.00,0.0082
861.00,0.0084
860.00,0.0087
859.00,0.0090
858.00,0.0092
857.00,0.0094
856.00,0.0096
855.00,0.0097
854.00,0.0098
853.00,0.0100
852.00,0.0102
851.00,0.0106
850.00,0.0111
849.00,0.0119
848.00,0.0127
847.00,0.0139
846.00,0.0158
845.00,0.0185
844.00,0.0221
843.00,0.0261
842.00,0.0290
841.00,0.0297
840.00,0.0277
839.00,0.0241
838.00,0.0203
837.00,0.0174
836.00,0.0154
835.00,0.0142
834.00,0.0133
833.00,0.0126
832.00,0.0122
831.00,0.0118
830.00,0.0116
829.00,0.0113
828.00,0.0111
827.00,0.0111
826.00,0.0111
825.00,0.0112
824.00,0.0112
823.00,0.0112
822.00,0.0113
821.00,0.0114
820.00,0.0116
819.00,0.0117
818.00,0.0120
817.00,0.0126
816.00,0.0136
815.00,0.0148
814.00,0.0164
813.00,0.0184
812.00,0.0204
811.00,0.0223
810.00,0.0237
809.00,0.0244
808.00,0.0242
807.00,0.0232
806.00,0.0216
805.00,0.0197
804.00,0.0177
803.00,0.0160
802.00,0.0146
801.00,0.0136
800.00,0.0128
799.00,0.0121
798.00,0.0115
797.00,0.0110
796.00,0.0106
795.00,0.0102
794.00,0.0099
793.00,0.0096
792.00,0.0093
791.00,0.0091
790.00,0.0090
789.00,0.0088
788.00,0.0087
787.00,0.0085
786.00,0.0082
785.00,0.0080
784.00,0.0078
783.00,0.0077
782.00,0.0077
781.00,0.0077
780.00,0.0077
779.00,0.0075
778.00,0.0074
777.00,0.0073
776.00,0.0073
775.00,0.0074
774.00,0.0077
773.00,0.0079
772.00,0.0082
771.00,0.0085
770.00,0.0088
769.00,0.0090
768.00,0.0090
767.00,0.0090
766.00,0.0089
765.00,0.0087
764.00,0.0084
763.00,0.0081
762.00,0.0078
761.00,0.0075
760.00,0.0072
759.00,0.0070
758.00,0.0069
757.00,0.0068
756.00,0.0068
755.00,0.0067
754.00,0.0066
753.00,0.0065
752.00,0.0066
751.00,0.0067
750.00,0.0066
749.00,0.0064
748.00,0.0063
747.00,0.0064
746.00,0.0066
745.00,0.0068
744.00,0.0071
743.00,0.0073
742.00,0.0074
741.00,0.0075
740.00,0.0077
739.00,0.0079
738.00,0.0080
737.00,0.0081
736.00,0.0083
735.00,0.0085
734.00,0.0088
733.00,0.0090
732.00,0.0089
731.00,0.0087
730.00,0.0085
729.00,0.0083
728.00,0.0083
727.00,0.0085
726.00,0.0087
725.00,0.0089
724.00,0.0090
723.00,0.0090
722.00,0.0089
721.00,0.0087
720.00,0.0085
719.00,0.0082
718.00,0.0080
717.00,0.0078
716.00,0.0077
715.00,0.0076
714.00,0.0076
713.00,0.0077
712.00,0.0077
711.00,0.0077
710.00,0.0076
709.00,0.0076
708.00,0.0076
707.00,0.0077
706.00,0.0079
705.00,0.0080
704.00,0.0081
703.00,0.0080
702.00,0.0078
701.00,0.0075
700.00,0.0072
699.00,0.0069
698.00,0.0069
697.00,0.0069
696.00,0.0068
695.00,0.0068
694.00,0.0066
693.00,0.0066
692.00,0.0066
691.00,0.0068
690.00,0.0069
689.00,0.0070
688.00,0.0069
687.00,0.0068
686.00,0.0068
685.00,0.0068
684.00,0.0068
683.00,0.0069
682.00,0.0069
681.00,0.0070
680.00,0.0071
679.00,0.0071
678.00,0.0071
677.00,0.0069
676.00,0.0066
675.00,0.0064
674.00,0.0064
673.00,0.0066
672.00,0.0069
671.00,0.0072
670.00,0.0074
669.00,0.0073
668.00,0.0071
667.00,0.0067
666.00,0.0064
665.00,0.0063
664.00,0.0063
663.00,0.0066
662.00,0.0070
661.00,0.0073
660.00,0.0074
659.00,0.0074
658.00,0.0072
657.00,0.0071
656.00,0.0070
655.00,0.0070
654.00,0.0070
653.00,0.0070
652.00,0.0071
651.00,0.0071
650.00,0.0071
649.00,0.0070
648.00,0.0069
647.00,0.0068
646.00,0.0068
645.00,0.0068
644.00,0.0069
643.00,0.0069
642.00,0.0068
641.00,0.0066
640.00,0.0064
639.00,0.0063
638.00,0.0065
637.00,0.0069
636.00,0.0072
635.00,0.0072
634.00,0.0072
633.00,0.0072
632.00,0.0072
631.00,0.0072
630.00,0.0073
629.00,0.0075
628.00,0.0078
627.00,0.0081
626.00,0.0084
625.00,0.0084
624.00,0.0081
623.00,0.0077
622.00,0.0073
621.00,0.0072
620.00,0.0072
619.00,0.0072
618.00,0.0072
617.00,0.0070
616.00,0.0069
615.00,0.0069
614.00,0.0069
613.00,0.0069
612.00,0.0067
611.00,0.0066
610.00,0.0066
609.00,0.0068
608.00,0.0071
607.00,0.0074
606.00,0.0076
605.00,0.0076
604.00,0.0074
603.00,0.0073
602.00,0.0072
601.00,0.0072
600.00,0.0073
599.00,0.0073
598.00,0.0072
597.00,0.0071
596.00,0.0071
595.00,0.0073
594.00,0.0078
593.00,0.0080
592.00,0.0079
591.00,0.0076
590.00,0.0074
589.00,0.0074
588.00,0.0077
587.00,0.0078
586.00,0.0078
585.00,0.0077
584.00,0.0078
583.00,0.0080
582.00,0.0083
581.00,0.0085
580.00,0.0086
579.00,0.0087
578.00,0.0089
577.00,0.0091
576.00,0.0093
575.00,0.0091
574.00,0.0088
573.00,0.0084
572.00,0.0081
571.00,0.0078
570.00,0.0075
569.00,0.0072
568.00,0.0070
567.00,0.0072
566.00,0.0074
565.00,0.0075
564.00,0.0077
563.00,0.0078
562.00,0.0080
561.00,0.0082
560.00,0.0086
559.00,0.0091
558.00,0.0094
557.00,0.0094
556.00,0.0088
555.00,0.0082
554.00,0.0079
553.00,0.0081
552.00,0.0083
551.00,0.0084
550.00,0.0080
549.00,0.0074
548.00,0.0072
547.00,0.0073
546.00,0.0075
545.00,0.0075
544.00,0.0075
543.00,0.0078
542.00,0.0082
541.00,0.0086
540.00,0.0089
539.00,0.0091
538.00,0.0093
537.00,0.0093
536.00,0.0091
535.00,0.0089
534.00,0.0089
533.00,0.0091
532.00,0.0093
531.00,0.0095
530.00,0.0096
529.00,0.0098
528.00,0.0099
527.00,0.0099
526.00,0.0097
525.00,0.0093
524.00,0.0090
523.00,0.0091
522.00,0.0093
521.00,0.0094
520.00,0.0092
519.00,0.0088
518.00,0.0081
517.00,0.0076
516.00,0.0075
515.00,0.0079
514.00,0.0084
513.00,0.0088
512.00,0.0090
511.00,0.0092
510.00,0.0093
509.00,0.0091
508.00,0.0087
507.00,0.0085
506.00,0.0084
505.00,0.0086
504.00,0.0088
503.00,0.0089
502.00,0.0087
501.00,0.0081
500.00,0.0074
499.00,0.0069
498.00,0.0071
497.00,0.0077
496.00,0.0084
495.00,0.0088
494.00,0.0088
493.00,0.0087
492.00,0.0084
491.00,0.0080
490.00,0.0074
489.00,0.0068
488.00,0.0064
487.00,0.0063
486.00,0.0065
485.00,0.0064
484.00,0.0061
483.00,0.0061
482.00,0.0068
481.00,0.0079
480.00,0.0086
479.00,0.0087
478.00,0.0084
477.00,0.0082
476.00,0.0084
475.00,0.0091
474.00,0.0098
473.00,0.0106
472.00,0.0111
471.00,0.0117
470.00,0.0125
469.00,0.0138
468.00,0.0152
467.00,0.0159
466.00,0.0155
465.00,0.0141
464.00,0.0126
463.00,0.0119
462.00,0.0125
461.00,0.0140
460.00,0.0158
459.00,0.0170
458.00,0.0171
457.00,0.0166
456.00,0.0159
455.00,0.0154
454.00,0.0149
453.00,0.0140
452.00,0.0127
451.00,0.0115
450.00,0.0107
