Created as New Dataset,Sample 207 By Administrator Date Tuesday, September 09 2025
cm-1,A
4000.00,0.0011
3999.00,0.0011
3998.00,0.0011
3997.00,0.0011
3996.00,0.0012
3995.00,0.0012
3994.00,0.0012
3993.00,0.0011
3992.00,0.0011
3991.00,0.0011
3990.00,0.0011
3989.00,0.0011
3988.00,0.0010
3987.00,0.0010
3986.00,0.0010
3985.00,0.0010
3984.00,0.0010
3983.00,0.0009
3982.00,0.0009
3981.00,0.0009
3980.00,0.0009
3979.00,0.0009
3978.00,0.0009
3977.00,0.0010
3976.00,0.0009
3975.00,0.0009
3974.00,0.0009
3973.00,0.0008
3972.00,0.0008
3971.00,0.0009
3970.00,0.0009
3969.00,0.0009
3968.00,0.0009
3967.00,0.0009
3966.00,0.0009
3965.00,0.0009
3964.00,0.0008
3963.00,0.0008
3962.00,0.0008
3961.00,0.0008
3960.00,0.0008
3959.00,0.0008
3958.00,0.0008
3957.00,0.0008
3956.00,0.0008
3955.00,0.0008
3954.00,0.0008
3953.00,0.0008
3952.00,0.0008
3951.00,0.0008
3950.00,0.0008
3949.00,0.0008
3948.00,0.0008
3947.00,0.0008
3946.00,0.0008
3945.00,0.0008
3944.00,0.0009
3943.00,0.0009
3942.00,0.0009
3941.00,0.0009
3940.00,0.0009
3939.00,0.0009
3938.00,0.0009
3937.00,0.0009
3936.00,0.0009
3935.00,0.0009
3934.00,0.0009
3933.00,0.0009
3932.00,0.0009
3931.00,0.0009
3930.00,0.0010
3929.00,0.0010
3928.00,0.0010
3927.00,0.0010
3926.00,0.0009
3925.00,0.0009
3924.00,0.0009
3923.00,0.0008
3922.00,0.0009
3921.00,0.0009
3920.00,0.0010
3919.00,0.0010
3918.00,0.0010
3917.00,0.0011
3916.00,0.0011
3915.00,0.0010
3914.00,0.0010
3913.00,0.0010
3912.00,0.0010
3911.00,0.0009
3910.00,0.0010
3909.00,0.0010
3908.00,0.0010
3907.00,0.0010
3906.00,0.0010
3905.00,0.0010
3904.00,0.0009
3903.00,0.0009
3902.00,0.0010
3901.00,0.0010
3900.00,0.0011
3899.00,0.0011
3898.00,0.0011
3897.00,0.0011
3896.00,0.0010
3895.00,0.0010
3894.00,0.0009
3893.00,0.0009
3892.00,0.0010
3891.00,0.0010
3890.00,0.0010
3889.00,0.0011
3888.00,0.0011
3887.00,0.0012
3886.00,0.0012
3885.00,0.0011
3884.00,0.0011
3883.00,0.0011
3882.00,0.0010
3881.00,0.0010
3880.00,0.0010
3879.00,0.0010
3878.00,0.0010
3877.00,0.0010
3876.00,0.0011
3875.00,0.0011
3874.00,0.0011
3873.00,0.0011
3872.00,0.0010
3871.00,0.0010
3870.00,0.0010
3869.00,0.0010
3868.00,0.0010
3867.00,0.0010
3866.00,0.0011
3865.00,0.0011
3864.00,0.0010
3863.00,0.0010
3862.00,0.0009
3861.00,0.0010
3860.00,0.0010
3859.00,0.0010
3858.00,0.0011
3857.00,0.0011
3856.00,0.0012
3855.00,0.0012
3854.00,0.0012
3853.00,0.0011
3852.00,0.0011
3851.00,0.0011
3850.00,0.0011
3849.00,0.0010
3848.00,0.0009
3847.00,0.0009
3846.00,0.0009
3845.00,0.0009
3844.00,0.0008
3843.00,0.0008
3842.00,0.0008
3841.00,0.0009
3840.00,0.0009
3839.00,0.0010
3838.00,0.0010
3837.00,0.0010
3836.00,0.0010
3835.00,0.0010
3834.00,0.0010
3833.00,0.0010
3832.00,0.0010
3831.00,0.0010
3830.00,0.0010
3829.00,0.0010
3828.00,0.0010
3827.00,0.0010
3826.00,0.0010
3825.00,0.0011
3824.00,0.0011
3823.00,0.0011
3822.00,0.0011
3821.00,0.0011
3820.00,0.0010
3819.00,0.0010
3818.00,0.0011
3817.00,0.0011
3816.00,0.0011
3815.00,0.0010
3814.00,0.0010
3813.00,0.0010
3812.00,0.0010
3811.00,0.0010
3810.00,0.0011
3809.00,0.0011
3808.00,0.0011
3807.00,0.0012
3806.00,0.0012
3805.00,0.0011
3804.00,0.0011
3803.00,0.0011
3802.00,0.0011
3801.00,0.0010
3800.00,0.0009
3799.00,0.0009
3798.00,0.0009
3797.00,0.0010
3796.00,0.0009
3795.00,0.0009
3794.00,0.0009
3793.00,0.0010
3792.00,0.0010
3791.00,0.0010
3790.00,0.0010
3789.00,0.0010
3788.00,0.0010
3787.00,0.0010
3786.00,0.0010
3785.00,0.0010
3784.00,0.0009
3783.00,0.0009
3782.00,0.0009
3781.00,0.0009
3780.00,0.0010
3779.00,0.0010
3778.00,0.0010
3777.00,0.0009
3776.00,0.0010
3775.00,0.0010
3774.00,0.0010
3773.00,0.0010
3772.00,0.0010
3771.00,0.0010
3770.00,0.0010
3769.00,0.0010
3768.00,0.0010
3767.00,0.0010
3766.00,0.0011
3765.00,0.0011
3764.00,0.0011
3763.00,0.0011
3762.00,0.0011
3761.00,0.0011
3760.00,0.0011
3759.00,0.0011
3758.00,0.0011
3757.00,0.0011
3756.00,0.0011
3755.00,0.0011
3754.00,0.0011
3753.00,0.0011
3752.00,0.0011
3751.00,0.0011
3750.00,0.0011
3749.00,0.0011
3748.00,0.0011
3747.00,0.0011
3746.00,0.0011
3745.00,0.0011
3744.00,0.0010
3743.00,0.0010
3742.00,0.0011
3741.00,0.0010
3740.00,0.0010
3739.00,0.0009
3738.00,0.0009
3737.00,0.0009
3736.00,0.0009
3735.00,0.0008
3734.00,0.0007
3733.00,0.0007
3732.00,0.0008
3731.00,0.0008
3730.00,0.0009
3729.00,0.0009
3728.00,0.0009
3727.00,0.0008
3726.00,0.0008
3725.00,0.0008
3724.00,0.0008
3723.00,0.0008
3722.00,0.0008
3721.00,0.0008
3720.00,0.0008
3719.00,0.0007
3718.00,0.0007
3717.00,0.0007
3716.00,0.0007
3715.00,0.0007
3714.00,0.0008
3713.00,0.0009
3712.00,0.0009
3711.00,0.0008
3710.00,0.0008
3709.00,0.0007
3708.00,0.0007
3707.00,0.0008
3706.00,0.0008
3705.00,0.0008
3704.00,0.0007
3703.00,0.0008
3702.00,0.0008
3701.00,0.0008
3700.00,0.0008
3699.00,0.0008
3698.00,0.0009
3697.00,0.0009
3696.00,0.0009
3695.00,0.0009
3694.00,0.0010
3693.00,0.0010
3692.00,0.0011
3691.00,0.0011
3690.00,0.0011
3689.00,0.0012
3688.00,0.0013
3687.00,0.0014
3686.00,0.0016
3685.00,0.0017
3684.00,0.0018
3683.00,0.0020
3682.00,0.0021
3681.00,0.0023
3680.00,0.0025
3679.00,0.0027
3678.00,0.0029
3677.00,0.0031
3676.00,0.0033
3675.00,0.0034
3674.00,0.0035
3673.00,0.0036
3672.00,0.0038
3671.00,0.0038
3670.00,0.0039
3669.00,0.0039
3668.00,0.0039
3667.00,0.0040
3666.00,0.0041
3665.00,0.0041
3664.00,0.0040
3663.00,0.0041
3662.00,0.0041
3661.00,0.0042
3660.00,0.0042
3659.00,0.0043
3658.00,0.0043
3657.00,0.0043
3656.00,0.0043
3655.00,0.0043
3654.00,0.0042
3653.00,0.0042
3652.00,0.0042
3651.00,0.0042
3650.00,0.0042
3649.00,0.0041
3648.00,0.0040
3647.00,0.0038
3646.00,0.0037
3645.00,0.0036
3644.00,0.0035
3643.00,0.0034
3642.00,0.0033
3641.00,0.0032
3640.00,0.0031
3639.00,0.0031
3638.00,0.0031
3637.00,0.0030
3636.00,0.0028
3635.00,0.0026
3634.00,0.0023
3633.00,0.0021
3632.00,0.0019
3631.00,0.0019
3630.00,0.0018
3629.00,0.0018
3628.00,0.0017
3627.00,0.0017
3626.00,0.0017
3625.00,0.0016
3624.00,0.0015
3623.00,0.0014
3622.00,0.0014
3621.00,0.0014
3620.00,0.0014
3619.00,0.0014
3618.00,0.0013
3617.00,0.0012
3616.00,0.0012
3615.00,0.0011
3614.00,0.0011
3613.00,0.0011
3612.00,0.0012
3611.00,0.0012
3610.00,0.0012
3609.00,0.0013
3608.00,0.0012
3607.00,0.0012
3606.00,0.0012
3605.00,0.0012
3604.00,0.0012
3603.00,0.0011
3602.00,0.0011
3601.00,0.0011
3600.00,0.0010
3599.00,0.0010
3598.00,0.0010
3597.00,0.0011
3596.00,0.0012
3595.00,0.0012
3594.00,0.0013
3593.00,0.0013
3592.00,0.0013
3591.00,0.0013
3590.00,0.0013
3589.00,0.0014
3588.00,0.0014
3587.00,0.0014
3586.00,0.0013
3585.00,0.0013
3584.00,0.0013
3583.00,0.0013
3582.00,0.0013
3581.00,0.0013
3580.00,0.0013
3579.00,0.0013
3578.00,0.0013
3577.00,0.0013
3576.00,0.0013
3575.00,0.0013
3574.00,0.0013
3573.00,0.0013
3572.00,0.0014
3571.00,0.0014
3570.00,0.0015
3569.00,0.0016
3568.00,0.0017
3567.00,0.0017
3566.00,0.0017
3565.00,0.0017
3564.00,0.0017
3563.00,0.0017
3562.00,0.0017
3561.00,0.0017
3560.00,0.0017
3559.00,0.0017
3558.00,0.0018
3557.00,0.0018
3556.00,0.0019
3555.00,0.0019
3554.00,0.0019
3553.00,0.0019
3552.00,0.0019
3551.00,0.0019
3550.00,0.0019
3549.00,0.0020
3548.00,0.0020
3547.00,0.0021
3546.00,0.0021
3545.00,0.0021
3544.00,0.0021
3543.00,0.0021
3542.00,0.0021
3541.00,0.0022
3540.00,0.0022
3539.00,0.0022
3538.00,0.0022
3537.00,0.0022
3536.00,0.0022
3535.00,0.0022
3534.00,0.0022
3533.00,0.0022
3532.00,0.0023
3531.00,0.0023
3530.00,0.0024
3529.00,0.0024
3528.00,0.0024
3527.00,0.0024
3526.00,0.0025
3525.00,0.0025
3524.00,0.0025
3523.00,0.0025
3522.00,0.0025
3521.00,0.0025
3520.00,0.0026
3519.00,0.0026
3518.00,0.0026
3517.00,0.0026
3516.00,0.0027
3515.00,0.0027
3514.00,0.0028
3513.00,0.0028
3512.00,0.0028
3511.00,0.0029
3510.00,0.0029
3509.00,0.0028
3508.00,0.0028
3507.00,0.0028
3506.00,0.0028
3505.00,0.0029
3504.00,0.0029
3503.00,0.0029
3502.00,0.0029
3501.00,0.0029
3500.00,0.0029
3499.00,0.0030
3498.00,0.0030
3497.00,0.0031
3496.00,0.0032
3495.00,0.0032
3494.00,0.0032
3493.00,0.0032
3492.00,0.0033
3491.00,0.0033
3490.00,0.0033
3489.00,0.0033
3488.00,0.0033
3487.00,0.0033
3486.00,0.0033
3485.00,0.0033
3484.00,0.0033
3483.00,0.0034
3482.00,0.0034
3481.00,0.0034
3480.00,0.0035
3479.00,0.0035
3478.00,0.0036
3477.00,0.0036
3476.00,0.0036
3475.00,0.0037
3474.00,0.0037
3473.00,0.0037
3472.00,0.0037
3471.00,0.0037
3470.00,0.0037
3469.00,0.0037
3468.00,0.0037
3467.00,0.0038
3466.00,0.0038
3465.00,0.0038
3464.00,0.0039
3463.00,0.0039
3462.00,0.0040
3461.00,0.0040
3460.00,0.0040
3459.00,0.0041
3458.00,0.0041
3457.00,0.0041
3456.00,0.0040
3455.00,0.0040
3454.00,0.0040
3453.00,0.0040
3452.00,0.0041
3451.00,0.0041
3450.00,0.0042
3449.00,0.0042
3448.00,0.0043
3447.00,0.0043
3446.00,0.0044
3445.00,0.0044
3444.00,0.0044
3443.00,0.0044
3442.00,0.0044
3441.00,0.0044
3440.00,0.0044
3439.00,0.0044
3438.00,0.0044
3437.00,0.0044
3436.00,0.0045
3435.00,0.0045
3434.00,0.0045
3433.00,0.0045
3432.00,0.0045
3431.00,0.0045
3430.00,0.0045
3429.00,0.0045
3428.00,0.0046
3427.00,0.0046
3426.00,0.0046
3425.00,0.0046
3424.00,0.0046
3423.00,0.0047
3422.00,0.0047
3421.00,0.0047
3420.00,0.0047
3419.00,0.0047
3418.00,0.0048
3417.00,0.0048
3416.00,0.0048
3415.00,0.0048
3414.00,0.0049
3413.00,0.0048
3412.00,0.0048
3411.00,0.0048
3410.00,0.0049
3409.00,0.0049
3408.00,0.0050
3407.00,0.0051
3406.00,0.0051
3405.00,0.0051
3404.00,0.0051
3403.00,0.0051
3402.00,0.0052
3401.00,0.0052
3400.00,0.0052
3399.00,0.0052
3398.00,0.0052
3397.00,0.0052
3396.00,0.0052
3395.00,0.0053
3394.00,0.0053
3393.00,0.0053
3392.00,0.0053
3391.00,0.0053
3390.00,0.0053
3389.00,0.0052
3388.00,0.0051
3387.00,0.0051
3386.00,0.0051
3385.00,0.0051
3384.00,0.0051
3383.00,0.0051
3382.00,0.0051
3381.00,0.0051
3380.00,0.0051
3379.00,0.0051
3378.00,0.0051
3377.00,0.0050
3376.00,0.0050
3375.00,0.0050
3374.00,0.0050
3373.00,0.0050
3372.00,0.0051
3371.00,0.0051
3370.00,0.0051
3369.00,0.0051
3368.00,0.0051
3367.00,0.0051
3366.00,0.0051
3365.00,0.0052
3364.00,0.0052
3363.00,0.0052
3362.00,0.0052
3361.00,0.0051
3360.00,0.0051
3359.00,0.0051
3358.00,0.0051
3357.00,0.0051
3356.00,0.0051
3355.00,0.0051
3354.00,0.0051
3353.00,0.0051
3352.00,0.0051
3351.00,0.0051
3350.00,0.0051
3349.00,0.0051
3348.00,0.0051
3347.00,0.0051
3346.00,0.0051
3345.00,0.0051
3344.00,0.0051
3343.00,0.0051
3342.00,0.0051
3341.00,0.0051
3340.00,0.0050
3339.00,0.0050
3338.00,0.0050
3337.00,0.0050
3336.00,0.0050
3335.00,0.0050
3334.00,0.0050
3333.00,0.0050
3332.00,0.0049
3331.00,0.0049
3330.00,0.0048
3329.00,0.0048
3328.00,0.0048
3327.00,0.0047
3326.00,0.0047
3325.00,0.0046
3324.00,0.0046
3323.00,0.0046
3322.00,0.0046
3321.00,0.0047
3320.00,0.0047
3319.00,0.0047
3318.00,0.0047
3317.00,0.0048
3316.00,0.0047
3315.00,0.0047
3314.00,0.0047
3313.00,0.0046
3312.00,0.0046
3311.00,0.0046
3310.00,0.0046
3309.00,0.0046
3308.00,0.0046
3307.00,0.0046
3306.00,0.0046
3305.00,0.0046
3304.00,0.0046
3303.00,0.0046
3302.00,0.0046
3301.00,0.0046
3300.00,0.0046
3299.00,0.0046
3298.00,0.0046
3297.00,0.0045
3296.00,0.0045
3295.00,0.0044
3294.00,0.0044
3293.00,0.0044
3292.00,0.0044
3291.00,0.0044
3290.00,0.0045
3289.00,0.0045
3288.00,0.0045
3287.00,0.0045
3286.00,0.0044
3285.00,0.0044
3284.00,0.0044
3283.00,0.0044
3282.00,0.0044
3281.00,0.0043
3280.00,0.0043
3279.00,0.0043
3278.00,0.0043
3277.00,0.0043
3276.00,0.0043
3275.00,0.0043
3274.00,0.0043
3273.00,0.0043
3272.00,0.0043
3271.00,0.0042
3270.00,0.0042
3269.00,0.0042
3268.00,0.0042
3267.00,0.0042
3266.00,0.0042
3265.00,0.0042
3264.00,0.0042
3263.00,0.0042
3262.00,0.0042
3261.00,0.0041
3260.00,0.0041
3259.00,0.0041
3258.00,0.0041
3257.00,0.0041
3256.00,0.0041
3255.00,0.0041
3254.00,0.0041
3253.00,0.0041
3252.00,0.0041
3251.00,0.0041
3250.00,0.0041
3249.00,0.0041
3248.00,0.0040
3247.00,0.0040
3246.00,0.0040
3245.00,0.0041
3244.00,0.0041
3243.00,0.0041
3242.00,0.0041
3241.00,0.0041
3240.00,0.0041
3239.00,0.0041
3238.00,0.0040
3237.00,0.0040
3236.00,0.0041
3235.00,0.0041
3234.00,0.0042
3233.00,0.0042
3232.00,0.0042
3231.00,0.0043
3230.00,0.0043
3229.00,0.0043
3228.00,0.0043
3227.00,0.0043
3226.00,0.0043
3225.00,0.0043
3224.00,0.0043
3223.00,0.0043
3222.00,0.0044
3221.00,0.0044
3220.00,0.0045
3219.00,0.0045
3218.00,0.0045
3217.00,0.0044
3216.00,0.0045
3215.00,0.0045
3214.00,0.0045
3213.00,0.0045
3212.00,0.0045
3211.00,0.0045
3210.00,0.0045
3209.00,0.0046
3208.00,0.0046
3207.00,0.0046
3206.00,0.0046
3205.00,0.0047
3204.00,0.0047
3203.00,0.0047
3202.00,0.0047
3201.00,0.0047
3200.00,0.0047
3199.00,0.0047
3198.00,0.0048
3197.00,0.0048
3196.00,0.0047
3195.00,0.0047
3194.00,0.0047
3193.00,0.0047
3192.00,0.0048
3191.00,0.0048
3190.00,0.0048
3189.00,0.0048
3188.00,0.0047
3187.00,0.0047
3186.00,0.0047
3185.00,0.0046
3184.00,0.0046
3183.00,0.0046
3182.00,0.0045
3181.00,0.0045
3180.00,0.0044
3179.00,0.0044
3178.00,0.0043
3177.00,0.0043
3176.00,0.0042
3175.00,0.0042
3174.00,0.0042
3173.00,0.0042
3172.00,0.0042
3171.00,0.0042
3170.00,0.0042
3169.00,0.0041
3168.00,0.0040
3167.00,0.0040
3166.00,0.0040
3165.00,0.0040
3164.00,0.0040
3163.00,0.0040
3162.00,0.0040
3161.00,0.0040
3160.00,0.0040
3159.00,0.0040
3158.00,0.0039
3157.00,0.0039
3156.00,0.0038
3155.00,0.0038
3154.00,0.0038
3153.00,0.0038
3152.00,0.0038
3151.00,0.0038
3150.00,0.0038
3149.00,0.0038
3148.00,0.0038
3147.00,0.0038
3146.00,0.0038
3145.00,0.0038
3144.00,0.0038
3143.00,0.0038
3142.00,0.0037
3141.00,0.0037
3140.00,0.0037
3139.00,0.0036
3138.00,0.0036
3137.00,0.0036
3136.00,0.0035
3135.00,0.0036
3134.00,0.0036
3133.00,0.0036
3132.00,0.0035
3131.00,0.0035
3130.00,0.0035
3129.00,0.0034
3128.00,0.0034
3127.00,0.0034
3126.00,0.0034
3125.00,0.0034
3124.00,0.0034
3123.00,0.0033
3122.00,0.0032
3121.00,0.0032
3120.00,0.0031
3119.00,0.0031
3118.00,0.0030
3117.00,0.0030
3116.00,0.0031
3115.00,0.0031
3114.00,0.0031
3113.00,0.0030
3112.00,0.0030
3111.00,0.0030
3110.00,0.0030
3109.00,0.0029
3108.00,0.0029
3107.00,0.0029
3106.00,0.0029
3105.00,0.0030
3104.00,0.0030
3103.00,0.0030
3102.00,0.0030
3101.00,0.0030
3100.00,0.0030
3099.00,0.0029
3098.00,0.0029
3097.00,0.0029
3096.00,0.0029
3095.00,0.0029
3094.00,0.0029
3093.00,0.0029
3092.00,0.0029
3091.00,0.0029
3090.00,0.0029
3089.00,0.0029
3088.00,0.0029
3087.00,0.0029
3086.00,0.0029
3085.00,0.0029
3084.00,0.0029
3083.00,0.0028
3082.00,0.0028
3081.00,0.0027
3080.00,0.0027
3079.00,0.0027
3078.00,0.0028
3077.00,0.0028
3076.00,0.0028
3075.00,0.0028
3074.00,0.0028
3073.00,0.0029
3072.00,0.0029
3071.00,0.0029
3070.00,0.0029
3069.00,0.0029
3068.00,0.0030
3067.00,0.0030
3066.00,0.0030
3065.00,0.0030
3064.00,0.0029
3063.00,0.0030
3062.00,0.0030
3061.00,0.0030
3060.00,0.0031
3059.00,0.0031
3058.00,0.0031
3057.00,0.0031
3056.00,0.0031
3055.00,0.0032
3054.00,0.0032
3053.00,0.0032
3052.00,0.0033
3051.00,0.0033
3050.00,0.0033
3049.00,0.0033
3048.00,0.0033
3047.00,0.0033
3046.00,0.0033
3045.00,0.0033
3044.00,0.0033
3043.00,0.0034
3042.00,0.0034
3041.00,0.0035
3040.00,0.0035
3039.00,0.0036
3038.00,0.0036
3037.00,0.0037
3036.00,0.0037
3035.00,0.0037
3034.00,0.0038
3033.00,0.0038
3032.00,0.0039
3031.00,0.0040
3030.00,0.0040
3029.00,0.0041
3028.00,0.0042
3027.00,0.0043
3026.00,0.0044
3025.00,0.0045
3024.00,0.0046
3023.00,0.0048
3022.00,0.0050
3021.00,0.0053
3020.00,0.0055
3019.00,0.0058
3018.00,0.0061
3017.00,0.0065
3016.00,0.0069
3015.00,0.0073
3014.00,0.0078
3013.00,0.0084
3012.00,0.0091
3011.00,0.0098
3010.00,0.0106
3009.00,0.0115
3008.00,0.0125
3007.00,0.0136
3006.00,0.0148
3005.00,0.0160
3004.00,0.0172
3003.00,0.0184
3002.00,0.0196
3001.00,0.0208
3000.00,0.0220
2999.00,0.0230
2998.00,0.0240
2997.00,0.0250
2996.00,0.0260
2995.00,0.0269
2994.00,0.0278
2993.00,0.0288
2992.00,0.0298
2991.00,0.0308
2990.00,0.0319
2989.00,0.0332
2988.00,0.0346
2987.00,0.0365
2986.00,0.0391
2985.00,0.0426
2984.00,0.0468
2983.00,0.0510
2982.00,0.0544
2981.00,0.0564
2980.00,0.0574
2979.00,0.0579
2978.00,0.0586
2977.00,0.0599
2976.00,0.0621
2975.00,0.0652
2974.00,0.0693
2973.00,0.0742
2972.00,0.0794
2971.00,0.0847
2970.00,0.0899
2969.00,0.0954
2968.00,0.1014
2967.00,0.1080
2966.00,0.1150
2965.00,0.1221
2964.00,0.1289
2963.00,0.1351
2962.00,0.1406
2961.00,0.1453
2960.00,0.1493
2959.00,0.1532
2958.00,0.1574
2957.00,0.1623
2956.00,0.1684
2955.00,0.1758
2954.00,0.1842
2953.00,0.1933
2952.00,0.2020
2951.00,0.2092
2950.00,0.2136
2949.00,0.2141
2948.00,0.2098
2947.00,0.2008
2946.00,0.1882
2945.00,0.1736
2944.00,0.1588
2943.00,0.1455
2942.00,0.1346
2941.00,0.1265
2940.00,0.1214
2939.00,0.1190
2938.00,0.1189
2937.00,0.1209
2936.00,0.1248
2935.00,0.1306
2934.00,0.1379
2933.00,0.1468
2932.00,0.1568
2931.00,0.1678
2930.00,0.1795
2929.00,0.1916
2928.00,0.2037
2927.00,0.2156
2926.00,0.2271
2925.00,0.2382
2924.00,0.2491
2923.00,0.2597
2922.00,0.2704
2921.00,0.2808
2920.00,0.2903
2919.00,0.2981
2918.00,0.3030
2917.00,0.3040
2916.00,0.3007
2915.00,0.2934
2914.00,0.2830
2913.00,0.2709
2912.00,0.2583
2911.00,0.2461
2910.00,0.2347
2909.00,0.2241
2908.00,0.2144
2907.00,0.2052
2906.00,0.1965
2905.00,0.1880
2904.00,0.1797
2903.00,0.1717
2902.00,0.1640
2901.00,0.1566
2900.00,0.1497
2899.00,0.1432
2898.00,0.1373
2897.00,0.1320
2896.00,0.1275
2895.00,0.1237
2894.00,0.1208
2893.00,0.1187
2892.00,0.1174
2891.00,0.1166
2890.00,0.1164
2889.00,0.1166
2888.00,0.1172
2887.00,0.1181
2886.00,0.1195
2885.00,0.1213
2884.00,0.1235
2883.00,0.1261
2882.00,0.1290
2881.00,0.1323
2880.00,0.1356
2879.00,0.1386
2878.00,0.1407
2877.00,0.1417
2876.00,0.1415
2875.00,0.1404
2874.00,0.1393
2873.00,0.1386
2872.00,0.1387
2871.00,0.1399
2870.00,0.1418
2869.00,0.1441
2868.00,0.1457
2867.00,0.1458
2866.00,0.1433
2865.00,0.1377
2864.00,0.1292
2863.00,0.1188
2862.00,0.1077
2861.00,0.0971
2860.00,0.0878
2859.00,0.0802
2858.00,0.0743
2857.00,0.0699
2856.00,0.0668
2855.00,0.0648
2854.00,0.0637
2853.00,0.0633
2852.00,0.0637
2851.00,0.0647
2850.00,0.0664
2849.00,0.0688
2848.00,0.0719
2847.00,0.0758
2846.00,0.0806
2845.00,0.0863
2844.00,0.0929
2843.00,0.1002
2842.00,0.1078
2841.00,0.1152
2840.00,0.1215
2839.00,0.1259
2838.00,0.1273
2837.00,0.1253
2836.00,0.1196
2835.00,0.1108
2834.00,0.0999
2833.00,0.0884
2832.00,0.0773
2831.00,0.0673
2830.00,0.0589
2829.00,0.0519
2828.00,0.0463
2827.00,0.0419
2826.00,0.0382
2825.00,0.0353
2824.00,0.0328
2823.00,0.0308
2822.00,0.0290
2821.00,0.0275
2820.00,0.0262
2819.00,0.0250
2818.00,0.0240
2817.00,0.0231
2816.00,0.0224
2815.00,0.0217
2814.00,0.0211
2813.00,0.0205
2812.00,0.0199
2811.00,0.0193
2810.00,0.0187
2809.00,0.0181
2808.00,0.0175
2807.00,0.0168
2806.00,0.0161
2805.00,0.0154
2804.00,0.0147
2803.00,0.0140
2802.00,0.0134
2801.00,0.0129
2800.00,0.0125
2799.00,0.0121
2798.00,0.0118
2797.00,0.0116
2796.00,0.0113
2795.00,0.0111
2794.00,0.0109
2793.00,0.0106
2792.00,0.0102
2791.00,0.0099
2790.00,0.0096
2789.00,0.0093
2788.00,0.0090
2787.00,0.0088
2786.00,0.0085
2785.00,0.0083
2784.00,0.0081
2783.00,0.0079
2782.00,0.0077
2781.00,0.0075
2780.00,0.0073
2779.00,0.0072
2778.00,0.0070
2777.00,0.0069
2776.00,0.0068
2775.00,0.0067
2774.00,0.0066
2773.00,0.0065
2772.00,0.0064
2771.00,0.0063
2770.00,0.0063
2769.00,0.0063
2768.00,0.0062
2767.00,0.0062
2766.00,0.0062
2765.00,0.0061
2764.00,0.0061
2763.00,0.0061
2762.00,0.0060
2761.00,0.0060
2760.00,0.0059
2759.00,0.0059
2758.00,0.0058
2757.00,0.0058
2756.00,0.0057
2755.00,0.0057
2754.00,0.0057
2753.00,0.0057
2752.00,0.0057
2751.00,0.0056
2750.00,0.0056
2749.00,0.0056
2748.00,0.0056
2747.00,0.0057
2746.00,0.0058
2745.00,0.0059
2744.00,0.0059
2743.00,0.0060
2742.00,0.0061
2741.00,0.0062
2740.00,0.0064
2739.00,0.0065
2738.00,0.0067
2737.00,0.0069
2736.00,0.0071
2735.00,0.0073
2734.00,0.0074
2733.00,0.0075
2732.00,0.0077
2731.00,0.0079
2730.00,0.0082
2729.00,0.0085
2728.00,0.0088
2727.00,0.0091
2726.00,0.0094
2725.00,0.0097
2724.00,0.0098
2723.00,0.0099
2722.00,0.0098
2721.00,0.0096
2720.00,0.0092
2719.00,0.0089
2718.00,0.0085
2717.00,0.0081
2716.00,0.0077
2715.00,0.0074
2714.00,0.0071
2713.00,0.0069
2712.00,0.0066
2711.00,0.0064
2710.00,0.0063
2709.00,0.0061
2708.00,0.0059
2707.00,0.0057
2706.00,0.0056
2705.00,0.0055
2704.00,0.0053
2703.00,0.0052
2702.00,0.0051
2701.00,0.0050
2700.00,0.0049
2699.00,0.0048
2698.00,0.0048
2697.00,0.0048
2696.00,0.0048
2695.00,0.0048
2694.00,0.0048
2693.00,0.0048
2692.00,0.0049
2691.00,0.0048
2690.00,0.0048
2689.00,0.0048
2688.00,0.0049
2687.00,0.0049
2686.00,0.0049
2685.00,0.0049
2684.00,0.0049
2683.00,0.0049
2682.00,0.0049
2681.00,0.0049
2680.00,0.0050
2679.00,0.0050
2678.00,0.0050
2677.00,0.0051
2676.00,0.0051
2675.00,0.0051
2674.00,0.0051
2673.00,0.0051
2672.00,0.0051
2671.00,0.0051
2670.00,0.0051
2669.00,0.0050
2668.00,0.0051
2667.00,0.0051
2666.00,0.0052
2665.00,0.0053
2664.00,0.0054
2663.00,0.0054
2662.00,0.0054
2661.00,0.0055
2660.00,0.0055
2659.00,0.0055
2658.00,0.0054
2657.00,0.0054
2656.00,0.0054
2655.00,0.0054
2654.00,0.0053
2653.00,0.0052
2652.00,0.0051
2651.00,0.0050
2650.00,0.0049
2649.00,0.0049
2648.00,0.0048
2647.00,0.0048
2646.00,0.0047
2645.00,0.0047
2644.00,0.0046
2643.00,0.0046
2642.00,0.0045
2641.00,0.0044
2640.00,0.0043
2639.00,0.0043
2638.00,0.0043
2637.00,0.0042
2636.00,0.0042
2635.00,0.0042
2634.00,0.0042
2633.00,0.0043
2632.00,0.0043
2631.00,0.0043
2630.00,0.0043
2629.00,0.0043
2628.00,0.0043
2627.00,0.0043
2626.00,0.0043
2625.00,0.0044
2624.00,0.0044
2623.00,0.0044
2622.00,0.0044
2621.00,0.0044
2620.00,0.0044
2619.00,0.0044
2618.00,0.0044
2617.00,0.0044
2616.00,0.0044
2615.00,0.0044
2614.00,0.0044
2613.00,0.0043
2612.00,0.0042
2611.00,0.0041
2610.00,0.0040
2609.00,0.0039
2608.00,0.0039
2607.00,0.0038
2606.00,0.0037
2605.00,0.0036
2604.00,0.0036
2603.00,0.0036
2602.00,0.0035
2601.00,0.0035
2600.00,0.0035
2599.00,0.0035
2598.00,0.0035
2597.00,0.0035
2596.00,0.0035
2595.00,0.0035
2594.00,0.0036
2593.00,0.0036
2592.00,0.0037
2591.00,0.0038
2590.00,0.0039
2589.00,0.0039
2588.00,0.0040
2587.00,0.0041
2586.00,0.0042
2585.00,0.0043
2584.00,0.0043
2583.00,0.0044
2582.00,0.0044
2581.00,0.0044
2580.00,0.0044
2579.00,0.0043
2578.00,0.0042
2577.00,0.0041
2576.00,0.0040
2575.00,0.0038
2574.00,0.0037
2573.00,0.0035
2572.00,0.0034
2571.00,0.0033
2570.00,0.0032
2569.00,0.0031
2568.00,0.0030
2567.00,0.0030
2566.00,0.0029
2565.00,0.0028
2564.00,0.0028
2563.00,0.0027
2562.00,0.0027
2561.00,0.0026
2560.00,0.0026
2559.00,0.0026
2558.00,0.0025
2557.00,0.0025
2556.00,0.0024
2555.00,0.0024
2554.00,0.0024
2553.00,0.0024
2552.00,0.0023
2551.00,0.0022
2550.00,0.0022
2549.00,0.0022
2548.00,0.0022
2547.00,0.0022
2546.00,0.0022
2545.00,0.0021
2544.00,0.0021
2543.00,0.0020
2542.00,0.0019
2541.00,0.0018
2540.00,0.0018
2539.00,0.0018
2538.00,0.0018
2537.00,0.0019
2536.00,0.0019
2535.00,0.0019
2534.00,0.0019
2533.00,0.0018
2532.00,0.0018
2531.00,0.0018
2530.00,0.0018
2529.00,0.0018
2528.00,0.0017
2527.00,0.0017
2526.00,0.0016
2525.00,0.0016
2524.00,0.0016
2523.00,0.0016
2522.00,0.0015
2521.00,0.0015
2520.00,0.0014
2519.00,0.0014
2518.00,0.0014
2517.00,0.0015
2516.00,0.0015
2515.00,0.0015
2514.00,0.0014
2513.00,0.0014
2512.00,0.0014
2511.00,0.0013
2510.00,0.0013
2509.00,0.0013
2508.00,0.0013
2507.00,0.0014
2506.00,0.0014
2505.00,0.0014
2504.00,0.0013
2503.00,0.0013
2502.00,0.0012
2501.00,0.0012
2500.00,0.0012
2499.00,0.0013
2498.00,0.0013
2497.00,0.0012
2496.00,0.0012
2495.00,0.0011
2494.00,0.0011
2493.00,0.0012
2492.00,0.0012
2491.00,0.0012
2490.00,0.0012
2489.00,0.0012
2488.00,0.0012
2487.00,0.0012
2486.00,0.0013
2485.00,0.0013
2484.00,0.0012
2483.00,0.0012
2482.00,0.0012
2481.00,0.0012
2480.00,0.0012
2479.00,0.0012
2478.00,0.0011
2477.00,0.0011
2476.00,0.0012
2475.00,0.0012
2474.00,0.0012
2473.00,0.0012
2472.00,0.0011
2471.00,0.0011
2470.00,0.0010
2469.00,0.0010
2468.00,0.0009
2467.00,0.0009
2466.00,0.0009
2465.00,0.0010
2464.00,0.0010
2463.00,0.0011
2462.00,0.0012
2461.00,0.0012
2460.00,0.0013
2459.00,0.0013
2458.00,0.0013
2457.00,0.0012
2456.00,0.0012
2455.00,0.0013
2454.00,0.0013
2453.00,0.0013
2452.00,0.0013
2451.00,0.0013
2450.00,0.0013
2449.00,0.0013
2448.00,0.0014
2447.00,0.0014
2446.00,0.0015
2445.00,0.0014
2444.00,0.0013
2443.00,0.0012
2442.00,0.0012
2441.00,0.0011
2440.00,0.0011
2439.00,0.0011
2438.00,0.0012
2437.00,0.0012
2436.00,0.0013
2435.00,0.0013
2434.00,0.0013
2433.00,0.0014
2432.00,0.0014
2431.00,0.0014
2430.00,0.0014
2429.00,0.0014
2428.00,0.0014
2427.00,0.0013
2426.00,0.0013
2425.00,0.0013
2424.00,0.0014
2423.00,0.0013
2422.00,0.0013
2421.00,0.0012
2420.00,0.0011
2419.00,0.0011
2418.00,0.0011
2417.00,0.0011
2416.00,0.0011
2415.00,0.0011
2414.00,0.0011
2413.00,0.0012
2412.00,0.0012
2411.00,0.0011
2410.00,0.0010
2409.00,0.0009
2408.00,0.0009
2407.00,0.0009
2406.00,0.0009
2405.00,0.0009
2404.00,0.0010
2403.00,0.0010
2402.00,0.0010
2401.00,0.0010
2400.00,0.0009
2399.00,0.0009
2398.00,0.0009
2397.00,0.0009
2396.00,0.0009
2395.00,0.0009
2394.00,0.0009
2393.00,0.0009
2392.00,0.0009
2391.00,0.0009
2390.00,0.0008
2389.00,0.0008
2388.00,0.0008
2387.00,0.0008
2386.00,0.0008
2385.00,0.0008
2384.00,0.0008
2383.00,0.0007
2382.00,0.0006
2381.00,0.0005
2380.00,0.0005
2379.00,0.0004
2378.00,0.0004
2377.00,0.0004
2376.00,0.0004
2375.00,0.0005
2374.00,0.0006
2373.00,0.0007
2372.00,0.0007
2371.00,0.0006
2370.00,0.0005
2369.00,0.0004
2368.00,0.0004
2367.00,0.0004
2366.00,0.0005
2365.00,0.0006
2364.00,0.0006
2363.00,0.0006
2362.00,0.0006
2361.00,0.0006
2360.00,0.0006
2359.00,0.0006
2358.00,0.0006
2357.00,0.0007
2356.00,0.0007
2355.00,0.0008
2354.00,0.0009
2353.00,0.0009
2352.00,0.0009
2351.00,0.0009
2350.00,0.0008
2349.00,0.0008
2348.00,0.0008
2347.00,0.0008
2346.00,0.0008
2345.00,0.0009
2344.00,0.0009
2343.00,0.0009
2342.00,0.0009
2341.00,0.0010
2340.00,0.0011
2339.00,0.0011
2338.00,0.0011
2337.00,0.0011
2336.00,0.0011
2335.00,0.0011
2334.00,0.0012
2333.00,0.0012
2332.00,0.0011
2331.00,0.0011
2330.00,0.0010
2329.00,0.0010
2328.00,0.0012
2327.00,0.0014
2326.00,0.0018
2325.00,0.0021
2324.00,0.0023
2323.00,0.0022
2322.00,0.0020
2321.00,0.0019
2320.00,0.0018
2319.00,0.0017
2318.00,0.0016
2317.00,0.0015
2316.00,0.0013
2315.00,0.0012
2314.00,0.0012
2313.00,0.0011
2312.00,0.0011
2311.00,0.0009
2310.00,0.0008
2309.00,0.0007
2308.00,0.0006
2307.00,0.0006
2306.00,0.0008
2305.00,0.0009
2304.00,0.0011
2303.00,0.0011
2302.00,0.0011
2301.00,0.0011
2300.00,0.0011
2299.00,0.0011
2298.00,0.0011
2297.00,0.0012
2296.00,0.0012
2295.00,0.0014
2294.00,0.0015
2293.00,0.0016
2292.00,0.0017
2291.00,0.0017
2290.00,0.0017
2289.00,0.0018
2288.00,0.0017
2287.00,0.0017
2286.00,0.0017
2285.00,0.0018
2284.00,0.0018
2283.00,0.0017
2282.00,0.0016
2281.00,0.0015
2280.00,0.0014
2279.00,0.0014
2278.00,0.0014
2277.00,0.0014
2276.00,0.0014
2275.00,0.0014
2274.00,0.0014
2273.00,0.0014
2272.00,0.0014
2271.00,0.0013
2270.00,0.0012
2269.00,0.0011
2268.00,0.0012
2267.00,0.0012
2266.00,0.0012
2265.00,0.0011
2264.00,0.0011
2263.00,0.0010
2262.00,0.0009
2261.00,0.0009
2260.00,0.0010
2259.00,0.0011
2258.00,0.0011
2257.00,0.0011
2256.00,0.0011
2255.00,0.0010
2254.00,0.0010
2253.00,0.0009
2252.00,0.0009
2251.00,0.0009
2250.00,0.0009
2249.00,0.0010
2248.00,0.0010
2247.00,0.0009
2246.00,0.0009
2245.00,0.0008
2244.00,0.0008
2243.00,0.0008
2242.00,0.0009
2241.00,0.0009
2240.00,0.0010
2239.00,0.0010
2238.00,0.0010
2237.00,0.0010
2236.00,0.0011
2235.00,0.0011
2234.00,0.0011
2233.00,0.0010
2232.00,0.0009
2231.00,0.0008
2230.00,0.0007
2229.00,0.0007
2228.00,0.0006
2227.00,0.0006
2226.00,0.0005
2225.00,0.0005
2224.00,0.0006
2223.00,0.0006
2222.00,0.0007
2221.00,0.0007
2220.00,0.0007
2219.00,0.0007
2218.00,0.0008
2217.00,0.0008
2216.00,0.0009
2215.00,0.0009
2214.00,0.0009
2213.00,0.0008
2212.00,0.0007
2211.00,0.0006
2210.00,0.0005
2209.00,0.0004
2208.00,0.0005
2207.00,0.0006
2206.00,0.0007
2205.00,0.0008
2204.00,0.0008
2203.00,0.0009
2202.00,0.0009
2201.00,0.0008
2200.00,0.0007
2199.00,0.0006
2198.00,0.0006
2197.00,0.0007
2196.00,0.0008
2195.00,0.0010
2194.00,0.0010
2193.00,0.0011
2192.00,0.0012
2191.00,0.0013
2190.00,0.0013
2189.00,0.0011
2188.00,0.0011
2187.00,0.0012
2186.00,0.0014
2185.00,0.0016
2184.00,0.0015
2183.00,0.0012
2182.00,0.0009
2181.00,0.0007
2180.00,0.0005
2179.00,0.0004
2178.00,0.0002
2177.00,0.0001
2176.00,0.0001
2175.00,0.0001
2174.00,0.0001
2173.00,0.0001
2172.00,0.0002
2171.00,0.0004
2170.00,0.0008
2169.00,0.0012
2168.00,0.0014
2167.00,0.0014
2166.00,0.0013
2165.00,0.0013
2164.00,0.0014
2163.00,0.0016
2162.00,0.0015
2161.00,0.0009
2160.00,-0.0004
2159.00,-0.0020
2158.00,-0.0032
2157.00,-0.0035
2156.00,-0.0032
2155.00,-0.0029
2154.00,-0.0026
2153.00,-0.0024
2152.00,-0.0020
2151.00,-0.0016
2150.00,-0.0012
2149.00,-0.0011
2148.00,-0.0012
2147.00,-0.0014
2146.00,-0.0016
2145.00,-0.0017
2144.00,-0.0016
2143.00,-0.0015
2142.00,-0.0014
2141.00,-0.0013
2140.00,-0.0013
2139.00,-0.0013
2138.00,-0.0013
2137.00,-0.0014
2136.00,-0.0014
2135.00,-0.0015
2134.00,-0.0016
2133.00,-0.0016
2132.00,-0.0015
2131.00,-0.0012
2130.00,-0.0010
2129.00,-0.0008
2128.00,-0.0008
2127.00,-0.0007
2126.00,-0.0007
2125.00,-0.0006
2124.00,-0.0005
2123.00,-0.0004
2122.00,-0.0004
2121.00,-0.0003
2120.00,-0.0002
2119.00,-0.0001
2118.00,0.0001
2117.00,0.0002
2116.00,0.0002
2115.00,0.0001
2114.00,0.0001
2113.00,0.0001
2112.00,0.0001
2111.00,0.0003
2110.00,0.0005
2109.00,0.0007
2108.00,0.0008
2107.00,0.0007
2106.00,0.0006
2105.00,0.0004
2104.00,0.0003
2103.00,0.0003
2102.00,0.0004
2101.00,0.0005
2100.00,0.0007
2099.00,0.0007
2098.00,0.0006
2097.00,0.0002
2096.00,-0.0003
2095.00,-0.0006
2094.00,-0.0006
2093.00,-0.0005
2092.00,-0.0003
2091.00,-0.0002
2090.00,-0.0000
2089.00,0.0001
2088.00,0.0003
2087.00,0.0005
2086.00,0.0006
2085.00,0.0006
2084.00,0.0005
2083.00,0.0005
2082.00,0.0004
2081.00,0.0003
2080.00,0.0004
2079.00,0.0004
2078.00,0.0005
2077.00,0.0005
2076.00,0.0005
2075.00,0.0004
2074.00,0.0004
2073.00,0.0004
2072.00,0.0004
2071.00,0.0005
2070.00,0.0005
2069.00,0.0005
2068.00,0.0005
2067.00,0.0005
2066.00,0.0004
2065.00,0.0003
2064.00,0.0001
2063.00,-0.0002
2062.00,-0.0002
2061.00,-0.0001
2060.00,0.0001
2059.00,0.0003
2058.00,0.0003
2057.00,0.0003
2056.00,0.0003
2055.00,0.0003
2054.00,0.0005
2053.00,0.0008
2052.00,0.0013
2051.00,0.0016
2050.00,0.0015
2049.00,0.0009
2048.00,0.0002
2047.00,-0.0001
2046.00,-0.0001
2045.00,0.0000
2044.00,0.0001
2043.00,0.0001
2042.00,0.0002
2041.00,0.0003
2040.00,0.0005
2039.00,0.0006
2038.00,0.0007
2037.00,0.0007
2036.00,0.0007
2035.00,0.0004
2034.00,-0.0000
2033.00,-0.0005
2032.00,-0.0007
2031.00,-0.0009
2030.00,-0.0009
2029.00,-0.0008
2028.00,-0.0008
2027.00,-0.0009
2026.00,-0.0009
2025.00,-0.0009
2024.00,-0.0009
2023.00,-0.0009
2022.00,-0.0010
2021.00,-0.0011
2020.00,-0.0011
2019.00,-0.0012
2018.00,-0.0011
2017.00,-0.0009
2016.00,-0.0007
2015.00,-0.0007
2014.00,-0.0007
2013.00,-0.0006
2012.00,-0.0005
2011.00,-0.0005
2010.00,-0.0005
2009.00,-0.0007
2008.00,-0.0010
2007.00,-0.0014
2006.00,-0.0017
2005.00,-0.0018
2004.00,-0.0017
2003.00,-0.0015
2002.00,-0.0014
2001.00,-0.0014
2000.00,-0.0013
1999.00,-0.0012
1998.00,-0.0011
1997.00,-0.0010
1996.00,-0.0012
1995.00,-0.0015
1994.00,-0.0019
1993.00,-0.0019
1992.00,-0.0015
1991.00,-0.0010
1990.00,-0.0005
1989.00,-0.0001
1988.00,0.0002
1987.00,0.0005
1986.00,0.0008
1985.00,0.0012
1984.00,0.0015
1983.00,0.0016
1982.00,0.0016
1981.00,0.0015
1980.00,0.0014
1979.00,0.0011
1978.00,0.0006
1977.00,0.0001
1976.00,-0.0003
1975.00,-0.0007
1974.00,-0.0008
1973.00,-0.0007
1972.00,-0.0007
1971.00,-0.0008
1970.00,-0.0011
1969.00,-0.0013
1968.00,-0.0013
1967.00,-0.0012
1966.00,-0.0011
1965.00,-0.0010
1964.00,-0.0010
1963.00,-0.0012
1962.00,-0.0015
1961.00,-0.0019
1960.00,-0.0022
1959.00,-0.0024
1958.00,-0.0025
1957.00,-0.0024
1956.00,-0.0021
1955.00,-0.0019
1954.00,-0.0018
1953.00,-0.0018
1952.00,-0.0018
1951.00,-0.0017
1950.00,-0.0017
1949.00,-0.0017
1948.00,-0.0018
1947.00,-0.0018
1946.00,-0.0017
1945.00,-0.0015
1944.00,-0.0013
1943.00,-0.0012
1942.00,-0.0011
1941.00,-0.0011
1940.00,-0.0011
1939.00,-0.0012
1938.00,-0.0011
1937.00,-0.0011
1936.00,-0.0010
1935.00,-0.0010
1934.00,-0.0010
1933.00,-0.0011
1932.00,-0.0010
1931.00,-0.0009
1930.00,-0.0008
1929.00,-0.0007
1928.00,-0.0007
1927.00,-0.0009
1926.00,-0.0010
1925.00,-0.0010
1924.00,-0.0010
1923.00,-0.0008
1922.00,-0.0006
1921.00,-0.0004
1920.00,-0.0003
1919.00,-0.0003
1918.00,-0.0004
1917.00,-0.0005
1916.00,-0.0005
1915.00,-0.0004
1914.00,-0.0002
1913.00,-0.0000
1912.00,0.0001
1911.00,0.0000
1910.00,-0.0001
1909.00,-0.0002
1908.00,-0.0001
1907.00,0.0000
1906.00,0.0001
1905.00,0.0001
1904.00,0.0000
1903.00,-0.0001
1902.00,-0.0003
1901.00,-0.0003
1900.00,-0.0003
1899.00,-0.0002
1898.00,-0.0001
1897.00,0.0000
1896.00,0.0001
1895.00,0.0001
1894.00,-0.0000
1893.00,-0.0001
1892.00,-0.0001
1891.00,-0.0001
1890.00,-0.0000
1889.00,0.0001
1888.00,0.0001
1887.00,0.0000
1886.00,-0.0001
1885.00,-0.0001
1884.00,-0.0000
1883.00,0.0000
1882.00,0.0000
1881.00,0.0000
1880.00,0.0001
1879.00,0.0001
1878.00,0.0001
1877.00,0.0002
1876.00,0.0002
1875.00,0.0003
1874.00,0.0002
1873.00,0.0002
1872.00,0.0002
1871.00,0.0001
1870.00,0.0000
1869.00,-0.0001
1868.00,-0.0001
1867.00,-0.0001
1866.00,-0.0000
1865.00,0.0001
1864.00,0.0002
1863.00,0.0002
1862.00,0.0002
1861.00,0.0001
1860.00,0.0001
1859.00,0.0001
1858.00,0.0001
1857.00,0.0002
1856.00,0.0002
1855.00,0.0003
1854.00,0.0002
1853.00,0.0002
1852.00,0.0001
1851.00,0.0001
1850.00,0.0001
1849.00,0.0002
1848.00,0.0003
1847.00,0.0004
1846.00,0.0003
1845.00,0.0003
1844.00,0.0003
1843.00,0.0002
1842.00,0.0001
1841.00,0.0001
1840.00,0.0001
1839.00,0.0002
1838.00,0.0003
1837.00,0.0004
1836.00,0.0004
1835.00,0.0003
1834.00,0.0004
1833.00,0.0004
1832.00,0.0005
1831.00,0.0005
1830.00,0.0004
1829.00,0.0004
1828.00,0.0005
1827.00,0.0006
1826.00,0.0006
1825.00,0.0006
1824.00,0.0005
1823.00,0.0005
1822.00,0.0005
1821.00,0.0004
1820.00,0.0004
1819.00,0.0002
1818.00,0.0001
1817.00,0.0000
1816.00,0.0000
1815.00,0.0001
1814.00,0.0002
1813.00,0.0003
1812.00,0.0003
1811.00,0.0004
1810.00,0.0004
1809.00,0.0005
1808.00,0.0005
1807.00,0.0005
1806.00,0.0005
1805.00,0.0005
1804.00,0.0005
1803.00,0.0005
1802.00,0.0005
1801.00,0.0005
1800.00,0.0005
1799.00,0.0005
1798.00,0.0005
1797.00,0.0006
1796.00,0.0007
1795.00,0.0008
1794.00,0.0008
1793.00,0.0008
1792.00,0.0008
1791.00,0.0009
1790.00,0.0009
1789.00,0.0009
1788.00,0.0009
1787.00,0.0010
1786.00,0.0010
1785.00,0.0010
1784.00,0.0011
1783.00,0.0011
1782.00,0.0011
1781.00,0.0011
1780.00,0.0010
1779.00,0.0010
1778.00,0.0010
1777.00,0.0010
1776.00,0.0010
1775.00,0.0010
1774.00,0.0010
1773.00,0.0011
1772.00,0.0011
1771.00,0.0012
1770.00,0.0012
1769.00,0.0012
1768.00,0.0012
1767.00,0.0012
1766.00,0.0012
1765.00,0.0012
1764.00,0.0012
1763.00,0.0012
1762.00,0.0012
1761.00,0.0013
1760.00,0.0014
1759.00,0.0014
1758.00,0.0014
1757.00,0.0014
1756.00,0.0015
1755.00,0.0015
1754.00,0.0015
1753.00,0.0016
1752.00,0.0017
1751.00,0.0017
1750.00,0.0017
1749.00,0.0017
1748.00,0.0017
1747.00,0.0018
1746.00,0.0018
1745.00,0.0019
1744.00,0.0019
1743.00,0.0019
1742.00,0.0019
1741.00,0.0019
1740.00,0.0019
1739.00,0.0020
1738.00,0.0021
1737.00,0.0021
1736.00,0.0021
1735.00,0.0021
1734.00,0.0021
1733.00,0.0021
1732.00,0.0022
1731.00,0.0022
1730.00,0.0021
1729.00,0.0021
1728.00,0.0021
1727.00,0.0020
1726.00,0.0020
1725.00,0.0020
1724.00,0.0020
1723.00,0.0020
1722.00,0.0020
1721.00,0.0020
1720.00,0.0020
1719.00,0.0021
1718.00,0.0021
1717.00,0.0021
1716.00,0.0021
1715.00,0.0021
1714.00,0.0022
1713.00,0.0022
1712.00,0.0022
1711.00,0.0023
1710.00,0.0023
1709.00,0.0023
1708.00,0.0024
1707.00,0.0024
1706.00,0.0024
1705.00,0.0024
1704.00,0.0025
1703.00,0.0025
1702.00,0.0025
1701.00,0.0026
1700.00,0.0027
1699.00,0.0028
1698.00,0.0028
1697.00,0.0028
1696.00,0.0028
1695.00,0.0029
1694.00,0.0030
1693.00,0.0030
1692.00,0.0031
1691.00,0.0031
1690.00,0.0032
1689.00,0.0033
1688.00,0.0034
1687.00,0.0034
1686.00,0.0033
1685.00,0.0033
1684.00,0.0034
1683.00,0.0036
1682.00,0.0038
1681.00,0.0039
1680.00,0.0040
1679.00,0.0041
1678.00,0.0041
1677.00,0.0042
1676.00,0.0043
1675.00,0.0044
1674.00,0.0045
1673.00,0.0045
1672.00,0.0046
1671.00,0.0046
1670.00,0.0046
1669.00,0.0046
1668.00,0.0047
1667.00,0.0047
1666.00,0.0048
1665.00,0.0048
1664.00,0.0048
1663.00,0.0049
1662.00,0.0049
1661.00,0.0049
1660.00,0.0050
1659.00,0.0050
1658.00,0.0051
1657.00,0.0051
1656.00,0.0051
1655.00,0.0051
1654.00,0.0051
1653.00,0.0053
1652.00,0.0055
1651.00,0.0057
1650.00,0.0058
1649.00,0.0059
1648.00,0.0061
1647.00,0.0063
1646.00,0.0064
1645.00,0.0064
1644.00,0.0064
1643.00,0.0062
1642.00,0.0061
1641.00,0.0060
1640.00,0.0059
1639.00,0.0059
1638.00,0.0058
1637.00,0.0058
1636.00,0.0058
1635.00,0.0057
1634.00,0.0057
1633.00,0.0057
1632.00,0.0057
1631.00,0.0057
1630.00,0.0058
1629.00,0.0058
1628.00,0.0057
1627.00,0.0057
1626.00,0.0056
1625.00,0.0055
1624.00,0.0054
1623.00,0.0054
1622.00,0.0053
1621.00,0.0052
1620.00,0.0052
1619.00,0.0052
1618.00,0.0052
1617.00,0.0052
1616.00,0.0051
1615.00,0.0050
1614.00,0.0049
1613.00,0.0049
1612.00,0.0049
1611.00,0.0049
1610.00,0.0049
1609.00,0.0049
1608.00,0.0049
1607.00,0.0049
1606.00,0.0048
1605.00,0.0048
1604.00,0.0048
1603.00,0.0048
1602.00,0.0048
1601.00,0.0048
1600.00,0.0048
1599.00,0.0048
1598.00,0.0048
1597.00,0.0048
1596.00,0.0048
1595.00,0.0048
1594.00,0.0048
1593.00,0.0048
1592.00,0.0048
1591.00,0.0048
1590.00,0.0047
1589.00,0.0047
1588.00,0.0047
1587.00,0.0048
1586.00,0.0048
1585.00,0.0049
1584.00,0.0050
1583.00,0.0050
1582.00,0.0050
1581.00,0.0051
1580.00,0.0052
1579.00,0.0053
1578.00,0.0053
1577.00,0.0053
1576.00,0.0053
1575.00,0.0053
1574.00,0.0053
1573.00,0.0052
1572.00,0.0052
1571.00,0.0052
1570.00,0.0052
1569.00,0.0052
1568.00,0.0052
1567.00,0.0051
1566.00,0.0051
1565.00,0.0051
1564.00,0.0052
1563.00,0.0053
1562.00,0.0053
1561.00,0.0055
1560.00,0.0056
1559.00,0.0055
1558.00,0.0055
1557.00,0.0055
1556.00,0.0055
1555.00,0.0055
1554.00,0.0055
1553.00,0.0056
1552.00,0.0058
1551.00,0.0059
1550.00,0.0059
1549.00,0.0060
1548.00,0.0061
1547.00,0.0061
1546.00,0.0061
1545.00,0.0062
1544.00,0.0062
1543.00,0.0062
1542.00,0.0062
1541.00,0.0061
1540.00,0.0060
1539.00,0.0059
1538.00,0.0059
1537.00,0.0059
1536.00,0.0059
1535.00,0.0058
1534.00,0.0057
1533.00,0.0056
1532.00,0.0055
1531.00,0.0055
1530.00,0.0054
1529.00,0.0053
1528.00,0.0053
1527.00,0.0052
1526.00,0.0051
1525.00,0.0051
1524.00,0.0052
1523.00,0.0052
1522.00,0.0052
1521.00,0.0053
1520.00,0.0054
1519.00,0.0055
1518.00,0.0055
1517.00,0.0055
1516.00,0.0056
1515.00,0.0057
1514.00,0.0058
1513.00,0.0059
1512.00,0.0060
1511.00,0.0061
1510.00,0.0061
1509.00,0.0062
1508.00,0.0063
1507.00,0.0065
1506.00,0.0068
1505.00,0.0072
1504.00,0.0074
1503.00,0.0076
1502.00,0.0077
1501.00,0.0079
1500.00,0.0082
1499.00,0.0086
1498.00,0.0089
1497.00,0.0093
1496.00,0.0098
1495.00,0.0102
1494.00,0.0105
1493.00,0.0108
1492.00,0.0112
1491.00,0.0116
1490.00,0.0121
1489.00,0.0127
1488.00,0.0133
1487.00,0.0139
1486.00,0.0145
1485.00,0.0152
1484.00,0.0159
1483.00,0.0167
1482.00,0.0176
1481.00,0.0187
1480.00,0.0199
1479.00,0.0211
1478.00,0.0227
1477.00,0.0248
1476.00,0.0275
1475.00,0.0305
1474.00,0.0345
1473.00,0.0402
1472.00,0.0468
1471.00,0.0532
1470.00,0.0595
1469.00,0.0662
1468.00,0.0736
1467.00,0.0819
1466.00,0.0918
1465.00,0.1028
1464.00,0.1126
1463.00,0.1196
1462.00,0.1241
1461.00,0.1271
1460.00,0.1290
1459.00,0.1301
1458.00,0.1307
1457.00,0.1308
1456.00,0.1304
1455.00,0.1294
1454.00,0.1280
1453.00,0.1260
1452.00,0.1229
1451.00,0.1185
1450.00,0.1125
1449.00,0.1045
1448.00,0.0945
1447.00,0.0841
1446.00,0.0749
1445.00,0.0672
1444.00,0.0607
1443.00,0.0556
1442.00,0.0518
1441.00,0.0494
1440.00,0.0482
1439.00,0.0479
1438.00,0.0485
1437.00,0.0491
1436.00,0.0484
1435.00,0.0457
1434.00,0.0415
1433.00,0.0365
1432.00,0.0313
1431.00,0.0268
1430.00,0.0233
1429.00,0.0209
1428.00,0.0193
1427.00,0.0184
1426.00,0.0178
1425.00,0.0173
1424.00,0.0168
1423.00,0.0166
1422.00,0.0165
1421.00,0.0164
1420.00,0.0162
1419.00,0.0161
1418.00,0.0160
1417.00,0.0159
1416.00,0.0158
1415.00,0.0158
1414.00,0.0159
1413.00,0.0160
1412.00,0.0161
1411.00,0.0163
1410.00,0.0165
1409.00,0.0167
1408.00,0.0170
1407.00,0.0173
1406.00,0.0179
1405.00,0.0184
1404.00,0.0189
1403.00,0.0195
1402.00,0.0201
1401.00,0.0208
1400.00,0.0215
1399.00,0.0223
1398.00,0.0232
1397.00,0.0239
1396.00,0.0247
1395.00,0.0256
1394.00,0.0266
1393.00,0.0274
1392.00,0.0281
1391.00,0.0290
1390.00,0.0303
1389.00,0.0321
1388.00,0.0349
1387.00,0.0390
1386.00,0.0444
1385.00,0.0511
1384.00,0.0599
1383.00,0.0719
1382.00,0.0878
1381.00,0.1086
1380.00,0.1350
1379.00,0.1662
1378.00,0.1978
1377.00,0.2229
1376.00,0.2339
1375.00,0.2255
1374.00,0.1997
1373.00,0.1666
1372.00,0.1352
1371.00,0.1089
1370.00,0.0877
1369.00,0.0716
1368.00,0.0604
1367.00,0.0534
1366.00,0.0496
1365.00,0.0480
1364.00,0.0480
1363.00,0.0495
1362.00,0.0519
1361.00,0.0546
1360.00,0.0567
1359.00,0.0572
1358.00,0.0558
1357.00,0.0525
1356.00,0.0479
1355.00,0.0425
1354.00,0.0374
1353.00,0.0330
1352.00,0.0295
1351.00,0.0266
1350.00,0.0243
1349.00,0.0225
1348.00,0.0211
1347.00,0.0200
1346.00,0.0190
1345.00,0.0183
1344.00,0.0177
1343.00,0.0172
1342.00,0.0167
1341.00,0.0163
1340.00,0.0159
1339.00,0.0156
1338.00,0.0153
1337.00,0.0152
1336.00,0.0153
1335.00,0.0154
1334.00,0.0158
1333.00,0.0162
1332.00,0.0167
1331.00,0.0171
1330.00,0.0172
1329.00,0.0169
1328.00,0.0163
1327.00,0.0156
1326.00,0.0147
1325.00,0.0139
1324.00,0.0131
1323.00,0.0124
1322.00,0.0118
1321.00,0.0113
1320.00,0.0109
1319.00,0.0106
1318.00,0.0104
1317.00,0.0102
1316.00,0.0100
1315.00,0.0098
1314.00,0.0097
1313.00,0.0097
1312.00,0.0098
1311.00,0.0099
1310.00,0.0102
1309.00,0.0107
1308.00,0.0114
1307.00,0.0122
1306.00,0.0130
1305.00,0.0136
1304.00,0.0139
1303.00,0.0140
1302.00,0.0139
1301.00,0.0138
1300.00,0.0139
1299.00,0.0142
1298.00,0.0144
1297.00,0.0146
1296.00,0.0146
1295.00,0.0144
1294.00,0.0139
1293.00,0.0134
1292.00,0.0128
1291.00,0.0122
1290.00,0.0117
1289.00,0.0113
1288.00,0.0110
1287.00,0.0108
1286.00,0.0107
1285.00,0.0106
1284.00,0.0105
1283.00,0.0104
1282.00,0.0103
1281.00,0.0102
1280.00,0.0103
1279.00,0.0104
1278.00,0.0105
1277.00,0.0107
1276.00,0.0109
1275.00,0.0111
1274.00,0.0113
1273.00,0.0116
1272.00,0.0119
1271.00,0.0122
1270.00,0.0126
1269.00,0.0131
1268.00,0.0136
1267.00,0.0141
1266.00,0.0146
1265.00,0.0150
1264.00,0.0154
1263.00,0.0158
1262.00,0.0161
1261.00,0.0165
1260.00,0.0169
1259.00,0.0175
1258.00,0.0181
1257.00,0.0186
1256.00,0.0190
1255.00,0.0192
1254.00,0.0190
1253.00,0.0186
1252.00,0.0181
1251.00,0.0176
1250.00,0.0170
1249.00,0.0165
1248.00,0.0160
1247.00,0.0156
1246.00,0.0154
1245.00,0.0152
1244.00,0.0151
1243.00,0.0150
1242.00,0.0149
1241.00,0.0147
1240.00,0.0145
1239.00,0.0143
1238.00,0.0141
1237.00,0.0139
1236.00,0.0137
1235.00,0.0134
1234.00,0.0132
1233.00,0.0129
1232.00,0.0127
1231.00,0.0124
1230.00,0.0122
1229.00,0.0120
1228.00,0.0118
1227.00,0.0116
1226.00,0.0115
1225.00,0.0116
1224.00,0.0118
1223.00,0.0121
1222.00,0.0124
1221.00,0.0126
1220.00,0.0126
1219.00,0.0126
1218.00,0.0124
1217.00,0.0121
1216.00,0.0117
1215.00,0.0113
1214.00,0.0109
1213.00,0.0104
1212.00,0.0100
1211.00,0.0097
1210.00,0.0094
1209.00,0.0092
1208.00,0.0090
1207.00,0.0089
1206.00,0.0087
1205.00,0.0086
1204.00,0.0085
1203.00,0.0085
1202.00,0.0085
1201.00,0.0085
1200.00,0.0085
1199.00,0.0085
1198.00,0.0085
1197.00,0.0086
1196.00,0.0087
1195.00,0.0088
1194.00,0.0089
1193.00,0.0091
1192.00,0.0094
1191.00,0.0096
1190.00,0.0098
1189.00,0.0100
1188.00,0.0102
1187.00,0.0105
1186.00,0.0109
1185.00,0.0112
1184.00,0.0116
1183.00,0.0119
1182.00,0.0124
1181.00,0.0130
1180.00,0.0137
1179.00,0.0144
1178.00,0.0152
1177.00,0.0161
1176.00,0.0172
1175.00,0.0186
1174.00,0.0204
1173.00,0.0226
1172.00,0.0251
1171.00,0.0279
1170.00,0.0307
1169.00,0.0330
1168.00,0.0346
1167.00,0.0352
1166.00,0.0350
1165.00,0.0344
1164.00,0.0336
1163.00,0.0328
1162.00,0.0322
1161.00,0.0316
1160.00,0.0312
1159.00,0.0309
1158.00,0.0308
1157.00,0.0307
1156.00,0.0308
1155.00,0.0309
1154.00,0.0309
1153.00,0.0309
1152.00,0.0306
1151.00,0.0300
1150.00,0.0292
1149.00,0.0282
1148.00,0.0270
1147.00,0.0259
1146.00,0.0248
1145.00,0.0239
1144.00,0.0230
1143.00,0.0222
1142.00,0.0214
1141.00,0.0207
1140.00,0.0200
1139.00,0.0194
1138.00,0.0188
1137.00,0.0183
1136.00,0.0177
1135.00,0.0172
1134.00,0.0168
1133.00,0.0166
1132.00,0.0165
1131.00,0.0163
1130.00,0.0162
1129.00,0.0160
1128.00,0.0159
1127.00,0.0158
1126.00,0.0158
1125.00,0.0157
1124.00,0.0155
1123.00,0.0154
1122.00,0.0153
1121.00,0.0151
1120.00,0.0150
1119.00,0.0149
1118.00,0.0149
1117.00,0.0148
1116.00,0.0147
1115.00,0.0147
1114.00,0.0147
1113.00,0.0148
1112.00,0.0148
1111.00,0.0150
1110.00,0.0154
1109.00,0.0158
1108.00,0.0164
1107.00,0.0172
1106.00,0.0181
1105.00,0.0189
1104.00,0.0196
1103.00,0.0200
1102.00,0.0201
1101.00,0.0199
1100.00,0.0195
1099.00,0.0190
1098.00,0.0186
1097.00,0.0181
1096.00,0.0178
1095.00,0.0175
1094.00,0.0174
1093.00,0.0173
1092.00,0.0172
1091.00,0.0172
1090.00,0.0172
1089.00,0.0172
1088.00,0.0171
1087.00,0.0171
1086.00,0.0170
1085.00,0.0170
1084.00,0.0170
1083.00,0.0170
1082.00,0.0170
1081.00,0.0170
1080.00,0.0170
1079.00,0.0169
1078.00,0.0168
1077.00,0.0167
1076.00,0.0167
1075.00,0.0168
1074.00,0.0169
1073.00,0.0170
1072.00,0.0170
1071.00,0.0169
1070.00,0.0167
1069.00,0.0163
1068.00,0.0159
1067.00,0.0156
1066.00,0.0153
1065.00,0.0150
1064.00,0.0148
1063.00,0.0146
1062.00,0.0144
1061.00,0.0143
1060.00,0.0141
1059.00,0.0139
1058.00,0.0136
1057.00,0.0132
1056.00,0.0129
1055.00,0.0126
1054.00,0.0124
1053.00,0.0123
1052.00,0.0122
1051.00,0.0121
1050.00,0.0120
1049.00,0.0119
1048.00,0.0118
1047.00,0.0117
1046.00,0.0115
1045.00,0.0113
1044.00,0.0110
1043.00,0.0108
1042.00,0.0106
1041.00,0.0105
1040.00,0.0103
1039.00,0.0102
1038.00,0.0101
1037.00,0.0100
1036.00,0.0099
1035.00,0.0098
1034.00,0.0098
1033.00,0.0097
1032.00,0.0096
1031.00,0.0095
1030.00,0.0095
1029.00,0.0095
1028.00,0.0094
1027.00,0.0094
1026.00,0.0093
1025.00,0.0093
1024.00,0.0092
1023.00,0.0092
1022.00,0.0092
1021.00,0.0093
1020.00,0.0094
1019.00,0.0094
1018.00,0.0095
1017.00,0.0096
1016.00,0.0097
1015.00,0.0098
1014.00,0.0099
1013.00,0.0101
1012.00,0.0103
1011.00,0.0106
1010.00,0.0109
1009.00,0.0112
1008.00,0.0117
1007.00,0.0122
1006.00,0.0129
1005.00,0.0137
1004.00,0.0148
1003.00,0.0163
1002.00,0.0183
1001.00,0.0208
1000.00,0.0232
999.00,0.0252
998.00,0.0260
997.00,0.0254
996.00,0.0235
995.00,0.0209
994.00,0.0182
993.00,0.0159
992.00,0.0140
991.00,0.0125
990.00,0.0116
989.00,0.0110
988.00,0.0107
987.00,0.0107
986.00,0.0108
985.00,0.0111
984.00,0.0117
983.00,0.0125
982.00,0.0137
981.00,0.0153
980.00,0.0175
979.00,0.0204
978.00,0.0240
977.00,0.0280
976.00,0.0322
975.00,0.0360
974.00,0.0387
973.00,0.0399
972.00,0.0392
971.00,0.0370
970.00,0.0338
969.00,0.0306
968.00,0.0278
967.00,0.0255
966.00,0.0237
965.00,0.0223
964.00,0.0212
963.00,0.0204
962.00,0.0198
961.00,0.0195
960.00,0.0194
959.00,0.0195
958.00,0.0197
957.00,0.0197
956.00,0.0196
955.00,0.0194
954.00,0.0193
953.00,0.0192
952.00,0.0190
951.00,0.0188
950.00,0.0185
949.00,0.0183
948.00,0.0181
947.00,0.0181
946.00,0.0182
945.00,0.0184
944.00,0.0187
943.00,0.0189
942.00,0.0190
941.00,0.0189
940.00,0.0186
939.00,0.0180
938.00,0.0172
937.00,0.0162
936.00,0.0151
935.00,0.0141
934.00,0.0132
933.00,0.0124
932.00,0.0117
931.00,0.0110
930.00,0.0104
929.00,0.0098
928.00,0.0094
927.00,0.0090
926.00,0.0087
925.00,0.0085
924.00,0.0084
923.00,0.0084
922.00,0.0084
921.00,0.0084
920.00,0.0084
919.00,0.0083
918.00,0.0083
917.00,0.0082
916.00,0.0082
915.00,0.0082
914.00,0.0082
913.00,0.0082
912.00,0.0083
911.00,0.0085
910.00,0.0087
909.00,0.0089
908.00,0.0091
907.00,0.0096
906.00,0.0103
905.00,0.0114
904.00,0.0130
903.00,0.0151
902.00,0.0174
901.00,0.0195
900.00,0.0209
899.00,0.0214
898.00,0.0206
897.00,0.0188
896.00,0.0165
895.00,0.0143
894.00,0.0124
893.00,0.0110
892.00,0.0100
891.00,0.0092
890.00,0.0086
889.00,0.0081
888.00,0.0076
887.00,0.0073
886.00,0.0071
885.00,0.0071
884.00,0.0072
883.00,0.0073
882.00,0.0074
881.00,0.0075
880.00,0.0076
879.00,0.0076
878.00,0.0076
877.00,0.0077
876.00,0.0077
875.00,0.0078
874.00,0.0079
873.00,0.0079
872.00,0.0079
871.00,0.0079
870.00,0.0078
869.00,0.0077
868.00,0.0076
867.00,0.0076
866.00,0.0076
865.00,0.0077
864.00,0.0078
863.00,0.0079
862.00,0.0081
861.00,0.0082
860.00,0.0083
859.00,0.0083
858.00,0.0083
857.00,0.0084
856.00,0.0086
855.00,0.0088
854.00,0.0091
853.00,0.0094
852.00,0.0097
851.00,0.0100
850.00,0.0103
849.00,0.0108
848.00,0.0115
847.00,0.0125
846.00,0.0140
845.00,0.0161
844.00,0.0189
843.00,0.0220
842.00,0.0242
841.00,0.0246
840.00,0.0231
839.00,0.0205
838.00,0.0177
837.00,0.0155
836.00,0.0140
835.00,0.0132
834.00,0.0128
833.00,0.0126
832.00,0.0125
831.00,0.0124
830.00,0.0124
829.00,0.0124
828.00,0.0123
827.00,0.0123
826.00,0.0122
825.00,0.0121
824.00,0.0121
823.00,0.0122
822.00,0.0124
821.00,0.0127
820.00,0.0130
819.00,0.0134
818.00,0.0139
817.00,0.0146
816.00,0.0156
815.00,0.0169
814.00,0.0184
813.00,0.0203
812.00,0.0223
811.00,0.0243
810.00,0.0258
809.00,0.0266
808.00,0.0264
807.00,0.0253
806.00,0.0235
805.00,0.0214
804.00,0.0193
803.00,0.0174
802.00,0.0159
801.00,0.0148
800.00,0.0139
799.00,0.0133
798.00,0.0127
797.00,0.0121
796.00,0.0115
795.00,0.0109
794.00,0.0103
793.00,0.0099
792.00,0.0096
791.00,0.0094
790.00,0.0092
789.00,0.0090
788.00,0.0088
787.00,0.0085
786.00,0.0082
785.00,0.0079
784.00,0.0076
783.00,0.0073
782.00,0.0070
781.00,0.0069
780.00,0.0068
779.00,0.0067
778.00,0.0066
777.00,0.0065
776.00,0.0065
775.00,0.0066
774.00,0.0068
773.00,0.0070
772.00,0.0073
771.00,0.0075
770.00,0.0077
769.00,0.0078
768.00,0.0080
767.00,0.0080
766.00,0.0080
765.00,0.0077
764.00,0.0073
763.00,0.0070
762.00,0.0067
761.00,0.0065
760.00,0.0063
759.00,0.0061
758.00,0.0059
757.00,0.0059
756.00,0.0059
755.00,0.0059
754.00,0.0059
753.00,0.0058
752.00,0.0058
751.00,0.0057
750.00,0.0057
749.00,0.0056
748.00,0.0056
747.00,0.0057
746.00,0.0059
745.00,0.0059
744.00,0.0059
743.00,0.0058
742.00,0.0057
741.00,0.0058
740.00,0.0059
739.00,0.0061
738.00,0.0062
737.00,0.0064
736.00,0.0065
735.00,0.0068
734.00,0.0070
733.00,0.0072
732.00,0.0073
731.00,0.0073
730.00,0.0073
729.00,0.0073
728.00,0.0071
727.00,0.0069
726.00,0.0067
725.00,0.0067
724.00,0.0068
723.00,0.0069
722.00,0.0068
721.00,0.0067
720.00,0.0065
719.00,0.0065
718.00,0.0065
717.00,0.0066
716.00,0.0066
715.00,0.0064
714.00,0.0062
713.00,0.0061
712.00,0.0061
711.00,0.0062
710.00,0.0063
709.00,0.0063
708.00,0.0062
707.00,0.0061
706.00,0.0060
705.00,0.0058
704.00,0.0057
703.00,0.0056
702.00,0.0055
701.00,0.0055
700.00,0.0055
699.00,0.0055
698.00,0.0055
697.00,0.0056
696.00,0.0056
695.00,0.0056
694.00,0.0056
693.00,0.0056
692.00,0.0056
691.00,0.0057
690.00,0.0058
689.00,0.0058
688.00,0.0059
687.00,0.0059
686.00,0.0061
685.00,0.0061
684.00,0.0060
683.00,0.0059
682.00,0.0057
681.00,0.0057
680.00,0.0056
679.00,0.0057
678.00,0.0057
677.00,0.0056
676.00,0.0055
675.00,0.0053
674.00,0.0051
673.00,0.0050
672.00,0.0050
671.00,0.0051
670.00,0.0052
669.00,0.0054
668.00,0.0057
667.00,0.0059
666.00,0.0058
665.00,0.0057
664.00,0.0056
663.00,0.0056
662.00,0.0057
661.00,0.0058
660.00,0.0058
659.00,0.0057
658.00,0.0056
657.00,0.0056
656.00,0.0057
655.00,0.0057
654.00,0.0057
653.00,0.0057
652.00,0.0057
651.00,0.0057
650.00,0.0057
649.00,0.0059
648.00,0.0060
647.00,0.0061
646.00,0.0061
645.00,0.0061
644.00,0.0061
643.00,0.0060
642.00,0.0059
641.00,0.0057
640.00,0.0057
639.00,0.0059
638.00,0.0062
637.00,0.0063
636.00,0.0063
635.00,0.0061
634.00,0.0058
633.00,0.0056
632.00,0.0055
631.00,0.0055
630.00,0.0056
629.00,0.0059
628.00,0.0060
627.00,0.0060
626.00,0.0058
625.00,0.0055
624.00,0.0053
623.00,0.0053
622.00,0.0053
621.00,0.0056
620.00,0.0059
619.00,0.0061
618.00,0.0063
617.00,0.0062
616.00,0.0059
615.00,0.0057
614.00,0.0055
613.00,0.0056
612.00,0.0058
611.00,0.0059
610.00,0.0058
609.00,0.0056
608.00,0.0055
607.00,0.0056
606.00,0.0057
605.00,0.0059
604.00,0.0060
603.00,0.0061
602.00,0.0062
601.00,0.0061
600.00,0.0059
599.00,0.0057
598.00,0.0056
597.00,0.0057
596.00,0.0059
595.00,0.0059
594.00,0.0058
593.00,0.0056
592.00,0.0055
591.00,0.0055
590.00,0.0055
589.00,0.0056
588.00,0.0057
587.00,0.0059
586.00,0.0062
585.00,0.0065
584.00,0.0066
583.00,0.0066
582.00,0.0066
581.00,0.0065
580.00,0.0065
579.00,0.0065
578.00,0.0066
577.00,0.0064
576.00,0.0061
575.00,0.0058
574.00,0.0058
573.00,0.0060
572.00,0.0063
571.00,0.0064
570.00,0.0064
569.00,0.0063
568.00,0.0062
567.00,0.0061
566.00,0.0061
565.00,0.0062
564.00,0.0064
563.00,0.0064
562.00,0.0064
561.00,0.0063
560.00,0.0062
559.00,0.0061
558.00,0.0061
557.00,0.0062
556.00,0.0066
555.00,0.0071
554.00,0.0074
553.00,0.0074
552.00,0.0070
551.00,0.0068
550.00,0.0068
549.00,0.0070
548.00,0.0072
547.00,0.0073
546.00,0.0072
545.00,0.0070
544.00,0.0069
543.00,0.0069
542.00,0.0071
541.00,0.0074
540.00,0.0077
539.00,0.0078
538.00,0.0079
537.00,0.0081
536.00,0.0083
535.00,0.0086
534.00,0.0088
533.00,0.0089
532.00,0.0089
531.00,0.0088
530.00,0.0089
529.00,0.0090
528.00,0.0090
527.00,0.0088
526.00,0.0087
525.00,0.0087
524.00,0.0090
523.00,0.0094
522.00,0.0098
521.00,0.0100
520.00,0.0097
519.00,0.0091
518.00,0.0084
517.00,0.0079
516.00,0.0076
515.00,0.0075
514.00,0.0074
513.00,0.0073
512.00,0.0073
511.00,0.0071
510.00,0.0069
509.00,0.0067
508.00,0.0068
507.00,0.0069
506.00,0.0071
505.00,0.0073
504.00,0.0074
503.00,0.0072
502.00,0.0068
501.00,0.0064
500.00,0.0063
499.00,0.0064
498.00,0.0070
497.00,0.0078
496.00,0.0087
495.00,0.0092
494.00,0.0091
493.00,0.0084
492.00,0.0076
491.00,0.0070
490.00,0.0067
489.00,0.0065
488.00,0.0063
487.00,0.0063
486.00,0.0064
485.00,0.0065
484.00,0.0068
483.00,0.0073
482.00,0.0081
481.00,0.0087
480.00,0.0088
479.00,0.0085
478.00,0.0084
477.00,0.0084
476.00,0.0084
475.00,0.0084
474.00,0.0086
473.00,0.0090
472.00,0.0095
471.00,0.0095
470.00,0.0094
469.00,0.0095
468.00,0.0100
467.00,0.0109
466.00,0.0116
465.00,0.0122
464.00,0.0129
463.00,0.0144
462.00,0.0164
461.00,0.0185
460.00,0.0198
459.00,0.0199
458.00,0.0187
457.00,0.0167
456.00,0.0145
455.00,0.0124
454.00,0.0111
453.00,0.0105
452.00,0.0103
451.00,0.0098
450.00,0.0090
