Created as New Dataset,Sample 110 By Administrator Date Tuesday, September 09 2025
cm-1,A
4000.00,0.0007
3999.00,0.0007
3998.00,0.0007
3997.00,0.0006
3996.00,0.0006
3995.00,0.0006
3994.00,0.0006
3993.00,0.0006
3992.00,0.0006
3991.00,0.0006
3990.00,0.0006
3989.00,0.0006
3988.00,0.0005
3987.00,0.0005
3986.00,0.0005
3985.00,0.0005
3984.00,0.0005
3983.00,0.0005
3982.00,0.0005
3981.00,0.0005
3980.00,0.0005
3979.00,0.0006
3978.00,0.0006
3977.00,0.0006
3976.00,0.0006
3975.00,0.0006
3974.00,0.0006
3973.00,0.0005
3972.00,0.0005
3971.00,0.0005
3970.00,0.0004
3969.00,0.0004
3968.00,0.0004
3967.00,0.0004
3966.00,0.0004
3965.00,0.0004
3964.00,0.0004
3963.00,0.0004
3962.00,0.0005
3961.00,0.0005
3960.00,0.0005
3959.00,0.0005
3958.00,0.0005
3957.00,0.0005
3956.00,0.0005
3955.00,0.0005
3954.00,0.0005
3953.00,0.0004
3952.00,0.0004
3951.00,0.0004
3950.00,0.0004
3949.00,0.0004
3948.00,0.0004
3947.00,0.0004
3946.00,0.0004
3945.00,0.0005
3944.00,0.0005
3943.00,0.0005
3942.00,0.0005
3941.00,0.0004
3940.00,0.0004
3939.00,0.0004
3938.00,0.0005
3937.00,0.0005
3936.00,0.0005
3935.00,0.0005
3934.00,0.0006
3933.00,0.0005
3932.00,0.0005
3931.00,0.0005
3930.00,0.0005
3929.00,0.0005
3928.00,0.0004
3927.00,0.0004
3926.00,0.0004
3925.00,0.0004
3924.00,0.0004
3923.00,0.0005
3922.00,0.0005
3921.00,0.0005
3920.00,0.0005
3919.00,0.0005
3918.00,0.0004
3917.00,0.0004
3916.00,0.0004
3915.00,0.0004
3914.00,0.0004
3913.00,0.0004
3912.00,0.0004
3911.00,0.0004
3910.00,0.0005
3909.00,0.0005
3908.00,0.0005
3907.00,0.0005
3906.00,0.0005
3905.00,0.0005
3904.00,0.0005
3903.00,0.0005
3902.00,0.0005
3901.00,0.0005
3900.00,0.0005
3899.00,0.0005
3898.00,0.0005
3897.00,0.0005
3896.00,0.0006
3895.00,0.0005
3894.00,0.0005
3893.00,0.0005
3892.00,0.0005
3891.00,0.0005
3890.00,0.0005
3889.00,0.0005
3888.00,0.0005
3887.00,0.0005
3886.00,0.0005
3885.00,0.0004
3884.00,0.0004
3883.00,0.0003
3882.00,0.0003
3881.00,0.0004
3880.00,0.0004
3879.00,0.0004
3878.00,0.0004
3877.00,0.0004
3876.00,0.0004
3875.00,0.0004
3874.00,0.0004
3873.00,0.0004
3872.00,0.0004
3871.00,0.0004
3870.00,0.0004
3869.00,0.0004
3868.00,0.0004
3867.00,0.0004
3866.00,0.0004
3865.00,0.0004
3864.00,0.0004
3863.00,0.0004
3862.00,0.0004
3861.00,0.0005
3860.00,0.0005
3859.00,0.0006
3858.00,0.0007
3857.00,0.0007
3856.00,0.0007
3855.00,0.0006
3854.00,0.0006
3853.00,0.0005
3852.00,0.0004
3851.00,0.0004
3850.00,0.0004
3849.00,0.0004
3848.00,0.0004
3847.00,0.0004
3846.00,0.0004
3845.00,0.0004
3844.00,0.0004
3843.00,0.0004
3842.00,0.0005
3841.00,0.0005
3840.00,0.0005
3839.00,0.0004
3838.00,0.0004
3837.00,0.0004
3836.00,0.0004
3835.00,0.0003
3834.00,0.0003
3833.00,0.0004
3832.00,0.0004
3831.00,0.0005
3830.00,0.0004
3829.00,0.0004
3828.00,0.0004
3827.00,0.0004
3826.00,0.0004
3825.00,0.0004
3824.00,0.0004
3823.00,0.0004
3822.00,0.0004
3821.00,0.0005
3820.00,0.0005
3819.00,0.0004
3818.00,0.0004
3817.00,0.0004
3816.00,0.0004
3815.00,0.0004
3814.00,0.0004
3813.00,0.0004
3812.00,0.0005
3811.00,0.0005
3810.00,0.0005
3809.00,0.0005
3808.00,0.0005
3807.00,0.0005
3806.00,0.0005
3805.00,0.0004
3804.00,0.0003
3803.00,0.0003
3802.00,0.0004
3801.00,0.0004
3800.00,0.0003
3799.00,0.0003
3798.00,0.0003
3797.00,0.0003
3796.00,0.0004
3795.00,0.0004
3794.00,0.0005
3793.00,0.0005
3792.00,0.0005
3791.00,0.0005
3790.00,0.0005
3789.00,0.0005
3788.00,0.0005
3787.00,0.0004
3786.00,0.0004
3785.00,0.0004
3784.00,0.0004
3783.00,0.0004
3782.00,0.0004
3781.00,0.0003
3780.00,0.0003
3779.00,0.0003
3778.00,0.0003
3777.00,0.0004
3776.00,0.0004
3775.00,0.0004
3774.00,0.0005
3773.00,0.0004
3772.00,0.0004
3771.00,0.0004
3770.00,0.0004
3769.00,0.0004
3768.00,0.0004
3767.00,0.0004
3766.00,0.0004
3765.00,0.0005
3764.00,0.0005
3763.00,0.0005
3762.00,0.0005
3761.00,0.0005
3760.00,0.0005
3759.00,0.0005
3758.00,0.0005
3757.00,0.0005
3756.00,0.0005
3755.00,0.0005
3754.00,0.0005
3753.00,0.0005
3752.00,0.0004
3751.00,0.0004
3750.00,0.0004
3749.00,0.0005
3748.00,0.0004
3747.00,0.0004
3746.00,0.0004
3745.00,0.0005
3744.00,0.0005
3743.00,0.0005
3742.00,0.0004
3741.00,0.0004
3740.00,0.0004
3739.00,0.0004
3738.00,0.0003
3737.00,0.0003
3736.00,0.0003
3735.00,0.0003
3734.00,0.0003
3733.00,0.0004
3732.00,0.0004
3731.00,0.0004
3730.00,0.0004
3729.00,0.0004
3728.00,0.0004
3727.00,0.0004
3726.00,0.0004
3725.00,0.0003
3724.00,0.0003
3723.00,0.0003
3722.00,0.0003
3721.00,0.0003
3720.00,0.0003
3719.00,0.0003
3718.00,0.0004
3717.00,0.0004
3716.00,0.0004
3715.00,0.0004
3714.00,0.0003
3713.00,0.0003
3712.00,0.0002
3711.00,0.0002
3710.00,0.0001
3709.00,0.0001
3708.00,0.0001
3707.00,0.0002
3706.00,0.0002
3705.00,0.0002
3704.00,0.0001
3703.00,0.0001
3702.00,0.0001
3701.00,0.0001
3700.00,0.0002
3699.00,0.0002
3698.00,0.0002
3697.00,0.0003
3696.00,0.0003
3695.00,0.0003
3694.00,0.0003
3693.00,0.0002
3692.00,0.0002
3691.00,0.0002
3690.00,0.0002
3689.00,0.0002
3688.00,0.0003
3687.00,0.0003
3686.00,0.0003
3685.00,0.0003
3684.00,0.0003
3683.00,0.0003
3682.00,0.0003
3681.00,0.0003
3680.00,0.0004
3679.00,0.0004
3678.00,0.0004
3677.00,0.0004
3676.00,0.0004
3675.00,0.0004
3674.00,0.0004
3673.00,0.0003
3672.00,0.0002
3671.00,0.0003
3670.00,0.0003
3669.00,0.0003
3668.00,0.0003
3667.00,0.0003
3666.00,0.0003
3665.00,0.0003
3664.00,0.0003
3663.00,0.0003
3662.00,0.0003
3661.00,0.0003
3660.00,0.0003
3659.00,0.0003
3658.00,0.0003
3657.00,0.0003
3656.00,0.0003
3655.00,0.0004
3654.00,0.0004
3653.00,0.0003
3652.00,0.0003
3651.00,0.0003
3650.00,0.0003
3649.00,0.0003
3648.00,0.0002
3647.00,0.0002
3646.00,0.0002
3645.00,0.0002
3644.00,0.0002
3643.00,0.0003
3642.00,0.0003
3641.00,0.0003
3640.00,0.0003
3639.00,0.0004
3638.00,0.0004
3637.00,0.0004
3636.00,0.0004
3635.00,0.0004
3634.00,0.0004
3633.00,0.0004
3632.00,0.0004
3631.00,0.0003
3630.00,0.0003
3629.00,0.0004
3628.00,0.0003
3627.00,0.0003
3626.00,0.0003
3625.00,0.0003
3624.00,0.0004
3623.00,0.0004
3622.00,0.0004
3621.00,0.0005
3620.00,0.0005
3619.00,0.0005
3618.00,0.0004
3617.00,0.0004
3616.00,0.0003
3615.00,0.0004
3614.00,0.0004
3613.00,0.0005
3612.00,0.0006
3611.00,0.0006
3610.00,0.0006
3609.00,0.0006
3608.00,0.0005
3607.00,0.0005
3606.00,0.0005
3605.00,0.0004
3604.00,0.0004
3603.00,0.0004
3602.00,0.0004
3601.00,0.0005
3600.00,0.0005
3599.00,0.0006
3598.00,0.0007
3597.00,0.0007
3596.00,0.0007
3595.00,0.0007
3594.00,0.0007
3593.00,0.0007
3592.00,0.0007
3591.00,0.0007
3590.00,0.0007
3589.00,0.0008
3588.00,0.0008
3587.00,0.0008
3586.00,0.0008
3585.00,0.0008
3584.00,0.0007
3583.00,0.0007
3582.00,0.0007
3581.00,0.0007
3580.00,0.0007
3579.00,0.0007
3578.00,0.0008
3577.00,0.0008
3576.00,0.0008
3575.00,0.0009
3574.00,0.0010
3573.00,0.0010
3572.00,0.0010
3571.00,0.0011
3570.00,0.0011
3569.00,0.0011
3568.00,0.0011
3567.00,0.0011
3566.00,0.0011
3565.00,0.0010
3564.00,0.0010
3563.00,0.0011
3562.00,0.0011
3561.00,0.0012
3560.00,0.0012
3559.00,0.0012
3558.00,0.0012
3557.00,0.0012
3556.00,0.0013
3555.00,0.0013
3554.00,0.0013
3553.00,0.0014
3552.00,0.0014
3551.00,0.0015
3550.00,0.0015
3549.00,0.0015
3548.00,0.0014
3547.00,0.0014
3546.00,0.0014
3545.00,0.0014
3544.00,0.0014
3543.00,0.0015
3542.00,0.0015
3541.00,0.0015
3540.00,0.0016
3539.00,0.0016
3538.00,0.0016
3537.00,0.0016
3536.00,0.0016
3535.00,0.0016
3534.00,0.0016
3533.00,0.0016
3532.00,0.0016
3531.00,0.0017
3530.00,0.0017
3529.00,0.0017
3528.00,0.0017
3527.00,0.0018
3526.00,0.0018
3525.00,0.0018
3524.00,0.0018
3523.00,0.0018
3522.00,0.0018
3521.00,0.0018
3520.00,0.0018
3519.00,0.0018
3518.00,0.0018
3517.00,0.0018
3516.00,0.0019
3515.00,0.0019
3514.00,0.0020
3513.00,0.0020
3512.00,0.0020
3511.00,0.0021
3510.00,0.0021
3509.00,0.0021
3508.00,0.0021
3507.00,0.0021
3506.00,0.0021
3505.00,0.0021
3504.00,0.0021
3503.00,0.0022
3502.00,0.0022
3501.00,0.0022
3500.00,0.0023
3499.00,0.0023
3498.00,0.0023
3497.00,0.0023
3496.00,0.0023
3495.00,0.0023
3494.00,0.0024
3493.00,0.0024
3492.00,0.0025
3491.00,0.0025
3490.00,0.0025
3489.00,0.0025
3488.00,0.0024
3487.00,0.0024
3486.00,0.0024
3485.00,0.0024
3484.00,0.0025
3483.00,0.0025
3482.00,0.0026
3481.00,0.0026
3480.00,0.0026
3479.00,0.0026
3478.00,0.0026
3477.00,0.0026
3476.00,0.0026
3475.00,0.0026
3474.00,0.0026
3473.00,0.0026
3472.00,0.0027
3471.00,0.0027
3470.00,0.0027
3469.00,0.0027
3468.00,0.0027
3467.00,0.0027
3466.00,0.0027
3465.00,0.0028
3464.00,0.0028
3463.00,0.0028
3462.00,0.0029
3461.00,0.0029
3460.00,0.0029
3459.00,0.0030
3458.00,0.0030
3457.00,0.0030
3456.00,0.0030
3455.00,0.0030
3454.00,0.0030
3453.00,0.0030
3452.00,0.0030
3451.00,0.0030
3450.00,0.0031
3449.00,0.0031
3448.00,0.0031
3447.00,0.0031
3446.00,0.0031
3445.00,0.0031
3444.00,0.0032
3443.00,0.0032
3442.00,0.0032
3441.00,0.0032
3440.00,0.0032
3439.00,0.0033
3438.00,0.0033
3437.00,0.0033
3436.00,0.0033
3435.00,0.0033
3434.00,0.0033
3433.00,0.0033
3432.00,0.0033
3431.00,0.0034
3430.00,0.0035
3429.00,0.0035
3428.00,0.0036
3427.00,0.0036
3426.00,0.0036
3425.00,0.0036
3424.00,0.0036
3423.00,0.0036
3422.00,0.0036
3421.00,0.0037
3420.00,0.0037
3419.00,0.0037
3418.00,0.0037
3417.00,0.0037
3416.00,0.0037
3415.00,0.0038
3414.00,0.0039
3413.00,0.0039
3412.00,0.0039
3411.00,0.0040
3410.00,0.0040
3409.00,0.0041
3408.00,0.0041
3407.00,0.0042
3406.00,0.0043
3405.00,0.0043
3404.00,0.0043
3403.00,0.0043
3402.00,0.0044
3401.00,0.0045
3400.00,0.0046
3399.00,0.0046
3398.00,0.0047
3397.00,0.0048
3396.00,0.0048
3395.00,0.0048
3394.00,0.0048
3393.00,0.0048
3392.00,0.0048
3391.00,0.0048
3390.00,0.0047
3389.00,0.0046
3388.00,0.0046
3387.00,0.0045
3386.00,0.0045
3385.00,0.0045
3384.00,0.0045
3383.00,0.0044
3382.00,0.0044
3381.00,0.0043
3380.00,0.0043
3379.00,0.0043
3378.00,0.0043
3377.00,0.0043
3376.00,0.0043
3375.00,0.0043
3374.00,0.0043
3373.00,0.0043
3372.00,0.0043
3371.00,0.0043
3370.00,0.0043
3369.00,0.0043
3368.00,0.0043
3367.00,0.0043
3366.00,0.0043
3365.00,0.0043
3364.00,0.0043
3363.00,0.0042
3362.00,0.0042
3361.00,0.0042
3360.00,0.0043
3359.00,0.0043
3358.00,0.0043
3357.00,0.0043
3356.00,0.0043
3355.00,0.0043
3354.00,0.0043
3353.00,0.0043
3352.00,0.0043
3351.00,0.0043
3350.00,0.0043
3349.00,0.0043
3348.00,0.0043
3347.00,0.0043
3346.00,0.0043
3345.00,0.0042
3344.00,0.0042
3343.00,0.0042
3342.00,0.0042
3341.00,0.0042
3340.00,0.0042
3339.00,0.0042
3338.00,0.0042
3337.00,0.0042
3336.00,0.0042
3335.00,0.0042
3334.00,0.0042
3333.00,0.0042
3332.00,0.0042
3331.00,0.0042
3330.00,0.0042
3329.00,0.0042
3328.00,0.0041
3327.00,0.0041
3326.00,0.0041
3325.00,0.0041
3324.00,0.0041
3323.00,0.0041
3322.00,0.0041
3321.00,0.0042
3320.00,0.0042
3319.00,0.0042
3318.00,0.0041
3317.00,0.0041
3316.00,0.0042
3315.00,0.0042
3314.00,0.0042
3313.00,0.0042
3312.00,0.0042
3311.00,0.0042
3310.00,0.0042
3309.00,0.0042
3308.00,0.0042
3307.00,0.0041
3306.00,0.0041
3305.00,0.0041
3304.00,0.0042
3303.00,0.0042
3302.00,0.0042
3301.00,0.0042
3300.00,0.0041
3299.00,0.0041
3298.00,0.0041
3297.00,0.0041
3296.00,0.0041
3295.00,0.0041
3294.00,0.0041
3293.00,0.0041
3292.00,0.0042
3291.00,0.0042
3290.00,0.0042
3289.00,0.0042
3288.00,0.0042
3287.00,0.0041
3286.00,0.0041
3285.00,0.0041
3284.00,0.0040
3283.00,0.0040
3282.00,0.0040
3281.00,0.0040
3280.00,0.0040
3279.00,0.0039
3278.00,0.0039
3277.00,0.0039
3276.00,0.0039
3275.00,0.0039
3274.00,0.0039
3273.00,0.0038
3272.00,0.0038
3271.00,0.0037
3270.00,0.0037
3269.00,0.0038
3268.00,0.0038
3267.00,0.0038
3266.00,0.0038
3265.00,0.0038
3264.00,0.0037
3263.00,0.0037
3262.00,0.0037
3261.00,0.0036
3260.00,0.0036
3259.00,0.0036
3258.00,0.0036
3257.00,0.0036
3256.00,0.0036
3255.00,0.0036
3254.00,0.0036
3253.00,0.0036
3252.00,0.0036
3251.00,0.0036
3250.00,0.0036
3249.00,0.0036
3248.00,0.0035
3247.00,0.0035
3246.00,0.0035
3245.00,0.0035
3244.00,0.0035
3243.00,0.0035
3242.00,0.0035
3241.00,0.0035
3240.00,0.0035
3239.00,0.0035
3238.00,0.0034
3237.00,0.0034
3236.00,0.0034
3235.00,0.0035
3234.00,0.0035
3233.00,0.0036
3232.00,0.0036
3231.00,0.0036
3230.00,0.0036
3229.00,0.0036
3228.00,0.0037
3227.00,0.0037
3226.00,0.0037
3225.00,0.0037
3224.00,0.0037
3223.00,0.0037
3222.00,0.0038
3221.00,0.0038
3220.00,0.0039
3219.00,0.0039
3218.00,0.0039
3217.00,0.0039
3216.00,0.0040
3215.00,0.0040
3214.00,0.0040
3213.00,0.0041
3212.00,0.0041
3211.00,0.0041
3210.00,0.0041
3209.00,0.0041
3208.00,0.0041
3207.00,0.0042
3206.00,0.0042
3205.00,0.0042
3204.00,0.0043
3203.00,0.0043
3202.00,0.0043
3201.00,0.0044
3200.00,0.0044
3199.00,0.0045
3198.00,0.0045
3197.00,0.0045
3196.00,0.0045
3195.00,0.0045
3194.00,0.0045
3193.00,0.0045
3192.00,0.0045
3191.00,0.0045
3190.00,0.0045
3189.00,0.0044
3188.00,0.0044
3187.00,0.0044
3186.00,0.0044
3185.00,0.0044
3184.00,0.0044
3183.00,0.0044
3182.00,0.0044
3181.00,0.0044
3180.00,0.0043
3179.00,0.0043
3178.00,0.0042
3177.00,0.0041
3176.00,0.0041
3175.00,0.0041
3174.00,0.0041
3173.00,0.0040
3172.00,0.0040
3171.00,0.0039
3170.00,0.0038
3169.00,0.0038
3168.00,0.0038
3167.00,0.0038
3166.00,0.0038
3165.00,0.0037
3164.00,0.0037
3163.00,0.0037
3162.00,0.0037
3161.00,0.0037
3160.00,0.0036
3159.00,0.0036
3158.00,0.0036
3157.00,0.0035
3156.00,0.0035
3155.00,0.0035
3154.00,0.0035
3153.00,0.0034
3152.00,0.0034
3151.00,0.0034
3150.00,0.0034
3149.00,0.0034
3148.00,0.0034
3147.00,0.0034
3146.00,0.0035
3145.00,0.0035
3144.00,0.0035
3143.00,0.0034
3142.00,0.0034
3141.00,0.0034
3140.00,0.0034
3139.00,0.0034
3138.00,0.0034
3137.00,0.0033
3136.00,0.0033
3135.00,0.0033
3134.00,0.0032
3133.00,0.0032
3132.00,0.0032
3131.00,0.0032
3130.00,0.0031
3129.00,0.0031
3128.00,0.0031
3127.00,0.0031
3126.00,0.0031
3125.00,0.0031
3124.00,0.0031
3123.00,0.0030
3122.00,0.0030
3121.00,0.0029
3120.00,0.0028
3119.00,0.0028
3118.00,0.0028
3117.00,0.0028
3116.00,0.0028
3115.00,0.0028
3114.00,0.0028
3113.00,0.0028
3112.00,0.0028
3111.00,0.0028
3110.00,0.0028
3109.00,0.0028
3108.00,0.0028
3107.00,0.0027
3106.00,0.0027
3105.00,0.0027
3104.00,0.0027
3103.00,0.0027
3102.00,0.0026
3101.00,0.0026
3100.00,0.0026
3099.00,0.0025
3098.00,0.0025
3097.00,0.0025
3096.00,0.0025
3095.00,0.0025
3094.00,0.0025
3093.00,0.0026
3092.00,0.0026
3091.00,0.0026
3090.00,0.0025
3089.00,0.0025
3088.00,0.0025
3087.00,0.0025
3086.00,0.0025
3085.00,0.0025
3084.00,0.0025
3083.00,0.0025
3082.00,0.0025
3081.00,0.0024
3080.00,0.0024
3079.00,0.0024
3078.00,0.0024
3077.00,0.0025
3076.00,0.0025
3075.00,0.0025
3074.00,0.0025
3073.00,0.0025
3072.00,0.0025
3071.00,0.0025
3070.00,0.0025
3069.00,0.0025
3068.00,0.0025
3067.00,0.0026
3066.00,0.0026
3065.00,0.0026
3064.00,0.0026
3063.00,0.0027
3062.00,0.0027
3061.00,0.0027
3060.00,0.0027
3059.00,0.0027
3058.00,0.0027
3057.00,0.0028
3056.00,0.0028
3055.00,0.0028
3054.00,0.0028
3053.00,0.0028
3052.00,0.0028
3051.00,0.0028
3050.00,0.0029
3049.00,0.0029
3048.00,0.0029
3047.00,0.0029
3046.00,0.0029
3045.00,0.0030
3044.00,0.0030
3043.00,0.0030
3042.00,0.0030
3041.00,0.0030
3040.00,0.0030
3039.00,0.0030
3038.00,0.0031
3037.00,0.0031
3036.00,0.0032
3035.00,0.0032
3034.00,0.0033
3033.00,0.0033
3032.00,0.0034
3031.00,0.0034
3030.00,0.0035
3029.00,0.0035
3028.00,0.0035
3027.00,0.0035
3026.00,0.0036
3025.00,0.0036
3024.00,0.0037
3023.00,0.0038
3022.00,0.0039
3021.00,0.0040
3020.00,0.0041
3019.00,0.0041
3018.00,0.0042
3017.00,0.0043
3016.00,0.0044
3015.00,0.0045
3014.00,0.0046
3013.00,0.0048
3012.00,0.0049
3011.00,0.0051
3010.00,0.0052
3009.00,0.0054
3008.00,0.0055
3007.00,0.0057
3006.00,0.0059
3005.00,0.0061
3004.00,0.0063
3003.00,0.0065
3002.00,0.0067
3001.00,0.0070
3000.00,0.0073
2999.00,0.0076
2998.00,0.0079
2997.00,0.0083
2996.00,0.0087
2995.00,0.0092
2994.00,0.0096
2993.00,0.0101
2992.00,0.0107
2991.00,0.0113
2990.00,0.0120
2989.00,0.0128
2988.00,0.0136
2987.00,0.0146
2986.00,0.0157
2985.00,0.0169
2984.00,0.0183
2983.00,0.0198
2982.00,0.0215
2981.00,0.0234
2980.00,0.0255
2979.00,0.0279
2978.00,0.0307
2977.00,0.0338
2976.00,0.0374
2975.00,0.0416
2974.00,0.0463
2973.00,0.0516
2972.00,0.0576
2971.00,0.0644
2970.00,0.0719
2969.00,0.0804
2968.00,0.0897
2967.00,0.0999
2966.00,0.1110
2965.00,0.1226
2964.00,0.1347
2963.00,0.1466
2962.00,0.1580
2961.00,0.1683
2960.00,0.1770
2959.00,0.1838
2958.00,0.1887
2957.00,0.1920
2956.00,0.1940
2955.00,0.1955
2954.00,0.1968
2953.00,0.1979
2952.00,0.1985
2951.00,0.1980
2950.00,0.1957
2949.00,0.1910
2948.00,0.1836
2947.00,0.1736
2946.00,0.1617
2945.00,0.1489
2944.00,0.1364
2943.00,0.1253
2942.00,0.1162
2941.00,0.1095
2940.00,0.1051
2939.00,0.1030
2938.00,0.1030
2937.00,0.1047
2936.00,0.1080
2935.00,0.1127
2934.00,0.1186
2933.00,0.1256
2932.00,0.1335
2931.00,0.1421
2930.00,0.1511
2929.00,0.1602
2928.00,0.1690
2927.00,0.1774
2926.00,0.1853
2925.00,0.1926
2924.00,0.1996
2923.00,0.2062
2922.00,0.2124
2921.00,0.2183
2920.00,0.2233
2919.00,0.2272
2918.00,0.2293
2917.00,0.2293
2916.00,0.2273
2915.00,0.2234
2914.00,0.2182
2913.00,0.2122
2912.00,0.2061
2911.00,0.2003
2910.00,0.1948
2909.00,0.1898
2908.00,0.1849
2907.00,0.1800
2906.00,0.1749
2905.00,0.1694
2904.00,0.1634
2903.00,0.1570
2902.00,0.1504
2901.00,0.1437
2900.00,0.1372
2899.00,0.1309
2898.00,0.1250
2897.00,0.1195
2896.00,0.1147
2895.00,0.1106
2894.00,0.1071
2893.00,0.1044
2892.00,0.1023
2891.00,0.1008
2890.00,0.0999
2889.00,0.0995
2888.00,0.0994
2887.00,0.0997
2886.00,0.1004
2885.00,0.1014
2884.00,0.1028
2883.00,0.1046
2882.00,0.1066
2881.00,0.1088
2880.00,0.1110
2879.00,0.1127
2878.00,0.1138
2877.00,0.1141
2876.00,0.1136
2875.00,0.1128
2874.00,0.1121
2873.00,0.1118
2872.00,0.1121
2871.00,0.1131
2870.00,0.1146
2869.00,0.1161
2868.00,0.1169
2867.00,0.1163
2866.00,0.1136
2865.00,0.1088
2864.00,0.1019
2863.00,0.0939
2862.00,0.0856
2861.00,0.0778
2860.00,0.0711
2859.00,0.0657
2858.00,0.0616
2857.00,0.0587
2856.00,0.0568
2855.00,0.0557
2854.00,0.0553
2853.00,0.0556
2852.00,0.0565
2851.00,0.0579
2850.00,0.0601
2849.00,0.0630
2848.00,0.0668
2847.00,0.0714
2846.00,0.0769
2845.00,0.0833
2844.00,0.0904
2843.00,0.0981
2842.00,0.1060
2841.00,0.1135
2840.00,0.1198
2839.00,0.1240
2838.00,0.1253
2837.00,0.1230
2836.00,0.1170
2835.00,0.1081
2834.00,0.0973
2833.00,0.0859
2832.00,0.0749
2831.00,0.0652
2830.00,0.0569
2829.00,0.0501
2828.00,0.0446
2827.00,0.0402
2826.00,0.0366
2825.00,0.0337
2824.00,0.0312
2823.00,0.0291
2822.00,0.0273
2821.00,0.0258
2820.00,0.0244
2819.00,0.0233
2818.00,0.0222
2817.00,0.0213
2816.00,0.0205
2815.00,0.0198
2814.00,0.0192
2813.00,0.0187
2812.00,0.0181
2811.00,0.0176
2810.00,0.0171
2809.00,0.0165
2808.00,0.0160
2807.00,0.0154
2806.00,0.0149
2805.00,0.0142
2804.00,0.0136
2803.00,0.0130
2802.00,0.0124
2801.00,0.0120
2800.00,0.0116
2799.00,0.0113
2798.00,0.0111
2797.00,0.0108
2796.00,0.0106
2795.00,0.0104
2794.00,0.0102
2793.00,0.0099
2792.00,0.0096
2791.00,0.0092
2790.00,0.0089
2789.00,0.0085
2788.00,0.0081
2787.00,0.0078
2786.00,0.0075
2785.00,0.0073
2784.00,0.0070
2783.00,0.0068
2782.00,0.0066
2781.00,0.0064
2780.00,0.0062
2779.00,0.0060
2778.00,0.0058
2777.00,0.0057
2776.00,0.0056
2775.00,0.0055
2774.00,0.0055
2773.00,0.0054
2772.00,0.0053
2771.00,0.0053
2770.00,0.0052
2769.00,0.0052
2768.00,0.0052
2767.00,0.0052
2766.00,0.0051
2765.00,0.0051
2764.00,0.0050
2763.00,0.0050
2762.00,0.0049
2761.00,0.0049
2760.00,0.0048
2759.00,0.0048
2758.00,0.0048
2757.00,0.0047
2756.00,0.0047
2755.00,0.0047
2754.00,0.0047
2753.00,0.0047
2752.00,0.0047
2751.00,0.0047
2750.00,0.0046
2749.00,0.0047
2748.00,0.0047
2747.00,0.0047
2746.00,0.0048
2745.00,0.0049
2744.00,0.0049
2743.00,0.0050
2742.00,0.0051
2741.00,0.0052
2740.00,0.0053
2739.00,0.0054
2738.00,0.0056
2737.00,0.0057
2736.00,0.0059
2735.00,0.0061
2734.00,0.0062
2733.00,0.0064
2732.00,0.0065
2731.00,0.0066
2730.00,0.0068
2729.00,0.0071
2728.00,0.0074
2727.00,0.0077
2726.00,0.0079
2725.00,0.0082
2724.00,0.0083
2723.00,0.0084
2722.00,0.0083
2721.00,0.0081
2720.00,0.0078
2719.00,0.0075
2718.00,0.0071
2717.00,0.0068
2716.00,0.0066
2715.00,0.0063
2714.00,0.0061
2713.00,0.0059
2712.00,0.0057
2711.00,0.0055
2710.00,0.0053
2709.00,0.0052
2708.00,0.0051
2707.00,0.0050
2706.00,0.0048
2705.00,0.0047
2704.00,0.0046
2703.00,0.0045
2702.00,0.0044
2701.00,0.0044
2700.00,0.0043
2699.00,0.0043
2698.00,0.0043
2697.00,0.0042
2696.00,0.0042
2695.00,0.0041
2694.00,0.0041
2693.00,0.0041
2692.00,0.0041
2691.00,0.0042
2690.00,0.0042
2689.00,0.0042
2688.00,0.0042
2687.00,0.0041
2686.00,0.0041
2685.00,0.0041
2684.00,0.0041
2683.00,0.0041
2682.00,0.0041
2681.00,0.0041
2680.00,0.0042
2679.00,0.0042
2678.00,0.0042
2677.00,0.0042
2676.00,0.0042
2675.00,0.0041
2674.00,0.0041
2673.00,0.0040
2672.00,0.0040
2671.00,0.0040
2670.00,0.0040
2669.00,0.0040
2668.00,0.0040
2667.00,0.0040
2666.00,0.0041
2665.00,0.0041
2664.00,0.0042
2663.00,0.0042
2662.00,0.0042
2661.00,0.0043
2660.00,0.0043
2659.00,0.0043
2658.00,0.0043
2657.00,0.0043
2656.00,0.0043
2655.00,0.0042
2654.00,0.0042
2653.00,0.0041
2652.00,0.0040
2651.00,0.0040
2650.00,0.0039
2649.00,0.0039
2648.00,0.0038
2647.00,0.0038
2646.00,0.0038
2645.00,0.0038
2644.00,0.0038
2643.00,0.0037
2642.00,0.0037
2641.00,0.0036
2640.00,0.0036
2639.00,0.0036
2638.00,0.0035
2637.00,0.0035
2636.00,0.0034
2635.00,0.0034
2634.00,0.0034
2633.00,0.0034
2632.00,0.0034
2631.00,0.0034
2630.00,0.0034
2629.00,0.0034
2628.00,0.0035
2627.00,0.0035
2626.00,0.0036
2625.00,0.0036
2624.00,0.0036
2623.00,0.0036
2622.00,0.0036
2621.00,0.0036
2620.00,0.0036
2619.00,0.0036
2618.00,0.0036
2617.00,0.0036
2616.00,0.0036
2615.00,0.0035
2614.00,0.0035
2613.00,0.0035
2612.00,0.0035
2611.00,0.0035
2610.00,0.0034
2609.00,0.0033
2608.00,0.0032
2607.00,0.0031
2606.00,0.0030
2605.00,0.0029
2604.00,0.0029
2603.00,0.0029
2602.00,0.0028
2601.00,0.0028
2600.00,0.0028
2599.00,0.0028
2598.00,0.0029
2597.00,0.0030
2596.00,0.0030
2595.00,0.0029
2594.00,0.0029
2593.00,0.0029
2592.00,0.0029
2591.00,0.0029
2590.00,0.0030
2589.00,0.0030
2588.00,0.0031
2587.00,0.0032
2586.00,0.0033
2585.00,0.0034
2584.00,0.0034
2583.00,0.0034
2582.00,0.0034
2581.00,0.0033
2580.00,0.0033
2579.00,0.0033
2578.00,0.0033
2577.00,0.0032
2576.00,0.0031
2575.00,0.0030
2574.00,0.0029
2573.00,0.0028
2572.00,0.0027
2571.00,0.0026
2570.00,0.0025
2569.00,0.0025
2568.00,0.0024
2567.00,0.0024
2566.00,0.0023
2565.00,0.0022
2564.00,0.0022
2563.00,0.0021
2562.00,0.0021
2561.00,0.0021
2560.00,0.0021
2559.00,0.0020
2558.00,0.0019
2557.00,0.0019
2556.00,0.0018
2555.00,0.0018
2554.00,0.0019
2553.00,0.0019
2552.00,0.0019
2551.00,0.0019
2550.00,0.0018
2549.00,0.0018
2548.00,0.0017
2547.00,0.0017
2546.00,0.0016
2545.00,0.0016
2544.00,0.0016
2543.00,0.0015
2542.00,0.0015
2541.00,0.0015
2540.00,0.0015
2539.00,0.0015
2538.00,0.0015
2537.00,0.0014
2536.00,0.0014
2535.00,0.0014
2534.00,0.0013
2533.00,0.0012
2532.00,0.0012
2531.00,0.0012
2530.00,0.0012
2529.00,0.0012
2528.00,0.0013
2527.00,0.0013
2526.00,0.0012
2525.00,0.0012
2524.00,0.0011
2523.00,0.0011
2522.00,0.0010
2521.00,0.0010
2520.00,0.0010
2519.00,0.0010
2518.00,0.0010
2517.00,0.0010
2516.00,0.0009
2515.00,0.0009
2514.00,0.0009
2513.00,0.0009
2512.00,0.0009
2511.00,0.0009
2510.00,0.0009
2509.00,0.0009
2508.00,0.0008
2507.00,0.0008
2506.00,0.0008
2505.00,0.0007
2504.00,0.0007
2503.00,0.0007
2502.00,0.0007
2501.00,0.0007
2500.00,0.0007
2499.00,0.0007
2498.00,0.0007
2497.00,0.0007
2496.00,0.0007
2495.00,0.0007
2494.00,0.0007
2493.00,0.0007
2492.00,0.0007
2491.00,0.0007
2490.00,0.0008
2489.00,0.0008
2488.00,0.0008
2487.00,0.0008
2486.00,0.0008
2485.00,0.0008
2484.00,0.0007
2483.00,0.0007
2482.00,0.0007
2481.00,0.0006
2480.00,0.0006
2479.00,0.0006
2478.00,0.0006
2477.00,0.0006
2476.00,0.0007
2475.00,0.0007
2474.00,0.0007
2473.00,0.0007
2472.00,0.0006
2471.00,0.0005
2470.00,0.0005
2469.00,0.0005
2468.00,0.0005
2467.00,0.0006
2466.00,0.0007
2465.00,0.0007
2464.00,0.0007
2463.00,0.0007
2462.00,0.0007
2461.00,0.0007
2460.00,0.0008
2459.00,0.0008
2458.00,0.0008
2457.00,0.0008
2456.00,0.0008
2455.00,0.0008
2454.00,0.0008
2453.00,0.0008
2452.00,0.0008
2451.00,0.0009
2450.00,0.0009
2449.00,0.0009
2448.00,0.0008
2447.00,0.0008
2446.00,0.0007
2445.00,0.0007
2444.00,0.0007
2443.00,0.0008
2442.00,0.0008
2441.00,0.0009
2440.00,0.0009
2439.00,0.0009
2438.00,0.0010
2437.00,0.0010
2436.00,0.0010
2435.00,0.0009
2434.00,0.0009
2433.00,0.0009
2432.00,0.0009
2431.00,0.0009
2430.00,0.0008
2429.00,0.0008
2428.00,0.0009
2427.00,0.0009
2426.00,0.0009
2425.00,0.0009
2424.00,0.0009
2423.00,0.0008
2422.00,0.0008
2421.00,0.0008
2420.00,0.0008
2419.00,0.0008
2418.00,0.0007
2417.00,0.0008
2416.00,0.0008
2415.00,0.0008
2414.00,0.0008
2413.00,0.0008
2412.00,0.0008
2411.00,0.0008
2410.00,0.0008
2409.00,0.0009
2408.00,0.0009
2407.00,0.0009
2406.00,0.0009
2405.00,0.0009
2404.00,0.0009
2403.00,0.0008
2402.00,0.0008
2401.00,0.0007
2400.00,0.0007
2399.00,0.0007
2398.00,0.0007
2397.00,0.0007
2396.00,0.0007
2395.00,0.0007
2394.00,0.0007
2393.00,0.0007
2392.00,0.0007
2391.00,0.0007
2390.00,0.0007
2389.00,0.0006
2388.00,0.0006
2387.00,0.0006
2386.00,0.0006
2385.00,0.0005
2384.00,0.0005
2383.00,0.0005
2382.00,0.0004
2381.00,0.0003
2380.00,0.0003
2379.00,0.0003
2378.00,0.0003
2377.00,0.0003
2376.00,0.0003
2375.00,0.0003
2374.00,0.0002
2373.00,0.0002
2372.00,0.0002
2371.00,0.0003
2370.00,0.0003
2369.00,0.0003
2368.00,0.0002
2367.00,0.0001
2366.00,0.0001
2365.00,0.0001
2364.00,0.0001
2363.00,0.0002
2362.00,0.0002
2361.00,0.0003
2360.00,0.0003
2359.00,0.0002
2358.00,0.0002
2357.00,0.0002
2356.00,0.0003
2355.00,0.0003
2354.00,0.0003
2353.00,0.0002
2352.00,0.0002
2351.00,0.0002
2350.00,0.0002
2349.00,0.0003
2348.00,0.0003
2347.00,0.0003
2346.00,0.0003
2345.00,0.0003
2344.00,0.0003
2343.00,0.0003
2342.00,0.0004
2341.00,0.0005
2340.00,0.0005
2339.00,0.0005
2338.00,0.0005
2337.00,0.0006
2336.00,0.0006
2335.00,0.0007
2334.00,0.0007
2333.00,0.0006
2332.00,0.0006
2331.00,0.0005
2330.00,0.0005
2329.00,0.0006
2328.00,0.0008
2327.00,0.0011
2326.00,0.0015
2325.00,0.0019
2324.00,0.0021
2323.00,0.0020
2322.00,0.0018
2321.00,0.0015
2320.00,0.0013
2319.00,0.0012
2318.00,0.0011
2317.00,0.0010
2316.00,0.0010
2315.00,0.0009
2314.00,0.0008
2313.00,0.0008
2312.00,0.0008
2311.00,0.0008
2310.00,0.0008
2309.00,0.0009
2308.00,0.0009
2307.00,0.0009
2306.00,0.0009
2305.00,0.0009
2304.00,0.0008
2303.00,0.0008
2302.00,0.0008
2301.00,0.0008
2300.00,0.0008
2299.00,0.0008
2298.00,0.0008
2297.00,0.0009
2296.00,0.0010
2295.00,0.0011
2294.00,0.0011
2293.00,0.0012
2292.00,0.0013
2291.00,0.0014
2290.00,0.0015
2289.00,0.0016
2288.00,0.0017
2287.00,0.0017
2286.00,0.0017
2285.00,0.0016
2284.00,0.0016
2283.00,0.0015
2282.00,0.0015
2281.00,0.0014
2280.00,0.0014
2279.00,0.0013
2278.00,0.0013
2277.00,0.0013
2276.00,0.0012
2275.00,0.0012
2274.00,0.0011
2273.00,0.0011
2272.00,0.0011
2271.00,0.0011
2270.00,0.0011
2269.00,0.0012
2268.00,0.0012
2267.00,0.0012
2266.00,0.0011
2265.00,0.0010
2264.00,0.0009
2263.00,0.0009
2262.00,0.0009
2261.00,0.0010
2260.00,0.0011
2259.00,0.0011
2258.00,0.0011
2257.00,0.0009
2256.00,0.0007
2255.00,0.0006
2254.00,0.0006
2253.00,0.0006
2252.00,0.0007
2251.00,0.0007
2250.00,0.0008
2249.00,0.0008
2248.00,0.0008
2247.00,0.0007
2246.00,0.0008
2245.00,0.0008
2244.00,0.0008
2243.00,0.0008
2242.00,0.0007
2241.00,0.0007
2240.00,0.0006
2239.00,0.0005
2238.00,0.0004
2237.00,0.0003
2236.00,0.0003
2235.00,0.0004
2234.00,0.0006
2233.00,0.0007
2232.00,0.0008
2231.00,0.0007
2230.00,0.0006
2229.00,0.0005
2228.00,0.0006
2227.00,0.0007
2226.00,0.0008
2225.00,0.0008
2224.00,0.0008
2223.00,0.0009
2222.00,0.0011
2221.00,0.0012
2220.00,0.0013
2219.00,0.0011
2218.00,0.0009
2217.00,0.0007
2216.00,0.0007
2215.00,0.0007
2214.00,0.0005
2213.00,0.0003
2212.00,0.0000
2211.00,-0.0001
2210.00,-0.0000
2209.00,0.0002
2208.00,0.0005
2207.00,0.0008
2206.00,0.0008
2205.00,0.0008
2204.00,0.0007
2203.00,0.0008
2202.00,0.0008
2201.00,0.0009
2200.00,0.0009
2199.00,0.0008
2198.00,0.0007
2197.00,0.0006
2196.00,0.0005
2195.00,0.0005
2194.00,0.0004
2193.00,0.0005
2192.00,0.0008
2191.00,0.0010
2190.00,0.0010
2189.00,0.0009
2188.00,0.0008
2187.00,0.0007
2186.00,0.0006
2185.00,0.0005
2184.00,0.0004
2183.00,0.0003
2182.00,0.0003
2181.00,0.0003
2180.00,0.0005
2179.00,0.0008
2178.00,0.0010
2177.00,0.0010
2176.00,0.0008
2175.00,0.0007
2174.00,0.0006
2173.00,0.0007
2172.00,0.0008
2171.00,0.0009
2170.00,0.0010
2169.00,0.0012
2168.00,0.0013
2167.00,0.0013
2166.00,0.0012
2165.00,0.0010
2164.00,0.0008
2163.00,0.0007
2162.00,0.0007
2161.00,0.0005
2160.00,-0.0003
2159.00,-0.0015
2158.00,-0.0027
2157.00,-0.0033
2156.00,-0.0033
2155.00,-0.0030
2154.00,-0.0027
2153.00,-0.0023
2152.00,-0.0019
2151.00,-0.0017
2150.00,-0.0015
2149.00,-0.0014
2148.00,-0.0015
2147.00,-0.0016
2146.00,-0.0017
2145.00,-0.0016
2144.00,-0.0015
2143.00,-0.0013
2142.00,-0.0012
2141.00,-0.0010
2140.00,-0.0009
2139.00,-0.0009
2138.00,-0.0009
2137.00,-0.0011
2136.00,-0.0013
2135.00,-0.0015
2134.00,-0.0017
2133.00,-0.0017
2132.00,-0.0016
2131.00,-0.0015
2130.00,-0.0014
2129.00,-0.0012
2128.00,-0.0009
2127.00,-0.0007
2126.00,-0.0006
2125.00,-0.0006
2124.00,-0.0006
2123.00,-0.0008
2122.00,-0.0009
2121.00,-0.0010
2120.00,-0.0008
2119.00,-0.0006
2118.00,-0.0004
2117.00,-0.0002
2116.00,-0.0000
2115.00,0.0001
2114.00,0.0001
2113.00,0.0000
2112.00,-0.0001
2111.00,-0.0001
2110.00,-0.0001
2109.00,-0.0001
2108.00,-0.0002
2107.00,-0.0002
2106.00,-0.0001
2105.00,-0.0000
2104.00,0.0001
2103.00,0.0000
2102.00,-0.0001
2101.00,-0.0003
2100.00,-0.0003
2099.00,-0.0002
2098.00,-0.0002
2097.00,-0.0002
2096.00,-0.0004
2095.00,-0.0006
2094.00,-0.0006
2093.00,-0.0005
2092.00,-0.0003
2091.00,-0.0002
2090.00,-0.0002
2089.00,-0.0001
2088.00,-0.0001
2087.00,-0.0001
2086.00,0.0000
2085.00,0.0002
2084.00,0.0004
2083.00,0.0004
2082.00,0.0003
2081.00,0.0002
2080.00,0.0001
2079.00,0.0001
2078.00,0.0001
2077.00,0.0001
2076.00,0.0002
2075.00,0.0002
2074.00,0.0001
2073.00,0.0000
2072.00,-0.0000
2071.00,-0.0000
2070.00,0.0000
2069.00,0.0002
2068.00,0.0003
2067.00,0.0003
2066.00,0.0002
2065.00,0.0000
2064.00,-0.0002
2063.00,-0.0004
2062.00,-0.0006
2061.00,-0.0007
2060.00,-0.0006
2059.00,-0.0004
2058.00,-0.0002
2057.00,0.0001
2056.00,0.0001
2055.00,-0.0001
2054.00,-0.0002
2053.00,-0.0000
2052.00,0.0004
2051.00,0.0007
2050.00,0.0008
2049.00,0.0006
2048.00,0.0003
2047.00,0.0001
2046.00,-0.0000
2045.00,-0.0001
2044.00,-0.0001
2043.00,-0.0001
2042.00,-0.0001
2041.00,-0.0002
2040.00,-0.0003
2039.00,-0.0003
2038.00,-0.0002
2037.00,0.0000
2036.00,0.0003
2035.00,0.0004
2034.00,0.0003
2033.00,0.0001
2032.00,-0.0001
2031.00,-0.0005
2030.00,-0.0010
2029.00,-0.0014
2028.00,-0.0018
2027.00,-0.0019
2026.00,-0.0017
2025.00,-0.0014
2024.00,-0.0010
2023.00,-0.0008
2022.00,-0.0009
2021.00,-0.0010
2020.00,-0.0010
2019.00,-0.0009
2018.00,-0.0007
2017.00,-0.0007
2016.00,-0.0008
2015.00,-0.0010
2014.00,-0.0012
2013.00,-0.0014
2012.00,-0.0013
2011.00,-0.0011
2010.00,-0.0009
2009.00,-0.0007
2008.00,-0.0009
2007.00,-0.0012
2006.00,-0.0017
2005.00,-0.0021
2004.00,-0.0022
2003.00,-0.0021
2002.00,-0.0019
2001.00,-0.0017
2000.00,-0.0015
1999.00,-0.0013
1998.00,-0.0010
1997.00,-0.0009
1996.00,-0.0009
1995.00,-0.0010
1994.00,-0.0011
1993.00,-0.0009
1992.00,-0.0007
1991.00,-0.0006
1990.00,-0.0006
1989.00,-0.0005
1988.00,-0.0006
1987.00,-0.0006
1986.00,-0.0008
1985.00,-0.0009
1984.00,-0.0009
1983.00,-0.0008
1982.00,-0.0005
1981.00,-0.0001
1980.00,0.0001
1979.00,0.0000
1978.00,-0.0003
1977.00,-0.0006
1976.00,-0.0009
1975.00,-0.0013
1974.00,-0.0016
1973.00,-0.0017
1972.00,-0.0016
1971.00,-0.0014
1970.00,-0.0013
1969.00,-0.0012
1968.00,-0.0012
1967.00,-0.0012
1966.00,-0.0011
1965.00,-0.0010
1964.00,-0.0009
1963.00,-0.0009
1962.00,-0.0009
1961.00,-0.0012
1960.00,-0.0016
1959.00,-0.0019
1958.00,-0.0021
1957.00,-0.0019
1956.00,-0.0016
1955.00,-0.0013
1954.00,-0.0011
1953.00,-0.0012
1952.00,-0.0013
1951.00,-0.0014
1950.00,-0.0015
1949.00,-0.0015
1948.00,-0.0014
1947.00,-0.0015
1946.00,-0.0015
1945.00,-0.0016
1944.00,-0.0016
1943.00,-0.0017
1942.00,-0.0017
1941.00,-0.0016
1940.00,-0.0015
1939.00,-0.0015
1938.00,-0.0016
1937.00,-0.0016
1936.00,-0.0017
1935.00,-0.0016
1934.00,-0.0016
1933.00,-0.0015
1932.00,-0.0014
1931.00,-0.0013
1930.00,-0.0012
1929.00,-0.0011
1928.00,-0.0009
1927.00,-0.0008
1926.00,-0.0007
1925.00,-0.0006
1924.00,-0.0006
1923.00,-0.0005
1922.00,-0.0004
1921.00,-0.0004
1920.00,-0.0004
1919.00,-0.0005
1918.00,-0.0006
1917.00,-0.0006
1916.00,-0.0006
1915.00,-0.0005
1914.00,-0.0005
1913.00,-0.0005
1912.00,-0.0005
1911.00,-0.0005
1910.00,-0.0004
1909.00,-0.0003
1908.00,-0.0003
1907.00,-0.0003
1906.00,-0.0003
1905.00,-0.0005
1904.00,-0.0006
1903.00,-0.0006
1902.00,-0.0005
1901.00,-0.0004
1900.00,-0.0003
1899.00,-0.0003
1898.00,-0.0002
1897.00,-0.0002
1896.00,-0.0002
1895.00,-0.0002
1894.00,-0.0002
1893.00,-0.0003
1892.00,-0.0003
1891.00,-0.0004
1890.00,-0.0004
1889.00,-0.0003
1888.00,-0.0002
1887.00,-0.0001
1886.00,-0.0002
1885.00,-0.0003
1884.00,-0.0004
1883.00,-0.0004
1882.00,-0.0005
1881.00,-0.0004
1880.00,-0.0004
1879.00,-0.0004
1878.00,-0.0004
1877.00,-0.0004
1876.00,-0.0004
1875.00,-0.0003
1874.00,-0.0003
1873.00,-0.0002
1872.00,-0.0002
1871.00,-0.0002
1870.00,-0.0003
1869.00,-0.0003
1868.00,-0.0003
1867.00,-0.0003
1866.00,-0.0003
1865.00,-0.0003
1864.00,-0.0003
1863.00,-0.0003
1862.00,-0.0002
1861.00,-0.0001
1860.00,-0.0002
1859.00,-0.0002
1858.00,-0.0003
1857.00,-0.0003
1856.00,-0.0002
1855.00,-0.0001
1854.00,-0.0001
1853.00,-0.0000
1852.00,-0.0000
1851.00,-0.0000
1850.00,0.0000
1849.00,0.0000
1848.00,-0.0000
1847.00,-0.0000
1846.00,-0.0001
1845.00,-0.0001
1844.00,-0.0000
1843.00,0.0000
1842.00,0.0001
1841.00,0.0001
1840.00,0.0001
1839.00,0.0001
1838.00,0.0002
1837.00,0.0002
1836.00,0.0002
1835.00,0.0002
1834.00,0.0002
1833.00,0.0002
1832.00,0.0001
1831.00,0.0001
1830.00,0.0001
1829.00,0.0001
1828.00,0.0001
1827.00,0.0001
1826.00,0.0000
1825.00,0.0000
1824.00,0.0000
1823.00,0.0001
1822.00,0.0001
1821.00,0.0002
1820.00,0.0001
1819.00,-0.0000
1818.00,-0.0002
1817.00,-0.0003
1816.00,-0.0003
1815.00,-0.0003
1814.00,-0.0002
1813.00,-0.0000
1812.00,0.0001
1811.00,0.0002
1810.00,0.0002
1809.00,0.0001
1808.00,0.0001
1807.00,0.0001
1806.00,0.0002
1805.00,0.0003
1804.00,0.0003
1803.00,0.0003
1802.00,0.0003
1801.00,0.0002
1800.00,0.0002
1799.00,0.0002
1798.00,0.0002
1797.00,0.0003
1796.00,0.0004
1795.00,0.0004
1794.00,0.0004
1793.00,0.0004
1792.00,0.0003
1791.00,0.0003
1790.00,0.0003
1789.00,0.0003
1788.00,0.0003
1787.00,0.0003
1786.00,0.0003
1785.00,0.0003
1784.00,0.0003
1783.00,0.0003
1782.00,0.0003
1781.00,0.0003
1780.00,0.0002
1779.00,0.0001
1778.00,0.0000
1777.00,-0.0000
1776.00,-0.0000
1775.00,-0.0001
1774.00,-0.0002
1773.00,-0.0002
1772.00,-0.0002
1771.00,-0.0001
1770.00,0.0000
1769.00,0.0001
1768.00,0.0001
1767.00,0.0002
1766.00,0.0002
1765.00,0.0003
1764.00,0.0004
1763.00,0.0004
1762.00,0.0005
1761.00,0.0006
1760.00,0.0006
1759.00,0.0006
1758.00,0.0006
1757.00,0.0005
1756.00,0.0005
1755.00,0.0004
1754.00,0.0004
1753.00,0.0005
1752.00,0.0006
1751.00,0.0006
1750.00,0.0005
1749.00,0.0004
1748.00,0.0003
1747.00,0.0003
1746.00,0.0003
1745.00,0.0003
1744.00,0.0003
1743.00,0.0004
1742.00,0.0004
1741.00,0.0004
1740.00,0.0004
1739.00,0.0004
1738.00,0.0004
1737.00,0.0004
1736.00,0.0004
1735.00,0.0004
1734.00,0.0003
1733.00,0.0002
1732.00,0.0002
1731.00,0.0003
1730.00,0.0003
1729.00,0.0003
1728.00,0.0004
1727.00,0.0004
1726.00,0.0004
1725.00,0.0004
1724.00,0.0005
1723.00,0.0005
1722.00,0.0005
1721.00,0.0006
1720.00,0.0006
1719.00,0.0006
1718.00,0.0007
1717.00,0.0007
1716.00,0.0008
1715.00,0.0009
1714.00,0.0009
1713.00,0.0009
1712.00,0.0009
1711.00,0.0009
1710.00,0.0010
1709.00,0.0010
1708.00,0.0011
1707.00,0.0012
1706.00,0.0012
1705.00,0.0013
1704.00,0.0013
1703.00,0.0015
1702.00,0.0016
1701.00,0.0018
1700.00,0.0019
1699.00,0.0019
1698.00,0.0019
1697.00,0.0020
1696.00,0.0022
1695.00,0.0023
1694.00,0.0024
1693.00,0.0025
1692.00,0.0026
1691.00,0.0027
1690.00,0.0029
1689.00,0.0029
1688.00,0.0030
1687.00,0.0030
1686.00,0.0031
1685.00,0.0032
1684.00,0.0035
1683.00,0.0036
1682.00,0.0037
1681.00,0.0038
1680.00,0.0040
1679.00,0.0042
1678.00,0.0044
1677.00,0.0045
1676.00,0.0047
1675.00,0.0047
1674.00,0.0047
1673.00,0.0048
1672.00,0.0049
1671.00,0.0050
1670.00,0.0051
1669.00,0.0053
1668.00,0.0054
1667.00,0.0054
1666.00,0.0055
1665.00,0.0055
1664.00,0.0056
1663.00,0.0056
1662.00,0.0056
1661.00,0.0057
1660.00,0.0058
1659.00,0.0058
1658.00,0.0060
1657.00,0.0061
1656.00,0.0062
1655.00,0.0063
1654.00,0.0064
1653.00,0.0066
1652.00,0.0069
1651.00,0.0071
1650.00,0.0073
1649.00,0.0075
1648.00,0.0077
1647.00,0.0079
1646.00,0.0081
1645.00,0.0080
1644.00,0.0079
1643.00,0.0077
1642.00,0.0074
1641.00,0.0072
1640.00,0.0070
1639.00,0.0069
1638.00,0.0067
1637.00,0.0066
1636.00,0.0065
1635.00,0.0065
1634.00,0.0065
1633.00,0.0065
1632.00,0.0065
1631.00,0.0065
1630.00,0.0065
1629.00,0.0065
1628.00,0.0064
1627.00,0.0064
1626.00,0.0063
1625.00,0.0062
1624.00,0.0061
1623.00,0.0059
1622.00,0.0057
1621.00,0.0056
1620.00,0.0054
1619.00,0.0053
1618.00,0.0052
1617.00,0.0052
1616.00,0.0052
1615.00,0.0051
1614.00,0.0050
1613.00,0.0050
1612.00,0.0049
1611.00,0.0048
1610.00,0.0047
1609.00,0.0046
1608.00,0.0046
1607.00,0.0046
1606.00,0.0046
1605.00,0.0047
1604.00,0.0048
1603.00,0.0048
1602.00,0.0048
1601.00,0.0048
1600.00,0.0048
1599.00,0.0048
1598.00,0.0047
1597.00,0.0047
1596.00,0.0047
1595.00,0.0047
1594.00,0.0047
1593.00,0.0048
1592.00,0.0048
1591.00,0.0049
1590.00,0.0049
1589.00,0.0050
1588.00,0.0051
1587.00,0.0052
1586.00,0.0054
1585.00,0.0056
1584.00,0.0058
1583.00,0.0060
1582.00,0.0063
1581.00,0.0065
1580.00,0.0067
1579.00,0.0069
1578.00,0.0069
1577.00,0.0069
1576.00,0.0070
1575.00,0.0070
1574.00,0.0070
1573.00,0.0069
1572.00,0.0068
1571.00,0.0066
1570.00,0.0064
1569.00,0.0062
1568.00,0.0061
1567.00,0.0060
1566.00,0.0059
1565.00,0.0059
1564.00,0.0059
1563.00,0.0059
1562.00,0.0059
1561.00,0.0059
1560.00,0.0060
1559.00,0.0061
1558.00,0.0062
1557.00,0.0062
1556.00,0.0062
1555.00,0.0062
1554.00,0.0063
1553.00,0.0063
1552.00,0.0064
1551.00,0.0066
1550.00,0.0068
1549.00,0.0070
1548.00,0.0072
1547.00,0.0074
1546.00,0.0076
1545.00,0.0079
1544.00,0.0081
1543.00,0.0083
1542.00,0.0084
1541.00,0.0084
1540.00,0.0083
1539.00,0.0082
1538.00,0.0079
1537.00,0.0078
1536.00,0.0076
1535.00,0.0073
1534.00,0.0070
1533.00,0.0067
1532.00,0.0065
1531.00,0.0063
1530.00,0.0062
1529.00,0.0061
1528.00,0.0060
1527.00,0.0059
1526.00,0.0058
1525.00,0.0057
1524.00,0.0057
1523.00,0.0056
1522.00,0.0055
1521.00,0.0056
1520.00,0.0056
1519.00,0.0057
1518.00,0.0057
1517.00,0.0057
1516.00,0.0058
1515.00,0.0059
1514.00,0.0059
1513.00,0.0059
1512.00,0.0060
1511.00,0.0060
1510.00,0.0060
1509.00,0.0060
1508.00,0.0060
1507.00,0.0060
1506.00,0.0061
1505.00,0.0061
1504.00,0.0063
1503.00,0.0065
1502.00,0.0067
1501.00,0.0069
1500.00,0.0072
1499.00,0.0073
1498.00,0.0074
1497.00,0.0077
1496.00,0.0080
1495.00,0.0083
1494.00,0.0086
1493.00,0.0090
1492.00,0.0094
1491.00,0.0096
1490.00,0.0099
1489.00,0.0104
1488.00,0.0109
1487.00,0.0113
1486.00,0.0118
1485.00,0.0125
1484.00,0.0132
1483.00,0.0140
1482.00,0.0150
1481.00,0.0162
1480.00,0.0175
1479.00,0.0187
1478.00,0.0201
1477.00,0.0219
1476.00,0.0240
1475.00,0.0264
1474.00,0.0297
1473.00,0.0348
1472.00,0.0411
1471.00,0.0474
1470.00,0.0533
1469.00,0.0595
1468.00,0.0661
1467.00,0.0733
1466.00,0.0814
1465.00,0.0904
1464.00,0.0984
1463.00,0.1044
1462.00,0.1088
1461.00,0.1122
1460.00,0.1149
1459.00,0.1171
1458.00,0.1193
1457.00,0.1216
1456.00,0.1230
1455.00,0.1235
1454.00,0.1234
1453.00,0.1228
1452.00,0.1209
1451.00,0.1177
1450.00,0.1126
1449.00,0.1052
1448.00,0.0956
1447.00,0.0853
1446.00,0.0759
1445.00,0.0678
1444.00,0.0610
1443.00,0.0554
1442.00,0.0512
1441.00,0.0483
1440.00,0.0465
1439.00,0.0456
1438.00,0.0453
1437.00,0.0447
1436.00,0.0430
1435.00,0.0400
1434.00,0.0361
1433.00,0.0317
1432.00,0.0272
1431.00,0.0233
1430.00,0.0204
1429.00,0.0182
1428.00,0.0168
1427.00,0.0159
1426.00,0.0153
1425.00,0.0148
1424.00,0.0144
1423.00,0.0141
1422.00,0.0140
1421.00,0.0138
1420.00,0.0135
1419.00,0.0132
1418.00,0.0130
1417.00,0.0126
1416.00,0.0122
1415.00,0.0120
1414.00,0.0119
1413.00,0.0117
1412.00,0.0115
1411.00,0.0114
1410.00,0.0114
1409.00,0.0113
1408.00,0.0111
1407.00,0.0110
1406.00,0.0110
1405.00,0.0110
1404.00,0.0109
1403.00,0.0110
1402.00,0.0112
1401.00,0.0113
1400.00,0.0115
1399.00,0.0117
1398.00,0.0119
1397.00,0.0121
1396.00,0.0123
1395.00,0.0128
1394.00,0.0133
1393.00,0.0139
1392.00,0.0146
1391.00,0.0154
1390.00,0.0167
1389.00,0.0184
1388.00,0.0211
1387.00,0.0250
1386.00,0.0302
1385.00,0.0367
1384.00,0.0452
1383.00,0.0564
1382.00,0.0708
1381.00,0.0886
1380.00,0.1098
1379.00,0.1330
1378.00,0.1546
1377.00,0.1699
1376.00,0.1744
1375.00,0.1657
1374.00,0.1459
1373.00,0.1218
1372.00,0.0993
1371.00,0.0805
1370.00,0.0653
1369.00,0.0535
1368.00,0.0453
1367.00,0.0402
1366.00,0.0374
1365.00,0.0363
1364.00,0.0364
1363.00,0.0376
1362.00,0.0395
1361.00,0.0415
1360.00,0.0429
1359.00,0.0432
1358.00,0.0421
1357.00,0.0396
1356.00,0.0361
1355.00,0.0321
1354.00,0.0283
1353.00,0.0251
1352.00,0.0225
1351.00,0.0204
1350.00,0.0187
1349.00,0.0173
1348.00,0.0162
1347.00,0.0153
1346.00,0.0146
1345.00,0.0140
1344.00,0.0136
1343.00,0.0133
1342.00,0.0130
1341.00,0.0127
1340.00,0.0124
1339.00,0.0122
1338.00,0.0121
1337.00,0.0121
1336.00,0.0121
1335.00,0.0122
1334.00,0.0124
1333.00,0.0128
1332.00,0.0132
1331.00,0.0136
1330.00,0.0137
1329.00,0.0136
1328.00,0.0132
1327.00,0.0127
1326.00,0.0121
1325.00,0.0115
1324.00,0.0110
1323.00,0.0105
1322.00,0.0101
1321.00,0.0097
1320.00,0.0094
1319.00,0.0092
1318.00,0.0089
1317.00,0.0087
1316.00,0.0085
1315.00,0.0084
1314.00,0.0083
1313.00,0.0084
1312.00,0.0086
1311.00,0.0090
1310.00,0.0096
1309.00,0.0104
1308.00,0.0115
1307.00,0.0129
1306.00,0.0144
1305.00,0.0154
1304.00,0.0158
1303.00,0.0155
1302.00,0.0147
1301.00,0.0139
1300.00,0.0133
1299.00,0.0129
1298.00,0.0127
1297.00,0.0126
1296.00,0.0124
1295.00,0.0121
1294.00,0.0116
1293.00,0.0111
1292.00,0.0105
1291.00,0.0099
1290.00,0.0095
1289.00,0.0091
1288.00,0.0087
1287.00,0.0084
1286.00,0.0082
1285.00,0.0079
1284.00,0.0077
1283.00,0.0075
1282.00,0.0074
1281.00,0.0072
1280.00,0.0071
1279.00,0.0071
1278.00,0.0070
1277.00,0.0069
1276.00,0.0068
1275.00,0.0068
1274.00,0.0069
1273.00,0.0069
1272.00,0.0070
1271.00,0.0070
1270.00,0.0071
1269.00,0.0072
1268.00,0.0074
1267.00,0.0076
1266.00,0.0078
1265.00,0.0081
1264.00,0.0085
1263.00,0.0089
1262.00,0.0094
1261.00,0.0100
1260.00,0.0107
1259.00,0.0117
1258.00,0.0127
1257.00,0.0135
1256.00,0.0139
1255.00,0.0137
1254.00,0.0130
1253.00,0.0120
1252.00,0.0109
1251.00,0.0100
1250.00,0.0094
1249.00,0.0089
1248.00,0.0086
1247.00,0.0083
1246.00,0.0082
1245.00,0.0081
1244.00,0.0080
1243.00,0.0079
1242.00,0.0079
1241.00,0.0079
1240.00,0.0078
1239.00,0.0077
1238.00,0.0076
1237.00,0.0074
1236.00,0.0073
1235.00,0.0073
1234.00,0.0072
1233.00,0.0072
1232.00,0.0071
1231.00,0.0070
1230.00,0.0070
1229.00,0.0070
1228.00,0.0071
1227.00,0.0072
1226.00,0.0075
1225.00,0.0077
1224.00,0.0081
1223.00,0.0084
1222.00,0.0087
1221.00,0.0089
1220.00,0.0091
1219.00,0.0092
1218.00,0.0092
1217.00,0.0092
1216.00,0.0089
1215.00,0.0086
1214.00,0.0083
1213.00,0.0080
1212.00,0.0077
1211.00,0.0074
1210.00,0.0071
1209.00,0.0069
1208.00,0.0068
1207.00,0.0066
1206.00,0.0064
1205.00,0.0062
1204.00,0.0060
1203.00,0.0059
1202.00,0.0059
1201.00,0.0059
1200.00,0.0059
1199.00,0.0059
1198.00,0.0058
1197.00,0.0058
1196.00,0.0058
1195.00,0.0058
1194.00,0.0059
1193.00,0.0059
1192.00,0.0059
1191.00,0.0060
1190.00,0.0060
1189.00,0.0061
1188.00,0.0062
1187.00,0.0064
1186.00,0.0067
1185.00,0.0069
1184.00,0.0071
1183.00,0.0074
1182.00,0.0078
1181.00,0.0081
1180.00,0.0086
1179.00,0.0093
1178.00,0.0101
1177.00,0.0112
1176.00,0.0127
1175.00,0.0147
1174.00,0.0174
1173.00,0.0207
1172.00,0.0247
1171.00,0.0290
1170.00,0.0332
1169.00,0.0366
1168.00,0.0388
1167.00,0.0394
1166.00,0.0385
1165.00,0.0366
1164.00,0.0341
1163.00,0.0315
1162.00,0.0292
1161.00,0.0271
1160.00,0.0254
1159.00,0.0240
1158.00,0.0229
1157.00,0.0221
1156.00,0.0216
1155.00,0.0212
1154.00,0.0208
1153.00,0.0203
1152.00,0.0197
1151.00,0.0190
1150.00,0.0180
1149.00,0.0170
1148.00,0.0160
1147.00,0.0150
1146.00,0.0140
1145.00,0.0132
1144.00,0.0124
1143.00,0.0117
1142.00,0.0109
1141.00,0.0103
1140.00,0.0097
1139.00,0.0092
1138.00,0.0088
1137.00,0.0084
1136.00,0.0082
1135.00,0.0080
1134.00,0.0078
1133.00,0.0076
1132.00,0.0074
1131.00,0.0073
1130.00,0.0073
1129.00,0.0074
1128.00,0.0076
1127.00,0.0077
1126.00,0.0079
1125.00,0.0080
1124.00,0.0081
1123.00,0.0081
1122.00,0.0081
1121.00,0.0080
1120.00,0.0080
1119.00,0.0080
1118.00,0.0082
1117.00,0.0084
1116.00,0.0086
1115.00,0.0087
1114.00,0.0089
1113.00,0.0090
1112.00,0.0091
1111.00,0.0093
1110.00,0.0097
1109.00,0.0101
1108.00,0.0107
1107.00,0.0114
1106.00,0.0120
1105.00,0.0126
1104.00,0.0130
1103.00,0.0134
1102.00,0.0134
1101.00,0.0132
1100.00,0.0128
1099.00,0.0122
1098.00,0.0116
1097.00,0.0111
1096.00,0.0106
1095.00,0.0101
1094.00,0.0098
1093.00,0.0094
1092.00,0.0091
1091.00,0.0089
1090.00,0.0086
1089.00,0.0085
1088.00,0.0083
1087.00,0.0081
1086.00,0.0080
1085.00,0.0079
1084.00,0.0079
1083.00,0.0079
1082.00,0.0078
1081.00,0.0077
1080.00,0.0076
1079.00,0.0074
1078.00,0.0073
1077.00,0.0072
1076.00,0.0071
1075.00,0.0070
1074.00,0.0070
1073.00,0.0070
1072.00,0.0071
1071.00,0.0072
1070.00,0.0073
1069.00,0.0073
1068.00,0.0073
1067.00,0.0073
1066.00,0.0074
1065.00,0.0075
1064.00,0.0076
1063.00,0.0076
1062.00,0.0076
1061.00,0.0076
1060.00,0.0077
1059.00,0.0077
1058.00,0.0078
1057.00,0.0079
1056.00,0.0080
1055.00,0.0082
1054.00,0.0083
1053.00,0.0084
1052.00,0.0085
1051.00,0.0086
1050.00,0.0089
1049.00,0.0092
1048.00,0.0095
1047.00,0.0098
1046.00,0.0101
1045.00,0.0103
1044.00,0.0103
1043.00,0.0102
1042.00,0.0098
1041.00,0.0094
1040.00,0.0092
1039.00,0.0092
1038.00,0.0092
1037.00,0.0093
1036.00,0.0094
1035.00,0.0094
1034.00,0.0094
1033.00,0.0094
1032.00,0.0093
1031.00,0.0092
1030.00,0.0092
1029.00,0.0092
1028.00,0.0091
1027.00,0.0090
1026.00,0.0089
1025.00,0.0088
1024.00,0.0088
1023.00,0.0088
1022.00,0.0089
1021.00,0.0090
1020.00,0.0092
1019.00,0.0093
1018.00,0.0095
1017.00,0.0097
1016.00,0.0100
1015.00,0.0104
1014.00,0.0108
1013.00,0.0113
1012.00,0.0118
1011.00,0.0123
1010.00,0.0129
1009.00,0.0136
1008.00,0.0143
1007.00,0.0151
1006.00,0.0162
1005.00,0.0176
1004.00,0.0196
1003.00,0.0223
1002.00,0.0259
1001.00,0.0304
1000.00,0.0353
999.00,0.0396
998.00,0.0421
997.00,0.0418
996.00,0.0388
995.00,0.0340
994.00,0.0287
993.00,0.0239
992.00,0.0201
991.00,0.0173
990.00,0.0154
989.00,0.0141
988.00,0.0133
987.00,0.0129
986.00,0.0128
985.00,0.0129
984.00,0.0134
983.00,0.0142
982.00,0.0156
981.00,0.0176
980.00,0.0203
979.00,0.0237
978.00,0.0280
977.00,0.0332
976.00,0.0389
975.00,0.0446
974.00,0.0493
973.00,0.0515
972.00,0.0506
971.00,0.0464
970.00,0.0402
969.00,0.0334
968.00,0.0274
967.00,0.0227
966.00,0.0192
965.00,0.0166
964.00,0.0147
963.00,0.0133
962.00,0.0123
961.00,0.0115
960.00,0.0108
959.00,0.0103
958.00,0.0098
957.00,0.0094
956.00,0.0090
955.00,0.0087
954.00,0.0085
953.00,0.0084
952.00,0.0082
951.00,0.0081
950.00,0.0079
949.00,0.0078
948.00,0.0078
947.00,0.0080
946.00,0.0082
945.00,0.0084
944.00,0.0087
943.00,0.0089
942.00,0.0091
941.00,0.0091
940.00,0.0090
939.00,0.0088
938.00,0.0084
937.00,0.0080
936.00,0.0076
935.00,0.0073
934.00,0.0071
933.00,0.0069
932.00,0.0067
931.00,0.0065
930.00,0.0063
929.00,0.0062
928.00,0.0061
927.00,0.0060
926.00,0.0060
925.00,0.0059
924.00,0.0060
923.00,0.0061
922.00,0.0062
921.00,0.0063
920.00,0.0064
919.00,0.0065
918.00,0.0066
917.00,0.0067
916.00,0.0068
915.00,0.0069
914.00,0.0070
913.00,0.0071
912.00,0.0072
911.00,0.0072
910.00,0.0073
909.00,0.0074
908.00,0.0076
907.00,0.0079
906.00,0.0085
905.00,0.0094
904.00,0.0107
903.00,0.0124
902.00,0.0143
901.00,0.0160
900.00,0.0172
899.00,0.0175
898.00,0.0169
897.00,0.0156
896.00,0.0139
895.00,0.0123
894.00,0.0109
893.00,0.0098
892.00,0.0090
891.00,0.0084
890.00,0.0080
889.00,0.0078
888.00,0.0076
887.00,0.0074
886.00,0.0072
885.00,0.0071
884.00,0.0071
883.00,0.0072
882.00,0.0073
881.00,0.0074
880.00,0.0074
879.00,0.0074
878.00,0.0073
877.00,0.0072
876.00,0.0072
875.00,0.0073
874.00,0.0074
873.00,0.0075
872.00,0.0075
871.00,0.0075
870.00,0.0074
869.00,0.0074
868.00,0.0074
867.00,0.0075
866.00,0.0076
865.00,0.0077
864.00,0.0079
863.00,0.0080
862.00,0.0082
861.00,0.0084
860.00,0.0086
859.00,0.0088
858.00,0.0089
857.00,0.0090
856.00,0.0090
855.00,0.0091
854.00,0.0094
853.00,0.0098
852.00,0.0103
851.00,0.0108
850.00,0.0116
849.00,0.0125
848.00,0.0138
847.00,0.0158
846.00,0.0189
845.00,0.0235
844.00,0.0295
843.00,0.0360
842.00,0.0411
841.00,0.0425
840.00,0.0398
839.00,0.0342
838.00,0.0280
837.00,0.0229
836.00,0.0195
835.00,0.0173
834.00,0.0158
833.00,0.0148
832.00,0.0141
831.00,0.0136
830.00,0.0133
829.00,0.0130
828.00,0.0127
827.00,0.0125
826.00,0.0122
825.00,0.0120
824.00,0.0119
823.00,0.0118
822.00,0.0118
821.00,0.0118
820.00,0.0119
819.00,0.0119
818.00,0.0122
817.00,0.0127
816.00,0.0134
815.00,0.0142
814.00,0.0152
813.00,0.0164
812.00,0.0178
811.00,0.0191
810.00,0.0202
809.00,0.0207
808.00,0.0206
807.00,0.0199
806.00,0.0188
805.00,0.0175
804.00,0.0161
803.00,0.0149
802.00,0.0139
801.00,0.0131
800.00,0.0124
799.00,0.0118
798.00,0.0112
797.00,0.0106
796.00,0.0102
795.00,0.0098
794.00,0.0095
793.00,0.0090
792.00,0.0087
791.00,0.0086
790.00,0.0085
789.00,0.0084
788.00,0.0082
787.00,0.0078
786.00,0.0073
785.00,0.0070
784.00,0.0068
783.00,0.0067
782.00,0.0066
781.00,0.0065
780.00,0.0064
779.00,0.0063
778.00,0.0062
777.00,0.0061
776.00,0.0061
775.00,0.0063
774.00,0.0067
773.00,0.0072
772.00,0.0077
771.00,0.0081
770.00,0.0084
769.00,0.0086
768.00,0.0087
767.00,0.0088
766.00,0.0089
765.00,0.0088
764.00,0.0085
763.00,0.0081
762.00,0.0075
761.00,0.0070
760.00,0.0067
759.00,0.0065
758.00,0.0063
757.00,0.0061
756.00,0.0058
755.00,0.0055
754.00,0.0053
753.00,0.0052
752.00,0.0052
751.00,0.0053
750.00,0.0053
749.00,0.0053
748.00,0.0051
747.00,0.0051
746.00,0.0052
745.00,0.0053
744.00,0.0055
743.00,0.0057
742.00,0.0058
741.00,0.0060
740.00,0.0061
739.00,0.0062
738.00,0.0063
737.00,0.0064
736.00,0.0065
735.00,0.0068
734.00,0.0071
733.00,0.0073
732.00,0.0074
731.00,0.0074
730.00,0.0073
729.00,0.0073
728.00,0.0072
727.00,0.0071
726.00,0.0070
725.00,0.0070
724.00,0.0069
723.00,0.0069
722.00,0.0068
721.00,0.0067
720.00,0.0065
719.00,0.0064
718.00,0.0063
717.00,0.0062
716.00,0.0061
715.00,0.0060
714.00,0.0060
713.00,0.0060
712.00,0.0059
711.00,0.0058
710.00,0.0058
709.00,0.0058
708.00,0.0058
707.00,0.0057
706.00,0.0057
705.00,0.0058
704.00,0.0059
703.00,0.0061
702.00,0.0062
701.00,0.0063
700.00,0.0061
699.00,0.0059
698.00,0.0057
697.00,0.0055
696.00,0.0055
695.00,0.0055
694.00,0.0056
693.00,0.0056
692.00,0.0056
691.00,0.0056
690.00,0.0056
689.00,0.0055
688.00,0.0054
687.00,0.0053
686.00,0.0053
685.00,0.0054
684.00,0.0054
683.00,0.0053
682.00,0.0051
681.00,0.0050
680.00,0.0050
679.00,0.0051
678.00,0.0053
677.00,0.0054
676.00,0.0055
675.00,0.0054
674.00,0.0054
673.00,0.0054
672.00,0.0054
671.00,0.0057
670.00,0.0060
669.00,0.0065
668.00,0.0070
667.00,0.0071
666.00,0.0069
665.00,0.0067
664.00,0.0065
663.00,0.0064
662.00,0.0062
661.00,0.0061
660.00,0.0059
659.00,0.0059
658.00,0.0059
657.00,0.0060
656.00,0.0061
655.00,0.0062
654.00,0.0062
653.00,0.0062
652.00,0.0061
651.00,0.0060
650.00,0.0059
649.00,0.0059
648.00,0.0060
647.00,0.0060
646.00,0.0061
645.00,0.0061
644.00,0.0062
643.00,0.0062
642.00,0.0063
641.00,0.0065
640.00,0.0066
639.00,0.0066
638.00,0.0064
637.00,0.0062
636.00,0.0060
635.00,0.0059
634.00,0.0059
633.00,0.0059
632.00,0.0060
631.00,0.0060
630.00,0.0060
629.00,0.0060
628.00,0.0060
627.00,0.0060
626.00,0.0061
625.00,0.0063
624.00,0.0065
623.00,0.0064
622.00,0.0063
621.00,0.0062
620.00,0.0061
619.00,0.0061
618.00,0.0061
617.00,0.0061
616.00,0.0063
615.00,0.0064
614.00,0.0063
613.00,0.0060
612.00,0.0057
611.00,0.0055
610.00,0.0056
609.00,0.0059
608.00,0.0062
607.00,0.0064
606.00,0.0065
605.00,0.0065
604.00,0.0063
603.00,0.0060
602.00,0.0058
601.00,0.0057
600.00,0.0056
599.00,0.0056
598.00,0.0056
597.00,0.0057
596.00,0.0059
595.00,0.0060
594.00,0.0059
593.00,0.0058
592.00,0.0056
591.00,0.0054
590.00,0.0052
589.00,0.0051
588.00,0.0051
587.00,0.0053
586.00,0.0056
585.00,0.0059
584.00,0.0061
583.00,0.0063
582.00,0.0064
581.00,0.0065
580.00,0.0064
579.00,0.0064
578.00,0.0063
577.00,0.0063
576.00,0.0061
575.00,0.0060
574.00,0.0061
573.00,0.0062
572.00,0.0064
571.00,0.0063
570.00,0.0060
569.00,0.0057
568.00,0.0054
567.00,0.0052
566.00,0.0051
565.00,0.0051
564.00,0.0052
563.00,0.0053
562.00,0.0056
561.00,0.0059
560.00,0.0064
559.00,0.0066
558.00,0.0067
557.00,0.0066
556.00,0.0066
555.00,0.0067
554.00,0.0068
553.00,0.0067
552.00,0.0066
551.00,0.0064
550.00,0.0062
549.00,0.0060
548.00,0.0058
547.00,0.0057
546.00,0.0057
545.00,0.0059
544.00,0.0060
543.00,0.0060
542.00,0.0059
541.00,0.0057
540.00,0.0058
539.00,0.0059
538.00,0.0060
537.00,0.0062
536.00,0.0064
535.00,0.0068
534.00,0.0072
533.00,0.0074
532.00,0.0075
531.00,0.0078
530.00,0.0082
529.00,0.0087
528.00,0.0090
527.00,0.0092
526.00,0.0091
525.00,0.0089
524.00,0.0085
523.00,0.0082
522.00,0.0080
521.00,0.0078
520.00,0.0077
519.00,0.0077
518.00,0.0076
517.00,0.0074
516.00,0.0070
515.00,0.0069
514.00,0.0069
513.00,0.0072
512.00,0.0077
511.00,0.0082
510.00,0.0084
509.00,0.0080
508.00,0.0068
507.00,0.0057
506.00,0.0052
505.00,0.0052
504.00,0.0051
503.00,0.0046
502.00,0.0043
501.00,0.0045
500.00,0.0050
499.00,0.0055
498.00,0.0059
497.00,0.0063
496.00,0.0065
495.00,0.0064
494.00,0.0057
493.00,0.0050
492.00,0.0047
491.00,0.0050
490.00,0.0055
489.00,0.0059
488.00,0.0063
487.00,0.0066
486.00,0.0069
485.00,0.0071
484.00,0.0073
483.00,0.0075
482.00,0.0077
481.00,0.0077
480.00,0.0074
479.00,0.0072
478.00,0.0071
477.00,0.0068
476.00,0.0062
475.00,0.0057
474.00,0.0058
473.00,0.0066
472.00,0.0077
471.00,0.0084
470.00,0.0084
469.00,0.0081
468.00,0.0080
467.00,0.0087
466.00,0.0102
465.00,0.0120
464.00,0.0134
463.00,0.0142
462.00,0.0145
461.00,0.0145
460.00,0.0148
459.00,0.0157
458.00,0.0168
457.00,0.0174
456.00,0.0169
455.00,0.0156
454.00,0.0138
453.00,0.0116
452.00,0.0094
451.00,0.0078
450.00,0.0070
