Created as New Dataset,Sample 001 By Administrator Date Tuesday, September 09 2025
cm-1,A
4000.00,0.0010
3999.00,0.0011
3998.00,0.0011
3997.00,0.0011
3996.00,0.0012
3995.00,0.0012
3994.00,0.0012
3993.00,0.0011
3992.00,0.0010
3991.00,0.0010
3990.00,0.0010
3989.00,0.0010
3988.00,0.0010
3987.00,0.0010
3986.00,0.0010
3985.00,0.0010
3984.00,0.0010
3983.00,0.0009
3982.00,0.0009
3981.00,0.0009
3980.00,0.0009
3979.00,0.0009
3978.00,0.0009
3977.00,0.0010
3976.00,0.0009
3975.00,0.0009
3974.00,0.0009
3973.00,0.0009
3972.00,0.0009
3971.00,0.0009
3970.00,0.0008
3969.00,0.0008
3968.00,0.0008
3967.00,0.0008
3966.00,0.0009
3965.00,0.0009
3964.00,0.0009
3963.00,0.0009
3962.00,0.0009
3961.00,0.0009
3960.00,0.0009
3959.00,0.0009
3958.00,0.0009
3957.00,0.0009
3956.00,0.0009
3955.00,0.0009
3954.00,0.0009
3953.00,0.0009
3952.00,0.0009
3951.00,0.0009
3950.00,0.0009
3949.00,0.0009
3948.00,0.0009
3947.00,0.0009
3946.00,0.0009
3945.00,0.0009
3944.00,0.0009
3943.00,0.0009
3942.00,0.0009
3941.00,0.0009
3940.00,0.0009
3939.00,0.0009
3938.00,0.0009
3937.00,0.0009
3936.00,0.0009
3935.00,0.0009
3934.00,0.0010
3933.00,0.0010
3932.00,0.0010
3931.00,0.0010
3930.00,0.0010
3929.00,0.0009
3928.00,0.0009
3927.00,0.0009
3926.00,0.0009
3925.00,0.0010
3924.00,0.0010
3923.00,0.0011
3922.00,0.0011
3921.00,0.0010
3920.00,0.0010
3919.00,0.0010
3918.00,0.0010
3917.00,0.0009
3916.00,0.0008
3915.00,0.0008
3914.00,0.0008
3913.00,0.0008
3912.00,0.0008
3911.00,0.0009
3910.00,0.0009
3909.00,0.0009
3908.00,0.0009
3907.00,0.0009
3906.00,0.0009
3905.00,0.0009
3904.00,0.0010
3903.00,0.0010
3902.00,0.0010
3901.00,0.0010
3900.00,0.0009
3899.00,0.0009
3898.00,0.0009
3897.00,0.0009
3896.00,0.0009
3895.00,0.0009
3894.00,0.0009
3893.00,0.0009
3892.00,0.0009
3891.00,0.0009
3890.00,0.0009
3889.00,0.0010
3888.00,0.0010
3887.00,0.0010
3886.00,0.0010
3885.00,0.0010
3884.00,0.0010
3883.00,0.0010
3882.00,0.0009
3881.00,0.0009
3880.00,0.0009
3879.00,0.0009
3878.00,0.0009
3877.00,0.0009
3876.00,0.0009
3875.00,0.0009
3874.00,0.0010
3873.00,0.0010
3872.00,0.0010
3871.00,0.0010
3870.00,0.0010
3869.00,0.0010
3868.00,0.0010
3867.00,0.0010
3866.00,0.0010
3865.00,0.0010
3864.00,0.0010
3863.00,0.0010
3862.00,0.0010
3861.00,0.0010
3860.00,0.0010
3859.00,0.0010
3858.00,0.0010
3857.00,0.0009
3856.00,0.0009
3855.00,0.0009
3854.00,0.0009
3853.00,0.0010
3852.00,0.0010
3851.00,0.0010
3850.00,0.0010
3849.00,0.0009
3848.00,0.0009
3847.00,0.0009
3846.00,0.0009
3845.00,0.0009
3844.00,0.0009
3843.00,0.0010
3842.00,0.0010
3841.00,0.0010
3840.00,0.0010
3839.00,0.0010
3838.00,0.0010
3837.00,0.0010
3836.00,0.0010
3835.00,0.0010
3834.00,0.0010
3833.00,0.0010
3832.00,0.0010
3831.00,0.0010
3830.00,0.0010
3829.00,0.0010
3828.00,0.0010
3827.00,0.0009
3826.00,0.0009
3825.00,0.0010
3824.00,0.0010
3823.00,0.0010
3822.00,0.0010
3821.00,0.0010
3820.00,0.0011
3819.00,0.0011
3818.00,0.0010
3817.00,0.0010
3816.00,0.0009
3815.00,0.0009
3814.00,0.0009
3813.00,0.0009
3812.00,0.0009
3811.00,0.0010
3810.00,0.0010
3809.00,0.0010
3808.00,0.0010
3807.00,0.0010
3806.00,0.0011
3805.00,0.0011
3804.00,0.0011
3803.00,0.0010
3802.00,0.0009
3801.00,0.0009
3800.00,0.0009
3799.00,0.0009
3798.00,0.0009
3797.00,0.0009
3796.00,0.0009
3795.00,0.0008
3794.00,0.0008
3793.00,0.0008
3792.00,0.0008
3791.00,0.0008
3790.00,0.0008
3789.00,0.0008
3788.00,0.0008
3787.00,0.0008
3786.00,0.0008
3785.00,0.0008
3784.00,0.0008
3783.00,0.0009
3782.00,0.0009
3781.00,0.0009
3780.00,0.0008
3779.00,0.0009
3778.00,0.0009
3777.00,0.0009
3776.00,0.0009
3775.00,0.0009
3774.00,0.0009
3773.00,0.0009
3772.00,0.0009
3771.00,0.0010
3770.00,0.0010
3769.00,0.0010
3768.00,0.0010
3767.00,0.0010
3766.00,0.0010
3765.00,0.0010
3764.00,0.0010
3763.00,0.0010
3762.00,0.0011
3761.00,0.0011
3760.00,0.0010
3759.00,0.0010
3758.00,0.0010
3757.00,0.0010
3756.00,0.0011
3755.00,0.0011
3754.00,0.0012
3753.00,0.0012
3752.00,0.0012
3751.00,0.0013
3750.00,0.0013
3749.00,0.0012
3748.00,0.0012
3747.00,0.0012
3746.00,0.0011
3745.00,0.0011
3744.00,0.0011
3743.00,0.0010
3742.00,0.0010
3741.00,0.0010
3740.00,0.0010
3739.00,0.0010
3738.00,0.0009
3737.00,0.0009
3736.00,0.0010
3735.00,0.0010
3734.00,0.0010
3733.00,0.0010
3732.00,0.0010
3731.00,0.0009
3730.00,0.0009
3729.00,0.0009
3728.00,0.0009
3727.00,0.0009
3726.00,0.0010
3725.00,0.0010
3724.00,0.0010
3723.00,0.0010
3722.00,0.0009
3721.00,0.0009
3720.00,0.0008
3719.00,0.0008
3718.00,0.0007
3717.00,0.0007
3716.00,0.0008
3715.00,0.0008
3714.00,0.0008
3713.00,0.0008
3712.00,0.0008
3711.00,0.0009
3710.00,0.0009
3709.00,0.0009
3708.00,0.0008
3707.00,0.0007
3706.00,0.0007
3705.00,0.0007
3704.00,0.0007
3703.00,0.0008
3702.00,0.0008
3701.00,0.0007
3700.00,0.0007
3699.00,0.0007
3698.00,0.0007
3697.00,0.0007
3696.00,0.0008
3695.00,0.0008
3694.00,0.0008
3693.00,0.0008
3692.00,0.0008
3691.00,0.0008
3690.00,0.0008
3689.00,0.0008
3688.00,0.0008
3687.00,0.0008
3686.00,0.0008
3685.00,0.0008
3684.00,0.0008
3683.00,0.0008
3682.00,0.0009
3681.00,0.0009
3680.00,0.0009
3679.00,0.0010
3678.00,0.0011
3677.00,0.0011
3676.00,0.0011
3675.00,0.0011
3674.00,0.0012
3673.00,0.0011
3672.00,0.0011
3671.00,0.0010
3670.00,0.0010
3669.00,0.0010
3668.00,0.0010
3667.00,0.0010
3666.00,0.0010
3665.00,0.0010
3664.00,0.0010
3663.00,0.0010
3662.00,0.0010
3661.00,0.0010
3660.00,0.0010
3659.00,0.0010
3658.00,0.0010
3657.00,0.0011
3656.00,0.0011
3655.00,0.0012
3654.00,0.0012
3653.00,0.0012
3652.00,0.0012
3651.00,0.0012
3650.00,0.0012
3649.00,0.0012
3648.00,0.0012
3647.00,0.0011
3646.00,0.0011
3645.00,0.0011
3644.00,0.0010
3643.00,0.0010
3642.00,0.0010
3641.00,0.0010
3640.00,0.0010
3639.00,0.0010
3638.00,0.0011
3637.00,0.0011
3636.00,0.0011
3635.00,0.0011
3634.00,0.0011
3633.00,0.0011
3632.00,0.0011
3631.00,0.0011
3630.00,0.0011
3629.00,0.0011
3628.00,0.0011
3627.00,0.0011
3626.00,0.0010
3625.00,0.0010
3624.00,0.0010
3623.00,0.0010
3622.00,0.0010
3621.00,0.0010
3620.00,0.0010
3619.00,0.0010
3618.00,0.0010
3617.00,0.0011
3616.00,0.0011
3615.00,0.0012
3614.00,0.0012
3613.00,0.0012
3612.00,0.0012
3611.00,0.0012
3610.00,0.0012
3609.00,0.0012
3608.00,0.0012
3607.00,0.0011
3606.00,0.0011
3605.00,0.0011
3604.00,0.0011
3603.00,0.0011
3602.00,0.0011
3601.00,0.0011
3600.00,0.0011
3599.00,0.0012
3598.00,0.0012
3597.00,0.0012
3596.00,0.0012
3595.00,0.0012
3594.00,0.0012
3593.00,0.0013
3592.00,0.0014
3591.00,0.0014
3590.00,0.0014
3589.00,0.0014
3588.00,0.0014
3587.00,0.0013
3586.00,0.0013
3585.00,0.0013
3584.00,0.0013
3583.00,0.0013
3582.00,0.0013
3581.00,0.0014
3580.00,0.0014
3579.00,0.0014
3578.00,0.0014
3577.00,0.0014
3576.00,0.0014
3575.00,0.0014
3574.00,0.0015
3573.00,0.0015
3572.00,0.0016
3571.00,0.0016
3570.00,0.0016
3569.00,0.0017
3568.00,0.0017
3567.00,0.0017
3566.00,0.0017
3565.00,0.0017
3564.00,0.0017
3563.00,0.0016
3562.00,0.0017
3561.00,0.0017
3560.00,0.0017
3559.00,0.0017
3558.00,0.0017
3557.00,0.0018
3556.00,0.0018
3555.00,0.0018
3554.00,0.0019
3553.00,0.0019
3552.00,0.0020
3551.00,0.0020
3550.00,0.0021
3549.00,0.0021
3548.00,0.0021
3547.00,0.0021
3546.00,0.0021
3545.00,0.0021
3544.00,0.0021
3543.00,0.0021
3542.00,0.0021
3541.00,0.0021
3540.00,0.0021
3539.00,0.0021
3538.00,0.0021
3537.00,0.0021
3536.00,0.0021
3535.00,0.0022
3534.00,0.0022
3533.00,0.0022
3532.00,0.0023
3531.00,0.0023
3530.00,0.0024
3529.00,0.0024
3528.00,0.0025
3527.00,0.0025
3526.00,0.0026
3525.00,0.0026
3524.00,0.0026
3523.00,0.0026
3522.00,0.0026
3521.00,0.0026
3520.00,0.0026
3519.00,0.0025
3518.00,0.0025
3517.00,0.0025
3516.00,0.0025
3515.00,0.0026
3514.00,0.0026
3513.00,0.0027
3512.00,0.0027
3511.00,0.0027
3510.00,0.0027
3509.00,0.0027
3508.00,0.0028
3507.00,0.0028
3506.00,0.0028
3505.00,0.0028
3504.00,0.0028
3503.00,0.0028
3502.00,0.0028
3501.00,0.0028
3500.00,0.0028
3499.00,0.0028
3498.00,0.0029
3497.00,0.0029
3496.00,0.0029
3495.00,0.0029
3494.00,0.0030
3493.00,0.0030
3492.00,0.0030
3491.00,0.0031
3490.00,0.0031
3489.00,0.0031
3488.00,0.0031
3487.00,0.0032
3486.00,0.0032
3485.00,0.0032
3484.00,0.0032
3483.00,0.0032
3482.00,0.0033
3481.00,0.0033
3480.00,0.0033
3479.00,0.0033
3478.00,0.0033
3477.00,0.0033
3476.00,0.0033
3475.00,0.0033
3474.00,0.0033
3473.00,0.0034
3472.00,0.0034
3471.00,0.0034
3470.00,0.0034
3469.00,0.0035
3468.00,0.0035
3467.00,0.0035
3466.00,0.0035
3465.00,0.0035
3464.00,0.0035
3463.00,0.0035
3462.00,0.0036
3461.00,0.0036
3460.00,0.0037
3459.00,0.0037
3458.00,0.0037
3457.00,0.0037
3456.00,0.0037
3455.00,0.0037
3454.00,0.0038
3453.00,0.0038
3452.00,0.0038
3451.00,0.0039
3450.00,0.0039
3449.00,0.0039
3448.00,0.0039
3447.00,0.0039
3446.00,0.0039
3445.00,0.0039
3444.00,0.0039
3443.00,0.0039
3442.00,0.0040
3441.00,0.0040
3440.00,0.0040
3439.00,0.0040
3438.00,0.0041
3437.00,0.0041
3436.00,0.0041
3435.00,0.0042
3434.00,0.0042
3433.00,0.0042
3432.00,0.0043
3431.00,0.0043
3430.00,0.0042
3429.00,0.0042
3428.00,0.0042
3427.00,0.0043
3426.00,0.0043
3425.00,0.0043
3424.00,0.0044
3423.00,0.0044
3422.00,0.0044
3421.00,0.0044
3420.00,0.0044
3419.00,0.0044
3418.00,0.0045
3417.00,0.0045
3416.00,0.0045
3415.00,0.0045
3414.00,0.0046
3413.00,0.0046
3412.00,0.0046
3411.00,0.0046
3410.00,0.0046
3409.00,0.0046
3408.00,0.0047
3407.00,0.0047
3406.00,0.0047
3405.00,0.0047
3404.00,0.0047
3403.00,0.0047
3402.00,0.0047
3401.00,0.0047
3400.00,0.0047
3399.00,0.0047
3398.00,0.0048
3397.00,0.0048
3396.00,0.0048
3395.00,0.0048
3394.00,0.0048
3393.00,0.0048
3392.00,0.0048
3391.00,0.0048
3390.00,0.0048
3389.00,0.0048
3388.00,0.0048
3387.00,0.0048
3386.00,0.0048
3385.00,0.0048
3384.00,0.0048
3383.00,0.0048
3382.00,0.0048
3381.00,0.0049
3380.00,0.0049
3379.00,0.0049
3378.00,0.0048
3377.00,0.0048
3376.00,0.0048
3375.00,0.0048
3374.00,0.0047
3373.00,0.0048
3372.00,0.0048
3371.00,0.0048
3370.00,0.0048
3369.00,0.0048
3368.00,0.0048
3367.00,0.0049
3366.00,0.0049
3365.00,0.0050
3364.00,0.0050
3363.00,0.0050
3362.00,0.0050
3361.00,0.0050
3360.00,0.0050
3359.00,0.0050
3358.00,0.0050
3357.00,0.0050
3356.00,0.0050
3355.00,0.0050
3354.00,0.0050
3353.00,0.0051
3352.00,0.0051
3351.00,0.0051
3350.00,0.0051
3349.00,0.0050
3348.00,0.0050
3347.00,0.0050
3346.00,0.0050
3345.00,0.0050
3344.00,0.0050
3343.00,0.0050
3342.00,0.0050
3341.00,0.0050
3340.00,0.0050
3339.00,0.0050
3338.00,0.0050
3337.00,0.0049
3336.00,0.0049
3335.00,0.0049
3334.00,0.0049
3333.00,0.0049
3332.00,0.0049
3331.00,0.0049
3330.00,0.0049
3329.00,0.0049
3328.00,0.0049
3327.00,0.0049
3326.00,0.0048
3325.00,0.0048
3324.00,0.0048
3323.00,0.0048
3322.00,0.0048
3321.00,0.0048
3320.00,0.0048
3319.00,0.0048
3318.00,0.0048
3317.00,0.0048
3316.00,0.0048
3315.00,0.0049
3314.00,0.0049
3313.00,0.0049
3312.00,0.0048
3311.00,0.0048
3310.00,0.0048
3309.00,0.0048
3308.00,0.0048
3307.00,0.0048
3306.00,0.0048
3305.00,0.0048
3304.00,0.0048
3303.00,0.0049
3302.00,0.0049
3301.00,0.0049
3300.00,0.0048
3299.00,0.0048
3298.00,0.0048
3297.00,0.0048
3296.00,0.0047
3295.00,0.0047
3294.00,0.0047
3293.00,0.0047
3292.00,0.0047
3291.00,0.0047
3290.00,0.0047
3289.00,0.0047
3288.00,0.0047
3287.00,0.0047
3286.00,0.0047
3285.00,0.0046
3284.00,0.0046
3283.00,0.0045
3282.00,0.0045
3281.00,0.0046
3280.00,0.0046
3279.00,0.0046
3278.00,0.0046
3277.00,0.0046
3276.00,0.0046
3275.00,0.0045
3274.00,0.0045
3273.00,0.0045
3272.00,0.0045
3271.00,0.0045
3270.00,0.0045
3269.00,0.0045
3268.00,0.0045
3267.00,0.0044
3266.00,0.0044
3265.00,0.0044
3264.00,0.0044
3263.00,0.0044
3262.00,0.0044
3261.00,0.0044
3260.00,0.0044
3259.00,0.0043
3258.00,0.0043
3257.00,0.0043
3256.00,0.0043
3255.00,0.0042
3254.00,0.0042
3253.00,0.0041
3252.00,0.0041
3251.00,0.0042
3250.00,0.0042
3249.00,0.0042
3248.00,0.0042
3247.00,0.0042
3246.00,0.0042
3245.00,0.0042
3244.00,0.0042
3243.00,0.0043
3242.00,0.0043
3241.00,0.0043
3240.00,0.0042
3239.00,0.0042
3238.00,0.0042
3237.00,0.0042
3236.00,0.0042
3235.00,0.0042
3234.00,0.0042
3233.00,0.0042
3232.00,0.0042
3231.00,0.0042
3230.00,0.0043
3229.00,0.0043
3228.00,0.0043
3227.00,0.0043
3226.00,0.0043
3225.00,0.0044
3224.00,0.0044
3223.00,0.0044
3222.00,0.0044
3221.00,0.0044
3220.00,0.0043
3219.00,0.0043
3218.00,0.0044
3217.00,0.0044
3216.00,0.0045
3215.00,0.0045
3214.00,0.0045
3213.00,0.0046
3212.00,0.0046
3211.00,0.0046
3210.00,0.0046
3209.00,0.0046
3208.00,0.0047
3207.00,0.0047
3206.00,0.0048
3205.00,0.0048
3204.00,0.0048
3203.00,0.0047
3202.00,0.0047
3201.00,0.0047
3200.00,0.0047
3199.00,0.0047
3198.00,0.0048
3197.00,0.0047
3196.00,0.0047
3195.00,0.0047
3194.00,0.0047
3193.00,0.0047
3192.00,0.0047
3191.00,0.0047
3190.00,0.0047
3189.00,0.0046
3188.00,0.0046
3187.00,0.0046
3186.00,0.0046
3185.00,0.0046
3184.00,0.0046
3183.00,0.0045
3182.00,0.0045
3181.00,0.0044
3180.00,0.0044
3179.00,0.0044
3178.00,0.0044
3177.00,0.0044
3176.00,0.0044
3175.00,0.0043
3174.00,0.0043
3173.00,0.0043
3172.00,0.0043
3171.00,0.0043
3170.00,0.0043
3169.00,0.0043
3168.00,0.0043
3167.00,0.0043
3166.00,0.0042
3165.00,0.0042
3164.00,0.0041
3163.00,0.0041
3162.00,0.0041
3161.00,0.0041
3160.00,0.0041
3159.00,0.0041
3158.00,0.0041
3157.00,0.0041
3156.00,0.0041
3155.00,0.0041
3154.00,0.0041
3153.00,0.0040
3152.00,0.0040
3151.00,0.0041
3150.00,0.0041
3149.00,0.0041
3148.00,0.0041
3147.00,0.0040
3146.00,0.0039
3145.00,0.0039
3144.00,0.0039
3143.00,0.0039
3142.00,0.0039
3141.00,0.0039
3140.00,0.0039
3139.00,0.0039
3138.00,0.0039
3137.00,0.0039
3136.00,0.0039
3135.00,0.0039
3134.00,0.0038
3133.00,0.0038
3132.00,0.0038
3131.00,0.0037
3130.00,0.0037
3129.00,0.0036
3128.00,0.0036
3127.00,0.0036
3126.00,0.0036
3125.00,0.0036
3124.00,0.0036
3123.00,0.0036
3122.00,0.0036
3121.00,0.0035
3120.00,0.0035
3119.00,0.0035
3118.00,0.0034
3117.00,0.0034
3116.00,0.0034
3115.00,0.0034
3114.00,0.0033
3113.00,0.0033
3112.00,0.0033
3111.00,0.0033
3110.00,0.0033
3109.00,0.0033
3108.00,0.0033
3107.00,0.0033
3106.00,0.0033
3105.00,0.0033
3104.00,0.0033
3103.00,0.0032
3102.00,0.0032
3101.00,0.0032
3100.00,0.0032
3099.00,0.0032
3098.00,0.0032
3097.00,0.0032
3096.00,0.0032
3095.00,0.0032
3094.00,0.0032
3093.00,0.0032
3092.00,0.0031
3091.00,0.0031
3090.00,0.0031
3089.00,0.0031
3088.00,0.0031
3087.00,0.0031
3086.00,0.0030
3085.00,0.0030
3084.00,0.0030
3083.00,0.0030
3082.00,0.0031
3081.00,0.0031
3080.00,0.0031
3079.00,0.0031
3078.00,0.0031
3077.00,0.0031
3076.00,0.0031
3075.00,0.0031
3074.00,0.0031
3073.00,0.0031
3072.00,0.0031
3071.00,0.0031
3070.00,0.0031
3069.00,0.0031
3068.00,0.0031
3067.00,0.0032
3066.00,0.0032
3065.00,0.0033
3064.00,0.0033
3063.00,0.0033
3062.00,0.0032
3061.00,0.0032
3060.00,0.0032
3059.00,0.0032
3058.00,0.0032
3057.00,0.0033
3056.00,0.0033
3055.00,0.0033
3054.00,0.0033
3053.00,0.0033
3052.00,0.0034
3051.00,0.0034
3050.00,0.0034
3049.00,0.0034
3048.00,0.0034
3047.00,0.0034
3046.00,0.0034
3045.00,0.0034
3044.00,0.0035
3043.00,0.0035
3042.00,0.0035
3041.00,0.0035
3040.00,0.0035
3039.00,0.0036
3038.00,0.0036
3037.00,0.0036
3036.00,0.0036
3035.00,0.0037
3034.00,0.0037
3033.00,0.0037
3032.00,0.0038
3031.00,0.0039
3030.00,0.0040
3029.00,0.0040
3028.00,0.0041
3027.00,0.0041
3026.00,0.0041
3025.00,0.0042
3024.00,0.0042
3023.00,0.0043
3022.00,0.0044
3021.00,0.0045
3020.00,0.0046
3019.00,0.0047
3018.00,0.0049
3017.00,0.0050
3016.00,0.0051
3015.00,0.0052
3014.00,0.0054
3013.00,0.0055
3012.00,0.0057
3011.00,0.0059
3010.00,0.0061
3009.00,0.0063
3008.00,0.0065
3007.00,0.0068
3006.00,0.0070
3005.00,0.0073
3004.00,0.0077
3003.00,0.0080
3002.00,0.0083
3001.00,0.0086
3000.00,0.0089
2999.00,0.0093
2998.00,0.0096
2997.00,0.0101
2996.00,0.0105
2995.00,0.0110
2994.00,0.0115
2993.00,0.0121
2992.00,0.0127
2991.00,0.0134
2990.00,0.0141
2989.00,0.0149
2988.00,0.0159
2987.00,0.0169
2986.00,0.0181
2985.00,0.0195
2984.00,0.0211
2983.00,0.0228
2982.00,0.0246
2981.00,0.0266
2980.00,0.0287
2979.00,0.0311
2978.00,0.0338
2977.00,0.0369
2976.00,0.0404
2975.00,0.0446
2974.00,0.0493
2973.00,0.0547
2972.00,0.0608
2971.00,0.0677
2970.00,0.0753
2969.00,0.0837
2968.00,0.0929
2967.00,0.1030
2966.00,0.1138
2965.00,0.1250
2964.00,0.1366
2963.00,0.1479
2962.00,0.1583
2961.00,0.1675
2960.00,0.1748
2959.00,0.1804
2958.00,0.1845
2957.00,0.1875
2956.00,0.1901
2955.00,0.1930
2954.00,0.1962
2953.00,0.1996
2952.00,0.2027
2951.00,0.2044
2950.00,0.2039
2949.00,0.2004
2948.00,0.1933
2947.00,0.1830
2946.00,0.1703
2945.00,0.1565
2944.00,0.1430
2943.00,0.1310
2942.00,0.1212
2941.00,0.1140
2940.00,0.1094
2939.00,0.1072
2938.00,0.1071
2937.00,0.1089
2936.00,0.1124
2935.00,0.1175
2934.00,0.1239
2933.00,0.1315
2932.00,0.1401
2931.00,0.1495
2930.00,0.1594
2929.00,0.1695
2928.00,0.1793
2927.00,0.1888
2926.00,0.1977
2925.00,0.2061
2924.00,0.2140
2923.00,0.2218
2922.00,0.2293
2921.00,0.2364
2920.00,0.2427
2919.00,0.2476
2918.00,0.2503
2917.00,0.2504
2916.00,0.2477
2915.00,0.2425
2914.00,0.2356
2913.00,0.2278
2912.00,0.2199
2911.00,0.2124
2910.00,0.2055
2909.00,0.1993
2908.00,0.1934
2907.00,0.1877
2906.00,0.1818
2905.00,0.1756
2904.00,0.1690
2903.00,0.1622
2902.00,0.1552
2901.00,0.1482
2900.00,0.1413
2899.00,0.1348
2898.00,0.1286
2897.00,0.1231
2896.00,0.1182
2895.00,0.1140
2894.00,0.1106
2893.00,0.1079
2892.00,0.1059
2891.00,0.1045
2890.00,0.1038
2889.00,0.1035
2888.00,0.1037
2887.00,0.1042
2886.00,0.1051
2885.00,0.1063
2884.00,0.1080
2883.00,0.1100
2882.00,0.1124
2881.00,0.1150
2880.00,0.1175
2879.00,0.1196
2878.00,0.1209
2877.00,0.1213
2876.00,0.1208
2875.00,0.1200
2874.00,0.1192
2873.00,0.1188
2872.00,0.1192
2871.00,0.1203
2870.00,0.1219
2869.00,0.1236
2868.00,0.1246
2867.00,0.1240
2866.00,0.1213
2865.00,0.1161
2864.00,0.1087
2863.00,0.0999
2862.00,0.0907
2861.00,0.0820
2860.00,0.0745
2859.00,0.0684
2858.00,0.0638
2857.00,0.0605
2856.00,0.0584
2855.00,0.0572
2854.00,0.0568
2853.00,0.0572
2852.00,0.0583
2851.00,0.0601
2850.00,0.0624
2849.00,0.0655
2848.00,0.0692
2847.00,0.0737
2846.00,0.0791
2845.00,0.0854
2844.00,0.0926
2843.00,0.1004
2842.00,0.1085
2841.00,0.1162
2840.00,0.1227
2839.00,0.1270
2838.00,0.1283
2837.00,0.1259
2836.00,0.1199
2835.00,0.1109
2834.00,0.0999
2833.00,0.0882
2832.00,0.0770
2831.00,0.0670
2830.00,0.0585
2829.00,0.0516
2828.00,0.0461
2827.00,0.0416
2826.00,0.0379
2825.00,0.0349
2824.00,0.0324
2823.00,0.0302
2822.00,0.0284
2821.00,0.0268
2820.00,0.0254
2819.00,0.0243
2818.00,0.0232
2817.00,0.0223
2816.00,0.0215
2815.00,0.0208
2814.00,0.0201
2813.00,0.0195
2812.00,0.0190
2811.00,0.0185
2810.00,0.0180
2809.00,0.0174
2808.00,0.0169
2807.00,0.0162
2806.00,0.0156
2805.00,0.0149
2804.00,0.0143
2803.00,0.0136
2802.00,0.0131
2801.00,0.0127
2800.00,0.0123
2799.00,0.0120
2798.00,0.0118
2797.00,0.0115
2796.00,0.0113
2795.00,0.0110
2794.00,0.0107
2793.00,0.0104
2792.00,0.0101
2791.00,0.0098
2790.00,0.0095
2789.00,0.0092
2788.00,0.0088
2787.00,0.0085
2786.00,0.0082
2785.00,0.0079
2784.00,0.0076
2783.00,0.0074
2782.00,0.0071
2781.00,0.0069
2780.00,0.0067
2779.00,0.0066
2778.00,0.0064
2777.00,0.0063
2776.00,0.0062
2775.00,0.0061
2774.00,0.0060
2773.00,0.0059
2772.00,0.0059
2771.00,0.0059
2770.00,0.0058
2769.00,0.0058
2768.00,0.0057
2767.00,0.0057
2766.00,0.0057
2765.00,0.0056
2764.00,0.0056
2763.00,0.0056
2762.00,0.0055
2761.00,0.0054
2760.00,0.0054
2759.00,0.0053
2758.00,0.0053
2757.00,0.0053
2756.00,0.0053
2755.00,0.0053
2754.00,0.0053
2753.00,0.0053
2752.00,0.0053
2751.00,0.0053
2750.00,0.0053
2749.00,0.0053
2748.00,0.0053
2747.00,0.0054
2746.00,0.0054
2745.00,0.0054
2744.00,0.0055
2743.00,0.0055
2742.00,0.0056
2741.00,0.0058
2740.00,0.0059
2739.00,0.0060
2738.00,0.0062
2737.00,0.0063
2736.00,0.0065
2735.00,0.0067
2734.00,0.0068
2733.00,0.0070
2732.00,0.0072
2731.00,0.0073
2730.00,0.0076
2729.00,0.0078
2728.00,0.0081
2727.00,0.0083
2726.00,0.0086
2725.00,0.0089
2724.00,0.0090
2723.00,0.0091
2722.00,0.0090
2721.00,0.0087
2720.00,0.0085
2719.00,0.0081
2718.00,0.0077
2717.00,0.0074
2716.00,0.0071
2715.00,0.0068
2714.00,0.0066
2713.00,0.0064
2712.00,0.0062
2711.00,0.0060
2710.00,0.0058
2709.00,0.0057
2708.00,0.0056
2707.00,0.0055
2706.00,0.0054
2705.00,0.0053
2704.00,0.0052
2703.00,0.0051
2702.00,0.0050
2701.00,0.0049
2700.00,0.0049
2699.00,0.0048
2698.00,0.0047
2697.00,0.0047
2696.00,0.0046
2695.00,0.0046
2694.00,0.0047
2693.00,0.0046
2692.00,0.0046
2691.00,0.0046
2690.00,0.0046
2689.00,0.0046
2688.00,0.0046
2687.00,0.0046
2686.00,0.0046
2685.00,0.0046
2684.00,0.0047
2683.00,0.0047
2682.00,0.0047
2681.00,0.0047
2680.00,0.0047
2679.00,0.0047
2678.00,0.0047
2677.00,0.0047
2676.00,0.0046
2675.00,0.0046
2674.00,0.0046
2673.00,0.0046
2672.00,0.0046
2671.00,0.0046
2670.00,0.0046
2669.00,0.0046
2668.00,0.0046
2667.00,0.0046
2666.00,0.0046
2665.00,0.0047
2664.00,0.0047
2663.00,0.0048
2662.00,0.0048
2661.00,0.0049
2660.00,0.0049
2659.00,0.0049
2658.00,0.0049
2657.00,0.0049
2656.00,0.0048
2655.00,0.0048
2654.00,0.0047
2653.00,0.0046
2652.00,0.0045
2651.00,0.0044
2650.00,0.0044
2649.00,0.0044
2648.00,0.0043
2647.00,0.0043
2646.00,0.0043
2645.00,0.0043
2644.00,0.0042
2643.00,0.0042
2642.00,0.0041
2641.00,0.0041
2640.00,0.0040
2639.00,0.0040
2638.00,0.0040
2637.00,0.0040
2636.00,0.0039
2635.00,0.0039
2634.00,0.0039
2633.00,0.0039
2632.00,0.0040
2631.00,0.0040
2630.00,0.0040
2629.00,0.0040
2628.00,0.0040
2627.00,0.0040
2626.00,0.0040
2625.00,0.0040
2624.00,0.0041
2623.00,0.0041
2622.00,0.0041
2621.00,0.0041
2620.00,0.0041
2619.00,0.0041
2618.00,0.0041
2617.00,0.0040
2616.00,0.0040
2615.00,0.0040
2614.00,0.0040
2613.00,0.0040
2612.00,0.0039
2611.00,0.0039
2610.00,0.0039
2609.00,0.0038
2608.00,0.0037
2607.00,0.0036
2606.00,0.0035
2605.00,0.0034
2604.00,0.0034
2603.00,0.0033
2602.00,0.0033
2601.00,0.0033
2600.00,0.0033
2599.00,0.0033
2598.00,0.0033
2597.00,0.0032
2596.00,0.0032
2595.00,0.0033
2594.00,0.0033
2593.00,0.0034
2592.00,0.0034
2591.00,0.0033
2590.00,0.0033
2589.00,0.0034
2588.00,0.0035
2587.00,0.0036
2586.00,0.0038
2585.00,0.0039
2584.00,0.0039
2583.00,0.0039
2582.00,0.0039
2581.00,0.0039
2580.00,0.0039
2579.00,0.0039
2578.00,0.0039
2577.00,0.0038
2576.00,0.0037
2575.00,0.0035
2574.00,0.0034
2573.00,0.0032
2572.00,0.0031
2571.00,0.0030
2570.00,0.0030
2569.00,0.0029
2568.00,0.0027
2567.00,0.0027
2566.00,0.0026
2565.00,0.0026
2564.00,0.0026
2563.00,0.0026
2562.00,0.0026
2561.00,0.0025
2560.00,0.0024
2559.00,0.0024
2558.00,0.0023
2557.00,0.0023
2556.00,0.0023
2555.00,0.0023
2554.00,0.0023
2553.00,0.0023
2552.00,0.0022
2551.00,0.0022
2550.00,0.0022
2549.00,0.0022
2548.00,0.0021
2547.00,0.0020
2546.00,0.0020
2545.00,0.0019
2544.00,0.0019
2543.00,0.0018
2542.00,0.0018
2541.00,0.0017
2540.00,0.0017
2539.00,0.0018
2538.00,0.0018
2537.00,0.0019
2536.00,0.0019
2535.00,0.0018
2534.00,0.0017
2533.00,0.0016
2532.00,0.0015
2531.00,0.0015
2530.00,0.0014
2529.00,0.0014
2528.00,0.0014
2527.00,0.0014
2526.00,0.0014
2525.00,0.0014
2524.00,0.0014
2523.00,0.0014
2522.00,0.0013
2521.00,0.0013
2520.00,0.0013
2519.00,0.0013
2518.00,0.0013
2517.00,0.0012
2516.00,0.0012
2515.00,0.0012
2514.00,0.0012
2513.00,0.0012
2512.00,0.0012
2511.00,0.0012
2510.00,0.0012
2509.00,0.0012
2508.00,0.0012
2507.00,0.0011
2506.00,0.0011
2505.00,0.0011
2504.00,0.0011
2503.00,0.0011
2502.00,0.0012
2501.00,0.0012
2500.00,0.0012
2499.00,0.0012
2498.00,0.0011
2497.00,0.0011
2496.00,0.0011
2495.00,0.0011
2494.00,0.0011
2493.00,0.0011
2492.00,0.0011
2491.00,0.0012
2490.00,0.0012
2489.00,0.0012
2488.00,0.0012
2487.00,0.0012
2486.00,0.0012
2485.00,0.0011
2484.00,0.0011
2483.00,0.0010
2482.00,0.0010
2481.00,0.0010
2480.00,0.0010
2479.00,0.0010
2478.00,0.0010
2477.00,0.0010
2476.00,0.0011
2475.00,0.0011
2474.00,0.0011
2473.00,0.0011
2472.00,0.0010
2471.00,0.0010
2470.00,0.0010
2469.00,0.0010
2468.00,0.0009
2467.00,0.0008
2466.00,0.0008
2465.00,0.0008
2464.00,0.0008
2463.00,0.0008
2462.00,0.0009
2461.00,0.0009
2460.00,0.0010
2459.00,0.0010
2458.00,0.0010
2457.00,0.0011
2456.00,0.0011
2455.00,0.0011
2454.00,0.0012
2453.00,0.0012
2452.00,0.0012
2451.00,0.0012
2450.00,0.0011
2449.00,0.0012
2448.00,0.0012
2447.00,0.0012
2446.00,0.0012
2445.00,0.0012
2444.00,0.0012
2443.00,0.0012
2442.00,0.0012
2441.00,0.0012
2440.00,0.0012
2439.00,0.0012
2438.00,0.0012
2437.00,0.0011
2436.00,0.0011
2435.00,0.0011
2434.00,0.0012
2433.00,0.0012
2432.00,0.0012
2431.00,0.0012
2430.00,0.0012
2429.00,0.0013
2428.00,0.0013
2427.00,0.0013
2426.00,0.0013
2425.00,0.0013
2424.00,0.0012
2423.00,0.0012
2422.00,0.0011
2421.00,0.0011
2420.00,0.0012
2419.00,0.0012
2418.00,0.0012
2417.00,0.0012
2416.00,0.0011
2415.00,0.0011
2414.00,0.0012
2413.00,0.0012
2412.00,0.0012
2411.00,0.0011
2410.00,0.0011
2409.00,0.0010
2408.00,0.0010
2407.00,0.0009
2406.00,0.0009
2405.00,0.0009
2404.00,0.0009
2403.00,0.0010
2402.00,0.0010
2401.00,0.0010
2400.00,0.0010
2399.00,0.0010
2398.00,0.0010
2397.00,0.0009
2396.00,0.0009
2395.00,0.0009
2394.00,0.0009
2393.00,0.0009
2392.00,0.0009
2391.00,0.0009
2390.00,0.0009
2389.00,0.0008
2388.00,0.0008
2387.00,0.0007
2386.00,0.0007
2385.00,0.0007
2384.00,0.0007
2383.00,0.0007
2382.00,0.0007
2381.00,0.0007
2380.00,0.0007
2379.00,0.0006
2378.00,0.0006
2377.00,0.0006
2376.00,0.0006
2375.00,0.0007
2374.00,0.0007
2373.00,0.0007
2372.00,0.0006
2371.00,0.0006
2370.00,0.0005
2369.00,0.0005
2368.00,0.0004
2367.00,0.0003
2366.00,0.0003
2365.00,0.0004
2364.00,0.0005
2363.00,0.0006
2362.00,0.0006
2361.00,0.0006
2360.00,0.0006
2359.00,0.0006
2358.00,0.0006
2357.00,0.0007
2356.00,0.0008
2355.00,0.0008
2354.00,0.0008
2353.00,0.0007
2352.00,0.0006
2351.00,0.0006
2350.00,0.0006
2349.00,0.0007
2348.00,0.0007
2347.00,0.0007
2346.00,0.0007
2345.00,0.0008
2344.00,0.0008
2343.00,0.0009
2342.00,0.0009
2341.00,0.0009
2340.00,0.0009
2339.00,0.0009
2338.00,0.0009
2337.00,0.0009
2336.00,0.0009
2335.00,0.0009
2334.00,0.0009
2333.00,0.0009
2332.00,0.0008
2331.00,0.0007
2330.00,0.0007
2329.00,0.0007
2328.00,0.0009
2327.00,0.0012
2326.00,0.0016
2325.00,0.0019
2324.00,0.0021
2323.00,0.0021
2322.00,0.0020
2321.00,0.0018
2320.00,0.0017
2319.00,0.0016
2318.00,0.0015
2317.00,0.0014
2316.00,0.0014
2315.00,0.0013
2314.00,0.0012
2313.00,0.0011
2312.00,0.0011
2311.00,0.0010
2310.00,0.0009
2309.00,0.0009
2308.00,0.0009
2307.00,0.0009
2306.00,0.0009
2305.00,0.0010
2304.00,0.0010
2303.00,0.0010
2302.00,0.0011
2301.00,0.0011
2300.00,0.0011
2299.00,0.0011
2298.00,0.0012
2297.00,0.0012
2296.00,0.0013
2295.00,0.0014
2294.00,0.0015
2293.00,0.0015
2292.00,0.0016
2291.00,0.0016
2290.00,0.0017
2289.00,0.0018
2288.00,0.0019
2287.00,0.0020
2286.00,0.0020
2285.00,0.0019
2284.00,0.0018
2283.00,0.0017
2282.00,0.0017
2281.00,0.0017
2280.00,0.0017
2279.00,0.0016
2278.00,0.0016
2277.00,0.0015
2276.00,0.0015
2275.00,0.0015
2274.00,0.0016
2273.00,0.0015
2272.00,0.0015
2271.00,0.0014
2270.00,0.0013
2269.00,0.0013
2268.00,0.0014
2267.00,0.0014
2266.00,0.0015
2265.00,0.0016
2264.00,0.0017
2263.00,0.0016
2262.00,0.0015
2261.00,0.0014
2260.00,0.0015
2259.00,0.0016
2258.00,0.0017
2257.00,0.0017
2256.00,0.0016
2255.00,0.0014
2254.00,0.0011
2253.00,0.0010
2252.00,0.0009
2251.00,0.0009
2250.00,0.0009
2249.00,0.0008
2248.00,0.0007
2247.00,0.0007
2246.00,0.0008
2245.00,0.0009
2244.00,0.0010
2243.00,0.0010
2242.00,0.0010
2241.00,0.0010
2240.00,0.0010
2239.00,0.0010
2238.00,0.0009
2237.00,0.0010
2236.00,0.0010
2235.00,0.0011
2234.00,0.0010
2233.00,0.0009
2232.00,0.0007
2231.00,0.0006
2230.00,0.0006
2229.00,0.0007
2228.00,0.0007
2227.00,0.0008
2226.00,0.0007
2225.00,0.0006
2224.00,0.0005
2223.00,0.0005
2222.00,0.0006
2221.00,0.0007
2220.00,0.0007
2219.00,0.0007
2218.00,0.0006
2217.00,0.0006
2216.00,0.0006
2215.00,0.0006
2214.00,0.0005
2213.00,0.0004
2212.00,0.0003
2211.00,0.0003
2210.00,0.0003
2209.00,0.0005
2208.00,0.0006
2207.00,0.0007
2206.00,0.0007
2205.00,0.0008
2204.00,0.0010
2203.00,0.0011
2202.00,0.0011
2201.00,0.0010
2200.00,0.0009
2199.00,0.0009
2198.00,0.0009
2197.00,0.0010
2196.00,0.0009
2195.00,0.0007
2194.00,0.0006
2193.00,0.0007
2192.00,0.0010
2191.00,0.0012
2190.00,0.0013
2189.00,0.0013
2188.00,0.0012
2187.00,0.0011
2186.00,0.0010
2185.00,0.0010
2184.00,0.0009
2183.00,0.0008
2182.00,0.0007
2181.00,0.0007
2180.00,0.0008
2179.00,0.0010
2178.00,0.0011
2177.00,0.0010
2176.00,0.0007
2175.00,0.0004
2174.00,0.0003
2173.00,0.0003
2172.00,0.0003
2171.00,0.0003
2170.00,0.0003
2169.00,0.0005
2168.00,0.0008
2167.00,0.0013
2166.00,0.0016
2165.00,0.0018
2164.00,0.0020
2163.00,0.0021
2162.00,0.0022
2161.00,0.0019
2160.00,0.0011
2159.00,-0.0001
2158.00,-0.0013
2157.00,-0.0019
2156.00,-0.0021
2155.00,-0.0020
2154.00,-0.0019
2153.00,-0.0019
2152.00,-0.0019
2151.00,-0.0020
2150.00,-0.0020
2149.00,-0.0019
2148.00,-0.0018
2147.00,-0.0017
2146.00,-0.0017
2145.00,-0.0015
2144.00,-0.0014
2143.00,-0.0012
2142.00,-0.0012
2141.00,-0.0011
2140.00,-0.0011
2139.00,-0.0010
2138.00,-0.0010
2137.00,-0.0010
2136.00,-0.0011
2135.00,-0.0012
2134.00,-0.0014
2133.00,-0.0014
2132.00,-0.0014
2131.00,-0.0013
2130.00,-0.0010
2129.00,-0.0007
2128.00,-0.0006
2127.00,-0.0006
2126.00,-0.0007
2125.00,-0.0008
2124.00,-0.0009
2123.00,-0.0009
2122.00,-0.0009
2121.00,-0.0008
2120.00,-0.0007
2119.00,-0.0006
2118.00,-0.0004
2117.00,-0.0002
2116.00,0.0001
2115.00,0.0003
2114.00,0.0004
2113.00,0.0004
2112.00,0.0004
2111.00,0.0003
2110.00,0.0003
2109.00,0.0002
2108.00,0.0003
2107.00,0.0003
2106.00,0.0003
2105.00,0.0004
2104.00,0.0003
2103.00,0.0002
2102.00,0.0001
2101.00,0.0001
2100.00,0.0001
2099.00,0.0001
2098.00,-0.0000
2097.00,-0.0002
2096.00,-0.0002
2095.00,-0.0002
2094.00,-0.0001
2093.00,-0.0001
2092.00,-0.0001
2091.00,-0.0002
2090.00,-0.0002
2089.00,-0.0001
2088.00,0.0000
2087.00,0.0001
2086.00,0.0001
2085.00,0.0001
2084.00,0.0001
2083.00,0.0002
2082.00,0.0002
2081.00,0.0002
2080.00,0.0003
2079.00,0.0004
2078.00,0.0004
2077.00,0.0003
2076.00,0.0003
2075.00,0.0003
2074.00,0.0004
2073.00,0.0004
2072.00,0.0005
2071.00,0.0004
2070.00,0.0003
2069.00,0.0002
2068.00,0.0001
2067.00,-0.0001
2066.00,-0.0002
2065.00,-0.0002
2064.00,-0.0001
2063.00,-0.0001
2062.00,-0.0002
2061.00,-0.0002
2060.00,-0.0002
2059.00,-0.0001
2058.00,0.0000
2057.00,0.0000
2056.00,-0.0001
2055.00,-0.0002
2054.00,-0.0000
2053.00,0.0004
2052.00,0.0010
2051.00,0.0013
2050.00,0.0013
2049.00,0.0010
2048.00,0.0008
2047.00,0.0007
2046.00,0.0006
2045.00,0.0005
2044.00,0.0004
2043.00,0.0004
2042.00,0.0005
2041.00,0.0005
2040.00,0.0005
2039.00,0.0004
2038.00,0.0002
2037.00,0.0000
2036.00,-0.0002
2035.00,-0.0003
2034.00,-0.0004
2033.00,-0.0005
2032.00,-0.0004
2031.00,-0.0004
2030.00,-0.0003
2029.00,-0.0001
2028.00,0.0001
2027.00,0.0003
2026.00,0.0003
2025.00,0.0001
2024.00,-0.0002
2023.00,-0.0006
2022.00,-0.0010
2021.00,-0.0013
2020.00,-0.0014
2019.00,-0.0014
2018.00,-0.0013
2017.00,-0.0012
2016.00,-0.0011
2015.00,-0.0011
2014.00,-0.0011
2013.00,-0.0009
2012.00,-0.0007
2011.00,-0.0006
2010.00,-0.0006
2009.00,-0.0008
2008.00,-0.0010
2007.00,-0.0013
2006.00,-0.0014
2005.00,-0.0014
2004.00,-0.0014
2003.00,-0.0012
2002.00,-0.0011
2001.00,-0.0010
2000.00,-0.0012
1999.00,-0.0014
1998.00,-0.0016
1997.00,-0.0016
1996.00,-0.0015
1995.00,-0.0012
1994.00,-0.0010
1993.00,-0.0007
1992.00,-0.0005
1991.00,-0.0002
1990.00,0.0000
1989.00,0.0001
1988.00,-0.0000
1987.00,-0.0002
1986.00,-0.0003
1985.00,-0.0002
1984.00,0.0002
1983.00,0.0006
1982.00,0.0011
1981.00,0.0015
1980.00,0.0014
1979.00,0.0009
1978.00,0.0002
1977.00,-0.0003
1976.00,-0.0005
1975.00,-0.0008
1974.00,-0.0012
1973.00,-0.0017
1972.00,-0.0020
1971.00,-0.0020
1970.00,-0.0017
1969.00,-0.0012
1968.00,-0.0008
1967.00,-0.0006
1966.00,-0.0007
1965.00,-0.0010
1964.00,-0.0012
1963.00,-0.0015
1962.00,-0.0016
1961.00,-0.0017
1960.00,-0.0018
1959.00,-0.0018
1958.00,-0.0019
1957.00,-0.0021
1956.00,-0.0021
1955.00,-0.0020
1954.00,-0.0019
1953.00,-0.0018
1952.00,-0.0017
1951.00,-0.0017
1950.00,-0.0017
1949.00,-0.0016
1948.00,-0.0016
1947.00,-0.0017
1946.00,-0.0018
1945.00,-0.0018
1944.00,-0.0015
1943.00,-0.0012
1942.00,-0.0010
1941.00,-0.0010
1940.00,-0.0010
1939.00,-0.0011
1938.00,-0.0012
1937.00,-0.0011
1936.00,-0.0010
1935.00,-0.0010
1934.00,-0.0011
1933.00,-0.0012
1932.00,-0.0011
1931.00,-0.0009
1930.00,-0.0008
1929.00,-0.0008
1928.00,-0.0008
1927.00,-0.0008
1926.00,-0.0007
1925.00,-0.0007
1924.00,-0.0006
1923.00,-0.0005
1922.00,-0.0004
1921.00,-0.0004
1920.00,-0.0005
1919.00,-0.0005
1918.00,-0.0005
1917.00,-0.0004
1916.00,-0.0003
1915.00,-0.0003
1914.00,-0.0002
1913.00,-0.0002
1912.00,-0.0001
1911.00,-0.0001
1910.00,-0.0001
1909.00,-0.0001
1908.00,-0.0000
1907.00,0.0000
1906.00,0.0001
1905.00,0.0000
1904.00,-0.0001
1903.00,-0.0002
1902.00,-0.0002
1901.00,-0.0002
1900.00,-0.0002
1899.00,-0.0002
1898.00,-0.0001
1897.00,-0.0001
1896.00,-0.0001
1895.00,-0.0000
1894.00,0.0000
1893.00,0.0001
1892.00,0.0001
1891.00,0.0000
1890.00,-0.0001
1889.00,-0.0002
1888.00,-0.0002
1887.00,-0.0003
1886.00,-0.0002
1885.00,-0.0002
1884.00,-0.0002
1883.00,-0.0002
1882.00,-0.0003
1881.00,-0.0002
1880.00,-0.0002
1879.00,-0.0001
1878.00,0.0000
1877.00,0.0000
1876.00,-0.0001
1875.00,-0.0001
1874.00,-0.0002
1873.00,-0.0002
1872.00,-0.0001
1871.00,-0.0001
1870.00,0.0000
1869.00,0.0001
1868.00,0.0001
1867.00,0.0000
1866.00,0.0000
1865.00,0.0001
1864.00,0.0001
1863.00,0.0002
1862.00,0.0002
1861.00,0.0003
1860.00,0.0003
1859.00,0.0003
1858.00,0.0002
1857.00,0.0002
1856.00,0.0001
1855.00,0.0001
1854.00,0.0002
1853.00,0.0002
1852.00,0.0003
1851.00,0.0003
1850.00,0.0002
1849.00,0.0002
1848.00,0.0003
1847.00,0.0004
1846.00,0.0005
1845.00,0.0005
1844.00,0.0006
1843.00,0.0005
1842.00,0.0004
1841.00,0.0004
1840.00,0.0003
1839.00,0.0002
1838.00,0.0002
1837.00,0.0001
1836.00,0.0001
1835.00,0.0002
1834.00,0.0003
1833.00,0.0004
1832.00,0.0005
1831.00,0.0005
1830.00,0.0006
1829.00,0.0005
1828.00,0.0005
1827.00,0.0004
1826.00,0.0004
1825.00,0.0004
1824.00,0.0005
1823.00,0.0005
1822.00,0.0005
1821.00,0.0005
1820.00,0.0005
1819.00,0.0004
1818.00,0.0002
1817.00,0.0001
1816.00,0.0001
1815.00,0.0002
1814.00,0.0002
1813.00,0.0003
1812.00,0.0003
1811.00,0.0003
1810.00,0.0004
1809.00,0.0004
1808.00,0.0004
1807.00,0.0004
1806.00,0.0004
1805.00,0.0004
1804.00,0.0004
1803.00,0.0004
1802.00,0.0004
1801.00,0.0005
1800.00,0.0006
1799.00,0.0007
1798.00,0.0007
1797.00,0.0007
1796.00,0.0008
1795.00,0.0008
1794.00,0.0009
1793.00,0.0009
1792.00,0.0008
1791.00,0.0008
1790.00,0.0007
1789.00,0.0007
1788.00,0.0008
1787.00,0.0008
1786.00,0.0008
1785.00,0.0008
1784.00,0.0009
1783.00,0.0009
1782.00,0.0009
1781.00,0.0009
1780.00,0.0009
1779.00,0.0010
1778.00,0.0010
1777.00,0.0010
1776.00,0.0010
1775.00,0.0009
1774.00,0.0009
1773.00,0.0009
1772.00,0.0010
1771.00,0.0010
1770.00,0.0011
1769.00,0.0010
1768.00,0.0010
1767.00,0.0010
1766.00,0.0010
1765.00,0.0010
1764.00,0.0011
1763.00,0.0011
1762.00,0.0011
1761.00,0.0012
1760.00,0.0012
1759.00,0.0013
1758.00,0.0013
1757.00,0.0014
1756.00,0.0015
1755.00,0.0015
1754.00,0.0016
1753.00,0.0017
1752.00,0.0018
1751.00,0.0018
1750.00,0.0018
1749.00,0.0018
1748.00,0.0018
1747.00,0.0019
1746.00,0.0019
1745.00,0.0019
1744.00,0.0019
1743.00,0.0019
1742.00,0.0020
1741.00,0.0020
1740.00,0.0021
1739.00,0.0021
1738.00,0.0021
1737.00,0.0022
1736.00,0.0022
1735.00,0.0023
1734.00,0.0022
1733.00,0.0022
1732.00,0.0021
1731.00,0.0021
1730.00,0.0021
1729.00,0.0021
1728.00,0.0021
1727.00,0.0021
1726.00,0.0021
1725.00,0.0021
1724.00,0.0021
1723.00,0.0021
1722.00,0.0021
1721.00,0.0021
1720.00,0.0021
1719.00,0.0021
1718.00,0.0021
1717.00,0.0022
1716.00,0.0023
1715.00,0.0023
1714.00,0.0023
1713.00,0.0023
1712.00,0.0023
1711.00,0.0023
1710.00,0.0023
1709.00,0.0024
1708.00,0.0024
1707.00,0.0024
1706.00,0.0025
1705.00,0.0025
1704.00,0.0026
1703.00,0.0027
1702.00,0.0027
1701.00,0.0028
1700.00,0.0029
1699.00,0.0029
1698.00,0.0029
1697.00,0.0030
1696.00,0.0031
1695.00,0.0032
1694.00,0.0032
1693.00,0.0033
1692.00,0.0033
1691.00,0.0033
1690.00,0.0034
1689.00,0.0034
1688.00,0.0035
1687.00,0.0035
1686.00,0.0035
1685.00,0.0035
1684.00,0.0036
1683.00,0.0037
1682.00,0.0038
1681.00,0.0039
1680.00,0.0040
1679.00,0.0041
1678.00,0.0041
1677.00,0.0042
1676.00,0.0042
1675.00,0.0043
1674.00,0.0044
1673.00,0.0045
1672.00,0.0046
1671.00,0.0046
1670.00,0.0046
1669.00,0.0046
1668.00,0.0046
1667.00,0.0047
1666.00,0.0048
1665.00,0.0048
1664.00,0.0049
1663.00,0.0050
1662.00,0.0051
1661.00,0.0051
1660.00,0.0052
1659.00,0.0052
1658.00,0.0053
1657.00,0.0053
1656.00,0.0054
1655.00,0.0055
1654.00,0.0056
1653.00,0.0057
1652.00,0.0058
1651.00,0.0059
1650.00,0.0059
1649.00,0.0060
1648.00,0.0061
1647.00,0.0063
1646.00,0.0065
1645.00,0.0065
1644.00,0.0065
1643.00,0.0064
1642.00,0.0064
1641.00,0.0064
1640.00,0.0064
1639.00,0.0064
1638.00,0.0064
1637.00,0.0063
1636.00,0.0063
1635.00,0.0063
1634.00,0.0063
1633.00,0.0063
1632.00,0.0064
1631.00,0.0064
1630.00,0.0063
1629.00,0.0062
1628.00,0.0062
1627.00,0.0061
1626.00,0.0061
1625.00,0.0061
1624.00,0.0061
1623.00,0.0061
1622.00,0.0060
1621.00,0.0060
1620.00,0.0059
1619.00,0.0058
1618.00,0.0057
1617.00,0.0057
1616.00,0.0057
1615.00,0.0058
1614.00,0.0058
1613.00,0.0058
1612.00,0.0058
1611.00,0.0059
1610.00,0.0058
1609.00,0.0058
1608.00,0.0057
1607.00,0.0057
1606.00,0.0057
1605.00,0.0057
1604.00,0.0057
1603.00,0.0057
1602.00,0.0057
1601.00,0.0057
1600.00,0.0057
1599.00,0.0057
1598.00,0.0057
1597.00,0.0057
1596.00,0.0057
1595.00,0.0056
1594.00,0.0056
1593.00,0.0056
1592.00,0.0057
1591.00,0.0057
1590.00,0.0057
1589.00,0.0057
1588.00,0.0058
1587.00,0.0059
1586.00,0.0061
1585.00,0.0062
1584.00,0.0063
1583.00,0.0064
1582.00,0.0066
1581.00,0.0067
1580.00,0.0068
1579.00,0.0068
1578.00,0.0068
1577.00,0.0068
1576.00,0.0067
1575.00,0.0067
1574.00,0.0066
1573.00,0.0065
1572.00,0.0065
1571.00,0.0065
1570.00,0.0064
1569.00,0.0064
1568.00,0.0063
1567.00,0.0062
1566.00,0.0062
1565.00,0.0061
1564.00,0.0061
1563.00,0.0061
1562.00,0.0061
1561.00,0.0061
1560.00,0.0062
1559.00,0.0062
1558.00,0.0062
1557.00,0.0063
1556.00,0.0064
1555.00,0.0064
1554.00,0.0065
1553.00,0.0065
1552.00,0.0066
1551.00,0.0068
1550.00,0.0069
1549.00,0.0071
1548.00,0.0073
1547.00,0.0074
1546.00,0.0076
1545.00,0.0078
1544.00,0.0081
1543.00,0.0083
1542.00,0.0084
1541.00,0.0085
1540.00,0.0083
1539.00,0.0079
1538.00,0.0076
1537.00,0.0075
1536.00,0.0074
1535.00,0.0072
1534.00,0.0069
1533.00,0.0067
1532.00,0.0064
1531.00,0.0063
1530.00,0.0062
1529.00,0.0062
1528.00,0.0061
1527.00,0.0060
1526.00,0.0059
1525.00,0.0058
1524.00,0.0058
1523.00,0.0057
1522.00,0.0057
1521.00,0.0057
1520.00,0.0057
1519.00,0.0057
1518.00,0.0057
1517.00,0.0058
1516.00,0.0059
1515.00,0.0059
1514.00,0.0059
1513.00,0.0059
1512.00,0.0060
1511.00,0.0060
1510.00,0.0060
1509.00,0.0061
1508.00,0.0063
1507.00,0.0064
1506.00,0.0064
1505.00,0.0065
1504.00,0.0067
1503.00,0.0068
1502.00,0.0069
1501.00,0.0071
1500.00,0.0074
1499.00,0.0076
1498.00,0.0078
1497.00,0.0082
1496.00,0.0086
1495.00,0.0089
1494.00,0.0091
1493.00,0.0094
1492.00,0.0097
1491.00,0.0100
1490.00,0.0103
1489.00,0.0108
1488.00,0.0113
1487.00,0.0117
1486.00,0.0122
1485.00,0.0128
1484.00,0.0135
1483.00,0.0142
1482.00,0.0151
1481.00,0.0162
1480.00,0.0174
1479.00,0.0186
1478.00,0.0201
1477.00,0.0220
1476.00,0.0243
1475.00,0.0269
1474.00,0.0305
1473.00,0.0358
1472.00,0.0421
1471.00,0.0483
1470.00,0.0543
1469.00,0.0606
1468.00,0.0675
1467.00,0.0752
1466.00,0.0840
1465.00,0.0936
1464.00,0.1022
1463.00,0.1086
1462.00,0.1130
1461.00,0.1163
1460.00,0.1188
1459.00,0.1206
1458.00,0.1225
1457.00,0.1245
1456.00,0.1257
1455.00,0.1260
1454.00,0.1257
1453.00,0.1249
1452.00,0.1229
1451.00,0.1196
1450.00,0.1144
1449.00,0.1068
1448.00,0.0969
1447.00,0.0863
1446.00,0.0768
1445.00,0.0686
1444.00,0.0616
1443.00,0.0559
1442.00,0.0516
1441.00,0.0487
1440.00,0.0469
1439.00,0.0460
1438.00,0.0458
1437.00,0.0456
1436.00,0.0442
1435.00,0.0414
1434.00,0.0375
1433.00,0.0329
1432.00,0.0282
1431.00,0.0241
1430.00,0.0210
1429.00,0.0187
1428.00,0.0171
1427.00,0.0162
1426.00,0.0156
1425.00,0.0151
1424.00,0.0146
1423.00,0.0142
1422.00,0.0141
1421.00,0.0138
1420.00,0.0135
1419.00,0.0132
1418.00,0.0131
1417.00,0.0128
1416.00,0.0126
1415.00,0.0125
1414.00,0.0124
1413.00,0.0123
1412.00,0.0121
1411.00,0.0121
1410.00,0.0121
1409.00,0.0120
1408.00,0.0119
1407.00,0.0119
1406.00,0.0120
1405.00,0.0121
1404.00,0.0121
1403.00,0.0122
1402.00,0.0125
1401.00,0.0126
1400.00,0.0128
1399.00,0.0130
1398.00,0.0133
1397.00,0.0136
1396.00,0.0139
1395.00,0.0143
1394.00,0.0149
1393.00,0.0155
1392.00,0.0162
1391.00,0.0171
1390.00,0.0184
1389.00,0.0202
1388.00,0.0229
1387.00,0.0269
1386.00,0.0321
1385.00,0.0387
1384.00,0.0474
1383.00,0.0589
1382.00,0.0738
1381.00,0.0925
1380.00,0.1152
1379.00,0.1405
1378.00,0.1648
1377.00,0.1826
1376.00,0.1887
1375.00,0.1799
1374.00,0.1585
1373.00,0.1321
1372.00,0.1075
1371.00,0.0869
1370.00,0.0702
1369.00,0.0574
1368.00,0.0485
1367.00,0.0429
1366.00,0.0399
1365.00,0.0386
1364.00,0.0388
1363.00,0.0401
1362.00,0.0422
1361.00,0.0444
1360.00,0.0460
1359.00,0.0464
1358.00,0.0453
1357.00,0.0427
1356.00,0.0389
1355.00,0.0347
1354.00,0.0306
1353.00,0.0270
1352.00,0.0242
1351.00,0.0218
1350.00,0.0199
1349.00,0.0184
1348.00,0.0172
1347.00,0.0162
1346.00,0.0155
1345.00,0.0149
1344.00,0.0144
1343.00,0.0140
1342.00,0.0137
1341.00,0.0134
1340.00,0.0131
1339.00,0.0129
1338.00,0.0128
1337.00,0.0127
1336.00,0.0128
1335.00,0.0130
1334.00,0.0132
1333.00,0.0136
1332.00,0.0140
1331.00,0.0144
1330.00,0.0145
1329.00,0.0144
1328.00,0.0140
1327.00,0.0135
1326.00,0.0129
1325.00,0.0123
1324.00,0.0116
1323.00,0.0111
1322.00,0.0106
1321.00,0.0103
1320.00,0.0100
1319.00,0.0097
1318.00,0.0095
1317.00,0.0094
1316.00,0.0092
1315.00,0.0091
1314.00,0.0090
1313.00,0.0091
1312.00,0.0092
1311.00,0.0095
1310.00,0.0100
1309.00,0.0109
1308.00,0.0120
1307.00,0.0135
1306.00,0.0149
1305.00,0.0159
1304.00,0.0162
1303.00,0.0158
1302.00,0.0151
1301.00,0.0144
1300.00,0.0139
1299.00,0.0137
1298.00,0.0137
1297.00,0.0136
1296.00,0.0134
1295.00,0.0131
1294.00,0.0126
1293.00,0.0121
1292.00,0.0115
1291.00,0.0109
1290.00,0.0105
1289.00,0.0101
1288.00,0.0098
1287.00,0.0095
1286.00,0.0092
1285.00,0.0090
1284.00,0.0087
1283.00,0.0086
1282.00,0.0085
1281.00,0.0084
1280.00,0.0083
1279.00,0.0082
1278.00,0.0082
1277.00,0.0081
1276.00,0.0081
1275.00,0.0081
1274.00,0.0082
1273.00,0.0082
1272.00,0.0083
1271.00,0.0084
1270.00,0.0085
1269.00,0.0086
1268.00,0.0088
1267.00,0.0090
1266.00,0.0092
1265.00,0.0095
1264.00,0.0098
1263.00,0.0102
1262.00,0.0107
1261.00,0.0113
1260.00,0.0121
1259.00,0.0131
1258.00,0.0141
1257.00,0.0149
1256.00,0.0153
1255.00,0.0151
1254.00,0.0144
1253.00,0.0134
1252.00,0.0124
1251.00,0.0115
1250.00,0.0109
1249.00,0.0104
1248.00,0.0101
1247.00,0.0100
1246.00,0.0098
1245.00,0.0097
1244.00,0.0096
1243.00,0.0095
1242.00,0.0095
1241.00,0.0094
1240.00,0.0093
1239.00,0.0092
1238.00,0.0091
1237.00,0.0090
1236.00,0.0089
1235.00,0.0088
1234.00,0.0088
1233.00,0.0087
1232.00,0.0087
1231.00,0.0087
1230.00,0.0087
1229.00,0.0087
1228.00,0.0088
1227.00,0.0089
1226.00,0.0090
1225.00,0.0092
1224.00,0.0095
1223.00,0.0099
1222.00,0.0102
1221.00,0.0104
1220.00,0.0105
1219.00,0.0106
1218.00,0.0105
1217.00,0.0103
1216.00,0.0100
1215.00,0.0098
1214.00,0.0095
1213.00,0.0092
1212.00,0.0090
1211.00,0.0088
1210.00,0.0086
1209.00,0.0084
1208.00,0.0082
1207.00,0.0081
1206.00,0.0080
1205.00,0.0080
1204.00,0.0079
1203.00,0.0078
1202.00,0.0077
1201.00,0.0077
1200.00,0.0078
1199.00,0.0078
1198.00,0.0079
1197.00,0.0079
1196.00,0.0079
1195.00,0.0079
1194.00,0.0079
1193.00,0.0080
1192.00,0.0080
1191.00,0.0080
1190.00,0.0081
1189.00,0.0082
1188.00,0.0083
1187.00,0.0084
1186.00,0.0085
1185.00,0.0086
1184.00,0.0088
1183.00,0.0089
1182.00,0.0092
1181.00,0.0095
1180.00,0.0100
1179.00,0.0106
1178.00,0.0115
1177.00,0.0126
1176.00,0.0140
1175.00,0.0159
1174.00,0.0184
1173.00,0.0216
1172.00,0.0253
1171.00,0.0294
1170.00,0.0334
1169.00,0.0367
1168.00,0.0388
1167.00,0.0394
1166.00,0.0386
1165.00,0.0368
1164.00,0.0345
1163.00,0.0322
1162.00,0.0300
1161.00,0.0281
1160.00,0.0266
1159.00,0.0253
1158.00,0.0244
1157.00,0.0237
1156.00,0.0232
1155.00,0.0228
1154.00,0.0224
1153.00,0.0219
1152.00,0.0213
1151.00,0.0206
1150.00,0.0197
1149.00,0.0187
1148.00,0.0177
1147.00,0.0167
1146.00,0.0157
1145.00,0.0149
1144.00,0.0141
1143.00,0.0134
1142.00,0.0128
1141.00,0.0122
1140.00,0.0117
1139.00,0.0112
1138.00,0.0108
1137.00,0.0105
1136.00,0.0102
1135.00,0.0099
1134.00,0.0097
1133.00,0.0095
1132.00,0.0093
1131.00,0.0092
1130.00,0.0092
1129.00,0.0093
1128.00,0.0094
1127.00,0.0096
1126.00,0.0097
1125.00,0.0097
1124.00,0.0096
1123.00,0.0095
1122.00,0.0095
1121.00,0.0095
1120.00,0.0096
1119.00,0.0097
1118.00,0.0099
1117.00,0.0099
1116.00,0.0100
1115.00,0.0101
1114.00,0.0102
1113.00,0.0104
1112.00,0.0106
1111.00,0.0110
1110.00,0.0114
1109.00,0.0118
1108.00,0.0124
1107.00,0.0131
1106.00,0.0138
1105.00,0.0145
1104.00,0.0151
1103.00,0.0154
1102.00,0.0154
1101.00,0.0151
1100.00,0.0146
1099.00,0.0140
1098.00,0.0134
1097.00,0.0128
1096.00,0.0124
1095.00,0.0120
1094.00,0.0117
1093.00,0.0114
1092.00,0.0111
1091.00,0.0108
1090.00,0.0106
1089.00,0.0105
1088.00,0.0104
1087.00,0.0104
1086.00,0.0102
1085.00,0.0101
1084.00,0.0100
1083.00,0.0099
1082.00,0.0098
1081.00,0.0097
1080.00,0.0095
1079.00,0.0094
1078.00,0.0093
1077.00,0.0092
1076.00,0.0092
1075.00,0.0091
1074.00,0.0092
1073.00,0.0093
1072.00,0.0093
1071.00,0.0093
1070.00,0.0092
1069.00,0.0091
1068.00,0.0090
1067.00,0.0090
1066.00,0.0091
1065.00,0.0092
1064.00,0.0092
1063.00,0.0092
1062.00,0.0093
1061.00,0.0093
1060.00,0.0093
1059.00,0.0094
1058.00,0.0094
1057.00,0.0095
1056.00,0.0096
1055.00,0.0096
1054.00,0.0096
1053.00,0.0097
1052.00,0.0098
1051.00,0.0100
1050.00,0.0103
1049.00,0.0106
1048.00,0.0110
1047.00,0.0113
1046.00,0.0116
1045.00,0.0117
1044.00,0.0117
1043.00,0.0116
1042.00,0.0114
1041.00,0.0111
1040.00,0.0109
1039.00,0.0108
1038.00,0.0107
1037.00,0.0107
1036.00,0.0106
1035.00,0.0106
1034.00,0.0105
1033.00,0.0104
1032.00,0.0103
1031.00,0.0103
1030.00,0.0102
1029.00,0.0101
1028.00,0.0100
1027.00,0.0099
1026.00,0.0099
1025.00,0.0099
1024.00,0.0099
1023.00,0.0099
1022.00,0.0101
1021.00,0.0102
1020.00,0.0103
1019.00,0.0105
1018.00,0.0106
1017.00,0.0108
1016.00,0.0110
1015.00,0.0113
1014.00,0.0117
1013.00,0.0121
1012.00,0.0125
1011.00,0.0130
1010.00,0.0134
1009.00,0.0138
1008.00,0.0143
1007.00,0.0150
1006.00,0.0160
1005.00,0.0175
1004.00,0.0196
1003.00,0.0223
1002.00,0.0259
1001.00,0.0302
1000.00,0.0349
999.00,0.0390
998.00,0.0411
997.00,0.0407
996.00,0.0377
995.00,0.0330
994.00,0.0279
993.00,0.0234
992.00,0.0198
991.00,0.0172
990.00,0.0153
989.00,0.0140
988.00,0.0132
987.00,0.0128
986.00,0.0127
985.00,0.0128
984.00,0.0132
983.00,0.0140
982.00,0.0153
981.00,0.0171
980.00,0.0197
979.00,0.0230
978.00,0.0271
977.00,0.0322
976.00,0.0378
975.00,0.0434
974.00,0.0480
973.00,0.0501
972.00,0.0491
971.00,0.0451
970.00,0.0391
969.00,0.0326
968.00,0.0269
967.00,0.0223
966.00,0.0190
965.00,0.0166
964.00,0.0149
963.00,0.0137
962.00,0.0127
961.00,0.0119
960.00,0.0113
959.00,0.0108
958.00,0.0104
957.00,0.0101
956.00,0.0098
955.00,0.0096
954.00,0.0094
953.00,0.0093
952.00,0.0091
951.00,0.0090
950.00,0.0089
949.00,0.0088
948.00,0.0089
947.00,0.0090
946.00,0.0092
945.00,0.0094
944.00,0.0096
943.00,0.0100
942.00,0.0103
941.00,0.0104
940.00,0.0104
939.00,0.0101
938.00,0.0096
937.00,0.0089
936.00,0.0083
935.00,0.0078
934.00,0.0074
933.00,0.0071
932.00,0.0068
931.00,0.0066
930.00,0.0065
929.00,0.0065
928.00,0.0065
927.00,0.0065
926.00,0.0065
925.00,0.0065
924.00,0.0066
923.00,0.0067
922.00,0.0067
921.00,0.0068
920.00,0.0068
919.00,0.0069
918.00,0.0070
917.00,0.0071
916.00,0.0072
915.00,0.0073
914.00,0.0073
913.00,0.0072
912.00,0.0072
911.00,0.0073
910.00,0.0075
909.00,0.0077
908.00,0.0080
907.00,0.0085
906.00,0.0093
905.00,0.0104
904.00,0.0119
903.00,0.0136
902.00,0.0155
901.00,0.0172
900.00,0.0183
899.00,0.0186
898.00,0.0179
897.00,0.0164
896.00,0.0146
895.00,0.0129
894.00,0.0115
893.00,0.0103
892.00,0.0095
891.00,0.0089
890.00,0.0085
889.00,0.0082
888.00,0.0079
887.00,0.0076
886.00,0.0074
885.00,0.0073
884.00,0.0072
883.00,0.0073
882.00,0.0074
881.00,0.0074
880.00,0.0075
879.00,0.0075
878.00,0.0074
877.00,0.0074
876.00,0.0073
875.00,0.0073
874.00,0.0072
873.00,0.0072
872.00,0.0073
871.00,0.0073
870.00,0.0073
869.00,0.0074
868.00,0.0074
867.00,0.0075
866.00,0.0076
865.00,0.0077
864.00,0.0079
863.00,0.0082
862.00,0.0084
861.00,0.0085
860.00,0.0086
859.00,0.0087
858.00,0.0088
857.00,0.0089
856.00,0.0092
855.00,0.0095
854.00,0.0098
853.00,0.0100
852.00,0.0103
851.00,0.0108
850.00,0.0116
849.00,0.0125
848.00,0.0138
847.00,0.0157
846.00,0.0185
845.00,0.0226
844.00,0.0282
843.00,0.0343
842.00,0.0391
841.00,0.0407
840.00,0.0382
839.00,0.0329
838.00,0.0271
837.00,0.0224
836.00,0.0193
835.00,0.0173
834.00,0.0159
833.00,0.0150
832.00,0.0143
831.00,0.0136
830.00,0.0131
829.00,0.0127
828.00,0.0123
827.00,0.0121
826.00,0.0120
825.00,0.0119
824.00,0.0118
823.00,0.0117
822.00,0.0118
821.00,0.0119
820.00,0.0120
819.00,0.0121
818.00,0.0123
817.00,0.0127
816.00,0.0134
815.00,0.0144
814.00,0.0157
813.00,0.0172
812.00,0.0188
811.00,0.0202
810.00,0.0214
809.00,0.0220
808.00,0.0219
807.00,0.0211
806.00,0.0198
805.00,0.0182
804.00,0.0164
803.00,0.0149
802.00,0.0136
801.00,0.0127
800.00,0.0121
799.00,0.0116
798.00,0.0111
797.00,0.0106
796.00,0.0101
795.00,0.0097
794.00,0.0094
793.00,0.0092
792.00,0.0090
791.00,0.0088
790.00,0.0088
789.00,0.0087
788.00,0.0085
787.00,0.0082
786.00,0.0078
785.00,0.0075
784.00,0.0073
783.00,0.0071
782.00,0.0068
781.00,0.0066
780.00,0.0065
779.00,0.0065
778.00,0.0067
777.00,0.0068
776.00,0.0069
775.00,0.0069
774.00,0.0070
773.00,0.0072
772.00,0.0076
771.00,0.0079
770.00,0.0083
769.00,0.0085
768.00,0.0087
767.00,0.0087
766.00,0.0086
765.00,0.0083
764.00,0.0080
763.00,0.0076
762.00,0.0073
761.00,0.0070
760.00,0.0067
759.00,0.0064
758.00,0.0062
757.00,0.0060
756.00,0.0059
755.00,0.0058
754.00,0.0058
753.00,0.0058
752.00,0.0058
751.00,0.0058
750.00,0.0057
749.00,0.0057
748.00,0.0056
747.00,0.0056
746.00,0.0056
745.00,0.0057
744.00,0.0058
743.00,0.0058
742.00,0.0058
741.00,0.0058
740.00,0.0059
739.00,0.0061
738.00,0.0064
737.00,0.0067
736.00,0.0068
735.00,0.0068
734.00,0.0067
733.00,0.0067
732.00,0.0068
731.00,0.0068
730.00,0.0068
729.00,0.0068
728.00,0.0067
727.00,0.0066
726.00,0.0065
725.00,0.0065
724.00,0.0064
723.00,0.0065
722.00,0.0065
721.00,0.0065
720.00,0.0065
719.00,0.0065
718.00,0.0065
717.00,0.0064
716.00,0.0063
715.00,0.0061
714.00,0.0059
713.00,0.0057
712.00,0.0055
711.00,0.0054
710.00,0.0054
709.00,0.0054
708.00,0.0055
707.00,0.0056
706.00,0.0058
705.00,0.0060
704.00,0.0060
703.00,0.0059
702.00,0.0057
701.00,0.0056
700.00,0.0056
699.00,0.0056
698.00,0.0056
697.00,0.0057
696.00,0.0057
695.00,0.0057
694.00,0.0056
693.00,0.0054
692.00,0.0053
691.00,0.0054
690.00,0.0055
689.00,0.0056
688.00,0.0057
687.00,0.0058
686.00,0.0058
685.00,0.0057
684.00,0.0056
683.00,0.0054
682.00,0.0054
681.00,0.0055
680.00,0.0058
679.00,0.0060
678.00,0.0060
677.00,0.0058
676.00,0.0055
675.00,0.0052
674.00,0.0051
673.00,0.0052
672.00,0.0054
671.00,0.0055
670.00,0.0056
669.00,0.0055
668.00,0.0055
667.00,0.0054
666.00,0.0054
665.00,0.0054
664.00,0.0055
663.00,0.0054
662.00,0.0055
661.00,0.0055
660.00,0.0057
659.00,0.0057
658.00,0.0057
657.00,0.0056
656.00,0.0055
655.00,0.0055
654.00,0.0055
653.00,0.0056
652.00,0.0056
651.00,0.0056
650.00,0.0055
649.00,0.0055
648.00,0.0056
647.00,0.0057
646.00,0.0057
645.00,0.0057
644.00,0.0056
643.00,0.0054
642.00,0.0054
641.00,0.0054
640.00,0.0055
639.00,0.0056
638.00,0.0058
637.00,0.0058
636.00,0.0057
635.00,0.0056
634.00,0.0056
633.00,0.0058
632.00,0.0061
631.00,0.0063
630.00,0.0063
629.00,0.0062
628.00,0.0060
627.00,0.0058
626.00,0.0057
625.00,0.0056
624.00,0.0056
623.00,0.0057
622.00,0.0057
621.00,0.0056
620.00,0.0053
619.00,0.0050
618.00,0.0049
617.00,0.0051
616.00,0.0054
615.00,0.0057
614.00,0.0060
613.00,0.0062
612.00,0.0063
611.00,0.0063
610.00,0.0063
609.00,0.0063
608.00,0.0063
607.00,0.0063
606.00,0.0061
605.00,0.0058
604.00,0.0056
603.00,0.0056
602.00,0.0057
601.00,0.0060
600.00,0.0061
599.00,0.0062
598.00,0.0061
597.00,0.0062
596.00,0.0063
595.00,0.0065
594.00,0.0067
593.00,0.0066
592.00,0.0066
591.00,0.0065
590.00,0.0066
589.00,0.0066
588.00,0.0064
587.00,0.0062
586.00,0.0060
585.00,0.0060
584.00,0.0062
583.00,0.0064
582.00,0.0066
581.00,0.0066
580.00,0.0065
579.00,0.0065
578.00,0.0065
577.00,0.0064
576.00,0.0063
575.00,0.0062
574.00,0.0062
573.00,0.0064
572.00,0.0066
571.00,0.0067
570.00,0.0066
569.00,0.0065
568.00,0.0064
567.00,0.0063
566.00,0.0063
565.00,0.0063
564.00,0.0062
563.00,0.0059
562.00,0.0057
561.00,0.0056
560.00,0.0059
559.00,0.0063
558.00,0.0065
557.00,0.0067
556.00,0.0067
555.00,0.0067
554.00,0.0067
553.00,0.0067
552.00,0.0066
551.00,0.0065
550.00,0.0065
549.00,0.0066
548.00,0.0067
547.00,0.0066
546.00,0.0063
545.00,0.0061
544.00,0.0062
543.00,0.0065
542.00,0.0070
541.00,0.0073
540.00,0.0072
539.00,0.0070
538.00,0.0069
537.00,0.0070
536.00,0.0074
535.00,0.0077
534.00,0.0077
533.00,0.0077
532.00,0.0078
531.00,0.0083
530.00,0.0089
529.00,0.0093
528.00,0.0092
527.00,0.0088
526.00,0.0084
525.00,0.0084
524.00,0.0086
523.00,0.0088
522.00,0.0087
521.00,0.0086
520.00,0.0083
519.00,0.0080
518.00,0.0077
517.00,0.0075
516.00,0.0075
515.00,0.0079
514.00,0.0084
513.00,0.0086
512.00,0.0083
511.00,0.0075
510.00,0.0067
509.00,0.0062
508.00,0.0062
507.00,0.0064
506.00,0.0066
505.00,0.0068
504.00,0.0067
503.00,0.0065
502.00,0.0060
501.00,0.0057
500.00,0.0056
499.00,0.0056
498.00,0.0056
497.00,0.0056
496.00,0.0057
495.00,0.0059
494.00,0.0062
493.00,0.0067
492.00,0.0072
491.00,0.0074
490.00,0.0072
489.00,0.0068
488.00,0.0064
487.00,0.0064
486.00,0.0066
485.00,0.0070
484.00,0.0074
483.00,0.0074
482.00,0.0069
481.00,0.0061
480.00,0.0053
479.00,0.0052
478.00,0.0062
477.00,0.0078
476.00,0.0089
475.00,0.0090
474.00,0.0081
473.00,0.0071
472.00,0.0068
471.00,0.0074
470.00,0.0085
469.00,0.0094
468.00,0.0099
467.00,0.0100
466.00,0.0103
465.00,0.0110
464.00,0.0120
463.00,0.0130
462.00,0.0143
461.00,0.0156
460.00,0.0164
459.00,0.0158
458.00,0.0136
457.00,0.0111
456.00,0.0099
455.00,0.0102
454.00,0.0116
453.00,0.0132
452.00,0.0145
451.00,0.0148
450.00,0.0141
