Created as New Dataset,Sample 074 By Administrator Date Friday, September 05 2025
cm-1,A
4000.00,0.0022
3999.00,0.0022
3998.00,0.0022
3997.00,0.0022
3996.00,0.0022
3995.00,0.0022
3994.00,0.0022
3993.00,0.0022
3992.00,0.0021
3991.00,0.0021
3990.00,0.0021
3989.00,0.0021
3988.00,0.0022
3987.00,0.0022
3986.00,0.0022
3985.00,0.0022
3984.00,0.0021
3983.00,0.0021
3982.00,0.0021
3981.00,0.0020
3980.00,0.0020
3979.00,0.0021
3978.00,0.0021
3977.00,0.0021
3976.00,0.0021
3975.00,0.0021
3974.00,0.0021
3973.00,0.0020
3972.00,0.0020
3971.00,0.0020
3970.00,0.0020
3969.00,0.0021
3968.00,0.0021
3967.00,0.0021
3966.00,0.0020
3965.00,0.0020
3964.00,0.0020
3963.00,0.0020
3962.00,0.0020
3961.00,0.0020
3960.00,0.0020
3959.00,0.0020
3958.00,0.0020
3957.00,0.0019
3956.00,0.0019
3955.00,0.0019
3954.00,0.0019
3953.00,0.0020
3952.00,0.0020
3951.00,0.0020
3950.00,0.0020
3949.00,0.0020
3948.00,0.0020
3947.00,0.0020
3946.00,0.0020
3945.00,0.0020
3944.00,0.0020
3943.00,0.0020
3942.00,0.0020
3941.00,0.0020
3940.00,0.0021
3939.00,0.0020
3938.00,0.0020
3937.00,0.0020
3936.00,0.0021
3935.00,0.0021
3934.00,0.0021
3933.00,0.0021
3932.00,0.0021
3931.00,0.0021
3930.00,0.0021
3929.00,0.0021
3928.00,0.0021
3927.00,0.0021
3926.00,0.0021
3925.00,0.0020
3924.00,0.0020
3923.00,0.0020
3922.00,0.0020
3921.00,0.0020
3920.00,0.0021
3919.00,0.0020
3918.00,0.0020
3917.00,0.0020
3916.00,0.0020
3915.00,0.0020
3914.00,0.0020
3913.00,0.0019
3912.00,0.0019
3911.00,0.0019
3910.00,0.0019
3909.00,0.0020
3908.00,0.0020
3907.00,0.0020
3906.00,0.0020
3905.00,0.0020
3904.00,0.0020
3903.00,0.0020
3902.00,0.0020
3901.00,0.0020
3900.00,0.0020
3899.00,0.0019
3898.00,0.0019
3897.00,0.0019
3896.00,0.0020
3895.00,0.0020
3894.00,0.0020
3893.00,0.0020
3892.00,0.0020
3891.00,0.0020
3890.00,0.0020
3889.00,0.0020
3888.00,0.0019
3887.00,0.0019
3886.00,0.0019
3885.00,0.0019
3884.00,0.0019
3883.00,0.0020
3882.00,0.0019
3881.00,0.0019
3880.00,0.0020
3879.00,0.0020
3878.00,0.0020
3877.00,0.0020
3876.00,0.0019
3875.00,0.0019
3874.00,0.0019
3873.00,0.0020
3872.00,0.0019
3871.00,0.0019
3870.00,0.0019
3869.00,0.0019
3868.00,0.0019
3867.00,0.0019
3866.00,0.0018
3865.00,0.0018
3864.00,0.0018
3863.00,0.0017
3862.00,0.0017
3861.00,0.0017
3860.00,0.0018
3859.00,0.0018
3858.00,0.0019
3857.00,0.0020
3856.00,0.0020
3855.00,0.0020
3854.00,0.0019
3853.00,0.0019
3852.00,0.0018
3851.00,0.0018
3850.00,0.0018
3849.00,0.0017
3848.00,0.0017
3847.00,0.0017
3846.00,0.0018
3845.00,0.0018
3844.00,0.0018
3843.00,0.0018
3842.00,0.0018
3841.00,0.0018
3840.00,0.0018
3839.00,0.0018
3838.00,0.0018
3837.00,0.0018
3836.00,0.0018
3835.00,0.0018
3834.00,0.0018
3833.00,0.0018
3832.00,0.0018
3831.00,0.0018
3830.00,0.0018
3829.00,0.0018
3828.00,0.0018
3827.00,0.0018
3826.00,0.0019
3825.00,0.0019
3824.00,0.0019
3823.00,0.0019
3822.00,0.0019
3821.00,0.0019
3820.00,0.0019
3819.00,0.0018
3818.00,0.0018
3817.00,0.0018
3816.00,0.0018
3815.00,0.0018
3814.00,0.0018
3813.00,0.0018
3812.00,0.0018
3811.00,0.0018
3810.00,0.0018
3809.00,0.0018
3808.00,0.0017
3807.00,0.0018
3806.00,0.0019
3805.00,0.0019
3804.00,0.0019
3803.00,0.0019
3802.00,0.0019
3801.00,0.0019
3800.00,0.0019
3799.00,0.0018
3798.00,0.0018
3797.00,0.0018
3796.00,0.0018
3795.00,0.0018
3794.00,0.0018
3793.00,0.0018
3792.00,0.0018
3791.00,0.0018
3790.00,0.0018
3789.00,0.0018
3788.00,0.0018
3787.00,0.0018
3786.00,0.0018
3785.00,0.0019
3784.00,0.0019
3783.00,0.0019
3782.00,0.0019
3781.00,0.0019
3780.00,0.0018
3779.00,0.0019
3778.00,0.0019
3777.00,0.0019
3776.00,0.0019
3775.00,0.0019
3774.00,0.0019
3773.00,0.0019
3772.00,0.0019
3771.00,0.0019
3770.00,0.0019
3769.00,0.0019
3768.00,0.0018
3767.00,0.0018
3766.00,0.0018
3765.00,0.0018
3764.00,0.0018
3763.00,0.0018
3762.00,0.0019
3761.00,0.0019
3760.00,0.0019
3759.00,0.0019
3758.00,0.0019
3757.00,0.0019
3756.00,0.0019
3755.00,0.0019
3754.00,0.0020
3753.00,0.0020
3752.00,0.0020
3751.00,0.0019
3750.00,0.0019
3749.00,0.0018
3748.00,0.0018
3747.00,0.0017
3746.00,0.0017
3745.00,0.0017
3744.00,0.0018
3743.00,0.0018
3742.00,0.0017
3741.00,0.0017
3740.00,0.0017
3739.00,0.0017
3738.00,0.0017
3737.00,0.0017
3736.00,0.0017
3735.00,0.0017
3734.00,0.0017
3733.00,0.0017
3732.00,0.0017
3731.00,0.0017
3730.00,0.0017
3729.00,0.0016
3728.00,0.0016
3727.00,0.0016
3726.00,0.0016
3725.00,0.0016
3724.00,0.0016
3723.00,0.0017
3722.00,0.0017
3721.00,0.0017
3720.00,0.0017
3719.00,0.0017
3718.00,0.0018
3717.00,0.0019
3716.00,0.0019
3715.00,0.0019
3714.00,0.0018
3713.00,0.0017
3712.00,0.0016
3711.00,0.0016
3710.00,0.0016
3709.00,0.0016
3708.00,0.0016
3707.00,0.0016
3706.00,0.0017
3705.00,0.0017
3704.00,0.0017
3703.00,0.0018
3702.00,0.0018
3701.00,0.0018
3700.00,0.0018
3699.00,0.0018
3698.00,0.0018
3697.00,0.0018
3696.00,0.0018
3695.00,0.0018
3694.00,0.0018
3693.00,0.0018
3692.00,0.0019
3691.00,0.0019
3690.00,0.0019
3689.00,0.0018
3688.00,0.0018
3687.00,0.0018
3686.00,0.0018
3685.00,0.0018
3684.00,0.0018
3683.00,0.0019
3682.00,0.0019
3681.00,0.0019
3680.00,0.0019
3679.00,0.0020
3678.00,0.0020
3677.00,0.0019
3676.00,0.0019
3675.00,0.0019
3674.00,0.0019
3673.00,0.0019
3672.00,0.0019
3671.00,0.0019
3670.00,0.0020
3669.00,0.0021
3668.00,0.0021
3667.00,0.0021
3666.00,0.0021
3665.00,0.0021
3664.00,0.0021
3663.00,0.0021
3662.00,0.0021
3661.00,0.0022
3660.00,0.0022
3659.00,0.0023
3658.00,0.0023
3657.00,0.0023
3656.00,0.0024
3655.00,0.0024
3654.00,0.0025
3653.00,0.0025
3652.00,0.0024
3651.00,0.0024
3650.00,0.0024
3649.00,0.0024
3648.00,0.0025
3647.00,0.0025
3646.00,0.0025
3645.00,0.0025
3644.00,0.0026
3643.00,0.0026
3642.00,0.0027
3641.00,0.0027
3640.00,0.0028
3639.00,0.0029
3638.00,0.0030
3637.00,0.0031
3636.00,0.0031
3635.00,0.0032
3634.00,0.0032
3633.00,0.0032
3632.00,0.0033
3631.00,0.0033
3630.00,0.0033
3629.00,0.0033
3628.00,0.0034
3627.00,0.0035
3626.00,0.0035
3625.00,0.0036
3624.00,0.0036
3623.00,0.0036
3622.00,0.0037
3621.00,0.0037
3620.00,0.0038
3619.00,0.0039
3618.00,0.0040
3617.00,0.0041
3616.00,0.0041
3615.00,0.0042
3614.00,0.0043
3613.00,0.0043
3612.00,0.0043
3611.00,0.0044
3610.00,0.0044
3609.00,0.0045
3608.00,0.0046
3607.00,0.0046
3606.00,0.0047
3605.00,0.0047
3604.00,0.0048
3603.00,0.0048
3602.00,0.0049
3601.00,0.0049
3600.00,0.0050
3599.00,0.0050
3598.00,0.0050
3597.00,0.0051
3596.00,0.0052
3595.00,0.0054
3594.00,0.0054
3593.00,0.0055
3592.00,0.0055
3591.00,0.0055
3590.00,0.0056
3589.00,0.0056
3588.00,0.0057
3587.00,0.0058
3586.00,0.0059
3585.00,0.0060
3584.00,0.0060
3583.00,0.0061
3582.00,0.0061
3581.00,0.0061
3580.00,0.0062
3579.00,0.0062
3578.00,0.0063
3577.00,0.0064
3576.00,0.0065
3575.00,0.0066
3574.00,0.0067
3573.00,0.0068
3572.00,0.0069
3571.00,0.0069
3570.00,0.0070
3569.00,0.0070
3568.00,0.0071
3567.00,0.0073
3566.00,0.0074
3565.00,0.0074
3564.00,0.0074
3563.00,0.0075
3562.00,0.0075
3561.00,0.0076
3560.00,0.0077
3559.00,0.0078
3558.00,0.0079
3557.00,0.0079
3556.00,0.0080
3555.00,0.0081
3554.00,0.0082
3553.00,0.0084
3552.00,0.0085
3551.00,0.0086
3550.00,0.0086
3549.00,0.0087
3548.00,0.0087
3547.00,0.0088
3546.00,0.0089
3545.00,0.0090
3544.00,0.0091
3543.00,0.0091
3542.00,0.0092
3541.00,0.0093
3540.00,0.0093
3539.00,0.0094
3538.00,0.0095
3537.00,0.0096
3536.00,0.0097
3535.00,0.0098
3534.00,0.0099
3533.00,0.0100
3532.00,0.0101
3531.00,0.0101
3530.00,0.0103
3529.00,0.0104
3528.00,0.0105
3527.00,0.0106
3526.00,0.0107
3525.00,0.0109
3524.00,0.0110
3523.00,0.0110
3522.00,0.0111
3521.00,0.0112
3520.00,0.0113
3519.00,0.0114
3518.00,0.0115
3517.00,0.0117
3516.00,0.0117
3515.00,0.0118
3514.00,0.0119
3513.00,0.0120
3512.00,0.0121
3511.00,0.0122
3510.00,0.0123
3509.00,0.0124
3508.00,0.0125
3507.00,0.0126
3506.00,0.0127
3505.00,0.0129
3504.00,0.0130
3503.00,0.0131
3502.00,0.0133
3501.00,0.0134
3500.00,0.0135
3499.00,0.0136
3498.00,0.0137
3497.00,0.0138
3496.00,0.0139
3495.00,0.0140
3494.00,0.0141
3493.00,0.0143
3492.00,0.0144
3491.00,0.0145
3490.00,0.0146
3489.00,0.0147
3488.00,0.0148
3487.00,0.0148
3486.00,0.0149
3485.00,0.0150
3484.00,0.0151
3483.00,0.0153
3482.00,0.0154
3481.00,0.0155
3480.00,0.0156
3479.00,0.0156
3478.00,0.0157
3477.00,0.0157
3476.00,0.0158
3475.00,0.0159
3474.00,0.0160
3473.00,0.0161
3472.00,0.0162
3471.00,0.0163
3470.00,0.0164
3469.00,0.0165
3468.00,0.0165
3467.00,0.0166
3466.00,0.0166
3465.00,0.0166
3464.00,0.0166
3463.00,0.0167
3462.00,0.0168
3461.00,0.0168
3460.00,0.0169
3459.00,0.0169
3458.00,0.0170
3457.00,0.0170
3456.00,0.0171
3455.00,0.0171
3454.00,0.0171
3453.00,0.0171
3452.00,0.0171
3451.00,0.0172
3450.00,0.0172
3449.00,0.0173
3448.00,0.0173
3447.00,0.0173
3446.00,0.0174
3445.00,0.0174
3444.00,0.0174
3443.00,0.0174
3442.00,0.0174
3441.00,0.0174
3440.00,0.0175
3439.00,0.0175
3438.00,0.0175
3437.00,0.0176
3436.00,0.0176
3435.00,0.0176
3434.00,0.0176
3433.00,0.0176
3432.00,0.0176
3431.00,0.0176
3430.00,0.0176
3429.00,0.0176
3428.00,0.0176
3427.00,0.0176
3426.00,0.0176
3425.00,0.0176
3424.00,0.0176
3423.00,0.0176
3422.00,0.0176
3421.00,0.0176
3420.00,0.0176
3419.00,0.0176
3418.00,0.0176
3417.00,0.0176
3416.00,0.0177
3415.00,0.0177
3414.00,0.0176
3413.00,0.0176
3412.00,0.0176
3411.00,0.0176
3410.00,0.0176
3409.00,0.0176
3408.00,0.0176
3407.00,0.0176
3406.00,0.0177
3405.00,0.0177
3404.00,0.0178
3403.00,0.0178
3402.00,0.0178
3401.00,0.0179
3400.00,0.0179
3399.00,0.0179
3398.00,0.0179
3397.00,0.0178
3396.00,0.0178
3395.00,0.0178
3394.00,0.0177
3393.00,0.0177
3392.00,0.0177
3391.00,0.0177
3390.00,0.0176
3389.00,0.0176
3388.00,0.0175
3387.00,0.0174
3386.00,0.0174
3385.00,0.0173
3384.00,0.0173
3383.00,0.0173
3382.00,0.0173
3381.00,0.0173
3380.00,0.0172
3379.00,0.0172
3378.00,0.0171
3377.00,0.0171
3376.00,0.0170
3375.00,0.0170
3374.00,0.0170
3373.00,0.0170
3372.00,0.0169
3371.00,0.0169
3370.00,0.0169
3369.00,0.0168
3368.00,0.0168
3367.00,0.0167
3366.00,0.0167
3365.00,0.0167
3364.00,0.0166
3363.00,0.0166
3362.00,0.0165
3361.00,0.0165
3360.00,0.0165
3359.00,0.0164
3358.00,0.0164
3357.00,0.0164
3356.00,0.0163
3355.00,0.0163
3354.00,0.0163
3353.00,0.0162
3352.00,0.0162
3351.00,0.0162
3350.00,0.0161
3349.00,0.0161
3348.00,0.0161
3347.00,0.0160
3346.00,0.0160
3345.00,0.0159
3344.00,0.0158
3343.00,0.0158
3342.00,0.0157
3341.00,0.0157
3340.00,0.0157
3339.00,0.0157
3338.00,0.0157
3337.00,0.0156
3336.00,0.0156
3335.00,0.0155
3334.00,0.0154
3333.00,0.0153
3332.00,0.0153
3331.00,0.0152
3330.00,0.0152
3329.00,0.0151
3328.00,0.0151
3327.00,0.0151
3326.00,0.0150
3325.00,0.0150
3324.00,0.0150
3323.00,0.0150
3322.00,0.0150
3321.00,0.0149
3320.00,0.0149
3319.00,0.0148
3318.00,0.0148
3317.00,0.0147
3316.00,0.0147
3315.00,0.0146
3314.00,0.0146
3313.00,0.0146
3312.00,0.0145
3311.00,0.0145
3310.00,0.0144
3309.00,0.0144
3308.00,0.0143
3307.00,0.0143
3306.00,0.0143
3305.00,0.0142
3304.00,0.0142
3303.00,0.0142
3302.00,0.0141
3301.00,0.0141
3300.00,0.0140
3299.00,0.0139
3298.00,0.0139
3297.00,0.0139
3296.00,0.0138
3295.00,0.0138
3294.00,0.0138
3293.00,0.0138
3292.00,0.0138
3291.00,0.0137
3290.00,0.0137
3289.00,0.0136
3288.00,0.0136
3287.00,0.0136
3286.00,0.0135
3285.00,0.0135
3284.00,0.0134
3283.00,0.0134
3282.00,0.0133
3281.00,0.0132
3280.00,0.0132
3279.00,0.0131
3278.00,0.0131
3277.00,0.0131
3276.00,0.0131
3275.00,0.0130
3274.00,0.0130
3273.00,0.0130
3272.00,0.0129
3271.00,0.0129
3270.00,0.0128
3269.00,0.0128
3268.00,0.0128
3267.00,0.0128
3266.00,0.0127
3265.00,0.0127
3264.00,0.0126
3263.00,0.0126
3262.00,0.0126
3261.00,0.0125
3260.00,0.0125
3259.00,0.0125
3258.00,0.0124
3257.00,0.0123
3256.00,0.0123
3255.00,0.0122
3254.00,0.0122
3253.00,0.0121
3252.00,0.0121
3251.00,0.0121
3250.00,0.0121
3249.00,0.0120
3248.00,0.0120
3247.00,0.0120
3246.00,0.0119
3245.00,0.0119
3244.00,0.0118
3243.00,0.0118
3242.00,0.0117
3241.00,0.0117
3240.00,0.0117
3239.00,0.0116
3238.00,0.0117
3237.00,0.0117
3236.00,0.0117
3235.00,0.0117
3234.00,0.0116
3233.00,0.0115
3232.00,0.0115
3231.00,0.0115
3230.00,0.0115
3229.00,0.0115
3228.00,0.0115
3227.00,0.0114
3226.00,0.0114
3225.00,0.0114
3224.00,0.0114
3223.00,0.0113
3222.00,0.0113
3221.00,0.0113
3220.00,0.0113
3219.00,0.0113
3218.00,0.0113
3217.00,0.0113
3216.00,0.0112
3215.00,0.0112
3214.00,0.0111
3213.00,0.0111
3212.00,0.0110
3211.00,0.0110
3210.00,0.0110
3209.00,0.0110
3208.00,0.0110
3207.00,0.0110
3206.00,0.0110
3205.00,0.0111
3204.00,0.0111
3203.00,0.0110
3202.00,0.0110
3201.00,0.0109
3200.00,0.0109
3199.00,0.0108
3198.00,0.0108
3197.00,0.0108
3196.00,0.0108
3195.00,0.0107
3194.00,0.0107
3193.00,0.0107
3192.00,0.0106
3191.00,0.0105
3190.00,0.0105
3189.00,0.0104
3188.00,0.0104
3187.00,0.0104
3186.00,0.0104
3185.00,0.0103
3184.00,0.0102
3183.00,0.0101
3182.00,0.0100
3181.00,0.0100
3180.00,0.0099
3179.00,0.0099
3178.00,0.0098
3177.00,0.0097
3176.00,0.0097
3175.00,0.0096
3174.00,0.0095
3173.00,0.0095
3172.00,0.0095
3171.00,0.0094
3170.00,0.0094
3169.00,0.0093
3168.00,0.0092
3167.00,0.0092
3166.00,0.0092
3165.00,0.0091
3164.00,0.0091
3163.00,0.0090
3162.00,0.0090
3161.00,0.0089
3160.00,0.0089
3159.00,0.0089
3158.00,0.0088
3157.00,0.0088
3156.00,0.0088
3155.00,0.0087
3154.00,0.0087
3153.00,0.0086
3152.00,0.0086
3151.00,0.0086
3150.00,0.0085
3149.00,0.0084
3148.00,0.0084
3147.00,0.0083
3146.00,0.0083
3145.00,0.0083
3144.00,0.0082
3143.00,0.0082
3142.00,0.0081
3141.00,0.0081
3140.00,0.0081
3139.00,0.0080
3138.00,0.0080
3137.00,0.0079
3136.00,0.0079
3135.00,0.0078
3134.00,0.0078
3133.00,0.0077
3132.00,0.0077
3131.00,0.0077
3130.00,0.0076
3129.00,0.0076
3128.00,0.0075
3127.00,0.0074
3126.00,0.0074
3125.00,0.0073
3124.00,0.0073
3123.00,0.0072
3122.00,0.0072
3121.00,0.0071
3120.00,0.0071
3119.00,0.0071
3118.00,0.0071
3117.00,0.0071
3116.00,0.0070
3115.00,0.0070
3114.00,0.0069
3113.00,0.0068
3112.00,0.0068
3111.00,0.0067
3110.00,0.0067
3109.00,0.0066
3108.00,0.0066
3107.00,0.0066
3106.00,0.0066
3105.00,0.0066
3104.00,0.0066
3103.00,0.0065
3102.00,0.0065
3101.00,0.0065
3100.00,0.0064
3099.00,0.0064
3098.00,0.0065
3097.00,0.0064
3096.00,0.0064
3095.00,0.0064
3094.00,0.0063
3093.00,0.0063
3092.00,0.0062
3091.00,0.0062
3090.00,0.0062
3089.00,0.0063
3088.00,0.0062
3087.00,0.0062
3086.00,0.0061
3085.00,0.0061
3084.00,0.0060
3083.00,0.0060
3082.00,0.0060
3081.00,0.0060
3080.00,0.0060
3079.00,0.0060
3078.00,0.0060
3077.00,0.0060
3076.00,0.0060
3075.00,0.0061
3074.00,0.0061
3073.00,0.0061
3072.00,0.0062
3071.00,0.0062
3070.00,0.0062
3069.00,0.0061
3068.00,0.0061
3067.00,0.0061
3066.00,0.0061
3065.00,0.0062
3064.00,0.0062
3063.00,0.0061
3062.00,0.0061
3061.00,0.0060
3060.00,0.0060
3059.00,0.0060
3058.00,0.0061
3057.00,0.0061
3056.00,0.0062
3055.00,0.0062
3054.00,0.0062
3053.00,0.0062
3052.00,0.0062
3051.00,0.0062
3050.00,0.0062
3049.00,0.0062
3048.00,0.0062
3047.00,0.0063
3046.00,0.0063
3045.00,0.0063
3044.00,0.0063
3043.00,0.0064
3042.00,0.0064
3041.00,0.0065
3040.00,0.0065
3039.00,0.0065
3038.00,0.0066
3037.00,0.0066
3036.00,0.0066
3035.00,0.0066
3034.00,0.0066
3033.00,0.0066
3032.00,0.0067
3031.00,0.0067
3030.00,0.0068
3029.00,0.0068
3028.00,0.0069
3027.00,0.0070
3026.00,0.0071
3025.00,0.0071
3024.00,0.0072
3023.00,0.0073
3022.00,0.0073
3021.00,0.0074
3020.00,0.0074
3019.00,0.0075
3018.00,0.0076
3017.00,0.0077
3016.00,0.0078
3015.00,0.0079
3014.00,0.0081
3013.00,0.0082
3012.00,0.0084
3011.00,0.0086
3010.00,0.0088
3009.00,0.0089
3008.00,0.0091
3007.00,0.0093
3006.00,0.0095
3005.00,0.0097
3004.00,0.0099
3003.00,0.0101
3002.00,0.0104
3001.00,0.0107
3000.00,0.0110
2999.00,0.0113
2998.00,0.0117
2997.00,0.0121
2996.00,0.0125
2995.00,0.0129
2994.00,0.0134
2993.00,0.0140
2992.00,0.0146
2991.00,0.0152
2990.00,0.0158
2989.00,0.0165
2988.00,0.0173
2987.00,0.0181
2986.00,0.0190
2985.00,0.0198
2984.00,0.0208
2983.00,0.0218
2982.00,0.0230
2981.00,0.0244
2980.00,0.0261
2979.00,0.0279
2978.00,0.0299
2977.00,0.0322
2976.00,0.0348
2975.00,0.0377
2974.00,0.0410
2973.00,0.0448
2972.00,0.0490
2971.00,0.0536
2970.00,0.0588
2969.00,0.0644
2968.00,0.0704
2967.00,0.0767
2966.00,0.0831
2965.00,0.0895
2964.00,0.0955
2963.00,0.1009
2962.00,0.1054
2961.00,0.1090
2960.00,0.1119
2959.00,0.1145
2958.00,0.1173
2957.00,0.1210
2956.00,0.1258
2955.00,0.1319
2954.00,0.1392
2953.00,0.1469
2952.00,0.1541
2951.00,0.1597
2950.00,0.1626
2949.00,0.1619
2948.00,0.1577
2947.00,0.1504
2946.00,0.1410
2945.00,0.1308
2944.00,0.1210
2943.00,0.1125
2942.00,0.1057
2941.00,0.1010
2940.00,0.0982
2939.00,0.0973
2938.00,0.0980
2937.00,0.1002
2936.00,0.1036
2935.00,0.1083
2934.00,0.1142
2933.00,0.1210
2932.00,0.1287
2931.00,0.1373
2930.00,0.1464
2929.00,0.1560
2928.00,0.1656
2927.00,0.1752
2926.00,0.1847
2925.00,0.1940
2924.00,0.2033
2923.00,0.2126
2922.00,0.2220
2921.00,0.2311
2920.00,0.2394
2919.00,0.2459
2918.00,0.2495
2917.00,0.2495
2916.00,0.2456
2915.00,0.2384
2914.00,0.2290
2913.00,0.2187
2912.00,0.2085
2911.00,0.1991
2910.00,0.1908
2909.00,0.1834
2908.00,0.1768
2907.00,0.1706
2906.00,0.1647
2905.00,0.1589
2904.00,0.1531
2903.00,0.1474
2902.00,0.1418
2901.00,0.1363
2900.00,0.1311
2899.00,0.1262
2898.00,0.1216
2897.00,0.1174
2896.00,0.1135
2895.00,0.1101
2894.00,0.1073
2893.00,0.1049
2892.00,0.1032
2891.00,0.1019
2890.00,0.1011
2889.00,0.1006
2888.00,0.1005
2887.00,0.1006
2886.00,0.1009
2885.00,0.1015
2884.00,0.1025
2883.00,0.1038
2882.00,0.1054
2881.00,0.1073
2880.00,0.1090
2879.00,0.1104
2878.00,0.1112
2877.00,0.1112
2876.00,0.1107
2875.00,0.1100
2874.00,0.1094
2873.00,0.1092
2872.00,0.1098
2871.00,0.1109
2870.00,0.1126
2869.00,0.1142
2868.00,0.1154
2867.00,0.1152
2866.00,0.1133
2865.00,0.1094
2864.00,0.1038
2863.00,0.0972
2862.00,0.0904
2861.00,0.0843
2860.00,0.0792
2859.00,0.0755
2858.00,0.0732
2857.00,0.0720
2856.00,0.0719
2855.00,0.0726
2854.00,0.0739
2853.00,0.0757
2852.00,0.0777
2851.00,0.0796
2850.00,0.0811
2849.00,0.0823
2848.00,0.0832
2847.00,0.0843
2846.00,0.0859
2845.00,0.0884
2844.00,0.0918
2843.00,0.0958
2842.00,0.1000
2841.00,0.1039
2840.00,0.1069
2839.00,0.1084
2838.00,0.1077
2837.00,0.1048
2836.00,0.0996
2835.00,0.0927
2834.00,0.0845
2833.00,0.0761
2832.00,0.0681
2831.00,0.0609
2830.00,0.0547
2829.00,0.0495
2828.00,0.0453
2827.00,0.0418
2826.00,0.0389
2825.00,0.0365
2824.00,0.0344
2823.00,0.0327
2822.00,0.0312
2821.00,0.0298
2820.00,0.0287
2819.00,0.0276
2818.00,0.0267
2817.00,0.0259
2816.00,0.0251
2815.00,0.0244
2814.00,0.0237
2813.00,0.0230
2812.00,0.0224
2811.00,0.0217
2810.00,0.0211
2809.00,0.0203
2808.00,0.0196
2807.00,0.0188
2806.00,0.0180
2805.00,0.0173
2804.00,0.0166
2803.00,0.0159
2802.00,0.0153
2801.00,0.0147
2800.00,0.0142
2799.00,0.0138
2798.00,0.0134
2797.00,0.0131
2796.00,0.0128
2795.00,0.0126
2794.00,0.0123
2793.00,0.0120
2792.00,0.0117
2791.00,0.0114
2790.00,0.0111
2789.00,0.0108
2788.00,0.0106
2787.00,0.0103
2786.00,0.0101
2785.00,0.0099
2784.00,0.0097
2783.00,0.0094
2782.00,0.0092
2781.00,0.0091
2780.00,0.0089
2779.00,0.0088
2778.00,0.0086
2777.00,0.0085
2776.00,0.0083
2775.00,0.0082
2774.00,0.0081
2773.00,0.0080
2772.00,0.0080
2771.00,0.0079
2770.00,0.0079
2769.00,0.0078
2768.00,0.0078
2767.00,0.0077
2766.00,0.0077
2765.00,0.0077
2764.00,0.0076
2763.00,0.0076
2762.00,0.0076
2761.00,0.0075
2760.00,0.0075
2759.00,0.0075
2758.00,0.0075
2757.00,0.0074
2756.00,0.0074
2755.00,0.0074
2754.00,0.0074
2753.00,0.0073
2752.00,0.0073
2751.00,0.0072
2750.00,0.0072
2749.00,0.0072
2748.00,0.0072
2747.00,0.0072
2746.00,0.0072
2745.00,0.0073
2744.00,0.0074
2743.00,0.0074
2742.00,0.0075
2741.00,0.0075
2740.00,0.0076
2739.00,0.0077
2738.00,0.0078
2737.00,0.0079
2736.00,0.0080
2735.00,0.0081
2734.00,0.0082
2733.00,0.0083
2732.00,0.0084
2731.00,0.0086
2730.00,0.0088
2729.00,0.0089
2728.00,0.0091
2727.00,0.0093
2726.00,0.0095
2725.00,0.0097
2724.00,0.0098
2723.00,0.0099
2722.00,0.0098
2721.00,0.0097
2720.00,0.0095
2719.00,0.0093
2718.00,0.0090
2717.00,0.0087
2716.00,0.0085
2715.00,0.0083
2714.00,0.0081
2713.00,0.0079
2712.00,0.0076
2711.00,0.0074
2710.00,0.0072
2709.00,0.0071
2708.00,0.0070
2707.00,0.0069
2706.00,0.0068
2705.00,0.0067
2704.00,0.0066
2703.00,0.0065
2702.00,0.0064
2701.00,0.0064
2700.00,0.0063
2699.00,0.0062
2698.00,0.0062
2697.00,0.0061
2696.00,0.0061
2695.00,0.0061
2694.00,0.0061
2693.00,0.0061
2692.00,0.0061
2691.00,0.0061
2690.00,0.0061
2689.00,0.0061
2688.00,0.0061
2687.00,0.0061
2686.00,0.0061
2685.00,0.0061
2684.00,0.0061
2683.00,0.0061
2682.00,0.0061
2681.00,0.0061
2680.00,0.0061
2679.00,0.0061
2678.00,0.0061
2677.00,0.0061
2676.00,0.0061
2675.00,0.0061
2674.00,0.0061
2673.00,0.0061
2672.00,0.0061
2671.00,0.0061
2670.00,0.0061
2669.00,0.0061
2668.00,0.0061
2667.00,0.0061
2666.00,0.0061
2665.00,0.0062
2664.00,0.0063
2663.00,0.0063
2662.00,0.0064
2661.00,0.0064
2660.00,0.0064
2659.00,0.0064
2658.00,0.0064
2657.00,0.0064
2656.00,0.0064
2655.00,0.0064
2654.00,0.0063
2653.00,0.0063
2652.00,0.0062
2651.00,0.0062
2650.00,0.0061
2649.00,0.0060
2648.00,0.0060
2647.00,0.0059
2646.00,0.0059
2645.00,0.0058
2644.00,0.0058
2643.00,0.0057
2642.00,0.0057
2641.00,0.0056
2640.00,0.0056
2639.00,0.0055
2638.00,0.0055
2637.00,0.0055
2636.00,0.0055
2635.00,0.0055
2634.00,0.0055
2633.00,0.0055
2632.00,0.0055
2631.00,0.0055
2630.00,0.0055
2629.00,0.0054
2628.00,0.0055
2627.00,0.0055
2626.00,0.0055
2625.00,0.0055
2624.00,0.0055
2623.00,0.0055
2622.00,0.0055
2621.00,0.0054
2620.00,0.0055
2619.00,0.0055
2618.00,0.0055
2617.00,0.0055
2616.00,0.0055
2615.00,0.0055
2614.00,0.0055
2613.00,0.0054
2612.00,0.0054
2611.00,0.0053
2610.00,0.0053
2609.00,0.0052
2608.00,0.0052
2607.00,0.0051
2606.00,0.0050
2605.00,0.0050
2604.00,0.0049
2603.00,0.0049
2602.00,0.0049
2601.00,0.0049
2600.00,0.0049
2599.00,0.0049
2598.00,0.0048
2597.00,0.0048
2596.00,0.0047
2595.00,0.0047
2594.00,0.0048
2593.00,0.0048
2592.00,0.0048
2591.00,0.0048
2590.00,0.0048
2589.00,0.0049
2588.00,0.0050
2587.00,0.0051
2586.00,0.0052
2585.00,0.0053
2584.00,0.0053
2583.00,0.0053
2582.00,0.0053
2581.00,0.0053
2580.00,0.0052
2579.00,0.0052
2578.00,0.0051
2577.00,0.0049
2576.00,0.0048
2575.00,0.0047
2574.00,0.0047
2573.00,0.0046
2572.00,0.0044
2571.00,0.0043
2570.00,0.0042
2569.00,0.0042
2568.00,0.0041
2567.00,0.0040
2566.00,0.0040
2565.00,0.0039
2564.00,0.0039
2563.00,0.0039
2562.00,0.0038
2561.00,0.0038
2560.00,0.0038
2559.00,0.0039
2558.00,0.0039
2557.00,0.0039
2556.00,0.0039
2555.00,0.0039
2554.00,0.0038
2553.00,0.0037
2552.00,0.0036
2551.00,0.0035
2550.00,0.0035
2549.00,0.0035
2548.00,0.0035
2547.00,0.0035
2546.00,0.0035
2545.00,0.0034
2544.00,0.0034
2543.00,0.0033
2542.00,0.0033
2541.00,0.0033
2540.00,0.0033
2539.00,0.0032
2538.00,0.0031
2537.00,0.0030
2536.00,0.0030
2535.00,0.0031
2534.00,0.0031
2533.00,0.0031
2532.00,0.0031
2531.00,0.0031
2530.00,0.0030
2529.00,0.0030
2528.00,0.0030
2527.00,0.0030
2526.00,0.0030
2525.00,0.0030
2524.00,0.0030
2523.00,0.0030
2522.00,0.0030
2521.00,0.0030
2520.00,0.0029
2519.00,0.0029
2518.00,0.0028
2517.00,0.0028
2516.00,0.0027
2515.00,0.0026
2514.00,0.0025
2513.00,0.0025
2512.00,0.0025
2511.00,0.0025
2510.00,0.0025
2509.00,0.0025
2508.00,0.0025
2507.00,0.0026
2506.00,0.0026
2505.00,0.0026
2504.00,0.0027
2503.00,0.0027
2502.00,0.0027
2501.00,0.0027
2500.00,0.0027
2499.00,0.0027
2498.00,0.0027
2497.00,0.0027
2496.00,0.0027
2495.00,0.0027
2494.00,0.0026
2493.00,0.0026
2492.00,0.0026
2491.00,0.0026
2490.00,0.0026
2489.00,0.0025
2488.00,0.0025
2487.00,0.0025
2486.00,0.0025
2485.00,0.0025
2484.00,0.0025
2483.00,0.0025
2482.00,0.0025
2481.00,0.0025
2480.00,0.0025
2479.00,0.0024
2478.00,0.0024
2477.00,0.0025
2476.00,0.0025
2475.00,0.0025
2474.00,0.0024
2473.00,0.0024
2472.00,0.0024
2471.00,0.0025
2470.00,0.0025
2469.00,0.0025
2468.00,0.0024
2467.00,0.0024
2466.00,0.0024
2465.00,0.0024
2464.00,0.0023
2463.00,0.0024
2462.00,0.0024
2461.00,0.0025
2460.00,0.0025
2459.00,0.0026
2458.00,0.0026
2457.00,0.0026
2456.00,0.0026
2455.00,0.0026
2454.00,0.0027
2453.00,0.0027
2452.00,0.0027
2451.00,0.0027
2450.00,0.0026
2449.00,0.0025
2448.00,0.0025
2447.00,0.0024
2446.00,0.0024
2445.00,0.0024
2444.00,0.0023
2443.00,0.0023
2442.00,0.0024
2441.00,0.0025
2440.00,0.0025
2439.00,0.0026
2438.00,0.0026
2437.00,0.0026
2436.00,0.0026
2435.00,0.0026
2434.00,0.0026
2433.00,0.0026
2432.00,0.0026
2431.00,0.0026
2430.00,0.0026
2429.00,0.0026
2428.00,0.0025
2427.00,0.0026
2426.00,0.0026
2425.00,0.0026
2424.00,0.0026
2423.00,0.0025
2422.00,0.0025
2421.00,0.0025
2420.00,0.0025
2419.00,0.0025
2418.00,0.0025
2417.00,0.0024
2416.00,0.0024
2415.00,0.0024
2414.00,0.0024
2413.00,0.0023
2412.00,0.0023
2411.00,0.0023
2410.00,0.0024
2409.00,0.0024
2408.00,0.0024
2407.00,0.0024
2406.00,0.0023
2405.00,0.0022
2404.00,0.0022
2403.00,0.0022
2402.00,0.0022
2401.00,0.0022
2400.00,0.0021
2399.00,0.0021
2398.00,0.0022
2397.00,0.0022
2396.00,0.0022
2395.00,0.0022
2394.00,0.0021
2393.00,0.0021
2392.00,0.0020
2391.00,0.0020
2390.00,0.0020
2389.00,0.0021
2388.00,0.0021
2387.00,0.0022
2386.00,0.0022
2385.00,0.0022
2384.00,0.0021
2383.00,0.0020
2382.00,0.0020
2381.00,0.0019
2380.00,0.0018
2379.00,0.0018
2378.00,0.0017
2377.00,0.0018
2376.00,0.0018
2375.00,0.0018
2374.00,0.0017
2373.00,0.0017
2372.00,0.0017
2371.00,0.0017
2370.00,0.0017
2369.00,0.0016
2368.00,0.0015
2367.00,0.0014
2366.00,0.0014
2365.00,0.0014
2364.00,0.0015
2363.00,0.0016
2362.00,0.0017
2361.00,0.0018
2360.00,0.0019
2359.00,0.0019
2358.00,0.0019
2357.00,0.0019
2356.00,0.0018
2355.00,0.0017
2354.00,0.0017
2353.00,0.0017
2352.00,0.0017
2351.00,0.0017
2350.00,0.0017
2349.00,0.0017
2348.00,0.0017
2347.00,0.0017
2346.00,0.0017
2345.00,0.0018
2344.00,0.0018
2343.00,0.0019
2342.00,0.0019
2341.00,0.0019
2340.00,0.0020
2339.00,0.0020
2338.00,0.0020
2337.00,0.0020
2336.00,0.0020
2335.00,0.0019
2334.00,0.0019
2333.00,0.0018
2332.00,0.0018
2331.00,0.0018
2330.00,0.0018
2329.00,0.0019
2328.00,0.0021
2327.00,0.0025
2326.00,0.0029
2325.00,0.0032
2324.00,0.0033
2323.00,0.0033
2322.00,0.0031
2321.00,0.0029
2320.00,0.0028
2319.00,0.0028
2318.00,0.0027
2317.00,0.0026
2316.00,0.0025
2315.00,0.0024
2314.00,0.0023
2313.00,0.0023
2312.00,0.0024
2311.00,0.0024
2310.00,0.0024
2309.00,0.0023
2308.00,0.0023
2307.00,0.0022
2306.00,0.0023
2305.00,0.0023
2304.00,0.0023
2303.00,0.0024
2302.00,0.0024
2301.00,0.0024
2300.00,0.0024
2299.00,0.0024
2298.00,0.0025
2297.00,0.0025
2296.00,0.0025
2295.00,0.0025
2294.00,0.0026
2293.00,0.0026
2292.00,0.0027
2291.00,0.0028
2290.00,0.0029
2289.00,0.0030
2288.00,0.0031
2287.00,0.0032
2286.00,0.0033
2285.00,0.0033
2284.00,0.0032
2283.00,0.0031
2282.00,0.0029
2281.00,0.0028
2280.00,0.0028
2279.00,0.0027
2278.00,0.0027
2277.00,0.0026
2276.00,0.0026
2275.00,0.0025
2274.00,0.0024
2273.00,0.0024
2272.00,0.0024
2271.00,0.0023
2270.00,0.0023
2269.00,0.0022
2268.00,0.0022
2267.00,0.0021
2266.00,0.0021
2265.00,0.0021
2264.00,0.0021
2263.00,0.0021
2262.00,0.0022
2261.00,0.0022
2260.00,0.0023
2259.00,0.0023
2258.00,0.0022
2257.00,0.0021
2256.00,0.0020
2255.00,0.0020
2254.00,0.0019
2253.00,0.0018
2252.00,0.0018
2251.00,0.0018
2250.00,0.0018
2249.00,0.0018
2248.00,0.0017
2247.00,0.0017
2246.00,0.0016
2245.00,0.0017
2244.00,0.0019
2243.00,0.0020
2242.00,0.0022
2241.00,0.0022
2240.00,0.0022
2239.00,0.0022
2238.00,0.0021
2237.00,0.0021
2236.00,0.0020
2235.00,0.0020
2234.00,0.0019
2233.00,0.0019
2232.00,0.0018
2231.00,0.0018
2230.00,0.0017
2229.00,0.0016
2228.00,0.0016
2227.00,0.0017
2226.00,0.0018
2225.00,0.0020
2224.00,0.0021
2223.00,0.0021
2222.00,0.0021
2221.00,0.0020
2220.00,0.0019
2219.00,0.0019
2218.00,0.0019
2217.00,0.0019
2216.00,0.0018
2215.00,0.0016
2214.00,0.0015
2213.00,0.0015
2212.00,0.0016
2211.00,0.0016
2210.00,0.0016
2209.00,0.0016
2208.00,0.0015
2207.00,0.0013
2206.00,0.0012
2205.00,0.0012
2204.00,0.0013
2203.00,0.0014
2202.00,0.0015
2201.00,0.0016
2200.00,0.0015
2199.00,0.0013
2198.00,0.0012
2197.00,0.0011
2196.00,0.0012
2195.00,0.0014
2194.00,0.0017
2193.00,0.0020
2192.00,0.0022
2191.00,0.0023
2190.00,0.0024
2189.00,0.0023
2188.00,0.0022
2187.00,0.0021
2186.00,0.0021
2185.00,0.0022
2184.00,0.0022
2183.00,0.0021
2182.00,0.0019
2181.00,0.0016
2180.00,0.0015
2179.00,0.0013
2178.00,0.0012
2177.00,0.0011
2176.00,0.0009
2175.00,0.0008
2174.00,0.0007
2173.00,0.0008
2172.00,0.0011
2171.00,0.0014
2170.00,0.0017
2169.00,0.0019
2168.00,0.0020
2167.00,0.0019
2166.00,0.0017
2165.00,0.0015
2164.00,0.0016
2163.00,0.0017
2162.00,0.0018
2161.00,0.0015
2160.00,0.0005
2159.00,-0.0009
2158.00,-0.0020
2157.00,-0.0023
2156.00,-0.0021
2155.00,-0.0017
2154.00,-0.0013
2153.00,-0.0009
2152.00,-0.0005
2151.00,-0.0002
2150.00,-0.0001
2149.00,-0.0000
2148.00,-0.0001
2147.00,-0.0003
2146.00,-0.0004
2145.00,-0.0004
2144.00,-0.0004
2143.00,-0.0003
2142.00,-0.0002
2141.00,0.0000
2140.00,0.0002
2139.00,0.0002
2138.00,0.0001
2137.00,-0.0002
2136.00,-0.0005
2135.00,-0.0007
2134.00,-0.0008
2133.00,-0.0006
2132.00,-0.0005
2131.00,-0.0003
2130.00,-0.0002
2129.00,-0.0001
2128.00,0.0001
2127.00,0.0003
2126.00,0.0005
2125.00,0.0007
2124.00,0.0009
2123.00,0.0010
2122.00,0.0010
2121.00,0.0010
2120.00,0.0010
2119.00,0.0010
2118.00,0.0012
2117.00,0.0013
2116.00,0.0015
2115.00,0.0015
2114.00,0.0016
2113.00,0.0017
2112.00,0.0017
2111.00,0.0018
2110.00,0.0017
2109.00,0.0016
2108.00,0.0015
2107.00,0.0014
2106.00,0.0012
2105.00,0.0011
2104.00,0.0011
2103.00,0.0012
2102.00,0.0012
2101.00,0.0013
2100.00,0.0014
2099.00,0.0014
2098.00,0.0013
2097.00,0.0013
2096.00,0.0011
2095.00,0.0010
2094.00,0.0009
2093.00,0.0009
2092.00,0.0010
2091.00,0.0011
2090.00,0.0012
2089.00,0.0012
2088.00,0.0012
2087.00,0.0011
2086.00,0.0010
2085.00,0.0010
2084.00,0.0011
2083.00,0.0011
2082.00,0.0011
2081.00,0.0012
2080.00,0.0012
2079.00,0.0013
2078.00,0.0013
2077.00,0.0014
2076.00,0.0014
2075.00,0.0014
2074.00,0.0014
2073.00,0.0014
2072.00,0.0013
2071.00,0.0013
2070.00,0.0012
2069.00,0.0011
2068.00,0.0010
2067.00,0.0010
2066.00,0.0011
2065.00,0.0012
2064.00,0.0014
2063.00,0.0015
2062.00,0.0015
2061.00,0.0014
2060.00,0.0012
2059.00,0.0010
2058.00,0.0009
2057.00,0.0009
2056.00,0.0009
2055.00,0.0010
2054.00,0.0013
2053.00,0.0018
2052.00,0.0023
2051.00,0.0026
2050.00,0.0024
2049.00,0.0020
2048.00,0.0015
2047.00,0.0011
2046.00,0.0009
2045.00,0.0009
2044.00,0.0009
2043.00,0.0009
2042.00,0.0008
2041.00,0.0007
2040.00,0.0007
2039.00,0.0007
2038.00,0.0006
2037.00,0.0007
2036.00,0.0008
2035.00,0.0009
2034.00,0.0008
2033.00,0.0006
2032.00,0.0003
2031.00,0.0001
2030.00,0.0000
2029.00,0.0001
2028.00,0.0003
2027.00,0.0005
2026.00,0.0004
2025.00,0.0003
2024.00,0.0001
2023.00,-0.0001
2022.00,-0.0002
2021.00,-0.0001
2020.00,0.0001
2019.00,0.0002
2018.00,0.0001
2017.00,-0.0001
2016.00,-0.0002
2015.00,-0.0002
2014.00,-0.0003
2013.00,-0.0003
2012.00,-0.0004
2011.00,-0.0004
2010.00,-0.0003
2009.00,-0.0003
2008.00,-0.0004
2007.00,-0.0005
2006.00,-0.0006
2005.00,-0.0005
2004.00,-0.0004
2003.00,-0.0005
2002.00,-0.0006
2001.00,-0.0006
2000.00,-0.0006
1999.00,-0.0006
1998.00,-0.0005
1997.00,-0.0003
1996.00,-0.0001
1995.00,0.0001
1994.00,0.0003
1993.00,0.0004
1992.00,0.0006
1991.00,0.0006
1990.00,0.0006
1989.00,0.0006
1988.00,0.0007
1987.00,0.0008
1986.00,0.0011
1985.00,0.0014
1984.00,0.0019
1983.00,0.0021
1982.00,0.0022
1981.00,0.0022
1980.00,0.0019
1979.00,0.0013
1978.00,0.0005
1977.00,-0.0002
1976.00,-0.0004
1975.00,-0.0002
1974.00,0.0001
1973.00,0.0004
1972.00,0.0004
1971.00,0.0002
1970.00,-0.0001
1969.00,-0.0005
1968.00,-0.0008
1967.00,-0.0008
1966.00,-0.0006
1965.00,-0.0001
1964.00,0.0003
1963.00,0.0004
1962.00,0.0003
1961.00,-0.0001
1960.00,-0.0004
1959.00,-0.0005
1958.00,-0.0003
1957.00,-0.0001
1956.00,0.0001
1955.00,0.0001
1954.00,-0.0000
1953.00,-0.0000
1952.00,0.0001
1951.00,0.0001
1950.00,0.0001
1949.00,0.0000
1948.00,-0.0001
1947.00,-0.0003
1946.00,-0.0004
1945.00,-0.0005
1944.00,-0.0004
1943.00,-0.0002
1942.00,-0.0002
1941.00,-0.0002
1940.00,-0.0001
1939.00,0.0000
1938.00,0.0002
1937.00,0.0003
1936.00,0.0003
1935.00,0.0004
1934.00,0.0005
1933.00,0.0006
1932.00,0.0006
1931.00,0.0006
1930.00,0.0005
1929.00,0.0006
1928.00,0.0006
1927.00,0.0005
1926.00,0.0004
1925.00,0.0004
1924.00,0.0004
1923.00,0.0004
1922.00,0.0004
1921.00,0.0004
1920.00,0.0004
1919.00,0.0004
1918.00,0.0004
1917.00,0.0004
1916.00,0.0005
1915.00,0.0007
1914.00,0.0009
1913.00,0.0010
1912.00,0.0009
1911.00,0.0008
1910.00,0.0006
1909.00,0.0005
1908.00,0.0005
1907.00,0.0006
1906.00,0.0007
1905.00,0.0008
1904.00,0.0009
1903.00,0.0009
1902.00,0.0009
1901.00,0.0008
1900.00,0.0008
1899.00,0.0008
1898.00,0.0008
1897.00,0.0009
1896.00,0.0010
1895.00,0.0010
1894.00,0.0010
1893.00,0.0010
1892.00,0.0009
1891.00,0.0009
1890.00,0.0009
1889.00,0.0009
1888.00,0.0009
1887.00,0.0008
1886.00,0.0008
1885.00,0.0008
1884.00,0.0008
1883.00,0.0009
1882.00,0.0009
1881.00,0.0010
1880.00,0.0010
1879.00,0.0011
1878.00,0.0011
1877.00,0.0011
1876.00,0.0011
1875.00,0.0011
1874.00,0.0011
1873.00,0.0010
1872.00,0.0009
1871.00,0.0008
1870.00,0.0007
1869.00,0.0006
1868.00,0.0007
1867.00,0.0008
1866.00,0.0009
1865.00,0.0010
1864.00,0.0010
1863.00,0.0011
1862.00,0.0011
1861.00,0.0011
1860.00,0.0010
1859.00,0.0009
1858.00,0.0009
1857.00,0.0009
1856.00,0.0010
1855.00,0.0011
1854.00,0.0012
1853.00,0.0013
1852.00,0.0013
1851.00,0.0013
1850.00,0.0012
1849.00,0.0012
1848.00,0.0012
1847.00,0.0012
1846.00,0.0012
1845.00,0.0012
1844.00,0.0012
1843.00,0.0011
1842.00,0.0011
1841.00,0.0010
1840.00,0.0010
1839.00,0.0011
1838.00,0.0012
1837.00,0.0013
1836.00,0.0014
1835.00,0.0015
1834.00,0.0015
1833.00,0.0015
1832.00,0.0015
1831.00,0.0014
1830.00,0.0014
1829.00,0.0014
1828.00,0.0015
1827.00,0.0015
1826.00,0.0015
1825.00,0.0015
1824.00,0.0015
1823.00,0.0015
1822.00,0.0015
1821.00,0.0014
1820.00,0.0013
1819.00,0.0012
1818.00,0.0011
1817.00,0.0011
1816.00,0.0012
1815.00,0.0013
1814.00,0.0013
1813.00,0.0014
1812.00,0.0014
1811.00,0.0015
1810.00,0.0015
1809.00,0.0015
1808.00,0.0016
1807.00,0.0016
1806.00,0.0016
1805.00,0.0017
1804.00,0.0017
1803.00,0.0017
1802.00,0.0017
1801.00,0.0018
1800.00,0.0018
1799.00,0.0018
1798.00,0.0018
1797.00,0.0018
1796.00,0.0018
1795.00,0.0017
1794.00,0.0017
1793.00,0.0018
1792.00,0.0019
1791.00,0.0019
1790.00,0.0019
1789.00,0.0019
1788.00,0.0019
1787.00,0.0019
1786.00,0.0020
1785.00,0.0021
1784.00,0.0021
1783.00,0.0021
1782.00,0.0021
1781.00,0.0021
1780.00,0.0021
1779.00,0.0021
1778.00,0.0021
1777.00,0.0021
1776.00,0.0021
1775.00,0.0021
1774.00,0.0021
1773.00,0.0021
1772.00,0.0022
1771.00,0.0022
1770.00,0.0023
1769.00,0.0023
1768.00,0.0023
1767.00,0.0023
1766.00,0.0023
1765.00,0.0023
1764.00,0.0024
1763.00,0.0024
1762.00,0.0025
1761.00,0.0025
1760.00,0.0025
1759.00,0.0026
1758.00,0.0026
1757.00,0.0027
1756.00,0.0027
1755.00,0.0028
1754.00,0.0028
1753.00,0.0029
1752.00,0.0030
1751.00,0.0031
1750.00,0.0031
1749.00,0.0032
1748.00,0.0032
1747.00,0.0033
1746.00,0.0033
1745.00,0.0034
1744.00,0.0035
1743.00,0.0035
1742.00,0.0036
1741.00,0.0037
1740.00,0.0037
1739.00,0.0037
1738.00,0.0037
1737.00,0.0037
1736.00,0.0037
1735.00,0.0038
1734.00,0.0038
1733.00,0.0038
1732.00,0.0038
1731.00,0.0038
1730.00,0.0038
1729.00,0.0038
1728.00,0.0038
1727.00,0.0038
1726.00,0.0038
1725.00,0.0038
1724.00,0.0039
1723.00,0.0039
1722.00,0.0039
1721.00,0.0039
1720.00,0.0039
1719.00,0.0039
1718.00,0.0039
1717.00,0.0039
1716.00,0.0040
1715.00,0.0041
1714.00,0.0041
1713.00,0.0042
1712.00,0.0042
1711.00,0.0043
1710.00,0.0044
1709.00,0.0044
1708.00,0.0046
1707.00,0.0047
1706.00,0.0048
1705.00,0.0049
1704.00,0.0050
1703.00,0.0051
1702.00,0.0053
1701.00,0.0055
1700.00,0.0058
1699.00,0.0060
1698.00,0.0061
1697.00,0.0063
1696.00,0.0066
1695.00,0.0069
1694.00,0.0070
1693.00,0.0071
1692.00,0.0073
1691.00,0.0074
1690.00,0.0075
1689.00,0.0076
1688.00,0.0076
1687.00,0.0077
1686.00,0.0079
1685.00,0.0080
1684.00,0.0082
1683.00,0.0082
1682.00,0.0082
1681.00,0.0082
1680.00,0.0083
1679.00,0.0084
1678.00,0.0085
1677.00,0.0086
1676.00,0.0087
1675.00,0.0088
1674.00,0.0089
1673.00,0.0089
1672.00,0.0089
1671.00,0.0089
1670.00,0.0089
1669.00,0.0090
1668.00,0.0091
1667.00,0.0092
1666.00,0.0092
1665.00,0.0093
1664.00,0.0095
1663.00,0.0096
1662.00,0.0096
1661.00,0.0096
1660.00,0.0096
1659.00,0.0097
1658.00,0.0097
1657.00,0.0098
1656.00,0.0098
1655.00,0.0099
1654.00,0.0101
1653.00,0.0105
1652.00,0.0108
1651.00,0.0109
1650.00,0.0110
1649.00,0.0111
1648.00,0.0114
1647.00,0.0116
1646.00,0.0118
1645.00,0.0119
1644.00,0.0118
1643.00,0.0117
1642.00,0.0115
1641.00,0.0114
1640.00,0.0112
1639.00,0.0111
1638.00,0.0109
1637.00,0.0108
1636.00,0.0108
1635.00,0.0109
1634.00,0.0109
1633.00,0.0108
1632.00,0.0108
1631.00,0.0108
1630.00,0.0108
1629.00,0.0107
1628.00,0.0106
1627.00,0.0104
1626.00,0.0103
1625.00,0.0101
1624.00,0.0100
1623.00,0.0099
1622.00,0.0098
1621.00,0.0097
1620.00,0.0096
1619.00,0.0095
1618.00,0.0094
1617.00,0.0093
1616.00,0.0093
1615.00,0.0093
1614.00,0.0092
1613.00,0.0092
1612.00,0.0092
1611.00,0.0091
1610.00,0.0091
1609.00,0.0091
1608.00,0.0091
1607.00,0.0090
1606.00,0.0089
1605.00,0.0089
1604.00,0.0088
1603.00,0.0088
1602.00,0.0087
1601.00,0.0087
1600.00,0.0087
1599.00,0.0087
1598.00,0.0087
1597.00,0.0087
1596.00,0.0087
1595.00,0.0086
1594.00,0.0086
1593.00,0.0086
1592.00,0.0087
1591.00,0.0087
1590.00,0.0088
1589.00,0.0089
1588.00,0.0090
1587.00,0.0091
1586.00,0.0093
1585.00,0.0095
1584.00,0.0097
1583.00,0.0100
1582.00,0.0102
1581.00,0.0105
1580.00,0.0106
1579.00,0.0108
1578.00,0.0108
1577.00,0.0109
1576.00,0.0109
1575.00,0.0108
1574.00,0.0107
1573.00,0.0106
1572.00,0.0104
1571.00,0.0101
1570.00,0.0098
1569.00,0.0095
1568.00,0.0094
1567.00,0.0093
1566.00,0.0093
1565.00,0.0093
1564.00,0.0092
1563.00,0.0092
1562.00,0.0091
1561.00,0.0092
1560.00,0.0092
1559.00,0.0091
1558.00,0.0092
1557.00,0.0094
1556.00,0.0096
1555.00,0.0097
1554.00,0.0099
1553.00,0.0100
1552.00,0.0102
1551.00,0.0104
1550.00,0.0106
1549.00,0.0108
1548.00,0.0110
1547.00,0.0112
1546.00,0.0116
1545.00,0.0120
1544.00,0.0124
1543.00,0.0126
1542.00,0.0127
1541.00,0.0127
1540.00,0.0125
1539.00,0.0123
1538.00,0.0120
1537.00,0.0118
1536.00,0.0116
1535.00,0.0112
1534.00,0.0107
1533.00,0.0103
1532.00,0.0099
1531.00,0.0097
1530.00,0.0095
1529.00,0.0095
1528.00,0.0094
1527.00,0.0092
1526.00,0.0089
1525.00,0.0087
1524.00,0.0086
1523.00,0.0086
1522.00,0.0086
1521.00,0.0086
1520.00,0.0087
1519.00,0.0087
1518.00,0.0087
1517.00,0.0088
1516.00,0.0089
1515.00,0.0089
1514.00,0.0089
1513.00,0.0090
1512.00,0.0091
1511.00,0.0092
1510.00,0.0092
1509.00,0.0093
1508.00,0.0093
1507.00,0.0093
1506.00,0.0094
1505.00,0.0095
1504.00,0.0097
1503.00,0.0099
1502.00,0.0101
1501.00,0.0104
1500.00,0.0107
1499.00,0.0110
1498.00,0.0112
1497.00,0.0116
1496.00,0.0121
1495.00,0.0125
1494.00,0.0127
1493.00,0.0131
1492.00,0.0135
1491.00,0.0140
1490.00,0.0145
1489.00,0.0152
1488.00,0.0160
1487.00,0.0167
1486.00,0.0175
1485.00,0.0184
1484.00,0.0195
1483.00,0.0206
1482.00,0.0219
1481.00,0.0234
1480.00,0.0250
1479.00,0.0266
1478.00,0.0283
1477.00,0.0305
1476.00,0.0331
1475.00,0.0359
1474.00,0.0395
1473.00,0.0447
1472.00,0.0508
1471.00,0.0565
1470.00,0.0618
1469.00,0.0674
1468.00,0.0734
1467.00,0.0799
1466.00,0.0874
1465.00,0.0956
1464.00,0.1027
1463.00,0.1076
1462.00,0.1106
1461.00,0.1127
1460.00,0.1141
1459.00,0.1149
1458.00,0.1153
1457.00,0.1153
1456.00,0.1147
1455.00,0.1138
1454.00,0.1126
1453.00,0.1110
1452.00,0.1087
1451.00,0.1055
1450.00,0.1011
1449.00,0.0952
1448.00,0.0877
1447.00,0.0798
1446.00,0.0727
1445.00,0.0666
1444.00,0.0614
1443.00,0.0570
1442.00,0.0536
1441.00,0.0512
1440.00,0.0497
1439.00,0.0490
1438.00,0.0491
1437.00,0.0492
1436.00,0.0485
1435.00,0.0464
1434.00,0.0433
1433.00,0.0396
1432.00,0.0357
1431.00,0.0322
1430.00,0.0295
1429.00,0.0275
1428.00,0.0261
1427.00,0.0253
1426.00,0.0249
1425.00,0.0245
1424.00,0.0241
1423.00,0.0239
1422.00,0.0237
1421.00,0.0236
1420.00,0.0234
1419.00,0.0233
1418.00,0.0231
1417.00,0.0228
1416.00,0.0225
1415.00,0.0222
1414.00,0.0220
1413.00,0.0218
1412.00,0.0216
1411.00,0.0214
1410.00,0.0213
1409.00,0.0211
1408.00,0.0208
1407.00,0.0207
1406.00,0.0205
1405.00,0.0203
1404.00,0.0201
1403.00,0.0200
1402.00,0.0199
1401.00,0.0199
1400.00,0.0199
1399.00,0.0200
1398.00,0.0201
1397.00,0.0203
1396.00,0.0204
1395.00,0.0207
1394.00,0.0211
1393.00,0.0214
1392.00,0.0219
1391.00,0.0225
1390.00,0.0235
1389.00,0.0249
1388.00,0.0268
1387.00,0.0296
1386.00,0.0333
1385.00,0.0382
1384.00,0.0448
1383.00,0.0541
1382.00,0.0666
1381.00,0.0828
1380.00,0.1032
1379.00,0.1270
1378.00,0.1509
1377.00,0.1697
1376.00,0.1782
1375.00,0.1726
1374.00,0.1544
1373.00,0.1307
1372.00,0.1082
1371.00,0.0892
1370.00,0.0737
1369.00,0.0618
1368.00,0.0534
1367.00,0.0482
1366.00,0.0452
1365.00,0.0438
1364.00,0.0437
1363.00,0.0446
1362.00,0.0462
1361.00,0.0480
1360.00,0.0493
1359.00,0.0495
1358.00,0.0484
1357.00,0.0461
1356.00,0.0428
1355.00,0.0392
1354.00,0.0357
1353.00,0.0327
1352.00,0.0303
1351.00,0.0285
1350.00,0.0270
1349.00,0.0258
1348.00,0.0247
1347.00,0.0239
1346.00,0.0232
1345.00,0.0226
1344.00,0.0222
1343.00,0.0219
1342.00,0.0216
1341.00,0.0215
1340.00,0.0214
1339.00,0.0213
1338.00,0.0213
1337.00,0.0212
1336.00,0.0213
1335.00,0.0214
1334.00,0.0216
1333.00,0.0219
1332.00,0.0223
1331.00,0.0226
1330.00,0.0227
1329.00,0.0226
1328.00,0.0223
1327.00,0.0219
1326.00,0.0214
1325.00,0.0210
1324.00,0.0205
1323.00,0.0202
1322.00,0.0200
1321.00,0.0198
1320.00,0.0198
1319.00,0.0198
1318.00,0.0197
1317.00,0.0197
1316.00,0.0197
1315.00,0.0196
1314.00,0.0196
1313.00,0.0195
1312.00,0.0195
1311.00,0.0196
1310.00,0.0197
1309.00,0.0200
1308.00,0.0204
1307.00,0.0210
1306.00,0.0215
1305.00,0.0219
1304.00,0.0220
1303.00,0.0218
1302.00,0.0214
1301.00,0.0211
1300.00,0.0209
1299.00,0.0208
1298.00,0.0208
1297.00,0.0208
1296.00,0.0208
1295.00,0.0206
1294.00,0.0202
1293.00,0.0198
1292.00,0.0194
1291.00,0.0190
1290.00,0.0187
1289.00,0.0183
1288.00,0.0180
1287.00,0.0177
1286.00,0.0174
1285.00,0.0172
1284.00,0.0169
1283.00,0.0167
1282.00,0.0165
1281.00,0.0163
1280.00,0.0162
1279.00,0.0161
1278.00,0.0160
1277.00,0.0159
1276.00,0.0159
1275.00,0.0158
1274.00,0.0159
1273.00,0.0160
1272.00,0.0161
1271.00,0.0162
1270.00,0.0164
1269.00,0.0166
1268.00,0.0169
1267.00,0.0172
1266.00,0.0175
1265.00,0.0178
1264.00,0.0180
1263.00,0.0181
1262.00,0.0182
1261.00,0.0183
1260.00,0.0185
1259.00,0.0187
1258.00,0.0189
1257.00,0.0191
1256.00,0.0190
1255.00,0.0186
1254.00,0.0180
1253.00,0.0173
1252.00,0.0166
1251.00,0.0160
1250.00,0.0156
1249.00,0.0153
1248.00,0.0151
1247.00,0.0149
1246.00,0.0148
1245.00,0.0147
1244.00,0.0146
1243.00,0.0145
1242.00,0.0144
1241.00,0.0144
1240.00,0.0143
1239.00,0.0142
1238.00,0.0141
1237.00,0.0140
1236.00,0.0140
1235.00,0.0141
1234.00,0.0141
1233.00,0.0141
1232.00,0.0142
1231.00,0.0142
1230.00,0.0142
1229.00,0.0143
1228.00,0.0145
1227.00,0.0147
1226.00,0.0150
1225.00,0.0154
1224.00,0.0160
1223.00,0.0166
1222.00,0.0172
1221.00,0.0178
1220.00,0.0183
1219.00,0.0187
1218.00,0.0190
1217.00,0.0192
1216.00,0.0193
1215.00,0.0194
1214.00,0.0194
1213.00,0.0193
1212.00,0.0192
1211.00,0.0191
1210.00,0.0191
1209.00,0.0191
1208.00,0.0190
1207.00,0.0191
1206.00,0.0192
1205.00,0.0193
1204.00,0.0195
1203.00,0.0196
1202.00,0.0198
1201.00,0.0200
1200.00,0.0201
1199.00,0.0202
1198.00,0.0204
1197.00,0.0205
1196.00,0.0206
1195.00,0.0207
1194.00,0.0208
1193.00,0.0208
1192.00,0.0209
1191.00,0.0209
1190.00,0.0210
1189.00,0.0210
1188.00,0.0209
1187.00,0.0209
1186.00,0.0209
1185.00,0.0208
1184.00,0.0209
1183.00,0.0209
1182.00,0.0211
1181.00,0.0215
1180.00,0.0218
1179.00,0.0223
1178.00,0.0229
1177.00,0.0237
1176.00,0.0247
1175.00,0.0260
1174.00,0.0276
1173.00,0.0296
1172.00,0.0320
1171.00,0.0347
1170.00,0.0373
1169.00,0.0396
1168.00,0.0413
1167.00,0.0422
1166.00,0.0424
1165.00,0.0422
1164.00,0.0419
1163.00,0.0416
1162.00,0.0416
1161.00,0.0417
1160.00,0.0420
1159.00,0.0423
1158.00,0.0428
1157.00,0.0434
1156.00,0.0441
1155.00,0.0448
1154.00,0.0454
1153.00,0.0459
1152.00,0.0460
1151.00,0.0459
1150.00,0.0456
1149.00,0.0451
1148.00,0.0446
1147.00,0.0441
1146.00,0.0436
1145.00,0.0432
1144.00,0.0428
1143.00,0.0425
1142.00,0.0423
1141.00,0.0423
1140.00,0.0424
1139.00,0.0426
1138.00,0.0429
1137.00,0.0433
1136.00,0.0439
1135.00,0.0447
1134.00,0.0456
1133.00,0.0465
1132.00,0.0475
1131.00,0.0485
1130.00,0.0496
1129.00,0.0506
1128.00,0.0517
1127.00,0.0527
1126.00,0.0537
1125.00,0.0545
1124.00,0.0552
1123.00,0.0559
1122.00,0.0565
1121.00,0.0572
1120.00,0.0578
1119.00,0.0583
1118.00,0.0587
1117.00,0.0592
1116.00,0.0596
1115.00,0.0600
1114.00,0.0603
1113.00,0.0605
1112.00,0.0607
1111.00,0.0609
1110.00,0.0611
1109.00,0.0613
1108.00,0.0617
1107.00,0.0622
1106.00,0.0628
1105.00,0.0633
1104.00,0.0638
1103.00,0.0641
1102.00,0.0640
1101.00,0.0638
1100.00,0.0633
1099.00,0.0627
1098.00,0.0622
1097.00,0.0617
1096.00,0.0613
1095.00,0.0610
1094.00,0.0609
1093.00,0.0608
1092.00,0.0609
1091.00,0.0611
1090.00,0.0613
1089.00,0.0617
1088.00,0.0620
1087.00,0.0625
1086.00,0.0631
1085.00,0.0637
1084.00,0.0644
1083.00,0.0651
1082.00,0.0657
1081.00,0.0662
1080.00,0.0667
1079.00,0.0672
1078.00,0.0677
1077.00,0.0682
1076.00,0.0686
1075.00,0.0690
1074.00,0.0693
1073.00,0.0695
1072.00,0.0697
1071.00,0.0699
1070.00,0.0702
1069.00,0.0705
1068.00,0.0709
1067.00,0.0711
1066.00,0.0712
1065.00,0.0714
1064.00,0.0716
1063.00,0.0717
1062.00,0.0717
1061.00,0.0717
1060.00,0.0716
1059.00,0.0714
1058.00,0.0711
1057.00,0.0707
1056.00,0.0703
1055.00,0.0700
1054.00,0.0695
1053.00,0.0691
1052.00,0.0686
1051.00,0.0680
1050.00,0.0672
1049.00,0.0665
1048.00,0.0658
1047.00,0.0652
1046.00,0.0646
1045.00,0.0639
1044.00,0.0630
1043.00,0.0621
1042.00,0.0611
1041.00,0.0601
1040.00,0.0593
1039.00,0.0585
1038.00,0.0578
1037.00,0.0572
1036.00,0.0566
1035.00,0.0559
1034.00,0.0551
1033.00,0.0542
1032.00,0.0533
1031.00,0.0524
1030.00,0.0516
1029.00,0.0509
1028.00,0.0502
1027.00,0.0495
1026.00,0.0488
1025.00,0.0480
1024.00,0.0473
1023.00,0.0466
1022.00,0.0459
1021.00,0.0452
1020.00,0.0444
1019.00,0.0438
1018.00,0.0432
1017.00,0.0426
1016.00,0.0421
1015.00,0.0415
1014.00,0.0408
1013.00,0.0402
1012.00,0.0396
1011.00,0.0390
1010.00,0.0384
1009.00,0.0377
1008.00,0.0371
1007.00,0.0367
1006.00,0.0364
1005.00,0.0364
1004.00,0.0368
1003.00,0.0376
1002.00,0.0390
1001.00,0.0410
1000.00,0.0431
999.00,0.0447
998.00,0.0452
997.00,0.0440
996.00,0.0414
995.00,0.0380
994.00,0.0346
993.00,0.0315
992.00,0.0290
991.00,0.0271
990.00,0.0257
989.00,0.0247
988.00,0.0239
987.00,0.0233
986.00,0.0229
985.00,0.0227
984.00,0.0226
983.00,0.0228
982.00,0.0234
981.00,0.0245
980.00,0.0261
979.00,0.0283
978.00,0.0310
977.00,0.0342
976.00,0.0375
975.00,0.0405
974.00,0.0427
973.00,0.0433
972.00,0.0420
971.00,0.0392
970.00,0.0356
969.00,0.0320
968.00,0.0290
967.00,0.0269
966.00,0.0254
965.00,0.0245
964.00,0.0241
963.00,0.0239
962.00,0.0238
961.00,0.0240
960.00,0.0242
959.00,0.0245
958.00,0.0248
957.00,0.0250
956.00,0.0252
955.00,0.0254
954.00,0.0256
953.00,0.0258
952.00,0.0260
951.00,0.0263
950.00,0.0265
949.00,0.0266
948.00,0.0267
947.00,0.0266
946.00,0.0266
945.00,0.0266
944.00,0.0265
943.00,0.0265
942.00,0.0263
941.00,0.0259
940.00,0.0254
939.00,0.0246
938.00,0.0237
937.00,0.0226
936.00,0.0216
935.00,0.0208
934.00,0.0202
933.00,0.0197
932.00,0.0193
931.00,0.0190
930.00,0.0188
929.00,0.0185
928.00,0.0183
927.00,0.0180
926.00,0.0178
925.00,0.0176
924.00,0.0173
923.00,0.0171
922.00,0.0169
921.00,0.0166
920.00,0.0163
919.00,0.0161
918.00,0.0159
917.00,0.0158
916.00,0.0157
915.00,0.0156
914.00,0.0155
913.00,0.0155
912.00,0.0155
911.00,0.0156
910.00,0.0158
909.00,0.0159
908.00,0.0160
907.00,0.0163
906.00,0.0168
905.00,0.0176
904.00,0.0189
903.00,0.0205
902.00,0.0223
901.00,0.0240
900.00,0.0250
899.00,0.0252
898.00,0.0245
897.00,0.0231
896.00,0.0213
895.00,0.0196
894.00,0.0181
893.00,0.0171
892.00,0.0163
891.00,0.0157
890.00,0.0153
889.00,0.0149
888.00,0.0145
887.00,0.0143
886.00,0.0142
885.00,0.0140
884.00,0.0138
883.00,0.0135
882.00,0.0134
881.00,0.0132
880.00,0.0133
879.00,0.0134
878.00,0.0135
877.00,0.0136
876.00,0.0135
875.00,0.0135
874.00,0.0134
873.00,0.0132
872.00,0.0129
871.00,0.0126
870.00,0.0124
869.00,0.0123
868.00,0.0123
867.00,0.0122
866.00,0.0122
865.00,0.0122
864.00,0.0123
863.00,0.0124
862.00,0.0126
861.00,0.0128
860.00,0.0129
859.00,0.0130
858.00,0.0132
857.00,0.0134
856.00,0.0136
855.00,0.0137
854.00,0.0138
853.00,0.0139
852.00,0.0141
851.00,0.0143
850.00,0.0146
849.00,0.0151
848.00,0.0158
847.00,0.0167
846.00,0.0182
845.00,0.0203
844.00,0.0233
843.00,0.0267
842.00,0.0295
841.00,0.0304
840.00,0.0288
839.00,0.0255
838.00,0.0220
837.00,0.0192
836.00,0.0174
835.00,0.0164
834.00,0.0158
833.00,0.0153
832.00,0.0150
831.00,0.0146
830.00,0.0145
829.00,0.0145
828.00,0.0147
827.00,0.0148
826.00,0.0150
825.00,0.0151
824.00,0.0152
823.00,0.0152
822.00,0.0153
821.00,0.0154
820.00,0.0156
819.00,0.0158
818.00,0.0162
817.00,0.0167
816.00,0.0176
815.00,0.0187
814.00,0.0202
813.00,0.0221
812.00,0.0240
811.00,0.0258
810.00,0.0271
809.00,0.0276
808.00,0.0273
807.00,0.0262
806.00,0.0246
805.00,0.0229
804.00,0.0213
803.00,0.0199
802.00,0.0188
801.00,0.0180
800.00,0.0175
799.00,0.0171
798.00,0.0167
797.00,0.0163
796.00,0.0159
795.00,0.0155
794.00,0.0151
793.00,0.0147
792.00,0.0145
791.00,0.0144
790.00,0.0142
789.00,0.0140
788.00,0.0137
787.00,0.0134
786.00,0.0133
785.00,0.0132
784.00,0.0131
783.00,0.0129
782.00,0.0128
781.00,0.0127
780.00,0.0126
779.00,0.0126
778.00,0.0126
777.00,0.0127
776.00,0.0129
775.00,0.0129
774.00,0.0129
773.00,0.0127
772.00,0.0126
771.00,0.0125
770.00,0.0126
769.00,0.0126
768.00,0.0126
767.00,0.0125
766.00,0.0123
765.00,0.0122
764.00,0.0121
763.00,0.0120
762.00,0.0120
761.00,0.0122
760.00,0.0124
759.00,0.0124
758.00,0.0124
757.00,0.0124
756.00,0.0123
755.00,0.0123
754.00,0.0123
753.00,0.0123
752.00,0.0124
751.00,0.0125
750.00,0.0127
749.00,0.0128
748.00,0.0127
747.00,0.0128
746.00,0.0130
745.00,0.0133
744.00,0.0137
743.00,0.0139
742.00,0.0140
741.00,0.0141
740.00,0.0143
739.00,0.0147
738.00,0.0151
737.00,0.0155
736.00,0.0160
735.00,0.0164
734.00,0.0169
733.00,0.0174
732.00,0.0181
731.00,0.0189
730.00,0.0194
729.00,0.0197
728.00,0.0198
727.00,0.0199
726.00,0.0201
725.00,0.0205
724.00,0.0211
723.00,0.0218
722.00,0.0225
721.00,0.0230
720.00,0.0230
719.00,0.0223
718.00,0.0212
717.00,0.0201
716.00,0.0193
715.00,0.0187
714.00,0.0183
713.00,0.0180
712.00,0.0178
711.00,0.0175
710.00,0.0173
709.00,0.0171
708.00,0.0168
707.00,0.0168
706.00,0.0168
705.00,0.0168
704.00,0.0167
703.00,0.0165
702.00,0.0162
701.00,0.0159
700.00,0.0157
699.00,0.0156
698.00,0.0156
697.00,0.0155
696.00,0.0153
695.00,0.0152
694.00,0.0151
693.00,0.0152
692.00,0.0153
691.00,0.0156
690.00,0.0158
689.00,0.0159
688.00,0.0160
687.00,0.0161
686.00,0.0161
685.00,0.0161
684.00,0.0162
683.00,0.0164
682.00,0.0167
681.00,0.0170
680.00,0.0171
679.00,0.0173
678.00,0.0174
677.00,0.0176
676.00,0.0177
675.00,0.0179
674.00,0.0183
673.00,0.0187
672.00,0.0190
671.00,0.0193
670.00,0.0196
669.00,0.0197
668.00,0.0198
667.00,0.0201
666.00,0.0203
665.00,0.0203
664.00,0.0202
663.00,0.0200
662.00,0.0200
661.00,0.0201
660.00,0.0201
659.00,0.0199
658.00,0.0197
657.00,0.0196
656.00,0.0195
655.00,0.0196
654.00,0.0197
653.00,0.0198
652.00,0.0200
651.00,0.0202
650.00,0.0204
649.00,0.0205
648.00,0.0205
647.00,0.0205
646.00,0.0204
645.00,0.0203
644.00,0.0202
643.00,0.0202
642.00,0.0202
641.00,0.0204
640.00,0.0205
639.00,0.0205
638.00,0.0205
637.00,0.0205
636.00,0.0207
635.00,0.0209
634.00,0.0209
633.00,0.0208
632.00,0.0207
631.00,0.0207
630.00,0.0209
629.00,0.0210
628.00,0.0212
627.00,0.0213
626.00,0.0214
625.00,0.0217
624.00,0.0219
623.00,0.0220
622.00,0.0220
621.00,0.0221
620.00,0.0223
619.00,0.0224
618.00,0.0225
617.00,0.0225
616.00,0.0225
615.00,0.0226
614.00,0.0227
613.00,0.0229
612.00,0.0230
611.00,0.0231
610.00,0.0230
609.00,0.0229
608.00,0.0228
607.00,0.0227
606.00,0.0227
605.00,0.0227
604.00,0.0227
603.00,0.0226
602.00,0.0226
601.00,0.0224
600.00,0.0224
599.00,0.0226
598.00,0.0230
597.00,0.0234
596.00,0.0237
595.00,0.0238
594.00,0.0236
593.00,0.0234
592.00,0.0233
591.00,0.0233
590.00,0.0235
589.00,0.0237
588.00,0.0238
587.00,0.0238
586.00,0.0238
585.00,0.0238
584.00,0.0238
583.00,0.0237
582.00,0.0235
581.00,0.0233
580.00,0.0232
579.00,0.0233
578.00,0.0236
577.00,0.0238
576.00,0.0241
575.00,0.0242
574.00,0.0242
573.00,0.0241
572.00,0.0240
571.00,0.0241
570.00,0.0243
569.00,0.0245
568.00,0.0244
567.00,0.0242
566.00,0.0240
565.00,0.0239
564.00,0.0240
563.00,0.0240
562.00,0.0238
561.00,0.0234
560.00,0.0232
559.00,0.0231
558.00,0.0232
557.00,0.0232
556.00,0.0232
555.00,0.0231
554.00,0.0230
553.00,0.0229
552.00,0.0229
551.00,0.0228
550.00,0.0229
549.00,0.0230
548.00,0.0232
547.00,0.0234
546.00,0.0235
545.00,0.0235
544.00,0.0233
543.00,0.0231
542.00,0.0229
541.00,0.0229
540.00,0.0233
539.00,0.0239
538.00,0.0244
537.00,0.0245
536.00,0.0243
535.00,0.0239
534.00,0.0237
533.00,0.0237
532.00,0.0239
531.00,0.0240
530.00,0.0240
529.00,0.0238
528.00,0.0238
527.00,0.0238
526.00,0.0237
525.00,0.0235
524.00,0.0233
523.00,0.0231
522.00,0.0230
521.00,0.0229
520.00,0.0227
519.00,0.0225
518.00,0.0221
517.00,0.0218
516.00,0.0217
515.00,0.0221
514.00,0.0226
513.00,0.0228
512.00,0.0224
511.00,0.0217
510.00,0.0211
509.00,0.0211
508.00,0.0215
507.00,0.0219
506.00,0.0221
505.00,0.0221
504.00,0.0220
503.00,0.0219
502.00,0.0217
501.00,0.0216
500.00,0.0216
499.00,0.0219
498.00,0.0221
497.00,0.0220
496.00,0.0215
495.00,0.0209
494.00,0.0207
493.00,0.0209
492.00,0.0211
491.00,0.0210
490.00,0.0208
489.00,0.0207
488.00,0.0208
487.00,0.0209
486.00,0.0210
485.00,0.0210
484.00,0.0211
483.00,0.0211
482.00,0.0209
481.00,0.0209
480.00,0.0212
479.00,0.0219
478.00,0.0227
477.00,0.0232
476.00,0.0234
475.00,0.0233
474.00,0.0232
473.00,0.0229
472.00,0.0225
471.00,0.0223
470.00,0.0224
469.00,0.0226
468.00,0.0229
467.00,0.0232
466.00,0.0237
465.00,0.0242
464.00,0.0246
463.00,0.0248
462.00,0.0252
461.00,0.0259
460.00,0.0265
459.00,0.0265
458.00,0.0261
457.00,0.0261
456.00,0.0264
455.00,0.0262
454.00,0.0252
453.00,0.0240
452.00,0.0233
451.00,0.0229
450.00,0.0222
