Created as New Dataset,Sample 221 By Administrator Date Tuesday, September 09 2025
cm-1,A
4000.00,0.0011
3999.00,0.0012
3998.00,0.0012
3997.00,0.0012
3996.00,0.0012
3995.00,0.0012
3994.00,0.0012
3993.00,0.0012
3992.00,0.0012
3991.00,0.0012
3990.00,0.0012
3989.00,0.0012
3988.00,0.0012
3987.00,0.0011
3986.00,0.0011
3985.00,0.0010
3984.00,0.0010
3983.00,0.0010
3982.00,0.0010
3981.00,0.0010
3980.00,0.0010
3979.00,0.0010
3978.00,0.0010
3977.00,0.0010
3976.00,0.0010
3975.00,0.0010
3974.00,0.0009
3973.00,0.0009
3972.00,0.0009
3971.00,0.0009
3970.00,0.0009
3969.00,0.0009
3968.00,0.0009
3967.00,0.0010
3966.00,0.0010
3965.00,0.0011
3964.00,0.0011
3963.00,0.0010
3962.00,0.0010
3961.00,0.0010
3960.00,0.0009
3959.00,0.0009
3958.00,0.0009
3957.00,0.0010
3956.00,0.0010
3955.00,0.0010
3954.00,0.0010
3953.00,0.0010
3952.00,0.0010
3951.00,0.0010
3950.00,0.0010
3949.00,0.0009
3948.00,0.0009
3947.00,0.0009
3946.00,0.0009
3945.00,0.0009
3944.00,0.0009
3943.00,0.0009
3942.00,0.0009
3941.00,0.0009
3940.00,0.0010
3939.00,0.0010
3938.00,0.0010
3937.00,0.0010
3936.00,0.0011
3935.00,0.0011
3934.00,0.0011
3933.00,0.0011
3932.00,0.0011
3931.00,0.0011
3930.00,0.0011
3929.00,0.0010
3928.00,0.0010
3927.00,0.0010
3926.00,0.0010
3925.00,0.0009
3924.00,0.0009
3923.00,0.0009
3922.00,0.0009
3921.00,0.0009
3920.00,0.0010
3919.00,0.0010
3918.00,0.0011
3917.00,0.0011
3916.00,0.0011
3915.00,0.0011
3914.00,0.0010
3913.00,0.0010
3912.00,0.0010
3911.00,0.0009
3910.00,0.0009
3909.00,0.0009
3908.00,0.0009
3907.00,0.0009
3906.00,0.0009
3905.00,0.0009
3904.00,0.0009
3903.00,0.0010
3902.00,0.0010
3901.00,0.0010
3900.00,0.0010
3899.00,0.0010
3898.00,0.0010
3897.00,0.0009
3896.00,0.0009
3895.00,0.0009
3894.00,0.0009
3893.00,0.0009
3892.00,0.0009
3891.00,0.0009
3890.00,0.0009
3889.00,0.0010
3888.00,0.0010
3887.00,0.0010
3886.00,0.0010
3885.00,0.0010
3884.00,0.0009
3883.00,0.0009
3882.00,0.0009
3881.00,0.0009
3880.00,0.0010
3879.00,0.0010
3878.00,0.0009
3877.00,0.0009
3876.00,0.0009
3875.00,0.0009
3874.00,0.0009
3873.00,0.0008
3872.00,0.0008
3871.00,0.0008
3870.00,0.0008
3869.00,0.0008
3868.00,0.0008
3867.00,0.0009
3866.00,0.0009
3865.00,0.0009
3864.00,0.0008
3863.00,0.0008
3862.00,0.0008
3861.00,0.0009
3860.00,0.0009
3859.00,0.0009
3858.00,0.0009
3857.00,0.0009
3856.00,0.0009
3855.00,0.0008
3854.00,0.0007
3853.00,0.0007
3852.00,0.0007
3851.00,0.0007
3850.00,0.0008
3849.00,0.0008
3848.00,0.0008
3847.00,0.0008
3846.00,0.0008
3845.00,0.0008
3844.00,0.0008
3843.00,0.0008
3842.00,0.0007
3841.00,0.0007
3840.00,0.0007
3839.00,0.0008
3838.00,0.0008
3837.00,0.0009
3836.00,0.0009
3835.00,0.0009
3834.00,0.0009
3833.00,0.0009
3832.00,0.0009
3831.00,0.0009
3830.00,0.0009
3829.00,0.0009
3828.00,0.0008
3827.00,0.0008
3826.00,0.0008
3825.00,0.0009
3824.00,0.0009
3823.00,0.0009
3822.00,0.0009
3821.00,0.0008
3820.00,0.0008
3819.00,0.0008
3818.00,0.0008
3817.00,0.0008
3816.00,0.0008
3815.00,0.0009
3814.00,0.0009
3813.00,0.0009
3812.00,0.0009
3811.00,0.0010
3810.00,0.0010
3809.00,0.0010
3808.00,0.0009
3807.00,0.0009
3806.00,0.0008
3805.00,0.0008
3804.00,0.0007
3803.00,0.0006
3802.00,0.0006
3801.00,0.0006
3800.00,0.0007
3799.00,0.0007
3798.00,0.0008
3797.00,0.0008
3796.00,0.0008
3795.00,0.0008
3794.00,0.0009
3793.00,0.0009
3792.00,0.0009
3791.00,0.0010
3790.00,0.0010
3789.00,0.0010
3788.00,0.0010
3787.00,0.0010
3786.00,0.0010
3785.00,0.0010
3784.00,0.0010
3783.00,0.0009
3782.00,0.0009
3781.00,0.0009
3780.00,0.0009
3779.00,0.0009
3778.00,0.0009
3777.00,0.0009
3776.00,0.0009
3775.00,0.0009
3774.00,0.0009
3773.00,0.0009
3772.00,0.0009
3771.00,0.0009
3770.00,0.0009
3769.00,0.0009
3768.00,0.0009
3767.00,0.0009
3766.00,0.0010
3765.00,0.0010
3764.00,0.0010
3763.00,0.0010
3762.00,0.0009
3761.00,0.0009
3760.00,0.0009
3759.00,0.0009
3758.00,0.0009
3757.00,0.0009
3756.00,0.0009
3755.00,0.0008
3754.00,0.0008
3753.00,0.0007
3752.00,0.0006
3751.00,0.0006
3750.00,0.0007
3749.00,0.0007
3748.00,0.0007
3747.00,0.0008
3746.00,0.0008
3745.00,0.0008
3744.00,0.0008
3743.00,0.0009
3742.00,0.0009
3741.00,0.0009
3740.00,0.0008
3739.00,0.0008
3738.00,0.0008
3737.00,0.0008
3736.00,0.0008
3735.00,0.0007
3734.00,0.0007
3733.00,0.0007
3732.00,0.0008
3731.00,0.0009
3730.00,0.0009
3729.00,0.0009
3728.00,0.0009
3727.00,0.0009
3726.00,0.0009
3725.00,0.0009
3724.00,0.0009
3723.00,0.0008
3722.00,0.0008
3721.00,0.0008
3720.00,0.0008
3719.00,0.0008
3718.00,0.0007
3717.00,0.0007
3716.00,0.0007
3715.00,0.0008
3714.00,0.0008
3713.00,0.0008
3712.00,0.0008
3711.00,0.0008
3710.00,0.0008
3709.00,0.0008
3708.00,0.0008
3707.00,0.0008
3706.00,0.0008
3705.00,0.0008
3704.00,0.0008
3703.00,0.0009
3702.00,0.0009
3701.00,0.0009
3700.00,0.0009
3699.00,0.0009
3698.00,0.0009
3697.00,0.0010
3696.00,0.0010
3695.00,0.0010
3694.00,0.0010
3693.00,0.0010
3692.00,0.0010
3691.00,0.0009
3690.00,0.0009
3689.00,0.0010
3688.00,0.0012
3687.00,0.0014
3686.00,0.0015
3685.00,0.0016
3684.00,0.0017
3683.00,0.0018
3682.00,0.0020
3681.00,0.0021
3680.00,0.0023
3679.00,0.0024
3678.00,0.0025
3677.00,0.0026
3676.00,0.0027
3675.00,0.0027
3674.00,0.0028
3673.00,0.0028
3672.00,0.0029
3671.00,0.0029
3670.00,0.0030
3669.00,0.0031
3668.00,0.0032
3667.00,0.0033
3666.00,0.0034
3665.00,0.0035
3664.00,0.0036
3663.00,0.0037
3662.00,0.0037
3661.00,0.0037
3660.00,0.0037
3659.00,0.0037
3658.00,0.0037
3657.00,0.0037
3656.00,0.0037
3655.00,0.0037
3654.00,0.0036
3653.00,0.0035
3652.00,0.0035
3651.00,0.0034
3650.00,0.0034
3649.00,0.0034
3648.00,0.0033
3647.00,0.0033
3646.00,0.0033
3645.00,0.0032
3644.00,0.0032
3643.00,0.0031
3642.00,0.0031
3641.00,0.0031
3640.00,0.0030
3639.00,0.0030
3638.00,0.0030
3637.00,0.0030
3636.00,0.0028
3635.00,0.0026
3634.00,0.0024
3633.00,0.0022
3632.00,0.0022
3631.00,0.0021
3630.00,0.0022
3629.00,0.0022
3628.00,0.0021
3627.00,0.0021
3626.00,0.0021
3625.00,0.0020
3624.00,0.0020
3623.00,0.0019
3622.00,0.0019
3621.00,0.0018
3620.00,0.0018
3619.00,0.0019
3618.00,0.0019
3617.00,0.0020
3616.00,0.0019
3615.00,0.0019
3614.00,0.0019
3613.00,0.0020
3612.00,0.0020
3611.00,0.0020
3610.00,0.0020
3609.00,0.0021
3608.00,0.0021
3607.00,0.0021
3606.00,0.0021
3605.00,0.0021
3604.00,0.0021
3603.00,0.0022
3602.00,0.0022
3601.00,0.0022
3600.00,0.0022
3599.00,0.0022
3598.00,0.0022
3597.00,0.0022
3596.00,0.0023
3595.00,0.0024
3594.00,0.0025
3593.00,0.0025
3592.00,0.0026
3591.00,0.0026
3590.00,0.0027
3589.00,0.0027
3588.00,0.0027
3587.00,0.0027
3586.00,0.0027
3585.00,0.0027
3584.00,0.0027
3583.00,0.0027
3582.00,0.0028
3581.00,0.0028
3580.00,0.0028
3579.00,0.0029
3578.00,0.0029
3577.00,0.0029
3576.00,0.0029
3575.00,0.0030
3574.00,0.0030
3573.00,0.0030
3572.00,0.0031
3571.00,0.0031
3570.00,0.0031
3569.00,0.0031
3568.00,0.0032
3567.00,0.0033
3566.00,0.0034
3565.00,0.0035
3564.00,0.0035
3563.00,0.0035
3562.00,0.0035
3561.00,0.0036
3560.00,0.0036
3559.00,0.0037
3558.00,0.0037
3557.00,0.0038
3556.00,0.0038
3555.00,0.0038
3554.00,0.0039
3553.00,0.0039
3552.00,0.0039
3551.00,0.0040
3550.00,0.0040
3549.00,0.0041
3548.00,0.0041
3547.00,0.0042
3546.00,0.0043
3545.00,0.0043
3544.00,0.0044
3543.00,0.0044
3542.00,0.0044
3541.00,0.0044
3540.00,0.0045
3539.00,0.0045
3538.00,0.0045
3537.00,0.0045
3536.00,0.0046
3535.00,0.0046
3534.00,0.0046
3533.00,0.0046
3532.00,0.0046
3531.00,0.0047
3530.00,0.0048
3529.00,0.0049
3528.00,0.0049
3527.00,0.0050
3526.00,0.0051
3525.00,0.0051
3524.00,0.0052
3523.00,0.0052
3522.00,0.0052
3521.00,0.0052
3520.00,0.0053
3519.00,0.0053
3518.00,0.0054
3517.00,0.0054
3516.00,0.0054
3515.00,0.0055
3514.00,0.0055
3513.00,0.0056
3512.00,0.0056
3511.00,0.0057
3510.00,0.0057
3509.00,0.0057
3508.00,0.0058
3507.00,0.0058
3506.00,0.0058
3505.00,0.0059
3504.00,0.0060
3503.00,0.0061
3502.00,0.0061
3501.00,0.0062
3500.00,0.0062
3499.00,0.0063
3498.00,0.0063
3497.00,0.0064
3496.00,0.0065
3495.00,0.0065
3494.00,0.0066
3493.00,0.0066
3492.00,0.0066
3491.00,0.0067
3490.00,0.0068
3489.00,0.0068
3488.00,0.0068
3487.00,0.0069
3486.00,0.0069
3485.00,0.0069
3484.00,0.0070
3483.00,0.0071
3482.00,0.0071
3481.00,0.0072
3480.00,0.0073
3479.00,0.0073
3478.00,0.0073
3477.00,0.0073
3476.00,0.0073
3475.00,0.0074
3474.00,0.0074
3473.00,0.0075
3472.00,0.0075
3471.00,0.0076
3470.00,0.0076
3469.00,0.0077
3468.00,0.0077
3467.00,0.0078
3466.00,0.0078
3465.00,0.0078
3464.00,0.0078
3463.00,0.0079
3462.00,0.0080
3461.00,0.0080
3460.00,0.0081
3459.00,0.0082
3458.00,0.0082
3457.00,0.0082
3456.00,0.0082
3455.00,0.0082
3454.00,0.0082
3453.00,0.0083
3452.00,0.0083
3451.00,0.0084
3450.00,0.0084
3449.00,0.0084
3448.00,0.0085
3447.00,0.0085
3446.00,0.0086
3445.00,0.0086
3444.00,0.0087
3443.00,0.0087
3442.00,0.0087
3441.00,0.0087
3440.00,0.0087
3439.00,0.0088
3438.00,0.0088
3437.00,0.0089
3436.00,0.0090
3435.00,0.0091
3434.00,0.0091
3433.00,0.0091
3432.00,0.0091
3431.00,0.0091
3430.00,0.0091
3429.00,0.0091
3428.00,0.0092
3427.00,0.0092
3426.00,0.0092
3425.00,0.0093
3424.00,0.0093
3423.00,0.0094
3422.00,0.0095
3421.00,0.0095
3420.00,0.0095
3419.00,0.0095
3418.00,0.0095
3417.00,0.0095
3416.00,0.0095
3415.00,0.0095
3414.00,0.0096
3413.00,0.0096
3412.00,0.0097
3411.00,0.0097
3410.00,0.0097
3409.00,0.0097
3408.00,0.0098
3407.00,0.0099
3406.00,0.0099
3405.00,0.0100
3404.00,0.0100
3403.00,0.0100
3402.00,0.0100
3401.00,0.0100
3400.00,0.0099
3399.00,0.0099
3398.00,0.0099
3397.00,0.0100
3396.00,0.0100
3395.00,0.0101
3394.00,0.0101
3393.00,0.0101
3392.00,0.0102
3391.00,0.0101
3390.00,0.0101
3389.00,0.0101
3388.00,0.0101
3387.00,0.0102
3386.00,0.0102
3385.00,0.0103
3384.00,0.0103
3383.00,0.0103
3382.00,0.0103
3381.00,0.0103
3380.00,0.0103
3379.00,0.0103
3378.00,0.0103
3377.00,0.0103
3376.00,0.0104
3375.00,0.0104
3374.00,0.0104
3373.00,0.0104
3372.00,0.0105
3371.00,0.0105
3370.00,0.0105
3369.00,0.0105
3368.00,0.0105
3367.00,0.0105
3366.00,0.0106
3365.00,0.0106
3364.00,0.0106
3363.00,0.0106
3362.00,0.0107
3361.00,0.0107
3360.00,0.0107
3359.00,0.0107
3358.00,0.0107
3357.00,0.0107
3356.00,0.0107
3355.00,0.0108
3354.00,0.0108
3353.00,0.0108
3352.00,0.0107
3351.00,0.0107
3350.00,0.0107
3349.00,0.0107
3348.00,0.0108
3347.00,0.0108
3346.00,0.0108
3345.00,0.0108
3344.00,0.0109
3343.00,0.0109
3342.00,0.0109
3341.00,0.0108
3340.00,0.0108
3339.00,0.0108
3338.00,0.0108
3337.00,0.0108
3336.00,0.0108
3335.00,0.0108
3334.00,0.0108
3333.00,0.0107
3332.00,0.0107
3331.00,0.0106
3330.00,0.0106
3329.00,0.0107
3328.00,0.0107
3327.00,0.0106
3326.00,0.0106
3325.00,0.0105
3324.00,0.0105
3323.00,0.0105
3322.00,0.0105
3321.00,0.0106
3320.00,0.0106
3319.00,0.0106
3318.00,0.0106
3317.00,0.0106
3316.00,0.0106
3315.00,0.0106
3314.00,0.0105
3313.00,0.0105
3312.00,0.0105
3311.00,0.0104
3310.00,0.0104
3309.00,0.0104
3308.00,0.0104
3307.00,0.0104
3306.00,0.0103
3305.00,0.0103
3304.00,0.0103
3303.00,0.0103
3302.00,0.0103
3301.00,0.0103
3300.00,0.0102
3299.00,0.0102
3298.00,0.0102
3297.00,0.0101
3296.00,0.0101
3295.00,0.0101
3294.00,0.0101
3293.00,0.0100
3292.00,0.0100
3291.00,0.0100
3290.00,0.0100
3289.00,0.0100
3288.00,0.0100
3287.00,0.0099
3286.00,0.0099
3285.00,0.0099
3284.00,0.0099
3283.00,0.0099
3282.00,0.0098
3281.00,0.0098
3280.00,0.0097
3279.00,0.0097
3278.00,0.0097
3277.00,0.0097
3276.00,0.0096
3275.00,0.0096
3274.00,0.0096
3273.00,0.0095
3272.00,0.0095
3271.00,0.0094
3270.00,0.0094
3269.00,0.0094
3268.00,0.0094
3267.00,0.0094
3266.00,0.0094
3265.00,0.0094
3264.00,0.0094
3263.00,0.0093
3262.00,0.0093
3261.00,0.0092
3260.00,0.0092
3259.00,0.0091
3258.00,0.0091
3257.00,0.0091
3256.00,0.0090
3255.00,0.0090
3254.00,0.0090
3253.00,0.0089
3252.00,0.0089
3251.00,0.0089
3250.00,0.0089
3249.00,0.0088
3248.00,0.0088
3247.00,0.0088
3246.00,0.0088
3245.00,0.0088
3244.00,0.0088
3243.00,0.0088
3242.00,0.0088
3241.00,0.0087
3240.00,0.0087
3239.00,0.0086
3238.00,0.0086
3237.00,0.0086
3236.00,0.0087
3235.00,0.0087
3234.00,0.0087
3233.00,0.0087
3232.00,0.0088
3231.00,0.0088
3230.00,0.0088
3229.00,0.0087
3228.00,0.0087
3227.00,0.0086
3226.00,0.0086
3225.00,0.0086
3224.00,0.0086
3223.00,0.0086
3222.00,0.0087
3221.00,0.0087
3220.00,0.0087
3219.00,0.0087
3218.00,0.0087
3217.00,0.0086
3216.00,0.0086
3215.00,0.0086
3214.00,0.0086
3213.00,0.0087
3212.00,0.0087
3211.00,0.0087
3210.00,0.0086
3209.00,0.0086
3208.00,0.0086
3207.00,0.0086
3206.00,0.0087
3205.00,0.0087
3204.00,0.0087
3203.00,0.0087
3202.00,0.0087
3201.00,0.0087
3200.00,0.0087
3199.00,0.0087
3198.00,0.0087
3197.00,0.0087
3196.00,0.0086
3195.00,0.0086
3194.00,0.0086
3193.00,0.0086
3192.00,0.0085
3191.00,0.0085
3190.00,0.0085
3189.00,0.0085
3188.00,0.0085
3187.00,0.0084
3186.00,0.0084
3185.00,0.0083
3184.00,0.0083
3183.00,0.0083
3182.00,0.0082
3181.00,0.0082
3180.00,0.0081
3179.00,0.0081
3178.00,0.0081
3177.00,0.0080
3176.00,0.0080
3175.00,0.0079
3174.00,0.0079
3173.00,0.0079
3172.00,0.0079
3171.00,0.0079
3170.00,0.0079
3169.00,0.0079
3168.00,0.0078
3167.00,0.0077
3166.00,0.0076
3165.00,0.0076
3164.00,0.0076
3163.00,0.0076
3162.00,0.0076
3161.00,0.0076
3160.00,0.0075
3159.00,0.0075
3158.00,0.0075
3157.00,0.0074
3156.00,0.0074
3155.00,0.0074
3154.00,0.0073
3153.00,0.0073
3152.00,0.0072
3151.00,0.0072
3150.00,0.0072
3149.00,0.0072
3148.00,0.0072
3147.00,0.0072
3146.00,0.0072
3145.00,0.0072
3144.00,0.0072
3143.00,0.0072
3142.00,0.0071
3141.00,0.0071
3140.00,0.0070
3139.00,0.0069
3138.00,0.0069
3137.00,0.0069
3136.00,0.0068
3135.00,0.0068
3134.00,0.0068
3133.00,0.0068
3132.00,0.0067
3131.00,0.0067
3130.00,0.0066
3129.00,0.0066
3128.00,0.0066
3127.00,0.0065
3126.00,0.0065
3125.00,0.0064
3124.00,0.0064
3123.00,0.0064
3122.00,0.0063
3121.00,0.0063
3120.00,0.0062
3119.00,0.0062
3118.00,0.0062
3117.00,0.0061
3116.00,0.0061
3115.00,0.0061
3114.00,0.0061
3113.00,0.0061
3112.00,0.0061
3111.00,0.0060
3110.00,0.0060
3109.00,0.0059
3108.00,0.0059
3107.00,0.0058
3106.00,0.0058
3105.00,0.0058
3104.00,0.0057
3103.00,0.0057
3102.00,0.0057
3101.00,0.0057
3100.00,0.0057
3099.00,0.0057
3098.00,0.0057
3097.00,0.0056
3096.00,0.0056
3095.00,0.0056
3094.00,0.0056
3093.00,0.0056
3092.00,0.0056
3091.00,0.0056
3090.00,0.0056
3089.00,0.0055
3088.00,0.0055
3087.00,0.0055
3086.00,0.0054
3085.00,0.0054
3084.00,0.0054
3083.00,0.0053
3082.00,0.0053
3081.00,0.0052
3080.00,0.0052
3079.00,0.0052
3078.00,0.0052
3077.00,0.0052
3076.00,0.0052
3075.00,0.0052
3074.00,0.0052
3073.00,0.0052
3072.00,0.0052
3071.00,0.0053
3070.00,0.0053
3069.00,0.0053
3068.00,0.0053
3067.00,0.0053
3066.00,0.0053
3065.00,0.0053
3064.00,0.0053
3063.00,0.0053
3062.00,0.0053
3061.00,0.0053
3060.00,0.0053
3059.00,0.0053
3058.00,0.0053
3057.00,0.0053
3056.00,0.0053
3055.00,0.0053
3054.00,0.0053
3053.00,0.0053
3052.00,0.0053
3051.00,0.0054
3050.00,0.0054
3049.00,0.0054
3048.00,0.0054
3047.00,0.0055
3046.00,0.0055
3045.00,0.0055
3044.00,0.0055
3043.00,0.0055
3042.00,0.0055
3041.00,0.0055
3040.00,0.0055
3039.00,0.0056
3038.00,0.0056
3037.00,0.0056
3036.00,0.0056
3035.00,0.0057
3034.00,0.0057
3033.00,0.0058
3032.00,0.0059
3031.00,0.0059
3030.00,0.0060
3029.00,0.0060
3028.00,0.0061
3027.00,0.0062
3026.00,0.0062
3025.00,0.0063
3024.00,0.0064
3023.00,0.0066
3022.00,0.0067
3021.00,0.0069
3020.00,0.0071
3019.00,0.0073
3018.00,0.0076
3017.00,0.0079
3016.00,0.0082
3015.00,0.0086
3014.00,0.0090
3013.00,0.0094
3012.00,0.0099
3011.00,0.0105
3010.00,0.0111
3009.00,0.0118
3008.00,0.0126
3007.00,0.0135
3006.00,0.0144
3005.00,0.0154
3004.00,0.0163
3003.00,0.0173
3002.00,0.0183
3001.00,0.0192
3000.00,0.0201
2999.00,0.0210
2998.00,0.0218
2997.00,0.0226
2996.00,0.0234
2995.00,0.0242
2994.00,0.0250
2993.00,0.0259
2992.00,0.0267
2991.00,0.0276
2990.00,0.0286
2989.00,0.0296
2988.00,0.0309
2987.00,0.0325
2986.00,0.0347
2985.00,0.0376
2984.00,0.0411
2983.00,0.0445
2982.00,0.0474
2981.00,0.0493
2980.00,0.0504
2979.00,0.0511
2978.00,0.0521
2977.00,0.0537
2976.00,0.0559
2975.00,0.0589
2974.00,0.0628
2973.00,0.0673
2972.00,0.0722
2971.00,0.0772
2970.00,0.0822
2969.00,0.0876
2968.00,0.0934
2967.00,0.0997
2966.00,0.1064
2965.00,0.1131
2964.00,0.1195
2963.00,0.1254
2962.00,0.1306
2961.00,0.1351
2960.00,0.1392
2959.00,0.1430
2958.00,0.1471
2957.00,0.1518
2956.00,0.1575
2955.00,0.1642
2954.00,0.1718
2953.00,0.1798
2952.00,0.1876
2951.00,0.1940
2950.00,0.1980
2949.00,0.1985
2948.00,0.1950
2947.00,0.1874
2946.00,0.1765
2945.00,0.1638
2944.00,0.1509
2943.00,0.1391
2942.00,0.1295
2941.00,0.1225
2940.00,0.1181
2939.00,0.1161
2938.00,0.1163
2937.00,0.1184
2936.00,0.1222
2935.00,0.1277
2934.00,0.1347
2933.00,0.1431
2932.00,0.1525
2931.00,0.1628
2930.00,0.1736
2929.00,0.1848
2928.00,0.1958
2927.00,0.2066
2926.00,0.2169
2925.00,0.2268
2924.00,0.2363
2923.00,0.2457
2922.00,0.2550
2921.00,0.2640
2920.00,0.2724
2919.00,0.2792
2918.00,0.2837
2917.00,0.2850
2916.00,0.2826
2915.00,0.2767
2914.00,0.2680
2913.00,0.2576
2912.00,0.2464
2911.00,0.2353
2910.00,0.2248
2909.00,0.2150
2908.00,0.2058
2907.00,0.1971
2906.00,0.1888
2905.00,0.1808
2904.00,0.1729
2903.00,0.1654
2902.00,0.1581
2901.00,0.1512
2900.00,0.1446
2899.00,0.1385
2898.00,0.1329
2897.00,0.1279
2896.00,0.1236
2895.00,0.1199
2894.00,0.1170
2893.00,0.1148
2892.00,0.1133
2891.00,0.1125
2890.00,0.1121
2889.00,0.1121
2888.00,0.1125
2887.00,0.1133
2886.00,0.1144
2885.00,0.1160
2884.00,0.1180
2883.00,0.1205
2882.00,0.1235
2881.00,0.1267
2880.00,0.1301
2879.00,0.1331
2878.00,0.1354
2877.00,0.1367
2876.00,0.1368
2875.00,0.1362
2874.00,0.1353
2873.00,0.1347
2872.00,0.1348
2871.00,0.1358
2870.00,0.1375
2869.00,0.1395
2868.00,0.1410
2867.00,0.1411
2866.00,0.1390
2865.00,0.1340
2864.00,0.1266
2863.00,0.1173
2862.00,0.1074
2861.00,0.0979
2860.00,0.0896
2859.00,0.0828
2858.00,0.0775
2857.00,0.0735
2856.00,0.0707
2855.00,0.0687
2854.00,0.0674
2853.00,0.0668
2852.00,0.0667
2851.00,0.0671
2850.00,0.0681
2849.00,0.0697
2848.00,0.0720
2847.00,0.0751
2846.00,0.0791
2845.00,0.0840
2844.00,0.0898
2843.00,0.0962
2842.00,0.1030
2841.00,0.1097
2840.00,0.1155
2839.00,0.1197
2838.00,0.1213
2837.00,0.1197
2836.00,0.1147
2835.00,0.1068
2834.00,0.0969
2833.00,0.0861
2832.00,0.0755
2831.00,0.0660
2830.00,0.0579
2829.00,0.0512
2828.00,0.0458
2827.00,0.0414
2826.00,0.0380
2825.00,0.0351
2824.00,0.0327
2823.00,0.0307
2822.00,0.0290
2821.00,0.0275
2820.00,0.0262
2819.00,0.0251
2818.00,0.0241
2817.00,0.0233
2816.00,0.0226
2815.00,0.0219
2814.00,0.0213
2813.00,0.0208
2812.00,0.0202
2811.00,0.0197
2810.00,0.0191
2809.00,0.0184
2808.00,0.0178
2807.00,0.0171
2806.00,0.0164
2805.00,0.0158
2804.00,0.0151
2803.00,0.0145
2802.00,0.0139
2801.00,0.0134
2800.00,0.0130
2799.00,0.0126
2798.00,0.0123
2797.00,0.0120
2796.00,0.0118
2795.00,0.0116
2794.00,0.0114
2793.00,0.0111
2792.00,0.0108
2791.00,0.0105
2790.00,0.0102
2789.00,0.0099
2788.00,0.0096
2787.00,0.0094
2786.00,0.0091
2785.00,0.0089
2784.00,0.0087
2783.00,0.0085
2782.00,0.0083
2781.00,0.0081
2780.00,0.0080
2779.00,0.0078
2778.00,0.0077
2777.00,0.0075
2776.00,0.0074
2775.00,0.0072
2774.00,0.0071
2773.00,0.0070
2772.00,0.0070
2771.00,0.0069
2770.00,0.0069
2769.00,0.0069
2768.00,0.0069
2767.00,0.0068
2766.00,0.0068
2765.00,0.0067
2764.00,0.0067
2763.00,0.0066
2762.00,0.0066
2761.00,0.0065
2760.00,0.0065
2759.00,0.0064
2758.00,0.0064
2757.00,0.0063
2756.00,0.0062
2755.00,0.0062
2754.00,0.0062
2753.00,0.0062
2752.00,0.0062
2751.00,0.0061
2750.00,0.0061
2749.00,0.0061
2748.00,0.0062
2747.00,0.0062
2746.00,0.0063
2745.00,0.0064
2744.00,0.0064
2743.00,0.0065
2742.00,0.0066
2741.00,0.0067
2740.00,0.0068
2739.00,0.0069
2738.00,0.0071
2737.00,0.0073
2736.00,0.0075
2735.00,0.0076
2734.00,0.0078
2733.00,0.0079
2732.00,0.0081
2731.00,0.0083
2730.00,0.0085
2729.00,0.0088
2728.00,0.0090
2727.00,0.0093
2726.00,0.0096
2725.00,0.0099
2724.00,0.0100
2723.00,0.0100
2722.00,0.0100
2721.00,0.0097
2720.00,0.0095
2719.00,0.0091
2718.00,0.0087
2717.00,0.0084
2716.00,0.0080
2715.00,0.0077
2714.00,0.0074
2713.00,0.0072
2712.00,0.0069
2711.00,0.0067
2710.00,0.0066
2709.00,0.0064
2708.00,0.0063
2707.00,0.0061
2706.00,0.0060
2705.00,0.0059
2704.00,0.0058
2703.00,0.0056
2702.00,0.0055
2701.00,0.0054
2700.00,0.0053
2699.00,0.0052
2698.00,0.0052
2697.00,0.0052
2696.00,0.0051
2695.00,0.0051
2694.00,0.0051
2693.00,0.0051
2692.00,0.0051
2691.00,0.0052
2690.00,0.0052
2689.00,0.0052
2688.00,0.0052
2687.00,0.0052
2686.00,0.0052
2685.00,0.0052
2684.00,0.0052
2683.00,0.0052
2682.00,0.0052
2681.00,0.0052
2680.00,0.0052
2679.00,0.0053
2678.00,0.0053
2677.00,0.0053
2676.00,0.0053
2675.00,0.0053
2674.00,0.0053
2673.00,0.0053
2672.00,0.0053
2671.00,0.0053
2670.00,0.0053
2669.00,0.0053
2668.00,0.0053
2667.00,0.0054
2666.00,0.0054
2665.00,0.0055
2664.00,0.0055
2663.00,0.0056
2662.00,0.0056
2661.00,0.0056
2660.00,0.0056
2659.00,0.0056
2658.00,0.0056
2657.00,0.0056
2656.00,0.0056
2655.00,0.0055
2654.00,0.0054
2653.00,0.0054
2652.00,0.0053
2651.00,0.0052
2650.00,0.0052
2649.00,0.0051
2648.00,0.0050
2647.00,0.0049
2646.00,0.0049
2645.00,0.0048
2644.00,0.0048
2643.00,0.0048
2642.00,0.0047
2641.00,0.0046
2640.00,0.0045
2639.00,0.0045
2638.00,0.0044
2637.00,0.0044
2636.00,0.0045
2635.00,0.0045
2634.00,0.0045
2633.00,0.0045
2632.00,0.0045
2631.00,0.0045
2630.00,0.0045
2629.00,0.0045
2628.00,0.0045
2627.00,0.0045
2626.00,0.0045
2625.00,0.0045
2624.00,0.0045
2623.00,0.0045
2622.00,0.0045
2621.00,0.0045
2620.00,0.0045
2619.00,0.0046
2618.00,0.0046
2617.00,0.0045
2616.00,0.0045
2615.00,0.0045
2614.00,0.0045
2613.00,0.0045
2612.00,0.0044
2611.00,0.0044
2610.00,0.0043
2609.00,0.0043
2608.00,0.0042
2607.00,0.0041
2606.00,0.0039
2605.00,0.0038
2604.00,0.0038
2603.00,0.0037
2602.00,0.0037
2601.00,0.0037
2600.00,0.0038
2599.00,0.0038
2598.00,0.0038
2597.00,0.0038
2596.00,0.0038
2595.00,0.0038
2594.00,0.0038
2593.00,0.0038
2592.00,0.0039
2591.00,0.0039
2590.00,0.0040
2589.00,0.0041
2588.00,0.0042
2587.00,0.0043
2586.00,0.0043
2585.00,0.0043
2584.00,0.0044
2583.00,0.0045
2582.00,0.0045
2581.00,0.0045
2580.00,0.0044
2579.00,0.0044
2578.00,0.0043
2577.00,0.0042
2576.00,0.0041
2575.00,0.0039
2574.00,0.0038
2573.00,0.0036
2572.00,0.0035
2571.00,0.0034
2570.00,0.0033
2569.00,0.0033
2568.00,0.0033
2567.00,0.0032
2566.00,0.0031
2565.00,0.0031
2564.00,0.0030
2563.00,0.0029
2562.00,0.0029
2561.00,0.0029
2560.00,0.0029
2559.00,0.0028
2558.00,0.0028
2557.00,0.0027
2556.00,0.0027
2555.00,0.0027
2554.00,0.0027
2553.00,0.0027
2552.00,0.0026
2551.00,0.0025
2550.00,0.0024
2549.00,0.0024
2548.00,0.0024
2547.00,0.0024
2546.00,0.0024
2545.00,0.0024
2544.00,0.0023
2543.00,0.0023
2542.00,0.0022
2541.00,0.0021
2540.00,0.0021
2539.00,0.0021
2538.00,0.0020
2537.00,0.0021
2536.00,0.0021
2535.00,0.0021
2534.00,0.0021
2533.00,0.0021
2532.00,0.0021
2531.00,0.0021
2530.00,0.0021
2529.00,0.0021
2528.00,0.0020
2527.00,0.0019
2526.00,0.0019
2525.00,0.0018
2524.00,0.0018
2523.00,0.0017
2522.00,0.0017
2521.00,0.0017
2520.00,0.0017
2519.00,0.0017
2518.00,0.0017
2517.00,0.0017
2516.00,0.0016
2515.00,0.0016
2514.00,0.0015
2513.00,0.0015
2512.00,0.0015
2511.00,0.0015
2510.00,0.0015
2509.00,0.0015
2508.00,0.0015
2507.00,0.0015
2506.00,0.0015
2505.00,0.0015
2504.00,0.0014
2503.00,0.0014
2502.00,0.0014
2501.00,0.0014
2500.00,0.0014
2499.00,0.0015
2498.00,0.0015
2497.00,0.0015
2496.00,0.0014
2495.00,0.0014
2494.00,0.0014
2493.00,0.0014
2492.00,0.0014
2491.00,0.0015
2490.00,0.0015
2489.00,0.0015
2488.00,0.0015
2487.00,0.0015
2486.00,0.0016
2485.00,0.0016
2484.00,0.0016
2483.00,0.0016
2482.00,0.0016
2481.00,0.0016
2480.00,0.0016
2479.00,0.0015
2478.00,0.0014
2477.00,0.0014
2476.00,0.0014
2475.00,0.0014
2474.00,0.0014
2473.00,0.0014
2472.00,0.0013
2471.00,0.0013
2470.00,0.0012
2469.00,0.0012
2468.00,0.0012
2467.00,0.0012
2466.00,0.0011
2465.00,0.0011
2464.00,0.0012
2463.00,0.0012
2462.00,0.0013
2461.00,0.0014
2460.00,0.0015
2459.00,0.0016
2458.00,0.0016
2457.00,0.0015
2456.00,0.0015
2455.00,0.0015
2454.00,0.0014
2453.00,0.0014
2452.00,0.0014
2451.00,0.0014
2450.00,0.0014
2449.00,0.0015
2448.00,0.0015
2447.00,0.0016
2446.00,0.0016
2445.00,0.0016
2444.00,0.0016
2443.00,0.0015
2442.00,0.0014
2441.00,0.0014
2440.00,0.0014
2439.00,0.0014
2438.00,0.0014
2437.00,0.0014
2436.00,0.0015
2435.00,0.0015
2434.00,0.0015
2433.00,0.0016
2432.00,0.0016
2431.00,0.0016
2430.00,0.0016
2429.00,0.0016
2428.00,0.0017
2427.00,0.0017
2426.00,0.0017
2425.00,0.0016
2424.00,0.0016
2423.00,0.0016
2422.00,0.0015
2421.00,0.0014
2420.00,0.0014
2419.00,0.0013
2418.00,0.0013
2417.00,0.0013
2416.00,0.0012
2415.00,0.0012
2414.00,0.0013
2413.00,0.0014
2412.00,0.0014
2411.00,0.0015
2410.00,0.0015
2409.00,0.0014
2408.00,0.0013
2407.00,0.0013
2406.00,0.0012
2405.00,0.0011
2404.00,0.0011
2403.00,0.0011
2402.00,0.0011
2401.00,0.0011
2400.00,0.0011
2399.00,0.0011
2398.00,0.0011
2397.00,0.0011
2396.00,0.0012
2395.00,0.0012
2394.00,0.0012
2393.00,0.0012
2392.00,0.0012
2391.00,0.0011
2390.00,0.0010
2389.00,0.0010
2388.00,0.0010
2387.00,0.0010
2386.00,0.0011
2385.00,0.0011
2384.00,0.0011
2383.00,0.0011
2382.00,0.0011
2381.00,0.0010
2380.00,0.0010
2379.00,0.0011
2378.00,0.0011
2377.00,0.0011
2376.00,0.0010
2375.00,0.0010
2374.00,0.0010
2373.00,0.0011
2372.00,0.0011
2371.00,0.0011
2370.00,0.0011
2369.00,0.0011
2368.00,0.0012
2367.00,0.0012
2366.00,0.0012
2365.00,0.0011
2364.00,0.0011
2363.00,0.0012
2362.00,0.0012
2361.00,0.0013
2360.00,0.0013
2359.00,0.0012
2358.00,0.0012
2357.00,0.0012
2356.00,0.0012
2355.00,0.0013
2354.00,0.0014
2353.00,0.0015
2352.00,0.0015
2351.00,0.0014
2350.00,0.0014
2349.00,0.0014
2348.00,0.0014
2347.00,0.0014
2346.00,0.0014
2345.00,0.0015
2344.00,0.0015
2343.00,0.0016
2342.00,0.0017
2341.00,0.0018
2340.00,0.0017
2339.00,0.0016
2338.00,0.0015
2337.00,0.0015
2336.00,0.0014
2335.00,0.0015
2334.00,0.0015
2333.00,0.0015
2332.00,0.0015
2331.00,0.0015
2330.00,0.0015
2329.00,0.0015
2328.00,0.0017
2327.00,0.0020
2326.00,0.0023
2325.00,0.0026
2324.00,0.0028
2323.00,0.0027
2322.00,0.0026
2321.00,0.0025
2320.00,0.0024
2319.00,0.0024
2318.00,0.0023
2317.00,0.0022
2316.00,0.0020
2315.00,0.0019
2314.00,0.0018
2313.00,0.0017
2312.00,0.0017
2311.00,0.0016
2310.00,0.0016
2309.00,0.0016
2308.00,0.0017
2307.00,0.0017
2306.00,0.0018
2305.00,0.0018
2304.00,0.0018
2303.00,0.0017
2302.00,0.0017
2301.00,0.0017
2300.00,0.0018
2299.00,0.0019
2298.00,0.0019
2297.00,0.0019
2296.00,0.0019
2295.00,0.0019
2294.00,0.0019
2293.00,0.0019
2292.00,0.0020
2291.00,0.0020
2290.00,0.0021
2289.00,0.0021
2288.00,0.0021
2287.00,0.0021
2286.00,0.0021
2285.00,0.0021
2284.00,0.0020
2283.00,0.0020
2282.00,0.0019
2281.00,0.0019
2280.00,0.0018
2279.00,0.0017
2278.00,0.0016
2277.00,0.0015
2276.00,0.0016
2275.00,0.0016
2274.00,0.0017
2273.00,0.0017
2272.00,0.0016
2271.00,0.0015
2270.00,0.0014
2269.00,0.0014
2268.00,0.0014
2267.00,0.0014
2266.00,0.0014
2265.00,0.0013
2264.00,0.0012
2263.00,0.0011
2262.00,0.0011
2261.00,0.0011
2260.00,0.0012
2259.00,0.0013
2258.00,0.0013
2257.00,0.0014
2256.00,0.0013
2255.00,0.0012
2254.00,0.0011
2253.00,0.0010
2252.00,0.0011
2251.00,0.0012
2250.00,0.0012
2249.00,0.0013
2248.00,0.0013
2247.00,0.0011
2246.00,0.0009
2245.00,0.0008
2244.00,0.0007
2243.00,0.0008
2242.00,0.0009
2241.00,0.0010
2240.00,0.0011
2239.00,0.0011
2238.00,0.0011
2237.00,0.0012
2236.00,0.0012
2235.00,0.0013
2234.00,0.0013
2233.00,0.0014
2232.00,0.0013
2231.00,0.0012
2230.00,0.0011
2229.00,0.0011
2228.00,0.0011
2227.00,0.0012
2226.00,0.0011
2225.00,0.0010
2224.00,0.0009
2223.00,0.0008
2222.00,0.0008
2221.00,0.0008
2220.00,0.0008
2219.00,0.0007
2218.00,0.0008
2217.00,0.0008
2216.00,0.0009
2215.00,0.0009
2214.00,0.0009
2213.00,0.0009
2212.00,0.0009
2211.00,0.0009
2210.00,0.0009
2209.00,0.0009
2208.00,0.0009
2207.00,0.0008
2206.00,0.0007
2205.00,0.0006
2204.00,0.0006
2203.00,0.0007
2202.00,0.0009
2201.00,0.0010
2200.00,0.0010
2199.00,0.0009
2198.00,0.0008
2197.00,0.0009
2196.00,0.0011
2195.00,0.0013
2194.00,0.0014
2193.00,0.0014
2192.00,0.0015
2191.00,0.0015
2190.00,0.0015
2189.00,0.0013
2188.00,0.0013
2187.00,0.0015
2186.00,0.0018
2185.00,0.0020
2184.00,0.0019
2183.00,0.0015
2182.00,0.0010
2181.00,0.0009
2180.00,0.0010
2179.00,0.0013
2178.00,0.0014
2177.00,0.0013
2176.00,0.0012
2175.00,0.0010
2174.00,0.0009
2173.00,0.0009
2172.00,0.0008
2171.00,0.0009
2170.00,0.0011
2169.00,0.0013
2168.00,0.0013
2167.00,0.0012
2166.00,0.0010
2165.00,0.0010
2164.00,0.0013
2163.00,0.0016
2162.00,0.0017
2161.00,0.0012
2160.00,-0.0000
2159.00,-0.0015
2158.00,-0.0024
2157.00,-0.0027
2156.00,-0.0026
2155.00,-0.0024
2154.00,-0.0023
2153.00,-0.0022
2152.00,-0.0020
2151.00,-0.0017
2150.00,-0.0013
2149.00,-0.0011
2148.00,-0.0011
2147.00,-0.0013
2146.00,-0.0015
2145.00,-0.0015
2144.00,-0.0013
2143.00,-0.0012
2142.00,-0.0011
2141.00,-0.0010
2140.00,-0.0010
2139.00,-0.0011
2138.00,-0.0012
2137.00,-0.0013
2136.00,-0.0014
2135.00,-0.0015
2134.00,-0.0016
2133.00,-0.0016
2132.00,-0.0015
2131.00,-0.0013
2130.00,-0.0010
2129.00,-0.0008
2128.00,-0.0005
2127.00,-0.0004
2126.00,-0.0002
2125.00,-0.0002
2124.00,-0.0002
2123.00,-0.0002
2122.00,-0.0001
2121.00,-0.0000
2120.00,0.0000
2119.00,0.0001
2118.00,0.0002
2117.00,0.0003
2116.00,0.0004
2115.00,0.0004
2114.00,0.0005
2113.00,0.0006
2112.00,0.0006
2111.00,0.0007
2110.00,0.0007
2109.00,0.0009
2108.00,0.0009
2107.00,0.0009
2106.00,0.0008
2105.00,0.0006
2104.00,0.0005
2103.00,0.0006
2102.00,0.0007
2101.00,0.0009
2100.00,0.0009
2099.00,0.0008
2098.00,0.0006
2097.00,0.0003
2096.00,0.0000
2095.00,-0.0001
2094.00,-0.0002
2093.00,-0.0001
2092.00,0.0000
2091.00,0.0001
2090.00,0.0002
2089.00,0.0004
2088.00,0.0006
2087.00,0.0008
2086.00,0.0009
2085.00,0.0008
2084.00,0.0007
2083.00,0.0005
2082.00,0.0005
2081.00,0.0004
2080.00,0.0005
2079.00,0.0006
2078.00,0.0006
2077.00,0.0007
2076.00,0.0008
2075.00,0.0008
2074.00,0.0007
2073.00,0.0007
2072.00,0.0007
2071.00,0.0007
2070.00,0.0007
2069.00,0.0007
2068.00,0.0007
2067.00,0.0007
2066.00,0.0006
2065.00,0.0005
2064.00,0.0003
2063.00,0.0001
2062.00,-0.0001
2061.00,-0.0000
2060.00,0.0002
2059.00,0.0005
2058.00,0.0007
2057.00,0.0007
2056.00,0.0006
2055.00,0.0004
2054.00,0.0005
2053.00,0.0007
2052.00,0.0010
2051.00,0.0012
2050.00,0.0011
2049.00,0.0006
2048.00,0.0002
2047.00,0.0000
2046.00,0.0002
2045.00,0.0004
2044.00,0.0005
2043.00,0.0005
2042.00,0.0005
2041.00,0.0007
2040.00,0.0009
2039.00,0.0010
2038.00,0.0011
2037.00,0.0011
2036.00,0.0011
2035.00,0.0008
2034.00,0.0005
2033.00,0.0002
2032.00,-0.0000
2031.00,-0.0002
2030.00,-0.0004
2029.00,-0.0005
2028.00,-0.0006
2027.00,-0.0005
2026.00,-0.0004
2025.00,-0.0003
2024.00,-0.0003
2023.00,-0.0003
2022.00,-0.0004
2021.00,-0.0004
2020.00,-0.0003
2019.00,-0.0002
2018.00,-0.0000
2017.00,0.0000
2016.00,-0.0001
2015.00,-0.0005
2014.00,-0.0007
2013.00,-0.0007
2012.00,-0.0006
2011.00,-0.0005
2010.00,-0.0005
2009.00,-0.0007
2008.00,-0.0010
2007.00,-0.0014
2006.00,-0.0016
2005.00,-0.0015
2004.00,-0.0012
2003.00,-0.0011
2002.00,-0.0010
2001.00,-0.0010
2000.00,-0.0009
1999.00,-0.0008
1998.00,-0.0006
1997.00,-0.0005
1996.00,-0.0006
1995.00,-0.0008
1994.00,-0.0009
1993.00,-0.0007
1992.00,-0.0003
1991.00,0.0001
1990.00,0.0005
1989.00,0.0006
1988.00,0.0007
1987.00,0.0008
1986.00,0.0008
1985.00,0.0009
1984.00,0.0010
1983.00,0.0010
1982.00,0.0012
1981.00,0.0014
1980.00,0.0015
1979.00,0.0014
1978.00,0.0009
1977.00,0.0002
1976.00,-0.0004
1975.00,-0.0007
1974.00,-0.0007
1973.00,-0.0006
1972.00,-0.0006
1971.00,-0.0007
1970.00,-0.0009
1969.00,-0.0010
1968.00,-0.0008
1967.00,-0.0007
1966.00,-0.0006
1965.00,-0.0007
1964.00,-0.0008
1963.00,-0.0010
1962.00,-0.0013
1961.00,-0.0016
1960.00,-0.0019
1959.00,-0.0021
1958.00,-0.0020
1957.00,-0.0017
1956.00,-0.0013
1955.00,-0.0012
1954.00,-0.0012
1953.00,-0.0013
1952.00,-0.0013
1951.00,-0.0012
1950.00,-0.0012
1949.00,-0.0013
1948.00,-0.0015
1947.00,-0.0016
1946.00,-0.0015
1945.00,-0.0014
1944.00,-0.0013
1943.00,-0.0011
1942.00,-0.0010
1941.00,-0.0009
1940.00,-0.0009
1939.00,-0.0009
1938.00,-0.0009
1937.00,-0.0008
1936.00,-0.0007
1935.00,-0.0007
1934.00,-0.0008
1933.00,-0.0008
1932.00,-0.0008
1931.00,-0.0007
1930.00,-0.0006
1929.00,-0.0006
1928.00,-0.0006
1927.00,-0.0006
1926.00,-0.0006
1925.00,-0.0006
1924.00,-0.0004
1923.00,-0.0003
1922.00,-0.0001
1921.00,0.0000
1920.00,0.0001
1919.00,0.0002
1918.00,0.0001
1917.00,0.0000
1916.00,-0.0000
1915.00,0.0001
1914.00,0.0002
1913.00,0.0004
1912.00,0.0004
1911.00,0.0003
1910.00,0.0002
1909.00,0.0002
1908.00,0.0002
1907.00,0.0004
1906.00,0.0004
1905.00,0.0004
1904.00,0.0003
1903.00,0.0001
1902.00,-0.0001
1901.00,-0.0001
1900.00,-0.0000
1899.00,0.0001
1898.00,0.0002
1897.00,0.0003
1896.00,0.0003
1895.00,0.0002
1894.00,0.0001
1893.00,0.0001
1892.00,0.0002
1891.00,0.0003
1890.00,0.0003
1889.00,0.0003
1888.00,0.0002
1887.00,0.0002
1886.00,0.0001
1885.00,0.0002
1884.00,0.0003
1883.00,0.0003
1882.00,0.0003
1881.00,0.0003
1880.00,0.0003
1879.00,0.0003
1878.00,0.0003
1877.00,0.0002
1876.00,0.0002
1875.00,0.0003
1874.00,0.0003
1873.00,0.0004
1872.00,0.0004
1871.00,0.0004
1870.00,0.0003
1869.00,0.0002
1868.00,0.0002
1867.00,0.0001
1866.00,0.0000
1865.00,0.0000
1864.00,0.0001
1863.00,0.0002
1862.00,0.0003
1861.00,0.0003
1860.00,0.0003
1859.00,0.0003
1858.00,0.0003
1857.00,0.0004
1856.00,0.0004
1855.00,0.0004
1854.00,0.0005
1853.00,0.0005
1852.00,0.0005
1851.00,0.0005
1850.00,0.0005
1849.00,0.0005
1848.00,0.0005
1847.00,0.0005
1846.00,0.0004
1845.00,0.0004
1844.00,0.0004
1843.00,0.0003
1842.00,0.0003
1841.00,0.0003
1840.00,0.0003
1839.00,0.0004
1838.00,0.0005
1837.00,0.0006
1836.00,0.0006
1835.00,0.0006
1834.00,0.0006
1833.00,0.0006
1832.00,0.0006
1831.00,0.0006
1830.00,0.0006
1829.00,0.0007
1828.00,0.0007
1827.00,0.0008
1826.00,0.0008
1825.00,0.0008
1824.00,0.0008
1823.00,0.0009
1822.00,0.0009
1821.00,0.0008
1820.00,0.0007
1819.00,0.0006
1818.00,0.0004
1817.00,0.0003
1816.00,0.0003
1815.00,0.0004
1814.00,0.0005
1813.00,0.0006
1812.00,0.0006
1811.00,0.0007
1810.00,0.0007
1809.00,0.0007
1808.00,0.0007
1807.00,0.0007
1806.00,0.0007
1805.00,0.0008
1804.00,0.0008
1803.00,0.0008
1802.00,0.0008
1801.00,0.0008
1800.00,0.0008
1799.00,0.0009
1798.00,0.0009
1797.00,0.0010
1796.00,0.0011
1795.00,0.0011
1794.00,0.0011
1793.00,0.0011
1792.00,0.0011
1791.00,0.0012
1790.00,0.0012
1789.00,0.0013
1788.00,0.0013
1787.00,0.0013
1786.00,0.0013
1785.00,0.0013
1784.00,0.0013
1783.00,0.0014
1782.00,0.0014
1781.00,0.0014
1780.00,0.0014
1779.00,0.0014
1778.00,0.0014
1777.00,0.0014
1776.00,0.0014
1775.00,0.0015
1774.00,0.0015
1773.00,0.0016
1772.00,0.0017
1771.00,0.0017
1770.00,0.0017
1769.00,0.0017
1768.00,0.0016
1767.00,0.0016
1766.00,0.0016
1765.00,0.0016
1764.00,0.0016
1763.00,0.0016
1762.00,0.0017
1761.00,0.0017
1760.00,0.0018
1759.00,0.0019
1758.00,0.0019
1757.00,0.0020
1756.00,0.0020
1755.00,0.0020
1754.00,0.0021
1753.00,0.0021
1752.00,0.0022
1751.00,0.0024
1750.00,0.0025
1749.00,0.0026
1748.00,0.0027
1747.00,0.0027
1746.00,0.0028
1745.00,0.0029
1744.00,0.0029
1743.00,0.0030
1742.00,0.0030
1741.00,0.0030
1740.00,0.0031
1739.00,0.0032
1738.00,0.0033
1737.00,0.0034
1736.00,0.0034
1735.00,0.0034
1734.00,0.0033
1733.00,0.0033
1732.00,0.0034
1731.00,0.0035
1730.00,0.0035
1729.00,0.0036
1728.00,0.0036
1727.00,0.0035
1726.00,0.0035
1725.00,0.0034
1724.00,0.0034
1723.00,0.0034
1722.00,0.0033
1721.00,0.0033
1720.00,0.0033
1719.00,0.0034
1718.00,0.0034
1717.00,0.0034
1716.00,0.0034
1715.00,0.0035
1714.00,0.0035
1713.00,0.0035
1712.00,0.0035
1711.00,0.0036
1710.00,0.0036
1709.00,0.0037
1708.00,0.0037
1707.00,0.0038
1706.00,0.0038
1705.00,0.0039
1704.00,0.0040
1703.00,0.0040
1702.00,0.0041
1701.00,0.0042
1700.00,0.0044
1699.00,0.0045
1698.00,0.0045
1697.00,0.0046
1696.00,0.0047
1695.00,0.0050
1694.00,0.0052
1693.00,0.0053
1692.00,0.0055
1691.00,0.0057
1690.00,0.0059
1689.00,0.0061
1688.00,0.0063
1687.00,0.0064
1686.00,0.0065
1685.00,0.0068
1684.00,0.0071
1683.00,0.0074
1682.00,0.0077
1681.00,0.0079
1680.00,0.0081
1679.00,0.0083
1678.00,0.0085
1677.00,0.0087
1676.00,0.0089
1675.00,0.0092
1674.00,0.0094
1673.00,0.0096
1672.00,0.0097
1671.00,0.0099
1670.00,0.0100
1669.00,0.0102
1668.00,0.0104
1667.00,0.0106
1666.00,0.0107
1665.00,0.0108
1664.00,0.0109
1663.00,0.0110
1662.00,0.0111
1661.00,0.0112
1660.00,0.0113
1659.00,0.0113
1658.00,0.0114
1657.00,0.0115
1656.00,0.0116
1655.00,0.0116
1654.00,0.0116
1653.00,0.0117
1652.00,0.0118
1651.00,0.0119
1650.00,0.0119
1649.00,0.0120
1648.00,0.0121
1647.00,0.0122
1646.00,0.0122
1645.00,0.0122
1644.00,0.0122
1643.00,0.0122
1642.00,0.0122
1641.00,0.0123
1640.00,0.0123
1639.00,0.0123
1638.00,0.0123
1637.00,0.0123
1636.00,0.0123
1635.00,0.0123
1634.00,0.0123
1633.00,0.0123
1632.00,0.0123
1631.00,0.0122
1630.00,0.0122
1629.00,0.0122
1628.00,0.0121
1627.00,0.0120
1626.00,0.0119
1625.00,0.0119
1624.00,0.0118
1623.00,0.0118
1622.00,0.0117
1621.00,0.0117
1620.00,0.0117
1619.00,0.0117
1618.00,0.0117
1617.00,0.0116
1616.00,0.0116
1615.00,0.0116
1614.00,0.0116
1613.00,0.0116
1612.00,0.0116
1611.00,0.0116
1610.00,0.0117
1609.00,0.0117
1608.00,0.0117
1607.00,0.0118
1606.00,0.0118
1605.00,0.0118
1604.00,0.0118
1603.00,0.0118
1602.00,0.0118
1601.00,0.0117
1600.00,0.0117
1599.00,0.0117
1598.00,0.0116
1597.00,0.0115
1596.00,0.0115
1595.00,0.0114
1594.00,0.0113
1593.00,0.0113
1592.00,0.0113
1591.00,0.0112
1590.00,0.0111
1589.00,0.0110
1588.00,0.0109
1587.00,0.0109
1586.00,0.0108
1585.00,0.0108
1584.00,0.0108
1583.00,0.0108
1582.00,0.0108
1581.00,0.0109
1580.00,0.0109
1579.00,0.0109
1578.00,0.0109
1577.00,0.0109
1576.00,0.0109
1575.00,0.0109
1574.00,0.0109
1573.00,0.0109
1572.00,0.0110
1571.00,0.0110
1570.00,0.0110
1569.00,0.0111
1568.00,0.0111
1567.00,0.0112
1566.00,0.0112
1565.00,0.0113
1564.00,0.0114
1563.00,0.0115
1562.00,0.0115
1561.00,0.0116
1560.00,0.0118
1559.00,0.0120
1558.00,0.0123
1557.00,0.0124
1556.00,0.0126
1555.00,0.0127
1554.00,0.0128
1553.00,0.0130
1552.00,0.0131
1551.00,0.0132
1550.00,0.0132
1549.00,0.0132
1548.00,0.0132
1547.00,0.0132
1546.00,0.0132
1545.00,0.0132
1544.00,0.0131
1543.00,0.0130
1542.00,0.0127
1541.00,0.0123
1540.00,0.0119
1539.00,0.0116
1538.00,0.0114
1537.00,0.0113
1536.00,0.0113
1535.00,0.0111
1534.00,0.0107
1533.00,0.0104
1532.00,0.0101
1531.00,0.0099
1530.00,0.0097
1529.00,0.0095
1528.00,0.0094
1527.00,0.0092
1526.00,0.0089
1525.00,0.0088
1524.00,0.0087
1523.00,0.0085
1522.00,0.0083
1521.00,0.0083
1520.00,0.0084
1519.00,0.0084
1518.00,0.0084
1517.00,0.0084
1516.00,0.0085
1515.00,0.0085
1514.00,0.0085
1513.00,0.0086
1512.00,0.0086
1511.00,0.0087
1510.00,0.0086
1509.00,0.0087
1508.00,0.0087
1507.00,0.0087
1506.00,0.0088
1505.00,0.0091
1504.00,0.0094
1503.00,0.0096
1502.00,0.0099
1501.00,0.0102
1500.00,0.0105
1499.00,0.0108
1498.00,0.0111
1497.00,0.0115
1496.00,0.0120
1495.00,0.0124
1494.00,0.0128
1493.00,0.0132
1492.00,0.0136
1491.00,0.0141
1490.00,0.0146
1489.00,0.0152
1488.00,0.0159
1487.00,0.0164
1486.00,0.0169
1485.00,0.0176
1484.00,0.0184
1483.00,0.0191
1482.00,0.0199
1481.00,0.0210
1480.00,0.0221
1479.00,0.0233
1478.00,0.0248
1477.00,0.0269
1476.00,0.0294
1475.00,0.0323
1474.00,0.0362
1473.00,0.0417
1472.00,0.0482
1471.00,0.0545
1470.00,0.0607
1469.00,0.0673
1468.00,0.0745
1467.00,0.0826
1466.00,0.0921
1465.00,0.1026
1464.00,0.1119
1463.00,0.1187
1462.00,0.1230
1461.00,0.1260
1460.00,0.1279
1459.00,0.1291
1458.00,0.1298
1457.00,0.1300
1456.00,0.1295
1455.00,0.1284
1454.00,0.1270
1453.00,0.1250
1452.00,0.1219
1451.00,0.1176
1450.00,0.1117
1449.00,0.1039
1448.00,0.0942
1447.00,0.0843
1446.00,0.0755
1445.00,0.0682
1444.00,0.0621
1443.00,0.0572
1442.00,0.0537
1441.00,0.0514
1440.00,0.0503
1439.00,0.0501
1438.00,0.0507
1437.00,0.0512
1436.00,0.0504
1435.00,0.0477
1434.00,0.0436
1433.00,0.0387
1432.00,0.0337
1431.00,0.0292
1430.00,0.0258
1429.00,0.0234
1428.00,0.0217
1427.00,0.0207
1426.00,0.0201
1425.00,0.0195
1424.00,0.0190
1423.00,0.0188
1422.00,0.0187
1421.00,0.0186
1420.00,0.0184
1419.00,0.0182
1418.00,0.0181
1417.00,0.0180
1416.00,0.0179
1415.00,0.0179
1414.00,0.0179
1413.00,0.0179
1412.00,0.0179
1411.00,0.0181
1410.00,0.0182
1409.00,0.0183
1408.00,0.0184
1407.00,0.0187
1406.00,0.0191
1405.00,0.0194
1404.00,0.0198
1403.00,0.0203
1402.00,0.0209
1401.00,0.0214
1400.00,0.0219
1399.00,0.0226
1398.00,0.0233
1397.00,0.0239
1396.00,0.0245
1395.00,0.0252
1394.00,0.0260
1393.00,0.0266
1392.00,0.0273
1391.00,0.0281
1390.00,0.0293
1389.00,0.0310
1388.00,0.0337
1387.00,0.0376
1386.00,0.0427
1385.00,0.0492
1384.00,0.0578
1383.00,0.0696
1382.00,0.0852
1381.00,0.1057
1380.00,0.1317
1379.00,0.1620
1378.00,0.1924
1377.00,0.2161
1376.00,0.2261
1375.00,0.2176
1374.00,0.1927
1373.00,0.1609
1372.00,0.1311
1371.00,0.1061
1370.00,0.0859
1369.00,0.0705
1368.00,0.0598
1367.00,0.0532
1366.00,0.0495
1365.00,0.0480
1364.00,0.0480
1363.00,0.0494
1362.00,0.0518
1361.00,0.0543
1360.00,0.0563
1359.00,0.0568
1358.00,0.0556
1357.00,0.0525
1356.00,0.0482
1355.00,0.0432
1354.00,0.0384
1353.00,0.0343
1352.00,0.0309
1351.00,0.0283
1350.00,0.0261
1349.00,0.0244
1348.00,0.0231
1347.00,0.0220
1346.00,0.0211
1345.00,0.0204
1344.00,0.0198
1343.00,0.0192
1342.00,0.0187
1341.00,0.0182
1340.00,0.0177
1339.00,0.0173
1338.00,0.0171
1337.00,0.0170
1336.00,0.0170
1335.00,0.0172
1334.00,0.0175
1333.00,0.0179
1332.00,0.0183
1331.00,0.0187
1330.00,0.0188
1329.00,0.0186
1328.00,0.0180
1327.00,0.0173
1326.00,0.0165
1325.00,0.0156
1324.00,0.0149
1323.00,0.0143
1322.00,0.0138
1321.00,0.0134
1320.00,0.0131
1319.00,0.0128
1318.00,0.0126
1317.00,0.0124
1316.00,0.0122
1315.00,0.0120
1314.00,0.0119
1313.00,0.0118
1312.00,0.0119
1311.00,0.0120
1310.00,0.0123
1309.00,0.0127
1308.00,0.0134
1307.00,0.0141
1306.00,0.0149
1305.00,0.0155
1304.00,0.0158
1303.00,0.0159
1302.00,0.0158
1301.00,0.0158
1300.00,0.0160
1299.00,0.0163
1298.00,0.0166
1297.00,0.0168
1296.00,0.0169
1295.00,0.0167
1294.00,0.0164
1293.00,0.0159
1292.00,0.0154
1291.00,0.0148
1290.00,0.0143
1289.00,0.0139
1288.00,0.0135
1287.00,0.0132
1286.00,0.0130
1285.00,0.0128
1284.00,0.0127
1283.00,0.0125
1282.00,0.0124
1281.00,0.0123
1280.00,0.0123
1279.00,0.0123
1278.00,0.0124
1277.00,0.0125
1276.00,0.0126
1275.00,0.0128
1274.00,0.0130
1273.00,0.0133
1272.00,0.0135
1271.00,0.0138
1270.00,0.0141
1269.00,0.0145
1268.00,0.0149
1267.00,0.0154
1266.00,0.0160
1265.00,0.0165
1264.00,0.0169
1263.00,0.0173
1262.00,0.0177
1261.00,0.0180
1260.00,0.0185
1259.00,0.0190
1258.00,0.0195
1257.00,0.0199
1256.00,0.0201
1255.00,0.0201
1254.00,0.0198
1253.00,0.0194
1252.00,0.0189
1251.00,0.0184
1250.00,0.0178
1249.00,0.0174
1248.00,0.0169
1247.00,0.0166
1246.00,0.0163
1245.00,0.0161
1244.00,0.0160
1243.00,0.0159
1242.00,0.0158
1241.00,0.0156
1240.00,0.0154
1239.00,0.0151
1238.00,0.0149
1237.00,0.0148
1236.00,0.0146
1235.00,0.0144
1234.00,0.0142
1233.00,0.0140
1232.00,0.0138
1231.00,0.0136
1230.00,0.0134
1229.00,0.0132
1228.00,0.0131
1227.00,0.0130
1226.00,0.0130
1225.00,0.0131
1224.00,0.0133
1223.00,0.0136
1222.00,0.0139
1221.00,0.0142
1220.00,0.0143
1219.00,0.0143
1218.00,0.0142
1217.00,0.0138
1216.00,0.0134
1215.00,0.0130
1214.00,0.0125
1213.00,0.0120
1212.00,0.0116
1211.00,0.0113
1210.00,0.0110
1209.00,0.0108
1208.00,0.0106
1207.00,0.0104
1206.00,0.0102
1205.00,0.0100
1204.00,0.0099
1203.00,0.0099
1202.00,0.0099
1201.00,0.0100
1200.00,0.0100
1199.00,0.0100
1198.00,0.0101
1197.00,0.0101
1196.00,0.0102
1195.00,0.0103
1194.00,0.0104
1193.00,0.0105
1192.00,0.0107
1191.00,0.0109
1190.00,0.0111
1189.00,0.0113
1188.00,0.0115
1187.00,0.0117
1186.00,0.0120
1185.00,0.0122
1184.00,0.0125
1183.00,0.0129
1182.00,0.0133
1181.00,0.0138
1180.00,0.0144
1179.00,0.0150
1178.00,0.0157
1177.00,0.0166
1176.00,0.0176
1175.00,0.0190
1174.00,0.0208
1173.00,0.0228
1172.00,0.0252
1171.00,0.0277
1170.00,0.0301
1169.00,0.0322
1168.00,0.0336
1167.00,0.0342
1166.00,0.0342
1165.00,0.0338
1164.00,0.0333
1163.00,0.0327
1162.00,0.0322
1161.00,0.0318
1160.00,0.0315
1159.00,0.0314
1158.00,0.0313
1157.00,0.0314
1156.00,0.0316
1155.00,0.0318
1154.00,0.0320
1153.00,0.0321
1152.00,0.0319
1151.00,0.0315
1150.00,0.0309
1149.00,0.0301
1148.00,0.0292
1147.00,0.0282
1146.00,0.0273
1145.00,0.0264
1144.00,0.0256
1143.00,0.0249
1142.00,0.0242
1141.00,0.0235
1140.00,0.0229
1139.00,0.0224
1138.00,0.0220
1137.00,0.0216
1136.00,0.0213
1135.00,0.0209
1134.00,0.0206
1133.00,0.0204
1132.00,0.0204
1131.00,0.0204
1130.00,0.0204
1129.00,0.0204
1128.00,0.0205
1127.00,0.0205
1126.00,0.0206
1125.00,0.0206
1124.00,0.0207
1123.00,0.0207
1122.00,0.0208
1121.00,0.0209
1120.00,0.0210
1119.00,0.0211
1118.00,0.0212
1117.00,0.0212
1116.00,0.0212
1115.00,0.0212
1114.00,0.0211
1113.00,0.0212
1112.00,0.0213
1111.00,0.0215
1110.00,0.0218
1109.00,0.0221
1108.00,0.0226
1107.00,0.0233
1106.00,0.0241
1105.00,0.0249
1104.00,0.0256
1103.00,0.0259
1102.00,0.0259
1101.00,0.0257
1100.00,0.0252
1099.00,0.0246
1098.00,0.0241
1097.00,0.0236
1096.00,0.0231
1095.00,0.0227
1094.00,0.0224
1093.00,0.0221
1092.00,0.0219
1091.00,0.0218
1090.00,0.0216
1089.00,0.0215
1088.00,0.0213
1087.00,0.0211
1086.00,0.0209
1085.00,0.0209
1084.00,0.0208
1083.00,0.0208
1082.00,0.0207
1081.00,0.0206
1080.00,0.0204
1079.00,0.0202
1078.00,0.0200
1077.00,0.0198
1076.00,0.0197
1075.00,0.0197
1074.00,0.0198
1073.00,0.0198
1072.00,0.0198
1071.00,0.0197
1070.00,0.0194
1069.00,0.0191
1068.00,0.0188
1067.00,0.0185
1066.00,0.0182
1065.00,0.0180
1064.00,0.0177
1063.00,0.0175
1062.00,0.0173
1061.00,0.0172
1060.00,0.0171
1059.00,0.0170
1058.00,0.0167
1057.00,0.0164
1056.00,0.0161
1055.00,0.0159
1054.00,0.0158
1053.00,0.0156
1052.00,0.0154
1051.00,0.0153
1050.00,0.0152
1049.00,0.0152
1048.00,0.0152
1047.00,0.0151
1046.00,0.0151
1045.00,0.0149
1044.00,0.0147
1043.00,0.0145
1042.00,0.0143
1041.00,0.0141
1040.00,0.0140
1039.00,0.0139
1038.00,0.0138
1037.00,0.0137
1036.00,0.0136
1035.00,0.0136
1034.00,0.0135
1033.00,0.0134
1032.00,0.0133
1031.00,0.0132
1030.00,0.0132
1029.00,0.0132
1028.00,0.0131
1027.00,0.0131
1026.00,0.0131
1025.00,0.0130
1024.00,0.0129
1023.00,0.0127
1022.00,0.0126
1021.00,0.0125
1020.00,0.0124
1019.00,0.0125
1018.00,0.0126
1017.00,0.0128
1016.00,0.0129
1015.00,0.0130
1014.00,0.0131
1013.00,0.0131
1012.00,0.0132
1011.00,0.0133
1010.00,0.0135
1009.00,0.0137
1008.00,0.0141
1007.00,0.0146
1006.00,0.0153
1005.00,0.0160
1004.00,0.0170
1003.00,0.0183
1002.00,0.0201
1001.00,0.0222
1000.00,0.0245
999.00,0.0263
998.00,0.0270
997.00,0.0264
996.00,0.0246
995.00,0.0221
994.00,0.0196
993.00,0.0174
992.00,0.0156
991.00,0.0143
990.00,0.0134
989.00,0.0127
988.00,0.0124
987.00,0.0122
986.00,0.0123
985.00,0.0126
984.00,0.0131
983.00,0.0139
982.00,0.0150
981.00,0.0165
980.00,0.0185
979.00,0.0210
978.00,0.0241
977.00,0.0278
976.00,0.0316
975.00,0.0350
974.00,0.0374
973.00,0.0384
972.00,0.0376
971.00,0.0355
970.00,0.0325
969.00,0.0294
968.00,0.0267
967.00,0.0246
966.00,0.0229
965.00,0.0216
964.00,0.0205
963.00,0.0197
962.00,0.0190
961.00,0.0186
960.00,0.0184
959.00,0.0183
958.00,0.0184
957.00,0.0184
956.00,0.0184
955.00,0.0183
954.00,0.0181
953.00,0.0180
952.00,0.0180
951.00,0.0179
950.00,0.0177
949.00,0.0175
948.00,0.0173
947.00,0.0172
946.00,0.0173
945.00,0.0175
944.00,0.0177
943.00,0.0180
942.00,0.0183
941.00,0.0183
940.00,0.0180
939.00,0.0175
938.00,0.0168
937.00,0.0160
936.00,0.0151
935.00,0.0143
934.00,0.0135
933.00,0.0127
932.00,0.0121
931.00,0.0116
930.00,0.0111
929.00,0.0106
928.00,0.0103
927.00,0.0100
926.00,0.0098
925.00,0.0097
924.00,0.0096
923.00,0.0095
922.00,0.0095
921.00,0.0095
920.00,0.0095
919.00,0.0095
918.00,0.0095
917.00,0.0095
916.00,0.0095
915.00,0.0094
914.00,0.0094
913.00,0.0095
912.00,0.0096
911.00,0.0098
910.00,0.0100
909.00,0.0101
908.00,0.0104
907.00,0.0108
906.00,0.0116
905.00,0.0128
904.00,0.0145
903.00,0.0166
902.00,0.0189
901.00,0.0209
900.00,0.0223
899.00,0.0226
898.00,0.0217
897.00,0.0199
896.00,0.0176
895.00,0.0154
894.00,0.0136
893.00,0.0123
892.00,0.0113
891.00,0.0106
890.00,0.0100
889.00,0.0096
888.00,0.0092
887.00,0.0090
886.00,0.0089
885.00,0.0088
884.00,0.0088
883.00,0.0088
882.00,0.0089
881.00,0.0089
880.00,0.0090
879.00,0.0091
878.00,0.0092
877.00,0.0092
876.00,0.0092
875.00,0.0092
874.00,0.0092
873.00,0.0092
872.00,0.0092
871.00,0.0093
870.00,0.0093
869.00,0.0093
868.00,0.0093
867.00,0.0093
866.00,0.0094
865.00,0.0094
864.00,0.0094
863.00,0.0095
862.00,0.0095
861.00,0.0096
860.00,0.0097
859.00,0.0097
858.00,0.0097
857.00,0.0097
856.00,0.0098
855.00,0.0100
854.00,0.0102
853.00,0.0106
852.00,0.0110
851.00,0.0114
850.00,0.0118
849.00,0.0122
848.00,0.0128
847.00,0.0137
846.00,0.0150
845.00,0.0170
844.00,0.0196
843.00,0.0223
842.00,0.0243
841.00,0.0247
840.00,0.0233
839.00,0.0208
838.00,0.0183
837.00,0.0163
836.00,0.0150
835.00,0.0142
834.00,0.0137
833.00,0.0134
832.00,0.0133
831.00,0.0134
830.00,0.0135
829.00,0.0135
828.00,0.0134
827.00,0.0132
826.00,0.0130
825.00,0.0130
824.00,0.0130
823.00,0.0132
822.00,0.0133
821.00,0.0136
820.00,0.0139
819.00,0.0143
818.00,0.0149
817.00,0.0157
816.00,0.0167
815.00,0.0180
814.00,0.0197
813.00,0.0216
812.00,0.0237
811.00,0.0256
810.00,0.0270
809.00,0.0277
808.00,0.0275
807.00,0.0264
806.00,0.0247
805.00,0.0228
804.00,0.0210
803.00,0.0193
802.00,0.0178
801.00,0.0167
800.00,0.0160
799.00,0.0153
798.00,0.0147
797.00,0.0140
796.00,0.0132
795.00,0.0124
794.00,0.0119
793.00,0.0115
792.00,0.0113
791.00,0.0112
790.00,0.0110
789.00,0.0108
788.00,0.0106
787.00,0.0105
786.00,0.0103
785.00,0.0099
784.00,0.0096
783.00,0.0093
782.00,0.0091
781.00,0.0090
780.00,0.0089
779.00,0.0086
778.00,0.0084
777.00,0.0081
776.00,0.0080
775.00,0.0081
774.00,0.0083
773.00,0.0085
772.00,0.0088
771.00,0.0091
770.00,0.0092
769.00,0.0094
768.00,0.0094
767.00,0.0095
766.00,0.0095
765.00,0.0093
764.00,0.0091
763.00,0.0088
762.00,0.0086
761.00,0.0084
760.00,0.0083
759.00,0.0081
758.00,0.0080
757.00,0.0079
756.00,0.0080
755.00,0.0081
754.00,0.0082
753.00,0.0082
752.00,0.0081
751.00,0.0079
750.00,0.0078
749.00,0.0077
748.00,0.0077
747.00,0.0078
746.00,0.0080
745.00,0.0082
744.00,0.0083
743.00,0.0083
742.00,0.0083
741.00,0.0084
740.00,0.0085
739.00,0.0087
738.00,0.0088
737.00,0.0091
736.00,0.0093
735.00,0.0097
734.00,0.0099
733.00,0.0101
732.00,0.0102
731.00,0.0103
730.00,0.0104
729.00,0.0106
728.00,0.0106
727.00,0.0106
726.00,0.0105
725.00,0.0104
724.00,0.0103
723.00,0.0102
722.00,0.0102
721.00,0.0100
720.00,0.0097
719.00,0.0094
718.00,0.0091
717.00,0.0090
716.00,0.0091
715.00,0.0092
714.00,0.0093
713.00,0.0092
712.00,0.0091
711.00,0.0089
710.00,0.0088
709.00,0.0089
708.00,0.0090
707.00,0.0092
706.00,0.0093
705.00,0.0093
704.00,0.0092
703.00,0.0090
702.00,0.0088
701.00,0.0085
700.00,0.0082
699.00,0.0080
698.00,0.0079
697.00,0.0079
696.00,0.0081
695.00,0.0082
694.00,0.0083
693.00,0.0082
692.00,0.0080
691.00,0.0079
690.00,0.0078
689.00,0.0078
688.00,0.0078
687.00,0.0079
686.00,0.0081
685.00,0.0083
684.00,0.0083
683.00,0.0083
682.00,0.0083
681.00,0.0083
680.00,0.0084
679.00,0.0084
678.00,0.0083
677.00,0.0082
676.00,0.0080
675.00,0.0078
674.00,0.0078
673.00,0.0077
672.00,0.0078
671.00,0.0079
670.00,0.0080
669.00,0.0078
668.00,0.0075
667.00,0.0074
666.00,0.0076
665.00,0.0078
664.00,0.0080
663.00,0.0081
662.00,0.0081
661.00,0.0082
660.00,0.0082
659.00,0.0080
658.00,0.0079
657.00,0.0078
656.00,0.0079
655.00,0.0081
654.00,0.0081
653.00,0.0080
652.00,0.0079
651.00,0.0078
650.00,0.0078
649.00,0.0080
648.00,0.0081
647.00,0.0082
646.00,0.0082
645.00,0.0083
644.00,0.0084
643.00,0.0085
642.00,0.0084
641.00,0.0083
640.00,0.0082
639.00,0.0084
638.00,0.0086
637.00,0.0088
636.00,0.0089
635.00,0.0088
634.00,0.0086
633.00,0.0084
632.00,0.0082
631.00,0.0080
630.00,0.0079
629.00,0.0080
628.00,0.0083
627.00,0.0087
626.00,0.0089
625.00,0.0089
624.00,0.0088
623.00,0.0086
622.00,0.0084
621.00,0.0084
620.00,0.0084
619.00,0.0084
618.00,0.0083
617.00,0.0081
616.00,0.0079
615.00,0.0079
614.00,0.0081
613.00,0.0085
612.00,0.0089
611.00,0.0090
610.00,0.0089
609.00,0.0087
608.00,0.0085
607.00,0.0084
606.00,0.0084
605.00,0.0085
604.00,0.0086
603.00,0.0088
602.00,0.0088
601.00,0.0088
600.00,0.0086
599.00,0.0083
598.00,0.0082
597.00,0.0083
596.00,0.0085
595.00,0.0087
594.00,0.0088
593.00,0.0088
592.00,0.0086
591.00,0.0084
590.00,0.0082
589.00,0.0082
588.00,0.0084
587.00,0.0087
586.00,0.0091
585.00,0.0094
584.00,0.0096
583.00,0.0096
582.00,0.0096
581.00,0.0096
580.00,0.0097
579.00,0.0097
578.00,0.0097
577.00,0.0096
576.00,0.0095
575.00,0.0092
574.00,0.0089
573.00,0.0086
572.00,0.0084
571.00,0.0083
570.00,0.0084
569.00,0.0084
568.00,0.0086
567.00,0.0089
566.00,0.0092
565.00,0.0095
564.00,0.0096
563.00,0.0096
562.00,0.0094
561.00,0.0091
560.00,0.0088
559.00,0.0086
558.00,0.0085
557.00,0.0086
556.00,0.0088
555.00,0.0092
554.00,0.0095
553.00,0.0095
552.00,0.0093
551.00,0.0090
550.00,0.0089
549.00,0.0090
548.00,0.0093
547.00,0.0097
546.00,0.0101
545.00,0.0102
544.00,0.0100
543.00,0.0098
542.00,0.0098
541.00,0.0100
540.00,0.0102
539.00,0.0103
538.00,0.0102
537.00,0.0102
536.00,0.0103
535.00,0.0107
534.00,0.0110
533.00,0.0112
532.00,0.0114
531.00,0.0116
530.00,0.0117
529.00,0.0117
528.00,0.0116
527.00,0.0116
526.00,0.0118
525.00,0.0120
524.00,0.0122
523.00,0.0123
522.00,0.0125
521.00,0.0125
520.00,0.0121
519.00,0.0111
518.00,0.0098
517.00,0.0091
516.00,0.0093
515.00,0.0101
514.00,0.0107
513.00,0.0108
512.00,0.0102
511.00,0.0093
510.00,0.0084
509.00,0.0078
508.00,0.0076
507.00,0.0076
506.00,0.0077
505.00,0.0078
504.00,0.0078
503.00,0.0077
502.00,0.0078
501.00,0.0083
500.00,0.0089
499.00,0.0092
498.00,0.0093
497.00,0.0095
496.00,0.0100
495.00,0.0104
494.00,0.0102
493.00,0.0094
492.00,0.0085
491.00,0.0082
490.00,0.0086
489.00,0.0093
488.00,0.0098
487.00,0.0100
486.00,0.0101
485.00,0.0104
484.00,0.0108
483.00,0.0109
482.00,0.0106
481.00,0.0100
480.00,0.0096
479.00,0.0096
478.00,0.0100
477.00,0.0103
476.00,0.0103
475.00,0.0103
474.00,0.0105
473.00,0.0111
472.00,0.0118
471.00,0.0121
470.00,0.0121
469.00,0.0123
468.00,0.0128
467.00,0.0136
466.00,0.0141
465.00,0.0143
464.00,0.0142
463.00,0.0147
462.00,0.0159
461.00,0.0178
460.00,0.0197
459.00,0.0210
458.00,0.0210
457.00,0.0199
456.00,0.0186
455.00,0.0174
454.00,0.0163
453.00,0.0151
452.00,0.0139
451.00,0.0131
450.00,0.0124
