Created as New Dataset,Sample 114 By Administrator Date Tuesday, September 09 2025
cm-1,A
4000.00,0.0016
3999.00,0.0016
3998.00,0.0016
3997.00,0.0017
3996.00,0.0017
3995.00,0.0016
3994.00,0.0016
3993.00,0.0016
3992.00,0.0016
3991.00,0.0016
3990.00,0.0016
3989.00,0.0016
3988.00,0.0016
3987.00,0.0016
3986.00,0.0016
3985.00,0.0016
3984.00,0.0016
3983.00,0.0016
3982.00,0.0016
3981.00,0.0016
3980.00,0.0016
3979.00,0.0016
3978.00,0.0016
3977.00,0.0015
3976.00,0.0015
3975.00,0.0015
3974.00,0.0015
3973.00,0.0015
3972.00,0.0015
3971.00,0.0015
3970.00,0.0015
3969.00,0.0015
3968.00,0.0015
3967.00,0.0014
3966.00,0.0014
3965.00,0.0014
3964.00,0.0014
3963.00,0.0014
3962.00,0.0014
3961.00,0.0015
3960.00,0.0015
3959.00,0.0015
3958.00,0.0015
3957.00,0.0015
3956.00,0.0015
3955.00,0.0014
3954.00,0.0014
3953.00,0.0014
3952.00,0.0014
3951.00,0.0014
3950.00,0.0014
3949.00,0.0014
3948.00,0.0014
3947.00,0.0014
3946.00,0.0014
3945.00,0.0014
3944.00,0.0015
3943.00,0.0015
3942.00,0.0015
3941.00,0.0015
3940.00,0.0015
3939.00,0.0015
3938.00,0.0015
3937.00,0.0015
3936.00,0.0015
3935.00,0.0015
3934.00,0.0015
3933.00,0.0015
3932.00,0.0015
3931.00,0.0015
3930.00,0.0015
3929.00,0.0015
3928.00,0.0015
3927.00,0.0015
3926.00,0.0015
3925.00,0.0015
3924.00,0.0015
3923.00,0.0015
3922.00,0.0015
3921.00,0.0016
3920.00,0.0016
3919.00,0.0015
3918.00,0.0015
3917.00,0.0015
3916.00,0.0015
3915.00,0.0015
3914.00,0.0014
3913.00,0.0014
3912.00,0.0015
3911.00,0.0015
3910.00,0.0015
3909.00,0.0015
3908.00,0.0015
3907.00,0.0015
3906.00,0.0015
3905.00,0.0015
3904.00,0.0015
3903.00,0.0016
3902.00,0.0015
3901.00,0.0015
3900.00,0.0015
3899.00,0.0015
3898.00,0.0015
3897.00,0.0015
3896.00,0.0015
3895.00,0.0015
3894.00,0.0014
3893.00,0.0014
3892.00,0.0014
3891.00,0.0014
3890.00,0.0014
3889.00,0.0014
3888.00,0.0015
3887.00,0.0015
3886.00,0.0015
3885.00,0.0015
3884.00,0.0015
3883.00,0.0014
3882.00,0.0014
3881.00,0.0014
3880.00,0.0014
3879.00,0.0014
3878.00,0.0014
3877.00,0.0014
3876.00,0.0014
3875.00,0.0014
3874.00,0.0014
3873.00,0.0014
3872.00,0.0014
3871.00,0.0014
3870.00,0.0014
3869.00,0.0014
3868.00,0.0014
3867.00,0.0014
3866.00,0.0013
3865.00,0.0013
3864.00,0.0014
3863.00,0.0014
3862.00,0.0014
3861.00,0.0014
3860.00,0.0014
3859.00,0.0014
3858.00,0.0015
3857.00,0.0015
3856.00,0.0015
3855.00,0.0014
3854.00,0.0014
3853.00,0.0014
3852.00,0.0014
3851.00,0.0014
3850.00,0.0014
3849.00,0.0014
3848.00,0.0014
3847.00,0.0014
3846.00,0.0014
3845.00,0.0014
3844.00,0.0014
3843.00,0.0014
3842.00,0.0014
3841.00,0.0013
3840.00,0.0013
3839.00,0.0014
3838.00,0.0014
3837.00,0.0014
3836.00,0.0013
3835.00,0.0013
3834.00,0.0013
3833.00,0.0013
3832.00,0.0014
3831.00,0.0014
3830.00,0.0014
3829.00,0.0014
3828.00,0.0013
3827.00,0.0013
3826.00,0.0014
3825.00,0.0014
3824.00,0.0014
3823.00,0.0013
3822.00,0.0013
3821.00,0.0014
3820.00,0.0014
3819.00,0.0014
3818.00,0.0014
3817.00,0.0014
3816.00,0.0014
3815.00,0.0015
3814.00,0.0015
3813.00,0.0014
3812.00,0.0014
3811.00,0.0015
3810.00,0.0015
3809.00,0.0015
3808.00,0.0014
3807.00,0.0014
3806.00,0.0014
3805.00,0.0014
3804.00,0.0014
3803.00,0.0013
3802.00,0.0013
3801.00,0.0014
3800.00,0.0014
3799.00,0.0013
3798.00,0.0012
3797.00,0.0012
3796.00,0.0013
3795.00,0.0013
3794.00,0.0013
3793.00,0.0013
3792.00,0.0014
3791.00,0.0014
3790.00,0.0014
3789.00,0.0014
3788.00,0.0014
3787.00,0.0014
3786.00,0.0014
3785.00,0.0014
3784.00,0.0014
3783.00,0.0014
3782.00,0.0014
3781.00,0.0013
3780.00,0.0013
3779.00,0.0013
3778.00,0.0014
3777.00,0.0014
3776.00,0.0014
3775.00,0.0014
3774.00,0.0014
3773.00,0.0014
3772.00,0.0014
3771.00,0.0014
3770.00,0.0014
3769.00,0.0014
3768.00,0.0014
3767.00,0.0014
3766.00,0.0014
3765.00,0.0014
3764.00,0.0014
3763.00,0.0015
3762.00,0.0014
3761.00,0.0014
3760.00,0.0014
3759.00,0.0014
3758.00,0.0014
3757.00,0.0014
3756.00,0.0014
3755.00,0.0014
3754.00,0.0014
3753.00,0.0014
3752.00,0.0014
3751.00,0.0014
3750.00,0.0015
3749.00,0.0015
3748.00,0.0015
3747.00,0.0015
3746.00,0.0014
3745.00,0.0014
3744.00,0.0014
3743.00,0.0015
3742.00,0.0015
3741.00,0.0014
3740.00,0.0014
3739.00,0.0014
3738.00,0.0013
3737.00,0.0013
3736.00,0.0013
3735.00,0.0013
3734.00,0.0013
3733.00,0.0014
3732.00,0.0014
3731.00,0.0014
3730.00,0.0014
3729.00,0.0014
3728.00,0.0014
3727.00,0.0014
3726.00,0.0014
3725.00,0.0013
3724.00,0.0013
3723.00,0.0013
3722.00,0.0013
3721.00,0.0013
3720.00,0.0013
3719.00,0.0013
3718.00,0.0013
3717.00,0.0013
3716.00,0.0013
3715.00,0.0013
3714.00,0.0013
3713.00,0.0013
3712.00,0.0013
3711.00,0.0013
3710.00,0.0013
3709.00,0.0012
3708.00,0.0012
3707.00,0.0012
3706.00,0.0012
3705.00,0.0012
3704.00,0.0012
3703.00,0.0012
3702.00,0.0012
3701.00,0.0012
3700.00,0.0012
3699.00,0.0012
3698.00,0.0012
3697.00,0.0012
3696.00,0.0012
3695.00,0.0012
3694.00,0.0012
3693.00,0.0012
3692.00,0.0012
3691.00,0.0012
3690.00,0.0012
3689.00,0.0012
3688.00,0.0013
3687.00,0.0014
3686.00,0.0014
3685.00,0.0014
3684.00,0.0014
3683.00,0.0014
3682.00,0.0014
3681.00,0.0014
3680.00,0.0014
3679.00,0.0013
3678.00,0.0013
3677.00,0.0012
3676.00,0.0012
3675.00,0.0012
3674.00,0.0012
3673.00,0.0012
3672.00,0.0012
3671.00,0.0012
3670.00,0.0013
3669.00,0.0013
3668.00,0.0013
3667.00,0.0013
3666.00,0.0013
3665.00,0.0013
3664.00,0.0013
3663.00,0.0013
3662.00,0.0013
3661.00,0.0013
3660.00,0.0013
3659.00,0.0013
3658.00,0.0013
3657.00,0.0013
3656.00,0.0013
3655.00,0.0013
3654.00,0.0013
3653.00,0.0012
3652.00,0.0012
3651.00,0.0012
3650.00,0.0012
3649.00,0.0012
3648.00,0.0012
3647.00,0.0012
3646.00,0.0012
3645.00,0.0013
3644.00,0.0013
3643.00,0.0013
3642.00,0.0013
3641.00,0.0013
3640.00,0.0014
3639.00,0.0014
3638.00,0.0014
3637.00,0.0014
3636.00,0.0013
3635.00,0.0013
3634.00,0.0013
3633.00,0.0013
3632.00,0.0013
3631.00,0.0013
3630.00,0.0013
3629.00,0.0013
3628.00,0.0014
3627.00,0.0014
3626.00,0.0015
3625.00,0.0015
3624.00,0.0015
3623.00,0.0015
3622.00,0.0015
3621.00,0.0015
3620.00,0.0014
3619.00,0.0014
3618.00,0.0014
3617.00,0.0014
3616.00,0.0014
3615.00,0.0015
3614.00,0.0015
3613.00,0.0016
3612.00,0.0017
3611.00,0.0017
3610.00,0.0017
3609.00,0.0017
3608.00,0.0017
3607.00,0.0017
3606.00,0.0016
3605.00,0.0015
3604.00,0.0015
3603.00,0.0015
3602.00,0.0015
3601.00,0.0016
3600.00,0.0017
3599.00,0.0018
3598.00,0.0018
3597.00,0.0018
3596.00,0.0017
3595.00,0.0017
3594.00,0.0017
3593.00,0.0017
3592.00,0.0017
3591.00,0.0018
3590.00,0.0018
3589.00,0.0018
3588.00,0.0018
3587.00,0.0018
3586.00,0.0018
3585.00,0.0018
3584.00,0.0018
3583.00,0.0018
3582.00,0.0018
3581.00,0.0019
3580.00,0.0019
3579.00,0.0019
3578.00,0.0019
3577.00,0.0019
3576.00,0.0019
3575.00,0.0019
3574.00,0.0019
3573.00,0.0019
3572.00,0.0019
3571.00,0.0020
3570.00,0.0020
3569.00,0.0020
3568.00,0.0021
3567.00,0.0021
3566.00,0.0021
3565.00,0.0021
3564.00,0.0021
3563.00,0.0022
3562.00,0.0022
3561.00,0.0022
3560.00,0.0022
3559.00,0.0022
3558.00,0.0022
3557.00,0.0023
3556.00,0.0023
3555.00,0.0023
3554.00,0.0023
3553.00,0.0023
3552.00,0.0024
3551.00,0.0024
3550.00,0.0024
3549.00,0.0024
3548.00,0.0025
3547.00,0.0025
3546.00,0.0025
3545.00,0.0026
3544.00,0.0026
3543.00,0.0025
3542.00,0.0025
3541.00,0.0025
3540.00,0.0026
3539.00,0.0026
3538.00,0.0027
3537.00,0.0027
3536.00,0.0026
3535.00,0.0026
3534.00,0.0026
3533.00,0.0027
3532.00,0.0027
3531.00,0.0028
3530.00,0.0028
3529.00,0.0028
3528.00,0.0028
3527.00,0.0028
3526.00,0.0029
3525.00,0.0029
3524.00,0.0029
3523.00,0.0029
3522.00,0.0029
3521.00,0.0029
3520.00,0.0029
3519.00,0.0028
3518.00,0.0028
3517.00,0.0028
3516.00,0.0029
3515.00,0.0029
3514.00,0.0030
3513.00,0.0030
3512.00,0.0031
3511.00,0.0031
3510.00,0.0031
3509.00,0.0031
3508.00,0.0031
3507.00,0.0031
3506.00,0.0031
3505.00,0.0031
3504.00,0.0032
3503.00,0.0032
3502.00,0.0032
3501.00,0.0032
3500.00,0.0032
3499.00,0.0033
3498.00,0.0033
3497.00,0.0033
3496.00,0.0033
3495.00,0.0033
3494.00,0.0034
3493.00,0.0035
3492.00,0.0035
3491.00,0.0035
3490.00,0.0035
3489.00,0.0035
3488.00,0.0035
3487.00,0.0034
3486.00,0.0035
3485.00,0.0035
3484.00,0.0035
3483.00,0.0035
3482.00,0.0036
3481.00,0.0036
3480.00,0.0036
3479.00,0.0037
3478.00,0.0037
3477.00,0.0037
3476.00,0.0037
3475.00,0.0037
3474.00,0.0037
3473.00,0.0037
3472.00,0.0037
3471.00,0.0038
3470.00,0.0038
3469.00,0.0038
3468.00,0.0038
3467.00,0.0038
3466.00,0.0038
3465.00,0.0038
3464.00,0.0038
3463.00,0.0038
3462.00,0.0038
3461.00,0.0039
3460.00,0.0039
3459.00,0.0040
3458.00,0.0040
3457.00,0.0040
3456.00,0.0040
3455.00,0.0040
3454.00,0.0040
3453.00,0.0041
3452.00,0.0041
3451.00,0.0042
3450.00,0.0042
3449.00,0.0041
3448.00,0.0041
3447.00,0.0041
3446.00,0.0042
3445.00,0.0042
3444.00,0.0042
3443.00,0.0043
3442.00,0.0043
3441.00,0.0043
3440.00,0.0043
3439.00,0.0044
3438.00,0.0044
3437.00,0.0044
3436.00,0.0044
3435.00,0.0044
3434.00,0.0044
3433.00,0.0044
3432.00,0.0045
3431.00,0.0045
3430.00,0.0045
3429.00,0.0045
3428.00,0.0045
3427.00,0.0045
3426.00,0.0045
3425.00,0.0045
3424.00,0.0045
3423.00,0.0046
3422.00,0.0046
3421.00,0.0046
3420.00,0.0047
3419.00,0.0047
3418.00,0.0047
3417.00,0.0047
3416.00,0.0047
3415.00,0.0047
3414.00,0.0047
3413.00,0.0048
3412.00,0.0048
3411.00,0.0048
3410.00,0.0048
3409.00,0.0048
3408.00,0.0049
3407.00,0.0049
3406.00,0.0049
3405.00,0.0050
3404.00,0.0050
3403.00,0.0050
3402.00,0.0050
3401.00,0.0050
3400.00,0.0050
3399.00,0.0050
3398.00,0.0050
3397.00,0.0050
3396.00,0.0051
3395.00,0.0051
3394.00,0.0051
3393.00,0.0051
3392.00,0.0051
3391.00,0.0051
3390.00,0.0051
3389.00,0.0051
3388.00,0.0051
3387.00,0.0051
3386.00,0.0051
3385.00,0.0051
3384.00,0.0051
3383.00,0.0051
3382.00,0.0051
3381.00,0.0051
3380.00,0.0051
3379.00,0.0051
3378.00,0.0051
3377.00,0.0051
3376.00,0.0051
3375.00,0.0051
3374.00,0.0051
3373.00,0.0051
3372.00,0.0052
3371.00,0.0052
3370.00,0.0052
3369.00,0.0053
3368.00,0.0053
3367.00,0.0054
3366.00,0.0054
3365.00,0.0054
3364.00,0.0053
3363.00,0.0053
3362.00,0.0053
3361.00,0.0053
3360.00,0.0053
3359.00,0.0053
3358.00,0.0054
3357.00,0.0054
3356.00,0.0054
3355.00,0.0054
3354.00,0.0054
3353.00,0.0054
3352.00,0.0054
3351.00,0.0054
3350.00,0.0054
3349.00,0.0054
3348.00,0.0054
3347.00,0.0054
3346.00,0.0054
3345.00,0.0054
3344.00,0.0054
3343.00,0.0054
3342.00,0.0054
3341.00,0.0054
3340.00,0.0054
3339.00,0.0054
3338.00,0.0054
3337.00,0.0054
3336.00,0.0054
3335.00,0.0054
3334.00,0.0055
3333.00,0.0055
3332.00,0.0055
3331.00,0.0055
3330.00,0.0054
3329.00,0.0054
3328.00,0.0054
3327.00,0.0054
3326.00,0.0054
3325.00,0.0053
3324.00,0.0053
3323.00,0.0053
3322.00,0.0053
3321.00,0.0053
3320.00,0.0053
3319.00,0.0053
3318.00,0.0054
3317.00,0.0054
3316.00,0.0054
3315.00,0.0054
3314.00,0.0054
3313.00,0.0054
3312.00,0.0054
3311.00,0.0054
3310.00,0.0054
3309.00,0.0054
3308.00,0.0053
3307.00,0.0053
3306.00,0.0053
3305.00,0.0053
3304.00,0.0053
3303.00,0.0054
3302.00,0.0054
3301.00,0.0054
3300.00,0.0054
3299.00,0.0054
3298.00,0.0054
3297.00,0.0054
3296.00,0.0053
3295.00,0.0053
3294.00,0.0053
3293.00,0.0054
3292.00,0.0054
3291.00,0.0054
3290.00,0.0054
3289.00,0.0054
3288.00,0.0054
3287.00,0.0053
3286.00,0.0053
3285.00,0.0052
3284.00,0.0052
3283.00,0.0052
3282.00,0.0052
3281.00,0.0052
3280.00,0.0052
3279.00,0.0052
3278.00,0.0052
3277.00,0.0052
3276.00,0.0052
3275.00,0.0051
3274.00,0.0051
3273.00,0.0051
3272.00,0.0051
3271.00,0.0050
3270.00,0.0050
3269.00,0.0050
3268.00,0.0050
3267.00,0.0050
3266.00,0.0050
3265.00,0.0050
3264.00,0.0050
3263.00,0.0049
3262.00,0.0049
3261.00,0.0049
3260.00,0.0049
3259.00,0.0049
3258.00,0.0049
3257.00,0.0048
3256.00,0.0048
3255.00,0.0048
3254.00,0.0048
3253.00,0.0048
3252.00,0.0048
3251.00,0.0048
3250.00,0.0048
3249.00,0.0048
3248.00,0.0048
3247.00,0.0047
3246.00,0.0047
3245.00,0.0047
3244.00,0.0047
3243.00,0.0047
3242.00,0.0047
3241.00,0.0047
3240.00,0.0047
3239.00,0.0046
3238.00,0.0046
3237.00,0.0046
3236.00,0.0046
3235.00,0.0047
3234.00,0.0047
3233.00,0.0048
3232.00,0.0048
3231.00,0.0048
3230.00,0.0047
3229.00,0.0047
3228.00,0.0047
3227.00,0.0047
3226.00,0.0047
3225.00,0.0047
3224.00,0.0047
3223.00,0.0047
3222.00,0.0048
3221.00,0.0048
3220.00,0.0048
3219.00,0.0048
3218.00,0.0048
3217.00,0.0048
3216.00,0.0049
3215.00,0.0049
3214.00,0.0049
3213.00,0.0049
3212.00,0.0049
3211.00,0.0049
3210.00,0.0050
3209.00,0.0050
3208.00,0.0050
3207.00,0.0050
3206.00,0.0050
3205.00,0.0050
3204.00,0.0051
3203.00,0.0051
3202.00,0.0051
3201.00,0.0051
3200.00,0.0051
3199.00,0.0051
3198.00,0.0051
3197.00,0.0051
3196.00,0.0051
3195.00,0.0051
3194.00,0.0051
3193.00,0.0051
3192.00,0.0051
3191.00,0.0050
3190.00,0.0050
3189.00,0.0050
3188.00,0.0050
3187.00,0.0049
3186.00,0.0049
3185.00,0.0049
3184.00,0.0049
3183.00,0.0049
3182.00,0.0049
3181.00,0.0049
3180.00,0.0048
3179.00,0.0048
3178.00,0.0048
3177.00,0.0048
3176.00,0.0048
3175.00,0.0047
3174.00,0.0047
3173.00,0.0047
3172.00,0.0046
3171.00,0.0046
3170.00,0.0046
3169.00,0.0045
3168.00,0.0045
3167.00,0.0045
3166.00,0.0045
3165.00,0.0045
3164.00,0.0045
3163.00,0.0045
3162.00,0.0044
3161.00,0.0044
3160.00,0.0044
3159.00,0.0044
3158.00,0.0044
3157.00,0.0044
3156.00,0.0044
3155.00,0.0044
3154.00,0.0044
3153.00,0.0043
3152.00,0.0043
3151.00,0.0043
3150.00,0.0043
3149.00,0.0043
3148.00,0.0043
3147.00,0.0043
3146.00,0.0043
3145.00,0.0043
3144.00,0.0043
3143.00,0.0043
3142.00,0.0043
3141.00,0.0042
3140.00,0.0042
3139.00,0.0041
3138.00,0.0041
3137.00,0.0041
3136.00,0.0041
3135.00,0.0040
3134.00,0.0040
3133.00,0.0040
3132.00,0.0040
3131.00,0.0040
3130.00,0.0040
3129.00,0.0040
3128.00,0.0040
3127.00,0.0040
3126.00,0.0040
3125.00,0.0040
3124.00,0.0040
3123.00,0.0039
3122.00,0.0038
3121.00,0.0038
3120.00,0.0037
3119.00,0.0037
3118.00,0.0037
3117.00,0.0037
3116.00,0.0037
3115.00,0.0037
3114.00,0.0037
3113.00,0.0037
3112.00,0.0037
3111.00,0.0037
3110.00,0.0037
3109.00,0.0037
3108.00,0.0036
3107.00,0.0036
3106.00,0.0036
3105.00,0.0036
3104.00,0.0036
3103.00,0.0036
3102.00,0.0036
3101.00,0.0035
3100.00,0.0035
3099.00,0.0035
3098.00,0.0035
3097.00,0.0035
3096.00,0.0035
3095.00,0.0035
3094.00,0.0035
3093.00,0.0036
3092.00,0.0036
3091.00,0.0035
3090.00,0.0035
3089.00,0.0034
3088.00,0.0034
3087.00,0.0034
3086.00,0.0034
3085.00,0.0034
3084.00,0.0034
3083.00,0.0033
3082.00,0.0033
3081.00,0.0033
3080.00,0.0033
3079.00,0.0033
3078.00,0.0033
3077.00,0.0034
3076.00,0.0034
3075.00,0.0034
3074.00,0.0034
3073.00,0.0034
3072.00,0.0034
3071.00,0.0034
3070.00,0.0034
3069.00,0.0033
3068.00,0.0033
3067.00,0.0033
3066.00,0.0034
3065.00,0.0034
3064.00,0.0035
3063.00,0.0035
3062.00,0.0035
3061.00,0.0036
3060.00,0.0036
3059.00,0.0036
3058.00,0.0036
3057.00,0.0036
3056.00,0.0036
3055.00,0.0036
3054.00,0.0036
3053.00,0.0036
3052.00,0.0036
3051.00,0.0037
3050.00,0.0037
3049.00,0.0037
3048.00,0.0037
3047.00,0.0037
3046.00,0.0037
3045.00,0.0037
3044.00,0.0037
3043.00,0.0037
3042.00,0.0037
3041.00,0.0037
3040.00,0.0038
3039.00,0.0038
3038.00,0.0038
3037.00,0.0039
3036.00,0.0039
3035.00,0.0040
3034.00,0.0040
3033.00,0.0041
3032.00,0.0041
3031.00,0.0041
3030.00,0.0041
3029.00,0.0042
3028.00,0.0042
3027.00,0.0042
3026.00,0.0043
3025.00,0.0043
3024.00,0.0044
3023.00,0.0045
3022.00,0.0045
3021.00,0.0046
3020.00,0.0046
3019.00,0.0047
3018.00,0.0047
3017.00,0.0048
3016.00,0.0049
3015.00,0.0050
3014.00,0.0051
3013.00,0.0053
3012.00,0.0054
3011.00,0.0055
3010.00,0.0056
3009.00,0.0058
3008.00,0.0059
3007.00,0.0061
3006.00,0.0062
3005.00,0.0064
3004.00,0.0065
3003.00,0.0067
3002.00,0.0069
3001.00,0.0072
3000.00,0.0074
2999.00,0.0077
2998.00,0.0080
2997.00,0.0084
2996.00,0.0087
2995.00,0.0092
2994.00,0.0096
2993.00,0.0101
2992.00,0.0106
2991.00,0.0112
2990.00,0.0118
2989.00,0.0124
2988.00,0.0132
2987.00,0.0141
2986.00,0.0151
2985.00,0.0162
2984.00,0.0174
2983.00,0.0188
2982.00,0.0203
2981.00,0.0220
2980.00,0.0239
2979.00,0.0261
2978.00,0.0286
2977.00,0.0314
2976.00,0.0346
2975.00,0.0382
2974.00,0.0423
2973.00,0.0470
2972.00,0.0521
2971.00,0.0579
2970.00,0.0641
2969.00,0.0710
2968.00,0.0783
2967.00,0.0861
2966.00,0.0941
2965.00,0.1022
2964.00,0.1101
2963.00,0.1172
2962.00,0.1234
2961.00,0.1285
2960.00,0.1325
2959.00,0.1359
2958.00,0.1392
2957.00,0.1428
2956.00,0.1473
2955.00,0.1527
2954.00,0.1591
2953.00,0.1658
2952.00,0.1721
2951.00,0.1769
2950.00,0.1791
2949.00,0.1779
2948.00,0.1729
2947.00,0.1645
2946.00,0.1535
2945.00,0.1413
2944.00,0.1292
2943.00,0.1184
2942.00,0.1096
2941.00,0.1032
2940.00,0.0992
2939.00,0.0974
2938.00,0.0975
2937.00,0.0993
2936.00,0.1027
2935.00,0.1074
2934.00,0.1135
2933.00,0.1208
2932.00,0.1291
2931.00,0.1381
2930.00,0.1478
2929.00,0.1577
2928.00,0.1675
2927.00,0.1770
2926.00,0.1861
2925.00,0.1946
2924.00,0.2029
2923.00,0.2109
2922.00,0.2188
2921.00,0.2262
2920.00,0.2327
2919.00,0.2376
2918.00,0.2403
2917.00,0.2401
2916.00,0.2371
2915.00,0.2316
2914.00,0.2243
2913.00,0.2162
2912.00,0.2078
2911.00,0.1997
2910.00,0.1921
2909.00,0.1851
2908.00,0.1785
2907.00,0.1722
2906.00,0.1659
2905.00,0.1596
2904.00,0.1532
2903.00,0.1468
2902.00,0.1405
2901.00,0.1344
2900.00,0.1284
2899.00,0.1227
2898.00,0.1175
2897.00,0.1127
2896.00,0.1085
2895.00,0.1049
2894.00,0.1020
2893.00,0.0996
2892.00,0.0979
2891.00,0.0967
2890.00,0.0961
2889.00,0.0959
2888.00,0.0961
2887.00,0.0966
2886.00,0.0974
2885.00,0.0987
2884.00,0.1003
2883.00,0.1023
2882.00,0.1047
2881.00,0.1073
2880.00,0.1097
2879.00,0.1117
2878.00,0.1129
2877.00,0.1132
2876.00,0.1128
2875.00,0.1120
2874.00,0.1114
2873.00,0.1113
2872.00,0.1120
2871.00,0.1134
2870.00,0.1152
2869.00,0.1171
2868.00,0.1182
2867.00,0.1177
2866.00,0.1151
2865.00,0.1101
2864.00,0.1030
2863.00,0.0946
2862.00,0.0858
2861.00,0.0776
2860.00,0.0706
2859.00,0.0650
2858.00,0.0608
2857.00,0.0578
2856.00,0.0557
2855.00,0.0545
2854.00,0.0539
2853.00,0.0538
2852.00,0.0543
2851.00,0.0553
2850.00,0.0569
2849.00,0.0594
2848.00,0.0627
2847.00,0.0669
2846.00,0.0720
2845.00,0.0777
2844.00,0.0840
2843.00,0.0907
2842.00,0.0973
2841.00,0.1033
2840.00,0.1082
2839.00,0.1111
2838.00,0.1115
2837.00,0.1088
2836.00,0.1032
2835.00,0.0952
2834.00,0.0858
2833.00,0.0759
2832.00,0.0665
2831.00,0.0582
2830.00,0.0511
2829.00,0.0454
2828.00,0.0407
2827.00,0.0369
2826.00,0.0338
2825.00,0.0313
2824.00,0.0292
2823.00,0.0274
2822.00,0.0258
2821.00,0.0245
2820.00,0.0234
2819.00,0.0224
2818.00,0.0215
2817.00,0.0207
2816.00,0.0200
2815.00,0.0194
2814.00,0.0189
2813.00,0.0184
2812.00,0.0179
2811.00,0.0173
2810.00,0.0168
2809.00,0.0163
2808.00,0.0157
2807.00,0.0151
2806.00,0.0145
2805.00,0.0139
2804.00,0.0133
2803.00,0.0128
2802.00,0.0123
2801.00,0.0119
2800.00,0.0116
2799.00,0.0113
2798.00,0.0110
2797.00,0.0108
2796.00,0.0106
2795.00,0.0104
2794.00,0.0101
2793.00,0.0099
2792.00,0.0096
2791.00,0.0093
2790.00,0.0090
2789.00,0.0087
2788.00,0.0084
2787.00,0.0082
2786.00,0.0080
2785.00,0.0077
2784.00,0.0076
2783.00,0.0074
2782.00,0.0072
2781.00,0.0071
2780.00,0.0069
2779.00,0.0067
2778.00,0.0066
2777.00,0.0065
2776.00,0.0064
2775.00,0.0063
2774.00,0.0062
2773.00,0.0062
2772.00,0.0061
2771.00,0.0060
2770.00,0.0060
2769.00,0.0060
2768.00,0.0060
2767.00,0.0059
2766.00,0.0059
2765.00,0.0058
2764.00,0.0058
2763.00,0.0058
2762.00,0.0057
2761.00,0.0057
2760.00,0.0057
2759.00,0.0057
2758.00,0.0056
2757.00,0.0056
2756.00,0.0056
2755.00,0.0055
2754.00,0.0055
2753.00,0.0055
2752.00,0.0055
2751.00,0.0055
2750.00,0.0055
2749.00,0.0055
2748.00,0.0055
2747.00,0.0056
2746.00,0.0056
2745.00,0.0057
2744.00,0.0058
2743.00,0.0059
2742.00,0.0059
2741.00,0.0060
2740.00,0.0061
2739.00,0.0062
2738.00,0.0064
2737.00,0.0065
2736.00,0.0066
2735.00,0.0068
2734.00,0.0069
2733.00,0.0071
2732.00,0.0073
2731.00,0.0075
2730.00,0.0077
2729.00,0.0079
2728.00,0.0081
2727.00,0.0084
2726.00,0.0086
2725.00,0.0088
2724.00,0.0090
2723.00,0.0090
2722.00,0.0089
2721.00,0.0087
2720.00,0.0085
2719.00,0.0082
2718.00,0.0078
2717.00,0.0076
2716.00,0.0073
2715.00,0.0070
2714.00,0.0068
2713.00,0.0066
2712.00,0.0064
2711.00,0.0062
2710.00,0.0060
2709.00,0.0059
2708.00,0.0058
2707.00,0.0057
2706.00,0.0056
2705.00,0.0055
2704.00,0.0054
2703.00,0.0052
2702.00,0.0052
2701.00,0.0051
2700.00,0.0051
2699.00,0.0050
2698.00,0.0050
2697.00,0.0050
2696.00,0.0049
2695.00,0.0049
2694.00,0.0049
2693.00,0.0049
2692.00,0.0049
2691.00,0.0049
2690.00,0.0049
2689.00,0.0049
2688.00,0.0049
2687.00,0.0049
2686.00,0.0049
2685.00,0.0048
2684.00,0.0048
2683.00,0.0048
2682.00,0.0049
2681.00,0.0049
2680.00,0.0049
2679.00,0.0049
2678.00,0.0050
2677.00,0.0050
2676.00,0.0050
2675.00,0.0049
2674.00,0.0049
2673.00,0.0048
2672.00,0.0048
2671.00,0.0048
2670.00,0.0048
2669.00,0.0048
2668.00,0.0048
2667.00,0.0048
2666.00,0.0048
2665.00,0.0048
2664.00,0.0049
2663.00,0.0049
2662.00,0.0050
2661.00,0.0050
2660.00,0.0050
2659.00,0.0051
2658.00,0.0051
2657.00,0.0051
2656.00,0.0051
2655.00,0.0050
2654.00,0.0050
2653.00,0.0049
2652.00,0.0048
2651.00,0.0047
2650.00,0.0047
2649.00,0.0046
2648.00,0.0046
2647.00,0.0046
2646.00,0.0045
2645.00,0.0045
2644.00,0.0045
2643.00,0.0045
2642.00,0.0044
2641.00,0.0044
2640.00,0.0043
2639.00,0.0043
2638.00,0.0042
2637.00,0.0042
2636.00,0.0042
2635.00,0.0042
2634.00,0.0042
2633.00,0.0042
2632.00,0.0042
2631.00,0.0042
2630.00,0.0042
2629.00,0.0042
2628.00,0.0042
2627.00,0.0043
2626.00,0.0043
2625.00,0.0044
2624.00,0.0044
2623.00,0.0044
2622.00,0.0044
2621.00,0.0044
2620.00,0.0044
2619.00,0.0044
2618.00,0.0044
2617.00,0.0044
2616.00,0.0044
2615.00,0.0044
2614.00,0.0044
2613.00,0.0044
2612.00,0.0043
2611.00,0.0042
2610.00,0.0042
2609.00,0.0041
2608.00,0.0041
2607.00,0.0040
2606.00,0.0039
2605.00,0.0039
2604.00,0.0039
2603.00,0.0038
2602.00,0.0037
2601.00,0.0037
2600.00,0.0037
2599.00,0.0037
2598.00,0.0037
2597.00,0.0037
2596.00,0.0038
2595.00,0.0038
2594.00,0.0038
2593.00,0.0038
2592.00,0.0038
2591.00,0.0038
2590.00,0.0038
2589.00,0.0039
2588.00,0.0040
2587.00,0.0041
2586.00,0.0041
2585.00,0.0042
2584.00,0.0043
2583.00,0.0043
2582.00,0.0044
2581.00,0.0043
2580.00,0.0043
2579.00,0.0042
2578.00,0.0041
2577.00,0.0040
2576.00,0.0039
2575.00,0.0038
2574.00,0.0038
2573.00,0.0037
2572.00,0.0037
2571.00,0.0036
2570.00,0.0035
2569.00,0.0034
2568.00,0.0034
2567.00,0.0033
2566.00,0.0033
2565.00,0.0032
2564.00,0.0031
2563.00,0.0030
2562.00,0.0030
2561.00,0.0030
2560.00,0.0029
2559.00,0.0029
2558.00,0.0029
2557.00,0.0029
2556.00,0.0029
2555.00,0.0028
2554.00,0.0028
2553.00,0.0027
2552.00,0.0027
2551.00,0.0027
2550.00,0.0027
2549.00,0.0027
2548.00,0.0026
2547.00,0.0025
2546.00,0.0025
2545.00,0.0024
2544.00,0.0024
2543.00,0.0023
2542.00,0.0023
2541.00,0.0023
2540.00,0.0023
2539.00,0.0023
2538.00,0.0023
2537.00,0.0023
2536.00,0.0023
2535.00,0.0023
2534.00,0.0023
2533.00,0.0023
2532.00,0.0022
2531.00,0.0022
2530.00,0.0022
2529.00,0.0023
2528.00,0.0022
2527.00,0.0022
2526.00,0.0021
2525.00,0.0021
2524.00,0.0020
2523.00,0.0020
2522.00,0.0020
2521.00,0.0020
2520.00,0.0020
2519.00,0.0020
2518.00,0.0019
2517.00,0.0019
2516.00,0.0019
2515.00,0.0018
2514.00,0.0019
2513.00,0.0019
2512.00,0.0019
2511.00,0.0020
2510.00,0.0020
2509.00,0.0020
2508.00,0.0019
2507.00,0.0019
2506.00,0.0018
2505.00,0.0018
2504.00,0.0018
2503.00,0.0018
2502.00,0.0017
2501.00,0.0017
2500.00,0.0017
2499.00,0.0017
2498.00,0.0017
2497.00,0.0017
2496.00,0.0017
2495.00,0.0017
2494.00,0.0018
2493.00,0.0018
2492.00,0.0018
2491.00,0.0019
2490.00,0.0019
2489.00,0.0019
2488.00,0.0018
2487.00,0.0018
2486.00,0.0017
2485.00,0.0017
2484.00,0.0017
2483.00,0.0017
2482.00,0.0017
2481.00,0.0017
2480.00,0.0017
2479.00,0.0016
2478.00,0.0016
2477.00,0.0015
2476.00,0.0015
2475.00,0.0015
2474.00,0.0015
2473.00,0.0015
2472.00,0.0015
2471.00,0.0015
2470.00,0.0015
2469.00,0.0015
2468.00,0.0016
2467.00,0.0016
2466.00,0.0016
2465.00,0.0016
2464.00,0.0017
2463.00,0.0017
2462.00,0.0017
2461.00,0.0017
2460.00,0.0017
2459.00,0.0017
2458.00,0.0018
2457.00,0.0018
2456.00,0.0018
2455.00,0.0018
2454.00,0.0018
2453.00,0.0018
2452.00,0.0018
2451.00,0.0018
2450.00,0.0018
2449.00,0.0018
2448.00,0.0018
2447.00,0.0017
2446.00,0.0017
2445.00,0.0017
2444.00,0.0017
2443.00,0.0017
2442.00,0.0017
2441.00,0.0017
2440.00,0.0018
2439.00,0.0018
2438.00,0.0019
2437.00,0.0019
2436.00,0.0019
2435.00,0.0018
2434.00,0.0018
2433.00,0.0017
2432.00,0.0017
2431.00,0.0017
2430.00,0.0017
2429.00,0.0018
2428.00,0.0018
2427.00,0.0018
2426.00,0.0018
2425.00,0.0018
2424.00,0.0018
2423.00,0.0018
2422.00,0.0018
2421.00,0.0017
2420.00,0.0017
2419.00,0.0016
2418.00,0.0016
2417.00,0.0016
2416.00,0.0017
2415.00,0.0017
2414.00,0.0017
2413.00,0.0017
2412.00,0.0016
2411.00,0.0016
2410.00,0.0016
2409.00,0.0016
2408.00,0.0016
2407.00,0.0017
2406.00,0.0017
2405.00,0.0016
2404.00,0.0016
2403.00,0.0016
2402.00,0.0015
2401.00,0.0015
2400.00,0.0015
2399.00,0.0015
2398.00,0.0015
2397.00,0.0015
2396.00,0.0015
2395.00,0.0015
2394.00,0.0015
2393.00,0.0015
2392.00,0.0015
2391.00,0.0015
2390.00,0.0015
2389.00,0.0015
2388.00,0.0015
2387.00,0.0014
2386.00,0.0014
2385.00,0.0014
2384.00,0.0013
2383.00,0.0012
2382.00,0.0011
2381.00,0.0010
2380.00,0.0009
2379.00,0.0009
2378.00,0.0009
2377.00,0.0009
2376.00,0.0009
2375.00,0.0009
2374.00,0.0009
2373.00,0.0010
2372.00,0.0010
2371.00,0.0010
2370.00,0.0009
2369.00,0.0008
2368.00,0.0007
2367.00,0.0007
2366.00,0.0007
2365.00,0.0008
2364.00,0.0008
2363.00,0.0008
2362.00,0.0008
2361.00,0.0009
2360.00,0.0009
2359.00,0.0009
2358.00,0.0009
2357.00,0.0009
2356.00,0.0009
2355.00,0.0009
2354.00,0.0009
2353.00,0.0009
2352.00,0.0009
2351.00,0.0009
2350.00,0.0010
2349.00,0.0010
2348.00,0.0011
2347.00,0.0011
2346.00,0.0011
2345.00,0.0010
2344.00,0.0010
2343.00,0.0010
2342.00,0.0011
2341.00,0.0011
2340.00,0.0012
2339.00,0.0012
2338.00,0.0012
2337.00,0.0012
2336.00,0.0013
2335.00,0.0013
2334.00,0.0012
2333.00,0.0011
2332.00,0.0010
2331.00,0.0010
2330.00,0.0010
2329.00,0.0011
2328.00,0.0013
2327.00,0.0016
2326.00,0.0020
2325.00,0.0024
2324.00,0.0025
2323.00,0.0025
2322.00,0.0023
2321.00,0.0021
2320.00,0.0019
2319.00,0.0018
2318.00,0.0017
2317.00,0.0016
2316.00,0.0016
2315.00,0.0015
2314.00,0.0015
2313.00,0.0014
2312.00,0.0015
2311.00,0.0015
2310.00,0.0015
2309.00,0.0015
2308.00,0.0016
2307.00,0.0016
2306.00,0.0016
2305.00,0.0016
2304.00,0.0015
2303.00,0.0016
2302.00,0.0016
2301.00,0.0016
2300.00,0.0017
2299.00,0.0018
2298.00,0.0018
2297.00,0.0019
2296.00,0.0019
2295.00,0.0020
2294.00,0.0020
2293.00,0.0021
2292.00,0.0022
2291.00,0.0022
2290.00,0.0023
2289.00,0.0024
2288.00,0.0024
2287.00,0.0025
2286.00,0.0025
2285.00,0.0025
2284.00,0.0025
2283.00,0.0025
2282.00,0.0024
2281.00,0.0024
2280.00,0.0023
2279.00,0.0022
2278.00,0.0022
2277.00,0.0021
2276.00,0.0021
2275.00,0.0021
2274.00,0.0021
2273.00,0.0021
2272.00,0.0020
2271.00,0.0019
2270.00,0.0018
2269.00,0.0018
2268.00,0.0018
2267.00,0.0018
2266.00,0.0018
2265.00,0.0017
2264.00,0.0017
2263.00,0.0016
2262.00,0.0016
2261.00,0.0016
2260.00,0.0018
2259.00,0.0019
2258.00,0.0019
2257.00,0.0018
2256.00,0.0017
2255.00,0.0017
2254.00,0.0016
2253.00,0.0017
2252.00,0.0018
2251.00,0.0019
2250.00,0.0019
2249.00,0.0019
2248.00,0.0018
2247.00,0.0018
2246.00,0.0019
2245.00,0.0019
2244.00,0.0019
2243.00,0.0018
2242.00,0.0018
2241.00,0.0017
2240.00,0.0016
2239.00,0.0015
2238.00,0.0014
2237.00,0.0012
2236.00,0.0012
2235.00,0.0012
2234.00,0.0014
2233.00,0.0016
2232.00,0.0016
2231.00,0.0016
2230.00,0.0015
2229.00,0.0016
2228.00,0.0017
2227.00,0.0018
2226.00,0.0018
2225.00,0.0018
2224.00,0.0017
2223.00,0.0017
2222.00,0.0017
2221.00,0.0017
2220.00,0.0017
2219.00,0.0016
2218.00,0.0016
2217.00,0.0017
2216.00,0.0018
2215.00,0.0018
2214.00,0.0018
2213.00,0.0017
2212.00,0.0015
2211.00,0.0014
2210.00,0.0013
2209.00,0.0014
2208.00,0.0016
2207.00,0.0016
2206.00,0.0016
2205.00,0.0015
2204.00,0.0014
2203.00,0.0013
2202.00,0.0013
2201.00,0.0013
2200.00,0.0014
2199.00,0.0014
2198.00,0.0014
2197.00,0.0013
2196.00,0.0013
2195.00,0.0013
2194.00,0.0013
2193.00,0.0015
2192.00,0.0017
2191.00,0.0019
2190.00,0.0019
2189.00,0.0018
2188.00,0.0017
2187.00,0.0017
2186.00,0.0017
2185.00,0.0017
2184.00,0.0015
2183.00,0.0012
2182.00,0.0011
2181.00,0.0012
2180.00,0.0014
2179.00,0.0016
2178.00,0.0018
2177.00,0.0018
2176.00,0.0017
2175.00,0.0015
2174.00,0.0015
2173.00,0.0015
2172.00,0.0016
2171.00,0.0018
2170.00,0.0020
2169.00,0.0022
2168.00,0.0023
2167.00,0.0022
2166.00,0.0020
2165.00,0.0017
2164.00,0.0015
2163.00,0.0016
2162.00,0.0018
2161.00,0.0017
2160.00,0.0011
2159.00,0.0000
2158.00,-0.0010
2157.00,-0.0016
2156.00,-0.0017
2155.00,-0.0015
2154.00,-0.0012
2153.00,-0.0010
2152.00,-0.0007
2151.00,-0.0006
2150.00,-0.0005
2149.00,-0.0005
2148.00,-0.0007
2147.00,-0.0009
2146.00,-0.0011
2145.00,-0.0011
2144.00,-0.0010
2143.00,-0.0008
2142.00,-0.0006
2141.00,-0.0003
2140.00,-0.0001
2139.00,0.0000
2138.00,-0.0000
2137.00,-0.0002
2136.00,-0.0005
2135.00,-0.0007
2134.00,-0.0009
2133.00,-0.0009
2132.00,-0.0007
2131.00,-0.0005
2130.00,-0.0003
2129.00,-0.0001
2128.00,0.0000
2127.00,0.0002
2126.00,0.0003
2125.00,0.0004
2124.00,0.0004
2123.00,0.0003
2122.00,0.0002
2121.00,0.0002
2120.00,0.0002
2119.00,0.0003
2118.00,0.0005
2117.00,0.0006
2116.00,0.0008
2115.00,0.0010
2114.00,0.0011
2113.00,0.0011
2112.00,0.0011
2111.00,0.0009
2110.00,0.0007
2109.00,0.0006
2108.00,0.0007
2107.00,0.0007
2106.00,0.0008
2105.00,0.0008
2104.00,0.0008
2103.00,0.0008
2102.00,0.0008
2101.00,0.0008
2100.00,0.0008
2099.00,0.0009
2098.00,0.0009
2097.00,0.0008
2096.00,0.0005
2095.00,0.0003
2094.00,0.0002
2093.00,0.0004
2092.00,0.0006
2091.00,0.0009
2090.00,0.0010
2089.00,0.0010
2088.00,0.0009
2087.00,0.0008
2086.00,0.0007
2085.00,0.0009
2084.00,0.0011
2083.00,0.0013
2082.00,0.0013
2081.00,0.0014
2080.00,0.0014
2079.00,0.0013
2078.00,0.0012
2077.00,0.0010
2076.00,0.0009
2075.00,0.0008
2074.00,0.0008
2073.00,0.0008
2072.00,0.0009
2071.00,0.0009
2070.00,0.0009
2069.00,0.0008
2068.00,0.0008
2067.00,0.0008
2066.00,0.0007
2065.00,0.0006
2064.00,0.0005
2063.00,0.0005
2062.00,0.0005
2061.00,0.0006
2060.00,0.0008
2059.00,0.0009
2058.00,0.0010
2057.00,0.0011
2056.00,0.0010
2055.00,0.0009
2054.00,0.0008
2053.00,0.0010
2052.00,0.0014
2051.00,0.0016
2050.00,0.0016
2049.00,0.0014
2048.00,0.0012
2047.00,0.0011
2046.00,0.0010
2045.00,0.0008
2044.00,0.0007
2043.00,0.0006
2042.00,0.0006
2041.00,0.0007
2040.00,0.0007
2039.00,0.0008
2038.00,0.0009
2037.00,0.0010
2036.00,0.0013
2035.00,0.0016
2034.00,0.0016
2033.00,0.0015
2032.00,0.0011
2031.00,0.0007
2030.00,0.0004
2029.00,0.0003
2028.00,0.0002
2027.00,0.0000
2026.00,-0.0001
2025.00,-0.0002
2024.00,-0.0002
2023.00,-0.0002
2022.00,-0.0004
2021.00,-0.0005
2020.00,-0.0005
2019.00,-0.0003
2018.00,-0.0001
2017.00,-0.0000
2016.00,0.0000
2015.00,-0.0000
2014.00,-0.0002
2013.00,-0.0004
2012.00,-0.0005
2011.00,-0.0004
2010.00,-0.0003
2009.00,-0.0003
2008.00,-0.0006
2007.00,-0.0010
2006.00,-0.0014
2005.00,-0.0016
2004.00,-0.0016
2003.00,-0.0015
2002.00,-0.0013
2001.00,-0.0010
2000.00,-0.0007
1999.00,-0.0004
1998.00,-0.0002
1997.00,-0.0001
1996.00,0.0001
1995.00,0.0002
1994.00,0.0004
1993.00,0.0007
1992.00,0.0009
1991.00,0.0009
1990.00,0.0008
1989.00,0.0006
1988.00,0.0004
1987.00,0.0002
1986.00,0.0002
1985.00,0.0002
1984.00,0.0003
1983.00,0.0005
1982.00,0.0008
1981.00,0.0013
1980.00,0.0015
1979.00,0.0014
1978.00,0.0010
1977.00,0.0006
1976.00,0.0004
1975.00,0.0000
1974.00,-0.0005
1973.00,-0.0010
1972.00,-0.0012
1971.00,-0.0012
1970.00,-0.0011
1969.00,-0.0008
1968.00,-0.0007
1967.00,-0.0006
1966.00,-0.0006
1965.00,-0.0005
1964.00,-0.0005
1963.00,-0.0005
1962.00,-0.0005
1961.00,-0.0006
1960.00,-0.0007
1959.00,-0.0009
1958.00,-0.0010
1957.00,-0.0009
1956.00,-0.0006
1955.00,-0.0004
1954.00,-0.0002
1953.00,-0.0001
1952.00,-0.0002
1951.00,-0.0004
1950.00,-0.0005
1949.00,-0.0006
1948.00,-0.0006
1947.00,-0.0006
1946.00,-0.0005
1945.00,-0.0005
1944.00,-0.0004
1943.00,-0.0004
1942.00,-0.0003
1941.00,-0.0002
1940.00,-0.0001
1939.00,-0.0001
1938.00,-0.0002
1937.00,-0.0003
1936.00,-0.0004
1935.00,-0.0005
1934.00,-0.0004
1933.00,-0.0003
1932.00,-0.0003
1931.00,-0.0002
1930.00,-0.0002
1929.00,-0.0001
1928.00,0.0000
1927.00,0.0001
1926.00,0.0001
1925.00,0.0001
1924.00,0.0002
1923.00,0.0004
1922.00,0.0005
1921.00,0.0006
1920.00,0.0005
1919.00,0.0003
1918.00,0.0002
1917.00,0.0001
1916.00,0.0001
1915.00,0.0002
1914.00,0.0002
1913.00,0.0003
1912.00,0.0003
1911.00,0.0003
1910.00,0.0004
1909.00,0.0004
1908.00,0.0005
1907.00,0.0005
1906.00,0.0004
1905.00,0.0003
1904.00,0.0003
1903.00,0.0003
1902.00,0.0005
1901.00,0.0006
1900.00,0.0007
1899.00,0.0007
1898.00,0.0007
1897.00,0.0006
1896.00,0.0007
1895.00,0.0007
1894.00,0.0007
1893.00,0.0008
1892.00,0.0008
1891.00,0.0007
1890.00,0.0007
1889.00,0.0006
1888.00,0.0007
1887.00,0.0007
1886.00,0.0006
1885.00,0.0005
1884.00,0.0004
1883.00,0.0004
1882.00,0.0004
1881.00,0.0005
1880.00,0.0005
1879.00,0.0005
1878.00,0.0005
1877.00,0.0005
1876.00,0.0006
1875.00,0.0007
1874.00,0.0007
1873.00,0.0007
1872.00,0.0006
1871.00,0.0006
1870.00,0.0006
1869.00,0.0006
1868.00,0.0005
1867.00,0.0005
1866.00,0.0005
1865.00,0.0005
1864.00,0.0006
1863.00,0.0007
1862.00,0.0007
1861.00,0.0008
1860.00,0.0008
1859.00,0.0008
1858.00,0.0007
1857.00,0.0007
1856.00,0.0008
1855.00,0.0008
1854.00,0.0008
1853.00,0.0008
1852.00,0.0007
1851.00,0.0006
1850.00,0.0006
1849.00,0.0006
1848.00,0.0007
1847.00,0.0007
1846.00,0.0008
1845.00,0.0008
1844.00,0.0008
1843.00,0.0007
1842.00,0.0008
1841.00,0.0008
1840.00,0.0008
1839.00,0.0009
1838.00,0.0009
1837.00,0.0009
1836.00,0.0010
1835.00,0.0010
1834.00,0.0010
1833.00,0.0010
1832.00,0.0010
1831.00,0.0009
1830.00,0.0008
1829.00,0.0008
1828.00,0.0008
1827.00,0.0008
1826.00,0.0008
1825.00,0.0008
1824.00,0.0009
1823.00,0.0010
1822.00,0.0011
1821.00,0.0011
1820.00,0.0011
1819.00,0.0009
1818.00,0.0008
1817.00,0.0006
1816.00,0.0006
1815.00,0.0006
1814.00,0.0006
1813.00,0.0007
1812.00,0.0008
1811.00,0.0009
1810.00,0.0010
1809.00,0.0010
1808.00,0.0010
1807.00,0.0010
1806.00,0.0011
1805.00,0.0011
1804.00,0.0012
1803.00,0.0012
1802.00,0.0012
1801.00,0.0013
1800.00,0.0014
1799.00,0.0015
1798.00,0.0015
1797.00,0.0015
1796.00,0.0015
1795.00,0.0015
1794.00,0.0015
1793.00,0.0014
1792.00,0.0013
1791.00,0.0013
1790.00,0.0012
1789.00,0.0012
1788.00,0.0013
1787.00,0.0013
1786.00,0.0013
1785.00,0.0013
1784.00,0.0012
1783.00,0.0012
1782.00,0.0012
1781.00,0.0011
1780.00,0.0011
1779.00,0.0010
1778.00,0.0009
1777.00,0.0009
1776.00,0.0008
1775.00,0.0008
1774.00,0.0008
1773.00,0.0007
1772.00,0.0008
1771.00,0.0008
1770.00,0.0010
1769.00,0.0010
1768.00,0.0011
1767.00,0.0011
1766.00,0.0011
1765.00,0.0011
1764.00,0.0011
1763.00,0.0012
1762.00,0.0013
1761.00,0.0013
1760.00,0.0014
1759.00,0.0014
1758.00,0.0014
1757.00,0.0014
1756.00,0.0014
1755.00,0.0014
1754.00,0.0014
1753.00,0.0014
1752.00,0.0015
1751.00,0.0015
1750.00,0.0015
1749.00,0.0015
1748.00,0.0015
1747.00,0.0015
1746.00,0.0016
1745.00,0.0016
1744.00,0.0016
1743.00,0.0016
1742.00,0.0016
1741.00,0.0016
1740.00,0.0016
1739.00,0.0016
1738.00,0.0016
1737.00,0.0016
1736.00,0.0017
1735.00,0.0017
1734.00,0.0017
1733.00,0.0016
1732.00,0.0016
1731.00,0.0016
1730.00,0.0017
1729.00,0.0017
1728.00,0.0017
1727.00,0.0017
1726.00,0.0017
1725.00,0.0016
1724.00,0.0016
1723.00,0.0016
1722.00,0.0015
1721.00,0.0015
1720.00,0.0016
1719.00,0.0016
1718.00,0.0016
1717.00,0.0017
1716.00,0.0017
1715.00,0.0018
1714.00,0.0018
1713.00,0.0018
1712.00,0.0019
1711.00,0.0019
1710.00,0.0019
1709.00,0.0019
1708.00,0.0020
1707.00,0.0021
1706.00,0.0022
1705.00,0.0022
1704.00,0.0023
1703.00,0.0024
1702.00,0.0025
1701.00,0.0026
1700.00,0.0027
1699.00,0.0028
1698.00,0.0028
1697.00,0.0030
1696.00,0.0033
1695.00,0.0036
1694.00,0.0037
1693.00,0.0038
1692.00,0.0040
1691.00,0.0041
1690.00,0.0042
1689.00,0.0042
1688.00,0.0043
1687.00,0.0043
1686.00,0.0044
1685.00,0.0046
1684.00,0.0049
1683.00,0.0051
1682.00,0.0053
1681.00,0.0054
1680.00,0.0055
1679.00,0.0056
1678.00,0.0057
1677.00,0.0059
1676.00,0.0061
1675.00,0.0062
1674.00,0.0062
1673.00,0.0063
1672.00,0.0064
1671.00,0.0065
1670.00,0.0067
1669.00,0.0068
1668.00,0.0069
1667.00,0.0070
1666.00,0.0070
1665.00,0.0071
1664.00,0.0072
1663.00,0.0073
1662.00,0.0073
1661.00,0.0074
1660.00,0.0074
1659.00,0.0075
1658.00,0.0076
1657.00,0.0076
1656.00,0.0076
1655.00,0.0076
1654.00,0.0077
1653.00,0.0078
1652.00,0.0078
1651.00,0.0078
1650.00,0.0079
1649.00,0.0080
1648.00,0.0080
1647.00,0.0081
1646.00,0.0080
1645.00,0.0080
1644.00,0.0080
1643.00,0.0079
1642.00,0.0079
1641.00,0.0078
1640.00,0.0077
1639.00,0.0076
1638.00,0.0076
1637.00,0.0075
1636.00,0.0075
1635.00,0.0075
1634.00,0.0075
1633.00,0.0075
1632.00,0.0075
1631.00,0.0075
1630.00,0.0074
1629.00,0.0074
1628.00,0.0074
1627.00,0.0073
1626.00,0.0073
1625.00,0.0072
1624.00,0.0072
1623.00,0.0070
1622.00,0.0069
1621.00,0.0068
1620.00,0.0067
1619.00,0.0067
1618.00,0.0066
1617.00,0.0066
1616.00,0.0066
1615.00,0.0066
1614.00,0.0065
1613.00,0.0065
1612.00,0.0064
1611.00,0.0063
1610.00,0.0062
1609.00,0.0062
1608.00,0.0062
1607.00,0.0062
1606.00,0.0062
1605.00,0.0063
1604.00,0.0063
1603.00,0.0063
1602.00,0.0064
1601.00,0.0064
1600.00,0.0064
1599.00,0.0064
1598.00,0.0063
1597.00,0.0063
1596.00,0.0063
1595.00,0.0064
1594.00,0.0064
1593.00,0.0064
1592.00,0.0065
1591.00,0.0066
1590.00,0.0066
1589.00,0.0067
1588.00,0.0067
1587.00,0.0068
1586.00,0.0069
1585.00,0.0070
1584.00,0.0072
1583.00,0.0074
1582.00,0.0075
1581.00,0.0077
1580.00,0.0078
1579.00,0.0078
1578.00,0.0078
1577.00,0.0078
1576.00,0.0078
1575.00,0.0078
1574.00,0.0078
1573.00,0.0078
1572.00,0.0077
1571.00,0.0077
1570.00,0.0075
1569.00,0.0075
1568.00,0.0074
1567.00,0.0074
1566.00,0.0074
1565.00,0.0074
1564.00,0.0074
1563.00,0.0074
1562.00,0.0074
1561.00,0.0075
1560.00,0.0075
1559.00,0.0077
1558.00,0.0078
1557.00,0.0079
1556.00,0.0081
1555.00,0.0082
1554.00,0.0083
1553.00,0.0084
1552.00,0.0085
1551.00,0.0086
1550.00,0.0088
1549.00,0.0089
1548.00,0.0091
1547.00,0.0092
1546.00,0.0094
1545.00,0.0095
1544.00,0.0097
1543.00,0.0098
1542.00,0.0098
1541.00,0.0098
1540.00,0.0097
1539.00,0.0095
1538.00,0.0094
1537.00,0.0093
1536.00,0.0093
1535.00,0.0092
1534.00,0.0090
1533.00,0.0088
1532.00,0.0087
1531.00,0.0086
1530.00,0.0086
1529.00,0.0086
1528.00,0.0086
1527.00,0.0085
1526.00,0.0084
1525.00,0.0084
1524.00,0.0085
1523.00,0.0085
1522.00,0.0086
1521.00,0.0087
1520.00,0.0087
1519.00,0.0088
1518.00,0.0088
1517.00,0.0089
1516.00,0.0091
1515.00,0.0092
1514.00,0.0092
1513.00,0.0093
1512.00,0.0094
1511.00,0.0095
1510.00,0.0096
1509.00,0.0098
1508.00,0.0100
1507.00,0.0101
1506.00,0.0102
1505.00,0.0103
1504.00,0.0105
1503.00,0.0107
1502.00,0.0109
1501.00,0.0111
1500.00,0.0114
1499.00,0.0117
1498.00,0.0119
1497.00,0.0124
1496.00,0.0128
1495.00,0.0131
1494.00,0.0134
1493.00,0.0138
1492.00,0.0142
1491.00,0.0146
1490.00,0.0151
1489.00,0.0156
1488.00,0.0162
1487.00,0.0167
1486.00,0.0172
1485.00,0.0179
1484.00,0.0186
1483.00,0.0194
1482.00,0.0203
1481.00,0.0215
1480.00,0.0228
1479.00,0.0240
1478.00,0.0254
1477.00,0.0272
1476.00,0.0293
1475.00,0.0317
1474.00,0.0351
1473.00,0.0402
1472.00,0.0465
1471.00,0.0527
1470.00,0.0586
1469.00,0.0647
1468.00,0.0712
1467.00,0.0785
1466.00,0.0868
1465.00,0.0961
1464.00,0.1044
1463.00,0.1103
1462.00,0.1143
1461.00,0.1172
1460.00,0.1194
1459.00,0.1211
1458.00,0.1228
1457.00,0.1246
1456.00,0.1253
1455.00,0.1249
1454.00,0.1238
1453.00,0.1221
1452.00,0.1195
1451.00,0.1158
1450.00,0.1106
1449.00,0.1038
1448.00,0.0953
1447.00,0.0864
1446.00,0.0785
1445.00,0.0718
1444.00,0.0661
1443.00,0.0614
1442.00,0.0580
1441.00,0.0556
1440.00,0.0542
1439.00,0.0537
1438.00,0.0538
1437.00,0.0541
1436.00,0.0532
1435.00,0.0506
1434.00,0.0469
1433.00,0.0424
1432.00,0.0379
1431.00,0.0340
1430.00,0.0311
1429.00,0.0289
1428.00,0.0274
1427.00,0.0265
1426.00,0.0258
1425.00,0.0251
1424.00,0.0245
1423.00,0.0241
1422.00,0.0238
1421.00,0.0235
1420.00,0.0230
1419.00,0.0226
1418.00,0.0223
1417.00,0.0218
1416.00,0.0213
1415.00,0.0209
1414.00,0.0206
1413.00,0.0202
1412.00,0.0197
1411.00,0.0194
1410.00,0.0191
1409.00,0.0188
1408.00,0.0184
1407.00,0.0181
1406.00,0.0179
1405.00,0.0177
1404.00,0.0175
1403.00,0.0175
1402.00,0.0175
1401.00,0.0174
1400.00,0.0174
1399.00,0.0175
1398.00,0.0176
1397.00,0.0176
1396.00,0.0177
1395.00,0.0179
1394.00,0.0183
1393.00,0.0186
1392.00,0.0190
1391.00,0.0196
1390.00,0.0206
1389.00,0.0221
1388.00,0.0245
1387.00,0.0281
1386.00,0.0329
1385.00,0.0390
1384.00,0.0470
1383.00,0.0578
1382.00,0.0720
1381.00,0.0902
1380.00,0.1127
1379.00,0.1386
1378.00,0.1641
1377.00,0.1835
1376.00,0.1909
1375.00,0.1829
1374.00,0.1613
1373.00,0.1341
1372.00,0.1087
1371.00,0.0874
1370.00,0.0705
1369.00,0.0577
1368.00,0.0488
1367.00,0.0434
1366.00,0.0405
1365.00,0.0393
1364.00,0.0395
1363.00,0.0409
1362.00,0.0430
1361.00,0.0451
1360.00,0.0465
1359.00,0.0467
1358.00,0.0453
1357.00,0.0426
1356.00,0.0388
1355.00,0.0346
1354.00,0.0306
1353.00,0.0272
1352.00,0.0245
1351.00,0.0223
1350.00,0.0206
1349.00,0.0191
1348.00,0.0180
1347.00,0.0170
1346.00,0.0162
1345.00,0.0156
1344.00,0.0151
1343.00,0.0147
1342.00,0.0144
1341.00,0.0141
1340.00,0.0138
1339.00,0.0137
1338.00,0.0135
1337.00,0.0135
1336.00,0.0135
1335.00,0.0136
1334.00,0.0139
1333.00,0.0142
1332.00,0.0146
1331.00,0.0149
1330.00,0.0150
1329.00,0.0148
1328.00,0.0144
1327.00,0.0138
1326.00,0.0132
1325.00,0.0126
1324.00,0.0121
1323.00,0.0116
1322.00,0.0112
1321.00,0.0109
1320.00,0.0107
1319.00,0.0104
1318.00,0.0102
1317.00,0.0099
1316.00,0.0097
1315.00,0.0095
1314.00,0.0094
1313.00,0.0094
1312.00,0.0096
1311.00,0.0098
1310.00,0.0101
1309.00,0.0107
1308.00,0.0114
1307.00,0.0123
1306.00,0.0132
1305.00,0.0138
1304.00,0.0141
1303.00,0.0140
1302.00,0.0137
1301.00,0.0134
1300.00,0.0132
1299.00,0.0132
1298.00,0.0133
1297.00,0.0134
1296.00,0.0133
1295.00,0.0131
1294.00,0.0127
1293.00,0.0122
1292.00,0.0117
1291.00,0.0112
1290.00,0.0108
1289.00,0.0104
1288.00,0.0101
1287.00,0.0098
1286.00,0.0096
1285.00,0.0093
1284.00,0.0091
1283.00,0.0089
1282.00,0.0088
1281.00,0.0086
1280.00,0.0085
1279.00,0.0083
1278.00,0.0082
1277.00,0.0081
1276.00,0.0081
1275.00,0.0081
1274.00,0.0082
1273.00,0.0083
1272.00,0.0083
1271.00,0.0083
1270.00,0.0083
1269.00,0.0084
1268.00,0.0084
1267.00,0.0085
1266.00,0.0086
1265.00,0.0088
1264.00,0.0091
1263.00,0.0094
1262.00,0.0097
1261.00,0.0101
1260.00,0.0106
1259.00,0.0112
1258.00,0.0118
1257.00,0.0123
1256.00,0.0125
1255.00,0.0124
1254.00,0.0119
1253.00,0.0113
1252.00,0.0106
1251.00,0.0100
1250.00,0.0096
1249.00,0.0093
1248.00,0.0091
1247.00,0.0089
1246.00,0.0088
1245.00,0.0087
1244.00,0.0086
1243.00,0.0085
1242.00,0.0084
1241.00,0.0084
1240.00,0.0084
1239.00,0.0083
1238.00,0.0083
1237.00,0.0082
1236.00,0.0081
1235.00,0.0081
1234.00,0.0080
1233.00,0.0080
1232.00,0.0080
1231.00,0.0079
1230.00,0.0080
1229.00,0.0080
1228.00,0.0081
1227.00,0.0082
1226.00,0.0084
1225.00,0.0086
1224.00,0.0089
1223.00,0.0093
1222.00,0.0096
1221.00,0.0099
1220.00,0.0100
1219.00,0.0101
1218.00,0.0100
1217.00,0.0099
1216.00,0.0096
1215.00,0.0093
1214.00,0.0090
1213.00,0.0086
1212.00,0.0083
1211.00,0.0081
1210.00,0.0079
1209.00,0.0077
1208.00,0.0076
1207.00,0.0074
1206.00,0.0072
1205.00,0.0070
1204.00,0.0068
1203.00,0.0066
1202.00,0.0066
1201.00,0.0066
1200.00,0.0065
1199.00,0.0065
1198.00,0.0064
1197.00,0.0064
1196.00,0.0065
1195.00,0.0065
1194.00,0.0065
1193.00,0.0065
1192.00,0.0065
1191.00,0.0065
1190.00,0.0066
1189.00,0.0067
1188.00,0.0067
1187.00,0.0068
1186.00,0.0069
1185.00,0.0071
1184.00,0.0073
1183.00,0.0075
1182.00,0.0078
1181.00,0.0082
1180.00,0.0086
1179.00,0.0091
1178.00,0.0098
1177.00,0.0106
1176.00,0.0117
1175.00,0.0131
1174.00,0.0150
1173.00,0.0172
1172.00,0.0199
1171.00,0.0229
1170.00,0.0257
1169.00,0.0279
1168.00,0.0293
1167.00,0.0297
1166.00,0.0293
1165.00,0.0283
1164.00,0.0269
1163.00,0.0255
1162.00,0.0242
1161.00,0.0231
1160.00,0.0221
1159.00,0.0214
1158.00,0.0209
1157.00,0.0206
1156.00,0.0204
1155.00,0.0202
1154.00,0.0200
1153.00,0.0196
1152.00,0.0192
1151.00,0.0186
1150.00,0.0179
1149.00,0.0171
1148.00,0.0162
1147.00,0.0153
1146.00,0.0144
1145.00,0.0136
1144.00,0.0129
1143.00,0.0122
1142.00,0.0116
1141.00,0.0110
1140.00,0.0105
1139.00,0.0101
1138.00,0.0098
1137.00,0.0095
1136.00,0.0092
1135.00,0.0090
1134.00,0.0088
1133.00,0.0086
1132.00,0.0085
1131.00,0.0084
1130.00,0.0085
1129.00,0.0086
1128.00,0.0087
1127.00,0.0089
1126.00,0.0091
1125.00,0.0092
1124.00,0.0093
1123.00,0.0093
1122.00,0.0093
1121.00,0.0092
1120.00,0.0091
1119.00,0.0092
1118.00,0.0093
1117.00,0.0095
1116.00,0.0097
1115.00,0.0099
1114.00,0.0101
1113.00,0.0102
1112.00,0.0103
1111.00,0.0105
1110.00,0.0108
1109.00,0.0112
1108.00,0.0118
1107.00,0.0124
1106.00,0.0131
1105.00,0.0138
1104.00,0.0142
1103.00,0.0145
1102.00,0.0145
1101.00,0.0143
1100.00,0.0138
1099.00,0.0132
1098.00,0.0126
1097.00,0.0120
1096.00,0.0115
1095.00,0.0112
1094.00,0.0109
1093.00,0.0106
1092.00,0.0103
1091.00,0.0101
1090.00,0.0099
1089.00,0.0097
1088.00,0.0095
1087.00,0.0093
1086.00,0.0091
1085.00,0.0091
1084.00,0.0091
1083.00,0.0091
1082.00,0.0090
1081.00,0.0089
1080.00,0.0088
1079.00,0.0087
1078.00,0.0086
1077.00,0.0085
1076.00,0.0085
1075.00,0.0084
1074.00,0.0084
1073.00,0.0084
1072.00,0.0085
1071.00,0.0086
1070.00,0.0087
1069.00,0.0087
1068.00,0.0087
1067.00,0.0087
1066.00,0.0087
1065.00,0.0087
1064.00,0.0087
1063.00,0.0088
1062.00,0.0088
1061.00,0.0088
1060.00,0.0089
1059.00,0.0090
1058.00,0.0090
1057.00,0.0090
1056.00,0.0090
1055.00,0.0090
1054.00,0.0090
1053.00,0.0090
1052.00,0.0090
1051.00,0.0092
1050.00,0.0095
1049.00,0.0097
1048.00,0.0098
1047.00,0.0099
1046.00,0.0099
1045.00,0.0100
1044.00,0.0100
1043.00,0.0100
1042.00,0.0099
1041.00,0.0097
1040.00,0.0097
1039.00,0.0097
1038.00,0.0098
1037.00,0.0099
1036.00,0.0099
1035.00,0.0099
1034.00,0.0099
1033.00,0.0099
1032.00,0.0098
1031.00,0.0098
1030.00,0.0097
1029.00,0.0097
1028.00,0.0096
1027.00,0.0096
1026.00,0.0095
1025.00,0.0094
1024.00,0.0094
1023.00,0.0094
1022.00,0.0094
1021.00,0.0095
1020.00,0.0096
1019.00,0.0096
1018.00,0.0097
1017.00,0.0098
1016.00,0.0100
1015.00,0.0101
1014.00,0.0104
1013.00,0.0108
1012.00,0.0112
1011.00,0.0116
1010.00,0.0121
1009.00,0.0125
1008.00,0.0130
1007.00,0.0136
1006.00,0.0144
1005.00,0.0154
1004.00,0.0168
1003.00,0.0187
1002.00,0.0212
1001.00,0.0242
1000.00,0.0273
999.00,0.0299
998.00,0.0310
997.00,0.0303
996.00,0.0280
995.00,0.0247
994.00,0.0212
993.00,0.0181
992.00,0.0158
991.00,0.0141
990.00,0.0129
989.00,0.0122
988.00,0.0117
987.00,0.0114
986.00,0.0113
985.00,0.0115
984.00,0.0119
983.00,0.0127
982.00,0.0139
981.00,0.0155
980.00,0.0178
979.00,0.0206
978.00,0.0241
977.00,0.0280
976.00,0.0321
975.00,0.0358
974.00,0.0385
973.00,0.0392
972.00,0.0378
971.00,0.0344
970.00,0.0299
969.00,0.0253
968.00,0.0213
967.00,0.0182
966.00,0.0160
965.00,0.0144
964.00,0.0132
963.00,0.0122
962.00,0.0115
961.00,0.0108
960.00,0.0103
959.00,0.0099
958.00,0.0095
957.00,0.0093
956.00,0.0091
955.00,0.0090
954.00,0.0088
953.00,0.0087
952.00,0.0086
951.00,0.0084
950.00,0.0083
949.00,0.0083
948.00,0.0084
947.00,0.0085
946.00,0.0088
945.00,0.0091
944.00,0.0094
943.00,0.0097
942.00,0.0099
941.00,0.0100
940.00,0.0098
939.00,0.0094
938.00,0.0090
937.00,0.0085
936.00,0.0081
935.00,0.0079
934.00,0.0076
933.00,0.0074
932.00,0.0072
931.00,0.0070
930.00,0.0069
929.00,0.0068
928.00,0.0068
927.00,0.0068
926.00,0.0068
925.00,0.0068
924.00,0.0069
923.00,0.0070
922.00,0.0071
921.00,0.0072
920.00,0.0072
919.00,0.0073
918.00,0.0074
917.00,0.0075
916.00,0.0075
915.00,0.0076
914.00,0.0076
913.00,0.0077
912.00,0.0078
911.00,0.0079
910.00,0.0080
909.00,0.0081
908.00,0.0083
907.00,0.0087
906.00,0.0094
905.00,0.0105
904.00,0.0120
903.00,0.0138
902.00,0.0159
901.00,0.0176
900.00,0.0188
899.00,0.0190
898.00,0.0184
897.00,0.0170
896.00,0.0153
895.00,0.0135
894.00,0.0121
893.00,0.0109
892.00,0.0100
891.00,0.0093
890.00,0.0089
889.00,0.0086
888.00,0.0084
887.00,0.0083
886.00,0.0083
885.00,0.0084
884.00,0.0086
883.00,0.0089
882.00,0.0092
881.00,0.0095
880.00,0.0100
879.00,0.0105
878.00,0.0110
877.00,0.0116
876.00,0.0120
875.00,0.0123
874.00,0.0122
873.00,0.0118
872.00,0.0110
871.00,0.0101
870.00,0.0092
869.00,0.0087
868.00,0.0085
867.00,0.0085
866.00,0.0085
865.00,0.0086
864.00,0.0086
863.00,0.0087
862.00,0.0088
861.00,0.0089
860.00,0.0091
859.00,0.0094
858.00,0.0096
857.00,0.0097
856.00,0.0097
855.00,0.0097
854.00,0.0099
853.00,0.0101
852.00,0.0105
851.00,0.0109
850.00,0.0113
849.00,0.0119
848.00,0.0128
847.00,0.0142
846.00,0.0162
845.00,0.0191
844.00,0.0228
843.00,0.0266
842.00,0.0292
841.00,0.0296
840.00,0.0274
839.00,0.0238
838.00,0.0200
837.00,0.0171
836.00,0.0153
835.00,0.0142
834.00,0.0135
833.00,0.0129
832.00,0.0124
831.00,0.0120
830.00,0.0117
829.00,0.0116
828.00,0.0115
827.00,0.0114
826.00,0.0113
825.00,0.0111
824.00,0.0110
823.00,0.0110
822.00,0.0111
821.00,0.0112
820.00,0.0113
819.00,0.0115
818.00,0.0119
817.00,0.0126
816.00,0.0134
815.00,0.0143
814.00,0.0156
813.00,0.0170
812.00,0.0186
811.00,0.0200
810.00,0.0211
809.00,0.0216
808.00,0.0215
807.00,0.0208
806.00,0.0196
805.00,0.0180
804.00,0.0165
803.00,0.0152
802.00,0.0142
801.00,0.0134
800.00,0.0127
799.00,0.0121
798.00,0.0116
797.00,0.0112
796.00,0.0108
795.00,0.0105
794.00,0.0101
793.00,0.0097
792.00,0.0093
791.00,0.0089
790.00,0.0086
789.00,0.0084
788.00,0.0082
787.00,0.0081
786.00,0.0079
785.00,0.0077
784.00,0.0075
783.00,0.0074
782.00,0.0073
781.00,0.0072
780.00,0.0070
779.00,0.0068
778.00,0.0066
777.00,0.0063
776.00,0.0062
775.00,0.0063
774.00,0.0067
773.00,0.0071
772.00,0.0076
771.00,0.0079
770.00,0.0082
769.00,0.0083
768.00,0.0085
767.00,0.0086
766.00,0.0088
765.00,0.0087
764.00,0.0084
763.00,0.0080
762.00,0.0076
761.00,0.0072
760.00,0.0070
759.00,0.0069
758.00,0.0068
757.00,0.0067
756.00,0.0064
755.00,0.0061
754.00,0.0060
753.00,0.0060
752.00,0.0061
751.00,0.0062
750.00,0.0063
749.00,0.0063
748.00,0.0062
747.00,0.0062
746.00,0.0061
745.00,0.0061
744.00,0.0062
743.00,0.0064
742.00,0.0066
741.00,0.0068
740.00,0.0070
739.00,0.0071
738.00,0.0071
737.00,0.0071
736.00,0.0071
735.00,0.0074
734.00,0.0077
733.00,0.0079
732.00,0.0080
731.00,0.0079
730.00,0.0077
729.00,0.0076
728.00,0.0076
727.00,0.0075
726.00,0.0074
725.00,0.0073
724.00,0.0074
723.00,0.0074
722.00,0.0074
721.00,0.0074
720.00,0.0073
719.00,0.0072
718.00,0.0071
717.00,0.0071
716.00,0.0072
715.00,0.0073
714.00,0.0074
713.00,0.0074
712.00,0.0072
711.00,0.0071
710.00,0.0069
709.00,0.0067
708.00,0.0067
707.00,0.0068
706.00,0.0068
705.00,0.0068
704.00,0.0068
703.00,0.0067
702.00,0.0067
701.00,0.0066
700.00,0.0065
699.00,0.0064
698.00,0.0064
697.00,0.0063
696.00,0.0064
695.00,0.0064
694.00,0.0065
693.00,0.0064
692.00,0.0063
691.00,0.0062
690.00,0.0062
689.00,0.0061
688.00,0.0061
687.00,0.0061
686.00,0.0061
685.00,0.0061
684.00,0.0062
683.00,0.0062
682.00,0.0062
681.00,0.0061
680.00,0.0061
679.00,0.0060
678.00,0.0060
677.00,0.0059
676.00,0.0058
675.00,0.0058
674.00,0.0059
673.00,0.0059
672.00,0.0059
671.00,0.0059
670.00,0.0061
669.00,0.0064
668.00,0.0067
667.00,0.0070
666.00,0.0070
665.00,0.0068
664.00,0.0066
663.00,0.0065
662.00,0.0065
661.00,0.0064
660.00,0.0063
659.00,0.0064
658.00,0.0065
657.00,0.0066
656.00,0.0066
655.00,0.0067
654.00,0.0068
653.00,0.0070
652.00,0.0070
651.00,0.0069
650.00,0.0066
649.00,0.0064
648.00,0.0064
647.00,0.0065
646.00,0.0066
645.00,0.0065
644.00,0.0064
643.00,0.0063
642.00,0.0063
641.00,0.0064
640.00,0.0064
639.00,0.0064
638.00,0.0064
637.00,0.0064
636.00,0.0064
635.00,0.0065
634.00,0.0067
633.00,0.0069
632.00,0.0071
631.00,0.0071
630.00,0.0070
629.00,0.0069
628.00,0.0067
627.00,0.0066
626.00,0.0066
625.00,0.0068
624.00,0.0070
623.00,0.0069
622.00,0.0067
621.00,0.0065
620.00,0.0064
619.00,0.0065
618.00,0.0064
617.00,0.0064
616.00,0.0064
615.00,0.0065
614.00,0.0067
613.00,0.0066
612.00,0.0065
611.00,0.0065
610.00,0.0067
609.00,0.0071
608.00,0.0076
607.00,0.0078
606.00,0.0078
605.00,0.0075
604.00,0.0070
603.00,0.0066
602.00,0.0063
601.00,0.0063
600.00,0.0063
599.00,0.0062
598.00,0.0061
597.00,0.0060
596.00,0.0060
595.00,0.0061
594.00,0.0063
593.00,0.0064
592.00,0.0065
591.00,0.0065
590.00,0.0064
589.00,0.0063
588.00,0.0061
587.00,0.0061
586.00,0.0064
585.00,0.0068
584.00,0.0071
583.00,0.0073
582.00,0.0074
581.00,0.0073
580.00,0.0072
579.00,0.0070
578.00,0.0069
577.00,0.0069
576.00,0.0070
575.00,0.0072
574.00,0.0075
573.00,0.0077
572.00,0.0077
571.00,0.0074
570.00,0.0070
569.00,0.0067
568.00,0.0065
567.00,0.0064
566.00,0.0064
565.00,0.0064
564.00,0.0063
563.00,0.0064
562.00,0.0067
561.00,0.0071
560.00,0.0075
559.00,0.0075
558.00,0.0073
557.00,0.0070
556.00,0.0069
555.00,0.0070
554.00,0.0070
553.00,0.0068
552.00,0.0068
551.00,0.0069
550.00,0.0071
549.00,0.0073
548.00,0.0073
547.00,0.0073
546.00,0.0073
545.00,0.0072
544.00,0.0069
543.00,0.0067
542.00,0.0067
541.00,0.0069
540.00,0.0071
539.00,0.0073
538.00,0.0075
537.00,0.0078
536.00,0.0081
535.00,0.0086
534.00,0.0090
533.00,0.0091
532.00,0.0089
531.00,0.0084
530.00,0.0081
529.00,0.0080
528.00,0.0080
527.00,0.0082
526.00,0.0084
525.00,0.0085
524.00,0.0081
523.00,0.0077
522.00,0.0075
521.00,0.0079
520.00,0.0083
519.00,0.0083
518.00,0.0078
517.00,0.0071
516.00,0.0067
515.00,0.0068
514.00,0.0072
513.00,0.0077
512.00,0.0081
511.00,0.0086
510.00,0.0089
509.00,0.0088
508.00,0.0083
507.00,0.0077
506.00,0.0072
505.00,0.0071
504.00,0.0069
503.00,0.0066
502.00,0.0064
501.00,0.0065
500.00,0.0066
499.00,0.0066
498.00,0.0065
497.00,0.0065
496.00,0.0062
495.00,0.0054
494.00,0.0046
493.00,0.0044
492.00,0.0050
491.00,0.0060
490.00,0.0065
489.00,0.0065
488.00,0.0063
487.00,0.0065
486.00,0.0068
485.00,0.0071
484.00,0.0073
483.00,0.0072
482.00,0.0068
481.00,0.0066
480.00,0.0069
479.00,0.0077
478.00,0.0082
477.00,0.0080
476.00,0.0075
475.00,0.0075
474.00,0.0082
473.00,0.0090
472.00,0.0091
471.00,0.0084
470.00,0.0076
469.00,0.0070
468.00,0.0069
467.00,0.0073
466.00,0.0083
465.00,0.0095
464.00,0.0110
463.00,0.0129
462.00,0.0149
461.00,0.0162
460.00,0.0169
459.00,0.0171
458.00,0.0172
457.00,0.0172
456.00,0.0168
455.00,0.0160
454.00,0.0147
453.00,0.0130
452.00,0.0112
451.00,0.0098
450.00,0.0092
