Created as New Dataset,Sample 077 By Administrator Date Tuesday, September 09 2025
cm-1,A
4000.00,0.0008
3999.00,0.0008
3998.00,0.0009
3997.00,0.0009
3996.00,0.0009
3995.00,0.0009
3994.00,0.0009
3993.00,0.0009
3992.00,0.0009
3991.00,0.0009
3990.00,0.0008
3989.00,0.0008
3988.00,0.0008
3987.00,0.0008
3986.00,0.0008
3985.00,0.0008
3984.00,0.0008
3983.00,0.0008
3982.00,0.0008
3981.00,0.0008
3980.00,0.0008
3979.00,0.0008
3978.00,0.0008
3977.00,0.0008
3976.00,0.0008
3975.00,0.0008
3974.00,0.0008
3973.00,0.0007
3972.00,0.0007
3971.00,0.0007
3970.00,0.0007
3969.00,0.0008
3968.00,0.0007
3967.00,0.0007
3966.00,0.0007
3965.00,0.0007
3964.00,0.0007
3963.00,0.0007
3962.00,0.0007
3961.00,0.0007
3960.00,0.0007
3959.00,0.0007
3958.00,0.0007
3957.00,0.0007
3956.00,0.0007
3955.00,0.0007
3954.00,0.0007
3953.00,0.0007
3952.00,0.0007
3951.00,0.0006
3950.00,0.0006
3949.00,0.0006
3948.00,0.0005
3947.00,0.0005
3946.00,0.0005
3945.00,0.0006
3944.00,0.0006
3943.00,0.0006
3942.00,0.0007
3941.00,0.0007
3940.00,0.0007
3939.00,0.0007
3938.00,0.0007
3937.00,0.0008
3936.00,0.0008
3935.00,0.0008
3934.00,0.0007
3933.00,0.0007
3932.00,0.0006
3931.00,0.0006
3930.00,0.0006
3929.00,0.0006
3928.00,0.0007
3927.00,0.0007
3926.00,0.0007
3925.00,0.0007
3924.00,0.0007
3923.00,0.0007
3922.00,0.0007
3921.00,0.0006
3920.00,0.0006
3919.00,0.0006
3918.00,0.0006
3917.00,0.0006
3916.00,0.0006
3915.00,0.0006
3914.00,0.0006
3913.00,0.0007
3912.00,0.0007
3911.00,0.0007
3910.00,0.0007
3909.00,0.0007
3908.00,0.0007
3907.00,0.0007
3906.00,0.0007
3905.00,0.0007
3904.00,0.0007
3903.00,0.0007
3902.00,0.0007
3901.00,0.0006
3900.00,0.0006
3899.00,0.0005
3898.00,0.0005
3897.00,0.0006
3896.00,0.0006
3895.00,0.0007
3894.00,0.0007
3893.00,0.0008
3892.00,0.0008
3891.00,0.0007
3890.00,0.0007
3889.00,0.0007
3888.00,0.0007
3887.00,0.0007
3886.00,0.0007
3885.00,0.0006
3884.00,0.0006
3883.00,0.0006
3882.00,0.0006
3881.00,0.0006
3880.00,0.0006
3879.00,0.0007
3878.00,0.0007
3877.00,0.0007
3876.00,0.0007
3875.00,0.0007
3874.00,0.0007
3873.00,0.0008
3872.00,0.0008
3871.00,0.0008
3870.00,0.0008
3869.00,0.0008
3868.00,0.0008
3867.00,0.0008
3866.00,0.0007
3865.00,0.0007
3864.00,0.0007
3863.00,0.0007
3862.00,0.0007
3861.00,0.0007
3860.00,0.0007
3859.00,0.0007
3858.00,0.0007
3857.00,0.0007
3856.00,0.0008
3855.00,0.0008
3854.00,0.0008
3853.00,0.0008
3852.00,0.0008
3851.00,0.0008
3850.00,0.0007
3849.00,0.0006
3848.00,0.0006
3847.00,0.0006
3846.00,0.0006
3845.00,0.0007
3844.00,0.0007
3843.00,0.0008
3842.00,0.0008
3841.00,0.0008
3840.00,0.0007
3839.00,0.0007
3838.00,0.0008
3837.00,0.0008
3836.00,0.0008
3835.00,0.0008
3834.00,0.0008
3833.00,0.0008
3832.00,0.0008
3831.00,0.0008
3830.00,0.0008
3829.00,0.0008
3828.00,0.0008
3827.00,0.0008
3826.00,0.0008
3825.00,0.0008
3824.00,0.0008
3823.00,0.0008
3822.00,0.0007
3821.00,0.0007
3820.00,0.0008
3819.00,0.0008
3818.00,0.0008
3817.00,0.0008
3816.00,0.0008
3815.00,0.0008
3814.00,0.0008
3813.00,0.0008
3812.00,0.0007
3811.00,0.0007
3810.00,0.0007
3809.00,0.0007
3808.00,0.0007
3807.00,0.0007
3806.00,0.0007
3805.00,0.0008
3804.00,0.0008
3803.00,0.0008
3802.00,0.0008
3801.00,0.0008
3800.00,0.0008
3799.00,0.0007
3798.00,0.0007
3797.00,0.0006
3796.00,0.0006
3795.00,0.0006
3794.00,0.0007
3793.00,0.0007
3792.00,0.0007
3791.00,0.0007
3790.00,0.0007
3789.00,0.0006
3788.00,0.0006
3787.00,0.0006
3786.00,0.0006
3785.00,0.0006
3784.00,0.0007
3783.00,0.0007
3782.00,0.0007
3781.00,0.0007
3780.00,0.0007
3779.00,0.0006
3778.00,0.0006
3777.00,0.0006
3776.00,0.0006
3775.00,0.0006
3774.00,0.0007
3773.00,0.0007
3772.00,0.0008
3771.00,0.0008
3770.00,0.0008
3769.00,0.0008
3768.00,0.0007
3767.00,0.0007
3766.00,0.0007
3765.00,0.0007
3764.00,0.0008
3763.00,0.0008
3762.00,0.0008
3761.00,0.0008
3760.00,0.0008
3759.00,0.0008
3758.00,0.0008
3757.00,0.0008
3756.00,0.0008
3755.00,0.0009
3754.00,0.0009
3753.00,0.0009
3752.00,0.0009
3751.00,0.0009
3750.00,0.0009
3749.00,0.0009
3748.00,0.0008
3747.00,0.0008
3746.00,0.0008
3745.00,0.0008
3744.00,0.0008
3743.00,0.0007
3742.00,0.0007
3741.00,0.0006
3740.00,0.0006
3739.00,0.0006
3738.00,0.0007
3737.00,0.0007
3736.00,0.0007
3735.00,0.0006
3734.00,0.0006
3733.00,0.0006
3732.00,0.0006
3731.00,0.0006
3730.00,0.0006
3729.00,0.0006
3728.00,0.0006
3727.00,0.0006
3726.00,0.0006
3725.00,0.0006
3724.00,0.0006
3723.00,0.0005
3722.00,0.0005
3721.00,0.0005
3720.00,0.0005
3719.00,0.0005
3718.00,0.0005
3717.00,0.0006
3716.00,0.0006
3715.00,0.0006
3714.00,0.0006
3713.00,0.0006
3712.00,0.0006
3711.00,0.0006
3710.00,0.0006
3709.00,0.0006
3708.00,0.0006
3707.00,0.0006
3706.00,0.0005
3705.00,0.0005
3704.00,0.0004
3703.00,0.0004
3702.00,0.0004
3701.00,0.0004
3700.00,0.0004
3699.00,0.0004
3698.00,0.0004
3697.00,0.0004
3696.00,0.0003
3695.00,0.0003
3694.00,0.0004
3693.00,0.0004
3692.00,0.0005
3691.00,0.0006
3690.00,0.0007
3689.00,0.0007
3688.00,0.0007
3687.00,0.0007
3686.00,0.0006
3685.00,0.0005
3684.00,0.0005
3683.00,0.0005
3682.00,0.0005
3681.00,0.0005
3680.00,0.0005
3679.00,0.0005
3678.00,0.0005
3677.00,0.0006
3676.00,0.0006
3675.00,0.0007
3674.00,0.0007
3673.00,0.0007
3672.00,0.0007
3671.00,0.0006
3670.00,0.0006
3669.00,0.0005
3668.00,0.0005
3667.00,0.0005
3666.00,0.0004
3665.00,0.0004
3664.00,0.0004
3663.00,0.0004
3662.00,0.0004
3661.00,0.0004
3660.00,0.0005
3659.00,0.0005
3658.00,0.0005
3657.00,0.0004
3656.00,0.0004
3655.00,0.0004
3654.00,0.0004
3653.00,0.0004
3652.00,0.0003
3651.00,0.0003
3650.00,0.0003
3649.00,0.0004
3648.00,0.0004
3647.00,0.0004
3646.00,0.0004
3645.00,0.0004
3644.00,0.0003
3643.00,0.0004
3642.00,0.0004
3641.00,0.0005
3640.00,0.0005
3639.00,0.0005
3638.00,0.0005
3637.00,0.0004
3636.00,0.0004
3635.00,0.0004
3634.00,0.0004
3633.00,0.0004
3632.00,0.0005
3631.00,0.0005
3630.00,0.0005
3629.00,0.0004
3628.00,0.0004
3627.00,0.0003
3626.00,0.0003
3625.00,0.0003
3624.00,0.0003
3623.00,0.0003
3622.00,0.0004
3621.00,0.0004
3620.00,0.0004
3619.00,0.0004
3618.00,0.0005
3617.00,0.0005
3616.00,0.0005
3615.00,0.0005
3614.00,0.0005
3613.00,0.0005
3612.00,0.0004
3611.00,0.0004
3610.00,0.0005
3609.00,0.0005
3608.00,0.0005
3607.00,0.0005
3606.00,0.0005
3605.00,0.0005
3604.00,0.0005
3603.00,0.0005
3602.00,0.0005
3601.00,0.0005
3600.00,0.0005
3599.00,0.0006
3598.00,0.0006
3597.00,0.0006
3596.00,0.0005
3595.00,0.0005
3594.00,0.0005
3593.00,0.0005
3592.00,0.0005
3591.00,0.0006
3590.00,0.0006
3589.00,0.0006
3588.00,0.0006
3587.00,0.0006
3586.00,0.0006
3585.00,0.0006
3584.00,0.0006
3583.00,0.0006
3582.00,0.0006
3581.00,0.0006
3580.00,0.0006
3579.00,0.0007
3578.00,0.0007
3577.00,0.0007
3576.00,0.0007
3575.00,0.0007
3574.00,0.0007
3573.00,0.0007
3572.00,0.0008
3571.00,0.0008
3570.00,0.0008
3569.00,0.0009
3568.00,0.0009
3567.00,0.0008
3566.00,0.0008
3565.00,0.0008
3564.00,0.0008
3563.00,0.0008
3562.00,0.0008
3561.00,0.0009
3560.00,0.0009
3559.00,0.0010
3558.00,0.0010
3557.00,0.0010
3556.00,0.0009
3555.00,0.0009
3554.00,0.0009
3553.00,0.0009
3552.00,0.0010
3551.00,0.0010
3550.00,0.0010
3549.00,0.0010
3548.00,0.0011
3547.00,0.0011
3546.00,0.0011
3545.00,0.0011
3544.00,0.0011
3543.00,0.0011
3542.00,0.0011
3541.00,0.0012
3540.00,0.0012
3539.00,0.0012
3538.00,0.0012
3537.00,0.0012
3536.00,0.0012
3535.00,0.0012
3534.00,0.0012
3533.00,0.0012
3532.00,0.0012
3531.00,0.0012
3530.00,0.0012
3529.00,0.0013
3528.00,0.0013
3527.00,0.0013
3526.00,0.0013
3525.00,0.0013
3524.00,0.0013
3523.00,0.0013
3522.00,0.0014
3521.00,0.0014
3520.00,0.0015
3519.00,0.0015
3518.00,0.0014
3517.00,0.0014
3516.00,0.0014
3515.00,0.0014
3514.00,0.0014
3513.00,0.0014
3512.00,0.0014
3511.00,0.0014
3510.00,0.0015
3509.00,0.0015
3508.00,0.0015
3507.00,0.0015
3506.00,0.0015
3505.00,0.0015
3504.00,0.0015
3503.00,0.0015
3502.00,0.0015
3501.00,0.0015
3500.00,0.0015
3499.00,0.0015
3498.00,0.0015
3497.00,0.0015
3496.00,0.0015
3495.00,0.0015
3494.00,0.0015
3493.00,0.0016
3492.00,0.0016
3491.00,0.0016
3490.00,0.0017
3489.00,0.0017
3488.00,0.0017
3487.00,0.0017
3486.00,0.0017
3485.00,0.0017
3484.00,0.0016
3483.00,0.0017
3482.00,0.0017
3481.00,0.0017
3480.00,0.0018
3479.00,0.0018
3478.00,0.0018
3477.00,0.0018
3476.00,0.0019
3475.00,0.0019
3474.00,0.0019
3473.00,0.0019
3472.00,0.0019
3471.00,0.0019
3470.00,0.0019
3469.00,0.0019
3468.00,0.0019
3467.00,0.0019
3466.00,0.0019
3465.00,0.0019
3464.00,0.0019
3463.00,0.0019
3462.00,0.0019
3461.00,0.0019
3460.00,0.0019
3459.00,0.0019
3458.00,0.0020
3457.00,0.0020
3456.00,0.0021
3455.00,0.0021
3454.00,0.0020
3453.00,0.0020
3452.00,0.0020
3451.00,0.0020
3450.00,0.0020
3449.00,0.0020
3448.00,0.0020
3447.00,0.0021
3446.00,0.0021
3445.00,0.0021
3444.00,0.0021
3443.00,0.0021
3442.00,0.0021
3441.00,0.0021
3440.00,0.0022
3439.00,0.0022
3438.00,0.0022
3437.00,0.0022
3436.00,0.0022
3435.00,0.0022
3434.00,0.0022
3433.00,0.0022
3432.00,0.0022
3431.00,0.0022
3430.00,0.0022
3429.00,0.0022
3428.00,0.0022
3427.00,0.0023
3426.00,0.0023
3425.00,0.0022
3424.00,0.0022
3423.00,0.0022
3422.00,0.0022
3421.00,0.0023
3420.00,0.0023
3419.00,0.0023
3418.00,0.0023
3417.00,0.0024
3416.00,0.0024
3415.00,0.0024
3414.00,0.0025
3413.00,0.0025
3412.00,0.0025
3411.00,0.0024
3410.00,0.0024
3409.00,0.0024
3408.00,0.0024
3407.00,0.0024
3406.00,0.0024
3405.00,0.0024
3404.00,0.0024
3403.00,0.0024
3402.00,0.0023
3401.00,0.0023
3400.00,0.0023
3399.00,0.0023
3398.00,0.0024
3397.00,0.0024
3396.00,0.0024
3395.00,0.0023
3394.00,0.0023
3393.00,0.0023
3392.00,0.0023
3391.00,0.0023
3390.00,0.0024
3389.00,0.0024
3388.00,0.0024
3387.00,0.0024
3386.00,0.0024
3385.00,0.0023
3384.00,0.0023
3383.00,0.0023
3382.00,0.0023
3381.00,0.0024
3380.00,0.0024
3379.00,0.0024
3378.00,0.0024
3377.00,0.0024
3376.00,0.0024
3375.00,0.0025
3374.00,0.0025
3373.00,0.0025
3372.00,0.0025
3371.00,0.0025
3370.00,0.0025
3369.00,0.0025
3368.00,0.0024
3367.00,0.0025
3366.00,0.0025
3365.00,0.0025
3364.00,0.0025
3363.00,0.0025
3362.00,0.0025
3361.00,0.0024
3360.00,0.0024
3359.00,0.0024
3358.00,0.0024
3357.00,0.0024
3356.00,0.0025
3355.00,0.0025
3354.00,0.0025
3353.00,0.0025
3352.00,0.0025
3351.00,0.0025
3350.00,0.0025
3349.00,0.0025
3348.00,0.0025
3347.00,0.0025
3346.00,0.0025
3345.00,0.0025
3344.00,0.0026
3343.00,0.0026
3342.00,0.0026
3341.00,0.0026
3340.00,0.0026
3339.00,0.0025
3338.00,0.0025
3337.00,0.0024
3336.00,0.0024
3335.00,0.0024
3334.00,0.0024
3333.00,0.0024
3332.00,0.0024
3331.00,0.0023
3330.00,0.0023
3329.00,0.0023
3328.00,0.0024
3327.00,0.0024
3326.00,0.0024
3325.00,0.0024
3324.00,0.0024
3323.00,0.0023
3322.00,0.0023
3321.00,0.0023
3320.00,0.0022
3319.00,0.0022
3318.00,0.0022
3317.00,0.0022
3316.00,0.0022
3315.00,0.0022
3314.00,0.0022
3313.00,0.0022
3312.00,0.0022
3311.00,0.0022
3310.00,0.0022
3309.00,0.0022
3308.00,0.0022
3307.00,0.0023
3306.00,0.0023
3305.00,0.0023
3304.00,0.0023
3303.00,0.0023
3302.00,0.0023
3301.00,0.0023
3300.00,0.0023
3299.00,0.0023
3298.00,0.0023
3297.00,0.0023
3296.00,0.0023
3295.00,0.0023
3294.00,0.0023
3293.00,0.0023
3292.00,0.0023
3291.00,0.0023
3290.00,0.0023
3289.00,0.0022
3288.00,0.0022
3287.00,0.0022
3286.00,0.0022
3285.00,0.0022
3284.00,0.0022
3283.00,0.0022
3282.00,0.0022
3281.00,0.0022
3280.00,0.0022
3279.00,0.0022
3278.00,0.0022
3277.00,0.0022
3276.00,0.0022
3275.00,0.0023
3274.00,0.0023
3273.00,0.0023
3272.00,0.0023
3271.00,0.0022
3270.00,0.0022
3269.00,0.0022
3268.00,0.0022
3267.00,0.0022
3266.00,0.0022
3265.00,0.0022
3264.00,0.0022
3263.00,0.0022
3262.00,0.0021
3261.00,0.0021
3260.00,0.0021
3259.00,0.0022
3258.00,0.0021
3257.00,0.0021
3256.00,0.0021
3255.00,0.0020
3254.00,0.0020
3253.00,0.0020
3252.00,0.0020
3251.00,0.0021
3250.00,0.0021
3249.00,0.0021
3248.00,0.0021
3247.00,0.0021
3246.00,0.0021
3245.00,0.0020
3244.00,0.0021
3243.00,0.0021
3242.00,0.0021
3241.00,0.0021
3240.00,0.0021
3239.00,0.0021
3238.00,0.0021
3237.00,0.0021
3236.00,0.0021
3235.00,0.0021
3234.00,0.0021
3233.00,0.0021
3232.00,0.0021
3231.00,0.0021
3230.00,0.0021
3229.00,0.0021
3228.00,0.0022
3227.00,0.0022
3226.00,0.0023
3225.00,0.0023
3224.00,0.0023
3223.00,0.0024
3222.00,0.0024
3221.00,0.0024
3220.00,0.0025
3219.00,0.0025
3218.00,0.0025
3217.00,0.0025
3216.00,0.0025
3215.00,0.0026
3214.00,0.0026
3213.00,0.0026
3212.00,0.0026
3211.00,0.0026
3210.00,0.0027
3209.00,0.0027
3208.00,0.0027
3207.00,0.0027
3206.00,0.0028
3205.00,0.0028
3204.00,0.0028
3203.00,0.0028
3202.00,0.0028
3201.00,0.0028
3200.00,0.0029
3199.00,0.0029
3198.00,0.0028
3197.00,0.0028
3196.00,0.0028
3195.00,0.0028
3194.00,0.0027
3193.00,0.0027
3192.00,0.0027
3191.00,0.0027
3190.00,0.0027
3189.00,0.0028
3188.00,0.0028
3187.00,0.0028
3186.00,0.0028
3185.00,0.0028
3184.00,0.0027
3183.00,0.0027
3182.00,0.0027
3181.00,0.0027
3180.00,0.0026
3179.00,0.0026
3178.00,0.0026
3177.00,0.0025
3176.00,0.0025
3175.00,0.0025
3174.00,0.0025
3173.00,0.0025
3172.00,0.0025
3171.00,0.0026
3170.00,0.0026
3169.00,0.0026
3168.00,0.0026
3167.00,0.0026
3166.00,0.0026
3165.00,0.0025
3164.00,0.0025
3163.00,0.0025
3162.00,0.0025
3161.00,0.0025
3160.00,0.0025
3159.00,0.0025
3158.00,0.0025
3157.00,0.0026
3156.00,0.0026
3155.00,0.0026
3154.00,0.0027
3153.00,0.0027
3152.00,0.0026
3151.00,0.0026
3150.00,0.0026
3149.00,0.0026
3148.00,0.0026
3147.00,0.0026
3146.00,0.0026
3145.00,0.0026
3144.00,0.0026
3143.00,0.0026
3142.00,0.0026
3141.00,0.0026
3140.00,0.0026
3139.00,0.0026
3138.00,0.0026
3137.00,0.0026
3136.00,0.0026
3135.00,0.0025
3134.00,0.0025
3133.00,0.0025
3132.00,0.0025
3131.00,0.0024
3130.00,0.0024
3129.00,0.0023
3128.00,0.0023
3127.00,0.0023
3126.00,0.0023
3125.00,0.0023
3124.00,0.0022
3123.00,0.0022
3122.00,0.0022
3121.00,0.0022
3120.00,0.0022
3119.00,0.0022
3118.00,0.0022
3117.00,0.0022
3116.00,0.0022
3115.00,0.0022
3114.00,0.0022
3113.00,0.0021
3112.00,0.0021
3111.00,0.0021
3110.00,0.0021
3109.00,0.0021
3108.00,0.0021
3107.00,0.0020
3106.00,0.0020
3105.00,0.0020
3104.00,0.0020
3103.00,0.0020
3102.00,0.0020
3101.00,0.0020
3100.00,0.0020
3099.00,0.0020
3098.00,0.0020
3097.00,0.0021
3096.00,0.0021
3095.00,0.0021
3094.00,0.0021
3093.00,0.0021
3092.00,0.0021
3091.00,0.0021
3090.00,0.0021
3089.00,0.0021
3088.00,0.0020
3087.00,0.0020
3086.00,0.0020
3085.00,0.0020
3084.00,0.0019
3083.00,0.0019
3082.00,0.0019
3081.00,0.0019
3080.00,0.0019
3079.00,0.0020
3078.00,0.0021
3077.00,0.0021
3076.00,0.0021
3075.00,0.0021
3074.00,0.0021
3073.00,0.0021
3072.00,0.0021
3071.00,0.0021
3070.00,0.0021
3069.00,0.0022
3068.00,0.0022
3067.00,0.0022
3066.00,0.0022
3065.00,0.0022
3064.00,0.0022
3063.00,0.0023
3062.00,0.0023
3061.00,0.0023
3060.00,0.0023
3059.00,0.0023
3058.00,0.0023
3057.00,0.0023
3056.00,0.0023
3055.00,0.0023
3054.00,0.0024
3053.00,0.0024
3052.00,0.0024
3051.00,0.0025
3050.00,0.0025
3049.00,0.0025
3048.00,0.0025
3047.00,0.0025
3046.00,0.0026
3045.00,0.0026
3044.00,0.0026
3043.00,0.0026
3042.00,0.0026
3041.00,0.0027
3040.00,0.0027
3039.00,0.0027
3038.00,0.0027
3037.00,0.0028
3036.00,0.0028
3035.00,0.0029
3034.00,0.0029
3033.00,0.0030
3032.00,0.0030
3031.00,0.0030
3030.00,0.0031
3029.00,0.0031
3028.00,0.0031
3027.00,0.0032
3026.00,0.0033
3025.00,0.0033
3024.00,0.0034
3023.00,0.0035
3022.00,0.0036
3021.00,0.0037
3020.00,0.0038
3019.00,0.0039
3018.00,0.0040
3017.00,0.0041
3016.00,0.0042
3015.00,0.0043
3014.00,0.0044
3013.00,0.0046
3012.00,0.0047
3011.00,0.0048
3010.00,0.0050
3009.00,0.0052
3008.00,0.0054
3007.00,0.0056
3006.00,0.0058
3005.00,0.0060
3004.00,0.0062
3003.00,0.0064
3002.00,0.0066
3001.00,0.0069
3000.00,0.0073
2999.00,0.0076
2998.00,0.0080
2997.00,0.0085
2996.00,0.0089
2995.00,0.0093
2994.00,0.0098
2993.00,0.0103
2992.00,0.0108
2991.00,0.0115
2990.00,0.0122
2989.00,0.0130
2988.00,0.0139
2987.00,0.0149
2986.00,0.0161
2985.00,0.0173
2984.00,0.0188
2983.00,0.0203
2982.00,0.0221
2981.00,0.0241
2980.00,0.0264
2979.00,0.0290
2978.00,0.0319
2977.00,0.0351
2976.00,0.0388
2975.00,0.0431
2974.00,0.0480
2973.00,0.0536
2972.00,0.0599
2971.00,0.0670
2970.00,0.0750
2969.00,0.0838
2968.00,0.0937
2967.00,0.1044
2966.00,0.1161
2965.00,0.1284
2964.00,0.1411
2963.00,0.1537
2962.00,0.1657
2961.00,0.1766
2960.00,0.1857
2959.00,0.1928
2958.00,0.1978
2957.00,0.2011
2956.00,0.2032
2955.00,0.2048
2954.00,0.2064
2953.00,0.2080
2952.00,0.2092
2951.00,0.2093
2950.00,0.2074
2949.00,0.2027
2948.00,0.1948
2947.00,0.1840
2946.00,0.1709
2945.00,0.1567
2944.00,0.1430
2943.00,0.1307
2942.00,0.1207
2941.00,0.1133
2940.00,0.1085
2939.00,0.1062
2938.00,0.1060
2937.00,0.1077
2936.00,0.1111
2935.00,0.1160
2934.00,0.1222
2933.00,0.1296
2932.00,0.1380
2931.00,0.1470
2930.00,0.1565
2929.00,0.1661
2928.00,0.1754
2927.00,0.1843
2926.00,0.1925
2925.00,0.2002
2924.00,0.2074
2923.00,0.2143
2922.00,0.2211
2921.00,0.2276
2920.00,0.2334
2919.00,0.2380
2918.00,0.2407
2917.00,0.2412
2916.00,0.2392
2915.00,0.2350
2914.00,0.2292
2913.00,0.2225
2912.00,0.2156
2911.00,0.2090
2910.00,0.2030
2909.00,0.1974
2908.00,0.1921
2907.00,0.1868
2906.00,0.1812
2905.00,0.1753
2904.00,0.1689
2903.00,0.1622
2902.00,0.1552
2901.00,0.1480
2900.00,0.1410
2899.00,0.1343
2898.00,0.1280
2897.00,0.1223
2896.00,0.1173
2895.00,0.1131
2894.00,0.1096
2893.00,0.1069
2892.00,0.1050
2891.00,0.1037
2890.00,0.1029
2889.00,0.1027
2888.00,0.1029
2887.00,0.1034
2886.00,0.1043
2885.00,0.1056
2884.00,0.1073
2883.00,0.1094
2882.00,0.1118
2881.00,0.1144
2880.00,0.1168
2879.00,0.1188
2878.00,0.1200
2877.00,0.1203
2876.00,0.1198
2875.00,0.1188
2874.00,0.1178
2873.00,0.1174
2872.00,0.1177
2871.00,0.1188
2870.00,0.1204
2869.00,0.1220
2868.00,0.1230
2867.00,0.1224
2866.00,0.1197
2865.00,0.1144
2864.00,0.1069
2863.00,0.0981
2862.00,0.0888
2861.00,0.0800
2860.00,0.0724
2859.00,0.0663
2858.00,0.0616
2857.00,0.0582
2856.00,0.0559
2855.00,0.0546
2854.00,0.0541
2853.00,0.0544
2852.00,0.0554
2851.00,0.0571
2850.00,0.0596
2849.00,0.0629
2848.00,0.0670
2847.00,0.0721
2846.00,0.0781
2845.00,0.0852
2844.00,0.0931
2843.00,0.1017
2842.00,0.1105
2841.00,0.1190
2840.00,0.1262
2839.00,0.1310
2838.00,0.1327
2837.00,0.1304
2836.00,0.1242
2835.00,0.1147
2834.00,0.1031
2833.00,0.0909
2832.00,0.0792
2831.00,0.0688
2830.00,0.0599
2829.00,0.0527
2828.00,0.0469
2827.00,0.0422
2826.00,0.0384
2825.00,0.0353
2824.00,0.0327
2823.00,0.0305
2822.00,0.0286
2821.00,0.0270
2820.00,0.0256
2819.00,0.0244
2818.00,0.0232
2817.00,0.0223
2816.00,0.0215
2815.00,0.0207
2814.00,0.0201
2813.00,0.0195
2812.00,0.0190
2811.00,0.0185
2810.00,0.0180
2809.00,0.0174
2808.00,0.0168
2807.00,0.0162
2806.00,0.0156
2805.00,0.0149
2804.00,0.0142
2803.00,0.0136
2802.00,0.0131
2801.00,0.0126
2800.00,0.0122
2799.00,0.0118
2798.00,0.0116
2797.00,0.0114
2796.00,0.0112
2795.00,0.0110
2794.00,0.0107
2793.00,0.0104
2792.00,0.0100
2791.00,0.0096
2790.00,0.0092
2789.00,0.0088
2788.00,0.0084
2787.00,0.0081
2786.00,0.0078
2785.00,0.0075
2784.00,0.0072
2783.00,0.0070
2782.00,0.0068
2781.00,0.0066
2780.00,0.0064
2779.00,0.0062
2778.00,0.0060
2777.00,0.0059
2776.00,0.0058
2775.00,0.0057
2774.00,0.0056
2773.00,0.0055
2772.00,0.0055
2771.00,0.0055
2770.00,0.0054
2769.00,0.0054
2768.00,0.0054
2767.00,0.0053
2766.00,0.0053
2765.00,0.0052
2764.00,0.0051
2763.00,0.0051
2762.00,0.0051
2761.00,0.0050
2760.00,0.0050
2759.00,0.0050
2758.00,0.0050
2757.00,0.0050
2756.00,0.0050
2755.00,0.0050
2754.00,0.0050
2753.00,0.0050
2752.00,0.0049
2751.00,0.0049
2750.00,0.0049
2749.00,0.0048
2748.00,0.0048
2747.00,0.0049
2746.00,0.0050
2745.00,0.0051
2744.00,0.0052
2743.00,0.0053
2742.00,0.0054
2741.00,0.0055
2740.00,0.0056
2739.00,0.0058
2738.00,0.0059
2737.00,0.0061
2736.00,0.0062
2735.00,0.0064
2734.00,0.0065
2733.00,0.0067
2732.00,0.0068
2731.00,0.0070
2730.00,0.0072
2729.00,0.0074
2728.00,0.0077
2727.00,0.0080
2726.00,0.0084
2725.00,0.0086
2724.00,0.0088
2723.00,0.0088
2722.00,0.0087
2721.00,0.0085
2720.00,0.0082
2719.00,0.0079
2718.00,0.0076
2717.00,0.0072
2716.00,0.0070
2715.00,0.0067
2714.00,0.0065
2713.00,0.0062
2712.00,0.0060
2711.00,0.0058
2710.00,0.0057
2709.00,0.0055
2708.00,0.0053
2707.00,0.0052
2706.00,0.0051
2705.00,0.0049
2704.00,0.0048
2703.00,0.0048
2702.00,0.0047
2701.00,0.0046
2700.00,0.0045
2699.00,0.0044
2698.00,0.0044
2697.00,0.0043
2696.00,0.0043
2695.00,0.0043
2694.00,0.0043
2693.00,0.0043
2692.00,0.0044
2691.00,0.0044
2690.00,0.0044
2689.00,0.0043
2688.00,0.0043
2687.00,0.0043
2686.00,0.0043
2685.00,0.0043
2684.00,0.0043
2683.00,0.0044
2682.00,0.0044
2681.00,0.0044
2680.00,0.0044
2679.00,0.0044
2678.00,0.0045
2677.00,0.0045
2676.00,0.0044
2675.00,0.0044
2674.00,0.0043
2673.00,0.0043
2672.00,0.0042
2671.00,0.0042
2670.00,0.0042
2669.00,0.0042
2668.00,0.0043
2667.00,0.0043
2666.00,0.0043
2665.00,0.0044
2664.00,0.0045
2663.00,0.0045
2662.00,0.0046
2661.00,0.0046
2660.00,0.0046
2659.00,0.0046
2658.00,0.0046
2657.00,0.0046
2656.00,0.0045
2655.00,0.0045
2654.00,0.0044
2653.00,0.0044
2652.00,0.0043
2651.00,0.0042
2650.00,0.0042
2649.00,0.0042
2648.00,0.0042
2647.00,0.0041
2646.00,0.0041
2645.00,0.0041
2644.00,0.0040
2643.00,0.0040
2642.00,0.0039
2641.00,0.0039
2640.00,0.0038
2639.00,0.0038
2638.00,0.0037
2637.00,0.0037
2636.00,0.0036
2635.00,0.0036
2634.00,0.0036
2633.00,0.0037
2632.00,0.0037
2631.00,0.0037
2630.00,0.0037
2629.00,0.0038
2628.00,0.0038
2627.00,0.0039
2626.00,0.0039
2625.00,0.0039
2624.00,0.0039
2623.00,0.0040
2622.00,0.0040
2621.00,0.0040
2620.00,0.0040
2619.00,0.0039
2618.00,0.0040
2617.00,0.0040
2616.00,0.0040
2615.00,0.0040
2614.00,0.0039
2613.00,0.0039
2612.00,0.0038
2611.00,0.0038
2610.00,0.0037
2609.00,0.0036
2608.00,0.0035
2607.00,0.0034
2606.00,0.0033
2605.00,0.0033
2604.00,0.0032
2603.00,0.0031
2602.00,0.0031
2601.00,0.0031
2600.00,0.0031
2599.00,0.0031
2598.00,0.0031
2597.00,0.0031
2596.00,0.0031
2595.00,0.0031
2594.00,0.0031
2593.00,0.0031
2592.00,0.0031
2591.00,0.0032
2590.00,0.0032
2589.00,0.0034
2588.00,0.0035
2587.00,0.0037
2586.00,0.0038
2585.00,0.0039
2584.00,0.0039
2583.00,0.0039
2582.00,0.0039
2581.00,0.0038
2580.00,0.0037
2579.00,0.0036
2578.00,0.0035
2577.00,0.0034
2576.00,0.0034
2575.00,0.0033
2574.00,0.0032
2573.00,0.0031
2572.00,0.0030
2571.00,0.0028
2570.00,0.0027
2569.00,0.0026
2568.00,0.0025
2567.00,0.0024
2566.00,0.0024
2565.00,0.0023
2564.00,0.0023
2563.00,0.0023
2562.00,0.0023
2561.00,0.0023
2560.00,0.0023
2559.00,0.0023
2558.00,0.0023
2557.00,0.0023
2556.00,0.0022
2555.00,0.0022
2554.00,0.0022
2553.00,0.0021
2552.00,0.0021
2551.00,0.0020
2550.00,0.0020
2549.00,0.0019
2548.00,0.0019
2547.00,0.0019
2546.00,0.0018
2545.00,0.0018
2544.00,0.0017
2543.00,0.0016
2542.00,0.0016
2541.00,0.0016
2540.00,0.0016
2539.00,0.0016
2538.00,0.0016
2537.00,0.0016
2536.00,0.0016
2535.00,0.0015
2534.00,0.0015
2533.00,0.0015
2532.00,0.0015
2531.00,0.0015
2530.00,0.0014
2529.00,0.0013
2528.00,0.0013
2527.00,0.0013
2526.00,0.0013
2525.00,0.0013
2524.00,0.0012
2523.00,0.0012
2522.00,0.0012
2521.00,0.0011
2520.00,0.0011
2519.00,0.0012
2518.00,0.0012
2517.00,0.0012
2516.00,0.0013
2515.00,0.0012
2514.00,0.0012
2513.00,0.0011
2512.00,0.0010
2511.00,0.0010
2510.00,0.0010
2509.00,0.0010
2508.00,0.0010
2507.00,0.0010
2506.00,0.0010
2505.00,0.0010
2504.00,0.0009
2503.00,0.0009
2502.00,0.0008
2501.00,0.0008
2500.00,0.0009
2499.00,0.0009
2498.00,0.0009
2497.00,0.0009
2496.00,0.0008
2495.00,0.0008
2494.00,0.0008
2493.00,0.0008
2492.00,0.0008
2491.00,0.0008
2490.00,0.0008
2489.00,0.0008
2488.00,0.0009
2487.00,0.0009
2486.00,0.0010
2485.00,0.0010
2484.00,0.0010
2483.00,0.0009
2482.00,0.0009
2481.00,0.0009
2480.00,0.0009
2479.00,0.0008
2478.00,0.0007
2477.00,0.0007
2476.00,0.0007
2475.00,0.0006
2474.00,0.0007
2473.00,0.0007
2472.00,0.0007
2471.00,0.0008
2470.00,0.0007
2469.00,0.0007
2468.00,0.0007
2467.00,0.0008
2466.00,0.0008
2465.00,0.0008
2464.00,0.0008
2463.00,0.0007
2462.00,0.0008
2461.00,0.0008
2460.00,0.0008
2459.00,0.0008
2458.00,0.0008
2457.00,0.0008
2456.00,0.0008
2455.00,0.0009
2454.00,0.0010
2453.00,0.0010
2452.00,0.0010
2451.00,0.0009
2450.00,0.0009
2449.00,0.0009
2448.00,0.0010
2447.00,0.0010
2446.00,0.0010
2445.00,0.0009
2444.00,0.0009
2443.00,0.0009
2442.00,0.0009
2441.00,0.0009
2440.00,0.0010
2439.00,0.0010
2438.00,0.0010
2437.00,0.0010
2436.00,0.0010
2435.00,0.0010
2434.00,0.0010
2433.00,0.0010
2432.00,0.0011
2431.00,0.0011
2430.00,0.0011
2429.00,0.0011
2428.00,0.0011
2427.00,0.0011
2426.00,0.0011
2425.00,0.0012
2424.00,0.0012
2423.00,0.0012
2422.00,0.0012
2421.00,0.0011
2420.00,0.0011
2419.00,0.0011
2418.00,0.0011
2417.00,0.0010
2416.00,0.0010
2415.00,0.0010
2414.00,0.0010
2413.00,0.0010
2412.00,0.0010
2411.00,0.0010
2410.00,0.0010
2409.00,0.0010
2408.00,0.0010
2407.00,0.0009
2406.00,0.0008
2405.00,0.0007
2404.00,0.0007
2403.00,0.0007
2402.00,0.0007
2401.00,0.0007
2400.00,0.0007
2399.00,0.0007
2398.00,0.0007
2397.00,0.0007
2396.00,0.0007
2395.00,0.0007
2394.00,0.0007
2393.00,0.0007
2392.00,0.0007
2391.00,0.0007
2390.00,0.0007
2389.00,0.0007
2388.00,0.0007
2387.00,0.0006
2386.00,0.0006
2385.00,0.0006
2384.00,0.0006
2383.00,0.0005
2382.00,0.0005
2381.00,0.0004
2380.00,0.0003
2379.00,0.0003
2378.00,0.0002
2377.00,0.0002
2376.00,0.0002
2375.00,0.0002
2374.00,0.0002
2373.00,0.0002
2372.00,0.0002
2371.00,0.0002
2370.00,0.0002
2369.00,0.0002
2368.00,0.0003
2367.00,0.0003
2366.00,0.0003
2365.00,0.0003
2364.00,0.0003
2363.00,0.0003
2362.00,0.0003
2361.00,0.0003
2360.00,0.0003
2359.00,0.0003
2358.00,0.0002
2357.00,0.0002
2356.00,0.0002
2355.00,0.0002
2354.00,0.0002
2353.00,0.0002
2352.00,0.0003
2351.00,0.0003
2350.00,0.0003
2349.00,0.0003
2348.00,0.0003
2347.00,0.0003
2346.00,0.0005
2345.00,0.0006
2344.00,0.0006
2343.00,0.0005
2342.00,0.0004
2341.00,0.0004
2340.00,0.0004
2339.00,0.0005
2338.00,0.0005
2337.00,0.0005
2336.00,0.0006
2335.00,0.0006
2334.00,0.0005
2333.00,0.0005
2332.00,0.0005
2331.00,0.0005
2330.00,0.0005
2329.00,0.0006
2328.00,0.0008
2327.00,0.0011
2326.00,0.0016
2325.00,0.0019
2324.00,0.0021
2323.00,0.0020
2322.00,0.0018
2321.00,0.0015
2320.00,0.0013
2319.00,0.0011
2318.00,0.0009
2317.00,0.0009
2316.00,0.0009
2315.00,0.0009
2314.00,0.0009
2313.00,0.0009
2312.00,0.0009
2311.00,0.0009
2310.00,0.0009
2309.00,0.0008
2308.00,0.0008
2307.00,0.0008
2306.00,0.0009
2305.00,0.0009
2304.00,0.0010
2303.00,0.0010
2302.00,0.0011
2301.00,0.0011
2300.00,0.0011
2299.00,0.0011
2298.00,0.0011
2297.00,0.0011
2296.00,0.0011
2295.00,0.0011
2294.00,0.0012
2293.00,0.0012
2292.00,0.0014
2291.00,0.0015
2290.00,0.0017
2289.00,0.0018
2288.00,0.0019
2287.00,0.0020
2286.00,0.0020
2285.00,0.0019
2284.00,0.0018
2283.00,0.0016
2282.00,0.0015
2281.00,0.0014
2280.00,0.0013
2279.00,0.0013
2278.00,0.0014
2277.00,0.0014
2276.00,0.0014
2275.00,0.0015
2274.00,0.0014
2273.00,0.0013
2272.00,0.0013
2271.00,0.0012
2270.00,0.0012
2269.00,0.0011
2268.00,0.0010
2267.00,0.0010
2266.00,0.0010
2265.00,0.0011
2264.00,0.0012
2263.00,0.0012
2262.00,0.0012
2261.00,0.0011
2260.00,0.0011
2259.00,0.0012
2258.00,0.0012
2257.00,0.0011
2256.00,0.0010
2255.00,0.0008
2254.00,0.0007
2253.00,0.0007
2252.00,0.0007
2251.00,0.0008
2250.00,0.0009
2249.00,0.0009
2248.00,0.0009
2247.00,0.0008
2246.00,0.0007
2245.00,0.0007
2244.00,0.0007
2243.00,0.0007
2242.00,0.0008
2241.00,0.0008
2240.00,0.0008
2239.00,0.0008
2238.00,0.0007
2237.00,0.0007
2236.00,0.0006
2235.00,0.0006
2234.00,0.0005
2233.00,0.0004
2232.00,0.0003
2231.00,0.0003
2230.00,0.0003
2229.00,0.0004
2228.00,0.0005
2227.00,0.0007
2226.00,0.0008
2225.00,0.0009
2224.00,0.0008
2223.00,0.0006
2222.00,0.0005
2221.00,0.0005
2220.00,0.0005
2219.00,0.0007
2218.00,0.0007
2217.00,0.0006
2216.00,0.0004
2215.00,0.0003
2214.00,0.0002
2213.00,0.0002
2212.00,0.0002
2211.00,0.0002
2210.00,0.0001
2209.00,0.0000
2208.00,0.0001
2207.00,0.0002
2206.00,0.0003
2205.00,0.0004
2204.00,0.0003
2203.00,0.0003
2202.00,0.0003
2201.00,0.0004
2200.00,0.0006
2199.00,0.0008
2198.00,0.0010
2197.00,0.0010
2196.00,0.0009
2195.00,0.0007
2194.00,0.0006
2193.00,0.0006
2192.00,0.0006
2191.00,0.0006
2190.00,0.0007
2189.00,0.0007
2188.00,0.0007
2187.00,0.0007
2186.00,0.0007
2185.00,0.0007
2184.00,0.0006
2183.00,0.0005
2182.00,0.0004
2181.00,0.0004
2180.00,0.0005
2179.00,0.0005
2178.00,0.0003
2177.00,0.0001
2176.00,-0.0001
2175.00,-0.0002
2174.00,-0.0000
2173.00,0.0003
2172.00,0.0006
2171.00,0.0011
2170.00,0.0015
2169.00,0.0019
2168.00,0.0021
2167.00,0.0020
2166.00,0.0018
2165.00,0.0016
2164.00,0.0014
2163.00,0.0013
2162.00,0.0013
2161.00,0.0009
2160.00,0.0000
2159.00,-0.0013
2158.00,-0.0025
2157.00,-0.0030
2156.00,-0.0030
2155.00,-0.0027
2154.00,-0.0023
2153.00,-0.0020
2152.00,-0.0019
2151.00,-0.0019
2150.00,-0.0019
2149.00,-0.0019
2148.00,-0.0019
2147.00,-0.0018
2146.00,-0.0017
2145.00,-0.0015
2144.00,-0.0014
2143.00,-0.0014
2142.00,-0.0014
2141.00,-0.0014
2140.00,-0.0013
2139.00,-0.0012
2138.00,-0.0012
2137.00,-0.0013
2136.00,-0.0014
2135.00,-0.0016
2134.00,-0.0018
2133.00,-0.0017
2132.00,-0.0016
2131.00,-0.0014
2130.00,-0.0012
2129.00,-0.0011
2128.00,-0.0010
2127.00,-0.0009
2126.00,-0.0008
2125.00,-0.0006
2124.00,-0.0006
2123.00,-0.0005
2122.00,-0.0005
2121.00,-0.0006
2120.00,-0.0005
2119.00,-0.0004
2118.00,-0.0002
2117.00,0.0000
2116.00,0.0001
2115.00,0.0001
2114.00,-0.0000
2113.00,-0.0001
2112.00,-0.0000
2111.00,0.0000
2110.00,0.0000
2109.00,0.0000
2108.00,-0.0000
2107.00,-0.0000
2106.00,0.0000
2105.00,0.0001
2104.00,0.0001
2103.00,-0.0000
2102.00,-0.0001
2101.00,-0.0002
2100.00,-0.0003
2099.00,-0.0003
2098.00,-0.0003
2097.00,-0.0004
2096.00,-0.0005
2095.00,-0.0005
2094.00,-0.0005
2093.00,-0.0005
2092.00,-0.0004
2091.00,-0.0003
2090.00,-0.0002
2089.00,-0.0001
2088.00,0.0001
2087.00,0.0002
2086.00,0.0002
2085.00,0.0001
2084.00,0.0001
2083.00,0.0002
2082.00,0.0002
2081.00,0.0002
2080.00,0.0003
2079.00,0.0004
2078.00,0.0005
2077.00,0.0006
2076.00,0.0007
2075.00,0.0006
2074.00,0.0004
2073.00,0.0002
2072.00,-0.0000
2071.00,-0.0001
2070.00,-0.0002
2069.00,-0.0004
2068.00,-0.0005
2067.00,-0.0006
2066.00,-0.0007
2065.00,-0.0007
2064.00,-0.0006
2063.00,-0.0003
2062.00,-0.0001
2061.00,-0.0000
2060.00,-0.0002
2059.00,-0.0003
2058.00,-0.0003
2057.00,-0.0002
2056.00,-0.0001
2055.00,-0.0001
2054.00,0.0001
2053.00,0.0004
2052.00,0.0010
2051.00,0.0014
2050.00,0.0014
2049.00,0.0010
2048.00,0.0004
2047.00,-0.0001
2046.00,-0.0006
2045.00,-0.0008
2044.00,-0.0009
2043.00,-0.0007
2042.00,-0.0003
2041.00,0.0000
2040.00,0.0002
2039.00,0.0002
2038.00,0.0002
2037.00,0.0001
2036.00,-0.0000
2035.00,-0.0003
2034.00,-0.0007
2033.00,-0.0011
2032.00,-0.0015
2031.00,-0.0017
2030.00,-0.0018
2029.00,-0.0017
2028.00,-0.0014
2027.00,-0.0011
2026.00,-0.0007
2025.00,-0.0005
2024.00,-0.0006
2023.00,-0.0008
2022.00,-0.0010
2021.00,-0.0008
2020.00,-0.0005
2019.00,-0.0003
2018.00,-0.0004
2017.00,-0.0007
2016.00,-0.0011
2015.00,-0.0014
2014.00,-0.0014
2013.00,-0.0013
2012.00,-0.0013
2011.00,-0.0014
2010.00,-0.0017
2009.00,-0.0018
2008.00,-0.0019
2007.00,-0.0019
2006.00,-0.0018
2005.00,-0.0018
2004.00,-0.0020
2003.00,-0.0022
2002.00,-0.0023
2001.00,-0.0022
2000.00,-0.0020
1999.00,-0.0017
1998.00,-0.0014
1997.00,-0.0012
1996.00,-0.0013
1995.00,-0.0015
1994.00,-0.0016
1993.00,-0.0016
1992.00,-0.0014
1991.00,-0.0011
1990.00,-0.0008
1989.00,-0.0006
1988.00,-0.0005
1987.00,-0.0005
1986.00,-0.0004
1985.00,-0.0003
1984.00,-0.0001
1983.00,0.0003
1982.00,0.0007
1981.00,0.0010
1980.00,0.0010
1979.00,0.0007
1978.00,0.0001
1977.00,-0.0003
1976.00,-0.0006
1975.00,-0.0008
1974.00,-0.0011
1973.00,-0.0015
1972.00,-0.0018
1971.00,-0.0021
1970.00,-0.0022
1969.00,-0.0022
1968.00,-0.0021
1967.00,-0.0019
1966.00,-0.0017
1965.00,-0.0015
1964.00,-0.0015
1963.00,-0.0015
1962.00,-0.0016
1961.00,-0.0017
1960.00,-0.0017
1959.00,-0.0018
1958.00,-0.0019
1957.00,-0.0020
1956.00,-0.0020
1955.00,-0.0020
1954.00,-0.0020
1953.00,-0.0018
1952.00,-0.0016
1951.00,-0.0015
1950.00,-0.0015
1949.00,-0.0016
1948.00,-0.0016
1947.00,-0.0016
1946.00,-0.0017
1945.00,-0.0017
1944.00,-0.0017
1943.00,-0.0017
1942.00,-0.0017
1941.00,-0.0017
1940.00,-0.0015
1939.00,-0.0014
1938.00,-0.0013
1937.00,-0.0012
1936.00,-0.0012
1935.00,-0.0012
1934.00,-0.0013
1933.00,-0.0014
1932.00,-0.0014
1931.00,-0.0015
1930.00,-0.0015
1929.00,-0.0015
1928.00,-0.0013
1927.00,-0.0012
1926.00,-0.0011
1925.00,-0.0010
1924.00,-0.0010
1923.00,-0.0010
1922.00,-0.0008
1921.00,-0.0007
1920.00,-0.0007
1919.00,-0.0007
1918.00,-0.0007
1917.00,-0.0007
1916.00,-0.0006
1915.00,-0.0006
1914.00,-0.0006
1913.00,-0.0006
1912.00,-0.0007
1911.00,-0.0008
1910.00,-0.0009
1909.00,-0.0008
1908.00,-0.0007
1907.00,-0.0006
1906.00,-0.0005
1905.00,-0.0004
1904.00,-0.0004
1903.00,-0.0004
1902.00,-0.0005
1901.00,-0.0005
1900.00,-0.0005
1899.00,-0.0005
1898.00,-0.0004
1897.00,-0.0003
1896.00,-0.0002
1895.00,-0.0002
1894.00,-0.0002
1893.00,-0.0002
1892.00,-0.0003
1891.00,-0.0003
1890.00,-0.0004
1889.00,-0.0004
1888.00,-0.0004
1887.00,-0.0003
1886.00,-0.0003
1885.00,-0.0004
1884.00,-0.0004
1883.00,-0.0004
1882.00,-0.0004
1881.00,-0.0003
1880.00,-0.0003
1879.00,-0.0003
1878.00,-0.0003
1877.00,-0.0002
1876.00,-0.0002
1875.00,-0.0002
1874.00,-0.0003
1873.00,-0.0004
1872.00,-0.0004
1871.00,-0.0004
1870.00,-0.0003
1869.00,-0.0002
1868.00,-0.0002
1867.00,-0.0002
1866.00,-0.0003
1865.00,-0.0003
1864.00,-0.0003
1863.00,-0.0003
1862.00,-0.0002
1861.00,-0.0001
1860.00,-0.0001
1859.00,-0.0001
1858.00,-0.0001
1857.00,-0.0001
1856.00,-0.0002
1855.00,-0.0002
1854.00,-0.0002
1853.00,-0.0002
1852.00,-0.0002
1851.00,-0.0002
1850.00,-0.0002
1849.00,-0.0002
1848.00,-0.0001
1847.00,-0.0001
1846.00,-0.0001
1845.00,-0.0001
1844.00,-0.0001
1843.00,-0.0001
1842.00,-0.0001
1841.00,-0.0001
1840.00,-0.0000
1839.00,-0.0000
1838.00,0.0000
1837.00,0.0000
1836.00,0.0000
1835.00,0.0000
1834.00,0.0000
1833.00,0.0000
1832.00,0.0000
1831.00,0.0000
1830.00,0.0001
1829.00,0.0002
1828.00,0.0002
1827.00,0.0001
1826.00,0.0000
1825.00,-0.0000
1824.00,0.0000
1823.00,0.0001
1822.00,0.0001
1821.00,0.0000
1820.00,-0.0000
1819.00,-0.0002
1818.00,-0.0003
1817.00,-0.0003
1816.00,-0.0003
1815.00,-0.0002
1814.00,-0.0002
1813.00,-0.0001
1812.00,0.0000
1811.00,0.0001
1810.00,0.0001
1809.00,0.0002
1808.00,0.0002
1807.00,0.0003
1806.00,0.0003
1805.00,0.0003
1804.00,0.0003
1803.00,0.0002
1802.00,0.0002
1801.00,0.0003
1800.00,0.0003
1799.00,0.0004
1798.00,0.0004
1797.00,0.0004
1796.00,0.0004
1795.00,0.0004
1794.00,0.0004
1793.00,0.0005
1792.00,0.0005
1791.00,0.0005
1790.00,0.0005
1789.00,0.0005
1788.00,0.0005
1787.00,0.0005
1786.00,0.0005
1785.00,0.0005
1784.00,0.0005
1783.00,0.0005
1782.00,0.0005
1781.00,0.0005
1780.00,0.0006
1779.00,0.0006
1778.00,0.0006
1777.00,0.0006
1776.00,0.0006
1775.00,0.0006
1774.00,0.0005
1773.00,0.0006
1772.00,0.0007
1771.00,0.0007
1770.00,0.0007
1769.00,0.0007
1768.00,0.0007
1767.00,0.0007
1766.00,0.0007
1765.00,0.0007
1764.00,0.0007
1763.00,0.0007
1762.00,0.0007
1761.00,0.0007
1760.00,0.0007
1759.00,0.0008
1758.00,0.0008
1757.00,0.0009
1756.00,0.0009
1755.00,0.0009
1754.00,0.0009
1753.00,0.0009
1752.00,0.0009
1751.00,0.0009
1750.00,0.0010
1749.00,0.0010
1748.00,0.0011
1747.00,0.0012
1746.00,0.0012
1745.00,0.0012
1744.00,0.0012
1743.00,0.0012
1742.00,0.0011
1741.00,0.0012
1740.00,0.0012
1739.00,0.0012
1738.00,0.0012
1737.00,0.0012
1736.00,0.0012
1735.00,0.0012
1734.00,0.0013
1733.00,0.0014
1732.00,0.0014
1731.00,0.0014
1730.00,0.0014
1729.00,0.0014
1728.00,0.0015
1727.00,0.0015
1726.00,0.0015
1725.00,0.0015
1724.00,0.0015
1723.00,0.0015
1722.00,0.0015
1721.00,0.0015
1720.00,0.0016
1719.00,0.0016
1718.00,0.0016
1717.00,0.0016
1716.00,0.0016
1715.00,0.0016
1714.00,0.0016
1713.00,0.0016
1712.00,0.0017
1711.00,0.0018
1710.00,0.0018
1709.00,0.0018
1708.00,0.0019
1707.00,0.0019
1706.00,0.0020
1705.00,0.0020
1704.00,0.0020
1703.00,0.0020
1702.00,0.0020
1701.00,0.0021
1700.00,0.0023
1699.00,0.0024
1698.00,0.0025
1697.00,0.0026
1696.00,0.0027
1695.00,0.0028
1694.00,0.0029
1693.00,0.0030
1692.00,0.0032
1691.00,0.0033
1690.00,0.0034
1689.00,0.0035
1688.00,0.0035
1687.00,0.0036
1686.00,0.0036
1685.00,0.0037
1684.00,0.0038
1683.00,0.0039
1682.00,0.0041
1681.00,0.0042
1680.00,0.0043
1679.00,0.0044
1678.00,0.0045
1677.00,0.0046
1676.00,0.0046
1675.00,0.0047
1674.00,0.0047
1673.00,0.0048
1672.00,0.0048
1671.00,0.0048
1670.00,0.0047
1669.00,0.0047
1668.00,0.0047
1667.00,0.0047
1666.00,0.0047
1665.00,0.0047
1664.00,0.0047
1663.00,0.0047
1662.00,0.0047
1661.00,0.0047
1660.00,0.0047
1659.00,0.0047
1658.00,0.0047
1657.00,0.0047
1656.00,0.0047
1655.00,0.0046
1654.00,0.0045
1653.00,0.0043
1652.00,0.0043
1651.00,0.0043
1650.00,0.0043
1649.00,0.0042
1648.00,0.0042
1647.00,0.0042
1646.00,0.0041
1645.00,0.0041
1644.00,0.0041
1643.00,0.0041
1642.00,0.0041
1641.00,0.0041
1640.00,0.0040
1639.00,0.0040
1638.00,0.0040
1637.00,0.0040
1636.00,0.0039
1635.00,0.0039
1634.00,0.0038
1633.00,0.0038
1632.00,0.0038
1631.00,0.0038
1630.00,0.0038
1629.00,0.0038
1628.00,0.0038
1627.00,0.0037
1626.00,0.0036
1625.00,0.0036
1624.00,0.0035
1623.00,0.0035
1622.00,0.0035
1621.00,0.0035
1620.00,0.0036
1619.00,0.0035
1618.00,0.0035
1617.00,0.0034
1616.00,0.0034
1615.00,0.0033
1614.00,0.0033
1613.00,0.0033
1612.00,0.0034
1611.00,0.0034
1610.00,0.0034
1609.00,0.0034
1608.00,0.0034
1607.00,0.0034
1606.00,0.0033
1605.00,0.0033
1604.00,0.0033
1603.00,0.0033
1602.00,0.0032
1601.00,0.0032
1600.00,0.0032
1599.00,0.0032
1598.00,0.0032
1597.00,0.0032
1596.00,0.0032
1595.00,0.0032
1594.00,0.0031
1593.00,0.0032
1592.00,0.0032
1591.00,0.0033
1590.00,0.0033
1589.00,0.0033
1588.00,0.0033
1587.00,0.0033
1586.00,0.0034
1585.00,0.0034
1584.00,0.0035
1583.00,0.0035
1582.00,0.0036
1581.00,0.0036
1580.00,0.0037
1579.00,0.0038
1578.00,0.0038
1577.00,0.0038
1576.00,0.0038
1575.00,0.0037
1574.00,0.0037
1573.00,0.0037
1572.00,0.0037
1571.00,0.0037
1570.00,0.0036
1569.00,0.0036
1568.00,0.0036
1567.00,0.0035
1566.00,0.0035
1565.00,0.0035
1564.00,0.0035
1563.00,0.0035
1562.00,0.0035
1561.00,0.0036
1560.00,0.0037
1559.00,0.0036
1558.00,0.0035
1557.00,0.0036
1556.00,0.0036
1555.00,0.0037
1554.00,0.0037
1553.00,0.0038
1552.00,0.0038
1551.00,0.0039
1550.00,0.0039
1549.00,0.0039
1548.00,0.0040
1547.00,0.0040
1546.00,0.0041
1545.00,0.0042
1544.00,0.0042
1543.00,0.0043
1542.00,0.0043
1541.00,0.0043
1540.00,0.0043
1539.00,0.0042
1538.00,0.0041
1537.00,0.0041
1536.00,0.0041
1535.00,0.0040
1534.00,0.0039
1533.00,0.0039
1532.00,0.0039
1531.00,0.0038
1530.00,0.0038
1529.00,0.0038
1528.00,0.0039
1527.00,0.0039
1526.00,0.0039
1525.00,0.0039
1524.00,0.0040
1523.00,0.0040
1522.00,0.0039
1521.00,0.0040
1520.00,0.0040
1519.00,0.0041
1518.00,0.0041
1517.00,0.0042
1516.00,0.0042
1515.00,0.0042
1514.00,0.0043
1513.00,0.0044
1512.00,0.0045
1511.00,0.0047
1510.00,0.0047
1509.00,0.0048
1508.00,0.0049
1507.00,0.0050
1506.00,0.0050
1505.00,0.0052
1504.00,0.0053
1503.00,0.0055
1502.00,0.0056
1501.00,0.0059
1500.00,0.0061
1499.00,0.0063
1498.00,0.0065
1497.00,0.0068
1496.00,0.0071
1495.00,0.0073
1494.00,0.0075
1493.00,0.0077
1492.00,0.0081
1491.00,0.0084
1490.00,0.0087
1489.00,0.0091
1488.00,0.0096
1487.00,0.0100
1486.00,0.0105
1485.00,0.0111
1484.00,0.0117
1483.00,0.0124
1482.00,0.0132
1481.00,0.0142
1480.00,0.0154
1479.00,0.0165
1478.00,0.0179
1477.00,0.0197
1476.00,0.0219
1475.00,0.0245
1474.00,0.0280
1473.00,0.0332
1472.00,0.0396
1471.00,0.0458
1470.00,0.0519
1469.00,0.0584
1468.00,0.0654
1467.00,0.0731
1466.00,0.0820
1465.00,0.0916
1464.00,0.1002
1463.00,0.1066
1462.00,0.1111
1461.00,0.1145
1460.00,0.1171
1459.00,0.1193
1458.00,0.1215
1457.00,0.1239
1456.00,0.1254
1455.00,0.1260
1454.00,0.1260
1453.00,0.1254
1452.00,0.1238
1451.00,0.1208
1450.00,0.1158
1449.00,0.1084
1448.00,0.0984
1447.00,0.0876
1446.00,0.0776
1445.00,0.0691
1444.00,0.0617
1443.00,0.0557
1442.00,0.0512
1441.00,0.0482
1440.00,0.0462
1439.00,0.0452
1438.00,0.0449
1437.00,0.0445
1436.00,0.0430
1435.00,0.0400
1434.00,0.0360
1433.00,0.0314
1432.00,0.0267
1431.00,0.0226
1430.00,0.0194
1429.00,0.0171
1428.00,0.0156
1427.00,0.0146
1426.00,0.0140
1425.00,0.0135
1424.00,0.0129
1423.00,0.0125
1422.00,0.0123
1421.00,0.0121
1420.00,0.0117
1419.00,0.0114
1418.00,0.0112
1417.00,0.0109
1416.00,0.0106
1415.00,0.0105
1414.00,0.0104
1413.00,0.0103
1412.00,0.0102
1411.00,0.0101
1410.00,0.0101
1409.00,0.0101
1408.00,0.0100
1407.00,0.0101
1406.00,0.0102
1405.00,0.0102
1404.00,0.0102
1403.00,0.0103
1402.00,0.0105
1401.00,0.0106
1400.00,0.0108
1399.00,0.0110
1398.00,0.0113
1397.00,0.0114
1396.00,0.0117
1395.00,0.0121
1394.00,0.0127
1393.00,0.0133
1392.00,0.0140
1391.00,0.0150
1390.00,0.0163
1389.00,0.0181
1388.00,0.0208
1387.00,0.0249
1386.00,0.0302
1385.00,0.0369
1384.00,0.0457
1383.00,0.0573
1382.00,0.0723
1381.00,0.0909
1380.00,0.1133
1379.00,0.1380
1378.00,0.1613
1377.00,0.1780
1376.00,0.1832
1375.00,0.1743
1374.00,0.1534
1373.00,0.1278
1372.00,0.1040
1371.00,0.0840
1370.00,0.0677
1369.00,0.0552
1368.00,0.0464
1367.00,0.0409
1366.00,0.0379
1365.00,0.0367
1364.00,0.0369
1363.00,0.0383
1362.00,0.0404
1361.00,0.0426
1360.00,0.0442
1359.00,0.0447
1358.00,0.0436
1357.00,0.0409
1356.00,0.0371
1355.00,0.0328
1354.00,0.0287
1353.00,0.0252
1352.00,0.0224
1351.00,0.0201
1350.00,0.0183
1349.00,0.0169
1348.00,0.0157
1347.00,0.0148
1346.00,0.0141
1345.00,0.0134
1344.00,0.0129
1343.00,0.0125
1342.00,0.0122
1341.00,0.0119
1340.00,0.0116
1339.00,0.0114
1338.00,0.0113
1337.00,0.0113
1336.00,0.0114
1335.00,0.0116
1334.00,0.0119
1333.00,0.0123
1332.00,0.0128
1331.00,0.0131
1330.00,0.0133
1329.00,0.0132
1328.00,0.0129
1327.00,0.0124
1326.00,0.0118
1325.00,0.0111
1324.00,0.0105
1323.00,0.0099
1322.00,0.0095
1321.00,0.0092
1320.00,0.0090
1319.00,0.0088
1318.00,0.0086
1317.00,0.0084
1316.00,0.0082
1315.00,0.0082
1314.00,0.0081
1313.00,0.0082
1312.00,0.0083
1311.00,0.0087
1310.00,0.0093
1309.00,0.0102
1308.00,0.0115
1307.00,0.0131
1306.00,0.0147
1305.00,0.0158
1304.00,0.0161
1303.00,0.0157
1302.00,0.0149
1301.00,0.0141
1300.00,0.0136
1299.00,0.0133
1298.00,0.0132
1297.00,0.0132
1296.00,0.0131
1295.00,0.0129
1294.00,0.0125
1293.00,0.0120
1292.00,0.0114
1291.00,0.0108
1290.00,0.0103
1289.00,0.0098
1288.00,0.0095
1287.00,0.0092
1286.00,0.0089
1285.00,0.0087
1284.00,0.0085
1283.00,0.0083
1282.00,0.0082
1281.00,0.0080
1280.00,0.0078
1279.00,0.0077
1278.00,0.0076
1277.00,0.0075
1276.00,0.0075
1275.00,0.0074
1274.00,0.0074
1273.00,0.0074
1272.00,0.0075
1271.00,0.0075
1270.00,0.0075
1269.00,0.0076
1268.00,0.0077
1267.00,0.0078
1266.00,0.0080
1265.00,0.0082
1264.00,0.0085
1263.00,0.0088
1262.00,0.0092
1261.00,0.0099
1260.00,0.0107
1259.00,0.0118
1258.00,0.0129
1257.00,0.0139
1256.00,0.0144
1255.00,0.0142
1254.00,0.0135
1253.00,0.0123
1252.00,0.0112
1251.00,0.0102
1250.00,0.0095
1249.00,0.0090
1248.00,0.0087
1247.00,0.0085
1246.00,0.0083
1245.00,0.0082
1244.00,0.0080
1243.00,0.0080
1242.00,0.0079
1241.00,0.0079
1240.00,0.0079
1239.00,0.0078
1238.00,0.0077
1237.00,0.0076
1236.00,0.0075
1235.00,0.0075
1234.00,0.0074
1233.00,0.0073
1232.00,0.0073
1231.00,0.0073
1230.00,0.0073
1229.00,0.0073
1228.00,0.0074
1227.00,0.0075
1226.00,0.0077
1225.00,0.0079
1224.00,0.0081
1223.00,0.0084
1222.00,0.0087
1221.00,0.0090
1220.00,0.0092
1219.00,0.0093
1218.00,0.0093
1217.00,0.0092
1216.00,0.0089
1215.00,0.0086
1214.00,0.0083
1213.00,0.0081
1212.00,0.0078
1211.00,0.0076
1210.00,0.0073
1209.00,0.0071
1208.00,0.0070
1207.00,0.0069
1206.00,0.0069
1205.00,0.0068
1204.00,0.0068
1203.00,0.0067
1202.00,0.0066
1201.00,0.0066
1200.00,0.0066
1199.00,0.0066
1198.00,0.0066
1197.00,0.0066
1196.00,0.0066
1195.00,0.0066
1194.00,0.0066
1193.00,0.0067
1192.00,0.0067
1191.00,0.0067
1190.00,0.0067
1189.00,0.0067
1188.00,0.0068
1187.00,0.0069
1186.00,0.0070
1185.00,0.0071
1184.00,0.0073
1183.00,0.0074
1182.00,0.0077
1181.00,0.0080
1180.00,0.0085
1179.00,0.0091
1178.00,0.0100
1177.00,0.0112
1176.00,0.0128
1175.00,0.0149
1174.00,0.0177
1173.00,0.0211
1172.00,0.0252
1171.00,0.0296
1170.00,0.0340
1169.00,0.0376
1168.00,0.0398
1167.00,0.0404
1166.00,0.0394
1165.00,0.0374
1164.00,0.0347
1163.00,0.0320
1162.00,0.0294
1161.00,0.0271
1160.00,0.0253
1159.00,0.0238
1158.00,0.0228
1157.00,0.0220
1156.00,0.0214
1155.00,0.0209
1154.00,0.0204
1153.00,0.0199
1152.00,0.0193
1151.00,0.0185
1150.00,0.0176
1149.00,0.0165
1148.00,0.0154
1147.00,0.0144
1146.00,0.0135
1145.00,0.0127
1144.00,0.0120
1143.00,0.0113
1142.00,0.0106
1141.00,0.0100
1140.00,0.0094
1139.00,0.0089
1138.00,0.0085
1137.00,0.0081
1136.00,0.0078
1135.00,0.0076
1134.00,0.0074
1133.00,0.0072
1132.00,0.0071
1131.00,0.0071
1130.00,0.0071
1129.00,0.0071
1128.00,0.0071
1127.00,0.0071
1126.00,0.0071
1125.00,0.0071
1124.00,0.0071
1123.00,0.0070
1122.00,0.0070
1121.00,0.0070
1120.00,0.0070
1119.00,0.0071
1118.00,0.0072
1117.00,0.0074
1116.00,0.0075
1115.00,0.0076
1114.00,0.0078
1113.00,0.0080
1112.00,0.0082
1111.00,0.0084
1110.00,0.0087
1109.00,0.0091
1108.00,0.0096
1107.00,0.0102
1106.00,0.0110
1105.00,0.0117
1104.00,0.0122
1103.00,0.0125
1102.00,0.0126
1101.00,0.0123
1100.00,0.0119
1099.00,0.0113
1098.00,0.0106
1097.00,0.0099
1096.00,0.0093
1095.00,0.0088
1094.00,0.0083
1093.00,0.0080
1092.00,0.0078
1091.00,0.0077
1090.00,0.0076
1089.00,0.0075
1088.00,0.0074
1087.00,0.0072
1086.00,0.0071
1085.00,0.0070
1084.00,0.0069
1083.00,0.0069
1082.00,0.0068
1081.00,0.0068
1080.00,0.0067
1079.00,0.0066
1078.00,0.0066
1077.00,0.0065
1076.00,0.0064
1075.00,0.0063
1074.00,0.0062
1073.00,0.0063
1072.00,0.0063
1071.00,0.0064
1070.00,0.0064
1069.00,0.0064
1068.00,0.0065
1067.00,0.0065
1066.00,0.0066
1065.00,0.0066
1064.00,0.0066
1063.00,0.0066
1062.00,0.0066
1061.00,0.0066
1060.00,0.0067
1059.00,0.0068
1058.00,0.0068
1057.00,0.0069
1056.00,0.0070
1055.00,0.0071
1054.00,0.0073
1053.00,0.0074
1052.00,0.0075
1051.00,0.0077
1050.00,0.0079
1049.00,0.0082
1048.00,0.0086
1047.00,0.0090
1046.00,0.0094
1045.00,0.0097
1044.00,0.0097
1043.00,0.0095
1042.00,0.0092
1041.00,0.0089
1040.00,0.0085
1039.00,0.0083
1038.00,0.0082
1037.00,0.0081
1036.00,0.0080
1035.00,0.0079
1034.00,0.0078
1033.00,0.0077
1032.00,0.0076
1031.00,0.0076
1030.00,0.0075
1029.00,0.0075
1028.00,0.0076
1027.00,0.0076
1026.00,0.0076
1025.00,0.0077
1024.00,0.0078
1023.00,0.0079
1022.00,0.0081
1021.00,0.0082
1020.00,0.0083
1019.00,0.0084
1018.00,0.0085
1017.00,0.0088
1016.00,0.0091
1015.00,0.0094
1014.00,0.0098
1013.00,0.0102
1012.00,0.0106
1011.00,0.0111
1010.00,0.0117
1009.00,0.0124
1008.00,0.0131
1007.00,0.0141
1006.00,0.0154
1005.00,0.0170
1004.00,0.0193
1003.00,0.0223
1002.00,0.0263
1001.00,0.0311
1000.00,0.0364
999.00,0.0409
998.00,0.0434
997.00,0.0430
996.00,0.0397
995.00,0.0346
994.00,0.0290
993.00,0.0240
992.00,0.0201
991.00,0.0172
990.00,0.0152
989.00,0.0138
988.00,0.0129
987.00,0.0124
986.00,0.0122
985.00,0.0124
984.00,0.0129
983.00,0.0138
982.00,0.0151
981.00,0.0169
980.00,0.0195
979.00,0.0230
978.00,0.0275
977.00,0.0328
976.00,0.0387
975.00,0.0447
974.00,0.0496
973.00,0.0521
972.00,0.0513
971.00,0.0471
970.00,0.0407
969.00,0.0337
968.00,0.0274
967.00,0.0224
966.00,0.0188
965.00,0.0162
964.00,0.0144
963.00,0.0130
962.00,0.0120
961.00,0.0112
960.00,0.0105
959.00,0.0099
958.00,0.0093
957.00,0.0089
956.00,0.0086
955.00,0.0084
954.00,0.0082
953.00,0.0080
952.00,0.0078
951.00,0.0077
950.00,0.0077
949.00,0.0077
948.00,0.0078
947.00,0.0078
946.00,0.0079
945.00,0.0081
944.00,0.0084
943.00,0.0087
942.00,0.0089
941.00,0.0090
940.00,0.0089
939.00,0.0087
938.00,0.0083
937.00,0.0079
936.00,0.0075
935.00,0.0071
934.00,0.0067
933.00,0.0064
932.00,0.0062
931.00,0.0060
930.00,0.0059
929.00,0.0058
928.00,0.0058
927.00,0.0058
926.00,0.0058
925.00,0.0057
924.00,0.0056
923.00,0.0057
922.00,0.0058
921.00,0.0060
920.00,0.0062
919.00,0.0064
918.00,0.0065
917.00,0.0065
916.00,0.0065
915.00,0.0065
914.00,0.0065
913.00,0.0066
912.00,0.0067
911.00,0.0069
910.00,0.0071
909.00,0.0073
908.00,0.0075
907.00,0.0078
906.00,0.0085
905.00,0.0095
904.00,0.0110
903.00,0.0129
902.00,0.0149
901.00,0.0166
900.00,0.0177
899.00,0.0179
898.00,0.0172
897.00,0.0158
896.00,0.0139
895.00,0.0121
894.00,0.0106
893.00,0.0094
892.00,0.0085
891.00,0.0079
890.00,0.0075
889.00,0.0073
888.00,0.0072
887.00,0.0071
886.00,0.0071
885.00,0.0070
884.00,0.0068
883.00,0.0066
882.00,0.0065
881.00,0.0063
880.00,0.0063
879.00,0.0062
878.00,0.0062
877.00,0.0063
876.00,0.0063
875.00,0.0064
874.00,0.0065
873.00,0.0066
872.00,0.0066
871.00,0.0065
870.00,0.0065
869.00,0.0065
868.00,0.0066
867.00,0.0067
866.00,0.0069
865.00,0.0071
864.00,0.0073
863.00,0.0074
862.00,0.0075
861.00,0.0077
860.00,0.0078
859.00,0.0081
858.00,0.0083
857.00,0.0085
856.00,0.0087
855.00,0.0089
854.00,0.0092
853.00,0.0095
852.00,0.0099
851.00,0.0104
850.00,0.0111
849.00,0.0121
848.00,0.0134
847.00,0.0155
846.00,0.0187
845.00,0.0233
844.00,0.0296
843.00,0.0366
842.00,0.0423
841.00,0.0442
840.00,0.0416
839.00,0.0357
838.00,0.0291
837.00,0.0235
836.00,0.0197
835.00,0.0173
834.00,0.0158
833.00,0.0148
832.00,0.0140
831.00,0.0133
830.00,0.0127
829.00,0.0121
828.00,0.0117
827.00,0.0114
826.00,0.0113
825.00,0.0112
824.00,0.0111
823.00,0.0109
822.00,0.0108
821.00,0.0107
820.00,0.0108
819.00,0.0111
818.00,0.0115
817.00,0.0120
816.00,0.0126
815.00,0.0135
814.00,0.0147
813.00,0.0163
812.00,0.0179
811.00,0.0194
810.00,0.0206
809.00,0.0211
808.00,0.0208
807.00,0.0198
806.00,0.0183
805.00,0.0167
804.00,0.0151
803.00,0.0138
802.00,0.0127
801.00,0.0119
800.00,0.0112
799.00,0.0106
798.00,0.0101
797.00,0.0097
796.00,0.0093
795.00,0.0090
794.00,0.0087
793.00,0.0085
792.00,0.0084
791.00,0.0082
790.00,0.0079
789.00,0.0076
788.00,0.0073
787.00,0.0070
786.00,0.0068
785.00,0.0066
784.00,0.0065
783.00,0.0064
782.00,0.0062
781.00,0.0059
780.00,0.0057
779.00,0.0056
778.00,0.0056
777.00,0.0058
776.00,0.0059
775.00,0.0060
774.00,0.0061
773.00,0.0064
772.00,0.0069
771.00,0.0073
770.00,0.0077
769.00,0.0080
768.00,0.0080
767.00,0.0079
766.00,0.0077
765.00,0.0074
764.00,0.0071
763.00,0.0066
762.00,0.0063
761.00,0.0060
760.00,0.0057
759.00,0.0056
758.00,0.0054
757.00,0.0052
756.00,0.0050
755.00,0.0048
754.00,0.0047
753.00,0.0046
752.00,0.0045
751.00,0.0046
750.00,0.0047
749.00,0.0048
748.00,0.0048
747.00,0.0048
746.00,0.0048
745.00,0.0047
744.00,0.0047
743.00,0.0046
742.00,0.0046
741.00,0.0046
740.00,0.0047
739.00,0.0049
738.00,0.0052
737.00,0.0054
736.00,0.0055
735.00,0.0056
734.00,0.0057
733.00,0.0057
732.00,0.0056
731.00,0.0057
730.00,0.0057
729.00,0.0058
728.00,0.0057
727.00,0.0056
726.00,0.0054
725.00,0.0054
724.00,0.0053
723.00,0.0053
722.00,0.0053
721.00,0.0053
720.00,0.0052
719.00,0.0051
718.00,0.0050
717.00,0.0049
716.00,0.0049
715.00,0.0049
714.00,0.0050
713.00,0.0050
712.00,0.0050
711.00,0.0049
710.00,0.0048
709.00,0.0047
708.00,0.0047
707.00,0.0047
706.00,0.0047
705.00,0.0047
704.00,0.0046
703.00,0.0046
702.00,0.0045
701.00,0.0045
700.00,0.0045
699.00,0.0045
698.00,0.0045
697.00,0.0044
696.00,0.0043
695.00,0.0043
694.00,0.0043
693.00,0.0043
692.00,0.0045
691.00,0.0047
690.00,0.0048
689.00,0.0047
688.00,0.0043
687.00,0.0040
686.00,0.0039
685.00,0.0040
684.00,0.0040
683.00,0.0040
682.00,0.0040
681.00,0.0039
680.00,0.0039
679.00,0.0039
678.00,0.0039
677.00,0.0041
676.00,0.0043
675.00,0.0044
674.00,0.0044
673.00,0.0045
672.00,0.0046
671.00,0.0047
670.00,0.0047
669.00,0.0047
668.00,0.0046
667.00,0.0046
666.00,0.0046
665.00,0.0046
664.00,0.0046
663.00,0.0045
662.00,0.0044
661.00,0.0043
660.00,0.0043
659.00,0.0042
658.00,0.0042
657.00,0.0041
656.00,0.0042
655.00,0.0043
654.00,0.0045
653.00,0.0045
652.00,0.0044
651.00,0.0041
650.00,0.0040
649.00,0.0042
648.00,0.0046
647.00,0.0051
646.00,0.0055
645.00,0.0056
644.00,0.0053
643.00,0.0050
642.00,0.0047
641.00,0.0046
640.00,0.0045
639.00,0.0046
638.00,0.0048
637.00,0.0050
636.00,0.0050
635.00,0.0049
634.00,0.0048
633.00,0.0046
632.00,0.0046
631.00,0.0046
630.00,0.0048
629.00,0.0049
628.00,0.0051
627.00,0.0051
626.00,0.0051
625.00,0.0049
624.00,0.0047
623.00,0.0045
622.00,0.0045
621.00,0.0047
620.00,0.0048
619.00,0.0048
618.00,0.0048
617.00,0.0048
616.00,0.0048
615.00,0.0048
614.00,0.0049
613.00,0.0050
612.00,0.0050
611.00,0.0048
610.00,0.0046
609.00,0.0045
608.00,0.0045
607.00,0.0046
606.00,0.0048
605.00,0.0050
604.00,0.0051
603.00,0.0049
602.00,0.0047
601.00,0.0047
600.00,0.0049
599.00,0.0051
598.00,0.0052
597.00,0.0051
596.00,0.0049
595.00,0.0048
594.00,0.0049
593.00,0.0049
592.00,0.0050
591.00,0.0050
590.00,0.0050
589.00,0.0051
588.00,0.0053
587.00,0.0056
586.00,0.0060
585.00,0.0061
584.00,0.0060
583.00,0.0058
582.00,0.0056
581.00,0.0057
580.00,0.0056
579.00,0.0054
578.00,0.0053
577.00,0.0053
576.00,0.0055
575.00,0.0058
574.00,0.0060
573.00,0.0060
572.00,0.0057
571.00,0.0052
570.00,0.0049
569.00,0.0049
568.00,0.0051
567.00,0.0053
566.00,0.0054
565.00,0.0055
564.00,0.0054
563.00,0.0054
562.00,0.0054
561.00,0.0053
560.00,0.0052
559.00,0.0051
558.00,0.0050
557.00,0.0051
556.00,0.0054
555.00,0.0057
554.00,0.0059
553.00,0.0058
552.00,0.0054
551.00,0.0050
550.00,0.0050
549.00,0.0056
548.00,0.0063
547.00,0.0067
546.00,0.0066
545.00,0.0062
544.00,0.0056
543.00,0.0052
542.00,0.0052
541.00,0.0057
540.00,0.0062
539.00,0.0065
538.00,0.0065
537.00,0.0063
536.00,0.0061
535.00,0.0062
534.00,0.0064
533.00,0.0067
532.00,0.0071
531.00,0.0075
530.00,0.0078
529.00,0.0078
528.00,0.0077
527.00,0.0074
526.00,0.0071
525.00,0.0067
524.00,0.0064
523.00,0.0061
522.00,0.0059
521.00,0.0057
520.00,0.0056
519.00,0.0058
518.00,0.0059
517.00,0.0058
516.00,0.0055
515.00,0.0052
514.00,0.0052
513.00,0.0052
512.00,0.0048
511.00,0.0042
510.00,0.0036
509.00,0.0033
508.00,0.0035
507.00,0.0039
506.00,0.0043
505.00,0.0045
504.00,0.0046
503.00,0.0047
502.00,0.0050
501.00,0.0051
500.00,0.0049
499.00,0.0044
498.00,0.0038
497.00,0.0035
496.00,0.0036
495.00,0.0038
494.00,0.0042
493.00,0.0045
492.00,0.0048
491.00,0.0051
490.00,0.0053
489.00,0.0053
488.00,0.0052
487.00,0.0050
486.00,0.0049
485.00,0.0050
484.00,0.0053
483.00,0.0058
482.00,0.0062
481.00,0.0063
480.00,0.0059
479.00,0.0053
478.00,0.0051
477.00,0.0054
476.00,0.0062
475.00,0.0071
474.00,0.0081
473.00,0.0088
472.00,0.0091
471.00,0.0089
470.00,0.0084
469.00,0.0077
468.00,0.0070
467.00,0.0067
466.00,0.0070
465.00,0.0081
464.00,0.0096
463.00,0.0112
462.00,0.0124
461.00,0.0133
460.00,0.0140
459.00,0.0145
458.00,0.0148
457.00,0.0143
456.00,0.0135
455.00,0.0127
454.00,0.0125
453.00,0.0124
452.00,0.0118
451.00,0.0102
450.00,0.0083
