Created as New Dataset,Sample 200 By Administrator Date Tuesday, September 09 2025
cm-1,A
4000.00,0.0003
3999.00,0.0002
3998.00,0.0002
3997.00,0.0002
3996.00,0.0002
3995.00,0.0002
3994.00,0.0002
3993.00,0.0002
3992.00,0.0002
3991.00,0.0002
3990.00,0.0002
3989.00,0.0002
3988.00,0.0002
3987.00,0.0001
3986.00,0.0001
3985.00,0.0001
3984.00,0.0001
3983.00,0.0002
3982.00,0.0002
3981.00,0.0002
3980.00,0.0002
3979.00,0.0002
3978.00,0.0002
3977.00,0.0002
3976.00,0.0002
3975.00,0.0002
3974.00,0.0002
3973.00,0.0002
3972.00,0.0002
3971.00,0.0001
3970.00,0.0001
3969.00,0.0001
3968.00,0.0001
3967.00,0.0001
3966.00,0.0001
3965.00,0.0001
3964.00,0.0001
3963.00,0.0001
3962.00,0.0001
3961.00,0.0001
3960.00,0.0001
3959.00,0.0001
3958.00,0.0001
3957.00,0.0001
3956.00,0.0001
3955.00,0.0001
3954.00,0.0001
3953.00,0.0001
3952.00,0.0001
3951.00,0.0001
3950.00,0.0001
3949.00,0.0001
3948.00,0.0001
3947.00,0.0001
3946.00,0.0001
3945.00,0.0001
3944.00,0.0000
3943.00,0.0000
3942.00,0.0000
3941.00,0.0000
3940.00,0.0000
3939.00,0.0000
3938.00,0.0000
3937.00,0.0001
3936.00,0.0001
3935.00,0.0001
3934.00,0.0002
3933.00,0.0002
3932.00,0.0002
3931.00,0.0002
3930.00,0.0002
3929.00,0.0002
3928.00,0.0002
3927.00,0.0002
3926.00,0.0002
3925.00,0.0002
3924.00,0.0002
3923.00,0.0001
3922.00,0.0001
3921.00,0.0001
3920.00,0.0001
3919.00,0.0001
3918.00,0.0001
3917.00,0.0001
3916.00,0.0001
3915.00,0.0001
3914.00,0.0001
3913.00,0.0001
3912.00,0.0002
3911.00,0.0002
3910.00,0.0001
3909.00,0.0001
3908.00,0.0001
3907.00,0.0001
3906.00,0.0002
3905.00,0.0002
3904.00,0.0002
3903.00,0.0002
3902.00,0.0002
3901.00,0.0002
3900.00,0.0002
3899.00,0.0002
3898.00,0.0002
3897.00,0.0001
3896.00,0.0001
3895.00,0.0001
3894.00,0.0002
3893.00,0.0002
3892.00,0.0002
3891.00,0.0001
3890.00,0.0001
3889.00,0.0001
3888.00,0.0002
3887.00,0.0002
3886.00,0.0003
3885.00,0.0003
3884.00,0.0003
3883.00,0.0003
3882.00,0.0002
3881.00,0.0002
3880.00,0.0002
3879.00,0.0002
3878.00,0.0002
3877.00,0.0002
3876.00,0.0002
3875.00,0.0002
3874.00,0.0002
3873.00,0.0002
3872.00,0.0003
3871.00,0.0003
3870.00,0.0003
3869.00,0.0003
3868.00,0.0003
3867.00,0.0003
3866.00,0.0002
3865.00,0.0002
3864.00,0.0002
3863.00,0.0002
3862.00,0.0002
3861.00,0.0002
3860.00,0.0002
3859.00,0.0002
3858.00,0.0002
3857.00,0.0003
3856.00,0.0003
3855.00,0.0003
3854.00,0.0003
3853.00,0.0002
3852.00,0.0002
3851.00,0.0002
3850.00,0.0002
3849.00,0.0001
3848.00,0.0001
3847.00,0.0001
3846.00,0.0001
3845.00,0.0002
3844.00,0.0002
3843.00,0.0002
3842.00,0.0002
3841.00,0.0002
3840.00,0.0002
3839.00,0.0002
3838.00,0.0002
3837.00,0.0002
3836.00,0.0002
3835.00,0.0002
3834.00,0.0002
3833.00,0.0002
3832.00,0.0002
3831.00,0.0002
3830.00,0.0002
3829.00,0.0002
3828.00,0.0002
3827.00,0.0002
3826.00,0.0002
3825.00,0.0002
3824.00,0.0002
3823.00,0.0002
3822.00,0.0002
3821.00,0.0002
3820.00,0.0002
3819.00,0.0002
3818.00,0.0002
3817.00,0.0002
3816.00,0.0002
3815.00,0.0002
3814.00,0.0003
3813.00,0.0003
3812.00,0.0003
3811.00,0.0002
3810.00,0.0002
3809.00,0.0002
3808.00,0.0002
3807.00,0.0002
3806.00,0.0002
3805.00,0.0002
3804.00,0.0002
3803.00,0.0002
3802.00,0.0002
3801.00,0.0003
3800.00,0.0003
3799.00,0.0003
3798.00,0.0003
3797.00,0.0002
3796.00,0.0002
3795.00,0.0002
3794.00,0.0001
3793.00,0.0002
3792.00,0.0002
3791.00,0.0002
3790.00,0.0001
3789.00,0.0001
3788.00,0.0001
3787.00,0.0001
3786.00,0.0001
3785.00,0.0001
3784.00,0.0001
3783.00,0.0001
3782.00,0.0001
3781.00,0.0001
3780.00,0.0002
3779.00,0.0002
3778.00,0.0002
3777.00,0.0002
3776.00,0.0002
3775.00,0.0002
3774.00,0.0001
3773.00,0.0001
3772.00,0.0001
3771.00,0.0001
3770.00,0.0002
3769.00,0.0002
3768.00,0.0002
3767.00,0.0002
3766.00,0.0003
3765.00,0.0002
3764.00,0.0002
3763.00,0.0002
3762.00,0.0002
3761.00,0.0002
3760.00,0.0003
3759.00,0.0003
3758.00,0.0003
3757.00,0.0003
3756.00,0.0003
3755.00,0.0004
3754.00,0.0004
3753.00,0.0005
3752.00,0.0005
3751.00,0.0004
3750.00,0.0004
3749.00,0.0004
3748.00,0.0004
3747.00,0.0004
3746.00,0.0004
3745.00,0.0004
3744.00,0.0004
3743.00,0.0003
3742.00,0.0003
3741.00,0.0003
3740.00,0.0003
3739.00,0.0003
3738.00,0.0002
3737.00,0.0002
3736.00,0.0002
3735.00,0.0002
3734.00,0.0003
3733.00,0.0003
3732.00,0.0003
3731.00,0.0002
3730.00,0.0002
3729.00,0.0001
3728.00,0.0001
3727.00,0.0001
3726.00,0.0002
3725.00,0.0002
3724.00,0.0002
3723.00,0.0003
3722.00,0.0003
3721.00,0.0002
3720.00,0.0001
3719.00,0.0001
3718.00,0.0000
3717.00,0.0001
3716.00,0.0001
3715.00,0.0001
3714.00,0.0002
3713.00,0.0002
3712.00,0.0002
3711.00,0.0001
3710.00,0.0001
3709.00,0.0001
3708.00,0.0002
3707.00,0.0002
3706.00,0.0001
3705.00,0.0001
3704.00,0.0001
3703.00,0.0001
3702.00,0.0000
3701.00,0.0000
3700.00,0.0001
3699.00,0.0001
3698.00,0.0001
3697.00,0.0001
3696.00,0.0001
3695.00,0.0001
3694.00,0.0002
3693.00,0.0002
3692.00,0.0002
3691.00,0.0002
3690.00,0.0001
3689.00,0.0001
3688.00,0.0001
3687.00,0.0001
3686.00,0.0001
3685.00,0.0001
3684.00,0.0001
3683.00,0.0001
3682.00,0.0002
3681.00,0.0002
3680.00,0.0002
3679.00,0.0002
3678.00,0.0003
3677.00,0.0003
3676.00,0.0004
3675.00,0.0004
3674.00,0.0004
3673.00,0.0004
3672.00,0.0003
3671.00,0.0003
3670.00,0.0003
3669.00,0.0002
3668.00,0.0001
3667.00,0.0001
3666.00,0.0000
3665.00,0.0000
3664.00,0.0000
3663.00,0.0000
3662.00,0.0001
3661.00,0.0000
3660.00,0.0000
3659.00,0.0001
3658.00,0.0001
3657.00,0.0001
3656.00,0.0001
3655.00,0.0001
3654.00,0.0001
3653.00,0.0001
3652.00,0.0002
3651.00,0.0003
3650.00,0.0004
3649.00,0.0004
3648.00,0.0004
3647.00,0.0004
3646.00,0.0004
3645.00,0.0003
3644.00,0.0002
3643.00,0.0002
3642.00,0.0002
3641.00,0.0002
3640.00,0.0002
3639.00,0.0003
3638.00,0.0003
3637.00,0.0003
3636.00,0.0004
3635.00,0.0004
3634.00,0.0004
3633.00,0.0004
3632.00,0.0004
3631.00,0.0005
3630.00,0.0005
3629.00,0.0005
3628.00,0.0004
3627.00,0.0004
3626.00,0.0003
3625.00,0.0003
3624.00,0.0003
3623.00,0.0003
3622.00,0.0004
3621.00,0.0005
3620.00,0.0005
3619.00,0.0005
3618.00,0.0005
3617.00,0.0006
3616.00,0.0006
3615.00,0.0006
3614.00,0.0006
3613.00,0.0006
3612.00,0.0005
3611.00,0.0005
3610.00,0.0005
3609.00,0.0005
3608.00,0.0005
3607.00,0.0006
3606.00,0.0006
3605.00,0.0006
3604.00,0.0006
3603.00,0.0006
3602.00,0.0006
3601.00,0.0006
3600.00,0.0006
3599.00,0.0005
3598.00,0.0006
3597.00,0.0006
3596.00,0.0007
3595.00,0.0007
3594.00,0.0008
3593.00,0.0008
3592.00,0.0008
3591.00,0.0008
3590.00,0.0008
3589.00,0.0008
3588.00,0.0008
3587.00,0.0009
3586.00,0.0009
3585.00,0.0009
3584.00,0.0010
3583.00,0.0010
3582.00,0.0010
3581.00,0.0010
3580.00,0.0010
3579.00,0.0010
3578.00,0.0010
3577.00,0.0010
3576.00,0.0010
3575.00,0.0010
3574.00,0.0011
3573.00,0.0011
3572.00,0.0011
3571.00,0.0012
3570.00,0.0012
3569.00,0.0013
3568.00,0.0013
3567.00,0.0013
3566.00,0.0014
3565.00,0.0014
3564.00,0.0015
3563.00,0.0015
3562.00,0.0015
3561.00,0.0015
3560.00,0.0015
3559.00,0.0015
3558.00,0.0015
3557.00,0.0015
3556.00,0.0015
3555.00,0.0015
3554.00,0.0015
3553.00,0.0016
3552.00,0.0016
3551.00,0.0017
3550.00,0.0018
3549.00,0.0018
3548.00,0.0018
3547.00,0.0018
3546.00,0.0018
3545.00,0.0018
3544.00,0.0018
3543.00,0.0018
3542.00,0.0018
3541.00,0.0018
3540.00,0.0019
3539.00,0.0019
3538.00,0.0019
3537.00,0.0019
3536.00,0.0020
3535.00,0.0020
3534.00,0.0020
3533.00,0.0021
3532.00,0.0021
3531.00,0.0022
3530.00,0.0022
3529.00,0.0022
3528.00,0.0022
3527.00,0.0022
3526.00,0.0022
3525.00,0.0022
3524.00,0.0023
3523.00,0.0023
3522.00,0.0022
3521.00,0.0022
3520.00,0.0022
3519.00,0.0022
3518.00,0.0023
3517.00,0.0023
3516.00,0.0023
3515.00,0.0024
3514.00,0.0024
3513.00,0.0024
3512.00,0.0025
3511.00,0.0025
3510.00,0.0026
3509.00,0.0026
3508.00,0.0027
3507.00,0.0027
3506.00,0.0027
3505.00,0.0027
3504.00,0.0027
3503.00,0.0027
3502.00,0.0028
3501.00,0.0028
3500.00,0.0029
3499.00,0.0029
3498.00,0.0029
3497.00,0.0029
3496.00,0.0029
3495.00,0.0030
3494.00,0.0030
3493.00,0.0030
3492.00,0.0030
3491.00,0.0030
3490.00,0.0030
3489.00,0.0030
3488.00,0.0031
3487.00,0.0031
3486.00,0.0032
3485.00,0.0032
3484.00,0.0032
3483.00,0.0032
3482.00,0.0032
3481.00,0.0032
3480.00,0.0032
3479.00,0.0032
3478.00,0.0032
3477.00,0.0032
3476.00,0.0033
3475.00,0.0033
3474.00,0.0034
3473.00,0.0034
3472.00,0.0034
3471.00,0.0034
3470.00,0.0034
3469.00,0.0034
3468.00,0.0035
3467.00,0.0035
3466.00,0.0035
3465.00,0.0035
3464.00,0.0036
3463.00,0.0036
3462.00,0.0037
3461.00,0.0037
3460.00,0.0037
3459.00,0.0037
3458.00,0.0037
3457.00,0.0037
3456.00,0.0038
3455.00,0.0038
3454.00,0.0038
3453.00,0.0038
3452.00,0.0038
3451.00,0.0039
3450.00,0.0039
3449.00,0.0040
3448.00,0.0040
3447.00,0.0040
3446.00,0.0040
3445.00,0.0040
3444.00,0.0041
3443.00,0.0041
3442.00,0.0042
3441.00,0.0042
3440.00,0.0042
3439.00,0.0042
3438.00,0.0041
3437.00,0.0042
3436.00,0.0042
3435.00,0.0042
3434.00,0.0043
3433.00,0.0043
3432.00,0.0043
3431.00,0.0043
3430.00,0.0043
3429.00,0.0044
3428.00,0.0044
3427.00,0.0044
3426.00,0.0044
3425.00,0.0045
3424.00,0.0045
3423.00,0.0045
3422.00,0.0046
3421.00,0.0046
3420.00,0.0047
3419.00,0.0047
3418.00,0.0047
3417.00,0.0047
3416.00,0.0048
3415.00,0.0048
3414.00,0.0049
3413.00,0.0049
3412.00,0.0049
3411.00,0.0049
3410.00,0.0049
3409.00,0.0049
3408.00,0.0049
3407.00,0.0049
3406.00,0.0050
3405.00,0.0050
3404.00,0.0050
3403.00,0.0050
3402.00,0.0051
3401.00,0.0051
3400.00,0.0051
3399.00,0.0052
3398.00,0.0052
3397.00,0.0051
3396.00,0.0051
3395.00,0.0051
3394.00,0.0051
3393.00,0.0051
3392.00,0.0051
3391.00,0.0052
3390.00,0.0052
3389.00,0.0052
3388.00,0.0052
3387.00,0.0052
3386.00,0.0052
3385.00,0.0052
3384.00,0.0052
3383.00,0.0052
3382.00,0.0052
3381.00,0.0052
3380.00,0.0053
3379.00,0.0053
3378.00,0.0053
3377.00,0.0053
3376.00,0.0053
3375.00,0.0053
3374.00,0.0053
3373.00,0.0054
3372.00,0.0054
3371.00,0.0054
3370.00,0.0054
3369.00,0.0054
3368.00,0.0054
3367.00,0.0054
3366.00,0.0054
3365.00,0.0054
3364.00,0.0054
3363.00,0.0054
3362.00,0.0054
3361.00,0.0054
3360.00,0.0055
3359.00,0.0055
3358.00,0.0056
3357.00,0.0056
3356.00,0.0056
3355.00,0.0056
3354.00,0.0056
3353.00,0.0056
3352.00,0.0056
3351.00,0.0056
3350.00,0.0056
3349.00,0.0056
3348.00,0.0056
3347.00,0.0056
3346.00,0.0056
3345.00,0.0056
3344.00,0.0056
3343.00,0.0057
3342.00,0.0057
3341.00,0.0057
3340.00,0.0056
3339.00,0.0056
3338.00,0.0056
3337.00,0.0056
3336.00,0.0056
3335.00,0.0056
3334.00,0.0056
3333.00,0.0056
3332.00,0.0056
3331.00,0.0056
3330.00,0.0056
3329.00,0.0056
3328.00,0.0056
3327.00,0.0056
3326.00,0.0055
3325.00,0.0055
3324.00,0.0055
3323.00,0.0055
3322.00,0.0055
3321.00,0.0054
3320.00,0.0054
3319.00,0.0054
3318.00,0.0055
3317.00,0.0055
3316.00,0.0056
3315.00,0.0056
3314.00,0.0056
3313.00,0.0056
3312.00,0.0055
3311.00,0.0055
3310.00,0.0055
3309.00,0.0054
3308.00,0.0054
3307.00,0.0054
3306.00,0.0055
3305.00,0.0055
3304.00,0.0056
3303.00,0.0056
3302.00,0.0056
3301.00,0.0056
3300.00,0.0055
3299.00,0.0055
3298.00,0.0055
3297.00,0.0055
3296.00,0.0055
3295.00,0.0055
3294.00,0.0054
3293.00,0.0054
3292.00,0.0054
3291.00,0.0054
3290.00,0.0054
3289.00,0.0054
3288.00,0.0054
3287.00,0.0053
3286.00,0.0053
3285.00,0.0053
3284.00,0.0053
3283.00,0.0053
3282.00,0.0053
3281.00,0.0053
3280.00,0.0052
3279.00,0.0052
3278.00,0.0052
3277.00,0.0052
3276.00,0.0052
3275.00,0.0052
3274.00,0.0053
3273.00,0.0052
3272.00,0.0052
3271.00,0.0051
3270.00,0.0051
3269.00,0.0051
3268.00,0.0051
3267.00,0.0051
3266.00,0.0050
3265.00,0.0050
3264.00,0.0050
3263.00,0.0050
3262.00,0.0050
3261.00,0.0050
3260.00,0.0050
3259.00,0.0050
3258.00,0.0049
3257.00,0.0049
3256.00,0.0049
3255.00,0.0048
3254.00,0.0047
3253.00,0.0047
3252.00,0.0047
3251.00,0.0047
3250.00,0.0047
3249.00,0.0047
3248.00,0.0048
3247.00,0.0047
3246.00,0.0047
3245.00,0.0047
3244.00,0.0046
3243.00,0.0046
3242.00,0.0046
3241.00,0.0046
3240.00,0.0046
3239.00,0.0046
3238.00,0.0046
3237.00,0.0047
3236.00,0.0047
3235.00,0.0047
3234.00,0.0047
3233.00,0.0047
3232.00,0.0047
3231.00,0.0047
3230.00,0.0047
3229.00,0.0047
3228.00,0.0047
3227.00,0.0047
3226.00,0.0047
3225.00,0.0047
3224.00,0.0047
3223.00,0.0047
3222.00,0.0047
3221.00,0.0047
3220.00,0.0048
3219.00,0.0049
3218.00,0.0049
3217.00,0.0050
3216.00,0.0050
3215.00,0.0050
3214.00,0.0050
3213.00,0.0050
3212.00,0.0050
3211.00,0.0050
3210.00,0.0050
3209.00,0.0050
3208.00,0.0050
3207.00,0.0050
3206.00,0.0050
3205.00,0.0050
3204.00,0.0051
3203.00,0.0051
3202.00,0.0051
3201.00,0.0051
3200.00,0.0051
3199.00,0.0051
3198.00,0.0051
3197.00,0.0051
3196.00,0.0051
3195.00,0.0051
3194.00,0.0050
3193.00,0.0050
3192.00,0.0050
3191.00,0.0050
3190.00,0.0050
3189.00,0.0050
3188.00,0.0049
3187.00,0.0049
3186.00,0.0048
3185.00,0.0049
3184.00,0.0049
3183.00,0.0049
3182.00,0.0049
3181.00,0.0048
3180.00,0.0048
3179.00,0.0047
3178.00,0.0047
3177.00,0.0046
3176.00,0.0046
3175.00,0.0046
3174.00,0.0046
3173.00,0.0046
3172.00,0.0045
3171.00,0.0045
3170.00,0.0045
3169.00,0.0045
3168.00,0.0045
3167.00,0.0045
3166.00,0.0045
3165.00,0.0045
3164.00,0.0045
3163.00,0.0045
3162.00,0.0044
3161.00,0.0044
3160.00,0.0044
3159.00,0.0043
3158.00,0.0043
3157.00,0.0043
3156.00,0.0043
3155.00,0.0043
3154.00,0.0043
3153.00,0.0043
3152.00,0.0043
3151.00,0.0043
3150.00,0.0043
3149.00,0.0043
3148.00,0.0043
3147.00,0.0043
3146.00,0.0043
3145.00,0.0043
3144.00,0.0043
3143.00,0.0043
3142.00,0.0043
3141.00,0.0043
3140.00,0.0042
3139.00,0.0042
3138.00,0.0042
3137.00,0.0041
3136.00,0.0041
3135.00,0.0040
3134.00,0.0039
3133.00,0.0039
3132.00,0.0039
3131.00,0.0039
3130.00,0.0040
3129.00,0.0040
3128.00,0.0040
3127.00,0.0039
3126.00,0.0038
3125.00,0.0038
3124.00,0.0037
3123.00,0.0037
3122.00,0.0037
3121.00,0.0037
3120.00,0.0037
3119.00,0.0037
3118.00,0.0037
3117.00,0.0037
3116.00,0.0036
3115.00,0.0036
3114.00,0.0036
3113.00,0.0035
3112.00,0.0035
3111.00,0.0034
3110.00,0.0034
3109.00,0.0034
3108.00,0.0034
3107.00,0.0034
3106.00,0.0033
3105.00,0.0033
3104.00,0.0033
3103.00,0.0033
3102.00,0.0033
3101.00,0.0033
3100.00,0.0033
3099.00,0.0033
3098.00,0.0033
3097.00,0.0033
3096.00,0.0033
3095.00,0.0033
3094.00,0.0033
3093.00,0.0032
3092.00,0.0032
3091.00,0.0031
3090.00,0.0031
3089.00,0.0031
3088.00,0.0031
3087.00,0.0031
3086.00,0.0031
3085.00,0.0031
3084.00,0.0031
3083.00,0.0031
3082.00,0.0030
3081.00,0.0030
3080.00,0.0031
3079.00,0.0031
3078.00,0.0031
3077.00,0.0031
3076.00,0.0031
3075.00,0.0031
3074.00,0.0030
3073.00,0.0030
3072.00,0.0030
3071.00,0.0030
3070.00,0.0031
3069.00,0.0031
3068.00,0.0031
3067.00,0.0031
3066.00,0.0031
3065.00,0.0031
3064.00,0.0032
3063.00,0.0032
3062.00,0.0032
3061.00,0.0033
3060.00,0.0033
3059.00,0.0033
3058.00,0.0033
3057.00,0.0033
3056.00,0.0033
3055.00,0.0033
3054.00,0.0033
3053.00,0.0033
3052.00,0.0033
3051.00,0.0034
3050.00,0.0034
3049.00,0.0034
3048.00,0.0034
3047.00,0.0034
3046.00,0.0034
3045.00,0.0034
3044.00,0.0034
3043.00,0.0035
3042.00,0.0035
3041.00,0.0035
3040.00,0.0036
3039.00,0.0036
3038.00,0.0037
3037.00,0.0037
3036.00,0.0037
3035.00,0.0037
3034.00,0.0037
3033.00,0.0038
3032.00,0.0038
3031.00,0.0039
3030.00,0.0040
3029.00,0.0040
3028.00,0.0041
3027.00,0.0041
3026.00,0.0041
3025.00,0.0041
3024.00,0.0042
3023.00,0.0042
3022.00,0.0043
3021.00,0.0044
3020.00,0.0045
3019.00,0.0046
3018.00,0.0046
3017.00,0.0047
3016.00,0.0048
3015.00,0.0049
3014.00,0.0051
3013.00,0.0053
3012.00,0.0054
3011.00,0.0055
3010.00,0.0056
3009.00,0.0057
3008.00,0.0058
3007.00,0.0059
3006.00,0.0061
3005.00,0.0062
3004.00,0.0065
3003.00,0.0067
3002.00,0.0070
3001.00,0.0072
3000.00,0.0075
2999.00,0.0077
2998.00,0.0080
2997.00,0.0083
2996.00,0.0087
2995.00,0.0091
2994.00,0.0096
2993.00,0.0101
2992.00,0.0107
2991.00,0.0112
2990.00,0.0119
2989.00,0.0126
2988.00,0.0134
2987.00,0.0142
2986.00,0.0152
2985.00,0.0163
2984.00,0.0176
2983.00,0.0190
2982.00,0.0206
2981.00,0.0224
2980.00,0.0244
2979.00,0.0267
2978.00,0.0293
2977.00,0.0322
2976.00,0.0357
2975.00,0.0395
2974.00,0.0439
2973.00,0.0489
2972.00,0.0546
2971.00,0.0609
2970.00,0.0681
2969.00,0.0760
2968.00,0.0847
2967.00,0.0942
2966.00,0.1043
2965.00,0.1147
2964.00,0.1253
2963.00,0.1355
2962.00,0.1448
2961.00,0.1527
2960.00,0.1590
2959.00,0.1638
2958.00,0.1674
2957.00,0.1705
2956.00,0.1738
2955.00,0.1777
2954.00,0.1824
2953.00,0.1874
2952.00,0.1922
2951.00,0.1955
2950.00,0.1963
2949.00,0.1938
2948.00,0.1876
2947.00,0.1780
2946.00,0.1658
2945.00,0.1525
2944.00,0.1394
2943.00,0.1276
2942.00,0.1181
2941.00,0.1110
2940.00,0.1064
2939.00,0.1042
2938.00,0.1041
2937.00,0.1059
2936.00,0.1093
2935.00,0.1143
2934.00,0.1206
2933.00,0.1282
2932.00,0.1368
2931.00,0.1463
2930.00,0.1564
2929.00,0.1667
2928.00,0.1770
2927.00,0.1869
2926.00,0.1963
2925.00,0.2051
2924.00,0.2135
2923.00,0.2217
2922.00,0.2296
2921.00,0.2371
2920.00,0.2437
2919.00,0.2487
2918.00,0.2514
2917.00,0.2512
2916.00,0.2481
2915.00,0.2424
2914.00,0.2349
2913.00,0.2264
2912.00,0.2179
2911.00,0.2098
2910.00,0.2024
2909.00,0.1956
2908.00,0.1893
2907.00,0.1832
2906.00,0.1770
2905.00,0.1706
2904.00,0.1639
2903.00,0.1571
2902.00,0.1502
2901.00,0.1433
2900.00,0.1366
2899.00,0.1303
2898.00,0.1244
2897.00,0.1190
2896.00,0.1143
2895.00,0.1103
2894.00,0.1070
2893.00,0.1045
2892.00,0.1026
2891.00,0.1014
2890.00,0.1006
2889.00,0.1004
2888.00,0.1006
2887.00,0.1011
2886.00,0.1020
2885.00,0.1032
2884.00,0.1049
2883.00,0.1069
2882.00,0.1093
2881.00,0.1119
2880.00,0.1144
2879.00,0.1165
2878.00,0.1178
2877.00,0.1183
2876.00,0.1179
2875.00,0.1172
2874.00,0.1164
2873.00,0.1162
2872.00,0.1167
2871.00,0.1179
2870.00,0.1197
2869.00,0.1216
2868.00,0.1228
2867.00,0.1226
2866.00,0.1202
2865.00,0.1153
2864.00,0.1082
2863.00,0.0997
2862.00,0.0907
2861.00,0.0823
2860.00,0.0750
2859.00,0.0691
2858.00,0.0646
2857.00,0.0615
2856.00,0.0594
2855.00,0.0582
2854.00,0.0577
2853.00,0.0578
2852.00,0.0584
2851.00,0.0597
2850.00,0.0615
2849.00,0.0641
2848.00,0.0675
2847.00,0.0718
2846.00,0.0771
2845.00,0.0833
2844.00,0.0902
2843.00,0.0978
2842.00,0.1054
2841.00,0.1126
2840.00,0.1186
2839.00,0.1225
2838.00,0.1234
2837.00,0.1209
2836.00,0.1149
2835.00,0.1061
2834.00,0.0955
2833.00,0.0843
2832.00,0.0737
2831.00,0.0642
2830.00,0.0561
2829.00,0.0495
2828.00,0.0442
2827.00,0.0399
2826.00,0.0363
2825.00,0.0335
2824.00,0.0311
2823.00,0.0290
2822.00,0.0273
2821.00,0.0258
2820.00,0.0245
2819.00,0.0233
2818.00,0.0223
2817.00,0.0215
2816.00,0.0207
2815.00,0.0200
2814.00,0.0194
2813.00,0.0189
2812.00,0.0184
2811.00,0.0179
2810.00,0.0174
2809.00,0.0168
2808.00,0.0162
2807.00,0.0156
2806.00,0.0149
2805.00,0.0143
2804.00,0.0136
2803.00,0.0131
2802.00,0.0125
2801.00,0.0121
2800.00,0.0117
2799.00,0.0114
2798.00,0.0112
2797.00,0.0109
2796.00,0.0107
2795.00,0.0105
2794.00,0.0102
2793.00,0.0099
2792.00,0.0095
2791.00,0.0092
2790.00,0.0089
2789.00,0.0086
2788.00,0.0083
2787.00,0.0080
2786.00,0.0077
2785.00,0.0074
2784.00,0.0072
2783.00,0.0069
2782.00,0.0066
2781.00,0.0064
2780.00,0.0063
2779.00,0.0062
2778.00,0.0061
2777.00,0.0059
2776.00,0.0058
2775.00,0.0057
2774.00,0.0056
2773.00,0.0055
2772.00,0.0055
2771.00,0.0054
2770.00,0.0054
2769.00,0.0054
2768.00,0.0053
2767.00,0.0053
2766.00,0.0052
2765.00,0.0052
2764.00,0.0051
2763.00,0.0051
2762.00,0.0050
2761.00,0.0050
2760.00,0.0050
2759.00,0.0049
2758.00,0.0049
2757.00,0.0049
2756.00,0.0049
2755.00,0.0049
2754.00,0.0049
2753.00,0.0049
2752.00,0.0048
2751.00,0.0048
2750.00,0.0048
2749.00,0.0048
2748.00,0.0048
2747.00,0.0049
2746.00,0.0050
2745.00,0.0050
2744.00,0.0051
2743.00,0.0052
2742.00,0.0053
2741.00,0.0054
2740.00,0.0055
2739.00,0.0057
2738.00,0.0058
2737.00,0.0059
2736.00,0.0061
2735.00,0.0062
2734.00,0.0064
2733.00,0.0065
2732.00,0.0067
2731.00,0.0069
2730.00,0.0071
2729.00,0.0073
2728.00,0.0075
2727.00,0.0078
2726.00,0.0081
2725.00,0.0084
2724.00,0.0086
2723.00,0.0086
2722.00,0.0085
2721.00,0.0083
2720.00,0.0081
2719.00,0.0077
2718.00,0.0074
2717.00,0.0071
2716.00,0.0068
2715.00,0.0065
2714.00,0.0063
2713.00,0.0060
2712.00,0.0059
2711.00,0.0057
2710.00,0.0055
2709.00,0.0053
2708.00,0.0052
2707.00,0.0050
2706.00,0.0049
2705.00,0.0048
2704.00,0.0047
2703.00,0.0046
2702.00,0.0046
2701.00,0.0045
2700.00,0.0044
2699.00,0.0043
2698.00,0.0042
2697.00,0.0042
2696.00,0.0042
2695.00,0.0042
2694.00,0.0042
2693.00,0.0042
2692.00,0.0042
2691.00,0.0042
2690.00,0.0042
2689.00,0.0042
2688.00,0.0042
2687.00,0.0042
2686.00,0.0042
2685.00,0.0042
2684.00,0.0043
2683.00,0.0043
2682.00,0.0043
2681.00,0.0043
2680.00,0.0043
2679.00,0.0043
2678.00,0.0043
2677.00,0.0043
2676.00,0.0043
2675.00,0.0043
2674.00,0.0042
2673.00,0.0042
2672.00,0.0042
2671.00,0.0042
2670.00,0.0042
2669.00,0.0042
2668.00,0.0042
2667.00,0.0042
2666.00,0.0043
2665.00,0.0043
2664.00,0.0044
2663.00,0.0044
2662.00,0.0045
2661.00,0.0045
2660.00,0.0045
2659.00,0.0045
2658.00,0.0045
2657.00,0.0045
2656.00,0.0045
2655.00,0.0044
2654.00,0.0043
2653.00,0.0043
2652.00,0.0042
2651.00,0.0041
2650.00,0.0040
2649.00,0.0040
2648.00,0.0040
2647.00,0.0040
2646.00,0.0039
2645.00,0.0039
2644.00,0.0039
2643.00,0.0038
2642.00,0.0037
2641.00,0.0037
2640.00,0.0036
2639.00,0.0036
2638.00,0.0036
2637.00,0.0035
2636.00,0.0035
2635.00,0.0035
2634.00,0.0035
2633.00,0.0035
2632.00,0.0036
2631.00,0.0036
2630.00,0.0036
2629.00,0.0037
2628.00,0.0037
2627.00,0.0037
2626.00,0.0037
2625.00,0.0037
2624.00,0.0037
2623.00,0.0037
2622.00,0.0037
2621.00,0.0037
2620.00,0.0038
2619.00,0.0038
2618.00,0.0038
2617.00,0.0038
2616.00,0.0039
2615.00,0.0038
2614.00,0.0038
2613.00,0.0037
2612.00,0.0037
2611.00,0.0036
2610.00,0.0035
2609.00,0.0034
2608.00,0.0033
2607.00,0.0032
2606.00,0.0032
2605.00,0.0031
2604.00,0.0031
2603.00,0.0030
2602.00,0.0031
2601.00,0.0030
2600.00,0.0030
2599.00,0.0030
2598.00,0.0030
2597.00,0.0030
2596.00,0.0030
2595.00,0.0030
2594.00,0.0030
2593.00,0.0030
2592.00,0.0031
2591.00,0.0031
2590.00,0.0032
2589.00,0.0033
2588.00,0.0034
2587.00,0.0035
2586.00,0.0036
2585.00,0.0037
2584.00,0.0038
2583.00,0.0037
2582.00,0.0037
2581.00,0.0036
2580.00,0.0036
2579.00,0.0035
2578.00,0.0035
2577.00,0.0034
2576.00,0.0033
2575.00,0.0032
2574.00,0.0030
2573.00,0.0029
2572.00,0.0028
2571.00,0.0027
2570.00,0.0026
2569.00,0.0026
2568.00,0.0025
2567.00,0.0024
2566.00,0.0023
2565.00,0.0023
2564.00,0.0022
2563.00,0.0022
2562.00,0.0021
2561.00,0.0021
2560.00,0.0021
2559.00,0.0022
2558.00,0.0022
2557.00,0.0022
2556.00,0.0021
2555.00,0.0020
2554.00,0.0019
2553.00,0.0019
2552.00,0.0018
2551.00,0.0017
2550.00,0.0017
2549.00,0.0016
2548.00,0.0016
2547.00,0.0016
2546.00,0.0017
2545.00,0.0017
2544.00,0.0017
2543.00,0.0017
2542.00,0.0017
2541.00,0.0017
2540.00,0.0016
2539.00,0.0015
2538.00,0.0014
2537.00,0.0014
2536.00,0.0014
2535.00,0.0015
2534.00,0.0015
2533.00,0.0014
2532.00,0.0014
2531.00,0.0013
2530.00,0.0012
2529.00,0.0012
2528.00,0.0012
2527.00,0.0012
2526.00,0.0012
2525.00,0.0011
2524.00,0.0011
2523.00,0.0010
2522.00,0.0010
2521.00,0.0009
2520.00,0.0009
2519.00,0.0009
2518.00,0.0009
2517.00,0.0010
2516.00,0.0010
2515.00,0.0010
2514.00,0.0010
2513.00,0.0010
2512.00,0.0009
2511.00,0.0008
2510.00,0.0008
2509.00,0.0007
2508.00,0.0007
2507.00,0.0007
2506.00,0.0007
2505.00,0.0007
2504.00,0.0007
2503.00,0.0007
2502.00,0.0007
2501.00,0.0007
2500.00,0.0008
2499.00,0.0008
2498.00,0.0008
2497.00,0.0008
2496.00,0.0008
2495.00,0.0009
2494.00,0.0009
2493.00,0.0010
2492.00,0.0010
2491.00,0.0010
2490.00,0.0010
2489.00,0.0009
2488.00,0.0008
2487.00,0.0008
2486.00,0.0008
2485.00,0.0008
2484.00,0.0009
2483.00,0.0008
2482.00,0.0008
2481.00,0.0008
2480.00,0.0008
2479.00,0.0008
2478.00,0.0008
2477.00,0.0007
2476.00,0.0007
2475.00,0.0007
2474.00,0.0007
2473.00,0.0007
2472.00,0.0007
2471.00,0.0007
2470.00,0.0007
2469.00,0.0007
2468.00,0.0007
2467.00,0.0007
2466.00,0.0007
2465.00,0.0007
2464.00,0.0007
2463.00,0.0008
2462.00,0.0008
2461.00,0.0008
2460.00,0.0008
2459.00,0.0008
2458.00,0.0008
2457.00,0.0008
2456.00,0.0008
2455.00,0.0009
2454.00,0.0009
2453.00,0.0009
2452.00,0.0010
2451.00,0.0010
2450.00,0.0010
2449.00,0.0010
2448.00,0.0010
2447.00,0.0010
2446.00,0.0009
2445.00,0.0009
2444.00,0.0008
2443.00,0.0007
2442.00,0.0008
2441.00,0.0009
2440.00,0.0010
2439.00,0.0010
2438.00,0.0010
2437.00,0.0010
2436.00,0.0010
2435.00,0.0010
2434.00,0.0010
2433.00,0.0010
2432.00,0.0010
2431.00,0.0010
2430.00,0.0010
2429.00,0.0011
2428.00,0.0011
2427.00,0.0011
2426.00,0.0011
2425.00,0.0011
2424.00,0.0010
2423.00,0.0010
2422.00,0.0009
2421.00,0.0009
2420.00,0.0009
2419.00,0.0008
2418.00,0.0008
2417.00,0.0008
2416.00,0.0008
2415.00,0.0008
2414.00,0.0008
2413.00,0.0009
2412.00,0.0009
2411.00,0.0009
2410.00,0.0009
2409.00,0.0008
2408.00,0.0008
2407.00,0.0007
2406.00,0.0006
2405.00,0.0006
2404.00,0.0006
2403.00,0.0006
2402.00,0.0006
2401.00,0.0006
2400.00,0.0007
2399.00,0.0007
2398.00,0.0007
2397.00,0.0007
2396.00,0.0007
2395.00,0.0007
2394.00,0.0007
2393.00,0.0007
2392.00,0.0008
2391.00,0.0008
2390.00,0.0008
2389.00,0.0008
2388.00,0.0007
2387.00,0.0007
2386.00,0.0006
2385.00,0.0006
2384.00,0.0005
2383.00,0.0005
2382.00,0.0004
2381.00,0.0004
2380.00,0.0004
2379.00,0.0003
2378.00,0.0003
2377.00,0.0003
2376.00,0.0003
2375.00,0.0003
2374.00,0.0003
2373.00,0.0003
2372.00,0.0003
2371.00,0.0003
2370.00,0.0003
2369.00,0.0002
2368.00,0.0002
2367.00,0.0002
2366.00,0.0002
2365.00,0.0002
2364.00,0.0002
2363.00,0.0003
2362.00,0.0004
2361.00,0.0004
2360.00,0.0003
2359.00,0.0003
2358.00,0.0003
2357.00,0.0003
2356.00,0.0004
2355.00,0.0005
2354.00,0.0005
2353.00,0.0006
2352.00,0.0005
2351.00,0.0005
2350.00,0.0004
2349.00,0.0004
2348.00,0.0004
2347.00,0.0005
2346.00,0.0005
2345.00,0.0005
2344.00,0.0005
2343.00,0.0005
2342.00,0.0004
2341.00,0.0005
2340.00,0.0005
2339.00,0.0006
2338.00,0.0007
2337.00,0.0007
2336.00,0.0008
2335.00,0.0008
2334.00,0.0007
2333.00,0.0007
2332.00,0.0006
2331.00,0.0006
2330.00,0.0006
2329.00,0.0007
2328.00,0.0009
2327.00,0.0012
2326.00,0.0017
2325.00,0.0021
2324.00,0.0023
2323.00,0.0022
2322.00,0.0019
2321.00,0.0016
2320.00,0.0014
2319.00,0.0013
2318.00,0.0012
2317.00,0.0011
2316.00,0.0011
2315.00,0.0011
2314.00,0.0011
2313.00,0.0010
2312.00,0.0010
2311.00,0.0010
2310.00,0.0010
2309.00,0.0010
2308.00,0.0010
2307.00,0.0010
2306.00,0.0010
2305.00,0.0010
2304.00,0.0010
2303.00,0.0010
2302.00,0.0009
2301.00,0.0009
2300.00,0.0010
2299.00,0.0011
2298.00,0.0011
2297.00,0.0011
2296.00,0.0012
2295.00,0.0012
2294.00,0.0013
2293.00,0.0013
2292.00,0.0014
2291.00,0.0014
2290.00,0.0015
2289.00,0.0016
2288.00,0.0017
2287.00,0.0017
2286.00,0.0017
2285.00,0.0017
2284.00,0.0016
2283.00,0.0015
2282.00,0.0014
2281.00,0.0013
2280.00,0.0013
2279.00,0.0012
2278.00,0.0012
2277.00,0.0012
2276.00,0.0012
2275.00,0.0012
2274.00,0.0013
2273.00,0.0013
2272.00,0.0013
2271.00,0.0014
2270.00,0.0013
2269.00,0.0013
2268.00,0.0011
2267.00,0.0010
2266.00,0.0008
2265.00,0.0008
2264.00,0.0008
2263.00,0.0008
2262.00,0.0009
2261.00,0.0009
2260.00,0.0009
2259.00,0.0010
2258.00,0.0010
2257.00,0.0010
2256.00,0.0009
2255.00,0.0009
2254.00,0.0008
2253.00,0.0008
2252.00,0.0008
2251.00,0.0008
2250.00,0.0008
2249.00,0.0009
2248.00,0.0009
2247.00,0.0009
2246.00,0.0008
2245.00,0.0007
2244.00,0.0006
2243.00,0.0005
2242.00,0.0005
2241.00,0.0006
2240.00,0.0008
2239.00,0.0008
2238.00,0.0007
2237.00,0.0006
2236.00,0.0004
2235.00,0.0003
2234.00,0.0002
2233.00,0.0002
2232.00,0.0002
2231.00,0.0003
2230.00,0.0004
2229.00,0.0004
2228.00,0.0004
2227.00,0.0004
2226.00,0.0005
2225.00,0.0006
2224.00,0.0006
2223.00,0.0006
2222.00,0.0005
2221.00,0.0005
2220.00,0.0004
2219.00,0.0004
2218.00,0.0004
2217.00,0.0005
2216.00,0.0005
2215.00,0.0006
2214.00,0.0007
2213.00,0.0008
2212.00,0.0008
2211.00,0.0006
2210.00,0.0003
2209.00,0.0001
2208.00,0.0001
2207.00,0.0001
2206.00,0.0003
2205.00,0.0005
2204.00,0.0007
2203.00,0.0008
2202.00,0.0009
2201.00,0.0009
2200.00,0.0008
2199.00,0.0008
2198.00,0.0007
2197.00,0.0007
2196.00,0.0009
2195.00,0.0011
2194.00,0.0013
2193.00,0.0014
2192.00,0.0014
2191.00,0.0013
2190.00,0.0012
2189.00,0.0011
2188.00,0.0009
2187.00,0.0006
2186.00,0.0004
2185.00,0.0002
2184.00,0.0002
2183.00,0.0002
2182.00,0.0002
2181.00,0.0001
2180.00,0.0002
2179.00,0.0003
2178.00,0.0005
2177.00,0.0006
2176.00,0.0007
2175.00,0.0005
2174.00,0.0004
2173.00,0.0003
2172.00,0.0002
2171.00,0.0004
2170.00,0.0007
2169.00,0.0012
2168.00,0.0015
2167.00,0.0015
2166.00,0.0013
2165.00,0.0013
2164.00,0.0016
2163.00,0.0019
2162.00,0.0020
2161.00,0.0013
2160.00,0.0001
2159.00,-0.0014
2158.00,-0.0023
2157.00,-0.0025
2156.00,-0.0023
2155.00,-0.0020
2154.00,-0.0020
2153.00,-0.0019
2152.00,-0.0016
2151.00,-0.0014
2150.00,-0.0013
2149.00,-0.0014
2148.00,-0.0016
2147.00,-0.0018
2146.00,-0.0018
2145.00,-0.0017
2144.00,-0.0017
2143.00,-0.0017
2142.00,-0.0017
2141.00,-0.0016
2140.00,-0.0015
2139.00,-0.0015
2138.00,-0.0015
2137.00,-0.0016
2136.00,-0.0017
2135.00,-0.0018
2134.00,-0.0018
2133.00,-0.0017
2132.00,-0.0015
2131.00,-0.0013
2130.00,-0.0012
2129.00,-0.0010
2128.00,-0.0008
2127.00,-0.0007
2126.00,-0.0007
2125.00,-0.0008
2124.00,-0.0008
2123.00,-0.0008
2122.00,-0.0007
2121.00,-0.0006
2120.00,-0.0005
2119.00,-0.0003
2118.00,-0.0002
2117.00,-0.0000
2116.00,0.0001
2115.00,0.0002
2114.00,0.0001
2113.00,0.0000
2112.00,-0.0001
2111.00,-0.0001
2110.00,-0.0001
2109.00,0.0001
2108.00,0.0002
2107.00,0.0004
2106.00,0.0005
2105.00,0.0005
2104.00,0.0004
2103.00,0.0003
2102.00,0.0001
2101.00,0.0000
2100.00,-0.0000
2099.00,-0.0001
2098.00,-0.0001
2097.00,-0.0002
2096.00,-0.0004
2095.00,-0.0006
2094.00,-0.0007
2093.00,-0.0006
2092.00,-0.0004
2091.00,-0.0001
2090.00,0.0000
2089.00,0.0001
2088.00,0.0001
2087.00,0.0002
2086.00,0.0002
2085.00,0.0002
2084.00,0.0003
2083.00,0.0003
2082.00,0.0003
2081.00,0.0002
2080.00,0.0002
2079.00,0.0002
2078.00,0.0002
2077.00,0.0002
2076.00,0.0002
2075.00,0.0003
2074.00,0.0003
2073.00,0.0004
2072.00,0.0004
2071.00,0.0004
2070.00,0.0004
2069.00,0.0003
2068.00,0.0002
2067.00,0.0001
2066.00,-0.0000
2065.00,-0.0001
2064.00,-0.0001
2063.00,-0.0001
2062.00,-0.0002
2061.00,-0.0001
2060.00,-0.0001
2059.00,-0.0000
2058.00,-0.0000
2057.00,-0.0000
2056.00,-0.0001
2055.00,-0.0001
2054.00,0.0001
2053.00,0.0004
2052.00,0.0007
2051.00,0.0009
2050.00,0.0008
2049.00,0.0005
2048.00,0.0002
2047.00,-0.0000
2046.00,-0.0001
2045.00,-0.0001
2044.00,-0.0000
2043.00,-0.0001
2042.00,-0.0001
2041.00,-0.0001
2040.00,-0.0001
2039.00,-0.0000
2038.00,-0.0000
2037.00,0.0000
2036.00,-0.0000
2035.00,-0.0002
2034.00,-0.0005
2033.00,-0.0006
2032.00,-0.0005
2031.00,-0.0004
2030.00,-0.0003
2029.00,-0.0004
2028.00,-0.0006
2027.00,-0.0009
2026.00,-0.0012
2025.00,-0.0013
2024.00,-0.0014
2023.00,-0.0013
2022.00,-0.0013
2021.00,-0.0013
2020.00,-0.0013
2019.00,-0.0013
2018.00,-0.0012
2017.00,-0.0011
2016.00,-0.0010
2015.00,-0.0011
2014.00,-0.0012
2013.00,-0.0013
2012.00,-0.0014
2011.00,-0.0014
2010.00,-0.0012
2009.00,-0.0011
2008.00,-0.0011
2007.00,-0.0013
2006.00,-0.0014
2005.00,-0.0013
2004.00,-0.0012
2003.00,-0.0013
2002.00,-0.0015
2001.00,-0.0017
2000.00,-0.0017
1999.00,-0.0015
1998.00,-0.0010
1997.00,-0.0006
1996.00,-0.0004
1995.00,-0.0003
1994.00,-0.0004
1993.00,-0.0004
1992.00,-0.0003
1991.00,-0.0003
1990.00,-0.0003
1989.00,-0.0003
1988.00,-0.0004
1987.00,-0.0005
1986.00,-0.0004
1985.00,-0.0003
1984.00,-0.0000
1983.00,0.0003
1982.00,0.0006
1981.00,0.0010
1980.00,0.0011
1979.00,0.0008
1978.00,0.0003
1977.00,-0.0003
1976.00,-0.0008
1975.00,-0.0011
1974.00,-0.0012
1973.00,-0.0011
1972.00,-0.0009
1971.00,-0.0008
1970.00,-0.0007
1969.00,-0.0007
1968.00,-0.0008
1967.00,-0.0009
1966.00,-0.0011
1965.00,-0.0013
1964.00,-0.0014
1963.00,-0.0014
1962.00,-0.0014
1961.00,-0.0014
1960.00,-0.0014
1959.00,-0.0016
1958.00,-0.0018
1957.00,-0.0018
1956.00,-0.0017
1955.00,-0.0016
1954.00,-0.0016
1953.00,-0.0015
1952.00,-0.0015
1951.00,-0.0014
1950.00,-0.0015
1949.00,-0.0016
1948.00,-0.0017
1947.00,-0.0017
1946.00,-0.0017
1945.00,-0.0016
1944.00,-0.0016
1943.00,-0.0015
1942.00,-0.0014
1941.00,-0.0013
1940.00,-0.0012
1939.00,-0.0012
1938.00,-0.0013
1937.00,-0.0013
1936.00,-0.0012
1935.00,-0.0011
1934.00,-0.0010
1933.00,-0.0008
1932.00,-0.0008
1931.00,-0.0008
1930.00,-0.0008
1929.00,-0.0009
1928.00,-0.0009
1927.00,-0.0009
1926.00,-0.0009
1925.00,-0.0009
1924.00,-0.0009
1923.00,-0.0008
1922.00,-0.0006
1921.00,-0.0003
1920.00,-0.0002
1919.00,-0.0001
1918.00,-0.0002
1917.00,-0.0002
1916.00,-0.0001
1915.00,-0.0002
1914.00,-0.0003
1913.00,-0.0003
1912.00,-0.0003
1911.00,-0.0003
1910.00,-0.0002
1909.00,-0.0001
1908.00,-0.0001
1907.00,-0.0001
1906.00,-0.0002
1905.00,-0.0002
1904.00,-0.0002
1903.00,-0.0002
1902.00,-0.0002
1901.00,-0.0002
1900.00,-0.0001
1899.00,-0.0001
1898.00,-0.0001
1897.00,-0.0001
1896.00,-0.0000
1895.00,0.0000
1894.00,0.0000
1893.00,0.0000
1892.00,0.0000
1891.00,-0.0000
1890.00,-0.0001
1889.00,-0.0002
1888.00,-0.0001
1887.00,-0.0001
1886.00,-0.0000
1885.00,0.0000
1884.00,-0.0000
1883.00,-0.0001
1882.00,-0.0002
1881.00,-0.0003
1880.00,-0.0003
1879.00,-0.0002
1878.00,-0.0002
1877.00,-0.0001
1876.00,-0.0001
1875.00,-0.0001
1874.00,-0.0001
1873.00,-0.0001
1872.00,-0.0001
1871.00,-0.0000
1870.00,-0.0001
1869.00,-0.0001
1868.00,-0.0002
1867.00,-0.0001
1866.00,0.0001
1865.00,0.0002
1864.00,0.0003
1863.00,0.0002
1862.00,0.0002
1861.00,0.0001
1860.00,0.0001
1859.00,0.0001
1858.00,0.0001
1857.00,0.0000
1856.00,0.0000
1855.00,-0.0000
1854.00,-0.0001
1853.00,-0.0000
1852.00,-0.0000
1851.00,0.0000
1850.00,0.0001
1849.00,0.0002
1848.00,0.0002
1847.00,0.0003
1846.00,0.0002
1845.00,0.0001
1844.00,0.0001
1843.00,0.0001
1842.00,0.0002
1841.00,0.0003
1840.00,0.0003
1839.00,0.0003
1838.00,0.0003
1837.00,0.0002
1836.00,0.0002
1835.00,0.0003
1834.00,0.0003
1833.00,0.0004
1832.00,0.0004
1831.00,0.0004
1830.00,0.0004
1829.00,0.0005
1828.00,0.0005
1827.00,0.0004
1826.00,0.0003
1825.00,0.0003
1824.00,0.0003
1823.00,0.0003
1822.00,0.0004
1821.00,0.0004
1820.00,0.0003
1819.00,0.0002
1818.00,0.0002
1817.00,0.0001
1816.00,0.0001
1815.00,0.0002
1814.00,0.0002
1813.00,0.0002
1812.00,0.0002
1811.00,0.0003
1810.00,0.0003
1809.00,0.0004
1808.00,0.0004
1807.00,0.0004
1806.00,0.0004
1805.00,0.0004
1804.00,0.0004
1803.00,0.0004
1802.00,0.0005
1801.00,0.0006
1800.00,0.0006
1799.00,0.0006
1798.00,0.0006
1797.00,0.0006
1796.00,0.0006
1795.00,0.0006
1794.00,0.0007
1793.00,0.0007
1792.00,0.0007
1791.00,0.0007
1790.00,0.0008
1789.00,0.0007
1788.00,0.0007
1787.00,0.0007
1786.00,0.0007
1785.00,0.0007
1784.00,0.0008
1783.00,0.0008
1782.00,0.0008
1781.00,0.0008
1780.00,0.0007
1779.00,0.0007
1778.00,0.0007
1777.00,0.0007
1776.00,0.0008
1775.00,0.0008
1774.00,0.0008
1773.00,0.0009
1772.00,0.0010
1771.00,0.0011
1770.00,0.0012
1769.00,0.0013
1768.00,0.0012
1767.00,0.0012
1766.00,0.0011
1765.00,0.0011
1764.00,0.0011
1763.00,0.0011
1762.00,0.0012
1761.00,0.0013
1760.00,0.0013
1759.00,0.0013
1758.00,0.0013
1757.00,0.0013
1756.00,0.0013
1755.00,0.0014
1754.00,0.0015
1753.00,0.0015
1752.00,0.0015
1751.00,0.0015
1750.00,0.0015
1749.00,0.0015
1748.00,0.0015
1747.00,0.0015
1746.00,0.0016
1745.00,0.0016
1744.00,0.0016
1743.00,0.0016
1742.00,0.0015
1741.00,0.0014
1740.00,0.0013
1739.00,0.0013
1738.00,0.0014
1737.00,0.0013
1736.00,0.0013
1735.00,0.0011
1734.00,0.0010
1733.00,0.0010
1732.00,0.0010
1731.00,0.0010
1730.00,0.0009
1729.00,0.0009
1728.00,0.0009
1727.00,0.0010
1726.00,0.0010
1725.00,0.0012
1724.00,0.0013
1723.00,0.0014
1722.00,0.0014
1721.00,0.0014
1720.00,0.0014
1719.00,0.0015
1718.00,0.0016
1717.00,0.0018
1716.00,0.0020
1715.00,0.0021
1714.00,0.0022
1713.00,0.0022
1712.00,0.0023
1711.00,0.0023
1710.00,0.0024
1709.00,0.0024
1708.00,0.0024
1707.00,0.0025
1706.00,0.0025
1705.00,0.0025
1704.00,0.0026
1703.00,0.0026
1702.00,0.0027
1701.00,0.0027
1700.00,0.0028
1699.00,0.0029
1698.00,0.0030
1697.00,0.0030
1696.00,0.0031
1695.00,0.0032
1694.00,0.0034
1693.00,0.0035
1692.00,0.0035
1691.00,0.0036
1690.00,0.0036
1689.00,0.0037
1688.00,0.0038
1687.00,0.0039
1686.00,0.0040
1685.00,0.0041
1684.00,0.0044
1683.00,0.0046
1682.00,0.0047
1681.00,0.0047
1680.00,0.0048
1679.00,0.0048
1678.00,0.0049
1677.00,0.0049
1676.00,0.0050
1675.00,0.0051
1674.00,0.0052
1673.00,0.0053
1672.00,0.0053
1671.00,0.0053
1670.00,0.0054
1669.00,0.0055
1668.00,0.0056
1667.00,0.0057
1666.00,0.0058
1665.00,0.0058
1664.00,0.0059
1663.00,0.0060
1662.00,0.0061
1661.00,0.0063
1660.00,0.0064
1659.00,0.0064
1658.00,0.0065
1657.00,0.0065
1656.00,0.0066
1655.00,0.0066
1654.00,0.0067
1653.00,0.0069
1652.00,0.0073
1651.00,0.0075
1650.00,0.0075
1649.00,0.0076
1648.00,0.0077
1647.00,0.0078
1646.00,0.0079
1645.00,0.0080
1644.00,0.0080
1643.00,0.0079
1642.00,0.0079
1641.00,0.0080
1640.00,0.0080
1639.00,0.0080
1638.00,0.0080
1637.00,0.0080
1636.00,0.0080
1635.00,0.0080
1634.00,0.0080
1633.00,0.0080
1632.00,0.0080
1631.00,0.0079
1630.00,0.0079
1629.00,0.0078
1628.00,0.0078
1627.00,0.0077
1626.00,0.0076
1625.00,0.0075
1624.00,0.0075
1623.00,0.0075
1622.00,0.0075
1621.00,0.0075
1620.00,0.0075
1619.00,0.0075
1618.00,0.0074
1617.00,0.0073
1616.00,0.0074
1615.00,0.0074
1614.00,0.0074
1613.00,0.0074
1612.00,0.0074
1611.00,0.0074
1610.00,0.0074
1609.00,0.0074
1608.00,0.0074
1607.00,0.0074
1606.00,0.0073
1605.00,0.0074
1604.00,0.0074
1603.00,0.0074
1602.00,0.0074
1601.00,0.0074
1600.00,0.0073
1599.00,0.0073
1598.00,0.0072
1597.00,0.0072
1596.00,0.0072
1595.00,0.0072
1594.00,0.0073
1593.00,0.0073
1592.00,0.0073
1591.00,0.0073
1590.00,0.0074
1589.00,0.0075
1588.00,0.0076
1587.00,0.0077
1586.00,0.0079
1585.00,0.0081
1584.00,0.0083
1583.00,0.0086
1582.00,0.0088
1581.00,0.0091
1580.00,0.0094
1579.00,0.0096
1578.00,0.0097
1577.00,0.0097
1576.00,0.0096
1575.00,0.0094
1574.00,0.0093
1573.00,0.0091
1572.00,0.0090
1571.00,0.0088
1570.00,0.0085
1569.00,0.0083
1568.00,0.0082
1567.00,0.0082
1566.00,0.0081
1565.00,0.0081
1564.00,0.0081
1563.00,0.0081
1562.00,0.0081
1561.00,0.0081
1560.00,0.0082
1559.00,0.0082
1558.00,0.0083
1557.00,0.0085
1556.00,0.0086
1555.00,0.0086
1554.00,0.0087
1553.00,0.0088
1552.00,0.0090
1551.00,0.0091
1550.00,0.0092
1549.00,0.0094
1548.00,0.0096
1547.00,0.0098
1546.00,0.0101
1545.00,0.0105
1544.00,0.0109
1543.00,0.0113
1542.00,0.0115
1541.00,0.0115
1540.00,0.0113
1539.00,0.0109
1538.00,0.0106
1537.00,0.0103
1536.00,0.0099
1535.00,0.0095
1534.00,0.0090
1533.00,0.0086
1532.00,0.0083
1531.00,0.0081
1530.00,0.0079
1529.00,0.0077
1528.00,0.0075
1527.00,0.0073
1526.00,0.0072
1525.00,0.0070
1524.00,0.0070
1523.00,0.0070
1522.00,0.0069
1521.00,0.0069
1520.00,0.0069
1519.00,0.0068
1518.00,0.0067
1517.00,0.0067
1516.00,0.0067
1515.00,0.0067
1514.00,0.0066
1513.00,0.0067
1512.00,0.0067
1511.00,0.0067
1510.00,0.0067
1509.00,0.0068
1508.00,0.0069
1507.00,0.0069
1506.00,0.0069
1505.00,0.0070
1504.00,0.0071
1503.00,0.0072
1502.00,0.0073
1501.00,0.0075
1500.00,0.0078
1499.00,0.0081
1498.00,0.0084
1497.00,0.0088
1496.00,0.0093
1495.00,0.0097
1494.00,0.0099
1493.00,0.0102
1492.00,0.0105
1491.00,0.0107
1490.00,0.0111
1489.00,0.0117
1488.00,0.0123
1487.00,0.0128
1486.00,0.0133
1485.00,0.0139
1484.00,0.0146
1483.00,0.0154
1482.00,0.0164
1481.00,0.0176
1480.00,0.0189
1479.00,0.0202
1478.00,0.0217
1477.00,0.0236
1476.00,0.0258
1475.00,0.0282
1474.00,0.0316
1473.00,0.0366
1472.00,0.0428
1471.00,0.0489
1470.00,0.0548
1469.00,0.0610
1468.00,0.0677
1467.00,0.0752
1466.00,0.0837
1465.00,0.0930
1464.00,0.1014
1463.00,0.1075
1462.00,0.1118
1461.00,0.1150
1460.00,0.1175
1459.00,0.1194
1458.00,0.1212
1457.00,0.1230
1456.00,0.1240
1455.00,0.1242
1454.00,0.1238
1453.00,0.1228
1452.00,0.1208
1451.00,0.1174
1450.00,0.1123
1449.00,0.1049
1448.00,0.0953
1447.00,0.0850
1446.00,0.0755
1445.00,0.0675
1444.00,0.0606
1443.00,0.0551
1442.00,0.0510
1441.00,0.0482
1440.00,0.0466
1439.00,0.0458
1438.00,0.0458
1437.00,0.0457
1436.00,0.0445
1435.00,0.0418
1434.00,0.0379
1433.00,0.0333
1432.00,0.0285
1431.00,0.0244
1430.00,0.0212
1429.00,0.0190
1428.00,0.0175
1427.00,0.0166
1426.00,0.0161
1425.00,0.0156
1424.00,0.0151
1423.00,0.0148
1422.00,0.0146
1421.00,0.0144
1420.00,0.0141
1419.00,0.0139
1418.00,0.0137
1417.00,0.0134
1416.00,0.0132
1415.00,0.0131
1414.00,0.0129
1413.00,0.0128
1412.00,0.0125
1411.00,0.0124
1410.00,0.0123
1409.00,0.0122
1408.00,0.0121
1407.00,0.0122
1406.00,0.0123
1405.00,0.0123
1404.00,0.0122
1403.00,0.0122
1402.00,0.0124
1401.00,0.0125
1400.00,0.0127
1399.00,0.0129
1398.00,0.0132
1397.00,0.0134
1396.00,0.0136
1395.00,0.0140
1394.00,0.0145
1393.00,0.0149
1392.00,0.0155
1391.00,0.0163
1390.00,0.0176
1389.00,0.0194
1388.00,0.0220
1387.00,0.0259
1386.00,0.0310
1385.00,0.0373
1384.00,0.0456
1383.00,0.0568
1382.00,0.0714
1381.00,0.0900
1380.00,0.1128
1379.00,0.1387
1378.00,0.1640
1377.00,0.1830
1376.00,0.1903
1375.00,0.1823
1374.00,0.1609
1373.00,0.1341
1372.00,0.1089
1371.00,0.0878
1370.00,0.0708
1369.00,0.0578
1368.00,0.0488
1367.00,0.0432
1366.00,0.0401
1365.00,0.0389
1364.00,0.0391
1363.00,0.0406
1362.00,0.0428
1361.00,0.0451
1360.00,0.0468
1359.00,0.0472
1358.00,0.0460
1357.00,0.0433
1356.00,0.0395
1355.00,0.0352
1354.00,0.0310
1353.00,0.0274
1352.00,0.0245
1351.00,0.0221
1350.00,0.0203
1349.00,0.0187
1348.00,0.0175
1347.00,0.0166
1346.00,0.0159
1345.00,0.0154
1344.00,0.0149
1343.00,0.0146
1342.00,0.0142
1341.00,0.0140
1340.00,0.0137
1339.00,0.0135
1338.00,0.0133
1337.00,0.0132
1336.00,0.0132
1335.00,0.0133
1334.00,0.0136
1333.00,0.0141
1332.00,0.0145
1331.00,0.0149
1330.00,0.0151
1329.00,0.0149
1328.00,0.0146
1327.00,0.0140
1326.00,0.0133
1325.00,0.0127
1324.00,0.0120
1323.00,0.0115
1322.00,0.0110
1321.00,0.0107
1320.00,0.0104
1319.00,0.0101
1318.00,0.0098
1317.00,0.0096
1316.00,0.0095
1315.00,0.0094
1314.00,0.0094
1313.00,0.0094
1312.00,0.0095
1311.00,0.0098
1310.00,0.0103
1309.00,0.0110
1308.00,0.0121
1307.00,0.0134
1306.00,0.0146
1305.00,0.0155
1304.00,0.0158
1303.00,0.0154
1302.00,0.0148
1301.00,0.0141
1300.00,0.0137
1299.00,0.0134
1298.00,0.0133
1297.00,0.0132
1296.00,0.0131
1295.00,0.0127
1294.00,0.0123
1293.00,0.0117
1292.00,0.0110
1291.00,0.0104
1290.00,0.0098
1289.00,0.0094
1288.00,0.0090
1287.00,0.0087
1286.00,0.0085
1285.00,0.0083
1284.00,0.0081
1283.00,0.0079
1282.00,0.0078
1281.00,0.0076
1280.00,0.0075
1279.00,0.0074
1278.00,0.0073
1277.00,0.0072
1276.00,0.0072
1275.00,0.0072
1274.00,0.0072
1273.00,0.0072
1272.00,0.0072
1271.00,0.0073
1270.00,0.0073
1269.00,0.0075
1268.00,0.0077
1267.00,0.0079
1266.00,0.0082
1265.00,0.0086
1264.00,0.0089
1263.00,0.0093
1262.00,0.0097
1261.00,0.0103
1260.00,0.0111
1259.00,0.0119
1258.00,0.0128
1257.00,0.0135
1256.00,0.0139
1255.00,0.0138
1254.00,0.0131
1253.00,0.0122
1252.00,0.0113
1251.00,0.0105
1250.00,0.0099
1249.00,0.0096
1248.00,0.0094
1247.00,0.0092
1246.00,0.0091
1245.00,0.0091
1244.00,0.0090
1243.00,0.0090
1242.00,0.0090
1241.00,0.0089
1240.00,0.0089
1239.00,0.0088
1238.00,0.0087
1237.00,0.0087
1236.00,0.0086
1235.00,0.0086
1234.00,0.0085
1233.00,0.0085
1232.00,0.0085
1231.00,0.0086
1230.00,0.0087
1229.00,0.0088
1228.00,0.0089
1227.00,0.0090
1226.00,0.0092
1225.00,0.0095
1224.00,0.0098
1223.00,0.0102
1222.00,0.0105
1221.00,0.0108
1220.00,0.0111
1219.00,0.0111
1218.00,0.0111
1217.00,0.0109
1216.00,0.0107
1215.00,0.0103
1214.00,0.0100
1213.00,0.0096
1212.00,0.0093
1211.00,0.0090
1210.00,0.0087
1209.00,0.0086
1208.00,0.0085
1207.00,0.0084
1206.00,0.0083
1205.00,0.0083
1204.00,0.0083
1203.00,0.0083
1202.00,0.0083
1201.00,0.0083
1200.00,0.0083
1199.00,0.0083
1198.00,0.0084
1197.00,0.0084
1196.00,0.0084
1195.00,0.0084
1194.00,0.0084
1193.00,0.0084
1192.00,0.0084
1191.00,0.0084
1190.00,0.0084
1189.00,0.0084
1188.00,0.0084
1187.00,0.0085
1186.00,0.0086
1185.00,0.0088
1184.00,0.0089
1183.00,0.0091
1182.00,0.0092
1181.00,0.0094
1180.00,0.0097
1179.00,0.0102
1178.00,0.0108
1177.00,0.0117
1176.00,0.0130
1175.00,0.0147
1174.00,0.0170
1173.00,0.0199
1172.00,0.0234
1171.00,0.0272
1170.00,0.0309
1169.00,0.0340
1168.00,0.0360
1167.00,0.0366
1166.00,0.0360
1165.00,0.0344
1164.00,0.0323
1163.00,0.0300
1162.00,0.0279
1161.00,0.0261
1160.00,0.0247
1159.00,0.0235
1158.00,0.0227
1157.00,0.0220
1156.00,0.0216
1155.00,0.0212
1154.00,0.0209
1153.00,0.0205
1152.00,0.0200
1151.00,0.0193
1150.00,0.0184
1149.00,0.0175
1148.00,0.0165
1147.00,0.0156
1146.00,0.0147
1145.00,0.0138
1144.00,0.0131
1143.00,0.0124
1142.00,0.0117
1141.00,0.0112
1140.00,0.0106
1139.00,0.0102
1138.00,0.0098
1137.00,0.0095
1136.00,0.0092
1135.00,0.0090
1134.00,0.0089
1133.00,0.0088
1132.00,0.0087
1131.00,0.0087
1130.00,0.0088
1129.00,0.0089
1128.00,0.0090
1127.00,0.0091
1126.00,0.0092
1125.00,0.0092
1124.00,0.0092
1123.00,0.0092
1122.00,0.0092
1121.00,0.0093
1120.00,0.0095
1119.00,0.0097
1118.00,0.0100
1117.00,0.0102
1116.00,0.0104
1115.00,0.0106
1114.00,0.0108
1113.00,0.0110
1112.00,0.0112
1111.00,0.0114
1110.00,0.0116
1109.00,0.0120
1108.00,0.0125
1107.00,0.0131
1106.00,0.0139
1105.00,0.0146
1104.00,0.0152
1103.00,0.0156
1102.00,0.0156
1101.00,0.0153
1100.00,0.0147
1099.00,0.0141
1098.00,0.0135
1097.00,0.0128
1096.00,0.0123
1095.00,0.0118
1094.00,0.0114
1093.00,0.0111
1092.00,0.0109
1091.00,0.0107
1090.00,0.0105
1089.00,0.0103
1088.00,0.0100
1087.00,0.0099
1086.00,0.0098
1085.00,0.0096
1084.00,0.0095
1083.00,0.0094
1082.00,0.0093
1081.00,0.0093
1080.00,0.0092
1079.00,0.0090
1078.00,0.0088
1077.00,0.0085
1076.00,0.0083
1075.00,0.0081
1074.00,0.0081
1073.00,0.0081
1072.00,0.0081
1071.00,0.0082
1070.00,0.0082
1069.00,0.0082
1068.00,0.0083
1067.00,0.0084
1066.00,0.0085
1065.00,0.0086
1064.00,0.0086
1063.00,0.0087
1062.00,0.0087
1061.00,0.0088
1060.00,0.0088
1059.00,0.0090
1058.00,0.0090
1057.00,0.0090
1056.00,0.0090
1055.00,0.0089
1054.00,0.0090
1053.00,0.0091
1052.00,0.0093
1051.00,0.0094
1050.00,0.0096
1049.00,0.0099
1048.00,0.0101
1047.00,0.0105
1046.00,0.0108
1045.00,0.0111
1044.00,0.0112
1043.00,0.0111
1042.00,0.0109
1041.00,0.0107
1040.00,0.0105
1039.00,0.0104
1038.00,0.0104
1037.00,0.0104
1036.00,0.0105
1035.00,0.0105
1034.00,0.0105
1033.00,0.0104
1032.00,0.0102
1031.00,0.0101
1030.00,0.0100
1029.00,0.0099
1028.00,0.0098
1027.00,0.0098
1026.00,0.0098
1025.00,0.0099
1024.00,0.0099
1023.00,0.0100
1022.00,0.0100
1021.00,0.0100
1020.00,0.0101
1019.00,0.0102
1018.00,0.0104
1017.00,0.0106
1016.00,0.0108
1015.00,0.0111
1014.00,0.0115
1013.00,0.0119
1012.00,0.0124
1011.00,0.0128
1010.00,0.0132
1009.00,0.0136
1008.00,0.0141
1007.00,0.0148
1006.00,0.0157
1005.00,0.0170
1004.00,0.0188
1003.00,0.0212
1002.00,0.0244
1001.00,0.0284
1000.00,0.0328
999.00,0.0366
998.00,0.0386
997.00,0.0381
996.00,0.0353
995.00,0.0309
994.00,0.0262
993.00,0.0220
992.00,0.0187
991.00,0.0163
990.00,0.0146
989.00,0.0134
988.00,0.0127
987.00,0.0123
986.00,0.0122
985.00,0.0124
984.00,0.0129
983.00,0.0138
982.00,0.0150
981.00,0.0166
980.00,0.0189
979.00,0.0221
978.00,0.0261
977.00,0.0308
976.00,0.0360
975.00,0.0411
974.00,0.0450
973.00,0.0468
972.00,0.0458
971.00,0.0420
970.00,0.0363
969.00,0.0303
968.00,0.0249
967.00,0.0207
966.00,0.0176
965.00,0.0154
964.00,0.0138
963.00,0.0126
962.00,0.0117
961.00,0.0110
960.00,0.0104
959.00,0.0099
958.00,0.0094
957.00,0.0091
956.00,0.0088
955.00,0.0087
954.00,0.0085
953.00,0.0084
952.00,0.0083
951.00,0.0081
950.00,0.0080
949.00,0.0079
948.00,0.0080
947.00,0.0081
946.00,0.0084
945.00,0.0087
944.00,0.0090
943.00,0.0093
942.00,0.0096
941.00,0.0097
940.00,0.0097
939.00,0.0095
938.00,0.0091
937.00,0.0087
936.00,0.0082
935.00,0.0078
934.00,0.0075
933.00,0.0073
932.00,0.0070
931.00,0.0068
930.00,0.0066
929.00,0.0065
928.00,0.0065
927.00,0.0065
926.00,0.0065
925.00,0.0065
924.00,0.0066
923.00,0.0067
922.00,0.0068
921.00,0.0069
920.00,0.0069
919.00,0.0070
918.00,0.0071
917.00,0.0072
916.00,0.0074
915.00,0.0074
914.00,0.0075
913.00,0.0075
912.00,0.0075
911.00,0.0076
910.00,0.0078
909.00,0.0080
908.00,0.0082
907.00,0.0086
906.00,0.0093
905.00,0.0103
904.00,0.0118
903.00,0.0136
902.00,0.0157
901.00,0.0175
900.00,0.0187
899.00,0.0191
898.00,0.0184
897.00,0.0169
896.00,0.0151
895.00,0.0133
894.00,0.0118
893.00,0.0106
892.00,0.0097
891.00,0.0091
890.00,0.0086
889.00,0.0082
888.00,0.0079
887.00,0.0078
886.00,0.0077
885.00,0.0077
884.00,0.0077
883.00,0.0078
882.00,0.0079
881.00,0.0079
880.00,0.0078
879.00,0.0077
878.00,0.0076
877.00,0.0074
876.00,0.0074
875.00,0.0074
874.00,0.0074
873.00,0.0075
872.00,0.0076
871.00,0.0077
870.00,0.0077
869.00,0.0078
868.00,0.0078
867.00,0.0078
866.00,0.0079
865.00,0.0080
864.00,0.0081
863.00,0.0083
862.00,0.0085
861.00,0.0087
860.00,0.0089
859.00,0.0091
858.00,0.0092
857.00,0.0093
856.00,0.0095
855.00,0.0097
854.00,0.0098
853.00,0.0100
852.00,0.0103
851.00,0.0107
850.00,0.0114
849.00,0.0122
848.00,0.0133
847.00,0.0150
846.00,0.0177
845.00,0.0216
844.00,0.0268
843.00,0.0325
842.00,0.0371
841.00,0.0384
840.00,0.0361
839.00,0.0311
838.00,0.0257
837.00,0.0212
836.00,0.0181
835.00,0.0162
834.00,0.0150
833.00,0.0141
832.00,0.0135
831.00,0.0130
830.00,0.0127
829.00,0.0126
828.00,0.0124
827.00,0.0122
826.00,0.0120
825.00,0.0119
824.00,0.0118
823.00,0.0118
822.00,0.0117
821.00,0.0117
820.00,0.0117
819.00,0.0119
818.00,0.0123
817.00,0.0129
816.00,0.0137
815.00,0.0147
814.00,0.0159
813.00,0.0174
812.00,0.0190
811.00,0.0206
810.00,0.0219
809.00,0.0225
808.00,0.0223
807.00,0.0215
806.00,0.0201
805.00,0.0184
804.00,0.0167
803.00,0.0153
802.00,0.0141
801.00,0.0132
800.00,0.0125
799.00,0.0118
798.00,0.0113
797.00,0.0109
796.00,0.0107
795.00,0.0105
794.00,0.0102
793.00,0.0099
792.00,0.0095
791.00,0.0092
790.00,0.0091
789.00,0.0089
788.00,0.0086
787.00,0.0082
786.00,0.0077
785.00,0.0073
784.00,0.0071
783.00,0.0070
782.00,0.0070
781.00,0.0069
780.00,0.0067
779.00,0.0066
778.00,0.0066
777.00,0.0067
776.00,0.0069
775.00,0.0071
774.00,0.0074
773.00,0.0077
772.00,0.0079
771.00,0.0081
770.00,0.0083
769.00,0.0085
768.00,0.0087
767.00,0.0087
766.00,0.0087
765.00,0.0086
764.00,0.0085
763.00,0.0082
762.00,0.0079
761.00,0.0075
760.00,0.0071
759.00,0.0067
758.00,0.0064
757.00,0.0061
756.00,0.0060
755.00,0.0059
754.00,0.0058
753.00,0.0059
752.00,0.0060
751.00,0.0060
750.00,0.0060
749.00,0.0058
748.00,0.0057
747.00,0.0057
746.00,0.0057
745.00,0.0058
744.00,0.0059
743.00,0.0060
742.00,0.0062
741.00,0.0065
740.00,0.0067
739.00,0.0070
738.00,0.0072
737.00,0.0074
736.00,0.0076
735.00,0.0078
734.00,0.0079
733.00,0.0080
732.00,0.0080
731.00,0.0079
730.00,0.0079
729.00,0.0079
728.00,0.0079
727.00,0.0079
726.00,0.0079
725.00,0.0079
724.00,0.0078
723.00,0.0077
722.00,0.0076
721.00,0.0076
720.00,0.0075
719.00,0.0073
718.00,0.0071
717.00,0.0068
716.00,0.0065
715.00,0.0064
714.00,0.0063
713.00,0.0063
712.00,0.0063
711.00,0.0063
710.00,0.0063
709.00,0.0066
708.00,0.0068
707.00,0.0070
706.00,0.0071
705.00,0.0069
704.00,0.0067
703.00,0.0065
702.00,0.0064
701.00,0.0063
700.00,0.0064
699.00,0.0065
698.00,0.0066
697.00,0.0065
696.00,0.0063
695.00,0.0061
694.00,0.0060
693.00,0.0059
692.00,0.0059
691.00,0.0059
690.00,0.0060
689.00,0.0061
688.00,0.0062
687.00,0.0063
686.00,0.0064
685.00,0.0065
684.00,0.0066
683.00,0.0068
682.00,0.0069
681.00,0.0068
680.00,0.0066
679.00,0.0062
678.00,0.0059
677.00,0.0059
676.00,0.0061
675.00,0.0063
674.00,0.0066
673.00,0.0067
672.00,0.0068
671.00,0.0068
670.00,0.0068
669.00,0.0068
668.00,0.0067
667.00,0.0065
666.00,0.0064
665.00,0.0063
664.00,0.0063
663.00,0.0065
662.00,0.0066
661.00,0.0067
660.00,0.0067
659.00,0.0066
658.00,0.0065
657.00,0.0063
656.00,0.0061
655.00,0.0060
654.00,0.0060
653.00,0.0060
652.00,0.0061
651.00,0.0062
650.00,0.0061
649.00,0.0060
648.00,0.0060
647.00,0.0062
646.00,0.0063
645.00,0.0063
644.00,0.0062
643.00,0.0060
642.00,0.0060
641.00,0.0061
640.00,0.0062
639.00,0.0062
638.00,0.0062
637.00,0.0062
636.00,0.0063
635.00,0.0065
634.00,0.0067
633.00,0.0069
632.00,0.0070
631.00,0.0071
630.00,0.0071
629.00,0.0070
628.00,0.0068
627.00,0.0066
626.00,0.0065
625.00,0.0066
624.00,0.0067
623.00,0.0067
622.00,0.0066
621.00,0.0065
620.00,0.0065
619.00,0.0066
618.00,0.0067
617.00,0.0067
616.00,0.0066
615.00,0.0067
614.00,0.0070
613.00,0.0074
612.00,0.0076
611.00,0.0076
610.00,0.0074
609.00,0.0070
608.00,0.0067
607.00,0.0065
606.00,0.0064
605.00,0.0065
604.00,0.0066
603.00,0.0066
602.00,0.0065
601.00,0.0064
600.00,0.0066
599.00,0.0068
598.00,0.0069
597.00,0.0069
596.00,0.0069
595.00,0.0069
594.00,0.0069
593.00,0.0070
592.00,0.0070
591.00,0.0068
590.00,0.0067
589.00,0.0066
588.00,0.0065
587.00,0.0064
586.00,0.0064
585.00,0.0066
584.00,0.0069
583.00,0.0071
582.00,0.0072
581.00,0.0072
580.00,0.0073
579.00,0.0075
578.00,0.0078
577.00,0.0078
576.00,0.0075
575.00,0.0072
574.00,0.0070
573.00,0.0070
572.00,0.0071
571.00,0.0072
570.00,0.0072
569.00,0.0071
568.00,0.0070
567.00,0.0069
566.00,0.0070
565.00,0.0071
564.00,0.0073
563.00,0.0074
562.00,0.0074
561.00,0.0073
560.00,0.0071
559.00,0.0068
558.00,0.0065
557.00,0.0064
556.00,0.0065
555.00,0.0066
554.00,0.0067
553.00,0.0065
552.00,0.0064
551.00,0.0065
550.00,0.0069
549.00,0.0074
548.00,0.0078
547.00,0.0079
546.00,0.0076
545.00,0.0072
544.00,0.0069
543.00,0.0068
542.00,0.0068
541.00,0.0068
540.00,0.0070
539.00,0.0074
538.00,0.0078
537.00,0.0081
536.00,0.0082
535.00,0.0084
534.00,0.0086
533.00,0.0088
532.00,0.0088
531.00,0.0086
530.00,0.0085
529.00,0.0085
528.00,0.0087
527.00,0.0088
526.00,0.0088
525.00,0.0086
524.00,0.0084
523.00,0.0081
522.00,0.0078
521.00,0.0076
520.00,0.0075
519.00,0.0076
518.00,0.0078
517.00,0.0076
516.00,0.0073
515.00,0.0071
514.00,0.0071
513.00,0.0075
512.00,0.0080
511.00,0.0084
510.00,0.0086
509.00,0.0085
508.00,0.0083
507.00,0.0082
506.00,0.0083
505.00,0.0085
504.00,0.0086
503.00,0.0083
502.00,0.0079
501.00,0.0075
500.00,0.0073
499.00,0.0072
498.00,0.0071
497.00,0.0072
496.00,0.0074
495.00,0.0076
494.00,0.0078
493.00,0.0079
492.00,0.0078
491.00,0.0075
490.00,0.0071
489.00,0.0064
488.00,0.0058
487.00,0.0056
486.00,0.0058
485.00,0.0058
484.00,0.0054
483.00,0.0048
482.00,0.0044
481.00,0.0047
480.00,0.0056
479.00,0.0067
478.00,0.0078
477.00,0.0085
476.00,0.0087
475.00,0.0083
474.00,0.0072
473.00,0.0060
472.00,0.0055
471.00,0.0063
470.00,0.0077
469.00,0.0088
468.00,0.0094
467.00,0.0099
466.00,0.0110
465.00,0.0125
464.00,0.0141
463.00,0.0154
462.00,0.0165
461.00,0.0176
460.00,0.0188
459.00,0.0196
458.00,0.0194
457.00,0.0183
456.00,0.0167
455.00,0.0151
454.00,0.0134
453.00,0.0117
452.00,0.0104
451.00,0.0098
450.00,0.0097
