Created as New Dataset,Sample 121 By Administrator Date Tuesday, September 09 2025
cm-1,A
4000.00,0.0006
3999.00,0.0006
3998.00,0.0006
3997.00,0.0006
3996.00,0.0006
3995.00,0.0006
3994.00,0.0007
3993.00,0.0007
3992.00,0.0006
3991.00,0.0006
3990.00,0.0006
3989.00,0.0006
3988.00,0.0006
3987.00,0.0006
3986.00,0.0006
3985.00,0.0006
3984.00,0.0005
3983.00,0.0005
3982.00,0.0006
3981.00,0.0006
3980.00,0.0006
3979.00,0.0006
3978.00,0.0006
3977.00,0.0006
3976.00,0.0006
3975.00,0.0005
3974.00,0.0005
3973.00,0.0005
3972.00,0.0005
3971.00,0.0005
3970.00,0.0005
3969.00,0.0005
3968.00,0.0005
3967.00,0.0005
3966.00,0.0005
3965.00,0.0005
3964.00,0.0005
3963.00,0.0005
3962.00,0.0005
3961.00,0.0005
3960.00,0.0005
3959.00,0.0005
3958.00,0.0005
3957.00,0.0004
3956.00,0.0004
3955.00,0.0004
3954.00,0.0004
3953.00,0.0004
3952.00,0.0004
3951.00,0.0004
3950.00,0.0004
3949.00,0.0004
3948.00,0.0005
3947.00,0.0005
3946.00,0.0005
3945.00,0.0005
3944.00,0.0005
3943.00,0.0005
3942.00,0.0005
3941.00,0.0005
3940.00,0.0005
3939.00,0.0005
3938.00,0.0005
3937.00,0.0005
3936.00,0.0005
3935.00,0.0005
3934.00,0.0005
3933.00,0.0005
3932.00,0.0005
3931.00,0.0005
3930.00,0.0005
3929.00,0.0005
3928.00,0.0005
3927.00,0.0005
3926.00,0.0005
3925.00,0.0005
3924.00,0.0005
3923.00,0.0005
3922.00,0.0005
3921.00,0.0005
3920.00,0.0005
3919.00,0.0005
3918.00,0.0005
3917.00,0.0005
3916.00,0.0005
3915.00,0.0005
3914.00,0.0005
3913.00,0.0005
3912.00,0.0005
3911.00,0.0005
3910.00,0.0004
3909.00,0.0004
3908.00,0.0004
3907.00,0.0004
3906.00,0.0004
3905.00,0.0004
3904.00,0.0005
3903.00,0.0005
3902.00,0.0005
3901.00,0.0005
3900.00,0.0006
3899.00,0.0006
3898.00,0.0006
3897.00,0.0005
3896.00,0.0005
3895.00,0.0005
3894.00,0.0005
3893.00,0.0005
3892.00,0.0005
3891.00,0.0005
3890.00,0.0005
3889.00,0.0004
3888.00,0.0004
3887.00,0.0004
3886.00,0.0005
3885.00,0.0005
3884.00,0.0004
3883.00,0.0004
3882.00,0.0003
3881.00,0.0003
3880.00,0.0004
3879.00,0.0004
3878.00,0.0004
3877.00,0.0004
3876.00,0.0003
3875.00,0.0004
3874.00,0.0004
3873.00,0.0004
3872.00,0.0004
3871.00,0.0004
3870.00,0.0004
3869.00,0.0005
3868.00,0.0005
3867.00,0.0005
3866.00,0.0005
3865.00,0.0005
3864.00,0.0005
3863.00,0.0004
3862.00,0.0004
3861.00,0.0004
3860.00,0.0004
3859.00,0.0005
3858.00,0.0005
3857.00,0.0006
3856.00,0.0006
3855.00,0.0006
3854.00,0.0006
3853.00,0.0006
3852.00,0.0006
3851.00,0.0005
3850.00,0.0005
3849.00,0.0004
3848.00,0.0004
3847.00,0.0004
3846.00,0.0004
3845.00,0.0004
3844.00,0.0004
3843.00,0.0004
3842.00,0.0005
3841.00,0.0005
3840.00,0.0005
3839.00,0.0005
3838.00,0.0004
3837.00,0.0004
3836.00,0.0004
3835.00,0.0004
3834.00,0.0004
3833.00,0.0004
3832.00,0.0005
3831.00,0.0005
3830.00,0.0004
3829.00,0.0004
3828.00,0.0004
3827.00,0.0004
3826.00,0.0005
3825.00,0.0005
3824.00,0.0005
3823.00,0.0005
3822.00,0.0005
3821.00,0.0005
3820.00,0.0005
3819.00,0.0005
3818.00,0.0005
3817.00,0.0005
3816.00,0.0005
3815.00,0.0005
3814.00,0.0005
3813.00,0.0005
3812.00,0.0005
3811.00,0.0005
3810.00,0.0005
3809.00,0.0005
3808.00,0.0005
3807.00,0.0005
3806.00,0.0005
3805.00,0.0005
3804.00,0.0004
3803.00,0.0004
3802.00,0.0004
3801.00,0.0004
3800.00,0.0004
3799.00,0.0003
3798.00,0.0003
3797.00,0.0004
3796.00,0.0004
3795.00,0.0004
3794.00,0.0004
3793.00,0.0004
3792.00,0.0004
3791.00,0.0004
3790.00,0.0004
3789.00,0.0004
3788.00,0.0004
3787.00,0.0004
3786.00,0.0004
3785.00,0.0004
3784.00,0.0004
3783.00,0.0004
3782.00,0.0004
3781.00,0.0003
3780.00,0.0003
3779.00,0.0003
3778.00,0.0004
3777.00,0.0004
3776.00,0.0004
3775.00,0.0005
3774.00,0.0005
3773.00,0.0005
3772.00,0.0005
3771.00,0.0005
3770.00,0.0005
3769.00,0.0005
3768.00,0.0005
3767.00,0.0005
3766.00,0.0005
3765.00,0.0006
3764.00,0.0006
3763.00,0.0006
3762.00,0.0006
3761.00,0.0006
3760.00,0.0005
3759.00,0.0005
3758.00,0.0005
3757.00,0.0005
3756.00,0.0005
3755.00,0.0006
3754.00,0.0006
3753.00,0.0006
3752.00,0.0007
3751.00,0.0006
3750.00,0.0006
3749.00,0.0006
3748.00,0.0006
3747.00,0.0005
3746.00,0.0005
3745.00,0.0005
3744.00,0.0006
3743.00,0.0006
3742.00,0.0006
3741.00,0.0005
3740.00,0.0005
3739.00,0.0005
3738.00,0.0005
3737.00,0.0004
3736.00,0.0004
3735.00,0.0005
3734.00,0.0005
3733.00,0.0005
3732.00,0.0005
3731.00,0.0005
3730.00,0.0005
3729.00,0.0004
3728.00,0.0004
3727.00,0.0004
3726.00,0.0004
3725.00,0.0004
3724.00,0.0004
3723.00,0.0004
3722.00,0.0004
3721.00,0.0004
3720.00,0.0004
3719.00,0.0003
3718.00,0.0003
3717.00,0.0003
3716.00,0.0004
3715.00,0.0004
3714.00,0.0004
3713.00,0.0004
3712.00,0.0004
3711.00,0.0003
3710.00,0.0003
3709.00,0.0003
3708.00,0.0002
3707.00,0.0002
3706.00,0.0002
3705.00,0.0003
3704.00,0.0002
3703.00,0.0002
3702.00,0.0003
3701.00,0.0003
3700.00,0.0003
3699.00,0.0003
3698.00,0.0003
3697.00,0.0003
3696.00,0.0003
3695.00,0.0003
3694.00,0.0003
3693.00,0.0003
3692.00,0.0003
3691.00,0.0003
3690.00,0.0003
3689.00,0.0003
3688.00,0.0004
3687.00,0.0004
3686.00,0.0004
3685.00,0.0004
3684.00,0.0004
3683.00,0.0003
3682.00,0.0003
3681.00,0.0003
3680.00,0.0003
3679.00,0.0004
3678.00,0.0004
3677.00,0.0004
3676.00,0.0004
3675.00,0.0005
3674.00,0.0005
3673.00,0.0005
3672.00,0.0005
3671.00,0.0005
3670.00,0.0004
3669.00,0.0004
3668.00,0.0004
3667.00,0.0003
3666.00,0.0003
3665.00,0.0003
3664.00,0.0004
3663.00,0.0004
3662.00,0.0004
3661.00,0.0004
3660.00,0.0004
3659.00,0.0004
3658.00,0.0003
3657.00,0.0003
3656.00,0.0003
3655.00,0.0003
3654.00,0.0002
3653.00,0.0002
3652.00,0.0002
3651.00,0.0002
3650.00,0.0003
3649.00,0.0004
3648.00,0.0004
3647.00,0.0004
3646.00,0.0004
3645.00,0.0004
3644.00,0.0004
3643.00,0.0004
3642.00,0.0004
3641.00,0.0004
3640.00,0.0004
3639.00,0.0004
3638.00,0.0004
3637.00,0.0005
3636.00,0.0004
3635.00,0.0004
3634.00,0.0004
3633.00,0.0004
3632.00,0.0004
3631.00,0.0004
3630.00,0.0005
3629.00,0.0006
3628.00,0.0006
3627.00,0.0006
3626.00,0.0005
3625.00,0.0005
3624.00,0.0005
3623.00,0.0005
3622.00,0.0006
3621.00,0.0006
3620.00,0.0006
3619.00,0.0006
3618.00,0.0006
3617.00,0.0006
3616.00,0.0006
3615.00,0.0006
3614.00,0.0006
3613.00,0.0007
3612.00,0.0007
3611.00,0.0008
3610.00,0.0008
3609.00,0.0008
3608.00,0.0008
3607.00,0.0008
3606.00,0.0007
3605.00,0.0007
3604.00,0.0007
3603.00,0.0007
3602.00,0.0007
3601.00,0.0007
3600.00,0.0007
3599.00,0.0008
3598.00,0.0008
3597.00,0.0008
3596.00,0.0008
3595.00,0.0008
3594.00,0.0009
3593.00,0.0009
3592.00,0.0009
3591.00,0.0009
3590.00,0.0010
3589.00,0.0010
3588.00,0.0010
3587.00,0.0011
3586.00,0.0011
3585.00,0.0011
3584.00,0.0011
3583.00,0.0011
3582.00,0.0010
3581.00,0.0010
3580.00,0.0010
3579.00,0.0010
3578.00,0.0011
3577.00,0.0011
3576.00,0.0011
3575.00,0.0011
3574.00,0.0012
3573.00,0.0012
3572.00,0.0013
3571.00,0.0013
3570.00,0.0013
3569.00,0.0014
3568.00,0.0014
3567.00,0.0014
3566.00,0.0014
3565.00,0.0014
3564.00,0.0014
3563.00,0.0014
3562.00,0.0015
3561.00,0.0015
3560.00,0.0015
3559.00,0.0015
3558.00,0.0015
3557.00,0.0015
3556.00,0.0015
3555.00,0.0016
3554.00,0.0016
3553.00,0.0017
3552.00,0.0017
3551.00,0.0017
3550.00,0.0017
3549.00,0.0017
3548.00,0.0017
3547.00,0.0018
3546.00,0.0018
3545.00,0.0018
3544.00,0.0018
3543.00,0.0018
3542.00,0.0018
3541.00,0.0019
3540.00,0.0019
3539.00,0.0020
3538.00,0.0020
3537.00,0.0020
3536.00,0.0020
3535.00,0.0020
3534.00,0.0020
3533.00,0.0021
3532.00,0.0021
3531.00,0.0021
3530.00,0.0021
3529.00,0.0021
3528.00,0.0021
3527.00,0.0022
3526.00,0.0023
3525.00,0.0023
3524.00,0.0023
3523.00,0.0023
3522.00,0.0023
3521.00,0.0022
3520.00,0.0022
3519.00,0.0022
3518.00,0.0021
3517.00,0.0021
3516.00,0.0022
3515.00,0.0022
3514.00,0.0023
3513.00,0.0023
3512.00,0.0024
3511.00,0.0024
3510.00,0.0025
3509.00,0.0025
3508.00,0.0025
3507.00,0.0025
3506.00,0.0025
3505.00,0.0025
3504.00,0.0025
3503.00,0.0025
3502.00,0.0026
3501.00,0.0026
3500.00,0.0027
3499.00,0.0027
3498.00,0.0027
3497.00,0.0027
3496.00,0.0027
3495.00,0.0027
3494.00,0.0027
3493.00,0.0028
3492.00,0.0029
3491.00,0.0029
3490.00,0.0029
3489.00,0.0029
3488.00,0.0028
3487.00,0.0028
3486.00,0.0029
3485.00,0.0029
3484.00,0.0029
3483.00,0.0030
3482.00,0.0030
3481.00,0.0031
3480.00,0.0031
3479.00,0.0031
3478.00,0.0031
3477.00,0.0031
3476.00,0.0032
3475.00,0.0031
3474.00,0.0031
3473.00,0.0031
3472.00,0.0031
3471.00,0.0031
3470.00,0.0032
3469.00,0.0032
3468.00,0.0032
3467.00,0.0033
3466.00,0.0033
3465.00,0.0033
3464.00,0.0033
3463.00,0.0033
3462.00,0.0033
3461.00,0.0033
3460.00,0.0034
3459.00,0.0034
3458.00,0.0035
3457.00,0.0035
3456.00,0.0035
3455.00,0.0035
3454.00,0.0036
3453.00,0.0036
3452.00,0.0036
3451.00,0.0036
3450.00,0.0036
3449.00,0.0036
3448.00,0.0036
3447.00,0.0037
3446.00,0.0037
3445.00,0.0037
3444.00,0.0037
3443.00,0.0037
3442.00,0.0037
3441.00,0.0037
3440.00,0.0037
3439.00,0.0038
3438.00,0.0038
3437.00,0.0038
3436.00,0.0038
3435.00,0.0038
3434.00,0.0039
3433.00,0.0039
3432.00,0.0040
3431.00,0.0040
3430.00,0.0041
3429.00,0.0041
3428.00,0.0041
3427.00,0.0041
3426.00,0.0041
3425.00,0.0042
3424.00,0.0042
3423.00,0.0042
3422.00,0.0042
3421.00,0.0042
3420.00,0.0042
3419.00,0.0043
3418.00,0.0043
3417.00,0.0043
3416.00,0.0044
3415.00,0.0045
3414.00,0.0045
3413.00,0.0045
3412.00,0.0045
3411.00,0.0046
3410.00,0.0046
3409.00,0.0046
3408.00,0.0046
3407.00,0.0047
3406.00,0.0047
3405.00,0.0047
3404.00,0.0047
3403.00,0.0047
3402.00,0.0047
3401.00,0.0048
3400.00,0.0049
3399.00,0.0049
3398.00,0.0050
3397.00,0.0050
3396.00,0.0050
3395.00,0.0051
3394.00,0.0051
3393.00,0.0051
3392.00,0.0050
3391.00,0.0050
3390.00,0.0050
3389.00,0.0049
3388.00,0.0049
3387.00,0.0049
3386.00,0.0049
3385.00,0.0049
3384.00,0.0049
3383.00,0.0049
3382.00,0.0049
3381.00,0.0049
3380.00,0.0049
3379.00,0.0049
3378.00,0.0049
3377.00,0.0049
3376.00,0.0048
3375.00,0.0048
3374.00,0.0048
3373.00,0.0048
3372.00,0.0049
3371.00,0.0050
3370.00,0.0050
3369.00,0.0050
3368.00,0.0050
3367.00,0.0050
3366.00,0.0050
3365.00,0.0050
3364.00,0.0050
3363.00,0.0050
3362.00,0.0050
3361.00,0.0050
3360.00,0.0050
3359.00,0.0050
3358.00,0.0050
3357.00,0.0051
3356.00,0.0051
3355.00,0.0051
3354.00,0.0051
3353.00,0.0051
3352.00,0.0051
3351.00,0.0050
3350.00,0.0050
3349.00,0.0050
3348.00,0.0051
3347.00,0.0051
3346.00,0.0051
3345.00,0.0051
3344.00,0.0051
3343.00,0.0051
3342.00,0.0051
3341.00,0.0051
3340.00,0.0051
3339.00,0.0051
3338.00,0.0051
3337.00,0.0051
3336.00,0.0051
3335.00,0.0051
3334.00,0.0052
3333.00,0.0052
3332.00,0.0052
3331.00,0.0052
3330.00,0.0051
3329.00,0.0051
3328.00,0.0051
3327.00,0.0051
3326.00,0.0051
3325.00,0.0051
3324.00,0.0051
3323.00,0.0051
3322.00,0.0050
3321.00,0.0050
3320.00,0.0050
3319.00,0.0050
3318.00,0.0050
3317.00,0.0051
3316.00,0.0051
3315.00,0.0052
3314.00,0.0052
3313.00,0.0052
3312.00,0.0051
3311.00,0.0051
3310.00,0.0051
3309.00,0.0051
3308.00,0.0051
3307.00,0.0050
3306.00,0.0050
3305.00,0.0050
3304.00,0.0051
3303.00,0.0051
3302.00,0.0051
3301.00,0.0051
3300.00,0.0051
3299.00,0.0051
3298.00,0.0051
3297.00,0.0051
3296.00,0.0051
3295.00,0.0051
3294.00,0.0051
3293.00,0.0051
3292.00,0.0052
3291.00,0.0052
3290.00,0.0052
3289.00,0.0052
3288.00,0.0051
3287.00,0.0051
3286.00,0.0050
3285.00,0.0050
3284.00,0.0050
3283.00,0.0050
3282.00,0.0050
3281.00,0.0050
3280.00,0.0050
3279.00,0.0050
3278.00,0.0050
3277.00,0.0049
3276.00,0.0048
3275.00,0.0048
3274.00,0.0048
3273.00,0.0048
3272.00,0.0048
3271.00,0.0048
3270.00,0.0048
3269.00,0.0048
3268.00,0.0048
3267.00,0.0048
3266.00,0.0047
3265.00,0.0047
3264.00,0.0046
3263.00,0.0046
3262.00,0.0045
3261.00,0.0045
3260.00,0.0045
3259.00,0.0045
3258.00,0.0045
3257.00,0.0044
3256.00,0.0044
3255.00,0.0044
3254.00,0.0044
3253.00,0.0044
3252.00,0.0044
3251.00,0.0044
3250.00,0.0044
3249.00,0.0044
3248.00,0.0043
3247.00,0.0043
3246.00,0.0043
3245.00,0.0043
3244.00,0.0043
3243.00,0.0043
3242.00,0.0043
3241.00,0.0043
3240.00,0.0043
3239.00,0.0043
3238.00,0.0042
3237.00,0.0042
3236.00,0.0042
3235.00,0.0042
3234.00,0.0043
3233.00,0.0043
3232.00,0.0043
3231.00,0.0043
3230.00,0.0043
3229.00,0.0043
3228.00,0.0043
3227.00,0.0044
3226.00,0.0044
3225.00,0.0044
3224.00,0.0044
3223.00,0.0044
3222.00,0.0044
3221.00,0.0044
3220.00,0.0044
3219.00,0.0044
3218.00,0.0045
3217.00,0.0045
3216.00,0.0046
3215.00,0.0046
3214.00,0.0046
3213.00,0.0046
3212.00,0.0046
3211.00,0.0046
3210.00,0.0046
3209.00,0.0046
3208.00,0.0046
3207.00,0.0046
3206.00,0.0046
3205.00,0.0046
3204.00,0.0047
3203.00,0.0048
3202.00,0.0048
3201.00,0.0048
3200.00,0.0048
3199.00,0.0048
3198.00,0.0048
3197.00,0.0048
3196.00,0.0048
3195.00,0.0047
3194.00,0.0047
3193.00,0.0048
3192.00,0.0048
3191.00,0.0048
3190.00,0.0048
3189.00,0.0048
3188.00,0.0048
3187.00,0.0048
3186.00,0.0048
3185.00,0.0048
3184.00,0.0047
3183.00,0.0047
3182.00,0.0047
3181.00,0.0046
3180.00,0.0046
3179.00,0.0046
3178.00,0.0045
3177.00,0.0044
3176.00,0.0044
3175.00,0.0044
3174.00,0.0043
3173.00,0.0043
3172.00,0.0043
3171.00,0.0043
3170.00,0.0042
3169.00,0.0042
3168.00,0.0042
3167.00,0.0041
3166.00,0.0041
3165.00,0.0041
3164.00,0.0041
3163.00,0.0041
3162.00,0.0041
3161.00,0.0041
3160.00,0.0040
3159.00,0.0040
3158.00,0.0040
3157.00,0.0040
3156.00,0.0040
3155.00,0.0040
3154.00,0.0039
3153.00,0.0038
3152.00,0.0038
3151.00,0.0038
3150.00,0.0038
3149.00,0.0038
3148.00,0.0038
3147.00,0.0038
3146.00,0.0038
3145.00,0.0038
3144.00,0.0038
3143.00,0.0038
3142.00,0.0038
3141.00,0.0038
3140.00,0.0038
3139.00,0.0037
3138.00,0.0037
3137.00,0.0037
3136.00,0.0037
3135.00,0.0037
3134.00,0.0037
3133.00,0.0037
3132.00,0.0036
3131.00,0.0036
3130.00,0.0035
3129.00,0.0034
3128.00,0.0034
3127.00,0.0034
3126.00,0.0034
3125.00,0.0034
3124.00,0.0033
3123.00,0.0033
3122.00,0.0032
3121.00,0.0032
3120.00,0.0031
3119.00,0.0031
3118.00,0.0031
3117.00,0.0031
3116.00,0.0031
3115.00,0.0032
3114.00,0.0032
3113.00,0.0032
3112.00,0.0032
3111.00,0.0032
3110.00,0.0032
3109.00,0.0031
3108.00,0.0031
3107.00,0.0031
3106.00,0.0031
3105.00,0.0031
3104.00,0.0030
3103.00,0.0030
3102.00,0.0030
3101.00,0.0030
3100.00,0.0030
3099.00,0.0030
3098.00,0.0030
3097.00,0.0030
3096.00,0.0029
3095.00,0.0029
3094.00,0.0029
3093.00,0.0029
3092.00,0.0030
3091.00,0.0029
3090.00,0.0029
3089.00,0.0029
3088.00,0.0029
3087.00,0.0029
3086.00,0.0029
3085.00,0.0029
3084.00,0.0029
3083.00,0.0029
3082.00,0.0028
3081.00,0.0028
3080.00,0.0029
3079.00,0.0029
3078.00,0.0029
3077.00,0.0029
3076.00,0.0029
3075.00,0.0029
3074.00,0.0029
3073.00,0.0029
3072.00,0.0029
3071.00,0.0029
3070.00,0.0029
3069.00,0.0029
3068.00,0.0028
3067.00,0.0028
3066.00,0.0029
3065.00,0.0029
3064.00,0.0030
3063.00,0.0030
3062.00,0.0030
3061.00,0.0031
3060.00,0.0031
3059.00,0.0031
3058.00,0.0031
3057.00,0.0031
3056.00,0.0031
3055.00,0.0031
3054.00,0.0031
3053.00,0.0031
3052.00,0.0031
3051.00,0.0032
3050.00,0.0032
3049.00,0.0033
3048.00,0.0033
3047.00,0.0033
3046.00,0.0032
3045.00,0.0032
3044.00,0.0033
3043.00,0.0033
3042.00,0.0033
3041.00,0.0033
3040.00,0.0033
3039.00,0.0034
3038.00,0.0034
3037.00,0.0034
3036.00,0.0034
3035.00,0.0035
3034.00,0.0035
3033.00,0.0036
3032.00,0.0036
3031.00,0.0036
3030.00,0.0037
3029.00,0.0037
3028.00,0.0038
3027.00,0.0038
3026.00,0.0039
3025.00,0.0039
3024.00,0.0039
3023.00,0.0040
3022.00,0.0041
3021.00,0.0041
3020.00,0.0042
3019.00,0.0042
3018.00,0.0043
3017.00,0.0044
3016.00,0.0045
3015.00,0.0046
3014.00,0.0047
3013.00,0.0049
3012.00,0.0050
3011.00,0.0052
3010.00,0.0053
3009.00,0.0054
3008.00,0.0055
3007.00,0.0057
3006.00,0.0058
3005.00,0.0060
3004.00,0.0062
3003.00,0.0064
3002.00,0.0066
3001.00,0.0069
3000.00,0.0071
2999.00,0.0074
2998.00,0.0077
2997.00,0.0080
2996.00,0.0084
2995.00,0.0088
2994.00,0.0092
2993.00,0.0097
2992.00,0.0102
2991.00,0.0107
2990.00,0.0113
2989.00,0.0120
2988.00,0.0127
2987.00,0.0136
2986.00,0.0146
2985.00,0.0157
2984.00,0.0168
2983.00,0.0182
2982.00,0.0196
2981.00,0.0213
2980.00,0.0231
2979.00,0.0252
2978.00,0.0275
2977.00,0.0303
2976.00,0.0333
2975.00,0.0368
2974.00,0.0408
2973.00,0.0452
2972.00,0.0502
2971.00,0.0556
2970.00,0.0617
2969.00,0.0682
2968.00,0.0752
2967.00,0.0826
2966.00,0.0902
2965.00,0.0976
2964.00,0.1048
2963.00,0.1113
2962.00,0.1171
2961.00,0.1222
2960.00,0.1266
2959.00,0.1310
2958.00,0.1356
2957.00,0.1410
2956.00,0.1475
2955.00,0.1551
2954.00,0.1637
2953.00,0.1728
2952.00,0.1814
2951.00,0.1885
2950.00,0.1929
2949.00,0.1935
2948.00,0.1899
2947.00,0.1820
2946.00,0.1707
2945.00,0.1575
2944.00,0.1440
2943.00,0.1317
2942.00,0.1216
2941.00,0.1140
2940.00,0.1092
2939.00,0.1068
2938.00,0.1068
2937.00,0.1088
2936.00,0.1126
2935.00,0.1180
2934.00,0.1250
2933.00,0.1333
2932.00,0.1428
2931.00,0.1533
2930.00,0.1646
2929.00,0.1762
2928.00,0.1879
2927.00,0.1994
2926.00,0.2105
2925.00,0.2211
2924.00,0.2315
2923.00,0.2417
2922.00,0.2519
2921.00,0.2618
2920.00,0.2708
2919.00,0.2781
2918.00,0.2826
2917.00,0.2835
2916.00,0.2805
2915.00,0.2740
2914.00,0.2647
2913.00,0.2537
2912.00,0.2422
2911.00,0.2308
2910.00,0.2201
2909.00,0.2101
2908.00,0.2007
2907.00,0.1919
2906.00,0.1834
2905.00,0.1752
2904.00,0.1672
2903.00,0.1594
2902.00,0.1520
2901.00,0.1449
2900.00,0.1382
2899.00,0.1319
2898.00,0.1261
2897.00,0.1210
2896.00,0.1164
2895.00,0.1125
2894.00,0.1094
2893.00,0.1069
2892.00,0.1052
2891.00,0.1041
2890.00,0.1036
2889.00,0.1036
2888.00,0.1041
2887.00,0.1049
2886.00,0.1061
2885.00,0.1078
2884.00,0.1099
2883.00,0.1126
2882.00,0.1158
2881.00,0.1194
2880.00,0.1230
2879.00,0.1262
2878.00,0.1285
2877.00,0.1297
2876.00,0.1298
2875.00,0.1291
2874.00,0.1283
2873.00,0.1278
2872.00,0.1281
2871.00,0.1294
2870.00,0.1314
2869.00,0.1335
2868.00,0.1351
2867.00,0.1351
2866.00,0.1326
2865.00,0.1272
2864.00,0.1192
2863.00,0.1094
2862.00,0.0990
2861.00,0.0891
2860.00,0.0805
2859.00,0.0735
2858.00,0.0681
2857.00,0.0641
2856.00,0.0614
2855.00,0.0596
2854.00,0.0587
2853.00,0.0584
2852.00,0.0588
2851.00,0.0599
2850.00,0.0616
2849.00,0.0640
2848.00,0.0673
2847.00,0.0714
2846.00,0.0764
2845.00,0.0821
2844.00,0.0886
2843.00,0.0956
2842.00,0.1027
2841.00,0.1095
2840.00,0.1153
2839.00,0.1192
2838.00,0.1204
2837.00,0.1183
2836.00,0.1128
2835.00,0.1044
2834.00,0.0940
2833.00,0.0830
2832.00,0.0724
2831.00,0.0629
2830.00,0.0548
2829.00,0.0482
2828.00,0.0429
2827.00,0.0387
2826.00,0.0352
2825.00,0.0323
2824.00,0.0300
2823.00,0.0280
2822.00,0.0264
2821.00,0.0250
2820.00,0.0238
2819.00,0.0228
2818.00,0.0219
2817.00,0.0211
2816.00,0.0203
2815.00,0.0197
2814.00,0.0191
2813.00,0.0185
2812.00,0.0180
2811.00,0.0174
2810.00,0.0168
2809.00,0.0162
2808.00,0.0156
2807.00,0.0149
2806.00,0.0143
2805.00,0.0136
2804.00,0.0129
2803.00,0.0123
2802.00,0.0118
2801.00,0.0113
2800.00,0.0110
2799.00,0.0106
2798.00,0.0104
2797.00,0.0101
2796.00,0.0099
2795.00,0.0096
2794.00,0.0094
2793.00,0.0091
2792.00,0.0088
2791.00,0.0085
2790.00,0.0082
2789.00,0.0080
2788.00,0.0077
2787.00,0.0075
2786.00,0.0073
2785.00,0.0071
2784.00,0.0069
2783.00,0.0067
2782.00,0.0065
2781.00,0.0063
2780.00,0.0062
2779.00,0.0060
2778.00,0.0058
2777.00,0.0057
2776.00,0.0056
2775.00,0.0056
2774.00,0.0055
2773.00,0.0054
2772.00,0.0054
2771.00,0.0053
2770.00,0.0053
2769.00,0.0052
2768.00,0.0052
2767.00,0.0052
2766.00,0.0052
2765.00,0.0051
2764.00,0.0051
2763.00,0.0050
2762.00,0.0050
2761.00,0.0050
2760.00,0.0049
2759.00,0.0049
2758.00,0.0049
2757.00,0.0048
2756.00,0.0048
2755.00,0.0048
2754.00,0.0049
2753.00,0.0049
2752.00,0.0049
2751.00,0.0049
2750.00,0.0048
2749.00,0.0048
2748.00,0.0048
2747.00,0.0048
2746.00,0.0049
2745.00,0.0050
2744.00,0.0051
2743.00,0.0051
2742.00,0.0052
2741.00,0.0054
2740.00,0.0055
2739.00,0.0056
2738.00,0.0058
2737.00,0.0059
2736.00,0.0061
2735.00,0.0063
2734.00,0.0065
2733.00,0.0066
2732.00,0.0068
2731.00,0.0070
2730.00,0.0072
2729.00,0.0074
2728.00,0.0077
2727.00,0.0080
2726.00,0.0083
2725.00,0.0086
2724.00,0.0088
2723.00,0.0089
2722.00,0.0088
2721.00,0.0086
2720.00,0.0083
2719.00,0.0079
2718.00,0.0075
2717.00,0.0072
2716.00,0.0069
2715.00,0.0066
2714.00,0.0063
2713.00,0.0061
2712.00,0.0058
2711.00,0.0056
2710.00,0.0054
2709.00,0.0053
2708.00,0.0051
2707.00,0.0050
2706.00,0.0048
2705.00,0.0047
2704.00,0.0046
2703.00,0.0045
2702.00,0.0044
2701.00,0.0043
2700.00,0.0043
2699.00,0.0043
2698.00,0.0042
2697.00,0.0042
2696.00,0.0041
2695.00,0.0041
2694.00,0.0041
2693.00,0.0041
2692.00,0.0041
2691.00,0.0041
2690.00,0.0041
2689.00,0.0041
2688.00,0.0041
2687.00,0.0040
2686.00,0.0040
2685.00,0.0040
2684.00,0.0040
2683.00,0.0040
2682.00,0.0040
2681.00,0.0041
2680.00,0.0041
2679.00,0.0041
2678.00,0.0041
2677.00,0.0041
2676.00,0.0041
2675.00,0.0041
2674.00,0.0041
2673.00,0.0041
2672.00,0.0041
2671.00,0.0041
2670.00,0.0041
2669.00,0.0041
2668.00,0.0041
2667.00,0.0041
2666.00,0.0041
2665.00,0.0042
2664.00,0.0043
2663.00,0.0043
2662.00,0.0043
2661.00,0.0043
2660.00,0.0043
2659.00,0.0044
2658.00,0.0044
2657.00,0.0044
2656.00,0.0043
2655.00,0.0043
2654.00,0.0042
2653.00,0.0042
2652.00,0.0041
2651.00,0.0040
2650.00,0.0040
2649.00,0.0039
2648.00,0.0039
2647.00,0.0038
2646.00,0.0038
2645.00,0.0038
2644.00,0.0037
2643.00,0.0037
2642.00,0.0036
2641.00,0.0036
2640.00,0.0036
2639.00,0.0036
2638.00,0.0036
2637.00,0.0035
2636.00,0.0035
2635.00,0.0035
2634.00,0.0035
2633.00,0.0035
2632.00,0.0034
2631.00,0.0034
2630.00,0.0034
2629.00,0.0034
2628.00,0.0034
2627.00,0.0035
2626.00,0.0035
2625.00,0.0035
2624.00,0.0036
2623.00,0.0036
2622.00,0.0036
2621.00,0.0036
2620.00,0.0036
2619.00,0.0036
2618.00,0.0037
2617.00,0.0037
2616.00,0.0037
2615.00,0.0037
2614.00,0.0037
2613.00,0.0036
2612.00,0.0036
2611.00,0.0036
2610.00,0.0035
2609.00,0.0034
2608.00,0.0033
2607.00,0.0032
2606.00,0.0032
2605.00,0.0031
2604.00,0.0031
2603.00,0.0030
2602.00,0.0030
2601.00,0.0030
2600.00,0.0030
2599.00,0.0030
2598.00,0.0030
2597.00,0.0030
2596.00,0.0030
2595.00,0.0030
2594.00,0.0030
2593.00,0.0031
2592.00,0.0031
2591.00,0.0031
2590.00,0.0032
2589.00,0.0032
2588.00,0.0034
2587.00,0.0035
2586.00,0.0036
2585.00,0.0037
2584.00,0.0038
2583.00,0.0038
2582.00,0.0038
2581.00,0.0038
2580.00,0.0037
2579.00,0.0037
2578.00,0.0036
2577.00,0.0035
2576.00,0.0034
2575.00,0.0033
2574.00,0.0031
2573.00,0.0030
2572.00,0.0028
2571.00,0.0027
2570.00,0.0026
2569.00,0.0025
2568.00,0.0025
2567.00,0.0024
2566.00,0.0023
2565.00,0.0022
2564.00,0.0022
2563.00,0.0021
2562.00,0.0021
2561.00,0.0022
2560.00,0.0021
2559.00,0.0021
2558.00,0.0020
2557.00,0.0019
2556.00,0.0019
2555.00,0.0019
2554.00,0.0019
2553.00,0.0019
2552.00,0.0019
2551.00,0.0019
2550.00,0.0019
2549.00,0.0018
2548.00,0.0018
2547.00,0.0017
2546.00,0.0017
2545.00,0.0016
2544.00,0.0016
2543.00,0.0015
2542.00,0.0014
2541.00,0.0014
2540.00,0.0014
2539.00,0.0014
2538.00,0.0014
2537.00,0.0014
2536.00,0.0014
2535.00,0.0014
2534.00,0.0013
2533.00,0.0013
2532.00,0.0013
2531.00,0.0013
2530.00,0.0013
2529.00,0.0013
2528.00,0.0013
2527.00,0.0012
2526.00,0.0012
2525.00,0.0011
2524.00,0.0011
2523.00,0.0011
2522.00,0.0010
2521.00,0.0010
2520.00,0.0010
2519.00,0.0010
2518.00,0.0009
2517.00,0.0009
2516.00,0.0009
2515.00,0.0009
2514.00,0.0009
2513.00,0.0009
2512.00,0.0009
2511.00,0.0009
2510.00,0.0009
2509.00,0.0008
2508.00,0.0008
2507.00,0.0008
2506.00,0.0008
2505.00,0.0008
2504.00,0.0008
2503.00,0.0008
2502.00,0.0008
2501.00,0.0007
2500.00,0.0007
2499.00,0.0007
2498.00,0.0007
2497.00,0.0007
2496.00,0.0007
2495.00,0.0007
2494.00,0.0008
2493.00,0.0009
2492.00,0.0009
2491.00,0.0010
2490.00,0.0010
2489.00,0.0010
2488.00,0.0010
2487.00,0.0010
2486.00,0.0009
2485.00,0.0009
2484.00,0.0008
2483.00,0.0008
2482.00,0.0007
2481.00,0.0007
2480.00,0.0006
2479.00,0.0006
2478.00,0.0006
2477.00,0.0007
2476.00,0.0007
2475.00,0.0008
2474.00,0.0008
2473.00,0.0007
2472.00,0.0007
2471.00,0.0007
2470.00,0.0007
2469.00,0.0007
2468.00,0.0008
2467.00,0.0007
2466.00,0.0007
2465.00,0.0007
2464.00,0.0007
2463.00,0.0008
2462.00,0.0008
2461.00,0.0009
2460.00,0.0009
2459.00,0.0009
2458.00,0.0009
2457.00,0.0009
2456.00,0.0009
2455.00,0.0009
2454.00,0.0009
2453.00,0.0009
2452.00,0.0010
2451.00,0.0010
2450.00,0.0009
2449.00,0.0009
2448.00,0.0009
2447.00,0.0009
2446.00,0.0008
2445.00,0.0008
2444.00,0.0007
2443.00,0.0007
2442.00,0.0007
2441.00,0.0008
2440.00,0.0008
2439.00,0.0009
2438.00,0.0009
2437.00,0.0009
2436.00,0.0009
2435.00,0.0009
2434.00,0.0009
2433.00,0.0009
2432.00,0.0008
2431.00,0.0008
2430.00,0.0008
2429.00,0.0009
2428.00,0.0009
2427.00,0.0010
2426.00,0.0010
2425.00,0.0010
2424.00,0.0009
2423.00,0.0009
2422.00,0.0008
2421.00,0.0008
2420.00,0.0008
2419.00,0.0008
2418.00,0.0008
2417.00,0.0008
2416.00,0.0008
2415.00,0.0009
2414.00,0.0008
2413.00,0.0008
2412.00,0.0007
2411.00,0.0007
2410.00,0.0007
2409.00,0.0007
2408.00,0.0007
2407.00,0.0007
2406.00,0.0007
2405.00,0.0008
2404.00,0.0007
2403.00,0.0007
2402.00,0.0007
2401.00,0.0007
2400.00,0.0006
2399.00,0.0006
2398.00,0.0006
2397.00,0.0006
2396.00,0.0006
2395.00,0.0006
2394.00,0.0006
2393.00,0.0006
2392.00,0.0006
2391.00,0.0006
2390.00,0.0006
2389.00,0.0006
2388.00,0.0005
2387.00,0.0004
2386.00,0.0004
2385.00,0.0004
2384.00,0.0004
2383.00,0.0003
2382.00,0.0003
2381.00,0.0002
2380.00,0.0001
2379.00,0.0001
2378.00,0.0002
2377.00,0.0002
2376.00,0.0002
2375.00,0.0002
2374.00,0.0002
2373.00,0.0002
2372.00,0.0002
2371.00,0.0002
2370.00,0.0002
2369.00,0.0001
2368.00,0.0001
2367.00,0.0001
2366.00,0.0001
2365.00,0.0001
2364.00,0.0001
2363.00,0.0002
2362.00,0.0002
2361.00,0.0003
2360.00,0.0003
2359.00,0.0002
2358.00,0.0001
2357.00,0.0001
2356.00,0.0002
2355.00,0.0002
2354.00,0.0003
2353.00,0.0003
2352.00,0.0003
2351.00,0.0002
2350.00,0.0002
2349.00,0.0002
2348.00,0.0003
2347.00,0.0003
2346.00,0.0003
2345.00,0.0003
2344.00,0.0003
2343.00,0.0003
2342.00,0.0003
2341.00,0.0004
2340.00,0.0005
2339.00,0.0005
2338.00,0.0005
2337.00,0.0005
2336.00,0.0006
2335.00,0.0006
2334.00,0.0005
2333.00,0.0005
2332.00,0.0004
2331.00,0.0004
2330.00,0.0004
2329.00,0.0005
2328.00,0.0007
2327.00,0.0011
2326.00,0.0015
2325.00,0.0018
2324.00,0.0019
2323.00,0.0018
2322.00,0.0016
2321.00,0.0014
2320.00,0.0013
2319.00,0.0012
2318.00,0.0011
2317.00,0.0010
2316.00,0.0009
2315.00,0.0008
2314.00,0.0007
2313.00,0.0007
2312.00,0.0007
2311.00,0.0007
2310.00,0.0007
2309.00,0.0007
2308.00,0.0007
2307.00,0.0007
2306.00,0.0007
2305.00,0.0007
2304.00,0.0007
2303.00,0.0008
2302.00,0.0008
2301.00,0.0009
2300.00,0.0009
2299.00,0.0009
2298.00,0.0009
2297.00,0.0010
2296.00,0.0010
2295.00,0.0011
2294.00,0.0012
2293.00,0.0013
2292.00,0.0014
2291.00,0.0014
2290.00,0.0015
2289.00,0.0015
2288.00,0.0016
2287.00,0.0016
2286.00,0.0016
2285.00,0.0016
2284.00,0.0015
2283.00,0.0015
2282.00,0.0015
2281.00,0.0015
2280.00,0.0015
2279.00,0.0015
2278.00,0.0015
2277.00,0.0015
2276.00,0.0015
2275.00,0.0014
2274.00,0.0014
2273.00,0.0013
2272.00,0.0012
2271.00,0.0011
2270.00,0.0010
2269.00,0.0010
2268.00,0.0010
2267.00,0.0010
2266.00,0.0009
2265.00,0.0009
2264.00,0.0009
2263.00,0.0009
2262.00,0.0009
2261.00,0.0009
2260.00,0.0010
2259.00,0.0011
2258.00,0.0011
2257.00,0.0010
2256.00,0.0010
2255.00,0.0009
2254.00,0.0008
2253.00,0.0008
2252.00,0.0007
2251.00,0.0007
2250.00,0.0008
2249.00,0.0009
2248.00,0.0009
2247.00,0.0010
2246.00,0.0010
2245.00,0.0010
2244.00,0.0010
2243.00,0.0010
2242.00,0.0009
2241.00,0.0008
2240.00,0.0007
2239.00,0.0006
2238.00,0.0006
2237.00,0.0006
2236.00,0.0006
2235.00,0.0006
2234.00,0.0006
2233.00,0.0006
2232.00,0.0006
2231.00,0.0005
2230.00,0.0005
2229.00,0.0006
2228.00,0.0008
2227.00,0.0009
2226.00,0.0010
2225.00,0.0009
2224.00,0.0007
2223.00,0.0006
2222.00,0.0005
2221.00,0.0006
2220.00,0.0007
2219.00,0.0007
2218.00,0.0007
2217.00,0.0007
2216.00,0.0008
2215.00,0.0008
2214.00,0.0008
2213.00,0.0006
2212.00,0.0005
2211.00,0.0003
2210.00,0.0003
2209.00,0.0004
2208.00,0.0005
2207.00,0.0006
2206.00,0.0005
2205.00,0.0004
2204.00,0.0003
2203.00,0.0003
2202.00,0.0004
2201.00,0.0005
2200.00,0.0007
2199.00,0.0007
2198.00,0.0007
2197.00,0.0006
2196.00,0.0005
2195.00,0.0004
2194.00,0.0002
2193.00,0.0002
2192.00,0.0003
2191.00,0.0006
2190.00,0.0008
2189.00,0.0009
2188.00,0.0009
2187.00,0.0009
2186.00,0.0010
2185.00,0.0010
2184.00,0.0009
2183.00,0.0008
2182.00,0.0007
2181.00,0.0007
2180.00,0.0008
2179.00,0.0010
2178.00,0.0012
2177.00,0.0012
2176.00,0.0010
2175.00,0.0008
2174.00,0.0005
2173.00,0.0004
2172.00,0.0004
2171.00,0.0006
2170.00,0.0009
2169.00,0.0012
2168.00,0.0013
2167.00,0.0013
2166.00,0.0011
2165.00,0.0009
2164.00,0.0008
2163.00,0.0008
2162.00,0.0010
2161.00,0.0007
2160.00,-0.0002
2159.00,-0.0015
2158.00,-0.0025
2157.00,-0.0027
2156.00,-0.0024
2155.00,-0.0021
2154.00,-0.0018
2153.00,-0.0016
2152.00,-0.0014
2151.00,-0.0014
2150.00,-0.0014
2149.00,-0.0015
2148.00,-0.0016
2147.00,-0.0017
2146.00,-0.0018
2145.00,-0.0018
2144.00,-0.0018
2143.00,-0.0017
2142.00,-0.0016
2141.00,-0.0014
2140.00,-0.0012
2139.00,-0.0010
2138.00,-0.0010
2137.00,-0.0011
2136.00,-0.0014
2135.00,-0.0017
2134.00,-0.0019
2133.00,-0.0018
2132.00,-0.0016
2131.00,-0.0015
2130.00,-0.0014
2129.00,-0.0013
2128.00,-0.0012
2127.00,-0.0010
2126.00,-0.0009
2125.00,-0.0008
2124.00,-0.0007
2123.00,-0.0007
2122.00,-0.0008
2121.00,-0.0008
2120.00,-0.0007
2119.00,-0.0006
2118.00,-0.0005
2117.00,-0.0003
2116.00,-0.0002
2115.00,-0.0002
2114.00,-0.0001
2113.00,-0.0000
2112.00,0.0001
2111.00,0.0002
2110.00,0.0002
2109.00,0.0002
2108.00,0.0002
2107.00,0.0000
2106.00,-0.0000
2105.00,0.0000
2104.00,0.0001
2103.00,0.0001
2102.00,0.0000
2101.00,-0.0000
2100.00,-0.0001
2099.00,-0.0000
2098.00,0.0000
2097.00,-0.0000
2096.00,-0.0001
2095.00,-0.0002
2094.00,-0.0002
2093.00,-0.0001
2092.00,0.0000
2091.00,0.0000
2090.00,-0.0000
2089.00,-0.0001
2088.00,-0.0002
2087.00,-0.0002
2086.00,-0.0001
2085.00,0.0000
2084.00,0.0002
2083.00,0.0003
2082.00,0.0004
2081.00,0.0005
2080.00,0.0004
2079.00,0.0003
2078.00,0.0002
2077.00,0.0002
2076.00,0.0002
2075.00,0.0002
2074.00,0.0001
2073.00,0.0000
2072.00,0.0000
2071.00,0.0001
2070.00,0.0002
2069.00,0.0002
2068.00,0.0002
2067.00,0.0001
2066.00,0.0000
2065.00,-0.0001
2064.00,-0.0003
2063.00,-0.0006
2062.00,-0.0008
2061.00,-0.0009
2060.00,-0.0008
2059.00,-0.0006
2058.00,-0.0004
2057.00,-0.0001
2056.00,0.0001
2055.00,0.0001
2054.00,0.0001
2053.00,0.0002
2052.00,0.0005
2051.00,0.0007
2050.00,0.0008
2049.00,0.0008
2048.00,0.0006
2047.00,0.0004
2046.00,0.0002
2045.00,-0.0001
2044.00,-0.0003
2043.00,-0.0003
2042.00,-0.0003
2041.00,-0.0001
2040.00,-0.0000
2039.00,-0.0000
2038.00,-0.0000
2037.00,0.0002
2036.00,0.0004
2035.00,0.0006
2034.00,0.0006
2033.00,0.0003
2032.00,-0.0000
2031.00,-0.0004
2030.00,-0.0007
2029.00,-0.0010
2028.00,-0.0012
2027.00,-0.0013
2026.00,-0.0015
2025.00,-0.0015
2024.00,-0.0015
2023.00,-0.0013
2022.00,-0.0011
2021.00,-0.0009
2020.00,-0.0008
2019.00,-0.0008
2018.00,-0.0008
2017.00,-0.0009
2016.00,-0.0010
2015.00,-0.0012
2014.00,-0.0012
2013.00,-0.0011
2012.00,-0.0010
2011.00,-0.0009
2010.00,-0.0009
2009.00,-0.0011
2008.00,-0.0014
2007.00,-0.0018
2006.00,-0.0020
2005.00,-0.0020
2004.00,-0.0020
2003.00,-0.0020
2002.00,-0.0018
2001.00,-0.0016
2000.00,-0.0013
1999.00,-0.0010
1998.00,-0.0009
1997.00,-0.0008
1996.00,-0.0007
1995.00,-0.0005
1994.00,-0.0004
1993.00,-0.0004
1992.00,-0.0005
1991.00,-0.0007
1990.00,-0.0008
1989.00,-0.0008
1988.00,-0.0008
1987.00,-0.0008
1986.00,-0.0006
1985.00,-0.0003
1984.00,-0.0000
1983.00,0.0002
1982.00,0.0004
1981.00,0.0006
1980.00,0.0007
1979.00,0.0004
1978.00,-0.0001
1977.00,-0.0004
1976.00,-0.0006
1975.00,-0.0008
1974.00,-0.0010
1973.00,-0.0012
1972.00,-0.0013
1971.00,-0.0011
1970.00,-0.0009
1969.00,-0.0008
1968.00,-0.0008
1967.00,-0.0011
1966.00,-0.0014
1965.00,-0.0016
1964.00,-0.0015
1963.00,-0.0014
1962.00,-0.0012
1961.00,-0.0012
1960.00,-0.0013
1959.00,-0.0015
1958.00,-0.0017
1957.00,-0.0016
1956.00,-0.0013
1955.00,-0.0010
1954.00,-0.0008
1953.00,-0.0008
1952.00,-0.0008
1951.00,-0.0009
1950.00,-0.0011
1949.00,-0.0012
1948.00,-0.0013
1947.00,-0.0013
1946.00,-0.0013
1945.00,-0.0013
1944.00,-0.0012
1943.00,-0.0011
1942.00,-0.0010
1941.00,-0.0009
1940.00,-0.0009
1939.00,-0.0009
1938.00,-0.0010
1937.00,-0.0011
1936.00,-0.0010
1935.00,-0.0009
1934.00,-0.0009
1933.00,-0.0009
1932.00,-0.0009
1931.00,-0.0009
1930.00,-0.0008
1929.00,-0.0007
1928.00,-0.0006
1927.00,-0.0007
1926.00,-0.0007
1925.00,-0.0005
1924.00,-0.0004
1923.00,-0.0003
1922.00,-0.0002
1921.00,-0.0002
1920.00,-0.0003
1919.00,-0.0004
1918.00,-0.0004
1917.00,-0.0004
1916.00,-0.0003
1915.00,-0.0003
1914.00,-0.0004
1913.00,-0.0004
1912.00,-0.0004
1911.00,-0.0004
1910.00,-0.0003
1909.00,-0.0003
1908.00,-0.0002
1907.00,-0.0002
1906.00,-0.0002
1905.00,-0.0003
1904.00,-0.0003
1903.00,-0.0003
1902.00,-0.0002
1901.00,-0.0001
1900.00,-0.0000
1899.00,-0.0001
1898.00,-0.0001
1897.00,-0.0001
1896.00,-0.0001
1895.00,-0.0001
1894.00,-0.0001
1893.00,-0.0001
1892.00,-0.0002
1891.00,-0.0002
1890.00,-0.0002
1889.00,-0.0001
1888.00,-0.0000
1887.00,0.0000
1886.00,-0.0000
1885.00,-0.0001
1884.00,-0.0002
1883.00,-0.0002
1882.00,-0.0003
1881.00,-0.0002
1880.00,-0.0002
1879.00,-0.0002
1878.00,-0.0003
1877.00,-0.0003
1876.00,-0.0004
1875.00,-0.0004
1874.00,-0.0004
1873.00,-0.0003
1872.00,-0.0003
1871.00,-0.0003
1870.00,-0.0003
1869.00,-0.0002
1868.00,-0.0002
1867.00,-0.0002
1866.00,-0.0002
1865.00,-0.0002
1864.00,-0.0001
1863.00,0.0000
1862.00,0.0001
1861.00,0.0001
1860.00,0.0001
1859.00,0.0000
1858.00,-0.0000
1857.00,-0.0000
1856.00,0.0000
1855.00,0.0001
1854.00,0.0001
1853.00,0.0001
1852.00,0.0001
1851.00,0.0001
1850.00,0.0001
1849.00,0.0000
1848.00,0.0000
1847.00,0.0000
1846.00,0.0000
1845.00,0.0001
1844.00,0.0002
1843.00,0.0002
1842.00,0.0002
1841.00,0.0002
1840.00,0.0002
1839.00,0.0003
1838.00,0.0003
1837.00,0.0004
1836.00,0.0004
1835.00,0.0003
1834.00,0.0003
1833.00,0.0002
1832.00,0.0002
1831.00,0.0002
1830.00,0.0002
1829.00,0.0002
1828.00,0.0002
1827.00,0.0002
1826.00,0.0002
1825.00,0.0002
1824.00,0.0002
1823.00,0.0003
1822.00,0.0003
1821.00,0.0003
1820.00,0.0002
1819.00,0.0001
1818.00,-0.0001
1817.00,-0.0003
1816.00,-0.0003
1815.00,-0.0002
1814.00,-0.0002
1813.00,-0.0000
1812.00,0.0000
1811.00,0.0001
1810.00,0.0001
1809.00,0.0002
1808.00,0.0002
1807.00,0.0003
1806.00,0.0003
1805.00,0.0004
1804.00,0.0004
1803.00,0.0004
1802.00,0.0003
1801.00,0.0003
1800.00,0.0003
1799.00,0.0003
1798.00,0.0004
1797.00,0.0004
1796.00,0.0004
1795.00,0.0004
1794.00,0.0004
1793.00,0.0004
1792.00,0.0004
1791.00,0.0004
1790.00,0.0004
1789.00,0.0004
1788.00,0.0004
1787.00,0.0004
1786.00,0.0004
1785.00,0.0004
1784.00,0.0004
1783.00,0.0004
1782.00,0.0004
1781.00,0.0004
1780.00,0.0003
1779.00,0.0002
1778.00,0.0002
1777.00,0.0001
1776.00,0.0001
1775.00,-0.0000
1774.00,-0.0001
1773.00,-0.0001
1772.00,-0.0001
1771.00,-0.0000
1770.00,0.0001
1769.00,0.0002
1768.00,0.0002
1767.00,0.0002
1766.00,0.0002
1765.00,0.0002
1764.00,0.0003
1763.00,0.0004
1762.00,0.0005
1761.00,0.0006
1760.00,0.0006
1759.00,0.0006
1758.00,0.0006
1757.00,0.0006
1756.00,0.0006
1755.00,0.0005
1754.00,0.0005
1753.00,0.0005
1752.00,0.0005
1751.00,0.0005
1750.00,0.0005
1749.00,0.0004
1748.00,0.0004
1747.00,0.0004
1746.00,0.0004
1745.00,0.0004
1744.00,0.0004
1743.00,0.0004
1742.00,0.0004
1741.00,0.0004
1740.00,0.0004
1739.00,0.0004
1738.00,0.0004
1737.00,0.0004
1736.00,0.0004
1735.00,0.0004
1734.00,0.0004
1733.00,0.0004
1732.00,0.0005
1731.00,0.0005
1730.00,0.0005
1729.00,0.0005
1728.00,0.0005
1727.00,0.0006
1726.00,0.0006
1725.00,0.0006
1724.00,0.0006
1723.00,0.0007
1722.00,0.0007
1721.00,0.0007
1720.00,0.0006
1719.00,0.0006
1718.00,0.0006
1717.00,0.0007
1716.00,0.0009
1715.00,0.0010
1714.00,0.0010
1713.00,0.0011
1712.00,0.0011
1711.00,0.0011
1710.00,0.0012
1709.00,0.0013
1708.00,0.0014
1707.00,0.0015
1706.00,0.0015
1705.00,0.0016
1704.00,0.0017
1703.00,0.0018
1702.00,0.0020
1701.00,0.0022
1700.00,0.0025
1699.00,0.0026
1698.00,0.0026
1697.00,0.0026
1696.00,0.0028
1695.00,0.0031
1694.00,0.0032
1693.00,0.0033
1692.00,0.0034
1691.00,0.0036
1690.00,0.0037
1689.00,0.0039
1688.00,0.0041
1687.00,0.0041
1686.00,0.0042
1685.00,0.0043
1684.00,0.0046
1683.00,0.0049
1682.00,0.0052
1681.00,0.0054
1680.00,0.0056
1679.00,0.0058
1678.00,0.0060
1677.00,0.0061
1676.00,0.0063
1675.00,0.0065
1674.00,0.0066
1673.00,0.0066
1672.00,0.0067
1671.00,0.0068
1670.00,0.0070
1669.00,0.0072
1668.00,0.0073
1667.00,0.0074
1666.00,0.0074
1665.00,0.0075
1664.00,0.0076
1663.00,0.0078
1662.00,0.0079
1661.00,0.0079
1660.00,0.0080
1659.00,0.0080
1658.00,0.0081
1657.00,0.0081
1656.00,0.0082
1655.00,0.0083
1654.00,0.0084
1653.00,0.0086
1652.00,0.0087
1651.00,0.0088
1650.00,0.0088
1649.00,0.0089
1648.00,0.0090
1647.00,0.0091
1646.00,0.0092
1645.00,0.0092
1644.00,0.0091
1643.00,0.0089
1642.00,0.0087
1641.00,0.0085
1640.00,0.0084
1639.00,0.0082
1638.00,0.0081
1637.00,0.0079
1636.00,0.0079
1635.00,0.0079
1634.00,0.0079
1633.00,0.0079
1632.00,0.0079
1631.00,0.0079
1630.00,0.0078
1629.00,0.0078
1628.00,0.0077
1627.00,0.0076
1626.00,0.0075
1625.00,0.0074
1624.00,0.0073
1623.00,0.0072
1622.00,0.0071
1621.00,0.0070
1620.00,0.0069
1619.00,0.0068
1618.00,0.0066
1617.00,0.0066
1616.00,0.0066
1615.00,0.0066
1614.00,0.0065
1613.00,0.0064
1612.00,0.0063
1611.00,0.0062
1610.00,0.0061
1609.00,0.0060
1608.00,0.0060
1607.00,0.0060
1606.00,0.0060
1605.00,0.0061
1604.00,0.0061
1603.00,0.0061
1602.00,0.0062
1601.00,0.0062
1600.00,0.0062
1599.00,0.0062
1598.00,0.0062
1597.00,0.0062
1596.00,0.0062
1595.00,0.0062
1594.00,0.0062
1593.00,0.0062
1592.00,0.0063
1591.00,0.0063
1590.00,0.0064
1589.00,0.0065
1588.00,0.0066
1587.00,0.0067
1586.00,0.0069
1585.00,0.0071
1584.00,0.0073
1583.00,0.0076
1582.00,0.0079
1581.00,0.0081
1580.00,0.0084
1579.00,0.0085
1578.00,0.0086
1577.00,0.0086
1576.00,0.0087
1575.00,0.0086
1574.00,0.0086
1573.00,0.0085
1572.00,0.0084
1571.00,0.0082
1570.00,0.0079
1569.00,0.0078
1568.00,0.0077
1567.00,0.0076
1566.00,0.0075
1565.00,0.0074
1564.00,0.0074
1563.00,0.0074
1562.00,0.0074
1561.00,0.0075
1560.00,0.0075
1559.00,0.0077
1558.00,0.0079
1557.00,0.0080
1556.00,0.0080
1555.00,0.0081
1554.00,0.0081
1553.00,0.0082
1552.00,0.0084
1551.00,0.0085
1550.00,0.0087
1549.00,0.0089
1548.00,0.0092
1547.00,0.0094
1546.00,0.0096
1545.00,0.0098
1544.00,0.0100
1543.00,0.0102
1542.00,0.0103
1541.00,0.0103
1540.00,0.0102
1539.00,0.0100
1538.00,0.0096
1537.00,0.0094
1536.00,0.0092
1535.00,0.0088
1534.00,0.0084
1533.00,0.0081
1532.00,0.0078
1531.00,0.0076
1530.00,0.0075
1529.00,0.0074
1528.00,0.0073
1527.00,0.0072
1526.00,0.0070
1525.00,0.0069
1524.00,0.0069
1523.00,0.0068
1522.00,0.0067
1521.00,0.0067
1520.00,0.0068
1519.00,0.0067
1518.00,0.0067
1517.00,0.0068
1516.00,0.0069
1515.00,0.0069
1514.00,0.0069
1513.00,0.0070
1512.00,0.0070
1511.00,0.0071
1510.00,0.0071
1509.00,0.0071
1508.00,0.0071
1507.00,0.0072
1506.00,0.0072
1505.00,0.0073
1504.00,0.0074
1503.00,0.0075
1502.00,0.0077
1501.00,0.0079
1500.00,0.0081
1499.00,0.0082
1498.00,0.0084
1497.00,0.0087
1496.00,0.0091
1495.00,0.0094
1494.00,0.0097
1493.00,0.0100
1492.00,0.0104
1491.00,0.0107
1490.00,0.0110
1489.00,0.0115
1488.00,0.0120
1487.00,0.0125
1486.00,0.0131
1485.00,0.0138
1484.00,0.0146
1483.00,0.0154
1482.00,0.0164
1481.00,0.0177
1480.00,0.0190
1479.00,0.0204
1478.00,0.0219
1477.00,0.0237
1476.00,0.0259
1475.00,0.0284
1474.00,0.0318
1473.00,0.0371
1472.00,0.0437
1471.00,0.0504
1470.00,0.0568
1469.00,0.0635
1468.00,0.0708
1467.00,0.0788
1466.00,0.0880
1465.00,0.0981
1464.00,0.1071
1463.00,0.1137
1462.00,0.1181
1461.00,0.1213
1460.00,0.1236
1459.00,0.1250
1458.00,0.1258
1457.00,0.1262
1456.00,0.1258
1455.00,0.1248
1454.00,0.1233
1453.00,0.1212
1452.00,0.1180
1451.00,0.1135
1450.00,0.1074
1449.00,0.0995
1448.00,0.0898
1447.00,0.0799
1446.00,0.0713
1445.00,0.0642
1444.00,0.0583
1443.00,0.0535
1442.00,0.0501
1441.00,0.0479
1440.00,0.0468
1439.00,0.0466
1438.00,0.0473
1437.00,0.0479
1436.00,0.0471
1435.00,0.0444
1434.00,0.0403
1433.00,0.0353
1432.00,0.0302
1431.00,0.0258
1430.00,0.0224
1429.00,0.0201
1428.00,0.0185
1427.00,0.0175
1426.00,0.0169
1425.00,0.0163
1424.00,0.0158
1423.00,0.0155
1422.00,0.0154
1421.00,0.0152
1420.00,0.0148
1419.00,0.0145
1418.00,0.0142
1417.00,0.0138
1416.00,0.0134
1415.00,0.0132
1414.00,0.0131
1413.00,0.0129
1412.00,0.0127
1411.00,0.0126
1410.00,0.0125
1409.00,0.0124
1408.00,0.0122
1407.00,0.0121
1406.00,0.0121
1405.00,0.0121
1404.00,0.0121
1403.00,0.0122
1402.00,0.0124
1401.00,0.0124
1400.00,0.0125
1399.00,0.0127
1398.00,0.0129
1397.00,0.0130
1396.00,0.0133
1395.00,0.0137
1394.00,0.0143
1393.00,0.0149
1392.00,0.0155
1391.00,0.0163
1390.00,0.0175
1389.00,0.0192
1388.00,0.0218
1387.00,0.0257
1386.00,0.0310
1385.00,0.0376
1384.00,0.0462
1383.00,0.0580
1382.00,0.0737
1381.00,0.0941
1380.00,0.1201
1379.00,0.1505
1378.00,0.1813
1377.00,0.2058
1376.00,0.2168
1375.00,0.2092
1374.00,0.1847
1373.00,0.1530
1372.00,0.1230
1371.00,0.0979
1370.00,0.0777
1369.00,0.0625
1368.00,0.0521
1367.00,0.0457
1366.00,0.0423
1365.00,0.0410
1364.00,0.0413
1363.00,0.0430
1362.00,0.0454
1361.00,0.0480
1360.00,0.0500
1359.00,0.0505
1358.00,0.0492
1357.00,0.0462
1356.00,0.0418
1355.00,0.0369
1354.00,0.0323
1353.00,0.0283
1352.00,0.0251
1351.00,0.0226
1350.00,0.0205
1349.00,0.0189
1348.00,0.0176
1347.00,0.0165
1346.00,0.0157
1345.00,0.0150
1344.00,0.0145
1343.00,0.0141
1342.00,0.0137
1341.00,0.0134
1340.00,0.0131
1339.00,0.0129
1338.00,0.0129
1337.00,0.0128
1336.00,0.0129
1335.00,0.0131
1334.00,0.0134
1333.00,0.0139
1332.00,0.0144
1331.00,0.0147
1330.00,0.0149
1329.00,0.0147
1328.00,0.0143
1327.00,0.0136
1326.00,0.0129
1325.00,0.0122
1324.00,0.0115
1323.00,0.0110
1322.00,0.0105
1321.00,0.0101
1320.00,0.0099
1319.00,0.0096
1318.00,0.0093
1317.00,0.0090
1316.00,0.0088
1315.00,0.0087
1314.00,0.0086
1313.00,0.0086
1312.00,0.0086
1311.00,0.0088
1310.00,0.0090
1309.00,0.0094
1308.00,0.0100
1307.00,0.0107
1306.00,0.0114
1305.00,0.0120
1304.00,0.0123
1303.00,0.0124
1302.00,0.0123
1301.00,0.0123
1300.00,0.0124
1299.00,0.0126
1298.00,0.0128
1297.00,0.0130
1296.00,0.0130
1295.00,0.0128
1294.00,0.0124
1293.00,0.0118
1292.00,0.0112
1291.00,0.0106
1290.00,0.0100
1289.00,0.0095
1288.00,0.0091
1287.00,0.0087
1286.00,0.0085
1285.00,0.0082
1284.00,0.0080
1283.00,0.0078
1282.00,0.0077
1281.00,0.0075
1280.00,0.0074
1279.00,0.0072
1278.00,0.0071
1277.00,0.0070
1276.00,0.0069
1275.00,0.0070
1274.00,0.0070
1273.00,0.0070
1272.00,0.0071
1271.00,0.0071
1270.00,0.0072
1269.00,0.0073
1268.00,0.0074
1267.00,0.0076
1266.00,0.0078
1265.00,0.0080
1264.00,0.0083
1263.00,0.0085
1262.00,0.0087
1261.00,0.0090
1260.00,0.0094
1259.00,0.0098
1258.00,0.0102
1257.00,0.0106
1256.00,0.0107
1255.00,0.0105
1254.00,0.0101
1253.00,0.0096
1252.00,0.0091
1251.00,0.0087
1250.00,0.0084
1249.00,0.0082
1248.00,0.0080
1247.00,0.0079
1246.00,0.0078
1245.00,0.0078
1244.00,0.0077
1243.00,0.0076
1242.00,0.0075
1241.00,0.0075
1240.00,0.0074
1239.00,0.0074
1238.00,0.0073
1237.00,0.0073
1236.00,0.0073
1235.00,0.0073
1234.00,0.0073
1233.00,0.0073
1232.00,0.0073
1231.00,0.0073
1230.00,0.0073
1229.00,0.0074
1228.00,0.0075
1227.00,0.0077
1226.00,0.0079
1225.00,0.0083
1224.00,0.0086
1223.00,0.0090
1222.00,0.0094
1221.00,0.0098
1220.00,0.0100
1219.00,0.0101
1218.00,0.0100
1217.00,0.0099
1216.00,0.0096
1215.00,0.0092
1214.00,0.0089
1213.00,0.0084
1212.00,0.0081
1211.00,0.0077
1210.00,0.0075
1209.00,0.0072
1208.00,0.0070
1207.00,0.0068
1206.00,0.0066
1205.00,0.0064
1204.00,0.0062
1203.00,0.0061
1202.00,0.0060
1201.00,0.0059
1200.00,0.0058
1199.00,0.0058
1198.00,0.0058
1197.00,0.0058
1196.00,0.0058
1195.00,0.0058
1194.00,0.0058
1193.00,0.0058
1192.00,0.0058
1191.00,0.0058
1190.00,0.0059
1189.00,0.0060
1188.00,0.0060
1187.00,0.0061
1186.00,0.0062
1185.00,0.0063
1184.00,0.0065
1183.00,0.0066
1182.00,0.0068
1181.00,0.0071
1180.00,0.0073
1179.00,0.0077
1178.00,0.0082
1177.00,0.0088
1176.00,0.0097
1175.00,0.0108
1174.00,0.0122
1173.00,0.0139
1172.00,0.0160
1171.00,0.0182
1170.00,0.0203
1169.00,0.0220
1168.00,0.0231
1167.00,0.0236
1166.00,0.0234
1165.00,0.0229
1164.00,0.0221
1163.00,0.0212
1162.00,0.0203
1161.00,0.0196
1160.00,0.0191
1159.00,0.0188
1158.00,0.0185
1157.00,0.0184
1156.00,0.0183
1155.00,0.0184
1154.00,0.0184
1153.00,0.0182
1152.00,0.0179
1151.00,0.0174
1150.00,0.0166
1149.00,0.0157
1148.00,0.0149
1147.00,0.0140
1146.00,0.0132
1145.00,0.0124
1144.00,0.0117
1143.00,0.0110
1142.00,0.0104
1141.00,0.0099
1140.00,0.0094
1139.00,0.0091
1138.00,0.0088
1137.00,0.0085
1136.00,0.0083
1135.00,0.0081
1134.00,0.0079
1133.00,0.0077
1132.00,0.0076
1131.00,0.0076
1130.00,0.0077
1129.00,0.0078
1128.00,0.0079
1127.00,0.0081
1126.00,0.0083
1125.00,0.0085
1124.00,0.0086
1123.00,0.0086
1122.00,0.0086
1121.00,0.0085
1120.00,0.0085
1119.00,0.0086
1118.00,0.0087
1117.00,0.0089
1116.00,0.0091
1115.00,0.0093
1114.00,0.0094
1113.00,0.0096
1112.00,0.0098
1111.00,0.0101
1110.00,0.0106
1109.00,0.0111
1108.00,0.0118
1107.00,0.0125
1106.00,0.0133
1105.00,0.0141
1104.00,0.0147
1103.00,0.0151
1102.00,0.0152
1101.00,0.0149
1100.00,0.0143
1099.00,0.0135
1098.00,0.0127
1097.00,0.0120
1096.00,0.0114
1095.00,0.0110
1094.00,0.0106
1093.00,0.0102
1092.00,0.0099
1091.00,0.0095
1090.00,0.0093
1089.00,0.0090
1088.00,0.0088
1087.00,0.0087
1086.00,0.0087
1085.00,0.0086
1084.00,0.0086
1083.00,0.0085
1082.00,0.0083
1081.00,0.0082
1080.00,0.0080
1079.00,0.0079
1078.00,0.0078
1077.00,0.0077
1076.00,0.0076
1075.00,0.0075
1074.00,0.0074
1073.00,0.0075
1072.00,0.0076
1071.00,0.0077
1070.00,0.0077
1069.00,0.0077
1068.00,0.0077
1067.00,0.0078
1066.00,0.0079
1065.00,0.0080
1064.00,0.0081
1063.00,0.0081
1062.00,0.0080
1061.00,0.0080
1060.00,0.0080
1059.00,0.0081
1058.00,0.0082
1057.00,0.0082
1056.00,0.0082
1055.00,0.0082
1054.00,0.0082
1053.00,0.0081
1052.00,0.0080
1051.00,0.0080
1050.00,0.0081
1049.00,0.0083
1048.00,0.0085
1047.00,0.0087
1046.00,0.0088
1045.00,0.0089
1044.00,0.0089
1043.00,0.0089
1042.00,0.0089
1041.00,0.0088
1040.00,0.0088
1039.00,0.0089
1038.00,0.0091
1037.00,0.0093
1036.00,0.0094
1035.00,0.0095
1034.00,0.0094
1033.00,0.0094
1032.00,0.0093
1031.00,0.0092
1030.00,0.0091
1029.00,0.0091
1028.00,0.0090
1027.00,0.0090
1026.00,0.0089
1025.00,0.0088
1024.00,0.0087
1023.00,0.0087
1022.00,0.0087
1021.00,0.0088
1020.00,0.0089
1019.00,0.0089
1018.00,0.0089
1017.00,0.0089
1016.00,0.0090
1015.00,0.0091
1014.00,0.0094
1013.00,0.0097
1012.00,0.0101
1011.00,0.0104
1010.00,0.0106
1009.00,0.0109
1008.00,0.0111
1007.00,0.0115
1006.00,0.0121
1005.00,0.0128
1004.00,0.0138
1003.00,0.0151
1002.00,0.0169
1001.00,0.0190
1000.00,0.0212
999.00,0.0230
998.00,0.0237
997.00,0.0231
996.00,0.0213
995.00,0.0189
994.00,0.0163
993.00,0.0142
992.00,0.0125
991.00,0.0113
990.00,0.0105
989.00,0.0100
988.00,0.0096
987.00,0.0094
986.00,0.0094
985.00,0.0095
984.00,0.0099
983.00,0.0106
982.00,0.0117
981.00,0.0131
980.00,0.0151
979.00,0.0175
978.00,0.0204
977.00,0.0236
976.00,0.0268
975.00,0.0296
974.00,0.0313
973.00,0.0315
972.00,0.0300
971.00,0.0272
970.00,0.0238
969.00,0.0204
968.00,0.0176
967.00,0.0154
966.00,0.0137
965.00,0.0124
964.00,0.0113
963.00,0.0105
962.00,0.0099
961.00,0.0094
960.00,0.0090
959.00,0.0086
958.00,0.0083
957.00,0.0080
956.00,0.0078
955.00,0.0077
954.00,0.0077
953.00,0.0076
952.00,0.0076
951.00,0.0075
950.00,0.0075
949.00,0.0075
948.00,0.0077
947.00,0.0079
946.00,0.0083
945.00,0.0086
944.00,0.0089
943.00,0.0092
942.00,0.0094
941.00,0.0095
940.00,0.0095
939.00,0.0093
938.00,0.0089
937.00,0.0085
936.00,0.0080
935.00,0.0076
934.00,0.0072
933.00,0.0070
932.00,0.0068
931.00,0.0066
930.00,0.0065
929.00,0.0063
928.00,0.0062
927.00,0.0062
926.00,0.0062
925.00,0.0062
924.00,0.0063
923.00,0.0064
922.00,0.0065
921.00,0.0067
920.00,0.0068
919.00,0.0068
918.00,0.0069
917.00,0.0069
916.00,0.0070
915.00,0.0070
914.00,0.0071
913.00,0.0073
912.00,0.0074
911.00,0.0076
910.00,0.0077
909.00,0.0079
908.00,0.0081
907.00,0.0086
906.00,0.0094
905.00,0.0105
904.00,0.0121
903.00,0.0142
902.00,0.0165
901.00,0.0186
900.00,0.0201
899.00,0.0206
898.00,0.0199
897.00,0.0183
896.00,0.0162
895.00,0.0141
894.00,0.0122
893.00,0.0108
892.00,0.0097
891.00,0.0090
890.00,0.0085
889.00,0.0081
888.00,0.0079
887.00,0.0077
886.00,0.0075
885.00,0.0073
884.00,0.0072
883.00,0.0071
882.00,0.0071
881.00,0.0071
880.00,0.0071
879.00,0.0072
878.00,0.0072
877.00,0.0073
876.00,0.0073
875.00,0.0074
874.00,0.0075
873.00,0.0075
872.00,0.0075
871.00,0.0074
870.00,0.0074
869.00,0.0073
868.00,0.0073
867.00,0.0073
866.00,0.0073
865.00,0.0074
864.00,0.0075
863.00,0.0077
862.00,0.0078
861.00,0.0080
860.00,0.0081
859.00,0.0083
858.00,0.0084
857.00,0.0085
856.00,0.0085
855.00,0.0085
854.00,0.0085
853.00,0.0087
852.00,0.0089
851.00,0.0092
850.00,0.0096
849.00,0.0100
848.00,0.0106
847.00,0.0115
846.00,0.0130
845.00,0.0150
844.00,0.0176
843.00,0.0201
842.00,0.0217
841.00,0.0218
840.00,0.0203
839.00,0.0179
838.00,0.0156
837.00,0.0137
836.00,0.0125
835.00,0.0118
834.00,0.0113
833.00,0.0110
832.00,0.0107
831.00,0.0106
830.00,0.0105
829.00,0.0105
828.00,0.0105
827.00,0.0106
826.00,0.0105
825.00,0.0104
824.00,0.0103
823.00,0.0103
822.00,0.0103
821.00,0.0105
820.00,0.0106
819.00,0.0109
818.00,0.0115
817.00,0.0123
816.00,0.0134
815.00,0.0147
814.00,0.0163
813.00,0.0181
812.00,0.0200
811.00,0.0218
810.00,0.0231
809.00,0.0237
808.00,0.0235
807.00,0.0225
806.00,0.0210
805.00,0.0191
804.00,0.0173
803.00,0.0158
802.00,0.0145
801.00,0.0135
800.00,0.0128
799.00,0.0123
798.00,0.0117
797.00,0.0111
796.00,0.0105
795.00,0.0100
794.00,0.0095
793.00,0.0092
792.00,0.0090
791.00,0.0089
790.00,0.0087
789.00,0.0085
788.00,0.0082
787.00,0.0078
786.00,0.0075
785.00,0.0072
784.00,0.0069
783.00,0.0067
782.00,0.0065
781.00,0.0063
780.00,0.0062
779.00,0.0062
778.00,0.0061
777.00,0.0059
776.00,0.0059
775.00,0.0060
774.00,0.0063
773.00,0.0067
772.00,0.0071
771.00,0.0075
770.00,0.0077
769.00,0.0079
768.00,0.0079
767.00,0.0080
766.00,0.0080
765.00,0.0079
764.00,0.0076
763.00,0.0072
762.00,0.0069
761.00,0.0065
760.00,0.0062
759.00,0.0060
758.00,0.0058
757.00,0.0057
756.00,0.0056
755.00,0.0056
754.00,0.0055
753.00,0.0055
752.00,0.0055
751.00,0.0054
750.00,0.0053
749.00,0.0053
748.00,0.0052
747.00,0.0053
746.00,0.0054
745.00,0.0055
744.00,0.0056
743.00,0.0057
742.00,0.0058
741.00,0.0060
740.00,0.0062
739.00,0.0064
738.00,0.0065
737.00,0.0065
736.00,0.0067
735.00,0.0070
734.00,0.0075
733.00,0.0078
732.00,0.0078
731.00,0.0077
730.00,0.0076
729.00,0.0074
728.00,0.0073
727.00,0.0071
726.00,0.0070
725.00,0.0070
724.00,0.0070
723.00,0.0071
722.00,0.0071
721.00,0.0071
720.00,0.0070
719.00,0.0069
718.00,0.0069
717.00,0.0068
716.00,0.0067
715.00,0.0067
714.00,0.0067
713.00,0.0067
712.00,0.0066
711.00,0.0064
710.00,0.0061
709.00,0.0059
708.00,0.0058
707.00,0.0057
706.00,0.0058
705.00,0.0059
704.00,0.0060
703.00,0.0061
702.00,0.0062
701.00,0.0062
700.00,0.0061
699.00,0.0060
698.00,0.0059
697.00,0.0059
696.00,0.0060
695.00,0.0061
694.00,0.0063
693.00,0.0063
692.00,0.0061
691.00,0.0059
690.00,0.0059
689.00,0.0060
688.00,0.0060
687.00,0.0060
686.00,0.0059
685.00,0.0058
684.00,0.0057
683.00,0.0057
682.00,0.0057
681.00,0.0058
680.00,0.0059
679.00,0.0060
678.00,0.0061
677.00,0.0060
676.00,0.0059
675.00,0.0058
674.00,0.0058
673.00,0.0058
672.00,0.0058
671.00,0.0058
670.00,0.0059
669.00,0.0061
668.00,0.0064
667.00,0.0066
666.00,0.0067
665.00,0.0066
664.00,0.0067
663.00,0.0066
662.00,0.0065
661.00,0.0064
660.00,0.0063
659.00,0.0063
658.00,0.0063
657.00,0.0063
656.00,0.0062
655.00,0.0061
654.00,0.0061
653.00,0.0061
652.00,0.0062
651.00,0.0062
650.00,0.0063
649.00,0.0063
648.00,0.0062
647.00,0.0062
646.00,0.0062
645.00,0.0062
644.00,0.0062
643.00,0.0063
642.00,0.0064
641.00,0.0065
640.00,0.0064
639.00,0.0064
638.00,0.0064
637.00,0.0064
636.00,0.0065
635.00,0.0065
634.00,0.0064
633.00,0.0062
632.00,0.0061
631.00,0.0062
630.00,0.0063
629.00,0.0064
628.00,0.0064
627.00,0.0063
626.00,0.0064
625.00,0.0066
624.00,0.0067
623.00,0.0067
622.00,0.0065
621.00,0.0063
620.00,0.0063
619.00,0.0063
618.00,0.0065
617.00,0.0067
616.00,0.0069
615.00,0.0071
614.00,0.0071
613.00,0.0067
612.00,0.0061
611.00,0.0058
610.00,0.0059
609.00,0.0063
608.00,0.0067
607.00,0.0068
606.00,0.0067
605.00,0.0064
604.00,0.0060
603.00,0.0059
602.00,0.0059
601.00,0.0061
600.00,0.0062
599.00,0.0062
598.00,0.0062
597.00,0.0062
596.00,0.0063
595.00,0.0065
594.00,0.0066
593.00,0.0068
592.00,0.0068
591.00,0.0068
590.00,0.0066
589.00,0.0063
588.00,0.0060
587.00,0.0057
586.00,0.0057
585.00,0.0059
584.00,0.0061
583.00,0.0063
582.00,0.0063
581.00,0.0062
580.00,0.0061
579.00,0.0060
578.00,0.0062
577.00,0.0064
576.00,0.0067
575.00,0.0070
574.00,0.0072
573.00,0.0074
572.00,0.0072
571.00,0.0068
570.00,0.0064
569.00,0.0062
568.00,0.0063
567.00,0.0064
566.00,0.0065
565.00,0.0066
564.00,0.0067
563.00,0.0067
562.00,0.0067
561.00,0.0068
560.00,0.0071
559.00,0.0073
558.00,0.0072
557.00,0.0070
556.00,0.0069
555.00,0.0068
554.00,0.0067
553.00,0.0065
552.00,0.0063
551.00,0.0063
550.00,0.0064
549.00,0.0066
548.00,0.0069
547.00,0.0071
546.00,0.0074
545.00,0.0075
544.00,0.0076
543.00,0.0078
542.00,0.0079
541.00,0.0080
540.00,0.0080
539.00,0.0080
538.00,0.0080
537.00,0.0080
536.00,0.0082
535.00,0.0084
534.00,0.0086
533.00,0.0087
532.00,0.0087
531.00,0.0087
530.00,0.0086
529.00,0.0085
528.00,0.0086
527.00,0.0087
526.00,0.0086
525.00,0.0083
524.00,0.0080
523.00,0.0079
522.00,0.0078
521.00,0.0078
520.00,0.0078
519.00,0.0078
518.00,0.0077
517.00,0.0075
516.00,0.0071
515.00,0.0066
514.00,0.0065
513.00,0.0066
512.00,0.0070
511.00,0.0076
510.00,0.0081
509.00,0.0079
508.00,0.0073
507.00,0.0064
506.00,0.0059
505.00,0.0057
504.00,0.0056
503.00,0.0055
502.00,0.0056
501.00,0.0058
500.00,0.0060
499.00,0.0061
498.00,0.0060
497.00,0.0061
496.00,0.0061
495.00,0.0060
494.00,0.0058
493.00,0.0056
492.00,0.0056
491.00,0.0055
490.00,0.0052
489.00,0.0048
488.00,0.0049
487.00,0.0056
486.00,0.0066
485.00,0.0072
484.00,0.0071
483.00,0.0066
482.00,0.0058
481.00,0.0054
480.00,0.0058
479.00,0.0071
478.00,0.0084
477.00,0.0089
476.00,0.0085
475.00,0.0080
474.00,0.0080
473.00,0.0085
472.00,0.0090
471.00,0.0092
470.00,0.0092
469.00,0.0093
468.00,0.0098
467.00,0.0105
466.00,0.0110
465.00,0.0115
464.00,0.0121
463.00,0.0129
462.00,0.0138
461.00,0.0145
460.00,0.0149
459.00,0.0154
458.00,0.0160
457.00,0.0160
456.00,0.0152
455.00,0.0142
454.00,0.0134
453.00,0.0125
452.00,0.0112
451.00,0.0094
450.00,0.0076
