Created as New Dataset,Sample 126 By Administrator Date Tuesday, September 09 2025
cm-1,A
4000.00,0.0008
3999.00,0.0008
3998.00,0.0008
3997.00,0.0008
3996.00,0.0008
3995.00,0.0008
3994.00,0.0008
3993.00,0.0008
3992.00,0.0008
3991.00,0.0008
3990.00,0.0008
3989.00,0.0007
3988.00,0.0008
3987.00,0.0008
3986.00,0.0008
3985.00,0.0008
3984.00,0.0008
3983.00,0.0008
3982.00,0.0008
3981.00,0.0008
3980.00,0.0008
3979.00,0.0008
3978.00,0.0007
3977.00,0.0007
3976.00,0.0007
3975.00,0.0007
3974.00,0.0007
3973.00,0.0007
3972.00,0.0007
3971.00,0.0007
3970.00,0.0007
3969.00,0.0006
3968.00,0.0006
3967.00,0.0006
3966.00,0.0006
3965.00,0.0006
3964.00,0.0006
3963.00,0.0006
3962.00,0.0006
3961.00,0.0006
3960.00,0.0006
3959.00,0.0006
3958.00,0.0006
3957.00,0.0006
3956.00,0.0006
3955.00,0.0006
3954.00,0.0006
3953.00,0.0006
3952.00,0.0006
3951.00,0.0006
3950.00,0.0006
3949.00,0.0006
3948.00,0.0007
3947.00,0.0007
3946.00,0.0007
3945.00,0.0007
3944.00,0.0007
3943.00,0.0007
3942.00,0.0006
3941.00,0.0006
3940.00,0.0006
3939.00,0.0006
3938.00,0.0006
3937.00,0.0007
3936.00,0.0007
3935.00,0.0007
3934.00,0.0007
3933.00,0.0007
3932.00,0.0007
3931.00,0.0007
3930.00,0.0007
3929.00,0.0007
3928.00,0.0007
3927.00,0.0007
3926.00,0.0007
3925.00,0.0007
3924.00,0.0007
3923.00,0.0007
3922.00,0.0007
3921.00,0.0007
3920.00,0.0007
3919.00,0.0007
3918.00,0.0006
3917.00,0.0006
3916.00,0.0006
3915.00,0.0006
3914.00,0.0006
3913.00,0.0006
3912.00,0.0006
3911.00,0.0006
3910.00,0.0006
3909.00,0.0006
3908.00,0.0006
3907.00,0.0006
3906.00,0.0006
3905.00,0.0006
3904.00,0.0006
3903.00,0.0006
3902.00,0.0006
3901.00,0.0006
3900.00,0.0007
3899.00,0.0007
3898.00,0.0007
3897.00,0.0007
3896.00,0.0007
3895.00,0.0007
3894.00,0.0007
3893.00,0.0007
3892.00,0.0006
3891.00,0.0006
3890.00,0.0006
3889.00,0.0006
3888.00,0.0006
3887.00,0.0006
3886.00,0.0006
3885.00,0.0006
3884.00,0.0006
3883.00,0.0006
3882.00,0.0006
3881.00,0.0006
3880.00,0.0006
3879.00,0.0005
3878.00,0.0005
3877.00,0.0005
3876.00,0.0005
3875.00,0.0006
3874.00,0.0006
3873.00,0.0006
3872.00,0.0006
3871.00,0.0006
3870.00,0.0006
3869.00,0.0006
3868.00,0.0005
3867.00,0.0005
3866.00,0.0005
3865.00,0.0005
3864.00,0.0005
3863.00,0.0005
3862.00,0.0006
3861.00,0.0006
3860.00,0.0006
3859.00,0.0006
3858.00,0.0007
3857.00,0.0007
3856.00,0.0007
3855.00,0.0007
3854.00,0.0006
3853.00,0.0006
3852.00,0.0006
3851.00,0.0006
3850.00,0.0006
3849.00,0.0006
3848.00,0.0006
3847.00,0.0006
3846.00,0.0006
3845.00,0.0006
3844.00,0.0006
3843.00,0.0006
3842.00,0.0006
3841.00,0.0006
3840.00,0.0006
3839.00,0.0006
3838.00,0.0005
3837.00,0.0005
3836.00,0.0005
3835.00,0.0005
3834.00,0.0006
3833.00,0.0006
3832.00,0.0006
3831.00,0.0007
3830.00,0.0007
3829.00,0.0007
3828.00,0.0007
3827.00,0.0007
3826.00,0.0007
3825.00,0.0007
3824.00,0.0006
3823.00,0.0006
3822.00,0.0006
3821.00,0.0007
3820.00,0.0007
3819.00,0.0006
3818.00,0.0006
3817.00,0.0006
3816.00,0.0006
3815.00,0.0006
3814.00,0.0006
3813.00,0.0006
3812.00,0.0006
3811.00,0.0006
3810.00,0.0006
3809.00,0.0006
3808.00,0.0006
3807.00,0.0006
3806.00,0.0006
3805.00,0.0006
3804.00,0.0005
3803.00,0.0005
3802.00,0.0005
3801.00,0.0005
3800.00,0.0006
3799.00,0.0006
3798.00,0.0006
3797.00,0.0006
3796.00,0.0006
3795.00,0.0006
3794.00,0.0006
3793.00,0.0006
3792.00,0.0006
3791.00,0.0006
3790.00,0.0007
3789.00,0.0007
3788.00,0.0007
3787.00,0.0006
3786.00,0.0006
3785.00,0.0006
3784.00,0.0006
3783.00,0.0006
3782.00,0.0006
3781.00,0.0006
3780.00,0.0005
3779.00,0.0005
3778.00,0.0005
3777.00,0.0006
3776.00,0.0006
3775.00,0.0007
3774.00,0.0007
3773.00,0.0007
3772.00,0.0007
3771.00,0.0006
3770.00,0.0006
3769.00,0.0006
3768.00,0.0006
3767.00,0.0006
3766.00,0.0006
3765.00,0.0006
3764.00,0.0007
3763.00,0.0007
3762.00,0.0007
3761.00,0.0007
3760.00,0.0007
3759.00,0.0007
3758.00,0.0007
3757.00,0.0006
3756.00,0.0006
3755.00,0.0006
3754.00,0.0006
3753.00,0.0006
3752.00,0.0006
3751.00,0.0007
3750.00,0.0007
3749.00,0.0007
3748.00,0.0007
3747.00,0.0007
3746.00,0.0007
3745.00,0.0007
3744.00,0.0007
3743.00,0.0007
3742.00,0.0007
3741.00,0.0007
3740.00,0.0006
3739.00,0.0006
3738.00,0.0006
3737.00,0.0006
3736.00,0.0006
3735.00,0.0006
3734.00,0.0006
3733.00,0.0006
3732.00,0.0007
3731.00,0.0007
3730.00,0.0007
3729.00,0.0008
3728.00,0.0008
3727.00,0.0007
3726.00,0.0007
3725.00,0.0007
3724.00,0.0007
3723.00,0.0007
3722.00,0.0006
3721.00,0.0006
3720.00,0.0006
3719.00,0.0005
3718.00,0.0005
3717.00,0.0006
3716.00,0.0006
3715.00,0.0006
3714.00,0.0006
3713.00,0.0006
3712.00,0.0006
3711.00,0.0005
3710.00,0.0005
3709.00,0.0005
3708.00,0.0005
3707.00,0.0005
3706.00,0.0005
3705.00,0.0005
3704.00,0.0005
3703.00,0.0005
3702.00,0.0005
3701.00,0.0005
3700.00,0.0005
3699.00,0.0005
3698.00,0.0005
3697.00,0.0005
3696.00,0.0006
3695.00,0.0006
3694.00,0.0005
3693.00,0.0005
3692.00,0.0005
3691.00,0.0005
3690.00,0.0005
3689.00,0.0005
3688.00,0.0005
3687.00,0.0005
3686.00,0.0005
3685.00,0.0006
3684.00,0.0006
3683.00,0.0006
3682.00,0.0006
3681.00,0.0006
3680.00,0.0006
3679.00,0.0006
3678.00,0.0006
3677.00,0.0006
3676.00,0.0006
3675.00,0.0006
3674.00,0.0006
3673.00,0.0006
3672.00,0.0005
3671.00,0.0005
3670.00,0.0005
3669.00,0.0005
3668.00,0.0006
3667.00,0.0006
3666.00,0.0006
3665.00,0.0006
3664.00,0.0006
3663.00,0.0006
3662.00,0.0006
3661.00,0.0006
3660.00,0.0006
3659.00,0.0005
3658.00,0.0005
3657.00,0.0005
3656.00,0.0005
3655.00,0.0005
3654.00,0.0005
3653.00,0.0005
3652.00,0.0005
3651.00,0.0005
3650.00,0.0006
3649.00,0.0006
3648.00,0.0006
3647.00,0.0006
3646.00,0.0006
3645.00,0.0006
3644.00,0.0006
3643.00,0.0006
3642.00,0.0006
3641.00,0.0006
3640.00,0.0007
3639.00,0.0007
3638.00,0.0008
3637.00,0.0008
3636.00,0.0008
3635.00,0.0008
3634.00,0.0008
3633.00,0.0008
3632.00,0.0008
3631.00,0.0008
3630.00,0.0008
3629.00,0.0008
3628.00,0.0008
3627.00,0.0009
3626.00,0.0009
3625.00,0.0009
3624.00,0.0009
3623.00,0.0009
3622.00,0.0010
3621.00,0.0010
3620.00,0.0010
3619.00,0.0009
3618.00,0.0009
3617.00,0.0009
3616.00,0.0009
3615.00,0.0010
3614.00,0.0010
3613.00,0.0011
3612.00,0.0011
3611.00,0.0011
3610.00,0.0012
3609.00,0.0012
3608.00,0.0012
3607.00,0.0011
3606.00,0.0011
3605.00,0.0011
3604.00,0.0011
3603.00,0.0011
3602.00,0.0011
3601.00,0.0012
3600.00,0.0013
3599.00,0.0013
3598.00,0.0014
3597.00,0.0014
3596.00,0.0014
3595.00,0.0014
3594.00,0.0014
3593.00,0.0014
3592.00,0.0014
3591.00,0.0014
3590.00,0.0014
3589.00,0.0014
3588.00,0.0014
3587.00,0.0014
3586.00,0.0015
3585.00,0.0015
3584.00,0.0015
3583.00,0.0015
3582.00,0.0015
3581.00,0.0015
3580.00,0.0015
3579.00,0.0016
3578.00,0.0016
3577.00,0.0016
3576.00,0.0016
3575.00,0.0017
3574.00,0.0017
3573.00,0.0018
3572.00,0.0018
3571.00,0.0018
3570.00,0.0018
3569.00,0.0019
3568.00,0.0019
3567.00,0.0019
3566.00,0.0019
3565.00,0.0019
3564.00,0.0019
3563.00,0.0019
3562.00,0.0020
3561.00,0.0020
3560.00,0.0020
3559.00,0.0020
3558.00,0.0020
3557.00,0.0020
3556.00,0.0020
3555.00,0.0021
3554.00,0.0021
3553.00,0.0022
3552.00,0.0023
3551.00,0.0023
3550.00,0.0024
3549.00,0.0024
3548.00,0.0024
3547.00,0.0025
3546.00,0.0025
3545.00,0.0025
3544.00,0.0025
3543.00,0.0024
3542.00,0.0024
3541.00,0.0025
3540.00,0.0025
3539.00,0.0025
3538.00,0.0025
3537.00,0.0025
3536.00,0.0025
3535.00,0.0026
3534.00,0.0026
3533.00,0.0026
3532.00,0.0026
3531.00,0.0026
3530.00,0.0026
3529.00,0.0026
3528.00,0.0027
3527.00,0.0027
3526.00,0.0028
3525.00,0.0028
3524.00,0.0029
3523.00,0.0029
3522.00,0.0029
3521.00,0.0029
3520.00,0.0028
3519.00,0.0028
3518.00,0.0028
3517.00,0.0029
3516.00,0.0029
3515.00,0.0029
3514.00,0.0030
3513.00,0.0030
3512.00,0.0031
3511.00,0.0031
3510.00,0.0031
3509.00,0.0032
3508.00,0.0032
3507.00,0.0032
3506.00,0.0032
3505.00,0.0032
3504.00,0.0032
3503.00,0.0033
3502.00,0.0033
3501.00,0.0034
3500.00,0.0034
3499.00,0.0034
3498.00,0.0034
3497.00,0.0034
3496.00,0.0034
3495.00,0.0034
3494.00,0.0035
3493.00,0.0036
3492.00,0.0036
3491.00,0.0036
3490.00,0.0036
3489.00,0.0036
3488.00,0.0036
3487.00,0.0036
3486.00,0.0036
3485.00,0.0037
3484.00,0.0037
3483.00,0.0037
3482.00,0.0038
3481.00,0.0038
3480.00,0.0038
3479.00,0.0039
3478.00,0.0039
3477.00,0.0039
3476.00,0.0040
3475.00,0.0040
3474.00,0.0040
3473.00,0.0040
3472.00,0.0040
3471.00,0.0040
3470.00,0.0040
3469.00,0.0040
3468.00,0.0040
3467.00,0.0041
3466.00,0.0041
3465.00,0.0041
3464.00,0.0042
3463.00,0.0042
3462.00,0.0041
3461.00,0.0042
3460.00,0.0042
3459.00,0.0043
3458.00,0.0044
3457.00,0.0044
3456.00,0.0044
3455.00,0.0044
3454.00,0.0044
3453.00,0.0044
3452.00,0.0044
3451.00,0.0044
3450.00,0.0044
3449.00,0.0044
3448.00,0.0045
3447.00,0.0045
3446.00,0.0045
3445.00,0.0045
3444.00,0.0046
3443.00,0.0046
3442.00,0.0046
3441.00,0.0046
3440.00,0.0046
3439.00,0.0047
3438.00,0.0047
3437.00,0.0047
3436.00,0.0047
3435.00,0.0047
3434.00,0.0047
3433.00,0.0048
3432.00,0.0048
3431.00,0.0049
3430.00,0.0049
3429.00,0.0050
3428.00,0.0050
3427.00,0.0050
3426.00,0.0050
3425.00,0.0050
3424.00,0.0049
3423.00,0.0049
3422.00,0.0049
3421.00,0.0050
3420.00,0.0050
3419.00,0.0050
3418.00,0.0051
3417.00,0.0051
3416.00,0.0051
3415.00,0.0052
3414.00,0.0052
3413.00,0.0053
3412.00,0.0053
3411.00,0.0054
3410.00,0.0054
3409.00,0.0054
3408.00,0.0054
3407.00,0.0054
3406.00,0.0055
3405.00,0.0054
3404.00,0.0054
3403.00,0.0054
3402.00,0.0054
3401.00,0.0054
3400.00,0.0054
3399.00,0.0054
3398.00,0.0054
3397.00,0.0054
3396.00,0.0055
3395.00,0.0055
3394.00,0.0055
3393.00,0.0056
3392.00,0.0056
3391.00,0.0056
3390.00,0.0056
3389.00,0.0056
3388.00,0.0056
3387.00,0.0056
3386.00,0.0056
3385.00,0.0056
3384.00,0.0056
3383.00,0.0057
3382.00,0.0057
3381.00,0.0057
3380.00,0.0057
3379.00,0.0058
3378.00,0.0058
3377.00,0.0058
3376.00,0.0058
3375.00,0.0057
3374.00,0.0057
3373.00,0.0058
3372.00,0.0058
3371.00,0.0059
3370.00,0.0059
3369.00,0.0060
3368.00,0.0060
3367.00,0.0060
3366.00,0.0060
3365.00,0.0060
3364.00,0.0060
3363.00,0.0060
3362.00,0.0060
3361.00,0.0060
3360.00,0.0061
3359.00,0.0061
3358.00,0.0061
3357.00,0.0061
3356.00,0.0061
3355.00,0.0061
3354.00,0.0061
3353.00,0.0061
3352.00,0.0061
3351.00,0.0061
3350.00,0.0062
3349.00,0.0062
3348.00,0.0062
3347.00,0.0062
3346.00,0.0063
3345.00,0.0063
3344.00,0.0063
3343.00,0.0063
3342.00,0.0063
3341.00,0.0062
3340.00,0.0062
3339.00,0.0061
3338.00,0.0061
3337.00,0.0062
3336.00,0.0062
3335.00,0.0062
3334.00,0.0063
3333.00,0.0063
3332.00,0.0063
3331.00,0.0063
3330.00,0.0062
3329.00,0.0062
3328.00,0.0062
3327.00,0.0062
3326.00,0.0062
3325.00,0.0062
3324.00,0.0062
3323.00,0.0062
3322.00,0.0062
3321.00,0.0062
3320.00,0.0062
3319.00,0.0062
3318.00,0.0062
3317.00,0.0062
3316.00,0.0063
3315.00,0.0063
3314.00,0.0063
3313.00,0.0063
3312.00,0.0063
3311.00,0.0063
3310.00,0.0063
3309.00,0.0063
3308.00,0.0063
3307.00,0.0062
3306.00,0.0062
3305.00,0.0062
3304.00,0.0063
3303.00,0.0063
3302.00,0.0063
3301.00,0.0063
3300.00,0.0063
3299.00,0.0063
3298.00,0.0063
3297.00,0.0063
3296.00,0.0063
3295.00,0.0063
3294.00,0.0063
3293.00,0.0063
3292.00,0.0063
3291.00,0.0063
3290.00,0.0063
3289.00,0.0063
3288.00,0.0062
3287.00,0.0062
3286.00,0.0062
3285.00,0.0062
3284.00,0.0062
3283.00,0.0062
3282.00,0.0061
3281.00,0.0061
3280.00,0.0061
3279.00,0.0060
3278.00,0.0060
3277.00,0.0060
3276.00,0.0059
3275.00,0.0059
3274.00,0.0059
3273.00,0.0059
3272.00,0.0059
3271.00,0.0059
3270.00,0.0059
3269.00,0.0059
3268.00,0.0059
3267.00,0.0059
3266.00,0.0058
3265.00,0.0058
3264.00,0.0057
3263.00,0.0057
3262.00,0.0056
3261.00,0.0056
3260.00,0.0056
3259.00,0.0056
3258.00,0.0056
3257.00,0.0056
3256.00,0.0056
3255.00,0.0056
3254.00,0.0056
3253.00,0.0055
3252.00,0.0055
3251.00,0.0055
3250.00,0.0054
3249.00,0.0054
3248.00,0.0053
3247.00,0.0053
3246.00,0.0053
3245.00,0.0053
3244.00,0.0053
3243.00,0.0053
3242.00,0.0053
3241.00,0.0053
3240.00,0.0053
3239.00,0.0053
3238.00,0.0052
3237.00,0.0052
3236.00,0.0052
3235.00,0.0052
3234.00,0.0052
3233.00,0.0052
3232.00,0.0052
3231.00,0.0052
3230.00,0.0052
3229.00,0.0053
3228.00,0.0053
3227.00,0.0053
3226.00,0.0053
3225.00,0.0053
3224.00,0.0053
3223.00,0.0053
3222.00,0.0054
3221.00,0.0054
3220.00,0.0054
3219.00,0.0054
3218.00,0.0054
3217.00,0.0054
3216.00,0.0054
3215.00,0.0054
3214.00,0.0054
3213.00,0.0055
3212.00,0.0055
3211.00,0.0055
3210.00,0.0055
3209.00,0.0055
3208.00,0.0055
3207.00,0.0055
3206.00,0.0055
3205.00,0.0055
3204.00,0.0056
3203.00,0.0056
3202.00,0.0056
3201.00,0.0056
3200.00,0.0056
3199.00,0.0055
3198.00,0.0055
3197.00,0.0055
3196.00,0.0056
3195.00,0.0056
3194.00,0.0056
3193.00,0.0055
3192.00,0.0055
3191.00,0.0055
3190.00,0.0055
3189.00,0.0055
3188.00,0.0054
3187.00,0.0054
3186.00,0.0053
3185.00,0.0053
3184.00,0.0053
3183.00,0.0053
3182.00,0.0052
3181.00,0.0052
3180.00,0.0052
3179.00,0.0052
3178.00,0.0052
3177.00,0.0051
3176.00,0.0051
3175.00,0.0051
3174.00,0.0051
3173.00,0.0051
3172.00,0.0051
3171.00,0.0050
3170.00,0.0050
3169.00,0.0049
3168.00,0.0049
3167.00,0.0049
3166.00,0.0049
3165.00,0.0048
3164.00,0.0048
3163.00,0.0048
3162.00,0.0048
3161.00,0.0048
3160.00,0.0048
3159.00,0.0048
3158.00,0.0048
3157.00,0.0048
3156.00,0.0048
3155.00,0.0048
3154.00,0.0047
3153.00,0.0047
3152.00,0.0047
3151.00,0.0046
3150.00,0.0046
3149.00,0.0046
3148.00,0.0046
3147.00,0.0046
3146.00,0.0046
3145.00,0.0046
3144.00,0.0046
3143.00,0.0046
3142.00,0.0045
3141.00,0.0045
3140.00,0.0045
3139.00,0.0045
3138.00,0.0045
3137.00,0.0044
3136.00,0.0044
3135.00,0.0044
3134.00,0.0044
3133.00,0.0043
3132.00,0.0043
3131.00,0.0043
3130.00,0.0043
3129.00,0.0043
3128.00,0.0043
3127.00,0.0043
3126.00,0.0043
3125.00,0.0042
3124.00,0.0042
3123.00,0.0041
3122.00,0.0041
3121.00,0.0040
3120.00,0.0040
3119.00,0.0039
3118.00,0.0039
3117.00,0.0039
3116.00,0.0039
3115.00,0.0039
3114.00,0.0039
3113.00,0.0039
3112.00,0.0039
3111.00,0.0039
3110.00,0.0038
3109.00,0.0038
3108.00,0.0038
3107.00,0.0038
3106.00,0.0038
3105.00,0.0038
3104.00,0.0038
3103.00,0.0038
3102.00,0.0038
3101.00,0.0037
3100.00,0.0037
3099.00,0.0037
3098.00,0.0036
3097.00,0.0036
3096.00,0.0036
3095.00,0.0036
3094.00,0.0036
3093.00,0.0036
3092.00,0.0037
3091.00,0.0036
3090.00,0.0036
3089.00,0.0036
3088.00,0.0036
3087.00,0.0035
3086.00,0.0035
3085.00,0.0035
3084.00,0.0035
3083.00,0.0035
3082.00,0.0034
3081.00,0.0034
3080.00,0.0034
3079.00,0.0035
3078.00,0.0035
3077.00,0.0035
3076.00,0.0036
3075.00,0.0036
3074.00,0.0036
3073.00,0.0035
3072.00,0.0035
3071.00,0.0035
3070.00,0.0035
3069.00,0.0035
3068.00,0.0035
3067.00,0.0035
3066.00,0.0036
3065.00,0.0036
3064.00,0.0037
3063.00,0.0037
3062.00,0.0037
3061.00,0.0037
3060.00,0.0037
3059.00,0.0037
3058.00,0.0037
3057.00,0.0037
3056.00,0.0037
3055.00,0.0037
3054.00,0.0037
3053.00,0.0038
3052.00,0.0038
3051.00,0.0038
3050.00,0.0039
3049.00,0.0039
3048.00,0.0039
3047.00,0.0039
3046.00,0.0039
3045.00,0.0039
3044.00,0.0039
3043.00,0.0039
3042.00,0.0039
3041.00,0.0039
3040.00,0.0039
3039.00,0.0039
3038.00,0.0039
3037.00,0.0039
3036.00,0.0040
3035.00,0.0040
3034.00,0.0040
3033.00,0.0041
3032.00,0.0042
3031.00,0.0042
3030.00,0.0043
3029.00,0.0043
3028.00,0.0043
3027.00,0.0044
3026.00,0.0044
3025.00,0.0044
3024.00,0.0045
3023.00,0.0045
3022.00,0.0046
3021.00,0.0046
3020.00,0.0047
3019.00,0.0047
3018.00,0.0048
3017.00,0.0049
3016.00,0.0049
3015.00,0.0050
3014.00,0.0052
3013.00,0.0053
3012.00,0.0055
3011.00,0.0056
3010.00,0.0057
3009.00,0.0058
3008.00,0.0060
3007.00,0.0061
3006.00,0.0063
3005.00,0.0065
3004.00,0.0066
3003.00,0.0068
3002.00,0.0070
3001.00,0.0072
3000.00,0.0075
2999.00,0.0078
2998.00,0.0082
2997.00,0.0086
2996.00,0.0090
2995.00,0.0094
2994.00,0.0098
2993.00,0.0103
2992.00,0.0108
2991.00,0.0113
2990.00,0.0120
2989.00,0.0127
2988.00,0.0135
2987.00,0.0143
2986.00,0.0153
2985.00,0.0165
2984.00,0.0177
2983.00,0.0191
2982.00,0.0206
2981.00,0.0223
2980.00,0.0243
2979.00,0.0265
2978.00,0.0290
2977.00,0.0319
2976.00,0.0352
2975.00,0.0389
2974.00,0.0431
2973.00,0.0478
2972.00,0.0531
2971.00,0.0589
2970.00,0.0655
2969.00,0.0727
2968.00,0.0805
2967.00,0.0888
2966.00,0.0974
2965.00,0.1062
2964.00,0.1149
2963.00,0.1230
2962.00,0.1302
2961.00,0.1364
2960.00,0.1416
2959.00,0.1460
2958.00,0.1500
2957.00,0.1542
2956.00,0.1589
2955.00,0.1645
2954.00,0.1708
2953.00,0.1775
2952.00,0.1836
2951.00,0.1884
2950.00,0.1906
2949.00,0.1896
2948.00,0.1848
2947.00,0.1764
2946.00,0.1652
2945.00,0.1524
2944.00,0.1397
2943.00,0.1281
2942.00,0.1187
2941.00,0.1118
2940.00,0.1074
2939.00,0.1054
2938.00,0.1055
2937.00,0.1076
2936.00,0.1113
2935.00,0.1166
2934.00,0.1233
2933.00,0.1312
2932.00,0.1402
2931.00,0.1500
2930.00,0.1604
2929.00,0.1711
2928.00,0.1817
2927.00,0.1921
2926.00,0.2019
2925.00,0.2113
2924.00,0.2203
2923.00,0.2291
2922.00,0.2377
2921.00,0.2460
2920.00,0.2534
2919.00,0.2592
2918.00,0.2625
2917.00,0.2627
2916.00,0.2596
2915.00,0.2536
2914.00,0.2455
2913.00,0.2362
2912.00,0.2265
2911.00,0.2171
2910.00,0.2084
2909.00,0.2004
2908.00,0.1929
2907.00,0.1858
2906.00,0.1787
2905.00,0.1717
2904.00,0.1647
2903.00,0.1577
2902.00,0.1507
2901.00,0.1439
2900.00,0.1374
2899.00,0.1312
2898.00,0.1255
2897.00,0.1203
2896.00,0.1157
2895.00,0.1118
2894.00,0.1086
2893.00,0.1060
2892.00,0.1041
2891.00,0.1029
2890.00,0.1022
2889.00,0.1020
2888.00,0.1023
2887.00,0.1028
2886.00,0.1038
2885.00,0.1051
2884.00,0.1069
2883.00,0.1092
2882.00,0.1119
2881.00,0.1149
2880.00,0.1179
2879.00,0.1205
2878.00,0.1223
2877.00,0.1231
2876.00,0.1229
2875.00,0.1222
2874.00,0.1214
2873.00,0.1211
2872.00,0.1214
2871.00,0.1226
2870.00,0.1243
2869.00,0.1261
2868.00,0.1273
2867.00,0.1269
2866.00,0.1243
2865.00,0.1191
2864.00,0.1117
2863.00,0.1028
2862.00,0.0936
2861.00,0.0848
2860.00,0.0773
2859.00,0.0712
2858.00,0.0666
2857.00,0.0633
2856.00,0.0612
2855.00,0.0600
2854.00,0.0596
2853.00,0.0598
2852.00,0.0606
2851.00,0.0619
2850.00,0.0636
2849.00,0.0660
2848.00,0.0690
2847.00,0.0728
2846.00,0.0774
2845.00,0.0830
2844.00,0.0892
2843.00,0.0961
2842.00,0.1031
2841.00,0.1097
2840.00,0.1153
2839.00,0.1191
2838.00,0.1201
2837.00,0.1179
2836.00,0.1124
2835.00,0.1041
2834.00,0.0939
2833.00,0.0830
2832.00,0.0725
2831.00,0.0632
2830.00,0.0552
2829.00,0.0487
2828.00,0.0435
2827.00,0.0392
2826.00,0.0358
2825.00,0.0329
2824.00,0.0306
2823.00,0.0286
2822.00,0.0269
2821.00,0.0255
2820.00,0.0242
2819.00,0.0232
2818.00,0.0222
2817.00,0.0214
2816.00,0.0207
2815.00,0.0200
2814.00,0.0194
2813.00,0.0188
2812.00,0.0183
2811.00,0.0178
2810.00,0.0172
2809.00,0.0166
2808.00,0.0160
2807.00,0.0154
2806.00,0.0147
2805.00,0.0141
2804.00,0.0134
2803.00,0.0128
2802.00,0.0123
2801.00,0.0119
2800.00,0.0115
2799.00,0.0112
2798.00,0.0109
2797.00,0.0107
2796.00,0.0104
2795.00,0.0102
2794.00,0.0100
2793.00,0.0097
2792.00,0.0094
2791.00,0.0091
2790.00,0.0088
2789.00,0.0085
2788.00,0.0082
2787.00,0.0079
2786.00,0.0077
2785.00,0.0074
2784.00,0.0073
2783.00,0.0071
2782.00,0.0069
2781.00,0.0067
2780.00,0.0066
2779.00,0.0064
2778.00,0.0062
2777.00,0.0060
2776.00,0.0059
2775.00,0.0058
2774.00,0.0058
2773.00,0.0057
2772.00,0.0057
2771.00,0.0056
2770.00,0.0056
2769.00,0.0056
2768.00,0.0055
2767.00,0.0055
2766.00,0.0055
2765.00,0.0054
2764.00,0.0054
2763.00,0.0053
2762.00,0.0053
2761.00,0.0052
2760.00,0.0052
2759.00,0.0052
2758.00,0.0052
2757.00,0.0051
2756.00,0.0051
2755.00,0.0051
2754.00,0.0051
2753.00,0.0051
2752.00,0.0051
2751.00,0.0051
2750.00,0.0050
2749.00,0.0050
2748.00,0.0051
2747.00,0.0051
2746.00,0.0052
2745.00,0.0052
2744.00,0.0053
2743.00,0.0054
2742.00,0.0055
2741.00,0.0056
2740.00,0.0057
2739.00,0.0059
2738.00,0.0060
2737.00,0.0062
2736.00,0.0063
2735.00,0.0065
2734.00,0.0066
2733.00,0.0068
2732.00,0.0069
2731.00,0.0071
2730.00,0.0073
2729.00,0.0076
2728.00,0.0079
2727.00,0.0082
2726.00,0.0085
2725.00,0.0087
2724.00,0.0089
2723.00,0.0089
2722.00,0.0088
2721.00,0.0086
2720.00,0.0083
2719.00,0.0080
2718.00,0.0076
2717.00,0.0073
2716.00,0.0070
2715.00,0.0067
2714.00,0.0064
2713.00,0.0062
2712.00,0.0060
2711.00,0.0058
2710.00,0.0056
2709.00,0.0055
2708.00,0.0054
2707.00,0.0052
2706.00,0.0051
2705.00,0.0050
2704.00,0.0049
2703.00,0.0048
2702.00,0.0047
2701.00,0.0046
2700.00,0.0046
2699.00,0.0045
2698.00,0.0045
2697.00,0.0045
2696.00,0.0045
2695.00,0.0044
2694.00,0.0044
2693.00,0.0044
2692.00,0.0044
2691.00,0.0044
2690.00,0.0044
2689.00,0.0044
2688.00,0.0044
2687.00,0.0044
2686.00,0.0044
2685.00,0.0044
2684.00,0.0044
2683.00,0.0043
2682.00,0.0043
2681.00,0.0043
2680.00,0.0043
2679.00,0.0044
2678.00,0.0044
2677.00,0.0044
2676.00,0.0044
2675.00,0.0044
2674.00,0.0044
2673.00,0.0043
2672.00,0.0043
2671.00,0.0043
2670.00,0.0043
2669.00,0.0043
2668.00,0.0043
2667.00,0.0043
2666.00,0.0044
2665.00,0.0044
2664.00,0.0045
2663.00,0.0045
2662.00,0.0045
2661.00,0.0046
2660.00,0.0046
2659.00,0.0046
2658.00,0.0046
2657.00,0.0046
2656.00,0.0046
2655.00,0.0046
2654.00,0.0046
2653.00,0.0045
2652.00,0.0044
2651.00,0.0043
2650.00,0.0042
2649.00,0.0041
2648.00,0.0041
2647.00,0.0041
2646.00,0.0040
2645.00,0.0040
2644.00,0.0040
2643.00,0.0040
2642.00,0.0039
2641.00,0.0038
2640.00,0.0038
2639.00,0.0037
2638.00,0.0037
2637.00,0.0036
2636.00,0.0036
2635.00,0.0036
2634.00,0.0036
2633.00,0.0037
2632.00,0.0037
2631.00,0.0037
2630.00,0.0036
2629.00,0.0036
2628.00,0.0037
2627.00,0.0037
2626.00,0.0037
2625.00,0.0038
2624.00,0.0038
2623.00,0.0038
2622.00,0.0038
2621.00,0.0038
2620.00,0.0038
2619.00,0.0038
2618.00,0.0038
2617.00,0.0038
2616.00,0.0038
2615.00,0.0038
2614.00,0.0038
2613.00,0.0038
2612.00,0.0038
2611.00,0.0037
2610.00,0.0037
2609.00,0.0036
2608.00,0.0036
2607.00,0.0035
2606.00,0.0034
2605.00,0.0034
2604.00,0.0033
2603.00,0.0033
2602.00,0.0032
2601.00,0.0032
2600.00,0.0031
2599.00,0.0031
2598.00,0.0031
2597.00,0.0031
2596.00,0.0031
2595.00,0.0031
2594.00,0.0031
2593.00,0.0031
2592.00,0.0032
2591.00,0.0033
2590.00,0.0033
2589.00,0.0034
2588.00,0.0035
2587.00,0.0036
2586.00,0.0036
2585.00,0.0037
2584.00,0.0038
2583.00,0.0038
2582.00,0.0038
2581.00,0.0038
2580.00,0.0038
2579.00,0.0037
2578.00,0.0036
2577.00,0.0035
2576.00,0.0034
2575.00,0.0033
2574.00,0.0032
2573.00,0.0032
2572.00,0.0031
2571.00,0.0030
2570.00,0.0029
2569.00,0.0028
2568.00,0.0027
2567.00,0.0027
2566.00,0.0026
2565.00,0.0025
2564.00,0.0025
2563.00,0.0025
2562.00,0.0025
2561.00,0.0025
2560.00,0.0025
2559.00,0.0024
2558.00,0.0023
2557.00,0.0022
2556.00,0.0021
2555.00,0.0020
2554.00,0.0020
2553.00,0.0020
2552.00,0.0020
2551.00,0.0021
2550.00,0.0021
2549.00,0.0021
2548.00,0.0020
2547.00,0.0020
2546.00,0.0019
2545.00,0.0018
2544.00,0.0018
2543.00,0.0018
2542.00,0.0017
2541.00,0.0017
2540.00,0.0017
2539.00,0.0016
2538.00,0.0016
2537.00,0.0016
2536.00,0.0017
2535.00,0.0016
2534.00,0.0016
2533.00,0.0016
2532.00,0.0015
2531.00,0.0015
2530.00,0.0015
2529.00,0.0016
2528.00,0.0016
2527.00,0.0015
2526.00,0.0014
2525.00,0.0014
2524.00,0.0013
2523.00,0.0013
2522.00,0.0012
2521.00,0.0012
2520.00,0.0012
2519.00,0.0013
2518.00,0.0013
2517.00,0.0012
2516.00,0.0012
2515.00,0.0011
2514.00,0.0011
2513.00,0.0011
2512.00,0.0011
2511.00,0.0011
2510.00,0.0011
2509.00,0.0011
2508.00,0.0010
2507.00,0.0010
2506.00,0.0010
2505.00,0.0010
2504.00,0.0011
2503.00,0.0011
2502.00,0.0011
2501.00,0.0011
2500.00,0.0010
2499.00,0.0009
2498.00,0.0009
2497.00,0.0009
2496.00,0.0010
2495.00,0.0010
2494.00,0.0011
2493.00,0.0011
2492.00,0.0011
2491.00,0.0011
2490.00,0.0011
2489.00,0.0010
2488.00,0.0010
2487.00,0.0010
2486.00,0.0009
2485.00,0.0009
2484.00,0.0009
2483.00,0.0008
2482.00,0.0008
2481.00,0.0008
2480.00,0.0008
2479.00,0.0008
2478.00,0.0008
2477.00,0.0008
2476.00,0.0009
2475.00,0.0009
2474.00,0.0009
2473.00,0.0009
2472.00,0.0009
2471.00,0.0009
2470.00,0.0009
2469.00,0.0009
2468.00,0.0009
2467.00,0.0008
2466.00,0.0008
2465.00,0.0008
2464.00,0.0008
2463.00,0.0009
2462.00,0.0009
2461.00,0.0009
2460.00,0.0010
2459.00,0.0011
2458.00,0.0012
2457.00,0.0012
2456.00,0.0012
2455.00,0.0012
2454.00,0.0011
2453.00,0.0010
2452.00,0.0010
2451.00,0.0010
2450.00,0.0011
2449.00,0.0011
2448.00,0.0011
2447.00,0.0011
2446.00,0.0010
2445.00,0.0010
2444.00,0.0010
2443.00,0.0010
2442.00,0.0010
2441.00,0.0010
2440.00,0.0010
2439.00,0.0010
2438.00,0.0011
2437.00,0.0011
2436.00,0.0012
2435.00,0.0011
2434.00,0.0011
2433.00,0.0011
2432.00,0.0011
2431.00,0.0011
2430.00,0.0012
2429.00,0.0012
2428.00,0.0012
2427.00,0.0012
2426.00,0.0012
2425.00,0.0012
2424.00,0.0011
2423.00,0.0011
2422.00,0.0010
2421.00,0.0010
2420.00,0.0010
2419.00,0.0010
2418.00,0.0009
2417.00,0.0010
2416.00,0.0010
2415.00,0.0010
2414.00,0.0010
2413.00,0.0010
2412.00,0.0010
2411.00,0.0009
2410.00,0.0009
2409.00,0.0009
2408.00,0.0009
2407.00,0.0009
2406.00,0.0010
2405.00,0.0010
2404.00,0.0010
2403.00,0.0010
2402.00,0.0010
2401.00,0.0009
2400.00,0.0009
2399.00,0.0008
2398.00,0.0008
2397.00,0.0009
2396.00,0.0009
2395.00,0.0009
2394.00,0.0009
2393.00,0.0009
2392.00,0.0008
2391.00,0.0008
2390.00,0.0008
2389.00,0.0008
2388.00,0.0007
2387.00,0.0007
2386.00,0.0007
2385.00,0.0007
2384.00,0.0007
2383.00,0.0007
2382.00,0.0007
2381.00,0.0006
2380.00,0.0006
2379.00,0.0006
2378.00,0.0006
2377.00,0.0006
2376.00,0.0006
2375.00,0.0006
2374.00,0.0005
2373.00,0.0006
2372.00,0.0006
2371.00,0.0007
2370.00,0.0007
2369.00,0.0006
2368.00,0.0006
2367.00,0.0006
2366.00,0.0006
2365.00,0.0007
2364.00,0.0007
2363.00,0.0007
2362.00,0.0008
2361.00,0.0009
2360.00,0.0010
2359.00,0.0010
2358.00,0.0009
2357.00,0.0009
2356.00,0.0009
2355.00,0.0009
2354.00,0.0009
2353.00,0.0008
2352.00,0.0008
2351.00,0.0007
2350.00,0.0007
2349.00,0.0008
2348.00,0.0008
2347.00,0.0009
2346.00,0.0009
2345.00,0.0008
2344.00,0.0008
2343.00,0.0008
2342.00,0.0008
2341.00,0.0009
2340.00,0.0009
2339.00,0.0010
2338.00,0.0010
2337.00,0.0010
2336.00,0.0011
2335.00,0.0011
2334.00,0.0011
2333.00,0.0011
2332.00,0.0010
2331.00,0.0009
2330.00,0.0009
2329.00,0.0010
2328.00,0.0011
2327.00,0.0014
2326.00,0.0018
2325.00,0.0022
2324.00,0.0024
2323.00,0.0024
2322.00,0.0022
2321.00,0.0019
2320.00,0.0017
2319.00,0.0015
2318.00,0.0014
2317.00,0.0014
2316.00,0.0014
2315.00,0.0014
2314.00,0.0013
2313.00,0.0013
2312.00,0.0013
2311.00,0.0013
2310.00,0.0013
2309.00,0.0013
2308.00,0.0013
2307.00,0.0013
2306.00,0.0012
2305.00,0.0012
2304.00,0.0012
2303.00,0.0012
2302.00,0.0012
2301.00,0.0013
2300.00,0.0014
2299.00,0.0014
2298.00,0.0014
2297.00,0.0013
2296.00,0.0013
2295.00,0.0014
2294.00,0.0014
2293.00,0.0015
2292.00,0.0016
2291.00,0.0017
2290.00,0.0018
2289.00,0.0018
2288.00,0.0019
2287.00,0.0018
2286.00,0.0018
2285.00,0.0018
2284.00,0.0017
2283.00,0.0017
2282.00,0.0017
2281.00,0.0017
2280.00,0.0016
2279.00,0.0016
2278.00,0.0015
2277.00,0.0014
2276.00,0.0014
2275.00,0.0014
2274.00,0.0014
2273.00,0.0015
2272.00,0.0015
2271.00,0.0016
2270.00,0.0016
2269.00,0.0016
2268.00,0.0015
2267.00,0.0014
2266.00,0.0012
2265.00,0.0011
2264.00,0.0011
2263.00,0.0011
2262.00,0.0011
2261.00,0.0012
2260.00,0.0013
2259.00,0.0014
2258.00,0.0012
2257.00,0.0011
2256.00,0.0010
2255.00,0.0010
2254.00,0.0010
2253.00,0.0011
2252.00,0.0011
2251.00,0.0011
2250.00,0.0010
2249.00,0.0010
2248.00,0.0010
2247.00,0.0010
2246.00,0.0011
2245.00,0.0011
2244.00,0.0010
2243.00,0.0009
2242.00,0.0008
2241.00,0.0008
2240.00,0.0008
2239.00,0.0008
2238.00,0.0008
2237.00,0.0007
2236.00,0.0006
2235.00,0.0005
2234.00,0.0006
2233.00,0.0007
2232.00,0.0008
2231.00,0.0008
2230.00,0.0010
2229.00,0.0012
2228.00,0.0014
2227.00,0.0014
2226.00,0.0014
2225.00,0.0013
2224.00,0.0012
2223.00,0.0012
2222.00,0.0013
2221.00,0.0013
2220.00,0.0013
2219.00,0.0012
2218.00,0.0011
2217.00,0.0010
2216.00,0.0010
2215.00,0.0010
2214.00,0.0010
2213.00,0.0009
2212.00,0.0008
2211.00,0.0007
2210.00,0.0007
2209.00,0.0008
2208.00,0.0009
2207.00,0.0011
2206.00,0.0011
2205.00,0.0010
2204.00,0.0009
2203.00,0.0008
2202.00,0.0008
2201.00,0.0008
2200.00,0.0007
2199.00,0.0006
2198.00,0.0005
2197.00,0.0005
2196.00,0.0005
2195.00,0.0005
2194.00,0.0005
2193.00,0.0006
2192.00,0.0007
2191.00,0.0008
2190.00,0.0008
2189.00,0.0007
2188.00,0.0008
2187.00,0.0009
2186.00,0.0011
2185.00,0.0013
2184.00,0.0012
2183.00,0.0012
2182.00,0.0011
2181.00,0.0012
2180.00,0.0014
2179.00,0.0016
2178.00,0.0018
2177.00,0.0017
2176.00,0.0013
2175.00,0.0009
2174.00,0.0006
2173.00,0.0005
2172.00,0.0005
2171.00,0.0006
2170.00,0.0008
2169.00,0.0010
2168.00,0.0013
2167.00,0.0015
2166.00,0.0016
2165.00,0.0015
2164.00,0.0014
2163.00,0.0013
2162.00,0.0013
2161.00,0.0010
2160.00,0.0001
2159.00,-0.0011
2158.00,-0.0020
2157.00,-0.0023
2156.00,-0.0022
2155.00,-0.0020
2154.00,-0.0018
2153.00,-0.0016
2152.00,-0.0014
2151.00,-0.0012
2150.00,-0.0011
2149.00,-0.0010
2148.00,-0.0011
2147.00,-0.0013
2146.00,-0.0015
2145.00,-0.0015
2144.00,-0.0014
2143.00,-0.0012
2142.00,-0.0011
2141.00,-0.0009
2140.00,-0.0006
2139.00,-0.0005
2138.00,-0.0004
2137.00,-0.0004
2136.00,-0.0007
2135.00,-0.0011
2134.00,-0.0015
2133.00,-0.0017
2132.00,-0.0016
2131.00,-0.0014
2130.00,-0.0011
2129.00,-0.0010
2128.00,-0.0009
2127.00,-0.0007
2126.00,-0.0005
2125.00,-0.0004
2124.00,-0.0003
2123.00,-0.0003
2122.00,-0.0004
2121.00,-0.0004
2120.00,-0.0004
2119.00,-0.0004
2118.00,-0.0003
2117.00,-0.0002
2116.00,-0.0000
2115.00,0.0002
2114.00,0.0003
2113.00,0.0003
2112.00,0.0003
2111.00,0.0002
2110.00,0.0002
2109.00,0.0002
2108.00,0.0003
2107.00,0.0003
2106.00,0.0003
2105.00,0.0003
2104.00,0.0002
2103.00,0.0001
2102.00,-0.0000
2101.00,-0.0001
2100.00,-0.0001
2099.00,-0.0000
2098.00,0.0001
2097.00,0.0000
2096.00,-0.0002
2095.00,-0.0004
2094.00,-0.0004
2093.00,-0.0003
2092.00,-0.0000
2091.00,0.0001
2090.00,0.0001
2089.00,0.0000
2088.00,-0.0001
2087.00,-0.0001
2086.00,-0.0001
2085.00,0.0001
2084.00,0.0003
2083.00,0.0004
2082.00,0.0005
2081.00,0.0005
2080.00,0.0005
2079.00,0.0004
2078.00,0.0003
2077.00,0.0002
2076.00,0.0001
2075.00,0.0001
2074.00,0.0001
2073.00,0.0002
2072.00,0.0003
2071.00,0.0004
2070.00,0.0005
2069.00,0.0006
2068.00,0.0006
2067.00,0.0006
2066.00,0.0004
2065.00,0.0003
2064.00,0.0001
2063.00,-0.0001
2062.00,-0.0003
2061.00,-0.0003
2060.00,-0.0003
2059.00,-0.0003
2058.00,-0.0001
2057.00,-0.0000
2056.00,0.0001
2055.00,0.0001
2054.00,0.0002
2053.00,0.0004
2052.00,0.0006
2051.00,0.0008
2050.00,0.0007
2049.00,0.0004
2048.00,0.0003
2047.00,0.0002
2046.00,0.0003
2045.00,0.0002
2044.00,0.0002
2043.00,0.0003
2042.00,0.0004
2041.00,0.0006
2040.00,0.0006
2039.00,0.0006
2038.00,0.0005
2037.00,0.0005
2036.00,0.0005
2035.00,0.0006
2034.00,0.0007
2033.00,0.0007
2032.00,0.0005
2031.00,0.0000
2030.00,-0.0005
2029.00,-0.0009
2028.00,-0.0011
2027.00,-0.0012
2026.00,-0.0012
2025.00,-0.0011
2024.00,-0.0009
2023.00,-0.0008
2022.00,-0.0007
2021.00,-0.0007
2020.00,-0.0007
2019.00,-0.0008
2018.00,-0.0009
2017.00,-0.0010
2016.00,-0.0013
2015.00,-0.0015
2014.00,-0.0015
2013.00,-0.0014
2012.00,-0.0012
2011.00,-0.0011
2010.00,-0.0010
2009.00,-0.0010
2008.00,-0.0012
2007.00,-0.0014
2006.00,-0.0016
2005.00,-0.0017
2004.00,-0.0017
2003.00,-0.0015
2002.00,-0.0012
2001.00,-0.0009
2000.00,-0.0008
1999.00,-0.0007
1998.00,-0.0008
1997.00,-0.0008
1996.00,-0.0007
1995.00,-0.0005
1994.00,-0.0003
1993.00,0.0000
1992.00,0.0002
1991.00,0.0003
1990.00,0.0003
1989.00,0.0004
1988.00,0.0004
1987.00,0.0004
1986.00,0.0003
1985.00,0.0001
1984.00,0.0000
1983.00,0.0001
1982.00,0.0004
1981.00,0.0008
1980.00,0.0011
1979.00,0.0010
1978.00,0.0004
1977.00,-0.0002
1976.00,-0.0007
1975.00,-0.0009
1974.00,-0.0011
1973.00,-0.0012
1972.00,-0.0014
1971.00,-0.0016
1970.00,-0.0016
1969.00,-0.0014
1968.00,-0.0012
1967.00,-0.0010
1966.00,-0.0008
1965.00,-0.0007
1964.00,-0.0006
1963.00,-0.0006
1962.00,-0.0007
1961.00,-0.0008
1960.00,-0.0011
1959.00,-0.0015
1958.00,-0.0018
1957.00,-0.0018
1956.00,-0.0015
1955.00,-0.0013
1954.00,-0.0011
1953.00,-0.0009
1952.00,-0.0009
1951.00,-0.0010
1950.00,-0.0011
1949.00,-0.0012
1948.00,-0.0012
1947.00,-0.0011
1946.00,-0.0010
1945.00,-0.0009
1944.00,-0.0009
1943.00,-0.0010
1942.00,-0.0010
1941.00,-0.0010
1940.00,-0.0009
1939.00,-0.0009
1938.00,-0.0009
1937.00,-0.0010
1936.00,-0.0011
1935.00,-0.0010
1934.00,-0.0009
1933.00,-0.0008
1932.00,-0.0008
1931.00,-0.0008
1930.00,-0.0008
1929.00,-0.0008
1928.00,-0.0007
1927.00,-0.0005
1926.00,-0.0004
1925.00,-0.0003
1924.00,-0.0002
1923.00,-0.0002
1922.00,-0.0002
1921.00,-0.0002
1920.00,-0.0003
1919.00,-0.0004
1918.00,-0.0005
1917.00,-0.0005
1916.00,-0.0004
1915.00,-0.0003
1914.00,-0.0002
1913.00,-0.0002
1912.00,-0.0003
1911.00,-0.0003
1910.00,-0.0002
1909.00,-0.0001
1908.00,-0.0001
1907.00,-0.0001
1906.00,-0.0001
1905.00,-0.0001
1904.00,-0.0001
1903.00,-0.0001
1902.00,-0.0001
1901.00,-0.0000
1900.00,0.0001
1899.00,0.0001
1898.00,0.0001
1897.00,0.0000
1896.00,-0.0001
1895.00,-0.0001
1894.00,-0.0001
1893.00,-0.0001
1892.00,-0.0000
1891.00,-0.0000
1890.00,-0.0000
1889.00,0.0000
1888.00,0.0001
1887.00,0.0001
1886.00,0.0001
1885.00,0.0000
1884.00,-0.0000
1883.00,-0.0001
1882.00,-0.0001
1881.00,-0.0001
1880.00,-0.0001
1879.00,-0.0000
1878.00,-0.0000
1877.00,0.0000
1876.00,-0.0000
1875.00,-0.0000
1874.00,-0.0000
1873.00,-0.0001
1872.00,-0.0001
1871.00,-0.0001
1870.00,-0.0000
1869.00,0.0000
1868.00,0.0001
1867.00,0.0001
1866.00,0.0001
1865.00,0.0002
1864.00,0.0003
1863.00,0.0003
1862.00,0.0003
1861.00,0.0003
1860.00,0.0003
1859.00,0.0001
1858.00,0.0001
1857.00,0.0001
1856.00,0.0001
1855.00,0.0002
1854.00,0.0002
1853.00,0.0002
1852.00,0.0002
1851.00,0.0003
1850.00,0.0003
1849.00,0.0003
1848.00,0.0003
1847.00,0.0003
1846.00,0.0003
1845.00,0.0003
1844.00,0.0003
1843.00,0.0003
1842.00,0.0003
1841.00,0.0003
1840.00,0.0004
1839.00,0.0004
1838.00,0.0003
1837.00,0.0004
1836.00,0.0004
1835.00,0.0004
1834.00,0.0004
1833.00,0.0005
1832.00,0.0005
1831.00,0.0005
1830.00,0.0005
1829.00,0.0005
1828.00,0.0005
1827.00,0.0004
1826.00,0.0004
1825.00,0.0005
1824.00,0.0005
1823.00,0.0005
1822.00,0.0005
1821.00,0.0004
1820.00,0.0004
1819.00,0.0003
1818.00,0.0002
1817.00,0.0001
1816.00,0.0001
1815.00,0.0001
1814.00,0.0001
1813.00,0.0002
1812.00,0.0003
1811.00,0.0003
1810.00,0.0004
1809.00,0.0004
1808.00,0.0004
1807.00,0.0004
1806.00,0.0004
1805.00,0.0004
1804.00,0.0005
1803.00,0.0005
1802.00,0.0005
1801.00,0.0005
1800.00,0.0005
1799.00,0.0006
1798.00,0.0007
1797.00,0.0007
1796.00,0.0008
1795.00,0.0007
1794.00,0.0007
1793.00,0.0006
1792.00,0.0006
1791.00,0.0006
1790.00,0.0006
1789.00,0.0006
1788.00,0.0007
1787.00,0.0007
1786.00,0.0007
1785.00,0.0007
1784.00,0.0006
1783.00,0.0006
1782.00,0.0005
1781.00,0.0005
1780.00,0.0005
1779.00,0.0004
1778.00,0.0003
1777.00,0.0003
1776.00,0.0002
1775.00,0.0001
1774.00,0.0001
1773.00,0.0001
1772.00,0.0001
1771.00,0.0002
1770.00,0.0003
1769.00,0.0004
1768.00,0.0005
1767.00,0.0005
1766.00,0.0005
1765.00,0.0006
1764.00,0.0006
1763.00,0.0007
1762.00,0.0008
1761.00,0.0008
1760.00,0.0009
1759.00,0.0009
1758.00,0.0010
1757.00,0.0010
1756.00,0.0010
1755.00,0.0010
1754.00,0.0009
1753.00,0.0010
1752.00,0.0011
1751.00,0.0011
1750.00,0.0011
1749.00,0.0011
1748.00,0.0011
1747.00,0.0011
1746.00,0.0011
1745.00,0.0011
1744.00,0.0012
1743.00,0.0012
1742.00,0.0012
1741.00,0.0012
1740.00,0.0012
1739.00,0.0012
1738.00,0.0012
1737.00,0.0012
1736.00,0.0012
1735.00,0.0012
1734.00,0.0012
1733.00,0.0012
1732.00,0.0012
1731.00,0.0012
1730.00,0.0012
1729.00,0.0012
1728.00,0.0012
1727.00,0.0012
1726.00,0.0011
1725.00,0.0012
1724.00,0.0012
1723.00,0.0012
1722.00,0.0012
1721.00,0.0012
1720.00,0.0012
1719.00,0.0012
1718.00,0.0012
1717.00,0.0013
1716.00,0.0015
1715.00,0.0016
1714.00,0.0017
1713.00,0.0017
1712.00,0.0017
1711.00,0.0017
1710.00,0.0018
1709.00,0.0018
1708.00,0.0019
1707.00,0.0020
1706.00,0.0021
1705.00,0.0022
1704.00,0.0023
1703.00,0.0024
1702.00,0.0026
1701.00,0.0028
1700.00,0.0030
1699.00,0.0032
1698.00,0.0033
1697.00,0.0035
1696.00,0.0038
1695.00,0.0040
1694.00,0.0041
1693.00,0.0043
1692.00,0.0045
1691.00,0.0047
1690.00,0.0049
1689.00,0.0051
1688.00,0.0052
1687.00,0.0053
1686.00,0.0054
1685.00,0.0057
1684.00,0.0061
1683.00,0.0064
1682.00,0.0066
1681.00,0.0069
1680.00,0.0071
1679.00,0.0073
1678.00,0.0075
1677.00,0.0077
1676.00,0.0078
1675.00,0.0079
1674.00,0.0080
1673.00,0.0081
1672.00,0.0083
1671.00,0.0085
1670.00,0.0087
1669.00,0.0089
1668.00,0.0091
1667.00,0.0091
1666.00,0.0092
1665.00,0.0093
1664.00,0.0095
1663.00,0.0096
1662.00,0.0097
1661.00,0.0098
1660.00,0.0099
1659.00,0.0100
1658.00,0.0100
1657.00,0.0101
1656.00,0.0101
1655.00,0.0101
1654.00,0.0101
1653.00,0.0101
1652.00,0.0100
1651.00,0.0100
1650.00,0.0100
1649.00,0.0100
1648.00,0.0100
1647.00,0.0101
1646.00,0.0101
1645.00,0.0101
1644.00,0.0100
1643.00,0.0100
1642.00,0.0100
1641.00,0.0099
1640.00,0.0099
1639.00,0.0098
1638.00,0.0097
1637.00,0.0096
1636.00,0.0096
1635.00,0.0097
1634.00,0.0097
1633.00,0.0097
1632.00,0.0097
1631.00,0.0096
1630.00,0.0095
1629.00,0.0094
1628.00,0.0093
1627.00,0.0093
1626.00,0.0092
1625.00,0.0091
1624.00,0.0090
1623.00,0.0089
1622.00,0.0087
1621.00,0.0086
1620.00,0.0085
1619.00,0.0084
1618.00,0.0084
1617.00,0.0083
1616.00,0.0083
1615.00,0.0083
1614.00,0.0082
1613.00,0.0082
1612.00,0.0081
1611.00,0.0079
1610.00,0.0078
1609.00,0.0078
1608.00,0.0078
1607.00,0.0078
1606.00,0.0078
1605.00,0.0079
1604.00,0.0079
1603.00,0.0079
1602.00,0.0079
1601.00,0.0080
1600.00,0.0080
1599.00,0.0080
1598.00,0.0080
1597.00,0.0080
1596.00,0.0081
1595.00,0.0081
1594.00,0.0082
1593.00,0.0082
1592.00,0.0083
1591.00,0.0084
1590.00,0.0085
1589.00,0.0087
1588.00,0.0088
1587.00,0.0090
1586.00,0.0092
1585.00,0.0096
1584.00,0.0100
1583.00,0.0104
1582.00,0.0108
1581.00,0.0112
1580.00,0.0114
1579.00,0.0116
1578.00,0.0117
1577.00,0.0116
1576.00,0.0115
1575.00,0.0114
1574.00,0.0112
1573.00,0.0111
1572.00,0.0110
1571.00,0.0107
1570.00,0.0105
1569.00,0.0102
1568.00,0.0100
1567.00,0.0099
1566.00,0.0098
1565.00,0.0098
1564.00,0.0097
1563.00,0.0097
1562.00,0.0097
1561.00,0.0097
1560.00,0.0098
1559.00,0.0099
1558.00,0.0101
1557.00,0.0103
1556.00,0.0104
1555.00,0.0106
1554.00,0.0108
1553.00,0.0109
1552.00,0.0111
1551.00,0.0114
1550.00,0.0117
1549.00,0.0120
1548.00,0.0123
1547.00,0.0126
1546.00,0.0129
1545.00,0.0133
1544.00,0.0137
1543.00,0.0139
1542.00,0.0140
1541.00,0.0139
1540.00,0.0137
1539.00,0.0132
1538.00,0.0127
1537.00,0.0124
1536.00,0.0120
1535.00,0.0115
1534.00,0.0109
1533.00,0.0103
1532.00,0.0100
1531.00,0.0097
1530.00,0.0095
1529.00,0.0093
1528.00,0.0092
1527.00,0.0090
1526.00,0.0088
1525.00,0.0086
1524.00,0.0085
1523.00,0.0085
1522.00,0.0084
1521.00,0.0085
1520.00,0.0085
1519.00,0.0085
1518.00,0.0084
1517.00,0.0085
1516.00,0.0086
1515.00,0.0086
1514.00,0.0086
1513.00,0.0086
1512.00,0.0086
1511.00,0.0086
1510.00,0.0085
1509.00,0.0085
1508.00,0.0086
1507.00,0.0086
1506.00,0.0086
1505.00,0.0086
1504.00,0.0087
1503.00,0.0089
1502.00,0.0090
1501.00,0.0092
1500.00,0.0094
1499.00,0.0096
1498.00,0.0097
1497.00,0.0100
1496.00,0.0103
1495.00,0.0106
1494.00,0.0109
1493.00,0.0112
1492.00,0.0116
1491.00,0.0120
1490.00,0.0124
1489.00,0.0130
1488.00,0.0136
1487.00,0.0141
1486.00,0.0146
1485.00,0.0153
1484.00,0.0161
1483.00,0.0170
1482.00,0.0181
1481.00,0.0195
1480.00,0.0209
1479.00,0.0223
1478.00,0.0238
1477.00,0.0258
1476.00,0.0281
1475.00,0.0306
1474.00,0.0341
1473.00,0.0392
1472.00,0.0456
1471.00,0.0519
1470.00,0.0579
1469.00,0.0643
1468.00,0.0712
1467.00,0.0789
1466.00,0.0877
1465.00,0.0974
1464.00,0.1060
1463.00,0.1122
1462.00,0.1164
1461.00,0.1196
1460.00,0.1220
1459.00,0.1236
1458.00,0.1250
1457.00,0.1260
1456.00,0.1263
1455.00,0.1257
1454.00,0.1247
1453.00,0.1230
1452.00,0.1203
1451.00,0.1161
1450.00,0.1105
1449.00,0.1028
1448.00,0.0933
1447.00,0.0835
1446.00,0.0747
1445.00,0.0674
1444.00,0.0612
1443.00,0.0563
1442.00,0.0527
1441.00,0.0503
1440.00,0.0490
1439.00,0.0486
1438.00,0.0489
1437.00,0.0491
1436.00,0.0480
1435.00,0.0452
1434.00,0.0411
1433.00,0.0364
1432.00,0.0316
1431.00,0.0273
1430.00,0.0241
1429.00,0.0218
1428.00,0.0202
1427.00,0.0193
1426.00,0.0187
1425.00,0.0181
1424.00,0.0177
1423.00,0.0173
1422.00,0.0171
1421.00,0.0169
1420.00,0.0165
1419.00,0.0162
1418.00,0.0159
1417.00,0.0155
1416.00,0.0151
1415.00,0.0149
1414.00,0.0147
1413.00,0.0145
1412.00,0.0143
1411.00,0.0142
1410.00,0.0141
1409.00,0.0139
1408.00,0.0137
1407.00,0.0136
1406.00,0.0136
1405.00,0.0135
1404.00,0.0135
1403.00,0.0135
1402.00,0.0136
1401.00,0.0137
1400.00,0.0138
1399.00,0.0139
1398.00,0.0141
1397.00,0.0143
1396.00,0.0145
1395.00,0.0149
1394.00,0.0154
1393.00,0.0160
1392.00,0.0166
1391.00,0.0175
1390.00,0.0187
1389.00,0.0205
1388.00,0.0231
1387.00,0.0269
1386.00,0.0321
1385.00,0.0386
1384.00,0.0472
1383.00,0.0588
1382.00,0.0740
1381.00,0.0936
1380.00,0.1178
1379.00,0.1456
1378.00,0.1728
1377.00,0.1935
1376.00,0.2016
1375.00,0.1930
1374.00,0.1700
1373.00,0.1411
1372.00,0.1141
1371.00,0.0917
1370.00,0.0737
1369.00,0.0600
1368.00,0.0506
1367.00,0.0448
1366.00,0.0417
1365.00,0.0405
1364.00,0.0408
1363.00,0.0422
1362.00,0.0444
1361.00,0.0467
1360.00,0.0484
1359.00,0.0487
1358.00,0.0475
1357.00,0.0447
1356.00,0.0408
1355.00,0.0363
1354.00,0.0321
1353.00,0.0284
1352.00,0.0255
1351.00,0.0232
1350.00,0.0213
1349.00,0.0198
1348.00,0.0185
1347.00,0.0175
1346.00,0.0167
1345.00,0.0160
1344.00,0.0155
1343.00,0.0152
1342.00,0.0149
1341.00,0.0146
1340.00,0.0144
1339.00,0.0142
1338.00,0.0141
1337.00,0.0140
1336.00,0.0140
1335.00,0.0142
1334.00,0.0144
1333.00,0.0148
1332.00,0.0153
1331.00,0.0156
1330.00,0.0157
1329.00,0.0155
1328.00,0.0151
1327.00,0.0144
1326.00,0.0138
1325.00,0.0131
1324.00,0.0125
1323.00,0.0121
1322.00,0.0117
1321.00,0.0113
1320.00,0.0110
1319.00,0.0108
1318.00,0.0105
1317.00,0.0102
1316.00,0.0100
1315.00,0.0099
1314.00,0.0098
1313.00,0.0098
1312.00,0.0099
1311.00,0.0101
1310.00,0.0104
1309.00,0.0109
1308.00,0.0117
1307.00,0.0126
1306.00,0.0135
1305.00,0.0142
1304.00,0.0145
1303.00,0.0144
1302.00,0.0142
1301.00,0.0139
1300.00,0.0138
1299.00,0.0138
1298.00,0.0139
1297.00,0.0140
1296.00,0.0139
1295.00,0.0137
1294.00,0.0133
1293.00,0.0127
1292.00,0.0122
1291.00,0.0116
1290.00,0.0111
1289.00,0.0107
1288.00,0.0103
1287.00,0.0100
1286.00,0.0097
1285.00,0.0094
1284.00,0.0092
1283.00,0.0090
1282.00,0.0088
1281.00,0.0086
1280.00,0.0085
1279.00,0.0083
1278.00,0.0082
1277.00,0.0081
1276.00,0.0081
1275.00,0.0081
1274.00,0.0081
1273.00,0.0082
1272.00,0.0082
1271.00,0.0082
1270.00,0.0083
1269.00,0.0084
1268.00,0.0086
1267.00,0.0088
1266.00,0.0090
1265.00,0.0093
1264.00,0.0095
1263.00,0.0098
1262.00,0.0101
1261.00,0.0104
1260.00,0.0109
1259.00,0.0116
1258.00,0.0122
1257.00,0.0127
1256.00,0.0129
1255.00,0.0127
1254.00,0.0122
1253.00,0.0115
1252.00,0.0108
1251.00,0.0101
1250.00,0.0097
1249.00,0.0094
1248.00,0.0092
1247.00,0.0090
1246.00,0.0089
1245.00,0.0089
1244.00,0.0088
1243.00,0.0087
1242.00,0.0086
1241.00,0.0086
1240.00,0.0086
1239.00,0.0085
1238.00,0.0084
1237.00,0.0083
1236.00,0.0083
1235.00,0.0083
1234.00,0.0084
1233.00,0.0084
1232.00,0.0084
1231.00,0.0083
1230.00,0.0083
1229.00,0.0084
1228.00,0.0085
1227.00,0.0086
1226.00,0.0089
1225.00,0.0092
1224.00,0.0095
1223.00,0.0099
1222.00,0.0102
1221.00,0.0105
1220.00,0.0106
1219.00,0.0107
1218.00,0.0107
1217.00,0.0105
1216.00,0.0102
1215.00,0.0099
1214.00,0.0096
1213.00,0.0092
1212.00,0.0089
1211.00,0.0086
1210.00,0.0084
1209.00,0.0081
1208.00,0.0079
1207.00,0.0078
1206.00,0.0076
1205.00,0.0074
1204.00,0.0072
1203.00,0.0071
1202.00,0.0070
1201.00,0.0070
1200.00,0.0069
1199.00,0.0069
1198.00,0.0069
1197.00,0.0069
1196.00,0.0069
1195.00,0.0069
1194.00,0.0068
1193.00,0.0069
1192.00,0.0069
1191.00,0.0070
1190.00,0.0071
1189.00,0.0072
1188.00,0.0072
1187.00,0.0073
1186.00,0.0074
1185.00,0.0075
1184.00,0.0076
1183.00,0.0078
1182.00,0.0080
1181.00,0.0083
1180.00,0.0087
1179.00,0.0092
1178.00,0.0098
1177.00,0.0107
1176.00,0.0118
1175.00,0.0132
1174.00,0.0150
1173.00,0.0173
1172.00,0.0200
1171.00,0.0230
1170.00,0.0258
1169.00,0.0282
1168.00,0.0296
1167.00,0.0300
1166.00,0.0295
1165.00,0.0285
1164.00,0.0271
1163.00,0.0257
1162.00,0.0244
1161.00,0.0233
1160.00,0.0223
1159.00,0.0216
1158.00,0.0211
1157.00,0.0208
1156.00,0.0205
1155.00,0.0204
1154.00,0.0202
1153.00,0.0199
1152.00,0.0195
1151.00,0.0189
1150.00,0.0182
1149.00,0.0174
1148.00,0.0165
1147.00,0.0156
1146.00,0.0147
1145.00,0.0139
1144.00,0.0132
1143.00,0.0125
1142.00,0.0119
1141.00,0.0114
1140.00,0.0109
1139.00,0.0104
1138.00,0.0100
1137.00,0.0097
1136.00,0.0095
1135.00,0.0093
1134.00,0.0092
1133.00,0.0091
1132.00,0.0090
1131.00,0.0091
1130.00,0.0091
1129.00,0.0092
1128.00,0.0094
1127.00,0.0096
1126.00,0.0097
1125.00,0.0099
1124.00,0.0100
1123.00,0.0100
1122.00,0.0100
1121.00,0.0100
1120.00,0.0100
1119.00,0.0100
1118.00,0.0102
1117.00,0.0105
1116.00,0.0107
1115.00,0.0108
1114.00,0.0110
1113.00,0.0111
1112.00,0.0114
1111.00,0.0116
1110.00,0.0120
1109.00,0.0125
1108.00,0.0130
1107.00,0.0137
1106.00,0.0144
1105.00,0.0151
1104.00,0.0157
1103.00,0.0161
1102.00,0.0161
1101.00,0.0158
1100.00,0.0153
1099.00,0.0147
1098.00,0.0140
1097.00,0.0134
1096.00,0.0128
1095.00,0.0123
1094.00,0.0119
1093.00,0.0115
1092.00,0.0111
1091.00,0.0108
1090.00,0.0106
1089.00,0.0105
1088.00,0.0103
1087.00,0.0101
1086.00,0.0100
1085.00,0.0099
1084.00,0.0098
1083.00,0.0097
1082.00,0.0096
1081.00,0.0094
1080.00,0.0091
1079.00,0.0090
1078.00,0.0088
1077.00,0.0087
1076.00,0.0086
1075.00,0.0085
1074.00,0.0085
1073.00,0.0086
1072.00,0.0086
1071.00,0.0087
1070.00,0.0087
1069.00,0.0087
1068.00,0.0087
1067.00,0.0088
1066.00,0.0088
1065.00,0.0089
1064.00,0.0089
1063.00,0.0089
1062.00,0.0089
1061.00,0.0088
1060.00,0.0088
1059.00,0.0089
1058.00,0.0089
1057.00,0.0090
1056.00,0.0091
1055.00,0.0092
1054.00,0.0093
1053.00,0.0092
1052.00,0.0092
1051.00,0.0093
1050.00,0.0095
1049.00,0.0098
1048.00,0.0100
1047.00,0.0102
1046.00,0.0104
1045.00,0.0105
1044.00,0.0105
1043.00,0.0105
1042.00,0.0104
1041.00,0.0102
1040.00,0.0101
1039.00,0.0101
1038.00,0.0103
1037.00,0.0105
1036.00,0.0106
1035.00,0.0107
1034.00,0.0106
1033.00,0.0105
1032.00,0.0103
1031.00,0.0102
1030.00,0.0102
1029.00,0.0101
1028.00,0.0101
1027.00,0.0101
1026.00,0.0100
1025.00,0.0098
1024.00,0.0097
1023.00,0.0097
1022.00,0.0098
1021.00,0.0099
1020.00,0.0100
1019.00,0.0101
1018.00,0.0101
1017.00,0.0102
1016.00,0.0104
1015.00,0.0106
1014.00,0.0109
1013.00,0.0113
1012.00,0.0116
1011.00,0.0120
1010.00,0.0124
1009.00,0.0127
1008.00,0.0131
1007.00,0.0136
1006.00,0.0143
1005.00,0.0153
1004.00,0.0167
1003.00,0.0186
1002.00,0.0211
1001.00,0.0240
1000.00,0.0271
999.00,0.0296
998.00,0.0308
997.00,0.0302
996.00,0.0279
995.00,0.0246
994.00,0.0211
993.00,0.0180
992.00,0.0156
991.00,0.0138
990.00,0.0126
989.00,0.0119
988.00,0.0114
987.00,0.0112
986.00,0.0112
985.00,0.0114
984.00,0.0118
983.00,0.0125
982.00,0.0136
981.00,0.0151
980.00,0.0173
979.00,0.0202
978.00,0.0237
977.00,0.0277
976.00,0.0319
975.00,0.0356
974.00,0.0383
973.00,0.0390
972.00,0.0376
971.00,0.0342
970.00,0.0297
969.00,0.0251
968.00,0.0211
967.00,0.0181
966.00,0.0158
965.00,0.0142
964.00,0.0129
963.00,0.0119
962.00,0.0112
961.00,0.0105
960.00,0.0100
959.00,0.0096
958.00,0.0092
957.00,0.0089
956.00,0.0087
955.00,0.0085
954.00,0.0084
953.00,0.0083
952.00,0.0082
951.00,0.0081
950.00,0.0081
949.00,0.0081
948.00,0.0082
947.00,0.0084
946.00,0.0087
945.00,0.0090
944.00,0.0092
943.00,0.0095
942.00,0.0097
941.00,0.0098
940.00,0.0098
939.00,0.0097
938.00,0.0093
937.00,0.0088
936.00,0.0083
935.00,0.0079
934.00,0.0076
933.00,0.0073
932.00,0.0072
931.00,0.0071
930.00,0.0070
929.00,0.0069
928.00,0.0068
927.00,0.0067
926.00,0.0067
925.00,0.0067
924.00,0.0067
923.00,0.0068
922.00,0.0068
921.00,0.0069
920.00,0.0070
919.00,0.0071
918.00,0.0073
917.00,0.0073
916.00,0.0074
915.00,0.0075
914.00,0.0076
913.00,0.0076
912.00,0.0077
911.00,0.0078
910.00,0.0079
909.00,0.0081
908.00,0.0084
907.00,0.0088
906.00,0.0096
905.00,0.0107
904.00,0.0122
903.00,0.0141
902.00,0.0162
901.00,0.0181
900.00,0.0194
899.00,0.0198
898.00,0.0192
897.00,0.0177
896.00,0.0157
895.00,0.0137
894.00,0.0121
893.00,0.0108
892.00,0.0098
891.00,0.0091
890.00,0.0086
889.00,0.0082
888.00,0.0080
887.00,0.0079
886.00,0.0078
885.00,0.0077
884.00,0.0076
883.00,0.0076
882.00,0.0078
881.00,0.0080
880.00,0.0081
879.00,0.0082
878.00,0.0082
877.00,0.0082
876.00,0.0081
875.00,0.0081
874.00,0.0081
873.00,0.0081
872.00,0.0080
871.00,0.0079
870.00,0.0079
869.00,0.0079
868.00,0.0080
867.00,0.0081
866.00,0.0082
865.00,0.0083
864.00,0.0083
863.00,0.0084
862.00,0.0085
861.00,0.0086
860.00,0.0088
859.00,0.0090
858.00,0.0093
857.00,0.0094
856.00,0.0094
855.00,0.0094
854.00,0.0095
853.00,0.0097
852.00,0.0100
851.00,0.0104
850.00,0.0109
849.00,0.0115
848.00,0.0124
847.00,0.0138
846.00,0.0158
845.00,0.0189
844.00,0.0227
843.00,0.0266
842.00,0.0292
841.00,0.0295
840.00,0.0274
839.00,0.0238
838.00,0.0202
837.00,0.0173
836.00,0.0154
835.00,0.0142
834.00,0.0134
833.00,0.0128
832.00,0.0123
831.00,0.0120
830.00,0.0118
829.00,0.0117
828.00,0.0116
827.00,0.0115
826.00,0.0114
825.00,0.0113
824.00,0.0113
823.00,0.0114
822.00,0.0114
821.00,0.0115
820.00,0.0116
819.00,0.0117
818.00,0.0121
817.00,0.0127
816.00,0.0136
815.00,0.0147
814.00,0.0161
813.00,0.0178
812.00,0.0196
811.00,0.0212
810.00,0.0223
809.00,0.0227
808.00,0.0223
807.00,0.0214
806.00,0.0200
805.00,0.0184
804.00,0.0169
803.00,0.0156
802.00,0.0145
801.00,0.0137
800.00,0.0129
799.00,0.0123
798.00,0.0117
797.00,0.0112
796.00,0.0107
795.00,0.0103
794.00,0.0099
793.00,0.0095
792.00,0.0093
791.00,0.0092
790.00,0.0092
789.00,0.0091
788.00,0.0089
787.00,0.0085
786.00,0.0081
785.00,0.0077
784.00,0.0076
783.00,0.0076
782.00,0.0075
781.00,0.0073
780.00,0.0071
779.00,0.0069
778.00,0.0067
777.00,0.0065
776.00,0.0065
775.00,0.0067
774.00,0.0071
773.00,0.0076
772.00,0.0081
771.00,0.0084
770.00,0.0087
769.00,0.0088
768.00,0.0089
767.00,0.0089
766.00,0.0088
765.00,0.0087
764.00,0.0084
763.00,0.0079
762.00,0.0074
761.00,0.0071
760.00,0.0069
759.00,0.0069
758.00,0.0068
757.00,0.0067
756.00,0.0065
755.00,0.0063
754.00,0.0061
753.00,0.0060
752.00,0.0060
751.00,0.0062
750.00,0.0064
749.00,0.0065
748.00,0.0064
747.00,0.0063
746.00,0.0062
745.00,0.0063
744.00,0.0063
743.00,0.0064
742.00,0.0065
741.00,0.0066
740.00,0.0068
739.00,0.0070
738.00,0.0072
737.00,0.0075
736.00,0.0077
735.00,0.0080
734.00,0.0083
733.00,0.0086
732.00,0.0088
731.00,0.0088
730.00,0.0086
729.00,0.0085
728.00,0.0084
727.00,0.0084
726.00,0.0083
725.00,0.0083
724.00,0.0082
723.00,0.0082
722.00,0.0081
721.00,0.0082
720.00,0.0081
719.00,0.0080
718.00,0.0078
717.00,0.0075
716.00,0.0073
715.00,0.0073
714.00,0.0074
713.00,0.0074
712.00,0.0074
711.00,0.0072
710.00,0.0071
709.00,0.0071
708.00,0.0071
707.00,0.0071
706.00,0.0072
705.00,0.0072
704.00,0.0072
703.00,0.0073
702.00,0.0073
701.00,0.0073
700.00,0.0072
699.00,0.0070
698.00,0.0069
697.00,0.0068
696.00,0.0068
695.00,0.0068
694.00,0.0067
693.00,0.0067
692.00,0.0067
691.00,0.0067
690.00,0.0067
689.00,0.0067
688.00,0.0068
687.00,0.0067
686.00,0.0067
685.00,0.0068
684.00,0.0068
683.00,0.0069
682.00,0.0070
681.00,0.0070
680.00,0.0069
679.00,0.0069
678.00,0.0070
677.00,0.0070
676.00,0.0071
675.00,0.0071
674.00,0.0071
673.00,0.0072
672.00,0.0072
671.00,0.0073
670.00,0.0074
669.00,0.0075
668.00,0.0075
667.00,0.0075
666.00,0.0074
665.00,0.0074
664.00,0.0074
663.00,0.0073
662.00,0.0071
661.00,0.0070
660.00,0.0070
659.00,0.0069
658.00,0.0069
657.00,0.0069
656.00,0.0070
655.00,0.0071
654.00,0.0071
653.00,0.0072
652.00,0.0074
651.00,0.0075
650.00,0.0074
649.00,0.0071
648.00,0.0069
647.00,0.0068
646.00,0.0069
645.00,0.0069
644.00,0.0070
643.00,0.0071
642.00,0.0071
641.00,0.0071
640.00,0.0071
639.00,0.0070
638.00,0.0069
637.00,0.0068
636.00,0.0067
635.00,0.0066
634.00,0.0066
633.00,0.0066
632.00,0.0068
631.00,0.0070
630.00,0.0073
629.00,0.0073
628.00,0.0073
627.00,0.0074
626.00,0.0075
625.00,0.0077
624.00,0.0076
623.00,0.0074
622.00,0.0070
621.00,0.0068
620.00,0.0066
619.00,0.0066
618.00,0.0067
617.00,0.0070
616.00,0.0074
615.00,0.0077
614.00,0.0078
613.00,0.0076
612.00,0.0072
611.00,0.0071
610.00,0.0071
609.00,0.0073
608.00,0.0075
607.00,0.0076
606.00,0.0076
605.00,0.0075
604.00,0.0072
603.00,0.0070
602.00,0.0069
601.00,0.0069
600.00,0.0069
599.00,0.0069
598.00,0.0069
597.00,0.0070
596.00,0.0070
595.00,0.0069
594.00,0.0069
593.00,0.0069
592.00,0.0071
591.00,0.0071
590.00,0.0070
589.00,0.0068
588.00,0.0068
587.00,0.0070
586.00,0.0071
585.00,0.0072
584.00,0.0070
583.00,0.0068
582.00,0.0066
581.00,0.0066
580.00,0.0067
579.00,0.0068
578.00,0.0070
577.00,0.0072
576.00,0.0075
575.00,0.0078
574.00,0.0080
573.00,0.0080
572.00,0.0078
571.00,0.0074
570.00,0.0071
569.00,0.0070
568.00,0.0071
567.00,0.0071
566.00,0.0071
565.00,0.0071
564.00,0.0072
563.00,0.0073
562.00,0.0074
561.00,0.0076
560.00,0.0078
559.00,0.0079
558.00,0.0078
557.00,0.0076
556.00,0.0076
555.00,0.0078
554.00,0.0080
553.00,0.0082
552.00,0.0081
551.00,0.0079
550.00,0.0076
549.00,0.0072
548.00,0.0069
547.00,0.0069
546.00,0.0070
545.00,0.0072
544.00,0.0074
543.00,0.0075
542.00,0.0076
541.00,0.0078
540.00,0.0081
539.00,0.0083
538.00,0.0085
537.00,0.0086
536.00,0.0086
535.00,0.0087
534.00,0.0086
533.00,0.0084
532.00,0.0082
531.00,0.0082
530.00,0.0083
529.00,0.0085
528.00,0.0089
527.00,0.0092
526.00,0.0094
525.00,0.0093
524.00,0.0089
523.00,0.0087
522.00,0.0085
521.00,0.0083
520.00,0.0083
519.00,0.0084
518.00,0.0086
517.00,0.0086
516.00,0.0083
515.00,0.0080
514.00,0.0080
513.00,0.0084
512.00,0.0089
511.00,0.0093
510.00,0.0094
509.00,0.0091
508.00,0.0085
507.00,0.0080
506.00,0.0080
505.00,0.0083
504.00,0.0082
503.00,0.0078
502.00,0.0070
501.00,0.0061
500.00,0.0053
499.00,0.0048
498.00,0.0048
497.00,0.0052
496.00,0.0055
495.00,0.0054
494.00,0.0049
493.00,0.0045
492.00,0.0046
491.00,0.0052
490.00,0.0058
489.00,0.0059
488.00,0.0058
487.00,0.0061
486.00,0.0068
485.00,0.0080
484.00,0.0091
483.00,0.0097
482.00,0.0096
481.00,0.0090
480.00,0.0081
479.00,0.0074
478.00,0.0070
477.00,0.0069
476.00,0.0072
475.00,0.0078
474.00,0.0086
473.00,0.0089
472.00,0.0085
471.00,0.0078
470.00,0.0073
469.00,0.0073
468.00,0.0080
467.00,0.0091
466.00,0.0105
465.00,0.0119
464.00,0.0132
463.00,0.0146
462.00,0.0159
461.00,0.0166
460.00,0.0166
459.00,0.0163
458.00,0.0164
457.00,0.0167
456.00,0.0165
455.00,0.0155
454.00,0.0141
453.00,0.0126
452.00,0.0114
451.00,0.0103
450.00,0.0095
