Created as New Dataset,Sample 156 By Administrator Date Tuesday, September 09 2025
cm-1,A
4000.00,0.0011
3999.00,0.0011
3998.00,0.0011
3997.00,0.0011
3996.00,0.0011
3995.00,0.0011
3994.00,0.0010
3993.00,0.0010
3992.00,0.0010
3991.00,0.0010
3990.00,0.0010
3989.00,0.0010
3988.00,0.0010
3987.00,0.0010
3986.00,0.0010
3985.00,0.0010
3984.00,0.0010
3983.00,0.0010
3982.00,0.0010
3981.00,0.0010
3980.00,0.0009
3979.00,0.0009
3978.00,0.0009
3977.00,0.0009
3976.00,0.0009
3975.00,0.0009
3974.00,0.0009
3973.00,0.0009
3972.00,0.0009
3971.00,0.0009
3970.00,0.0009
3969.00,0.0009
3968.00,0.0009
3967.00,0.0009
3966.00,0.0008
3965.00,0.0008
3964.00,0.0008
3963.00,0.0009
3962.00,0.0009
3961.00,0.0009
3960.00,0.0009
3959.00,0.0009
3958.00,0.0009
3957.00,0.0009
3956.00,0.0009
3955.00,0.0009
3954.00,0.0009
3953.00,0.0009
3952.00,0.0009
3951.00,0.0009
3950.00,0.0008
3949.00,0.0008
3948.00,0.0008
3947.00,0.0008
3946.00,0.0008
3945.00,0.0008
3944.00,0.0008
3943.00,0.0009
3942.00,0.0009
3941.00,0.0009
3940.00,0.0009
3939.00,0.0009
3938.00,0.0009
3937.00,0.0009
3936.00,0.0009
3935.00,0.0009
3934.00,0.0009
3933.00,0.0009
3932.00,0.0009
3931.00,0.0009
3930.00,0.0009
3929.00,0.0009
3928.00,0.0010
3927.00,0.0010
3926.00,0.0010
3925.00,0.0010
3924.00,0.0010
3923.00,0.0010
3922.00,0.0010
3921.00,0.0009
3920.00,0.0009
3919.00,0.0009
3918.00,0.0008
3917.00,0.0008
3916.00,0.0008
3915.00,0.0008
3914.00,0.0009
3913.00,0.0009
3912.00,0.0009
3911.00,0.0009
3910.00,0.0009
3909.00,0.0009
3908.00,0.0009
3907.00,0.0009
3906.00,0.0010
3905.00,0.0010
3904.00,0.0010
3903.00,0.0010
3902.00,0.0009
3901.00,0.0008
3900.00,0.0008
3899.00,0.0007
3898.00,0.0008
3897.00,0.0008
3896.00,0.0008
3895.00,0.0009
3894.00,0.0009
3893.00,0.0009
3892.00,0.0009
3891.00,0.0009
3890.00,0.0009
3889.00,0.0009
3888.00,0.0009
3887.00,0.0008
3886.00,0.0008
3885.00,0.0009
3884.00,0.0009
3883.00,0.0009
3882.00,0.0009
3881.00,0.0009
3880.00,0.0009
3879.00,0.0009
3878.00,0.0009
3877.00,0.0009
3876.00,0.0009
3875.00,0.0009
3874.00,0.0009
3873.00,0.0010
3872.00,0.0009
3871.00,0.0009
3870.00,0.0009
3869.00,0.0009
3868.00,0.0009
3867.00,0.0010
3866.00,0.0009
3865.00,0.0009
3864.00,0.0009
3863.00,0.0009
3862.00,0.0009
3861.00,0.0009
3860.00,0.0009
3859.00,0.0009
3858.00,0.0009
3857.00,0.0009
3856.00,0.0009
3855.00,0.0008
3854.00,0.0008
3853.00,0.0007
3852.00,0.0007
3851.00,0.0007
3850.00,0.0007
3849.00,0.0007
3848.00,0.0007
3847.00,0.0008
3846.00,0.0008
3845.00,0.0008
3844.00,0.0009
3843.00,0.0009
3842.00,0.0010
3841.00,0.0011
3840.00,0.0011
3839.00,0.0011
3838.00,0.0010
3837.00,0.0009
3836.00,0.0008
3835.00,0.0008
3834.00,0.0008
3833.00,0.0008
3832.00,0.0008
3831.00,0.0008
3830.00,0.0008
3829.00,0.0008
3828.00,0.0008
3827.00,0.0008
3826.00,0.0008
3825.00,0.0009
3824.00,0.0009
3823.00,0.0009
3822.00,0.0009
3821.00,0.0009
3820.00,0.0009
3819.00,0.0009
3818.00,0.0009
3817.00,0.0008
3816.00,0.0008
3815.00,0.0008
3814.00,0.0008
3813.00,0.0008
3812.00,0.0008
3811.00,0.0008
3810.00,0.0009
3809.00,0.0010
3808.00,0.0010
3807.00,0.0010
3806.00,0.0010
3805.00,0.0010
3804.00,0.0009
3803.00,0.0009
3802.00,0.0008
3801.00,0.0008
3800.00,0.0008
3799.00,0.0008
3798.00,0.0008
3797.00,0.0008
3796.00,0.0008
3795.00,0.0008
3794.00,0.0008
3793.00,0.0008
3792.00,0.0008
3791.00,0.0009
3790.00,0.0009
3789.00,0.0010
3788.00,0.0010
3787.00,0.0010
3786.00,0.0010
3785.00,0.0009
3784.00,0.0009
3783.00,0.0009
3782.00,0.0009
3781.00,0.0009
3780.00,0.0009
3779.00,0.0009
3778.00,0.0009
3777.00,0.0009
3776.00,0.0009
3775.00,0.0009
3774.00,0.0009
3773.00,0.0009
3772.00,0.0009
3771.00,0.0009
3770.00,0.0009
3769.00,0.0010
3768.00,0.0010
3767.00,0.0010
3766.00,0.0010
3765.00,0.0010
3764.00,0.0010
3763.00,0.0010
3762.00,0.0010
3761.00,0.0010
3760.00,0.0010
3759.00,0.0010
3758.00,0.0010
3757.00,0.0010
3756.00,0.0009
3755.00,0.0009
3754.00,0.0009
3753.00,0.0009
3752.00,0.0008
3751.00,0.0009
3750.00,0.0009
3749.00,0.0009
3748.00,0.0010
3747.00,0.0010
3746.00,0.0009
3745.00,0.0009
3744.00,0.0008
3743.00,0.0009
3742.00,0.0009
3741.00,0.0009
3740.00,0.0009
3739.00,0.0009
3738.00,0.0010
3737.00,0.0009
3736.00,0.0009
3735.00,0.0009
3734.00,0.0008
3733.00,0.0008
3732.00,0.0007
3731.00,0.0007
3730.00,0.0006
3729.00,0.0006
3728.00,0.0006
3727.00,0.0006
3726.00,0.0006
3725.00,0.0007
3724.00,0.0007
3723.00,0.0007
3722.00,0.0007
3721.00,0.0007
3720.00,0.0007
3719.00,0.0007
3718.00,0.0007
3717.00,0.0007
3716.00,0.0008
3715.00,0.0008
3714.00,0.0008
3713.00,0.0008
3712.00,0.0008
3711.00,0.0008
3710.00,0.0008
3709.00,0.0007
3708.00,0.0007
3707.00,0.0007
3706.00,0.0007
3705.00,0.0007
3704.00,0.0007
3703.00,0.0007
3702.00,0.0007
3701.00,0.0006
3700.00,0.0006
3699.00,0.0005
3698.00,0.0005
3697.00,0.0005
3696.00,0.0006
3695.00,0.0007
3694.00,0.0007
3693.00,0.0007
3692.00,0.0007
3691.00,0.0007
3690.00,0.0007
3689.00,0.0007
3688.00,0.0007
3687.00,0.0007
3686.00,0.0007
3685.00,0.0006
3684.00,0.0007
3683.00,0.0007
3682.00,0.0008
3681.00,0.0009
3680.00,0.0009
3679.00,0.0009
3678.00,0.0009
3677.00,0.0009
3676.00,0.0008
3675.00,0.0008
3674.00,0.0008
3673.00,0.0008
3672.00,0.0008
3671.00,0.0007
3670.00,0.0007
3669.00,0.0007
3668.00,0.0007
3667.00,0.0007
3666.00,0.0007
3665.00,0.0007
3664.00,0.0007
3663.00,0.0008
3662.00,0.0009
3661.00,0.0009
3660.00,0.0009
3659.00,0.0009
3658.00,0.0008
3657.00,0.0008
3656.00,0.0008
3655.00,0.0008
3654.00,0.0008
3653.00,0.0008
3652.00,0.0009
3651.00,0.0009
3650.00,0.0010
3649.00,0.0010
3648.00,0.0009
3647.00,0.0009
3646.00,0.0008
3645.00,0.0008
3644.00,0.0008
3643.00,0.0008
3642.00,0.0008
3641.00,0.0008
3640.00,0.0009
3639.00,0.0009
3638.00,0.0009
3637.00,0.0009
3636.00,0.0010
3635.00,0.0010
3634.00,0.0010
3633.00,0.0010
3632.00,0.0010
3631.00,0.0010
3630.00,0.0009
3629.00,0.0008
3628.00,0.0008
3627.00,0.0008
3626.00,0.0008
3625.00,0.0008
3624.00,0.0008
3623.00,0.0008
3622.00,0.0008
3621.00,0.0009
3620.00,0.0009
3619.00,0.0009
3618.00,0.0010
3617.00,0.0010
3616.00,0.0010
3615.00,0.0010
3614.00,0.0011
3613.00,0.0011
3612.00,0.0012
3611.00,0.0012
3610.00,0.0012
3609.00,0.0012
3608.00,0.0013
3607.00,0.0013
3606.00,0.0012
3605.00,0.0012
3604.00,0.0012
3603.00,0.0012
3602.00,0.0012
3601.00,0.0013
3600.00,0.0014
3599.00,0.0014
3598.00,0.0014
3597.00,0.0014
3596.00,0.0014
3595.00,0.0014
3594.00,0.0014
3593.00,0.0014
3592.00,0.0014
3591.00,0.0013
3590.00,0.0013
3589.00,0.0013
3588.00,0.0014
3587.00,0.0014
3586.00,0.0013
3585.00,0.0013
3584.00,0.0013
3583.00,0.0013
3582.00,0.0014
3581.00,0.0015
3580.00,0.0016
3579.00,0.0016
3578.00,0.0017
3577.00,0.0018
3576.00,0.0018
3575.00,0.0019
3574.00,0.0019
3573.00,0.0019
3572.00,0.0019
3571.00,0.0020
3570.00,0.0020
3569.00,0.0020
3568.00,0.0021
3567.00,0.0021
3566.00,0.0021
3565.00,0.0021
3564.00,0.0021
3563.00,0.0021
3562.00,0.0021
3561.00,0.0022
3560.00,0.0022
3559.00,0.0022
3558.00,0.0022
3557.00,0.0022
3556.00,0.0023
3555.00,0.0023
3554.00,0.0024
3553.00,0.0024
3552.00,0.0025
3551.00,0.0025
3550.00,0.0026
3549.00,0.0026
3548.00,0.0026
3547.00,0.0026
3546.00,0.0026
3545.00,0.0026
3544.00,0.0026
3543.00,0.0026
3542.00,0.0027
3541.00,0.0027
3540.00,0.0028
3539.00,0.0028
3538.00,0.0029
3537.00,0.0029
3536.00,0.0029
3535.00,0.0030
3534.00,0.0030
3533.00,0.0030
3532.00,0.0030
3531.00,0.0031
3530.00,0.0032
3529.00,0.0033
3528.00,0.0033
3527.00,0.0033
3526.00,0.0033
3525.00,0.0033
3524.00,0.0033
3523.00,0.0034
3522.00,0.0034
3521.00,0.0034
3520.00,0.0034
3519.00,0.0035
3518.00,0.0035
3517.00,0.0036
3516.00,0.0036
3515.00,0.0036
3514.00,0.0037
3513.00,0.0038
3512.00,0.0038
3511.00,0.0039
3510.00,0.0039
3509.00,0.0040
3508.00,0.0040
3507.00,0.0040
3506.00,0.0040
3505.00,0.0040
3504.00,0.0041
3503.00,0.0041
3502.00,0.0041
3501.00,0.0041
3500.00,0.0041
3499.00,0.0041
3498.00,0.0041
3497.00,0.0042
3496.00,0.0042
3495.00,0.0043
3494.00,0.0044
3493.00,0.0044
3492.00,0.0044
3491.00,0.0044
3490.00,0.0044
3489.00,0.0044
3488.00,0.0044
3487.00,0.0045
3486.00,0.0045
3485.00,0.0045
3484.00,0.0045
3483.00,0.0045
3482.00,0.0046
3481.00,0.0046
3480.00,0.0047
3479.00,0.0048
3478.00,0.0048
3477.00,0.0049
3476.00,0.0050
3475.00,0.0050
3474.00,0.0050
3473.00,0.0050
3472.00,0.0050
3471.00,0.0050
3470.00,0.0050
3469.00,0.0051
3468.00,0.0051
3467.00,0.0052
3466.00,0.0052
3465.00,0.0052
3464.00,0.0053
3463.00,0.0053
3462.00,0.0053
3461.00,0.0054
3460.00,0.0054
3459.00,0.0054
3458.00,0.0054
3457.00,0.0054
3456.00,0.0054
3455.00,0.0054
3454.00,0.0055
3453.00,0.0056
3452.00,0.0056
3451.00,0.0057
3450.00,0.0058
3449.00,0.0058
3448.00,0.0058
3447.00,0.0058
3446.00,0.0058
3445.00,0.0058
3444.00,0.0058
3443.00,0.0059
3442.00,0.0059
3441.00,0.0060
3440.00,0.0060
3439.00,0.0061
3438.00,0.0062
3437.00,0.0062
3436.00,0.0063
3435.00,0.0063
3434.00,0.0063
3433.00,0.0063
3432.00,0.0063
3431.00,0.0064
3430.00,0.0064
3429.00,0.0065
3428.00,0.0065
3427.00,0.0066
3426.00,0.0067
3425.00,0.0067
3424.00,0.0068
3423.00,0.0068
3422.00,0.0068
3421.00,0.0068
3420.00,0.0068
3419.00,0.0069
3418.00,0.0069
3417.00,0.0070
3416.00,0.0070
3415.00,0.0071
3414.00,0.0071
3413.00,0.0072
3412.00,0.0072
3411.00,0.0072
3410.00,0.0072
3409.00,0.0073
3408.00,0.0073
3407.00,0.0073
3406.00,0.0073
3405.00,0.0073
3404.00,0.0074
3403.00,0.0074
3402.00,0.0075
3401.00,0.0076
3400.00,0.0076
3399.00,0.0076
3398.00,0.0077
3397.00,0.0077
3396.00,0.0077
3395.00,0.0077
3394.00,0.0077
3393.00,0.0077
3392.00,0.0077
3391.00,0.0077
3390.00,0.0076
3389.00,0.0076
3388.00,0.0076
3387.00,0.0076
3386.00,0.0077
3385.00,0.0077
3384.00,0.0077
3383.00,0.0077
3382.00,0.0077
3381.00,0.0078
3380.00,0.0078
3379.00,0.0078
3378.00,0.0078
3377.00,0.0078
3376.00,0.0078
3375.00,0.0078
3374.00,0.0078
3373.00,0.0078
3372.00,0.0078
3371.00,0.0078
3370.00,0.0078
3369.00,0.0078
3368.00,0.0078
3367.00,0.0078
3366.00,0.0078
3365.00,0.0078
3364.00,0.0079
3363.00,0.0079
3362.00,0.0079
3361.00,0.0080
3360.00,0.0080
3359.00,0.0080
3358.00,0.0080
3357.00,0.0080
3356.00,0.0080
3355.00,0.0080
3354.00,0.0080
3353.00,0.0080
3352.00,0.0080
3351.00,0.0080
3350.00,0.0080
3349.00,0.0081
3348.00,0.0081
3347.00,0.0081
3346.00,0.0081
3345.00,0.0082
3344.00,0.0082
3343.00,0.0082
3342.00,0.0083
3341.00,0.0083
3340.00,0.0083
3339.00,0.0083
3338.00,0.0083
3337.00,0.0083
3336.00,0.0084
3335.00,0.0084
3334.00,0.0084
3333.00,0.0084
3332.00,0.0084
3331.00,0.0084
3330.00,0.0085
3329.00,0.0085
3328.00,0.0085
3327.00,0.0085
3326.00,0.0086
3325.00,0.0086
3324.00,0.0087
3323.00,0.0087
3322.00,0.0087
3321.00,0.0087
3320.00,0.0087
3319.00,0.0087
3318.00,0.0087
3317.00,0.0087
3316.00,0.0087
3315.00,0.0087
3314.00,0.0088
3313.00,0.0088
3312.00,0.0088
3311.00,0.0088
3310.00,0.0088
3309.00,0.0088
3308.00,0.0088
3307.00,0.0087
3306.00,0.0087
3305.00,0.0087
3304.00,0.0087
3303.00,0.0086
3302.00,0.0086
3301.00,0.0086
3300.00,0.0086
3299.00,0.0086
3298.00,0.0086
3297.00,0.0085
3296.00,0.0085
3295.00,0.0085
3294.00,0.0084
3293.00,0.0084
3292.00,0.0084
3291.00,0.0084
3290.00,0.0084
3289.00,0.0084
3288.00,0.0083
3287.00,0.0083
3286.00,0.0083
3285.00,0.0082
3284.00,0.0082
3283.00,0.0082
3282.00,0.0081
3281.00,0.0082
3280.00,0.0082
3279.00,0.0082
3278.00,0.0081
3277.00,0.0081
3276.00,0.0080
3275.00,0.0080
3274.00,0.0079
3273.00,0.0079
3272.00,0.0079
3271.00,0.0079
3270.00,0.0078
3269.00,0.0078
3268.00,0.0077
3267.00,0.0076
3266.00,0.0076
3265.00,0.0076
3264.00,0.0076
3263.00,0.0076
3262.00,0.0076
3261.00,0.0076
3260.00,0.0076
3259.00,0.0075
3258.00,0.0075
3257.00,0.0074
3256.00,0.0074
3255.00,0.0074
3254.00,0.0074
3253.00,0.0074
3252.00,0.0073
3251.00,0.0073
3250.00,0.0072
3249.00,0.0072
3248.00,0.0072
3247.00,0.0072
3246.00,0.0072
3245.00,0.0072
3244.00,0.0072
3243.00,0.0072
3242.00,0.0071
3241.00,0.0071
3240.00,0.0071
3239.00,0.0070
3238.00,0.0070
3237.00,0.0070
3236.00,0.0070
3235.00,0.0070
3234.00,0.0071
3233.00,0.0071
3232.00,0.0071
3231.00,0.0072
3230.00,0.0072
3229.00,0.0072
3228.00,0.0072
3227.00,0.0072
3226.00,0.0072
3225.00,0.0072
3224.00,0.0072
3223.00,0.0072
3222.00,0.0072
3221.00,0.0073
3220.00,0.0073
3219.00,0.0073
3218.00,0.0074
3217.00,0.0074
3216.00,0.0075
3215.00,0.0076
3214.00,0.0076
3213.00,0.0076
3212.00,0.0076
3211.00,0.0077
3210.00,0.0077
3209.00,0.0077
3208.00,0.0078
3207.00,0.0079
3206.00,0.0079
3205.00,0.0079
3204.00,0.0079
3203.00,0.0079
3202.00,0.0078
3201.00,0.0078
3200.00,0.0079
3199.00,0.0079
3198.00,0.0079
3197.00,0.0079
3196.00,0.0079
3195.00,0.0079
3194.00,0.0079
3193.00,0.0079
3192.00,0.0079
3191.00,0.0079
3190.00,0.0078
3189.00,0.0078
3188.00,0.0078
3187.00,0.0077
3186.00,0.0077
3185.00,0.0077
3184.00,0.0076
3183.00,0.0076
3182.00,0.0075
3181.00,0.0074
3180.00,0.0073
3179.00,0.0073
3178.00,0.0072
3177.00,0.0072
3176.00,0.0072
3175.00,0.0072
3174.00,0.0071
3173.00,0.0070
3172.00,0.0070
3171.00,0.0069
3170.00,0.0069
3169.00,0.0069
3168.00,0.0068
3167.00,0.0067
3166.00,0.0066
3165.00,0.0066
3164.00,0.0066
3163.00,0.0066
3162.00,0.0066
3161.00,0.0066
3160.00,0.0066
3159.00,0.0066
3158.00,0.0066
3157.00,0.0066
3156.00,0.0066
3155.00,0.0066
3154.00,0.0066
3153.00,0.0065
3152.00,0.0065
3151.00,0.0064
3150.00,0.0064
3149.00,0.0064
3148.00,0.0064
3147.00,0.0064
3146.00,0.0064
3145.00,0.0063
3144.00,0.0063
3143.00,0.0062
3142.00,0.0062
3141.00,0.0062
3140.00,0.0062
3139.00,0.0062
3138.00,0.0062
3137.00,0.0061
3136.00,0.0061
3135.00,0.0061
3134.00,0.0060
3133.00,0.0060
3132.00,0.0060
3131.00,0.0060
3130.00,0.0059
3129.00,0.0059
3128.00,0.0059
3127.00,0.0059
3126.00,0.0059
3125.00,0.0060
3124.00,0.0059
3123.00,0.0059
3122.00,0.0058
3121.00,0.0057
3120.00,0.0057
3119.00,0.0056
3118.00,0.0056
3117.00,0.0055
3116.00,0.0055
3115.00,0.0055
3114.00,0.0055
3113.00,0.0054
3112.00,0.0054
3111.00,0.0054
3110.00,0.0053
3109.00,0.0053
3108.00,0.0052
3107.00,0.0052
3106.00,0.0051
3105.00,0.0051
3104.00,0.0051
3103.00,0.0051
3102.00,0.0051
3101.00,0.0051
3100.00,0.0051
3099.00,0.0050
3098.00,0.0050
3097.00,0.0050
3096.00,0.0049
3095.00,0.0049
3094.00,0.0049
3093.00,0.0049
3092.00,0.0048
3091.00,0.0048
3090.00,0.0048
3089.00,0.0047
3088.00,0.0047
3087.00,0.0047
3086.00,0.0046
3085.00,0.0046
3084.00,0.0045
3083.00,0.0045
3082.00,0.0045
3081.00,0.0045
3080.00,0.0046
3079.00,0.0046
3078.00,0.0046
3077.00,0.0046
3076.00,0.0046
3075.00,0.0046
3074.00,0.0046
3073.00,0.0047
3072.00,0.0047
3071.00,0.0047
3070.00,0.0047
3069.00,0.0047
3068.00,0.0047
3067.00,0.0047
3066.00,0.0047
3065.00,0.0047
3064.00,0.0047
3063.00,0.0047
3062.00,0.0047
3061.00,0.0047
3060.00,0.0047
3059.00,0.0047
3058.00,0.0047
3057.00,0.0047
3056.00,0.0047
3055.00,0.0047
3054.00,0.0046
3053.00,0.0046
3052.00,0.0046
3051.00,0.0046
3050.00,0.0047
3049.00,0.0047
3048.00,0.0047
3047.00,0.0047
3046.00,0.0047
3045.00,0.0047
3044.00,0.0047
3043.00,0.0047
3042.00,0.0047
3041.00,0.0048
3040.00,0.0048
3039.00,0.0048
3038.00,0.0048
3037.00,0.0048
3036.00,0.0048
3035.00,0.0048
3034.00,0.0049
3033.00,0.0049
3032.00,0.0050
3031.00,0.0051
3030.00,0.0052
3029.00,0.0052
3028.00,0.0052
3027.00,0.0052
3026.00,0.0053
3025.00,0.0053
3024.00,0.0054
3023.00,0.0054
3022.00,0.0055
3021.00,0.0056
3020.00,0.0056
3019.00,0.0057
3018.00,0.0058
3017.00,0.0059
3016.00,0.0060
3015.00,0.0061
3014.00,0.0062
3013.00,0.0064
3012.00,0.0065
3011.00,0.0067
3010.00,0.0068
3009.00,0.0070
3008.00,0.0072
3007.00,0.0073
3006.00,0.0075
3005.00,0.0077
3004.00,0.0080
3003.00,0.0082
3002.00,0.0084
3001.00,0.0087
3000.00,0.0090
2999.00,0.0093
2998.00,0.0097
2997.00,0.0100
2996.00,0.0104
2995.00,0.0108
2994.00,0.0113
2993.00,0.0118
2992.00,0.0124
2991.00,0.0131
2990.00,0.0138
2989.00,0.0146
2988.00,0.0154
2987.00,0.0164
2986.00,0.0175
2985.00,0.0188
2984.00,0.0202
2983.00,0.0217
2982.00,0.0235
2981.00,0.0254
2980.00,0.0276
2979.00,0.0300
2978.00,0.0328
2977.00,0.0359
2976.00,0.0395
2975.00,0.0436
2974.00,0.0483
2973.00,0.0536
2972.00,0.0597
2971.00,0.0665
2970.00,0.0742
2969.00,0.0827
2968.00,0.0921
2967.00,0.1024
2966.00,0.1135
2965.00,0.1253
2964.00,0.1375
2963.00,0.1496
2962.00,0.1611
2961.00,0.1715
2960.00,0.1801
2959.00,0.1867
2958.00,0.1913
2957.00,0.1943
2956.00,0.1963
2955.00,0.1978
2954.00,0.1992
2953.00,0.2007
2952.00,0.2017
2951.00,0.2016
2950.00,0.1996
2949.00,0.1950
2948.00,0.1874
2947.00,0.1771
2946.00,0.1649
2945.00,0.1518
2944.00,0.1390
2943.00,0.1277
2942.00,0.1185
2941.00,0.1117
2940.00,0.1074
2939.00,0.1053
2938.00,0.1053
2937.00,0.1071
2936.00,0.1105
2935.00,0.1153
2934.00,0.1214
2933.00,0.1286
2932.00,0.1366
2931.00,0.1454
2930.00,0.1545
2929.00,0.1637
2928.00,0.1727
2927.00,0.1813
2926.00,0.1893
2925.00,0.1967
2924.00,0.2037
2923.00,0.2104
2922.00,0.2169
2921.00,0.2230
2920.00,0.2283
2919.00,0.2324
2918.00,0.2346
2917.00,0.2346
2916.00,0.2322
2915.00,0.2279
2914.00,0.2221
2913.00,0.2156
2912.00,0.2091
2911.00,0.2028
2910.00,0.1971
2909.00,0.1919
2908.00,0.1870
2907.00,0.1820
2906.00,0.1768
2905.00,0.1712
2904.00,0.1651
2903.00,0.1587
2902.00,0.1520
2901.00,0.1452
2900.00,0.1385
2899.00,0.1322
2898.00,0.1262
2897.00,0.1207
2896.00,0.1159
2895.00,0.1118
2894.00,0.1084
2893.00,0.1057
2892.00,0.1037
2891.00,0.1024
2890.00,0.1016
2889.00,0.1012
2888.00,0.1013
2887.00,0.1017
2886.00,0.1024
2885.00,0.1035
2884.00,0.1049
2883.00,0.1067
2882.00,0.1088
2881.00,0.1110
2880.00,0.1131
2879.00,0.1148
2878.00,0.1159
2877.00,0.1161
2876.00,0.1156
2875.00,0.1147
2874.00,0.1139
2873.00,0.1136
2872.00,0.1140
2871.00,0.1151
2870.00,0.1167
2869.00,0.1184
2868.00,0.1193
2867.00,0.1188
2866.00,0.1162
2865.00,0.1113
2864.00,0.1044
2863.00,0.0962
2862.00,0.0878
2861.00,0.0798
2860.00,0.0730
2859.00,0.0675
2858.00,0.0633
2857.00,0.0604
2856.00,0.0584
2855.00,0.0573
2854.00,0.0569
2853.00,0.0572
2852.00,0.0581
2851.00,0.0596
2850.00,0.0619
2849.00,0.0649
2848.00,0.0687
2847.00,0.0732
2846.00,0.0786
2845.00,0.0849
2844.00,0.0921
2843.00,0.0999
2842.00,0.1079
2841.00,0.1155
2840.00,0.1218
2839.00,0.1259
2838.00,0.1270
2837.00,0.1245
2836.00,0.1184
2835.00,0.1094
2834.00,0.0985
2833.00,0.0871
2832.00,0.0761
2831.00,0.0664
2830.00,0.0582
2829.00,0.0515
2828.00,0.0460
2827.00,0.0416
2826.00,0.0381
2825.00,0.0351
2824.00,0.0327
2823.00,0.0305
2822.00,0.0287
2821.00,0.0271
2820.00,0.0258
2819.00,0.0246
2818.00,0.0235
2817.00,0.0226
2816.00,0.0218
2815.00,0.0211
2814.00,0.0205
2813.00,0.0199
2812.00,0.0194
2811.00,0.0189
2810.00,0.0184
2809.00,0.0179
2808.00,0.0174
2807.00,0.0168
2806.00,0.0161
2805.00,0.0154
2804.00,0.0148
2803.00,0.0142
2802.00,0.0137
2801.00,0.0132
2800.00,0.0128
2799.00,0.0125
2798.00,0.0123
2797.00,0.0121
2796.00,0.0119
2795.00,0.0116
2794.00,0.0113
2793.00,0.0110
2792.00,0.0107
2791.00,0.0103
2790.00,0.0100
2789.00,0.0096
2788.00,0.0092
2787.00,0.0089
2786.00,0.0086
2785.00,0.0083
2784.00,0.0080
2783.00,0.0078
2782.00,0.0075
2781.00,0.0073
2780.00,0.0072
2779.00,0.0070
2778.00,0.0069
2777.00,0.0067
2776.00,0.0066
2775.00,0.0065
2774.00,0.0064
2773.00,0.0063
2772.00,0.0063
2771.00,0.0062
2770.00,0.0062
2769.00,0.0061
2768.00,0.0061
2767.00,0.0061
2766.00,0.0061
2765.00,0.0060
2764.00,0.0060
2763.00,0.0059
2762.00,0.0058
2761.00,0.0058
2760.00,0.0058
2759.00,0.0057
2758.00,0.0057
2757.00,0.0057
2756.00,0.0057
2755.00,0.0057
2754.00,0.0056
2753.00,0.0056
2752.00,0.0056
2751.00,0.0056
2750.00,0.0056
2749.00,0.0056
2748.00,0.0056
2747.00,0.0056
2746.00,0.0057
2745.00,0.0057
2744.00,0.0058
2743.00,0.0059
2742.00,0.0061
2741.00,0.0062
2740.00,0.0063
2739.00,0.0065
2738.00,0.0066
2737.00,0.0067
2736.00,0.0069
2735.00,0.0070
2734.00,0.0071
2733.00,0.0073
2732.00,0.0074
2731.00,0.0076
2730.00,0.0078
2729.00,0.0080
2728.00,0.0082
2727.00,0.0085
2726.00,0.0088
2725.00,0.0090
2724.00,0.0092
2723.00,0.0092
2722.00,0.0092
2721.00,0.0090
2720.00,0.0087
2719.00,0.0084
2718.00,0.0081
2717.00,0.0077
2716.00,0.0074
2715.00,0.0071
2714.00,0.0069
2713.00,0.0067
2712.00,0.0065
2711.00,0.0064
2710.00,0.0062
2709.00,0.0061
2708.00,0.0059
2707.00,0.0058
2706.00,0.0057
2705.00,0.0056
2704.00,0.0055
2703.00,0.0054
2702.00,0.0053
2701.00,0.0052
2700.00,0.0051
2699.00,0.0051
2698.00,0.0051
2697.00,0.0051
2696.00,0.0050
2695.00,0.0050
2694.00,0.0049
2693.00,0.0049
2692.00,0.0049
2691.00,0.0049
2690.00,0.0049
2689.00,0.0050
2688.00,0.0050
2687.00,0.0050
2686.00,0.0050
2685.00,0.0050
2684.00,0.0050
2683.00,0.0050
2682.00,0.0050
2681.00,0.0049
2680.00,0.0050
2679.00,0.0050
2678.00,0.0050
2677.00,0.0050
2676.00,0.0050
2675.00,0.0050
2674.00,0.0050
2673.00,0.0049
2672.00,0.0049
2671.00,0.0049
2670.00,0.0048
2669.00,0.0048
2668.00,0.0049
2667.00,0.0049
2666.00,0.0049
2665.00,0.0049
2664.00,0.0050
2663.00,0.0050
2662.00,0.0051
2661.00,0.0051
2660.00,0.0052
2659.00,0.0051
2658.00,0.0051
2657.00,0.0051
2656.00,0.0051
2655.00,0.0050
2654.00,0.0050
2653.00,0.0049
2652.00,0.0049
2651.00,0.0048
2650.00,0.0048
2649.00,0.0047
2648.00,0.0047
2647.00,0.0047
2646.00,0.0046
2645.00,0.0046
2644.00,0.0045
2643.00,0.0044
2642.00,0.0044
2641.00,0.0043
2640.00,0.0043
2639.00,0.0043
2638.00,0.0043
2637.00,0.0043
2636.00,0.0043
2635.00,0.0043
2634.00,0.0043
2633.00,0.0043
2632.00,0.0042
2631.00,0.0042
2630.00,0.0042
2629.00,0.0042
2628.00,0.0042
2627.00,0.0042
2626.00,0.0043
2625.00,0.0043
2624.00,0.0044
2623.00,0.0044
2622.00,0.0043
2621.00,0.0043
2620.00,0.0043
2619.00,0.0043
2618.00,0.0043
2617.00,0.0043
2616.00,0.0043
2615.00,0.0043
2614.00,0.0043
2613.00,0.0043
2612.00,0.0042
2611.00,0.0042
2610.00,0.0041
2609.00,0.0040
2608.00,0.0040
2607.00,0.0039
2606.00,0.0038
2605.00,0.0037
2604.00,0.0037
2603.00,0.0036
2602.00,0.0036
2601.00,0.0035
2600.00,0.0035
2599.00,0.0034
2598.00,0.0034
2597.00,0.0034
2596.00,0.0034
2595.00,0.0035
2594.00,0.0036
2593.00,0.0036
2592.00,0.0036
2591.00,0.0037
2590.00,0.0037
2589.00,0.0038
2588.00,0.0038
2587.00,0.0039
2586.00,0.0040
2585.00,0.0040
2584.00,0.0041
2583.00,0.0042
2582.00,0.0042
2581.00,0.0041
2580.00,0.0040
2579.00,0.0040
2578.00,0.0039
2577.00,0.0038
2576.00,0.0037
2575.00,0.0036
2574.00,0.0035
2573.00,0.0033
2572.00,0.0032
2571.00,0.0031
2570.00,0.0030
2569.00,0.0030
2568.00,0.0030
2567.00,0.0029
2566.00,0.0028
2565.00,0.0028
2564.00,0.0027
2563.00,0.0027
2562.00,0.0027
2561.00,0.0027
2560.00,0.0028
2559.00,0.0028
2558.00,0.0027
2557.00,0.0027
2556.00,0.0026
2555.00,0.0026
2554.00,0.0026
2553.00,0.0026
2552.00,0.0025
2551.00,0.0025
2550.00,0.0024
2549.00,0.0024
2548.00,0.0023
2547.00,0.0023
2546.00,0.0022
2545.00,0.0022
2544.00,0.0021
2543.00,0.0021
2542.00,0.0021
2541.00,0.0021
2540.00,0.0022
2539.00,0.0022
2538.00,0.0021
2537.00,0.0021
2536.00,0.0020
2535.00,0.0020
2534.00,0.0019
2533.00,0.0018
2532.00,0.0017
2531.00,0.0017
2530.00,0.0017
2529.00,0.0017
2528.00,0.0018
2527.00,0.0018
2526.00,0.0018
2525.00,0.0019
2524.00,0.0019
2523.00,0.0018
2522.00,0.0017
2521.00,0.0016
2520.00,0.0015
2519.00,0.0015
2518.00,0.0015
2517.00,0.0015
2516.00,0.0015
2515.00,0.0015
2514.00,0.0014
2513.00,0.0014
2512.00,0.0014
2511.00,0.0014
2510.00,0.0014
2509.00,0.0014
2508.00,0.0014
2507.00,0.0014
2506.00,0.0014
2505.00,0.0013
2504.00,0.0013
2503.00,0.0013
2502.00,0.0013
2501.00,0.0014
2500.00,0.0014
2499.00,0.0014
2498.00,0.0014
2497.00,0.0014
2496.00,0.0013
2495.00,0.0013
2494.00,0.0013
2493.00,0.0013
2492.00,0.0013
2491.00,0.0013
2490.00,0.0013
2489.00,0.0013
2488.00,0.0013
2487.00,0.0013
2486.00,0.0013
2485.00,0.0013
2484.00,0.0013
2483.00,0.0013
2482.00,0.0012
2481.00,0.0012
2480.00,0.0011
2479.00,0.0011
2478.00,0.0011
2477.00,0.0011
2476.00,0.0012
2475.00,0.0012
2474.00,0.0013
2473.00,0.0013
2472.00,0.0013
2471.00,0.0013
2470.00,0.0012
2469.00,0.0012
2468.00,0.0011
2467.00,0.0010
2466.00,0.0010
2465.00,0.0010
2464.00,0.0011
2463.00,0.0011
2462.00,0.0012
2461.00,0.0013
2460.00,0.0014
2459.00,0.0014
2458.00,0.0014
2457.00,0.0014
2456.00,0.0013
2455.00,0.0013
2454.00,0.0012
2453.00,0.0012
2452.00,0.0012
2451.00,0.0013
2450.00,0.0013
2449.00,0.0013
2448.00,0.0013
2447.00,0.0013
2446.00,0.0012
2445.00,0.0012
2444.00,0.0011
2443.00,0.0011
2442.00,0.0011
2441.00,0.0011
2440.00,0.0011
2439.00,0.0011
2438.00,0.0012
2437.00,0.0012
2436.00,0.0013
2435.00,0.0013
2434.00,0.0014
2433.00,0.0014
2432.00,0.0015
2431.00,0.0015
2430.00,0.0014
2429.00,0.0013
2428.00,0.0012
2427.00,0.0012
2426.00,0.0012
2425.00,0.0012
2424.00,0.0012
2423.00,0.0012
2422.00,0.0012
2421.00,0.0013
2420.00,0.0012
2419.00,0.0012
2418.00,0.0011
2417.00,0.0011
2416.00,0.0011
2415.00,0.0011
2414.00,0.0011
2413.00,0.0012
2412.00,0.0012
2411.00,0.0013
2410.00,0.0013
2409.00,0.0012
2408.00,0.0012
2407.00,0.0012
2406.00,0.0011
2405.00,0.0010
2404.00,0.0010
2403.00,0.0010
2402.00,0.0010
2401.00,0.0010
2400.00,0.0010
2399.00,0.0011
2398.00,0.0011
2397.00,0.0012
2396.00,0.0012
2395.00,0.0012
2394.00,0.0011
2393.00,0.0010
2392.00,0.0010
2391.00,0.0010
2390.00,0.0011
2389.00,0.0011
2388.00,0.0011
2387.00,0.0010
2386.00,0.0009
2385.00,0.0008
2384.00,0.0008
2383.00,0.0007
2382.00,0.0006
2381.00,0.0006
2380.00,0.0005
2379.00,0.0004
2378.00,0.0004
2377.00,0.0004
2376.00,0.0004
2375.00,0.0005
2374.00,0.0005
2373.00,0.0005
2372.00,0.0005
2371.00,0.0005
2370.00,0.0005
2369.00,0.0005
2368.00,0.0005
2367.00,0.0004
2366.00,0.0003
2365.00,0.0002
2364.00,0.0001
2363.00,0.0001
2362.00,0.0001
2361.00,0.0003
2360.00,0.0004
2359.00,0.0005
2358.00,0.0006
2357.00,0.0006
2356.00,0.0006
2355.00,0.0005
2354.00,0.0005
2353.00,0.0005
2352.00,0.0005
2351.00,0.0004
2350.00,0.0004
2349.00,0.0004
2348.00,0.0005
2347.00,0.0006
2346.00,0.0007
2345.00,0.0007
2344.00,0.0007
2343.00,0.0006
2342.00,0.0006
2341.00,0.0006
2340.00,0.0007
2339.00,0.0008
2338.00,0.0008
2337.00,0.0008
2336.00,0.0008
2335.00,0.0008
2334.00,0.0009
2333.00,0.0009
2332.00,0.0008
2331.00,0.0007
2330.00,0.0006
2329.00,0.0006
2328.00,0.0008
2327.00,0.0011
2326.00,0.0016
2325.00,0.0019
2324.00,0.0021
2323.00,0.0020
2322.00,0.0019
2321.00,0.0017
2320.00,0.0015
2319.00,0.0014
2318.00,0.0013
2317.00,0.0012
2316.00,0.0012
2315.00,0.0012
2314.00,0.0011
2313.00,0.0010
2312.00,0.0009
2311.00,0.0007
2310.00,0.0006
2309.00,0.0006
2308.00,0.0007
2307.00,0.0007
2306.00,0.0008
2305.00,0.0008
2304.00,0.0008
2303.00,0.0008
2302.00,0.0009
2301.00,0.0009
2300.00,0.0009
2299.00,0.0009
2298.00,0.0010
2297.00,0.0011
2296.00,0.0012
2295.00,0.0013
2294.00,0.0014
2293.00,0.0015
2292.00,0.0015
2291.00,0.0016
2290.00,0.0017
2289.00,0.0018
2288.00,0.0020
2287.00,0.0020
2286.00,0.0021
2285.00,0.0020
2284.00,0.0020
2283.00,0.0019
2282.00,0.0018
2281.00,0.0018
2280.00,0.0018
2279.00,0.0017
2278.00,0.0016
2277.00,0.0015
2276.00,0.0015
2275.00,0.0015
2274.00,0.0016
2273.00,0.0016
2272.00,0.0016
2271.00,0.0016
2270.00,0.0016
2269.00,0.0015
2268.00,0.0013
2267.00,0.0011
2266.00,0.0010
2265.00,0.0009
2264.00,0.0010
2263.00,0.0012
2262.00,0.0014
2261.00,0.0015
2260.00,0.0016
2259.00,0.0016
2258.00,0.0015
2257.00,0.0015
2256.00,0.0014
2255.00,0.0014
2254.00,0.0014
2253.00,0.0014
2252.00,0.0013
2251.00,0.0012
2250.00,0.0011
2249.00,0.0010
2248.00,0.0010
2247.00,0.0009
2246.00,0.0008
2245.00,0.0008
2244.00,0.0009
2243.00,0.0010
2242.00,0.0010
2241.00,0.0010
2240.00,0.0011
2239.00,0.0010
2238.00,0.0010
2237.00,0.0009
2236.00,0.0009
2235.00,0.0011
2234.00,0.0013
2233.00,0.0014
2232.00,0.0014
2231.00,0.0013
2230.00,0.0011
2229.00,0.0010
2228.00,0.0009
2227.00,0.0007
2226.00,0.0005
2225.00,0.0004
2224.00,0.0004
2223.00,0.0004
2222.00,0.0005
2221.00,0.0006
2220.00,0.0007
2219.00,0.0007
2218.00,0.0006
2217.00,0.0005
2216.00,0.0005
2215.00,0.0005
2214.00,0.0005
2213.00,0.0006
2212.00,0.0006
2211.00,0.0006
2210.00,0.0006
2209.00,0.0005
2208.00,0.0004
2207.00,0.0004
2206.00,0.0004
2205.00,0.0004
2204.00,0.0004
2203.00,0.0004
2202.00,0.0004
2201.00,0.0006
2200.00,0.0009
2199.00,0.0011
2198.00,0.0011
2197.00,0.0009
2196.00,0.0007
2195.00,0.0007
2194.00,0.0007
2193.00,0.0007
2192.00,0.0008
2191.00,0.0008
2190.00,0.0009
2189.00,0.0011
2188.00,0.0012
2187.00,0.0013
2186.00,0.0013
2185.00,0.0012
2184.00,0.0011
2183.00,0.0009
2182.00,0.0005
2181.00,0.0003
2180.00,0.0002
2179.00,0.0003
2178.00,0.0005
2177.00,0.0005
2176.00,0.0004
2175.00,0.0002
2174.00,0.0003
2173.00,0.0005
2172.00,0.0007
2171.00,0.0010
2170.00,0.0013
2169.00,0.0016
2168.00,0.0018
2167.00,0.0017
2166.00,0.0014
2165.00,0.0013
2164.00,0.0015
2163.00,0.0018
2162.00,0.0021
2161.00,0.0019
2160.00,0.0009
2159.00,-0.0005
2158.00,-0.0018
2157.00,-0.0025
2156.00,-0.0026
2155.00,-0.0025
2154.00,-0.0023
2153.00,-0.0023
2152.00,-0.0022
2151.00,-0.0021
2150.00,-0.0019
2149.00,-0.0015
2148.00,-0.0011
2147.00,-0.0007
2146.00,-0.0005
2145.00,-0.0005
2144.00,-0.0007
2143.00,-0.0008
2142.00,-0.0010
2141.00,-0.0010
2140.00,-0.0010
2139.00,-0.0011
2138.00,-0.0012
2137.00,-0.0013
2136.00,-0.0015
2135.00,-0.0017
2134.00,-0.0017
2133.00,-0.0016
2132.00,-0.0014
2131.00,-0.0012
2130.00,-0.0010
2129.00,-0.0009
2128.00,-0.0009
2127.00,-0.0009
2126.00,-0.0008
2125.00,-0.0007
2124.00,-0.0005
2123.00,-0.0004
2122.00,-0.0003
2121.00,-0.0002
2120.00,-0.0002
2119.00,-0.0001
2118.00,0.0000
2117.00,0.0001
2116.00,0.0001
2115.00,0.0001
2114.00,0.0002
2113.00,0.0003
2112.00,0.0004
2111.00,0.0005
2110.00,0.0005
2109.00,0.0006
2108.00,0.0005
2107.00,0.0004
2106.00,0.0003
2105.00,0.0004
2104.00,0.0005
2103.00,0.0006
2102.00,0.0006
2101.00,0.0005
2100.00,0.0004
2099.00,0.0002
2098.00,0.0001
2097.00,-0.0000
2096.00,-0.0001
2095.00,-0.0003
2094.00,-0.0003
2093.00,-0.0002
2092.00,-0.0000
2091.00,0.0002
2090.00,0.0004
2089.00,0.0004
2088.00,0.0004
2087.00,0.0003
2086.00,0.0004
2085.00,0.0004
2084.00,0.0005
2083.00,0.0006
2082.00,0.0006
2081.00,0.0006
2080.00,0.0004
2079.00,0.0002
2078.00,0.0001
2077.00,0.0000
2076.00,0.0001
2075.00,0.0002
2074.00,0.0002
2073.00,0.0002
2072.00,0.0002
2071.00,0.0002
2070.00,0.0002
2069.00,0.0001
2068.00,0.0000
2067.00,-0.0001
2066.00,-0.0002
2065.00,-0.0002
2064.00,-0.0002
2063.00,-0.0001
2062.00,-0.0001
2061.00,-0.0001
2060.00,-0.0001
2059.00,-0.0001
2058.00,-0.0001
2057.00,0.0001
2056.00,0.0002
2055.00,0.0003
2054.00,0.0004
2053.00,0.0007
2052.00,0.0013
2051.00,0.0017
2050.00,0.0016
2049.00,0.0011
2048.00,0.0005
2047.00,0.0001
2046.00,0.0001
2045.00,0.0002
2044.00,0.0004
2043.00,0.0006
2042.00,0.0007
2041.00,0.0007
2040.00,0.0005
2039.00,0.0003
2038.00,0.0001
2037.00,-0.0000
2036.00,-0.0002
2035.00,-0.0004
2034.00,-0.0007
2033.00,-0.0008
2032.00,-0.0008
2031.00,-0.0007
2030.00,-0.0005
2029.00,-0.0004
2028.00,-0.0004
2027.00,-0.0004
2026.00,-0.0007
2025.00,-0.0010
2024.00,-0.0014
2023.00,-0.0016
2022.00,-0.0015
2021.00,-0.0013
2020.00,-0.0012
2019.00,-0.0011
2018.00,-0.0011
2017.00,-0.0009
2016.00,-0.0007
2015.00,-0.0007
2014.00,-0.0009
2013.00,-0.0012
2012.00,-0.0014
2011.00,-0.0015
2010.00,-0.0014
2009.00,-0.0013
2008.00,-0.0012
2007.00,-0.0012
2006.00,-0.0011
2005.00,-0.0009
2004.00,-0.0009
2003.00,-0.0011
2002.00,-0.0014
2001.00,-0.0016
2000.00,-0.0018
1999.00,-0.0017
1998.00,-0.0015
1997.00,-0.0013
1996.00,-0.0012
1995.00,-0.0013
1994.00,-0.0015
1993.00,-0.0014
1992.00,-0.0012
1991.00,-0.0010
1990.00,-0.0008
1989.00,-0.0007
1988.00,-0.0005
1987.00,-0.0005
1986.00,-0.0006
1985.00,-0.0005
1984.00,-0.0003
1983.00,0.0000
1982.00,0.0004
1981.00,0.0008
1980.00,0.0009
1979.00,0.0007
1978.00,0.0002
1977.00,-0.0003
1976.00,-0.0008
1975.00,-0.0014
1974.00,-0.0019
1973.00,-0.0022
1972.00,-0.0022
1971.00,-0.0020
1970.00,-0.0018
1969.00,-0.0016
1968.00,-0.0016
1967.00,-0.0016
1966.00,-0.0016
1965.00,-0.0016
1964.00,-0.0017
1963.00,-0.0020
1962.00,-0.0023
1961.00,-0.0025
1960.00,-0.0025
1959.00,-0.0025
1958.00,-0.0023
1957.00,-0.0021
1956.00,-0.0018
1955.00,-0.0017
1954.00,-0.0016
1953.00,-0.0016
1952.00,-0.0017
1951.00,-0.0018
1950.00,-0.0020
1949.00,-0.0020
1948.00,-0.0020
1947.00,-0.0020
1946.00,-0.0020
1945.00,-0.0018
1944.00,-0.0016
1943.00,-0.0014
1942.00,-0.0014
1941.00,-0.0014
1940.00,-0.0015
1939.00,-0.0016
1938.00,-0.0017
1937.00,-0.0016
1936.00,-0.0014
1935.00,-0.0011
1934.00,-0.0009
1933.00,-0.0008
1932.00,-0.0007
1931.00,-0.0008
1930.00,-0.0009
1929.00,-0.0009
1928.00,-0.0009
1927.00,-0.0009
1926.00,-0.0009
1925.00,-0.0009
1924.00,-0.0009
1923.00,-0.0009
1922.00,-0.0009
1921.00,-0.0008
1920.00,-0.0006
1919.00,-0.0005
1918.00,-0.0003
1917.00,-0.0003
1916.00,-0.0004
1915.00,-0.0006
1914.00,-0.0008
1913.00,-0.0008
1912.00,-0.0007
1911.00,-0.0006
1910.00,-0.0005
1909.00,-0.0004
1908.00,-0.0004
1907.00,-0.0004
1906.00,-0.0003
1905.00,-0.0003
1904.00,-0.0002
1903.00,-0.0002
1902.00,-0.0003
1901.00,-0.0003
1900.00,-0.0003
1899.00,-0.0003
1898.00,-0.0003
1897.00,-0.0003
1896.00,-0.0003
1895.00,-0.0001
1894.00,-0.0000
1893.00,0.0000
1892.00,-0.0000
1891.00,-0.0001
1890.00,-0.0001
1889.00,-0.0001
1888.00,-0.0001
1887.00,-0.0002
1886.00,-0.0003
1885.00,-0.0003
1884.00,-0.0003
1883.00,-0.0003
1882.00,-0.0003
1881.00,-0.0003
1880.00,-0.0003
1879.00,-0.0002
1878.00,-0.0002
1877.00,-0.0002
1876.00,-0.0002
1875.00,-0.0001
1874.00,-0.0001
1873.00,-0.0001
1872.00,-0.0001
1871.00,-0.0001
1870.00,-0.0001
1869.00,0.0000
1868.00,0.0002
1867.00,0.0002
1866.00,0.0002
1865.00,0.0002
1864.00,0.0002
1863.00,0.0001
1862.00,0.0001
1861.00,0.0001
1860.00,0.0001
1859.00,0.0002
1858.00,0.0002
1857.00,0.0003
1856.00,0.0003
1855.00,0.0003
1854.00,0.0003
1853.00,0.0002
1852.00,0.0002
1851.00,0.0002
1850.00,0.0001
1849.00,0.0001
1848.00,0.0001
1847.00,0.0001
1846.00,0.0001
1845.00,0.0002
1844.00,0.0003
1843.00,0.0004
1842.00,0.0004
1841.00,0.0004
1840.00,0.0003
1839.00,0.0002
1838.00,0.0002
1837.00,0.0002
1836.00,0.0003
1835.00,0.0003
1834.00,0.0003
1833.00,0.0003
1832.00,0.0004
1831.00,0.0004
1830.00,0.0005
1829.00,0.0005
1828.00,0.0004
1827.00,0.0004
1826.00,0.0003
1825.00,0.0003
1824.00,0.0003
1823.00,0.0003
1822.00,0.0003
1821.00,0.0003
1820.00,0.0003
1819.00,0.0002
1818.00,0.0001
1817.00,0.0000
1816.00,0.0000
1815.00,0.0001
1814.00,0.0002
1813.00,0.0002
1812.00,0.0003
1811.00,0.0003
1810.00,0.0004
1809.00,0.0004
1808.00,0.0005
1807.00,0.0005
1806.00,0.0005
1805.00,0.0005
1804.00,0.0005
1803.00,0.0006
1802.00,0.0006
1801.00,0.0007
1800.00,0.0007
1799.00,0.0007
1798.00,0.0007
1797.00,0.0008
1796.00,0.0008
1795.00,0.0008
1794.00,0.0009
1793.00,0.0009
1792.00,0.0010
1791.00,0.0010
1790.00,0.0010
1789.00,0.0010
1788.00,0.0009
1787.00,0.0009
1786.00,0.0009
1785.00,0.0010
1784.00,0.0010
1783.00,0.0010
1782.00,0.0010
1781.00,0.0009
1780.00,0.0008
1779.00,0.0008
1778.00,0.0009
1777.00,0.0009
1776.00,0.0009
1775.00,0.0009
1774.00,0.0009
1773.00,0.0010
1772.00,0.0010
1771.00,0.0011
1770.00,0.0011
1769.00,0.0011
1768.00,0.0012
1767.00,0.0012
1766.00,0.0012
1765.00,0.0012
1764.00,0.0012
1763.00,0.0013
1762.00,0.0013
1761.00,0.0014
1760.00,0.0015
1759.00,0.0015
1758.00,0.0015
1757.00,0.0015
1756.00,0.0015
1755.00,0.0015
1754.00,0.0015
1753.00,0.0016
1752.00,0.0017
1751.00,0.0017
1750.00,0.0018
1749.00,0.0018
1748.00,0.0018
1747.00,0.0018
1746.00,0.0018
1745.00,0.0017
1744.00,0.0017
1743.00,0.0017
1742.00,0.0017
1741.00,0.0018
1740.00,0.0019
1739.00,0.0019
1738.00,0.0019
1737.00,0.0019
1736.00,0.0019
1735.00,0.0019
1734.00,0.0018
1733.00,0.0018
1732.00,0.0018
1731.00,0.0018
1730.00,0.0017
1729.00,0.0017
1728.00,0.0018
1727.00,0.0018
1726.00,0.0018
1725.00,0.0018
1724.00,0.0018
1723.00,0.0019
1722.00,0.0019
1721.00,0.0020
1720.00,0.0021
1719.00,0.0022
1718.00,0.0023
1717.00,0.0024
1716.00,0.0025
1715.00,0.0025
1714.00,0.0025
1713.00,0.0025
1712.00,0.0024
1711.00,0.0024
1710.00,0.0024
1709.00,0.0025
1708.00,0.0026
1707.00,0.0027
1706.00,0.0027
1705.00,0.0028
1704.00,0.0029
1703.00,0.0029
1702.00,0.0029
1701.00,0.0030
1700.00,0.0033
1699.00,0.0035
1698.00,0.0035
1697.00,0.0035
1696.00,0.0036
1695.00,0.0037
1694.00,0.0037
1693.00,0.0037
1692.00,0.0038
1691.00,0.0038
1690.00,0.0039
1689.00,0.0040
1688.00,0.0041
1687.00,0.0042
1686.00,0.0043
1685.00,0.0044
1684.00,0.0046
1683.00,0.0047
1682.00,0.0048
1681.00,0.0049
1680.00,0.0050
1679.00,0.0051
1678.00,0.0052
1677.00,0.0053
1676.00,0.0054
1675.00,0.0056
1674.00,0.0057
1673.00,0.0058
1672.00,0.0059
1671.00,0.0060
1670.00,0.0061
1669.00,0.0063
1668.00,0.0064
1667.00,0.0065
1666.00,0.0066
1665.00,0.0067
1664.00,0.0069
1663.00,0.0071
1662.00,0.0073
1661.00,0.0075
1660.00,0.0077
1659.00,0.0079
1658.00,0.0081
1657.00,0.0083
1656.00,0.0085
1655.00,0.0088
1654.00,0.0092
1653.00,0.0097
1652.00,0.0100
1651.00,0.0101
1650.00,0.0102
1649.00,0.0104
1648.00,0.0107
1647.00,0.0110
1646.00,0.0113
1645.00,0.0114
1644.00,0.0115
1643.00,0.0116
1642.00,0.0117
1641.00,0.0117
1640.00,0.0118
1639.00,0.0119
1638.00,0.0119
1637.00,0.0119
1636.00,0.0119
1635.00,0.0118
1634.00,0.0117
1633.00,0.0116
1632.00,0.0115
1631.00,0.0114
1630.00,0.0112
1629.00,0.0111
1628.00,0.0110
1627.00,0.0109
1626.00,0.0108
1625.00,0.0107
1624.00,0.0106
1623.00,0.0105
1622.00,0.0104
1621.00,0.0104
1620.00,0.0103
1619.00,0.0102
1618.00,0.0102
1617.00,0.0103
1616.00,0.0103
1615.00,0.0103
1614.00,0.0103
1613.00,0.0103
1612.00,0.0104
1611.00,0.0104
1610.00,0.0104
1609.00,0.0104
1608.00,0.0104
1607.00,0.0104
1606.00,0.0103
1605.00,0.0103
1604.00,0.0102
1603.00,0.0101
1602.00,0.0100
1601.00,0.0099
1600.00,0.0098
1599.00,0.0097
1598.00,0.0096
1597.00,0.0094
1596.00,0.0093
1595.00,0.0092
1594.00,0.0090
1593.00,0.0089
1592.00,0.0089
1591.00,0.0088
1590.00,0.0089
1589.00,0.0089
1588.00,0.0089
1587.00,0.0090
1586.00,0.0091
1585.00,0.0092
1584.00,0.0093
1583.00,0.0094
1582.00,0.0094
1581.00,0.0094
1580.00,0.0094
1579.00,0.0093
1578.00,0.0092
1577.00,0.0091
1576.00,0.0090
1575.00,0.0088
1574.00,0.0087
1573.00,0.0087
1572.00,0.0086
1571.00,0.0086
1570.00,0.0085
1569.00,0.0085
1568.00,0.0086
1567.00,0.0085
1566.00,0.0085
1565.00,0.0085
1564.00,0.0085
1563.00,0.0085
1562.00,0.0084
1561.00,0.0085
1560.00,0.0086
1559.00,0.0087
1558.00,0.0087
1557.00,0.0087
1556.00,0.0088
1555.00,0.0089
1554.00,0.0090
1553.00,0.0092
1552.00,0.0094
1551.00,0.0096
1550.00,0.0098
1549.00,0.0101
1548.00,0.0103
1547.00,0.0105
1546.00,0.0108
1545.00,0.0111
1544.00,0.0115
1543.00,0.0119
1542.00,0.0123
1541.00,0.0127
1540.00,0.0132
1539.00,0.0134
1538.00,0.0135
1537.00,0.0135
1536.00,0.0136
1535.00,0.0136
1534.00,0.0135
1533.00,0.0134
1532.00,0.0132
1531.00,0.0129
1530.00,0.0126
1529.00,0.0124
1528.00,0.0122
1527.00,0.0119
1526.00,0.0115
1525.00,0.0113
1524.00,0.0111
1523.00,0.0109
1522.00,0.0106
1521.00,0.0104
1520.00,0.0102
1519.00,0.0099
1518.00,0.0097
1517.00,0.0096
1516.00,0.0095
1515.00,0.0094
1514.00,0.0093
1513.00,0.0092
1512.00,0.0092
1511.00,0.0092
1510.00,0.0092
1509.00,0.0093
1508.00,0.0095
1507.00,0.0096
1506.00,0.0096
1505.00,0.0096
1504.00,0.0097
1503.00,0.0097
1502.00,0.0099
1501.00,0.0102
1500.00,0.0106
1499.00,0.0112
1498.00,0.0119
1497.00,0.0129
1496.00,0.0138
1495.00,0.0145
1494.00,0.0149
1493.00,0.0152
1492.00,0.0153
1491.00,0.0153
1490.00,0.0152
1489.00,0.0152
1488.00,0.0153
1487.00,0.0154
1486.00,0.0155
1485.00,0.0159
1484.00,0.0165
1483.00,0.0171
1482.00,0.0179
1481.00,0.0189
1480.00,0.0199
1479.00,0.0211
1478.00,0.0224
1477.00,0.0243
1476.00,0.0266
1475.00,0.0291
1474.00,0.0326
1473.00,0.0377
1472.00,0.0439
1471.00,0.0500
1470.00,0.0559
1469.00,0.0621
1468.00,0.0687
1467.00,0.0761
1466.00,0.0846
1465.00,0.0938
1464.00,0.1022
1463.00,0.1083
1462.00,0.1126
1461.00,0.1159
1460.00,0.1187
1459.00,0.1210
1458.00,0.1236
1457.00,0.1262
1456.00,0.1279
1455.00,0.1284
1454.00,0.1283
1453.00,0.1276
1452.00,0.1260
1451.00,0.1230
1450.00,0.1182
1449.00,0.1111
1448.00,0.1016
1447.00,0.0912
1446.00,0.0817
1445.00,0.0734
1444.00,0.0662
1443.00,0.0604
1442.00,0.0561
1441.00,0.0530
1440.00,0.0511
1439.00,0.0501
1438.00,0.0497
1437.00,0.0493
1436.00,0.0478
1435.00,0.0449
1434.00,0.0411
1433.00,0.0367
1432.00,0.0322
1431.00,0.0283
1430.00,0.0253
1429.00,0.0232
1428.00,0.0217
1427.00,0.0208
1426.00,0.0202
1425.00,0.0197
1424.00,0.0194
1423.00,0.0192
1422.00,0.0192
1421.00,0.0191
1420.00,0.0190
1419.00,0.0189
1418.00,0.0188
1417.00,0.0185
1416.00,0.0181
1415.00,0.0178
1414.00,0.0175
1413.00,0.0172
1412.00,0.0169
1411.00,0.0166
1410.00,0.0164
1409.00,0.0162
1408.00,0.0160
1407.00,0.0159
1406.00,0.0159
1405.00,0.0158
1404.00,0.0157
1403.00,0.0157
1402.00,0.0157
1401.00,0.0157
1400.00,0.0158
1399.00,0.0159
1398.00,0.0162
1397.00,0.0163
1396.00,0.0165
1395.00,0.0169
1394.00,0.0173
1393.00,0.0178
1392.00,0.0184
1391.00,0.0192
1390.00,0.0204
1389.00,0.0222
1388.00,0.0248
1387.00,0.0287
1386.00,0.0338
1385.00,0.0403
1384.00,0.0488
1383.00,0.0600
1382.00,0.0744
1381.00,0.0922
1380.00,0.1134
1379.00,0.1368
1378.00,0.1590
1377.00,0.1749
1376.00,0.1802
1375.00,0.1719
1374.00,0.1522
1373.00,0.1277
1372.00,0.1048
1371.00,0.0854
1370.00,0.0697
1369.00,0.0575
1368.00,0.0489
1367.00,0.0436
1366.00,0.0407
1365.00,0.0395
1364.00,0.0397
1363.00,0.0409
1362.00,0.0429
1361.00,0.0450
1360.00,0.0465
1359.00,0.0469
1358.00,0.0458
1357.00,0.0432
1356.00,0.0396
1355.00,0.0354
1354.00,0.0315
1353.00,0.0280
1352.00,0.0252
1351.00,0.0229
1350.00,0.0212
1349.00,0.0197
1348.00,0.0186
1347.00,0.0177
1346.00,0.0169
1345.00,0.0163
1344.00,0.0159
1343.00,0.0156
1342.00,0.0153
1341.00,0.0150
1340.00,0.0148
1339.00,0.0145
1338.00,0.0143
1337.00,0.0142
1336.00,0.0142
1335.00,0.0143
1334.00,0.0145
1333.00,0.0149
1332.00,0.0153
1331.00,0.0156
1330.00,0.0157
1329.00,0.0156
1328.00,0.0152
1327.00,0.0147
1326.00,0.0141
1325.00,0.0135
1324.00,0.0128
1323.00,0.0123
1322.00,0.0119
1321.00,0.0116
1320.00,0.0113
1319.00,0.0111
1318.00,0.0109
1317.00,0.0108
1316.00,0.0106
1315.00,0.0105
1314.00,0.0104
1313.00,0.0105
1312.00,0.0107
1311.00,0.0110
1310.00,0.0116
1309.00,0.0125
1308.00,0.0138
1307.00,0.0153
1306.00,0.0168
1305.00,0.0179
1304.00,0.0182
1303.00,0.0178
1302.00,0.0170
1301.00,0.0161
1300.00,0.0155
1299.00,0.0151
1298.00,0.0149
1297.00,0.0148
1296.00,0.0145
1295.00,0.0142
1294.00,0.0137
1293.00,0.0131
1292.00,0.0125
1291.00,0.0120
1290.00,0.0115
1289.00,0.0111
1288.00,0.0107
1287.00,0.0104
1286.00,0.0102
1285.00,0.0100
1284.00,0.0098
1283.00,0.0097
1282.00,0.0095
1281.00,0.0094
1280.00,0.0092
1279.00,0.0091
1278.00,0.0090
1277.00,0.0089
1276.00,0.0089
1275.00,0.0089
1274.00,0.0089
1273.00,0.0090
1272.00,0.0090
1271.00,0.0090
1270.00,0.0091
1269.00,0.0092
1268.00,0.0094
1267.00,0.0096
1266.00,0.0098
1265.00,0.0100
1264.00,0.0103
1263.00,0.0107
1262.00,0.0112
1261.00,0.0118
1260.00,0.0127
1259.00,0.0137
1258.00,0.0149
1257.00,0.0159
1256.00,0.0165
1255.00,0.0164
1254.00,0.0157
1253.00,0.0147
1252.00,0.0137
1251.00,0.0127
1250.00,0.0120
1249.00,0.0116
1248.00,0.0113
1247.00,0.0111
1246.00,0.0109
1245.00,0.0108
1244.00,0.0107
1243.00,0.0106
1242.00,0.0105
1241.00,0.0104
1240.00,0.0103
1239.00,0.0101
1238.00,0.0100
1237.00,0.0099
1236.00,0.0098
1235.00,0.0097
1234.00,0.0096
1233.00,0.0095
1232.00,0.0095
1231.00,0.0095
1230.00,0.0095
1229.00,0.0096
1228.00,0.0097
1227.00,0.0098
1226.00,0.0099
1225.00,0.0101
1224.00,0.0104
1223.00,0.0107
1222.00,0.0110
1221.00,0.0112
1220.00,0.0114
1219.00,0.0114
1218.00,0.0113
1217.00,0.0112
1216.00,0.0109
1215.00,0.0106
1214.00,0.0103
1213.00,0.0100
1212.00,0.0098
1211.00,0.0096
1210.00,0.0094
1209.00,0.0092
1208.00,0.0090
1207.00,0.0088
1206.00,0.0086
1205.00,0.0086
1204.00,0.0085
1203.00,0.0086
1202.00,0.0086
1201.00,0.0086
1200.00,0.0085
1199.00,0.0085
1198.00,0.0085
1197.00,0.0084
1196.00,0.0084
1195.00,0.0084
1194.00,0.0084
1193.00,0.0084
1192.00,0.0084
1191.00,0.0084
1190.00,0.0085
1189.00,0.0085
1188.00,0.0086
1187.00,0.0087
1186.00,0.0088
1185.00,0.0090
1184.00,0.0092
1183.00,0.0095
1182.00,0.0098
1181.00,0.0101
1180.00,0.0105
1179.00,0.0111
1178.00,0.0120
1177.00,0.0132
1176.00,0.0148
1175.00,0.0169
1174.00,0.0195
1173.00,0.0229
1172.00,0.0270
1171.00,0.0314
1170.00,0.0357
1169.00,0.0393
1168.00,0.0416
1167.00,0.0422
1166.00,0.0413
1165.00,0.0393
1164.00,0.0367
1163.00,0.0340
1162.00,0.0316
1161.00,0.0294
1160.00,0.0276
1159.00,0.0263
1158.00,0.0252
1157.00,0.0243
1156.00,0.0237
1155.00,0.0232
1154.00,0.0228
1153.00,0.0224
1152.00,0.0218
1151.00,0.0210
1150.00,0.0201
1149.00,0.0191
1148.00,0.0180
1147.00,0.0171
1146.00,0.0162
1145.00,0.0154
1144.00,0.0147
1143.00,0.0140
1142.00,0.0134
1141.00,0.0128
1140.00,0.0122
1139.00,0.0117
1138.00,0.0113
1137.00,0.0109
1136.00,0.0105
1135.00,0.0103
1134.00,0.0101
1133.00,0.0099
1132.00,0.0098
1131.00,0.0098
1130.00,0.0098
1129.00,0.0100
1128.00,0.0101
1127.00,0.0103
1126.00,0.0104
1125.00,0.0104
1124.00,0.0104
1123.00,0.0103
1122.00,0.0103
1121.00,0.0104
1120.00,0.0105
1119.00,0.0106
1118.00,0.0108
1117.00,0.0110
1116.00,0.0111
1115.00,0.0113
1114.00,0.0115
1113.00,0.0117
1112.00,0.0119
1111.00,0.0121
1110.00,0.0125
1109.00,0.0129
1108.00,0.0134
1107.00,0.0141
1106.00,0.0147
1105.00,0.0154
1104.00,0.0159
1103.00,0.0163
1102.00,0.0165
1101.00,0.0164
1100.00,0.0160
1099.00,0.0154
1098.00,0.0148
1097.00,0.0142
1096.00,0.0138
1095.00,0.0135
1094.00,0.0132
1093.00,0.0129
1092.00,0.0126
1091.00,0.0123
1090.00,0.0121
1089.00,0.0119
1088.00,0.0117
1087.00,0.0117
1086.00,0.0116
1085.00,0.0117
1084.00,0.0117
1083.00,0.0117
1082.00,0.0116
1081.00,0.0114
1080.00,0.0112
1079.00,0.0110
1078.00,0.0108
1077.00,0.0106
1076.00,0.0104
1075.00,0.0103
1074.00,0.0102
1073.00,0.0102
1072.00,0.0101
1071.00,0.0101
1070.00,0.0102
1069.00,0.0102
1068.00,0.0102
1067.00,0.0102
1066.00,0.0102
1065.00,0.0102
1064.00,0.0101
1063.00,0.0101
1062.00,0.0101
1061.00,0.0102
1060.00,0.0102
1059.00,0.0103
1058.00,0.0104
1057.00,0.0105
1056.00,0.0107
1055.00,0.0108
1054.00,0.0110
1053.00,0.0113
1052.00,0.0115
1051.00,0.0117
1050.00,0.0119
1049.00,0.0122
1048.00,0.0125
1047.00,0.0128
1046.00,0.0132
1045.00,0.0134
1044.00,0.0134
1043.00,0.0132
1042.00,0.0128
1041.00,0.0124
1040.00,0.0121
1039.00,0.0118
1038.00,0.0118
1037.00,0.0117
1036.00,0.0117
1035.00,0.0116
1034.00,0.0115
1033.00,0.0114
1032.00,0.0113
1031.00,0.0113
1030.00,0.0114
1029.00,0.0114
1028.00,0.0113
1027.00,0.0112
1026.00,0.0111
1025.00,0.0110
1024.00,0.0110
1023.00,0.0110
1022.00,0.0110
1021.00,0.0111
1020.00,0.0113
1019.00,0.0115
1018.00,0.0117
1017.00,0.0119
1016.00,0.0122
1015.00,0.0126
1014.00,0.0130
1013.00,0.0134
1012.00,0.0138
1011.00,0.0143
1010.00,0.0147
1009.00,0.0152
1008.00,0.0159
1007.00,0.0168
1006.00,0.0180
1005.00,0.0196
1004.00,0.0217
1003.00,0.0245
1002.00,0.0283
1001.00,0.0330
1000.00,0.0381
999.00,0.0427
998.00,0.0453
997.00,0.0450
996.00,0.0419
995.00,0.0369
994.00,0.0315
993.00,0.0265
992.00,0.0225
991.00,0.0195
990.00,0.0173
989.00,0.0158
988.00,0.0149
987.00,0.0144
986.00,0.0143
985.00,0.0145
984.00,0.0150
983.00,0.0158
982.00,0.0171
981.00,0.0190
980.00,0.0216
979.00,0.0251
978.00,0.0295
977.00,0.0348
976.00,0.0407
975.00,0.0465
974.00,0.0514
973.00,0.0538
972.00,0.0529
971.00,0.0487
970.00,0.0424
969.00,0.0354
968.00,0.0292
967.00,0.0242
966.00,0.0204
965.00,0.0177
964.00,0.0157
963.00,0.0144
962.00,0.0133
961.00,0.0125
960.00,0.0117
959.00,0.0111
958.00,0.0107
957.00,0.0104
956.00,0.0102
955.00,0.0100
954.00,0.0097
953.00,0.0095
952.00,0.0093
951.00,0.0092
950.00,0.0092
949.00,0.0092
948.00,0.0092
947.00,0.0093
946.00,0.0094
945.00,0.0095
944.00,0.0098
943.00,0.0101
942.00,0.0104
941.00,0.0105
940.00,0.0104
939.00,0.0101
938.00,0.0096
937.00,0.0092
936.00,0.0088
935.00,0.0084
934.00,0.0081
933.00,0.0079
932.00,0.0077
931.00,0.0076
930.00,0.0074
929.00,0.0072
928.00,0.0070
927.00,0.0069
926.00,0.0069
925.00,0.0070
924.00,0.0070
923.00,0.0071
922.00,0.0072
921.00,0.0072
920.00,0.0073
919.00,0.0074
918.00,0.0076
917.00,0.0078
916.00,0.0078
915.00,0.0078
914.00,0.0078
913.00,0.0079
912.00,0.0080
911.00,0.0082
910.00,0.0084
909.00,0.0086
908.00,0.0089
907.00,0.0092
906.00,0.0098
905.00,0.0107
904.00,0.0121
903.00,0.0138
902.00,0.0157
901.00,0.0175
900.00,0.0187
899.00,0.0189
898.00,0.0183
897.00,0.0168
896.00,0.0150
895.00,0.0133
894.00,0.0119
893.00,0.0109
892.00,0.0101
891.00,0.0095
890.00,0.0090
889.00,0.0087
888.00,0.0084
887.00,0.0083
886.00,0.0083
885.00,0.0083
884.00,0.0083
883.00,0.0083
882.00,0.0083
881.00,0.0083
880.00,0.0084
879.00,0.0085
878.00,0.0087
877.00,0.0089
876.00,0.0091
875.00,0.0092
874.00,0.0092
873.00,0.0091
872.00,0.0090
871.00,0.0089
870.00,0.0087
869.00,0.0086
868.00,0.0084
867.00,0.0084
866.00,0.0083
865.00,0.0084
864.00,0.0085
863.00,0.0088
862.00,0.0091
861.00,0.0094
860.00,0.0097
859.00,0.0099
858.00,0.0101
857.00,0.0101
856.00,0.0103
855.00,0.0105
854.00,0.0108
853.00,0.0111
852.00,0.0115
851.00,0.0120
850.00,0.0128
849.00,0.0138
848.00,0.0152
847.00,0.0173
846.00,0.0204
845.00,0.0250
844.00,0.0311
843.00,0.0379
842.00,0.0432
841.00,0.0448
840.00,0.0420
839.00,0.0363
838.00,0.0299
837.00,0.0248
836.00,0.0213
835.00,0.0191
834.00,0.0176
833.00,0.0165
832.00,0.0157
831.00,0.0151
830.00,0.0147
829.00,0.0145
828.00,0.0144
827.00,0.0142
826.00,0.0140
825.00,0.0137
824.00,0.0133
823.00,0.0130
822.00,0.0128
821.00,0.0126
820.00,0.0126
819.00,0.0127
818.00,0.0131
817.00,0.0137
816.00,0.0145
815.00,0.0153
814.00,0.0162
813.00,0.0174
812.00,0.0189
811.00,0.0203
810.00,0.0215
809.00,0.0221
808.00,0.0219
807.00,0.0210
806.00,0.0195
805.00,0.0178
804.00,0.0163
803.00,0.0151
802.00,0.0143
801.00,0.0136
800.00,0.0130
799.00,0.0124
798.00,0.0119
797.00,0.0115
796.00,0.0112
795.00,0.0109
794.00,0.0105
793.00,0.0101
792.00,0.0098
791.00,0.0096
790.00,0.0096
789.00,0.0095
788.00,0.0093
787.00,0.0091
786.00,0.0089
785.00,0.0087
784.00,0.0084
783.00,0.0081
782.00,0.0078
781.00,0.0076
780.00,0.0075
779.00,0.0075
778.00,0.0075
777.00,0.0075
776.00,0.0076
775.00,0.0078
774.00,0.0081
773.00,0.0084
772.00,0.0088
771.00,0.0092
770.00,0.0095
769.00,0.0098
768.00,0.0099
767.00,0.0099
766.00,0.0098
765.00,0.0097
764.00,0.0096
763.00,0.0094
762.00,0.0091
761.00,0.0087
760.00,0.0084
759.00,0.0081
758.00,0.0079
757.00,0.0078
756.00,0.0076
755.00,0.0075
754.00,0.0073
753.00,0.0073
752.00,0.0073
751.00,0.0074
750.00,0.0075
749.00,0.0075
748.00,0.0074
747.00,0.0072
746.00,0.0072
745.00,0.0073
744.00,0.0074
743.00,0.0076
742.00,0.0077
741.00,0.0078
740.00,0.0080
739.00,0.0082
738.00,0.0083
737.00,0.0085
736.00,0.0086
735.00,0.0088
734.00,0.0090
733.00,0.0091
732.00,0.0091
731.00,0.0091
730.00,0.0091
729.00,0.0091
728.00,0.0091
727.00,0.0090
726.00,0.0090
725.00,0.0089
724.00,0.0089
723.00,0.0089
722.00,0.0089
721.00,0.0089
720.00,0.0087
719.00,0.0085
718.00,0.0082
717.00,0.0080
716.00,0.0078
715.00,0.0077
714.00,0.0077
713.00,0.0077
712.00,0.0076
711.00,0.0075
710.00,0.0074
709.00,0.0074
708.00,0.0075
707.00,0.0076
706.00,0.0077
705.00,0.0078
704.00,0.0079
703.00,0.0080
702.00,0.0079
701.00,0.0078
700.00,0.0076
699.00,0.0073
698.00,0.0071
697.00,0.0070
696.00,0.0070
695.00,0.0071
694.00,0.0071
693.00,0.0070
692.00,0.0069
691.00,0.0069
690.00,0.0071
689.00,0.0073
688.00,0.0075
687.00,0.0075
686.00,0.0074
685.00,0.0072
684.00,0.0072
683.00,0.0072
682.00,0.0071
681.00,0.0071
680.00,0.0072
679.00,0.0073
678.00,0.0075
677.00,0.0076
676.00,0.0075
675.00,0.0074
674.00,0.0074
673.00,0.0075
672.00,0.0076
671.00,0.0076
670.00,0.0076
669.00,0.0076
668.00,0.0078
667.00,0.0080
666.00,0.0080
665.00,0.0076
664.00,0.0072
663.00,0.0070
662.00,0.0070
661.00,0.0072
660.00,0.0074
659.00,0.0077
658.00,0.0077
657.00,0.0076
656.00,0.0074
655.00,0.0072
654.00,0.0069
653.00,0.0067
652.00,0.0067
651.00,0.0068
650.00,0.0069
649.00,0.0071
648.00,0.0072
647.00,0.0073
646.00,0.0074
645.00,0.0074
644.00,0.0076
643.00,0.0077
642.00,0.0077
641.00,0.0075
640.00,0.0074
639.00,0.0074
638.00,0.0074
637.00,0.0075
636.00,0.0074
635.00,0.0074
634.00,0.0075
633.00,0.0075
632.00,0.0076
631.00,0.0077
630.00,0.0076
629.00,0.0075
628.00,0.0071
627.00,0.0069
626.00,0.0069
625.00,0.0072
624.00,0.0076
623.00,0.0079
622.00,0.0081
621.00,0.0080
620.00,0.0079
619.00,0.0077
618.00,0.0077
617.00,0.0076
616.00,0.0077
615.00,0.0077
614.00,0.0078
613.00,0.0077
612.00,0.0075
611.00,0.0074
610.00,0.0074
609.00,0.0075
608.00,0.0077
607.00,0.0078
606.00,0.0078
605.00,0.0078
604.00,0.0078
603.00,0.0078
602.00,0.0079
601.00,0.0080
600.00,0.0078
599.00,0.0077
598.00,0.0077
597.00,0.0079
596.00,0.0082
595.00,0.0085
594.00,0.0086
593.00,0.0087
592.00,0.0088
591.00,0.0087
590.00,0.0085
589.00,0.0083
588.00,0.0082
587.00,0.0081
586.00,0.0083
585.00,0.0084
584.00,0.0085
583.00,0.0084
582.00,0.0084
581.00,0.0084
580.00,0.0086
579.00,0.0086
578.00,0.0085
577.00,0.0082
576.00,0.0078
575.00,0.0075
574.00,0.0074
573.00,0.0073
572.00,0.0073
571.00,0.0073
570.00,0.0076
569.00,0.0081
568.00,0.0086
567.00,0.0089
566.00,0.0090
565.00,0.0089
564.00,0.0088
563.00,0.0088
562.00,0.0089
561.00,0.0088
560.00,0.0085
559.00,0.0081
558.00,0.0079
557.00,0.0077
556.00,0.0075
555.00,0.0074
554.00,0.0074
553.00,0.0077
552.00,0.0081
551.00,0.0084
550.00,0.0084
549.00,0.0083
548.00,0.0082
547.00,0.0079
546.00,0.0075
545.00,0.0071
544.00,0.0070
543.00,0.0074
542.00,0.0081
541.00,0.0087
540.00,0.0088
539.00,0.0088
538.00,0.0089
537.00,0.0092
536.00,0.0096
535.00,0.0098
534.00,0.0098
533.00,0.0099
532.00,0.0101
531.00,0.0103
530.00,0.0106
529.00,0.0110
528.00,0.0113
527.00,0.0113
526.00,0.0109
525.00,0.0104
524.00,0.0102
523.00,0.0102
522.00,0.0101
521.00,0.0097
520.00,0.0091
519.00,0.0086
518.00,0.0086
517.00,0.0092
516.00,0.0098
515.00,0.0101
514.00,0.0102
513.00,0.0101
512.00,0.0100
511.00,0.0098
510.00,0.0091
509.00,0.0081
508.00,0.0074
507.00,0.0072
506.00,0.0075
505.00,0.0080
504.00,0.0084
503.00,0.0087
502.00,0.0088
501.00,0.0086
500.00,0.0083
499.00,0.0080
498.00,0.0080
497.00,0.0081
496.00,0.0084
495.00,0.0085
494.00,0.0085
493.00,0.0083
492.00,0.0081
491.00,0.0079
490.00,0.0077
489.00,0.0072
488.00,0.0066
487.00,0.0061
486.00,0.0059
485.00,0.0059
484.00,0.0063
483.00,0.0070
482.00,0.0080
481.00,0.0089
480.00,0.0094
479.00,0.0095
478.00,0.0095
477.00,0.0096
476.00,0.0098
475.00,0.0102
474.00,0.0108
473.00,0.0114
472.00,0.0118
471.00,0.0117
470.00,0.0114
469.00,0.0113
468.00,0.0116
467.00,0.0119
466.00,0.0120
465.00,0.0120
464.00,0.0123
463.00,0.0135
462.00,0.0155
461.00,0.0174
460.00,0.0186
459.00,0.0187
458.00,0.0184
457.00,0.0182
456.00,0.0179
455.00,0.0172
454.00,0.0161
453.00,0.0146
452.00,0.0131
451.00,0.0120
450.00,0.0113
