Created as New Dataset,Sample 031 By Administrator Date Wednesday, September 10 2025
cm-1,A
4000.00,0.0009
3999.00,0.0009
3998.00,0.0009
3997.00,0.0008
3996.00,0.0008
3995.00,0.0008
3994.00,0.0009
3993.00,0.0010
3992.00,0.0010
3991.00,0.0010
3990.00,0.0010
3989.00,0.0010
3988.00,0.0010
3987.00,0.0009
3986.00,0.0009
3985.00,0.0008
3984.00,0.0008
3983.00,0.0008
3982.00,0.0008
3981.00,0.0008
3980.00,0.0008
3979.00,0.0008
3978.00,0.0008
3977.00,0.0008
3976.00,0.0008
3975.00,0.0008
3974.00,0.0008
3973.00,0.0008
3972.00,0.0008
3971.00,0.0008
3970.00,0.0008
3969.00,0.0008
3968.00,0.0008
3967.00,0.0008
3966.00,0.0008
3965.00,0.0008
3964.00,0.0008
3963.00,0.0008
3962.00,0.0008
3961.00,0.0008
3960.00,0.0008
3959.00,0.0008
3958.00,0.0007
3957.00,0.0007
3956.00,0.0007
3955.00,0.0007
3954.00,0.0007
3953.00,0.0007
3952.00,0.0008
3951.00,0.0008
3950.00,0.0009
3949.00,0.0009
3948.00,0.0009
3947.00,0.0009
3946.00,0.0009
3945.00,0.0009
3944.00,0.0009
3943.00,0.0009
3942.00,0.0009
3941.00,0.0008
3940.00,0.0008
3939.00,0.0008
3938.00,0.0008
3937.00,0.0008
3936.00,0.0009
3935.00,0.0009
3934.00,0.0009
3933.00,0.0010
3932.00,0.0010
3931.00,0.0009
3930.00,0.0009
3929.00,0.0009
3928.00,0.0008
3927.00,0.0008
3926.00,0.0008
3925.00,0.0009
3924.00,0.0009
3923.00,0.0009
3922.00,0.0009
3921.00,0.0009
3920.00,0.0009
3919.00,0.0009
3918.00,0.0009
3917.00,0.0009
3916.00,0.0008
3915.00,0.0008
3914.00,0.0008
3913.00,0.0008
3912.00,0.0008
3911.00,0.0008
3910.00,0.0009
3909.00,0.0009
3908.00,0.0009
3907.00,0.0010
3906.00,0.0010
3905.00,0.0011
3904.00,0.0011
3903.00,0.0012
3902.00,0.0012
3901.00,0.0012
3900.00,0.0012
3899.00,0.0011
3898.00,0.0010
3897.00,0.0010
3896.00,0.0010
3895.00,0.0010
3894.00,0.0009
3893.00,0.0009
3892.00,0.0009
3891.00,0.0009
3890.00,0.0009
3889.00,0.0010
3888.00,0.0010
3887.00,0.0010
3886.00,0.0010
3885.00,0.0010
3884.00,0.0010
3883.00,0.0010
3882.00,0.0010
3881.00,0.0010
3880.00,0.0010
3879.00,0.0010
3878.00,0.0010
3877.00,0.0010
3876.00,0.0010
3875.00,0.0010
3874.00,0.0010
3873.00,0.0010
3872.00,0.0010
3871.00,0.0010
3870.00,0.0010
3869.00,0.0010
3868.00,0.0010
3867.00,0.0011
3866.00,0.0011
3865.00,0.0010
3864.00,0.0010
3863.00,0.0009
3862.00,0.0008
3861.00,0.0008
3860.00,0.0009
3859.00,0.0009
3858.00,0.0010
3857.00,0.0011
3856.00,0.0012
3855.00,0.0013
3854.00,0.0013
3853.00,0.0012
3852.00,0.0012
3851.00,0.0012
3850.00,0.0011
3849.00,0.0010
3848.00,0.0009
3847.00,0.0008
3846.00,0.0008
3845.00,0.0008
3844.00,0.0008
3843.00,0.0009
3842.00,0.0010
3841.00,0.0010
3840.00,0.0011
3839.00,0.0011
3838.00,0.0011
3837.00,0.0011
3836.00,0.0011
3835.00,0.0010
3834.00,0.0010
3833.00,0.0009
3832.00,0.0009
3831.00,0.0009
3830.00,0.0009
3829.00,0.0009
3828.00,0.0009
3827.00,0.0009
3826.00,0.0009
3825.00,0.0009
3824.00,0.0010
3823.00,0.0011
3822.00,0.0011
3821.00,0.0011
3820.00,0.0011
3819.00,0.0011
3818.00,0.0011
3817.00,0.0010
3816.00,0.0009
3815.00,0.0009
3814.00,0.0009
3813.00,0.0009
3812.00,0.0009
3811.00,0.0009
3810.00,0.0009
3809.00,0.0009
3808.00,0.0009
3807.00,0.0009
3806.00,0.0009
3805.00,0.0010
3804.00,0.0010
3803.00,0.0010
3802.00,0.0010
3801.00,0.0009
3800.00,0.0010
3799.00,0.0010
3798.00,0.0010
3797.00,0.0010
3796.00,0.0009
3795.00,0.0009
3794.00,0.0009
3793.00,0.0008
3792.00,0.0008
3791.00,0.0008
3790.00,0.0008
3789.00,0.0007
3788.00,0.0007
3787.00,0.0007
3786.00,0.0008
3785.00,0.0008
3784.00,0.0008
3783.00,0.0008
3782.00,0.0008
3781.00,0.0008
3780.00,0.0008
3779.00,0.0008
3778.00,0.0008
3777.00,0.0008
3776.00,0.0008
3775.00,0.0009
3774.00,0.0009
3773.00,0.0009
3772.00,0.0009
3771.00,0.0009
3770.00,0.0009
3769.00,0.0009
3768.00,0.0009
3767.00,0.0010
3766.00,0.0010
3765.00,0.0010
3764.00,0.0009
3763.00,0.0009
3762.00,0.0009
3761.00,0.0009
3760.00,0.0009
3759.00,0.0009
3758.00,0.0010
3757.00,0.0011
3756.00,0.0011
3755.00,0.0012
3754.00,0.0012
3753.00,0.0013
3752.00,0.0013
3751.00,0.0013
3750.00,0.0014
3749.00,0.0014
3748.00,0.0014
3747.00,0.0014
3746.00,0.0013
3745.00,0.0013
3744.00,0.0013
3743.00,0.0012
3742.00,0.0012
3741.00,0.0011
3740.00,0.0011
3739.00,0.0011
3738.00,0.0012
3737.00,0.0013
3736.00,0.0013
3735.00,0.0012
3734.00,0.0011
3733.00,0.0010
3732.00,0.0010
3731.00,0.0009
3730.00,0.0008
3729.00,0.0008
3728.00,0.0008
3727.00,0.0008
3726.00,0.0009
3725.00,0.0009
3724.00,0.0008
3723.00,0.0008
3722.00,0.0008
3721.00,0.0008
3720.00,0.0008
3719.00,0.0008
3718.00,0.0008
3717.00,0.0008
3716.00,0.0008
3715.00,0.0008
3714.00,0.0009
3713.00,0.0009
3712.00,0.0009
3711.00,0.0009
3710.00,0.0009
3709.00,0.0009
3708.00,0.0009
3707.00,0.0009
3706.00,0.0008
3705.00,0.0008
3704.00,0.0008
3703.00,0.0007
3702.00,0.0007
3701.00,0.0007
3700.00,0.0007
3699.00,0.0007
3698.00,0.0007
3697.00,0.0007
3696.00,0.0007
3695.00,0.0007
3694.00,0.0008
3693.00,0.0009
3692.00,0.0010
3691.00,0.0010
3690.00,0.0010
3689.00,0.0010
3688.00,0.0010
3687.00,0.0010
3686.00,0.0010
3685.00,0.0009
3684.00,0.0009
3683.00,0.0009
3682.00,0.0009
3681.00,0.0009
3680.00,0.0010
3679.00,0.0011
3678.00,0.0012
3677.00,0.0012
3676.00,0.0013
3675.00,0.0013
3674.00,0.0013
3673.00,0.0014
3672.00,0.0014
3671.00,0.0013
3670.00,0.0013
3669.00,0.0012
3668.00,0.0012
3667.00,0.0011
3666.00,0.0011
3665.00,0.0010
3664.00,0.0010
3663.00,0.0010
3662.00,0.0010
3661.00,0.0010
3660.00,0.0010
3659.00,0.0010
3658.00,0.0011
3657.00,0.0011
3656.00,0.0012
3655.00,0.0013
3654.00,0.0014
3653.00,0.0015
3652.00,0.0016
3651.00,0.0016
3650.00,0.0016
3649.00,0.0016
3648.00,0.0016
3647.00,0.0017
3646.00,0.0016
3645.00,0.0016
3644.00,0.0015
3643.00,0.0014
3642.00,0.0014
3641.00,0.0013
3640.00,0.0013
3639.00,0.0013
3638.00,0.0013
3637.00,0.0013
3636.00,0.0014
3635.00,0.0014
3634.00,0.0015
3633.00,0.0016
3632.00,0.0017
3631.00,0.0017
3630.00,0.0018
3629.00,0.0018
3628.00,0.0018
3627.00,0.0018
3626.00,0.0017
3625.00,0.0017
3624.00,0.0017
3623.00,0.0017
3622.00,0.0018
3621.00,0.0018
3620.00,0.0018
3619.00,0.0019
3618.00,0.0020
3617.00,0.0020
3616.00,0.0021
3615.00,0.0021
3614.00,0.0021
3613.00,0.0021
3612.00,0.0022
3611.00,0.0022
3610.00,0.0022
3609.00,0.0022
3608.00,0.0022
3607.00,0.0022
3606.00,0.0022
3605.00,0.0022
3604.00,0.0022
3603.00,0.0021
3602.00,0.0021
3601.00,0.0021
3600.00,0.0021
3599.00,0.0022
3598.00,0.0022
3597.00,0.0023
3596.00,0.0024
3595.00,0.0025
3594.00,0.0025
3593.00,0.0025
3592.00,0.0025
3591.00,0.0025
3590.00,0.0026
3589.00,0.0027
3588.00,0.0028
3587.00,0.0028
3586.00,0.0029
3585.00,0.0029
3584.00,0.0029
3583.00,0.0028
3582.00,0.0028
3581.00,0.0028
3580.00,0.0028
3579.00,0.0029
3578.00,0.0030
3577.00,0.0030
3576.00,0.0030
3575.00,0.0031
3574.00,0.0031
3573.00,0.0031
3572.00,0.0032
3571.00,0.0033
3570.00,0.0035
3569.00,0.0036
3568.00,0.0037
3567.00,0.0037
3566.00,0.0037
3565.00,0.0038
3564.00,0.0037
3563.00,0.0037
3562.00,0.0037
3561.00,0.0037
3560.00,0.0037
3559.00,0.0037
3558.00,0.0037
3557.00,0.0037
3556.00,0.0038
3555.00,0.0039
3554.00,0.0039
3553.00,0.0040
3552.00,0.0041
3551.00,0.0041
3550.00,0.0042
3549.00,0.0043
3548.00,0.0044
3547.00,0.0045
3546.00,0.0045
3545.00,0.0046
3544.00,0.0046
3543.00,0.0046
3542.00,0.0047
3541.00,0.0047
3540.00,0.0047
3539.00,0.0047
3538.00,0.0047
3537.00,0.0048
3536.00,0.0049
3535.00,0.0049
3534.00,0.0050
3533.00,0.0050
3532.00,0.0050
3531.00,0.0051
3530.00,0.0052
3529.00,0.0054
3528.00,0.0055
3527.00,0.0055
3526.00,0.0056
3525.00,0.0056
3524.00,0.0056
3523.00,0.0056
3522.00,0.0056
3521.00,0.0057
3520.00,0.0057
3519.00,0.0057
3518.00,0.0057
3517.00,0.0057
3516.00,0.0058
3515.00,0.0058
3514.00,0.0059
3513.00,0.0059
3512.00,0.0060
3511.00,0.0061
3510.00,0.0061
3509.00,0.0062
3508.00,0.0063
3507.00,0.0064
3506.00,0.0064
3505.00,0.0065
3504.00,0.0065
3503.00,0.0066
3502.00,0.0067
3501.00,0.0067
3500.00,0.0068
3499.00,0.0068
3498.00,0.0068
3497.00,0.0068
3496.00,0.0069
3495.00,0.0069
3494.00,0.0070
3493.00,0.0071
3492.00,0.0072
3491.00,0.0072
3490.00,0.0073
3489.00,0.0073
3488.00,0.0073
3487.00,0.0074
3486.00,0.0074
3485.00,0.0074
3484.00,0.0075
3483.00,0.0075
3482.00,0.0076
3481.00,0.0077
3480.00,0.0078
3479.00,0.0078
3478.00,0.0079
3477.00,0.0079
3476.00,0.0080
3475.00,0.0080
3474.00,0.0080
3473.00,0.0080
3472.00,0.0081
3471.00,0.0081
3470.00,0.0082
3469.00,0.0082
3468.00,0.0083
3467.00,0.0083
3466.00,0.0083
3465.00,0.0084
3464.00,0.0084
3463.00,0.0085
3462.00,0.0085
3461.00,0.0086
3460.00,0.0087
3459.00,0.0088
3458.00,0.0088
3457.00,0.0088
3456.00,0.0088
3455.00,0.0088
3454.00,0.0088
3453.00,0.0088
3452.00,0.0089
3451.00,0.0089
3450.00,0.0090
3449.00,0.0091
3448.00,0.0091
3447.00,0.0091
3446.00,0.0091
3445.00,0.0091
3444.00,0.0092
3443.00,0.0092
3442.00,0.0093
3441.00,0.0094
3440.00,0.0095
3439.00,0.0095
3438.00,0.0096
3437.00,0.0096
3436.00,0.0096
3435.00,0.0097
3434.00,0.0097
3433.00,0.0097
3432.00,0.0098
3431.00,0.0098
3430.00,0.0098
3429.00,0.0099
3428.00,0.0099
3427.00,0.0099
3426.00,0.0099
3425.00,0.0099
3424.00,0.0100
3423.00,0.0100
3422.00,0.0100
3421.00,0.0101
3420.00,0.0102
3419.00,0.0102
3418.00,0.0103
3417.00,0.0103
3416.00,0.0104
3415.00,0.0104
3414.00,0.0104
3413.00,0.0105
3412.00,0.0105
3411.00,0.0106
3410.00,0.0106
3409.00,0.0106
3408.00,0.0106
3407.00,0.0106
3406.00,0.0106
3405.00,0.0106
3404.00,0.0107
3403.00,0.0107
3402.00,0.0107
3401.00,0.0108
3400.00,0.0108
3399.00,0.0108
3398.00,0.0108
3397.00,0.0108
3396.00,0.0108
3395.00,0.0108
3394.00,0.0108
3393.00,0.0108
3392.00,0.0108
3391.00,0.0108
3390.00,0.0108
3389.00,0.0108
3388.00,0.0108
3387.00,0.0109
3386.00,0.0109
3385.00,0.0110
3384.00,0.0110
3383.00,0.0110
3382.00,0.0110
3381.00,0.0109
3380.00,0.0110
3379.00,0.0110
3378.00,0.0110
3377.00,0.0110
3376.00,0.0110
3375.00,0.0110
3374.00,0.0110
3373.00,0.0110
3372.00,0.0110
3371.00,0.0110
3370.00,0.0110
3369.00,0.0111
3368.00,0.0110
3367.00,0.0110
3366.00,0.0110
3365.00,0.0111
3364.00,0.0111
3363.00,0.0112
3362.00,0.0112
3361.00,0.0112
3360.00,0.0112
3359.00,0.0111
3358.00,0.0111
3357.00,0.0111
3356.00,0.0112
3355.00,0.0112
3354.00,0.0112
3353.00,0.0111
3352.00,0.0111
3351.00,0.0111
3350.00,0.0111
3349.00,0.0111
3348.00,0.0110
3347.00,0.0111
3346.00,0.0111
3345.00,0.0111
3344.00,0.0111
3343.00,0.0111
3342.00,0.0111
3341.00,0.0111
3340.00,0.0111
3339.00,0.0111
3338.00,0.0111
3337.00,0.0111
3336.00,0.0111
3335.00,0.0111
3334.00,0.0111
3333.00,0.0111
3332.00,0.0111
3331.00,0.0111
3330.00,0.0110
3329.00,0.0110
3328.00,0.0110
3327.00,0.0110
3326.00,0.0110
3325.00,0.0110
3324.00,0.0109
3323.00,0.0109
3322.00,0.0109
3321.00,0.0110
3320.00,0.0110
3319.00,0.0110
3318.00,0.0109
3317.00,0.0109
3316.00,0.0109
3315.00,0.0109
3314.00,0.0109
3313.00,0.0109
3312.00,0.0109
3311.00,0.0108
3310.00,0.0108
3309.00,0.0108
3308.00,0.0107
3307.00,0.0107
3306.00,0.0107
3305.00,0.0107
3304.00,0.0106
3303.00,0.0106
3302.00,0.0106
3301.00,0.0106
3300.00,0.0106
3299.00,0.0105
3298.00,0.0105
3297.00,0.0104
3296.00,0.0104
3295.00,0.0104
3294.00,0.0104
3293.00,0.0104
3292.00,0.0104
3291.00,0.0104
3290.00,0.0103
3289.00,0.0102
3288.00,0.0102
3287.00,0.0102
3286.00,0.0102
3285.00,0.0101
3284.00,0.0101
3283.00,0.0101
3282.00,0.0100
3281.00,0.0100
3280.00,0.0100
3279.00,0.0099
3278.00,0.0099
3277.00,0.0099
3276.00,0.0098
3275.00,0.0098
3274.00,0.0098
3273.00,0.0098
3272.00,0.0097
3271.00,0.0097
3270.00,0.0096
3269.00,0.0096
3268.00,0.0095
3267.00,0.0095
3266.00,0.0095
3265.00,0.0095
3264.00,0.0095
3263.00,0.0094
3262.00,0.0093
3261.00,0.0093
3260.00,0.0092
3259.00,0.0092
3258.00,0.0092
3257.00,0.0092
3256.00,0.0092
3255.00,0.0091
3254.00,0.0091
3253.00,0.0090
3252.00,0.0090
3251.00,0.0089
3250.00,0.0089
3249.00,0.0088
3248.00,0.0088
3247.00,0.0088
3246.00,0.0087
3245.00,0.0087
3244.00,0.0087
3243.00,0.0087
3242.00,0.0086
3241.00,0.0086
3240.00,0.0086
3239.00,0.0086
3238.00,0.0085
3237.00,0.0085
3236.00,0.0085
3235.00,0.0085
3234.00,0.0084
3233.00,0.0084
3232.00,0.0084
3231.00,0.0084
3230.00,0.0084
3229.00,0.0084
3228.00,0.0085
3227.00,0.0085
3226.00,0.0085
3225.00,0.0085
3224.00,0.0085
3223.00,0.0085
3222.00,0.0085
3221.00,0.0084
3220.00,0.0084
3219.00,0.0084
3218.00,0.0085
3217.00,0.0085
3216.00,0.0085
3215.00,0.0085
3214.00,0.0085
3213.00,0.0085
3212.00,0.0085
3211.00,0.0085
3210.00,0.0085
3209.00,0.0085
3208.00,0.0085
3207.00,0.0085
3206.00,0.0085
3205.00,0.0085
3204.00,0.0085
3203.00,0.0085
3202.00,0.0085
3201.00,0.0085
3200.00,0.0085
3199.00,0.0085
3198.00,0.0085
3197.00,0.0085
3196.00,0.0085
3195.00,0.0085
3194.00,0.0084
3193.00,0.0083
3192.00,0.0083
3191.00,0.0083
3190.00,0.0083
3189.00,0.0083
3188.00,0.0082
3187.00,0.0082
3186.00,0.0081
3185.00,0.0081
3184.00,0.0080
3183.00,0.0080
3182.00,0.0079
3181.00,0.0079
3180.00,0.0078
3179.00,0.0078
3178.00,0.0077
3177.00,0.0076
3176.00,0.0076
3175.00,0.0076
3174.00,0.0075
3173.00,0.0075
3172.00,0.0074
3171.00,0.0074
3170.00,0.0073
3169.00,0.0073
3168.00,0.0073
3167.00,0.0072
3166.00,0.0072
3165.00,0.0072
3164.00,0.0071
3163.00,0.0071
3162.00,0.0070
3161.00,0.0070
3160.00,0.0070
3159.00,0.0069
3158.00,0.0069
3157.00,0.0068
3156.00,0.0068
3155.00,0.0068
3154.00,0.0068
3153.00,0.0068
3152.00,0.0068
3151.00,0.0068
3150.00,0.0068
3149.00,0.0068
3148.00,0.0068
3147.00,0.0067
3146.00,0.0067
3145.00,0.0067
3144.00,0.0067
3143.00,0.0066
3142.00,0.0066
3141.00,0.0066
3140.00,0.0066
3139.00,0.0065
3138.00,0.0065
3137.00,0.0064
3136.00,0.0063
3135.00,0.0063
3134.00,0.0062
3133.00,0.0062
3132.00,0.0062
3131.00,0.0062
3130.00,0.0062
3129.00,0.0061
3128.00,0.0061
3127.00,0.0061
3126.00,0.0061
3125.00,0.0061
3124.00,0.0060
3123.00,0.0060
3122.00,0.0059
3121.00,0.0058
3120.00,0.0058
3119.00,0.0057
3118.00,0.0057
3117.00,0.0057
3116.00,0.0057
3115.00,0.0057
3114.00,0.0057
3113.00,0.0057
3112.00,0.0056
3111.00,0.0055
3110.00,0.0055
3109.00,0.0054
3108.00,0.0054
3107.00,0.0054
3106.00,0.0054
3105.00,0.0054
3104.00,0.0054
3103.00,0.0054
3102.00,0.0054
3101.00,0.0053
3100.00,0.0053
3099.00,0.0052
3098.00,0.0052
3097.00,0.0052
3096.00,0.0052
3095.00,0.0052
3094.00,0.0052
3093.00,0.0052
3092.00,0.0051
3091.00,0.0051
3090.00,0.0050
3089.00,0.0050
3088.00,0.0050
3087.00,0.0050
3086.00,0.0050
3085.00,0.0050
3084.00,0.0049
3083.00,0.0049
3082.00,0.0048
3081.00,0.0048
3080.00,0.0048
3079.00,0.0048
3078.00,0.0047
3077.00,0.0047
3076.00,0.0048
3075.00,0.0048
3074.00,0.0048
3073.00,0.0048
3072.00,0.0048
3071.00,0.0049
3070.00,0.0049
3069.00,0.0049
3068.00,0.0050
3067.00,0.0050
3066.00,0.0050
3065.00,0.0050
3064.00,0.0051
3063.00,0.0051
3062.00,0.0051
3061.00,0.0051
3060.00,0.0051
3059.00,0.0050
3058.00,0.0050
3057.00,0.0050
3056.00,0.0050
3055.00,0.0050
3054.00,0.0050
3053.00,0.0050
3052.00,0.0050
3051.00,0.0050
3050.00,0.0050
3049.00,0.0050
3048.00,0.0051
3047.00,0.0051
3046.00,0.0051
3045.00,0.0051
3044.00,0.0051
3043.00,0.0051
3042.00,0.0052
3041.00,0.0052
3040.00,0.0053
3039.00,0.0053
3038.00,0.0054
3037.00,0.0054
3036.00,0.0054
3035.00,0.0054
3034.00,0.0054
3033.00,0.0055
3032.00,0.0055
3031.00,0.0055
3030.00,0.0055
3029.00,0.0055
3028.00,0.0056
3027.00,0.0056
3026.00,0.0057
3025.00,0.0058
3024.00,0.0058
3023.00,0.0059
3022.00,0.0059
3021.00,0.0059
3020.00,0.0060
3019.00,0.0061
3018.00,0.0062
3017.00,0.0063
3016.00,0.0064
3015.00,0.0065
3014.00,0.0066
3013.00,0.0067
3012.00,0.0068
3011.00,0.0069
3010.00,0.0070
3009.00,0.0072
3008.00,0.0073
3007.00,0.0075
3006.00,0.0076
3005.00,0.0078
3004.00,0.0080
3003.00,0.0082
3002.00,0.0084
3001.00,0.0087
3000.00,0.0089
2999.00,0.0092
2998.00,0.0095
2997.00,0.0098
2996.00,0.0102
2995.00,0.0106
2994.00,0.0111
2993.00,0.0116
2992.00,0.0121
2991.00,0.0127
2990.00,0.0133
2989.00,0.0139
2988.00,0.0147
2987.00,0.0155
2986.00,0.0164
2985.00,0.0175
2984.00,0.0186
2983.00,0.0199
2982.00,0.0214
2981.00,0.0230
2980.00,0.0248
2979.00,0.0269
2978.00,0.0292
2977.00,0.0317
2976.00,0.0347
2975.00,0.0380
2974.00,0.0418
2973.00,0.0462
2972.00,0.0511
2971.00,0.0565
2970.00,0.0625
2969.00,0.0690
2968.00,0.0760
2967.00,0.0834
2966.00,0.0910
2965.00,0.0987
2964.00,0.1060
2963.00,0.1127
2962.00,0.1186
2961.00,0.1236
2960.00,0.1278
2959.00,0.1318
2958.00,0.1358
2957.00,0.1405
2956.00,0.1463
2955.00,0.1533
2954.00,0.1613
2953.00,0.1699
2952.00,0.1781
2951.00,0.1850
2950.00,0.1892
2949.00,0.1899
2948.00,0.1864
2947.00,0.1789
2946.00,0.1682
2945.00,0.1557
2944.00,0.1430
2943.00,0.1315
2942.00,0.1220
2941.00,0.1151
2940.00,0.1108
2939.00,0.1090
2938.00,0.1093
2937.00,0.1115
2936.00,0.1155
2935.00,0.1210
2934.00,0.1279
2933.00,0.1362
2932.00,0.1456
2931.00,0.1559
2930.00,0.1670
2929.00,0.1785
2928.00,0.1900
2927.00,0.2013
2926.00,0.2121
2925.00,0.2225
2924.00,0.2324
2923.00,0.2422
2922.00,0.2518
2921.00,0.2612
2920.00,0.2696
2919.00,0.2763
2918.00,0.2801
2917.00,0.2804
2916.00,0.2768
2915.00,0.2696
2914.00,0.2598
2913.00,0.2485
2912.00,0.2368
2911.00,0.2256
2910.00,0.2151
2909.00,0.2055
2908.00,0.1967
2907.00,0.1883
2906.00,0.1803
2905.00,0.1725
2904.00,0.1648
2903.00,0.1573
2902.00,0.1501
2901.00,0.1431
2900.00,0.1365
2899.00,0.1304
2898.00,0.1248
2897.00,0.1197
2896.00,0.1153
2895.00,0.1115
2894.00,0.1084
2893.00,0.1061
2892.00,0.1044
2891.00,0.1033
2890.00,0.1028
2889.00,0.1028
2888.00,0.1032
2887.00,0.1039
2886.00,0.1051
2885.00,0.1066
2884.00,0.1086
2883.00,0.1111
2882.00,0.1142
2881.00,0.1176
2880.00,0.1210
2879.00,0.1241
2878.00,0.1263
2877.00,0.1275
2876.00,0.1275
2875.00,0.1269
2874.00,0.1261
2873.00,0.1258
2872.00,0.1263
2871.00,0.1276
2870.00,0.1297
2869.00,0.1319
2868.00,0.1337
2867.00,0.1340
2866.00,0.1321
2865.00,0.1276
2864.00,0.1205
2863.00,0.1117
2862.00,0.1023
2861.00,0.0933
2860.00,0.0854
2859.00,0.0790
2858.00,0.0741
2857.00,0.0705
2856.00,0.0681
2855.00,0.0665
2854.00,0.0655
2853.00,0.0651
2852.00,0.0652
2851.00,0.0658
2850.00,0.0670
2849.00,0.0688
2848.00,0.0712
2847.00,0.0744
2846.00,0.0785
2845.00,0.0835
2844.00,0.0892
2843.00,0.0956
2842.00,0.1023
2841.00,0.1087
2840.00,0.1142
2839.00,0.1178
2838.00,0.1188
2837.00,0.1166
2836.00,0.1111
2835.00,0.1029
2834.00,0.0929
2833.00,0.0823
2832.00,0.0720
2831.00,0.0629
2830.00,0.0551
2829.00,0.0487
2828.00,0.0435
2827.00,0.0394
2826.00,0.0360
2825.00,0.0333
2824.00,0.0310
2823.00,0.0291
2822.00,0.0274
2821.00,0.0260
2820.00,0.0248
2819.00,0.0238
2818.00,0.0228
2817.00,0.0220
2816.00,0.0213
2815.00,0.0207
2814.00,0.0201
2813.00,0.0195
2812.00,0.0190
2811.00,0.0184
2810.00,0.0178
2809.00,0.0173
2808.00,0.0167
2807.00,0.0160
2806.00,0.0153
2805.00,0.0146
2804.00,0.0140
2803.00,0.0134
2802.00,0.0128
2801.00,0.0123
2800.00,0.0119
2799.00,0.0116
2798.00,0.0114
2797.00,0.0111
2796.00,0.0109
2795.00,0.0107
2794.00,0.0105
2793.00,0.0102
2792.00,0.0100
2791.00,0.0097
2790.00,0.0094
2789.00,0.0091
2788.00,0.0088
2787.00,0.0086
2786.00,0.0083
2785.00,0.0081
2784.00,0.0079
2783.00,0.0077
2782.00,0.0075
2781.00,0.0072
2780.00,0.0070
2779.00,0.0069
2778.00,0.0067
2777.00,0.0066
2776.00,0.0065
2775.00,0.0064
2774.00,0.0063
2773.00,0.0062
2772.00,0.0061
2771.00,0.0061
2770.00,0.0060
2769.00,0.0060
2768.00,0.0060
2767.00,0.0060
2766.00,0.0059
2765.00,0.0059
2764.00,0.0059
2763.00,0.0059
2762.00,0.0058
2761.00,0.0058
2760.00,0.0058
2759.00,0.0058
2758.00,0.0057
2757.00,0.0057
2756.00,0.0057
2755.00,0.0057
2754.00,0.0057
2753.00,0.0057
2752.00,0.0056
2751.00,0.0056
2750.00,0.0056
2749.00,0.0056
2748.00,0.0056
2747.00,0.0056
2746.00,0.0057
2745.00,0.0058
2744.00,0.0059
2743.00,0.0059
2742.00,0.0060
2741.00,0.0061
2740.00,0.0062
2739.00,0.0064
2738.00,0.0065
2737.00,0.0067
2736.00,0.0068
2735.00,0.0069
2734.00,0.0071
2733.00,0.0072
2732.00,0.0074
2731.00,0.0076
2730.00,0.0078
2729.00,0.0081
2728.00,0.0083
2727.00,0.0086
2726.00,0.0089
2725.00,0.0091
2724.00,0.0093
2723.00,0.0093
2722.00,0.0093
2721.00,0.0091
2720.00,0.0088
2719.00,0.0084
2718.00,0.0081
2717.00,0.0077
2716.00,0.0074
2715.00,0.0072
2714.00,0.0069
2713.00,0.0066
2712.00,0.0064
2711.00,0.0062
2710.00,0.0060
2709.00,0.0059
2708.00,0.0058
2707.00,0.0057
2706.00,0.0055
2705.00,0.0054
2704.00,0.0053
2703.00,0.0052
2702.00,0.0051
2701.00,0.0050
2700.00,0.0049
2699.00,0.0049
2698.00,0.0048
2697.00,0.0048
2696.00,0.0048
2695.00,0.0047
2694.00,0.0047
2693.00,0.0047
2692.00,0.0046
2691.00,0.0046
2690.00,0.0046
2689.00,0.0046
2688.00,0.0046
2687.00,0.0047
2686.00,0.0047
2685.00,0.0047
2684.00,0.0047
2683.00,0.0047
2682.00,0.0047
2681.00,0.0047
2680.00,0.0047
2679.00,0.0048
2678.00,0.0048
2677.00,0.0048
2676.00,0.0048
2675.00,0.0048
2674.00,0.0048
2673.00,0.0048
2672.00,0.0048
2671.00,0.0047
2670.00,0.0047
2669.00,0.0047
2668.00,0.0047
2667.00,0.0047
2666.00,0.0047
2665.00,0.0048
2664.00,0.0048
2663.00,0.0049
2662.00,0.0049
2661.00,0.0049
2660.00,0.0049
2659.00,0.0050
2658.00,0.0050
2657.00,0.0050
2656.00,0.0049
2655.00,0.0049
2654.00,0.0048
2653.00,0.0048
2652.00,0.0047
2651.00,0.0046
2650.00,0.0046
2649.00,0.0045
2648.00,0.0045
2647.00,0.0044
2646.00,0.0044
2645.00,0.0044
2644.00,0.0044
2643.00,0.0044
2642.00,0.0043
2641.00,0.0042
2640.00,0.0042
2639.00,0.0041
2638.00,0.0040
2637.00,0.0040
2636.00,0.0039
2635.00,0.0039
2634.00,0.0039
2633.00,0.0040
2632.00,0.0040
2631.00,0.0040
2630.00,0.0041
2629.00,0.0041
2628.00,0.0041
2627.00,0.0041
2626.00,0.0041
2625.00,0.0041
2624.00,0.0041
2623.00,0.0042
2622.00,0.0042
2621.00,0.0042
2620.00,0.0042
2619.00,0.0043
2618.00,0.0043
2617.00,0.0042
2616.00,0.0042
2615.00,0.0041
2614.00,0.0041
2613.00,0.0041
2612.00,0.0041
2611.00,0.0041
2610.00,0.0040
2609.00,0.0039
2608.00,0.0038
2607.00,0.0037
2606.00,0.0036
2605.00,0.0035
2604.00,0.0034
2603.00,0.0033
2602.00,0.0033
2601.00,0.0034
2600.00,0.0034
2599.00,0.0034
2598.00,0.0034
2597.00,0.0034
2596.00,0.0034
2595.00,0.0034
2594.00,0.0034
2593.00,0.0035
2592.00,0.0035
2591.00,0.0035
2590.00,0.0036
2589.00,0.0036
2588.00,0.0037
2587.00,0.0039
2586.00,0.0040
2585.00,0.0042
2584.00,0.0042
2583.00,0.0042
2582.00,0.0042
2581.00,0.0041
2580.00,0.0041
2579.00,0.0040
2578.00,0.0039
2577.00,0.0038
2576.00,0.0038
2575.00,0.0037
2574.00,0.0036
2573.00,0.0034
2572.00,0.0033
2571.00,0.0032
2570.00,0.0031
2569.00,0.0030
2568.00,0.0030
2567.00,0.0029
2566.00,0.0028
2565.00,0.0027
2564.00,0.0026
2563.00,0.0025
2562.00,0.0025
2561.00,0.0025
2560.00,0.0025
2559.00,0.0025
2558.00,0.0025
2557.00,0.0024
2556.00,0.0024
2555.00,0.0024
2554.00,0.0024
2553.00,0.0024
2552.00,0.0023
2551.00,0.0023
2550.00,0.0023
2549.00,0.0022
2548.00,0.0021
2547.00,0.0021
2546.00,0.0020
2545.00,0.0020
2544.00,0.0019
2543.00,0.0019
2542.00,0.0019
2541.00,0.0018
2540.00,0.0019
2539.00,0.0019
2538.00,0.0019
2537.00,0.0019
2536.00,0.0018
2535.00,0.0017
2534.00,0.0017
2533.00,0.0017
2532.00,0.0017
2531.00,0.0018
2530.00,0.0018
2529.00,0.0017
2528.00,0.0016
2527.00,0.0016
2526.00,0.0017
2525.00,0.0017
2524.00,0.0017
2523.00,0.0017
2522.00,0.0016
2521.00,0.0015
2520.00,0.0014
2519.00,0.0013
2518.00,0.0013
2517.00,0.0014
2516.00,0.0014
2515.00,0.0014
2514.00,0.0014
2513.00,0.0013
2512.00,0.0013
2511.00,0.0012
2510.00,0.0012
2509.00,0.0012
2508.00,0.0012
2507.00,0.0012
2506.00,0.0012
2505.00,0.0012
2504.00,0.0012
2503.00,0.0012
2502.00,0.0012
2501.00,0.0012
2500.00,0.0012
2499.00,0.0012
2498.00,0.0012
2497.00,0.0012
2496.00,0.0011
2495.00,0.0011
2494.00,0.0011
2493.00,0.0011
2492.00,0.0011
2491.00,0.0011
2490.00,0.0011
2489.00,0.0011
2488.00,0.0011
2487.00,0.0011
2486.00,0.0011
2485.00,0.0011
2484.00,0.0011
2483.00,0.0011
2482.00,0.0011
2481.00,0.0011
2480.00,0.0011
2479.00,0.0011
2478.00,0.0011
2477.00,0.0012
2476.00,0.0013
2475.00,0.0013
2474.00,0.0013
2473.00,0.0013
2472.00,0.0012
2471.00,0.0011
2470.00,0.0011
2469.00,0.0011
2468.00,0.0011
2467.00,0.0011
2466.00,0.0011
2465.00,0.0011
2464.00,0.0011
2463.00,0.0011
2462.00,0.0012
2461.00,0.0012
2460.00,0.0012
2459.00,0.0012
2458.00,0.0012
2457.00,0.0011
2456.00,0.0011
2455.00,0.0012
2454.00,0.0012
2453.00,0.0012
2452.00,0.0012
2451.00,0.0012
2450.00,0.0012
2449.00,0.0013
2448.00,0.0013
2447.00,0.0012
2446.00,0.0012
2445.00,0.0012
2444.00,0.0011
2443.00,0.0011
2442.00,0.0010
2441.00,0.0010
2440.00,0.0011
2439.00,0.0011
2438.00,0.0012
2437.00,0.0013
2436.00,0.0013
2435.00,0.0014
2434.00,0.0014
2433.00,0.0014
2432.00,0.0013
2431.00,0.0013
2430.00,0.0013
2429.00,0.0013
2428.00,0.0013
2427.00,0.0014
2426.00,0.0014
2425.00,0.0015
2424.00,0.0014
2423.00,0.0014
2422.00,0.0013
2421.00,0.0013
2420.00,0.0012
2419.00,0.0013
2418.00,0.0012
2417.00,0.0012
2416.00,0.0012
2415.00,0.0011
2414.00,0.0010
2413.00,0.0010
2412.00,0.0010
2411.00,0.0011
2410.00,0.0011
2409.00,0.0011
2408.00,0.0011
2407.00,0.0010
2406.00,0.0010
2405.00,0.0009
2404.00,0.0009
2403.00,0.0009
2402.00,0.0009
2401.00,0.0009
2400.00,0.0009
2399.00,0.0009
2398.00,0.0010
2397.00,0.0010
2396.00,0.0009
2395.00,0.0009
2394.00,0.0008
2393.00,0.0008
2392.00,0.0008
2391.00,0.0009
2390.00,0.0010
2389.00,0.0010
2388.00,0.0009
2387.00,0.0009
2386.00,0.0008
2385.00,0.0007
2384.00,0.0006
2383.00,0.0005
2382.00,0.0005
2381.00,0.0004
2380.00,0.0003
2379.00,0.0003
2378.00,0.0002
2377.00,0.0002
2376.00,0.0002
2375.00,0.0003
2374.00,0.0003
2373.00,0.0004
2372.00,0.0004
2371.00,0.0004
2370.00,0.0003
2369.00,0.0003
2368.00,0.0003
2367.00,0.0002
2366.00,0.0002
2365.00,0.0002
2364.00,0.0001
2363.00,0.0001
2362.00,0.0002
2361.00,0.0003
2360.00,0.0004
2359.00,0.0005
2358.00,0.0004
2357.00,0.0004
2356.00,0.0003
2355.00,0.0003
2354.00,0.0003
2353.00,0.0003
2352.00,0.0003
2351.00,0.0003
2350.00,0.0002
2349.00,0.0002
2348.00,0.0002
2347.00,0.0003
2346.00,0.0005
2345.00,0.0006
2344.00,0.0006
2343.00,0.0005
2342.00,0.0004
2341.00,0.0004
2340.00,0.0004
2339.00,0.0005
2338.00,0.0005
2337.00,0.0005
2336.00,0.0005
2335.00,0.0005
2334.00,0.0005
2333.00,0.0005
2332.00,0.0004
2331.00,0.0004
2330.00,0.0004
2329.00,0.0004
2328.00,0.0005
2327.00,0.0008
2326.00,0.0012
2325.00,0.0016
2324.00,0.0017
2323.00,0.0016
2322.00,0.0014
2321.00,0.0012
2320.00,0.0011
2319.00,0.0009
2318.00,0.0008
2317.00,0.0007
2316.00,0.0007
2315.00,0.0007
2314.00,0.0007
2313.00,0.0008
2312.00,0.0008
2311.00,0.0008
2310.00,0.0007
2309.00,0.0006
2308.00,0.0005
2307.00,0.0005
2306.00,0.0004
2305.00,0.0005
2304.00,0.0005
2303.00,0.0006
2302.00,0.0006
2301.00,0.0006
2300.00,0.0006
2299.00,0.0007
2298.00,0.0008
2297.00,0.0010
2296.00,0.0010
2295.00,0.0011
2294.00,0.0011
2293.00,0.0012
2292.00,0.0013
2291.00,0.0015
2290.00,0.0016
2289.00,0.0016
2288.00,0.0017
2287.00,0.0018
2286.00,0.0019
2285.00,0.0019
2284.00,0.0019
2283.00,0.0018
2282.00,0.0016
2281.00,0.0015
2280.00,0.0015
2279.00,0.0015
2278.00,0.0016
2277.00,0.0016
2276.00,0.0016
2275.00,0.0016
2274.00,0.0015
2273.00,0.0015
2272.00,0.0015
2271.00,0.0015
2270.00,0.0015
2269.00,0.0015
2268.00,0.0014
2267.00,0.0013
2266.00,0.0013
2265.00,0.0011
2264.00,0.0010
2263.00,0.0010
2262.00,0.0010
2261.00,0.0011
2260.00,0.0012
2259.00,0.0012
2258.00,0.0012
2257.00,0.0012
2256.00,0.0012
2255.00,0.0011
2254.00,0.0010
2253.00,0.0009
2252.00,0.0009
2251.00,0.0008
2250.00,0.0009
2249.00,0.0010
2248.00,0.0010
2247.00,0.0010
2246.00,0.0010
2245.00,0.0010
2244.00,0.0010
2243.00,0.0011
2242.00,0.0012
2241.00,0.0011
2240.00,0.0011
2239.00,0.0010
2238.00,0.0010
2237.00,0.0009
2236.00,0.0009
2235.00,0.0009
2234.00,0.0010
2233.00,0.0011
2232.00,0.0010
2231.00,0.0010
2230.00,0.0009
2229.00,0.0008
2228.00,0.0007
2227.00,0.0007
2226.00,0.0007
2225.00,0.0008
2224.00,0.0009
2223.00,0.0010
2222.00,0.0010
2221.00,0.0010
2220.00,0.0010
2219.00,0.0009
2218.00,0.0008
2217.00,0.0007
2216.00,0.0007
2215.00,0.0006
2214.00,0.0005
2213.00,0.0004
2212.00,0.0004
2211.00,0.0004
2210.00,0.0005
2209.00,0.0007
2208.00,0.0007
2207.00,0.0008
2206.00,0.0008
2205.00,0.0009
2204.00,0.0009
2203.00,0.0009
2202.00,0.0009
2201.00,0.0009
2200.00,0.0008
2199.00,0.0007
2198.00,0.0006
2197.00,0.0005
2196.00,0.0007
2195.00,0.0009
2194.00,0.0012
2193.00,0.0014
2192.00,0.0014
2191.00,0.0013
2190.00,0.0012
2189.00,0.0013
2188.00,0.0014
2187.00,0.0016
2186.00,0.0018
2185.00,0.0019
2184.00,0.0017
2183.00,0.0014
2182.00,0.0010
2181.00,0.0007
2180.00,0.0006
2179.00,0.0007
2178.00,0.0008
2177.00,0.0008
2176.00,0.0008
2175.00,0.0008
2174.00,0.0009
2173.00,0.0011
2172.00,0.0012
2171.00,0.0013
2170.00,0.0013
2169.00,0.0014
2168.00,0.0015
2167.00,0.0016
2166.00,0.0016
2165.00,0.0017
2164.00,0.0017
2163.00,0.0016
2162.00,0.0014
2161.00,0.0009
2160.00,0.0000
2159.00,-0.0009
2158.00,-0.0018
2157.00,-0.0022
2156.00,-0.0023
2155.00,-0.0022
2154.00,-0.0019
2153.00,-0.0016
2152.00,-0.0014
2151.00,-0.0012
2150.00,-0.0010
2149.00,-0.0008
2148.00,-0.0009
2147.00,-0.0010
2146.00,-0.0011
2145.00,-0.0011
2144.00,-0.0009
2143.00,-0.0007
2142.00,-0.0005
2141.00,-0.0004
2140.00,-0.0004
2139.00,-0.0005
2138.00,-0.0006
2137.00,-0.0006
2136.00,-0.0006
2135.00,-0.0008
2134.00,-0.0011
2133.00,-0.0012
2132.00,-0.0013
2131.00,-0.0012
2130.00,-0.0011
2129.00,-0.0010
2128.00,-0.0009
2127.00,-0.0008
2126.00,-0.0008
2125.00,-0.0007
2124.00,-0.0006
2123.00,-0.0005
2122.00,-0.0003
2121.00,-0.0000
2120.00,0.0001
2119.00,0.0001
2118.00,0.0001
2117.00,0.0001
2116.00,0.0002
2115.00,0.0003
2114.00,0.0003
2113.00,0.0003
2112.00,0.0002
2111.00,0.0003
2110.00,0.0003
2109.00,0.0004
2108.00,0.0005
2107.00,0.0005
2106.00,0.0005
2105.00,0.0004
2104.00,0.0004
2103.00,0.0003
2102.00,0.0003
2101.00,0.0003
2100.00,0.0004
2099.00,0.0004
2098.00,0.0004
2097.00,0.0003
2096.00,0.0002
2095.00,0.0000
2094.00,-0.0001
2093.00,-0.0001
2092.00,-0.0001
2091.00,-0.0001
2090.00,-0.0000
2089.00,-0.0000
2088.00,-0.0000
2087.00,0.0000
2086.00,0.0002
2085.00,0.0004
2084.00,0.0007
2083.00,0.0009
2082.00,0.0010
2081.00,0.0011
2080.00,0.0011
2079.00,0.0010
2078.00,0.0009
2077.00,0.0008
2076.00,0.0008
2075.00,0.0009
2074.00,0.0009
2073.00,0.0008
2072.00,0.0007
2071.00,0.0006
2070.00,0.0005
2069.00,0.0004
2068.00,0.0003
2067.00,0.0003
2066.00,0.0003
2065.00,0.0004
2064.00,0.0003
2063.00,0.0003
2062.00,0.0003
2061.00,0.0002
2060.00,0.0002
2059.00,0.0001
2058.00,0.0001
2057.00,0.0001
2056.00,0.0002
2055.00,0.0003
2054.00,0.0006
2053.00,0.0009
2052.00,0.0012
2051.00,0.0013
2050.00,0.0011
2049.00,0.0007
2048.00,0.0003
2047.00,0.0001
2046.00,0.0002
2045.00,0.0004
2044.00,0.0006
2043.00,0.0006
2042.00,0.0005
2041.00,0.0002
2040.00,-0.0000
2039.00,-0.0001
2038.00,-0.0001
2037.00,0.0002
2036.00,0.0004
2035.00,0.0005
2034.00,0.0004
2033.00,0.0003
2032.00,0.0001
2031.00,-0.0001
2030.00,-0.0002
2029.00,-0.0002
2028.00,-0.0001
2027.00,0.0000
2026.00,0.0000
2025.00,-0.0001
2024.00,-0.0003
2023.00,-0.0005
2022.00,-0.0005
2021.00,-0.0005
2020.00,-0.0006
2019.00,-0.0008
2018.00,-0.0011
2017.00,-0.0012
2016.00,-0.0010
2015.00,-0.0007
2014.00,-0.0005
2013.00,-0.0003
2012.00,-0.0003
2011.00,-0.0003
2010.00,-0.0002
2009.00,-0.0001
2008.00,-0.0001
2007.00,-0.0004
2006.00,-0.0007
2005.00,-0.0009
2004.00,-0.0009
2003.00,-0.0010
2002.00,-0.0010
2001.00,-0.0009
2000.00,-0.0008
1999.00,-0.0008
1998.00,-0.0009
1997.00,-0.0009
1996.00,-0.0009
1995.00,-0.0009
1994.00,-0.0008
1993.00,-0.0006
1992.00,-0.0004
1991.00,-0.0004
1990.00,-0.0004
1989.00,-0.0004
1988.00,-0.0003
1987.00,-0.0001
1986.00,0.0001
1985.00,0.0003
1984.00,0.0006
1983.00,0.0010
1982.00,0.0014
1981.00,0.0017
1980.00,0.0017
1979.00,0.0012
1978.00,0.0002
1977.00,-0.0007
1976.00,-0.0012
1975.00,-0.0013
1974.00,-0.0013
1973.00,-0.0011
1972.00,-0.0011
1971.00,-0.0012
1970.00,-0.0014
1969.00,-0.0015
1968.00,-0.0015
1967.00,-0.0014
1966.00,-0.0012
1965.00,-0.0011
1964.00,-0.0010
1963.00,-0.0010
1962.00,-0.0012
1961.00,-0.0013
1960.00,-0.0015
1959.00,-0.0016
1958.00,-0.0015
1957.00,-0.0014
1956.00,-0.0012
1955.00,-0.0011
1954.00,-0.0010
1953.00,-0.0009
1952.00,-0.0009
1951.00,-0.0010
1950.00,-0.0011
1949.00,-0.0011
1948.00,-0.0010
1947.00,-0.0008
1946.00,-0.0008
1945.00,-0.0010
1944.00,-0.0012
1943.00,-0.0014
1942.00,-0.0015
1941.00,-0.0014
1940.00,-0.0012
1939.00,-0.0009
1938.00,-0.0006
1937.00,-0.0005
1936.00,-0.0006
1935.00,-0.0007
1934.00,-0.0008
1933.00,-0.0009
1932.00,-0.0009
1931.00,-0.0009
1930.00,-0.0009
1929.00,-0.0009
1928.00,-0.0009
1927.00,-0.0009
1926.00,-0.0009
1925.00,-0.0008
1924.00,-0.0007
1923.00,-0.0005
1922.00,-0.0004
1921.00,-0.0002
1920.00,-0.0000
1919.00,-0.0000
1918.00,-0.0001
1917.00,-0.0002
1916.00,-0.0003
1915.00,-0.0003
1914.00,-0.0003
1913.00,-0.0002
1912.00,-0.0001
1911.00,-0.0000
1910.00,0.0000
1909.00,0.0000
1908.00,0.0000
1907.00,0.0000
1906.00,-0.0001
1905.00,-0.0002
1904.00,-0.0002
1903.00,-0.0003
1902.00,-0.0003
1901.00,-0.0002
1900.00,-0.0000
1899.00,0.0001
1898.00,0.0002
1897.00,0.0002
1896.00,0.0002
1895.00,0.0001
1894.00,-0.0000
1893.00,0.0000
1892.00,0.0001
1891.00,0.0001
1890.00,0.0001
1889.00,0.0001
1888.00,0.0001
1887.00,0.0001
1886.00,0.0001
1885.00,0.0002
1884.00,0.0002
1883.00,0.0001
1882.00,0.0000
1881.00,-0.0001
1880.00,-0.0001
1879.00,-0.0000
1878.00,0.0000
1877.00,0.0001
1876.00,0.0001
1875.00,0.0001
1874.00,0.0002
1873.00,0.0002
1872.00,0.0001
1871.00,0.0001
1870.00,0.0000
1869.00,0.0001
1868.00,0.0002
1867.00,0.0003
1866.00,0.0003
1865.00,0.0003
1864.00,0.0003
1863.00,0.0002
1862.00,0.0002
1861.00,0.0002
1860.00,0.0002
1859.00,0.0002
1858.00,0.0001
1857.00,0.0001
1856.00,0.0002
1855.00,0.0002
1854.00,0.0002
1853.00,0.0002
1852.00,0.0002
1851.00,0.0002
1850.00,0.0003
1849.00,0.0003
1848.00,0.0004
1847.00,0.0003
1846.00,0.0003
1845.00,0.0003
1844.00,0.0003
1843.00,0.0004
1842.00,0.0003
1841.00,0.0003
1840.00,0.0002
1839.00,0.0002
1838.00,0.0002
1837.00,0.0002
1836.00,0.0003
1835.00,0.0003
1834.00,0.0003
1833.00,0.0003
1832.00,0.0004
1831.00,0.0005
1830.00,0.0005
1829.00,0.0006
1828.00,0.0006
1827.00,0.0006
1826.00,0.0006
1825.00,0.0006
1824.00,0.0006
1823.00,0.0006
1822.00,0.0005
1821.00,0.0005
1820.00,0.0004
1819.00,0.0003
1818.00,0.0001
1817.00,0.0001
1816.00,0.0001
1815.00,0.0002
1814.00,0.0003
1813.00,0.0004
1812.00,0.0004
1811.00,0.0004
1810.00,0.0005
1809.00,0.0006
1808.00,0.0006
1807.00,0.0007
1806.00,0.0007
1805.00,0.0007
1804.00,0.0007
1803.00,0.0006
1802.00,0.0006
1801.00,0.0006
1800.00,0.0006
1799.00,0.0007
1798.00,0.0007
1797.00,0.0008
1796.00,0.0008
1795.00,0.0007
1794.00,0.0007
1793.00,0.0008
1792.00,0.0008
1791.00,0.0009
1790.00,0.0009
1789.00,0.0010
1788.00,0.0010
1787.00,0.0010
1786.00,0.0010
1785.00,0.0010
1784.00,0.0011
1783.00,0.0011
1782.00,0.0011
1781.00,0.0011
1780.00,0.0011
1779.00,0.0011
1778.00,0.0010
1777.00,0.0010
1776.00,0.0010
1775.00,0.0011
1774.00,0.0011
1773.00,0.0011
1772.00,0.0012
1771.00,0.0012
1770.00,0.0013
1769.00,0.0013
1768.00,0.0013
1767.00,0.0012
1766.00,0.0012
1765.00,0.0012
1764.00,0.0013
1763.00,0.0013
1762.00,0.0014
1761.00,0.0015
1760.00,0.0016
1759.00,0.0016
1758.00,0.0016
1757.00,0.0016
1756.00,0.0017
1755.00,0.0017
1754.00,0.0018
1753.00,0.0019
1752.00,0.0019
1751.00,0.0020
1750.00,0.0021
1749.00,0.0021
1748.00,0.0022
1747.00,0.0023
1746.00,0.0023
1745.00,0.0024
1744.00,0.0025
1743.00,0.0026
1742.00,0.0028
1741.00,0.0029
1740.00,0.0030
1739.00,0.0031
1738.00,0.0031
1737.00,0.0031
1736.00,0.0031
1735.00,0.0030
1734.00,0.0030
1733.00,0.0030
1732.00,0.0031
1731.00,0.0030
1730.00,0.0030
1729.00,0.0029
1728.00,0.0030
1727.00,0.0030
1726.00,0.0030
1725.00,0.0030
1724.00,0.0031
1723.00,0.0031
1722.00,0.0031
1721.00,0.0031
1720.00,0.0031
1719.00,0.0031
1718.00,0.0031
1717.00,0.0031
1716.00,0.0031
1715.00,0.0031
1714.00,0.0031
1713.00,0.0031
1712.00,0.0031
1711.00,0.0031
1710.00,0.0032
1709.00,0.0033
1708.00,0.0033
1707.00,0.0034
1706.00,0.0034
1705.00,0.0034
1704.00,0.0035
1703.00,0.0035
1702.00,0.0036
1701.00,0.0037
1700.00,0.0039
1699.00,0.0041
1698.00,0.0042
1697.00,0.0043
1696.00,0.0044
1695.00,0.0045
1694.00,0.0046
1693.00,0.0047
1692.00,0.0048
1691.00,0.0049
1690.00,0.0050
1689.00,0.0052
1688.00,0.0053
1687.00,0.0054
1686.00,0.0055
1685.00,0.0056
1684.00,0.0059
1683.00,0.0061
1682.00,0.0063
1681.00,0.0065
1680.00,0.0067
1679.00,0.0068
1678.00,0.0069
1677.00,0.0070
1676.00,0.0072
1675.00,0.0074
1674.00,0.0076
1673.00,0.0078
1672.00,0.0079
1671.00,0.0081
1670.00,0.0082
1669.00,0.0084
1668.00,0.0086
1667.00,0.0087
1666.00,0.0087
1665.00,0.0088
1664.00,0.0089
1663.00,0.0091
1662.00,0.0093
1661.00,0.0094
1660.00,0.0095
1659.00,0.0096
1658.00,0.0097
1657.00,0.0099
1656.00,0.0100
1655.00,0.0100
1654.00,0.0101
1653.00,0.0104
1652.00,0.0108
1651.00,0.0110
1650.00,0.0110
1649.00,0.0111
1648.00,0.0112
1647.00,0.0114
1646.00,0.0115
1645.00,0.0116
1644.00,0.0116
1643.00,0.0116
1642.00,0.0116
1641.00,0.0116
1640.00,0.0117
1639.00,0.0117
1638.00,0.0117
1637.00,0.0117
1636.00,0.0117
1635.00,0.0116
1634.00,0.0116
1633.00,0.0116
1632.00,0.0115
1631.00,0.0115
1630.00,0.0114
1629.00,0.0113
1628.00,0.0112
1627.00,0.0112
1626.00,0.0111
1625.00,0.0110
1624.00,0.0110
1623.00,0.0109
1622.00,0.0108
1621.00,0.0107
1620.00,0.0107
1619.00,0.0106
1618.00,0.0105
1617.00,0.0105
1616.00,0.0105
1615.00,0.0105
1614.00,0.0105
1613.00,0.0105
1612.00,0.0105
1611.00,0.0104
1610.00,0.0104
1609.00,0.0104
1608.00,0.0104
1607.00,0.0104
1606.00,0.0104
1605.00,0.0103
1604.00,0.0103
1603.00,0.0102
1602.00,0.0101
1601.00,0.0101
1600.00,0.0100
1599.00,0.0100
1598.00,0.0099
1597.00,0.0099
1596.00,0.0099
1595.00,0.0098
1594.00,0.0098
1593.00,0.0098
1592.00,0.0098
1591.00,0.0098
1590.00,0.0097
1589.00,0.0097
1588.00,0.0097
1587.00,0.0097
1586.00,0.0098
1585.00,0.0098
1584.00,0.0099
1583.00,0.0099
1582.00,0.0100
1581.00,0.0101
1580.00,0.0102
1579.00,0.0102
1578.00,0.0102
1577.00,0.0102
1576.00,0.0102
1575.00,0.0102
1574.00,0.0102
1573.00,0.0101
1572.00,0.0100
1571.00,0.0099
1570.00,0.0099
1569.00,0.0099
1568.00,0.0099
1567.00,0.0099
1566.00,0.0099
1565.00,0.0099
1564.00,0.0100
1563.00,0.0101
1562.00,0.0101
1561.00,0.0102
1560.00,0.0102
1559.00,0.0103
1558.00,0.0104
1557.00,0.0105
1556.00,0.0106
1555.00,0.0106
1554.00,0.0108
1553.00,0.0109
1552.00,0.0111
1551.00,0.0112
1550.00,0.0113
1549.00,0.0114
1548.00,0.0116
1547.00,0.0117
1546.00,0.0118
1545.00,0.0120
1544.00,0.0121
1543.00,0.0123
1542.00,0.0123
1541.00,0.0123
1540.00,0.0121
1539.00,0.0120
1538.00,0.0118
1537.00,0.0116
1536.00,0.0114
1535.00,0.0111
1534.00,0.0107
1533.00,0.0104
1532.00,0.0102
1531.00,0.0100
1530.00,0.0098
1529.00,0.0096
1528.00,0.0094
1527.00,0.0092
1526.00,0.0089
1525.00,0.0088
1524.00,0.0087
1523.00,0.0086
1522.00,0.0085
1521.00,0.0084
1520.00,0.0084
1519.00,0.0083
1518.00,0.0082
1517.00,0.0082
1516.00,0.0082
1515.00,0.0081
1514.00,0.0081
1513.00,0.0081
1512.00,0.0081
1511.00,0.0081
1510.00,0.0081
1509.00,0.0082
1508.00,0.0083
1507.00,0.0083
1506.00,0.0083
1505.00,0.0084
1504.00,0.0086
1503.00,0.0087
1502.00,0.0088
1501.00,0.0091
1500.00,0.0094
1499.00,0.0098
1498.00,0.0102
1497.00,0.0108
1496.00,0.0114
1495.00,0.0120
1494.00,0.0125
1493.00,0.0129
1492.00,0.0132
1491.00,0.0135
1490.00,0.0137
1489.00,0.0141
1488.00,0.0146
1487.00,0.0151
1486.00,0.0156
1485.00,0.0161
1484.00,0.0168
1483.00,0.0174
1482.00,0.0182
1481.00,0.0193
1480.00,0.0204
1479.00,0.0216
1478.00,0.0229
1477.00,0.0248
1476.00,0.0269
1475.00,0.0295
1474.00,0.0330
1473.00,0.0383
1472.00,0.0449
1471.00,0.0515
1470.00,0.0578
1469.00,0.0644
1468.00,0.0715
1467.00,0.0793
1466.00,0.0884
1465.00,0.0984
1464.00,0.1073
1463.00,0.1137
1462.00,0.1179
1461.00,0.1210
1460.00,0.1231
1459.00,0.1243
1458.00,0.1250
1457.00,0.1254
1456.00,0.1253
1455.00,0.1247
1454.00,0.1237
1453.00,0.1219
1452.00,0.1191
1451.00,0.1149
1450.00,0.1091
1449.00,0.1012
1448.00,0.0915
1447.00,0.0815
1446.00,0.0728
1445.00,0.0656
1444.00,0.0595
1443.00,0.0547
1442.00,0.0512
1441.00,0.0489
1440.00,0.0475
1439.00,0.0472
1438.00,0.0476
1437.00,0.0480
1436.00,0.0471
1435.00,0.0444
1434.00,0.0404
1433.00,0.0357
1432.00,0.0307
1431.00,0.0264
1430.00,0.0232
1429.00,0.0208
1428.00,0.0192
1427.00,0.0183
1426.00,0.0177
1425.00,0.0171
1424.00,0.0166
1423.00,0.0164
1422.00,0.0163
1421.00,0.0161
1420.00,0.0157
1419.00,0.0156
1418.00,0.0155
1417.00,0.0153
1416.00,0.0151
1415.00,0.0150
1414.00,0.0149
1413.00,0.0147
1412.00,0.0145
1411.00,0.0144
1410.00,0.0144
1409.00,0.0143
1408.00,0.0142
1407.00,0.0142
1406.00,0.0142
1405.00,0.0142
1404.00,0.0142
1403.00,0.0143
1402.00,0.0145
1401.00,0.0146
1400.00,0.0146
1399.00,0.0148
1398.00,0.0151
1397.00,0.0153
1396.00,0.0154
1395.00,0.0158
1394.00,0.0163
1393.00,0.0169
1392.00,0.0175
1391.00,0.0184
1390.00,0.0196
1389.00,0.0212
1388.00,0.0238
1387.00,0.0276
1386.00,0.0327
1385.00,0.0391
1384.00,0.0474
1383.00,0.0586
1382.00,0.0737
1381.00,0.0932
1380.00,0.1181
1379.00,0.1476
1378.00,0.1777
1377.00,0.2018
1376.00,0.2131
1375.00,0.2061
1374.00,0.1825
1373.00,0.1517
1372.00,0.1225
1371.00,0.0981
1370.00,0.0785
1369.00,0.0636
1368.00,0.0534
1367.00,0.0472
1366.00,0.0438
1365.00,0.0425
1364.00,0.0427
1363.00,0.0443
1362.00,0.0468
1361.00,0.0494
1360.00,0.0515
1359.00,0.0521
1358.00,0.0509
1357.00,0.0479
1356.00,0.0436
1355.00,0.0387
1354.00,0.0341
1353.00,0.0302
1352.00,0.0271
1351.00,0.0246
1350.00,0.0226
1349.00,0.0210
1348.00,0.0197
1347.00,0.0188
1346.00,0.0180
1345.00,0.0174
1344.00,0.0168
1343.00,0.0164
1342.00,0.0159
1341.00,0.0154
1340.00,0.0150
1339.00,0.0147
1338.00,0.0144
1337.00,0.0143
1336.00,0.0144
1335.00,0.0146
1334.00,0.0149
1333.00,0.0154
1332.00,0.0159
1331.00,0.0163
1330.00,0.0164
1329.00,0.0162
1328.00,0.0157
1327.00,0.0151
1326.00,0.0144
1325.00,0.0137
1324.00,0.0130
1323.00,0.0125
1322.00,0.0120
1321.00,0.0117
1320.00,0.0114
1319.00,0.0112
1318.00,0.0109
1317.00,0.0107
1316.00,0.0105
1315.00,0.0104
1314.00,0.0104
1313.00,0.0104
1312.00,0.0105
1311.00,0.0107
1310.00,0.0110
1309.00,0.0115
1308.00,0.0122
1307.00,0.0130
1306.00,0.0138
1305.00,0.0144
1304.00,0.0148
1303.00,0.0148
1302.00,0.0146
1301.00,0.0145
1300.00,0.0145
1299.00,0.0147
1298.00,0.0149
1297.00,0.0150
1296.00,0.0150
1295.00,0.0148
1294.00,0.0144
1293.00,0.0139
1292.00,0.0133
1291.00,0.0127
1290.00,0.0122
1289.00,0.0117
1288.00,0.0114
1287.00,0.0111
1286.00,0.0108
1285.00,0.0106
1284.00,0.0104
1283.00,0.0102
1282.00,0.0101
1281.00,0.0100
1280.00,0.0099
1279.00,0.0098
1278.00,0.0098
1277.00,0.0097
1276.00,0.0096
1275.00,0.0095
1274.00,0.0095
1273.00,0.0094
1272.00,0.0094
1271.00,0.0095
1270.00,0.0097
1269.00,0.0098
1268.00,0.0100
1267.00,0.0102
1266.00,0.0105
1265.00,0.0107
1264.00,0.0110
1263.00,0.0113
1262.00,0.0116
1261.00,0.0120
1260.00,0.0124
1259.00,0.0129
1258.00,0.0134
1257.00,0.0138
1256.00,0.0140
1255.00,0.0140
1254.00,0.0136
1253.00,0.0130
1252.00,0.0124
1251.00,0.0119
1250.00,0.0116
1249.00,0.0113
1248.00,0.0111
1247.00,0.0110
1246.00,0.0109
1245.00,0.0108
1244.00,0.0107
1243.00,0.0107
1242.00,0.0106
1241.00,0.0105
1240.00,0.0105
1239.00,0.0104
1238.00,0.0103
1237.00,0.0102
1236.00,0.0101
1235.00,0.0101
1234.00,0.0100
1233.00,0.0100
1232.00,0.0100
1231.00,0.0100
1230.00,0.0100
1229.00,0.0100
1228.00,0.0101
1227.00,0.0102
1226.00,0.0104
1225.00,0.0107
1224.00,0.0110
1223.00,0.0114
1222.00,0.0118
1221.00,0.0121
1220.00,0.0123
1219.00,0.0123
1218.00,0.0122
1217.00,0.0121
1216.00,0.0118
1215.00,0.0115
1214.00,0.0111
1213.00,0.0106
1212.00,0.0102
1211.00,0.0100
1210.00,0.0097
1209.00,0.0096
1208.00,0.0094
1207.00,0.0093
1206.00,0.0091
1205.00,0.0090
1204.00,0.0089
1203.00,0.0088
1202.00,0.0088
1201.00,0.0088
1200.00,0.0087
1199.00,0.0087
1198.00,0.0086
1197.00,0.0086
1196.00,0.0085
1195.00,0.0085
1194.00,0.0085
1193.00,0.0086
1192.00,0.0086
1191.00,0.0086
1190.00,0.0087
1189.00,0.0087
1188.00,0.0088
1187.00,0.0088
1186.00,0.0089
1185.00,0.0089
1184.00,0.0089
1183.00,0.0089
1182.00,0.0091
1181.00,0.0093
1180.00,0.0096
1179.00,0.0100
1178.00,0.0105
1177.00,0.0112
1176.00,0.0121
1175.00,0.0133
1174.00,0.0148
1173.00,0.0167
1172.00,0.0190
1171.00,0.0214
1170.00,0.0237
1169.00,0.0256
1168.00,0.0267
1167.00,0.0271
1166.00,0.0268
1165.00,0.0261
1164.00,0.0252
1163.00,0.0242
1162.00,0.0234
1161.00,0.0228
1160.00,0.0223
1159.00,0.0219
1158.00,0.0216
1157.00,0.0213
1156.00,0.0212
1155.00,0.0212
1154.00,0.0213
1153.00,0.0213
1152.00,0.0211
1151.00,0.0207
1150.00,0.0200
1149.00,0.0192
1148.00,0.0184
1147.00,0.0175
1146.00,0.0168
1145.00,0.0161
1144.00,0.0154
1143.00,0.0148
1142.00,0.0141
1141.00,0.0136
1140.00,0.0133
1139.00,0.0130
1138.00,0.0127
1137.00,0.0125
1136.00,0.0123
1135.00,0.0121
1134.00,0.0120
1133.00,0.0119
1132.00,0.0119
1131.00,0.0119
1130.00,0.0120
1129.00,0.0121
1128.00,0.0124
1127.00,0.0126
1126.00,0.0129
1125.00,0.0131
1124.00,0.0132
1123.00,0.0134
1122.00,0.0135
1121.00,0.0136
1120.00,0.0138
1119.00,0.0140
1118.00,0.0143
1117.00,0.0145
1116.00,0.0147
1115.00,0.0148
1114.00,0.0149
1113.00,0.0150
1112.00,0.0151
1111.00,0.0153
1110.00,0.0157
1109.00,0.0161
1108.00,0.0167
1107.00,0.0174
1106.00,0.0181
1105.00,0.0186
1104.00,0.0191
1103.00,0.0194
1102.00,0.0194
1101.00,0.0192
1100.00,0.0187
1099.00,0.0181
1098.00,0.0174
1097.00,0.0167
1096.00,0.0160
1095.00,0.0154
1094.00,0.0150
1093.00,0.0147
1092.00,0.0144
1091.00,0.0141
1090.00,0.0138
1089.00,0.0136
1088.00,0.0134
1087.00,0.0133
1086.00,0.0133
1085.00,0.0131
1084.00,0.0130
1083.00,0.0129
1082.00,0.0128
1081.00,0.0127
1080.00,0.0126
1079.00,0.0124
1078.00,0.0123
1077.00,0.0122
1076.00,0.0120
1075.00,0.0119
1074.00,0.0118
1073.00,0.0118
1072.00,0.0117
1071.00,0.0117
1070.00,0.0116
1069.00,0.0116
1068.00,0.0116
1067.00,0.0116
1066.00,0.0116
1065.00,0.0116
1064.00,0.0116
1063.00,0.0117
1062.00,0.0117
1061.00,0.0116
1060.00,0.0116
1059.00,0.0115
1058.00,0.0115
1057.00,0.0114
1056.00,0.0114
1055.00,0.0115
1054.00,0.0115
1053.00,0.0116
1052.00,0.0116
1051.00,0.0117
1050.00,0.0118
1049.00,0.0120
1048.00,0.0121
1047.00,0.0123
1046.00,0.0124
1045.00,0.0125
1044.00,0.0125
1043.00,0.0125
1042.00,0.0124
1041.00,0.0123
1040.00,0.0123
1039.00,0.0123
1038.00,0.0124
1037.00,0.0125
1036.00,0.0126
1035.00,0.0126
1034.00,0.0125
1033.00,0.0123
1032.00,0.0122
1031.00,0.0121
1030.00,0.0120
1029.00,0.0120
1028.00,0.0120
1027.00,0.0118
1026.00,0.0116
1025.00,0.0114
1024.00,0.0113
1023.00,0.0113
1022.00,0.0113
1021.00,0.0113
1020.00,0.0114
1019.00,0.0114
1018.00,0.0114
1017.00,0.0115
1016.00,0.0116
1015.00,0.0118
1014.00,0.0120
1013.00,0.0122
1012.00,0.0124
1011.00,0.0126
1010.00,0.0128
1009.00,0.0131
1008.00,0.0133
1007.00,0.0137
1006.00,0.0143
1005.00,0.0151
1004.00,0.0163
1003.00,0.0179
1002.00,0.0199
1001.00,0.0222
1000.00,0.0247
999.00,0.0266
998.00,0.0274
997.00,0.0267
996.00,0.0248
995.00,0.0221
994.00,0.0194
993.00,0.0170
992.00,0.0152
991.00,0.0138
990.00,0.0127
989.00,0.0119
988.00,0.0114
987.00,0.0112
986.00,0.0112
985.00,0.0114
984.00,0.0118
983.00,0.0124
982.00,0.0134
981.00,0.0148
980.00,0.0167
979.00,0.0191
978.00,0.0220
977.00,0.0254
976.00,0.0289
975.00,0.0319
974.00,0.0339
973.00,0.0344
972.00,0.0330
971.00,0.0302
970.00,0.0265
969.00,0.0228
968.00,0.0196
967.00,0.0171
966.00,0.0153
965.00,0.0140
964.00,0.0130
963.00,0.0123
962.00,0.0118
961.00,0.0113
960.00,0.0108
959.00,0.0104
958.00,0.0101
957.00,0.0099
956.00,0.0097
955.00,0.0096
954.00,0.0094
953.00,0.0094
952.00,0.0093
951.00,0.0093
950.00,0.0093
949.00,0.0093
948.00,0.0094
947.00,0.0095
946.00,0.0098
945.00,0.0102
944.00,0.0106
943.00,0.0109
942.00,0.0112
941.00,0.0114
940.00,0.0113
939.00,0.0110
938.00,0.0105
937.00,0.0100
936.00,0.0096
935.00,0.0092
934.00,0.0089
933.00,0.0086
932.00,0.0084
931.00,0.0082
930.00,0.0082
929.00,0.0081
928.00,0.0080
927.00,0.0080
926.00,0.0079
925.00,0.0079
924.00,0.0078
923.00,0.0078
922.00,0.0078
921.00,0.0079
920.00,0.0080
919.00,0.0082
918.00,0.0083
917.00,0.0085
916.00,0.0086
915.00,0.0088
914.00,0.0089
913.00,0.0090
912.00,0.0091
911.00,0.0092
910.00,0.0094
909.00,0.0095
908.00,0.0098
907.00,0.0102
906.00,0.0110
905.00,0.0121
904.00,0.0138
903.00,0.0158
902.00,0.0181
901.00,0.0202
900.00,0.0216
899.00,0.0221
898.00,0.0213
897.00,0.0196
896.00,0.0174
895.00,0.0153
894.00,0.0134
893.00,0.0120
892.00,0.0110
891.00,0.0103
890.00,0.0098
889.00,0.0093
888.00,0.0090
887.00,0.0088
886.00,0.0087
885.00,0.0087
884.00,0.0086
883.00,0.0085
882.00,0.0085
881.00,0.0085
880.00,0.0084
879.00,0.0085
878.00,0.0086
877.00,0.0087
876.00,0.0087
875.00,0.0087
874.00,0.0087
873.00,0.0087
872.00,0.0088
871.00,0.0088
870.00,0.0088
869.00,0.0087
868.00,0.0086
867.00,0.0087
866.00,0.0087
865.00,0.0087
864.00,0.0087
863.00,0.0088
862.00,0.0089
861.00,0.0091
860.00,0.0093
859.00,0.0094
858.00,0.0095
857.00,0.0095
856.00,0.0096
855.00,0.0097
854.00,0.0099
853.00,0.0100
852.00,0.0103
851.00,0.0106
850.00,0.0110
849.00,0.0115
848.00,0.0122
847.00,0.0133
846.00,0.0149
845.00,0.0171
844.00,0.0199
843.00,0.0229
842.00,0.0249
841.00,0.0252
840.00,0.0236
839.00,0.0207
838.00,0.0179
837.00,0.0156
836.00,0.0141
835.00,0.0133
834.00,0.0128
833.00,0.0125
832.00,0.0123
831.00,0.0121
830.00,0.0119
829.00,0.0117
828.00,0.0116
827.00,0.0115
826.00,0.0115
825.00,0.0115
824.00,0.0115
823.00,0.0116
822.00,0.0117
821.00,0.0120
820.00,0.0123
819.00,0.0127
818.00,0.0131
817.00,0.0137
816.00,0.0145
815.00,0.0156
814.00,0.0171
813.00,0.0190
812.00,0.0211
811.00,0.0231
810.00,0.0247
809.00,0.0254
808.00,0.0252
807.00,0.0241
806.00,0.0225
805.00,0.0206
804.00,0.0188
803.00,0.0173
802.00,0.0160
801.00,0.0149
800.00,0.0140
799.00,0.0133
798.00,0.0126
797.00,0.0121
796.00,0.0117
795.00,0.0114
794.00,0.0111
793.00,0.0109
792.00,0.0107
791.00,0.0105
790.00,0.0104
789.00,0.0103
788.00,0.0101
787.00,0.0098
786.00,0.0095
785.00,0.0091
784.00,0.0088
783.00,0.0087
782.00,0.0086
781.00,0.0087
780.00,0.0087
779.00,0.0086
778.00,0.0084
777.00,0.0082
776.00,0.0082
775.00,0.0083
774.00,0.0085
773.00,0.0088
772.00,0.0091
771.00,0.0093
770.00,0.0096
769.00,0.0097
768.00,0.0097
767.00,0.0096
766.00,0.0095
765.00,0.0094
764.00,0.0092
763.00,0.0091
762.00,0.0089
761.00,0.0087
760.00,0.0084
759.00,0.0082
758.00,0.0079
757.00,0.0077
756.00,0.0078
755.00,0.0078
754.00,0.0079
753.00,0.0079
752.00,0.0078
751.00,0.0078
750.00,0.0078
749.00,0.0078
748.00,0.0078
747.00,0.0078
746.00,0.0079
745.00,0.0080
744.00,0.0082
743.00,0.0084
742.00,0.0085
741.00,0.0086
740.00,0.0087
739.00,0.0089
738.00,0.0093
737.00,0.0098
736.00,0.0101
735.00,0.0103
734.00,0.0105
733.00,0.0105
732.00,0.0106
731.00,0.0106
730.00,0.0105
729.00,0.0104
728.00,0.0103
727.00,0.0102
726.00,0.0102
725.00,0.0102
724.00,0.0101
723.00,0.0101
722.00,0.0100
721.00,0.0098
720.00,0.0097
719.00,0.0096
718.00,0.0095
717.00,0.0093
716.00,0.0091
715.00,0.0090
714.00,0.0089
713.00,0.0088
712.00,0.0087
711.00,0.0085
710.00,0.0084
709.00,0.0084
708.00,0.0086
707.00,0.0089
706.00,0.0093
705.00,0.0094
704.00,0.0094
703.00,0.0091
702.00,0.0089
701.00,0.0086
700.00,0.0083
699.00,0.0081
698.00,0.0080
697.00,0.0081
696.00,0.0082
695.00,0.0082
694.00,0.0080
693.00,0.0079
692.00,0.0078
691.00,0.0077
690.00,0.0077
689.00,0.0077
688.00,0.0078
687.00,0.0079
686.00,0.0079
685.00,0.0079
684.00,0.0078
683.00,0.0077
682.00,0.0076
681.00,0.0076
680.00,0.0076
679.00,0.0078
678.00,0.0081
677.00,0.0083
676.00,0.0084
675.00,0.0083
674.00,0.0082
673.00,0.0082
672.00,0.0082
671.00,0.0082
670.00,0.0082
669.00,0.0080
668.00,0.0078
667.00,0.0078
666.00,0.0080
665.00,0.0081
664.00,0.0081
663.00,0.0080
662.00,0.0080
661.00,0.0080
660.00,0.0081
659.00,0.0083
658.00,0.0084
657.00,0.0083
656.00,0.0081
655.00,0.0078
654.00,0.0078
653.00,0.0080
652.00,0.0082
651.00,0.0083
650.00,0.0083
649.00,0.0083
648.00,0.0084
647.00,0.0085
646.00,0.0086
645.00,0.0086
644.00,0.0085
643.00,0.0083
642.00,0.0081
641.00,0.0080
640.00,0.0080
639.00,0.0081
638.00,0.0082
637.00,0.0083
636.00,0.0083
635.00,0.0082
634.00,0.0081
633.00,0.0079
632.00,0.0079
631.00,0.0079
630.00,0.0080
629.00,0.0082
628.00,0.0083
627.00,0.0084
626.00,0.0084
625.00,0.0084
624.00,0.0083
623.00,0.0083
622.00,0.0082
621.00,0.0082
620.00,0.0082
619.00,0.0083
618.00,0.0083
617.00,0.0083
616.00,0.0084
615.00,0.0085
614.00,0.0086
613.00,0.0085
612.00,0.0083
611.00,0.0082
610.00,0.0083
609.00,0.0084
608.00,0.0086
607.00,0.0087
606.00,0.0087
605.00,0.0087
604.00,0.0086
603.00,0.0086
602.00,0.0085
601.00,0.0085
600.00,0.0086
599.00,0.0088
598.00,0.0088
597.00,0.0086
596.00,0.0085
595.00,0.0084
594.00,0.0085
593.00,0.0086
592.00,0.0087
591.00,0.0089
590.00,0.0091
589.00,0.0092
588.00,0.0093
587.00,0.0092
586.00,0.0091
585.00,0.0090
584.00,0.0091
583.00,0.0093
582.00,0.0096
581.00,0.0099
580.00,0.0099
579.00,0.0098
578.00,0.0096
577.00,0.0094
576.00,0.0092
575.00,0.0091
574.00,0.0092
573.00,0.0094
572.00,0.0095
571.00,0.0094
570.00,0.0093
569.00,0.0090
568.00,0.0088
567.00,0.0085
566.00,0.0086
565.00,0.0088
564.00,0.0093
563.00,0.0096
562.00,0.0095
561.00,0.0090
560.00,0.0085
559.00,0.0082
558.00,0.0083
557.00,0.0087
556.00,0.0089
555.00,0.0089
554.00,0.0088
553.00,0.0087
552.00,0.0087
551.00,0.0086
550.00,0.0085
549.00,0.0085
548.00,0.0086
547.00,0.0088
546.00,0.0089
545.00,0.0089
544.00,0.0090
543.00,0.0093
542.00,0.0098
541.00,0.0102
540.00,0.0102
539.00,0.0098
538.00,0.0095
537.00,0.0094
536.00,0.0096
535.00,0.0100
534.00,0.0103
533.00,0.0107
532.00,0.0112
531.00,0.0117
530.00,0.0119
529.00,0.0117
528.00,0.0113
527.00,0.0109
526.00,0.0106
525.00,0.0104
524.00,0.0102
523.00,0.0103
522.00,0.0105
521.00,0.0108
520.00,0.0110
519.00,0.0109
518.00,0.0104
517.00,0.0098
516.00,0.0094
515.00,0.0092
514.00,0.0090
513.00,0.0086
512.00,0.0081
511.00,0.0080
510.00,0.0083
509.00,0.0089
508.00,0.0094
507.00,0.0097
506.00,0.0099
505.00,0.0099
504.00,0.0098
503.00,0.0100
502.00,0.0104
501.00,0.0108
500.00,0.0105
499.00,0.0095
498.00,0.0084
497.00,0.0079
496.00,0.0082
495.00,0.0090
494.00,0.0097
493.00,0.0099
492.00,0.0097
491.00,0.0094
490.00,0.0092
489.00,0.0090
488.00,0.0089
487.00,0.0089
486.00,0.0091
485.00,0.0091
484.00,0.0088
483.00,0.0083
482.00,0.0080
481.00,0.0079
480.00,0.0078
479.00,0.0077
478.00,0.0079
477.00,0.0083
476.00,0.0087
475.00,0.0088
474.00,0.0085
473.00,0.0082
472.00,0.0083
471.00,0.0083
470.00,0.0082
469.00,0.0080
468.00,0.0080
467.00,0.0084
466.00,0.0096
465.00,0.0115
464.00,0.0139
463.00,0.0162
462.00,0.0180
461.00,0.0192
460.00,0.0198
459.00,0.0197
458.00,0.0189
457.00,0.0179
456.00,0.0170
455.00,0.0160
454.00,0.0147
453.00,0.0131
452.00,0.0117
451.00,0.0107
450.00,0.0102
