Created as New Dataset,Sample 082 By Administrator Date Tuesday, September 09 2025
cm-1,A
4000.00,0.0010
3999.00,0.0010
3998.00,0.0010
3997.00,0.0010
3996.00,0.0010
3995.00,0.0010
3994.00,0.0010
3993.00,0.0009
3992.00,0.0009
3991.00,0.0009
3990.00,0.0009
3989.00,0.0009
3988.00,0.0009
3987.00,0.0009
3986.00,0.0009
3985.00,0.0009
3984.00,0.0009
3983.00,0.0009
3982.00,0.0009
3981.00,0.0009
3980.00,0.0009
3979.00,0.0009
3978.00,0.0009
3977.00,0.0009
3976.00,0.0009
3975.00,0.0009
3974.00,0.0009
3973.00,0.0009
3972.00,0.0009
3971.00,0.0009
3970.00,0.0009
3969.00,0.0009
3968.00,0.0009
3967.00,0.0009
3966.00,0.0008
3965.00,0.0008
3964.00,0.0008
3963.00,0.0008
3962.00,0.0008
3961.00,0.0008
3960.00,0.0008
3959.00,0.0008
3958.00,0.0008
3957.00,0.0008
3956.00,0.0008
3955.00,0.0008
3954.00,0.0008
3953.00,0.0008
3952.00,0.0008
3951.00,0.0008
3950.00,0.0007
3949.00,0.0007
3948.00,0.0007
3947.00,0.0007
3946.00,0.0007
3945.00,0.0007
3944.00,0.0007
3943.00,0.0007
3942.00,0.0008
3941.00,0.0008
3940.00,0.0008
3939.00,0.0008
3938.00,0.0008
3937.00,0.0009
3936.00,0.0009
3935.00,0.0009
3934.00,0.0008
3933.00,0.0008
3932.00,0.0008
3931.00,0.0007
3930.00,0.0007
3929.00,0.0007
3928.00,0.0007
3927.00,0.0007
3926.00,0.0007
3925.00,0.0008
3924.00,0.0008
3923.00,0.0008
3922.00,0.0008
3921.00,0.0008
3920.00,0.0008
3919.00,0.0008
3918.00,0.0008
3917.00,0.0008
3916.00,0.0007
3915.00,0.0007
3914.00,0.0007
3913.00,0.0007
3912.00,0.0008
3911.00,0.0008
3910.00,0.0008
3909.00,0.0008
3908.00,0.0008
3907.00,0.0008
3906.00,0.0008
3905.00,0.0008
3904.00,0.0009
3903.00,0.0009
3902.00,0.0009
3901.00,0.0009
3900.00,0.0008
3899.00,0.0008
3898.00,0.0008
3897.00,0.0008
3896.00,0.0008
3895.00,0.0008
3894.00,0.0008
3893.00,0.0008
3892.00,0.0008
3891.00,0.0008
3890.00,0.0008
3889.00,0.0008
3888.00,0.0008
3887.00,0.0008
3886.00,0.0008
3885.00,0.0008
3884.00,0.0008
3883.00,0.0008
3882.00,0.0008
3881.00,0.0008
3880.00,0.0008
3879.00,0.0008
3878.00,0.0008
3877.00,0.0008
3876.00,0.0007
3875.00,0.0007
3874.00,0.0008
3873.00,0.0008
3872.00,0.0008
3871.00,0.0008
3870.00,0.0008
3869.00,0.0008
3868.00,0.0008
3867.00,0.0007
3866.00,0.0007
3865.00,0.0007
3864.00,0.0007
3863.00,0.0007
3862.00,0.0007
3861.00,0.0007
3860.00,0.0007
3859.00,0.0008
3858.00,0.0008
3857.00,0.0009
3856.00,0.0008
3855.00,0.0008
3854.00,0.0008
3853.00,0.0008
3852.00,0.0007
3851.00,0.0007
3850.00,0.0006
3849.00,0.0006
3848.00,0.0006
3847.00,0.0006
3846.00,0.0007
3845.00,0.0008
3844.00,0.0008
3843.00,0.0008
3842.00,0.0008
3841.00,0.0007
3840.00,0.0007
3839.00,0.0006
3838.00,0.0007
3837.00,0.0008
3836.00,0.0008
3835.00,0.0009
3834.00,0.0009
3833.00,0.0009
3832.00,0.0009
3831.00,0.0009
3830.00,0.0009
3829.00,0.0009
3828.00,0.0009
3827.00,0.0008
3826.00,0.0008
3825.00,0.0008
3824.00,0.0008
3823.00,0.0008
3822.00,0.0007
3821.00,0.0007
3820.00,0.0007
3819.00,0.0007
3818.00,0.0007
3817.00,0.0007
3816.00,0.0008
3815.00,0.0008
3814.00,0.0009
3813.00,0.0008
3812.00,0.0008
3811.00,0.0008
3810.00,0.0008
3809.00,0.0007
3808.00,0.0007
3807.00,0.0007
3806.00,0.0007
3805.00,0.0007
3804.00,0.0007
3803.00,0.0007
3802.00,0.0007
3801.00,0.0007
3800.00,0.0007
3799.00,0.0007
3798.00,0.0007
3797.00,0.0007
3796.00,0.0007
3795.00,0.0007
3794.00,0.0007
3793.00,0.0007
3792.00,0.0008
3791.00,0.0008
3790.00,0.0007
3789.00,0.0007
3788.00,0.0007
3787.00,0.0007
3786.00,0.0007
3785.00,0.0007
3784.00,0.0007
3783.00,0.0008
3782.00,0.0008
3781.00,0.0008
3780.00,0.0007
3779.00,0.0007
3778.00,0.0007
3777.00,0.0007
3776.00,0.0007
3775.00,0.0007
3774.00,0.0007
3773.00,0.0008
3772.00,0.0008
3771.00,0.0008
3770.00,0.0008
3769.00,0.0008
3768.00,0.0008
3767.00,0.0008
3766.00,0.0008
3765.00,0.0007
3764.00,0.0007
3763.00,0.0007
3762.00,0.0007
3761.00,0.0007
3760.00,0.0007
3759.00,0.0007
3758.00,0.0007
3757.00,0.0008
3756.00,0.0008
3755.00,0.0008
3754.00,0.0008
3753.00,0.0008
3752.00,0.0008
3751.00,0.0008
3750.00,0.0008
3749.00,0.0008
3748.00,0.0008
3747.00,0.0009
3746.00,0.0009
3745.00,0.0009
3744.00,0.0009
3743.00,0.0008
3742.00,0.0007
3741.00,0.0006
3740.00,0.0006
3739.00,0.0005
3738.00,0.0005
3737.00,0.0005
3736.00,0.0005
3735.00,0.0006
3734.00,0.0007
3733.00,0.0008
3732.00,0.0008
3731.00,0.0007
3730.00,0.0007
3729.00,0.0007
3728.00,0.0007
3727.00,0.0007
3726.00,0.0008
3725.00,0.0008
3724.00,0.0007
3723.00,0.0007
3722.00,0.0007
3721.00,0.0007
3720.00,0.0006
3719.00,0.0006
3718.00,0.0006
3717.00,0.0006
3716.00,0.0006
3715.00,0.0007
3714.00,0.0006
3713.00,0.0006
3712.00,0.0006
3711.00,0.0006
3710.00,0.0006
3709.00,0.0006
3708.00,0.0006
3707.00,0.0006
3706.00,0.0006
3705.00,0.0006
3704.00,0.0006
3703.00,0.0006
3702.00,0.0006
3701.00,0.0005
3700.00,0.0005
3699.00,0.0005
3698.00,0.0005
3697.00,0.0005
3696.00,0.0005
3695.00,0.0005
3694.00,0.0005
3693.00,0.0005
3692.00,0.0006
3691.00,0.0006
3690.00,0.0006
3689.00,0.0006
3688.00,0.0006
3687.00,0.0006
3686.00,0.0006
3685.00,0.0006
3684.00,0.0006
3683.00,0.0006
3682.00,0.0006
3681.00,0.0006
3680.00,0.0006
3679.00,0.0007
3678.00,0.0007
3677.00,0.0006
3676.00,0.0007
3675.00,0.0007
3674.00,0.0007
3673.00,0.0006
3672.00,0.0006
3671.00,0.0005
3670.00,0.0005
3669.00,0.0006
3668.00,0.0006
3667.00,0.0006
3666.00,0.0006
3665.00,0.0006
3664.00,0.0006
3663.00,0.0006
3662.00,0.0006
3661.00,0.0006
3660.00,0.0006
3659.00,0.0006
3658.00,0.0006
3657.00,0.0005
3656.00,0.0005
3655.00,0.0005
3654.00,0.0005
3653.00,0.0005
3652.00,0.0004
3651.00,0.0004
3650.00,0.0004
3649.00,0.0003
3648.00,0.0004
3647.00,0.0004
3646.00,0.0004
3645.00,0.0004
3644.00,0.0005
3643.00,0.0005
3642.00,0.0006
3641.00,0.0006
3640.00,0.0006
3639.00,0.0006
3638.00,0.0006
3637.00,0.0006
3636.00,0.0006
3635.00,0.0006
3634.00,0.0006
3633.00,0.0006
3632.00,0.0006
3631.00,0.0006
3630.00,0.0006
3629.00,0.0006
3628.00,0.0007
3627.00,0.0006
3626.00,0.0006
3625.00,0.0006
3624.00,0.0007
3623.00,0.0007
3622.00,0.0007
3621.00,0.0007
3620.00,0.0007
3619.00,0.0007
3618.00,0.0007
3617.00,0.0008
3616.00,0.0008
3615.00,0.0007
3614.00,0.0007
3613.00,0.0007
3612.00,0.0008
3611.00,0.0008
3610.00,0.0008
3609.00,0.0009
3608.00,0.0010
3607.00,0.0010
3606.00,0.0010
3605.00,0.0009
3604.00,0.0009
3603.00,0.0009
3602.00,0.0008
3601.00,0.0008
3600.00,0.0008
3599.00,0.0008
3598.00,0.0008
3597.00,0.0008
3596.00,0.0008
3595.00,0.0009
3594.00,0.0009
3593.00,0.0010
3592.00,0.0010
3591.00,0.0010
3590.00,0.0010
3589.00,0.0010
3588.00,0.0010
3587.00,0.0010
3586.00,0.0011
3585.00,0.0011
3584.00,0.0012
3583.00,0.0012
3582.00,0.0012
3581.00,0.0012
3580.00,0.0011
3579.00,0.0012
3578.00,0.0012
3577.00,0.0012
3576.00,0.0012
3575.00,0.0012
3574.00,0.0012
3573.00,0.0012
3572.00,0.0012
3571.00,0.0013
3570.00,0.0013
3569.00,0.0013
3568.00,0.0013
3567.00,0.0013
3566.00,0.0013
3565.00,0.0013
3564.00,0.0013
3563.00,0.0014
3562.00,0.0014
3561.00,0.0014
3560.00,0.0015
3559.00,0.0016
3558.00,0.0016
3557.00,0.0016
3556.00,0.0016
3555.00,0.0016
3554.00,0.0016
3553.00,0.0016
3552.00,0.0016
3551.00,0.0016
3550.00,0.0016
3549.00,0.0017
3548.00,0.0017
3547.00,0.0018
3546.00,0.0019
3545.00,0.0019
3544.00,0.0019
3543.00,0.0019
3542.00,0.0019
3541.00,0.0019
3540.00,0.0020
3539.00,0.0020
3538.00,0.0020
3537.00,0.0020
3536.00,0.0020
3535.00,0.0020
3534.00,0.0020
3533.00,0.0020
3532.00,0.0020
3531.00,0.0021
3530.00,0.0021
3529.00,0.0021
3528.00,0.0021
3527.00,0.0021
3526.00,0.0021
3525.00,0.0021
3524.00,0.0021
3523.00,0.0022
3522.00,0.0022
3521.00,0.0023
3520.00,0.0023
3519.00,0.0023
3518.00,0.0023
3517.00,0.0023
3516.00,0.0023
3515.00,0.0023
3514.00,0.0023
3513.00,0.0024
3512.00,0.0024
3511.00,0.0024
3510.00,0.0024
3509.00,0.0025
3508.00,0.0025
3507.00,0.0025
3506.00,0.0025
3505.00,0.0025
3504.00,0.0025
3503.00,0.0025
3502.00,0.0025
3501.00,0.0026
3500.00,0.0026
3499.00,0.0027
3498.00,0.0027
3497.00,0.0027
3496.00,0.0027
3495.00,0.0027
3494.00,0.0026
3493.00,0.0026
3492.00,0.0026
3491.00,0.0027
3490.00,0.0027
3489.00,0.0027
3488.00,0.0028
3487.00,0.0028
3486.00,0.0028
3485.00,0.0028
3484.00,0.0028
3483.00,0.0028
3482.00,0.0029
3481.00,0.0029
3480.00,0.0029
3479.00,0.0029
3478.00,0.0029
3477.00,0.0029
3476.00,0.0029
3475.00,0.0030
3474.00,0.0030
3473.00,0.0030
3472.00,0.0030
3471.00,0.0030
3470.00,0.0030
3469.00,0.0030
3468.00,0.0030
3467.00,0.0030
3466.00,0.0030
3465.00,0.0030
3464.00,0.0031
3463.00,0.0031
3462.00,0.0032
3461.00,0.0032
3460.00,0.0032
3459.00,0.0033
3458.00,0.0033
3457.00,0.0033
3456.00,0.0034
3455.00,0.0034
3454.00,0.0034
3453.00,0.0034
3452.00,0.0034
3451.00,0.0034
3450.00,0.0034
3449.00,0.0034
3448.00,0.0034
3447.00,0.0034
3446.00,0.0034
3445.00,0.0034
3444.00,0.0034
3443.00,0.0034
3442.00,0.0034
3441.00,0.0034
3440.00,0.0034
3439.00,0.0034
3438.00,0.0034
3437.00,0.0034
3436.00,0.0035
3435.00,0.0035
3434.00,0.0035
3433.00,0.0036
3432.00,0.0036
3431.00,0.0036
3430.00,0.0036
3429.00,0.0036
3428.00,0.0036
3427.00,0.0036
3426.00,0.0036
3425.00,0.0036
3424.00,0.0036
3423.00,0.0036
3422.00,0.0036
3421.00,0.0036
3420.00,0.0037
3419.00,0.0037
3418.00,0.0038
3417.00,0.0038
3416.00,0.0038
3415.00,0.0039
3414.00,0.0039
3413.00,0.0038
3412.00,0.0038
3411.00,0.0038
3410.00,0.0038
3409.00,0.0038
3408.00,0.0038
3407.00,0.0038
3406.00,0.0039
3405.00,0.0039
3404.00,0.0039
3403.00,0.0039
3402.00,0.0039
3401.00,0.0039
3400.00,0.0038
3399.00,0.0038
3398.00,0.0038
3397.00,0.0039
3396.00,0.0039
3395.00,0.0039
3394.00,0.0039
3393.00,0.0039
3392.00,0.0039
3391.00,0.0039
3390.00,0.0039
3389.00,0.0039
3388.00,0.0039
3387.00,0.0039
3386.00,0.0039
3385.00,0.0038
3384.00,0.0038
3383.00,0.0038
3382.00,0.0038
3381.00,0.0039
3380.00,0.0039
3379.00,0.0039
3378.00,0.0039
3377.00,0.0039
3376.00,0.0039
3375.00,0.0039
3374.00,0.0039
3373.00,0.0040
3372.00,0.0040
3371.00,0.0040
3370.00,0.0039
3369.00,0.0039
3368.00,0.0039
3367.00,0.0038
3366.00,0.0039
3365.00,0.0039
3364.00,0.0040
3363.00,0.0040
3362.00,0.0040
3361.00,0.0040
3360.00,0.0040
3359.00,0.0039
3358.00,0.0039
3357.00,0.0038
3356.00,0.0039
3355.00,0.0039
3354.00,0.0039
3353.00,0.0039
3352.00,0.0039
3351.00,0.0039
3350.00,0.0040
3349.00,0.0040
3348.00,0.0040
3347.00,0.0040
3346.00,0.0040
3345.00,0.0040
3344.00,0.0040
3343.00,0.0039
3342.00,0.0040
3341.00,0.0040
3340.00,0.0040
3339.00,0.0039
3338.00,0.0039
3337.00,0.0039
3336.00,0.0039
3335.00,0.0038
3334.00,0.0038
3333.00,0.0038
3332.00,0.0037
3331.00,0.0037
3330.00,0.0037
3329.00,0.0037
3328.00,0.0037
3327.00,0.0038
3326.00,0.0038
3325.00,0.0038
3324.00,0.0038
3323.00,0.0037
3322.00,0.0037
3321.00,0.0037
3320.00,0.0037
3319.00,0.0036
3318.00,0.0036
3317.00,0.0036
3316.00,0.0036
3315.00,0.0036
3314.00,0.0036
3313.00,0.0036
3312.00,0.0036
3311.00,0.0036
3310.00,0.0036
3309.00,0.0036
3308.00,0.0036
3307.00,0.0036
3306.00,0.0035
3305.00,0.0035
3304.00,0.0035
3303.00,0.0035
3302.00,0.0035
3301.00,0.0036
3300.00,0.0036
3299.00,0.0036
3298.00,0.0036
3297.00,0.0036
3296.00,0.0036
3295.00,0.0036
3294.00,0.0035
3293.00,0.0035
3292.00,0.0034
3291.00,0.0034
3290.00,0.0034
3289.00,0.0034
3288.00,0.0034
3287.00,0.0034
3286.00,0.0034
3285.00,0.0034
3284.00,0.0034
3283.00,0.0034
3282.00,0.0034
3281.00,0.0034
3280.00,0.0034
3279.00,0.0034
3278.00,0.0033
3277.00,0.0033
3276.00,0.0033
3275.00,0.0034
3274.00,0.0034
3273.00,0.0034
3272.00,0.0034
3271.00,0.0034
3270.00,0.0034
3269.00,0.0033
3268.00,0.0033
3267.00,0.0034
3266.00,0.0033
3265.00,0.0033
3264.00,0.0033
3263.00,0.0032
3262.00,0.0032
3261.00,0.0032
3260.00,0.0032
3259.00,0.0032
3258.00,0.0032
3257.00,0.0032
3256.00,0.0032
3255.00,0.0032
3254.00,0.0032
3253.00,0.0032
3252.00,0.0032
3251.00,0.0032
3250.00,0.0031
3249.00,0.0031
3248.00,0.0031
3247.00,0.0031
3246.00,0.0031
3245.00,0.0031
3244.00,0.0031
3243.00,0.0031
3242.00,0.0031
3241.00,0.0031
3240.00,0.0031
3239.00,0.0030
3238.00,0.0030
3237.00,0.0030
3236.00,0.0030
3235.00,0.0031
3234.00,0.0031
3233.00,0.0031
3232.00,0.0032
3231.00,0.0032
3230.00,0.0032
3229.00,0.0032
3228.00,0.0032
3227.00,0.0032
3226.00,0.0032
3225.00,0.0032
3224.00,0.0032
3223.00,0.0032
3222.00,0.0032
3221.00,0.0032
3220.00,0.0033
3219.00,0.0033
3218.00,0.0034
3217.00,0.0034
3216.00,0.0034
3215.00,0.0034
3214.00,0.0034
3213.00,0.0034
3212.00,0.0034
3211.00,0.0035
3210.00,0.0035
3209.00,0.0035
3208.00,0.0035
3207.00,0.0035
3206.00,0.0035
3205.00,0.0035
3204.00,0.0036
3203.00,0.0036
3202.00,0.0036
3201.00,0.0036
3200.00,0.0036
3199.00,0.0036
3198.00,0.0036
3197.00,0.0035
3196.00,0.0035
3195.00,0.0035
3194.00,0.0035
3193.00,0.0035
3192.00,0.0035
3191.00,0.0035
3190.00,0.0035
3189.00,0.0035
3188.00,0.0034
3187.00,0.0034
3186.00,0.0034
3185.00,0.0035
3184.00,0.0035
3183.00,0.0035
3182.00,0.0034
3181.00,0.0034
3180.00,0.0033
3179.00,0.0033
3178.00,0.0032
3177.00,0.0032
3176.00,0.0032
3175.00,0.0032
3174.00,0.0032
3173.00,0.0032
3172.00,0.0032
3171.00,0.0032
3170.00,0.0032
3169.00,0.0033
3168.00,0.0033
3167.00,0.0033
3166.00,0.0033
3165.00,0.0032
3164.00,0.0032
3163.00,0.0031
3162.00,0.0031
3161.00,0.0031
3160.00,0.0031
3159.00,0.0031
3158.00,0.0031
3157.00,0.0032
3156.00,0.0032
3155.00,0.0032
3154.00,0.0032
3153.00,0.0032
3152.00,0.0032
3151.00,0.0031
3150.00,0.0031
3149.00,0.0031
3148.00,0.0031
3147.00,0.0031
3146.00,0.0031
3145.00,0.0031
3144.00,0.0031
3143.00,0.0031
3142.00,0.0031
3141.00,0.0031
3140.00,0.0031
3139.00,0.0031
3138.00,0.0031
3137.00,0.0030
3136.00,0.0030
3135.00,0.0029
3134.00,0.0029
3133.00,0.0029
3132.00,0.0028
3131.00,0.0028
3130.00,0.0028
3129.00,0.0029
3128.00,0.0029
3127.00,0.0029
3126.00,0.0029
3125.00,0.0028
3124.00,0.0028
3123.00,0.0027
3122.00,0.0027
3121.00,0.0026
3120.00,0.0026
3119.00,0.0026
3118.00,0.0026
3117.00,0.0026
3116.00,0.0026
3115.00,0.0025
3114.00,0.0025
3113.00,0.0025
3112.00,0.0026
3111.00,0.0026
3110.00,0.0026
3109.00,0.0026
3108.00,0.0025
3107.00,0.0025
3106.00,0.0025
3105.00,0.0024
3104.00,0.0024
3103.00,0.0024
3102.00,0.0024
3101.00,0.0024
3100.00,0.0024
3099.00,0.0024
3098.00,0.0024
3097.00,0.0025
3096.00,0.0025
3095.00,0.0025
3094.00,0.0025
3093.00,0.0024
3092.00,0.0024
3091.00,0.0024
3090.00,0.0024
3089.00,0.0024
3088.00,0.0024
3087.00,0.0024
3086.00,0.0025
3085.00,0.0024
3084.00,0.0024
3083.00,0.0024
3082.00,0.0024
3081.00,0.0023
3080.00,0.0024
3079.00,0.0024
3078.00,0.0024
3077.00,0.0025
3076.00,0.0025
3075.00,0.0024
3074.00,0.0024
3073.00,0.0024
3072.00,0.0024
3071.00,0.0025
3070.00,0.0025
3069.00,0.0025
3068.00,0.0025
3067.00,0.0025
3066.00,0.0025
3065.00,0.0025
3064.00,0.0025
3063.00,0.0025
3062.00,0.0025
3061.00,0.0025
3060.00,0.0025
3059.00,0.0025
3058.00,0.0026
3057.00,0.0026
3056.00,0.0026
3055.00,0.0026
3054.00,0.0026
3053.00,0.0027
3052.00,0.0027
3051.00,0.0027
3050.00,0.0027
3049.00,0.0028
3048.00,0.0028
3047.00,0.0028
3046.00,0.0028
3045.00,0.0028
3044.00,0.0028
3043.00,0.0028
3042.00,0.0028
3041.00,0.0029
3040.00,0.0029
3039.00,0.0029
3038.00,0.0029
3037.00,0.0029
3036.00,0.0030
3035.00,0.0030
3034.00,0.0030
3033.00,0.0031
3032.00,0.0032
3031.00,0.0032
3030.00,0.0032
3029.00,0.0033
3028.00,0.0033
3027.00,0.0034
3026.00,0.0035
3025.00,0.0035
3024.00,0.0036
3023.00,0.0036
3022.00,0.0036
3021.00,0.0037
3020.00,0.0038
3019.00,0.0039
3018.00,0.0040
3017.00,0.0041
3016.00,0.0042
3015.00,0.0043
3014.00,0.0044
3013.00,0.0045
3012.00,0.0046
3011.00,0.0048
3010.00,0.0049
3009.00,0.0051
3008.00,0.0052
3007.00,0.0054
3006.00,0.0055
3005.00,0.0057
3004.00,0.0058
3003.00,0.0060
3002.00,0.0062
3001.00,0.0065
3000.00,0.0068
2999.00,0.0071
2998.00,0.0074
2997.00,0.0078
2996.00,0.0081
2995.00,0.0085
2994.00,0.0089
2993.00,0.0094
2992.00,0.0099
2991.00,0.0105
2990.00,0.0111
2989.00,0.0118
2988.00,0.0126
2987.00,0.0134
2986.00,0.0144
2985.00,0.0155
2984.00,0.0167
2983.00,0.0181
2982.00,0.0196
2981.00,0.0214
2980.00,0.0234
2979.00,0.0257
2978.00,0.0283
2977.00,0.0312
2976.00,0.0345
2975.00,0.0382
2974.00,0.0425
2973.00,0.0474
2972.00,0.0529
2971.00,0.0591
2970.00,0.0659
2969.00,0.0736
2968.00,0.0820
2967.00,0.0913
2966.00,0.1012
2965.00,0.1117
2964.00,0.1225
2963.00,0.1332
2962.00,0.1433
2961.00,0.1525
2960.00,0.1601
2959.00,0.1661
2958.00,0.1702
2957.00,0.1727
2956.00,0.1741
2955.00,0.1749
2954.00,0.1754
2953.00,0.1758
2952.00,0.1758
2951.00,0.1748
2950.00,0.1723
2949.00,0.1676
2948.00,0.1605
2947.00,0.1511
2946.00,0.1403
2945.00,0.1289
2944.00,0.1180
2943.00,0.1084
2942.00,0.1008
2941.00,0.0953
2940.00,0.0919
2939.00,0.0904
2938.00,0.0907
2937.00,0.0925
2936.00,0.0956
2935.00,0.1000
2934.00,0.1053
2933.00,0.1116
2932.00,0.1186
2931.00,0.1260
2930.00,0.1337
2929.00,0.1414
2928.00,0.1487
2927.00,0.1557
2926.00,0.1621
2925.00,0.1680
2924.00,0.1737
2923.00,0.1790
2922.00,0.1842
2921.00,0.1891
2920.00,0.1934
2919.00,0.1968
2918.00,0.1986
2917.00,0.1988
2916.00,0.1970
2915.00,0.1935
2914.00,0.1889
2913.00,0.1836
2912.00,0.1782
2911.00,0.1731
2910.00,0.1684
2909.00,0.1641
2908.00,0.1600
2907.00,0.1559
2906.00,0.1515
2905.00,0.1468
2904.00,0.1416
2903.00,0.1361
2902.00,0.1304
2901.00,0.1246
2900.00,0.1189
2899.00,0.1134
2898.00,0.1082
2897.00,0.1035
2896.00,0.0994
2895.00,0.0959
2894.00,0.0931
2893.00,0.0908
2892.00,0.0892
2891.00,0.0880
2890.00,0.0873
2889.00,0.0870
2888.00,0.0871
2887.00,0.0875
2886.00,0.0882
2885.00,0.0892
2884.00,0.0906
2883.00,0.0923
2882.00,0.0943
2881.00,0.0963
2880.00,0.0982
2879.00,0.0997
2878.00,0.1006
2877.00,0.1007
2876.00,0.1002
2875.00,0.0994
2874.00,0.0987
2873.00,0.0985
2872.00,0.0988
2871.00,0.0998
2870.00,0.1011
2869.00,0.1023
2868.00,0.1029
2867.00,0.1022
2866.00,0.0997
2865.00,0.0951
2864.00,0.0889
2863.00,0.0816
2862.00,0.0742
2861.00,0.0674
2860.00,0.0615
2859.00,0.0569
2858.00,0.0534
2857.00,0.0510
2856.00,0.0494
2855.00,0.0485
2854.00,0.0483
2853.00,0.0487
2852.00,0.0496
2851.00,0.0511
2850.00,0.0532
2849.00,0.0559
2848.00,0.0592
2847.00,0.0633
2846.00,0.0682
2845.00,0.0739
2844.00,0.0803
2843.00,0.0872
2842.00,0.0944
2841.00,0.1011
2840.00,0.1068
2839.00,0.1104
2838.00,0.1114
2837.00,0.1091
2836.00,0.1037
2835.00,0.0956
2834.00,0.0859
2833.00,0.0757
2832.00,0.0660
2831.00,0.0574
2830.00,0.0502
2829.00,0.0443
2828.00,0.0396
2827.00,0.0358
2826.00,0.0326
2825.00,0.0301
2824.00,0.0279
2823.00,0.0261
2822.00,0.0246
2821.00,0.0232
2820.00,0.0220
2819.00,0.0209
2818.00,0.0200
2817.00,0.0192
2816.00,0.0185
2815.00,0.0179
2814.00,0.0174
2813.00,0.0169
2812.00,0.0164
2811.00,0.0160
2810.00,0.0156
2809.00,0.0151
2808.00,0.0147
2807.00,0.0142
2806.00,0.0136
2805.00,0.0131
2804.00,0.0125
2803.00,0.0120
2802.00,0.0115
2801.00,0.0111
2800.00,0.0107
2799.00,0.0104
2798.00,0.0102
2797.00,0.0100
2796.00,0.0099
2795.00,0.0097
2794.00,0.0095
2793.00,0.0092
2792.00,0.0089
2791.00,0.0085
2790.00,0.0082
2789.00,0.0079
2788.00,0.0075
2787.00,0.0072
2786.00,0.0070
2785.00,0.0067
2784.00,0.0065
2783.00,0.0063
2782.00,0.0061
2781.00,0.0060
2780.00,0.0058
2779.00,0.0056
2778.00,0.0055
2777.00,0.0054
2776.00,0.0053
2775.00,0.0052
2774.00,0.0051
2773.00,0.0051
2772.00,0.0050
2771.00,0.0050
2770.00,0.0049
2769.00,0.0049
2768.00,0.0049
2767.00,0.0049
2766.00,0.0048
2765.00,0.0048
2764.00,0.0047
2763.00,0.0047
2762.00,0.0047
2761.00,0.0047
2760.00,0.0046
2759.00,0.0046
2758.00,0.0046
2757.00,0.0046
2756.00,0.0046
2755.00,0.0045
2754.00,0.0045
2753.00,0.0045
2752.00,0.0045
2751.00,0.0045
2750.00,0.0045
2749.00,0.0045
2748.00,0.0045
2747.00,0.0045
2746.00,0.0046
2745.00,0.0047
2744.00,0.0048
2743.00,0.0048
2742.00,0.0049
2741.00,0.0050
2740.00,0.0051
2739.00,0.0053
2738.00,0.0054
2737.00,0.0056
2736.00,0.0057
2735.00,0.0058
2734.00,0.0059
2733.00,0.0060
2732.00,0.0061
2731.00,0.0063
2730.00,0.0065
2729.00,0.0067
2728.00,0.0069
2727.00,0.0071
2726.00,0.0073
2725.00,0.0075
2724.00,0.0076
2723.00,0.0076
2722.00,0.0075
2721.00,0.0074
2720.00,0.0071
2719.00,0.0069
2718.00,0.0066
2717.00,0.0064
2716.00,0.0061
2715.00,0.0059
2714.00,0.0057
2713.00,0.0055
2712.00,0.0053
2711.00,0.0052
2710.00,0.0050
2709.00,0.0049
2708.00,0.0048
2707.00,0.0047
2706.00,0.0045
2705.00,0.0044
2704.00,0.0044
2703.00,0.0043
2702.00,0.0042
2701.00,0.0042
2700.00,0.0041
2699.00,0.0041
2698.00,0.0041
2697.00,0.0040
2696.00,0.0040
2695.00,0.0040
2694.00,0.0040
2693.00,0.0040
2692.00,0.0040
2691.00,0.0040
2690.00,0.0040
2689.00,0.0040
2688.00,0.0040
2687.00,0.0040
2686.00,0.0040
2685.00,0.0040
2684.00,0.0040
2683.00,0.0040
2682.00,0.0040
2681.00,0.0040
2680.00,0.0041
2679.00,0.0041
2678.00,0.0041
2677.00,0.0041
2676.00,0.0041
2675.00,0.0040
2674.00,0.0040
2673.00,0.0040
2672.00,0.0039
2671.00,0.0039
2670.00,0.0039
2669.00,0.0039
2668.00,0.0039
2667.00,0.0039
2666.00,0.0039
2665.00,0.0040
2664.00,0.0040
2663.00,0.0041
2662.00,0.0042
2661.00,0.0043
2660.00,0.0043
2659.00,0.0043
2658.00,0.0042
2657.00,0.0042
2656.00,0.0042
2655.00,0.0042
2654.00,0.0042
2653.00,0.0041
2652.00,0.0041
2651.00,0.0040
2650.00,0.0039
2649.00,0.0039
2648.00,0.0039
2647.00,0.0038
2646.00,0.0038
2645.00,0.0038
2644.00,0.0037
2643.00,0.0037
2642.00,0.0037
2641.00,0.0036
2640.00,0.0036
2639.00,0.0035
2638.00,0.0035
2637.00,0.0034
2636.00,0.0035
2635.00,0.0035
2634.00,0.0035
2633.00,0.0034
2632.00,0.0034
2631.00,0.0034
2630.00,0.0035
2629.00,0.0035
2628.00,0.0035
2627.00,0.0036
2626.00,0.0036
2625.00,0.0036
2624.00,0.0037
2623.00,0.0037
2622.00,0.0037
2621.00,0.0037
2620.00,0.0037
2619.00,0.0037
2618.00,0.0037
2617.00,0.0037
2616.00,0.0037
2615.00,0.0037
2614.00,0.0036
2613.00,0.0036
2612.00,0.0036
2611.00,0.0035
2610.00,0.0034
2609.00,0.0034
2608.00,0.0033
2607.00,0.0033
2606.00,0.0032
2605.00,0.0031
2604.00,0.0030
2603.00,0.0029
2602.00,0.0029
2601.00,0.0029
2600.00,0.0029
2599.00,0.0028
2598.00,0.0028
2597.00,0.0027
2596.00,0.0027
2595.00,0.0028
2594.00,0.0028
2593.00,0.0029
2592.00,0.0029
2591.00,0.0030
2590.00,0.0030
2589.00,0.0031
2588.00,0.0032
2587.00,0.0033
2586.00,0.0034
2585.00,0.0035
2584.00,0.0036
2583.00,0.0036
2582.00,0.0036
2581.00,0.0035
2580.00,0.0035
2579.00,0.0034
2578.00,0.0033
2577.00,0.0031
2576.00,0.0030
2575.00,0.0030
2574.00,0.0029
2573.00,0.0028
2572.00,0.0028
2571.00,0.0027
2570.00,0.0026
2569.00,0.0026
2568.00,0.0025
2567.00,0.0024
2566.00,0.0023
2565.00,0.0022
2564.00,0.0022
2563.00,0.0022
2562.00,0.0022
2561.00,0.0023
2560.00,0.0024
2559.00,0.0024
2558.00,0.0023
2557.00,0.0023
2556.00,0.0022
2555.00,0.0021
2554.00,0.0021
2553.00,0.0021
2552.00,0.0020
2551.00,0.0020
2550.00,0.0019
2549.00,0.0019
2548.00,0.0018
2547.00,0.0017
2546.00,0.0017
2545.00,0.0016
2544.00,0.0015
2543.00,0.0015
2542.00,0.0015
2541.00,0.0015
2540.00,0.0015
2539.00,0.0015
2538.00,0.0015
2537.00,0.0015
2536.00,0.0016
2535.00,0.0015
2534.00,0.0015
2533.00,0.0015
2532.00,0.0015
2531.00,0.0015
2530.00,0.0014
2529.00,0.0014
2528.00,0.0013
2527.00,0.0013
2526.00,0.0013
2525.00,0.0012
2524.00,0.0012
2523.00,0.0011
2522.00,0.0012
2521.00,0.0012
2520.00,0.0012
2519.00,0.0012
2518.00,0.0012
2517.00,0.0012
2516.00,0.0012
2515.00,0.0011
2514.00,0.0011
2513.00,0.0010
2512.00,0.0010
2511.00,0.0010
2510.00,0.0010
2509.00,0.0009
2508.00,0.0009
2507.00,0.0009
2506.00,0.0010
2505.00,0.0010
2504.00,0.0010
2503.00,0.0009
2502.00,0.0009
2501.00,0.0009
2500.00,0.0009
2499.00,0.0009
2498.00,0.0009
2497.00,0.0009
2496.00,0.0009
2495.00,0.0009
2494.00,0.0009
2493.00,0.0009
2492.00,0.0009
2491.00,0.0009
2490.00,0.0009
2489.00,0.0009
2488.00,0.0010
2487.00,0.0011
2486.00,0.0011
2485.00,0.0010
2484.00,0.0009
2483.00,0.0009
2482.00,0.0008
2481.00,0.0008
2480.00,0.0008
2479.00,0.0008
2478.00,0.0008
2477.00,0.0007
2476.00,0.0007
2475.00,0.0007
2474.00,0.0007
2473.00,0.0007
2472.00,0.0008
2471.00,0.0008
2470.00,0.0008
2469.00,0.0008
2468.00,0.0008
2467.00,0.0008
2466.00,0.0008
2465.00,0.0008
2464.00,0.0008
2463.00,0.0008
2462.00,0.0008
2461.00,0.0009
2460.00,0.0009
2459.00,0.0010
2458.00,0.0010
2457.00,0.0010
2456.00,0.0010
2455.00,0.0010
2454.00,0.0010
2453.00,0.0010
2452.00,0.0010
2451.00,0.0010
2450.00,0.0011
2449.00,0.0011
2448.00,0.0011
2447.00,0.0010
2446.00,0.0010
2445.00,0.0010
2444.00,0.0010
2443.00,0.0010
2442.00,0.0011
2441.00,0.0011
2440.00,0.0011
2439.00,0.0011
2438.00,0.0011
2437.00,0.0010
2436.00,0.0010
2435.00,0.0010
2434.00,0.0010
2433.00,0.0011
2432.00,0.0011
2431.00,0.0011
2430.00,0.0011
2429.00,0.0011
2428.00,0.0011
2427.00,0.0011
2426.00,0.0010
2425.00,0.0010
2424.00,0.0011
2423.00,0.0011
2422.00,0.0011
2421.00,0.0011
2420.00,0.0010
2419.00,0.0010
2418.00,0.0010
2417.00,0.0010
2416.00,0.0009
2415.00,0.0009
2414.00,0.0009
2413.00,0.0009
2412.00,0.0010
2411.00,0.0010
2410.00,0.0010
2409.00,0.0010
2408.00,0.0010
2407.00,0.0009
2406.00,0.0008
2405.00,0.0009
2404.00,0.0009
2403.00,0.0009
2402.00,0.0009
2401.00,0.0008
2400.00,0.0008
2399.00,0.0008
2398.00,0.0008
2397.00,0.0008
2396.00,0.0008
2395.00,0.0008
2394.00,0.0008
2393.00,0.0008
2392.00,0.0008
2391.00,0.0008
2390.00,0.0007
2389.00,0.0006
2388.00,0.0006
2387.00,0.0006
2386.00,0.0006
2385.00,0.0006
2384.00,0.0006
2383.00,0.0005
2382.00,0.0005
2381.00,0.0004
2380.00,0.0004
2379.00,0.0004
2378.00,0.0005
2377.00,0.0005
2376.00,0.0005
2375.00,0.0005
2374.00,0.0005
2373.00,0.0006
2372.00,0.0006
2371.00,0.0006
2370.00,0.0005
2369.00,0.0005
2368.00,0.0006
2367.00,0.0006
2366.00,0.0006
2365.00,0.0006
2364.00,0.0006
2363.00,0.0005
2362.00,0.0005
2361.00,0.0005
2360.00,0.0006
2359.00,0.0008
2358.00,0.0009
2357.00,0.0009
2356.00,0.0009
2355.00,0.0008
2354.00,0.0007
2353.00,0.0007
2352.00,0.0006
2351.00,0.0007
2350.00,0.0008
2349.00,0.0008
2348.00,0.0009
2347.00,0.0009
2346.00,0.0009
2345.00,0.0009
2344.00,0.0009
2343.00,0.0010
2342.00,0.0010
2341.00,0.0011
2340.00,0.0010
2339.00,0.0010
2338.00,0.0009
2337.00,0.0009
2336.00,0.0010
2335.00,0.0010
2334.00,0.0010
2333.00,0.0009
2332.00,0.0008
2331.00,0.0008
2330.00,0.0008
2329.00,0.0009
2328.00,0.0011
2327.00,0.0014
2326.00,0.0019
2325.00,0.0023
2324.00,0.0025
2323.00,0.0024
2322.00,0.0022
2321.00,0.0020
2320.00,0.0018
2319.00,0.0017
2318.00,0.0015
2317.00,0.0014
2316.00,0.0013
2315.00,0.0013
2314.00,0.0012
2313.00,0.0011
2312.00,0.0011
2311.00,0.0010
2310.00,0.0010
2309.00,0.0010
2308.00,0.0011
2307.00,0.0012
2306.00,0.0012
2305.00,0.0013
2304.00,0.0013
2303.00,0.0012
2302.00,0.0011
2301.00,0.0011
2300.00,0.0011
2299.00,0.0011
2298.00,0.0012
2297.00,0.0013
2296.00,0.0013
2295.00,0.0014
2294.00,0.0014
2293.00,0.0015
2292.00,0.0016
2291.00,0.0017
2290.00,0.0018
2289.00,0.0018
2288.00,0.0019
2287.00,0.0019
2286.00,0.0019
2285.00,0.0020
2284.00,0.0019
2283.00,0.0018
2282.00,0.0017
2281.00,0.0015
2280.00,0.0013
2279.00,0.0013
2278.00,0.0013
2277.00,0.0014
2276.00,0.0015
2275.00,0.0016
2274.00,0.0015
2273.00,0.0015
2272.00,0.0014
2271.00,0.0013
2270.00,0.0013
2269.00,0.0012
2268.00,0.0011
2267.00,0.0011
2266.00,0.0012
2265.00,0.0013
2264.00,0.0014
2263.00,0.0014
2262.00,0.0012
2261.00,0.0011
2260.00,0.0010
2259.00,0.0010
2258.00,0.0011
2257.00,0.0011
2256.00,0.0011
2255.00,0.0010
2254.00,0.0009
2253.00,0.0008
2252.00,0.0009
2251.00,0.0009
2250.00,0.0009
2249.00,0.0009
2248.00,0.0007
2247.00,0.0006
2246.00,0.0006
2245.00,0.0006
2244.00,0.0007
2243.00,0.0008
2242.00,0.0008
2241.00,0.0008
2240.00,0.0008
2239.00,0.0009
2238.00,0.0009
2237.00,0.0009
2236.00,0.0010
2235.00,0.0010
2234.00,0.0011
2233.00,0.0010
2232.00,0.0010
2231.00,0.0008
2230.00,0.0007
2229.00,0.0007
2228.00,0.0009
2227.00,0.0011
2226.00,0.0012
2225.00,0.0011
2224.00,0.0010
2223.00,0.0008
2222.00,0.0006
2221.00,0.0005
2220.00,0.0007
2219.00,0.0009
2218.00,0.0010
2217.00,0.0009
2216.00,0.0008
2215.00,0.0006
2214.00,0.0005
2213.00,0.0006
2212.00,0.0007
2211.00,0.0008
2210.00,0.0008
2209.00,0.0008
2208.00,0.0007
2207.00,0.0006
2206.00,0.0005
2205.00,0.0004
2204.00,0.0003
2203.00,0.0002
2202.00,0.0003
2201.00,0.0003
2200.00,0.0004
2199.00,0.0005
2198.00,0.0005
2197.00,0.0005
2196.00,0.0006
2195.00,0.0007
2194.00,0.0008
2193.00,0.0010
2192.00,0.0010
2191.00,0.0010
2190.00,0.0010
2189.00,0.0009
2188.00,0.0008
2187.00,0.0006
2186.00,0.0005
2185.00,0.0004
2184.00,0.0003
2183.00,0.0002
2182.00,0.0002
2181.00,0.0003
2180.00,0.0004
2179.00,0.0005
2178.00,0.0004
2177.00,0.0002
2176.00,0.0001
2175.00,0.0003
2174.00,0.0006
2173.00,0.0010
2172.00,0.0013
2171.00,0.0016
2170.00,0.0019
2169.00,0.0021
2168.00,0.0022
2167.00,0.0021
2166.00,0.0019
2165.00,0.0018
2164.00,0.0018
2163.00,0.0018
2162.00,0.0018
2161.00,0.0013
2160.00,0.0002
2159.00,-0.0012
2158.00,-0.0024
2157.00,-0.0028
2156.00,-0.0026
2155.00,-0.0020
2154.00,-0.0016
2153.00,-0.0013
2152.00,-0.0013
2151.00,-0.0016
2150.00,-0.0018
2149.00,-0.0017
2148.00,-0.0015
2147.00,-0.0012
2146.00,-0.0011
2145.00,-0.0011
2144.00,-0.0010
2143.00,-0.0010
2142.00,-0.0010
2141.00,-0.0010
2140.00,-0.0010
2139.00,-0.0011
2138.00,-0.0012
2137.00,-0.0013
2136.00,-0.0014
2135.00,-0.0016
2134.00,-0.0017
2133.00,-0.0016
2132.00,-0.0014
2131.00,-0.0012
2130.00,-0.0010
2129.00,-0.0008
2128.00,-0.0006
2127.00,-0.0005
2126.00,-0.0003
2125.00,-0.0001
2124.00,-0.0000
2123.00,0.0000
2122.00,-0.0000
2121.00,-0.0000
2120.00,0.0000
2119.00,0.0001
2118.00,0.0002
2117.00,0.0003
2116.00,0.0003
2115.00,0.0004
2114.00,0.0004
2113.00,0.0004
2112.00,0.0004
2111.00,0.0004
2110.00,0.0004
2109.00,0.0005
2108.00,0.0005
2107.00,0.0003
2106.00,0.0002
2105.00,0.0001
2104.00,0.0000
2103.00,-0.0000
2102.00,-0.0001
2101.00,-0.0001
2100.00,-0.0001
2099.00,-0.0001
2098.00,-0.0002
2097.00,-0.0003
2096.00,-0.0005
2095.00,-0.0006
2094.00,-0.0006
2093.00,-0.0005
2092.00,-0.0003
2091.00,-0.0001
2090.00,0.0000
2089.00,0.0002
2088.00,0.0004
2087.00,0.0005
2086.00,0.0004
2085.00,0.0003
2084.00,0.0003
2083.00,0.0003
2082.00,0.0004
2081.00,0.0005
2080.00,0.0005
2079.00,0.0005
2078.00,0.0006
2077.00,0.0007
2076.00,0.0007
2075.00,0.0007
2074.00,0.0004
2073.00,0.0002
2072.00,-0.0000
2071.00,-0.0001
2070.00,-0.0001
2069.00,-0.0000
2068.00,0.0001
2067.00,0.0001
2066.00,0.0000
2065.00,-0.0000
2064.00,0.0000
2063.00,0.0001
2062.00,0.0002
2061.00,0.0002
2060.00,0.0002
2059.00,0.0002
2058.00,0.0002
2057.00,0.0003
2056.00,0.0003
2055.00,0.0003
2054.00,0.0005
2053.00,0.0009
2052.00,0.0014
2051.00,0.0015
2050.00,0.0014
2049.00,0.0009
2048.00,0.0006
2047.00,0.0003
2046.00,0.0001
2045.00,-0.0001
2044.00,-0.0002
2043.00,-0.0003
2042.00,-0.0003
2041.00,-0.0002
2040.00,-0.0001
2039.00,-0.0000
2038.00,0.0001
2037.00,0.0002
2036.00,0.0003
2035.00,0.0002
2034.00,-0.0001
2033.00,-0.0006
2032.00,-0.0009
2031.00,-0.0012
2030.00,-0.0014
2029.00,-0.0016
2028.00,-0.0015
2027.00,-0.0014
2026.00,-0.0011
2025.00,-0.0009
2024.00,-0.0007
2023.00,-0.0006
2022.00,-0.0006
2021.00,-0.0005
2020.00,-0.0004
2019.00,-0.0004
2018.00,-0.0005
2017.00,-0.0009
2016.00,-0.0013
2015.00,-0.0016
2014.00,-0.0016
2013.00,-0.0015
2012.00,-0.0013
2011.00,-0.0013
2010.00,-0.0014
2009.00,-0.0015
2008.00,-0.0016
2007.00,-0.0017
2006.00,-0.0016
2005.00,-0.0016
2004.00,-0.0017
2003.00,-0.0020
2002.00,-0.0023
2001.00,-0.0023
2000.00,-0.0021
1999.00,-0.0017
1998.00,-0.0014
1997.00,-0.0011
1996.00,-0.0010
1995.00,-0.0010
1994.00,-0.0010
1993.00,-0.0010
1992.00,-0.0009
1991.00,-0.0009
1990.00,-0.0007
1989.00,-0.0005
1988.00,-0.0001
1987.00,0.0001
1986.00,0.0004
1985.00,0.0005
1984.00,0.0007
1983.00,0.0009
1982.00,0.0011
1981.00,0.0013
1980.00,0.0012
1979.00,0.0008
1978.00,-0.0000
1977.00,-0.0007
1976.00,-0.0011
1975.00,-0.0012
1974.00,-0.0012
1973.00,-0.0013
1972.00,-0.0014
1971.00,-0.0016
1970.00,-0.0017
1969.00,-0.0016
1968.00,-0.0015
1967.00,-0.0014
1966.00,-0.0014
1965.00,-0.0012
1964.00,-0.0011
1963.00,-0.0012
1962.00,-0.0012
1961.00,-0.0012
1960.00,-0.0013
1959.00,-0.0014
1958.00,-0.0016
1957.00,-0.0017
1956.00,-0.0018
1955.00,-0.0018
1954.00,-0.0018
1953.00,-0.0017
1952.00,-0.0015
1951.00,-0.0013
1950.00,-0.0013
1949.00,-0.0013
1948.00,-0.0013
1947.00,-0.0013
1946.00,-0.0013
1945.00,-0.0013
1944.00,-0.0013
1943.00,-0.0014
1942.00,-0.0015
1941.00,-0.0015
1940.00,-0.0014
1939.00,-0.0012
1938.00,-0.0010
1937.00,-0.0009
1936.00,-0.0009
1935.00,-0.0010
1934.00,-0.0011
1933.00,-0.0010
1932.00,-0.0010
1931.00,-0.0010
1930.00,-0.0011
1929.00,-0.0012
1928.00,-0.0012
1927.00,-0.0011
1926.00,-0.0010
1925.00,-0.0009
1924.00,-0.0007
1923.00,-0.0007
1922.00,-0.0006
1921.00,-0.0005
1920.00,-0.0005
1919.00,-0.0005
1918.00,-0.0004
1917.00,-0.0004
1916.00,-0.0004
1915.00,-0.0003
1914.00,-0.0003
1913.00,-0.0003
1912.00,-0.0003
1911.00,-0.0004
1910.00,-0.0005
1909.00,-0.0005
1908.00,-0.0005
1907.00,-0.0005
1906.00,-0.0004
1905.00,-0.0003
1904.00,-0.0004
1903.00,-0.0005
1902.00,-0.0006
1901.00,-0.0006
1900.00,-0.0006
1899.00,-0.0006
1898.00,-0.0005
1897.00,-0.0004
1896.00,-0.0003
1895.00,-0.0002
1894.00,-0.0002
1893.00,-0.0002
1892.00,-0.0002
1891.00,-0.0002
1890.00,-0.0002
1889.00,-0.0002
1888.00,-0.0002
1887.00,-0.0002
1886.00,-0.0001
1885.00,-0.0001
1884.00,-0.0001
1883.00,-0.0001
1882.00,-0.0002
1881.00,-0.0002
1880.00,-0.0003
1879.00,-0.0002
1878.00,-0.0002
1877.00,-0.0001
1876.00,-0.0000
1875.00,-0.0000
1874.00,-0.0000
1873.00,-0.0001
1872.00,-0.0001
1871.00,-0.0001
1870.00,-0.0001
1869.00,-0.0000
1868.00,-0.0000
1867.00,-0.0001
1866.00,-0.0001
1865.00,-0.0002
1864.00,-0.0001
1863.00,-0.0001
1862.00,-0.0000
1861.00,0.0000
1860.00,0.0000
1859.00,0.0000
1858.00,-0.0000
1857.00,-0.0001
1856.00,-0.0001
1855.00,-0.0002
1854.00,-0.0001
1853.00,-0.0000
1852.00,0.0000
1851.00,0.0001
1850.00,0.0001
1849.00,0.0001
1848.00,0.0001
1847.00,0.0001
1846.00,0.0001
1845.00,0.0001
1844.00,0.0002
1843.00,0.0002
1842.00,0.0001
1841.00,0.0001
1840.00,0.0001
1839.00,0.0000
1838.00,0.0000
1837.00,0.0000
1836.00,0.0000
1835.00,0.0000
1834.00,0.0001
1833.00,0.0002
1832.00,0.0002
1831.00,0.0003
1830.00,0.0003
1829.00,0.0003
1828.00,0.0003
1827.00,0.0002
1826.00,0.0002
1825.00,0.0002
1824.00,0.0003
1823.00,0.0003
1822.00,0.0004
1821.00,0.0003
1820.00,0.0003
1819.00,0.0001
1818.00,-0.0000
1817.00,-0.0001
1816.00,-0.0001
1815.00,-0.0001
1814.00,-0.0000
1813.00,0.0000
1812.00,0.0001
1811.00,0.0001
1810.00,0.0002
1809.00,0.0002
1808.00,0.0003
1807.00,0.0004
1806.00,0.0004
1805.00,0.0004
1804.00,0.0003
1803.00,0.0003
1802.00,0.0003
1801.00,0.0004
1800.00,0.0005
1799.00,0.0005
1798.00,0.0005
1797.00,0.0005
1796.00,0.0005
1795.00,0.0005
1794.00,0.0006
1793.00,0.0006
1792.00,0.0007
1791.00,0.0007
1790.00,0.0007
1789.00,0.0006
1788.00,0.0006
1787.00,0.0006
1786.00,0.0007
1785.00,0.0007
1784.00,0.0007
1783.00,0.0007
1782.00,0.0007
1781.00,0.0007
1780.00,0.0007
1779.00,0.0007
1778.00,0.0007
1777.00,0.0008
1776.00,0.0008
1775.00,0.0008
1774.00,0.0008
1773.00,0.0009
1772.00,0.0009
1771.00,0.0010
1770.00,0.0010
1769.00,0.0010
1768.00,0.0010
1767.00,0.0010
1766.00,0.0010
1765.00,0.0010
1764.00,0.0011
1763.00,0.0011
1762.00,0.0011
1761.00,0.0011
1760.00,0.0011
1759.00,0.0011
1758.00,0.0011
1757.00,0.0012
1756.00,0.0012
1755.00,0.0012
1754.00,0.0011
1753.00,0.0011
1752.00,0.0012
1751.00,0.0012
1750.00,0.0012
1749.00,0.0012
1748.00,0.0013
1747.00,0.0014
1746.00,0.0014
1745.00,0.0015
1744.00,0.0015
1743.00,0.0014
1742.00,0.0014
1741.00,0.0014
1740.00,0.0014
1739.00,0.0015
1738.00,0.0015
1737.00,0.0016
1736.00,0.0016
1735.00,0.0016
1734.00,0.0016
1733.00,0.0016
1732.00,0.0016
1731.00,0.0016
1730.00,0.0017
1729.00,0.0017
1728.00,0.0017
1727.00,0.0017
1726.00,0.0017
1725.00,0.0017
1724.00,0.0018
1723.00,0.0018
1722.00,0.0018
1721.00,0.0018
1720.00,0.0019
1719.00,0.0019
1718.00,0.0019
1717.00,0.0019
1716.00,0.0019
1715.00,0.0019
1714.00,0.0019
1713.00,0.0020
1712.00,0.0021
1711.00,0.0021
1710.00,0.0022
1709.00,0.0022
1708.00,0.0023
1707.00,0.0023
1706.00,0.0023
1705.00,0.0024
1704.00,0.0025
1703.00,0.0025
1702.00,0.0026
1701.00,0.0028
1700.00,0.0029
1699.00,0.0029
1698.00,0.0029
1697.00,0.0030
1696.00,0.0032
1695.00,0.0034
1694.00,0.0037
1693.00,0.0039
1692.00,0.0040
1691.00,0.0042
1690.00,0.0044
1689.00,0.0046
1688.00,0.0047
1687.00,0.0047
1686.00,0.0048
1685.00,0.0051
1684.00,0.0055
1683.00,0.0059
1682.00,0.0062
1681.00,0.0063
1680.00,0.0065
1679.00,0.0066
1678.00,0.0067
1677.00,0.0068
1676.00,0.0070
1675.00,0.0071
1674.00,0.0072
1673.00,0.0072
1672.00,0.0073
1671.00,0.0073
1670.00,0.0074
1669.00,0.0074
1668.00,0.0075
1667.00,0.0075
1666.00,0.0074
1665.00,0.0074
1664.00,0.0074
1663.00,0.0074
1662.00,0.0074
1661.00,0.0073
1660.00,0.0073
1659.00,0.0072
1658.00,0.0072
1657.00,0.0071
1656.00,0.0070
1655.00,0.0069
1654.00,0.0067
1653.00,0.0066
1652.00,0.0065
1651.00,0.0065
1650.00,0.0065
1649.00,0.0065
1648.00,0.0064
1647.00,0.0064
1646.00,0.0063
1645.00,0.0062
1644.00,0.0061
1643.00,0.0060
1642.00,0.0059
1641.00,0.0058
1640.00,0.0057
1639.00,0.0056
1638.00,0.0055
1637.00,0.0055
1636.00,0.0054
1635.00,0.0053
1634.00,0.0052
1633.00,0.0052
1632.00,0.0051
1631.00,0.0050
1630.00,0.0050
1629.00,0.0049
1628.00,0.0049
1627.00,0.0048
1626.00,0.0047
1625.00,0.0046
1624.00,0.0046
1623.00,0.0046
1622.00,0.0046
1621.00,0.0046
1620.00,0.0045
1619.00,0.0045
1618.00,0.0044
1617.00,0.0043
1616.00,0.0043
1615.00,0.0043
1614.00,0.0043
1613.00,0.0043
1612.00,0.0043
1611.00,0.0043
1610.00,0.0043
1609.00,0.0043
1608.00,0.0043
1607.00,0.0042
1606.00,0.0042
1605.00,0.0042
1604.00,0.0042
1603.00,0.0042
1602.00,0.0041
1601.00,0.0041
1600.00,0.0041
1599.00,0.0041
1598.00,0.0040
1597.00,0.0040
1596.00,0.0040
1595.00,0.0040
1594.00,0.0040
1593.00,0.0040
1592.00,0.0040
1591.00,0.0040
1590.00,0.0040
1589.00,0.0041
1588.00,0.0041
1587.00,0.0041
1586.00,0.0041
1585.00,0.0042
1584.00,0.0042
1583.00,0.0043
1582.00,0.0044
1581.00,0.0045
1580.00,0.0046
1579.00,0.0046
1578.00,0.0045
1577.00,0.0045
1576.00,0.0045
1575.00,0.0045
1574.00,0.0044
1573.00,0.0044
1572.00,0.0044
1571.00,0.0044
1570.00,0.0043
1569.00,0.0043
1568.00,0.0042
1567.00,0.0042
1566.00,0.0042
1565.00,0.0042
1564.00,0.0043
1563.00,0.0042
1562.00,0.0042
1561.00,0.0042
1560.00,0.0042
1559.00,0.0042
1558.00,0.0043
1557.00,0.0044
1556.00,0.0045
1555.00,0.0045
1554.00,0.0046
1553.00,0.0047
1552.00,0.0047
1551.00,0.0048
1550.00,0.0048
1549.00,0.0049
1548.00,0.0049
1547.00,0.0050
1546.00,0.0051
1545.00,0.0052
1544.00,0.0052
1543.00,0.0052
1542.00,0.0052
1541.00,0.0051
1540.00,0.0050
1539.00,0.0049
1538.00,0.0049
1537.00,0.0049
1536.00,0.0049
1535.00,0.0049
1534.00,0.0048
1533.00,0.0047
1532.00,0.0046
1531.00,0.0045
1530.00,0.0045
1529.00,0.0045
1528.00,0.0045
1527.00,0.0045
1526.00,0.0044
1525.00,0.0044
1524.00,0.0044
1523.00,0.0045
1522.00,0.0045
1521.00,0.0045
1520.00,0.0045
1519.00,0.0045
1518.00,0.0045
1517.00,0.0046
1516.00,0.0046
1515.00,0.0046
1514.00,0.0046
1513.00,0.0047
1512.00,0.0048
1511.00,0.0049
1510.00,0.0050
1509.00,0.0051
1508.00,0.0052
1507.00,0.0052
1506.00,0.0052
1505.00,0.0053
1504.00,0.0055
1503.00,0.0056
1502.00,0.0058
1501.00,0.0061
1500.00,0.0063
1499.00,0.0065
1498.00,0.0067
1497.00,0.0070
1496.00,0.0073
1495.00,0.0076
1494.00,0.0077
1493.00,0.0080
1492.00,0.0084
1491.00,0.0087
1490.00,0.0090
1489.00,0.0095
1488.00,0.0099
1487.00,0.0103
1486.00,0.0107
1485.00,0.0111
1484.00,0.0116
1483.00,0.0122
1482.00,0.0130
1481.00,0.0139
1480.00,0.0149
1479.00,0.0159
1478.00,0.0172
1477.00,0.0188
1476.00,0.0208
1475.00,0.0230
1474.00,0.0261
1473.00,0.0308
1472.00,0.0366
1471.00,0.0422
1470.00,0.0475
1469.00,0.0529
1468.00,0.0588
1467.00,0.0652
1466.00,0.0728
1465.00,0.0813
1464.00,0.0889
1463.00,0.0942
1462.00,0.0975
1461.00,0.0997
1460.00,0.1013
1459.00,0.1028
1458.00,0.1052
1457.00,0.1085
1456.00,0.1109
1455.00,0.1115
1454.00,0.1112
1453.00,0.1103
1452.00,0.1086
1451.00,0.1057
1450.00,0.1014
1449.00,0.0950
1448.00,0.0866
1447.00,0.0776
1446.00,0.0691
1445.00,0.0617
1444.00,0.0553
1443.00,0.0501
1442.00,0.0463
1441.00,0.0436
1440.00,0.0418
1439.00,0.0409
1438.00,0.0406
1437.00,0.0403
1436.00,0.0390
1435.00,0.0364
1434.00,0.0328
1433.00,0.0287
1432.00,0.0246
1431.00,0.0211
1430.00,0.0185
1429.00,0.0166
1428.00,0.0154
1427.00,0.0146
1426.00,0.0141
1425.00,0.0136
1424.00,0.0131
1423.00,0.0128
1422.00,0.0125
1421.00,0.0122
1420.00,0.0119
1419.00,0.0117
1418.00,0.0114
1417.00,0.0111
1416.00,0.0108
1415.00,0.0105
1414.00,0.0104
1413.00,0.0103
1412.00,0.0101
1411.00,0.0101
1410.00,0.0100
1409.00,0.0099
1408.00,0.0098
1407.00,0.0098
1406.00,0.0099
1405.00,0.0098
1404.00,0.0098
1403.00,0.0100
1402.00,0.0101
1401.00,0.0103
1400.00,0.0104
1399.00,0.0106
1398.00,0.0108
1397.00,0.0110
1396.00,0.0112
1395.00,0.0116
1394.00,0.0121
1393.00,0.0126
1392.00,0.0131
1391.00,0.0139
1390.00,0.0150
1389.00,0.0166
1388.00,0.0191
1387.00,0.0227
1386.00,0.0275
1385.00,0.0333
1384.00,0.0409
1383.00,0.0511
1382.00,0.0642
1381.00,0.0803
1380.00,0.0994
1379.00,0.1200
1378.00,0.1388
1377.00,0.1515
1376.00,0.1547
1375.00,0.1465
1374.00,0.1290
1373.00,0.1079
1372.00,0.0881
1371.00,0.0714
1370.00,0.0579
1369.00,0.0475
1368.00,0.0403
1367.00,0.0358
1366.00,0.0334
1365.00,0.0324
1364.00,0.0327
1363.00,0.0339
1362.00,0.0357
1361.00,0.0376
1360.00,0.0389
1359.00,0.0392
1358.00,0.0381
1357.00,0.0357
1356.00,0.0325
1355.00,0.0289
1354.00,0.0254
1353.00,0.0225
1352.00,0.0201
1351.00,0.0182
1350.00,0.0167
1349.00,0.0154
1348.00,0.0145
1347.00,0.0137
1346.00,0.0131
1345.00,0.0125
1344.00,0.0121
1343.00,0.0118
1342.00,0.0115
1341.00,0.0112
1340.00,0.0110
1339.00,0.0108
1338.00,0.0107
1337.00,0.0107
1336.00,0.0108
1335.00,0.0110
1334.00,0.0113
1333.00,0.0116
1332.00,0.0120
1331.00,0.0123
1330.00,0.0125
1329.00,0.0124
1328.00,0.0122
1327.00,0.0118
1326.00,0.0114
1325.00,0.0108
1324.00,0.0102
1323.00,0.0098
1322.00,0.0094
1321.00,0.0091
1320.00,0.0089
1319.00,0.0088
1318.00,0.0086
1317.00,0.0084
1316.00,0.0083
1315.00,0.0082
1314.00,0.0081
1313.00,0.0082
1312.00,0.0084
1311.00,0.0087
1310.00,0.0093
1309.00,0.0101
1308.00,0.0114
1307.00,0.0128
1306.00,0.0142
1305.00,0.0152
1304.00,0.0154
1303.00,0.0150
1302.00,0.0143
1301.00,0.0135
1300.00,0.0130
1299.00,0.0128
1298.00,0.0128
1297.00,0.0128
1296.00,0.0128
1295.00,0.0126
1294.00,0.0123
1293.00,0.0120
1292.00,0.0115
1291.00,0.0111
1290.00,0.0107
1289.00,0.0103
1288.00,0.0099
1287.00,0.0096
1286.00,0.0093
1285.00,0.0090
1284.00,0.0088
1283.00,0.0086
1282.00,0.0084
1281.00,0.0082
1280.00,0.0081
1279.00,0.0080
1278.00,0.0079
1277.00,0.0079
1276.00,0.0078
1275.00,0.0078
1274.00,0.0079
1273.00,0.0079
1272.00,0.0079
1271.00,0.0079
1270.00,0.0078
1269.00,0.0079
1268.00,0.0079
1267.00,0.0080
1266.00,0.0081
1265.00,0.0083
1264.00,0.0086
1263.00,0.0089
1262.00,0.0092
1261.00,0.0098
1260.00,0.0105
1259.00,0.0115
1258.00,0.0125
1257.00,0.0134
1256.00,0.0138
1255.00,0.0136
1254.00,0.0128
1253.00,0.0118
1252.00,0.0108
1251.00,0.0099
1250.00,0.0093
1249.00,0.0088
1248.00,0.0085
1247.00,0.0083
1246.00,0.0082
1245.00,0.0080
1244.00,0.0079
1243.00,0.0079
1242.00,0.0079
1241.00,0.0078
1240.00,0.0078
1239.00,0.0077
1238.00,0.0076
1237.00,0.0075
1236.00,0.0074
1235.00,0.0074
1234.00,0.0073
1233.00,0.0073
1232.00,0.0072
1231.00,0.0072
1230.00,0.0072
1229.00,0.0072
1228.00,0.0073
1227.00,0.0074
1226.00,0.0075
1225.00,0.0076
1224.00,0.0078
1223.00,0.0081
1222.00,0.0084
1221.00,0.0087
1220.00,0.0089
1219.00,0.0090
1218.00,0.0090
1217.00,0.0088
1216.00,0.0086
1215.00,0.0084
1214.00,0.0082
1213.00,0.0079
1212.00,0.0076
1211.00,0.0073
1210.00,0.0071
1209.00,0.0069
1208.00,0.0068
1207.00,0.0067
1206.00,0.0066
1205.00,0.0066
1204.00,0.0065
1203.00,0.0065
1202.00,0.0065
1201.00,0.0064
1200.00,0.0063
1199.00,0.0063
1198.00,0.0063
1197.00,0.0064
1196.00,0.0064
1195.00,0.0064
1194.00,0.0064
1193.00,0.0064
1192.00,0.0064
1191.00,0.0065
1190.00,0.0066
1189.00,0.0066
1188.00,0.0067
1187.00,0.0067
1186.00,0.0068
1185.00,0.0070
1184.00,0.0071
1183.00,0.0073
1182.00,0.0075
1181.00,0.0078
1180.00,0.0083
1179.00,0.0089
1178.00,0.0097
1177.00,0.0108
1176.00,0.0122
1175.00,0.0140
1174.00,0.0164
1173.00,0.0194
1172.00,0.0231
1171.00,0.0271
1170.00,0.0311
1169.00,0.0345
1168.00,0.0366
1167.00,0.0373
1166.00,0.0365
1165.00,0.0347
1164.00,0.0323
1163.00,0.0297
1162.00,0.0274
1161.00,0.0253
1160.00,0.0237
1159.00,0.0224
1158.00,0.0214
1157.00,0.0206
1156.00,0.0200
1155.00,0.0195
1154.00,0.0190
1153.00,0.0185
1152.00,0.0179
1151.00,0.0171
1150.00,0.0162
1149.00,0.0153
1148.00,0.0144
1147.00,0.0136
1146.00,0.0128
1145.00,0.0121
1144.00,0.0115
1143.00,0.0109
1142.00,0.0104
1141.00,0.0098
1140.00,0.0093
1139.00,0.0089
1138.00,0.0086
1137.00,0.0083
1136.00,0.0081
1135.00,0.0078
1134.00,0.0076
1133.00,0.0075
1132.00,0.0073
1131.00,0.0072
1130.00,0.0072
1129.00,0.0072
1128.00,0.0072
1127.00,0.0073
1126.00,0.0074
1125.00,0.0075
1124.00,0.0076
1123.00,0.0075
1122.00,0.0075
1121.00,0.0074
1120.00,0.0075
1119.00,0.0076
1118.00,0.0077
1117.00,0.0078
1116.00,0.0079
1115.00,0.0081
1114.00,0.0082
1113.00,0.0084
1112.00,0.0085
1111.00,0.0087
1110.00,0.0090
1109.00,0.0093
1108.00,0.0097
1107.00,0.0102
1106.00,0.0108
1105.00,0.0113
1104.00,0.0118
1103.00,0.0121
1102.00,0.0121
1101.00,0.0119
1100.00,0.0116
1099.00,0.0111
1098.00,0.0105
1097.00,0.0100
1096.00,0.0095
1095.00,0.0090
1094.00,0.0086
1093.00,0.0083
1092.00,0.0081
1091.00,0.0080
1090.00,0.0080
1089.00,0.0080
1088.00,0.0079
1087.00,0.0077
1086.00,0.0075
1085.00,0.0074
1084.00,0.0073
1083.00,0.0073
1082.00,0.0072
1081.00,0.0071
1080.00,0.0070
1079.00,0.0069
1078.00,0.0068
1077.00,0.0067
1076.00,0.0066
1075.00,0.0065
1074.00,0.0065
1073.00,0.0065
1072.00,0.0065
1071.00,0.0065
1070.00,0.0065
1069.00,0.0066
1068.00,0.0066
1067.00,0.0067
1066.00,0.0068
1065.00,0.0069
1064.00,0.0069
1063.00,0.0069
1062.00,0.0069
1061.00,0.0069
1060.00,0.0069
1059.00,0.0069
1058.00,0.0070
1057.00,0.0072
1056.00,0.0073
1055.00,0.0074
1054.00,0.0075
1053.00,0.0077
1052.00,0.0078
1051.00,0.0079
1050.00,0.0081
1049.00,0.0084
1048.00,0.0088
1047.00,0.0092
1046.00,0.0095
1045.00,0.0097
1044.00,0.0097
1043.00,0.0095
1042.00,0.0093
1041.00,0.0090
1040.00,0.0088
1039.00,0.0086
1038.00,0.0084
1037.00,0.0083
1036.00,0.0083
1035.00,0.0082
1034.00,0.0081
1033.00,0.0080
1032.00,0.0079
1031.00,0.0078
1030.00,0.0078
1029.00,0.0078
1028.00,0.0078
1027.00,0.0079
1026.00,0.0079
1025.00,0.0079
1024.00,0.0080
1023.00,0.0082
1022.00,0.0083
1021.00,0.0084
1020.00,0.0085
1019.00,0.0086
1018.00,0.0087
1017.00,0.0089
1016.00,0.0091
1015.00,0.0093
1014.00,0.0097
1013.00,0.0101
1012.00,0.0105
1011.00,0.0109
1010.00,0.0113
1009.00,0.0119
1008.00,0.0126
1007.00,0.0135
1006.00,0.0147
1005.00,0.0163
1004.00,0.0184
1003.00,0.0212
1002.00,0.0249
1001.00,0.0293
1000.00,0.0342
999.00,0.0384
998.00,0.0407
997.00,0.0403
996.00,0.0373
995.00,0.0326
994.00,0.0275
993.00,0.0228
992.00,0.0192
991.00,0.0165
990.00,0.0146
989.00,0.0133
988.00,0.0124
987.00,0.0120
986.00,0.0118
985.00,0.0120
984.00,0.0125
983.00,0.0133
982.00,0.0145
981.00,0.0162
980.00,0.0185
979.00,0.0216
978.00,0.0256
977.00,0.0304
976.00,0.0359
975.00,0.0414
974.00,0.0460
973.00,0.0484
972.00,0.0477
971.00,0.0440
970.00,0.0381
969.00,0.0317
968.00,0.0258
967.00,0.0212
966.00,0.0179
965.00,0.0155
964.00,0.0137
963.00,0.0124
962.00,0.0113
961.00,0.0105
960.00,0.0099
959.00,0.0094
958.00,0.0089
957.00,0.0085
956.00,0.0082
955.00,0.0080
954.00,0.0079
953.00,0.0077
952.00,0.0076
951.00,0.0074
950.00,0.0073
949.00,0.0073
948.00,0.0073
947.00,0.0074
946.00,0.0077
945.00,0.0079
944.00,0.0082
943.00,0.0084
942.00,0.0085
941.00,0.0086
940.00,0.0084
939.00,0.0082
938.00,0.0079
937.00,0.0075
936.00,0.0071
935.00,0.0068
934.00,0.0066
933.00,0.0064
932.00,0.0062
931.00,0.0061
930.00,0.0060
929.00,0.0059
928.00,0.0058
927.00,0.0058
926.00,0.0058
925.00,0.0058
924.00,0.0058
923.00,0.0059
922.00,0.0059
921.00,0.0060
920.00,0.0061
919.00,0.0062
918.00,0.0063
917.00,0.0064
916.00,0.0064
915.00,0.0065
914.00,0.0066
913.00,0.0067
912.00,0.0068
911.00,0.0069
910.00,0.0070
909.00,0.0071
908.00,0.0073
907.00,0.0076
906.00,0.0082
905.00,0.0091
904.00,0.0104
903.00,0.0120
902.00,0.0136
901.00,0.0150
900.00,0.0159
899.00,0.0161
898.00,0.0155
897.00,0.0144
896.00,0.0129
895.00,0.0114
894.00,0.0101
893.00,0.0091
892.00,0.0084
891.00,0.0078
890.00,0.0075
889.00,0.0072
888.00,0.0071
887.00,0.0070
886.00,0.0069
885.00,0.0068
884.00,0.0067
883.00,0.0066
882.00,0.0065
881.00,0.0064
880.00,0.0063
879.00,0.0063
878.00,0.0064
877.00,0.0065
876.00,0.0066
875.00,0.0067
874.00,0.0068
873.00,0.0068
872.00,0.0068
871.00,0.0068
870.00,0.0068
869.00,0.0067
868.00,0.0067
867.00,0.0067
866.00,0.0068
865.00,0.0070
864.00,0.0072
863.00,0.0074
862.00,0.0076
861.00,0.0077
860.00,0.0080
859.00,0.0082
858.00,0.0084
857.00,0.0086
856.00,0.0087
855.00,0.0090
854.00,0.0093
853.00,0.0097
852.00,0.0100
851.00,0.0103
850.00,0.0109
849.00,0.0118
848.00,0.0131
847.00,0.0150
846.00,0.0179
845.00,0.0221
844.00,0.0280
843.00,0.0346
842.00,0.0401
841.00,0.0421
840.00,0.0398
839.00,0.0344
838.00,0.0281
837.00,0.0228
836.00,0.0191
835.00,0.0168
834.00,0.0154
833.00,0.0145
832.00,0.0137
831.00,0.0130
830.00,0.0123
829.00,0.0118
828.00,0.0115
827.00,0.0112
826.00,0.0111
825.00,0.0109
824.00,0.0107
823.00,0.0104
822.00,0.0102
821.00,0.0101
820.00,0.0102
819.00,0.0105
818.00,0.0109
817.00,0.0113
816.00,0.0118
815.00,0.0125
814.00,0.0136
813.00,0.0149
812.00,0.0164
811.00,0.0178
810.00,0.0188
809.00,0.0193
808.00,0.0190
807.00,0.0181
806.00,0.0169
805.00,0.0155
804.00,0.0143
803.00,0.0131
802.00,0.0122
801.00,0.0114
800.00,0.0108
799.00,0.0102
798.00,0.0097
797.00,0.0092
796.00,0.0088
795.00,0.0085
794.00,0.0084
793.00,0.0084
792.00,0.0084
791.00,0.0082
790.00,0.0080
789.00,0.0077
788.00,0.0075
787.00,0.0073
786.00,0.0071
785.00,0.0069
784.00,0.0066
783.00,0.0065
782.00,0.0063
781.00,0.0062
780.00,0.0060
779.00,0.0059
778.00,0.0059
777.00,0.0060
776.00,0.0061
775.00,0.0063
774.00,0.0065
773.00,0.0068
772.00,0.0071
771.00,0.0074
770.00,0.0076
769.00,0.0078
768.00,0.0080
767.00,0.0080
766.00,0.0079
765.00,0.0076
764.00,0.0072
763.00,0.0069
762.00,0.0067
761.00,0.0065
760.00,0.0063
759.00,0.0060
758.00,0.0057
757.00,0.0055
756.00,0.0054
755.00,0.0053
754.00,0.0052
753.00,0.0050
752.00,0.0050
751.00,0.0050
750.00,0.0051
749.00,0.0051
748.00,0.0051
747.00,0.0051
746.00,0.0051
745.00,0.0051
744.00,0.0052
743.00,0.0052
742.00,0.0053
741.00,0.0054
740.00,0.0055
739.00,0.0056
738.00,0.0057
737.00,0.0059
736.00,0.0062
735.00,0.0063
734.00,0.0064
733.00,0.0063
732.00,0.0063
731.00,0.0064
730.00,0.0065
729.00,0.0065
728.00,0.0063
727.00,0.0061
726.00,0.0059
725.00,0.0059
724.00,0.0060
723.00,0.0062
722.00,0.0063
721.00,0.0063
720.00,0.0061
719.00,0.0059
718.00,0.0057
717.00,0.0055
716.00,0.0053
715.00,0.0052
714.00,0.0052
713.00,0.0054
712.00,0.0055
711.00,0.0056
710.00,0.0056
709.00,0.0055
708.00,0.0056
707.00,0.0056
706.00,0.0056
705.00,0.0055
704.00,0.0055
703.00,0.0054
702.00,0.0054
701.00,0.0054
700.00,0.0053
699.00,0.0052
698.00,0.0051
697.00,0.0049
696.00,0.0049
695.00,0.0049
694.00,0.0049
693.00,0.0050
692.00,0.0051
691.00,0.0052
690.00,0.0051
689.00,0.0049
688.00,0.0046
687.00,0.0044
686.00,0.0044
685.00,0.0045
684.00,0.0046
683.00,0.0047
682.00,0.0048
681.00,0.0049
680.00,0.0049
679.00,0.0051
678.00,0.0053
677.00,0.0055
676.00,0.0056
675.00,0.0055
674.00,0.0054
673.00,0.0053
672.00,0.0052
671.00,0.0051
670.00,0.0050
669.00,0.0047
668.00,0.0045
667.00,0.0046
666.00,0.0048
665.00,0.0051
664.00,0.0053
663.00,0.0053
662.00,0.0052
661.00,0.0051
660.00,0.0050
659.00,0.0051
658.00,0.0053
657.00,0.0053
656.00,0.0052
655.00,0.0051
654.00,0.0051
653.00,0.0052
652.00,0.0053
651.00,0.0054
650.00,0.0055
649.00,0.0056
648.00,0.0057
647.00,0.0060
646.00,0.0062
645.00,0.0063
644.00,0.0061
643.00,0.0058
642.00,0.0055
641.00,0.0053
640.00,0.0053
639.00,0.0054
638.00,0.0056
637.00,0.0058
636.00,0.0057
635.00,0.0056
634.00,0.0055
633.00,0.0054
632.00,0.0053
631.00,0.0052
630.00,0.0052
629.00,0.0053
628.00,0.0057
627.00,0.0059
626.00,0.0059
625.00,0.0058
624.00,0.0058
623.00,0.0057
622.00,0.0057
621.00,0.0055
620.00,0.0053
619.00,0.0051
618.00,0.0052
617.00,0.0054
616.00,0.0056
615.00,0.0057
614.00,0.0056
613.00,0.0056
612.00,0.0057
611.00,0.0057
610.00,0.0056
609.00,0.0055
608.00,0.0053
607.00,0.0051
606.00,0.0050
605.00,0.0050
604.00,0.0052
603.00,0.0054
602.00,0.0056
601.00,0.0056
600.00,0.0056
599.00,0.0056
598.00,0.0055
597.00,0.0053
596.00,0.0050
595.00,0.0049
594.00,0.0049
593.00,0.0050
592.00,0.0052
591.00,0.0054
590.00,0.0055
589.00,0.0055
588.00,0.0056
587.00,0.0058
586.00,0.0061
585.00,0.0063
584.00,0.0062
583.00,0.0060
582.00,0.0059
581.00,0.0058
580.00,0.0058
579.00,0.0057
578.00,0.0057
577.00,0.0059
576.00,0.0061
575.00,0.0064
574.00,0.0066
573.00,0.0066
572.00,0.0065
571.00,0.0062
570.00,0.0059
569.00,0.0057
568.00,0.0057
567.00,0.0057
566.00,0.0057
565.00,0.0058
564.00,0.0058
563.00,0.0059
562.00,0.0058
561.00,0.0056
560.00,0.0054
559.00,0.0054
558.00,0.0055
557.00,0.0057
556.00,0.0059
555.00,0.0060
554.00,0.0062
553.00,0.0063
552.00,0.0062
551.00,0.0061
550.00,0.0063
549.00,0.0066
548.00,0.0069
547.00,0.0069
546.00,0.0067
545.00,0.0063
544.00,0.0060
543.00,0.0059
542.00,0.0061
541.00,0.0064
540.00,0.0067
539.00,0.0067
538.00,0.0066
537.00,0.0064
536.00,0.0063
535.00,0.0064
534.00,0.0066
533.00,0.0069
532.00,0.0072
531.00,0.0076
530.00,0.0077
529.00,0.0076
528.00,0.0073
527.00,0.0069
526.00,0.0066
525.00,0.0067
524.00,0.0069
523.00,0.0069
522.00,0.0067
521.00,0.0063
520.00,0.0061
519.00,0.0062
518.00,0.0065
517.00,0.0066
516.00,0.0063
515.00,0.0057
514.00,0.0050
513.00,0.0045
512.00,0.0041
511.00,0.0039
510.00,0.0038
509.00,0.0039
508.00,0.0041
507.00,0.0044
506.00,0.0049
505.00,0.0054
504.00,0.0057
503.00,0.0058
502.00,0.0056
501.00,0.0054
500.00,0.0055
499.00,0.0059
498.00,0.0064
497.00,0.0068
496.00,0.0069
495.00,0.0067
494.00,0.0066
493.00,0.0065
492.00,0.0064
491.00,0.0064
490.00,0.0066
489.00,0.0068
488.00,0.0070
487.00,0.0069
486.00,0.0064
485.00,0.0057
484.00,0.0052
483.00,0.0053
482.00,0.0061
481.00,0.0071
480.00,0.0075
479.00,0.0071
478.00,0.0064
477.00,0.0062
476.00,0.0071
475.00,0.0088
474.00,0.0104
473.00,0.0108
472.00,0.0098
471.00,0.0083
470.00,0.0071
469.00,0.0063
468.00,0.0060
467.00,0.0058
466.00,0.0061
465.00,0.0071
464.00,0.0089
463.00,0.0113
462.00,0.0136
461.00,0.0150
460.00,0.0154
459.00,0.0150
458.00,0.0144
457.00,0.0140
456.00,0.0137
455.00,0.0135
454.00,0.0131
453.00,0.0123
452.00,0.0111
451.00,0.0097
450.00,0.0084
