Created as New Dataset,Sample 162 By Administrator Date Tuesday, September 09 2025
cm-1,A
4000.00,0.0010
3999.00,0.0010
3998.00,0.0010
3997.00,0.0010
3996.00,0.0010
3995.00,0.0010
3994.00,0.0009
3993.00,0.0009
3992.00,0.0009
3991.00,0.0009
3990.00,0.0009
3989.00,0.0009
3988.00,0.0010
3987.00,0.0010
3986.00,0.0010
3985.00,0.0010
3984.00,0.0009
3983.00,0.0009
3982.00,0.0009
3981.00,0.0009
3980.00,0.0008
3979.00,0.0008
3978.00,0.0008
3977.00,0.0009
3976.00,0.0009
3975.00,0.0009
3974.00,0.0009
3973.00,0.0008
3972.00,0.0008
3971.00,0.0008
3970.00,0.0008
3969.00,0.0008
3968.00,0.0008
3967.00,0.0008
3966.00,0.0008
3965.00,0.0008
3964.00,0.0008
3963.00,0.0008
3962.00,0.0008
3961.00,0.0008
3960.00,0.0008
3959.00,0.0008
3958.00,0.0008
3957.00,0.0008
3956.00,0.0008
3955.00,0.0008
3954.00,0.0008
3953.00,0.0008
3952.00,0.0007
3951.00,0.0007
3950.00,0.0007
3949.00,0.0007
3948.00,0.0007
3947.00,0.0007
3946.00,0.0007
3945.00,0.0007
3944.00,0.0007
3943.00,0.0008
3942.00,0.0008
3941.00,0.0008
3940.00,0.0008
3939.00,0.0008
3938.00,0.0008
3937.00,0.0008
3936.00,0.0008
3935.00,0.0008
3934.00,0.0008
3933.00,0.0007
3932.00,0.0007
3931.00,0.0007
3930.00,0.0007
3929.00,0.0007
3928.00,0.0007
3927.00,0.0007
3926.00,0.0007
3925.00,0.0008
3924.00,0.0008
3923.00,0.0009
3922.00,0.0009
3921.00,0.0010
3920.00,0.0009
3919.00,0.0009
3918.00,0.0009
3917.00,0.0008
3916.00,0.0008
3915.00,0.0008
3914.00,0.0008
3913.00,0.0008
3912.00,0.0008
3911.00,0.0008
3910.00,0.0008
3909.00,0.0008
3908.00,0.0008
3907.00,0.0008
3906.00,0.0008
3905.00,0.0009
3904.00,0.0009
3903.00,0.0009
3902.00,0.0009
3901.00,0.0008
3900.00,0.0008
3899.00,0.0008
3898.00,0.0008
3897.00,0.0008
3896.00,0.0008
3895.00,0.0008
3894.00,0.0008
3893.00,0.0008
3892.00,0.0008
3891.00,0.0008
3890.00,0.0008
3889.00,0.0007
3888.00,0.0007
3887.00,0.0007
3886.00,0.0007
3885.00,0.0007
3884.00,0.0007
3883.00,0.0007
3882.00,0.0007
3881.00,0.0008
3880.00,0.0008
3879.00,0.0008
3878.00,0.0007
3877.00,0.0007
3876.00,0.0007
3875.00,0.0007
3874.00,0.0008
3873.00,0.0007
3872.00,0.0007
3871.00,0.0007
3870.00,0.0007
3869.00,0.0007
3868.00,0.0007
3867.00,0.0007
3866.00,0.0007
3865.00,0.0007
3864.00,0.0007
3863.00,0.0007
3862.00,0.0007
3861.00,0.0007
3860.00,0.0007
3859.00,0.0007
3858.00,0.0007
3857.00,0.0007
3856.00,0.0006
3855.00,0.0006
3854.00,0.0006
3853.00,0.0006
3852.00,0.0006
3851.00,0.0006
3850.00,0.0006
3849.00,0.0006
3848.00,0.0006
3847.00,0.0006
3846.00,0.0006
3845.00,0.0006
3844.00,0.0007
3843.00,0.0007
3842.00,0.0006
3841.00,0.0006
3840.00,0.0007
3839.00,0.0007
3838.00,0.0007
3837.00,0.0007
3836.00,0.0007
3835.00,0.0007
3834.00,0.0007
3833.00,0.0007
3832.00,0.0007
3831.00,0.0007
3830.00,0.0007
3829.00,0.0007
3828.00,0.0007
3827.00,0.0007
3826.00,0.0008
3825.00,0.0008
3824.00,0.0008
3823.00,0.0008
3822.00,0.0007
3821.00,0.0007
3820.00,0.0006
3819.00,0.0006
3818.00,0.0006
3817.00,0.0007
3816.00,0.0007
3815.00,0.0007
3814.00,0.0007
3813.00,0.0007
3812.00,0.0007
3811.00,0.0007
3810.00,0.0007
3809.00,0.0008
3808.00,0.0008
3807.00,0.0008
3806.00,0.0008
3805.00,0.0007
3804.00,0.0006
3803.00,0.0006
3802.00,0.0006
3801.00,0.0006
3800.00,0.0006
3799.00,0.0006
3798.00,0.0006
3797.00,0.0007
3796.00,0.0007
3795.00,0.0007
3794.00,0.0007
3793.00,0.0007
3792.00,0.0007
3791.00,0.0008
3790.00,0.0008
3789.00,0.0008
3788.00,0.0008
3787.00,0.0007
3786.00,0.0007
3785.00,0.0007
3784.00,0.0008
3783.00,0.0008
3782.00,0.0008
3781.00,0.0008
3780.00,0.0008
3779.00,0.0008
3778.00,0.0008
3777.00,0.0008
3776.00,0.0008
3775.00,0.0008
3774.00,0.0009
3773.00,0.0009
3772.00,0.0009
3771.00,0.0009
3770.00,0.0009
3769.00,0.0009
3768.00,0.0009
3767.00,0.0009
3766.00,0.0009
3765.00,0.0009
3764.00,0.0009
3763.00,0.0009
3762.00,0.0009
3761.00,0.0009
3760.00,0.0008
3759.00,0.0008
3758.00,0.0008
3757.00,0.0008
3756.00,0.0008
3755.00,0.0007
3754.00,0.0007
3753.00,0.0007
3752.00,0.0007
3751.00,0.0007
3750.00,0.0007
3749.00,0.0008
3748.00,0.0008
3747.00,0.0008
3746.00,0.0008
3745.00,0.0007
3744.00,0.0007
3743.00,0.0006
3742.00,0.0006
3741.00,0.0007
3740.00,0.0007
3739.00,0.0007
3738.00,0.0006
3737.00,0.0006
3736.00,0.0006
3735.00,0.0006
3734.00,0.0006
3733.00,0.0006
3732.00,0.0006
3731.00,0.0005
3730.00,0.0005
3729.00,0.0005
3728.00,0.0005
3727.00,0.0005
3726.00,0.0005
3725.00,0.0005
3724.00,0.0005
3723.00,0.0005
3722.00,0.0005
3721.00,0.0006
3720.00,0.0006
3719.00,0.0006
3718.00,0.0007
3717.00,0.0007
3716.00,0.0007
3715.00,0.0007
3714.00,0.0006
3713.00,0.0006
3712.00,0.0005
3711.00,0.0005
3710.00,0.0005
3709.00,0.0005
3708.00,0.0005
3707.00,0.0005
3706.00,0.0005
3705.00,0.0006
3704.00,0.0006
3703.00,0.0006
3702.00,0.0006
3701.00,0.0006
3700.00,0.0006
3699.00,0.0006
3698.00,0.0006
3697.00,0.0006
3696.00,0.0006
3695.00,0.0007
3694.00,0.0007
3693.00,0.0007
3692.00,0.0007
3691.00,0.0007
3690.00,0.0007
3689.00,0.0007
3688.00,0.0007
3687.00,0.0007
3686.00,0.0007
3685.00,0.0007
3684.00,0.0007
3683.00,0.0008
3682.00,0.0008
3681.00,0.0008
3680.00,0.0008
3679.00,0.0008
3678.00,0.0007
3677.00,0.0007
3676.00,0.0007
3675.00,0.0007
3674.00,0.0007
3673.00,0.0007
3672.00,0.0007
3671.00,0.0007
3670.00,0.0007
3669.00,0.0008
3668.00,0.0008
3667.00,0.0008
3666.00,0.0008
3665.00,0.0008
3664.00,0.0009
3663.00,0.0009
3662.00,0.0010
3661.00,0.0010
3660.00,0.0009
3659.00,0.0009
3658.00,0.0009
3657.00,0.0009
3656.00,0.0009
3655.00,0.0009
3654.00,0.0009
3653.00,0.0009
3652.00,0.0009
3651.00,0.0010
3650.00,0.0010
3649.00,0.0010
3648.00,0.0009
3647.00,0.0009
3646.00,0.0009
3645.00,0.0009
3644.00,0.0009
3643.00,0.0010
3642.00,0.0010
3641.00,0.0011
3640.00,0.0011
3639.00,0.0011
3638.00,0.0011
3637.00,0.0011
3636.00,0.0012
3635.00,0.0012
3634.00,0.0012
3633.00,0.0012
3632.00,0.0011
3631.00,0.0011
3630.00,0.0011
3629.00,0.0011
3628.00,0.0011
3627.00,0.0011
3626.00,0.0011
3625.00,0.0011
3624.00,0.0011
3623.00,0.0011
3622.00,0.0011
3621.00,0.0010
3620.00,0.0011
3619.00,0.0011
3618.00,0.0012
3617.00,0.0012
3616.00,0.0013
3615.00,0.0013
3614.00,0.0013
3613.00,0.0013
3612.00,0.0014
3611.00,0.0013
3610.00,0.0014
3609.00,0.0014
3608.00,0.0015
3607.00,0.0015
3606.00,0.0016
3605.00,0.0016
3604.00,0.0015
3603.00,0.0015
3602.00,0.0015
3601.00,0.0015
3600.00,0.0015
3599.00,0.0015
3598.00,0.0016
3597.00,0.0016
3596.00,0.0017
3595.00,0.0018
3594.00,0.0018
3593.00,0.0019
3592.00,0.0019
3591.00,0.0019
3590.00,0.0020
3589.00,0.0020
3588.00,0.0020
3587.00,0.0021
3586.00,0.0021
3585.00,0.0021
3584.00,0.0021
3583.00,0.0021
3582.00,0.0021
3581.00,0.0022
3580.00,0.0022
3579.00,0.0023
3578.00,0.0023
3577.00,0.0024
3576.00,0.0024
3575.00,0.0025
3574.00,0.0025
3573.00,0.0026
3572.00,0.0026
3571.00,0.0026
3570.00,0.0026
3569.00,0.0026
3568.00,0.0026
3567.00,0.0026
3566.00,0.0026
3565.00,0.0026
3564.00,0.0027
3563.00,0.0028
3562.00,0.0029
3561.00,0.0030
3560.00,0.0031
3559.00,0.0031
3558.00,0.0032
3557.00,0.0031
3556.00,0.0031
3555.00,0.0031
3554.00,0.0032
3553.00,0.0033
3552.00,0.0034
3551.00,0.0034
3550.00,0.0035
3549.00,0.0035
3548.00,0.0035
3547.00,0.0035
3546.00,0.0035
3545.00,0.0035
3544.00,0.0036
3543.00,0.0036
3542.00,0.0037
3541.00,0.0038
3540.00,0.0038
3539.00,0.0039
3538.00,0.0039
3537.00,0.0040
3536.00,0.0040
3535.00,0.0041
3534.00,0.0041
3533.00,0.0042
3532.00,0.0042
3531.00,0.0042
3530.00,0.0042
3529.00,0.0042
3528.00,0.0043
3527.00,0.0043
3526.00,0.0043
3525.00,0.0044
3524.00,0.0044
3523.00,0.0045
3522.00,0.0045
3521.00,0.0046
3520.00,0.0047
3519.00,0.0048
3518.00,0.0048
3517.00,0.0049
3516.00,0.0049
3515.00,0.0050
3514.00,0.0050
3513.00,0.0051
3512.00,0.0052
3511.00,0.0052
3510.00,0.0052
3509.00,0.0052
3508.00,0.0053
3507.00,0.0053
3506.00,0.0053
3505.00,0.0054
3504.00,0.0055
3503.00,0.0055
3502.00,0.0056
3501.00,0.0056
3500.00,0.0056
3499.00,0.0056
3498.00,0.0056
3497.00,0.0056
3496.00,0.0057
3495.00,0.0057
3494.00,0.0058
3493.00,0.0058
3492.00,0.0059
3491.00,0.0059
3490.00,0.0059
3489.00,0.0060
3488.00,0.0060
3487.00,0.0061
3486.00,0.0061
3485.00,0.0062
3484.00,0.0062
3483.00,0.0061
3482.00,0.0062
3481.00,0.0062
3480.00,0.0063
3479.00,0.0064
3478.00,0.0065
3477.00,0.0066
3476.00,0.0066
3475.00,0.0066
3474.00,0.0066
3473.00,0.0067
3472.00,0.0067
3471.00,0.0068
3470.00,0.0068
3469.00,0.0069
3468.00,0.0069
3467.00,0.0069
3466.00,0.0070
3465.00,0.0070
3464.00,0.0070
3463.00,0.0070
3462.00,0.0071
3461.00,0.0071
3460.00,0.0072
3459.00,0.0072
3458.00,0.0073
3457.00,0.0073
3456.00,0.0074
3455.00,0.0075
3454.00,0.0075
3453.00,0.0076
3452.00,0.0077
3451.00,0.0077
3450.00,0.0077
3449.00,0.0077
3448.00,0.0077
3447.00,0.0078
3446.00,0.0079
3445.00,0.0079
3444.00,0.0080
3443.00,0.0080
3442.00,0.0080
3441.00,0.0081
3440.00,0.0082
3439.00,0.0083
3438.00,0.0083
3437.00,0.0084
3436.00,0.0084
3435.00,0.0084
3434.00,0.0085
3433.00,0.0085
3432.00,0.0086
3431.00,0.0086
3430.00,0.0087
3429.00,0.0088
3428.00,0.0089
3427.00,0.0089
3426.00,0.0090
3425.00,0.0091
3424.00,0.0091
3423.00,0.0091
3422.00,0.0091
3421.00,0.0092
3420.00,0.0092
3419.00,0.0093
3418.00,0.0094
3417.00,0.0094
3416.00,0.0095
3415.00,0.0095
3414.00,0.0095
3413.00,0.0095
3412.00,0.0096
3411.00,0.0096
3410.00,0.0097
3409.00,0.0097
3408.00,0.0098
3407.00,0.0098
3406.00,0.0099
3405.00,0.0099
3404.00,0.0099
3403.00,0.0100
3402.00,0.0100
3401.00,0.0101
3400.00,0.0102
3399.00,0.0102
3398.00,0.0103
3397.00,0.0103
3396.00,0.0103
3395.00,0.0102
3394.00,0.0103
3393.00,0.0103
3392.00,0.0103
3391.00,0.0103
3390.00,0.0103
3389.00,0.0103
3388.00,0.0103
3387.00,0.0103
3386.00,0.0103
3385.00,0.0103
3384.00,0.0103
3383.00,0.0103
3382.00,0.0103
3381.00,0.0104
3380.00,0.0104
3379.00,0.0105
3378.00,0.0105
3377.00,0.0105
3376.00,0.0106
3375.00,0.0106
3374.00,0.0106
3373.00,0.0106
3372.00,0.0106
3371.00,0.0106
3370.00,0.0106
3369.00,0.0106
3368.00,0.0106
3367.00,0.0106
3366.00,0.0107
3365.00,0.0107
3364.00,0.0107
3363.00,0.0107
3362.00,0.0108
3361.00,0.0108
3360.00,0.0109
3359.00,0.0109
3358.00,0.0109
3357.00,0.0109
3356.00,0.0110
3355.00,0.0110
3354.00,0.0110
3353.00,0.0110
3352.00,0.0110
3351.00,0.0110
3350.00,0.0110
3349.00,0.0111
3348.00,0.0111
3347.00,0.0111
3346.00,0.0112
3345.00,0.0112
3344.00,0.0112
3343.00,0.0112
3342.00,0.0113
3341.00,0.0113
3340.00,0.0114
3339.00,0.0114
3338.00,0.0114
3337.00,0.0115
3336.00,0.0116
3335.00,0.0116
3334.00,0.0116
3333.00,0.0117
3332.00,0.0117
3331.00,0.0117
3330.00,0.0117
3329.00,0.0118
3328.00,0.0118
3327.00,0.0118
3326.00,0.0119
3325.00,0.0119
3324.00,0.0120
3323.00,0.0120
3322.00,0.0121
3321.00,0.0121
3320.00,0.0121
3319.00,0.0122
3318.00,0.0122
3317.00,0.0122
3316.00,0.0122
3315.00,0.0122
3314.00,0.0122
3313.00,0.0122
3312.00,0.0122
3311.00,0.0122
3310.00,0.0122
3309.00,0.0122
3308.00,0.0122
3307.00,0.0122
3306.00,0.0122
3305.00,0.0122
3304.00,0.0122
3303.00,0.0121
3302.00,0.0121
3301.00,0.0121
3300.00,0.0120
3299.00,0.0120
3298.00,0.0119
3297.00,0.0119
3296.00,0.0118
3295.00,0.0117
3294.00,0.0117
3293.00,0.0117
3292.00,0.0117
3291.00,0.0117
3290.00,0.0116
3289.00,0.0116
3288.00,0.0115
3287.00,0.0115
3286.00,0.0114
3285.00,0.0114
3284.00,0.0114
3283.00,0.0113
3282.00,0.0113
3281.00,0.0112
3280.00,0.0112
3279.00,0.0112
3278.00,0.0111
3277.00,0.0110
3276.00,0.0110
3275.00,0.0109
3274.00,0.0109
3273.00,0.0108
3272.00,0.0108
3271.00,0.0108
3270.00,0.0107
3269.00,0.0107
3268.00,0.0106
3267.00,0.0106
3266.00,0.0105
3265.00,0.0105
3264.00,0.0105
3263.00,0.0104
3262.00,0.0104
3261.00,0.0103
3260.00,0.0103
3259.00,0.0102
3258.00,0.0102
3257.00,0.0102
3256.00,0.0101
3255.00,0.0101
3254.00,0.0101
3253.00,0.0101
3252.00,0.0101
3251.00,0.0100
3250.00,0.0100
3249.00,0.0099
3248.00,0.0098
3247.00,0.0098
3246.00,0.0097
3245.00,0.0097
3244.00,0.0097
3243.00,0.0096
3242.00,0.0096
3241.00,0.0096
3240.00,0.0095
3239.00,0.0095
3238.00,0.0095
3237.00,0.0095
3236.00,0.0095
3235.00,0.0095
3234.00,0.0095
3233.00,0.0095
3232.00,0.0095
3231.00,0.0096
3230.00,0.0096
3229.00,0.0096
3228.00,0.0096
3227.00,0.0096
3226.00,0.0097
3225.00,0.0097
3224.00,0.0097
3223.00,0.0097
3222.00,0.0097
3221.00,0.0098
3220.00,0.0099
3219.00,0.0099
3218.00,0.0099
3217.00,0.0100
3216.00,0.0100
3215.00,0.0101
3214.00,0.0101
3213.00,0.0102
3212.00,0.0102
3211.00,0.0102
3210.00,0.0103
3209.00,0.0104
3208.00,0.0105
3207.00,0.0105
3206.00,0.0105
3205.00,0.0105
3204.00,0.0105
3203.00,0.0105
3202.00,0.0105
3201.00,0.0105
3200.00,0.0104
3199.00,0.0104
3198.00,0.0104
3197.00,0.0104
3196.00,0.0104
3195.00,0.0104
3194.00,0.0104
3193.00,0.0103
3192.00,0.0103
3191.00,0.0102
3190.00,0.0102
3189.00,0.0101
3188.00,0.0101
3187.00,0.0100
3186.00,0.0100
3185.00,0.0099
3184.00,0.0098
3183.00,0.0098
3182.00,0.0097
3181.00,0.0097
3180.00,0.0096
3179.00,0.0095
3178.00,0.0094
3177.00,0.0094
3176.00,0.0093
3175.00,0.0093
3174.00,0.0092
3173.00,0.0092
3172.00,0.0091
3171.00,0.0090
3170.00,0.0089
3169.00,0.0089
3168.00,0.0088
3167.00,0.0087
3166.00,0.0086
3165.00,0.0086
3164.00,0.0086
3163.00,0.0086
3162.00,0.0086
3161.00,0.0086
3160.00,0.0085
3159.00,0.0085
3158.00,0.0084
3157.00,0.0084
3156.00,0.0084
3155.00,0.0084
3154.00,0.0084
3153.00,0.0083
3152.00,0.0083
3151.00,0.0083
3150.00,0.0082
3149.00,0.0082
3148.00,0.0082
3147.00,0.0081
3146.00,0.0081
3145.00,0.0081
3144.00,0.0080
3143.00,0.0080
3142.00,0.0080
3141.00,0.0080
3140.00,0.0079
3139.00,0.0079
3138.00,0.0078
3137.00,0.0078
3136.00,0.0078
3135.00,0.0077
3134.00,0.0077
3133.00,0.0077
3132.00,0.0077
3131.00,0.0076
3130.00,0.0076
3129.00,0.0076
3128.00,0.0076
3127.00,0.0076
3126.00,0.0076
3125.00,0.0076
3124.00,0.0076
3123.00,0.0075
3122.00,0.0075
3121.00,0.0073
3120.00,0.0073
3119.00,0.0072
3118.00,0.0072
3117.00,0.0072
3116.00,0.0071
3115.00,0.0071
3114.00,0.0070
3113.00,0.0070
3112.00,0.0069
3111.00,0.0068
3110.00,0.0068
3109.00,0.0067
3108.00,0.0067
3107.00,0.0066
3106.00,0.0066
3105.00,0.0066
3104.00,0.0066
3103.00,0.0066
3102.00,0.0065
3101.00,0.0065
3100.00,0.0064
3099.00,0.0064
3098.00,0.0063
3097.00,0.0062
3096.00,0.0062
3095.00,0.0061
3094.00,0.0061
3093.00,0.0061
3092.00,0.0060
3091.00,0.0059
3090.00,0.0059
3089.00,0.0058
3088.00,0.0058
3087.00,0.0058
3086.00,0.0058
3085.00,0.0058
3084.00,0.0057
3083.00,0.0057
3082.00,0.0057
3081.00,0.0057
3080.00,0.0057
3079.00,0.0057
3078.00,0.0057
3077.00,0.0057
3076.00,0.0058
3075.00,0.0058
3074.00,0.0058
3073.00,0.0058
3072.00,0.0057
3071.00,0.0057
3070.00,0.0057
3069.00,0.0057
3068.00,0.0057
3067.00,0.0057
3066.00,0.0057
3065.00,0.0057
3064.00,0.0058
3063.00,0.0057
3062.00,0.0057
3061.00,0.0057
3060.00,0.0057
3059.00,0.0056
3058.00,0.0056
3057.00,0.0056
3056.00,0.0056
3055.00,0.0056
3054.00,0.0056
3053.00,0.0056
3052.00,0.0056
3051.00,0.0056
3050.00,0.0056
3049.00,0.0056
3048.00,0.0056
3047.00,0.0056
3046.00,0.0056
3045.00,0.0056
3044.00,0.0056
3043.00,0.0056
3042.00,0.0057
3041.00,0.0057
3040.00,0.0057
3039.00,0.0057
3038.00,0.0057
3037.00,0.0058
3036.00,0.0058
3035.00,0.0058
3034.00,0.0058
3033.00,0.0058
3032.00,0.0058
3031.00,0.0059
3030.00,0.0059
3029.00,0.0060
3028.00,0.0060
3027.00,0.0061
3026.00,0.0061
3025.00,0.0061
3024.00,0.0061
3023.00,0.0062
3022.00,0.0063
3021.00,0.0064
3020.00,0.0065
3019.00,0.0066
3018.00,0.0066
3017.00,0.0067
3016.00,0.0068
3015.00,0.0069
3014.00,0.0070
3013.00,0.0072
3012.00,0.0073
3011.00,0.0075
3010.00,0.0076
3009.00,0.0078
3008.00,0.0080
3007.00,0.0081
3006.00,0.0083
3005.00,0.0085
3004.00,0.0087
3003.00,0.0089
3002.00,0.0091
3001.00,0.0094
3000.00,0.0096
2999.00,0.0099
2998.00,0.0103
2997.00,0.0106
2996.00,0.0110
2995.00,0.0114
2994.00,0.0118
2993.00,0.0123
2992.00,0.0128
2991.00,0.0134
2990.00,0.0141
2989.00,0.0149
2988.00,0.0157
2987.00,0.0166
2986.00,0.0176
2985.00,0.0187
2984.00,0.0200
2983.00,0.0215
2982.00,0.0231
2981.00,0.0249
2980.00,0.0269
2979.00,0.0291
2978.00,0.0317
2977.00,0.0345
2976.00,0.0378
2975.00,0.0416
2974.00,0.0458
2973.00,0.0507
2972.00,0.0562
2971.00,0.0624
2970.00,0.0693
2969.00,0.0768
2968.00,0.0851
2967.00,0.0940
2966.00,0.1033
2965.00,0.1130
2964.00,0.1225
2963.00,0.1316
2962.00,0.1396
2961.00,0.1464
2960.00,0.1518
2959.00,0.1561
2958.00,0.1597
2957.00,0.1632
2956.00,0.1673
2955.00,0.1721
2954.00,0.1779
2953.00,0.1841
2952.00,0.1901
2951.00,0.1946
2950.00,0.1967
2949.00,0.1954
2948.00,0.1901
2947.00,0.1812
2946.00,0.1695
2945.00,0.1563
2944.00,0.1432
2943.00,0.1315
2942.00,0.1219
2941.00,0.1150
2940.00,0.1106
2939.00,0.1085
2938.00,0.1086
2937.00,0.1106
2936.00,0.1142
2935.00,0.1195
2934.00,0.1262
2933.00,0.1341
2932.00,0.1432
2931.00,0.1531
2930.00,0.1636
2929.00,0.1744
2928.00,0.1850
2927.00,0.1953
2926.00,0.2051
2925.00,0.2144
2924.00,0.2234
2923.00,0.2321
2922.00,0.2406
2921.00,0.2486
2920.00,0.2556
2919.00,0.2610
2918.00,0.2639
2917.00,0.2636
2916.00,0.2601
2915.00,0.2538
2914.00,0.2453
2913.00,0.2358
2912.00,0.2262
2911.00,0.2170
2910.00,0.2086
2909.00,0.2009
2908.00,0.1938
2907.00,0.1869
2906.00,0.1802
2905.00,0.1733
2904.00,0.1663
2903.00,0.1592
2902.00,0.1521
2901.00,0.1452
2900.00,0.1385
2899.00,0.1322
2898.00,0.1263
2897.00,0.1210
2896.00,0.1164
2895.00,0.1124
2894.00,0.1092
2893.00,0.1067
2892.00,0.1048
2891.00,0.1037
2890.00,0.1031
2889.00,0.1029
2888.00,0.1031
2887.00,0.1037
2886.00,0.1047
2885.00,0.1061
2884.00,0.1079
2883.00,0.1101
2882.00,0.1128
2881.00,0.1158
2880.00,0.1187
2879.00,0.1212
2878.00,0.1229
2877.00,0.1236
2876.00,0.1234
2875.00,0.1226
2874.00,0.1218
2873.00,0.1215
2872.00,0.1219
2871.00,0.1231
2870.00,0.1249
2869.00,0.1268
2868.00,0.1281
2867.00,0.1280
2866.00,0.1257
2865.00,0.1207
2864.00,0.1135
2863.00,0.1047
2862.00,0.0955
2861.00,0.0868
2860.00,0.0792
2859.00,0.0731
2858.00,0.0685
2857.00,0.0651
2856.00,0.0629
2855.00,0.0616
2854.00,0.0610
2853.00,0.0611
2852.00,0.0618
2851.00,0.0631
2850.00,0.0650
2849.00,0.0675
2848.00,0.0706
2847.00,0.0744
2846.00,0.0791
2845.00,0.0847
2844.00,0.0911
2843.00,0.0982
2842.00,0.1056
2841.00,0.1126
2840.00,0.1185
2839.00,0.1225
2838.00,0.1235
2837.00,0.1212
2836.00,0.1155
2835.00,0.1069
2834.00,0.0965
2833.00,0.0854
2832.00,0.0748
2831.00,0.0653
2830.00,0.0572
2829.00,0.0506
2828.00,0.0452
2827.00,0.0409
2826.00,0.0374
2825.00,0.0346
2824.00,0.0322
2823.00,0.0301
2822.00,0.0284
2821.00,0.0269
2820.00,0.0256
2819.00,0.0245
2818.00,0.0234
2817.00,0.0226
2816.00,0.0218
2815.00,0.0212
2814.00,0.0205
2813.00,0.0199
2812.00,0.0194
2811.00,0.0188
2810.00,0.0183
2809.00,0.0177
2808.00,0.0172
2807.00,0.0166
2806.00,0.0159
2805.00,0.0152
2804.00,0.0146
2803.00,0.0139
2802.00,0.0134
2801.00,0.0130
2800.00,0.0126
2799.00,0.0123
2798.00,0.0120
2797.00,0.0118
2796.00,0.0116
2795.00,0.0113
2794.00,0.0110
2793.00,0.0107
2792.00,0.0104
2791.00,0.0101
2790.00,0.0098
2789.00,0.0095
2788.00,0.0092
2787.00,0.0090
2786.00,0.0087
2785.00,0.0084
2784.00,0.0082
2783.00,0.0080
2782.00,0.0077
2781.00,0.0075
2780.00,0.0073
2779.00,0.0072
2778.00,0.0070
2777.00,0.0069
2776.00,0.0068
2775.00,0.0067
2774.00,0.0066
2773.00,0.0065
2772.00,0.0064
2771.00,0.0064
2770.00,0.0063
2769.00,0.0063
2768.00,0.0063
2767.00,0.0063
2766.00,0.0063
2765.00,0.0063
2764.00,0.0062
2763.00,0.0061
2762.00,0.0061
2761.00,0.0060
2760.00,0.0060
2759.00,0.0059
2758.00,0.0059
2757.00,0.0059
2756.00,0.0059
2755.00,0.0058
2754.00,0.0058
2753.00,0.0058
2752.00,0.0058
2751.00,0.0058
2750.00,0.0058
2749.00,0.0058
2748.00,0.0059
2747.00,0.0059
2746.00,0.0059
2745.00,0.0059
2744.00,0.0060
2743.00,0.0061
2742.00,0.0062
2741.00,0.0064
2740.00,0.0065
2739.00,0.0066
2738.00,0.0068
2737.00,0.0069
2736.00,0.0071
2735.00,0.0072
2734.00,0.0073
2733.00,0.0075
2732.00,0.0077
2731.00,0.0078
2730.00,0.0081
2729.00,0.0083
2728.00,0.0085
2727.00,0.0088
2726.00,0.0091
2725.00,0.0093
2724.00,0.0094
2723.00,0.0095
2722.00,0.0094
2721.00,0.0092
2720.00,0.0090
2719.00,0.0086
2718.00,0.0083
2717.00,0.0079
2716.00,0.0076
2715.00,0.0073
2714.00,0.0071
2713.00,0.0069
2712.00,0.0067
2711.00,0.0065
2710.00,0.0064
2709.00,0.0062
2708.00,0.0061
2707.00,0.0059
2706.00,0.0058
2705.00,0.0057
2704.00,0.0056
2703.00,0.0055
2702.00,0.0054
2701.00,0.0053
2700.00,0.0052
2699.00,0.0052
2698.00,0.0051
2697.00,0.0051
2696.00,0.0051
2695.00,0.0051
2694.00,0.0051
2693.00,0.0050
2692.00,0.0050
2691.00,0.0050
2690.00,0.0050
2689.00,0.0050
2688.00,0.0050
2687.00,0.0050
2686.00,0.0050
2685.00,0.0050
2684.00,0.0050
2683.00,0.0050
2682.00,0.0050
2681.00,0.0050
2680.00,0.0050
2679.00,0.0050
2678.00,0.0050
2677.00,0.0050
2676.00,0.0050
2675.00,0.0050
2674.00,0.0050
2673.00,0.0050
2672.00,0.0049
2671.00,0.0049
2670.00,0.0049
2669.00,0.0049
2668.00,0.0049
2667.00,0.0049
2666.00,0.0050
2665.00,0.0050
2664.00,0.0051
2663.00,0.0052
2662.00,0.0052
2661.00,0.0052
2660.00,0.0052
2659.00,0.0052
2658.00,0.0052
2657.00,0.0052
2656.00,0.0052
2655.00,0.0051
2654.00,0.0051
2653.00,0.0050
2652.00,0.0050
2651.00,0.0049
2650.00,0.0048
2649.00,0.0047
2648.00,0.0047
2647.00,0.0046
2646.00,0.0046
2645.00,0.0046
2644.00,0.0045
2643.00,0.0045
2642.00,0.0044
2641.00,0.0044
2640.00,0.0044
2639.00,0.0044
2638.00,0.0044
2637.00,0.0043
2636.00,0.0043
2635.00,0.0043
2634.00,0.0043
2633.00,0.0042
2632.00,0.0042
2631.00,0.0042
2630.00,0.0042
2629.00,0.0042
2628.00,0.0043
2627.00,0.0043
2626.00,0.0043
2625.00,0.0044
2624.00,0.0044
2623.00,0.0044
2622.00,0.0044
2621.00,0.0044
2620.00,0.0043
2619.00,0.0043
2618.00,0.0043
2617.00,0.0043
2616.00,0.0043
2615.00,0.0043
2614.00,0.0043
2613.00,0.0043
2612.00,0.0043
2611.00,0.0042
2610.00,0.0041
2609.00,0.0041
2608.00,0.0040
2607.00,0.0039
2606.00,0.0039
2605.00,0.0038
2604.00,0.0037
2603.00,0.0037
2602.00,0.0036
2601.00,0.0035
2600.00,0.0035
2599.00,0.0035
2598.00,0.0034
2597.00,0.0035
2596.00,0.0035
2595.00,0.0035
2594.00,0.0035
2593.00,0.0035
2592.00,0.0035
2591.00,0.0036
2590.00,0.0037
2589.00,0.0038
2588.00,0.0039
2587.00,0.0040
2586.00,0.0041
2585.00,0.0042
2584.00,0.0043
2583.00,0.0044
2582.00,0.0044
2581.00,0.0043
2580.00,0.0042
2579.00,0.0041
2578.00,0.0041
2577.00,0.0039
2576.00,0.0038
2575.00,0.0037
2574.00,0.0036
2573.00,0.0035
2572.00,0.0033
2571.00,0.0033
2570.00,0.0032
2569.00,0.0032
2568.00,0.0031
2567.00,0.0030
2566.00,0.0029
2565.00,0.0028
2564.00,0.0028
2563.00,0.0028
2562.00,0.0028
2561.00,0.0029
2560.00,0.0029
2559.00,0.0029
2558.00,0.0029
2557.00,0.0028
2556.00,0.0028
2555.00,0.0027
2554.00,0.0027
2553.00,0.0026
2552.00,0.0025
2551.00,0.0025
2550.00,0.0024
2549.00,0.0024
2548.00,0.0023
2547.00,0.0022
2546.00,0.0022
2545.00,0.0021
2544.00,0.0020
2543.00,0.0020
2542.00,0.0020
2541.00,0.0020
2540.00,0.0020
2539.00,0.0020
2538.00,0.0020
2537.00,0.0020
2536.00,0.0020
2535.00,0.0019
2534.00,0.0018
2533.00,0.0018
2532.00,0.0017
2531.00,0.0017
2530.00,0.0018
2529.00,0.0018
2528.00,0.0018
2527.00,0.0018
2526.00,0.0018
2525.00,0.0017
2524.00,0.0017
2523.00,0.0016
2522.00,0.0015
2521.00,0.0015
2520.00,0.0015
2519.00,0.0015
2518.00,0.0015
2517.00,0.0015
2516.00,0.0015
2515.00,0.0014
2514.00,0.0014
2513.00,0.0013
2512.00,0.0013
2511.00,0.0013
2510.00,0.0013
2509.00,0.0013
2508.00,0.0013
2507.00,0.0013
2506.00,0.0013
2505.00,0.0013
2504.00,0.0013
2503.00,0.0013
2502.00,0.0013
2501.00,0.0013
2500.00,0.0014
2499.00,0.0014
2498.00,0.0014
2497.00,0.0014
2496.00,0.0014
2495.00,0.0013
2494.00,0.0013
2493.00,0.0013
2492.00,0.0013
2491.00,0.0013
2490.00,0.0013
2489.00,0.0013
2488.00,0.0013
2487.00,0.0014
2486.00,0.0014
2485.00,0.0014
2484.00,0.0014
2483.00,0.0014
2482.00,0.0013
2481.00,0.0013
2480.00,0.0012
2479.00,0.0012
2478.00,0.0012
2477.00,0.0012
2476.00,0.0012
2475.00,0.0012
2474.00,0.0012
2473.00,0.0013
2472.00,0.0012
2471.00,0.0012
2470.00,0.0012
2469.00,0.0012
2468.00,0.0011
2467.00,0.0011
2466.00,0.0010
2465.00,0.0010
2464.00,0.0010
2463.00,0.0011
2462.00,0.0011
2461.00,0.0012
2460.00,0.0012
2459.00,0.0013
2458.00,0.0013
2457.00,0.0014
2456.00,0.0013
2455.00,0.0013
2454.00,0.0013
2453.00,0.0013
2452.00,0.0013
2451.00,0.0013
2450.00,0.0013
2449.00,0.0013
2448.00,0.0013
2447.00,0.0012
2446.00,0.0012
2445.00,0.0012
2444.00,0.0012
2443.00,0.0011
2442.00,0.0011
2441.00,0.0012
2440.00,0.0012
2439.00,0.0013
2438.00,0.0013
2437.00,0.0013
2436.00,0.0013
2435.00,0.0013
2434.00,0.0012
2433.00,0.0012
2432.00,0.0013
2431.00,0.0013
2430.00,0.0013
2429.00,0.0014
2428.00,0.0013
2427.00,0.0013
2426.00,0.0012
2425.00,0.0012
2424.00,0.0012
2423.00,0.0012
2422.00,0.0012
2421.00,0.0013
2420.00,0.0013
2419.00,0.0013
2418.00,0.0013
2417.00,0.0012
2416.00,0.0012
2415.00,0.0011
2414.00,0.0011
2413.00,0.0011
2412.00,0.0011
2411.00,0.0012
2410.00,0.0012
2409.00,0.0012
2408.00,0.0011
2407.00,0.0011
2406.00,0.0010
2405.00,0.0010
2404.00,0.0010
2403.00,0.0010
2402.00,0.0011
2401.00,0.0011
2400.00,0.0011
2399.00,0.0010
2398.00,0.0010
2397.00,0.0010
2396.00,0.0011
2395.00,0.0011
2394.00,0.0011
2393.00,0.0010
2392.00,0.0010
2391.00,0.0010
2390.00,0.0010
2389.00,0.0010
2388.00,0.0010
2387.00,0.0010
2386.00,0.0010
2385.00,0.0009
2384.00,0.0008
2383.00,0.0008
2382.00,0.0007
2381.00,0.0006
2380.00,0.0005
2379.00,0.0004
2378.00,0.0004
2377.00,0.0004
2376.00,0.0005
2375.00,0.0006
2374.00,0.0007
2373.00,0.0007
2372.00,0.0007
2371.00,0.0006
2370.00,0.0005
2369.00,0.0005
2368.00,0.0005
2367.00,0.0005
2366.00,0.0006
2365.00,0.0006
2364.00,0.0006
2363.00,0.0006
2362.00,0.0005
2361.00,0.0005
2360.00,0.0005
2359.00,0.0005
2358.00,0.0006
2357.00,0.0006
2356.00,0.0006
2355.00,0.0005
2354.00,0.0004
2353.00,0.0003
2352.00,0.0004
2351.00,0.0006
2350.00,0.0006
2349.00,0.0007
2348.00,0.0006
2347.00,0.0007
2346.00,0.0008
2345.00,0.0009
2344.00,0.0010
2343.00,0.0010
2342.00,0.0009
2341.00,0.0009
2340.00,0.0009
2339.00,0.0009
2338.00,0.0009
2337.00,0.0008
2336.00,0.0008
2335.00,0.0008
2334.00,0.0007
2333.00,0.0006
2332.00,0.0006
2331.00,0.0007
2330.00,0.0008
2329.00,0.0010
2328.00,0.0012
2327.00,0.0015
2326.00,0.0019
2325.00,0.0023
2324.00,0.0024
2323.00,0.0024
2322.00,0.0022
2321.00,0.0021
2320.00,0.0020
2319.00,0.0020
2318.00,0.0019
2317.00,0.0019
2316.00,0.0018
2315.00,0.0017
2314.00,0.0017
2313.00,0.0016
2312.00,0.0015
2311.00,0.0014
2310.00,0.0014
2309.00,0.0014
2308.00,0.0015
2307.00,0.0015
2306.00,0.0015
2305.00,0.0014
2304.00,0.0015
2303.00,0.0015
2302.00,0.0016
2301.00,0.0016
2300.00,0.0016
2299.00,0.0016
2298.00,0.0015
2297.00,0.0015
2296.00,0.0016
2295.00,0.0017
2294.00,0.0018
2293.00,0.0018
2292.00,0.0019
2291.00,0.0020
2290.00,0.0021
2289.00,0.0021
2288.00,0.0021
2287.00,0.0021
2286.00,0.0020
2285.00,0.0020
2284.00,0.0020
2283.00,0.0020
2282.00,0.0019
2281.00,0.0020
2280.00,0.0020
2279.00,0.0019
2278.00,0.0018
2277.00,0.0017
2276.00,0.0015
2275.00,0.0015
2274.00,0.0014
2273.00,0.0014
2272.00,0.0014
2271.00,0.0014
2270.00,0.0014
2269.00,0.0015
2268.00,0.0014
2267.00,0.0013
2266.00,0.0012
2265.00,0.0011
2264.00,0.0011
2263.00,0.0013
2262.00,0.0014
2261.00,0.0015
2260.00,0.0016
2259.00,0.0016
2258.00,0.0015
2257.00,0.0013
2256.00,0.0011
2255.00,0.0010
2254.00,0.0010
2253.00,0.0011
2252.00,0.0012
2251.00,0.0011
2250.00,0.0011
2249.00,0.0010
2248.00,0.0010
2247.00,0.0010
2246.00,0.0009
2245.00,0.0009
2244.00,0.0009
2243.00,0.0009
2242.00,0.0009
2241.00,0.0009
2240.00,0.0008
2239.00,0.0008
2238.00,0.0008
2237.00,0.0008
2236.00,0.0009
2235.00,0.0011
2234.00,0.0012
2233.00,0.0013
2232.00,0.0013
2231.00,0.0011
2230.00,0.0010
2229.00,0.0009
2228.00,0.0008
2227.00,0.0007
2226.00,0.0006
2225.00,0.0006
2224.00,0.0008
2223.00,0.0009
2222.00,0.0010
2221.00,0.0011
2220.00,0.0010
2219.00,0.0008
2218.00,0.0006
2217.00,0.0004
2216.00,0.0003
2215.00,0.0003
2214.00,0.0003
2213.00,0.0003
2212.00,0.0003
2211.00,0.0004
2210.00,0.0004
2209.00,0.0003
2208.00,0.0002
2207.00,0.0002
2206.00,0.0001
2205.00,0.0001
2204.00,0.0002
2203.00,0.0004
2202.00,0.0005
2201.00,0.0006
2200.00,0.0006
2199.00,0.0006
2198.00,0.0006
2197.00,0.0007
2196.00,0.0009
2195.00,0.0010
2194.00,0.0011
2193.00,0.0012
2192.00,0.0013
2191.00,0.0013
2190.00,0.0013
2189.00,0.0012
2188.00,0.0010
2187.00,0.0009
2186.00,0.0009
2185.00,0.0009
2184.00,0.0007
2183.00,0.0005
2182.00,0.0004
2181.00,0.0003
2180.00,0.0004
2179.00,0.0007
2178.00,0.0009
2177.00,0.0010
2176.00,0.0010
2175.00,0.0009
2174.00,0.0008
2173.00,0.0009
2172.00,0.0009
2171.00,0.0009
2170.00,0.0010
2169.00,0.0013
2168.00,0.0015
2167.00,0.0016
2166.00,0.0015
2165.00,0.0015
2164.00,0.0017
2163.00,0.0022
2162.00,0.0024
2161.00,0.0019
2160.00,0.0006
2159.00,-0.0011
2158.00,-0.0026
2157.00,-0.0033
2156.00,-0.0034
2155.00,-0.0033
2154.00,-0.0031
2153.00,-0.0030
2152.00,-0.0028
2151.00,-0.0027
2150.00,-0.0024
2149.00,-0.0021
2148.00,-0.0016
2147.00,-0.0012
2146.00,-0.0009
2145.00,-0.0007
2144.00,-0.0007
2143.00,-0.0008
2142.00,-0.0009
2141.00,-0.0011
2140.00,-0.0012
2139.00,-0.0012
2138.00,-0.0013
2137.00,-0.0013
2136.00,-0.0015
2135.00,-0.0016
2134.00,-0.0017
2133.00,-0.0017
2132.00,-0.0015
2131.00,-0.0013
2130.00,-0.0011
2129.00,-0.0008
2128.00,-0.0005
2127.00,-0.0004
2126.00,-0.0003
2125.00,-0.0003
2124.00,-0.0003
2123.00,-0.0004
2122.00,-0.0004
2121.00,-0.0003
2120.00,-0.0002
2119.00,-0.0000
2118.00,0.0001
2117.00,0.0002
2116.00,0.0003
2115.00,0.0002
2114.00,0.0002
2113.00,0.0003
2112.00,0.0004
2111.00,0.0004
2110.00,0.0003
2109.00,0.0003
2108.00,0.0002
2107.00,0.0001
2106.00,0.0000
2105.00,0.0001
2104.00,0.0003
2103.00,0.0004
2102.00,0.0005
2101.00,0.0005
2100.00,0.0004
2099.00,0.0004
2098.00,0.0003
2097.00,0.0002
2096.00,-0.0000
2095.00,-0.0002
2094.00,-0.0004
2093.00,-0.0004
2092.00,-0.0003
2091.00,-0.0001
2090.00,0.0001
2089.00,0.0001
2088.00,0.0001
2087.00,0.0002
2086.00,0.0003
2085.00,0.0004
2084.00,0.0005
2083.00,0.0006
2082.00,0.0007
2081.00,0.0008
2080.00,0.0008
2079.00,0.0007
2078.00,0.0006
2077.00,0.0006
2076.00,0.0006
2075.00,0.0006
2074.00,0.0005
2073.00,0.0003
2072.00,0.0001
2071.00,0.0001
2070.00,0.0001
2069.00,0.0002
2068.00,0.0002
2067.00,0.0001
2066.00,-0.0000
2065.00,-0.0001
2064.00,-0.0001
2063.00,-0.0001
2062.00,-0.0001
2061.00,-0.0000
2060.00,0.0000
2059.00,0.0000
2058.00,0.0001
2057.00,0.0001
2056.00,0.0001
2055.00,0.0001
2054.00,0.0002
2053.00,0.0005
2052.00,0.0011
2051.00,0.0015
2050.00,0.0016
2049.00,0.0013
2048.00,0.0009
2047.00,0.0006
2046.00,0.0004
2045.00,0.0002
2044.00,-0.0000
2043.00,-0.0002
2042.00,-0.0001
2041.00,0.0002
2040.00,0.0005
2039.00,0.0007
2038.00,0.0007
2037.00,0.0005
2036.00,0.0001
2035.00,-0.0003
2034.00,-0.0006
2033.00,-0.0005
2032.00,-0.0001
2031.00,0.0001
2030.00,0.0002
2029.00,0.0002
2028.00,0.0001
2027.00,-0.0000
2026.00,-0.0003
2025.00,-0.0006
2024.00,-0.0009
2023.00,-0.0011
2022.00,-0.0012
2021.00,-0.0012
2020.00,-0.0012
2019.00,-0.0011
2018.00,-0.0009
2017.00,-0.0007
2016.00,-0.0005
2015.00,-0.0006
2014.00,-0.0008
2013.00,-0.0009
2012.00,-0.0009
2011.00,-0.0008
2010.00,-0.0008
2009.00,-0.0011
2008.00,-0.0014
2007.00,-0.0018
2006.00,-0.0019
2005.00,-0.0017
2004.00,-0.0012
2003.00,-0.0009
2002.00,-0.0009
2001.00,-0.0011
2000.00,-0.0013
1999.00,-0.0014
1998.00,-0.0015
1997.00,-0.0015
1996.00,-0.0015
1995.00,-0.0016
1994.00,-0.0017
1993.00,-0.0016
1992.00,-0.0013
1991.00,-0.0009
1990.00,-0.0005
1989.00,-0.0001
1988.00,0.0002
1987.00,0.0003
1986.00,0.0003
1985.00,0.0004
1984.00,0.0005
1983.00,0.0007
1982.00,0.0009
1981.00,0.0012
1980.00,0.0013
1979.00,0.0009
1978.00,0.0003
1977.00,-0.0003
1976.00,-0.0008
1975.00,-0.0013
1974.00,-0.0018
1973.00,-0.0020
1972.00,-0.0018
1971.00,-0.0014
1970.00,-0.0012
1969.00,-0.0011
1968.00,-0.0012
1967.00,-0.0013
1966.00,-0.0015
1965.00,-0.0016
1964.00,-0.0017
1963.00,-0.0018
1962.00,-0.0020
1961.00,-0.0023
1960.00,-0.0025
1959.00,-0.0027
1958.00,-0.0027
1957.00,-0.0025
1956.00,-0.0022
1955.00,-0.0019
1954.00,-0.0017
1953.00,-0.0016
1952.00,-0.0016
1951.00,-0.0016
1950.00,-0.0016
1949.00,-0.0016
1948.00,-0.0016
1947.00,-0.0016
1946.00,-0.0016
1945.00,-0.0015
1944.00,-0.0014
1943.00,-0.0014
1942.00,-0.0014
1941.00,-0.0015
1940.00,-0.0014
1939.00,-0.0014
1938.00,-0.0014
1937.00,-0.0014
1936.00,-0.0012
1935.00,-0.0010
1934.00,-0.0008
1933.00,-0.0008
1932.00,-0.0008
1931.00,-0.0009
1930.00,-0.0009
1929.00,-0.0009
1928.00,-0.0008
1927.00,-0.0007
1926.00,-0.0007
1925.00,-0.0007
1924.00,-0.0008
1923.00,-0.0008
1922.00,-0.0006
1921.00,-0.0004
1920.00,-0.0003
1919.00,-0.0002
1918.00,-0.0002
1917.00,-0.0003
1916.00,-0.0004
1915.00,-0.0005
1914.00,-0.0005
1913.00,-0.0005
1912.00,-0.0003
1911.00,-0.0002
1910.00,-0.0002
1909.00,-0.0003
1908.00,-0.0004
1907.00,-0.0005
1906.00,-0.0005
1905.00,-0.0004
1904.00,-0.0003
1903.00,-0.0002
1902.00,-0.0002
1901.00,-0.0002
1900.00,-0.0002
1899.00,-0.0002
1898.00,-0.0002
1897.00,-0.0002
1896.00,-0.0002
1895.00,-0.0001
1894.00,-0.0000
1893.00,0.0000
1892.00,0.0001
1891.00,0.0001
1890.00,0.0001
1889.00,0.0000
1888.00,-0.0000
1887.00,-0.0001
1886.00,-0.0002
1885.00,-0.0001
1884.00,-0.0001
1883.00,-0.0002
1882.00,-0.0002
1881.00,-0.0003
1880.00,-0.0002
1879.00,-0.0001
1878.00,-0.0000
1877.00,0.0000
1876.00,0.0001
1875.00,0.0001
1874.00,0.0001
1873.00,0.0001
1872.00,0.0001
1871.00,-0.0000
1870.00,-0.0001
1869.00,-0.0000
1868.00,0.0000
1867.00,0.0001
1866.00,0.0001
1865.00,0.0001
1864.00,0.0001
1863.00,0.0001
1862.00,0.0001
1861.00,0.0002
1860.00,0.0002
1859.00,0.0002
1858.00,0.0002
1857.00,0.0002
1856.00,0.0002
1855.00,0.0002
1854.00,0.0003
1853.00,0.0003
1852.00,0.0003
1851.00,0.0003
1850.00,0.0002
1849.00,0.0002
1848.00,0.0003
1847.00,0.0003
1846.00,0.0003
1845.00,0.0003
1844.00,0.0004
1843.00,0.0004
1842.00,0.0004
1841.00,0.0004
1840.00,0.0003
1839.00,0.0002
1838.00,0.0002
1837.00,0.0002
1836.00,0.0003
1835.00,0.0004
1834.00,0.0005
1833.00,0.0005
1832.00,0.0005
1831.00,0.0005
1830.00,0.0005
1829.00,0.0005
1828.00,0.0005
1827.00,0.0005
1826.00,0.0004
1825.00,0.0004
1824.00,0.0004
1823.00,0.0005
1822.00,0.0005
1821.00,0.0005
1820.00,0.0004
1819.00,0.0003
1818.00,0.0002
1817.00,0.0001
1816.00,0.0002
1815.00,0.0002
1814.00,0.0003
1813.00,0.0003
1812.00,0.0003
1811.00,0.0004
1810.00,0.0004
1809.00,0.0005
1808.00,0.0005
1807.00,0.0005
1806.00,0.0005
1805.00,0.0006
1804.00,0.0006
1803.00,0.0006
1802.00,0.0006
1801.00,0.0006
1800.00,0.0007
1799.00,0.0007
1798.00,0.0007
1797.00,0.0007
1796.00,0.0008
1795.00,0.0009
1794.00,0.0009
1793.00,0.0010
1792.00,0.0010
1791.00,0.0010
1790.00,0.0010
1789.00,0.0010
1788.00,0.0010
1787.00,0.0010
1786.00,0.0009
1785.00,0.0009
1784.00,0.0010
1783.00,0.0010
1782.00,0.0010
1781.00,0.0010
1780.00,0.0009
1779.00,0.0009
1778.00,0.0009
1777.00,0.0009
1776.00,0.0009
1775.00,0.0010
1774.00,0.0010
1773.00,0.0011
1772.00,0.0011
1771.00,0.0011
1770.00,0.0011
1769.00,0.0012
1768.00,0.0012
1767.00,0.0013
1766.00,0.0014
1765.00,0.0014
1764.00,0.0014
1763.00,0.0014
1762.00,0.0015
1761.00,0.0015
1760.00,0.0015
1759.00,0.0015
1758.00,0.0015
1757.00,0.0015
1756.00,0.0016
1755.00,0.0016
1754.00,0.0017
1753.00,0.0017
1752.00,0.0018
1751.00,0.0018
1750.00,0.0018
1749.00,0.0018
1748.00,0.0019
1747.00,0.0019
1746.00,0.0019
1745.00,0.0019
1744.00,0.0019
1743.00,0.0020
1742.00,0.0020
1741.00,0.0021
1740.00,0.0022
1739.00,0.0022
1738.00,0.0022
1737.00,0.0023
1736.00,0.0023
1735.00,0.0023
1734.00,0.0023
1733.00,0.0022
1732.00,0.0021
1731.00,0.0021
1730.00,0.0021
1729.00,0.0021
1728.00,0.0022
1727.00,0.0022
1726.00,0.0021
1725.00,0.0021
1724.00,0.0022
1723.00,0.0022
1722.00,0.0023
1721.00,0.0024
1720.00,0.0025
1719.00,0.0026
1718.00,0.0027
1717.00,0.0027
1716.00,0.0027
1715.00,0.0027
1714.00,0.0027
1713.00,0.0027
1712.00,0.0028
1711.00,0.0028
1710.00,0.0029
1709.00,0.0029
1708.00,0.0030
1707.00,0.0030
1706.00,0.0030
1705.00,0.0032
1704.00,0.0033
1703.00,0.0034
1702.00,0.0035
1701.00,0.0037
1700.00,0.0040
1699.00,0.0042
1698.00,0.0042
1697.00,0.0043
1696.00,0.0044
1695.00,0.0044
1694.00,0.0045
1693.00,0.0045
1692.00,0.0046
1691.00,0.0047
1690.00,0.0048
1689.00,0.0050
1688.00,0.0053
1687.00,0.0054
1686.00,0.0055
1685.00,0.0056
1684.00,0.0058
1683.00,0.0060
1682.00,0.0061
1681.00,0.0063
1680.00,0.0065
1679.00,0.0067
1678.00,0.0068
1677.00,0.0069
1676.00,0.0071
1675.00,0.0073
1674.00,0.0075
1673.00,0.0076
1672.00,0.0077
1671.00,0.0079
1670.00,0.0081
1669.00,0.0084
1668.00,0.0086
1667.00,0.0088
1666.00,0.0089
1665.00,0.0090
1664.00,0.0092
1663.00,0.0095
1662.00,0.0098
1661.00,0.0102
1660.00,0.0105
1659.00,0.0108
1658.00,0.0111
1657.00,0.0114
1656.00,0.0118
1655.00,0.0122
1654.00,0.0128
1653.00,0.0135
1652.00,0.0138
1651.00,0.0139
1650.00,0.0139
1649.00,0.0140
1648.00,0.0144
1647.00,0.0150
1646.00,0.0154
1645.00,0.0158
1644.00,0.0160
1643.00,0.0162
1642.00,0.0164
1641.00,0.0165
1640.00,0.0166
1639.00,0.0167
1638.00,0.0167
1637.00,0.0167
1636.00,0.0167
1635.00,0.0167
1634.00,0.0165
1633.00,0.0163
1632.00,0.0162
1631.00,0.0159
1630.00,0.0157
1629.00,0.0155
1628.00,0.0153
1627.00,0.0151
1626.00,0.0150
1625.00,0.0148
1624.00,0.0147
1623.00,0.0145
1622.00,0.0144
1621.00,0.0143
1620.00,0.0143
1619.00,0.0143
1618.00,0.0143
1617.00,0.0143
1616.00,0.0144
1615.00,0.0144
1614.00,0.0144
1613.00,0.0144
1612.00,0.0145
1611.00,0.0145
1610.00,0.0145
1609.00,0.0144
1608.00,0.0144
1607.00,0.0144
1606.00,0.0144
1605.00,0.0143
1604.00,0.0143
1603.00,0.0142
1602.00,0.0140
1601.00,0.0138
1600.00,0.0136
1599.00,0.0134
1598.00,0.0132
1597.00,0.0130
1596.00,0.0128
1595.00,0.0125
1594.00,0.0124
1593.00,0.0122
1592.00,0.0121
1591.00,0.0121
1590.00,0.0121
1589.00,0.0121
1588.00,0.0122
1587.00,0.0124
1586.00,0.0125
1585.00,0.0127
1584.00,0.0130
1583.00,0.0132
1582.00,0.0134
1581.00,0.0135
1580.00,0.0135
1579.00,0.0134
1578.00,0.0132
1577.00,0.0130
1576.00,0.0127
1575.00,0.0125
1574.00,0.0122
1573.00,0.0121
1572.00,0.0119
1571.00,0.0118
1570.00,0.0116
1569.00,0.0116
1568.00,0.0115
1567.00,0.0115
1566.00,0.0114
1565.00,0.0114
1564.00,0.0113
1563.00,0.0113
1562.00,0.0113
1561.00,0.0113
1560.00,0.0114
1559.00,0.0114
1558.00,0.0115
1557.00,0.0115
1556.00,0.0116
1555.00,0.0117
1554.00,0.0120
1553.00,0.0122
1552.00,0.0125
1551.00,0.0128
1550.00,0.0131
1549.00,0.0135
1548.00,0.0139
1547.00,0.0143
1546.00,0.0148
1545.00,0.0155
1544.00,0.0162
1543.00,0.0168
1542.00,0.0175
1541.00,0.0181
1540.00,0.0187
1539.00,0.0190
1538.00,0.0191
1537.00,0.0191
1536.00,0.0191
1535.00,0.0190
1534.00,0.0187
1533.00,0.0184
1532.00,0.0180
1531.00,0.0175
1530.00,0.0171
1529.00,0.0166
1528.00,0.0161
1527.00,0.0156
1526.00,0.0150
1525.00,0.0145
1524.00,0.0141
1523.00,0.0137
1522.00,0.0132
1521.00,0.0128
1520.00,0.0124
1519.00,0.0121
1518.00,0.0117
1517.00,0.0114
1516.00,0.0112
1515.00,0.0111
1514.00,0.0109
1513.00,0.0108
1512.00,0.0107
1511.00,0.0106
1510.00,0.0105
1509.00,0.0104
1508.00,0.0104
1507.00,0.0104
1506.00,0.0104
1505.00,0.0105
1504.00,0.0106
1503.00,0.0107
1502.00,0.0109
1501.00,0.0113
1500.00,0.0119
1499.00,0.0127
1498.00,0.0136
1497.00,0.0149
1496.00,0.0162
1495.00,0.0170
1494.00,0.0176
1493.00,0.0178
1492.00,0.0179
1491.00,0.0176
1490.00,0.0171
1489.00,0.0169
1488.00,0.0168
1487.00,0.0168
1486.00,0.0170
1485.00,0.0174
1484.00,0.0179
1483.00,0.0186
1482.00,0.0194
1481.00,0.0204
1480.00,0.0215
1479.00,0.0227
1478.00,0.0241
1477.00,0.0260
1476.00,0.0283
1475.00,0.0309
1474.00,0.0343
1473.00,0.0394
1472.00,0.0458
1471.00,0.0521
1470.00,0.0582
1469.00,0.0646
1468.00,0.0716
1467.00,0.0793
1466.00,0.0881
1465.00,0.0977
1464.00,0.1063
1463.00,0.1125
1462.00,0.1168
1461.00,0.1200
1460.00,0.1224
1459.00,0.1242
1458.00,0.1259
1457.00,0.1275
1456.00,0.1281
1455.00,0.1278
1454.00,0.1270
1453.00,0.1257
1452.00,0.1234
1451.00,0.1197
1450.00,0.1145
1449.00,0.1070
1448.00,0.0974
1447.00,0.0873
1446.00,0.0782
1445.00,0.0704
1444.00,0.0638
1443.00,0.0584
1442.00,0.0545
1441.00,0.0519
1440.00,0.0505
1439.00,0.0499
1438.00,0.0501
1437.00,0.0502
1436.00,0.0492
1435.00,0.0465
1434.00,0.0426
1433.00,0.0379
1432.00,0.0332
1431.00,0.0290
1430.00,0.0259
1429.00,0.0236
1428.00,0.0221
1427.00,0.0213
1426.00,0.0208
1425.00,0.0204
1424.00,0.0201
1423.00,0.0200
1422.00,0.0201
1421.00,0.0201
1420.00,0.0201
1419.00,0.0200
1418.00,0.0198
1417.00,0.0195
1416.00,0.0192
1415.00,0.0190
1414.00,0.0188
1413.00,0.0184
1412.00,0.0180
1411.00,0.0177
1410.00,0.0175
1409.00,0.0172
1408.00,0.0169
1407.00,0.0168
1406.00,0.0167
1405.00,0.0166
1404.00,0.0165
1403.00,0.0165
1402.00,0.0166
1401.00,0.0166
1400.00,0.0166
1399.00,0.0168
1398.00,0.0170
1397.00,0.0171
1396.00,0.0172
1395.00,0.0176
1394.00,0.0181
1393.00,0.0187
1392.00,0.0193
1391.00,0.0201
1390.00,0.0213
1389.00,0.0231
1388.00,0.0257
1387.00,0.0296
1386.00,0.0347
1385.00,0.0412
1384.00,0.0496
1383.00,0.0610
1382.00,0.0759
1381.00,0.0949
1380.00,0.1184
1379.00,0.1456
1378.00,0.1725
1377.00,0.1931
1376.00,0.2014
1375.00,0.1935
1374.00,0.1711
1373.00,0.1429
1372.00,0.1162
1371.00,0.0939
1370.00,0.0759
1369.00,0.0621
1368.00,0.0525
1367.00,0.0466
1366.00,0.0434
1365.00,0.0421
1364.00,0.0424
1363.00,0.0438
1362.00,0.0461
1361.00,0.0486
1360.00,0.0505
1359.00,0.0511
1358.00,0.0500
1357.00,0.0472
1356.00,0.0432
1355.00,0.0387
1354.00,0.0343
1353.00,0.0305
1352.00,0.0274
1351.00,0.0250
1350.00,0.0230
1349.00,0.0215
1348.00,0.0203
1347.00,0.0193
1346.00,0.0185
1345.00,0.0179
1344.00,0.0175
1343.00,0.0171
1342.00,0.0167
1341.00,0.0164
1340.00,0.0161
1339.00,0.0158
1338.00,0.0155
1337.00,0.0153
1336.00,0.0153
1335.00,0.0154
1334.00,0.0156
1333.00,0.0161
1332.00,0.0165
1331.00,0.0169
1330.00,0.0170
1329.00,0.0168
1328.00,0.0164
1327.00,0.0158
1326.00,0.0152
1325.00,0.0144
1324.00,0.0138
1323.00,0.0132
1322.00,0.0128
1321.00,0.0125
1320.00,0.0122
1319.00,0.0120
1318.00,0.0117
1317.00,0.0116
1316.00,0.0114
1315.00,0.0113
1314.00,0.0113
1313.00,0.0113
1312.00,0.0114
1311.00,0.0117
1310.00,0.0121
1309.00,0.0127
1308.00,0.0137
1307.00,0.0149
1306.00,0.0160
1305.00,0.0169
1304.00,0.0172
1303.00,0.0170
1302.00,0.0165
1301.00,0.0161
1300.00,0.0158
1299.00,0.0157
1298.00,0.0157
1297.00,0.0157
1296.00,0.0156
1295.00,0.0153
1294.00,0.0148
1293.00,0.0142
1292.00,0.0136
1291.00,0.0130
1290.00,0.0125
1289.00,0.0121
1288.00,0.0117
1287.00,0.0114
1286.00,0.0112
1285.00,0.0109
1284.00,0.0107
1283.00,0.0106
1282.00,0.0104
1281.00,0.0102
1280.00,0.0101
1279.00,0.0099
1278.00,0.0098
1277.00,0.0097
1276.00,0.0097
1275.00,0.0097
1274.00,0.0097
1273.00,0.0097
1272.00,0.0097
1271.00,0.0098
1270.00,0.0099
1269.00,0.0100
1268.00,0.0102
1267.00,0.0104
1266.00,0.0106
1265.00,0.0108
1264.00,0.0111
1263.00,0.0115
1262.00,0.0119
1261.00,0.0124
1260.00,0.0130
1259.00,0.0138
1258.00,0.0146
1257.00,0.0153
1256.00,0.0158
1255.00,0.0157
1254.00,0.0153
1253.00,0.0146
1252.00,0.0138
1251.00,0.0132
1250.00,0.0127
1249.00,0.0123
1248.00,0.0120
1247.00,0.0118
1246.00,0.0117
1245.00,0.0116
1244.00,0.0115
1243.00,0.0115
1242.00,0.0114
1241.00,0.0113
1240.00,0.0112
1239.00,0.0111
1238.00,0.0109
1237.00,0.0108
1236.00,0.0107
1235.00,0.0106
1234.00,0.0105
1233.00,0.0104
1232.00,0.0103
1231.00,0.0103
1230.00,0.0104
1229.00,0.0105
1228.00,0.0107
1227.00,0.0108
1226.00,0.0110
1225.00,0.0113
1224.00,0.0116
1223.00,0.0120
1222.00,0.0124
1221.00,0.0127
1220.00,0.0129
1219.00,0.0129
1218.00,0.0128
1217.00,0.0126
1216.00,0.0123
1215.00,0.0119
1214.00,0.0116
1213.00,0.0113
1212.00,0.0111
1211.00,0.0108
1210.00,0.0105
1209.00,0.0102
1208.00,0.0100
1207.00,0.0098
1206.00,0.0097
1205.00,0.0097
1204.00,0.0096
1203.00,0.0096
1202.00,0.0096
1201.00,0.0095
1200.00,0.0095
1199.00,0.0095
1198.00,0.0095
1197.00,0.0094
1196.00,0.0094
1195.00,0.0094
1194.00,0.0094
1193.00,0.0093
1192.00,0.0093
1191.00,0.0093
1190.00,0.0094
1189.00,0.0094
1188.00,0.0095
1187.00,0.0095
1186.00,0.0096
1185.00,0.0098
1184.00,0.0099
1183.00,0.0101
1182.00,0.0103
1181.00,0.0105
1180.00,0.0109
1179.00,0.0114
1178.00,0.0120
1177.00,0.0129
1176.00,0.0141
1175.00,0.0157
1174.00,0.0178
1173.00,0.0204
1172.00,0.0235
1171.00,0.0269
1170.00,0.0302
1169.00,0.0329
1168.00,0.0345
1167.00,0.0349
1166.00,0.0343
1165.00,0.0329
1164.00,0.0311
1163.00,0.0294
1162.00,0.0277
1161.00,0.0263
1160.00,0.0252
1159.00,0.0243
1158.00,0.0237
1157.00,0.0232
1156.00,0.0229
1155.00,0.0227
1154.00,0.0225
1153.00,0.0223
1152.00,0.0218
1151.00,0.0212
1150.00,0.0204
1149.00,0.0195
1148.00,0.0185
1147.00,0.0177
1146.00,0.0169
1145.00,0.0162
1144.00,0.0156
1143.00,0.0150
1142.00,0.0144
1141.00,0.0138
1140.00,0.0132
1139.00,0.0128
1138.00,0.0124
1137.00,0.0121
1136.00,0.0119
1135.00,0.0117
1134.00,0.0115
1133.00,0.0113
1132.00,0.0112
1131.00,0.0112
1130.00,0.0113
1129.00,0.0115
1128.00,0.0118
1127.00,0.0120
1126.00,0.0122
1125.00,0.0123
1124.00,0.0122
1123.00,0.0122
1122.00,0.0123
1121.00,0.0123
1120.00,0.0125
1119.00,0.0127
1118.00,0.0129
1117.00,0.0131
1116.00,0.0132
1115.00,0.0133
1114.00,0.0134
1113.00,0.0136
1112.00,0.0139
1111.00,0.0142
1110.00,0.0147
1109.00,0.0152
1108.00,0.0158
1107.00,0.0164
1106.00,0.0171
1105.00,0.0179
1104.00,0.0185
1103.00,0.0190
1102.00,0.0192
1101.00,0.0190
1100.00,0.0185
1099.00,0.0178
1098.00,0.0172
1097.00,0.0167
1096.00,0.0163
1095.00,0.0159
1094.00,0.0156
1093.00,0.0153
1092.00,0.0150
1091.00,0.0147
1090.00,0.0145
1089.00,0.0143
1088.00,0.0141
1087.00,0.0140
1086.00,0.0140
1085.00,0.0140
1084.00,0.0139
1083.00,0.0139
1082.00,0.0137
1081.00,0.0135
1080.00,0.0133
1079.00,0.0130
1078.00,0.0127
1077.00,0.0125
1076.00,0.0124
1075.00,0.0123
1074.00,0.0122
1073.00,0.0121
1072.00,0.0120
1071.00,0.0119
1070.00,0.0119
1069.00,0.0119
1068.00,0.0118
1067.00,0.0118
1066.00,0.0118
1065.00,0.0118
1064.00,0.0118
1063.00,0.0117
1062.00,0.0116
1061.00,0.0115
1060.00,0.0115
1059.00,0.0116
1058.00,0.0117
1057.00,0.0118
1056.00,0.0120
1055.00,0.0122
1054.00,0.0124
1053.00,0.0125
1052.00,0.0126
1051.00,0.0126
1050.00,0.0127
1049.00,0.0129
1048.00,0.0131
1047.00,0.0134
1046.00,0.0137
1045.00,0.0138
1044.00,0.0137
1043.00,0.0135
1042.00,0.0132
1041.00,0.0130
1040.00,0.0128
1039.00,0.0127
1038.00,0.0127
1037.00,0.0127
1036.00,0.0128
1035.00,0.0127
1034.00,0.0125
1033.00,0.0123
1032.00,0.0121
1031.00,0.0121
1030.00,0.0121
1029.00,0.0122
1028.00,0.0121
1027.00,0.0120
1026.00,0.0118
1025.00,0.0117
1024.00,0.0116
1023.00,0.0114
1022.00,0.0114
1021.00,0.0114
1020.00,0.0115
1019.00,0.0117
1018.00,0.0120
1017.00,0.0122
1016.00,0.0125
1015.00,0.0128
1014.00,0.0132
1013.00,0.0136
1012.00,0.0139
1011.00,0.0142
1010.00,0.0145
1009.00,0.0148
1008.00,0.0152
1007.00,0.0157
1006.00,0.0165
1005.00,0.0177
1004.00,0.0192
1003.00,0.0214
1002.00,0.0243
1001.00,0.0279
1000.00,0.0316
999.00,0.0348
998.00,0.0363
997.00,0.0356
996.00,0.0330
995.00,0.0292
994.00,0.0252
993.00,0.0217
992.00,0.0188
991.00,0.0167
990.00,0.0152
989.00,0.0141
988.00,0.0134
987.00,0.0131
986.00,0.0130
985.00,0.0132
984.00,0.0136
983.00,0.0144
982.00,0.0155
981.00,0.0171
980.00,0.0193
979.00,0.0221
978.00,0.0257
977.00,0.0300
976.00,0.0347
975.00,0.0391
974.00,0.0424
973.00,0.0437
972.00,0.0425
971.00,0.0390
970.00,0.0340
969.00,0.0288
968.00,0.0241
967.00,0.0205
966.00,0.0178
965.00,0.0158
964.00,0.0144
963.00,0.0133
962.00,0.0126
961.00,0.0119
960.00,0.0113
959.00,0.0108
958.00,0.0105
957.00,0.0104
956.00,0.0102
955.00,0.0100
954.00,0.0098
953.00,0.0096
952.00,0.0095
951.00,0.0095
950.00,0.0095
949.00,0.0095
948.00,0.0094
947.00,0.0095
946.00,0.0097
945.00,0.0100
944.00,0.0103
943.00,0.0107
942.00,0.0110
941.00,0.0112
940.00,0.0111
939.00,0.0108
938.00,0.0104
937.00,0.0099
936.00,0.0094
935.00,0.0091
934.00,0.0087
933.00,0.0085
932.00,0.0082
931.00,0.0081
930.00,0.0079
929.00,0.0078
928.00,0.0077
927.00,0.0076
926.00,0.0077
925.00,0.0078
924.00,0.0078
923.00,0.0078
922.00,0.0078
921.00,0.0079
920.00,0.0079
919.00,0.0081
918.00,0.0082
917.00,0.0082
916.00,0.0082
915.00,0.0082
914.00,0.0082
913.00,0.0083
912.00,0.0083
911.00,0.0084
910.00,0.0086
909.00,0.0089
908.00,0.0093
907.00,0.0098
906.00,0.0105
905.00,0.0115
904.00,0.0129
903.00,0.0149
902.00,0.0171
901.00,0.0191
900.00,0.0205
899.00,0.0208
898.00,0.0200
897.00,0.0183
896.00,0.0163
895.00,0.0143
894.00,0.0128
893.00,0.0116
892.00,0.0107
891.00,0.0100
890.00,0.0095
889.00,0.0091
888.00,0.0088
887.00,0.0087
886.00,0.0087
885.00,0.0086
884.00,0.0085
883.00,0.0085
882.00,0.0086
881.00,0.0087
880.00,0.0088
879.00,0.0089
878.00,0.0090
877.00,0.0091
876.00,0.0090
875.00,0.0089
874.00,0.0088
873.00,0.0087
872.00,0.0087
871.00,0.0087
870.00,0.0087
869.00,0.0087
868.00,0.0087
867.00,0.0087
866.00,0.0087
865.00,0.0087
864.00,0.0088
863.00,0.0089
862.00,0.0091
861.00,0.0094
860.00,0.0097
859.00,0.0099
858.00,0.0100
857.00,0.0101
856.00,0.0102
855.00,0.0104
854.00,0.0107
853.00,0.0110
852.00,0.0113
851.00,0.0116
850.00,0.0121
849.00,0.0128
848.00,0.0139
847.00,0.0154
846.00,0.0177
845.00,0.0210
844.00,0.0255
843.00,0.0302
842.00,0.0338
841.00,0.0347
840.00,0.0326
839.00,0.0284
838.00,0.0239
837.00,0.0204
836.00,0.0180
835.00,0.0166
834.00,0.0158
833.00,0.0153
832.00,0.0150
831.00,0.0146
830.00,0.0144
829.00,0.0141
828.00,0.0140
827.00,0.0139
826.00,0.0139
825.00,0.0139
824.00,0.0138
823.00,0.0135
822.00,0.0132
821.00,0.0130
820.00,0.0130
819.00,0.0132
818.00,0.0137
817.00,0.0144
816.00,0.0153
815.00,0.0164
814.00,0.0176
813.00,0.0190
812.00,0.0207
811.00,0.0222
810.00,0.0235
809.00,0.0240
808.00,0.0237
807.00,0.0226
806.00,0.0210
805.00,0.0192
804.00,0.0176
803.00,0.0163
802.00,0.0153
801.00,0.0145
800.00,0.0138
799.00,0.0132
798.00,0.0127
797.00,0.0122
796.00,0.0119
795.00,0.0115
794.00,0.0112
793.00,0.0109
792.00,0.0108
791.00,0.0106
790.00,0.0105
789.00,0.0104
788.00,0.0102
787.00,0.0099
786.00,0.0097
785.00,0.0094
784.00,0.0090
783.00,0.0087
782.00,0.0085
781.00,0.0083
780.00,0.0083
779.00,0.0082
778.00,0.0082
777.00,0.0082
776.00,0.0083
775.00,0.0085
774.00,0.0087
773.00,0.0090
772.00,0.0092
771.00,0.0096
770.00,0.0099
769.00,0.0101
768.00,0.0101
767.00,0.0101
766.00,0.0101
765.00,0.0100
764.00,0.0100
763.00,0.0098
762.00,0.0096
761.00,0.0093
760.00,0.0090
759.00,0.0088
758.00,0.0088
757.00,0.0088
756.00,0.0088
755.00,0.0089
754.00,0.0089
753.00,0.0088
752.00,0.0088
751.00,0.0087
750.00,0.0087
749.00,0.0087
748.00,0.0087
747.00,0.0086
746.00,0.0086
745.00,0.0087
744.00,0.0088
743.00,0.0089
742.00,0.0090
741.00,0.0092
740.00,0.0094
739.00,0.0096
738.00,0.0098
737.00,0.0099
736.00,0.0102
735.00,0.0104
734.00,0.0106
733.00,0.0106
732.00,0.0105
731.00,0.0105
730.00,0.0106
729.00,0.0107
728.00,0.0108
727.00,0.0109
726.00,0.0109
725.00,0.0110
724.00,0.0110
723.00,0.0109
722.00,0.0108
721.00,0.0106
720.00,0.0104
719.00,0.0102
718.00,0.0100
717.00,0.0097
716.00,0.0094
715.00,0.0093
714.00,0.0093
713.00,0.0094
712.00,0.0094
711.00,0.0094
710.00,0.0093
709.00,0.0093
708.00,0.0094
707.00,0.0094
706.00,0.0093
705.00,0.0093
704.00,0.0094
703.00,0.0095
702.00,0.0094
701.00,0.0090
700.00,0.0086
699.00,0.0083
698.00,0.0081
697.00,0.0081
696.00,0.0082
695.00,0.0082
694.00,0.0082
693.00,0.0083
692.00,0.0084
691.00,0.0086
690.00,0.0088
689.00,0.0090
688.00,0.0091
687.00,0.0090
686.00,0.0087
685.00,0.0085
684.00,0.0083
683.00,0.0082
682.00,0.0082
681.00,0.0082
680.00,0.0084
679.00,0.0085
678.00,0.0086
677.00,0.0085
676.00,0.0083
675.00,0.0081
674.00,0.0081
673.00,0.0082
672.00,0.0083
671.00,0.0084
670.00,0.0085
669.00,0.0085
668.00,0.0087
667.00,0.0088
666.00,0.0087
665.00,0.0085
664.00,0.0082
663.00,0.0080
662.00,0.0080
661.00,0.0081
660.00,0.0082
659.00,0.0083
658.00,0.0083
657.00,0.0083
656.00,0.0083
655.00,0.0082
654.00,0.0080
653.00,0.0077
652.00,0.0076
651.00,0.0075
650.00,0.0076
649.00,0.0078
648.00,0.0079
647.00,0.0079
646.00,0.0079
645.00,0.0081
644.00,0.0085
643.00,0.0088
642.00,0.0091
641.00,0.0091
640.00,0.0091
639.00,0.0092
638.00,0.0092
637.00,0.0092
636.00,0.0091
635.00,0.0090
634.00,0.0089
633.00,0.0088
632.00,0.0088
631.00,0.0087
630.00,0.0086
629.00,0.0084
628.00,0.0082
627.00,0.0082
626.00,0.0083
625.00,0.0085
624.00,0.0087
623.00,0.0087
622.00,0.0088
621.00,0.0089
620.00,0.0091
619.00,0.0091
618.00,0.0090
617.00,0.0089
616.00,0.0087
615.00,0.0087
614.00,0.0087
613.00,0.0088
612.00,0.0088
611.00,0.0087
610.00,0.0087
609.00,0.0087
608.00,0.0087
607.00,0.0087
606.00,0.0086
605.00,0.0084
604.00,0.0083
603.00,0.0084
602.00,0.0087
601.00,0.0088
600.00,0.0088
599.00,0.0087
598.00,0.0086
597.00,0.0086
596.00,0.0086
595.00,0.0087
594.00,0.0087
593.00,0.0087
592.00,0.0087
591.00,0.0088
590.00,0.0089
589.00,0.0089
588.00,0.0090
587.00,0.0091
586.00,0.0092
585.00,0.0093
584.00,0.0093
583.00,0.0093
582.00,0.0095
581.00,0.0097
580.00,0.0097
579.00,0.0095
578.00,0.0093
577.00,0.0094
576.00,0.0095
575.00,0.0095
574.00,0.0093
573.00,0.0092
572.00,0.0093
571.00,0.0095
570.00,0.0098
569.00,0.0101
568.00,0.0102
567.00,0.0103
566.00,0.0102
565.00,0.0102
564.00,0.0100
563.00,0.0099
562.00,0.0099
561.00,0.0098
560.00,0.0096
559.00,0.0094
558.00,0.0093
557.00,0.0093
556.00,0.0093
555.00,0.0092
554.00,0.0090
553.00,0.0089
552.00,0.0090
551.00,0.0091
550.00,0.0091
549.00,0.0091
548.00,0.0091
547.00,0.0092
546.00,0.0092
545.00,0.0091
544.00,0.0092
543.00,0.0095
542.00,0.0099
541.00,0.0104
540.00,0.0106
539.00,0.0105
538.00,0.0102
537.00,0.0100
536.00,0.0102
535.00,0.0106
534.00,0.0109
533.00,0.0109
532.00,0.0109
531.00,0.0110
530.00,0.0115
529.00,0.0122
528.00,0.0126
527.00,0.0128
526.00,0.0125
525.00,0.0120
524.00,0.0115
523.00,0.0111
522.00,0.0108
521.00,0.0104
520.00,0.0100
519.00,0.0095
518.00,0.0092
517.00,0.0091
516.00,0.0095
515.00,0.0102
514.00,0.0109
513.00,0.0113
512.00,0.0112
511.00,0.0107
510.00,0.0100
509.00,0.0092
508.00,0.0086
507.00,0.0083
506.00,0.0085
505.00,0.0091
504.00,0.0097
503.00,0.0101
502.00,0.0102
501.00,0.0102
500.00,0.0101
499.00,0.0100
498.00,0.0098
497.00,0.0098
496.00,0.0101
495.00,0.0105
494.00,0.0109
493.00,0.0111
492.00,0.0111
491.00,0.0109
490.00,0.0102
489.00,0.0093
488.00,0.0085
487.00,0.0081
486.00,0.0082
485.00,0.0085
484.00,0.0089
483.00,0.0094
482.00,0.0100
481.00,0.0105
480.00,0.0105
479.00,0.0099
478.00,0.0093
477.00,0.0091
476.00,0.0094
475.00,0.0096
474.00,0.0097
473.00,0.0097
472.00,0.0101
471.00,0.0105
470.00,0.0110
469.00,0.0118
468.00,0.0130
467.00,0.0141
466.00,0.0144
465.00,0.0139
464.00,0.0133
463.00,0.0135
462.00,0.0147
461.00,0.0166
460.00,0.0186
459.00,0.0199
458.00,0.0198
457.00,0.0185
456.00,0.0171
455.00,0.0165
454.00,0.0161
453.00,0.0156
452.00,0.0147
451.00,0.0140
450.00,0.0136
