Created as New Dataset,Sample 137 By Administrator Date Tuesday, September 09 2025
cm-1,A
4000.00,0.0009
3999.00,0.0009
3998.00,0.0009
3997.00,0.0009
3996.00,0.0009
3995.00,0.0009
3994.00,0.0010
3993.00,0.0010
3992.00,0.0010
3991.00,0.0009
3990.00,0.0009
3989.00,0.0009
3988.00,0.0009
3987.00,0.0009
3986.00,0.0009
3985.00,0.0009
3984.00,0.0009
3983.00,0.0008
3982.00,0.0008
3981.00,0.0008
3980.00,0.0008
3979.00,0.0008
3978.00,0.0008
3977.00,0.0008
3976.00,0.0008
3975.00,0.0008
3974.00,0.0008
3973.00,0.0008
3972.00,0.0007
3971.00,0.0007
3970.00,0.0007
3969.00,0.0008
3968.00,0.0008
3967.00,0.0008
3966.00,0.0008
3965.00,0.0008
3964.00,0.0008
3963.00,0.0008
3962.00,0.0008
3961.00,0.0008
3960.00,0.0008
3959.00,0.0008
3958.00,0.0008
3957.00,0.0008
3956.00,0.0008
3955.00,0.0008
3954.00,0.0008
3953.00,0.0008
3952.00,0.0008
3951.00,0.0008
3950.00,0.0008
3949.00,0.0008
3948.00,0.0008
3947.00,0.0008
3946.00,0.0008
3945.00,0.0008
3944.00,0.0008
3943.00,0.0007
3942.00,0.0007
3941.00,0.0007
3940.00,0.0007
3939.00,0.0007
3938.00,0.0008
3937.00,0.0008
3936.00,0.0008
3935.00,0.0008
3934.00,0.0008
3933.00,0.0007
3932.00,0.0007
3931.00,0.0007
3930.00,0.0007
3929.00,0.0007
3928.00,0.0007
3927.00,0.0007
3926.00,0.0007
3925.00,0.0007
3924.00,0.0007
3923.00,0.0007
3922.00,0.0007
3921.00,0.0008
3920.00,0.0008
3919.00,0.0008
3918.00,0.0008
3917.00,0.0008
3916.00,0.0008
3915.00,0.0008
3914.00,0.0008
3913.00,0.0008
3912.00,0.0008
3911.00,0.0007
3910.00,0.0007
3909.00,0.0007
3908.00,0.0007
3907.00,0.0006
3906.00,0.0006
3905.00,0.0006
3904.00,0.0006
3903.00,0.0007
3902.00,0.0007
3901.00,0.0008
3900.00,0.0008
3899.00,0.0007
3898.00,0.0007
3897.00,0.0007
3896.00,0.0007
3895.00,0.0007
3894.00,0.0007
3893.00,0.0007
3892.00,0.0007
3891.00,0.0007
3890.00,0.0007
3889.00,0.0007
3888.00,0.0007
3887.00,0.0007
3886.00,0.0007
3885.00,0.0007
3884.00,0.0007
3883.00,0.0007
3882.00,0.0007
3881.00,0.0007
3880.00,0.0007
3879.00,0.0007
3878.00,0.0007
3877.00,0.0007
3876.00,0.0007
3875.00,0.0007
3874.00,0.0007
3873.00,0.0007
3872.00,0.0007
3871.00,0.0006
3870.00,0.0006
3869.00,0.0006
3868.00,0.0006
3867.00,0.0006
3866.00,0.0006
3865.00,0.0006
3864.00,0.0006
3863.00,0.0006
3862.00,0.0005
3861.00,0.0006
3860.00,0.0006
3859.00,0.0006
3858.00,0.0006
3857.00,0.0006
3856.00,0.0005
3855.00,0.0005
3854.00,0.0005
3853.00,0.0005
3852.00,0.0005
3851.00,0.0005
3850.00,0.0006
3849.00,0.0006
3848.00,0.0006
3847.00,0.0006
3846.00,0.0006
3845.00,0.0006
3844.00,0.0006
3843.00,0.0006
3842.00,0.0006
3841.00,0.0006
3840.00,0.0006
3839.00,0.0006
3838.00,0.0006
3837.00,0.0006
3836.00,0.0006
3835.00,0.0006
3834.00,0.0005
3833.00,0.0005
3832.00,0.0006
3831.00,0.0006
3830.00,0.0006
3829.00,0.0006
3828.00,0.0006
3827.00,0.0006
3826.00,0.0006
3825.00,0.0006
3824.00,0.0007
3823.00,0.0007
3822.00,0.0007
3821.00,0.0006
3820.00,0.0006
3819.00,0.0006
3818.00,0.0006
3817.00,0.0006
3816.00,0.0006
3815.00,0.0006
3814.00,0.0006
3813.00,0.0007
3812.00,0.0007
3811.00,0.0007
3810.00,0.0007
3809.00,0.0007
3808.00,0.0007
3807.00,0.0006
3806.00,0.0006
3805.00,0.0006
3804.00,0.0005
3803.00,0.0005
3802.00,0.0005
3801.00,0.0005
3800.00,0.0006
3799.00,0.0006
3798.00,0.0007
3797.00,0.0007
3796.00,0.0007
3795.00,0.0007
3794.00,0.0007
3793.00,0.0007
3792.00,0.0007
3791.00,0.0007
3790.00,0.0007
3789.00,0.0007
3788.00,0.0007
3787.00,0.0007
3786.00,0.0007
3785.00,0.0007
3784.00,0.0007
3783.00,0.0007
3782.00,0.0007
3781.00,0.0008
3780.00,0.0008
3779.00,0.0008
3778.00,0.0008
3777.00,0.0008
3776.00,0.0008
3775.00,0.0008
3774.00,0.0009
3773.00,0.0009
3772.00,0.0008
3771.00,0.0008
3770.00,0.0008
3769.00,0.0008
3768.00,0.0008
3767.00,0.0008
3766.00,0.0008
3765.00,0.0008
3764.00,0.0008
3763.00,0.0008
3762.00,0.0008
3761.00,0.0009
3760.00,0.0009
3759.00,0.0009
3758.00,0.0009
3757.00,0.0008
3756.00,0.0008
3755.00,0.0008
3754.00,0.0007
3753.00,0.0007
3752.00,0.0006
3751.00,0.0006
3750.00,0.0006
3749.00,0.0006
3748.00,0.0006
3747.00,0.0006
3746.00,0.0006
3745.00,0.0006
3744.00,0.0006
3743.00,0.0006
3742.00,0.0006
3741.00,0.0006
3740.00,0.0005
3739.00,0.0005
3738.00,0.0005
3737.00,0.0005
3736.00,0.0006
3735.00,0.0006
3734.00,0.0006
3733.00,0.0006
3732.00,0.0006
3731.00,0.0006
3730.00,0.0005
3729.00,0.0005
3728.00,0.0005
3727.00,0.0005
3726.00,0.0004
3725.00,0.0005
3724.00,0.0005
3723.00,0.0005
3722.00,0.0005
3721.00,0.0005
3720.00,0.0005
3719.00,0.0006
3718.00,0.0006
3717.00,0.0007
3716.00,0.0007
3715.00,0.0007
3714.00,0.0006
3713.00,0.0006
3712.00,0.0006
3711.00,0.0006
3710.00,0.0005
3709.00,0.0005
3708.00,0.0005
3707.00,0.0005
3706.00,0.0005
3705.00,0.0005
3704.00,0.0005
3703.00,0.0006
3702.00,0.0006
3701.00,0.0006
3700.00,0.0006
3699.00,0.0006
3698.00,0.0005
3697.00,0.0005
3696.00,0.0005
3695.00,0.0005
3694.00,0.0004
3693.00,0.0004
3692.00,0.0004
3691.00,0.0004
3690.00,0.0005
3689.00,0.0005
3688.00,0.0005
3687.00,0.0005
3686.00,0.0006
3685.00,0.0006
3684.00,0.0006
3683.00,0.0006
3682.00,0.0006
3681.00,0.0006
3680.00,0.0006
3679.00,0.0006
3678.00,0.0006
3677.00,0.0006
3676.00,0.0006
3675.00,0.0006
3674.00,0.0006
3673.00,0.0006
3672.00,0.0006
3671.00,0.0006
3670.00,0.0006
3669.00,0.0005
3668.00,0.0005
3667.00,0.0006
3666.00,0.0006
3665.00,0.0007
3664.00,0.0007
3663.00,0.0007
3662.00,0.0007
3661.00,0.0007
3660.00,0.0007
3659.00,0.0007
3658.00,0.0007
3657.00,0.0006
3656.00,0.0006
3655.00,0.0006
3654.00,0.0006
3653.00,0.0006
3652.00,0.0006
3651.00,0.0006
3650.00,0.0006
3649.00,0.0006
3648.00,0.0007
3647.00,0.0007
3646.00,0.0007
3645.00,0.0007
3644.00,0.0007
3643.00,0.0007
3642.00,0.0007
3641.00,0.0007
3640.00,0.0007
3639.00,0.0007
3638.00,0.0008
3637.00,0.0008
3636.00,0.0008
3635.00,0.0008
3634.00,0.0008
3633.00,0.0007
3632.00,0.0007
3631.00,0.0007
3630.00,0.0007
3629.00,0.0007
3628.00,0.0007
3627.00,0.0008
3626.00,0.0007
3625.00,0.0007
3624.00,0.0007
3623.00,0.0007
3622.00,0.0007
3621.00,0.0007
3620.00,0.0007
3619.00,0.0007
3618.00,0.0007
3617.00,0.0007
3616.00,0.0007
3615.00,0.0007
3614.00,0.0008
3613.00,0.0008
3612.00,0.0009
3611.00,0.0009
3610.00,0.0008
3609.00,0.0008
3608.00,0.0008
3607.00,0.0007
3606.00,0.0008
3605.00,0.0008
3604.00,0.0008
3603.00,0.0008
3602.00,0.0008
3601.00,0.0008
3600.00,0.0008
3599.00,0.0008
3598.00,0.0008
3597.00,0.0008
3596.00,0.0008
3595.00,0.0009
3594.00,0.0009
3593.00,0.0009
3592.00,0.0010
3591.00,0.0010
3590.00,0.0010
3589.00,0.0010
3588.00,0.0010
3587.00,0.0010
3586.00,0.0010
3585.00,0.0010
3584.00,0.0010
3583.00,0.0010
3582.00,0.0010
3581.00,0.0010
3580.00,0.0010
3579.00,0.0011
3578.00,0.0011
3577.00,0.0012
3576.00,0.0012
3575.00,0.0012
3574.00,0.0012
3573.00,0.0013
3572.00,0.0013
3571.00,0.0013
3570.00,0.0013
3569.00,0.0013
3568.00,0.0013
3567.00,0.0012
3566.00,0.0012
3565.00,0.0012
3564.00,0.0012
3563.00,0.0012
3562.00,0.0013
3561.00,0.0013
3560.00,0.0014
3559.00,0.0015
3558.00,0.0015
3557.00,0.0016
3556.00,0.0016
3555.00,0.0016
3554.00,0.0016
3553.00,0.0016
3552.00,0.0016
3551.00,0.0016
3550.00,0.0017
3549.00,0.0017
3548.00,0.0017
3547.00,0.0017
3546.00,0.0017
3545.00,0.0017
3544.00,0.0018
3543.00,0.0018
3542.00,0.0018
3541.00,0.0018
3540.00,0.0018
3539.00,0.0018
3538.00,0.0019
3537.00,0.0019
3536.00,0.0019
3535.00,0.0019
3534.00,0.0020
3533.00,0.0020
3532.00,0.0020
3531.00,0.0020
3530.00,0.0020
3529.00,0.0020
3528.00,0.0020
3527.00,0.0020
3526.00,0.0020
3525.00,0.0020
3524.00,0.0020
3523.00,0.0021
3522.00,0.0021
3521.00,0.0022
3520.00,0.0022
3519.00,0.0022
3518.00,0.0023
3517.00,0.0023
3516.00,0.0023
3515.00,0.0023
3514.00,0.0023
3513.00,0.0023
3512.00,0.0023
3511.00,0.0023
3510.00,0.0023
3509.00,0.0024
3508.00,0.0024
3507.00,0.0023
3506.00,0.0023
3505.00,0.0023
3504.00,0.0023
3503.00,0.0023
3502.00,0.0024
3501.00,0.0025
3500.00,0.0025
3499.00,0.0025
3498.00,0.0025
3497.00,0.0026
3496.00,0.0026
3495.00,0.0027
3494.00,0.0027
3493.00,0.0027
3492.00,0.0027
3491.00,0.0028
3490.00,0.0028
3489.00,0.0028
3488.00,0.0028
3487.00,0.0028
3486.00,0.0028
3485.00,0.0028
3484.00,0.0028
3483.00,0.0028
3482.00,0.0029
3481.00,0.0029
3480.00,0.0029
3479.00,0.0030
3478.00,0.0030
3477.00,0.0030
3476.00,0.0030
3475.00,0.0030
3474.00,0.0030
3473.00,0.0030
3472.00,0.0030
3471.00,0.0030
3470.00,0.0030
3469.00,0.0030
3468.00,0.0030
3467.00,0.0031
3466.00,0.0031
3465.00,0.0031
3464.00,0.0032
3463.00,0.0032
3462.00,0.0032
3461.00,0.0032
3460.00,0.0032
3459.00,0.0032
3458.00,0.0032
3457.00,0.0032
3456.00,0.0032
3455.00,0.0032
3454.00,0.0033
3453.00,0.0033
3452.00,0.0034
3451.00,0.0034
3450.00,0.0034
3449.00,0.0034
3448.00,0.0034
3447.00,0.0034
3446.00,0.0034
3445.00,0.0034
3444.00,0.0035
3443.00,0.0035
3442.00,0.0036
3441.00,0.0036
3440.00,0.0036
3439.00,0.0036
3438.00,0.0036
3437.00,0.0036
3436.00,0.0037
3435.00,0.0037
3434.00,0.0037
3433.00,0.0037
3432.00,0.0038
3431.00,0.0038
3430.00,0.0038
3429.00,0.0038
3428.00,0.0038
3427.00,0.0038
3426.00,0.0038
3425.00,0.0038
3424.00,0.0039
3423.00,0.0039
3422.00,0.0039
3421.00,0.0039
3420.00,0.0039
3419.00,0.0039
3418.00,0.0039
3417.00,0.0039
3416.00,0.0039
3415.00,0.0039
3414.00,0.0040
3413.00,0.0040
3412.00,0.0041
3411.00,0.0041
3410.00,0.0042
3409.00,0.0042
3408.00,0.0042
3407.00,0.0042
3406.00,0.0043
3405.00,0.0043
3404.00,0.0044
3403.00,0.0044
3402.00,0.0044
3401.00,0.0044
3400.00,0.0044
3399.00,0.0044
3398.00,0.0045
3397.00,0.0045
3396.00,0.0045
3395.00,0.0045
3394.00,0.0045
3393.00,0.0045
3392.00,0.0045
3391.00,0.0044
3390.00,0.0044
3389.00,0.0044
3388.00,0.0044
3387.00,0.0044
3386.00,0.0044
3385.00,0.0044
3384.00,0.0043
3383.00,0.0043
3382.00,0.0043
3381.00,0.0044
3380.00,0.0044
3379.00,0.0045
3378.00,0.0045
3377.00,0.0044
3376.00,0.0044
3375.00,0.0044
3374.00,0.0044
3373.00,0.0044
3372.00,0.0044
3371.00,0.0044
3370.00,0.0044
3369.00,0.0044
3368.00,0.0044
3367.00,0.0044
3366.00,0.0044
3365.00,0.0044
3364.00,0.0044
3363.00,0.0044
3362.00,0.0044
3361.00,0.0044
3360.00,0.0044
3359.00,0.0044
3358.00,0.0044
3357.00,0.0044
3356.00,0.0044
3355.00,0.0044
3354.00,0.0044
3353.00,0.0044
3352.00,0.0044
3351.00,0.0044
3350.00,0.0044
3349.00,0.0044
3348.00,0.0044
3347.00,0.0044
3346.00,0.0044
3345.00,0.0044
3344.00,0.0044
3343.00,0.0044
3342.00,0.0044
3341.00,0.0043
3340.00,0.0043
3339.00,0.0043
3338.00,0.0042
3337.00,0.0042
3336.00,0.0042
3335.00,0.0043
3334.00,0.0043
3333.00,0.0043
3332.00,0.0043
3331.00,0.0042
3330.00,0.0042
3329.00,0.0042
3328.00,0.0043
3327.00,0.0043
3326.00,0.0042
3325.00,0.0042
3324.00,0.0042
3323.00,0.0041
3322.00,0.0041
3321.00,0.0041
3320.00,0.0041
3319.00,0.0041
3318.00,0.0041
3317.00,0.0042
3316.00,0.0042
3315.00,0.0042
3314.00,0.0042
3313.00,0.0042
3312.00,0.0042
3311.00,0.0042
3310.00,0.0042
3309.00,0.0042
3308.00,0.0042
3307.00,0.0042
3306.00,0.0042
3305.00,0.0042
3304.00,0.0042
3303.00,0.0041
3302.00,0.0041
3301.00,0.0041
3300.00,0.0041
3299.00,0.0041
3298.00,0.0041
3297.00,0.0041
3296.00,0.0041
3295.00,0.0041
3294.00,0.0041
3293.00,0.0041
3292.00,0.0040
3291.00,0.0040
3290.00,0.0040
3289.00,0.0040
3288.00,0.0040
3287.00,0.0040
3286.00,0.0041
3285.00,0.0041
3284.00,0.0041
3283.00,0.0041
3282.00,0.0041
3281.00,0.0041
3280.00,0.0041
3279.00,0.0040
3278.00,0.0040
3277.00,0.0040
3276.00,0.0040
3275.00,0.0039
3274.00,0.0039
3273.00,0.0039
3272.00,0.0039
3271.00,0.0039
3270.00,0.0039
3269.00,0.0039
3268.00,0.0039
3267.00,0.0039
3266.00,0.0039
3265.00,0.0039
3264.00,0.0038
3263.00,0.0038
3262.00,0.0038
3261.00,0.0038
3260.00,0.0038
3259.00,0.0037
3258.00,0.0037
3257.00,0.0037
3256.00,0.0037
3255.00,0.0037
3254.00,0.0037
3253.00,0.0036
3252.00,0.0036
3251.00,0.0036
3250.00,0.0036
3249.00,0.0037
3248.00,0.0036
3247.00,0.0036
3246.00,0.0036
3245.00,0.0036
3244.00,0.0036
3243.00,0.0037
3242.00,0.0037
3241.00,0.0037
3240.00,0.0036
3239.00,0.0036
3238.00,0.0036
3237.00,0.0036
3236.00,0.0036
3235.00,0.0036
3234.00,0.0036
3233.00,0.0036
3232.00,0.0037
3231.00,0.0037
3230.00,0.0037
3229.00,0.0037
3228.00,0.0037
3227.00,0.0037
3226.00,0.0038
3225.00,0.0038
3224.00,0.0038
3223.00,0.0038
3222.00,0.0039
3221.00,0.0039
3220.00,0.0039
3219.00,0.0039
3218.00,0.0039
3217.00,0.0040
3216.00,0.0040
3215.00,0.0040
3214.00,0.0040
3213.00,0.0041
3212.00,0.0041
3211.00,0.0041
3210.00,0.0041
3209.00,0.0042
3208.00,0.0042
3207.00,0.0042
3206.00,0.0042
3205.00,0.0042
3204.00,0.0042
3203.00,0.0041
3202.00,0.0041
3201.00,0.0041
3200.00,0.0041
3199.00,0.0041
3198.00,0.0041
3197.00,0.0042
3196.00,0.0042
3195.00,0.0042
3194.00,0.0042
3193.00,0.0042
3192.00,0.0042
3191.00,0.0042
3190.00,0.0042
3189.00,0.0042
3188.00,0.0042
3187.00,0.0042
3186.00,0.0042
3185.00,0.0041
3184.00,0.0041
3183.00,0.0041
3182.00,0.0041
3181.00,0.0041
3180.00,0.0041
3179.00,0.0040
3178.00,0.0039
3177.00,0.0039
3176.00,0.0039
3175.00,0.0039
3174.00,0.0039
3173.00,0.0039
3172.00,0.0038
3171.00,0.0038
3170.00,0.0038
3169.00,0.0037
3168.00,0.0037
3167.00,0.0037
3166.00,0.0036
3165.00,0.0037
3164.00,0.0037
3163.00,0.0037
3162.00,0.0037
3161.00,0.0037
3160.00,0.0036
3159.00,0.0036
3158.00,0.0036
3157.00,0.0036
3156.00,0.0036
3155.00,0.0036
3154.00,0.0036
3153.00,0.0036
3152.00,0.0035
3151.00,0.0035
3150.00,0.0035
3149.00,0.0036
3148.00,0.0036
3147.00,0.0036
3146.00,0.0036
3145.00,0.0035
3144.00,0.0035
3143.00,0.0035
3142.00,0.0035
3141.00,0.0035
3140.00,0.0035
3139.00,0.0035
3138.00,0.0035
3137.00,0.0035
3136.00,0.0035
3135.00,0.0034
3134.00,0.0034
3133.00,0.0033
3132.00,0.0033
3131.00,0.0033
3130.00,0.0033
3129.00,0.0033
3128.00,0.0032
3127.00,0.0032
3126.00,0.0031
3125.00,0.0031
3124.00,0.0031
3123.00,0.0031
3122.00,0.0030
3121.00,0.0030
3120.00,0.0030
3119.00,0.0030
3118.00,0.0029
3117.00,0.0029
3116.00,0.0029
3115.00,0.0029
3114.00,0.0029
3113.00,0.0029
3112.00,0.0029
3111.00,0.0029
3110.00,0.0028
3109.00,0.0028
3108.00,0.0028
3107.00,0.0028
3106.00,0.0029
3105.00,0.0029
3104.00,0.0029
3103.00,0.0028
3102.00,0.0028
3101.00,0.0028
3100.00,0.0028
3099.00,0.0028
3098.00,0.0027
3097.00,0.0027
3096.00,0.0027
3095.00,0.0027
3094.00,0.0027
3093.00,0.0027
3092.00,0.0027
3091.00,0.0027
3090.00,0.0027
3089.00,0.0027
3088.00,0.0027
3087.00,0.0027
3086.00,0.0027
3085.00,0.0027
3084.00,0.0027
3083.00,0.0027
3082.00,0.0027
3081.00,0.0027
3080.00,0.0027
3079.00,0.0026
3078.00,0.0026
3077.00,0.0027
3076.00,0.0027
3075.00,0.0027
3074.00,0.0027
3073.00,0.0028
3072.00,0.0028
3071.00,0.0027
3070.00,0.0027
3069.00,0.0028
3068.00,0.0028
3067.00,0.0028
3066.00,0.0029
3065.00,0.0029
3064.00,0.0029
3063.00,0.0029
3062.00,0.0030
3061.00,0.0030
3060.00,0.0029
3059.00,0.0029
3058.00,0.0029
3057.00,0.0030
3056.00,0.0030
3055.00,0.0030
3054.00,0.0030
3053.00,0.0030
3052.00,0.0031
3051.00,0.0031
3050.00,0.0031
3049.00,0.0031
3048.00,0.0031
3047.00,0.0031
3046.00,0.0031
3045.00,0.0031
3044.00,0.0031
3043.00,0.0032
3042.00,0.0032
3041.00,0.0032
3040.00,0.0033
3039.00,0.0033
3038.00,0.0033
3037.00,0.0033
3036.00,0.0033
3035.00,0.0034
3034.00,0.0034
3033.00,0.0035
3032.00,0.0035
3031.00,0.0036
3030.00,0.0036
3029.00,0.0037
3028.00,0.0038
3027.00,0.0039
3026.00,0.0039
3025.00,0.0039
3024.00,0.0040
3023.00,0.0040
3022.00,0.0041
3021.00,0.0042
3020.00,0.0043
3019.00,0.0044
3018.00,0.0044
3017.00,0.0045
3016.00,0.0046
3015.00,0.0047
3014.00,0.0049
3013.00,0.0050
3012.00,0.0052
3011.00,0.0053
3010.00,0.0055
3009.00,0.0056
3008.00,0.0058
3007.00,0.0060
3006.00,0.0062
3005.00,0.0064
3004.00,0.0066
3003.00,0.0068
3002.00,0.0071
3001.00,0.0073
3000.00,0.0076
2999.00,0.0079
2998.00,0.0083
2997.00,0.0087
2996.00,0.0091
2995.00,0.0095
2994.00,0.0100
2993.00,0.0105
2992.00,0.0110
2991.00,0.0116
2990.00,0.0123
2989.00,0.0131
2988.00,0.0139
2987.00,0.0148
2986.00,0.0158
2985.00,0.0169
2984.00,0.0182
2983.00,0.0197
2982.00,0.0213
2981.00,0.0231
2980.00,0.0252
2979.00,0.0274
2978.00,0.0299
2977.00,0.0328
2976.00,0.0360
2975.00,0.0397
2974.00,0.0439
2973.00,0.0486
2972.00,0.0539
2971.00,0.0598
2970.00,0.0663
2969.00,0.0733
2968.00,0.0808
2967.00,0.0888
2966.00,0.0970
2965.00,0.1051
2964.00,0.1129
2963.00,0.1201
2962.00,0.1265
2961.00,0.1320
2960.00,0.1367
2959.00,0.1411
2958.00,0.1457
2957.00,0.1508
2956.00,0.1569
2955.00,0.1642
2954.00,0.1725
2953.00,0.1812
2952.00,0.1894
2951.00,0.1960
2950.00,0.1999
2949.00,0.2000
2948.00,0.1956
2947.00,0.1871
2946.00,0.1753
2945.00,0.1616
2944.00,0.1478
2943.00,0.1353
2942.00,0.1250
2941.00,0.1174
2940.00,0.1126
2939.00,0.1103
2938.00,0.1104
2937.00,0.1125
2936.00,0.1165
2935.00,0.1222
2934.00,0.1294
2933.00,0.1379
2932.00,0.1477
2931.00,0.1584
2930.00,0.1699
2929.00,0.1816
2928.00,0.1934
2927.00,0.2049
2926.00,0.2160
2925.00,0.2266
2924.00,0.2368
2923.00,0.2469
2922.00,0.2568
2921.00,0.2663
2920.00,0.2748
2919.00,0.2815
2918.00,0.2854
2917.00,0.2858
2916.00,0.2823
2915.00,0.2754
2914.00,0.2659
2913.00,0.2550
2912.00,0.2437
2911.00,0.2326
2910.00,0.2223
2909.00,0.2127
2908.00,0.2038
2907.00,0.1953
2906.00,0.1871
2905.00,0.1791
2904.00,0.1712
2903.00,0.1635
2902.00,0.1561
2901.00,0.1489
2900.00,0.1421
2899.00,0.1358
2898.00,0.1299
2897.00,0.1246
2896.00,0.1199
2895.00,0.1159
2894.00,0.1127
2893.00,0.1102
2892.00,0.1084
2891.00,0.1072
2890.00,0.1066
2889.00,0.1064
2888.00,0.1068
2887.00,0.1075
2886.00,0.1086
2885.00,0.1102
2884.00,0.1122
2883.00,0.1149
2882.00,0.1180
2881.00,0.1215
2880.00,0.1250
2879.00,0.1281
2878.00,0.1303
2877.00,0.1314
2876.00,0.1314
2875.00,0.1307
2874.00,0.1299
2873.00,0.1295
2872.00,0.1299
2871.00,0.1313
2870.00,0.1332
2869.00,0.1353
2868.00,0.1367
2867.00,0.1365
2866.00,0.1338
2865.00,0.1281
2864.00,0.1199
2863.00,0.1100
2862.00,0.0995
2861.00,0.0897
2860.00,0.0811
2859.00,0.0742
2858.00,0.0689
2857.00,0.0650
2856.00,0.0623
2855.00,0.0607
2854.00,0.0599
2853.00,0.0598
2852.00,0.0604
2851.00,0.0617
2850.00,0.0637
2849.00,0.0664
2848.00,0.0698
2847.00,0.0739
2846.00,0.0789
2845.00,0.0847
2844.00,0.0913
2843.00,0.0984
2842.00,0.1057
2841.00,0.1127
2840.00,0.1185
2839.00,0.1225
2838.00,0.1236
2837.00,0.1214
2836.00,0.1157
2835.00,0.1070
2834.00,0.0964
2833.00,0.0852
2832.00,0.0743
2831.00,0.0646
2830.00,0.0564
2829.00,0.0496
2828.00,0.0441
2827.00,0.0397
2826.00,0.0362
2825.00,0.0333
2824.00,0.0308
2823.00,0.0288
2822.00,0.0271
2821.00,0.0257
2820.00,0.0244
2819.00,0.0234
2818.00,0.0224
2817.00,0.0216
2816.00,0.0208
2815.00,0.0202
2814.00,0.0196
2813.00,0.0190
2812.00,0.0185
2811.00,0.0179
2810.00,0.0173
2809.00,0.0167
2808.00,0.0161
2807.00,0.0154
2806.00,0.0148
2805.00,0.0141
2804.00,0.0135
2803.00,0.0129
2802.00,0.0124
2801.00,0.0119
2800.00,0.0116
2799.00,0.0112
2798.00,0.0109
2797.00,0.0106
2796.00,0.0103
2795.00,0.0100
2794.00,0.0098
2793.00,0.0095
2792.00,0.0092
2791.00,0.0089
2790.00,0.0086
2789.00,0.0084
2788.00,0.0081
2787.00,0.0078
2786.00,0.0076
2785.00,0.0074
2784.00,0.0072
2783.00,0.0070
2782.00,0.0068
2781.00,0.0066
2780.00,0.0064
2779.00,0.0063
2778.00,0.0061
2777.00,0.0060
2776.00,0.0059
2775.00,0.0058
2774.00,0.0057
2773.00,0.0057
2772.00,0.0056
2771.00,0.0055
2770.00,0.0055
2769.00,0.0054
2768.00,0.0054
2767.00,0.0054
2766.00,0.0054
2765.00,0.0054
2764.00,0.0054
2763.00,0.0053
2762.00,0.0053
2761.00,0.0053
2760.00,0.0052
2759.00,0.0052
2758.00,0.0052
2757.00,0.0051
2756.00,0.0051
2755.00,0.0051
2754.00,0.0051
2753.00,0.0051
2752.00,0.0050
2751.00,0.0050
2750.00,0.0050
2749.00,0.0050
2748.00,0.0050
2747.00,0.0051
2746.00,0.0052
2745.00,0.0052
2744.00,0.0053
2743.00,0.0054
2742.00,0.0055
2741.00,0.0056
2740.00,0.0057
2739.00,0.0059
2738.00,0.0060
2737.00,0.0062
2736.00,0.0064
2735.00,0.0065
2734.00,0.0067
2733.00,0.0069
2732.00,0.0070
2731.00,0.0072
2730.00,0.0075
2729.00,0.0078
2728.00,0.0081
2727.00,0.0084
2726.00,0.0087
2725.00,0.0090
2724.00,0.0091
2723.00,0.0091
2722.00,0.0090
2721.00,0.0087
2720.00,0.0084
2719.00,0.0081
2718.00,0.0078
2717.00,0.0074
2716.00,0.0071
2715.00,0.0068
2714.00,0.0065
2713.00,0.0063
2712.00,0.0061
2711.00,0.0059
2710.00,0.0057
2709.00,0.0055
2708.00,0.0053
2707.00,0.0052
2706.00,0.0051
2705.00,0.0050
2704.00,0.0049
2703.00,0.0048
2702.00,0.0047
2701.00,0.0046
2700.00,0.0045
2699.00,0.0044
2698.00,0.0044
2697.00,0.0043
2696.00,0.0043
2695.00,0.0043
2694.00,0.0043
2693.00,0.0043
2692.00,0.0043
2691.00,0.0043
2690.00,0.0043
2689.00,0.0043
2688.00,0.0043
2687.00,0.0043
2686.00,0.0043
2685.00,0.0043
2684.00,0.0043
2683.00,0.0043
2682.00,0.0044
2681.00,0.0044
2680.00,0.0044
2679.00,0.0044
2678.00,0.0044
2677.00,0.0044
2676.00,0.0044
2675.00,0.0044
2674.00,0.0044
2673.00,0.0044
2672.00,0.0044
2671.00,0.0043
2670.00,0.0043
2669.00,0.0043
2668.00,0.0044
2667.00,0.0044
2666.00,0.0044
2665.00,0.0044
2664.00,0.0045
2663.00,0.0045
2662.00,0.0046
2661.00,0.0047
2660.00,0.0047
2659.00,0.0047
2658.00,0.0047
2657.00,0.0047
2656.00,0.0046
2655.00,0.0046
2654.00,0.0045
2653.00,0.0045
2652.00,0.0044
2651.00,0.0044
2650.00,0.0043
2649.00,0.0042
2648.00,0.0042
2647.00,0.0042
2646.00,0.0041
2645.00,0.0041
2644.00,0.0040
2643.00,0.0040
2642.00,0.0039
2641.00,0.0039
2640.00,0.0039
2639.00,0.0039
2638.00,0.0038
2637.00,0.0038
2636.00,0.0037
2635.00,0.0037
2634.00,0.0037
2633.00,0.0037
2632.00,0.0037
2631.00,0.0038
2630.00,0.0038
2629.00,0.0038
2628.00,0.0039
2627.00,0.0039
2626.00,0.0039
2625.00,0.0039
2624.00,0.0039
2623.00,0.0039
2622.00,0.0039
2621.00,0.0038
2620.00,0.0038
2619.00,0.0038
2618.00,0.0039
2617.00,0.0039
2616.00,0.0040
2615.00,0.0040
2614.00,0.0040
2613.00,0.0039
2612.00,0.0038
2611.00,0.0037
2610.00,0.0037
2609.00,0.0036
2608.00,0.0035
2607.00,0.0035
2606.00,0.0035
2605.00,0.0034
2604.00,0.0034
2603.00,0.0033
2602.00,0.0032
2601.00,0.0031
2600.00,0.0031
2599.00,0.0031
2598.00,0.0031
2597.00,0.0032
2596.00,0.0032
2595.00,0.0032
2594.00,0.0032
2593.00,0.0032
2592.00,0.0033
2591.00,0.0034
2590.00,0.0035
2589.00,0.0036
2588.00,0.0037
2587.00,0.0037
2586.00,0.0038
2585.00,0.0038
2584.00,0.0039
2583.00,0.0039
2582.00,0.0039
2581.00,0.0038
2580.00,0.0038
2579.00,0.0037
2578.00,0.0037
2577.00,0.0036
2576.00,0.0036
2575.00,0.0035
2574.00,0.0034
2573.00,0.0033
2572.00,0.0031
2571.00,0.0030
2570.00,0.0029
2569.00,0.0028
2568.00,0.0027
2567.00,0.0027
2566.00,0.0026
2565.00,0.0026
2564.00,0.0025
2563.00,0.0024
2562.00,0.0024
2561.00,0.0023
2560.00,0.0023
2559.00,0.0023
2558.00,0.0023
2557.00,0.0022
2556.00,0.0021
2555.00,0.0021
2554.00,0.0021
2553.00,0.0022
2552.00,0.0022
2551.00,0.0022
2550.00,0.0021
2549.00,0.0021
2548.00,0.0020
2547.00,0.0020
2546.00,0.0020
2545.00,0.0019
2544.00,0.0019
2543.00,0.0018
2542.00,0.0017
2541.00,0.0016
2540.00,0.0016
2539.00,0.0016
2538.00,0.0016
2537.00,0.0016
2536.00,0.0015
2535.00,0.0014
2534.00,0.0014
2533.00,0.0014
2532.00,0.0014
2531.00,0.0015
2530.00,0.0015
2529.00,0.0015
2528.00,0.0015
2527.00,0.0015
2526.00,0.0015
2525.00,0.0014
2524.00,0.0013
2523.00,0.0013
2522.00,0.0013
2521.00,0.0013
2520.00,0.0013
2519.00,0.0013
2518.00,0.0012
2517.00,0.0011
2516.00,0.0011
2515.00,0.0011
2514.00,0.0010
2513.00,0.0010
2512.00,0.0010
2511.00,0.0010
2510.00,0.0010
2509.00,0.0010
2508.00,0.0010
2507.00,0.0010
2506.00,0.0010
2505.00,0.0010
2504.00,0.0010
2503.00,0.0010
2502.00,0.0010
2501.00,0.0011
2500.00,0.0011
2499.00,0.0011
2498.00,0.0011
2497.00,0.0011
2496.00,0.0011
2495.00,0.0011
2494.00,0.0011
2493.00,0.0011
2492.00,0.0010
2491.00,0.0010
2490.00,0.0009
2489.00,0.0010
2488.00,0.0010
2487.00,0.0010
2486.00,0.0011
2485.00,0.0010
2484.00,0.0010
2483.00,0.0010
2482.00,0.0009
2481.00,0.0009
2480.00,0.0009
2479.00,0.0009
2478.00,0.0009
2477.00,0.0009
2476.00,0.0009
2475.00,0.0009
2474.00,0.0009
2473.00,0.0009
2472.00,0.0009
2471.00,0.0009
2470.00,0.0009
2469.00,0.0009
2468.00,0.0009
2467.00,0.0009
2466.00,0.0008
2465.00,0.0009
2464.00,0.0009
2463.00,0.0010
2462.00,0.0010
2461.00,0.0010
2460.00,0.0010
2459.00,0.0011
2458.00,0.0011
2457.00,0.0011
2456.00,0.0012
2455.00,0.0012
2454.00,0.0012
2453.00,0.0011
2452.00,0.0010
2451.00,0.0010
2450.00,0.0010
2449.00,0.0009
2448.00,0.0009
2447.00,0.0009
2446.00,0.0009
2445.00,0.0009
2444.00,0.0009
2443.00,0.0010
2442.00,0.0010
2441.00,0.0010
2440.00,0.0010
2439.00,0.0010
2438.00,0.0010
2437.00,0.0010
2436.00,0.0010
2435.00,0.0011
2434.00,0.0012
2433.00,0.0012
2432.00,0.0012
2431.00,0.0012
2430.00,0.0011
2429.00,0.0011
2428.00,0.0011
2427.00,0.0012
2426.00,0.0012
2425.00,0.0011
2424.00,0.0011
2423.00,0.0011
2422.00,0.0010
2421.00,0.0010
2420.00,0.0010
2419.00,0.0009
2418.00,0.0009
2417.00,0.0010
2416.00,0.0010
2415.00,0.0010
2414.00,0.0010
2413.00,0.0009
2412.00,0.0008
2411.00,0.0008
2410.00,0.0009
2409.00,0.0009
2408.00,0.0009
2407.00,0.0009
2406.00,0.0009
2405.00,0.0008
2404.00,0.0008
2403.00,0.0008
2402.00,0.0008
2401.00,0.0008
2400.00,0.0008
2399.00,0.0007
2398.00,0.0007
2397.00,0.0007
2396.00,0.0007
2395.00,0.0007
2394.00,0.0007
2393.00,0.0007
2392.00,0.0007
2391.00,0.0007
2390.00,0.0007
2389.00,0.0007
2388.00,0.0006
2387.00,0.0006
2386.00,0.0005
2385.00,0.0005
2384.00,0.0004
2383.00,0.0004
2382.00,0.0004
2381.00,0.0004
2380.00,0.0004
2379.00,0.0003
2378.00,0.0003
2377.00,0.0003
2376.00,0.0003
2375.00,0.0003
2374.00,0.0003
2373.00,0.0003
2372.00,0.0003
2371.00,0.0003
2370.00,0.0003
2369.00,0.0002
2368.00,0.0002
2367.00,0.0002
2366.00,0.0002
2365.00,0.0002
2364.00,0.0002
2363.00,0.0003
2362.00,0.0004
2361.00,0.0004
2360.00,0.0005
2359.00,0.0005
2358.00,0.0005
2357.00,0.0004
2356.00,0.0004
2355.00,0.0004
2354.00,0.0003
2353.00,0.0002
2352.00,0.0002
2351.00,0.0003
2350.00,0.0004
2349.00,0.0005
2348.00,0.0005
2347.00,0.0005
2346.00,0.0004
2345.00,0.0004
2344.00,0.0005
2343.00,0.0005
2342.00,0.0006
2341.00,0.0007
2340.00,0.0007
2339.00,0.0007
2338.00,0.0007
2337.00,0.0007
2336.00,0.0007
2335.00,0.0007
2334.00,0.0006
2333.00,0.0006
2332.00,0.0006
2331.00,0.0006
2330.00,0.0006
2329.00,0.0007
2328.00,0.0009
2327.00,0.0012
2326.00,0.0017
2325.00,0.0021
2324.00,0.0023
2323.00,0.0022
2322.00,0.0020
2321.00,0.0017
2320.00,0.0015
2319.00,0.0014
2318.00,0.0013
2317.00,0.0012
2316.00,0.0011
2315.00,0.0010
2314.00,0.0010
2313.00,0.0009
2312.00,0.0010
2311.00,0.0010
2310.00,0.0009
2309.00,0.0009
2308.00,0.0009
2307.00,0.0010
2306.00,0.0011
2305.00,0.0012
2304.00,0.0011
2303.00,0.0011
2302.00,0.0011
2301.00,0.0011
2300.00,0.0012
2299.00,0.0012
2298.00,0.0013
2297.00,0.0013
2296.00,0.0013
2295.00,0.0013
2294.00,0.0013
2293.00,0.0014
2292.00,0.0015
2291.00,0.0016
2290.00,0.0017
2289.00,0.0018
2288.00,0.0019
2287.00,0.0020
2286.00,0.0020
2285.00,0.0020
2284.00,0.0019
2283.00,0.0017
2282.00,0.0016
2281.00,0.0014
2280.00,0.0013
2279.00,0.0012
2278.00,0.0012
2277.00,0.0012
2276.00,0.0012
2275.00,0.0012
2274.00,0.0011
2273.00,0.0010
2272.00,0.0010
2271.00,0.0011
2270.00,0.0012
2269.00,0.0013
2268.00,0.0012
2267.00,0.0011
2266.00,0.0010
2265.00,0.0010
2264.00,0.0010
2263.00,0.0010
2262.00,0.0010
2261.00,0.0009
2260.00,0.0009
2259.00,0.0008
2258.00,0.0007
2257.00,0.0006
2256.00,0.0006
2255.00,0.0006
2254.00,0.0006
2253.00,0.0008
2252.00,0.0010
2251.00,0.0012
2250.00,0.0012
2249.00,0.0012
2248.00,0.0011
2247.00,0.0010
2246.00,0.0009
2245.00,0.0008
2244.00,0.0007
2243.00,0.0007
2242.00,0.0007
2241.00,0.0009
2240.00,0.0010
2239.00,0.0010
2238.00,0.0009
2237.00,0.0008
2236.00,0.0007
2235.00,0.0008
2234.00,0.0008
2233.00,0.0009
2232.00,0.0009
2231.00,0.0008
2230.00,0.0008
2229.00,0.0008
2228.00,0.0007
2227.00,0.0006
2226.00,0.0005
2225.00,0.0003
2224.00,0.0002
2223.00,0.0001
2222.00,0.0001
2221.00,0.0002
2220.00,0.0003
2219.00,0.0004
2218.00,0.0004
2217.00,0.0005
2216.00,0.0005
2215.00,0.0006
2214.00,0.0005
2213.00,0.0005
2212.00,0.0005
2211.00,0.0006
2210.00,0.0005
2209.00,0.0004
2208.00,0.0003
2207.00,0.0002
2206.00,0.0003
2205.00,0.0005
2204.00,0.0007
2203.00,0.0009
2202.00,0.0010
2201.00,0.0010
2200.00,0.0009
2199.00,0.0008
2198.00,0.0009
2197.00,0.0010
2196.00,0.0011
2195.00,0.0012
2194.00,0.0011
2193.00,0.0011
2192.00,0.0009
2191.00,0.0008
2190.00,0.0007
2189.00,0.0009
2188.00,0.0012
2187.00,0.0015
2186.00,0.0015
2185.00,0.0012
2184.00,0.0008
2183.00,0.0003
2182.00,-0.0000
2181.00,-0.0000
2180.00,0.0002
2179.00,0.0005
2178.00,0.0006
2177.00,0.0005
2176.00,0.0002
2175.00,-0.0001
2174.00,-0.0002
2173.00,-0.0001
2172.00,0.0001
2171.00,0.0004
2170.00,0.0008
2169.00,0.0013
2168.00,0.0018
2167.00,0.0020
2166.00,0.0020
2165.00,0.0018
2164.00,0.0018
2163.00,0.0020
2162.00,0.0021
2161.00,0.0017
2160.00,0.0005
2159.00,-0.0011
2158.00,-0.0024
2157.00,-0.0029
2156.00,-0.0026
2155.00,-0.0020
2154.00,-0.0014
2153.00,-0.0009
2152.00,-0.0006
2151.00,-0.0006
2150.00,-0.0008
2149.00,-0.0012
2148.00,-0.0016
2147.00,-0.0021
2146.00,-0.0023
2145.00,-0.0023
2144.00,-0.0021
2143.00,-0.0019
2142.00,-0.0017
2141.00,-0.0015
2140.00,-0.0013
2139.00,-0.0013
2138.00,-0.0014
2137.00,-0.0015
2136.00,-0.0016
2135.00,-0.0017
2134.00,-0.0017
2133.00,-0.0015
2132.00,-0.0013
2131.00,-0.0012
2130.00,-0.0012
2129.00,-0.0012
2128.00,-0.0012
2127.00,-0.0011
2126.00,-0.0009
2125.00,-0.0007
2124.00,-0.0005
2123.00,-0.0004
2122.00,-0.0004
2121.00,-0.0003
2120.00,-0.0002
2119.00,-0.0001
2118.00,0.0000
2117.00,0.0003
2116.00,0.0005
2115.00,0.0006
2114.00,0.0006
2113.00,0.0004
2112.00,0.0003
2111.00,0.0002
2110.00,0.0002
2109.00,0.0002
2108.00,0.0003
2107.00,0.0003
2106.00,0.0003
2105.00,0.0003
2104.00,0.0003
2103.00,0.0003
2102.00,0.0003
2101.00,0.0003
2100.00,0.0002
2099.00,0.0002
2098.00,0.0001
2097.00,-0.0000
2096.00,-0.0003
2095.00,-0.0006
2094.00,-0.0007
2093.00,-0.0006
2092.00,-0.0004
2091.00,-0.0001
2090.00,0.0001
2089.00,0.0002
2088.00,0.0002
2087.00,0.0003
2086.00,0.0003
2085.00,0.0003
2084.00,0.0003
2083.00,0.0002
2082.00,0.0001
2081.00,0.0001
2080.00,0.0002
2079.00,0.0003
2078.00,0.0004
2077.00,0.0005
2076.00,0.0004
2075.00,0.0003
2074.00,0.0001
2073.00,-0.0001
2072.00,-0.0003
2071.00,-0.0004
2070.00,-0.0003
2069.00,-0.0001
2068.00,0.0000
2067.00,0.0002
2066.00,0.0002
2065.00,0.0001
2064.00,0.0001
2063.00,0.0001
2062.00,0.0002
2061.00,0.0002
2060.00,0.0002
2059.00,0.0001
2058.00,0.0000
2057.00,-0.0001
2056.00,-0.0002
2055.00,-0.0002
2054.00,-0.0000
2053.00,0.0004
2052.00,0.0010
2051.00,0.0014
2050.00,0.0013
2049.00,0.0009
2048.00,0.0005
2047.00,0.0002
2046.00,0.0001
2045.00,0.0002
2044.00,0.0003
2043.00,0.0003
2042.00,0.0002
2041.00,-0.0000
2040.00,-0.0002
2039.00,-0.0002
2038.00,-0.0000
2037.00,0.0003
2036.00,0.0007
2035.00,0.0009
2034.00,0.0007
2033.00,0.0003
2032.00,-0.0001
2031.00,-0.0005
2030.00,-0.0007
2029.00,-0.0008
2028.00,-0.0008
2027.00,-0.0008
2026.00,-0.0009
2025.00,-0.0011
2024.00,-0.0014
2023.00,-0.0015
2022.00,-0.0015
2021.00,-0.0014
2020.00,-0.0012
2019.00,-0.0011
2018.00,-0.0009
2017.00,-0.0006
2016.00,-0.0004
2015.00,-0.0004
2014.00,-0.0006
2013.00,-0.0007
2012.00,-0.0006
2011.00,-0.0005
2010.00,-0.0006
2009.00,-0.0008
2008.00,-0.0011
2007.00,-0.0014
2006.00,-0.0015
2005.00,-0.0013
2004.00,-0.0010
2003.00,-0.0009
2002.00,-0.0009
2001.00,-0.0010
2000.00,-0.0011
1999.00,-0.0012
1998.00,-0.0011
1997.00,-0.0009
1996.00,-0.0006
1995.00,-0.0005
1994.00,-0.0005
1993.00,-0.0005
1992.00,-0.0003
1991.00,0.0001
1990.00,0.0004
1989.00,0.0006
1988.00,0.0006
1987.00,0.0004
1986.00,0.0002
1985.00,0.0001
1984.00,0.0001
1983.00,0.0002
1982.00,0.0004
1981.00,0.0006
1980.00,0.0006
1979.00,0.0004
1978.00,-0.0001
1977.00,-0.0007
1976.00,-0.0013
1975.00,-0.0016
1974.00,-0.0017
1973.00,-0.0015
1972.00,-0.0012
1971.00,-0.0010
1970.00,-0.0010
1969.00,-0.0010
1968.00,-0.0011
1967.00,-0.0011
1966.00,-0.0011
1965.00,-0.0012
1964.00,-0.0013
1963.00,-0.0014
1962.00,-0.0014
1961.00,-0.0015
1960.00,-0.0017
1959.00,-0.0021
1958.00,-0.0023
1957.00,-0.0022
1956.00,-0.0019
1955.00,-0.0014
1954.00,-0.0011
1953.00,-0.0012
1952.00,-0.0014
1951.00,-0.0016
1950.00,-0.0017
1949.00,-0.0016
1948.00,-0.0016
1947.00,-0.0016
1946.00,-0.0015
1945.00,-0.0015
1944.00,-0.0015
1943.00,-0.0014
1942.00,-0.0014
1941.00,-0.0013
1940.00,-0.0012
1939.00,-0.0011
1938.00,-0.0010
1937.00,-0.0008
1936.00,-0.0008
1935.00,-0.0008
1934.00,-0.0009
1933.00,-0.0009
1932.00,-0.0008
1931.00,-0.0008
1930.00,-0.0008
1929.00,-0.0007
1928.00,-0.0007
1927.00,-0.0008
1926.00,-0.0008
1925.00,-0.0008
1924.00,-0.0008
1923.00,-0.0006
1922.00,-0.0005
1921.00,-0.0005
1920.00,-0.0004
1919.00,-0.0004
1918.00,-0.0004
1917.00,-0.0003
1916.00,-0.0002
1915.00,-0.0003
1914.00,-0.0003
1913.00,-0.0003
1912.00,-0.0003
1911.00,-0.0003
1910.00,-0.0004
1909.00,-0.0004
1908.00,-0.0004
1907.00,-0.0003
1906.00,-0.0002
1905.00,-0.0001
1904.00,-0.0001
1903.00,-0.0001
1902.00,-0.0000
1901.00,-0.0000
1900.00,-0.0000
1899.00,-0.0000
1898.00,-0.0000
1897.00,-0.0000
1896.00,-0.0000
1895.00,-0.0001
1894.00,-0.0001
1893.00,-0.0001
1892.00,-0.0000
1891.00,0.0000
1890.00,0.0001
1889.00,0.0001
1888.00,0.0001
1887.00,0.0000
1886.00,-0.0001
1885.00,-0.0001
1884.00,-0.0002
1883.00,-0.0002
1882.00,-0.0002
1881.00,-0.0002
1880.00,-0.0001
1879.00,-0.0001
1878.00,-0.0001
1877.00,-0.0002
1876.00,-0.0002
1875.00,-0.0002
1874.00,-0.0002
1873.00,-0.0002
1872.00,-0.0001
1871.00,-0.0001
1870.00,-0.0001
1869.00,-0.0000
1868.00,-0.0000
1867.00,0.0000
1866.00,0.0000
1865.00,0.0000
1864.00,-0.0000
1863.00,-0.0001
1862.00,-0.0000
1861.00,-0.0000
1860.00,-0.0000
1859.00,-0.0000
1858.00,-0.0001
1857.00,-0.0002
1856.00,-0.0002
1855.00,-0.0002
1854.00,-0.0002
1853.00,-0.0002
1852.00,-0.0002
1851.00,-0.0002
1850.00,-0.0002
1849.00,-0.0002
1848.00,-0.0001
1847.00,-0.0001
1846.00,-0.0001
1845.00,0.0000
1844.00,0.0001
1843.00,0.0001
1842.00,0.0001
1841.00,0.0001
1840.00,0.0001
1839.00,0.0001
1838.00,0.0001
1837.00,0.0002
1836.00,0.0003
1835.00,0.0004
1834.00,0.0004
1833.00,0.0005
1832.00,0.0004
1831.00,0.0004
1830.00,0.0003
1829.00,0.0002
1828.00,0.0002
1827.00,0.0002
1826.00,0.0002
1825.00,0.0003
1824.00,0.0004
1823.00,0.0004
1822.00,0.0003
1821.00,0.0003
1820.00,0.0002
1819.00,0.0001
1818.00,0.0000
1817.00,0.0000
1816.00,0.0000
1815.00,0.0001
1814.00,0.0001
1813.00,0.0001
1812.00,0.0002
1811.00,0.0002
1810.00,0.0003
1809.00,0.0004
1808.00,0.0004
1807.00,0.0004
1806.00,0.0004
1805.00,0.0004
1804.00,0.0005
1803.00,0.0005
1802.00,0.0005
1801.00,0.0005
1800.00,0.0006
1799.00,0.0006
1798.00,0.0006
1797.00,0.0005
1796.00,0.0005
1795.00,0.0005
1794.00,0.0005
1793.00,0.0006
1792.00,0.0006
1791.00,0.0006
1790.00,0.0005
1789.00,0.0005
1788.00,0.0004
1787.00,0.0005
1786.00,0.0006
1785.00,0.0007
1784.00,0.0007
1783.00,0.0008
1782.00,0.0007
1781.00,0.0007
1780.00,0.0008
1779.00,0.0008
1778.00,0.0008
1777.00,0.0007
1776.00,0.0007
1775.00,0.0007
1774.00,0.0007
1773.00,0.0007
1772.00,0.0008
1771.00,0.0008
1770.00,0.0008
1769.00,0.0009
1768.00,0.0009
1767.00,0.0010
1766.00,0.0010
1765.00,0.0010
1764.00,0.0010
1763.00,0.0010
1762.00,0.0010
1761.00,0.0010
1760.00,0.0010
1759.00,0.0011
1758.00,0.0011
1757.00,0.0011
1756.00,0.0012
1755.00,0.0012
1754.00,0.0012
1753.00,0.0013
1752.00,0.0013
1751.00,0.0014
1750.00,0.0015
1749.00,0.0015
1748.00,0.0015
1747.00,0.0016
1746.00,0.0016
1745.00,0.0016
1744.00,0.0017
1743.00,0.0017
1742.00,0.0017
1741.00,0.0017
1740.00,0.0017
1739.00,0.0017
1738.00,0.0018
1737.00,0.0018
1736.00,0.0018
1735.00,0.0018
1734.00,0.0018
1733.00,0.0018
1732.00,0.0018
1731.00,0.0018
1730.00,0.0018
1729.00,0.0018
1728.00,0.0018
1727.00,0.0018
1726.00,0.0019
1725.00,0.0019
1724.00,0.0019
1723.00,0.0020
1722.00,0.0020
1721.00,0.0020
1720.00,0.0019
1719.00,0.0019
1718.00,0.0018
1717.00,0.0018
1716.00,0.0019
1715.00,0.0020
1714.00,0.0020
1713.00,0.0021
1712.00,0.0022
1711.00,0.0022
1710.00,0.0022
1709.00,0.0022
1708.00,0.0022
1707.00,0.0023
1706.00,0.0023
1705.00,0.0024
1704.00,0.0024
1703.00,0.0025
1702.00,0.0025
1701.00,0.0025
1700.00,0.0025
1699.00,0.0026
1698.00,0.0026
1697.00,0.0027
1696.00,0.0028
1695.00,0.0029
1694.00,0.0029
1693.00,0.0030
1692.00,0.0031
1691.00,0.0031
1690.00,0.0032
1689.00,0.0032
1688.00,0.0033
1687.00,0.0033
1686.00,0.0034
1685.00,0.0035
1684.00,0.0036
1683.00,0.0036
1682.00,0.0036
1681.00,0.0037
1680.00,0.0038
1679.00,0.0039
1678.00,0.0040
1677.00,0.0041
1676.00,0.0041
1675.00,0.0042
1674.00,0.0043
1673.00,0.0043
1672.00,0.0043
1671.00,0.0044
1670.00,0.0044
1669.00,0.0045
1668.00,0.0046
1667.00,0.0046
1666.00,0.0047
1665.00,0.0048
1664.00,0.0048
1663.00,0.0048
1662.00,0.0048
1661.00,0.0049
1660.00,0.0049
1659.00,0.0050
1658.00,0.0051
1657.00,0.0052
1656.00,0.0053
1655.00,0.0054
1654.00,0.0054
1653.00,0.0056
1652.00,0.0057
1651.00,0.0057
1650.00,0.0058
1649.00,0.0059
1648.00,0.0061
1647.00,0.0063
1646.00,0.0063
1645.00,0.0062
1644.00,0.0061
1643.00,0.0061
1642.00,0.0060
1641.00,0.0059
1640.00,0.0059
1639.00,0.0059
1638.00,0.0059
1637.00,0.0058
1636.00,0.0058
1635.00,0.0057
1634.00,0.0056
1633.00,0.0056
1632.00,0.0056
1631.00,0.0056
1630.00,0.0056
1629.00,0.0056
1628.00,0.0056
1627.00,0.0056
1626.00,0.0055
1625.00,0.0054
1624.00,0.0054
1623.00,0.0053
1622.00,0.0053
1621.00,0.0053
1620.00,0.0053
1619.00,0.0053
1618.00,0.0052
1617.00,0.0052
1616.00,0.0052
1615.00,0.0052
1614.00,0.0051
1613.00,0.0051
1612.00,0.0051
1611.00,0.0050
1610.00,0.0050
1609.00,0.0050
1608.00,0.0050
1607.00,0.0050
1606.00,0.0050
1605.00,0.0050
1604.00,0.0050
1603.00,0.0050
1602.00,0.0050
1601.00,0.0050
1600.00,0.0050
1599.00,0.0050
1598.00,0.0050
1597.00,0.0049
1596.00,0.0049
1595.00,0.0049
1594.00,0.0048
1593.00,0.0048
1592.00,0.0049
1591.00,0.0049
1590.00,0.0049
1589.00,0.0050
1588.00,0.0050
1587.00,0.0051
1586.00,0.0051
1585.00,0.0051
1584.00,0.0052
1583.00,0.0053
1582.00,0.0054
1581.00,0.0055
1580.00,0.0057
1579.00,0.0058
1578.00,0.0058
1577.00,0.0059
1576.00,0.0058
1575.00,0.0057
1574.00,0.0056
1573.00,0.0056
1572.00,0.0055
1571.00,0.0055
1570.00,0.0055
1569.00,0.0054
1568.00,0.0054
1567.00,0.0054
1566.00,0.0054
1565.00,0.0054
1564.00,0.0054
1563.00,0.0054
1562.00,0.0054
1561.00,0.0054
1560.00,0.0055
1559.00,0.0055
1558.00,0.0055
1557.00,0.0056
1556.00,0.0056
1555.00,0.0056
1554.00,0.0057
1553.00,0.0057
1552.00,0.0058
1551.00,0.0058
1550.00,0.0059
1549.00,0.0061
1548.00,0.0062
1547.00,0.0063
1546.00,0.0063
1545.00,0.0065
1544.00,0.0067
1543.00,0.0068
1542.00,0.0069
1541.00,0.0068
1540.00,0.0067
1539.00,0.0065
1538.00,0.0064
1537.00,0.0062
1536.00,0.0061
1535.00,0.0058
1534.00,0.0056
1533.00,0.0054
1532.00,0.0054
1531.00,0.0053
1530.00,0.0053
1529.00,0.0052
1528.00,0.0052
1527.00,0.0052
1526.00,0.0051
1525.00,0.0052
1524.00,0.0052
1523.00,0.0052
1522.00,0.0052
1521.00,0.0052
1520.00,0.0053
1519.00,0.0053
1518.00,0.0052
1517.00,0.0053
1516.00,0.0053
1515.00,0.0053
1514.00,0.0054
1513.00,0.0055
1512.00,0.0056
1511.00,0.0057
1510.00,0.0058
1509.00,0.0059
1508.00,0.0061
1507.00,0.0062
1506.00,0.0062
1505.00,0.0064
1504.00,0.0066
1503.00,0.0067
1502.00,0.0069
1501.00,0.0071
1500.00,0.0073
1499.00,0.0075
1498.00,0.0077
1497.00,0.0081
1496.00,0.0085
1495.00,0.0087
1494.00,0.0090
1493.00,0.0092
1492.00,0.0095
1491.00,0.0098
1490.00,0.0102
1489.00,0.0107
1488.00,0.0113
1487.00,0.0118
1486.00,0.0123
1485.00,0.0130
1484.00,0.0137
1483.00,0.0144
1482.00,0.0152
1481.00,0.0163
1480.00,0.0176
1479.00,0.0188
1478.00,0.0203
1477.00,0.0222
1476.00,0.0245
1475.00,0.0271
1474.00,0.0306
1473.00,0.0360
1472.00,0.0427
1471.00,0.0494
1470.00,0.0559
1469.00,0.0628
1468.00,0.0702
1467.00,0.0784
1466.00,0.0878
1465.00,0.0981
1464.00,0.1073
1463.00,0.1140
1462.00,0.1185
1461.00,0.1217
1460.00,0.1240
1459.00,0.1256
1458.00,0.1266
1457.00,0.1273
1456.00,0.1270
1455.00,0.1259
1454.00,0.1244
1453.00,0.1223
1452.00,0.1191
1451.00,0.1145
1450.00,0.1085
1449.00,0.1004
1448.00,0.0906
1447.00,0.0805
1446.00,0.0718
1445.00,0.0645
1444.00,0.0584
1443.00,0.0535
1442.00,0.0500
1441.00,0.0478
1440.00,0.0465
1439.00,0.0462
1438.00,0.0466
1437.00,0.0470
1436.00,0.0460
1435.00,0.0433
1434.00,0.0392
1433.00,0.0344
1432.00,0.0294
1431.00,0.0250
1430.00,0.0217
1429.00,0.0193
1428.00,0.0177
1427.00,0.0168
1426.00,0.0161
1425.00,0.0156
1424.00,0.0151
1423.00,0.0148
1422.00,0.0146
1421.00,0.0144
1420.00,0.0140
1419.00,0.0137
1418.00,0.0135
1417.00,0.0133
1416.00,0.0131
1415.00,0.0129
1414.00,0.0129
1413.00,0.0127
1412.00,0.0125
1411.00,0.0125
1410.00,0.0124
1409.00,0.0123
1408.00,0.0122
1407.00,0.0122
1406.00,0.0122
1405.00,0.0121
1404.00,0.0121
1403.00,0.0122
1402.00,0.0124
1401.00,0.0125
1400.00,0.0126
1399.00,0.0129
1398.00,0.0132
1397.00,0.0133
1396.00,0.0135
1395.00,0.0139
1394.00,0.0145
1393.00,0.0151
1392.00,0.0157
1391.00,0.0166
1390.00,0.0179
1389.00,0.0196
1388.00,0.0223
1387.00,0.0263
1386.00,0.0317
1385.00,0.0385
1384.00,0.0473
1383.00,0.0593
1382.00,0.0753
1381.00,0.0960
1380.00,0.1219
1379.00,0.1522
1378.00,0.1824
1377.00,0.2059
1376.00,0.2157
1375.00,0.2071
1374.00,0.1821
1373.00,0.1505
1372.00,0.1210
1371.00,0.0965
1370.00,0.0769
1369.00,0.0621
1368.00,0.0519
1367.00,0.0456
1366.00,0.0422
1365.00,0.0409
1364.00,0.0411
1363.00,0.0427
1362.00,0.0451
1361.00,0.0476
1360.00,0.0495
1359.00,0.0500
1358.00,0.0487
1357.00,0.0457
1356.00,0.0414
1355.00,0.0366
1354.00,0.0320
1353.00,0.0281
1352.00,0.0249
1351.00,0.0224
1350.00,0.0204
1349.00,0.0188
1348.00,0.0175
1347.00,0.0165
1346.00,0.0156
1345.00,0.0149
1344.00,0.0144
1343.00,0.0140
1342.00,0.0136
1341.00,0.0133
1340.00,0.0130
1339.00,0.0128
1338.00,0.0126
1337.00,0.0126
1336.00,0.0127
1335.00,0.0129
1334.00,0.0133
1333.00,0.0137
1332.00,0.0141
1331.00,0.0145
1330.00,0.0147
1329.00,0.0145
1328.00,0.0141
1327.00,0.0134
1326.00,0.0127
1325.00,0.0120
1324.00,0.0113
1323.00,0.0108
1322.00,0.0103
1321.00,0.0099
1320.00,0.0096
1319.00,0.0094
1318.00,0.0091
1317.00,0.0089
1316.00,0.0088
1315.00,0.0086
1314.00,0.0086
1313.00,0.0086
1312.00,0.0087
1311.00,0.0089
1310.00,0.0092
1309.00,0.0097
1308.00,0.0103
1307.00,0.0111
1306.00,0.0120
1305.00,0.0126
1304.00,0.0129
1303.00,0.0129
1302.00,0.0128
1301.00,0.0127
1300.00,0.0127
1299.00,0.0129
1298.00,0.0131
1297.00,0.0133
1296.00,0.0133
1295.00,0.0131
1294.00,0.0127
1293.00,0.0122
1292.00,0.0117
1291.00,0.0111
1290.00,0.0106
1289.00,0.0102
1288.00,0.0098
1287.00,0.0095
1286.00,0.0091
1285.00,0.0088
1284.00,0.0086
1283.00,0.0084
1282.00,0.0083
1281.00,0.0082
1280.00,0.0081
1279.00,0.0080
1278.00,0.0079
1277.00,0.0078
1276.00,0.0078
1275.00,0.0077
1274.00,0.0077
1273.00,0.0078
1272.00,0.0078
1271.00,0.0079
1270.00,0.0079
1269.00,0.0080
1268.00,0.0081
1267.00,0.0083
1266.00,0.0084
1265.00,0.0086
1264.00,0.0088
1263.00,0.0090
1262.00,0.0093
1261.00,0.0097
1260.00,0.0102
1259.00,0.0107
1258.00,0.0112
1257.00,0.0116
1256.00,0.0117
1255.00,0.0115
1254.00,0.0111
1253.00,0.0106
1252.00,0.0101
1251.00,0.0097
1250.00,0.0094
1249.00,0.0091
1248.00,0.0089
1247.00,0.0087
1246.00,0.0086
1245.00,0.0086
1244.00,0.0085
1243.00,0.0085
1242.00,0.0084
1241.00,0.0083
1240.00,0.0082
1239.00,0.0082
1238.00,0.0081
1237.00,0.0080
1236.00,0.0080
1235.00,0.0079
1234.00,0.0079
1233.00,0.0080
1232.00,0.0080
1231.00,0.0080
1230.00,0.0080
1229.00,0.0080
1228.00,0.0081
1227.00,0.0083
1226.00,0.0085
1225.00,0.0087
1224.00,0.0090
1223.00,0.0093
1222.00,0.0096
1221.00,0.0099
1220.00,0.0101
1219.00,0.0103
1218.00,0.0102
1217.00,0.0101
1216.00,0.0098
1215.00,0.0095
1214.00,0.0092
1213.00,0.0089
1212.00,0.0085
1211.00,0.0081
1210.00,0.0079
1209.00,0.0077
1208.00,0.0075
1207.00,0.0074
1206.00,0.0073
1205.00,0.0072
1204.00,0.0072
1203.00,0.0071
1202.00,0.0071
1201.00,0.0070
1200.00,0.0070
1199.00,0.0070
1198.00,0.0070
1197.00,0.0070
1196.00,0.0069
1195.00,0.0069
1194.00,0.0069
1193.00,0.0069
1192.00,0.0069
1191.00,0.0069
1190.00,0.0069
1189.00,0.0068
1188.00,0.0068
1187.00,0.0069
1186.00,0.0070
1185.00,0.0071
1184.00,0.0072
1183.00,0.0073
1182.00,0.0075
1181.00,0.0076
1180.00,0.0079
1179.00,0.0082
1178.00,0.0087
1177.00,0.0094
1176.00,0.0104
1175.00,0.0116
1174.00,0.0132
1173.00,0.0152
1172.00,0.0175
1171.00,0.0199
1170.00,0.0222
1169.00,0.0241
1168.00,0.0252
1167.00,0.0257
1166.00,0.0254
1165.00,0.0247
1164.00,0.0237
1163.00,0.0227
1162.00,0.0218
1161.00,0.0210
1160.00,0.0204
1159.00,0.0200
1158.00,0.0197
1157.00,0.0195
1156.00,0.0193
1155.00,0.0193
1154.00,0.0192
1153.00,0.0189
1152.00,0.0186
1151.00,0.0180
1150.00,0.0174
1149.00,0.0165
1148.00,0.0156
1147.00,0.0147
1146.00,0.0138
1145.00,0.0131
1144.00,0.0124
1143.00,0.0118
1142.00,0.0112
1141.00,0.0107
1140.00,0.0102
1139.00,0.0097
1138.00,0.0093
1137.00,0.0090
1136.00,0.0087
1135.00,0.0084
1134.00,0.0082
1133.00,0.0081
1132.00,0.0080
1131.00,0.0080
1130.00,0.0081
1129.00,0.0081
1128.00,0.0082
1127.00,0.0084
1126.00,0.0085
1125.00,0.0086
1124.00,0.0087
1123.00,0.0087
1122.00,0.0088
1121.00,0.0089
1120.00,0.0090
1119.00,0.0090
1118.00,0.0090
1117.00,0.0091
1116.00,0.0092
1115.00,0.0093
1114.00,0.0095
1113.00,0.0097
1112.00,0.0098
1111.00,0.0101
1110.00,0.0105
1109.00,0.0110
1108.00,0.0116
1107.00,0.0124
1106.00,0.0132
1105.00,0.0140
1104.00,0.0147
1103.00,0.0151
1102.00,0.0152
1101.00,0.0148
1100.00,0.0143
1099.00,0.0136
1098.00,0.0129
1097.00,0.0122
1096.00,0.0116
1095.00,0.0110
1094.00,0.0106
1093.00,0.0102
1092.00,0.0100
1091.00,0.0098
1090.00,0.0096
1089.00,0.0094
1088.00,0.0092
1087.00,0.0091
1086.00,0.0090
1085.00,0.0089
1084.00,0.0087
1083.00,0.0086
1082.00,0.0086
1081.00,0.0085
1080.00,0.0083
1079.00,0.0082
1078.00,0.0081
1077.00,0.0080
1076.00,0.0080
1075.00,0.0080
1074.00,0.0079
1073.00,0.0079
1072.00,0.0079
1071.00,0.0079
1070.00,0.0079
1069.00,0.0079
1068.00,0.0079
1067.00,0.0080
1066.00,0.0080
1065.00,0.0080
1064.00,0.0080
1063.00,0.0079
1062.00,0.0079
1061.00,0.0079
1060.00,0.0078
1059.00,0.0079
1058.00,0.0079
1057.00,0.0080
1056.00,0.0081
1055.00,0.0082
1054.00,0.0083
1053.00,0.0083
1052.00,0.0084
1051.00,0.0084
1050.00,0.0086
1049.00,0.0088
1048.00,0.0090
1047.00,0.0092
1046.00,0.0094
1045.00,0.0095
1044.00,0.0095
1043.00,0.0093
1042.00,0.0091
1041.00,0.0090
1040.00,0.0090
1039.00,0.0090
1038.00,0.0091
1037.00,0.0092
1036.00,0.0092
1035.00,0.0092
1034.00,0.0092
1033.00,0.0091
1032.00,0.0090
1031.00,0.0090
1030.00,0.0090
1029.00,0.0091
1028.00,0.0091
1027.00,0.0091
1026.00,0.0091
1025.00,0.0090
1024.00,0.0089
1023.00,0.0089
1022.00,0.0090
1021.00,0.0090
1020.00,0.0090
1019.00,0.0091
1018.00,0.0092
1017.00,0.0094
1016.00,0.0095
1015.00,0.0097
1014.00,0.0099
1013.00,0.0101
1012.00,0.0104
1011.00,0.0106
1010.00,0.0108
1009.00,0.0111
1008.00,0.0115
1007.00,0.0121
1006.00,0.0128
1005.00,0.0137
1004.00,0.0148
1003.00,0.0163
1002.00,0.0182
1001.00,0.0205
1000.00,0.0228
999.00,0.0247
998.00,0.0256
997.00,0.0250
996.00,0.0231
995.00,0.0205
994.00,0.0177
993.00,0.0153
992.00,0.0134
991.00,0.0121
990.00,0.0111
989.00,0.0105
988.00,0.0100
987.00,0.0098
986.00,0.0099
985.00,0.0101
984.00,0.0106
983.00,0.0112
982.00,0.0122
981.00,0.0136
980.00,0.0156
979.00,0.0183
978.00,0.0214
977.00,0.0250
976.00,0.0287
975.00,0.0319
974.00,0.0338
973.00,0.0342
972.00,0.0327
971.00,0.0297
970.00,0.0259
969.00,0.0222
968.00,0.0189
967.00,0.0164
966.00,0.0144
965.00,0.0129
964.00,0.0118
963.00,0.0109
962.00,0.0102
961.00,0.0097
960.00,0.0093
959.00,0.0090
958.00,0.0088
957.00,0.0086
956.00,0.0083
955.00,0.0081
954.00,0.0080
953.00,0.0079
952.00,0.0078
951.00,0.0077
950.00,0.0077
949.00,0.0078
948.00,0.0080
947.00,0.0082
946.00,0.0085
945.00,0.0088
944.00,0.0092
943.00,0.0095
942.00,0.0098
941.00,0.0098
940.00,0.0097
939.00,0.0094
938.00,0.0091
937.00,0.0087
936.00,0.0082
935.00,0.0078
934.00,0.0074
933.00,0.0071
932.00,0.0068
931.00,0.0067
930.00,0.0066
929.00,0.0064
928.00,0.0063
927.00,0.0062
926.00,0.0061
925.00,0.0062
924.00,0.0063
923.00,0.0065
922.00,0.0066
921.00,0.0067
920.00,0.0068
919.00,0.0070
918.00,0.0071
917.00,0.0072
916.00,0.0073
915.00,0.0074
914.00,0.0075
913.00,0.0075
912.00,0.0076
911.00,0.0078
910.00,0.0079
909.00,0.0082
908.00,0.0085
907.00,0.0090
906.00,0.0097
905.00,0.0108
904.00,0.0122
903.00,0.0142
902.00,0.0163
901.00,0.0184
900.00,0.0199
899.00,0.0203
898.00,0.0196
897.00,0.0180
896.00,0.0159
895.00,0.0138
894.00,0.0121
893.00,0.0108
892.00,0.0098
891.00,0.0091
890.00,0.0085
889.00,0.0081
888.00,0.0077
887.00,0.0076
886.00,0.0074
885.00,0.0073
884.00,0.0072
883.00,0.0072
882.00,0.0071
881.00,0.0072
880.00,0.0073
879.00,0.0074
878.00,0.0075
877.00,0.0075
876.00,0.0075
875.00,0.0076
874.00,0.0077
873.00,0.0077
872.00,0.0076
871.00,0.0075
870.00,0.0074
869.00,0.0073
868.00,0.0073
867.00,0.0073
866.00,0.0073
865.00,0.0074
864.00,0.0075
863.00,0.0077
862.00,0.0079
861.00,0.0081
860.00,0.0083
859.00,0.0085
858.00,0.0086
857.00,0.0086
856.00,0.0086
855.00,0.0087
854.00,0.0088
853.00,0.0090
852.00,0.0092
851.00,0.0096
850.00,0.0100
849.00,0.0105
848.00,0.0112
847.00,0.0121
846.00,0.0135
845.00,0.0157
844.00,0.0185
843.00,0.0214
842.00,0.0233
841.00,0.0234
840.00,0.0217
839.00,0.0191
838.00,0.0165
837.00,0.0145
836.00,0.0131
835.00,0.0123
834.00,0.0118
833.00,0.0115
832.00,0.0113
831.00,0.0111
830.00,0.0109
829.00,0.0108
828.00,0.0107
827.00,0.0105
826.00,0.0104
825.00,0.0102
824.00,0.0101
823.00,0.0101
822.00,0.0103
821.00,0.0105
820.00,0.0109
819.00,0.0113
818.00,0.0118
817.00,0.0125
816.00,0.0133
815.00,0.0144
814.00,0.0158
813.00,0.0174
812.00,0.0191
811.00,0.0207
810.00,0.0219
809.00,0.0225
808.00,0.0224
807.00,0.0216
806.00,0.0203
805.00,0.0186
804.00,0.0169
803.00,0.0154
802.00,0.0143
801.00,0.0133
800.00,0.0125
799.00,0.0119
798.00,0.0113
797.00,0.0107
796.00,0.0102
795.00,0.0098
794.00,0.0095
793.00,0.0092
792.00,0.0090
791.00,0.0088
790.00,0.0085
789.00,0.0083
788.00,0.0080
787.00,0.0078
786.00,0.0076
785.00,0.0073
784.00,0.0070
783.00,0.0067
782.00,0.0064
781.00,0.0062
780.00,0.0061
779.00,0.0061
778.00,0.0061
777.00,0.0062
776.00,0.0063
775.00,0.0065
774.00,0.0066
773.00,0.0068
772.00,0.0069
771.00,0.0071
770.00,0.0073
769.00,0.0075
768.00,0.0077
767.00,0.0077
766.00,0.0076
765.00,0.0075
764.00,0.0072
763.00,0.0070
762.00,0.0067
761.00,0.0065
760.00,0.0062
759.00,0.0060
758.00,0.0058
757.00,0.0057
756.00,0.0056
755.00,0.0054
754.00,0.0052
753.00,0.0051
752.00,0.0050
751.00,0.0050
750.00,0.0052
749.00,0.0053
748.00,0.0054
747.00,0.0055
746.00,0.0055
745.00,0.0055
744.00,0.0055
743.00,0.0056
742.00,0.0057
741.00,0.0060
740.00,0.0061
739.00,0.0063
738.00,0.0064
737.00,0.0065
736.00,0.0067
735.00,0.0068
734.00,0.0069
733.00,0.0069
732.00,0.0070
731.00,0.0072
730.00,0.0073
729.00,0.0072
728.00,0.0071
727.00,0.0070
726.00,0.0070
725.00,0.0068
724.00,0.0066
723.00,0.0065
722.00,0.0064
721.00,0.0063
720.00,0.0062
719.00,0.0060
718.00,0.0060
717.00,0.0060
716.00,0.0061
715.00,0.0061
714.00,0.0060
713.00,0.0058
712.00,0.0058
711.00,0.0058
710.00,0.0060
709.00,0.0061
708.00,0.0062
707.00,0.0063
706.00,0.0063
705.00,0.0062
704.00,0.0060
703.00,0.0058
702.00,0.0057
701.00,0.0057
700.00,0.0055
699.00,0.0052
698.00,0.0050
697.00,0.0049
696.00,0.0050
695.00,0.0052
694.00,0.0054
693.00,0.0054
692.00,0.0055
691.00,0.0055
690.00,0.0055
689.00,0.0055
688.00,0.0055
687.00,0.0055
686.00,0.0054
685.00,0.0053
684.00,0.0050
683.00,0.0048
682.00,0.0047
681.00,0.0047
680.00,0.0048
679.00,0.0049
678.00,0.0051
677.00,0.0053
676.00,0.0054
675.00,0.0056
674.00,0.0057
673.00,0.0057
672.00,0.0057
671.00,0.0056
670.00,0.0056
669.00,0.0057
668.00,0.0060
667.00,0.0061
666.00,0.0058
665.00,0.0054
664.00,0.0052
663.00,0.0053
662.00,0.0053
661.00,0.0052
660.00,0.0049
659.00,0.0047
658.00,0.0047
657.00,0.0047
656.00,0.0048
655.00,0.0048
654.00,0.0049
653.00,0.0050
652.00,0.0051
651.00,0.0053
650.00,0.0054
649.00,0.0055
648.00,0.0055
647.00,0.0055
646.00,0.0055
645.00,0.0054
644.00,0.0054
643.00,0.0055
642.00,0.0056
641.00,0.0057
640.00,0.0058
639.00,0.0059
638.00,0.0059
637.00,0.0058
636.00,0.0058
635.00,0.0057
634.00,0.0057
633.00,0.0056
632.00,0.0056
631.00,0.0056
630.00,0.0056
629.00,0.0057
628.00,0.0057
627.00,0.0057
626.00,0.0055
625.00,0.0053
624.00,0.0053
623.00,0.0055
622.00,0.0057
621.00,0.0058
620.00,0.0057
619.00,0.0055
618.00,0.0054
617.00,0.0053
616.00,0.0053
615.00,0.0055
614.00,0.0056
613.00,0.0057
612.00,0.0056
611.00,0.0054
610.00,0.0053
609.00,0.0052
608.00,0.0053
607.00,0.0056
606.00,0.0060
605.00,0.0063
604.00,0.0064
603.00,0.0064
602.00,0.0062
601.00,0.0059
600.00,0.0055
599.00,0.0053
598.00,0.0052
597.00,0.0054
596.00,0.0057
595.00,0.0059
594.00,0.0060
593.00,0.0059
592.00,0.0058
591.00,0.0057
590.00,0.0057
589.00,0.0058
588.00,0.0060
587.00,0.0064
586.00,0.0066
585.00,0.0066
584.00,0.0064
583.00,0.0064
582.00,0.0065
581.00,0.0068
580.00,0.0069
579.00,0.0069
578.00,0.0068
577.00,0.0065
576.00,0.0063
575.00,0.0062
574.00,0.0061
573.00,0.0062
572.00,0.0064
571.00,0.0068
570.00,0.0070
569.00,0.0068
568.00,0.0064
567.00,0.0061
566.00,0.0061
565.00,0.0062
564.00,0.0062
563.00,0.0061
562.00,0.0060
561.00,0.0059
560.00,0.0059
559.00,0.0062
558.00,0.0065
557.00,0.0067
556.00,0.0066
555.00,0.0065
554.00,0.0066
553.00,0.0069
552.00,0.0072
551.00,0.0073
550.00,0.0070
549.00,0.0066
548.00,0.0062
547.00,0.0062
546.00,0.0065
545.00,0.0071
544.00,0.0075
543.00,0.0077
542.00,0.0077
541.00,0.0076
540.00,0.0074
539.00,0.0074
538.00,0.0076
537.00,0.0079
536.00,0.0081
535.00,0.0081
534.00,0.0082
533.00,0.0082
532.00,0.0083
531.00,0.0083
530.00,0.0083
529.00,0.0085
528.00,0.0091
527.00,0.0096
526.00,0.0098
525.00,0.0096
524.00,0.0094
523.00,0.0092
522.00,0.0089
521.00,0.0084
520.00,0.0077
519.00,0.0074
518.00,0.0074
517.00,0.0074
516.00,0.0070
515.00,0.0065
514.00,0.0061
513.00,0.0057
512.00,0.0054
511.00,0.0052
510.00,0.0054
509.00,0.0058
508.00,0.0062
507.00,0.0063
506.00,0.0060
505.00,0.0054
504.00,0.0050
503.00,0.0052
502.00,0.0058
501.00,0.0062
500.00,0.0062
499.00,0.0060
498.00,0.0061
497.00,0.0066
496.00,0.0069
495.00,0.0067
494.00,0.0063
493.00,0.0059
492.00,0.0055
491.00,0.0053
490.00,0.0054
489.00,0.0061
488.00,0.0067
487.00,0.0069
486.00,0.0063
485.00,0.0057
484.00,0.0057
483.00,0.0065
482.00,0.0077
481.00,0.0087
480.00,0.0089
479.00,0.0085
478.00,0.0078
477.00,0.0075
476.00,0.0078
475.00,0.0090
474.00,0.0102
473.00,0.0108
472.00,0.0106
471.00,0.0101
470.00,0.0099
469.00,0.0101
468.00,0.0105
467.00,0.0110
466.00,0.0112
465.00,0.0110
464.00,0.0110
463.00,0.0116
462.00,0.0128
461.00,0.0142
460.00,0.0153
459.00,0.0160
458.00,0.0160
457.00,0.0154
456.00,0.0143
455.00,0.0137
454.00,0.0138
453.00,0.0138
452.00,0.0129
451.00,0.0115
450.00,0.0103
