Created as New Dataset,Sample 138 By Administrator Date Tuesday, September 09 2025
cm-1,A
4000.00,0.0009
3999.00,0.0009
3998.00,0.0010
3997.00,0.0010
3996.00,0.0010
3995.00,0.0010
3994.00,0.0010
3993.00,0.0009
3992.00,0.0009
3991.00,0.0009
3990.00,0.0009
3989.00,0.0009
3988.00,0.0009
3987.00,0.0009
3986.00,0.0009
3985.00,0.0009
3984.00,0.0009
3983.00,0.0009
3982.00,0.0009
3981.00,0.0009
3980.00,0.0008
3979.00,0.0008
3978.00,0.0008
3977.00,0.0008
3976.00,0.0008
3975.00,0.0008
3974.00,0.0008
3973.00,0.0008
3972.00,0.0007
3971.00,0.0007
3970.00,0.0008
3969.00,0.0008
3968.00,0.0008
3967.00,0.0008
3966.00,0.0008
3965.00,0.0008
3964.00,0.0008
3963.00,0.0007
3962.00,0.0007
3961.00,0.0007
3960.00,0.0007
3959.00,0.0007
3958.00,0.0008
3957.00,0.0008
3956.00,0.0008
3955.00,0.0007
3954.00,0.0007
3953.00,0.0007
3952.00,0.0007
3951.00,0.0007
3950.00,0.0007
3949.00,0.0007
3948.00,0.0008
3947.00,0.0008
3946.00,0.0008
3945.00,0.0007
3944.00,0.0007
3943.00,0.0007
3942.00,0.0007
3941.00,0.0007
3940.00,0.0007
3939.00,0.0007
3938.00,0.0008
3937.00,0.0008
3936.00,0.0008
3935.00,0.0008
3934.00,0.0009
3933.00,0.0008
3932.00,0.0008
3931.00,0.0008
3930.00,0.0007
3929.00,0.0007
3928.00,0.0007
3927.00,0.0007
3926.00,0.0007
3925.00,0.0007
3924.00,0.0007
3923.00,0.0008
3922.00,0.0008
3921.00,0.0008
3920.00,0.0008
3919.00,0.0008
3918.00,0.0008
3917.00,0.0008
3916.00,0.0008
3915.00,0.0008
3914.00,0.0007
3913.00,0.0007
3912.00,0.0007
3911.00,0.0006
3910.00,0.0006
3909.00,0.0007
3908.00,0.0007
3907.00,0.0007
3906.00,0.0006
3905.00,0.0006
3904.00,0.0005
3903.00,0.0005
3902.00,0.0006
3901.00,0.0006
3900.00,0.0007
3899.00,0.0007
3898.00,0.0007
3897.00,0.0007
3896.00,0.0007
3895.00,0.0007
3894.00,0.0008
3893.00,0.0008
3892.00,0.0008
3891.00,0.0008
3890.00,0.0007
3889.00,0.0007
3888.00,0.0007
3887.00,0.0007
3886.00,0.0007
3885.00,0.0007
3884.00,0.0007
3883.00,0.0007
3882.00,0.0007
3881.00,0.0006
3880.00,0.0006
3879.00,0.0006
3878.00,0.0007
3877.00,0.0007
3876.00,0.0007
3875.00,0.0007
3874.00,0.0007
3873.00,0.0007
3872.00,0.0007
3871.00,0.0007
3870.00,0.0007
3869.00,0.0007
3868.00,0.0007
3867.00,0.0007
3866.00,0.0007
3865.00,0.0006
3864.00,0.0006
3863.00,0.0006
3862.00,0.0006
3861.00,0.0006
3860.00,0.0006
3859.00,0.0006
3858.00,0.0006
3857.00,0.0005
3856.00,0.0005
3855.00,0.0005
3854.00,0.0005
3853.00,0.0005
3852.00,0.0006
3851.00,0.0006
3850.00,0.0006
3849.00,0.0006
3848.00,0.0006
3847.00,0.0006
3846.00,0.0006
3845.00,0.0006
3844.00,0.0006
3843.00,0.0006
3842.00,0.0007
3841.00,0.0007
3840.00,0.0007
3839.00,0.0007
3838.00,0.0006
3837.00,0.0006
3836.00,0.0005
3835.00,0.0005
3834.00,0.0005
3833.00,0.0005
3832.00,0.0005
3831.00,0.0005
3830.00,0.0005
3829.00,0.0005
3828.00,0.0005
3827.00,0.0006
3826.00,0.0006
3825.00,0.0006
3824.00,0.0006
3823.00,0.0006
3822.00,0.0006
3821.00,0.0006
3820.00,0.0006
3819.00,0.0006
3818.00,0.0006
3817.00,0.0007
3816.00,0.0007
3815.00,0.0007
3814.00,0.0007
3813.00,0.0007
3812.00,0.0007
3811.00,0.0007
3810.00,0.0007
3809.00,0.0007
3808.00,0.0007
3807.00,0.0006
3806.00,0.0006
3805.00,0.0006
3804.00,0.0005
3803.00,0.0005
3802.00,0.0005
3801.00,0.0005
3800.00,0.0005
3799.00,0.0006
3798.00,0.0006
3797.00,0.0006
3796.00,0.0006
3795.00,0.0006
3794.00,0.0006
3793.00,0.0007
3792.00,0.0007
3791.00,0.0007
3790.00,0.0007
3789.00,0.0007
3788.00,0.0007
3787.00,0.0007
3786.00,0.0007
3785.00,0.0007
3784.00,0.0006
3783.00,0.0006
3782.00,0.0007
3781.00,0.0007
3780.00,0.0008
3779.00,0.0008
3778.00,0.0008
3777.00,0.0008
3776.00,0.0008
3775.00,0.0007
3774.00,0.0007
3773.00,0.0007
3772.00,0.0008
3771.00,0.0008
3770.00,0.0008
3769.00,0.0008
3768.00,0.0008
3767.00,0.0008
3766.00,0.0008
3765.00,0.0008
3764.00,0.0008
3763.00,0.0008
3762.00,0.0008
3761.00,0.0009
3760.00,0.0008
3759.00,0.0008
3758.00,0.0008
3757.00,0.0007
3756.00,0.0007
3755.00,0.0008
3754.00,0.0008
3753.00,0.0008
3752.00,0.0008
3751.00,0.0007
3750.00,0.0007
3749.00,0.0007
3748.00,0.0007
3747.00,0.0007
3746.00,0.0007
3745.00,0.0007
3744.00,0.0007
3743.00,0.0006
3742.00,0.0005
3741.00,0.0005
3740.00,0.0004
3739.00,0.0004
3738.00,0.0004
3737.00,0.0004
3736.00,0.0004
3735.00,0.0004
3734.00,0.0005
3733.00,0.0005
3732.00,0.0005
3731.00,0.0005
3730.00,0.0005
3729.00,0.0005
3728.00,0.0005
3727.00,0.0005
3726.00,0.0005
3725.00,0.0005
3724.00,0.0005
3723.00,0.0005
3722.00,0.0005
3721.00,0.0005
3720.00,0.0005
3719.00,0.0006
3718.00,0.0006
3717.00,0.0006
3716.00,0.0007
3715.00,0.0007
3714.00,0.0007
3713.00,0.0007
3712.00,0.0006
3711.00,0.0005
3710.00,0.0005
3709.00,0.0004
3708.00,0.0004
3707.00,0.0004
3706.00,0.0004
3705.00,0.0004
3704.00,0.0005
3703.00,0.0005
3702.00,0.0005
3701.00,0.0005
3700.00,0.0006
3699.00,0.0006
3698.00,0.0006
3697.00,0.0006
3696.00,0.0006
3695.00,0.0005
3694.00,0.0005
3693.00,0.0004
3692.00,0.0004
3691.00,0.0005
3690.00,0.0005
3689.00,0.0006
3688.00,0.0006
3687.00,0.0005
3686.00,0.0005
3685.00,0.0005
3684.00,0.0005
3683.00,0.0005
3682.00,0.0005
3681.00,0.0005
3680.00,0.0005
3679.00,0.0006
3678.00,0.0006
3677.00,0.0006
3676.00,0.0006
3675.00,0.0005
3674.00,0.0005
3673.00,0.0006
3672.00,0.0007
3671.00,0.0007
3670.00,0.0007
3669.00,0.0006
3668.00,0.0005
3667.00,0.0005
3666.00,0.0006
3665.00,0.0006
3664.00,0.0006
3663.00,0.0007
3662.00,0.0007
3661.00,0.0007
3660.00,0.0007
3659.00,0.0006
3658.00,0.0006
3657.00,0.0007
3656.00,0.0007
3655.00,0.0007
3654.00,0.0007
3653.00,0.0007
3652.00,0.0007
3651.00,0.0006
3650.00,0.0007
3649.00,0.0007
3648.00,0.0007
3647.00,0.0007
3646.00,0.0007
3645.00,0.0007
3644.00,0.0007
3643.00,0.0008
3642.00,0.0008
3641.00,0.0007
3640.00,0.0007
3639.00,0.0007
3638.00,0.0007
3637.00,0.0007
3636.00,0.0008
3635.00,0.0007
3634.00,0.0007
3633.00,0.0007
3632.00,0.0006
3631.00,0.0006
3630.00,0.0006
3629.00,0.0006
3628.00,0.0007
3627.00,0.0007
3626.00,0.0007
3625.00,0.0007
3624.00,0.0007
3623.00,0.0007
3622.00,0.0007
3621.00,0.0007
3620.00,0.0007
3619.00,0.0007
3618.00,0.0006
3617.00,0.0006
3616.00,0.0006
3615.00,0.0007
3614.00,0.0007
3613.00,0.0008
3612.00,0.0008
3611.00,0.0008
3610.00,0.0008
3609.00,0.0008
3608.00,0.0008
3607.00,0.0008
3606.00,0.0008
3605.00,0.0008
3604.00,0.0009
3603.00,0.0009
3602.00,0.0009
3601.00,0.0008
3600.00,0.0008
3599.00,0.0008
3598.00,0.0008
3597.00,0.0008
3596.00,0.0008
3595.00,0.0009
3594.00,0.0009
3593.00,0.0010
3592.00,0.0010
3591.00,0.0011
3590.00,0.0011
3589.00,0.0011
3588.00,0.0012
3587.00,0.0012
3586.00,0.0012
3585.00,0.0012
3584.00,0.0012
3583.00,0.0012
3582.00,0.0012
3581.00,0.0012
3580.00,0.0012
3579.00,0.0012
3578.00,0.0013
3577.00,0.0013
3576.00,0.0013
3575.00,0.0013
3574.00,0.0014
3573.00,0.0014
3572.00,0.0014
3571.00,0.0014
3570.00,0.0015
3569.00,0.0015
3568.00,0.0015
3567.00,0.0015
3566.00,0.0015
3565.00,0.0015
3564.00,0.0015
3563.00,0.0015
3562.00,0.0015
3561.00,0.0016
3560.00,0.0016
3559.00,0.0017
3558.00,0.0018
3557.00,0.0019
3556.00,0.0019
3555.00,0.0019
3554.00,0.0019
3553.00,0.0019
3552.00,0.0018
3551.00,0.0019
3550.00,0.0019
3549.00,0.0020
3548.00,0.0020
3547.00,0.0020
3546.00,0.0020
3545.00,0.0020
3544.00,0.0020
3543.00,0.0020
3542.00,0.0021
3541.00,0.0021
3540.00,0.0021
3539.00,0.0021
3538.00,0.0021
3537.00,0.0021
3536.00,0.0022
3535.00,0.0022
3534.00,0.0023
3533.00,0.0023
3532.00,0.0023
3531.00,0.0023
3530.00,0.0023
3529.00,0.0022
3528.00,0.0022
3527.00,0.0023
3526.00,0.0022
3525.00,0.0022
3524.00,0.0022
3523.00,0.0022
3522.00,0.0023
3521.00,0.0024
3520.00,0.0025
3519.00,0.0026
3518.00,0.0026
3517.00,0.0026
3516.00,0.0026
3515.00,0.0026
3514.00,0.0026
3513.00,0.0026
3512.00,0.0026
3511.00,0.0027
3510.00,0.0027
3509.00,0.0027
3508.00,0.0028
3507.00,0.0028
3506.00,0.0028
3505.00,0.0027
3504.00,0.0027
3503.00,0.0028
3502.00,0.0028
3501.00,0.0029
3500.00,0.0029
3499.00,0.0030
3498.00,0.0029
3497.00,0.0029
3496.00,0.0029
3495.00,0.0029
3494.00,0.0029
3493.00,0.0030
3492.00,0.0031
3491.00,0.0031
3490.00,0.0032
3489.00,0.0032
3488.00,0.0032
3487.00,0.0032
3486.00,0.0032
3485.00,0.0032
3484.00,0.0032
3483.00,0.0032
3482.00,0.0032
3481.00,0.0032
3480.00,0.0033
3479.00,0.0033
3478.00,0.0033
3477.00,0.0034
3476.00,0.0034
3475.00,0.0034
3474.00,0.0035
3473.00,0.0035
3472.00,0.0035
3471.00,0.0034
3470.00,0.0034
3469.00,0.0034
3468.00,0.0035
3467.00,0.0035
3466.00,0.0036
3465.00,0.0036
3464.00,0.0036
3463.00,0.0037
3462.00,0.0037
3461.00,0.0038
3460.00,0.0038
3459.00,0.0038
3458.00,0.0038
3457.00,0.0038
3456.00,0.0038
3455.00,0.0038
3454.00,0.0038
3453.00,0.0039
3452.00,0.0039
3451.00,0.0039
3450.00,0.0039
3449.00,0.0038
3448.00,0.0039
3447.00,0.0039
3446.00,0.0039
3445.00,0.0040
3444.00,0.0040
3443.00,0.0040
3442.00,0.0040
3441.00,0.0041
3440.00,0.0041
3439.00,0.0041
3438.00,0.0041
3437.00,0.0041
3436.00,0.0042
3435.00,0.0042
3434.00,0.0042
3433.00,0.0042
3432.00,0.0042
3431.00,0.0042
3430.00,0.0042
3429.00,0.0042
3428.00,0.0042
3427.00,0.0043
3426.00,0.0043
3425.00,0.0043
3424.00,0.0044
3423.00,0.0044
3422.00,0.0044
3421.00,0.0044
3420.00,0.0044
3419.00,0.0044
3418.00,0.0044
3417.00,0.0045
3416.00,0.0045
3415.00,0.0045
3414.00,0.0046
3413.00,0.0046
3412.00,0.0046
3411.00,0.0046
3410.00,0.0046
3409.00,0.0046
3408.00,0.0047
3407.00,0.0047
3406.00,0.0048
3405.00,0.0048
3404.00,0.0048
3403.00,0.0048
3402.00,0.0048
3401.00,0.0049
3400.00,0.0049
3399.00,0.0049
3398.00,0.0049
3397.00,0.0049
3396.00,0.0049
3395.00,0.0049
3394.00,0.0048
3393.00,0.0048
3392.00,0.0048
3391.00,0.0048
3390.00,0.0048
3389.00,0.0048
3388.00,0.0048
3387.00,0.0048
3386.00,0.0048
3385.00,0.0048
3384.00,0.0048
3383.00,0.0048
3382.00,0.0048
3381.00,0.0049
3380.00,0.0049
3379.00,0.0049
3378.00,0.0049
3377.00,0.0049
3376.00,0.0049
3375.00,0.0049
3374.00,0.0049
3373.00,0.0048
3372.00,0.0048
3371.00,0.0048
3370.00,0.0049
3369.00,0.0049
3368.00,0.0049
3367.00,0.0049
3366.00,0.0049
3365.00,0.0049
3364.00,0.0049
3363.00,0.0049
3362.00,0.0050
3361.00,0.0049
3360.00,0.0049
3359.00,0.0049
3358.00,0.0050
3357.00,0.0050
3356.00,0.0049
3355.00,0.0049
3354.00,0.0049
3353.00,0.0049
3352.00,0.0049
3351.00,0.0049
3350.00,0.0050
3349.00,0.0050
3348.00,0.0050
3347.00,0.0050
3346.00,0.0050
3345.00,0.0050
3344.00,0.0049
3343.00,0.0049
3342.00,0.0049
3341.00,0.0048
3340.00,0.0048
3339.00,0.0048
3338.00,0.0048
3337.00,0.0048
3336.00,0.0048
3335.00,0.0048
3334.00,0.0047
3333.00,0.0047
3332.00,0.0047
3331.00,0.0047
3330.00,0.0047
3329.00,0.0048
3328.00,0.0048
3327.00,0.0048
3326.00,0.0048
3325.00,0.0048
3324.00,0.0047
3323.00,0.0047
3322.00,0.0047
3321.00,0.0046
3320.00,0.0047
3319.00,0.0047
3318.00,0.0047
3317.00,0.0047
3316.00,0.0047
3315.00,0.0048
3314.00,0.0048
3313.00,0.0048
3312.00,0.0048
3311.00,0.0047
3310.00,0.0047
3309.00,0.0047
3308.00,0.0047
3307.00,0.0047
3306.00,0.0047
3305.00,0.0047
3304.00,0.0047
3303.00,0.0047
3302.00,0.0047
3301.00,0.0047
3300.00,0.0047
3299.00,0.0046
3298.00,0.0046
3297.00,0.0046
3296.00,0.0046
3295.00,0.0046
3294.00,0.0046
3293.00,0.0046
3292.00,0.0046
3291.00,0.0046
3290.00,0.0045
3289.00,0.0045
3288.00,0.0045
3287.00,0.0046
3286.00,0.0046
3285.00,0.0046
3284.00,0.0046
3283.00,0.0046
3282.00,0.0046
3281.00,0.0045
3280.00,0.0045
3279.00,0.0045
3278.00,0.0044
3277.00,0.0044
3276.00,0.0044
3275.00,0.0044
3274.00,0.0044
3273.00,0.0044
3272.00,0.0043
3271.00,0.0043
3270.00,0.0043
3269.00,0.0043
3268.00,0.0043
3267.00,0.0043
3266.00,0.0042
3265.00,0.0042
3264.00,0.0042
3263.00,0.0042
3262.00,0.0042
3261.00,0.0042
3260.00,0.0043
3259.00,0.0042
3258.00,0.0042
3257.00,0.0042
3256.00,0.0041
3255.00,0.0041
3254.00,0.0041
3253.00,0.0041
3252.00,0.0041
3251.00,0.0041
3250.00,0.0041
3249.00,0.0041
3248.00,0.0041
3247.00,0.0040
3246.00,0.0040
3245.00,0.0041
3244.00,0.0041
3243.00,0.0041
3242.00,0.0041
3241.00,0.0040
3240.00,0.0040
3239.00,0.0040
3238.00,0.0040
3237.00,0.0039
3236.00,0.0039
3235.00,0.0040
3234.00,0.0040
3233.00,0.0040
3232.00,0.0040
3231.00,0.0040
3230.00,0.0040
3229.00,0.0040
3228.00,0.0040
3227.00,0.0040
3226.00,0.0040
3225.00,0.0041
3224.00,0.0041
3223.00,0.0041
3222.00,0.0042
3221.00,0.0042
3220.00,0.0042
3219.00,0.0042
3218.00,0.0042
3217.00,0.0043
3216.00,0.0043
3215.00,0.0044
3214.00,0.0044
3213.00,0.0044
3212.00,0.0043
3211.00,0.0043
3210.00,0.0043
3209.00,0.0043
3208.00,0.0044
3207.00,0.0044
3206.00,0.0044
3205.00,0.0044
3204.00,0.0044
3203.00,0.0044
3202.00,0.0044
3201.00,0.0044
3200.00,0.0044
3199.00,0.0044
3198.00,0.0044
3197.00,0.0044
3196.00,0.0044
3195.00,0.0045
3194.00,0.0045
3193.00,0.0044
3192.00,0.0044
3191.00,0.0044
3190.00,0.0043
3189.00,0.0043
3188.00,0.0043
3187.00,0.0043
3186.00,0.0043
3185.00,0.0043
3184.00,0.0043
3183.00,0.0043
3182.00,0.0042
3181.00,0.0042
3180.00,0.0042
3179.00,0.0042
3178.00,0.0042
3177.00,0.0042
3176.00,0.0041
3175.00,0.0041
3174.00,0.0041
3173.00,0.0040
3172.00,0.0040
3171.00,0.0040
3170.00,0.0040
3169.00,0.0040
3168.00,0.0039
3167.00,0.0039
3166.00,0.0039
3165.00,0.0039
3164.00,0.0039
3163.00,0.0039
3162.00,0.0039
3161.00,0.0039
3160.00,0.0039
3159.00,0.0039
3158.00,0.0038
3157.00,0.0038
3156.00,0.0038
3155.00,0.0038
3154.00,0.0038
3153.00,0.0038
3152.00,0.0038
3151.00,0.0038
3150.00,0.0038
3149.00,0.0038
3148.00,0.0038
3147.00,0.0038
3146.00,0.0038
3145.00,0.0038
3144.00,0.0038
3143.00,0.0038
3142.00,0.0038
3141.00,0.0037
3140.00,0.0037
3139.00,0.0037
3138.00,0.0037
3137.00,0.0036
3136.00,0.0036
3135.00,0.0036
3134.00,0.0035
3133.00,0.0035
3132.00,0.0035
3131.00,0.0035
3130.00,0.0035
3129.00,0.0035
3128.00,0.0035
3127.00,0.0034
3126.00,0.0033
3125.00,0.0033
3124.00,0.0033
3123.00,0.0033
3122.00,0.0033
3121.00,0.0032
3120.00,0.0032
3119.00,0.0032
3118.00,0.0031
3117.00,0.0032
3116.00,0.0031
3115.00,0.0031
3114.00,0.0031
3113.00,0.0030
3112.00,0.0030
3111.00,0.0030
3110.00,0.0030
3109.00,0.0030
3108.00,0.0030
3107.00,0.0030
3106.00,0.0030
3105.00,0.0030
3104.00,0.0030
3103.00,0.0030
3102.00,0.0030
3101.00,0.0030
3100.00,0.0030
3099.00,0.0030
3098.00,0.0030
3097.00,0.0030
3096.00,0.0030
3095.00,0.0030
3094.00,0.0030
3093.00,0.0029
3092.00,0.0029
3091.00,0.0029
3090.00,0.0029
3089.00,0.0029
3088.00,0.0029
3087.00,0.0029
3086.00,0.0029
3085.00,0.0029
3084.00,0.0028
3083.00,0.0028
3082.00,0.0028
3081.00,0.0028
3080.00,0.0028
3079.00,0.0028
3078.00,0.0028
3077.00,0.0028
3076.00,0.0029
3075.00,0.0029
3074.00,0.0029
3073.00,0.0029
3072.00,0.0029
3071.00,0.0029
3070.00,0.0030
3069.00,0.0030
3068.00,0.0030
3067.00,0.0031
3066.00,0.0031
3065.00,0.0031
3064.00,0.0032
3063.00,0.0032
3062.00,0.0032
3061.00,0.0031
3060.00,0.0031
3059.00,0.0031
3058.00,0.0031
3057.00,0.0031
3056.00,0.0031
3055.00,0.0032
3054.00,0.0032
3053.00,0.0032
3052.00,0.0032
3051.00,0.0032
3050.00,0.0032
3049.00,0.0033
3048.00,0.0033
3047.00,0.0033
3046.00,0.0033
3045.00,0.0033
3044.00,0.0033
3043.00,0.0033
3042.00,0.0033
3041.00,0.0033
3040.00,0.0034
3039.00,0.0034
3038.00,0.0035
3037.00,0.0035
3036.00,0.0035
3035.00,0.0036
3034.00,0.0036
3033.00,0.0037
3032.00,0.0038
3031.00,0.0038
3030.00,0.0039
3029.00,0.0040
3028.00,0.0040
3027.00,0.0041
3026.00,0.0041
3025.00,0.0041
3024.00,0.0042
3023.00,0.0042
3022.00,0.0043
3021.00,0.0044
3020.00,0.0044
3019.00,0.0045
3018.00,0.0046
3017.00,0.0047
3016.00,0.0048
3015.00,0.0049
3014.00,0.0050
3013.00,0.0051
3012.00,0.0053
3011.00,0.0054
3010.00,0.0056
3009.00,0.0057
3008.00,0.0059
3007.00,0.0061
3006.00,0.0063
3005.00,0.0065
3004.00,0.0068
3003.00,0.0070
3002.00,0.0072
3001.00,0.0074
3000.00,0.0077
2999.00,0.0080
2998.00,0.0083
2997.00,0.0087
2996.00,0.0091
2995.00,0.0096
2994.00,0.0100
2993.00,0.0105
2992.00,0.0111
2991.00,0.0117
2990.00,0.0123
2989.00,0.0131
2988.00,0.0139
2987.00,0.0148
2986.00,0.0158
2985.00,0.0170
2984.00,0.0183
2983.00,0.0197
2982.00,0.0213
2981.00,0.0231
2980.00,0.0250
2979.00,0.0272
2978.00,0.0297
2977.00,0.0325
2976.00,0.0358
2975.00,0.0394
2974.00,0.0436
2973.00,0.0483
2972.00,0.0536
2971.00,0.0595
2970.00,0.0660
2969.00,0.0732
2968.00,0.0809
2967.00,0.0890
2966.00,0.0974
2965.00,0.1058
2964.00,0.1139
2963.00,0.1214
2962.00,0.1279
2961.00,0.1335
2960.00,0.1382
2959.00,0.1425
2958.00,0.1468
2957.00,0.1517
2956.00,0.1576
2955.00,0.1646
2954.00,0.1727
2953.00,0.1811
2952.00,0.1891
2951.00,0.1955
2950.00,0.1992
2949.00,0.1991
2948.00,0.1947
2947.00,0.1862
2946.00,0.1745
2945.00,0.1609
2944.00,0.1473
2943.00,0.1348
2942.00,0.1246
2941.00,0.1171
2940.00,0.1123
2939.00,0.1101
2938.00,0.1102
2937.00,0.1123
2936.00,0.1162
2935.00,0.1218
2934.00,0.1290
2933.00,0.1375
2932.00,0.1472
2931.00,0.1579
2930.00,0.1693
2929.00,0.1810
2928.00,0.1927
2927.00,0.2040
2926.00,0.2150
2925.00,0.2254
2924.00,0.2355
2923.00,0.2454
2922.00,0.2552
2921.00,0.2646
2920.00,0.2730
2919.00,0.2797
2918.00,0.2835
2917.00,0.2838
2916.00,0.2804
2915.00,0.2735
2914.00,0.2641
2913.00,0.2532
2912.00,0.2419
2911.00,0.2310
2910.00,0.2208
2909.00,0.2113
2908.00,0.2026
2907.00,0.1943
2906.00,0.1862
2905.00,0.1782
2904.00,0.1704
2903.00,0.1627
2902.00,0.1552
2901.00,0.1480
2900.00,0.1412
2899.00,0.1348
2898.00,0.1289
2897.00,0.1236
2896.00,0.1189
2895.00,0.1149
2894.00,0.1117
2893.00,0.1092
2892.00,0.1074
2891.00,0.1063
2890.00,0.1057
2889.00,0.1056
2888.00,0.1060
2887.00,0.1068
2886.00,0.1080
2885.00,0.1095
2884.00,0.1116
2883.00,0.1141
2882.00,0.1172
2881.00,0.1207
2880.00,0.1241
2879.00,0.1272
2878.00,0.1294
2877.00,0.1305
2876.00,0.1305
2875.00,0.1298
2874.00,0.1289
2873.00,0.1284
2872.00,0.1288
2871.00,0.1300
2870.00,0.1320
2869.00,0.1342
2868.00,0.1357
2867.00,0.1356
2866.00,0.1331
2865.00,0.1277
2864.00,0.1197
2863.00,0.1100
2862.00,0.0998
2861.00,0.0901
2860.00,0.0817
2859.00,0.0749
2858.00,0.0697
2857.00,0.0659
2856.00,0.0633
2855.00,0.0616
2854.00,0.0608
2853.00,0.0606
2852.00,0.0612
2851.00,0.0624
2850.00,0.0642
2849.00,0.0668
2848.00,0.0701
2847.00,0.0741
2846.00,0.0790
2845.00,0.0848
2844.00,0.0913
2843.00,0.0984
2842.00,0.1057
2841.00,0.1127
2840.00,0.1187
2839.00,0.1227
2838.00,0.1239
2837.00,0.1217
2836.00,0.1160
2835.00,0.1073
2834.00,0.0967
2833.00,0.0854
2832.00,0.0745
2831.00,0.0648
2830.00,0.0566
2829.00,0.0498
2828.00,0.0443
2827.00,0.0399
2826.00,0.0363
2825.00,0.0334
2824.00,0.0310
2823.00,0.0289
2822.00,0.0272
2821.00,0.0258
2820.00,0.0245
2819.00,0.0234
2818.00,0.0225
2817.00,0.0217
2816.00,0.0209
2815.00,0.0202
2814.00,0.0196
2813.00,0.0191
2812.00,0.0185
2811.00,0.0180
2810.00,0.0174
2809.00,0.0168
2808.00,0.0161
2807.00,0.0155
2806.00,0.0148
2805.00,0.0142
2804.00,0.0135
2803.00,0.0129
2802.00,0.0124
2801.00,0.0119
2800.00,0.0115
2799.00,0.0112
2798.00,0.0109
2797.00,0.0106
2796.00,0.0104
2795.00,0.0101
2794.00,0.0099
2793.00,0.0096
2792.00,0.0093
2791.00,0.0090
2790.00,0.0087
2789.00,0.0084
2788.00,0.0082
2787.00,0.0079
2786.00,0.0077
2785.00,0.0074
2784.00,0.0072
2783.00,0.0070
2782.00,0.0068
2781.00,0.0066
2780.00,0.0065
2779.00,0.0063
2778.00,0.0062
2777.00,0.0060
2776.00,0.0059
2775.00,0.0058
2774.00,0.0058
2773.00,0.0057
2772.00,0.0057
2771.00,0.0056
2770.00,0.0055
2769.00,0.0055
2768.00,0.0054
2767.00,0.0054
2766.00,0.0054
2765.00,0.0054
2764.00,0.0054
2763.00,0.0054
2762.00,0.0053
2761.00,0.0053
2760.00,0.0052
2759.00,0.0052
2758.00,0.0051
2757.00,0.0051
2756.00,0.0051
2755.00,0.0051
2754.00,0.0051
2753.00,0.0051
2752.00,0.0051
2751.00,0.0050
2750.00,0.0050
2749.00,0.0050
2748.00,0.0051
2747.00,0.0051
2746.00,0.0052
2745.00,0.0053
2744.00,0.0053
2743.00,0.0054
2742.00,0.0055
2741.00,0.0056
2740.00,0.0058
2739.00,0.0059
2738.00,0.0060
2737.00,0.0062
2736.00,0.0063
2735.00,0.0065
2734.00,0.0067
2733.00,0.0069
2732.00,0.0071
2731.00,0.0073
2730.00,0.0075
2729.00,0.0077
2728.00,0.0080
2727.00,0.0083
2726.00,0.0086
2725.00,0.0089
2724.00,0.0091
2723.00,0.0091
2722.00,0.0091
2721.00,0.0089
2720.00,0.0086
2719.00,0.0082
2718.00,0.0079
2717.00,0.0075
2716.00,0.0072
2715.00,0.0069
2714.00,0.0066
2713.00,0.0063
2712.00,0.0061
2711.00,0.0059
2710.00,0.0057
2709.00,0.0055
2708.00,0.0054
2707.00,0.0052
2706.00,0.0051
2705.00,0.0050
2704.00,0.0049
2703.00,0.0048
2702.00,0.0047
2701.00,0.0046
2700.00,0.0046
2699.00,0.0045
2698.00,0.0045
2697.00,0.0044
2696.00,0.0044
2695.00,0.0043
2694.00,0.0043
2693.00,0.0043
2692.00,0.0043
2691.00,0.0043
2690.00,0.0043
2689.00,0.0043
2688.00,0.0043
2687.00,0.0043
2686.00,0.0043
2685.00,0.0043
2684.00,0.0044
2683.00,0.0044
2682.00,0.0044
2681.00,0.0044
2680.00,0.0045
2679.00,0.0045
2678.00,0.0045
2677.00,0.0045
2676.00,0.0044
2675.00,0.0044
2674.00,0.0044
2673.00,0.0044
2672.00,0.0044
2671.00,0.0044
2670.00,0.0044
2669.00,0.0044
2668.00,0.0044
2667.00,0.0044
2666.00,0.0044
2665.00,0.0045
2664.00,0.0045
2663.00,0.0046
2662.00,0.0046
2661.00,0.0047
2660.00,0.0047
2659.00,0.0047
2658.00,0.0047
2657.00,0.0047
2656.00,0.0046
2655.00,0.0046
2654.00,0.0045
2653.00,0.0044
2652.00,0.0044
2651.00,0.0043
2650.00,0.0043
2649.00,0.0042
2648.00,0.0042
2647.00,0.0041
2646.00,0.0041
2645.00,0.0040
2644.00,0.0040
2643.00,0.0040
2642.00,0.0039
2641.00,0.0039
2640.00,0.0039
2639.00,0.0039
2638.00,0.0039
2637.00,0.0038
2636.00,0.0037
2635.00,0.0037
2634.00,0.0037
2633.00,0.0037
2632.00,0.0038
2631.00,0.0038
2630.00,0.0038
2629.00,0.0039
2628.00,0.0039
2627.00,0.0039
2626.00,0.0039
2625.00,0.0039
2624.00,0.0039
2623.00,0.0039
2622.00,0.0040
2621.00,0.0040
2620.00,0.0039
2619.00,0.0039
2618.00,0.0039
2617.00,0.0039
2616.00,0.0040
2615.00,0.0040
2614.00,0.0040
2613.00,0.0039
2612.00,0.0039
2611.00,0.0038
2610.00,0.0037
2609.00,0.0036
2608.00,0.0036
2607.00,0.0035
2606.00,0.0035
2605.00,0.0035
2604.00,0.0034
2603.00,0.0033
2602.00,0.0031
2601.00,0.0031
2600.00,0.0031
2599.00,0.0032
2598.00,0.0033
2597.00,0.0033
2596.00,0.0034
2595.00,0.0034
2594.00,0.0034
2593.00,0.0034
2592.00,0.0035
2591.00,0.0035
2590.00,0.0036
2589.00,0.0036
2588.00,0.0036
2587.00,0.0036
2586.00,0.0037
2585.00,0.0038
2584.00,0.0039
2583.00,0.0039
2582.00,0.0039
2581.00,0.0039
2580.00,0.0039
2579.00,0.0038
2578.00,0.0038
2577.00,0.0037
2576.00,0.0036
2575.00,0.0035
2574.00,0.0033
2573.00,0.0032
2572.00,0.0031
2571.00,0.0030
2570.00,0.0029
2569.00,0.0028
2568.00,0.0028
2567.00,0.0027
2566.00,0.0026
2565.00,0.0025
2564.00,0.0024
2563.00,0.0024
2562.00,0.0023
2561.00,0.0023
2560.00,0.0023
2559.00,0.0023
2558.00,0.0023
2557.00,0.0022
2556.00,0.0022
2555.00,0.0021
2554.00,0.0021
2553.00,0.0021
2552.00,0.0021
2551.00,0.0021
2550.00,0.0020
2549.00,0.0019
2548.00,0.0019
2547.00,0.0019
2546.00,0.0018
2545.00,0.0018
2544.00,0.0018
2543.00,0.0017
2542.00,0.0016
2541.00,0.0016
2540.00,0.0015
2539.00,0.0016
2538.00,0.0016
2537.00,0.0016
2536.00,0.0016
2535.00,0.0016
2534.00,0.0016
2533.00,0.0016
2532.00,0.0016
2531.00,0.0016
2530.00,0.0015
2529.00,0.0015
2528.00,0.0015
2527.00,0.0015
2526.00,0.0015
2525.00,0.0015
2524.00,0.0014
2523.00,0.0014
2522.00,0.0014
2521.00,0.0013
2520.00,0.0013
2519.00,0.0013
2518.00,0.0012
2517.00,0.0012
2516.00,0.0011
2515.00,0.0011
2514.00,0.0010
2513.00,0.0010
2512.00,0.0010
2511.00,0.0010
2510.00,0.0010
2509.00,0.0010
2508.00,0.0010
2507.00,0.0010
2506.00,0.0009
2505.00,0.0009
2504.00,0.0009
2503.00,0.0009
2502.00,0.0009
2501.00,0.0010
2500.00,0.0010
2499.00,0.0010
2498.00,0.0011
2497.00,0.0011
2496.00,0.0012
2495.00,0.0012
2494.00,0.0011
2493.00,0.0011
2492.00,0.0010
2491.00,0.0010
2490.00,0.0010
2489.00,0.0010
2488.00,0.0010
2487.00,0.0011
2486.00,0.0011
2485.00,0.0010
2484.00,0.0010
2483.00,0.0010
2482.00,0.0009
2481.00,0.0009
2480.00,0.0009
2479.00,0.0009
2478.00,0.0009
2477.00,0.0009
2476.00,0.0009
2475.00,0.0008
2474.00,0.0008
2473.00,0.0008
2472.00,0.0008
2471.00,0.0009
2470.00,0.0009
2469.00,0.0010
2468.00,0.0010
2467.00,0.0009
2466.00,0.0009
2465.00,0.0009
2464.00,0.0009
2463.00,0.0009
2462.00,0.0009
2461.00,0.0009
2460.00,0.0010
2459.00,0.0010
2458.00,0.0011
2457.00,0.0011
2456.00,0.0011
2455.00,0.0011
2454.00,0.0011
2453.00,0.0010
2452.00,0.0010
2451.00,0.0010
2450.00,0.0010
2449.00,0.0011
2448.00,0.0011
2447.00,0.0011
2446.00,0.0010
2445.00,0.0010
2444.00,0.0010
2443.00,0.0010
2442.00,0.0010
2441.00,0.0010
2440.00,0.0010
2439.00,0.0010
2438.00,0.0010
2437.00,0.0010
2436.00,0.0010
2435.00,0.0011
2434.00,0.0011
2433.00,0.0012
2432.00,0.0012
2431.00,0.0013
2430.00,0.0013
2429.00,0.0013
2428.00,0.0013
2427.00,0.0013
2426.00,0.0013
2425.00,0.0012
2424.00,0.0012
2423.00,0.0011
2422.00,0.0011
2421.00,0.0011
2420.00,0.0011
2419.00,0.0011
2418.00,0.0011
2417.00,0.0011
2416.00,0.0011
2415.00,0.0011
2414.00,0.0011
2413.00,0.0010
2412.00,0.0009
2411.00,0.0009
2410.00,0.0009
2409.00,0.0010
2408.00,0.0010
2407.00,0.0010
2406.00,0.0010
2405.00,0.0009
2404.00,0.0008
2403.00,0.0008
2402.00,0.0008
2401.00,0.0008
2400.00,0.0008
2399.00,0.0007
2398.00,0.0007
2397.00,0.0008
2396.00,0.0008
2395.00,0.0008
2394.00,0.0008
2393.00,0.0008
2392.00,0.0008
2391.00,0.0008
2390.00,0.0007
2389.00,0.0007
2388.00,0.0006
2387.00,0.0006
2386.00,0.0005
2385.00,0.0005
2384.00,0.0004
2383.00,0.0004
2382.00,0.0003
2381.00,0.0003
2380.00,0.0003
2379.00,0.0003
2378.00,0.0003
2377.00,0.0003
2376.00,0.0004
2375.00,0.0004
2374.00,0.0004
2373.00,0.0004
2372.00,0.0004
2371.00,0.0004
2370.00,0.0003
2369.00,0.0002
2368.00,0.0001
2367.00,0.0001
2366.00,0.0001
2365.00,0.0002
2364.00,0.0003
2363.00,0.0004
2362.00,0.0004
2361.00,0.0005
2360.00,0.0004
2359.00,0.0004
2358.00,0.0003
2357.00,0.0004
2356.00,0.0004
2355.00,0.0005
2354.00,0.0005
2353.00,0.0004
2352.00,0.0004
2351.00,0.0004
2350.00,0.0004
2349.00,0.0005
2348.00,0.0006
2347.00,0.0006
2346.00,0.0005
2345.00,0.0006
2344.00,0.0006
2343.00,0.0006
2342.00,0.0007
2341.00,0.0007
2340.00,0.0007
2339.00,0.0006
2338.00,0.0005
2337.00,0.0006
2336.00,0.0006
2335.00,0.0007
2334.00,0.0007
2333.00,0.0007
2332.00,0.0007
2331.00,0.0006
2330.00,0.0006
2329.00,0.0006
2328.00,0.0008
2327.00,0.0012
2326.00,0.0016
2325.00,0.0020
2324.00,0.0021
2323.00,0.0021
2322.00,0.0019
2321.00,0.0016
2320.00,0.0015
2319.00,0.0014
2318.00,0.0013
2317.00,0.0013
2316.00,0.0012
2315.00,0.0011
2314.00,0.0010
2313.00,0.0009
2312.00,0.0009
2311.00,0.0008
2310.00,0.0007
2309.00,0.0007
2308.00,0.0007
2307.00,0.0008
2306.00,0.0009
2305.00,0.0010
2304.00,0.0010
2303.00,0.0009
2302.00,0.0009
2301.00,0.0009
2300.00,0.0009
2299.00,0.0010
2298.00,0.0010
2297.00,0.0011
2296.00,0.0012
2295.00,0.0012
2294.00,0.0013
2293.00,0.0014
2292.00,0.0015
2291.00,0.0015
2290.00,0.0016
2289.00,0.0016
2288.00,0.0017
2287.00,0.0017
2286.00,0.0017
2285.00,0.0017
2284.00,0.0017
2283.00,0.0017
2282.00,0.0016
2281.00,0.0015
2280.00,0.0014
2279.00,0.0013
2278.00,0.0013
2277.00,0.0012
2276.00,0.0012
2275.00,0.0012
2274.00,0.0011
2273.00,0.0011
2272.00,0.0012
2271.00,0.0013
2270.00,0.0014
2269.00,0.0014
2268.00,0.0014
2267.00,0.0013
2266.00,0.0012
2265.00,0.0011
2264.00,0.0012
2263.00,0.0012
2262.00,0.0012
2261.00,0.0012
2260.00,0.0012
2259.00,0.0012
2258.00,0.0011
2257.00,0.0010
2256.00,0.0008
2255.00,0.0007
2254.00,0.0007
2253.00,0.0008
2252.00,0.0009
2251.00,0.0010
2250.00,0.0010
2249.00,0.0009
2248.00,0.0008
2247.00,0.0007
2246.00,0.0006
2245.00,0.0005
2244.00,0.0005
2243.00,0.0006
2242.00,0.0006
2241.00,0.0007
2240.00,0.0007
2239.00,0.0008
2238.00,0.0008
2237.00,0.0008
2236.00,0.0007
2235.00,0.0007
2234.00,0.0008
2233.00,0.0009
2232.00,0.0009
2231.00,0.0009
2230.00,0.0008
2229.00,0.0007
2228.00,0.0007
2227.00,0.0006
2226.00,0.0005
2225.00,0.0005
2224.00,0.0005
2223.00,0.0005
2222.00,0.0006
2221.00,0.0007
2220.00,0.0009
2219.00,0.0009
2218.00,0.0008
2217.00,0.0007
2216.00,0.0006
2215.00,0.0005
2214.00,0.0003
2213.00,0.0002
2212.00,0.0002
2211.00,0.0003
2210.00,0.0004
2209.00,0.0004
2208.00,0.0004
2207.00,0.0004
2206.00,0.0004
2205.00,0.0005
2204.00,0.0007
2203.00,0.0010
2202.00,0.0011
2201.00,0.0011
2200.00,0.0009
2199.00,0.0007
2198.00,0.0006
2197.00,0.0007
2196.00,0.0010
2195.00,0.0012
2194.00,0.0014
2193.00,0.0014
2192.00,0.0013
2191.00,0.0013
2190.00,0.0013
2189.00,0.0014
2188.00,0.0015
2187.00,0.0015
2186.00,0.0013
2185.00,0.0009
2184.00,0.0004
2183.00,-0.0002
2182.00,-0.0006
2181.00,-0.0006
2180.00,-0.0003
2179.00,0.0001
2178.00,0.0004
2177.00,0.0004
2176.00,0.0002
2175.00,0.0001
2174.00,0.0001
2173.00,0.0002
2172.00,0.0005
2171.00,0.0008
2170.00,0.0011
2169.00,0.0014
2168.00,0.0015
2167.00,0.0014
2166.00,0.0012
2165.00,0.0011
2164.00,0.0014
2163.00,0.0018
2162.00,0.0020
2161.00,0.0017
2160.00,0.0006
2159.00,-0.0009
2158.00,-0.0020
2157.00,-0.0024
2156.00,-0.0024
2155.00,-0.0022
2154.00,-0.0017
2153.00,-0.0013
2152.00,-0.0010
2151.00,-0.0009
2150.00,-0.0011
2149.00,-0.0015
2148.00,-0.0019
2147.00,-0.0021
2146.00,-0.0022
2145.00,-0.0022
2144.00,-0.0022
2143.00,-0.0022
2142.00,-0.0020
2141.00,-0.0018
2140.00,-0.0016
2139.00,-0.0015
2138.00,-0.0015
2137.00,-0.0016
2136.00,-0.0017
2135.00,-0.0018
2134.00,-0.0019
2133.00,-0.0018
2132.00,-0.0016
2131.00,-0.0014
2130.00,-0.0012
2129.00,-0.0011
2128.00,-0.0010
2127.00,-0.0010
2126.00,-0.0008
2125.00,-0.0006
2124.00,-0.0004
2123.00,-0.0003
2122.00,-0.0002
2121.00,-0.0001
2120.00,-0.0001
2119.00,-0.0001
2118.00,-0.0000
2117.00,0.0001
2116.00,0.0004
2115.00,0.0005
2114.00,0.0006
2113.00,0.0007
2112.00,0.0007
2111.00,0.0007
2110.00,0.0006
2109.00,0.0005
2108.00,0.0005
2107.00,0.0005
2106.00,0.0005
2105.00,0.0004
2104.00,0.0004
2103.00,0.0003
2102.00,0.0003
2101.00,0.0003
2100.00,0.0003
2099.00,0.0002
2098.00,0.0002
2097.00,0.0001
2096.00,-0.0001
2095.00,-0.0004
2094.00,-0.0006
2093.00,-0.0007
2092.00,-0.0006
2091.00,-0.0003
2090.00,-0.0000
2089.00,0.0003
2088.00,0.0004
2087.00,0.0005
2086.00,0.0006
2085.00,0.0006
2084.00,0.0006
2083.00,0.0005
2082.00,0.0004
2081.00,0.0003
2080.00,0.0003
2079.00,0.0004
2078.00,0.0005
2077.00,0.0006
2076.00,0.0006
2075.00,0.0005
2074.00,0.0004
2073.00,0.0003
2072.00,0.0001
2071.00,-0.0000
2070.00,-0.0001
2069.00,-0.0002
2068.00,-0.0001
2067.00,0.0000
2066.00,0.0001
2065.00,0.0003
2064.00,0.0004
2063.00,0.0004
2062.00,0.0004
2061.00,0.0004
2060.00,0.0004
2059.00,0.0003
2058.00,0.0002
2057.00,0.0001
2056.00,0.0000
2055.00,-0.0001
2054.00,0.0001
2053.00,0.0005
2052.00,0.0011
2051.00,0.0015
2050.00,0.0016
2049.00,0.0013
2048.00,0.0010
2047.00,0.0008
2046.00,0.0006
2045.00,0.0005
2044.00,0.0004
2043.00,0.0003
2042.00,0.0002
2041.00,-0.0000
2040.00,-0.0002
2039.00,-0.0001
2038.00,0.0000
2037.00,0.0003
2036.00,0.0005
2035.00,0.0006
2034.00,0.0006
2033.00,0.0003
2032.00,-0.0002
2031.00,-0.0008
2030.00,-0.0014
2029.00,-0.0018
2028.00,-0.0019
2027.00,-0.0019
2026.00,-0.0017
2025.00,-0.0015
2024.00,-0.0013
2023.00,-0.0013
2022.00,-0.0012
2021.00,-0.0010
2020.00,-0.0009
2019.00,-0.0009
2018.00,-0.0010
2017.00,-0.0011
2016.00,-0.0012
2015.00,-0.0014
2014.00,-0.0014
2013.00,-0.0013
2012.00,-0.0010
2011.00,-0.0007
2010.00,-0.0006
2009.00,-0.0006
2008.00,-0.0008
2007.00,-0.0012
2006.00,-0.0014
2005.00,-0.0014
2004.00,-0.0012
2003.00,-0.0010
2002.00,-0.0009
2001.00,-0.0008
2000.00,-0.0008
1999.00,-0.0008
1998.00,-0.0007
1997.00,-0.0006
1996.00,-0.0005
1995.00,-0.0005
1994.00,-0.0006
1993.00,-0.0006
1992.00,-0.0005
1991.00,-0.0004
1990.00,-0.0002
1989.00,-0.0001
1988.00,0.0000
1987.00,0.0001
1986.00,0.0001
1985.00,0.0001
1984.00,0.0002
1983.00,0.0002
1982.00,0.0005
1981.00,0.0009
1980.00,0.0012
1979.00,0.0009
1978.00,0.0002
1977.00,-0.0006
1976.00,-0.0010
1975.00,-0.0012
1974.00,-0.0012
1973.00,-0.0012
1972.00,-0.0012
1971.00,-0.0012
1970.00,-0.0012
1969.00,-0.0012
1968.00,-0.0010
1967.00,-0.0010
1966.00,-0.0012
1965.00,-0.0015
1964.00,-0.0016
1963.00,-0.0016
1962.00,-0.0016
1961.00,-0.0016
1960.00,-0.0018
1959.00,-0.0021
1958.00,-0.0022
1957.00,-0.0021
1956.00,-0.0017
1955.00,-0.0012
1954.00,-0.0010
1953.00,-0.0011
1952.00,-0.0013
1951.00,-0.0015
1950.00,-0.0016
1949.00,-0.0016
1948.00,-0.0016
1947.00,-0.0016
1946.00,-0.0015
1945.00,-0.0014
1944.00,-0.0011
1943.00,-0.0010
1942.00,-0.0010
1941.00,-0.0010
1940.00,-0.0011
1939.00,-0.0011
1938.00,-0.0012
1937.00,-0.0011
1936.00,-0.0010
1935.00,-0.0009
1934.00,-0.0009
1933.00,-0.0008
1932.00,-0.0007
1931.00,-0.0006
1930.00,-0.0006
1929.00,-0.0006
1928.00,-0.0007
1927.00,-0.0008
1926.00,-0.0009
1925.00,-0.0009
1924.00,-0.0008
1923.00,-0.0007
1922.00,-0.0006
1921.00,-0.0004
1920.00,-0.0003
1919.00,-0.0002
1918.00,-0.0002
1917.00,-0.0002
1916.00,-0.0002
1915.00,-0.0002
1914.00,-0.0003
1913.00,-0.0003
1912.00,-0.0004
1911.00,-0.0005
1910.00,-0.0005
1909.00,-0.0004
1908.00,-0.0003
1907.00,-0.0003
1906.00,-0.0002
1905.00,-0.0003
1904.00,-0.0003
1903.00,-0.0004
1902.00,-0.0003
1901.00,-0.0003
1900.00,-0.0002
1899.00,-0.0001
1898.00,0.0000
1897.00,0.0001
1896.00,0.0001
1895.00,-0.0000
1894.00,-0.0000
1893.00,0.0001
1892.00,0.0002
1891.00,0.0002
1890.00,0.0002
1889.00,0.0000
1888.00,-0.0001
1887.00,-0.0002
1886.00,-0.0003
1885.00,-0.0003
1884.00,-0.0003
1883.00,-0.0003
1882.00,-0.0003
1881.00,-0.0003
1880.00,-0.0002
1879.00,-0.0001
1878.00,-0.0001
1877.00,-0.0001
1876.00,-0.0002
1875.00,-0.0003
1874.00,-0.0003
1873.00,-0.0003
1872.00,-0.0003
1871.00,-0.0003
1870.00,-0.0003
1869.00,-0.0003
1868.00,-0.0002
1867.00,-0.0000
1866.00,0.0001
1865.00,0.0001
1864.00,0.0001
1863.00,0.0001
1862.00,0.0000
1861.00,0.0000
1860.00,-0.0000
1859.00,-0.0000
1858.00,-0.0001
1857.00,-0.0001
1856.00,-0.0001
1855.00,-0.0001
1854.00,-0.0001
1853.00,-0.0001
1852.00,-0.0001
1851.00,-0.0001
1850.00,-0.0001
1849.00,-0.0000
1848.00,0.0000
1847.00,0.0000
1846.00,0.0000
1845.00,0.0001
1844.00,0.0001
1843.00,0.0001
1842.00,0.0001
1841.00,0.0001
1840.00,0.0001
1839.00,0.0001
1838.00,0.0001
1837.00,0.0002
1836.00,0.0003
1835.00,0.0004
1834.00,0.0004
1833.00,0.0004
1832.00,0.0003
1831.00,0.0003
1830.00,0.0003
1829.00,0.0003
1828.00,0.0003
1827.00,0.0003
1826.00,0.0004
1825.00,0.0004
1824.00,0.0004
1823.00,0.0003
1822.00,0.0002
1821.00,0.0001
1820.00,0.0000
1819.00,-0.0000
1818.00,-0.0001
1817.00,-0.0001
1816.00,-0.0000
1815.00,0.0000
1814.00,0.0001
1813.00,0.0002
1812.00,0.0003
1811.00,0.0003
1810.00,0.0003
1809.00,0.0003
1808.00,0.0003
1807.00,0.0003
1806.00,0.0003
1805.00,0.0003
1804.00,0.0004
1803.00,0.0004
1802.00,0.0005
1801.00,0.0005
1800.00,0.0005
1799.00,0.0005
1798.00,0.0004
1797.00,0.0004
1796.00,0.0005
1795.00,0.0005
1794.00,0.0005
1793.00,0.0006
1792.00,0.0006
1791.00,0.0007
1790.00,0.0006
1789.00,0.0006
1788.00,0.0005
1787.00,0.0005
1786.00,0.0006
1785.00,0.0007
1784.00,0.0008
1783.00,0.0009
1782.00,0.0008
1781.00,0.0008
1780.00,0.0009
1779.00,0.0009
1778.00,0.0009
1777.00,0.0009
1776.00,0.0008
1775.00,0.0007
1774.00,0.0007
1773.00,0.0007
1772.00,0.0007
1771.00,0.0007
1770.00,0.0008
1769.00,0.0009
1768.00,0.0009
1767.00,0.0010
1766.00,0.0010
1765.00,0.0010
1764.00,0.0010
1763.00,0.0010
1762.00,0.0010
1761.00,0.0011
1760.00,0.0011
1759.00,0.0011
1758.00,0.0011
1757.00,0.0011
1756.00,0.0011
1755.00,0.0011
1754.00,0.0011
1753.00,0.0012
1752.00,0.0012
1751.00,0.0013
1750.00,0.0014
1749.00,0.0015
1748.00,0.0016
1747.00,0.0016
1746.00,0.0016
1745.00,0.0017
1744.00,0.0017
1743.00,0.0018
1742.00,0.0018
1741.00,0.0018
1740.00,0.0018
1739.00,0.0018
1738.00,0.0018
1737.00,0.0018
1736.00,0.0018
1735.00,0.0019
1734.00,0.0019
1733.00,0.0019
1732.00,0.0019
1731.00,0.0019
1730.00,0.0018
1729.00,0.0019
1728.00,0.0019
1727.00,0.0019
1726.00,0.0019
1725.00,0.0019
1724.00,0.0020
1723.00,0.0021
1722.00,0.0021
1721.00,0.0021
1720.00,0.0021
1719.00,0.0020
1718.00,0.0020
1717.00,0.0020
1716.00,0.0020
1715.00,0.0021
1714.00,0.0021
1713.00,0.0022
1712.00,0.0023
1711.00,0.0023
1710.00,0.0023
1709.00,0.0023
1708.00,0.0024
1707.00,0.0024
1706.00,0.0024
1705.00,0.0024
1704.00,0.0024
1703.00,0.0025
1702.00,0.0025
1701.00,0.0025
1700.00,0.0026
1699.00,0.0026
1698.00,0.0026
1697.00,0.0027
1696.00,0.0028
1695.00,0.0029
1694.00,0.0030
1693.00,0.0031
1692.00,0.0032
1691.00,0.0032
1690.00,0.0033
1689.00,0.0033
1688.00,0.0034
1687.00,0.0035
1686.00,0.0034
1685.00,0.0035
1684.00,0.0036
1683.00,0.0037
1682.00,0.0038
1681.00,0.0039
1680.00,0.0040
1679.00,0.0042
1678.00,0.0043
1677.00,0.0043
1676.00,0.0044
1675.00,0.0045
1674.00,0.0046
1673.00,0.0046
1672.00,0.0047
1671.00,0.0048
1670.00,0.0048
1669.00,0.0049
1668.00,0.0050
1667.00,0.0050
1666.00,0.0050
1665.00,0.0051
1664.00,0.0051
1663.00,0.0052
1662.00,0.0052
1661.00,0.0052
1660.00,0.0053
1659.00,0.0053
1658.00,0.0053
1657.00,0.0054
1656.00,0.0055
1655.00,0.0055
1654.00,0.0056
1653.00,0.0058
1652.00,0.0059
1651.00,0.0059
1650.00,0.0060
1649.00,0.0060
1648.00,0.0062
1647.00,0.0063
1646.00,0.0064
1645.00,0.0063
1644.00,0.0063
1643.00,0.0062
1642.00,0.0061
1641.00,0.0061
1640.00,0.0061
1639.00,0.0061
1638.00,0.0061
1637.00,0.0060
1636.00,0.0060
1635.00,0.0059
1634.00,0.0059
1633.00,0.0059
1632.00,0.0059
1631.00,0.0059
1630.00,0.0059
1629.00,0.0059
1628.00,0.0059
1627.00,0.0059
1626.00,0.0059
1625.00,0.0058
1624.00,0.0058
1623.00,0.0057
1622.00,0.0056
1621.00,0.0056
1620.00,0.0055
1619.00,0.0055
1618.00,0.0055
1617.00,0.0055
1616.00,0.0055
1615.00,0.0055
1614.00,0.0054
1613.00,0.0054
1612.00,0.0054
1611.00,0.0054
1610.00,0.0054
1609.00,0.0054
1608.00,0.0054
1607.00,0.0054
1606.00,0.0053
1605.00,0.0053
1604.00,0.0053
1603.00,0.0053
1602.00,0.0054
1601.00,0.0054
1600.00,0.0054
1599.00,0.0053
1598.00,0.0053
1597.00,0.0052
1596.00,0.0052
1595.00,0.0052
1594.00,0.0052
1593.00,0.0052
1592.00,0.0053
1591.00,0.0053
1590.00,0.0053
1589.00,0.0053
1588.00,0.0054
1587.00,0.0054
1586.00,0.0055
1585.00,0.0056
1584.00,0.0058
1583.00,0.0059
1582.00,0.0061
1581.00,0.0063
1580.00,0.0064
1579.00,0.0065
1578.00,0.0066
1577.00,0.0066
1576.00,0.0066
1575.00,0.0065
1574.00,0.0064
1573.00,0.0064
1572.00,0.0064
1571.00,0.0063
1570.00,0.0061
1569.00,0.0060
1568.00,0.0059
1567.00,0.0058
1566.00,0.0058
1565.00,0.0058
1564.00,0.0059
1563.00,0.0059
1562.00,0.0059
1561.00,0.0060
1560.00,0.0060
1559.00,0.0060
1558.00,0.0060
1557.00,0.0061
1556.00,0.0061
1555.00,0.0062
1554.00,0.0062
1553.00,0.0063
1552.00,0.0063
1551.00,0.0064
1550.00,0.0065
1549.00,0.0067
1548.00,0.0068
1547.00,0.0069
1546.00,0.0070
1545.00,0.0072
1544.00,0.0074
1543.00,0.0076
1542.00,0.0078
1541.00,0.0078
1540.00,0.0077
1539.00,0.0075
1538.00,0.0072
1537.00,0.0070
1536.00,0.0068
1535.00,0.0066
1534.00,0.0063
1533.00,0.0060
1532.00,0.0058
1531.00,0.0056
1530.00,0.0055
1529.00,0.0055
1528.00,0.0054
1527.00,0.0054
1526.00,0.0053
1525.00,0.0054
1524.00,0.0054
1523.00,0.0054
1522.00,0.0053
1521.00,0.0053
1520.00,0.0053
1519.00,0.0053
1518.00,0.0053
1517.00,0.0053
1516.00,0.0053
1515.00,0.0054
1514.00,0.0054
1513.00,0.0055
1512.00,0.0057
1511.00,0.0057
1510.00,0.0058
1509.00,0.0059
1508.00,0.0060
1507.00,0.0061
1506.00,0.0062
1505.00,0.0063
1504.00,0.0065
1503.00,0.0066
1502.00,0.0068
1501.00,0.0070
1500.00,0.0072
1499.00,0.0074
1498.00,0.0076
1497.00,0.0080
1496.00,0.0084
1495.00,0.0087
1494.00,0.0090
1493.00,0.0093
1492.00,0.0096
1491.00,0.0099
1490.00,0.0103
1489.00,0.0108
1488.00,0.0114
1487.00,0.0119
1486.00,0.0124
1485.00,0.0131
1484.00,0.0138
1483.00,0.0146
1482.00,0.0155
1481.00,0.0166
1480.00,0.0179
1479.00,0.0191
1478.00,0.0205
1477.00,0.0225
1476.00,0.0248
1475.00,0.0273
1474.00,0.0309
1473.00,0.0362
1472.00,0.0428
1471.00,0.0493
1470.00,0.0557
1469.00,0.0624
1468.00,0.0698
1467.00,0.0779
1466.00,0.0873
1465.00,0.0976
1464.00,0.1067
1463.00,0.1132
1462.00,0.1176
1461.00,0.1208
1460.00,0.1231
1459.00,0.1246
1458.00,0.1256
1457.00,0.1262
1456.00,0.1261
1455.00,0.1254
1454.00,0.1241
1453.00,0.1222
1452.00,0.1191
1451.00,0.1148
1450.00,0.1088
1449.00,0.1008
1448.00,0.0910
1447.00,0.0808
1446.00,0.0719
1445.00,0.0644
1444.00,0.0581
1443.00,0.0531
1442.00,0.0495
1441.00,0.0472
1440.00,0.0459
1439.00,0.0456
1438.00,0.0460
1437.00,0.0464
1436.00,0.0455
1435.00,0.0428
1434.00,0.0387
1433.00,0.0338
1432.00,0.0287
1431.00,0.0244
1430.00,0.0210
1429.00,0.0187
1428.00,0.0171
1427.00,0.0161
1426.00,0.0154
1425.00,0.0148
1424.00,0.0142
1423.00,0.0140
1422.00,0.0138
1421.00,0.0136
1420.00,0.0132
1419.00,0.0129
1418.00,0.0127
1417.00,0.0125
1416.00,0.0123
1415.00,0.0122
1414.00,0.0122
1413.00,0.0120
1412.00,0.0118
1411.00,0.0118
1410.00,0.0118
1409.00,0.0117
1408.00,0.0116
1407.00,0.0115
1406.00,0.0116
1405.00,0.0115
1404.00,0.0115
1403.00,0.0117
1402.00,0.0119
1401.00,0.0120
1400.00,0.0121
1399.00,0.0123
1398.00,0.0125
1397.00,0.0127
1396.00,0.0129
1395.00,0.0134
1394.00,0.0140
1393.00,0.0146
1392.00,0.0153
1391.00,0.0162
1390.00,0.0174
1389.00,0.0191
1388.00,0.0218
1387.00,0.0258
1386.00,0.0312
1385.00,0.0378
1384.00,0.0466
1383.00,0.0584
1382.00,0.0741
1381.00,0.0944
1380.00,0.1200
1379.00,0.1499
1378.00,0.1799
1377.00,0.2034
1376.00,0.2135
1375.00,0.2053
1374.00,0.1809
1373.00,0.1497
1372.00,0.1205
1371.00,0.0961
1370.00,0.0766
1369.00,0.0618
1368.00,0.0516
1367.00,0.0454
1366.00,0.0419
1365.00,0.0406
1364.00,0.0408
1363.00,0.0424
1362.00,0.0448
1361.00,0.0474
1360.00,0.0493
1359.00,0.0499
1358.00,0.0486
1357.00,0.0456
1356.00,0.0414
1355.00,0.0365
1354.00,0.0319
1353.00,0.0279
1352.00,0.0248
1351.00,0.0222
1350.00,0.0202
1349.00,0.0186
1348.00,0.0173
1347.00,0.0164
1346.00,0.0155
1345.00,0.0149
1344.00,0.0144
1343.00,0.0140
1342.00,0.0136
1341.00,0.0133
1340.00,0.0131
1339.00,0.0129
1338.00,0.0128
1337.00,0.0127
1336.00,0.0128
1335.00,0.0130
1334.00,0.0133
1333.00,0.0137
1332.00,0.0142
1331.00,0.0146
1330.00,0.0148
1329.00,0.0147
1328.00,0.0142
1327.00,0.0136
1326.00,0.0128
1325.00,0.0121
1324.00,0.0114
1323.00,0.0108
1322.00,0.0103
1321.00,0.0100
1320.00,0.0097
1319.00,0.0094
1318.00,0.0092
1317.00,0.0090
1316.00,0.0088
1315.00,0.0086
1314.00,0.0086
1313.00,0.0086
1312.00,0.0087
1311.00,0.0089
1310.00,0.0093
1309.00,0.0098
1308.00,0.0106
1307.00,0.0115
1306.00,0.0123
1305.00,0.0129
1304.00,0.0132
1303.00,0.0132
1302.00,0.0130
1301.00,0.0129
1300.00,0.0129
1299.00,0.0131
1298.00,0.0133
1297.00,0.0134
1296.00,0.0134
1295.00,0.0132
1294.00,0.0128
1293.00,0.0123
1292.00,0.0117
1291.00,0.0111
1290.00,0.0106
1289.00,0.0101
1288.00,0.0098
1287.00,0.0095
1286.00,0.0093
1285.00,0.0091
1284.00,0.0088
1283.00,0.0086
1282.00,0.0084
1281.00,0.0083
1280.00,0.0082
1279.00,0.0081
1278.00,0.0080
1277.00,0.0080
1276.00,0.0079
1275.00,0.0079
1274.00,0.0079
1273.00,0.0079
1272.00,0.0080
1271.00,0.0080
1270.00,0.0081
1269.00,0.0082
1268.00,0.0083
1267.00,0.0084
1266.00,0.0086
1265.00,0.0088
1264.00,0.0090
1263.00,0.0093
1262.00,0.0096
1261.00,0.0100
1260.00,0.0105
1259.00,0.0111
1258.00,0.0117
1257.00,0.0121
1256.00,0.0122
1255.00,0.0120
1254.00,0.0115
1253.00,0.0109
1252.00,0.0103
1251.00,0.0099
1250.00,0.0095
1249.00,0.0092
1248.00,0.0090
1247.00,0.0089
1246.00,0.0088
1245.00,0.0087
1244.00,0.0087
1243.00,0.0086
1242.00,0.0085
1241.00,0.0084
1240.00,0.0083
1239.00,0.0083
1238.00,0.0083
1237.00,0.0082
1236.00,0.0082
1235.00,0.0081
1234.00,0.0081
1233.00,0.0081
1232.00,0.0081
1231.00,0.0081
1230.00,0.0081
1229.00,0.0081
1228.00,0.0082
1227.00,0.0083
1226.00,0.0085
1225.00,0.0088
1224.00,0.0091
1223.00,0.0095
1222.00,0.0098
1221.00,0.0102
1220.00,0.0104
1219.00,0.0105
1218.00,0.0105
1217.00,0.0103
1216.00,0.0100
1215.00,0.0097
1214.00,0.0094
1213.00,0.0091
1212.00,0.0087
1211.00,0.0084
1210.00,0.0081
1209.00,0.0079
1208.00,0.0077
1207.00,0.0075
1206.00,0.0074
1205.00,0.0074
1204.00,0.0074
1203.00,0.0073
1202.00,0.0073
1201.00,0.0073
1200.00,0.0073
1199.00,0.0072
1198.00,0.0072
1197.00,0.0071
1196.00,0.0070
1195.00,0.0070
1194.00,0.0070
1193.00,0.0070
1192.00,0.0070
1191.00,0.0070
1190.00,0.0071
1189.00,0.0071
1188.00,0.0072
1187.00,0.0073
1186.00,0.0073
1185.00,0.0074
1184.00,0.0074
1183.00,0.0075
1182.00,0.0077
1181.00,0.0079
1180.00,0.0081
1179.00,0.0085
1178.00,0.0090
1177.00,0.0097
1176.00,0.0107
1175.00,0.0119
1174.00,0.0136
1173.00,0.0156
1172.00,0.0181
1171.00,0.0207
1170.00,0.0231
1169.00,0.0251
1168.00,0.0264
1167.00,0.0268
1166.00,0.0264
1165.00,0.0255
1164.00,0.0244
1163.00,0.0232
1162.00,0.0222
1161.00,0.0213
1160.00,0.0206
1159.00,0.0201
1158.00,0.0197
1157.00,0.0195
1156.00,0.0194
1155.00,0.0193
1154.00,0.0192
1153.00,0.0190
1152.00,0.0186
1151.00,0.0181
1150.00,0.0174
1149.00,0.0166
1148.00,0.0157
1147.00,0.0148
1146.00,0.0140
1145.00,0.0132
1144.00,0.0125
1143.00,0.0120
1142.00,0.0115
1141.00,0.0111
1140.00,0.0106
1139.00,0.0101
1138.00,0.0097
1137.00,0.0093
1136.00,0.0090
1135.00,0.0088
1134.00,0.0086
1133.00,0.0085
1132.00,0.0084
1131.00,0.0083
1130.00,0.0083
1129.00,0.0084
1128.00,0.0086
1127.00,0.0088
1126.00,0.0089
1125.00,0.0089
1124.00,0.0089
1123.00,0.0090
1122.00,0.0091
1121.00,0.0091
1120.00,0.0092
1119.00,0.0092
1118.00,0.0093
1117.00,0.0095
1116.00,0.0096
1115.00,0.0097
1114.00,0.0098
1113.00,0.0099
1112.00,0.0101
1111.00,0.0105
1110.00,0.0110
1109.00,0.0115
1108.00,0.0120
1107.00,0.0127
1106.00,0.0135
1105.00,0.0143
1104.00,0.0150
1103.00,0.0154
1102.00,0.0155
1101.00,0.0152
1100.00,0.0147
1099.00,0.0140
1098.00,0.0132
1097.00,0.0125
1096.00,0.0119
1095.00,0.0113
1094.00,0.0108
1093.00,0.0105
1092.00,0.0102
1091.00,0.0100
1090.00,0.0098
1089.00,0.0096
1088.00,0.0095
1087.00,0.0093
1086.00,0.0092
1085.00,0.0091
1084.00,0.0090
1083.00,0.0089
1082.00,0.0088
1081.00,0.0087
1080.00,0.0085
1079.00,0.0084
1078.00,0.0083
1077.00,0.0082
1076.00,0.0081
1075.00,0.0080
1074.00,0.0080
1073.00,0.0080
1072.00,0.0079
1071.00,0.0079
1070.00,0.0079
1069.00,0.0080
1068.00,0.0080
1067.00,0.0080
1066.00,0.0080
1065.00,0.0080
1064.00,0.0080
1063.00,0.0080
1062.00,0.0080
1061.00,0.0081
1060.00,0.0081
1059.00,0.0082
1058.00,0.0082
1057.00,0.0083
1056.00,0.0083
1055.00,0.0083
1054.00,0.0084
1053.00,0.0084
1052.00,0.0085
1051.00,0.0086
1050.00,0.0087
1049.00,0.0088
1048.00,0.0090
1047.00,0.0093
1046.00,0.0095
1045.00,0.0097
1044.00,0.0098
1043.00,0.0097
1042.00,0.0096
1041.00,0.0095
1040.00,0.0094
1039.00,0.0094
1038.00,0.0094
1037.00,0.0094
1036.00,0.0095
1035.00,0.0096
1034.00,0.0096
1033.00,0.0095
1032.00,0.0094
1031.00,0.0094
1030.00,0.0093
1029.00,0.0092
1028.00,0.0092
1027.00,0.0092
1026.00,0.0092
1025.00,0.0091
1024.00,0.0091
1023.00,0.0091
1022.00,0.0091
1021.00,0.0092
1020.00,0.0093
1019.00,0.0094
1018.00,0.0095
1017.00,0.0097
1016.00,0.0099
1015.00,0.0101
1014.00,0.0103
1013.00,0.0105
1012.00,0.0107
1011.00,0.0110
1010.00,0.0112
1009.00,0.0115
1008.00,0.0119
1007.00,0.0124
1006.00,0.0131
1005.00,0.0140
1004.00,0.0151
1003.00,0.0167
1002.00,0.0187
1001.00,0.0212
1000.00,0.0238
999.00,0.0259
998.00,0.0270
997.00,0.0264
996.00,0.0244
995.00,0.0216
994.00,0.0186
993.00,0.0159
992.00,0.0139
991.00,0.0125
990.00,0.0115
989.00,0.0109
988.00,0.0104
987.00,0.0102
986.00,0.0102
985.00,0.0104
984.00,0.0108
983.00,0.0114
982.00,0.0125
981.00,0.0139
980.00,0.0159
979.00,0.0185
978.00,0.0216
977.00,0.0252
976.00,0.0289
975.00,0.0322
974.00,0.0344
973.00,0.0350
972.00,0.0336
971.00,0.0306
970.00,0.0267
969.00,0.0227
968.00,0.0192
967.00,0.0164
966.00,0.0144
965.00,0.0130
964.00,0.0119
963.00,0.0111
962.00,0.0104
961.00,0.0099
960.00,0.0094
959.00,0.0091
958.00,0.0088
957.00,0.0085
956.00,0.0083
955.00,0.0082
954.00,0.0081
953.00,0.0080
952.00,0.0078
951.00,0.0077
950.00,0.0077
949.00,0.0078
948.00,0.0080
947.00,0.0081
946.00,0.0083
945.00,0.0087
944.00,0.0091
943.00,0.0095
942.00,0.0099
941.00,0.0100
940.00,0.0098
939.00,0.0094
938.00,0.0091
937.00,0.0087
936.00,0.0083
935.00,0.0079
934.00,0.0075
933.00,0.0071
932.00,0.0069
931.00,0.0067
930.00,0.0066
929.00,0.0065
928.00,0.0064
927.00,0.0063
926.00,0.0063
925.00,0.0063
924.00,0.0064
923.00,0.0066
922.00,0.0068
921.00,0.0069
920.00,0.0071
919.00,0.0072
918.00,0.0073
917.00,0.0074
916.00,0.0074
915.00,0.0074
914.00,0.0074
913.00,0.0075
912.00,0.0076
911.00,0.0078
910.00,0.0079
909.00,0.0080
908.00,0.0083
907.00,0.0087
906.00,0.0095
905.00,0.0107
904.00,0.0123
903.00,0.0144
902.00,0.0166
901.00,0.0187
900.00,0.0202
899.00,0.0206
898.00,0.0198
897.00,0.0180
896.00,0.0158
895.00,0.0136
894.00,0.0119
893.00,0.0107
892.00,0.0097
891.00,0.0090
890.00,0.0084
889.00,0.0079
888.00,0.0076
887.00,0.0074
886.00,0.0073
885.00,0.0073
884.00,0.0072
883.00,0.0071
882.00,0.0071
881.00,0.0071
880.00,0.0071
879.00,0.0072
878.00,0.0074
877.00,0.0074
876.00,0.0075
875.00,0.0075
874.00,0.0075
873.00,0.0075
872.00,0.0075
871.00,0.0074
870.00,0.0074
869.00,0.0074
868.00,0.0073
867.00,0.0072
866.00,0.0072
865.00,0.0072
864.00,0.0073
863.00,0.0075
862.00,0.0077
861.00,0.0080
860.00,0.0082
859.00,0.0084
858.00,0.0085
857.00,0.0086
856.00,0.0086
855.00,0.0087
854.00,0.0088
853.00,0.0089
852.00,0.0092
851.00,0.0096
850.00,0.0100
849.00,0.0105
848.00,0.0112
847.00,0.0122
846.00,0.0138
845.00,0.0162
844.00,0.0194
843.00,0.0226
842.00,0.0248
841.00,0.0250
840.00,0.0232
839.00,0.0202
838.00,0.0172
837.00,0.0149
836.00,0.0135
835.00,0.0126
834.00,0.0122
833.00,0.0119
832.00,0.0116
831.00,0.0113
830.00,0.0110
829.00,0.0109
828.00,0.0107
827.00,0.0105
826.00,0.0103
825.00,0.0103
824.00,0.0103
823.00,0.0103
822.00,0.0104
821.00,0.0106
820.00,0.0109
819.00,0.0113
818.00,0.0118
817.00,0.0125
816.00,0.0133
815.00,0.0144
814.00,0.0158
813.00,0.0175
812.00,0.0194
811.00,0.0212
810.00,0.0225
809.00,0.0231
808.00,0.0229
807.00,0.0220
806.00,0.0206
805.00,0.0190
804.00,0.0174
803.00,0.0159
802.00,0.0145
801.00,0.0133
800.00,0.0125
799.00,0.0119
798.00,0.0114
797.00,0.0109
796.00,0.0105
795.00,0.0102
794.00,0.0099
793.00,0.0096
792.00,0.0094
791.00,0.0092
790.00,0.0090
789.00,0.0087
788.00,0.0084
787.00,0.0081
786.00,0.0078
785.00,0.0075
784.00,0.0072
783.00,0.0068
782.00,0.0065
781.00,0.0064
780.00,0.0065
779.00,0.0066
778.00,0.0067
777.00,0.0067
776.00,0.0066
775.00,0.0066
774.00,0.0066
773.00,0.0067
772.00,0.0069
771.00,0.0070
770.00,0.0073
769.00,0.0075
768.00,0.0077
767.00,0.0077
766.00,0.0076
765.00,0.0075
764.00,0.0073
763.00,0.0069
762.00,0.0066
761.00,0.0062
760.00,0.0059
759.00,0.0057
758.00,0.0056
757.00,0.0056
756.00,0.0057
755.00,0.0057
754.00,0.0055
753.00,0.0054
752.00,0.0053
751.00,0.0052
750.00,0.0053
749.00,0.0054
748.00,0.0056
747.00,0.0058
746.00,0.0058
745.00,0.0058
744.00,0.0058
743.00,0.0060
742.00,0.0062
741.00,0.0064
740.00,0.0065
739.00,0.0066
738.00,0.0067
737.00,0.0068
736.00,0.0070
735.00,0.0071
734.00,0.0073
733.00,0.0075
732.00,0.0077
731.00,0.0078
730.00,0.0077
729.00,0.0075
728.00,0.0073
727.00,0.0070
726.00,0.0069
725.00,0.0067
724.00,0.0066
723.00,0.0066
722.00,0.0065
721.00,0.0063
720.00,0.0062
719.00,0.0062
718.00,0.0064
717.00,0.0065
716.00,0.0065
715.00,0.0063
714.00,0.0061
713.00,0.0060
712.00,0.0060
711.00,0.0061
710.00,0.0062
709.00,0.0061
708.00,0.0060
707.00,0.0060
706.00,0.0061
705.00,0.0062
704.00,0.0062
703.00,0.0061
702.00,0.0060
701.00,0.0059
700.00,0.0058
699.00,0.0057
698.00,0.0055
697.00,0.0054
696.00,0.0053
695.00,0.0053
694.00,0.0054
693.00,0.0054
692.00,0.0054
691.00,0.0054
690.00,0.0054
689.00,0.0053
688.00,0.0053
687.00,0.0054
686.00,0.0055
685.00,0.0054
684.00,0.0053
683.00,0.0051
682.00,0.0051
681.00,0.0052
680.00,0.0053
679.00,0.0054
678.00,0.0054
677.00,0.0055
676.00,0.0055
675.00,0.0055
674.00,0.0055
673.00,0.0055
672.00,0.0055
671.00,0.0055
670.00,0.0056
669.00,0.0059
668.00,0.0063
667.00,0.0064
666.00,0.0061
665.00,0.0057
664.00,0.0054
663.00,0.0052
662.00,0.0051
661.00,0.0050
660.00,0.0049
659.00,0.0050
658.00,0.0051
657.00,0.0051
656.00,0.0051
655.00,0.0050
654.00,0.0050
653.00,0.0050
652.00,0.0050
651.00,0.0050
650.00,0.0051
649.00,0.0052
648.00,0.0052
647.00,0.0052
646.00,0.0051
645.00,0.0050
644.00,0.0048
643.00,0.0049
642.00,0.0052
641.00,0.0057
640.00,0.0060
639.00,0.0061
638.00,0.0060
637.00,0.0058
636.00,0.0056
635.00,0.0055
634.00,0.0056
633.00,0.0057
632.00,0.0058
631.00,0.0058
630.00,0.0057
629.00,0.0056
628.00,0.0056
627.00,0.0056
626.00,0.0056
625.00,0.0057
624.00,0.0058
623.00,0.0060
622.00,0.0060
621.00,0.0060
620.00,0.0059
619.00,0.0057
618.00,0.0056
617.00,0.0056
616.00,0.0057
615.00,0.0058
614.00,0.0057
613.00,0.0057
612.00,0.0058
611.00,0.0059
610.00,0.0060
609.00,0.0061
608.00,0.0062
607.00,0.0063
606.00,0.0063
605.00,0.0063
604.00,0.0063
603.00,0.0065
602.00,0.0065
601.00,0.0062
600.00,0.0059
599.00,0.0058
598.00,0.0059
597.00,0.0060
596.00,0.0060
595.00,0.0059
594.00,0.0057
593.00,0.0056
592.00,0.0056
591.00,0.0056
590.00,0.0055
589.00,0.0054
588.00,0.0054
587.00,0.0055
586.00,0.0057
585.00,0.0058
584.00,0.0059
583.00,0.0061
582.00,0.0064
581.00,0.0068
580.00,0.0071
579.00,0.0071
578.00,0.0069
577.00,0.0066
576.00,0.0063
575.00,0.0063
574.00,0.0063
573.00,0.0064
572.00,0.0065
571.00,0.0067
570.00,0.0069
569.00,0.0069
568.00,0.0068
567.00,0.0067
566.00,0.0068
565.00,0.0069
564.00,0.0069
563.00,0.0067
562.00,0.0065
561.00,0.0063
560.00,0.0064
559.00,0.0068
558.00,0.0072
557.00,0.0073
556.00,0.0072
555.00,0.0071
554.00,0.0072
553.00,0.0075
552.00,0.0079
551.00,0.0080
550.00,0.0078
549.00,0.0073
548.00,0.0068
547.00,0.0066
546.00,0.0067
545.00,0.0069
544.00,0.0070
543.00,0.0070
542.00,0.0071
541.00,0.0072
540.00,0.0074
539.00,0.0075
538.00,0.0077
537.00,0.0078
536.00,0.0077
535.00,0.0078
534.00,0.0081
533.00,0.0084
532.00,0.0086
531.00,0.0086
530.00,0.0087
529.00,0.0090
528.00,0.0097
527.00,0.0104
526.00,0.0108
525.00,0.0106
524.00,0.0101
523.00,0.0097
522.00,0.0093
521.00,0.0087
520.00,0.0079
519.00,0.0074
518.00,0.0075
517.00,0.0076
516.00,0.0074
515.00,0.0067
514.00,0.0060
513.00,0.0055
512.00,0.0052
511.00,0.0051
510.00,0.0053
509.00,0.0056
508.00,0.0059
507.00,0.0061
506.00,0.0064
505.00,0.0066
504.00,0.0066
503.00,0.0065
502.00,0.0067
501.00,0.0069
500.00,0.0069
499.00,0.0069
498.00,0.0071
497.00,0.0074
496.00,0.0075
495.00,0.0072
494.00,0.0065
493.00,0.0059
492.00,0.0055
491.00,0.0055
490.00,0.0059
489.00,0.0065
488.00,0.0069
487.00,0.0068
486.00,0.0064
485.00,0.0058
484.00,0.0053
483.00,0.0054
482.00,0.0063
481.00,0.0076
480.00,0.0083
479.00,0.0082
478.00,0.0076
477.00,0.0075
476.00,0.0082
475.00,0.0093
474.00,0.0101
473.00,0.0101
472.00,0.0097
471.00,0.0091
470.00,0.0088
469.00,0.0090
468.00,0.0096
467.00,0.0106
466.00,0.0116
465.00,0.0121
464.00,0.0122
463.00,0.0121
462.00,0.0122
461.00,0.0127
460.00,0.0135
459.00,0.0144
458.00,0.0149
457.00,0.0147
456.00,0.0140
455.00,0.0133
454.00,0.0127
453.00,0.0119
452.00,0.0106
451.00,0.0092
450.00,0.0083
