Created as New Dataset,Sample 187 By Administrator Date Tuesday, September 09 2025
cm-1,A
4000.00,0.0003
3999.00,0.0003
3998.00,0.0003
3997.00,0.0003
3996.00,0.0003
3995.00,0.0003
3994.00,0.0003
3993.00,0.0003
3992.00,0.0002
3991.00,0.0002
3990.00,0.0002
3989.00,0.0001
3988.00,0.0001
3987.00,0.0001
3986.00,0.0001
3985.00,0.0001
3984.00,0.0002
3983.00,0.0002
3982.00,0.0002
3981.00,0.0001
3980.00,0.0001
3979.00,0.0001
3978.00,0.0001
3977.00,0.0001
3976.00,0.0001
3975.00,0.0002
3974.00,0.0002
3973.00,0.0002
3972.00,0.0002
3971.00,0.0002
3970.00,0.0001
3969.00,0.0001
3968.00,0.0001
3967.00,0.0001
3966.00,0.0001
3965.00,0.0001
3964.00,0.0001
3963.00,0.0001
3962.00,0.0001
3961.00,0.0001
3960.00,0.0001
3959.00,0.0001
3958.00,0.0001
3957.00,0.0001
3956.00,0.0001
3955.00,0.0001
3954.00,0.0001
3953.00,0.0001
3952.00,0.0000
3951.00,0.0000
3950.00,0.0001
3949.00,0.0001
3948.00,0.0001
3947.00,0.0001
3946.00,0.0001
3945.00,0.0000
3944.00,0.0000
3943.00,0.0000
3942.00,0.0000
3941.00,0.0001
3940.00,0.0001
3939.00,0.0001
3938.00,0.0001
3937.00,0.0001
3936.00,0.0001
3935.00,0.0001
3934.00,0.0002
3933.00,0.0002
3932.00,0.0002
3931.00,0.0002
3930.00,0.0002
3929.00,0.0001
3928.00,0.0001
3927.00,0.0001
3926.00,0.0001
3925.00,0.0001
3924.00,0.0001
3923.00,0.0001
3922.00,0.0001
3921.00,0.0001
3920.00,0.0001
3919.00,0.0001
3918.00,0.0001
3917.00,0.0000
3916.00,0.0000
3915.00,0.0000
3914.00,0.0001
3913.00,0.0001
3912.00,0.0002
3911.00,0.0002
3910.00,0.0002
3909.00,0.0001
3908.00,0.0001
3907.00,0.0001
3906.00,0.0001
3905.00,0.0001
3904.00,0.0002
3903.00,0.0002
3902.00,0.0002
3901.00,0.0002
3900.00,0.0002
3899.00,0.0002
3898.00,0.0002
3897.00,0.0002
3896.00,0.0002
3895.00,0.0002
3894.00,0.0001
3893.00,0.0001
3892.00,0.0001
3891.00,0.0001
3890.00,0.0001
3889.00,0.0002
3888.00,0.0002
3887.00,0.0002
3886.00,0.0002
3885.00,0.0002
3884.00,0.0002
3883.00,0.0002
3882.00,0.0001
3881.00,0.0001
3880.00,0.0001
3879.00,0.0001
3878.00,0.0001
3877.00,0.0001
3876.00,0.0001
3875.00,0.0001
3874.00,0.0001
3873.00,0.0002
3872.00,0.0002
3871.00,0.0002
3870.00,0.0002
3869.00,0.0001
3868.00,0.0001
3867.00,0.0001
3866.00,0.0001
3865.00,0.0002
3864.00,0.0002
3863.00,0.0002
3862.00,0.0002
3861.00,0.0002
3860.00,0.0002
3859.00,0.0001
3858.00,0.0001
3857.00,0.0001
3856.00,0.0001
3855.00,0.0001
3854.00,0.0001
3853.00,0.0001
3852.00,0.0001
3851.00,0.0001
3850.00,0.0001
3849.00,0.0001
3848.00,0.0001
3847.00,0.0001
3846.00,0.0001
3845.00,0.0000
3844.00,0.0000
3843.00,0.0000
3842.00,-0.0000
3841.00,-0.0000
3840.00,-0.0000
3839.00,-0.0000
3838.00,-0.0000
3837.00,0.0000
3836.00,0.0000
3835.00,0.0001
3834.00,0.0001
3833.00,0.0001
3832.00,0.0001
3831.00,0.0001
3830.00,0.0001
3829.00,0.0001
3828.00,0.0001
3827.00,0.0001
3826.00,0.0001
3825.00,0.0001
3824.00,0.0000
3823.00,-0.0000
3822.00,-0.0000
3821.00,0.0000
3820.00,0.0001
3819.00,0.0001
3818.00,0.0001
3817.00,0.0001
3816.00,0.0001
3815.00,0.0001
3814.00,0.0001
3813.00,0.0001
3812.00,0.0001
3811.00,0.0001
3810.00,0.0001
3809.00,0.0001
3808.00,0.0001
3807.00,0.0002
3806.00,0.0001
3805.00,0.0001
3804.00,0.0001
3803.00,0.0001
3802.00,0.0001
3801.00,0.0001
3800.00,0.0001
3799.00,0.0001
3798.00,0.0001
3797.00,0.0001
3796.00,0.0001
3795.00,0.0001
3794.00,0.0001
3793.00,0.0001
3792.00,0.0001
3791.00,0.0001
3790.00,0.0001
3789.00,0.0000
3788.00,0.0000
3787.00,0.0001
3786.00,0.0001
3785.00,0.0001
3784.00,0.0001
3783.00,0.0001
3782.00,0.0001
3781.00,0.0001
3780.00,0.0001
3779.00,0.0001
3778.00,0.0002
3777.00,0.0002
3776.00,0.0002
3775.00,0.0002
3774.00,0.0002
3773.00,0.0002
3772.00,0.0002
3771.00,0.0002
3770.00,0.0002
3769.00,0.0003
3768.00,0.0003
3767.00,0.0002
3766.00,0.0002
3765.00,0.0002
3764.00,0.0002
3763.00,0.0002
3762.00,0.0002
3761.00,0.0002
3760.00,0.0002
3759.00,0.0002
3758.00,0.0002
3757.00,0.0002
3756.00,0.0003
3755.00,0.0003
3754.00,0.0003
3753.00,0.0003
3752.00,0.0003
3751.00,0.0002
3750.00,0.0001
3749.00,0.0001
3748.00,0.0001
3747.00,0.0001
3746.00,0.0001
3745.00,0.0001
3744.00,0.0001
3743.00,0.0001
3742.00,0.0001
3741.00,0.0001
3740.00,0.0001
3739.00,0.0000
3738.00,0.0000
3737.00,0.0000
3736.00,0.0000
3735.00,0.0000
3734.00,0.0000
3733.00,0.0000
3732.00,0.0001
3731.00,0.0001
3730.00,0.0002
3729.00,0.0002
3728.00,0.0002
3727.00,0.0001
3726.00,0.0001
3725.00,0.0001
3724.00,0.0001
3723.00,0.0001
3722.00,0.0001
3721.00,0.0000
3720.00,-0.0001
3719.00,-0.0001
3718.00,-0.0001
3717.00,-0.0000
3716.00,0.0000
3715.00,0.0001
3714.00,0.0001
3713.00,0.0001
3712.00,-0.0000
3711.00,-0.0001
3710.00,-0.0000
3709.00,0.0000
3708.00,0.0001
3707.00,0.0001
3706.00,0.0001
3705.00,0.0000
3704.00,-0.0000
3703.00,-0.0001
3702.00,-0.0001
3701.00,-0.0001
3700.00,-0.0001
3699.00,-0.0001
3698.00,-0.0000
3697.00,-0.0000
3696.00,0.0000
3695.00,0.0000
3694.00,0.0000
3693.00,0.0000
3692.00,0.0000
3691.00,0.0000
3690.00,0.0000
3689.00,0.0000
3688.00,0.0000
3687.00,0.0001
3686.00,0.0001
3685.00,0.0001
3684.00,0.0001
3683.00,0.0001
3682.00,0.0001
3681.00,0.0000
3680.00,0.0000
3679.00,0.0000
3678.00,0.0000
3677.00,0.0001
3676.00,0.0001
3675.00,0.0002
3674.00,0.0002
3673.00,0.0002
3672.00,0.0001
3671.00,0.0001
3670.00,0.0001
3669.00,0.0000
3668.00,-0.0000
3667.00,-0.0000
3666.00,-0.0000
3665.00,-0.0000
3664.00,0.0000
3663.00,0.0000
3662.00,0.0000
3661.00,0.0000
3660.00,0.0001
3659.00,0.0001
3658.00,0.0001
3657.00,0.0001
3656.00,0.0001
3655.00,0.0000
3654.00,0.0000
3653.00,0.0000
3652.00,0.0001
3651.00,0.0001
3650.00,0.0001
3649.00,0.0002
3648.00,0.0002
3647.00,0.0001
3646.00,0.0001
3645.00,0.0001
3644.00,0.0000
3643.00,0.0000
3642.00,0.0000
3641.00,0.0001
3640.00,0.0001
3639.00,0.0001
3638.00,0.0002
3637.00,0.0002
3636.00,0.0002
3635.00,0.0002
3634.00,0.0002
3633.00,0.0002
3632.00,0.0002
3631.00,0.0003
3630.00,0.0003
3629.00,0.0003
3628.00,0.0003
3627.00,0.0003
3626.00,0.0002
3625.00,0.0002
3624.00,0.0002
3623.00,0.0002
3622.00,0.0002
3621.00,0.0002
3620.00,0.0003
3619.00,0.0003
3618.00,0.0003
3617.00,0.0003
3616.00,0.0004
3615.00,0.0004
3614.00,0.0004
3613.00,0.0004
3612.00,0.0004
3611.00,0.0004
3610.00,0.0004
3609.00,0.0004
3608.00,0.0005
3607.00,0.0005
3606.00,0.0005
3605.00,0.0005
3604.00,0.0005
3603.00,0.0005
3602.00,0.0005
3601.00,0.0005
3600.00,0.0005
3599.00,0.0005
3598.00,0.0005
3597.00,0.0005
3596.00,0.0006
3595.00,0.0007
3594.00,0.0007
3593.00,0.0007
3592.00,0.0007
3591.00,0.0007
3590.00,0.0007
3589.00,0.0007
3588.00,0.0007
3587.00,0.0007
3586.00,0.0007
3585.00,0.0007
3584.00,0.0008
3583.00,0.0008
3582.00,0.0008
3581.00,0.0009
3580.00,0.0009
3579.00,0.0009
3578.00,0.0009
3577.00,0.0009
3576.00,0.0009
3575.00,0.0009
3574.00,0.0009
3573.00,0.0009
3572.00,0.0010
3571.00,0.0010
3570.00,0.0011
3569.00,0.0011
3568.00,0.0012
3567.00,0.0011
3566.00,0.0011
3565.00,0.0011
3564.00,0.0011
3563.00,0.0011
3562.00,0.0011
3561.00,0.0012
3560.00,0.0012
3559.00,0.0013
3558.00,0.0013
3557.00,0.0014
3556.00,0.0014
3555.00,0.0014
3554.00,0.0014
3553.00,0.0015
3552.00,0.0015
3551.00,0.0014
3550.00,0.0014
3549.00,0.0015
3548.00,0.0015
3547.00,0.0015
3546.00,0.0016
3545.00,0.0016
3544.00,0.0017
3543.00,0.0017
3542.00,0.0017
3541.00,0.0017
3540.00,0.0018
3539.00,0.0018
3538.00,0.0018
3537.00,0.0018
3536.00,0.0019
3535.00,0.0019
3534.00,0.0019
3533.00,0.0020
3532.00,0.0020
3531.00,0.0021
3530.00,0.0021
3529.00,0.0021
3528.00,0.0021
3527.00,0.0021
3526.00,0.0021
3525.00,0.0021
3524.00,0.0021
3523.00,0.0021
3522.00,0.0022
3521.00,0.0022
3520.00,0.0022
3519.00,0.0022
3518.00,0.0022
3517.00,0.0023
3516.00,0.0023
3515.00,0.0024
3514.00,0.0024
3513.00,0.0024
3512.00,0.0025
3511.00,0.0025
3510.00,0.0026
3509.00,0.0026
3508.00,0.0026
3507.00,0.0027
3506.00,0.0027
3505.00,0.0027
3504.00,0.0027
3503.00,0.0027
3502.00,0.0027
3501.00,0.0027
3500.00,0.0028
3499.00,0.0028
3498.00,0.0028
3497.00,0.0029
3496.00,0.0029
3495.00,0.0030
3494.00,0.0030
3493.00,0.0031
3492.00,0.0031
3491.00,0.0031
3490.00,0.0030
3489.00,0.0030
3488.00,0.0030
3487.00,0.0031
3486.00,0.0031
3485.00,0.0032
3484.00,0.0033
3483.00,0.0033
3482.00,0.0034
3481.00,0.0033
3480.00,0.0033
3479.00,0.0033
3478.00,0.0033
3477.00,0.0034
3476.00,0.0034
3475.00,0.0035
3474.00,0.0035
3473.00,0.0035
3472.00,0.0035
3471.00,0.0035
3470.00,0.0035
3469.00,0.0036
3468.00,0.0036
3467.00,0.0036
3466.00,0.0036
3465.00,0.0036
3464.00,0.0036
3463.00,0.0036
3462.00,0.0037
3461.00,0.0037
3460.00,0.0038
3459.00,0.0038
3458.00,0.0038
3457.00,0.0037
3456.00,0.0037
3455.00,0.0038
3454.00,0.0038
3453.00,0.0038
3452.00,0.0039
3451.00,0.0040
3450.00,0.0040
3449.00,0.0041
3448.00,0.0041
3447.00,0.0041
3446.00,0.0041
3445.00,0.0041
3444.00,0.0041
3443.00,0.0042
3442.00,0.0042
3441.00,0.0042
3440.00,0.0043
3439.00,0.0043
3438.00,0.0043
3437.00,0.0043
3436.00,0.0043
3435.00,0.0044
3434.00,0.0044
3433.00,0.0044
3432.00,0.0044
3431.00,0.0044
3430.00,0.0044
3429.00,0.0045
3428.00,0.0045
3427.00,0.0046
3426.00,0.0046
3425.00,0.0046
3424.00,0.0047
3423.00,0.0047
3422.00,0.0047
3421.00,0.0047
3420.00,0.0047
3419.00,0.0048
3418.00,0.0048
3417.00,0.0049
3416.00,0.0049
3415.00,0.0050
3414.00,0.0050
3413.00,0.0050
3412.00,0.0050
3411.00,0.0050
3410.00,0.0050
3409.00,0.0051
3408.00,0.0051
3407.00,0.0051
3406.00,0.0052
3405.00,0.0052
3404.00,0.0053
3403.00,0.0053
3402.00,0.0054
3401.00,0.0054
3400.00,0.0055
3399.00,0.0055
3398.00,0.0055
3397.00,0.0055
3396.00,0.0055
3395.00,0.0054
3394.00,0.0054
3393.00,0.0055
3392.00,0.0055
3391.00,0.0055
3390.00,0.0055
3389.00,0.0055
3388.00,0.0055
3387.00,0.0054
3386.00,0.0054
3385.00,0.0054
3384.00,0.0054
3383.00,0.0054
3382.00,0.0054
3381.00,0.0054
3380.00,0.0054
3379.00,0.0054
3378.00,0.0054
3377.00,0.0054
3376.00,0.0054
3375.00,0.0054
3374.00,0.0054
3373.00,0.0054
3372.00,0.0054
3371.00,0.0054
3370.00,0.0054
3369.00,0.0054
3368.00,0.0054
3367.00,0.0054
3366.00,0.0054
3365.00,0.0054
3364.00,0.0054
3363.00,0.0054
3362.00,0.0054
3361.00,0.0054
3360.00,0.0054
3359.00,0.0054
3358.00,0.0054
3357.00,0.0054
3356.00,0.0054
3355.00,0.0055
3354.00,0.0055
3353.00,0.0055
3352.00,0.0055
3351.00,0.0055
3350.00,0.0055
3349.00,0.0055
3348.00,0.0055
3347.00,0.0055
3346.00,0.0055
3345.00,0.0055
3344.00,0.0055
3343.00,0.0055
3342.00,0.0055
3341.00,0.0055
3340.00,0.0055
3339.00,0.0055
3338.00,0.0055
3337.00,0.0055
3336.00,0.0054
3335.00,0.0054
3334.00,0.0054
3333.00,0.0054
3332.00,0.0054
3331.00,0.0054
3330.00,0.0054
3329.00,0.0054
3328.00,0.0054
3327.00,0.0054
3326.00,0.0054
3325.00,0.0054
3324.00,0.0053
3323.00,0.0053
3322.00,0.0053
3321.00,0.0053
3320.00,0.0052
3319.00,0.0052
3318.00,0.0052
3317.00,0.0052
3316.00,0.0052
3315.00,0.0052
3314.00,0.0052
3313.00,0.0052
3312.00,0.0052
3311.00,0.0052
3310.00,0.0052
3309.00,0.0052
3308.00,0.0052
3307.00,0.0052
3306.00,0.0052
3305.00,0.0052
3304.00,0.0052
3303.00,0.0052
3302.00,0.0052
3301.00,0.0052
3300.00,0.0052
3299.00,0.0052
3298.00,0.0052
3297.00,0.0052
3296.00,0.0052
3295.00,0.0052
3294.00,0.0051
3293.00,0.0051
3292.00,0.0051
3291.00,0.0050
3290.00,0.0050
3289.00,0.0050
3288.00,0.0050
3287.00,0.0049
3286.00,0.0049
3285.00,0.0049
3284.00,0.0049
3283.00,0.0049
3282.00,0.0049
3281.00,0.0049
3280.00,0.0049
3279.00,0.0048
3278.00,0.0048
3277.00,0.0048
3276.00,0.0048
3275.00,0.0048
3274.00,0.0048
3273.00,0.0048
3272.00,0.0048
3271.00,0.0048
3270.00,0.0048
3269.00,0.0048
3268.00,0.0048
3267.00,0.0048
3266.00,0.0047
3265.00,0.0047
3264.00,0.0047
3263.00,0.0046
3262.00,0.0046
3261.00,0.0046
3260.00,0.0046
3259.00,0.0046
3258.00,0.0045
3257.00,0.0045
3256.00,0.0045
3255.00,0.0045
3254.00,0.0045
3253.00,0.0045
3252.00,0.0045
3251.00,0.0045
3250.00,0.0045
3249.00,0.0045
3248.00,0.0044
3247.00,0.0044
3246.00,0.0043
3245.00,0.0043
3244.00,0.0043
3243.00,0.0044
3242.00,0.0044
3241.00,0.0044
3240.00,0.0044
3239.00,0.0043
3238.00,0.0044
3237.00,0.0044
3236.00,0.0044
3235.00,0.0044
3234.00,0.0044
3233.00,0.0044
3232.00,0.0044
3231.00,0.0044
3230.00,0.0044
3229.00,0.0044
3228.00,0.0044
3227.00,0.0045
3226.00,0.0045
3225.00,0.0045
3224.00,0.0045
3223.00,0.0045
3222.00,0.0045
3221.00,0.0045
3220.00,0.0045
3219.00,0.0046
3218.00,0.0046
3217.00,0.0046
3216.00,0.0046
3215.00,0.0046
3214.00,0.0046
3213.00,0.0047
3212.00,0.0047
3211.00,0.0047
3210.00,0.0048
3209.00,0.0048
3208.00,0.0048
3207.00,0.0049
3206.00,0.0049
3205.00,0.0049
3204.00,0.0049
3203.00,0.0049
3202.00,0.0049
3201.00,0.0049
3200.00,0.0049
3199.00,0.0050
3198.00,0.0049
3197.00,0.0049
3196.00,0.0049
3195.00,0.0048
3194.00,0.0048
3193.00,0.0048
3192.00,0.0048
3191.00,0.0048
3190.00,0.0047
3189.00,0.0047
3188.00,0.0047
3187.00,0.0047
3186.00,0.0046
3185.00,0.0046
3184.00,0.0046
3183.00,0.0046
3182.00,0.0046
3181.00,0.0045
3180.00,0.0045
3179.00,0.0045
3178.00,0.0045
3177.00,0.0045
3176.00,0.0044
3175.00,0.0044
3174.00,0.0043
3173.00,0.0043
3172.00,0.0043
3171.00,0.0042
3170.00,0.0042
3169.00,0.0043
3168.00,0.0043
3167.00,0.0043
3166.00,0.0042
3165.00,0.0042
3164.00,0.0041
3163.00,0.0041
3162.00,0.0041
3161.00,0.0040
3160.00,0.0040
3159.00,0.0040
3158.00,0.0041
3157.00,0.0041
3156.00,0.0040
3155.00,0.0040
3154.00,0.0040
3153.00,0.0040
3152.00,0.0040
3151.00,0.0040
3150.00,0.0040
3149.00,0.0040
3148.00,0.0040
3147.00,0.0039
3146.00,0.0039
3145.00,0.0039
3144.00,0.0039
3143.00,0.0039
3142.00,0.0039
3141.00,0.0039
3140.00,0.0039
3139.00,0.0038
3138.00,0.0038
3137.00,0.0038
3136.00,0.0037
3135.00,0.0037
3134.00,0.0036
3133.00,0.0035
3132.00,0.0035
3131.00,0.0035
3130.00,0.0036
3129.00,0.0036
3128.00,0.0036
3127.00,0.0036
3126.00,0.0035
3125.00,0.0035
3124.00,0.0035
3123.00,0.0034
3122.00,0.0034
3121.00,0.0034
3120.00,0.0033
3119.00,0.0033
3118.00,0.0033
3117.00,0.0033
3116.00,0.0033
3115.00,0.0032
3114.00,0.0032
3113.00,0.0031
3112.00,0.0031
3111.00,0.0031
3110.00,0.0030
3109.00,0.0030
3108.00,0.0030
3107.00,0.0030
3106.00,0.0030
3105.00,0.0029
3104.00,0.0029
3103.00,0.0029
3102.00,0.0030
3101.00,0.0030
3100.00,0.0030
3099.00,0.0030
3098.00,0.0029
3097.00,0.0029
3096.00,0.0029
3095.00,0.0029
3094.00,0.0029
3093.00,0.0029
3092.00,0.0028
3091.00,0.0027
3090.00,0.0027
3089.00,0.0027
3088.00,0.0027
3087.00,0.0027
3086.00,0.0027
3085.00,0.0027
3084.00,0.0027
3083.00,0.0027
3082.00,0.0027
3081.00,0.0027
3080.00,0.0027
3079.00,0.0027
3078.00,0.0027
3077.00,0.0027
3076.00,0.0027
3075.00,0.0027
3074.00,0.0027
3073.00,0.0027
3072.00,0.0027
3071.00,0.0028
3070.00,0.0028
3069.00,0.0028
3068.00,0.0028
3067.00,0.0028
3066.00,0.0028
3065.00,0.0028
3064.00,0.0029
3063.00,0.0029
3062.00,0.0030
3061.00,0.0030
3060.00,0.0029
3059.00,0.0029
3058.00,0.0029
3057.00,0.0030
3056.00,0.0030
3055.00,0.0031
3054.00,0.0031
3053.00,0.0031
3052.00,0.0031
3051.00,0.0031
3050.00,0.0031
3049.00,0.0031
3048.00,0.0031
3047.00,0.0031
3046.00,0.0031
3045.00,0.0031
3044.00,0.0031
3043.00,0.0032
3042.00,0.0032
3041.00,0.0032
3040.00,0.0032
3039.00,0.0033
3038.00,0.0033
3037.00,0.0034
3036.00,0.0034
3035.00,0.0034
3034.00,0.0034
3033.00,0.0035
3032.00,0.0035
3031.00,0.0036
3030.00,0.0037
3029.00,0.0037
3028.00,0.0038
3027.00,0.0038
3026.00,0.0038
3025.00,0.0039
3024.00,0.0039
3023.00,0.0040
3022.00,0.0041
3021.00,0.0042
3020.00,0.0043
3019.00,0.0044
3018.00,0.0045
3017.00,0.0045
3016.00,0.0046
3015.00,0.0048
3014.00,0.0049
3013.00,0.0050
3012.00,0.0052
3011.00,0.0053
3010.00,0.0054
3009.00,0.0055
3008.00,0.0057
3007.00,0.0058
3006.00,0.0059
3005.00,0.0061
3004.00,0.0063
3003.00,0.0065
3002.00,0.0067
3001.00,0.0069
3000.00,0.0072
2999.00,0.0075
2998.00,0.0078
2997.00,0.0081
2996.00,0.0085
2995.00,0.0089
2994.00,0.0094
2993.00,0.0099
2992.00,0.0105
2991.00,0.0111
2990.00,0.0117
2989.00,0.0124
2988.00,0.0131
2987.00,0.0140
2986.00,0.0150
2985.00,0.0161
2984.00,0.0173
2983.00,0.0187
2982.00,0.0202
2981.00,0.0219
2980.00,0.0239
2979.00,0.0260
2978.00,0.0285
2977.00,0.0314
2976.00,0.0347
2975.00,0.0384
2974.00,0.0427
2973.00,0.0474
2972.00,0.0529
2971.00,0.0589
2970.00,0.0657
2969.00,0.0731
2968.00,0.0812
2967.00,0.0898
2966.00,0.0988
2965.00,0.1079
2964.00,0.1167
2963.00,0.1249
2962.00,0.1319
2961.00,0.1376
2960.00,0.1419
2959.00,0.1454
2958.00,0.1487
2957.00,0.1526
2956.00,0.1576
2955.00,0.1641
2954.00,0.1719
2953.00,0.1804
2952.00,0.1887
2951.00,0.1953
2950.00,0.1988
2949.00,0.1983
2948.00,0.1933
2947.00,0.1841
2946.00,0.1716
2945.00,0.1576
2944.00,0.1436
2943.00,0.1310
2942.00,0.1207
2941.00,0.1131
2940.00,0.1082
2939.00,0.1057
2938.00,0.1055
2937.00,0.1071
2936.00,0.1106
2935.00,0.1157
2934.00,0.1223
2933.00,0.1303
2932.00,0.1395
2931.00,0.1498
2930.00,0.1608
2929.00,0.1723
2928.00,0.1838
2927.00,0.1952
2926.00,0.2061
2925.00,0.2166
2924.00,0.2268
2923.00,0.2368
2922.00,0.2467
2921.00,0.2563
2920.00,0.2649
2919.00,0.2716
2918.00,0.2754
2917.00,0.2756
2916.00,0.2720
2915.00,0.2650
2914.00,0.2557
2913.00,0.2450
2912.00,0.2341
2911.00,0.2237
2910.00,0.2142
2909.00,0.2056
2908.00,0.1976
2907.00,0.1899
2906.00,0.1824
2905.00,0.1749
2904.00,0.1673
2903.00,0.1599
2902.00,0.1525
2901.00,0.1454
2900.00,0.1385
2899.00,0.1320
2898.00,0.1261
2897.00,0.1207
2896.00,0.1159
2895.00,0.1119
2894.00,0.1087
2893.00,0.1062
2892.00,0.1045
2891.00,0.1033
2890.00,0.1028
2889.00,0.1028
2888.00,0.1032
2887.00,0.1040
2886.00,0.1052
2885.00,0.1067
2884.00,0.1086
2883.00,0.1109
2882.00,0.1137
2881.00,0.1166
2880.00,0.1195
2879.00,0.1219
2878.00,0.1234
2877.00,0.1240
2876.00,0.1236
2875.00,0.1228
2874.00,0.1221
2873.00,0.1220
2872.00,0.1227
2871.00,0.1242
2870.00,0.1264
2869.00,0.1288
2868.00,0.1306
2867.00,0.1308
2866.00,0.1286
2865.00,0.1235
2864.00,0.1159
2863.00,0.1064
2862.00,0.0965
2861.00,0.0870
2860.00,0.0787
2859.00,0.0720
2858.00,0.0669
2857.00,0.0631
2856.00,0.0605
2855.00,0.0588
2854.00,0.0579
2853.00,0.0577
2852.00,0.0581
2851.00,0.0593
2850.00,0.0611
2849.00,0.0638
2848.00,0.0674
2847.00,0.0720
2846.00,0.0774
2845.00,0.0838
2844.00,0.0908
2843.00,0.0984
2842.00,0.1060
2841.00,0.1131
2840.00,0.1188
2839.00,0.1223
2838.00,0.1229
2837.00,0.1200
2836.00,0.1137
2835.00,0.1047
2834.00,0.0941
2833.00,0.0831
2832.00,0.0726
2831.00,0.0632
2830.00,0.0554
2829.00,0.0489
2828.00,0.0436
2827.00,0.0394
2826.00,0.0359
2825.00,0.0331
2824.00,0.0308
2823.00,0.0288
2822.00,0.0272
2821.00,0.0257
2820.00,0.0244
2819.00,0.0233
2818.00,0.0223
2817.00,0.0215
2816.00,0.0207
2815.00,0.0201
2814.00,0.0195
2813.00,0.0189
2812.00,0.0183
2811.00,0.0177
2810.00,0.0172
2809.00,0.0166
2808.00,0.0160
2807.00,0.0153
2806.00,0.0147
2805.00,0.0140
2804.00,0.0133
2803.00,0.0127
2802.00,0.0122
2801.00,0.0118
2800.00,0.0114
2799.00,0.0111
2798.00,0.0109
2797.00,0.0106
2796.00,0.0103
2795.00,0.0100
2794.00,0.0098
2793.00,0.0095
2792.00,0.0092
2791.00,0.0089
2790.00,0.0086
2789.00,0.0083
2788.00,0.0080
2787.00,0.0078
2786.00,0.0075
2785.00,0.0073
2784.00,0.0070
2783.00,0.0068
2782.00,0.0066
2781.00,0.0064
2780.00,0.0062
2779.00,0.0060
2778.00,0.0059
2777.00,0.0058
2776.00,0.0057
2775.00,0.0055
2774.00,0.0054
2773.00,0.0053
2772.00,0.0053
2771.00,0.0052
2770.00,0.0052
2769.00,0.0052
2768.00,0.0052
2767.00,0.0052
2766.00,0.0052
2765.00,0.0052
2764.00,0.0051
2763.00,0.0051
2762.00,0.0050
2761.00,0.0050
2760.00,0.0049
2759.00,0.0049
2758.00,0.0049
2757.00,0.0049
2756.00,0.0049
2755.00,0.0049
2754.00,0.0049
2753.00,0.0049
2752.00,0.0049
2751.00,0.0048
2750.00,0.0048
2749.00,0.0048
2748.00,0.0048
2747.00,0.0048
2746.00,0.0048
2745.00,0.0049
2744.00,0.0050
2743.00,0.0052
2742.00,0.0053
2741.00,0.0054
2740.00,0.0055
2739.00,0.0056
2738.00,0.0058
2737.00,0.0060
2736.00,0.0061
2735.00,0.0063
2734.00,0.0064
2733.00,0.0066
2732.00,0.0068
2731.00,0.0070
2730.00,0.0072
2729.00,0.0074
2728.00,0.0077
2727.00,0.0080
2726.00,0.0082
2725.00,0.0085
2724.00,0.0087
2723.00,0.0087
2722.00,0.0087
2721.00,0.0085
2720.00,0.0082
2719.00,0.0079
2718.00,0.0075
2717.00,0.0072
2716.00,0.0069
2715.00,0.0066
2714.00,0.0063
2713.00,0.0061
2712.00,0.0058
2711.00,0.0056
2710.00,0.0055
2709.00,0.0053
2708.00,0.0051
2707.00,0.0050
2706.00,0.0048
2705.00,0.0047
2704.00,0.0046
2703.00,0.0045
2702.00,0.0044
2701.00,0.0043
2700.00,0.0043
2699.00,0.0042
2698.00,0.0041
2697.00,0.0041
2696.00,0.0041
2695.00,0.0041
2694.00,0.0041
2693.00,0.0041
2692.00,0.0041
2691.00,0.0041
2690.00,0.0041
2689.00,0.0041
2688.00,0.0041
2687.00,0.0041
2686.00,0.0041
2685.00,0.0041
2684.00,0.0041
2683.00,0.0041
2682.00,0.0042
2681.00,0.0042
2680.00,0.0042
2679.00,0.0042
2678.00,0.0043
2677.00,0.0043
2676.00,0.0043
2675.00,0.0042
2674.00,0.0042
2673.00,0.0042
2672.00,0.0042
2671.00,0.0041
2670.00,0.0041
2669.00,0.0041
2668.00,0.0042
2667.00,0.0042
2666.00,0.0042
2665.00,0.0042
2664.00,0.0043
2663.00,0.0043
2662.00,0.0044
2661.00,0.0044
2660.00,0.0044
2659.00,0.0044
2658.00,0.0044
2657.00,0.0044
2656.00,0.0044
2655.00,0.0043
2654.00,0.0043
2653.00,0.0042
2652.00,0.0042
2651.00,0.0041
2650.00,0.0040
2649.00,0.0040
2648.00,0.0039
2647.00,0.0039
2646.00,0.0039
2645.00,0.0039
2644.00,0.0038
2643.00,0.0037
2642.00,0.0037
2641.00,0.0036
2640.00,0.0035
2639.00,0.0035
2638.00,0.0035
2637.00,0.0035
2636.00,0.0034
2635.00,0.0034
2634.00,0.0034
2633.00,0.0034
2632.00,0.0034
2631.00,0.0035
2630.00,0.0035
2629.00,0.0035
2628.00,0.0035
2627.00,0.0035
2626.00,0.0035
2625.00,0.0035
2624.00,0.0036
2623.00,0.0036
2622.00,0.0037
2621.00,0.0037
2620.00,0.0037
2619.00,0.0037
2618.00,0.0038
2617.00,0.0038
2616.00,0.0037
2615.00,0.0037
2614.00,0.0037
2613.00,0.0036
2612.00,0.0036
2611.00,0.0036
2610.00,0.0035
2609.00,0.0034
2608.00,0.0033
2607.00,0.0032
2606.00,0.0031
2605.00,0.0030
2604.00,0.0030
2603.00,0.0029
2602.00,0.0029
2601.00,0.0029
2600.00,0.0029
2599.00,0.0029
2598.00,0.0029
2597.00,0.0029
2596.00,0.0029
2595.00,0.0029
2594.00,0.0030
2593.00,0.0031
2592.00,0.0031
2591.00,0.0031
2590.00,0.0031
2589.00,0.0032
2588.00,0.0033
2587.00,0.0034
2586.00,0.0035
2585.00,0.0036
2584.00,0.0037
2583.00,0.0038
2582.00,0.0038
2581.00,0.0037
2580.00,0.0036
2579.00,0.0035
2578.00,0.0034
2577.00,0.0033
2576.00,0.0031
2575.00,0.0030
2574.00,0.0029
2573.00,0.0029
2572.00,0.0029
2571.00,0.0028
2570.00,0.0028
2569.00,0.0027
2568.00,0.0025
2567.00,0.0024
2566.00,0.0023
2565.00,0.0023
2564.00,0.0022
2563.00,0.0022
2562.00,0.0022
2561.00,0.0022
2560.00,0.0022
2559.00,0.0022
2558.00,0.0022
2557.00,0.0021
2556.00,0.0020
2555.00,0.0020
2554.00,0.0019
2553.00,0.0019
2552.00,0.0018
2551.00,0.0018
2550.00,0.0018
2549.00,0.0018
2548.00,0.0018
2547.00,0.0017
2546.00,0.0016
2545.00,0.0016
2544.00,0.0015
2543.00,0.0015
2542.00,0.0015
2541.00,0.0016
2540.00,0.0015
2539.00,0.0015
2538.00,0.0015
2537.00,0.0014
2536.00,0.0014
2535.00,0.0014
2534.00,0.0013
2533.00,0.0013
2532.00,0.0013
2531.00,0.0013
2530.00,0.0012
2529.00,0.0012
2528.00,0.0012
2527.00,0.0012
2526.00,0.0012
2525.00,0.0011
2524.00,0.0011
2523.00,0.0011
2522.00,0.0010
2521.00,0.0010
2520.00,0.0010
2519.00,0.0010
2518.00,0.0010
2517.00,0.0010
2516.00,0.0010
2515.00,0.0010
2514.00,0.0009
2513.00,0.0009
2512.00,0.0008
2511.00,0.0007
2510.00,0.0007
2509.00,0.0007
2508.00,0.0007
2507.00,0.0008
2506.00,0.0007
2505.00,0.0007
2504.00,0.0006
2503.00,0.0006
2502.00,0.0006
2501.00,0.0007
2500.00,0.0008
2499.00,0.0008
2498.00,0.0008
2497.00,0.0008
2496.00,0.0008
2495.00,0.0008
2494.00,0.0009
2493.00,0.0009
2492.00,0.0009
2491.00,0.0010
2490.00,0.0010
2489.00,0.0009
2488.00,0.0009
2487.00,0.0009
2486.00,0.0009
2485.00,0.0009
2484.00,0.0009
2483.00,0.0008
2482.00,0.0008
2481.00,0.0008
2480.00,0.0008
2479.00,0.0007
2478.00,0.0007
2477.00,0.0007
2476.00,0.0008
2475.00,0.0008
2474.00,0.0008
2473.00,0.0007
2472.00,0.0007
2471.00,0.0007
2470.00,0.0006
2469.00,0.0006
2468.00,0.0006
2467.00,0.0007
2466.00,0.0007
2465.00,0.0007
2464.00,0.0007
2463.00,0.0007
2462.00,0.0008
2461.00,0.0008
2460.00,0.0008
2459.00,0.0008
2458.00,0.0009
2457.00,0.0009
2456.00,0.0009
2455.00,0.0008
2454.00,0.0008
2453.00,0.0008
2452.00,0.0009
2451.00,0.0009
2450.00,0.0009
2449.00,0.0009
2448.00,0.0009
2447.00,0.0009
2446.00,0.0009
2445.00,0.0008
2444.00,0.0008
2443.00,0.0007
2442.00,0.0007
2441.00,0.0008
2440.00,0.0009
2439.00,0.0010
2438.00,0.0010
2437.00,0.0010
2436.00,0.0010
2435.00,0.0010
2434.00,0.0010
2433.00,0.0010
2432.00,0.0010
2431.00,0.0010
2430.00,0.0010
2429.00,0.0009
2428.00,0.0009
2427.00,0.0009
2426.00,0.0009
2425.00,0.0008
2424.00,0.0008
2423.00,0.0008
2422.00,0.0008
2421.00,0.0009
2420.00,0.0009
2419.00,0.0008
2418.00,0.0008
2417.00,0.0007
2416.00,0.0007
2415.00,0.0007
2414.00,0.0007
2413.00,0.0007
2412.00,0.0007
2411.00,0.0007
2410.00,0.0007
2409.00,0.0007
2408.00,0.0007
2407.00,0.0006
2406.00,0.0005
2405.00,0.0005
2404.00,0.0006
2403.00,0.0006
2402.00,0.0006
2401.00,0.0007
2400.00,0.0007
2399.00,0.0007
2398.00,0.0007
2397.00,0.0006
2396.00,0.0006
2395.00,0.0006
2394.00,0.0006
2393.00,0.0006
2392.00,0.0006
2391.00,0.0007
2390.00,0.0007
2389.00,0.0007
2388.00,0.0006
2387.00,0.0006
2386.00,0.0006
2385.00,0.0005
2384.00,0.0005
2383.00,0.0004
2382.00,0.0004
2381.00,0.0003
2380.00,0.0003
2379.00,0.0002
2378.00,0.0002
2377.00,0.0002
2376.00,0.0003
2375.00,0.0003
2374.00,0.0004
2373.00,0.0004
2372.00,0.0003
2371.00,0.0002
2370.00,0.0002
2369.00,0.0001
2368.00,0.0001
2367.00,0.0001
2366.00,0.0001
2365.00,0.0002
2364.00,0.0003
2363.00,0.0004
2362.00,0.0004
2361.00,0.0004
2360.00,0.0004
2359.00,0.0003
2358.00,0.0004
2357.00,0.0005
2356.00,0.0006
2355.00,0.0006
2354.00,0.0006
2353.00,0.0006
2352.00,0.0005
2351.00,0.0005
2350.00,0.0005
2349.00,0.0005
2348.00,0.0005
2347.00,0.0006
2346.00,0.0006
2345.00,0.0006
2344.00,0.0006
2343.00,0.0006
2342.00,0.0006
2341.00,0.0006
2340.00,0.0006
2339.00,0.0007
2338.00,0.0008
2337.00,0.0009
2336.00,0.0009
2335.00,0.0009
2334.00,0.0009
2333.00,0.0008
2332.00,0.0008
2331.00,0.0007
2330.00,0.0007
2329.00,0.0007
2328.00,0.0009
2327.00,0.0012
2326.00,0.0017
2325.00,0.0020
2324.00,0.0022
2323.00,0.0022
2322.00,0.0020
2321.00,0.0018
2320.00,0.0016
2319.00,0.0014
2318.00,0.0012
2317.00,0.0012
2316.00,0.0011
2315.00,0.0011
2314.00,0.0011
2313.00,0.0011
2312.00,0.0010
2311.00,0.0010
2310.00,0.0010
2309.00,0.0010
2308.00,0.0010
2307.00,0.0009
2306.00,0.0010
2305.00,0.0010
2304.00,0.0011
2303.00,0.0011
2302.00,0.0011
2301.00,0.0012
2300.00,0.0012
2299.00,0.0012
2298.00,0.0011
2297.00,0.0011
2296.00,0.0011
2295.00,0.0011
2294.00,0.0011
2293.00,0.0012
2292.00,0.0013
2291.00,0.0014
2290.00,0.0015
2289.00,0.0015
2288.00,0.0016
2287.00,0.0016
2286.00,0.0017
2285.00,0.0016
2284.00,0.0016
2283.00,0.0015
2282.00,0.0014
2281.00,0.0013
2280.00,0.0012
2279.00,0.0011
2278.00,0.0010
2277.00,0.0010
2276.00,0.0010
2275.00,0.0010
2274.00,0.0011
2273.00,0.0011
2272.00,0.0011
2271.00,0.0012
2270.00,0.0011
2269.00,0.0011
2268.00,0.0010
2267.00,0.0010
2266.00,0.0010
2265.00,0.0010
2264.00,0.0011
2263.00,0.0012
2262.00,0.0013
2261.00,0.0013
2260.00,0.0013
2259.00,0.0012
2258.00,0.0012
2257.00,0.0011
2256.00,0.0010
2255.00,0.0009
2254.00,0.0008
2253.00,0.0008
2252.00,0.0007
2251.00,0.0007
2250.00,0.0006
2249.00,0.0005
2248.00,0.0006
2247.00,0.0007
2246.00,0.0007
2245.00,0.0008
2244.00,0.0008
2243.00,0.0008
2242.00,0.0008
2241.00,0.0009
2240.00,0.0009
2239.00,0.0009
2238.00,0.0009
2237.00,0.0007
2236.00,0.0005
2235.00,0.0003
2234.00,0.0002
2233.00,0.0002
2232.00,0.0003
2231.00,0.0005
2230.00,0.0007
2229.00,0.0008
2228.00,0.0008
2227.00,0.0007
2226.00,0.0005
2225.00,0.0005
2224.00,0.0005
2223.00,0.0005
2222.00,0.0006
2221.00,0.0007
2220.00,0.0007
2219.00,0.0007
2218.00,0.0007
2217.00,0.0007
2216.00,0.0006
2215.00,0.0005
2214.00,0.0003
2213.00,0.0003
2212.00,0.0003
2211.00,0.0003
2210.00,0.0002
2209.00,0.0002
2208.00,0.0003
2207.00,0.0004
2206.00,0.0005
2205.00,0.0006
2204.00,0.0008
2203.00,0.0010
2202.00,0.0011
2201.00,0.0011
2200.00,0.0010
2199.00,0.0009
2198.00,0.0008
2197.00,0.0007
2196.00,0.0008
2195.00,0.0008
2194.00,0.0010
2193.00,0.0010
2192.00,0.0010
2191.00,0.0009
2190.00,0.0009
2189.00,0.0009
2188.00,0.0010
2187.00,0.0010
2186.00,0.0010
2185.00,0.0010
2184.00,0.0007
2183.00,0.0004
2182.00,0.0002
2181.00,0.0002
2180.00,0.0002
2179.00,0.0003
2178.00,0.0003
2177.00,0.0003
2176.00,0.0003
2175.00,0.0002
2174.00,0.0001
2173.00,-0.0000
2172.00,-0.0001
2171.00,0.0001
2170.00,0.0006
2169.00,0.0013
2168.00,0.0017
2167.00,0.0018
2166.00,0.0016
2165.00,0.0015
2164.00,0.0016
2163.00,0.0017
2162.00,0.0015
2161.00,0.0009
2160.00,-0.0002
2159.00,-0.0015
2158.00,-0.0024
2157.00,-0.0026
2156.00,-0.0023
2155.00,-0.0021
2154.00,-0.0019
2153.00,-0.0016
2152.00,-0.0014
2151.00,-0.0011
2150.00,-0.0011
2149.00,-0.0012
2148.00,-0.0013
2147.00,-0.0014
2146.00,-0.0015
2145.00,-0.0015
2144.00,-0.0016
2143.00,-0.0017
2142.00,-0.0017
2141.00,-0.0016
2140.00,-0.0015
2139.00,-0.0014
2138.00,-0.0013
2137.00,-0.0014
2136.00,-0.0015
2135.00,-0.0016
2134.00,-0.0018
2133.00,-0.0017
2132.00,-0.0015
2131.00,-0.0013
2130.00,-0.0011
2129.00,-0.0010
2128.00,-0.0010
2127.00,-0.0009
2126.00,-0.0008
2125.00,-0.0007
2124.00,-0.0006
2123.00,-0.0005
2122.00,-0.0006
2121.00,-0.0006
2120.00,-0.0006
2119.00,-0.0005
2118.00,-0.0004
2117.00,-0.0003
2116.00,-0.0002
2115.00,-0.0000
2114.00,0.0001
2113.00,0.0001
2112.00,0.0001
2111.00,-0.0000
2110.00,-0.0001
2109.00,-0.0001
2108.00,-0.0002
2107.00,-0.0002
2106.00,-0.0001
2105.00,0.0000
2104.00,0.0002
2103.00,0.0002
2102.00,0.0001
2101.00,-0.0001
2100.00,-0.0002
2099.00,-0.0003
2098.00,-0.0003
2097.00,-0.0003
2096.00,-0.0004
2095.00,-0.0005
2094.00,-0.0007
2093.00,-0.0008
2092.00,-0.0007
2091.00,-0.0005
2090.00,-0.0003
2089.00,-0.0001
2088.00,0.0000
2087.00,0.0001
2086.00,0.0001
2085.00,0.0002
2084.00,0.0002
2083.00,0.0002
2082.00,0.0003
2081.00,0.0003
2080.00,0.0003
2079.00,0.0002
2078.00,0.0001
2077.00,0.0000
2076.00,0.0000
2075.00,0.0001
2074.00,0.0002
2073.00,0.0003
2072.00,0.0004
2071.00,0.0004
2070.00,0.0003
2069.00,0.0003
2068.00,0.0003
2067.00,0.0002
2066.00,0.0001
2065.00,0.0000
2064.00,-0.0001
2063.00,-0.0002
2062.00,-0.0002
2061.00,-0.0002
2060.00,-0.0001
2059.00,0.0001
2058.00,0.0003
2057.00,0.0003
2056.00,0.0003
2055.00,0.0000
2054.00,-0.0000
2053.00,0.0003
2052.00,0.0009
2051.00,0.0014
2050.00,0.0015
2049.00,0.0011
2048.00,0.0004
2047.00,-0.0001
2046.00,-0.0005
2045.00,-0.0005
2044.00,-0.0004
2043.00,-0.0002
2042.00,-0.0000
2041.00,0.0002
2040.00,0.0004
2039.00,0.0006
2038.00,0.0005
2037.00,0.0004
2036.00,0.0002
2035.00,-0.0001
2034.00,-0.0004
2033.00,-0.0008
2032.00,-0.0009
2031.00,-0.0010
2030.00,-0.0011
2029.00,-0.0011
2028.00,-0.0010
2027.00,-0.0011
2026.00,-0.0012
2025.00,-0.0014
2024.00,-0.0016
2023.00,-0.0019
2022.00,-0.0020
2021.00,-0.0020
2020.00,-0.0019
2019.00,-0.0017
2018.00,-0.0015
2017.00,-0.0013
2016.00,-0.0011
2015.00,-0.0010
2014.00,-0.0009
2013.00,-0.0009
2012.00,-0.0009
2011.00,-0.0008
2010.00,-0.0007
2009.00,-0.0007
2008.00,-0.0009
2007.00,-0.0012
2006.00,-0.0014
2005.00,-0.0016
2004.00,-0.0017
2003.00,-0.0018
2002.00,-0.0018
2001.00,-0.0016
2000.00,-0.0013
1999.00,-0.0011
1998.00,-0.0009
1997.00,-0.0009
1996.00,-0.0010
1995.00,-0.0010
1994.00,-0.0009
1993.00,-0.0007
1992.00,-0.0005
1991.00,-0.0004
1990.00,-0.0003
1989.00,-0.0003
1988.00,-0.0002
1987.00,-0.0001
1986.00,-0.0001
1985.00,-0.0002
1984.00,-0.0001
1983.00,0.0001
1982.00,0.0006
1981.00,0.0009
1980.00,0.0010
1979.00,0.0007
1978.00,0.0001
1977.00,-0.0006
1976.00,-0.0013
1975.00,-0.0018
1974.00,-0.0020
1973.00,-0.0017
1972.00,-0.0012
1971.00,-0.0007
1970.00,-0.0005
1969.00,-0.0004
1968.00,-0.0005
1967.00,-0.0007
1966.00,-0.0010
1965.00,-0.0012
1964.00,-0.0014
1963.00,-0.0015
1962.00,-0.0015
1961.00,-0.0016
1960.00,-0.0016
1959.00,-0.0017
1958.00,-0.0017
1957.00,-0.0017
1956.00,-0.0017
1955.00,-0.0019
1954.00,-0.0019
1953.00,-0.0019
1952.00,-0.0017
1951.00,-0.0016
1950.00,-0.0016
1949.00,-0.0017
1948.00,-0.0017
1947.00,-0.0017
1946.00,-0.0017
1945.00,-0.0016
1944.00,-0.0014
1943.00,-0.0014
1942.00,-0.0013
1941.00,-0.0013
1940.00,-0.0013
1939.00,-0.0014
1938.00,-0.0015
1937.00,-0.0014
1936.00,-0.0013
1935.00,-0.0010
1934.00,-0.0008
1933.00,-0.0007
1932.00,-0.0007
1931.00,-0.0008
1930.00,-0.0008
1929.00,-0.0009
1928.00,-0.0009
1927.00,-0.0008
1926.00,-0.0008
1925.00,-0.0007
1924.00,-0.0006
1923.00,-0.0005
1922.00,-0.0004
1921.00,-0.0004
1920.00,-0.0004
1919.00,-0.0004
1918.00,-0.0004
1917.00,-0.0004
1916.00,-0.0003
1915.00,-0.0004
1914.00,-0.0004
1913.00,-0.0005
1912.00,-0.0004
1911.00,-0.0003
1910.00,-0.0003
1909.00,-0.0003
1908.00,-0.0004
1907.00,-0.0005
1906.00,-0.0006
1905.00,-0.0005
1904.00,-0.0004
1903.00,-0.0004
1902.00,-0.0003
1901.00,-0.0003
1900.00,-0.0003
1899.00,-0.0002
1898.00,-0.0002
1897.00,-0.0002
1896.00,-0.0001
1895.00,-0.0001
1894.00,-0.0001
1893.00,-0.0001
1892.00,-0.0001
1891.00,-0.0001
1890.00,-0.0002
1889.00,-0.0002
1888.00,-0.0001
1887.00,-0.0000
1886.00,0.0000
1885.00,0.0000
1884.00,-0.0000
1883.00,-0.0001
1882.00,-0.0002
1881.00,-0.0003
1880.00,-0.0003
1879.00,-0.0003
1878.00,-0.0003
1877.00,-0.0002
1876.00,-0.0000
1875.00,0.0000
1874.00,0.0001
1873.00,0.0000
1872.00,-0.0000
1871.00,-0.0001
1870.00,-0.0001
1869.00,-0.0002
1868.00,-0.0002
1867.00,-0.0001
1866.00,0.0000
1865.00,0.0002
1864.00,0.0002
1863.00,0.0001
1862.00,-0.0001
1861.00,-0.0001
1860.00,-0.0001
1859.00,-0.0000
1858.00,0.0000
1857.00,0.0000
1856.00,0.0000
1855.00,-0.0000
1854.00,-0.0000
1853.00,-0.0000
1852.00,0.0000
1851.00,0.0000
1850.00,0.0000
1849.00,0.0000
1848.00,0.0000
1847.00,0.0001
1846.00,0.0001
1845.00,0.0001
1844.00,0.0002
1843.00,0.0002
1842.00,0.0002
1841.00,0.0002
1840.00,0.0002
1839.00,0.0002
1838.00,0.0001
1837.00,0.0001
1836.00,0.0001
1835.00,0.0002
1834.00,0.0002
1833.00,0.0002
1832.00,0.0002
1831.00,0.0002
1830.00,0.0002
1829.00,0.0002
1828.00,0.0003
1827.00,0.0003
1826.00,0.0002
1825.00,0.0002
1824.00,0.0002
1823.00,0.0002
1822.00,0.0002
1821.00,0.0001
1820.00,0.0001
1819.00,0.0001
1818.00,0.0000
1817.00,0.0000
1816.00,0.0000
1815.00,0.0001
1814.00,0.0001
1813.00,0.0002
1812.00,0.0002
1811.00,0.0003
1810.00,0.0003
1809.00,0.0004
1808.00,0.0004
1807.00,0.0004
1806.00,0.0004
1805.00,0.0003
1804.00,0.0003
1803.00,0.0002
1802.00,0.0003
1801.00,0.0003
1800.00,0.0004
1799.00,0.0004
1798.00,0.0004
1797.00,0.0004
1796.00,0.0004
1795.00,0.0004
1794.00,0.0005
1793.00,0.0005
1792.00,0.0005
1791.00,0.0006
1790.00,0.0006
1789.00,0.0007
1788.00,0.0006
1787.00,0.0006
1786.00,0.0006
1785.00,0.0006
1784.00,0.0006
1783.00,0.0007
1782.00,0.0007
1781.00,0.0007
1780.00,0.0007
1779.00,0.0007
1778.00,0.0007
1777.00,0.0007
1776.00,0.0008
1775.00,0.0008
1774.00,0.0007
1773.00,0.0007
1772.00,0.0007
1771.00,0.0008
1770.00,0.0008
1769.00,0.0009
1768.00,0.0009
1767.00,0.0009
1766.00,0.0008
1765.00,0.0008
1764.00,0.0008
1763.00,0.0008
1762.00,0.0009
1761.00,0.0009
1760.00,0.0010
1759.00,0.0010
1758.00,0.0010
1757.00,0.0010
1756.00,0.0010
1755.00,0.0010
1754.00,0.0011
1753.00,0.0011
1752.00,0.0011
1751.00,0.0010
1750.00,0.0010
1749.00,0.0010
1748.00,0.0010
1747.00,0.0011
1746.00,0.0011
1745.00,0.0011
1744.00,0.0011
1743.00,0.0010
1742.00,0.0010
1741.00,0.0009
1740.00,0.0009
1739.00,0.0008
1738.00,0.0007
1737.00,0.0007
1736.00,0.0005
1735.00,0.0004
1734.00,0.0003
1733.00,0.0003
1732.00,0.0003
1731.00,0.0004
1730.00,0.0004
1729.00,0.0004
1728.00,0.0004
1727.00,0.0005
1726.00,0.0006
1725.00,0.0007
1724.00,0.0008
1723.00,0.0009
1722.00,0.0010
1721.00,0.0010
1720.00,0.0011
1719.00,0.0011
1718.00,0.0013
1717.00,0.0015
1716.00,0.0016
1715.00,0.0018
1714.00,0.0019
1713.00,0.0020
1712.00,0.0021
1711.00,0.0021
1710.00,0.0022
1709.00,0.0022
1708.00,0.0022
1707.00,0.0022
1706.00,0.0022
1705.00,0.0022
1704.00,0.0022
1703.00,0.0023
1702.00,0.0023
1701.00,0.0024
1700.00,0.0025
1699.00,0.0026
1698.00,0.0026
1697.00,0.0027
1696.00,0.0027
1695.00,0.0028
1694.00,0.0028
1693.00,0.0029
1692.00,0.0030
1691.00,0.0030
1690.00,0.0030
1689.00,0.0031
1688.00,0.0031
1687.00,0.0032
1686.00,0.0032
1685.00,0.0033
1684.00,0.0035
1683.00,0.0036
1682.00,0.0037
1681.00,0.0038
1680.00,0.0039
1679.00,0.0040
1678.00,0.0041
1677.00,0.0042
1676.00,0.0042
1675.00,0.0043
1674.00,0.0043
1673.00,0.0043
1672.00,0.0044
1671.00,0.0044
1670.00,0.0045
1669.00,0.0045
1668.00,0.0046
1667.00,0.0046
1666.00,0.0047
1665.00,0.0047
1664.00,0.0048
1663.00,0.0049
1662.00,0.0050
1661.00,0.0051
1660.00,0.0051
1659.00,0.0052
1658.00,0.0053
1657.00,0.0053
1656.00,0.0054
1655.00,0.0055
1654.00,0.0055
1653.00,0.0057
1652.00,0.0060
1651.00,0.0062
1650.00,0.0064
1649.00,0.0067
1648.00,0.0069
1647.00,0.0072
1646.00,0.0073
1645.00,0.0073
1644.00,0.0072
1643.00,0.0071
1642.00,0.0070
1641.00,0.0069
1640.00,0.0069
1639.00,0.0069
1638.00,0.0069
1637.00,0.0068
1636.00,0.0068
1635.00,0.0068
1634.00,0.0068
1633.00,0.0068
1632.00,0.0069
1631.00,0.0069
1630.00,0.0068
1629.00,0.0068
1628.00,0.0067
1627.00,0.0066
1626.00,0.0066
1625.00,0.0065
1624.00,0.0064
1623.00,0.0064
1622.00,0.0063
1621.00,0.0063
1620.00,0.0063
1619.00,0.0063
1618.00,0.0062
1617.00,0.0062
1616.00,0.0061
1615.00,0.0061
1614.00,0.0061
1613.00,0.0061
1612.00,0.0062
1611.00,0.0062
1610.00,0.0062
1609.00,0.0062
1608.00,0.0062
1607.00,0.0061
1606.00,0.0061
1605.00,0.0060
1604.00,0.0061
1603.00,0.0061
1602.00,0.0060
1601.00,0.0060
1600.00,0.0059
1599.00,0.0059
1598.00,0.0059
1597.00,0.0059
1596.00,0.0059
1595.00,0.0059
1594.00,0.0059
1593.00,0.0059
1592.00,0.0059
1591.00,0.0058
1590.00,0.0058
1589.00,0.0058
1588.00,0.0058
1587.00,0.0059
1586.00,0.0060
1585.00,0.0061
1584.00,0.0062
1583.00,0.0063
1582.00,0.0064
1581.00,0.0065
1580.00,0.0066
1579.00,0.0068
1578.00,0.0068
1577.00,0.0068
1576.00,0.0068
1575.00,0.0067
1574.00,0.0066
1573.00,0.0066
1572.00,0.0066
1571.00,0.0065
1570.00,0.0064
1569.00,0.0063
1568.00,0.0062
1567.00,0.0062
1566.00,0.0062
1565.00,0.0062
1564.00,0.0062
1563.00,0.0062
1562.00,0.0062
1561.00,0.0062
1560.00,0.0062
1559.00,0.0063
1558.00,0.0064
1557.00,0.0065
1556.00,0.0067
1555.00,0.0067
1554.00,0.0068
1553.00,0.0069
1552.00,0.0069
1551.00,0.0070
1550.00,0.0070
1549.00,0.0071
1548.00,0.0072
1547.00,0.0072
1546.00,0.0074
1545.00,0.0076
1544.00,0.0078
1543.00,0.0080
1542.00,0.0080
1541.00,0.0080
1540.00,0.0079
1539.00,0.0077
1538.00,0.0075
1537.00,0.0074
1536.00,0.0073
1535.00,0.0072
1534.00,0.0069
1533.00,0.0067
1532.00,0.0065
1531.00,0.0063
1530.00,0.0062
1529.00,0.0061
1528.00,0.0060
1527.00,0.0059
1526.00,0.0058
1525.00,0.0058
1524.00,0.0059
1523.00,0.0058
1522.00,0.0058
1521.00,0.0057
1520.00,0.0057
1519.00,0.0056
1518.00,0.0056
1517.00,0.0056
1516.00,0.0056
1515.00,0.0056
1514.00,0.0056
1513.00,0.0056
1512.00,0.0057
1511.00,0.0058
1510.00,0.0058
1509.00,0.0059
1508.00,0.0060
1507.00,0.0060
1506.00,0.0061
1505.00,0.0063
1504.00,0.0064
1503.00,0.0065
1502.00,0.0067
1501.00,0.0069
1500.00,0.0072
1499.00,0.0074
1498.00,0.0077
1497.00,0.0081
1496.00,0.0086
1495.00,0.0090
1494.00,0.0092
1493.00,0.0095
1492.00,0.0099
1491.00,0.0102
1490.00,0.0106
1489.00,0.0111
1488.00,0.0117
1487.00,0.0120
1486.00,0.0124
1485.00,0.0130
1484.00,0.0136
1483.00,0.0143
1482.00,0.0152
1481.00,0.0163
1480.00,0.0175
1479.00,0.0187
1478.00,0.0202
1477.00,0.0220
1476.00,0.0243
1475.00,0.0268
1474.00,0.0302
1473.00,0.0355
1472.00,0.0420
1471.00,0.0485
1470.00,0.0547
1469.00,0.0612
1468.00,0.0683
1467.00,0.0760
1466.00,0.0849
1465.00,0.0947
1464.00,0.1034
1463.00,0.1098
1462.00,0.1142
1461.00,0.1174
1460.00,0.1197
1459.00,0.1214
1458.00,0.1227
1457.00,0.1238
1456.00,0.1242
1455.00,0.1238
1454.00,0.1231
1453.00,0.1218
1452.00,0.1195
1451.00,0.1158
1450.00,0.1105
1449.00,0.1029
1448.00,0.0931
1447.00,0.0828
1446.00,0.0735
1445.00,0.0657
1444.00,0.0590
1443.00,0.0536
1442.00,0.0496
1441.00,0.0470
1440.00,0.0455
1439.00,0.0450
1438.00,0.0453
1437.00,0.0456
1436.00,0.0447
1435.00,0.0421
1434.00,0.0381
1433.00,0.0332
1432.00,0.0282
1431.00,0.0239
1430.00,0.0206
1429.00,0.0182
1428.00,0.0166
1427.00,0.0158
1426.00,0.0152
1425.00,0.0147
1424.00,0.0142
1423.00,0.0140
1422.00,0.0139
1421.00,0.0137
1420.00,0.0134
1419.00,0.0131
1418.00,0.0129
1417.00,0.0126
1416.00,0.0124
1415.00,0.0122
1414.00,0.0121
1413.00,0.0120
1412.00,0.0117
1411.00,0.0116
1410.00,0.0116
1409.00,0.0115
1408.00,0.0115
1407.00,0.0115
1406.00,0.0116
1405.00,0.0116
1404.00,0.0115
1403.00,0.0116
1402.00,0.0118
1401.00,0.0119
1400.00,0.0121
1399.00,0.0124
1398.00,0.0127
1397.00,0.0129
1396.00,0.0131
1395.00,0.0134
1394.00,0.0140
1393.00,0.0144
1392.00,0.0150
1391.00,0.0158
1390.00,0.0170
1389.00,0.0188
1388.00,0.0214
1387.00,0.0253
1386.00,0.0303
1385.00,0.0367
1384.00,0.0449
1383.00,0.0561
1382.00,0.0709
1381.00,0.0899
1380.00,0.1140
1379.00,0.1424
1378.00,0.1715
1377.00,0.1951
1376.00,0.2062
1375.00,0.1999
1374.00,0.1774
1373.00,0.1476
1372.00,0.1192
1371.00,0.0952
1370.00,0.0758
1369.00,0.0611
1368.00,0.0509
1367.00,0.0447
1366.00,0.0413
1365.00,0.0400
1364.00,0.0403
1363.00,0.0420
1362.00,0.0445
1361.00,0.0471
1360.00,0.0491
1359.00,0.0496
1358.00,0.0484
1357.00,0.0454
1356.00,0.0412
1355.00,0.0364
1354.00,0.0318
1353.00,0.0278
1352.00,0.0246
1351.00,0.0221
1350.00,0.0201
1349.00,0.0185
1348.00,0.0172
1347.00,0.0162
1346.00,0.0154
1345.00,0.0148
1344.00,0.0142
1343.00,0.0138
1342.00,0.0135
1341.00,0.0132
1340.00,0.0129
1339.00,0.0127
1338.00,0.0125
1337.00,0.0125
1336.00,0.0125
1335.00,0.0127
1334.00,0.0131
1333.00,0.0135
1332.00,0.0140
1331.00,0.0144
1330.00,0.0145
1329.00,0.0144
1328.00,0.0140
1327.00,0.0134
1326.00,0.0127
1325.00,0.0120
1324.00,0.0113
1323.00,0.0107
1322.00,0.0103
1321.00,0.0099
1320.00,0.0096
1319.00,0.0094
1318.00,0.0091
1317.00,0.0089
1316.00,0.0087
1315.00,0.0086
1314.00,0.0086
1313.00,0.0086
1312.00,0.0087
1311.00,0.0088
1310.00,0.0092
1309.00,0.0098
1308.00,0.0107
1307.00,0.0117
1306.00,0.0127
1305.00,0.0134
1304.00,0.0136
1303.00,0.0134
1302.00,0.0130
1301.00,0.0126
1300.00,0.0124
1299.00,0.0124
1298.00,0.0124
1297.00,0.0124
1296.00,0.0123
1295.00,0.0121
1294.00,0.0116
1293.00,0.0110
1292.00,0.0104
1291.00,0.0097
1290.00,0.0091
1289.00,0.0086
1288.00,0.0082
1287.00,0.0079
1286.00,0.0077
1285.00,0.0075
1284.00,0.0073
1283.00,0.0072
1282.00,0.0070
1281.00,0.0069
1280.00,0.0068
1279.00,0.0067
1278.00,0.0066
1277.00,0.0064
1276.00,0.0064
1275.00,0.0064
1274.00,0.0064
1273.00,0.0064
1272.00,0.0064
1271.00,0.0063
1270.00,0.0064
1269.00,0.0065
1268.00,0.0067
1267.00,0.0069
1266.00,0.0071
1265.00,0.0074
1264.00,0.0077
1263.00,0.0080
1262.00,0.0085
1261.00,0.0090
1260.00,0.0096
1259.00,0.0103
1258.00,0.0110
1257.00,0.0116
1256.00,0.0119
1255.00,0.0118
1254.00,0.0114
1253.00,0.0107
1252.00,0.0100
1251.00,0.0094
1250.00,0.0089
1249.00,0.0087
1248.00,0.0085
1247.00,0.0084
1246.00,0.0083
1245.00,0.0083
1244.00,0.0082
1243.00,0.0082
1242.00,0.0082
1241.00,0.0081
1240.00,0.0080
1239.00,0.0079
1238.00,0.0079
1237.00,0.0078
1236.00,0.0078
1235.00,0.0077
1234.00,0.0077
1233.00,0.0076
1232.00,0.0077
1231.00,0.0077
1230.00,0.0077
1229.00,0.0078
1228.00,0.0078
1227.00,0.0080
1226.00,0.0082
1225.00,0.0085
1224.00,0.0089
1223.00,0.0094
1222.00,0.0097
1221.00,0.0100
1220.00,0.0102
1219.00,0.0103
1218.00,0.0103
1217.00,0.0101
1216.00,0.0099
1215.00,0.0095
1214.00,0.0092
1213.00,0.0088
1212.00,0.0085
1211.00,0.0082
1210.00,0.0079
1209.00,0.0076
1208.00,0.0075
1207.00,0.0074
1206.00,0.0073
1205.00,0.0073
1204.00,0.0073
1203.00,0.0073
1202.00,0.0073
1201.00,0.0073
1200.00,0.0073
1199.00,0.0072
1198.00,0.0072
1197.00,0.0071
1196.00,0.0071
1195.00,0.0070
1194.00,0.0070
1193.00,0.0070
1192.00,0.0070
1191.00,0.0070
1190.00,0.0070
1189.00,0.0071
1188.00,0.0071
1187.00,0.0072
1186.00,0.0074
1185.00,0.0075
1184.00,0.0076
1183.00,0.0077
1182.00,0.0079
1181.00,0.0081
1180.00,0.0083
1179.00,0.0087
1178.00,0.0092
1177.00,0.0100
1176.00,0.0111
1175.00,0.0126
1174.00,0.0145
1173.00,0.0169
1172.00,0.0197
1171.00,0.0229
1170.00,0.0261
1169.00,0.0287
1168.00,0.0303
1167.00,0.0308
1166.00,0.0303
1165.00,0.0289
1164.00,0.0273
1163.00,0.0257
1162.00,0.0243
1161.00,0.0230
1160.00,0.0220
1159.00,0.0212
1158.00,0.0206
1157.00,0.0202
1156.00,0.0199
1155.00,0.0197
1154.00,0.0195
1153.00,0.0192
1152.00,0.0188
1151.00,0.0182
1150.00,0.0175
1149.00,0.0167
1148.00,0.0158
1147.00,0.0149
1146.00,0.0140
1145.00,0.0132
1144.00,0.0124
1143.00,0.0117
1142.00,0.0111
1141.00,0.0105
1140.00,0.0100
1139.00,0.0095
1138.00,0.0091
1137.00,0.0088
1136.00,0.0085
1135.00,0.0083
1134.00,0.0081
1133.00,0.0080
1132.00,0.0079
1131.00,0.0078
1130.00,0.0078
1129.00,0.0079
1128.00,0.0080
1127.00,0.0081
1126.00,0.0082
1125.00,0.0083
1124.00,0.0083
1123.00,0.0084
1122.00,0.0085
1121.00,0.0086
1120.00,0.0088
1119.00,0.0090
1118.00,0.0091
1117.00,0.0093
1116.00,0.0094
1115.00,0.0095
1114.00,0.0097
1113.00,0.0099
1112.00,0.0101
1111.00,0.0104
1110.00,0.0107
1109.00,0.0111
1108.00,0.0116
1107.00,0.0124
1106.00,0.0133
1105.00,0.0141
1104.00,0.0148
1103.00,0.0152
1102.00,0.0152
1101.00,0.0149
1100.00,0.0144
1099.00,0.0137
1098.00,0.0129
1097.00,0.0123
1096.00,0.0117
1095.00,0.0112
1094.00,0.0108
1093.00,0.0105
1092.00,0.0103
1091.00,0.0101
1090.00,0.0098
1089.00,0.0096
1088.00,0.0095
1087.00,0.0093
1086.00,0.0092
1085.00,0.0090
1084.00,0.0089
1083.00,0.0087
1082.00,0.0086
1081.00,0.0086
1080.00,0.0085
1079.00,0.0083
1078.00,0.0081
1077.00,0.0078
1076.00,0.0076
1075.00,0.0075
1074.00,0.0076
1073.00,0.0076
1072.00,0.0077
1071.00,0.0076
1070.00,0.0076
1069.00,0.0076
1068.00,0.0076
1067.00,0.0077
1066.00,0.0078
1065.00,0.0079
1064.00,0.0081
1063.00,0.0082
1062.00,0.0083
1061.00,0.0084
1060.00,0.0085
1059.00,0.0086
1058.00,0.0086
1057.00,0.0086
1056.00,0.0085
1055.00,0.0085
1054.00,0.0085
1053.00,0.0085
1052.00,0.0086
1051.00,0.0088
1050.00,0.0090
1049.00,0.0092
1048.00,0.0094
1047.00,0.0097
1046.00,0.0099
1045.00,0.0101
1044.00,0.0101
1043.00,0.0101
1042.00,0.0099
1041.00,0.0097
1040.00,0.0095
1039.00,0.0094
1038.00,0.0094
1037.00,0.0094
1036.00,0.0095
1035.00,0.0095
1034.00,0.0095
1033.00,0.0094
1032.00,0.0093
1031.00,0.0092
1030.00,0.0092
1029.00,0.0093
1028.00,0.0093
1027.00,0.0093
1026.00,0.0093
1025.00,0.0093
1024.00,0.0093
1023.00,0.0093
1022.00,0.0092
1021.00,0.0092
1020.00,0.0092
1019.00,0.0093
1018.00,0.0095
1017.00,0.0097
1016.00,0.0098
1015.00,0.0100
1014.00,0.0102
1013.00,0.0105
1012.00,0.0109
1011.00,0.0112
1010.00,0.0116
1009.00,0.0120
1008.00,0.0125
1007.00,0.0131
1006.00,0.0139
1005.00,0.0151
1004.00,0.0166
1003.00,0.0186
1002.00,0.0212
1001.00,0.0243
1000.00,0.0277
999.00,0.0307
998.00,0.0321
997.00,0.0315
996.00,0.0291
995.00,0.0255
994.00,0.0218
993.00,0.0185
992.00,0.0159
991.00,0.0140
990.00,0.0127
989.00,0.0118
988.00,0.0112
987.00,0.0109
986.00,0.0109
985.00,0.0111
984.00,0.0115
983.00,0.0123
982.00,0.0133
981.00,0.0148
980.00,0.0169
979.00,0.0196
978.00,0.0232
977.00,0.0273
976.00,0.0316
975.00,0.0357
974.00,0.0386
973.00,0.0398
972.00,0.0385
971.00,0.0351
970.00,0.0304
969.00,0.0255
968.00,0.0212
967.00,0.0178
966.00,0.0154
965.00,0.0137
964.00,0.0124
963.00,0.0115
962.00,0.0107
961.00,0.0101
960.00,0.0096
959.00,0.0091
958.00,0.0088
957.00,0.0085
956.00,0.0083
955.00,0.0082
954.00,0.0081
953.00,0.0080
952.00,0.0079
951.00,0.0078
950.00,0.0077
949.00,0.0078
948.00,0.0079
947.00,0.0081
946.00,0.0084
945.00,0.0086
944.00,0.0090
943.00,0.0093
942.00,0.0097
941.00,0.0099
940.00,0.0100
939.00,0.0098
938.00,0.0093
937.00,0.0087
936.00,0.0082
935.00,0.0077
934.00,0.0074
933.00,0.0071
932.00,0.0069
931.00,0.0067
930.00,0.0065
929.00,0.0064
928.00,0.0064
927.00,0.0064
926.00,0.0063
925.00,0.0063
924.00,0.0063
923.00,0.0064
922.00,0.0065
921.00,0.0066
920.00,0.0068
919.00,0.0069
918.00,0.0071
917.00,0.0072
916.00,0.0073
915.00,0.0073
914.00,0.0074
913.00,0.0074
912.00,0.0075
911.00,0.0077
910.00,0.0079
909.00,0.0081
908.00,0.0083
907.00,0.0087
906.00,0.0093
905.00,0.0104
904.00,0.0120
903.00,0.0141
902.00,0.0164
901.00,0.0185
900.00,0.0199
899.00,0.0204
898.00,0.0196
897.00,0.0179
896.00,0.0157
895.00,0.0136
894.00,0.0118
893.00,0.0105
892.00,0.0096
891.00,0.0090
890.00,0.0086
889.00,0.0082
888.00,0.0079
887.00,0.0075
886.00,0.0073
885.00,0.0071
884.00,0.0071
883.00,0.0072
882.00,0.0073
881.00,0.0074
880.00,0.0074
879.00,0.0074
878.00,0.0074
877.00,0.0075
876.00,0.0075
875.00,0.0075
874.00,0.0074
873.00,0.0074
872.00,0.0074
871.00,0.0074
870.00,0.0075
869.00,0.0075
868.00,0.0075
867.00,0.0075
866.00,0.0076
865.00,0.0077
864.00,0.0078
863.00,0.0079
862.00,0.0081
861.00,0.0082
860.00,0.0085
859.00,0.0086
858.00,0.0088
857.00,0.0089
856.00,0.0090
855.00,0.0091
854.00,0.0092
853.00,0.0093
852.00,0.0095
851.00,0.0100
850.00,0.0106
849.00,0.0112
848.00,0.0120
847.00,0.0132
846.00,0.0151
845.00,0.0181
844.00,0.0222
843.00,0.0267
842.00,0.0302
841.00,0.0310
840.00,0.0290
839.00,0.0250
838.00,0.0208
837.00,0.0174
836.00,0.0152
835.00,0.0138
834.00,0.0130
833.00,0.0124
832.00,0.0119
831.00,0.0115
830.00,0.0112
829.00,0.0110
828.00,0.0109
827.00,0.0109
826.00,0.0109
825.00,0.0109
824.00,0.0109
823.00,0.0108
822.00,0.0108
821.00,0.0109
820.00,0.0110
819.00,0.0113
818.00,0.0118
817.00,0.0125
816.00,0.0133
815.00,0.0143
814.00,0.0157
813.00,0.0175
812.00,0.0195
811.00,0.0213
810.00,0.0227
809.00,0.0233
808.00,0.0230
807.00,0.0220
806.00,0.0205
805.00,0.0186
804.00,0.0167
803.00,0.0150
802.00,0.0137
801.00,0.0128
800.00,0.0120
799.00,0.0114
798.00,0.0109
797.00,0.0105
796.00,0.0101
795.00,0.0099
794.00,0.0097
793.00,0.0095
792.00,0.0092
791.00,0.0090
790.00,0.0087
789.00,0.0085
788.00,0.0081
787.00,0.0077
786.00,0.0073
785.00,0.0069
784.00,0.0067
783.00,0.0067
782.00,0.0067
781.00,0.0067
780.00,0.0066
779.00,0.0065
778.00,0.0064
777.00,0.0064
776.00,0.0065
775.00,0.0067
774.00,0.0069
773.00,0.0071
772.00,0.0073
771.00,0.0076
770.00,0.0078
769.00,0.0080
768.00,0.0080
767.00,0.0081
766.00,0.0081
765.00,0.0081
764.00,0.0080
763.00,0.0078
762.00,0.0075
761.00,0.0071
760.00,0.0068
759.00,0.0064
758.00,0.0061
757.00,0.0059
756.00,0.0057
755.00,0.0056
754.00,0.0055
753.00,0.0054
752.00,0.0053
751.00,0.0053
750.00,0.0054
749.00,0.0056
748.00,0.0057
747.00,0.0058
746.00,0.0059
745.00,0.0059
744.00,0.0058
743.00,0.0058
742.00,0.0058
741.00,0.0059
740.00,0.0062
739.00,0.0065
738.00,0.0067
737.00,0.0068
736.00,0.0069
735.00,0.0069
734.00,0.0070
733.00,0.0071
732.00,0.0072
731.00,0.0074
730.00,0.0075
729.00,0.0076
728.00,0.0075
727.00,0.0075
726.00,0.0075
725.00,0.0075
724.00,0.0075
723.00,0.0074
722.00,0.0073
721.00,0.0071
720.00,0.0069
719.00,0.0067
718.00,0.0067
717.00,0.0068
716.00,0.0067
715.00,0.0064
714.00,0.0062
713.00,0.0060
712.00,0.0060
711.00,0.0061
710.00,0.0062
709.00,0.0064
708.00,0.0064
707.00,0.0064
706.00,0.0064
705.00,0.0064
704.00,0.0064
703.00,0.0062
702.00,0.0061
701.00,0.0061
700.00,0.0062
699.00,0.0063
698.00,0.0063
697.00,0.0061
696.00,0.0058
695.00,0.0057
694.00,0.0057
693.00,0.0057
692.00,0.0058
691.00,0.0058
690.00,0.0057
689.00,0.0056
688.00,0.0056
687.00,0.0057
686.00,0.0058
685.00,0.0059
684.00,0.0059
683.00,0.0058
682.00,0.0057
681.00,0.0057
680.00,0.0056
679.00,0.0055
678.00,0.0055
677.00,0.0055
676.00,0.0056
675.00,0.0058
674.00,0.0060
673.00,0.0062
672.00,0.0062
671.00,0.0061
670.00,0.0061
669.00,0.0063
668.00,0.0064
667.00,0.0064
666.00,0.0062
665.00,0.0061
664.00,0.0060
663.00,0.0061
662.00,0.0061
661.00,0.0062
660.00,0.0063
659.00,0.0063
658.00,0.0062
657.00,0.0060
656.00,0.0059
655.00,0.0059
654.00,0.0060
653.00,0.0061
652.00,0.0062
651.00,0.0061
650.00,0.0060
649.00,0.0059
648.00,0.0060
647.00,0.0062
646.00,0.0063
645.00,0.0063
644.00,0.0061
643.00,0.0059
642.00,0.0058
641.00,0.0059
640.00,0.0059
639.00,0.0059
638.00,0.0058
637.00,0.0057
636.00,0.0057
635.00,0.0058
634.00,0.0060
633.00,0.0062
632.00,0.0064
631.00,0.0064
630.00,0.0065
629.00,0.0066
628.00,0.0067
627.00,0.0068
626.00,0.0068
625.00,0.0069
624.00,0.0069
623.00,0.0068
622.00,0.0066
621.00,0.0063
620.00,0.0061
619.00,0.0060
618.00,0.0060
617.00,0.0061
616.00,0.0062
615.00,0.0064
614.00,0.0066
613.00,0.0068
612.00,0.0069
611.00,0.0070
610.00,0.0069
609.00,0.0068
608.00,0.0066
607.00,0.0065
606.00,0.0065
605.00,0.0064
604.00,0.0063
603.00,0.0061
602.00,0.0060
601.00,0.0061
600.00,0.0061
599.00,0.0062
598.00,0.0062
597.00,0.0063
596.00,0.0065
595.00,0.0066
594.00,0.0066
593.00,0.0064
592.00,0.0060
591.00,0.0056
590.00,0.0054
589.00,0.0054
588.00,0.0055
587.00,0.0057
586.00,0.0060
585.00,0.0063
584.00,0.0066
583.00,0.0069
582.00,0.0070
581.00,0.0070
580.00,0.0069
579.00,0.0068
578.00,0.0067
577.00,0.0066
576.00,0.0065
575.00,0.0065
574.00,0.0065
573.00,0.0065
572.00,0.0064
571.00,0.0064
570.00,0.0065
569.00,0.0065
568.00,0.0066
567.00,0.0067
566.00,0.0070
565.00,0.0072
564.00,0.0073
563.00,0.0072
562.00,0.0069
561.00,0.0066
560.00,0.0063
559.00,0.0061
558.00,0.0061
557.00,0.0061
556.00,0.0062
555.00,0.0063
554.00,0.0063
553.00,0.0062
552.00,0.0062
551.00,0.0063
550.00,0.0065
549.00,0.0066
548.00,0.0067
547.00,0.0069
546.00,0.0072
545.00,0.0075
544.00,0.0075
543.00,0.0074
542.00,0.0074
541.00,0.0075
540.00,0.0077
539.00,0.0080
538.00,0.0082
537.00,0.0084
536.00,0.0085
535.00,0.0086
534.00,0.0088
533.00,0.0091
532.00,0.0092
531.00,0.0092
530.00,0.0092
529.00,0.0092
528.00,0.0091
527.00,0.0089
526.00,0.0086
525.00,0.0082
524.00,0.0079
523.00,0.0076
522.00,0.0073
521.00,0.0071
520.00,0.0068
519.00,0.0067
518.00,0.0067
517.00,0.0067
516.00,0.0063
515.00,0.0060
514.00,0.0059
513.00,0.0063
512.00,0.0069
511.00,0.0076
510.00,0.0082
509.00,0.0085
508.00,0.0084
507.00,0.0077
506.00,0.0072
505.00,0.0071
504.00,0.0075
503.00,0.0079
502.00,0.0079
501.00,0.0076
500.00,0.0073
499.00,0.0073
498.00,0.0073
497.00,0.0073
496.00,0.0073
495.00,0.0074
494.00,0.0076
493.00,0.0080
492.00,0.0082
491.00,0.0082
490.00,0.0079
489.00,0.0076
488.00,0.0074
487.00,0.0071
486.00,0.0068
485.00,0.0064
484.00,0.0060
483.00,0.0055
482.00,0.0052
481.00,0.0049
480.00,0.0050
479.00,0.0056
478.00,0.0067
477.00,0.0080
476.00,0.0090
475.00,0.0093
474.00,0.0087
473.00,0.0081
472.00,0.0084
471.00,0.0094
470.00,0.0105
469.00,0.0110
468.00,0.0111
467.00,0.0112
466.00,0.0119
465.00,0.0132
464.00,0.0146
463.00,0.0159
462.00,0.0167
461.00,0.0169
460.00,0.0167
459.00,0.0160
458.00,0.0149
457.00,0.0136
456.00,0.0126
455.00,0.0119
454.00,0.0109
453.00,0.0095
452.00,0.0083
451.00,0.0075
450.00,0.0070
