Created as New Dataset,Sample 100 By Administrator Date Tuesday, September 09 2025
cm-1,A
4000.00,0.0010
3999.00,0.0010
3998.00,0.0011
3997.00,0.0011
3996.00,0.0011
3995.00,0.0011
3994.00,0.0011
3993.00,0.0011
3992.00,0.0010
3991.00,0.0010
3990.00,0.0010
3989.00,0.0010
3988.00,0.0010
3987.00,0.0010
3986.00,0.0010
3985.00,0.0010
3984.00,0.0009
3983.00,0.0009
3982.00,0.0009
3981.00,0.0009
3980.00,0.0009
3979.00,0.0009
3978.00,0.0009
3977.00,0.0009
3976.00,0.0009
3975.00,0.0009
3974.00,0.0009
3973.00,0.0009
3972.00,0.0009
3971.00,0.0009
3970.00,0.0009
3969.00,0.0009
3968.00,0.0009
3967.00,0.0009
3966.00,0.0009
3965.00,0.0009
3964.00,0.0008
3963.00,0.0008
3962.00,0.0008
3961.00,0.0007
3960.00,0.0007
3959.00,0.0007
3958.00,0.0007
3957.00,0.0007
3956.00,0.0007
3955.00,0.0007
3954.00,0.0007
3953.00,0.0007
3952.00,0.0007
3951.00,0.0008
3950.00,0.0008
3949.00,0.0009
3948.00,0.0009
3947.00,0.0009
3946.00,0.0008
3945.00,0.0008
3944.00,0.0008
3943.00,0.0008
3942.00,0.0009
3941.00,0.0008
3940.00,0.0008
3939.00,0.0008
3938.00,0.0008
3937.00,0.0008
3936.00,0.0008
3935.00,0.0009
3934.00,0.0009
3933.00,0.0009
3932.00,0.0009
3931.00,0.0009
3930.00,0.0009
3929.00,0.0008
3928.00,0.0008
3927.00,0.0008
3926.00,0.0008
3925.00,0.0008
3924.00,0.0008
3923.00,0.0008
3922.00,0.0009
3921.00,0.0009
3920.00,0.0009
3919.00,0.0009
3918.00,0.0009
3917.00,0.0009
3916.00,0.0009
3915.00,0.0008
3914.00,0.0008
3913.00,0.0008
3912.00,0.0008
3911.00,0.0008
3910.00,0.0008
3909.00,0.0008
3908.00,0.0008
3907.00,0.0009
3906.00,0.0009
3905.00,0.0009
3904.00,0.0010
3903.00,0.0010
3902.00,0.0010
3901.00,0.0010
3900.00,0.0009
3899.00,0.0009
3898.00,0.0009
3897.00,0.0009
3896.00,0.0008
3895.00,0.0008
3894.00,0.0008
3893.00,0.0008
3892.00,0.0007
3891.00,0.0007
3890.00,0.0007
3889.00,0.0008
3888.00,0.0008
3887.00,0.0008
3886.00,0.0008
3885.00,0.0008
3884.00,0.0008
3883.00,0.0008
3882.00,0.0008
3881.00,0.0008
3880.00,0.0008
3879.00,0.0008
3878.00,0.0008
3877.00,0.0008
3876.00,0.0007
3875.00,0.0007
3874.00,0.0007
3873.00,0.0007
3872.00,0.0007
3871.00,0.0007
3870.00,0.0008
3869.00,0.0008
3868.00,0.0008
3867.00,0.0008
3866.00,0.0007
3865.00,0.0007
3864.00,0.0007
3863.00,0.0007
3862.00,0.0007
3861.00,0.0007
3860.00,0.0007
3859.00,0.0007
3858.00,0.0007
3857.00,0.0008
3856.00,0.0008
3855.00,0.0008
3854.00,0.0007
3853.00,0.0007
3852.00,0.0007
3851.00,0.0007
3850.00,0.0007
3849.00,0.0007
3848.00,0.0007
3847.00,0.0007
3846.00,0.0007
3845.00,0.0007
3844.00,0.0007
3843.00,0.0006
3842.00,0.0006
3841.00,0.0005
3840.00,0.0005
3839.00,0.0006
3838.00,0.0006
3837.00,0.0007
3836.00,0.0007
3835.00,0.0007
3834.00,0.0006
3833.00,0.0007
3832.00,0.0007
3831.00,0.0007
3830.00,0.0007
3829.00,0.0008
3828.00,0.0008
3827.00,0.0008
3826.00,0.0009
3825.00,0.0009
3824.00,0.0008
3823.00,0.0008
3822.00,0.0008
3821.00,0.0007
3820.00,0.0007
3819.00,0.0007
3818.00,0.0007
3817.00,0.0007
3816.00,0.0007
3815.00,0.0008
3814.00,0.0008
3813.00,0.0008
3812.00,0.0008
3811.00,0.0008
3810.00,0.0008
3809.00,0.0008
3808.00,0.0008
3807.00,0.0008
3806.00,0.0008
3805.00,0.0008
3804.00,0.0008
3803.00,0.0008
3802.00,0.0007
3801.00,0.0007
3800.00,0.0007
3799.00,0.0007
3798.00,0.0007
3797.00,0.0007
3796.00,0.0007
3795.00,0.0007
3794.00,0.0007
3793.00,0.0008
3792.00,0.0008
3791.00,0.0008
3790.00,0.0008
3789.00,0.0007
3788.00,0.0007
3787.00,0.0007
3786.00,0.0007
3785.00,0.0007
3784.00,0.0007
3783.00,0.0007
3782.00,0.0007
3781.00,0.0007
3780.00,0.0007
3779.00,0.0007
3778.00,0.0007
3777.00,0.0007
3776.00,0.0007
3775.00,0.0007
3774.00,0.0008
3773.00,0.0008
3772.00,0.0008
3771.00,0.0008
3770.00,0.0009
3769.00,0.0009
3768.00,0.0009
3767.00,0.0009
3766.00,0.0009
3765.00,0.0009
3764.00,0.0009
3763.00,0.0009
3762.00,0.0009
3761.00,0.0009
3760.00,0.0009
3759.00,0.0009
3758.00,0.0009
3757.00,0.0009
3756.00,0.0009
3755.00,0.0009
3754.00,0.0009
3753.00,0.0008
3752.00,0.0008
3751.00,0.0008
3750.00,0.0008
3749.00,0.0008
3748.00,0.0008
3747.00,0.0008
3746.00,0.0007
3745.00,0.0007
3744.00,0.0006
3743.00,0.0007
3742.00,0.0007
3741.00,0.0007
3740.00,0.0008
3739.00,0.0008
3738.00,0.0008
3737.00,0.0008
3736.00,0.0008
3735.00,0.0008
3734.00,0.0007
3733.00,0.0007
3732.00,0.0007
3731.00,0.0007
3730.00,0.0007
3729.00,0.0007
3728.00,0.0006
3727.00,0.0006
3726.00,0.0006
3725.00,0.0006
3724.00,0.0006
3723.00,0.0006
3722.00,0.0007
3721.00,0.0007
3720.00,0.0007
3719.00,0.0007
3718.00,0.0007
3717.00,0.0007
3716.00,0.0007
3715.00,0.0007
3714.00,0.0007
3713.00,0.0008
3712.00,0.0008
3711.00,0.0008
3710.00,0.0007
3709.00,0.0007
3708.00,0.0006
3707.00,0.0006
3706.00,0.0006
3705.00,0.0006
3704.00,0.0006
3703.00,0.0006
3702.00,0.0007
3701.00,0.0007
3700.00,0.0007
3699.00,0.0007
3698.00,0.0007
3697.00,0.0007
3696.00,0.0007
3695.00,0.0007
3694.00,0.0007
3693.00,0.0007
3692.00,0.0006
3691.00,0.0005
3690.00,0.0005
3689.00,0.0006
3688.00,0.0006
3687.00,0.0006
3686.00,0.0006
3685.00,0.0006
3684.00,0.0006
3683.00,0.0006
3682.00,0.0006
3681.00,0.0006
3680.00,0.0006
3679.00,0.0005
3678.00,0.0005
3677.00,0.0005
3676.00,0.0005
3675.00,0.0006
3674.00,0.0006
3673.00,0.0006
3672.00,0.0005
3671.00,0.0005
3670.00,0.0005
3669.00,0.0005
3668.00,0.0006
3667.00,0.0006
3666.00,0.0006
3665.00,0.0006
3664.00,0.0007
3663.00,0.0007
3662.00,0.0006
3661.00,0.0006
3660.00,0.0006
3659.00,0.0006
3658.00,0.0006
3657.00,0.0006
3656.00,0.0006
3655.00,0.0006
3654.00,0.0006
3653.00,0.0007
3652.00,0.0007
3651.00,0.0007
3650.00,0.0007
3649.00,0.0007
3648.00,0.0007
3647.00,0.0007
3646.00,0.0007
3645.00,0.0007
3644.00,0.0007
3643.00,0.0006
3642.00,0.0006
3641.00,0.0006
3640.00,0.0006
3639.00,0.0006
3638.00,0.0007
3637.00,0.0007
3636.00,0.0007
3635.00,0.0008
3634.00,0.0008
3633.00,0.0008
3632.00,0.0008
3631.00,0.0009
3630.00,0.0009
3629.00,0.0009
3628.00,0.0009
3627.00,0.0009
3626.00,0.0009
3625.00,0.0010
3624.00,0.0010
3623.00,0.0011
3622.00,0.0011
3621.00,0.0010
3620.00,0.0010
3619.00,0.0009
3618.00,0.0010
3617.00,0.0010
3616.00,0.0010
3615.00,0.0010
3614.00,0.0010
3613.00,0.0010
3612.00,0.0010
3611.00,0.0011
3610.00,0.0012
3609.00,0.0012
3608.00,0.0012
3607.00,0.0012
3606.00,0.0012
3605.00,0.0011
3604.00,0.0011
3603.00,0.0010
3602.00,0.0010
3601.00,0.0011
3600.00,0.0011
3599.00,0.0012
3598.00,0.0013
3597.00,0.0013
3596.00,0.0013
3595.00,0.0013
3594.00,0.0013
3593.00,0.0013
3592.00,0.0013
3591.00,0.0014
3590.00,0.0014
3589.00,0.0015
3588.00,0.0016
3587.00,0.0016
3586.00,0.0016
3585.00,0.0015
3584.00,0.0015
3583.00,0.0015
3582.00,0.0015
3581.00,0.0015
3580.00,0.0015
3579.00,0.0016
3578.00,0.0016
3577.00,0.0016
3576.00,0.0016
3575.00,0.0017
3574.00,0.0017
3573.00,0.0017
3572.00,0.0017
3571.00,0.0018
3570.00,0.0018
3569.00,0.0018
3568.00,0.0018
3567.00,0.0018
3566.00,0.0018
3565.00,0.0019
3564.00,0.0019
3563.00,0.0019
3562.00,0.0019
3561.00,0.0019
3560.00,0.0019
3559.00,0.0019
3558.00,0.0019
3557.00,0.0020
3556.00,0.0020
3555.00,0.0021
3554.00,0.0021
3553.00,0.0022
3552.00,0.0022
3551.00,0.0022
3550.00,0.0022
3549.00,0.0022
3548.00,0.0023
3547.00,0.0023
3546.00,0.0023
3545.00,0.0023
3544.00,0.0023
3543.00,0.0023
3542.00,0.0024
3541.00,0.0024
3540.00,0.0024
3539.00,0.0025
3538.00,0.0025
3537.00,0.0025
3536.00,0.0025
3535.00,0.0025
3534.00,0.0025
3533.00,0.0025
3532.00,0.0025
3531.00,0.0026
3530.00,0.0026
3529.00,0.0026
3528.00,0.0027
3527.00,0.0027
3526.00,0.0027
3525.00,0.0027
3524.00,0.0028
3523.00,0.0028
3522.00,0.0028
3521.00,0.0028
3520.00,0.0028
3519.00,0.0028
3518.00,0.0028
3517.00,0.0028
3516.00,0.0028
3515.00,0.0029
3514.00,0.0029
3513.00,0.0030
3512.00,0.0030
3511.00,0.0030
3510.00,0.0030
3509.00,0.0030
3508.00,0.0030
3507.00,0.0030
3506.00,0.0030
3505.00,0.0031
3504.00,0.0031
3503.00,0.0031
3502.00,0.0031
3501.00,0.0031
3500.00,0.0031
3499.00,0.0031
3498.00,0.0032
3497.00,0.0032
3496.00,0.0032
3495.00,0.0033
3494.00,0.0033
3493.00,0.0034
3492.00,0.0034
3491.00,0.0034
3490.00,0.0034
3489.00,0.0035
3488.00,0.0035
3487.00,0.0035
3486.00,0.0034
3485.00,0.0034
3484.00,0.0034
3483.00,0.0034
3482.00,0.0035
3481.00,0.0035
3480.00,0.0036
3479.00,0.0036
3478.00,0.0036
3477.00,0.0036
3476.00,0.0037
3475.00,0.0037
3474.00,0.0038
3473.00,0.0038
3472.00,0.0038
3471.00,0.0038
3470.00,0.0039
3469.00,0.0039
3468.00,0.0039
3467.00,0.0038
3466.00,0.0038
3465.00,0.0038
3464.00,0.0038
3463.00,0.0038
3462.00,0.0039
3461.00,0.0039
3460.00,0.0040
3459.00,0.0040
3458.00,0.0041
3457.00,0.0041
3456.00,0.0041
3455.00,0.0042
3454.00,0.0042
3453.00,0.0041
3452.00,0.0041
3451.00,0.0041
3450.00,0.0041
3449.00,0.0041
3448.00,0.0042
3447.00,0.0042
3446.00,0.0043
3445.00,0.0043
3444.00,0.0043
3443.00,0.0043
3442.00,0.0043
3441.00,0.0044
3440.00,0.0044
3439.00,0.0044
3438.00,0.0045
3437.00,0.0044
3436.00,0.0045
3435.00,0.0045
3434.00,0.0045
3433.00,0.0045
3432.00,0.0045
3431.00,0.0045
3430.00,0.0045
3429.00,0.0045
3428.00,0.0045
3427.00,0.0046
3426.00,0.0046
3425.00,0.0046
3424.00,0.0046
3423.00,0.0047
3422.00,0.0047
3421.00,0.0048
3420.00,0.0048
3419.00,0.0048
3418.00,0.0048
3417.00,0.0048
3416.00,0.0048
3415.00,0.0048
3414.00,0.0049
3413.00,0.0049
3412.00,0.0049
3411.00,0.0049
3410.00,0.0049
3409.00,0.0049
3408.00,0.0049
3407.00,0.0050
3406.00,0.0050
3405.00,0.0050
3404.00,0.0050
3403.00,0.0051
3402.00,0.0051
3401.00,0.0051
3400.00,0.0050
3399.00,0.0050
3398.00,0.0050
3397.00,0.0050
3396.00,0.0050
3395.00,0.0050
3394.00,0.0050
3393.00,0.0051
3392.00,0.0051
3391.00,0.0051
3390.00,0.0051
3389.00,0.0051
3388.00,0.0051
3387.00,0.0051
3386.00,0.0052
3385.00,0.0052
3384.00,0.0052
3383.00,0.0052
3382.00,0.0052
3381.00,0.0052
3380.00,0.0052
3379.00,0.0052
3378.00,0.0052
3377.00,0.0052
3376.00,0.0052
3375.00,0.0052
3374.00,0.0052
3373.00,0.0052
3372.00,0.0052
3371.00,0.0053
3370.00,0.0053
3369.00,0.0053
3368.00,0.0053
3367.00,0.0053
3366.00,0.0053
3365.00,0.0054
3364.00,0.0054
3363.00,0.0055
3362.00,0.0055
3361.00,0.0055
3360.00,0.0055
3359.00,0.0055
3358.00,0.0054
3357.00,0.0054
3356.00,0.0054
3355.00,0.0054
3354.00,0.0054
3353.00,0.0054
3352.00,0.0054
3351.00,0.0054
3350.00,0.0054
3349.00,0.0054
3348.00,0.0054
3347.00,0.0054
3346.00,0.0055
3345.00,0.0055
3344.00,0.0055
3343.00,0.0055
3342.00,0.0055
3341.00,0.0055
3340.00,0.0055
3339.00,0.0054
3338.00,0.0054
3337.00,0.0054
3336.00,0.0054
3335.00,0.0055
3334.00,0.0055
3333.00,0.0055
3332.00,0.0055
3331.00,0.0054
3330.00,0.0054
3329.00,0.0054
3328.00,0.0053
3327.00,0.0053
3326.00,0.0054
3325.00,0.0054
3324.00,0.0053
3323.00,0.0053
3322.00,0.0052
3321.00,0.0052
3320.00,0.0052
3319.00,0.0052
3318.00,0.0052
3317.00,0.0052
3316.00,0.0052
3315.00,0.0052
3314.00,0.0052
3313.00,0.0052
3312.00,0.0052
3311.00,0.0052
3310.00,0.0052
3309.00,0.0052
3308.00,0.0052
3307.00,0.0052
3306.00,0.0053
3305.00,0.0053
3304.00,0.0053
3303.00,0.0053
3302.00,0.0053
3301.00,0.0053
3300.00,0.0053
3299.00,0.0053
3298.00,0.0052
3297.00,0.0052
3296.00,0.0052
3295.00,0.0052
3294.00,0.0052
3293.00,0.0051
3292.00,0.0051
3291.00,0.0051
3290.00,0.0051
3289.00,0.0051
3288.00,0.0051
3287.00,0.0051
3286.00,0.0051
3285.00,0.0051
3284.00,0.0051
3283.00,0.0051
3282.00,0.0051
3281.00,0.0051
3280.00,0.0051
3279.00,0.0051
3278.00,0.0050
3277.00,0.0050
3276.00,0.0050
3275.00,0.0050
3274.00,0.0050
3273.00,0.0050
3272.00,0.0049
3271.00,0.0049
3270.00,0.0049
3269.00,0.0048
3268.00,0.0048
3267.00,0.0048
3266.00,0.0048
3265.00,0.0048
3264.00,0.0048
3263.00,0.0048
3262.00,0.0048
3261.00,0.0048
3260.00,0.0048
3259.00,0.0048
3258.00,0.0047
3257.00,0.0047
3256.00,0.0047
3255.00,0.0047
3254.00,0.0047
3253.00,0.0047
3252.00,0.0047
3251.00,0.0047
3250.00,0.0046
3249.00,0.0046
3248.00,0.0046
3247.00,0.0046
3246.00,0.0047
3245.00,0.0047
3244.00,0.0047
3243.00,0.0047
3242.00,0.0046
3241.00,0.0046
3240.00,0.0046
3239.00,0.0046
3238.00,0.0046
3237.00,0.0046
3236.00,0.0046
3235.00,0.0046
3234.00,0.0046
3233.00,0.0046
3232.00,0.0045
3231.00,0.0046
3230.00,0.0046
3229.00,0.0046
3228.00,0.0047
3227.00,0.0047
3226.00,0.0047
3225.00,0.0047
3224.00,0.0047
3223.00,0.0047
3222.00,0.0047
3221.00,0.0047
3220.00,0.0047
3219.00,0.0048
3218.00,0.0048
3217.00,0.0048
3216.00,0.0048
3215.00,0.0049
3214.00,0.0049
3213.00,0.0049
3212.00,0.0049
3211.00,0.0049
3210.00,0.0049
3209.00,0.0049
3208.00,0.0049
3207.00,0.0050
3206.00,0.0050
3205.00,0.0050
3204.00,0.0050
3203.00,0.0050
3202.00,0.0050
3201.00,0.0051
3200.00,0.0050
3199.00,0.0050
3198.00,0.0050
3197.00,0.0050
3196.00,0.0050
3195.00,0.0051
3194.00,0.0051
3193.00,0.0051
3192.00,0.0051
3191.00,0.0051
3190.00,0.0051
3189.00,0.0050
3188.00,0.0050
3187.00,0.0049
3186.00,0.0049
3185.00,0.0048
3184.00,0.0049
3183.00,0.0049
3182.00,0.0049
3181.00,0.0049
3180.00,0.0048
3179.00,0.0048
3178.00,0.0047
3177.00,0.0047
3176.00,0.0047
3175.00,0.0047
3174.00,0.0047
3173.00,0.0046
3172.00,0.0046
3171.00,0.0046
3170.00,0.0046
3169.00,0.0045
3168.00,0.0045
3167.00,0.0045
3166.00,0.0045
3165.00,0.0045
3164.00,0.0045
3163.00,0.0045
3162.00,0.0045
3161.00,0.0045
3160.00,0.0045
3159.00,0.0045
3158.00,0.0045
3157.00,0.0044
3156.00,0.0044
3155.00,0.0044
3154.00,0.0044
3153.00,0.0044
3152.00,0.0044
3151.00,0.0044
3150.00,0.0044
3149.00,0.0044
3148.00,0.0044
3147.00,0.0044
3146.00,0.0044
3145.00,0.0043
3144.00,0.0043
3143.00,0.0043
3142.00,0.0043
3141.00,0.0043
3140.00,0.0043
3139.00,0.0042
3138.00,0.0042
3137.00,0.0041
3136.00,0.0041
3135.00,0.0041
3134.00,0.0041
3133.00,0.0041
3132.00,0.0041
3131.00,0.0040
3130.00,0.0040
3129.00,0.0039
3128.00,0.0039
3127.00,0.0039
3126.00,0.0039
3125.00,0.0039
3124.00,0.0039
3123.00,0.0038
3122.00,0.0038
3121.00,0.0037
3120.00,0.0036
3119.00,0.0036
3118.00,0.0036
3117.00,0.0036
3116.00,0.0036
3115.00,0.0036
3114.00,0.0036
3113.00,0.0036
3112.00,0.0036
3111.00,0.0036
3110.00,0.0036
3109.00,0.0036
3108.00,0.0036
3107.00,0.0036
3106.00,0.0036
3105.00,0.0035
3104.00,0.0035
3103.00,0.0035
3102.00,0.0035
3101.00,0.0035
3100.00,0.0035
3099.00,0.0034
3098.00,0.0034
3097.00,0.0034
3096.00,0.0034
3095.00,0.0034
3094.00,0.0033
3093.00,0.0034
3092.00,0.0034
3091.00,0.0034
3090.00,0.0034
3089.00,0.0034
3088.00,0.0033
3087.00,0.0033
3086.00,0.0033
3085.00,0.0033
3084.00,0.0033
3083.00,0.0033
3082.00,0.0033
3081.00,0.0033
3080.00,0.0033
3079.00,0.0033
3078.00,0.0033
3077.00,0.0034
3076.00,0.0034
3075.00,0.0034
3074.00,0.0034
3073.00,0.0034
3072.00,0.0034
3071.00,0.0034
3070.00,0.0034
3069.00,0.0034
3068.00,0.0034
3067.00,0.0034
3066.00,0.0034
3065.00,0.0034
3064.00,0.0035
3063.00,0.0035
3062.00,0.0035
3061.00,0.0035
3060.00,0.0035
3059.00,0.0035
3058.00,0.0035
3057.00,0.0035
3056.00,0.0035
3055.00,0.0035
3054.00,0.0036
3053.00,0.0036
3052.00,0.0036
3051.00,0.0037
3050.00,0.0037
3049.00,0.0038
3048.00,0.0038
3047.00,0.0038
3046.00,0.0038
3045.00,0.0038
3044.00,0.0038
3043.00,0.0038
3042.00,0.0039
3041.00,0.0039
3040.00,0.0039
3039.00,0.0040
3038.00,0.0040
3037.00,0.0041
3036.00,0.0041
3035.00,0.0040
3034.00,0.0040
3033.00,0.0041
3032.00,0.0041
3031.00,0.0041
3030.00,0.0042
3029.00,0.0043
3028.00,0.0043
3027.00,0.0044
3026.00,0.0044
3025.00,0.0045
3024.00,0.0045
3023.00,0.0046
3022.00,0.0047
3021.00,0.0048
3020.00,0.0049
3019.00,0.0049
3018.00,0.0050
3017.00,0.0050
3016.00,0.0051
3015.00,0.0052
3014.00,0.0053
3013.00,0.0055
3012.00,0.0056
3011.00,0.0057
3010.00,0.0058
3009.00,0.0058
3008.00,0.0059
3007.00,0.0061
3006.00,0.0063
3005.00,0.0065
3004.00,0.0067
3003.00,0.0069
3002.00,0.0071
3001.00,0.0074
3000.00,0.0077
2999.00,0.0080
2998.00,0.0083
2997.00,0.0086
2996.00,0.0090
2995.00,0.0093
2994.00,0.0098
2993.00,0.0102
2992.00,0.0107
2991.00,0.0113
2990.00,0.0120
2989.00,0.0127
2988.00,0.0135
2987.00,0.0145
2986.00,0.0155
2985.00,0.0166
2984.00,0.0178
2983.00,0.0191
2982.00,0.0207
2981.00,0.0224
2980.00,0.0245
2979.00,0.0268
2978.00,0.0295
2977.00,0.0325
2976.00,0.0360
2975.00,0.0399
2974.00,0.0443
2973.00,0.0492
2972.00,0.0548
2971.00,0.0611
2970.00,0.0681
2969.00,0.0759
2968.00,0.0843
2967.00,0.0933
2966.00,0.1028
2965.00,0.1126
2964.00,0.1223
2963.00,0.1314
2962.00,0.1396
2961.00,0.1465
2960.00,0.1521
2959.00,0.1566
2958.00,0.1605
2957.00,0.1644
2956.00,0.1688
2955.00,0.1741
2954.00,0.1803
2953.00,0.1870
2952.00,0.1934
2951.00,0.1984
2950.00,0.2008
2949.00,0.1995
2948.00,0.1942
2947.00,0.1849
2946.00,0.1727
2945.00,0.1590
2944.00,0.1453
2943.00,0.1330
2942.00,0.1230
2941.00,0.1156
2940.00,0.1109
2939.00,0.1088
2938.00,0.1088
2937.00,0.1109
2936.00,0.1147
2935.00,0.1202
2934.00,0.1271
2933.00,0.1353
2932.00,0.1447
2931.00,0.1550
2930.00,0.1659
2929.00,0.1772
2928.00,0.1884
2927.00,0.1993
2926.00,0.2098
2925.00,0.2198
2924.00,0.2295
2923.00,0.2390
2922.00,0.2484
2921.00,0.2574
2920.00,0.2655
2919.00,0.2717
2918.00,0.2751
2917.00,0.2750
2916.00,0.2712
2915.00,0.2641
2914.00,0.2547
2913.00,0.2441
2912.00,0.2334
2911.00,0.2233
2910.00,0.2140
2909.00,0.2057
2908.00,0.1979
2907.00,0.1906
2906.00,0.1834
2905.00,0.1762
2904.00,0.1689
2903.00,0.1616
2902.00,0.1543
2901.00,0.1472
2900.00,0.1403
2899.00,0.1338
2898.00,0.1278
2897.00,0.1223
2896.00,0.1176
2895.00,0.1136
2894.00,0.1103
2893.00,0.1077
2892.00,0.1059
2891.00,0.1047
2890.00,0.1041
2889.00,0.1040
2888.00,0.1044
2887.00,0.1051
2886.00,0.1061
2885.00,0.1075
2884.00,0.1094
2883.00,0.1118
2882.00,0.1147
2881.00,0.1178
2880.00,0.1210
2879.00,0.1237
2878.00,0.1255
2877.00,0.1262
2876.00,0.1260
2875.00,0.1252
2874.00,0.1243
2873.00,0.1239
2872.00,0.1243
2871.00,0.1255
2870.00,0.1274
2869.00,0.1294
2868.00,0.1308
2867.00,0.1306
2866.00,0.1281
2865.00,0.1229
2864.00,0.1153
2863.00,0.1061
2862.00,0.0963
2861.00,0.0871
2860.00,0.0790
2859.00,0.0726
2858.00,0.0677
2857.00,0.0643
2856.00,0.0622
2855.00,0.0611
2854.00,0.0609
2853.00,0.0614
2852.00,0.0626
2851.00,0.0644
2850.00,0.0667
2849.00,0.0693
2848.00,0.0725
2847.00,0.0762
2846.00,0.0808
2845.00,0.0863
2844.00,0.0928
2843.00,0.1000
2842.00,0.1076
2841.00,0.1148
2840.00,0.1209
2839.00,0.1249
2838.00,0.1261
2837.00,0.1237
2836.00,0.1178
2835.00,0.1089
2834.00,0.0981
2833.00,0.0866
2832.00,0.0756
2831.00,0.0658
2830.00,0.0575
2829.00,0.0507
2828.00,0.0453
2827.00,0.0409
2826.00,0.0373
2825.00,0.0344
2824.00,0.0319
2823.00,0.0299
2822.00,0.0281
2821.00,0.0266
2820.00,0.0253
2819.00,0.0242
2818.00,0.0232
2817.00,0.0223
2816.00,0.0216
2815.00,0.0208
2814.00,0.0202
2813.00,0.0196
2812.00,0.0190
2811.00,0.0185
2810.00,0.0179
2809.00,0.0174
2808.00,0.0168
2807.00,0.0161
2806.00,0.0155
2805.00,0.0148
2804.00,0.0142
2803.00,0.0136
2802.00,0.0130
2801.00,0.0125
2800.00,0.0121
2799.00,0.0118
2798.00,0.0116
2797.00,0.0113
2796.00,0.0111
2795.00,0.0108
2794.00,0.0105
2793.00,0.0102
2792.00,0.0099
2791.00,0.0096
2790.00,0.0092
2789.00,0.0089
2788.00,0.0086
2787.00,0.0083
2786.00,0.0081
2785.00,0.0078
2784.00,0.0076
2783.00,0.0074
2782.00,0.0072
2781.00,0.0070
2780.00,0.0069
2779.00,0.0067
2778.00,0.0065
2777.00,0.0063
2776.00,0.0062
2775.00,0.0061
2774.00,0.0061
2773.00,0.0060
2772.00,0.0060
2771.00,0.0059
2770.00,0.0059
2769.00,0.0058
2768.00,0.0057
2767.00,0.0057
2766.00,0.0056
2765.00,0.0056
2764.00,0.0056
2763.00,0.0056
2762.00,0.0056
2761.00,0.0055
2760.00,0.0055
2759.00,0.0055
2758.00,0.0055
2757.00,0.0055
2756.00,0.0054
2755.00,0.0054
2754.00,0.0054
2753.00,0.0053
2752.00,0.0053
2751.00,0.0053
2750.00,0.0053
2749.00,0.0053
2748.00,0.0053
2747.00,0.0054
2746.00,0.0054
2745.00,0.0055
2744.00,0.0056
2743.00,0.0057
2742.00,0.0058
2741.00,0.0059
2740.00,0.0060
2739.00,0.0062
2738.00,0.0063
2737.00,0.0064
2736.00,0.0066
2735.00,0.0068
2734.00,0.0069
2733.00,0.0071
2732.00,0.0073
2731.00,0.0076
2730.00,0.0078
2729.00,0.0080
2728.00,0.0083
2727.00,0.0086
2726.00,0.0088
2725.00,0.0091
2724.00,0.0092
2723.00,0.0093
2722.00,0.0092
2721.00,0.0090
2720.00,0.0087
2719.00,0.0083
2718.00,0.0080
2717.00,0.0076
2716.00,0.0073
2715.00,0.0070
2714.00,0.0068
2713.00,0.0066
2712.00,0.0064
2711.00,0.0062
2710.00,0.0060
2709.00,0.0059
2708.00,0.0057
2707.00,0.0056
2706.00,0.0054
2705.00,0.0053
2704.00,0.0052
2703.00,0.0051
2702.00,0.0050
2701.00,0.0049
2700.00,0.0048
2699.00,0.0047
2698.00,0.0047
2697.00,0.0047
2696.00,0.0046
2695.00,0.0046
2694.00,0.0046
2693.00,0.0046
2692.00,0.0047
2691.00,0.0047
2690.00,0.0047
2689.00,0.0047
2688.00,0.0047
2687.00,0.0046
2686.00,0.0046
2685.00,0.0046
2684.00,0.0046
2683.00,0.0046
2682.00,0.0047
2681.00,0.0047
2680.00,0.0047
2679.00,0.0048
2678.00,0.0048
2677.00,0.0048
2676.00,0.0047
2675.00,0.0047
2674.00,0.0047
2673.00,0.0047
2672.00,0.0047
2671.00,0.0047
2670.00,0.0047
2669.00,0.0047
2668.00,0.0047
2667.00,0.0047
2666.00,0.0047
2665.00,0.0048
2664.00,0.0048
2663.00,0.0049
2662.00,0.0049
2661.00,0.0049
2660.00,0.0049
2659.00,0.0049
2658.00,0.0049
2657.00,0.0049
2656.00,0.0048
2655.00,0.0048
2654.00,0.0048
2653.00,0.0047
2652.00,0.0046
2651.00,0.0046
2650.00,0.0045
2649.00,0.0044
2648.00,0.0043
2647.00,0.0042
2646.00,0.0042
2645.00,0.0042
2644.00,0.0041
2643.00,0.0041
2642.00,0.0041
2641.00,0.0041
2640.00,0.0041
2639.00,0.0040
2638.00,0.0039
2637.00,0.0039
2636.00,0.0038
2635.00,0.0038
2634.00,0.0038
2633.00,0.0038
2632.00,0.0039
2631.00,0.0039
2630.00,0.0039
2629.00,0.0039
2628.00,0.0040
2627.00,0.0040
2626.00,0.0041
2625.00,0.0041
2624.00,0.0041
2623.00,0.0041
2622.00,0.0041
2621.00,0.0041
2620.00,0.0041
2619.00,0.0041
2618.00,0.0041
2617.00,0.0041
2616.00,0.0041
2615.00,0.0041
2614.00,0.0041
2613.00,0.0040
2612.00,0.0040
2611.00,0.0040
2610.00,0.0039
2609.00,0.0039
2608.00,0.0038
2607.00,0.0037
2606.00,0.0036
2605.00,0.0035
2604.00,0.0034
2603.00,0.0034
2602.00,0.0034
2601.00,0.0034
2600.00,0.0034
2599.00,0.0034
2598.00,0.0034
2597.00,0.0034
2596.00,0.0034
2595.00,0.0034
2594.00,0.0034
2593.00,0.0034
2592.00,0.0034
2591.00,0.0035
2590.00,0.0035
2589.00,0.0036
2588.00,0.0037
2587.00,0.0038
2586.00,0.0039
2585.00,0.0041
2584.00,0.0042
2583.00,0.0042
2582.00,0.0043
2581.00,0.0042
2580.00,0.0041
2579.00,0.0039
2578.00,0.0038
2577.00,0.0037
2576.00,0.0036
2575.00,0.0035
2574.00,0.0034
2573.00,0.0033
2572.00,0.0032
2571.00,0.0031
2570.00,0.0030
2569.00,0.0030
2568.00,0.0029
2567.00,0.0028
2566.00,0.0028
2565.00,0.0028
2564.00,0.0027
2563.00,0.0026
2562.00,0.0025
2561.00,0.0024
2560.00,0.0024
2559.00,0.0024
2558.00,0.0024
2557.00,0.0023
2556.00,0.0023
2555.00,0.0023
2554.00,0.0023
2553.00,0.0023
2552.00,0.0022
2551.00,0.0022
2550.00,0.0021
2549.00,0.0021
2548.00,0.0021
2547.00,0.0021
2546.00,0.0020
2545.00,0.0020
2544.00,0.0020
2543.00,0.0020
2542.00,0.0020
2541.00,0.0020
2540.00,0.0020
2539.00,0.0020
2538.00,0.0019
2537.00,0.0019
2536.00,0.0018
2535.00,0.0018
2534.00,0.0018
2533.00,0.0018
2532.00,0.0018
2531.00,0.0018
2530.00,0.0018
2529.00,0.0017
2528.00,0.0017
2527.00,0.0016
2526.00,0.0016
2525.00,0.0016
2524.00,0.0016
2523.00,0.0016
2522.00,0.0016
2521.00,0.0015
2520.00,0.0014
2519.00,0.0013
2518.00,0.0013
2517.00,0.0013
2516.00,0.0013
2515.00,0.0013
2514.00,0.0013
2513.00,0.0012
2512.00,0.0012
2511.00,0.0012
2510.00,0.0012
2509.00,0.0012
2508.00,0.0012
2507.00,0.0012
2506.00,0.0012
2505.00,0.0012
2504.00,0.0012
2503.00,0.0012
2502.00,0.0012
2501.00,0.0012
2500.00,0.0012
2499.00,0.0011
2498.00,0.0012
2497.00,0.0012
2496.00,0.0012
2495.00,0.0011
2494.00,0.0011
2493.00,0.0011
2492.00,0.0012
2491.00,0.0012
2490.00,0.0012
2489.00,0.0012
2488.00,0.0012
2487.00,0.0012
2486.00,0.0012
2485.00,0.0012
2484.00,0.0012
2483.00,0.0012
2482.00,0.0012
2481.00,0.0012
2480.00,0.0012
2479.00,0.0012
2478.00,0.0011
2477.00,0.0011
2476.00,0.0011
2475.00,0.0011
2474.00,0.0011
2473.00,0.0011
2472.00,0.0011
2471.00,0.0011
2470.00,0.0011
2469.00,0.0010
2468.00,0.0011
2467.00,0.0011
2466.00,0.0011
2465.00,0.0011
2464.00,0.0012
2463.00,0.0012
2462.00,0.0012
2461.00,0.0012
2460.00,0.0012
2459.00,0.0013
2458.00,0.0013
2457.00,0.0013
2456.00,0.0013
2455.00,0.0013
2454.00,0.0013
2453.00,0.0013
2452.00,0.0013
2451.00,0.0013
2450.00,0.0013
2449.00,0.0013
2448.00,0.0013
2447.00,0.0012
2446.00,0.0012
2445.00,0.0012
2444.00,0.0011
2443.00,0.0011
2442.00,0.0011
2441.00,0.0011
2440.00,0.0012
2439.00,0.0012
2438.00,0.0012
2437.00,0.0013
2436.00,0.0013
2435.00,0.0013
2434.00,0.0014
2433.00,0.0014
2432.00,0.0014
2431.00,0.0014
2430.00,0.0014
2429.00,0.0014
2428.00,0.0014
2427.00,0.0014
2426.00,0.0014
2425.00,0.0014
2424.00,0.0014
2423.00,0.0013
2422.00,0.0013
2421.00,0.0012
2420.00,0.0012
2419.00,0.0012
2418.00,0.0011
2417.00,0.0011
2416.00,0.0011
2415.00,0.0011
2414.00,0.0011
2413.00,0.0012
2412.00,0.0012
2411.00,0.0012
2410.00,0.0011
2409.00,0.0011
2408.00,0.0011
2407.00,0.0010
2406.00,0.0010
2405.00,0.0010
2404.00,0.0010
2403.00,0.0010
2402.00,0.0010
2401.00,0.0011
2400.00,0.0011
2399.00,0.0011
2398.00,0.0011
2397.00,0.0011
2396.00,0.0011
2395.00,0.0011
2394.00,0.0011
2393.00,0.0011
2392.00,0.0011
2391.00,0.0011
2390.00,0.0011
2389.00,0.0011
2388.00,0.0010
2387.00,0.0010
2386.00,0.0009
2385.00,0.0008
2384.00,0.0007
2383.00,0.0007
2382.00,0.0006
2381.00,0.0006
2380.00,0.0005
2379.00,0.0005
2378.00,0.0005
2377.00,0.0005
2376.00,0.0005
2375.00,0.0005
2374.00,0.0005
2373.00,0.0005
2372.00,0.0005
2371.00,0.0006
2370.00,0.0006
2369.00,0.0006
2368.00,0.0005
2367.00,0.0005
2366.00,0.0005
2365.00,0.0005
2364.00,0.0005
2363.00,0.0005
2362.00,0.0006
2361.00,0.0006
2360.00,0.0005
2359.00,0.0005
2358.00,0.0005
2357.00,0.0005
2356.00,0.0005
2355.00,0.0006
2354.00,0.0006
2353.00,0.0006
2352.00,0.0006
2351.00,0.0006
2350.00,0.0006
2349.00,0.0006
2348.00,0.0006
2347.00,0.0006
2346.00,0.0006
2345.00,0.0005
2344.00,0.0006
2343.00,0.0007
2342.00,0.0008
2341.00,0.0009
2340.00,0.0009
2339.00,0.0009
2338.00,0.0009
2337.00,0.0008
2336.00,0.0007
2335.00,0.0006
2334.00,0.0006
2333.00,0.0006
2332.00,0.0007
2331.00,0.0008
2330.00,0.0008
2329.00,0.0009
2328.00,0.0011
2327.00,0.0014
2326.00,0.0018
2325.00,0.0021
2324.00,0.0023
2323.00,0.0022
2322.00,0.0021
2321.00,0.0019
2320.00,0.0017
2319.00,0.0016
2318.00,0.0015
2317.00,0.0014
2316.00,0.0013
2315.00,0.0013
2314.00,0.0012
2313.00,0.0012
2312.00,0.0012
2311.00,0.0012
2310.00,0.0012
2309.00,0.0012
2308.00,0.0013
2307.00,0.0013
2306.00,0.0013
2305.00,0.0013
2304.00,0.0013
2303.00,0.0013
2302.00,0.0013
2301.00,0.0013
2300.00,0.0013
2299.00,0.0013
2298.00,0.0014
2297.00,0.0014
2296.00,0.0015
2295.00,0.0016
2294.00,0.0017
2293.00,0.0018
2292.00,0.0019
2291.00,0.0019
2290.00,0.0020
2289.00,0.0019
2288.00,0.0019
2287.00,0.0019
2286.00,0.0019
2285.00,0.0018
2284.00,0.0018
2283.00,0.0017
2282.00,0.0016
2281.00,0.0016
2280.00,0.0016
2279.00,0.0015
2278.00,0.0015
2277.00,0.0015
2276.00,0.0014
2275.00,0.0013
2274.00,0.0012
2273.00,0.0012
2272.00,0.0012
2271.00,0.0012
2270.00,0.0013
2269.00,0.0014
2268.00,0.0015
2267.00,0.0014
2266.00,0.0014
2265.00,0.0013
2264.00,0.0013
2263.00,0.0012
2262.00,0.0012
2261.00,0.0012
2260.00,0.0013
2259.00,0.0014
2258.00,0.0014
2257.00,0.0014
2256.00,0.0013
2255.00,0.0011
2254.00,0.0009
2253.00,0.0009
2252.00,0.0009
2251.00,0.0009
2250.00,0.0009
2249.00,0.0008
2248.00,0.0007
2247.00,0.0008
2246.00,0.0009
2245.00,0.0011
2244.00,0.0012
2243.00,0.0012
2242.00,0.0011
2241.00,0.0010
2240.00,0.0009
2239.00,0.0009
2238.00,0.0010
2237.00,0.0011
2236.00,0.0011
2235.00,0.0011
2234.00,0.0010
2233.00,0.0010
2232.00,0.0008
2231.00,0.0007
2230.00,0.0007
2229.00,0.0008
2228.00,0.0008
2227.00,0.0008
2226.00,0.0008
2225.00,0.0008
2224.00,0.0008
2223.00,0.0008
2222.00,0.0008
2221.00,0.0008
2220.00,0.0009
2219.00,0.0010
2218.00,0.0011
2217.00,0.0011
2216.00,0.0010
2215.00,0.0009
2214.00,0.0008
2213.00,0.0008
2212.00,0.0008
2211.00,0.0008
2210.00,0.0008
2209.00,0.0009
2208.00,0.0010
2207.00,0.0011
2206.00,0.0012
2205.00,0.0011
2204.00,0.0010
2203.00,0.0009
2202.00,0.0009
2201.00,0.0009
2200.00,0.0009
2199.00,0.0009
2198.00,0.0009
2197.00,0.0009
2196.00,0.0010
2195.00,0.0010
2194.00,0.0011
2193.00,0.0012
2192.00,0.0012
2191.00,0.0012
2190.00,0.0011
2189.00,0.0011
2188.00,0.0011
2187.00,0.0013
2186.00,0.0014
2185.00,0.0015
2184.00,0.0014
2183.00,0.0011
2182.00,0.0008
2181.00,0.0006
2180.00,0.0005
2179.00,0.0006
2178.00,0.0006
2177.00,0.0006
2176.00,0.0004
2175.00,0.0003
2174.00,0.0006
2173.00,0.0009
2172.00,0.0013
2171.00,0.0016
2170.00,0.0018
2169.00,0.0018
2168.00,0.0018
2167.00,0.0016
2166.00,0.0014
2165.00,0.0014
2164.00,0.0017
2163.00,0.0021
2162.00,0.0022
2161.00,0.0017
2160.00,0.0005
2159.00,-0.0011
2158.00,-0.0022
2157.00,-0.0026
2156.00,-0.0024
2155.00,-0.0022
2154.00,-0.0020
2153.00,-0.0020
2152.00,-0.0019
2151.00,-0.0018
2150.00,-0.0015
2149.00,-0.0012
2148.00,-0.0009
2147.00,-0.0008
2146.00,-0.0009
2145.00,-0.0009
2144.00,-0.0009
2143.00,-0.0008
2142.00,-0.0008
2141.00,-0.0007
2140.00,-0.0006
2139.00,-0.0006
2138.00,-0.0008
2137.00,-0.0010
2136.00,-0.0013
2135.00,-0.0015
2134.00,-0.0016
2133.00,-0.0016
2132.00,-0.0014
2131.00,-0.0012
2130.00,-0.0011
2129.00,-0.0009
2128.00,-0.0007
2127.00,-0.0006
2126.00,-0.0005
2125.00,-0.0004
2124.00,-0.0003
2123.00,-0.0002
2122.00,-0.0001
2121.00,0.0001
2120.00,0.0002
2119.00,0.0003
2118.00,0.0005
2117.00,0.0007
2116.00,0.0008
2115.00,0.0008
2114.00,0.0007
2113.00,0.0005
2112.00,0.0003
2111.00,0.0002
2110.00,0.0002
2109.00,0.0002
2108.00,0.0001
2107.00,0.0001
2106.00,0.0000
2105.00,0.0001
2104.00,0.0003
2103.00,0.0005
2102.00,0.0006
2101.00,0.0007
2100.00,0.0007
2099.00,0.0007
2098.00,0.0006
2097.00,0.0004
2096.00,0.0001
2095.00,-0.0001
2094.00,-0.0003
2093.00,-0.0003
2092.00,-0.0001
2091.00,0.0000
2090.00,0.0002
2089.00,0.0004
2088.00,0.0006
2087.00,0.0008
2086.00,0.0008
2085.00,0.0008
2084.00,0.0007
2083.00,0.0007
2082.00,0.0007
2081.00,0.0007
2080.00,0.0006
2079.00,0.0005
2078.00,0.0004
2077.00,0.0004
2076.00,0.0004
2075.00,0.0004
2074.00,0.0003
2073.00,0.0001
2072.00,0.0001
2071.00,0.0001
2070.00,0.0002
2069.00,0.0003
2068.00,0.0005
2067.00,0.0005
2066.00,0.0004
2065.00,0.0002
2064.00,-0.0000
2063.00,-0.0002
2062.00,-0.0001
2061.00,0.0001
2060.00,0.0003
2059.00,0.0005
2058.00,0.0005
2057.00,0.0005
2056.00,0.0003
2055.00,0.0000
2054.00,-0.0001
2053.00,0.0001
2052.00,0.0005
2051.00,0.0009
2050.00,0.0011
2049.00,0.0009
2048.00,0.0006
2047.00,0.0004
2046.00,0.0002
2045.00,0.0002
2044.00,0.0001
2043.00,0.0000
2042.00,-0.0000
2041.00,0.0000
2040.00,0.0002
2039.00,0.0003
2038.00,0.0005
2037.00,0.0005
2036.00,0.0002
2035.00,-0.0002
2034.00,-0.0006
2033.00,-0.0007
2032.00,-0.0005
2031.00,-0.0003
2030.00,-0.0002
2029.00,-0.0002
2028.00,-0.0004
2027.00,-0.0006
2026.00,-0.0008
2025.00,-0.0008
2024.00,-0.0007
2023.00,-0.0007
2022.00,-0.0007
2021.00,-0.0009
2020.00,-0.0009
2019.00,-0.0009
2018.00,-0.0009
2017.00,-0.0009
2016.00,-0.0008
2015.00,-0.0007
2014.00,-0.0004
2013.00,-0.0001
2012.00,0.0000
2011.00,0.0000
2010.00,-0.0001
2009.00,-0.0003
2008.00,-0.0005
2007.00,-0.0008
2006.00,-0.0010
2005.00,-0.0013
2004.00,-0.0015
2003.00,-0.0017
2002.00,-0.0016
2001.00,-0.0013
2000.00,-0.0009
1999.00,-0.0006
1998.00,-0.0005
1997.00,-0.0004
1996.00,-0.0005
1995.00,-0.0008
1994.00,-0.0011
1993.00,-0.0013
1992.00,-0.0012
1991.00,-0.0008
1990.00,-0.0003
1989.00,-0.0000
1988.00,0.0000
1987.00,-0.0001
1986.00,-0.0001
1985.00,-0.0001
1984.00,0.0002
1983.00,0.0006
1982.00,0.0010
1981.00,0.0014
1980.00,0.0014
1979.00,0.0012
1978.00,0.0007
1977.00,0.0003
1976.00,0.0000
1975.00,-0.0001
1974.00,-0.0003
1973.00,-0.0006
1972.00,-0.0008
1971.00,-0.0011
1970.00,-0.0012
1969.00,-0.0013
1968.00,-0.0013
1967.00,-0.0014
1966.00,-0.0016
1965.00,-0.0017
1964.00,-0.0016
1963.00,-0.0014
1962.00,-0.0012
1961.00,-0.0012
1960.00,-0.0013
1959.00,-0.0015
1958.00,-0.0016
1957.00,-0.0015
1956.00,-0.0014
1955.00,-0.0012
1954.00,-0.0011
1953.00,-0.0011
1952.00,-0.0012
1951.00,-0.0012
1950.00,-0.0012
1949.00,-0.0011
1948.00,-0.0011
1947.00,-0.0012
1946.00,-0.0013
1945.00,-0.0014
1944.00,-0.0014
1943.00,-0.0012
1942.00,-0.0010
1941.00,-0.0009
1940.00,-0.0007
1939.00,-0.0007
1938.00,-0.0006
1937.00,-0.0005
1936.00,-0.0004
1935.00,-0.0004
1934.00,-0.0004
1933.00,-0.0005
1932.00,-0.0005
1931.00,-0.0006
1930.00,-0.0006
1929.00,-0.0005
1928.00,-0.0004
1927.00,-0.0003
1926.00,-0.0002
1925.00,-0.0001
1924.00,-0.0001
1923.00,-0.0000
1922.00,0.0000
1921.00,0.0000
1920.00,0.0000
1919.00,-0.0000
1918.00,0.0000
1917.00,0.0000
1916.00,0.0001
1915.00,0.0001
1914.00,0.0001
1913.00,0.0001
1912.00,0.0000
1911.00,-0.0000
1910.00,-0.0000
1909.00,-0.0000
1908.00,-0.0000
1907.00,-0.0000
1906.00,-0.0000
1905.00,-0.0000
1904.00,0.0000
1903.00,0.0001
1902.00,0.0001
1901.00,0.0002
1900.00,0.0003
1899.00,0.0003
1898.00,0.0004
1897.00,0.0004
1896.00,0.0004
1895.00,0.0004
1894.00,0.0004
1893.00,0.0004
1892.00,0.0005
1891.00,0.0005
1890.00,0.0005
1889.00,0.0005
1888.00,0.0005
1887.00,0.0004
1886.00,0.0003
1885.00,0.0002
1884.00,0.0001
1883.00,0.0001
1882.00,0.0001
1881.00,0.0002
1880.00,0.0002
1879.00,0.0002
1878.00,0.0002
1877.00,0.0002
1876.00,0.0002
1875.00,0.0002
1874.00,0.0003
1873.00,0.0004
1872.00,0.0005
1871.00,0.0005
1870.00,0.0004
1869.00,0.0004
1868.00,0.0004
1867.00,0.0003
1866.00,0.0003
1865.00,0.0003
1864.00,0.0002
1863.00,0.0003
1862.00,0.0003
1861.00,0.0004
1860.00,0.0004
1859.00,0.0005
1858.00,0.0004
1857.00,0.0004
1856.00,0.0004
1855.00,0.0004
1854.00,0.0005
1853.00,0.0004
1852.00,0.0004
1851.00,0.0004
1850.00,0.0004
1849.00,0.0004
1848.00,0.0005
1847.00,0.0005
1846.00,0.0004
1845.00,0.0004
1844.00,0.0005
1843.00,0.0005
1842.00,0.0006
1841.00,0.0006
1840.00,0.0006
1839.00,0.0005
1838.00,0.0005
1837.00,0.0005
1836.00,0.0005
1835.00,0.0005
1834.00,0.0005
1833.00,0.0005
1832.00,0.0005
1831.00,0.0005
1830.00,0.0005
1829.00,0.0006
1828.00,0.0006
1827.00,0.0005
1826.00,0.0005
1825.00,0.0006
1824.00,0.0007
1823.00,0.0007
1822.00,0.0007
1821.00,0.0006
1820.00,0.0005
1819.00,0.0004
1818.00,0.0003
1817.00,0.0003
1816.00,0.0003
1815.00,0.0004
1814.00,0.0005
1813.00,0.0005
1812.00,0.0005
1811.00,0.0005
1810.00,0.0005
1809.00,0.0006
1808.00,0.0006
1807.00,0.0007
1806.00,0.0006
1805.00,0.0006
1804.00,0.0006
1803.00,0.0006
1802.00,0.0006
1801.00,0.0006
1800.00,0.0006
1799.00,0.0007
1798.00,0.0007
1797.00,0.0007
1796.00,0.0008
1795.00,0.0008
1794.00,0.0009
1793.00,0.0010
1792.00,0.0010
1791.00,0.0010
1790.00,0.0010
1789.00,0.0011
1788.00,0.0011
1787.00,0.0011
1786.00,0.0011
1785.00,0.0011
1784.00,0.0011
1783.00,0.0011
1782.00,0.0011
1781.00,0.0011
1780.00,0.0010
1779.00,0.0010
1778.00,0.0009
1777.00,0.0009
1776.00,0.0010
1775.00,0.0010
1774.00,0.0010
1773.00,0.0010
1772.00,0.0011
1771.00,0.0013
1770.00,0.0013
1769.00,0.0013
1768.00,0.0013
1767.00,0.0013
1766.00,0.0013
1765.00,0.0013
1764.00,0.0014
1763.00,0.0014
1762.00,0.0014
1761.00,0.0015
1760.00,0.0015
1759.00,0.0015
1758.00,0.0016
1757.00,0.0017
1756.00,0.0018
1755.00,0.0018
1754.00,0.0018
1753.00,0.0018
1752.00,0.0018
1751.00,0.0019
1750.00,0.0020
1749.00,0.0021
1748.00,0.0022
1747.00,0.0022
1746.00,0.0021
1745.00,0.0022
1744.00,0.0022
1743.00,0.0023
1742.00,0.0023
1741.00,0.0024
1740.00,0.0024
1739.00,0.0025
1738.00,0.0025
1737.00,0.0026
1736.00,0.0026
1735.00,0.0026
1734.00,0.0026
1733.00,0.0026
1732.00,0.0026
1731.00,0.0025
1730.00,0.0025
1729.00,0.0025
1728.00,0.0025
1727.00,0.0024
1726.00,0.0024
1725.00,0.0024
1724.00,0.0024
1723.00,0.0025
1722.00,0.0024
1721.00,0.0024
1720.00,0.0024
1719.00,0.0024
1718.00,0.0024
1717.00,0.0024
1716.00,0.0025
1715.00,0.0026
1714.00,0.0026
1713.00,0.0026
1712.00,0.0026
1711.00,0.0027
1710.00,0.0028
1709.00,0.0028
1708.00,0.0028
1707.00,0.0028
1706.00,0.0028
1705.00,0.0028
1704.00,0.0029
1703.00,0.0030
1702.00,0.0030
1701.00,0.0031
1700.00,0.0032
1699.00,0.0032
1698.00,0.0033
1697.00,0.0033
1696.00,0.0034
1695.00,0.0034
1694.00,0.0034
1693.00,0.0035
1692.00,0.0035
1691.00,0.0036
1690.00,0.0037
1689.00,0.0038
1688.00,0.0039
1687.00,0.0040
1686.00,0.0040
1685.00,0.0040
1684.00,0.0042
1683.00,0.0044
1682.00,0.0045
1681.00,0.0045
1680.00,0.0046
1679.00,0.0047
1678.00,0.0048
1677.00,0.0049
1676.00,0.0050
1675.00,0.0050
1674.00,0.0051
1673.00,0.0051
1672.00,0.0052
1671.00,0.0053
1670.00,0.0053
1669.00,0.0054
1668.00,0.0055
1667.00,0.0055
1666.00,0.0056
1665.00,0.0057
1664.00,0.0057
1663.00,0.0058
1662.00,0.0058
1661.00,0.0059
1660.00,0.0059
1659.00,0.0060
1658.00,0.0061
1657.00,0.0062
1656.00,0.0064
1655.00,0.0065
1654.00,0.0065
1653.00,0.0065
1652.00,0.0065
1651.00,0.0065
1650.00,0.0066
1649.00,0.0067
1648.00,0.0068
1647.00,0.0070
1646.00,0.0071
1645.00,0.0072
1644.00,0.0071
1643.00,0.0071
1642.00,0.0070
1641.00,0.0071
1640.00,0.0071
1639.00,0.0072
1638.00,0.0072
1637.00,0.0073
1636.00,0.0073
1635.00,0.0074
1634.00,0.0073
1633.00,0.0073
1632.00,0.0073
1631.00,0.0073
1630.00,0.0073
1629.00,0.0073
1628.00,0.0074
1627.00,0.0074
1626.00,0.0073
1625.00,0.0073
1624.00,0.0073
1623.00,0.0073
1622.00,0.0074
1621.00,0.0074
1620.00,0.0074
1619.00,0.0073
1618.00,0.0073
1617.00,0.0073
1616.00,0.0073
1615.00,0.0073
1614.00,0.0073
1613.00,0.0074
1612.00,0.0074
1611.00,0.0075
1610.00,0.0075
1609.00,0.0075
1608.00,0.0075
1607.00,0.0075
1606.00,0.0075
1605.00,0.0075
1604.00,0.0075
1603.00,0.0075
1602.00,0.0075
1601.00,0.0076
1600.00,0.0076
1599.00,0.0077
1598.00,0.0077
1597.00,0.0078
1596.00,0.0078
1595.00,0.0078
1594.00,0.0077
1593.00,0.0078
1592.00,0.0079
1591.00,0.0080
1590.00,0.0081
1589.00,0.0082
1588.00,0.0083
1587.00,0.0084
1586.00,0.0086
1585.00,0.0088
1584.00,0.0091
1583.00,0.0094
1582.00,0.0097
1581.00,0.0100
1580.00,0.0103
1579.00,0.0105
1578.00,0.0106
1577.00,0.0105
1576.00,0.0103
1575.00,0.0100
1574.00,0.0098
1573.00,0.0097
1572.00,0.0095
1571.00,0.0093
1570.00,0.0090
1569.00,0.0087
1568.00,0.0085
1567.00,0.0083
1566.00,0.0082
1565.00,0.0081
1564.00,0.0081
1563.00,0.0080
1562.00,0.0080
1561.00,0.0081
1560.00,0.0081
1559.00,0.0082
1558.00,0.0082
1557.00,0.0083
1556.00,0.0084
1555.00,0.0084
1554.00,0.0085
1553.00,0.0086
1552.00,0.0087
1551.00,0.0089
1550.00,0.0091
1549.00,0.0093
1548.00,0.0095
1547.00,0.0098
1546.00,0.0101
1545.00,0.0106
1544.00,0.0110
1543.00,0.0113
1542.00,0.0114
1541.00,0.0113
1540.00,0.0109
1539.00,0.0103
1538.00,0.0098
1537.00,0.0094
1536.00,0.0091
1535.00,0.0087
1534.00,0.0082
1533.00,0.0078
1532.00,0.0075
1531.00,0.0072
1530.00,0.0070
1529.00,0.0069
1528.00,0.0069
1527.00,0.0067
1526.00,0.0066
1525.00,0.0065
1524.00,0.0065
1523.00,0.0065
1522.00,0.0065
1521.00,0.0065
1520.00,0.0065
1519.00,0.0065
1518.00,0.0064
1517.00,0.0064
1516.00,0.0065
1515.00,0.0065
1514.00,0.0064
1513.00,0.0065
1512.00,0.0065
1511.00,0.0066
1510.00,0.0066
1509.00,0.0068
1508.00,0.0070
1507.00,0.0071
1506.00,0.0071
1505.00,0.0071
1504.00,0.0072
1503.00,0.0073
1502.00,0.0074
1501.00,0.0076
1500.00,0.0079
1499.00,0.0081
1498.00,0.0083
1497.00,0.0087
1496.00,0.0091
1495.00,0.0093
1494.00,0.0095
1493.00,0.0098
1492.00,0.0101
1491.00,0.0105
1490.00,0.0110
1489.00,0.0117
1488.00,0.0123
1487.00,0.0128
1486.00,0.0134
1485.00,0.0141
1484.00,0.0149
1483.00,0.0157
1482.00,0.0167
1481.00,0.0180
1480.00,0.0194
1479.00,0.0208
1478.00,0.0224
1477.00,0.0244
1476.00,0.0268
1475.00,0.0295
1474.00,0.0330
1473.00,0.0383
1472.00,0.0447
1471.00,0.0510
1470.00,0.0571
1469.00,0.0637
1468.00,0.0708
1467.00,0.0787
1466.00,0.0878
1465.00,0.0976
1464.00,0.1063
1463.00,0.1125
1462.00,0.1168
1461.00,0.1198
1460.00,0.1220
1459.00,0.1236
1458.00,0.1251
1457.00,0.1264
1456.00,0.1270
1455.00,0.1266
1454.00,0.1258
1453.00,0.1243
1452.00,0.1218
1451.00,0.1180
1450.00,0.1125
1449.00,0.1048
1448.00,0.0950
1447.00,0.0847
1446.00,0.0755
1445.00,0.0676
1444.00,0.0610
1443.00,0.0556
1442.00,0.0516
1441.00,0.0490
1440.00,0.0475
1439.00,0.0469
1438.00,0.0471
1437.00,0.0474
1436.00,0.0463
1435.00,0.0435
1434.00,0.0395
1433.00,0.0347
1432.00,0.0298
1431.00,0.0255
1430.00,0.0222
1429.00,0.0199
1428.00,0.0183
1427.00,0.0174
1426.00,0.0168
1425.00,0.0162
1424.00,0.0157
1423.00,0.0154
1422.00,0.0152
1421.00,0.0150
1420.00,0.0147
1419.00,0.0145
1418.00,0.0142
1417.00,0.0139
1416.00,0.0135
1415.00,0.0134
1414.00,0.0132
1413.00,0.0131
1412.00,0.0129
1411.00,0.0128
1410.00,0.0128
1409.00,0.0127
1408.00,0.0126
1407.00,0.0125
1406.00,0.0126
1405.00,0.0126
1404.00,0.0126
1403.00,0.0126
1402.00,0.0127
1401.00,0.0128
1400.00,0.0129
1399.00,0.0130
1398.00,0.0133
1397.00,0.0135
1396.00,0.0137
1395.00,0.0141
1394.00,0.0146
1393.00,0.0152
1392.00,0.0158
1391.00,0.0168
1390.00,0.0180
1389.00,0.0198
1388.00,0.0224
1387.00,0.0264
1386.00,0.0317
1385.00,0.0383
1384.00,0.0469
1383.00,0.0586
1382.00,0.0739
1381.00,0.0935
1380.00,0.1179
1379.00,0.1459
1378.00,0.1737
1377.00,0.1951
1376.00,0.2036
1375.00,0.1953
1374.00,0.1722
1373.00,0.1430
1372.00,0.1156
1371.00,0.0927
1370.00,0.0744
1369.00,0.0604
1368.00,0.0508
1367.00,0.0448
1366.00,0.0416
1365.00,0.0404
1364.00,0.0407
1363.00,0.0422
1362.00,0.0446
1361.00,0.0470
1360.00,0.0489
1359.00,0.0494
1358.00,0.0481
1357.00,0.0452
1356.00,0.0411
1355.00,0.0365
1354.00,0.0320
1353.00,0.0282
1352.00,0.0252
1351.00,0.0228
1350.00,0.0209
1349.00,0.0193
1348.00,0.0180
1347.00,0.0170
1346.00,0.0162
1345.00,0.0155
1344.00,0.0150
1343.00,0.0146
1342.00,0.0143
1341.00,0.0141
1340.00,0.0139
1339.00,0.0137
1338.00,0.0135
1337.00,0.0135
1336.00,0.0135
1335.00,0.0137
1334.00,0.0141
1333.00,0.0145
1332.00,0.0149
1331.00,0.0153
1330.00,0.0154
1329.00,0.0152
1328.00,0.0149
1327.00,0.0143
1326.00,0.0136
1325.00,0.0129
1324.00,0.0122
1323.00,0.0117
1322.00,0.0113
1321.00,0.0110
1320.00,0.0107
1319.00,0.0104
1318.00,0.0101
1317.00,0.0099
1316.00,0.0098
1315.00,0.0096
1314.00,0.0095
1313.00,0.0095
1312.00,0.0096
1311.00,0.0098
1310.00,0.0102
1309.00,0.0108
1308.00,0.0118
1307.00,0.0129
1306.00,0.0141
1305.00,0.0149
1304.00,0.0152
1303.00,0.0150
1302.00,0.0146
1301.00,0.0142
1300.00,0.0140
1299.00,0.0139
1298.00,0.0140
1297.00,0.0140
1296.00,0.0139
1295.00,0.0137
1294.00,0.0132
1293.00,0.0127
1292.00,0.0121
1291.00,0.0115
1290.00,0.0110
1289.00,0.0106
1288.00,0.0102
1287.00,0.0099
1286.00,0.0097
1285.00,0.0095
1284.00,0.0093
1283.00,0.0091
1282.00,0.0089
1281.00,0.0088
1280.00,0.0087
1279.00,0.0086
1278.00,0.0085
1277.00,0.0085
1276.00,0.0084
1275.00,0.0084
1274.00,0.0084
1273.00,0.0084
1272.00,0.0085
1271.00,0.0086
1270.00,0.0086
1269.00,0.0087
1268.00,0.0088
1267.00,0.0090
1266.00,0.0092
1265.00,0.0095
1264.00,0.0098
1263.00,0.0101
1262.00,0.0104
1261.00,0.0108
1260.00,0.0114
1259.00,0.0121
1258.00,0.0128
1257.00,0.0134
1256.00,0.0137
1255.00,0.0136
1254.00,0.0131
1253.00,0.0123
1252.00,0.0114
1251.00,0.0107
1250.00,0.0101
1249.00,0.0097
1248.00,0.0095
1247.00,0.0093
1246.00,0.0092
1245.00,0.0092
1244.00,0.0091
1243.00,0.0091
1242.00,0.0091
1241.00,0.0089
1240.00,0.0088
1239.00,0.0087
1238.00,0.0087
1237.00,0.0087
1236.00,0.0086
1235.00,0.0086
1234.00,0.0086
1233.00,0.0086
1232.00,0.0086
1231.00,0.0087
1230.00,0.0088
1229.00,0.0089
1228.00,0.0090
1227.00,0.0091
1226.00,0.0093
1225.00,0.0096
1224.00,0.0099
1223.00,0.0102
1222.00,0.0106
1221.00,0.0108
1220.00,0.0110
1219.00,0.0111
1218.00,0.0111
1217.00,0.0110
1216.00,0.0108
1215.00,0.0105
1214.00,0.0102
1213.00,0.0098
1212.00,0.0095
1211.00,0.0092
1210.00,0.0089
1209.00,0.0088
1208.00,0.0087
1207.00,0.0086
1206.00,0.0085
1205.00,0.0084
1204.00,0.0083
1203.00,0.0083
1202.00,0.0083
1201.00,0.0083
1200.00,0.0082
1199.00,0.0082
1198.00,0.0082
1197.00,0.0082
1196.00,0.0082
1195.00,0.0083
1194.00,0.0084
1193.00,0.0084
1192.00,0.0084
1191.00,0.0083
1190.00,0.0083
1189.00,0.0082
1188.00,0.0082
1187.00,0.0082
1186.00,0.0082
1185.00,0.0083
1184.00,0.0084
1183.00,0.0085
1182.00,0.0087
1181.00,0.0090
1180.00,0.0094
1179.00,0.0099
1178.00,0.0106
1177.00,0.0115
1176.00,0.0126
1175.00,0.0141
1174.00,0.0161
1173.00,0.0187
1172.00,0.0217
1171.00,0.0250
1170.00,0.0282
1169.00,0.0307
1168.00,0.0323
1167.00,0.0327
1166.00,0.0320
1165.00,0.0305
1164.00,0.0287
1163.00,0.0269
1162.00,0.0254
1161.00,0.0241
1160.00,0.0231
1159.00,0.0223
1158.00,0.0217
1157.00,0.0212
1156.00,0.0208
1155.00,0.0205
1154.00,0.0203
1153.00,0.0201
1152.00,0.0196
1151.00,0.0190
1150.00,0.0182
1149.00,0.0173
1148.00,0.0163
1147.00,0.0154
1146.00,0.0145
1145.00,0.0137
1144.00,0.0130
1143.00,0.0123
1142.00,0.0117
1141.00,0.0112
1140.00,0.0108
1139.00,0.0103
1138.00,0.0099
1137.00,0.0096
1136.00,0.0094
1135.00,0.0093
1134.00,0.0092
1133.00,0.0092
1132.00,0.0092
1131.00,0.0092
1130.00,0.0094
1129.00,0.0095
1128.00,0.0096
1127.00,0.0097
1126.00,0.0098
1125.00,0.0098
1124.00,0.0098
1123.00,0.0098
1122.00,0.0098
1121.00,0.0098
1120.00,0.0098
1119.00,0.0099
1118.00,0.0101
1117.00,0.0103
1116.00,0.0105
1115.00,0.0106
1114.00,0.0107
1113.00,0.0108
1112.00,0.0110
1111.00,0.0113
1110.00,0.0116
1109.00,0.0121
1108.00,0.0127
1107.00,0.0134
1106.00,0.0142
1105.00,0.0149
1104.00,0.0155
1103.00,0.0157
1102.00,0.0156
1101.00,0.0153
1100.00,0.0148
1099.00,0.0142
1098.00,0.0136
1097.00,0.0130
1096.00,0.0123
1095.00,0.0118
1094.00,0.0114
1093.00,0.0111
1092.00,0.0108
1091.00,0.0106
1090.00,0.0102
1089.00,0.0099
1088.00,0.0096
1087.00,0.0095
1086.00,0.0095
1085.00,0.0095
1084.00,0.0094
1083.00,0.0093
1082.00,0.0091
1081.00,0.0089
1080.00,0.0087
1079.00,0.0086
1078.00,0.0085
1077.00,0.0085
1076.00,0.0084
1075.00,0.0083
1074.00,0.0083
1073.00,0.0083
1072.00,0.0083
1071.00,0.0083
1070.00,0.0083
1069.00,0.0083
1068.00,0.0083
1067.00,0.0083
1066.00,0.0083
1065.00,0.0082
1064.00,0.0082
1063.00,0.0082
1062.00,0.0083
1061.00,0.0083
1060.00,0.0083
1059.00,0.0084
1058.00,0.0085
1057.00,0.0085
1056.00,0.0086
1055.00,0.0087
1054.00,0.0088
1053.00,0.0090
1052.00,0.0092
1051.00,0.0095
1050.00,0.0098
1049.00,0.0100
1048.00,0.0102
1047.00,0.0104
1046.00,0.0105
1045.00,0.0106
1044.00,0.0107
1043.00,0.0107
1042.00,0.0106
1041.00,0.0105
1040.00,0.0104
1039.00,0.0104
1038.00,0.0105
1037.00,0.0106
1036.00,0.0106
1035.00,0.0106
1034.00,0.0105
1033.00,0.0103
1032.00,0.0102
1031.00,0.0100
1030.00,0.0099
1029.00,0.0098
1028.00,0.0097
1027.00,0.0096
1026.00,0.0096
1025.00,0.0096
1024.00,0.0096
1023.00,0.0096
1022.00,0.0096
1021.00,0.0096
1020.00,0.0097
1019.00,0.0098
1018.00,0.0099
1017.00,0.0101
1016.00,0.0103
1015.00,0.0106
1014.00,0.0110
1013.00,0.0114
1012.00,0.0119
1011.00,0.0124
1010.00,0.0127
1009.00,0.0131
1008.00,0.0135
1007.00,0.0141
1006.00,0.0150
1005.00,0.0161
1004.00,0.0177
1003.00,0.0198
1002.00,0.0226
1001.00,0.0260
1000.00,0.0297
999.00,0.0327
998.00,0.0342
997.00,0.0336
996.00,0.0310
995.00,0.0273
994.00,0.0233
993.00,0.0198
992.00,0.0170
991.00,0.0150
990.00,0.0135
989.00,0.0126
988.00,0.0119
987.00,0.0115
986.00,0.0115
985.00,0.0116
984.00,0.0121
983.00,0.0128
982.00,0.0140
981.00,0.0156
980.00,0.0178
979.00,0.0207
978.00,0.0243
977.00,0.0286
976.00,0.0333
975.00,0.0376
974.00,0.0407
973.00,0.0418
972.00,0.0403
971.00,0.0366
970.00,0.0316
969.00,0.0264
968.00,0.0220
967.00,0.0186
966.00,0.0160
965.00,0.0142
964.00,0.0128
963.00,0.0118
962.00,0.0110
961.00,0.0103
960.00,0.0098
959.00,0.0095
958.00,0.0092
957.00,0.0089
956.00,0.0086
955.00,0.0083
954.00,0.0081
953.00,0.0080
952.00,0.0079
951.00,0.0078
950.00,0.0079
949.00,0.0080
948.00,0.0081
947.00,0.0083
946.00,0.0085
945.00,0.0087
944.00,0.0090
943.00,0.0093
942.00,0.0096
941.00,0.0097
940.00,0.0097
939.00,0.0095
938.00,0.0091
937.00,0.0086
936.00,0.0081
935.00,0.0077
934.00,0.0074
933.00,0.0073
932.00,0.0071
931.00,0.0069
930.00,0.0067
929.00,0.0066
928.00,0.0064
927.00,0.0064
926.00,0.0064
925.00,0.0064
924.00,0.0065
923.00,0.0066
922.00,0.0068
921.00,0.0070
920.00,0.0072
919.00,0.0074
918.00,0.0074
917.00,0.0075
916.00,0.0074
915.00,0.0074
914.00,0.0075
913.00,0.0076
912.00,0.0078
911.00,0.0080
910.00,0.0082
909.00,0.0083
908.00,0.0086
907.00,0.0090
906.00,0.0097
905.00,0.0108
904.00,0.0122
903.00,0.0141
902.00,0.0162
901.00,0.0181
900.00,0.0195
899.00,0.0199
898.00,0.0192
897.00,0.0176
896.00,0.0156
895.00,0.0136
894.00,0.0119
893.00,0.0106
892.00,0.0097
891.00,0.0090
890.00,0.0084
889.00,0.0079
888.00,0.0076
887.00,0.0074
886.00,0.0072
885.00,0.0071
884.00,0.0071
883.00,0.0071
882.00,0.0072
881.00,0.0074
880.00,0.0074
879.00,0.0074
878.00,0.0073
877.00,0.0073
876.00,0.0074
875.00,0.0075
874.00,0.0076
873.00,0.0077
872.00,0.0078
871.00,0.0078
870.00,0.0078
869.00,0.0078
868.00,0.0078
867.00,0.0078
866.00,0.0079
865.00,0.0079
864.00,0.0080
863.00,0.0082
862.00,0.0084
861.00,0.0086
860.00,0.0087
859.00,0.0088
858.00,0.0089
857.00,0.0091
856.00,0.0093
855.00,0.0096
854.00,0.0098
853.00,0.0100
852.00,0.0102
851.00,0.0105
850.00,0.0109
849.00,0.0116
848.00,0.0125
847.00,0.0140
846.00,0.0162
845.00,0.0196
844.00,0.0240
843.00,0.0287
842.00,0.0322
841.00,0.0328
840.00,0.0305
839.00,0.0262
838.00,0.0217
837.00,0.0183
836.00,0.0160
835.00,0.0147
834.00,0.0138
833.00,0.0132
832.00,0.0127
831.00,0.0122
830.00,0.0117
829.00,0.0114
828.00,0.0112
827.00,0.0110
826.00,0.0110
825.00,0.0110
824.00,0.0110
823.00,0.0110
822.00,0.0112
821.00,0.0114
820.00,0.0116
819.00,0.0119
818.00,0.0123
817.00,0.0129
816.00,0.0136
815.00,0.0147
814.00,0.0161
813.00,0.0179
812.00,0.0198
811.00,0.0216
810.00,0.0229
809.00,0.0234
808.00,0.0231
807.00,0.0220
806.00,0.0204
805.00,0.0187
804.00,0.0171
803.00,0.0156
802.00,0.0144
801.00,0.0135
800.00,0.0129
799.00,0.0124
798.00,0.0119
797.00,0.0113
796.00,0.0108
795.00,0.0104
794.00,0.0100
793.00,0.0096
792.00,0.0093
791.00,0.0091
790.00,0.0089
789.00,0.0086
788.00,0.0083
787.00,0.0080
786.00,0.0077
785.00,0.0075
784.00,0.0073
783.00,0.0071
782.00,0.0070
781.00,0.0068
780.00,0.0068
779.00,0.0068
778.00,0.0068
777.00,0.0068
776.00,0.0068
775.00,0.0069
774.00,0.0071
773.00,0.0075
772.00,0.0078
771.00,0.0081
770.00,0.0083
769.00,0.0086
768.00,0.0088
767.00,0.0090
766.00,0.0090
765.00,0.0088
764.00,0.0085
763.00,0.0080
762.00,0.0076
761.00,0.0073
760.00,0.0071
759.00,0.0069
758.00,0.0066
757.00,0.0064
756.00,0.0063
755.00,0.0063
754.00,0.0062
753.00,0.0061
752.00,0.0060
751.00,0.0059
750.00,0.0059
749.00,0.0061
748.00,0.0063
747.00,0.0064
746.00,0.0063
745.00,0.0061
744.00,0.0060
743.00,0.0061
742.00,0.0063
741.00,0.0066
740.00,0.0068
739.00,0.0071
738.00,0.0073
737.00,0.0073
736.00,0.0072
735.00,0.0071
734.00,0.0072
733.00,0.0073
732.00,0.0074
731.00,0.0075
730.00,0.0076
729.00,0.0076
728.00,0.0076
727.00,0.0075
726.00,0.0074
725.00,0.0073
724.00,0.0072
723.00,0.0072
722.00,0.0073
721.00,0.0073
720.00,0.0072
719.00,0.0070
718.00,0.0067
717.00,0.0064
716.00,0.0063
715.00,0.0064
714.00,0.0066
713.00,0.0068
712.00,0.0069
711.00,0.0069
710.00,0.0068
709.00,0.0067
708.00,0.0067
707.00,0.0067
706.00,0.0067
705.00,0.0067
704.00,0.0067
703.00,0.0066
702.00,0.0064
701.00,0.0062
700.00,0.0061
699.00,0.0061
698.00,0.0062
697.00,0.0062
696.00,0.0062
695.00,0.0062
694.00,0.0062
693.00,0.0063
692.00,0.0063
691.00,0.0064
690.00,0.0063
689.00,0.0063
688.00,0.0063
687.00,0.0064
686.00,0.0065
685.00,0.0065
684.00,0.0064
683.00,0.0062
682.00,0.0060
681.00,0.0058
680.00,0.0057
679.00,0.0056
678.00,0.0056
677.00,0.0056
676.00,0.0057
675.00,0.0060
674.00,0.0063
673.00,0.0064
672.00,0.0063
671.00,0.0061
670.00,0.0061
669.00,0.0062
668.00,0.0064
667.00,0.0065
666.00,0.0063
665.00,0.0061
664.00,0.0059
663.00,0.0057
662.00,0.0057
661.00,0.0057
660.00,0.0056
659.00,0.0056
658.00,0.0056
657.00,0.0058
656.00,0.0059
655.00,0.0059
654.00,0.0058
653.00,0.0056
652.00,0.0056
651.00,0.0058
650.00,0.0060
649.00,0.0060
648.00,0.0059
647.00,0.0058
646.00,0.0058
645.00,0.0059
644.00,0.0061
643.00,0.0062
642.00,0.0064
641.00,0.0064
640.00,0.0064
639.00,0.0065
638.00,0.0065
637.00,0.0066
636.00,0.0066
635.00,0.0066
634.00,0.0066
633.00,0.0065
632.00,0.0065
631.00,0.0066
630.00,0.0068
629.00,0.0069
628.00,0.0070
627.00,0.0070
626.00,0.0069
625.00,0.0067
624.00,0.0063
623.00,0.0060
622.00,0.0058
621.00,0.0058
620.00,0.0061
619.00,0.0064
618.00,0.0066
617.00,0.0066
616.00,0.0067
615.00,0.0066
614.00,0.0066
613.00,0.0066
612.00,0.0067
611.00,0.0068
610.00,0.0066
609.00,0.0064
608.00,0.0062
607.00,0.0061
606.00,0.0060
605.00,0.0059
604.00,0.0058
603.00,0.0060
602.00,0.0064
601.00,0.0067
600.00,0.0069
599.00,0.0068
598.00,0.0068
597.00,0.0066
596.00,0.0065
595.00,0.0063
594.00,0.0063
593.00,0.0062
592.00,0.0060
591.00,0.0058
590.00,0.0057
589.00,0.0058
588.00,0.0059
587.00,0.0061
586.00,0.0062
585.00,0.0064
584.00,0.0064
583.00,0.0064
582.00,0.0065
581.00,0.0067
580.00,0.0070
579.00,0.0071
578.00,0.0070
577.00,0.0069
576.00,0.0067
575.00,0.0068
574.00,0.0070
573.00,0.0072
572.00,0.0073
571.00,0.0071
570.00,0.0069
569.00,0.0068
568.00,0.0068
567.00,0.0069
566.00,0.0069
565.00,0.0068
564.00,0.0066
563.00,0.0065
562.00,0.0064
561.00,0.0065
560.00,0.0064
559.00,0.0063
558.00,0.0063
557.00,0.0063
556.00,0.0064
555.00,0.0065
554.00,0.0067
553.00,0.0069
552.00,0.0069
551.00,0.0069
550.00,0.0070
549.00,0.0072
548.00,0.0073
547.00,0.0074
546.00,0.0073
545.00,0.0072
544.00,0.0071
543.00,0.0070
542.00,0.0070
541.00,0.0071
540.00,0.0075
539.00,0.0080
538.00,0.0084
537.00,0.0085
536.00,0.0083
535.00,0.0084
534.00,0.0086
533.00,0.0089
532.00,0.0089
531.00,0.0087
530.00,0.0087
529.00,0.0088
528.00,0.0092
527.00,0.0096
526.00,0.0101
525.00,0.0102
524.00,0.0099
523.00,0.0094
522.00,0.0091
521.00,0.0089
520.00,0.0083
519.00,0.0075
518.00,0.0069
517.00,0.0068
516.00,0.0072
515.00,0.0077
514.00,0.0075
513.00,0.0071
512.00,0.0067
511.00,0.0070
510.00,0.0076
509.00,0.0083
508.00,0.0084
507.00,0.0082
506.00,0.0078
505.00,0.0076
504.00,0.0074
503.00,0.0072
502.00,0.0071
501.00,0.0070
500.00,0.0069
499.00,0.0069
498.00,0.0070
497.00,0.0074
496.00,0.0078
495.00,0.0079
494.00,0.0076
493.00,0.0071
492.00,0.0067
491.00,0.0065
490.00,0.0063
489.00,0.0060
488.00,0.0059
487.00,0.0060
486.00,0.0063
485.00,0.0064
484.00,0.0063
483.00,0.0064
482.00,0.0070
481.00,0.0073
480.00,0.0072
479.00,0.0070
478.00,0.0073
477.00,0.0080
476.00,0.0083
475.00,0.0081
474.00,0.0080
473.00,0.0088
472.00,0.0102
471.00,0.0113
470.00,0.0119
469.00,0.0123
468.00,0.0127
467.00,0.0129
466.00,0.0129
465.00,0.0127
464.00,0.0130
463.00,0.0140
462.00,0.0155
461.00,0.0167
460.00,0.0170
459.00,0.0164
458.00,0.0156
457.00,0.0157
456.00,0.0164
455.00,0.0167
454.00,0.0160
453.00,0.0147
452.00,0.0132
451.00,0.0119
450.00,0.0110
