Created as New Dataset,Sample 220 By Administrator Date Tuesday, September 09 2025
cm-1,A
4000.00,0.0010
3999.00,0.0011
3998.00,0.0011
3997.00,0.0011
3996.00,0.0012
3995.00,0.0012
3994.00,0.0012
3993.00,0.0012
3992.00,0.0012
3991.00,0.0012
3990.00,0.0012
3989.00,0.0012
3988.00,0.0011
3987.00,0.0011
3986.00,0.0011
3985.00,0.0011
3984.00,0.0011
3983.00,0.0011
3982.00,0.0010
3981.00,0.0010
3980.00,0.0010
3979.00,0.0010
3978.00,0.0010
3977.00,0.0010
3976.00,0.0010
3975.00,0.0010
3974.00,0.0010
3973.00,0.0010
3972.00,0.0009
3971.00,0.0009
3970.00,0.0009
3969.00,0.0009
3968.00,0.0009
3967.00,0.0010
3966.00,0.0010
3965.00,0.0010
3964.00,0.0010
3963.00,0.0010
3962.00,0.0009
3961.00,0.0009
3960.00,0.0009
3959.00,0.0009
3958.00,0.0009
3957.00,0.0009
3956.00,0.0009
3955.00,0.0009
3954.00,0.0009
3953.00,0.0009
3952.00,0.0009
3951.00,0.0009
3950.00,0.0009
3949.00,0.0009
3948.00,0.0009
3947.00,0.0009
3946.00,0.0009
3945.00,0.0009
3944.00,0.0009
3943.00,0.0009
3942.00,0.0009
3941.00,0.0009
3940.00,0.0010
3939.00,0.0010
3938.00,0.0010
3937.00,0.0010
3936.00,0.0010
3935.00,0.0010
3934.00,0.0010
3933.00,0.0010
3932.00,0.0010
3931.00,0.0010
3930.00,0.0010
3929.00,0.0010
3928.00,0.0010
3927.00,0.0010
3926.00,0.0009
3925.00,0.0009
3924.00,0.0009
3923.00,0.0009
3922.00,0.0009
3921.00,0.0009
3920.00,0.0010
3919.00,0.0011
3918.00,0.0011
3917.00,0.0011
3916.00,0.0011
3915.00,0.0011
3914.00,0.0010
3913.00,0.0010
3912.00,0.0010
3911.00,0.0010
3910.00,0.0010
3909.00,0.0010
3908.00,0.0010
3907.00,0.0010
3906.00,0.0010
3905.00,0.0010
3904.00,0.0009
3903.00,0.0010
3902.00,0.0010
3901.00,0.0010
3900.00,0.0010
3899.00,0.0010
3898.00,0.0010
3897.00,0.0009
3896.00,0.0009
3895.00,0.0008
3894.00,0.0008
3893.00,0.0009
3892.00,0.0009
3891.00,0.0010
3890.00,0.0011
3889.00,0.0011
3888.00,0.0011
3887.00,0.0011
3886.00,0.0011
3885.00,0.0010
3884.00,0.0010
3883.00,0.0009
3882.00,0.0009
3881.00,0.0009
3880.00,0.0009
3879.00,0.0009
3878.00,0.0009
3877.00,0.0009
3876.00,0.0010
3875.00,0.0010
3874.00,0.0010
3873.00,0.0010
3872.00,0.0010
3871.00,0.0010
3870.00,0.0009
3869.00,0.0009
3868.00,0.0009
3867.00,0.0009
3866.00,0.0009
3865.00,0.0009
3864.00,0.0009
3863.00,0.0009
3862.00,0.0009
3861.00,0.0009
3860.00,0.0009
3859.00,0.0009
3858.00,0.0010
3857.00,0.0010
3856.00,0.0010
3855.00,0.0010
3854.00,0.0009
3853.00,0.0009
3852.00,0.0009
3851.00,0.0009
3850.00,0.0009
3849.00,0.0008
3848.00,0.0008
3847.00,0.0008
3846.00,0.0008
3845.00,0.0008
3844.00,0.0008
3843.00,0.0008
3842.00,0.0008
3841.00,0.0009
3840.00,0.0009
3839.00,0.0009
3838.00,0.0009
3837.00,0.0009
3836.00,0.0009
3835.00,0.0009
3834.00,0.0009
3833.00,0.0009
3832.00,0.0009
3831.00,0.0010
3830.00,0.0010
3829.00,0.0009
3828.00,0.0009
3827.00,0.0009
3826.00,0.0009
3825.00,0.0009
3824.00,0.0010
3823.00,0.0010
3822.00,0.0010
3821.00,0.0009
3820.00,0.0009
3819.00,0.0009
3818.00,0.0009
3817.00,0.0009
3816.00,0.0009
3815.00,0.0010
3814.00,0.0010
3813.00,0.0010
3812.00,0.0010
3811.00,0.0010
3810.00,0.0010
3809.00,0.0010
3808.00,0.0010
3807.00,0.0010
3806.00,0.0010
3805.00,0.0009
3804.00,0.0009
3803.00,0.0009
3802.00,0.0009
3801.00,0.0009
3800.00,0.0009
3799.00,0.0009
3798.00,0.0009
3797.00,0.0009
3796.00,0.0009
3795.00,0.0009
3794.00,0.0009
3793.00,0.0009
3792.00,0.0009
3791.00,0.0009
3790.00,0.0009
3789.00,0.0009
3788.00,0.0009
3787.00,0.0009
3786.00,0.0010
3785.00,0.0010
3784.00,0.0010
3783.00,0.0010
3782.00,0.0010
3781.00,0.0010
3780.00,0.0010
3779.00,0.0010
3778.00,0.0010
3777.00,0.0010
3776.00,0.0009
3775.00,0.0009
3774.00,0.0009
3773.00,0.0009
3772.00,0.0009
3771.00,0.0010
3770.00,0.0010
3769.00,0.0010
3768.00,0.0010
3767.00,0.0010
3766.00,0.0010
3765.00,0.0010
3764.00,0.0010
3763.00,0.0010
3762.00,0.0010
3761.00,0.0010
3760.00,0.0010
3759.00,0.0010
3758.00,0.0010
3757.00,0.0010
3756.00,0.0010
3755.00,0.0010
3754.00,0.0009
3753.00,0.0009
3752.00,0.0008
3751.00,0.0008
3750.00,0.0007
3749.00,0.0008
3748.00,0.0008
3747.00,0.0008
3746.00,0.0009
3745.00,0.0009
3744.00,0.0009
3743.00,0.0009
3742.00,0.0008
3741.00,0.0008
3740.00,0.0008
3739.00,0.0008
3738.00,0.0008
3737.00,0.0008
3736.00,0.0007
3735.00,0.0007
3734.00,0.0008
3733.00,0.0008
3732.00,0.0008
3731.00,0.0009
3730.00,0.0009
3729.00,0.0009
3728.00,0.0008
3727.00,0.0008
3726.00,0.0007
3725.00,0.0007
3724.00,0.0007
3723.00,0.0008
3722.00,0.0008
3721.00,0.0008
3720.00,0.0008
3719.00,0.0008
3718.00,0.0007
3717.00,0.0007
3716.00,0.0008
3715.00,0.0008
3714.00,0.0008
3713.00,0.0009
3712.00,0.0008
3711.00,0.0008
3710.00,0.0008
3709.00,0.0008
3708.00,0.0008
3707.00,0.0008
3706.00,0.0008
3705.00,0.0008
3704.00,0.0008
3703.00,0.0008
3702.00,0.0009
3701.00,0.0009
3700.00,0.0009
3699.00,0.0009
3698.00,0.0009
3697.00,0.0009
3696.00,0.0010
3695.00,0.0010
3694.00,0.0011
3693.00,0.0010
3692.00,0.0010
3691.00,0.0010
3690.00,0.0011
3689.00,0.0012
3688.00,0.0014
3687.00,0.0015
3686.00,0.0016
3685.00,0.0017
3684.00,0.0018
3683.00,0.0019
3682.00,0.0020
3681.00,0.0022
3680.00,0.0023
3679.00,0.0024
3678.00,0.0025
3677.00,0.0027
3676.00,0.0029
3675.00,0.0031
3674.00,0.0032
3673.00,0.0032
3672.00,0.0032
3671.00,0.0031
3670.00,0.0032
3669.00,0.0033
3668.00,0.0034
3667.00,0.0034
3666.00,0.0035
3665.00,0.0035
3664.00,0.0036
3663.00,0.0037
3662.00,0.0037
3661.00,0.0037
3660.00,0.0037
3659.00,0.0038
3658.00,0.0038
3657.00,0.0038
3656.00,0.0038
3655.00,0.0038
3654.00,0.0037
3653.00,0.0036
3652.00,0.0036
3651.00,0.0036
3650.00,0.0036
3649.00,0.0036
3648.00,0.0035
3647.00,0.0035
3646.00,0.0034
3645.00,0.0034
3644.00,0.0033
3643.00,0.0032
3642.00,0.0032
3641.00,0.0031
3640.00,0.0031
3639.00,0.0031
3638.00,0.0032
3637.00,0.0031
3636.00,0.0030
3635.00,0.0028
3634.00,0.0026
3633.00,0.0024
3632.00,0.0023
3631.00,0.0023
3630.00,0.0022
3629.00,0.0022
3628.00,0.0022
3627.00,0.0021
3626.00,0.0021
3625.00,0.0020
3624.00,0.0020
3623.00,0.0019
3622.00,0.0019
3621.00,0.0018
3620.00,0.0018
3619.00,0.0018
3618.00,0.0019
3617.00,0.0019
3616.00,0.0019
3615.00,0.0020
3614.00,0.0020
3613.00,0.0020
3612.00,0.0021
3611.00,0.0021
3610.00,0.0021
3609.00,0.0022
3608.00,0.0022
3607.00,0.0022
3606.00,0.0021
3605.00,0.0021
3604.00,0.0021
3603.00,0.0021
3602.00,0.0021
3601.00,0.0021
3600.00,0.0022
3599.00,0.0022
3598.00,0.0023
3597.00,0.0023
3596.00,0.0024
3595.00,0.0025
3594.00,0.0026
3593.00,0.0026
3592.00,0.0026
3591.00,0.0026
3590.00,0.0026
3589.00,0.0026
3588.00,0.0026
3587.00,0.0026
3586.00,0.0027
3585.00,0.0028
3584.00,0.0028
3583.00,0.0029
3582.00,0.0029
3581.00,0.0029
3580.00,0.0030
3579.00,0.0030
3578.00,0.0030
3577.00,0.0030
3576.00,0.0030
3575.00,0.0030
3574.00,0.0031
3573.00,0.0031
3572.00,0.0031
3571.00,0.0032
3570.00,0.0033
3569.00,0.0033
3568.00,0.0034
3567.00,0.0035
3566.00,0.0035
3565.00,0.0036
3564.00,0.0036
3563.00,0.0037
3562.00,0.0037
3561.00,0.0037
3560.00,0.0038
3559.00,0.0038
3558.00,0.0039
3557.00,0.0039
3556.00,0.0040
3555.00,0.0040
3554.00,0.0041
3553.00,0.0041
3552.00,0.0041
3551.00,0.0042
3550.00,0.0042
3549.00,0.0042
3548.00,0.0043
3547.00,0.0043
3546.00,0.0044
3545.00,0.0045
3544.00,0.0045
3543.00,0.0046
3542.00,0.0046
3541.00,0.0047
3540.00,0.0048
3539.00,0.0048
3538.00,0.0049
3537.00,0.0049
3536.00,0.0049
3535.00,0.0049
3534.00,0.0049
3533.00,0.0050
3532.00,0.0050
3531.00,0.0051
3530.00,0.0051
3529.00,0.0052
3528.00,0.0053
3527.00,0.0054
3526.00,0.0055
3525.00,0.0055
3524.00,0.0056
3523.00,0.0056
3522.00,0.0056
3521.00,0.0056
3520.00,0.0057
3519.00,0.0058
3518.00,0.0058
3517.00,0.0059
3516.00,0.0059
3515.00,0.0059
3514.00,0.0059
3513.00,0.0060
3512.00,0.0061
3511.00,0.0062
3510.00,0.0062
3509.00,0.0063
3508.00,0.0063
3507.00,0.0064
3506.00,0.0064
3505.00,0.0065
3504.00,0.0066
3503.00,0.0066
3502.00,0.0067
3501.00,0.0067
3500.00,0.0068
3499.00,0.0068
3498.00,0.0068
3497.00,0.0069
3496.00,0.0070
3495.00,0.0070
3494.00,0.0071
3493.00,0.0071
3492.00,0.0071
3491.00,0.0072
3490.00,0.0073
3489.00,0.0073
3488.00,0.0074
3487.00,0.0075
3486.00,0.0075
3485.00,0.0076
3484.00,0.0076
3483.00,0.0077
3482.00,0.0078
3481.00,0.0079
3480.00,0.0079
3479.00,0.0079
3478.00,0.0080
3477.00,0.0080
3476.00,0.0081
3475.00,0.0081
3474.00,0.0081
3473.00,0.0082
3472.00,0.0082
3471.00,0.0082
3470.00,0.0083
3469.00,0.0083
3468.00,0.0084
3467.00,0.0085
3466.00,0.0085
3465.00,0.0085
3464.00,0.0086
3463.00,0.0086
3462.00,0.0087
3461.00,0.0087
3460.00,0.0088
3459.00,0.0089
3458.00,0.0089
3457.00,0.0090
3456.00,0.0090
3455.00,0.0090
3454.00,0.0091
3453.00,0.0091
3452.00,0.0091
3451.00,0.0092
3450.00,0.0092
3449.00,0.0093
3448.00,0.0093
3447.00,0.0094
3446.00,0.0095
3445.00,0.0096
3444.00,0.0096
3443.00,0.0096
3442.00,0.0096
3441.00,0.0096
3440.00,0.0096
3439.00,0.0096
3438.00,0.0097
3437.00,0.0098
3436.00,0.0099
3435.00,0.0099
3434.00,0.0099
3433.00,0.0099
3432.00,0.0099
3431.00,0.0100
3430.00,0.0100
3429.00,0.0100
3428.00,0.0100
3427.00,0.0101
3426.00,0.0101
3425.00,0.0101
3424.00,0.0101
3423.00,0.0102
3422.00,0.0103
3421.00,0.0103
3420.00,0.0104
3419.00,0.0104
3418.00,0.0104
3417.00,0.0104
3416.00,0.0104
3415.00,0.0105
3414.00,0.0105
3413.00,0.0106
3412.00,0.0106
3411.00,0.0106
3410.00,0.0106
3409.00,0.0107
3408.00,0.0107
3407.00,0.0107
3406.00,0.0107
3405.00,0.0108
3404.00,0.0108
3403.00,0.0108
3402.00,0.0109
3401.00,0.0109
3400.00,0.0109
3399.00,0.0109
3398.00,0.0109
3397.00,0.0109
3396.00,0.0109
3395.00,0.0110
3394.00,0.0110
3393.00,0.0110
3392.00,0.0110
3391.00,0.0110
3390.00,0.0110
3389.00,0.0110
3388.00,0.0111
3387.00,0.0111
3386.00,0.0111
3385.00,0.0111
3384.00,0.0112
3383.00,0.0112
3382.00,0.0111
3381.00,0.0111
3380.00,0.0111
3379.00,0.0111
3378.00,0.0111
3377.00,0.0111
3376.00,0.0111
3375.00,0.0111
3374.00,0.0111
3373.00,0.0112
3372.00,0.0112
3371.00,0.0112
3370.00,0.0112
3369.00,0.0112
3368.00,0.0112
3367.00,0.0112
3366.00,0.0112
3365.00,0.0112
3364.00,0.0112
3363.00,0.0112
3362.00,0.0112
3361.00,0.0112
3360.00,0.0113
3359.00,0.0113
3358.00,0.0113
3357.00,0.0113
3356.00,0.0113
3355.00,0.0113
3354.00,0.0113
3353.00,0.0113
3352.00,0.0113
3351.00,0.0113
3350.00,0.0114
3349.00,0.0114
3348.00,0.0114
3347.00,0.0114
3346.00,0.0114
3345.00,0.0114
3344.00,0.0114
3343.00,0.0114
3342.00,0.0114
3341.00,0.0113
3340.00,0.0113
3339.00,0.0113
3338.00,0.0113
3337.00,0.0113
3336.00,0.0112
3335.00,0.0112
3334.00,0.0112
3333.00,0.0111
3332.00,0.0111
3331.00,0.0111
3330.00,0.0111
3329.00,0.0111
3328.00,0.0111
3327.00,0.0110
3326.00,0.0110
3325.00,0.0109
3324.00,0.0109
3323.00,0.0109
3322.00,0.0109
3321.00,0.0109
3320.00,0.0109
3319.00,0.0110
3318.00,0.0110
3317.00,0.0110
3316.00,0.0110
3315.00,0.0109
3314.00,0.0109
3313.00,0.0108
3312.00,0.0108
3311.00,0.0108
3310.00,0.0108
3309.00,0.0107
3308.00,0.0107
3307.00,0.0106
3306.00,0.0106
3305.00,0.0106
3304.00,0.0106
3303.00,0.0106
3302.00,0.0106
3301.00,0.0105
3300.00,0.0105
3299.00,0.0104
3298.00,0.0104
3297.00,0.0103
3296.00,0.0103
3295.00,0.0103
3294.00,0.0103
3293.00,0.0103
3292.00,0.0103
3291.00,0.0103
3290.00,0.0103
3289.00,0.0103
3288.00,0.0102
3287.00,0.0102
3286.00,0.0102
3285.00,0.0101
3284.00,0.0101
3283.00,0.0100
3282.00,0.0100
3281.00,0.0099
3280.00,0.0099
3279.00,0.0099
3278.00,0.0099
3277.00,0.0098
3276.00,0.0098
3275.00,0.0097
3274.00,0.0097
3273.00,0.0097
3272.00,0.0096
3271.00,0.0096
3270.00,0.0096
3269.00,0.0095
3268.00,0.0096
3267.00,0.0096
3266.00,0.0095
3265.00,0.0095
3264.00,0.0095
3263.00,0.0094
3262.00,0.0094
3261.00,0.0093
3260.00,0.0093
3259.00,0.0093
3258.00,0.0092
3257.00,0.0092
3256.00,0.0092
3255.00,0.0092
3254.00,0.0091
3253.00,0.0091
3252.00,0.0091
3251.00,0.0090
3250.00,0.0090
3249.00,0.0090
3248.00,0.0089
3247.00,0.0089
3246.00,0.0088
3245.00,0.0088
3244.00,0.0088
3243.00,0.0088
3242.00,0.0088
3241.00,0.0088
3240.00,0.0088
3239.00,0.0088
3238.00,0.0088
3237.00,0.0087
3236.00,0.0087
3235.00,0.0086
3234.00,0.0086
3233.00,0.0086
3232.00,0.0086
3231.00,0.0087
3230.00,0.0087
3229.00,0.0087
3228.00,0.0086
3227.00,0.0086
3226.00,0.0086
3225.00,0.0086
3224.00,0.0086
3223.00,0.0086
3222.00,0.0086
3221.00,0.0086
3220.00,0.0086
3219.00,0.0086
3218.00,0.0085
3217.00,0.0085
3216.00,0.0085
3215.00,0.0085
3214.00,0.0086
3213.00,0.0086
3212.00,0.0086
3211.00,0.0086
3210.00,0.0085
3209.00,0.0085
3208.00,0.0085
3207.00,0.0085
3206.00,0.0085
3205.00,0.0085
3204.00,0.0085
3203.00,0.0086
3202.00,0.0086
3201.00,0.0086
3200.00,0.0086
3199.00,0.0086
3198.00,0.0086
3197.00,0.0086
3196.00,0.0085
3195.00,0.0085
3194.00,0.0084
3193.00,0.0084
3192.00,0.0084
3191.00,0.0084
3190.00,0.0084
3189.00,0.0084
3188.00,0.0084
3187.00,0.0083
3186.00,0.0083
3185.00,0.0082
3184.00,0.0082
3183.00,0.0081
3182.00,0.0081
3181.00,0.0080
3180.00,0.0079
3179.00,0.0079
3178.00,0.0078
3177.00,0.0078
3176.00,0.0078
3175.00,0.0077
3174.00,0.0077
3173.00,0.0077
3172.00,0.0077
3171.00,0.0076
3170.00,0.0076
3169.00,0.0075
3168.00,0.0074
3167.00,0.0074
3166.00,0.0073
3165.00,0.0073
3164.00,0.0073
3163.00,0.0073
3162.00,0.0073
3161.00,0.0072
3160.00,0.0072
3159.00,0.0072
3158.00,0.0072
3157.00,0.0072
3156.00,0.0072
3155.00,0.0072
3154.00,0.0071
3153.00,0.0071
3152.00,0.0070
3151.00,0.0070
3150.00,0.0070
3149.00,0.0070
3148.00,0.0070
3147.00,0.0070
3146.00,0.0070
3145.00,0.0070
3144.00,0.0070
3143.00,0.0069
3142.00,0.0068
3141.00,0.0068
3140.00,0.0067
3139.00,0.0067
3138.00,0.0066
3137.00,0.0066
3136.00,0.0066
3135.00,0.0065
3134.00,0.0065
3133.00,0.0065
3132.00,0.0065
3131.00,0.0065
3130.00,0.0064
3129.00,0.0064
3128.00,0.0064
3127.00,0.0063
3126.00,0.0063
3125.00,0.0063
3124.00,0.0062
3123.00,0.0062
3122.00,0.0061
3121.00,0.0060
3120.00,0.0060
3119.00,0.0059
3118.00,0.0059
3117.00,0.0059
3116.00,0.0059
3115.00,0.0059
3114.00,0.0059
3113.00,0.0059
3112.00,0.0058
3111.00,0.0057
3110.00,0.0056
3109.00,0.0056
3108.00,0.0056
3107.00,0.0056
3106.00,0.0056
3105.00,0.0056
3104.00,0.0056
3103.00,0.0056
3102.00,0.0055
3101.00,0.0055
3100.00,0.0054
3099.00,0.0054
3098.00,0.0054
3097.00,0.0054
3096.00,0.0054
3095.00,0.0054
3094.00,0.0053
3093.00,0.0053
3092.00,0.0053
3091.00,0.0053
3090.00,0.0053
3089.00,0.0052
3088.00,0.0052
3087.00,0.0052
3086.00,0.0051
3085.00,0.0051
3084.00,0.0051
3083.00,0.0051
3082.00,0.0050
3081.00,0.0050
3080.00,0.0049
3079.00,0.0049
3078.00,0.0049
3077.00,0.0050
3076.00,0.0050
3075.00,0.0050
3074.00,0.0051
3073.00,0.0051
3072.00,0.0051
3071.00,0.0051
3070.00,0.0051
3069.00,0.0051
3068.00,0.0051
3067.00,0.0052
3066.00,0.0051
3065.00,0.0051
3064.00,0.0051
3063.00,0.0051
3062.00,0.0051
3061.00,0.0051
3060.00,0.0051
3059.00,0.0051
3058.00,0.0051
3057.00,0.0051
3056.00,0.0051
3055.00,0.0051
3054.00,0.0052
3053.00,0.0052
3052.00,0.0053
3051.00,0.0053
3050.00,0.0053
3049.00,0.0053
3048.00,0.0053
3047.00,0.0054
3046.00,0.0054
3045.00,0.0054
3044.00,0.0054
3043.00,0.0054
3042.00,0.0054
3041.00,0.0054
3040.00,0.0055
3039.00,0.0056
3038.00,0.0056
3037.00,0.0056
3036.00,0.0057
3035.00,0.0057
3034.00,0.0057
3033.00,0.0058
3032.00,0.0059
3031.00,0.0059
3030.00,0.0060
3029.00,0.0061
3028.00,0.0061
3027.00,0.0062
3026.00,0.0063
3025.00,0.0064
3024.00,0.0065
3023.00,0.0067
3022.00,0.0068
3021.00,0.0070
3020.00,0.0072
3019.00,0.0074
3018.00,0.0076
3017.00,0.0079
3016.00,0.0082
3015.00,0.0086
3014.00,0.0090
3013.00,0.0095
3012.00,0.0100
3011.00,0.0105
3010.00,0.0112
3009.00,0.0119
3008.00,0.0128
3007.00,0.0137
3006.00,0.0146
3005.00,0.0155
3004.00,0.0165
3003.00,0.0174
3002.00,0.0184
3001.00,0.0194
3000.00,0.0203
2999.00,0.0212
2998.00,0.0221
2997.00,0.0229
2996.00,0.0237
2995.00,0.0245
2994.00,0.0253
2993.00,0.0261
2992.00,0.0270
2991.00,0.0279
2990.00,0.0288
2989.00,0.0299
2988.00,0.0312
2987.00,0.0328
2986.00,0.0349
2985.00,0.0378
2984.00,0.0413
2983.00,0.0448
2982.00,0.0477
2981.00,0.0495
2980.00,0.0506
2979.00,0.0513
2978.00,0.0522
2977.00,0.0536
2976.00,0.0557
2975.00,0.0586
2974.00,0.0623
2973.00,0.0667
2972.00,0.0714
2971.00,0.0763
2970.00,0.0811
2969.00,0.0863
2968.00,0.0918
2967.00,0.0979
2966.00,0.1044
2965.00,0.1108
2964.00,0.1169
2963.00,0.1226
2962.00,0.1276
2961.00,0.1320
2960.00,0.1360
2959.00,0.1399
2958.00,0.1440
2957.00,0.1487
2956.00,0.1545
2955.00,0.1613
2954.00,0.1690
2953.00,0.1773
2952.00,0.1853
2951.00,0.1920
2950.00,0.1963
2949.00,0.1972
2948.00,0.1939
2947.00,0.1866
2946.00,0.1760
2945.00,0.1635
2944.00,0.1507
2943.00,0.1390
2942.00,0.1295
2941.00,0.1226
2940.00,0.1183
2939.00,0.1165
2938.00,0.1168
2937.00,0.1190
2936.00,0.1230
2935.00,0.1286
2934.00,0.1356
2933.00,0.1440
2932.00,0.1535
2931.00,0.1638
2930.00,0.1749
2929.00,0.1862
2928.00,0.1974
2927.00,0.2084
2926.00,0.2190
2925.00,0.2290
2924.00,0.2386
2923.00,0.2479
2922.00,0.2572
2921.00,0.2661
2920.00,0.2744
2919.00,0.2813
2918.00,0.2857
2917.00,0.2868
2916.00,0.2842
2915.00,0.2780
2914.00,0.2690
2913.00,0.2583
2912.00,0.2468
2911.00,0.2354
2910.00,0.2246
2909.00,0.2144
2908.00,0.2050
2907.00,0.1961
2906.00,0.1876
2905.00,0.1795
2904.00,0.1716
2903.00,0.1640
2902.00,0.1567
2901.00,0.1498
2900.00,0.1432
2899.00,0.1372
2898.00,0.1317
2897.00,0.1268
2896.00,0.1225
2895.00,0.1189
2894.00,0.1160
2893.00,0.1138
2892.00,0.1123
2891.00,0.1115
2890.00,0.1111
2889.00,0.1112
2888.00,0.1116
2887.00,0.1124
2886.00,0.1136
2885.00,0.1151
2884.00,0.1171
2883.00,0.1196
2882.00,0.1225
2881.00,0.1258
2880.00,0.1292
2879.00,0.1323
2878.00,0.1347
2877.00,0.1361
2876.00,0.1362
2875.00,0.1356
2874.00,0.1347
2873.00,0.1342
2872.00,0.1343
2871.00,0.1353
2870.00,0.1371
2869.00,0.1391
2868.00,0.1408
2867.00,0.1412
2866.00,0.1393
2865.00,0.1347
2864.00,0.1275
2863.00,0.1185
2862.00,0.1088
2861.00,0.0995
2860.00,0.0913
2859.00,0.0846
2858.00,0.0794
2857.00,0.0755
2856.00,0.0727
2855.00,0.0706
2854.00,0.0693
2853.00,0.0685
2852.00,0.0681
2851.00,0.0683
2850.00,0.0691
2849.00,0.0704
2848.00,0.0724
2847.00,0.0753
2846.00,0.0790
2845.00,0.0837
2844.00,0.0892
2843.00,0.0954
2842.00,0.1021
2841.00,0.1086
2840.00,0.1144
2839.00,0.1185
2838.00,0.1201
2837.00,0.1185
2836.00,0.1136
2835.00,0.1057
2834.00,0.0959
2833.00,0.0852
2832.00,0.0748
2831.00,0.0654
2830.00,0.0573
2829.00,0.0507
2828.00,0.0453
2827.00,0.0410
2826.00,0.0375
2825.00,0.0347
2824.00,0.0324
2823.00,0.0304
2822.00,0.0287
2821.00,0.0272
2820.00,0.0259
2819.00,0.0248
2818.00,0.0239
2817.00,0.0231
2816.00,0.0223
2815.00,0.0217
2814.00,0.0211
2813.00,0.0205
2812.00,0.0199
2811.00,0.0194
2810.00,0.0188
2809.00,0.0182
2808.00,0.0176
2807.00,0.0170
2806.00,0.0163
2805.00,0.0156
2804.00,0.0149
2803.00,0.0143
2802.00,0.0137
2801.00,0.0132
2800.00,0.0128
2799.00,0.0125
2798.00,0.0122
2797.00,0.0119
2796.00,0.0117
2795.00,0.0114
2794.00,0.0112
2793.00,0.0109
2792.00,0.0106
2791.00,0.0103
2790.00,0.0100
2789.00,0.0098
2788.00,0.0095
2787.00,0.0092
2786.00,0.0090
2785.00,0.0087
2784.00,0.0085
2783.00,0.0083
2782.00,0.0081
2781.00,0.0079
2780.00,0.0078
2779.00,0.0076
2778.00,0.0075
2777.00,0.0073
2776.00,0.0072
2775.00,0.0071
2774.00,0.0070
2773.00,0.0069
2772.00,0.0069
2771.00,0.0068
2770.00,0.0068
2769.00,0.0067
2768.00,0.0067
2767.00,0.0066
2766.00,0.0066
2765.00,0.0065
2764.00,0.0065
2763.00,0.0065
2762.00,0.0065
2761.00,0.0065
2760.00,0.0064
2759.00,0.0064
2758.00,0.0063
2757.00,0.0062
2756.00,0.0062
2755.00,0.0062
2754.00,0.0061
2753.00,0.0061
2752.00,0.0061
2751.00,0.0060
2750.00,0.0060
2749.00,0.0060
2748.00,0.0060
2747.00,0.0061
2746.00,0.0062
2745.00,0.0062
2744.00,0.0063
2743.00,0.0064
2742.00,0.0065
2741.00,0.0066
2740.00,0.0067
2739.00,0.0069
2738.00,0.0070
2737.00,0.0072
2736.00,0.0074
2735.00,0.0075
2734.00,0.0077
2733.00,0.0078
2732.00,0.0079
2731.00,0.0081
2730.00,0.0084
2729.00,0.0086
2728.00,0.0089
2727.00,0.0092
2726.00,0.0095
2725.00,0.0097
2724.00,0.0099
2723.00,0.0099
2722.00,0.0098
2721.00,0.0096
2720.00,0.0093
2719.00,0.0089
2718.00,0.0086
2717.00,0.0083
2716.00,0.0079
2715.00,0.0076
2714.00,0.0073
2713.00,0.0071
2712.00,0.0068
2711.00,0.0066
2710.00,0.0064
2709.00,0.0063
2708.00,0.0061
2707.00,0.0060
2706.00,0.0058
2705.00,0.0057
2704.00,0.0056
2703.00,0.0055
2702.00,0.0054
2701.00,0.0053
2700.00,0.0052
2699.00,0.0051
2698.00,0.0051
2697.00,0.0051
2696.00,0.0051
2695.00,0.0051
2694.00,0.0051
2693.00,0.0051
2692.00,0.0051
2691.00,0.0051
2690.00,0.0051
2689.00,0.0051
2688.00,0.0052
2687.00,0.0052
2686.00,0.0052
2685.00,0.0051
2684.00,0.0051
2683.00,0.0051
2682.00,0.0051
2681.00,0.0052
2680.00,0.0052
2679.00,0.0052
2678.00,0.0053
2677.00,0.0053
2676.00,0.0054
2675.00,0.0054
2674.00,0.0054
2673.00,0.0053
2672.00,0.0053
2671.00,0.0052
2670.00,0.0052
2669.00,0.0052
2668.00,0.0053
2667.00,0.0053
2666.00,0.0054
2665.00,0.0054
2664.00,0.0055
2663.00,0.0055
2662.00,0.0056
2661.00,0.0056
2660.00,0.0056
2659.00,0.0056
2658.00,0.0055
2657.00,0.0055
2656.00,0.0055
2655.00,0.0054
2654.00,0.0053
2653.00,0.0052
2652.00,0.0052
2651.00,0.0051
2650.00,0.0050
2649.00,0.0050
2648.00,0.0050
2647.00,0.0049
2646.00,0.0049
2645.00,0.0048
2644.00,0.0048
2643.00,0.0047
2642.00,0.0047
2641.00,0.0046
2640.00,0.0045
2639.00,0.0045
2638.00,0.0044
2637.00,0.0044
2636.00,0.0044
2635.00,0.0044
2634.00,0.0044
2633.00,0.0044
2632.00,0.0044
2631.00,0.0044
2630.00,0.0044
2629.00,0.0044
2628.00,0.0044
2627.00,0.0045
2626.00,0.0045
2625.00,0.0045
2624.00,0.0045
2623.00,0.0044
2622.00,0.0044
2621.00,0.0044
2620.00,0.0045
2619.00,0.0045
2618.00,0.0045
2617.00,0.0045
2616.00,0.0045
2615.00,0.0045
2614.00,0.0045
2613.00,0.0044
2612.00,0.0043
2611.00,0.0043
2610.00,0.0042
2609.00,0.0041
2608.00,0.0040
2607.00,0.0039
2606.00,0.0038
2605.00,0.0037
2604.00,0.0037
2603.00,0.0037
2602.00,0.0037
2601.00,0.0037
2600.00,0.0037
2599.00,0.0037
2598.00,0.0037
2597.00,0.0037
2596.00,0.0037
2595.00,0.0037
2594.00,0.0037
2593.00,0.0038
2592.00,0.0038
2591.00,0.0039
2590.00,0.0040
2589.00,0.0040
2588.00,0.0041
2587.00,0.0042
2586.00,0.0043
2585.00,0.0044
2584.00,0.0045
2583.00,0.0045
2582.00,0.0045
2581.00,0.0045
2580.00,0.0044
2579.00,0.0043
2578.00,0.0042
2577.00,0.0041
2576.00,0.0040
2575.00,0.0039
2574.00,0.0038
2573.00,0.0037
2572.00,0.0036
2571.00,0.0035
2570.00,0.0034
2569.00,0.0033
2568.00,0.0033
2567.00,0.0032
2566.00,0.0031
2565.00,0.0030
2564.00,0.0029
2563.00,0.0028
2562.00,0.0028
2561.00,0.0028
2560.00,0.0027
2559.00,0.0027
2558.00,0.0026
2557.00,0.0026
2556.00,0.0026
2555.00,0.0025
2554.00,0.0025
2553.00,0.0025
2552.00,0.0024
2551.00,0.0024
2550.00,0.0023
2549.00,0.0023
2548.00,0.0023
2547.00,0.0023
2546.00,0.0023
2545.00,0.0023
2544.00,0.0022
2543.00,0.0022
2542.00,0.0021
2541.00,0.0021
2540.00,0.0021
2539.00,0.0021
2538.00,0.0021
2537.00,0.0021
2536.00,0.0021
2535.00,0.0020
2534.00,0.0020
2533.00,0.0019
2532.00,0.0019
2531.00,0.0019
2530.00,0.0019
2529.00,0.0018
2528.00,0.0018
2527.00,0.0018
2526.00,0.0017
2525.00,0.0017
2524.00,0.0017
2523.00,0.0017
2522.00,0.0017
2521.00,0.0017
2520.00,0.0017
2519.00,0.0017
2518.00,0.0016
2517.00,0.0016
2516.00,0.0015
2515.00,0.0014
2514.00,0.0013
2513.00,0.0013
2512.00,0.0013
2511.00,0.0013
2510.00,0.0013
2509.00,0.0014
2508.00,0.0015
2507.00,0.0015
2506.00,0.0015
2505.00,0.0014
2504.00,0.0014
2503.00,0.0013
2502.00,0.0013
2501.00,0.0014
2500.00,0.0014
2499.00,0.0014
2498.00,0.0015
2497.00,0.0015
2496.00,0.0014
2495.00,0.0014
2494.00,0.0013
2493.00,0.0013
2492.00,0.0013
2491.00,0.0014
2490.00,0.0014
2489.00,0.0014
2488.00,0.0014
2487.00,0.0014
2486.00,0.0014
2485.00,0.0014
2484.00,0.0014
2483.00,0.0014
2482.00,0.0015
2481.00,0.0015
2480.00,0.0015
2479.00,0.0014
2478.00,0.0013
2477.00,0.0013
2476.00,0.0013
2475.00,0.0013
2474.00,0.0013
2473.00,0.0013
2472.00,0.0012
2471.00,0.0012
2470.00,0.0012
2469.00,0.0012
2468.00,0.0012
2467.00,0.0012
2466.00,0.0012
2465.00,0.0012
2464.00,0.0012
2463.00,0.0013
2462.00,0.0013
2461.00,0.0014
2460.00,0.0014
2459.00,0.0014
2458.00,0.0013
2457.00,0.0013
2456.00,0.0013
2455.00,0.0014
2454.00,0.0014
2453.00,0.0014
2452.00,0.0013
2451.00,0.0013
2450.00,0.0013
2449.00,0.0014
2448.00,0.0014
2447.00,0.0015
2446.00,0.0016
2445.00,0.0016
2444.00,0.0015
2443.00,0.0014
2442.00,0.0013
2441.00,0.0012
2440.00,0.0012
2439.00,0.0013
2438.00,0.0013
2437.00,0.0013
2436.00,0.0013
2435.00,0.0014
2434.00,0.0014
2433.00,0.0015
2432.00,0.0015
2431.00,0.0015
2430.00,0.0015
2429.00,0.0015
2428.00,0.0015
2427.00,0.0015
2426.00,0.0015
2425.00,0.0015
2424.00,0.0015
2423.00,0.0015
2422.00,0.0014
2421.00,0.0013
2420.00,0.0012
2419.00,0.0012
2418.00,0.0012
2417.00,0.0011
2416.00,0.0011
2415.00,0.0012
2414.00,0.0012
2413.00,0.0013
2412.00,0.0013
2411.00,0.0013
2410.00,0.0012
2409.00,0.0012
2408.00,0.0011
2407.00,0.0010
2406.00,0.0010
2405.00,0.0010
2404.00,0.0010
2403.00,0.0010
2402.00,0.0011
2401.00,0.0011
2400.00,0.0011
2399.00,0.0011
2398.00,0.0012
2397.00,0.0012
2396.00,0.0011
2395.00,0.0011
2394.00,0.0012
2393.00,0.0012
2392.00,0.0012
2391.00,0.0012
2390.00,0.0011
2389.00,0.0011
2388.00,0.0011
2387.00,0.0011
2386.00,0.0011
2385.00,0.0010
2384.00,0.0010
2383.00,0.0010
2382.00,0.0009
2381.00,0.0009
2380.00,0.0009
2379.00,0.0009
2378.00,0.0009
2377.00,0.0009
2376.00,0.0010
2375.00,0.0010
2374.00,0.0009
2373.00,0.0009
2372.00,0.0009
2371.00,0.0009
2370.00,0.0009
2369.00,0.0009
2368.00,0.0009
2367.00,0.0009
2366.00,0.0009
2365.00,0.0009
2364.00,0.0009
2363.00,0.0009
2362.00,0.0009
2361.00,0.0010
2360.00,0.0010
2359.00,0.0010
2358.00,0.0010
2357.00,0.0010
2356.00,0.0010
2355.00,0.0010
2354.00,0.0011
2353.00,0.0011
2352.00,0.0012
2351.00,0.0011
2350.00,0.0011
2349.00,0.0011
2348.00,0.0011
2347.00,0.0012
2346.00,0.0012
2345.00,0.0012
2344.00,0.0012
2343.00,0.0013
2342.00,0.0013
2341.00,0.0014
2340.00,0.0014
2339.00,0.0014
2338.00,0.0014
2337.00,0.0014
2336.00,0.0015
2335.00,0.0015
2334.00,0.0015
2333.00,0.0014
2332.00,0.0014
2331.00,0.0014
2330.00,0.0014
2329.00,0.0014
2328.00,0.0015
2327.00,0.0018
2326.00,0.0022
2325.00,0.0026
2324.00,0.0027
2323.00,0.0026
2322.00,0.0024
2321.00,0.0022
2320.00,0.0021
2319.00,0.0021
2318.00,0.0020
2317.00,0.0019
2316.00,0.0017
2315.00,0.0015
2314.00,0.0014
2313.00,0.0014
2312.00,0.0013
2311.00,0.0013
2310.00,0.0012
2309.00,0.0012
2308.00,0.0012
2307.00,0.0013
2306.00,0.0013
2305.00,0.0014
2304.00,0.0015
2303.00,0.0014
2302.00,0.0014
2301.00,0.0014
2300.00,0.0014
2299.00,0.0015
2298.00,0.0015
2297.00,0.0016
2296.00,0.0016
2295.00,0.0017
2294.00,0.0017
2293.00,0.0017
2292.00,0.0017
2291.00,0.0018
2290.00,0.0019
2289.00,0.0020
2288.00,0.0020
2287.00,0.0020
2286.00,0.0020
2285.00,0.0020
2284.00,0.0020
2283.00,0.0020
2282.00,0.0018
2281.00,0.0017
2280.00,0.0016
2279.00,0.0015
2278.00,0.0014
2277.00,0.0014
2276.00,0.0014
2275.00,0.0014
2274.00,0.0015
2273.00,0.0016
2272.00,0.0016
2271.00,0.0016
2270.00,0.0015
2269.00,0.0014
2268.00,0.0013
2267.00,0.0012
2266.00,0.0012
2265.00,0.0012
2264.00,0.0013
2263.00,0.0013
2262.00,0.0014
2261.00,0.0014
2260.00,0.0015
2259.00,0.0015
2258.00,0.0015
2257.00,0.0015
2256.00,0.0015
2255.00,0.0013
2254.00,0.0012
2253.00,0.0011
2252.00,0.0011
2251.00,0.0011
2250.00,0.0011
2249.00,0.0011
2248.00,0.0011
2247.00,0.0010
2246.00,0.0009
2245.00,0.0008
2244.00,0.0008
2243.00,0.0008
2242.00,0.0008
2241.00,0.0008
2240.00,0.0009
2239.00,0.0009
2238.00,0.0011
2237.00,0.0012
2236.00,0.0012
2235.00,0.0012
2234.00,0.0011
2233.00,0.0011
2232.00,0.0012
2231.00,0.0012
2230.00,0.0012
2229.00,0.0011
2228.00,0.0010
2227.00,0.0009
2226.00,0.0009
2225.00,0.0008
2224.00,0.0009
2223.00,0.0009
2222.00,0.0010
2221.00,0.0011
2220.00,0.0011
2219.00,0.0011
2218.00,0.0010
2217.00,0.0009
2216.00,0.0008
2215.00,0.0006
2214.00,0.0005
2213.00,0.0006
2212.00,0.0007
2211.00,0.0008
2210.00,0.0009
2209.00,0.0008
2208.00,0.0008
2207.00,0.0007
2206.00,0.0006
2205.00,0.0005
2204.00,0.0005
2203.00,0.0006
2202.00,0.0007
2201.00,0.0008
2200.00,0.0008
2199.00,0.0007
2198.00,0.0006
2197.00,0.0007
2196.00,0.0009
2195.00,0.0011
2194.00,0.0013
2193.00,0.0015
2192.00,0.0016
2191.00,0.0016
2190.00,0.0016
2189.00,0.0016
2188.00,0.0017
2187.00,0.0019
2186.00,0.0022
2185.00,0.0023
2184.00,0.0021
2183.00,0.0016
2182.00,0.0011
2181.00,0.0008
2180.00,0.0008
2179.00,0.0009
2178.00,0.0010
2177.00,0.0009
2176.00,0.0006
2175.00,0.0004
2174.00,0.0003
2173.00,0.0003
2172.00,0.0004
2171.00,0.0007
2170.00,0.0009
2169.00,0.0012
2168.00,0.0013
2167.00,0.0013
2166.00,0.0014
2165.00,0.0016
2164.00,0.0019
2163.00,0.0022
2162.00,0.0022
2161.00,0.0016
2160.00,0.0003
2159.00,-0.0012
2158.00,-0.0023
2157.00,-0.0026
2156.00,-0.0025
2155.00,-0.0023
2154.00,-0.0022
2153.00,-0.0020
2152.00,-0.0017
2151.00,-0.0012
2150.00,-0.0008
2149.00,-0.0007
2148.00,-0.0009
2147.00,-0.0012
2146.00,-0.0015
2145.00,-0.0016
2144.00,-0.0015
2143.00,-0.0014
2142.00,-0.0012
2141.00,-0.0011
2140.00,-0.0010
2139.00,-0.0009
2138.00,-0.0009
2137.00,-0.0009
2136.00,-0.0009
2135.00,-0.0011
2134.00,-0.0013
2133.00,-0.0015
2132.00,-0.0015
2131.00,-0.0013
2130.00,-0.0010
2129.00,-0.0007
2128.00,-0.0005
2127.00,-0.0003
2126.00,-0.0002
2125.00,-0.0002
2124.00,-0.0001
2123.00,-0.0001
2122.00,-0.0001
2121.00,-0.0000
2120.00,0.0000
2119.00,0.0001
2118.00,0.0002
2117.00,0.0003
2116.00,0.0004
2115.00,0.0005
2114.00,0.0005
2113.00,0.0005
2112.00,0.0005
2111.00,0.0005
2110.00,0.0006
2109.00,0.0007
2108.00,0.0009
2107.00,0.0009
2106.00,0.0009
2105.00,0.0008
2104.00,0.0007
2103.00,0.0006
2102.00,0.0006
2101.00,0.0006
2100.00,0.0006
2099.00,0.0006
2098.00,0.0005
2097.00,0.0003
2096.00,0.0001
2095.00,0.0000
2094.00,0.0000
2093.00,0.0001
2092.00,0.0001
2091.00,0.0001
2090.00,0.0002
2089.00,0.0003
2088.00,0.0004
2087.00,0.0005
2086.00,0.0006
2085.00,0.0006
2084.00,0.0005
2083.00,0.0005
2082.00,0.0005
2081.00,0.0006
2080.00,0.0007
2079.00,0.0008
2078.00,0.0008
2077.00,0.0008
2076.00,0.0007
2075.00,0.0006
2074.00,0.0005
2073.00,0.0004
2072.00,0.0005
2071.00,0.0005
2070.00,0.0006
2069.00,0.0006
2068.00,0.0007
2067.00,0.0007
2066.00,0.0006
2065.00,0.0005
2064.00,0.0004
2063.00,0.0003
2062.00,0.0002
2061.00,0.0003
2060.00,0.0003
2059.00,0.0003
2058.00,0.0002
2057.00,0.0002
2056.00,0.0002
2055.00,0.0002
2054.00,0.0005
2053.00,0.0009
2052.00,0.0013
2051.00,0.0015
2050.00,0.0013
2049.00,0.0009
2048.00,0.0005
2047.00,0.0003
2046.00,0.0003
2045.00,0.0003
2044.00,0.0002
2043.00,0.0001
2042.00,0.0000
2041.00,0.0003
2040.00,0.0007
2039.00,0.0011
2038.00,0.0013
2037.00,0.0013
2036.00,0.0010
2035.00,0.0007
2034.00,0.0002
2033.00,-0.0001
2032.00,-0.0003
2031.00,-0.0005
2030.00,-0.0006
2029.00,-0.0008
2028.00,-0.0009
2027.00,-0.0008
2026.00,-0.0007
2025.00,-0.0004
2024.00,-0.0002
2023.00,-0.0001
2022.00,-0.0002
2021.00,-0.0004
2020.00,-0.0006
2019.00,-0.0009
2018.00,-0.0011
2017.00,-0.0013
2016.00,-0.0012
2015.00,-0.0010
2014.00,-0.0007
2013.00,-0.0003
2012.00,-0.0000
2011.00,-0.0000
2010.00,-0.0001
2009.00,-0.0003
2008.00,-0.0006
2007.00,-0.0009
2006.00,-0.0012
2005.00,-0.0013
2004.00,-0.0013
2003.00,-0.0012
2002.00,-0.0011
2001.00,-0.0010
2000.00,-0.0008
1999.00,-0.0006
1998.00,-0.0003
1997.00,0.0000
1996.00,0.0001
1995.00,-0.0002
1994.00,-0.0005
1993.00,-0.0006
1992.00,-0.0005
1991.00,-0.0002
1990.00,0.0001
1989.00,0.0004
1988.00,0.0005
1987.00,0.0005
1986.00,0.0006
1985.00,0.0006
1984.00,0.0007
1983.00,0.0009
1982.00,0.0011
1981.00,0.0013
1980.00,0.0014
1979.00,0.0011
1978.00,0.0005
1977.00,-0.0002
1976.00,-0.0007
1975.00,-0.0008
1974.00,-0.0005
1973.00,-0.0002
1972.00,-0.0001
1971.00,-0.0004
1970.00,-0.0008
1969.00,-0.0011
1968.00,-0.0012
1967.00,-0.0011
1966.00,-0.0011
1965.00,-0.0012
1964.00,-0.0014
1963.00,-0.0016
1962.00,-0.0018
1961.00,-0.0019
1960.00,-0.0019
1959.00,-0.0018
1958.00,-0.0017
1957.00,-0.0016
1956.00,-0.0014
1955.00,-0.0014
1954.00,-0.0015
1953.00,-0.0016
1952.00,-0.0016
1951.00,-0.0016
1950.00,-0.0016
1949.00,-0.0017
1948.00,-0.0018
1947.00,-0.0017
1946.00,-0.0014
1945.00,-0.0010
1944.00,-0.0008
1943.00,-0.0008
1942.00,-0.0008
1941.00,-0.0009
1940.00,-0.0010
1939.00,-0.0011
1938.00,-0.0011
1937.00,-0.0010
1936.00,-0.0008
1935.00,-0.0007
1934.00,-0.0006
1933.00,-0.0007
1932.00,-0.0007
1931.00,-0.0006
1930.00,-0.0006
1929.00,-0.0005
1928.00,-0.0006
1927.00,-0.0006
1926.00,-0.0007
1925.00,-0.0007
1924.00,-0.0006
1923.00,-0.0005
1922.00,-0.0002
1921.00,0.0000
1920.00,0.0002
1919.00,0.0002
1918.00,0.0002
1917.00,0.0001
1916.00,0.0000
1915.00,0.0001
1914.00,0.0001
1913.00,0.0002
1912.00,0.0003
1911.00,0.0003
1910.00,0.0003
1909.00,0.0002
1908.00,0.0002
1907.00,0.0003
1906.00,0.0003
1905.00,0.0003
1904.00,0.0002
1903.00,0.0000
1902.00,-0.0000
1901.00,-0.0000
1900.00,0.0000
1899.00,0.0001
1898.00,0.0002
1897.00,0.0003
1896.00,0.0004
1895.00,0.0003
1894.00,0.0002
1893.00,0.0001
1892.00,0.0001
1891.00,0.0001
1890.00,0.0002
1889.00,0.0003
1888.00,0.0004
1887.00,0.0004
1886.00,0.0004
1885.00,0.0004
1884.00,0.0004
1883.00,0.0003
1882.00,0.0002
1881.00,0.0002
1880.00,0.0001
1879.00,0.0001
1878.00,0.0001
1877.00,0.0002
1876.00,0.0002
1875.00,0.0002
1874.00,0.0002
1873.00,0.0002
1872.00,0.0002
1871.00,0.0002
1870.00,0.0001
1869.00,0.0001
1868.00,0.0001
1867.00,0.0001
1866.00,0.0001
1865.00,0.0002
1864.00,0.0002
1863.00,0.0003
1862.00,0.0003
1861.00,0.0004
1860.00,0.0003
1859.00,0.0003
1858.00,0.0002
1857.00,0.0002
1856.00,0.0001
1855.00,0.0002
1854.00,0.0002
1853.00,0.0003
1852.00,0.0004
1851.00,0.0004
1850.00,0.0005
1849.00,0.0006
1848.00,0.0006
1847.00,0.0006
1846.00,0.0005
1845.00,0.0005
1844.00,0.0005
1843.00,0.0005
1842.00,0.0004
1841.00,0.0004
1840.00,0.0004
1839.00,0.0005
1838.00,0.0005
1837.00,0.0006
1836.00,0.0006
1835.00,0.0006
1834.00,0.0005
1833.00,0.0006
1832.00,0.0006
1831.00,0.0006
1830.00,0.0006
1829.00,0.0006
1828.00,0.0006
1827.00,0.0007
1826.00,0.0008
1825.00,0.0008
1824.00,0.0008
1823.00,0.0008
1822.00,0.0008
1821.00,0.0007
1820.00,0.0006
1819.00,0.0004
1818.00,0.0003
1817.00,0.0002
1816.00,0.0002
1815.00,0.0003
1814.00,0.0004
1813.00,0.0005
1812.00,0.0006
1811.00,0.0006
1810.00,0.0006
1809.00,0.0007
1808.00,0.0007
1807.00,0.0006
1806.00,0.0006
1805.00,0.0006
1804.00,0.0007
1803.00,0.0007
1802.00,0.0008
1801.00,0.0008
1800.00,0.0008
1799.00,0.0008
1798.00,0.0008
1797.00,0.0008
1796.00,0.0009
1795.00,0.0010
1794.00,0.0010
1793.00,0.0011
1792.00,0.0011
1791.00,0.0011
1790.00,0.0011
1789.00,0.0012
1788.00,0.0012
1787.00,0.0012
1786.00,0.0012
1785.00,0.0012
1784.00,0.0013
1783.00,0.0013
1782.00,0.0013
1781.00,0.0013
1780.00,0.0013
1779.00,0.0013
1778.00,0.0013
1777.00,0.0013
1776.00,0.0013
1775.00,0.0013
1774.00,0.0013
1773.00,0.0014
1772.00,0.0015
1771.00,0.0015
1770.00,0.0015
1769.00,0.0016
1768.00,0.0016
1767.00,0.0016
1766.00,0.0015
1765.00,0.0015
1764.00,0.0016
1763.00,0.0016
1762.00,0.0016
1761.00,0.0017
1760.00,0.0018
1759.00,0.0018
1758.00,0.0019
1757.00,0.0019
1756.00,0.0019
1755.00,0.0020
1754.00,0.0021
1753.00,0.0022
1752.00,0.0023
1751.00,0.0024
1750.00,0.0024
1749.00,0.0024
1748.00,0.0025
1747.00,0.0026
1746.00,0.0026
1745.00,0.0027
1744.00,0.0028
1743.00,0.0028
1742.00,0.0029
1741.00,0.0029
1740.00,0.0030
1739.00,0.0030
1738.00,0.0031
1737.00,0.0032
1736.00,0.0032
1735.00,0.0032
1734.00,0.0031
1733.00,0.0031
1732.00,0.0032
1731.00,0.0032
1730.00,0.0032
1729.00,0.0032
1728.00,0.0032
1727.00,0.0032
1726.00,0.0032
1725.00,0.0032
1724.00,0.0031
1723.00,0.0031
1722.00,0.0031
1721.00,0.0031
1720.00,0.0032
1719.00,0.0032
1718.00,0.0031
1717.00,0.0031
1716.00,0.0031
1715.00,0.0031
1714.00,0.0031
1713.00,0.0031
1712.00,0.0032
1711.00,0.0032
1710.00,0.0033
1709.00,0.0033
1708.00,0.0034
1707.00,0.0034
1706.00,0.0034
1705.00,0.0035
1704.00,0.0036
1703.00,0.0037
1702.00,0.0038
1701.00,0.0039
1700.00,0.0040
1699.00,0.0041
1698.00,0.0041
1697.00,0.0042
1696.00,0.0043
1695.00,0.0044
1694.00,0.0046
1693.00,0.0048
1692.00,0.0050
1691.00,0.0052
1690.00,0.0054
1689.00,0.0056
1688.00,0.0057
1687.00,0.0059
1686.00,0.0060
1685.00,0.0062
1684.00,0.0065
1683.00,0.0068
1682.00,0.0070
1681.00,0.0072
1680.00,0.0074
1679.00,0.0076
1678.00,0.0077
1677.00,0.0079
1676.00,0.0082
1675.00,0.0085
1674.00,0.0086
1673.00,0.0088
1672.00,0.0089
1671.00,0.0091
1670.00,0.0091
1669.00,0.0092
1668.00,0.0093
1667.00,0.0094
1666.00,0.0096
1665.00,0.0098
1664.00,0.0099
1663.00,0.0100
1662.00,0.0101
1661.00,0.0102
1660.00,0.0102
1659.00,0.0103
1658.00,0.0104
1657.00,0.0104
1656.00,0.0105
1655.00,0.0105
1654.00,0.0106
1653.00,0.0106
1652.00,0.0107
1651.00,0.0108
1650.00,0.0109
1649.00,0.0110
1648.00,0.0111
1647.00,0.0112
1646.00,0.0112
1645.00,0.0112
1644.00,0.0112
1643.00,0.0112
1642.00,0.0113
1641.00,0.0113
1640.00,0.0114
1639.00,0.0114
1638.00,0.0114
1637.00,0.0115
1636.00,0.0115
1635.00,0.0114
1634.00,0.0114
1633.00,0.0113
1632.00,0.0113
1631.00,0.0113
1630.00,0.0112
1629.00,0.0112
1628.00,0.0112
1627.00,0.0112
1626.00,0.0111
1625.00,0.0110
1624.00,0.0109
1623.00,0.0109
1622.00,0.0108
1621.00,0.0109
1620.00,0.0109
1619.00,0.0109
1618.00,0.0108
1617.00,0.0108
1616.00,0.0107
1615.00,0.0107
1614.00,0.0107
1613.00,0.0107
1612.00,0.0107
1611.00,0.0107
1610.00,0.0107
1609.00,0.0107
1608.00,0.0107
1607.00,0.0107
1606.00,0.0107
1605.00,0.0107
1604.00,0.0107
1603.00,0.0107
1602.00,0.0107
1601.00,0.0106
1600.00,0.0106
1599.00,0.0105
1598.00,0.0104
1597.00,0.0103
1596.00,0.0103
1595.00,0.0102
1594.00,0.0102
1593.00,0.0101
1592.00,0.0101
1591.00,0.0100
1590.00,0.0099
1589.00,0.0098
1588.00,0.0098
1587.00,0.0097
1586.00,0.0097
1585.00,0.0096
1584.00,0.0096
1583.00,0.0096
1582.00,0.0095
1581.00,0.0096
1580.00,0.0096
1579.00,0.0096
1578.00,0.0096
1577.00,0.0096
1576.00,0.0095
1575.00,0.0095
1574.00,0.0095
1573.00,0.0096
1572.00,0.0096
1571.00,0.0097
1570.00,0.0097
1569.00,0.0098
1568.00,0.0099
1567.00,0.0100
1566.00,0.0100
1565.00,0.0101
1564.00,0.0102
1563.00,0.0104
1562.00,0.0105
1561.00,0.0107
1560.00,0.0109
1559.00,0.0110
1558.00,0.0111
1557.00,0.0111
1556.00,0.0113
1555.00,0.0114
1554.00,0.0116
1553.00,0.0118
1552.00,0.0119
1551.00,0.0120
1550.00,0.0120
1549.00,0.0120
1548.00,0.0120
1547.00,0.0120
1546.00,0.0120
1545.00,0.0120
1544.00,0.0119
1543.00,0.0117
1542.00,0.0114
1541.00,0.0111
1540.00,0.0107
1539.00,0.0104
1538.00,0.0102
1537.00,0.0101
1536.00,0.0100
1535.00,0.0098
1534.00,0.0095
1533.00,0.0092
1532.00,0.0089
1531.00,0.0088
1530.00,0.0086
1529.00,0.0085
1528.00,0.0084
1527.00,0.0082
1526.00,0.0080
1525.00,0.0079
1524.00,0.0079
1523.00,0.0078
1522.00,0.0076
1521.00,0.0075
1520.00,0.0075
1519.00,0.0075
1518.00,0.0075
1517.00,0.0076
1516.00,0.0076
1515.00,0.0076
1514.00,0.0076
1513.00,0.0077
1512.00,0.0077
1511.00,0.0078
1510.00,0.0078
1509.00,0.0080
1508.00,0.0082
1507.00,0.0083
1506.00,0.0084
1505.00,0.0086
1504.00,0.0088
1503.00,0.0090
1502.00,0.0092
1501.00,0.0095
1500.00,0.0099
1499.00,0.0103
1498.00,0.0106
1497.00,0.0111
1496.00,0.0116
1495.00,0.0120
1494.00,0.0124
1493.00,0.0129
1492.00,0.0134
1491.00,0.0139
1490.00,0.0144
1489.00,0.0150
1488.00,0.0156
1487.00,0.0161
1486.00,0.0167
1485.00,0.0173
1484.00,0.0180
1483.00,0.0187
1482.00,0.0195
1481.00,0.0205
1480.00,0.0216
1479.00,0.0228
1478.00,0.0243
1477.00,0.0264
1476.00,0.0289
1475.00,0.0318
1474.00,0.0356
1473.00,0.0410
1472.00,0.0475
1471.00,0.0538
1470.00,0.0599
1469.00,0.0665
1468.00,0.0737
1467.00,0.0817
1466.00,0.0912
1465.00,0.1016
1464.00,0.1109
1463.00,0.1175
1462.00,0.1218
1461.00,0.1248
1460.00,0.1267
1459.00,0.1279
1458.00,0.1284
1457.00,0.1284
1456.00,0.1277
1455.00,0.1266
1454.00,0.1252
1453.00,0.1231
1452.00,0.1199
1451.00,0.1154
1450.00,0.1095
1449.00,0.1017
1448.00,0.0920
1447.00,0.0821
1446.00,0.0734
1445.00,0.0662
1444.00,0.0601
1443.00,0.0552
1442.00,0.0517
1441.00,0.0494
1440.00,0.0483
1439.00,0.0481
1438.00,0.0487
1437.00,0.0492
1436.00,0.0484
1435.00,0.0458
1434.00,0.0417
1433.00,0.0368
1432.00,0.0317
1431.00,0.0272
1430.00,0.0238
1429.00,0.0214
1428.00,0.0197
1427.00,0.0188
1426.00,0.0183
1425.00,0.0178
1424.00,0.0173
1423.00,0.0171
1422.00,0.0170
1421.00,0.0169
1420.00,0.0167
1419.00,0.0166
1418.00,0.0165
1417.00,0.0164
1416.00,0.0162
1415.00,0.0163
1414.00,0.0164
1413.00,0.0164
1412.00,0.0165
1411.00,0.0166
1410.00,0.0167
1409.00,0.0169
1408.00,0.0170
1407.00,0.0174
1406.00,0.0178
1405.00,0.0183
1404.00,0.0187
1403.00,0.0192
1402.00,0.0198
1401.00,0.0204
1400.00,0.0210
1399.00,0.0217
1398.00,0.0224
1397.00,0.0230
1396.00,0.0237
1395.00,0.0244
1394.00,0.0252
1393.00,0.0259
1392.00,0.0265
1391.00,0.0273
1390.00,0.0286
1389.00,0.0303
1388.00,0.0330
1387.00,0.0369
1386.00,0.0420
1385.00,0.0485
1384.00,0.0570
1383.00,0.0686
1382.00,0.0843
1381.00,0.1047
1380.00,0.1307
1379.00,0.1612
1378.00,0.1919
1377.00,0.2158
1376.00,0.2260
1375.00,0.2175
1374.00,0.1924
1373.00,0.1605
1372.00,0.1305
1371.00,0.1054
1370.00,0.0852
1369.00,0.0699
1368.00,0.0592
1367.00,0.0526
1366.00,0.0489
1365.00,0.0474
1364.00,0.0475
1363.00,0.0489
1362.00,0.0513
1361.00,0.0538
1360.00,0.0558
1359.00,0.0563
1358.00,0.0551
1357.00,0.0520
1356.00,0.0476
1355.00,0.0426
1354.00,0.0378
1353.00,0.0336
1352.00,0.0303
1351.00,0.0276
1350.00,0.0255
1349.00,0.0237
1348.00,0.0224
1347.00,0.0213
1346.00,0.0204
1345.00,0.0196
1344.00,0.0190
1343.00,0.0185
1342.00,0.0180
1341.00,0.0176
1340.00,0.0172
1339.00,0.0169
1338.00,0.0166
1337.00,0.0165
1336.00,0.0165
1335.00,0.0167
1334.00,0.0170
1333.00,0.0174
1332.00,0.0179
1331.00,0.0182
1330.00,0.0183
1329.00,0.0180
1328.00,0.0175
1327.00,0.0168
1326.00,0.0160
1325.00,0.0151
1324.00,0.0144
1323.00,0.0137
1322.00,0.0132
1321.00,0.0128
1320.00,0.0125
1319.00,0.0122
1318.00,0.0120
1317.00,0.0117
1316.00,0.0115
1315.00,0.0114
1314.00,0.0113
1313.00,0.0113
1312.00,0.0113
1311.00,0.0115
1310.00,0.0118
1309.00,0.0122
1308.00,0.0129
1307.00,0.0136
1306.00,0.0143
1305.00,0.0149
1304.00,0.0152
1303.00,0.0152
1302.00,0.0151
1301.00,0.0151
1300.00,0.0153
1299.00,0.0156
1298.00,0.0160
1297.00,0.0162
1296.00,0.0163
1295.00,0.0161
1294.00,0.0157
1293.00,0.0152
1292.00,0.0147
1291.00,0.0141
1290.00,0.0135
1289.00,0.0131
1288.00,0.0127
1287.00,0.0125
1286.00,0.0123
1285.00,0.0122
1284.00,0.0120
1283.00,0.0119
1282.00,0.0118
1281.00,0.0117
1280.00,0.0118
1279.00,0.0118
1278.00,0.0119
1277.00,0.0120
1276.00,0.0121
1275.00,0.0123
1274.00,0.0125
1273.00,0.0127
1272.00,0.0130
1271.00,0.0133
1270.00,0.0136
1269.00,0.0140
1268.00,0.0145
1267.00,0.0150
1266.00,0.0155
1265.00,0.0160
1264.00,0.0164
1263.00,0.0168
1262.00,0.0172
1261.00,0.0175
1260.00,0.0179
1259.00,0.0184
1258.00,0.0189
1257.00,0.0193
1256.00,0.0196
1255.00,0.0196
1254.00,0.0194
1253.00,0.0190
1252.00,0.0185
1251.00,0.0179
1250.00,0.0174
1249.00,0.0169
1248.00,0.0165
1247.00,0.0161
1246.00,0.0159
1245.00,0.0157
1244.00,0.0156
1243.00,0.0156
1242.00,0.0154
1241.00,0.0153
1240.00,0.0151
1239.00,0.0149
1238.00,0.0147
1237.00,0.0145
1236.00,0.0142
1235.00,0.0140
1234.00,0.0138
1233.00,0.0135
1232.00,0.0133
1231.00,0.0131
1230.00,0.0130
1229.00,0.0128
1228.00,0.0127
1227.00,0.0127
1226.00,0.0127
1225.00,0.0129
1224.00,0.0131
1223.00,0.0134
1222.00,0.0137
1221.00,0.0139
1220.00,0.0140
1219.00,0.0140
1218.00,0.0138
1217.00,0.0136
1216.00,0.0132
1215.00,0.0127
1214.00,0.0122
1213.00,0.0118
1212.00,0.0114
1211.00,0.0110
1210.00,0.0107
1209.00,0.0104
1208.00,0.0102
1207.00,0.0100
1206.00,0.0098
1205.00,0.0097
1204.00,0.0096
1203.00,0.0096
1202.00,0.0096
1201.00,0.0096
1200.00,0.0097
1199.00,0.0097
1198.00,0.0098
1197.00,0.0098
1196.00,0.0099
1195.00,0.0099
1194.00,0.0100
1193.00,0.0102
1192.00,0.0104
1191.00,0.0106
1190.00,0.0108
1189.00,0.0109
1188.00,0.0111
1187.00,0.0113
1186.00,0.0116
1185.00,0.0119
1184.00,0.0123
1183.00,0.0126
1182.00,0.0130
1181.00,0.0135
1180.00,0.0140
1179.00,0.0146
1178.00,0.0153
1177.00,0.0161
1176.00,0.0171
1175.00,0.0185
1174.00,0.0202
1173.00,0.0222
1172.00,0.0244
1171.00,0.0269
1170.00,0.0293
1169.00,0.0312
1168.00,0.0326
1167.00,0.0332
1166.00,0.0332
1165.00,0.0329
1164.00,0.0323
1163.00,0.0317
1162.00,0.0312
1161.00,0.0308
1160.00,0.0305
1159.00,0.0304
1158.00,0.0304
1157.00,0.0305
1156.00,0.0308
1155.00,0.0310
1154.00,0.0311
1153.00,0.0311
1152.00,0.0309
1151.00,0.0305
1150.00,0.0298
1149.00,0.0290
1148.00,0.0280
1147.00,0.0271
1146.00,0.0262
1145.00,0.0253
1144.00,0.0245
1143.00,0.0238
1142.00,0.0231
1141.00,0.0224
1140.00,0.0218
1139.00,0.0213
1138.00,0.0209
1137.00,0.0206
1136.00,0.0202
1135.00,0.0199
1134.00,0.0196
1133.00,0.0195
1132.00,0.0195
1131.00,0.0194
1130.00,0.0193
1129.00,0.0192
1128.00,0.0192
1127.00,0.0193
1126.00,0.0193
1125.00,0.0193
1124.00,0.0193
1123.00,0.0193
1122.00,0.0193
1121.00,0.0193
1120.00,0.0192
1119.00,0.0192
1118.00,0.0192
1117.00,0.0193
1116.00,0.0193
1115.00,0.0193
1114.00,0.0194
1113.00,0.0194
1112.00,0.0195
1111.00,0.0197
1110.00,0.0200
1109.00,0.0205
1108.00,0.0211
1107.00,0.0219
1106.00,0.0227
1105.00,0.0235
1104.00,0.0241
1103.00,0.0245
1102.00,0.0245
1101.00,0.0243
1100.00,0.0238
1099.00,0.0232
1098.00,0.0226
1097.00,0.0221
1096.00,0.0216
1095.00,0.0212
1094.00,0.0209
1093.00,0.0208
1092.00,0.0207
1091.00,0.0207
1090.00,0.0207
1089.00,0.0206
1088.00,0.0204
1087.00,0.0203
1086.00,0.0201
1085.00,0.0200
1084.00,0.0199
1083.00,0.0198
1082.00,0.0196
1081.00,0.0195
1080.00,0.0193
1079.00,0.0192
1078.00,0.0190
1077.00,0.0189
1076.00,0.0188
1075.00,0.0189
1074.00,0.0189
1073.00,0.0190
1072.00,0.0190
1071.00,0.0189
1070.00,0.0186
1069.00,0.0182
1068.00,0.0178
1067.00,0.0175
1066.00,0.0172
1065.00,0.0170
1064.00,0.0169
1063.00,0.0168
1062.00,0.0167
1061.00,0.0166
1060.00,0.0164
1059.00,0.0162
1058.00,0.0160
1057.00,0.0156
1056.00,0.0153
1055.00,0.0151
1054.00,0.0149
1053.00,0.0148
1052.00,0.0146
1051.00,0.0145
1050.00,0.0144
1049.00,0.0143
1048.00,0.0142
1047.00,0.0141
1046.00,0.0140
1045.00,0.0140
1044.00,0.0138
1043.00,0.0137
1042.00,0.0135
1041.00,0.0134
1040.00,0.0132
1039.00,0.0131
1038.00,0.0130
1037.00,0.0129
1036.00,0.0129
1035.00,0.0128
1034.00,0.0128
1033.00,0.0127
1032.00,0.0126
1031.00,0.0126
1030.00,0.0125
1029.00,0.0124
1028.00,0.0123
1027.00,0.0121
1026.00,0.0120
1025.00,0.0118
1024.00,0.0117
1023.00,0.0116
1022.00,0.0116
1021.00,0.0115
1020.00,0.0115
1019.00,0.0116
1018.00,0.0117
1017.00,0.0118
1016.00,0.0119
1015.00,0.0120
1014.00,0.0121
1013.00,0.0122
1012.00,0.0123
1011.00,0.0125
1010.00,0.0127
1009.00,0.0129
1008.00,0.0133
1007.00,0.0138
1006.00,0.0144
1005.00,0.0152
1004.00,0.0162
1003.00,0.0174
1002.00,0.0191
1001.00,0.0213
1000.00,0.0235
999.00,0.0252
998.00,0.0259
997.00,0.0253
996.00,0.0235
995.00,0.0212
994.00,0.0187
993.00,0.0166
992.00,0.0149
991.00,0.0137
990.00,0.0128
989.00,0.0123
988.00,0.0121
987.00,0.0120
986.00,0.0121
985.00,0.0124
984.00,0.0128
983.00,0.0134
982.00,0.0145
981.00,0.0160
980.00,0.0179
979.00,0.0205
978.00,0.0236
977.00,0.0272
976.00,0.0309
975.00,0.0343
974.00,0.0366
973.00,0.0374
972.00,0.0366
971.00,0.0344
970.00,0.0315
969.00,0.0285
968.00,0.0259
967.00,0.0239
966.00,0.0224
965.00,0.0212
964.00,0.0202
963.00,0.0195
962.00,0.0189
961.00,0.0186
960.00,0.0185
959.00,0.0186
958.00,0.0186
957.00,0.0186
956.00,0.0184
955.00,0.0183
954.00,0.0181
953.00,0.0181
952.00,0.0180
951.00,0.0179
950.00,0.0177
949.00,0.0175
948.00,0.0173
947.00,0.0172
946.00,0.0173
945.00,0.0175
944.00,0.0178
943.00,0.0181
942.00,0.0183
941.00,0.0183
940.00,0.0180
939.00,0.0175
938.00,0.0168
937.00,0.0160
936.00,0.0150
935.00,0.0142
934.00,0.0134
933.00,0.0126
932.00,0.0120
931.00,0.0115
930.00,0.0110
929.00,0.0105
928.00,0.0102
927.00,0.0099
926.00,0.0098
925.00,0.0096
924.00,0.0095
923.00,0.0094
922.00,0.0094
921.00,0.0093
920.00,0.0093
919.00,0.0093
918.00,0.0093
917.00,0.0094
916.00,0.0094
915.00,0.0095
914.00,0.0095
913.00,0.0095
912.00,0.0096
911.00,0.0097
910.00,0.0099
909.00,0.0101
908.00,0.0104
907.00,0.0108
906.00,0.0116
905.00,0.0127
904.00,0.0144
903.00,0.0165
902.00,0.0189
901.00,0.0210
900.00,0.0224
899.00,0.0227
898.00,0.0219
897.00,0.0200
896.00,0.0177
895.00,0.0154
894.00,0.0135
893.00,0.0121
892.00,0.0112
891.00,0.0105
890.00,0.0100
889.00,0.0096
888.00,0.0092
887.00,0.0090
886.00,0.0088
885.00,0.0088
884.00,0.0088
883.00,0.0088
882.00,0.0089
881.00,0.0089
880.00,0.0089
879.00,0.0089
878.00,0.0088
877.00,0.0087
876.00,0.0087
875.00,0.0087
874.00,0.0087
873.00,0.0086
872.00,0.0087
871.00,0.0088
870.00,0.0089
869.00,0.0090
868.00,0.0090
867.00,0.0091
866.00,0.0092
865.00,0.0092
864.00,0.0092
863.00,0.0091
862.00,0.0091
861.00,0.0092
860.00,0.0093
859.00,0.0094
858.00,0.0095
857.00,0.0097
856.00,0.0099
855.00,0.0100
854.00,0.0102
853.00,0.0104
852.00,0.0106
851.00,0.0109
850.00,0.0113
849.00,0.0117
848.00,0.0123
847.00,0.0131
846.00,0.0144
845.00,0.0164
844.00,0.0190
843.00,0.0216
842.00,0.0235
841.00,0.0237
840.00,0.0223
839.00,0.0200
838.00,0.0176
837.00,0.0157
836.00,0.0145
835.00,0.0138
834.00,0.0134
833.00,0.0131
832.00,0.0129
831.00,0.0128
830.00,0.0129
829.00,0.0130
828.00,0.0131
827.00,0.0131
826.00,0.0130
825.00,0.0129
824.00,0.0129
823.00,0.0131
822.00,0.0133
821.00,0.0135
820.00,0.0138
819.00,0.0141
818.00,0.0146
817.00,0.0153
816.00,0.0164
815.00,0.0178
814.00,0.0195
813.00,0.0214
812.00,0.0235
811.00,0.0254
810.00,0.0269
809.00,0.0276
808.00,0.0273
807.00,0.0263
806.00,0.0246
805.00,0.0226
804.00,0.0206
803.00,0.0187
802.00,0.0172
801.00,0.0160
800.00,0.0152
799.00,0.0146
798.00,0.0142
797.00,0.0136
796.00,0.0130
795.00,0.0123
794.00,0.0117
793.00,0.0113
792.00,0.0111
791.00,0.0109
790.00,0.0106
789.00,0.0103
788.00,0.0100
787.00,0.0098
786.00,0.0097
785.00,0.0095
784.00,0.0094
783.00,0.0092
782.00,0.0089
781.00,0.0087
780.00,0.0084
779.00,0.0081
778.00,0.0080
777.00,0.0081
776.00,0.0082
775.00,0.0083
774.00,0.0084
773.00,0.0084
772.00,0.0086
771.00,0.0087
770.00,0.0089
769.00,0.0089
768.00,0.0090
767.00,0.0091
766.00,0.0091
765.00,0.0091
764.00,0.0090
763.00,0.0088
762.00,0.0087
761.00,0.0084
760.00,0.0082
759.00,0.0080
758.00,0.0079
757.00,0.0078
756.00,0.0077
755.00,0.0077
754.00,0.0077
753.00,0.0075
752.00,0.0074
751.00,0.0073
750.00,0.0073
749.00,0.0074
748.00,0.0075
747.00,0.0077
746.00,0.0080
745.00,0.0083
744.00,0.0084
743.00,0.0084
742.00,0.0084
741.00,0.0085
740.00,0.0086
739.00,0.0088
738.00,0.0089
737.00,0.0092
736.00,0.0096
735.00,0.0100
734.00,0.0104
733.00,0.0106
732.00,0.0107
731.00,0.0108
730.00,0.0109
729.00,0.0109
728.00,0.0109
727.00,0.0107
726.00,0.0105
725.00,0.0103
724.00,0.0103
723.00,0.0102
722.00,0.0101
721.00,0.0099
720.00,0.0096
719.00,0.0094
718.00,0.0091
717.00,0.0089
716.00,0.0088
715.00,0.0088
714.00,0.0088
713.00,0.0089
712.00,0.0089
711.00,0.0089
710.00,0.0090
709.00,0.0091
708.00,0.0091
707.00,0.0092
706.00,0.0092
705.00,0.0091
704.00,0.0090
703.00,0.0089
702.00,0.0086
701.00,0.0083
700.00,0.0080
699.00,0.0078
698.00,0.0077
697.00,0.0078
696.00,0.0079
695.00,0.0080
694.00,0.0080
693.00,0.0081
692.00,0.0081
691.00,0.0081
690.00,0.0080
689.00,0.0079
688.00,0.0079
687.00,0.0080
686.00,0.0081
685.00,0.0081
684.00,0.0081
683.00,0.0081
682.00,0.0082
681.00,0.0083
680.00,0.0082
679.00,0.0080
678.00,0.0078
677.00,0.0077
676.00,0.0076
675.00,0.0077
674.00,0.0078
673.00,0.0079
672.00,0.0079
671.00,0.0079
670.00,0.0080
669.00,0.0080
668.00,0.0079
667.00,0.0076
666.00,0.0074
665.00,0.0073
664.00,0.0073
663.00,0.0075
662.00,0.0077
661.00,0.0078
660.00,0.0078
659.00,0.0077
658.00,0.0077
657.00,0.0076
656.00,0.0077
655.00,0.0077
654.00,0.0077
653.00,0.0077
652.00,0.0077
651.00,0.0079
650.00,0.0082
649.00,0.0085
648.00,0.0086
647.00,0.0084
646.00,0.0080
645.00,0.0077
644.00,0.0076
643.00,0.0076
642.00,0.0077
641.00,0.0077
640.00,0.0077
639.00,0.0078
638.00,0.0080
637.00,0.0082
636.00,0.0083
635.00,0.0082
634.00,0.0082
633.00,0.0081
632.00,0.0082
631.00,0.0083
630.00,0.0084
629.00,0.0085
628.00,0.0086
627.00,0.0086
626.00,0.0085
625.00,0.0083
624.00,0.0081
623.00,0.0079
622.00,0.0079
621.00,0.0080
620.00,0.0081
619.00,0.0081
618.00,0.0082
617.00,0.0081
616.00,0.0081
615.00,0.0081
614.00,0.0082
613.00,0.0084
612.00,0.0084
611.00,0.0083
610.00,0.0081
609.00,0.0080
608.00,0.0081
607.00,0.0082
606.00,0.0084
605.00,0.0084
604.00,0.0083
603.00,0.0084
602.00,0.0085
601.00,0.0085
600.00,0.0083
599.00,0.0080
598.00,0.0077
597.00,0.0076
596.00,0.0077
595.00,0.0079
594.00,0.0081
593.00,0.0082
592.00,0.0081
591.00,0.0080
590.00,0.0079
589.00,0.0081
588.00,0.0083
587.00,0.0085
586.00,0.0086
585.00,0.0088
584.00,0.0089
583.00,0.0091
582.00,0.0094
581.00,0.0097
580.00,0.0098
579.00,0.0096
578.00,0.0093
577.00,0.0089
576.00,0.0086
575.00,0.0085
574.00,0.0086
573.00,0.0087
572.00,0.0086
571.00,0.0085
570.00,0.0085
569.00,0.0086
568.00,0.0088
567.00,0.0089
566.00,0.0088
565.00,0.0088
564.00,0.0090
563.00,0.0091
562.00,0.0091
561.00,0.0090
560.00,0.0089
559.00,0.0090
558.00,0.0093
557.00,0.0097
556.00,0.0098
555.00,0.0097
554.00,0.0095
553.00,0.0093
552.00,0.0091
551.00,0.0090
550.00,0.0091
549.00,0.0094
548.00,0.0097
547.00,0.0101
546.00,0.0104
545.00,0.0104
544.00,0.0100
543.00,0.0096
542.00,0.0093
541.00,0.0093
540.00,0.0095
539.00,0.0097
538.00,0.0098
537.00,0.0099
536.00,0.0101
535.00,0.0103
534.00,0.0105
533.00,0.0107
532.00,0.0111
531.00,0.0118
530.00,0.0125
529.00,0.0126
528.00,0.0120
527.00,0.0113
526.00,0.0108
525.00,0.0108
524.00,0.0110
523.00,0.0112
522.00,0.0114
521.00,0.0114
520.00,0.0112
519.00,0.0109
518.00,0.0105
517.00,0.0103
516.00,0.0103
515.00,0.0103
514.00,0.0103
513.00,0.0103
512.00,0.0103
511.00,0.0102
510.00,0.0100
509.00,0.0097
508.00,0.0094
507.00,0.0091
506.00,0.0089
505.00,0.0088
504.00,0.0088
503.00,0.0088
502.00,0.0086
501.00,0.0083
500.00,0.0081
499.00,0.0083
498.00,0.0087
497.00,0.0094
496.00,0.0101
495.00,0.0103
494.00,0.0096
493.00,0.0083
492.00,0.0070
491.00,0.0065
490.00,0.0070
489.00,0.0079
488.00,0.0086
487.00,0.0089
486.00,0.0091
485.00,0.0095
484.00,0.0099
483.00,0.0105
482.00,0.0109
481.00,0.0112
480.00,0.0110
479.00,0.0105
478.00,0.0099
477.00,0.0095
476.00,0.0093
475.00,0.0094
474.00,0.0100
473.00,0.0111
472.00,0.0121
471.00,0.0126
470.00,0.0128
469.00,0.0130
468.00,0.0136
467.00,0.0142
466.00,0.0144
465.00,0.0146
464.00,0.0153
463.00,0.0167
462.00,0.0185
461.00,0.0201
460.00,0.0212
459.00,0.0213
458.00,0.0204
457.00,0.0184
456.00,0.0167
455.00,0.0157
454.00,0.0155
453.00,0.0155
452.00,0.0150
451.00,0.0136
450.00,0.0119
