Created as New Dataset,Sample 037 By Administrator Date Wednesday, September 10 2025
cm-1,A
4000.00,0.0012
3999.00,0.0011
3998.00,0.0011
3997.00,0.0011
3996.00,0.0011
3995.00,0.0011
3994.00,0.0011
3993.00,0.0011
3992.00,0.0011
3991.00,0.0011
3990.00,0.0011
3989.00,0.0011
3988.00,0.0011
3987.00,0.0010
3986.00,0.0010
3985.00,0.0010
3984.00,0.0010
3983.00,0.0010
3982.00,0.0010
3981.00,0.0011
3980.00,0.0010
3979.00,0.0010
3978.00,0.0010
3977.00,0.0009
3976.00,0.0009
3975.00,0.0009
3974.00,0.0009
3973.00,0.0009
3972.00,0.0009
3971.00,0.0009
3970.00,0.0009
3969.00,0.0009
3968.00,0.0009
3967.00,0.0009
3966.00,0.0009
3965.00,0.0009
3964.00,0.0009
3963.00,0.0009
3962.00,0.0009
3961.00,0.0009
3960.00,0.0009
3959.00,0.0009
3958.00,0.0009
3957.00,0.0009
3956.00,0.0009
3955.00,0.0009
3954.00,0.0009
3953.00,0.0009
3952.00,0.0009
3951.00,0.0009
3950.00,0.0010
3949.00,0.0010
3948.00,0.0009
3947.00,0.0009
3946.00,0.0009
3945.00,0.0009
3944.00,0.0009
3943.00,0.0009
3942.00,0.0009
3941.00,0.0009
3940.00,0.0009
3939.00,0.0010
3938.00,0.0010
3937.00,0.0010
3936.00,0.0010
3935.00,0.0010
3934.00,0.0010
3933.00,0.0010
3932.00,0.0010
3931.00,0.0010
3930.00,0.0010
3929.00,0.0010
3928.00,0.0010
3927.00,0.0010
3926.00,0.0011
3925.00,0.0011
3924.00,0.0011
3923.00,0.0010
3922.00,0.0010
3921.00,0.0010
3920.00,0.0010
3919.00,0.0010
3918.00,0.0010
3917.00,0.0010
3916.00,0.0010
3915.00,0.0009
3914.00,0.0009
3913.00,0.0009
3912.00,0.0009
3911.00,0.0009
3910.00,0.0009
3909.00,0.0009
3908.00,0.0010
3907.00,0.0010
3906.00,0.0010
3905.00,0.0011
3904.00,0.0011
3903.00,0.0012
3902.00,0.0012
3901.00,0.0012
3900.00,0.0011
3899.00,0.0011
3898.00,0.0011
3897.00,0.0011
3896.00,0.0011
3895.00,0.0011
3894.00,0.0011
3893.00,0.0011
3892.00,0.0011
3891.00,0.0011
3890.00,0.0011
3889.00,0.0011
3888.00,0.0011
3887.00,0.0010
3886.00,0.0010
3885.00,0.0010
3884.00,0.0010
3883.00,0.0010
3882.00,0.0010
3881.00,0.0010
3880.00,0.0010
3879.00,0.0010
3878.00,0.0010
3877.00,0.0010
3876.00,0.0010
3875.00,0.0010
3874.00,0.0010
3873.00,0.0010
3872.00,0.0010
3871.00,0.0010
3870.00,0.0010
3869.00,0.0010
3868.00,0.0010
3867.00,0.0011
3866.00,0.0011
3865.00,0.0010
3864.00,0.0010
3863.00,0.0009
3862.00,0.0009
3861.00,0.0009
3860.00,0.0009
3859.00,0.0009
3858.00,0.0010
3857.00,0.0011
3856.00,0.0012
3855.00,0.0012
3854.00,0.0011
3853.00,0.0011
3852.00,0.0012
3851.00,0.0012
3850.00,0.0011
3849.00,0.0010
3848.00,0.0009
3847.00,0.0009
3846.00,0.0009
3845.00,0.0009
3844.00,0.0009
3843.00,0.0009
3842.00,0.0009
3841.00,0.0010
3840.00,0.0011
3839.00,0.0011
3838.00,0.0011
3837.00,0.0011
3836.00,0.0011
3835.00,0.0011
3834.00,0.0010
3833.00,0.0010
3832.00,0.0009
3831.00,0.0009
3830.00,0.0009
3829.00,0.0009
3828.00,0.0009
3827.00,0.0009
3826.00,0.0009
3825.00,0.0010
3824.00,0.0010
3823.00,0.0011
3822.00,0.0011
3821.00,0.0011
3820.00,0.0011
3819.00,0.0011
3818.00,0.0011
3817.00,0.0010
3816.00,0.0010
3815.00,0.0010
3814.00,0.0010
3813.00,0.0010
3812.00,0.0009
3811.00,0.0009
3810.00,0.0009
3809.00,0.0009
3808.00,0.0009
3807.00,0.0009
3806.00,0.0009
3805.00,0.0010
3804.00,0.0010
3803.00,0.0010
3802.00,0.0010
3801.00,0.0010
3800.00,0.0010
3799.00,0.0011
3798.00,0.0010
3797.00,0.0010
3796.00,0.0009
3795.00,0.0009
3794.00,0.0009
3793.00,0.0009
3792.00,0.0009
3791.00,0.0009
3790.00,0.0009
3789.00,0.0008
3788.00,0.0008
3787.00,0.0008
3786.00,0.0008
3785.00,0.0008
3784.00,0.0008
3783.00,0.0008
3782.00,0.0008
3781.00,0.0008
3780.00,0.0008
3779.00,0.0008
3778.00,0.0009
3777.00,0.0009
3776.00,0.0009
3775.00,0.0009
3774.00,0.0009
3773.00,0.0010
3772.00,0.0010
3771.00,0.0010
3770.00,0.0010
3769.00,0.0010
3768.00,0.0010
3767.00,0.0010
3766.00,0.0009
3765.00,0.0010
3764.00,0.0010
3763.00,0.0010
3762.00,0.0010
3761.00,0.0010
3760.00,0.0010
3759.00,0.0010
3758.00,0.0010
3757.00,0.0011
3756.00,0.0011
3755.00,0.0012
3754.00,0.0013
3753.00,0.0013
3752.00,0.0014
3751.00,0.0014
3750.00,0.0014
3749.00,0.0014
3748.00,0.0014
3747.00,0.0013
3746.00,0.0013
3745.00,0.0012
3744.00,0.0011
3743.00,0.0011
3742.00,0.0011
3741.00,0.0010
3740.00,0.0010
3739.00,0.0010
3738.00,0.0011
3737.00,0.0011
3736.00,0.0011
3735.00,0.0011
3734.00,0.0010
3733.00,0.0009
3732.00,0.0009
3731.00,0.0008
3730.00,0.0008
3729.00,0.0008
3728.00,0.0008
3727.00,0.0008
3726.00,0.0008
3725.00,0.0008
3724.00,0.0008
3723.00,0.0008
3722.00,0.0008
3721.00,0.0008
3720.00,0.0009
3719.00,0.0009
3718.00,0.0009
3717.00,0.0009
3716.00,0.0009
3715.00,0.0010
3714.00,0.0010
3713.00,0.0010
3712.00,0.0009
3711.00,0.0009
3710.00,0.0009
3709.00,0.0009
3708.00,0.0009
3707.00,0.0009
3706.00,0.0009
3705.00,0.0009
3704.00,0.0008
3703.00,0.0008
3702.00,0.0008
3701.00,0.0008
3700.00,0.0009
3699.00,0.0009
3698.00,0.0008
3697.00,0.0008
3696.00,0.0008
3695.00,0.0008
3694.00,0.0009
3693.00,0.0009
3692.00,0.0010
3691.00,0.0010
3690.00,0.0010
3689.00,0.0011
3688.00,0.0011
3687.00,0.0011
3686.00,0.0011
3685.00,0.0011
3684.00,0.0011
3683.00,0.0011
3682.00,0.0011
3681.00,0.0010
3680.00,0.0010
3679.00,0.0011
3678.00,0.0012
3677.00,0.0013
3676.00,0.0013
3675.00,0.0013
3674.00,0.0014
3673.00,0.0014
3672.00,0.0014
3671.00,0.0014
3670.00,0.0014
3669.00,0.0014
3668.00,0.0013
3667.00,0.0013
3666.00,0.0012
3665.00,0.0011
3664.00,0.0011
3663.00,0.0011
3662.00,0.0012
3661.00,0.0012
3660.00,0.0013
3659.00,0.0013
3658.00,0.0013
3657.00,0.0013
3656.00,0.0013
3655.00,0.0014
3654.00,0.0015
3653.00,0.0015
3652.00,0.0016
3651.00,0.0016
3650.00,0.0017
3649.00,0.0017
3648.00,0.0018
3647.00,0.0018
3646.00,0.0018
3645.00,0.0018
3644.00,0.0017
3643.00,0.0016
3642.00,0.0016
3641.00,0.0015
3640.00,0.0015
3639.00,0.0016
3638.00,0.0016
3637.00,0.0016
3636.00,0.0016
3635.00,0.0016
3634.00,0.0016
3633.00,0.0017
3632.00,0.0018
3631.00,0.0018
3630.00,0.0019
3629.00,0.0019
3628.00,0.0019
3627.00,0.0019
3626.00,0.0019
3625.00,0.0019
3624.00,0.0019
3623.00,0.0020
3622.00,0.0020
3621.00,0.0020
3620.00,0.0021
3619.00,0.0022
3618.00,0.0023
3617.00,0.0024
3616.00,0.0024
3615.00,0.0024
3614.00,0.0025
3613.00,0.0025
3612.00,0.0025
3611.00,0.0025
3610.00,0.0025
3609.00,0.0025
3608.00,0.0025
3607.00,0.0025
3606.00,0.0025
3605.00,0.0025
3604.00,0.0025
3603.00,0.0025
3602.00,0.0025
3601.00,0.0026
3600.00,0.0026
3599.00,0.0026
3598.00,0.0027
3597.00,0.0028
3596.00,0.0029
3595.00,0.0029
3594.00,0.0030
3593.00,0.0030
3592.00,0.0030
3591.00,0.0031
3590.00,0.0031
3589.00,0.0032
3588.00,0.0033
3587.00,0.0034
3586.00,0.0035
3585.00,0.0035
3584.00,0.0035
3583.00,0.0035
3582.00,0.0035
3581.00,0.0035
3580.00,0.0036
3579.00,0.0036
3578.00,0.0037
3577.00,0.0037
3576.00,0.0037
3575.00,0.0038
3574.00,0.0038
3573.00,0.0038
3572.00,0.0039
3571.00,0.0040
3570.00,0.0042
3569.00,0.0043
3568.00,0.0044
3567.00,0.0045
3566.00,0.0045
3565.00,0.0044
3564.00,0.0044
3563.00,0.0044
3562.00,0.0045
3561.00,0.0045
3560.00,0.0046
3559.00,0.0046
3558.00,0.0046
3557.00,0.0046
3556.00,0.0047
3555.00,0.0048
3554.00,0.0049
3553.00,0.0049
3552.00,0.0050
3551.00,0.0050
3550.00,0.0051
3549.00,0.0052
3548.00,0.0053
3547.00,0.0054
3546.00,0.0054
3545.00,0.0055
3544.00,0.0055
3543.00,0.0055
3542.00,0.0055
3541.00,0.0056
3540.00,0.0056
3539.00,0.0057
3538.00,0.0057
3537.00,0.0058
3536.00,0.0059
3535.00,0.0060
3534.00,0.0060
3533.00,0.0061
3532.00,0.0061
3531.00,0.0061
3530.00,0.0062
3529.00,0.0063
3528.00,0.0064
3527.00,0.0065
3526.00,0.0066
3525.00,0.0066
3524.00,0.0067
3523.00,0.0067
3522.00,0.0067
3521.00,0.0067
3520.00,0.0067
3519.00,0.0068
3518.00,0.0068
3517.00,0.0069
3516.00,0.0069
3515.00,0.0070
3514.00,0.0071
3513.00,0.0071
3512.00,0.0072
3511.00,0.0072
3510.00,0.0073
3509.00,0.0074
3508.00,0.0075
3507.00,0.0075
3506.00,0.0076
3505.00,0.0076
3504.00,0.0077
3503.00,0.0078
3502.00,0.0078
3501.00,0.0078
3500.00,0.0079
3499.00,0.0079
3498.00,0.0080
3497.00,0.0080
3496.00,0.0081
3495.00,0.0082
3494.00,0.0083
3493.00,0.0084
3492.00,0.0084
3491.00,0.0085
3490.00,0.0085
3489.00,0.0085
3488.00,0.0086
3487.00,0.0087
3486.00,0.0087
3485.00,0.0088
3484.00,0.0088
3483.00,0.0089
3482.00,0.0090
3481.00,0.0090
3480.00,0.0091
3479.00,0.0091
3478.00,0.0092
3477.00,0.0092
3476.00,0.0093
3475.00,0.0093
3474.00,0.0093
3473.00,0.0094
3472.00,0.0094
3471.00,0.0095
3470.00,0.0095
3469.00,0.0096
3468.00,0.0096
3467.00,0.0097
3466.00,0.0098
3465.00,0.0098
3464.00,0.0098
3463.00,0.0099
3462.00,0.0100
3461.00,0.0101
3460.00,0.0101
3459.00,0.0101
3458.00,0.0101
3457.00,0.0102
3456.00,0.0102
3455.00,0.0102
3454.00,0.0102
3453.00,0.0103
3452.00,0.0103
3451.00,0.0104
3450.00,0.0105
3449.00,0.0106
3448.00,0.0106
3447.00,0.0107
3446.00,0.0107
3445.00,0.0107
3444.00,0.0107
3443.00,0.0108
3442.00,0.0108
3441.00,0.0109
3440.00,0.0110
3439.00,0.0111
3438.00,0.0112
3437.00,0.0112
3436.00,0.0112
3435.00,0.0112
3434.00,0.0113
3433.00,0.0113
3432.00,0.0113
3431.00,0.0114
3430.00,0.0114
3429.00,0.0115
3428.00,0.0115
3427.00,0.0115
3426.00,0.0116
3425.00,0.0116
3424.00,0.0116
3423.00,0.0117
3422.00,0.0117
3421.00,0.0118
3420.00,0.0119
3419.00,0.0119
3418.00,0.0120
3417.00,0.0120
3416.00,0.0121
3415.00,0.0122
3414.00,0.0122
3413.00,0.0122
3412.00,0.0122
3411.00,0.0122
3410.00,0.0123
3409.00,0.0123
3408.00,0.0123
3407.00,0.0123
3406.00,0.0123
3405.00,0.0123
3404.00,0.0123
3403.00,0.0124
3402.00,0.0124
3401.00,0.0124
3400.00,0.0124
3399.00,0.0124
3398.00,0.0125
3397.00,0.0125
3396.00,0.0125
3395.00,0.0125
3394.00,0.0126
3393.00,0.0126
3392.00,0.0126
3391.00,0.0127
3390.00,0.0127
3389.00,0.0127
3388.00,0.0127
3387.00,0.0127
3386.00,0.0127
3385.00,0.0127
3384.00,0.0127
3383.00,0.0127
3382.00,0.0127
3381.00,0.0127
3380.00,0.0128
3379.00,0.0128
3378.00,0.0128
3377.00,0.0128
3376.00,0.0128
3375.00,0.0128
3374.00,0.0128
3373.00,0.0129
3372.00,0.0129
3371.00,0.0130
3370.00,0.0130
3369.00,0.0130
3368.00,0.0130
3367.00,0.0130
3366.00,0.0130
3365.00,0.0130
3364.00,0.0130
3363.00,0.0130
3362.00,0.0131
3361.00,0.0131
3360.00,0.0131
3359.00,0.0131
3358.00,0.0131
3357.00,0.0131
3356.00,0.0131
3355.00,0.0131
3354.00,0.0131
3353.00,0.0131
3352.00,0.0131
3351.00,0.0131
3350.00,0.0131
3349.00,0.0131
3348.00,0.0131
3347.00,0.0131
3346.00,0.0132
3345.00,0.0132
3344.00,0.0132
3343.00,0.0132
3342.00,0.0132
3341.00,0.0132
3340.00,0.0131
3339.00,0.0131
3338.00,0.0131
3337.00,0.0131
3336.00,0.0132
3335.00,0.0132
3334.00,0.0132
3333.00,0.0132
3332.00,0.0131
3331.00,0.0131
3330.00,0.0131
3329.00,0.0131
3328.00,0.0131
3327.00,0.0131
3326.00,0.0131
3325.00,0.0132
3324.00,0.0131
3323.00,0.0131
3322.00,0.0131
3321.00,0.0130
3320.00,0.0130
3319.00,0.0131
3318.00,0.0131
3317.00,0.0131
3316.00,0.0131
3315.00,0.0130
3314.00,0.0130
3313.00,0.0130
3312.00,0.0129
3311.00,0.0129
3310.00,0.0129
3309.00,0.0129
3308.00,0.0129
3307.00,0.0129
3306.00,0.0129
3305.00,0.0128
3304.00,0.0128
3303.00,0.0127
3302.00,0.0127
3301.00,0.0127
3300.00,0.0127
3299.00,0.0127
3298.00,0.0126
3297.00,0.0126
3296.00,0.0125
3295.00,0.0125
3294.00,0.0125
3293.00,0.0125
3292.00,0.0125
3291.00,0.0124
3290.00,0.0124
3289.00,0.0123
3288.00,0.0123
3287.00,0.0123
3286.00,0.0123
3285.00,0.0123
3284.00,0.0122
3283.00,0.0122
3282.00,0.0121
3281.00,0.0121
3280.00,0.0120
3279.00,0.0120
3278.00,0.0120
3277.00,0.0120
3276.00,0.0120
3275.00,0.0119
3274.00,0.0119
3273.00,0.0119
3272.00,0.0119
3271.00,0.0118
3270.00,0.0117
3269.00,0.0117
3268.00,0.0116
3267.00,0.0116
3266.00,0.0115
3265.00,0.0115
3264.00,0.0115
3263.00,0.0114
3262.00,0.0114
3261.00,0.0113
3260.00,0.0112
3259.00,0.0112
3258.00,0.0112
3257.00,0.0111
3256.00,0.0111
3255.00,0.0111
3254.00,0.0110
3253.00,0.0109
3252.00,0.0108
3251.00,0.0108
3250.00,0.0108
3249.00,0.0107
3248.00,0.0107
3247.00,0.0107
3246.00,0.0107
3245.00,0.0107
3244.00,0.0107
3243.00,0.0107
3242.00,0.0106
3241.00,0.0106
3240.00,0.0105
3239.00,0.0105
3238.00,0.0105
3237.00,0.0104
3236.00,0.0104
3235.00,0.0104
3234.00,0.0103
3233.00,0.0103
3232.00,0.0103
3231.00,0.0102
3230.00,0.0102
3229.00,0.0102
3228.00,0.0102
3227.00,0.0102
3226.00,0.0102
3225.00,0.0102
3224.00,0.0102
3223.00,0.0102
3222.00,0.0102
3221.00,0.0102
3220.00,0.0102
3219.00,0.0102
3218.00,0.0102
3217.00,0.0102
3216.00,0.0102
3215.00,0.0102
3214.00,0.0102
3213.00,0.0102
3212.00,0.0101
3211.00,0.0101
3210.00,0.0101
3209.00,0.0101
3208.00,0.0101
3207.00,0.0101
3206.00,0.0101
3205.00,0.0102
3204.00,0.0102
3203.00,0.0102
3202.00,0.0102
3201.00,0.0102
3200.00,0.0102
3199.00,0.0101
3198.00,0.0101
3197.00,0.0101
3196.00,0.0100
3195.00,0.0100
3194.00,0.0100
3193.00,0.0099
3192.00,0.0099
3191.00,0.0099
3190.00,0.0098
3189.00,0.0098
3188.00,0.0098
3187.00,0.0097
3186.00,0.0097
3185.00,0.0097
3184.00,0.0096
3183.00,0.0096
3182.00,0.0096
3181.00,0.0095
3180.00,0.0095
3179.00,0.0094
3178.00,0.0093
3177.00,0.0092
3176.00,0.0092
3175.00,0.0091
3174.00,0.0091
3173.00,0.0090
3172.00,0.0090
3171.00,0.0090
3170.00,0.0089
3169.00,0.0089
3168.00,0.0088
3167.00,0.0088
3166.00,0.0087
3165.00,0.0087
3164.00,0.0086
3163.00,0.0086
3162.00,0.0086
3161.00,0.0085
3160.00,0.0085
3159.00,0.0084
3158.00,0.0084
3157.00,0.0084
3156.00,0.0083
3155.00,0.0083
3154.00,0.0083
3153.00,0.0083
3152.00,0.0083
3151.00,0.0083
3150.00,0.0083
3149.00,0.0083
3148.00,0.0082
3147.00,0.0082
3146.00,0.0081
3145.00,0.0081
3144.00,0.0080
3143.00,0.0080
3142.00,0.0079
3141.00,0.0079
3140.00,0.0079
3139.00,0.0078
3138.00,0.0078
3137.00,0.0077
3136.00,0.0077
3135.00,0.0077
3134.00,0.0077
3133.00,0.0077
3132.00,0.0077
3131.00,0.0077
3130.00,0.0076
3129.00,0.0075
3128.00,0.0075
3127.00,0.0075
3126.00,0.0074
3125.00,0.0074
3124.00,0.0073
3123.00,0.0073
3122.00,0.0072
3121.00,0.0071
3120.00,0.0070
3119.00,0.0070
3118.00,0.0069
3117.00,0.0069
3116.00,0.0069
3115.00,0.0069
3114.00,0.0069
3113.00,0.0069
3112.00,0.0068
3111.00,0.0068
3110.00,0.0067
3109.00,0.0067
3108.00,0.0067
3107.00,0.0067
3106.00,0.0067
3105.00,0.0067
3104.00,0.0067
3103.00,0.0066
3102.00,0.0066
3101.00,0.0065
3100.00,0.0065
3099.00,0.0065
3098.00,0.0065
3097.00,0.0065
3096.00,0.0065
3095.00,0.0065
3094.00,0.0064
3093.00,0.0064
3092.00,0.0063
3091.00,0.0062
3090.00,0.0062
3089.00,0.0061
3088.00,0.0061
3087.00,0.0061
3086.00,0.0060
3085.00,0.0060
3084.00,0.0060
3083.00,0.0060
3082.00,0.0060
3081.00,0.0060
3080.00,0.0060
3079.00,0.0060
3078.00,0.0060
3077.00,0.0060
3076.00,0.0060
3075.00,0.0059
3074.00,0.0059
3073.00,0.0059
3072.00,0.0059
3071.00,0.0060
3070.00,0.0060
3069.00,0.0060
3068.00,0.0060
3067.00,0.0060
3066.00,0.0060
3065.00,0.0061
3064.00,0.0061
3063.00,0.0061
3062.00,0.0061
3061.00,0.0061
3060.00,0.0061
3059.00,0.0061
3058.00,0.0060
3057.00,0.0060
3056.00,0.0060
3055.00,0.0060
3054.00,0.0060
3053.00,0.0060
3052.00,0.0060
3051.00,0.0060
3050.00,0.0060
3049.00,0.0061
3048.00,0.0061
3047.00,0.0061
3046.00,0.0062
3045.00,0.0062
3044.00,0.0062
3043.00,0.0062
3042.00,0.0062
3041.00,0.0062
3040.00,0.0063
3039.00,0.0063
3038.00,0.0063
3037.00,0.0063
3036.00,0.0064
3035.00,0.0064
3034.00,0.0064
3033.00,0.0065
3032.00,0.0065
3031.00,0.0065
3030.00,0.0066
3029.00,0.0066
3028.00,0.0066
3027.00,0.0066
3026.00,0.0067
3025.00,0.0067
3024.00,0.0068
3023.00,0.0068
3022.00,0.0068
3021.00,0.0069
3020.00,0.0069
3019.00,0.0070
3018.00,0.0071
3017.00,0.0072
3016.00,0.0073
3015.00,0.0073
3014.00,0.0074
3013.00,0.0075
3012.00,0.0076
3011.00,0.0077
3010.00,0.0079
3009.00,0.0080
3008.00,0.0082
3007.00,0.0083
3006.00,0.0085
3005.00,0.0087
3004.00,0.0088
3003.00,0.0091
3002.00,0.0093
3001.00,0.0095
3000.00,0.0097
2999.00,0.0099
2998.00,0.0102
2997.00,0.0106
2996.00,0.0109
2995.00,0.0114
2994.00,0.0118
2993.00,0.0123
2992.00,0.0129
2991.00,0.0134
2990.00,0.0140
2989.00,0.0147
2988.00,0.0154
2987.00,0.0162
2986.00,0.0171
2985.00,0.0182
2984.00,0.0193
2983.00,0.0206
2982.00,0.0221
2981.00,0.0237
2980.00,0.0255
2979.00,0.0275
2978.00,0.0298
2977.00,0.0324
2976.00,0.0353
2975.00,0.0386
2974.00,0.0423
2973.00,0.0466
2972.00,0.0515
2971.00,0.0569
2970.00,0.0629
2969.00,0.0694
2968.00,0.0765
2967.00,0.0839
2966.00,0.0915
2965.00,0.0992
2964.00,0.1067
2963.00,0.1135
2962.00,0.1196
2961.00,0.1247
2960.00,0.1291
2959.00,0.1329
2958.00,0.1368
2957.00,0.1411
2956.00,0.1463
2955.00,0.1526
2954.00,0.1597
2953.00,0.1674
2952.00,0.1747
2951.00,0.1808
2950.00,0.1845
2949.00,0.1848
2948.00,0.1813
2947.00,0.1741
2946.00,0.1640
2945.00,0.1522
2944.00,0.1403
2943.00,0.1295
2942.00,0.1207
2941.00,0.1143
2940.00,0.1104
2939.00,0.1088
2938.00,0.1092
2937.00,0.1115
2936.00,0.1155
2935.00,0.1209
2934.00,0.1277
2933.00,0.1357
2932.00,0.1448
2931.00,0.1548
2930.00,0.1654
2929.00,0.1764
2928.00,0.1874
2927.00,0.1981
2926.00,0.2085
2925.00,0.2184
2924.00,0.2279
2923.00,0.2372
2922.00,0.2463
2921.00,0.2551
2920.00,0.2630
2919.00,0.2693
2918.00,0.2730
2917.00,0.2732
2916.00,0.2697
2915.00,0.2628
2914.00,0.2534
2913.00,0.2426
2912.00,0.2315
2911.00,0.2209
2910.00,0.2110
2909.00,0.2019
2908.00,0.1936
2907.00,0.1857
2906.00,0.1780
2905.00,0.1706
2904.00,0.1633
2903.00,0.1561
2902.00,0.1491
2901.00,0.1424
2900.00,0.1361
2899.00,0.1301
2898.00,0.1246
2897.00,0.1196
2896.00,0.1152
2895.00,0.1115
2894.00,0.1084
2893.00,0.1060
2892.00,0.1042
2891.00,0.1030
2890.00,0.1024
2889.00,0.1023
2888.00,0.1025
2887.00,0.1032
2886.00,0.1041
2885.00,0.1054
2884.00,0.1072
2883.00,0.1095
2882.00,0.1123
2881.00,0.1155
2880.00,0.1187
2879.00,0.1216
2878.00,0.1237
2877.00,0.1248
2876.00,0.1249
2875.00,0.1244
2874.00,0.1237
2873.00,0.1234
2872.00,0.1239
2871.00,0.1251
2870.00,0.1270
2869.00,0.1291
2868.00,0.1307
2867.00,0.1310
2866.00,0.1293
2865.00,0.1250
2864.00,0.1184
2863.00,0.1103
2862.00,0.1015
2861.00,0.0932
2860.00,0.0860
2859.00,0.0802
2858.00,0.0757
2857.00,0.0725
2856.00,0.0703
2855.00,0.0690
2854.00,0.0683
2853.00,0.0682
2852.00,0.0685
2851.00,0.0692
2850.00,0.0704
2849.00,0.0719
2848.00,0.0739
2847.00,0.0766
2846.00,0.0801
2845.00,0.0844
2844.00,0.0895
2843.00,0.0954
2842.00,0.1015
2841.00,0.1075
2840.00,0.1126
2839.00,0.1160
2838.00,0.1168
2837.00,0.1147
2836.00,0.1094
2835.00,0.1015
2834.00,0.0918
2833.00,0.0815
2832.00,0.0716
2831.00,0.0626
2830.00,0.0550
2829.00,0.0488
2828.00,0.0438
2827.00,0.0397
2826.00,0.0364
2825.00,0.0337
2824.00,0.0314
2823.00,0.0295
2822.00,0.0279
2821.00,0.0264
2820.00,0.0252
2819.00,0.0241
2818.00,0.0232
2817.00,0.0224
2816.00,0.0217
2815.00,0.0210
2814.00,0.0204
2813.00,0.0199
2812.00,0.0194
2811.00,0.0188
2810.00,0.0183
2809.00,0.0177
2808.00,0.0171
2807.00,0.0165
2806.00,0.0158
2805.00,0.0152
2804.00,0.0145
2803.00,0.0139
2802.00,0.0134
2801.00,0.0129
2800.00,0.0125
2799.00,0.0122
2798.00,0.0119
2797.00,0.0117
2796.00,0.0115
2795.00,0.0113
2794.00,0.0110
2793.00,0.0108
2792.00,0.0105
2791.00,0.0101
2790.00,0.0098
2789.00,0.0095
2788.00,0.0093
2787.00,0.0090
2786.00,0.0088
2785.00,0.0086
2784.00,0.0084
2783.00,0.0082
2782.00,0.0080
2781.00,0.0078
2780.00,0.0076
2779.00,0.0074
2778.00,0.0073
2777.00,0.0071
2776.00,0.0070
2775.00,0.0069
2774.00,0.0068
2773.00,0.0067
2772.00,0.0066
2771.00,0.0066
2770.00,0.0065
2769.00,0.0065
2768.00,0.0064
2767.00,0.0064
2766.00,0.0064
2765.00,0.0064
2764.00,0.0063
2763.00,0.0063
2762.00,0.0063
2761.00,0.0063
2760.00,0.0063
2759.00,0.0062
2758.00,0.0062
2757.00,0.0062
2756.00,0.0061
2755.00,0.0061
2754.00,0.0061
2753.00,0.0061
2752.00,0.0061
2751.00,0.0061
2750.00,0.0061
2749.00,0.0060
2748.00,0.0061
2747.00,0.0061
2746.00,0.0061
2745.00,0.0062
2744.00,0.0063
2743.00,0.0063
2742.00,0.0064
2741.00,0.0065
2740.00,0.0067
2739.00,0.0068
2738.00,0.0069
2737.00,0.0071
2736.00,0.0072
2735.00,0.0073
2734.00,0.0074
2733.00,0.0076
2732.00,0.0078
2731.00,0.0080
2730.00,0.0082
2729.00,0.0084
2728.00,0.0086
2727.00,0.0089
2726.00,0.0091
2725.00,0.0094
2724.00,0.0095
2723.00,0.0096
2722.00,0.0095
2721.00,0.0092
2720.00,0.0090
2719.00,0.0086
2718.00,0.0083
2717.00,0.0080
2716.00,0.0078
2715.00,0.0075
2714.00,0.0072
2713.00,0.0070
2712.00,0.0068
2711.00,0.0066
2710.00,0.0064
2709.00,0.0063
2708.00,0.0061
2707.00,0.0060
2706.00,0.0058
2705.00,0.0057
2704.00,0.0056
2703.00,0.0055
2702.00,0.0054
2701.00,0.0054
2700.00,0.0053
2699.00,0.0052
2698.00,0.0052
2697.00,0.0052
2696.00,0.0052
2695.00,0.0051
2694.00,0.0051
2693.00,0.0051
2692.00,0.0051
2691.00,0.0051
2690.00,0.0051
2689.00,0.0051
2688.00,0.0051
2687.00,0.0051
2686.00,0.0051
2685.00,0.0051
2684.00,0.0051
2683.00,0.0051
2682.00,0.0051
2681.00,0.0051
2680.00,0.0051
2679.00,0.0051
2678.00,0.0051
2677.00,0.0051
2676.00,0.0051
2675.00,0.0051
2674.00,0.0051
2673.00,0.0051
2672.00,0.0051
2671.00,0.0050
2670.00,0.0050
2669.00,0.0050
2668.00,0.0050
2667.00,0.0050
2666.00,0.0051
2665.00,0.0051
2664.00,0.0051
2663.00,0.0052
2662.00,0.0052
2661.00,0.0052
2660.00,0.0053
2659.00,0.0053
2658.00,0.0053
2657.00,0.0052
2656.00,0.0052
2655.00,0.0052
2654.00,0.0051
2653.00,0.0051
2652.00,0.0050
2651.00,0.0050
2650.00,0.0049
2649.00,0.0048
2648.00,0.0048
2647.00,0.0048
2646.00,0.0048
2645.00,0.0048
2644.00,0.0047
2643.00,0.0047
2642.00,0.0046
2641.00,0.0046
2640.00,0.0045
2639.00,0.0044
2638.00,0.0044
2637.00,0.0043
2636.00,0.0043
2635.00,0.0042
2634.00,0.0042
2633.00,0.0043
2632.00,0.0043
2631.00,0.0044
2630.00,0.0044
2629.00,0.0044
2628.00,0.0044
2627.00,0.0044
2626.00,0.0044
2625.00,0.0044
2624.00,0.0044
2623.00,0.0045
2622.00,0.0045
2621.00,0.0045
2620.00,0.0045
2619.00,0.0045
2618.00,0.0045
2617.00,0.0045
2616.00,0.0044
2615.00,0.0044
2614.00,0.0043
2613.00,0.0043
2612.00,0.0043
2611.00,0.0043
2610.00,0.0042
2609.00,0.0041
2608.00,0.0041
2607.00,0.0040
2606.00,0.0039
2605.00,0.0039
2604.00,0.0038
2603.00,0.0037
2602.00,0.0036
2601.00,0.0036
2600.00,0.0036
2599.00,0.0036
2598.00,0.0036
2597.00,0.0036
2596.00,0.0036
2595.00,0.0036
2594.00,0.0037
2593.00,0.0037
2592.00,0.0038
2591.00,0.0039
2590.00,0.0039
2589.00,0.0040
2588.00,0.0041
2587.00,0.0042
2586.00,0.0043
2585.00,0.0044
2584.00,0.0044
2583.00,0.0045
2582.00,0.0045
2581.00,0.0044
2580.00,0.0044
2579.00,0.0042
2578.00,0.0041
2577.00,0.0040
2576.00,0.0039
2575.00,0.0038
2574.00,0.0038
2573.00,0.0037
2572.00,0.0036
2571.00,0.0035
2570.00,0.0034
2569.00,0.0033
2568.00,0.0032
2567.00,0.0030
2566.00,0.0029
2565.00,0.0028
2564.00,0.0027
2563.00,0.0026
2562.00,0.0026
2561.00,0.0026
2560.00,0.0026
2559.00,0.0027
2558.00,0.0027
2557.00,0.0027
2556.00,0.0026
2555.00,0.0026
2554.00,0.0026
2553.00,0.0025
2552.00,0.0025
2551.00,0.0025
2550.00,0.0025
2549.00,0.0025
2548.00,0.0024
2547.00,0.0024
2546.00,0.0023
2545.00,0.0022
2544.00,0.0022
2543.00,0.0021
2542.00,0.0020
2541.00,0.0019
2540.00,0.0019
2539.00,0.0019
2538.00,0.0020
2537.00,0.0020
2536.00,0.0020
2535.00,0.0020
2534.00,0.0020
2533.00,0.0020
2532.00,0.0020
2531.00,0.0020
2530.00,0.0020
2529.00,0.0020
2528.00,0.0019
2527.00,0.0018
2526.00,0.0017
2525.00,0.0018
2524.00,0.0018
2523.00,0.0019
2522.00,0.0018
2521.00,0.0017
2520.00,0.0016
2519.00,0.0016
2518.00,0.0016
2517.00,0.0017
2516.00,0.0017
2515.00,0.0016
2514.00,0.0015
2513.00,0.0014
2512.00,0.0014
2511.00,0.0015
2510.00,0.0015
2509.00,0.0015
2508.00,0.0016
2507.00,0.0016
2506.00,0.0015
2505.00,0.0015
2504.00,0.0015
2503.00,0.0014
2502.00,0.0014
2501.00,0.0015
2500.00,0.0015
2499.00,0.0015
2498.00,0.0015
2497.00,0.0015
2496.00,0.0014
2495.00,0.0014
2494.00,0.0014
2493.00,0.0015
2492.00,0.0014
2491.00,0.0014
2490.00,0.0014
2489.00,0.0014
2488.00,0.0014
2487.00,0.0014
2486.00,0.0014
2485.00,0.0014
2484.00,0.0014
2483.00,0.0014
2482.00,0.0014
2481.00,0.0014
2480.00,0.0014
2479.00,0.0014
2478.00,0.0014
2477.00,0.0014
2476.00,0.0014
2475.00,0.0015
2474.00,0.0014
2473.00,0.0014
2472.00,0.0014
2471.00,0.0013
2470.00,0.0013
2469.00,0.0013
2468.00,0.0014
2467.00,0.0014
2466.00,0.0014
2465.00,0.0013
2464.00,0.0013
2463.00,0.0013
2462.00,0.0014
2461.00,0.0014
2460.00,0.0014
2459.00,0.0014
2458.00,0.0014
2457.00,0.0015
2456.00,0.0015
2455.00,0.0015
2454.00,0.0015
2453.00,0.0015
2452.00,0.0015
2451.00,0.0015
2450.00,0.0015
2449.00,0.0015
2448.00,0.0014
2447.00,0.0013
2446.00,0.0012
2445.00,0.0012
2444.00,0.0012
2443.00,0.0013
2442.00,0.0013
2441.00,0.0013
2440.00,0.0014
2439.00,0.0014
2438.00,0.0015
2437.00,0.0015
2436.00,0.0015
2435.00,0.0016
2434.00,0.0016
2433.00,0.0016
2432.00,0.0015
2431.00,0.0015
2430.00,0.0014
2429.00,0.0014
2428.00,0.0014
2427.00,0.0014
2426.00,0.0015
2425.00,0.0016
2424.00,0.0016
2423.00,0.0016
2422.00,0.0015
2421.00,0.0015
2420.00,0.0014
2419.00,0.0014
2418.00,0.0013
2417.00,0.0013
2416.00,0.0013
2415.00,0.0012
2414.00,0.0012
2413.00,0.0012
2412.00,0.0012
2411.00,0.0012
2410.00,0.0013
2409.00,0.0013
2408.00,0.0013
2407.00,0.0013
2406.00,0.0012
2405.00,0.0012
2404.00,0.0012
2403.00,0.0013
2402.00,0.0013
2401.00,0.0013
2400.00,0.0013
2399.00,0.0012
2398.00,0.0012
2397.00,0.0012
2396.00,0.0012
2395.00,0.0012
2394.00,0.0011
2393.00,0.0011
2392.00,0.0011
2391.00,0.0011
2390.00,0.0011
2389.00,0.0011
2388.00,0.0011
2387.00,0.0010
2386.00,0.0010
2385.00,0.0009
2384.00,0.0008
2383.00,0.0008
2382.00,0.0008
2381.00,0.0007
2380.00,0.0007
2379.00,0.0006
2378.00,0.0006
2377.00,0.0006
2376.00,0.0006
2375.00,0.0006
2374.00,0.0006
2373.00,0.0006
2372.00,0.0005
2371.00,0.0005
2370.00,0.0004
2369.00,0.0004
2368.00,0.0004
2367.00,0.0004
2366.00,0.0004
2365.00,0.0004
2364.00,0.0005
2363.00,0.0005
2362.00,0.0005
2361.00,0.0005
2360.00,0.0006
2359.00,0.0006
2358.00,0.0006
2357.00,0.0007
2356.00,0.0006
2355.00,0.0006
2354.00,0.0006
2353.00,0.0006
2352.00,0.0006
2351.00,0.0006
2350.00,0.0006
2349.00,0.0005
2348.00,0.0006
2347.00,0.0007
2346.00,0.0009
2345.00,0.0010
2344.00,0.0010
2343.00,0.0009
2342.00,0.0008
2341.00,0.0007
2340.00,0.0008
2339.00,0.0008
2338.00,0.0009
2337.00,0.0009
2336.00,0.0009
2335.00,0.0009
2334.00,0.0009
2333.00,0.0009
2332.00,0.0009
2331.00,0.0009
2330.00,0.0008
2329.00,0.0008
2328.00,0.0009
2327.00,0.0012
2326.00,0.0016
2325.00,0.0019
2324.00,0.0021
2323.00,0.0020
2322.00,0.0018
2321.00,0.0016
2320.00,0.0015
2319.00,0.0014
2318.00,0.0013
2317.00,0.0012
2316.00,0.0012
2315.00,0.0012
2314.00,0.0011
2313.00,0.0011
2312.00,0.0011
2311.00,0.0010
2310.00,0.0010
2309.00,0.0009
2308.00,0.0009
2307.00,0.0009
2306.00,0.0009
2305.00,0.0010
2304.00,0.0010
2303.00,0.0010
2302.00,0.0010
2301.00,0.0010
2300.00,0.0011
2299.00,0.0012
2298.00,0.0013
2297.00,0.0013
2296.00,0.0013
2295.00,0.0013
2294.00,0.0013
2293.00,0.0014
2292.00,0.0016
2291.00,0.0017
2290.00,0.0018
2289.00,0.0019
2288.00,0.0020
2287.00,0.0021
2286.00,0.0021
2285.00,0.0022
2284.00,0.0021
2283.00,0.0021
2282.00,0.0020
2281.00,0.0018
2280.00,0.0018
2279.00,0.0017
2278.00,0.0017
2277.00,0.0017
2276.00,0.0018
2275.00,0.0018
2274.00,0.0018
2273.00,0.0018
2272.00,0.0017
2271.00,0.0016
2270.00,0.0015
2269.00,0.0014
2268.00,0.0013
2267.00,0.0013
2266.00,0.0013
2265.00,0.0013
2264.00,0.0013
2263.00,0.0013
2262.00,0.0014
2261.00,0.0015
2260.00,0.0016
2259.00,0.0016
2258.00,0.0017
2257.00,0.0016
2256.00,0.0014
2255.00,0.0012
2254.00,0.0011
2253.00,0.0010
2252.00,0.0010
2251.00,0.0010
2250.00,0.0010
2249.00,0.0011
2248.00,0.0012
2247.00,0.0013
2246.00,0.0013
2245.00,0.0013
2244.00,0.0013
2243.00,0.0013
2242.00,0.0012
2241.00,0.0013
2240.00,0.0013
2239.00,0.0013
2238.00,0.0012
2237.00,0.0011
2236.00,0.0010
2235.00,0.0010
2234.00,0.0010
2233.00,0.0010
2232.00,0.0009
2231.00,0.0009
2230.00,0.0010
2229.00,0.0010
2228.00,0.0010
2227.00,0.0009
2226.00,0.0008
2225.00,0.0008
2224.00,0.0008
2223.00,0.0009
2222.00,0.0010
2221.00,0.0011
2220.00,0.0012
2219.00,0.0011
2218.00,0.0011
2217.00,0.0010
2216.00,0.0011
2215.00,0.0012
2214.00,0.0013
2213.00,0.0013
2212.00,0.0013
2211.00,0.0012
2210.00,0.0012
2209.00,0.0013
2208.00,0.0012
2207.00,0.0011
2206.00,0.0010
2205.00,0.0010
2204.00,0.0011
2203.00,0.0012
2202.00,0.0014
2201.00,0.0014
2200.00,0.0013
2199.00,0.0010
2198.00,0.0008
2197.00,0.0007
2196.00,0.0007
2195.00,0.0009
2194.00,0.0011
2193.00,0.0014
2192.00,0.0016
2191.00,0.0017
2190.00,0.0018
2189.00,0.0019
2188.00,0.0020
2187.00,0.0020
2186.00,0.0019
2185.00,0.0019
2184.00,0.0018
2183.00,0.0017
2182.00,0.0016
2181.00,0.0015
2180.00,0.0014
2179.00,0.0013
2178.00,0.0012
2177.00,0.0011
2176.00,0.0009
2175.00,0.0009
2174.00,0.0010
2173.00,0.0013
2172.00,0.0016
2171.00,0.0019
2170.00,0.0021
2169.00,0.0022
2168.00,0.0021
2167.00,0.0020
2166.00,0.0019
2165.00,0.0020
2164.00,0.0021
2163.00,0.0023
2162.00,0.0023
2161.00,0.0019
2160.00,0.0010
2159.00,-0.0003
2158.00,-0.0015
2157.00,-0.0021
2156.00,-0.0022
2155.00,-0.0020
2154.00,-0.0016
2153.00,-0.0012
2152.00,-0.0010
2151.00,-0.0008
2150.00,-0.0006
2149.00,-0.0005
2148.00,-0.0005
2147.00,-0.0007
2146.00,-0.0008
2145.00,-0.0008
2144.00,-0.0006
2143.00,-0.0005
2142.00,-0.0005
2141.00,-0.0004
2140.00,-0.0004
2139.00,-0.0004
2138.00,-0.0003
2137.00,-0.0003
2136.00,-0.0003
2135.00,-0.0005
2134.00,-0.0007
2133.00,-0.0009
2132.00,-0.0009
2131.00,-0.0009
2130.00,-0.0009
2129.00,-0.0008
2128.00,-0.0006
2127.00,-0.0005
2126.00,-0.0003
2125.00,-0.0003
2124.00,-0.0003
2123.00,-0.0003
2122.00,-0.0002
2121.00,-0.0001
2120.00,0.0000
2119.00,0.0001
2118.00,0.0002
2117.00,0.0003
2116.00,0.0005
2115.00,0.0006
2114.00,0.0006
2113.00,0.0006
2112.00,0.0006
2111.00,0.0007
2110.00,0.0007
2109.00,0.0008
2108.00,0.0008
2107.00,0.0008
2106.00,0.0009
2105.00,0.0009
2104.00,0.0009
2103.00,0.0008
2102.00,0.0007
2101.00,0.0007
2100.00,0.0006
2099.00,0.0006
2098.00,0.0005
2097.00,0.0004
2096.00,0.0003
2095.00,0.0001
2094.00,-0.0000
2093.00,0.0001
2092.00,0.0002
2091.00,0.0003
2090.00,0.0004
2089.00,0.0004
2088.00,0.0005
2087.00,0.0005
2086.00,0.0005
2085.00,0.0005
2084.00,0.0006
2083.00,0.0007
2082.00,0.0008
2081.00,0.0009
2080.00,0.0011
2079.00,0.0011
2078.00,0.0011
2077.00,0.0010
2076.00,0.0010
2075.00,0.0009
2074.00,0.0009
2073.00,0.0008
2072.00,0.0008
2071.00,0.0007
2070.00,0.0006
2069.00,0.0005
2068.00,0.0005
2067.00,0.0004
2066.00,0.0004
2065.00,0.0004
2064.00,0.0004
2063.00,0.0004
2062.00,0.0004
2061.00,0.0004
2060.00,0.0003
2059.00,0.0002
2058.00,0.0002
2057.00,0.0003
2056.00,0.0004
2055.00,0.0005
2054.00,0.0006
2053.00,0.0010
2052.00,0.0014
2051.00,0.0017
2050.00,0.0016
2049.00,0.0014
2048.00,0.0011
2047.00,0.0010
2046.00,0.0009
2045.00,0.0008
2044.00,0.0006
2043.00,0.0004
2042.00,0.0002
2041.00,0.0001
2040.00,0.0001
2039.00,0.0002
2038.00,0.0004
2037.00,0.0006
2036.00,0.0008
2035.00,0.0009
2034.00,0.0009
2033.00,0.0008
2032.00,0.0006
2031.00,0.0003
2030.00,-0.0001
2029.00,-0.0004
2028.00,-0.0005
2027.00,-0.0004
2026.00,-0.0002
2025.00,0.0000
2024.00,0.0001
2023.00,-0.0000
2022.00,-0.0003
2021.00,-0.0006
2020.00,-0.0008
2019.00,-0.0009
2018.00,-0.0010
2017.00,-0.0009
2016.00,-0.0007
2015.00,-0.0005
2014.00,-0.0001
2013.00,0.0001
2012.00,0.0002
2011.00,0.0002
2010.00,0.0002
2009.00,0.0001
2008.00,-0.0001
2007.00,-0.0006
2006.00,-0.0010
2005.00,-0.0011
2004.00,-0.0011
2003.00,-0.0011
2002.00,-0.0009
2001.00,-0.0006
2000.00,-0.0003
1999.00,-0.0001
1998.00,-0.0002
1997.00,-0.0005
1996.00,-0.0008
1995.00,-0.0009
1994.00,-0.0009
1993.00,-0.0006
1992.00,-0.0001
1991.00,0.0001
1990.00,0.0001
1989.00,-0.0001
1988.00,-0.0002
1987.00,-0.0001
1986.00,0.0001
1985.00,0.0003
1984.00,0.0006
1983.00,0.0007
1982.00,0.0008
1981.00,0.0010
1980.00,0.0010
1979.00,0.0006
1978.00,-0.0001
1977.00,-0.0007
1976.00,-0.0010
1975.00,-0.0011
1974.00,-0.0012
1973.00,-0.0011
1972.00,-0.0010
1971.00,-0.0010
1970.00,-0.0011
1969.00,-0.0012
1968.00,-0.0014
1967.00,-0.0015
1966.00,-0.0017
1965.00,-0.0017
1964.00,-0.0016
1963.00,-0.0014
1962.00,-0.0012
1961.00,-0.0011
1960.00,-0.0010
1959.00,-0.0011
1958.00,-0.0013
1957.00,-0.0013
1956.00,-0.0013
1955.00,-0.0013
1954.00,-0.0012
1953.00,-0.0010
1952.00,-0.0008
1951.00,-0.0008
1950.00,-0.0008
1949.00,-0.0009
1948.00,-0.0009
1947.00,-0.0008
1946.00,-0.0009
1945.00,-0.0009
1944.00,-0.0009
1943.00,-0.0010
1942.00,-0.0010
1941.00,-0.0011
1940.00,-0.0011
1939.00,-0.0011
1938.00,-0.0010
1937.00,-0.0009
1936.00,-0.0007
1935.00,-0.0007
1934.00,-0.0007
1933.00,-0.0006
1932.00,-0.0006
1931.00,-0.0005
1930.00,-0.0005
1929.00,-0.0005
1928.00,-0.0004
1927.00,-0.0003
1926.00,-0.0003
1925.00,-0.0003
1924.00,-0.0002
1923.00,-0.0000
1922.00,0.0002
1921.00,0.0004
1920.00,0.0005
1919.00,0.0005
1918.00,0.0003
1917.00,0.0001
1916.00,-0.0000
1915.00,-0.0001
1914.00,-0.0002
1913.00,-0.0001
1912.00,-0.0000
1911.00,0.0001
1910.00,0.0002
1909.00,0.0003
1908.00,0.0003
1907.00,0.0003
1906.00,0.0002
1905.00,0.0001
1904.00,0.0000
1903.00,-0.0000
1902.00,-0.0000
1901.00,0.0001
1900.00,0.0002
1899.00,0.0003
1898.00,0.0004
1897.00,0.0004
1896.00,0.0004
1895.00,0.0004
1894.00,0.0003
1893.00,0.0003
1892.00,0.0004
1891.00,0.0004
1890.00,0.0004
1889.00,0.0003
1888.00,0.0003
1887.00,0.0003
1886.00,0.0003
1885.00,0.0002
1884.00,0.0002
1883.00,0.0001
1882.00,0.0001
1881.00,0.0000
1880.00,0.0001
1879.00,0.0002
1878.00,0.0002
1877.00,0.0002
1876.00,0.0003
1875.00,0.0003
1874.00,0.0003
1873.00,0.0004
1872.00,0.0004
1871.00,0.0004
1870.00,0.0005
1869.00,0.0005
1868.00,0.0006
1867.00,0.0006
1866.00,0.0006
1865.00,0.0006
1864.00,0.0006
1863.00,0.0005
1862.00,0.0005
1861.00,0.0005
1860.00,0.0005
1859.00,0.0005
1858.00,0.0005
1857.00,0.0005
1856.00,0.0006
1855.00,0.0006
1854.00,0.0006
1853.00,0.0005
1852.00,0.0004
1851.00,0.0004
1850.00,0.0004
1849.00,0.0004
1848.00,0.0004
1847.00,0.0005
1846.00,0.0005
1845.00,0.0006
1844.00,0.0007
1843.00,0.0006
1842.00,0.0006
1841.00,0.0005
1840.00,0.0005
1839.00,0.0005
1838.00,0.0005
1837.00,0.0004
1836.00,0.0004
1835.00,0.0004
1834.00,0.0005
1833.00,0.0006
1832.00,0.0007
1831.00,0.0008
1830.00,0.0008
1829.00,0.0008
1828.00,0.0008
1827.00,0.0008
1826.00,0.0008
1825.00,0.0008
1824.00,0.0008
1823.00,0.0008
1822.00,0.0008
1821.00,0.0007
1820.00,0.0006
1819.00,0.0005
1818.00,0.0004
1817.00,0.0004
1816.00,0.0004
1815.00,0.0005
1814.00,0.0006
1813.00,0.0006
1812.00,0.0007
1811.00,0.0007
1810.00,0.0007
1809.00,0.0008
1808.00,0.0008
1807.00,0.0008
1806.00,0.0008
1805.00,0.0008
1804.00,0.0009
1803.00,0.0009
1802.00,0.0009
1801.00,0.0008
1800.00,0.0008
1799.00,0.0009
1798.00,0.0010
1797.00,0.0010
1796.00,0.0011
1795.00,0.0011
1794.00,0.0011
1793.00,0.0010
1792.00,0.0011
1791.00,0.0011
1790.00,0.0012
1789.00,0.0013
1788.00,0.0013
1787.00,0.0013
1786.00,0.0014
1785.00,0.0014
1784.00,0.0014
1783.00,0.0014
1782.00,0.0013
1781.00,0.0013
1780.00,0.0013
1779.00,0.0013
1778.00,0.0013
1777.00,0.0013
1776.00,0.0014
1775.00,0.0014
1774.00,0.0014
1773.00,0.0014
1772.00,0.0014
1771.00,0.0014
1770.00,0.0015
1769.00,0.0015
1768.00,0.0015
1767.00,0.0016
1766.00,0.0016
1765.00,0.0016
1764.00,0.0017
1763.00,0.0018
1762.00,0.0019
1761.00,0.0020
1760.00,0.0020
1759.00,0.0020
1758.00,0.0020
1757.00,0.0020
1756.00,0.0021
1755.00,0.0022
1754.00,0.0024
1753.00,0.0025
1752.00,0.0026
1751.00,0.0027
1750.00,0.0028
1749.00,0.0029
1748.00,0.0031
1747.00,0.0032
1746.00,0.0032
1745.00,0.0033
1744.00,0.0034
1743.00,0.0035
1742.00,0.0036
1741.00,0.0037
1740.00,0.0038
1739.00,0.0039
1738.00,0.0039
1737.00,0.0038
1736.00,0.0038
1735.00,0.0038
1734.00,0.0038
1733.00,0.0039
1732.00,0.0039
1731.00,0.0039
1730.00,0.0038
1729.00,0.0038
1728.00,0.0038
1727.00,0.0038
1726.00,0.0039
1725.00,0.0039
1724.00,0.0039
1723.00,0.0039
1722.00,0.0038
1721.00,0.0038
1720.00,0.0037
1719.00,0.0037
1718.00,0.0036
1717.00,0.0036
1716.00,0.0036
1715.00,0.0037
1714.00,0.0037
1713.00,0.0037
1712.00,0.0037
1711.00,0.0037
1710.00,0.0038
1709.00,0.0038
1708.00,0.0039
1707.00,0.0040
1706.00,0.0040
1705.00,0.0040
1704.00,0.0041
1703.00,0.0041
1702.00,0.0042
1701.00,0.0043
1700.00,0.0046
1699.00,0.0048
1698.00,0.0048
1697.00,0.0049
1696.00,0.0051
1695.00,0.0053
1694.00,0.0055
1693.00,0.0056
1692.00,0.0058
1691.00,0.0059
1690.00,0.0061
1689.00,0.0063
1688.00,0.0064
1687.00,0.0065
1686.00,0.0066
1685.00,0.0068
1684.00,0.0072
1683.00,0.0075
1682.00,0.0078
1681.00,0.0079
1680.00,0.0081
1679.00,0.0083
1678.00,0.0084
1677.00,0.0086
1676.00,0.0089
1675.00,0.0092
1674.00,0.0095
1673.00,0.0096
1672.00,0.0097
1671.00,0.0099
1670.00,0.0101
1669.00,0.0104
1668.00,0.0106
1667.00,0.0106
1666.00,0.0107
1665.00,0.0108
1664.00,0.0109
1663.00,0.0112
1662.00,0.0114
1661.00,0.0116
1660.00,0.0117
1659.00,0.0119
1658.00,0.0120
1657.00,0.0122
1656.00,0.0123
1655.00,0.0124
1654.00,0.0126
1653.00,0.0130
1652.00,0.0133
1651.00,0.0135
1650.00,0.0135
1649.00,0.0135
1648.00,0.0136
1647.00,0.0138
1646.00,0.0139
1645.00,0.0141
1644.00,0.0142
1643.00,0.0142
1642.00,0.0143
1641.00,0.0143
1640.00,0.0144
1639.00,0.0144
1638.00,0.0144
1637.00,0.0144
1636.00,0.0145
1635.00,0.0146
1634.00,0.0146
1633.00,0.0145
1632.00,0.0145
1631.00,0.0144
1630.00,0.0143
1629.00,0.0142
1628.00,0.0142
1627.00,0.0141
1626.00,0.0141
1625.00,0.0140
1624.00,0.0140
1623.00,0.0139
1622.00,0.0138
1621.00,0.0137
1620.00,0.0136
1619.00,0.0136
1618.00,0.0135
1617.00,0.0135
1616.00,0.0135
1615.00,0.0135
1614.00,0.0134
1613.00,0.0135
1612.00,0.0135
1611.00,0.0135
1610.00,0.0135
1609.00,0.0136
1608.00,0.0136
1607.00,0.0137
1606.00,0.0137
1605.00,0.0137
1604.00,0.0137
1603.00,0.0136
1602.00,0.0136
1601.00,0.0135
1600.00,0.0135
1599.00,0.0134
1598.00,0.0133
1597.00,0.0133
1596.00,0.0133
1595.00,0.0133
1594.00,0.0132
1593.00,0.0132
1592.00,0.0132
1591.00,0.0132
1590.00,0.0132
1589.00,0.0133
1588.00,0.0134
1587.00,0.0135
1586.00,0.0137
1585.00,0.0140
1584.00,0.0142
1583.00,0.0145
1582.00,0.0147
1581.00,0.0150
1580.00,0.0152
1579.00,0.0153
1578.00,0.0153
1577.00,0.0152
1576.00,0.0150
1575.00,0.0148
1574.00,0.0146
1573.00,0.0144
1572.00,0.0142
1571.00,0.0140
1570.00,0.0138
1569.00,0.0136
1568.00,0.0135
1567.00,0.0134
1566.00,0.0133
1565.00,0.0133
1564.00,0.0133
1563.00,0.0134
1562.00,0.0134
1561.00,0.0134
1560.00,0.0135
1559.00,0.0136
1558.00,0.0138
1557.00,0.0139
1556.00,0.0140
1555.00,0.0142
1554.00,0.0143
1553.00,0.0146
1552.00,0.0148
1551.00,0.0150
1550.00,0.0153
1549.00,0.0156
1548.00,0.0158
1547.00,0.0161
1546.00,0.0165
1545.00,0.0168
1544.00,0.0172
1543.00,0.0175
1542.00,0.0175
1541.00,0.0174
1540.00,0.0170
1539.00,0.0165
1538.00,0.0161
1537.00,0.0158
1536.00,0.0155
1535.00,0.0150
1534.00,0.0144
1533.00,0.0138
1532.00,0.0134
1531.00,0.0130
1530.00,0.0127
1529.00,0.0125
1528.00,0.0122
1527.00,0.0118
1526.00,0.0115
1525.00,0.0112
1524.00,0.0110
1523.00,0.0108
1522.00,0.0106
1521.00,0.0104
1520.00,0.0104
1519.00,0.0103
1518.00,0.0102
1517.00,0.0102
1516.00,0.0102
1515.00,0.0102
1514.00,0.0101
1513.00,0.0101
1512.00,0.0102
1511.00,0.0101
1510.00,0.0101
1509.00,0.0102
1508.00,0.0103
1507.00,0.0102
1506.00,0.0101
1505.00,0.0102
1504.00,0.0103
1503.00,0.0105
1502.00,0.0107
1501.00,0.0110
1500.00,0.0114
1499.00,0.0118
1498.00,0.0122
1497.00,0.0129
1496.00,0.0136
1495.00,0.0141
1494.00,0.0145
1493.00,0.0150
1492.00,0.0154
1491.00,0.0158
1490.00,0.0161
1489.00,0.0166
1488.00,0.0172
1487.00,0.0176
1486.00,0.0182
1485.00,0.0188
1484.00,0.0195
1483.00,0.0203
1482.00,0.0212
1481.00,0.0224
1480.00,0.0237
1479.00,0.0250
1478.00,0.0266
1477.00,0.0285
1476.00,0.0308
1475.00,0.0334
1474.00,0.0369
1473.00,0.0421
1472.00,0.0485
1471.00,0.0549
1470.00,0.0610
1469.00,0.0674
1468.00,0.0743
1467.00,0.0819
1466.00,0.0906
1465.00,0.1002
1464.00,0.1089
1463.00,0.1150
1462.00,0.1191
1461.00,0.1220
1460.00,0.1241
1459.00,0.1256
1458.00,0.1267
1457.00,0.1274
1456.00,0.1272
1455.00,0.1264
1454.00,0.1251
1453.00,0.1233
1452.00,0.1205
1451.00,0.1164
1450.00,0.1110
1449.00,0.1035
1448.00,0.0941
1447.00,0.0843
1446.00,0.0757
1445.00,0.0684
1444.00,0.0624
1443.00,0.0575
1442.00,0.0540
1441.00,0.0517
1440.00,0.0504
1439.00,0.0500
1438.00,0.0504
1437.00,0.0508
1436.00,0.0500
1435.00,0.0473
1434.00,0.0434
1433.00,0.0387
1432.00,0.0339
1431.00,0.0296
1430.00,0.0263
1429.00,0.0240
1428.00,0.0224
1427.00,0.0215
1426.00,0.0209
1425.00,0.0204
1424.00,0.0200
1423.00,0.0198
1422.00,0.0197
1421.00,0.0195
1420.00,0.0193
1419.00,0.0191
1418.00,0.0190
1417.00,0.0187
1416.00,0.0184
1415.00,0.0182
1414.00,0.0180
1413.00,0.0178
1412.00,0.0175
1411.00,0.0174
1410.00,0.0173
1409.00,0.0171
1408.00,0.0169
1407.00,0.0169
1406.00,0.0169
1405.00,0.0168
1404.00,0.0168
1403.00,0.0168
1402.00,0.0169
1401.00,0.0169
1400.00,0.0170
1399.00,0.0171
1398.00,0.0173
1397.00,0.0175
1396.00,0.0176
1395.00,0.0179
1394.00,0.0184
1393.00,0.0189
1392.00,0.0194
1391.00,0.0202
1390.00,0.0214
1389.00,0.0230
1388.00,0.0255
1387.00,0.0292
1386.00,0.0342
1385.00,0.0404
1384.00,0.0486
1383.00,0.0597
1382.00,0.0745
1381.00,0.0936
1380.00,0.1178
1379.00,0.1462
1378.00,0.1749
1377.00,0.1978
1376.00,0.2082
1375.00,0.2012
1374.00,0.1784
1373.00,0.1489
1372.00,0.1209
1371.00,0.0974
1370.00,0.0785
1369.00,0.0641
1368.00,0.0541
1367.00,0.0480
1366.00,0.0447
1365.00,0.0434
1364.00,0.0437
1363.00,0.0452
1362.00,0.0476
1361.00,0.0502
1360.00,0.0521
1359.00,0.0526
1358.00,0.0514
1357.00,0.0485
1356.00,0.0443
1355.00,0.0397
1354.00,0.0352
1353.00,0.0314
1352.00,0.0284
1351.00,0.0260
1350.00,0.0241
1349.00,0.0226
1348.00,0.0214
1347.00,0.0205
1346.00,0.0198
1345.00,0.0192
1344.00,0.0186
1343.00,0.0181
1342.00,0.0176
1341.00,0.0171
1340.00,0.0167
1339.00,0.0163
1338.00,0.0161
1337.00,0.0160
1336.00,0.0160
1335.00,0.0162
1334.00,0.0164
1333.00,0.0168
1332.00,0.0173
1331.00,0.0176
1330.00,0.0177
1329.00,0.0175
1328.00,0.0171
1327.00,0.0165
1326.00,0.0158
1325.00,0.0151
1324.00,0.0145
1323.00,0.0140
1322.00,0.0136
1321.00,0.0133
1320.00,0.0130
1319.00,0.0128
1318.00,0.0125
1317.00,0.0123
1316.00,0.0121
1315.00,0.0119
1314.00,0.0119
1313.00,0.0119
1312.00,0.0119
1311.00,0.0121
1310.00,0.0125
1309.00,0.0130
1308.00,0.0137
1307.00,0.0146
1306.00,0.0154
1305.00,0.0161
1304.00,0.0163
1303.00,0.0163
1302.00,0.0161
1301.00,0.0160
1300.00,0.0159
1299.00,0.0160
1298.00,0.0162
1297.00,0.0163
1296.00,0.0162
1295.00,0.0160
1294.00,0.0156
1293.00,0.0150
1292.00,0.0145
1291.00,0.0140
1290.00,0.0135
1289.00,0.0131
1288.00,0.0127
1287.00,0.0124
1286.00,0.0121
1285.00,0.0119
1284.00,0.0117
1283.00,0.0115
1282.00,0.0114
1281.00,0.0113
1280.00,0.0112
1279.00,0.0111
1278.00,0.0110
1277.00,0.0109
1276.00,0.0109
1275.00,0.0108
1274.00,0.0108
1273.00,0.0109
1272.00,0.0109
1271.00,0.0110
1270.00,0.0111
1269.00,0.0113
1268.00,0.0114
1267.00,0.0116
1266.00,0.0118
1265.00,0.0121
1264.00,0.0124
1263.00,0.0127
1262.00,0.0130
1261.00,0.0134
1260.00,0.0139
1259.00,0.0144
1258.00,0.0150
1257.00,0.0154
1256.00,0.0157
1255.00,0.0156
1254.00,0.0152
1253.00,0.0146
1252.00,0.0140
1251.00,0.0134
1250.00,0.0131
1249.00,0.0128
1248.00,0.0126
1247.00,0.0125
1246.00,0.0124
1245.00,0.0123
1244.00,0.0122
1243.00,0.0122
1242.00,0.0121
1241.00,0.0120
1240.00,0.0119
1239.00,0.0118
1238.00,0.0117
1237.00,0.0116
1236.00,0.0116
1235.00,0.0116
1234.00,0.0116
1233.00,0.0116
1232.00,0.0116
1231.00,0.0116
1230.00,0.0117
1229.00,0.0117
1228.00,0.0118
1227.00,0.0120
1226.00,0.0122
1225.00,0.0125
1224.00,0.0128
1223.00,0.0132
1222.00,0.0135
1221.00,0.0138
1220.00,0.0140
1219.00,0.0141
1218.00,0.0140
1217.00,0.0138
1216.00,0.0136
1215.00,0.0133
1214.00,0.0129
1213.00,0.0124
1212.00,0.0120
1211.00,0.0117
1210.00,0.0115
1209.00,0.0113
1208.00,0.0111
1207.00,0.0110
1206.00,0.0109
1205.00,0.0107
1204.00,0.0107
1203.00,0.0107
1202.00,0.0107
1201.00,0.0107
1200.00,0.0107
1199.00,0.0106
1198.00,0.0105
1197.00,0.0104
1196.00,0.0104
1195.00,0.0105
1194.00,0.0105
1193.00,0.0106
1192.00,0.0106
1191.00,0.0106
1190.00,0.0106
1189.00,0.0106
1188.00,0.0106
1187.00,0.0106
1186.00,0.0106
1185.00,0.0106
1184.00,0.0107
1183.00,0.0108
1182.00,0.0109
1181.00,0.0112
1180.00,0.0114
1179.00,0.0118
1178.00,0.0123
1177.00,0.0131
1176.00,0.0140
1175.00,0.0153
1174.00,0.0169
1173.00,0.0189
1172.00,0.0213
1171.00,0.0239
1170.00,0.0265
1169.00,0.0285
1168.00,0.0297
1167.00,0.0301
1166.00,0.0298
1165.00,0.0289
1164.00,0.0278
1163.00,0.0267
1162.00,0.0257
1161.00,0.0249
1160.00,0.0243
1159.00,0.0239
1158.00,0.0236
1157.00,0.0234
1156.00,0.0233
1155.00,0.0233
1154.00,0.0233
1153.00,0.0233
1152.00,0.0232
1151.00,0.0228
1150.00,0.0221
1149.00,0.0214
1148.00,0.0205
1147.00,0.0198
1146.00,0.0190
1145.00,0.0184
1144.00,0.0177
1143.00,0.0171
1142.00,0.0165
1141.00,0.0160
1140.00,0.0155
1139.00,0.0152
1138.00,0.0149
1137.00,0.0148
1136.00,0.0146
1135.00,0.0145
1134.00,0.0145
1133.00,0.0145
1132.00,0.0145
1131.00,0.0145
1130.00,0.0147
1129.00,0.0149
1128.00,0.0153
1127.00,0.0156
1126.00,0.0159
1125.00,0.0162
1124.00,0.0164
1123.00,0.0166
1122.00,0.0168
1121.00,0.0170
1120.00,0.0173
1119.00,0.0176
1118.00,0.0178
1117.00,0.0179
1116.00,0.0180
1115.00,0.0181
1114.00,0.0181
1113.00,0.0182
1112.00,0.0183
1111.00,0.0184
1110.00,0.0186
1109.00,0.0190
1108.00,0.0196
1107.00,0.0202
1106.00,0.0208
1105.00,0.0213
1104.00,0.0218
1103.00,0.0221
1102.00,0.0222
1101.00,0.0219
1100.00,0.0214
1099.00,0.0207
1098.00,0.0199
1097.00,0.0192
1096.00,0.0185
1095.00,0.0180
1094.00,0.0176
1093.00,0.0173
1092.00,0.0170
1091.00,0.0167
1090.00,0.0164
1089.00,0.0161
1088.00,0.0159
1087.00,0.0157
1086.00,0.0156
1085.00,0.0155
1084.00,0.0154
1083.00,0.0153
1082.00,0.0151
1081.00,0.0149
1080.00,0.0147
1079.00,0.0146
1078.00,0.0145
1077.00,0.0144
1076.00,0.0142
1075.00,0.0140
1074.00,0.0139
1073.00,0.0138
1072.00,0.0138
1071.00,0.0138
1070.00,0.0138
1069.00,0.0138
1068.00,0.0138
1067.00,0.0138
1066.00,0.0137
1065.00,0.0136
1064.00,0.0136
1063.00,0.0135
1062.00,0.0135
1061.00,0.0135
1060.00,0.0135
1059.00,0.0135
1058.00,0.0135
1057.00,0.0135
1056.00,0.0134
1055.00,0.0134
1054.00,0.0135
1053.00,0.0135
1052.00,0.0136
1051.00,0.0137
1050.00,0.0140
1049.00,0.0142
1048.00,0.0144
1047.00,0.0146
1046.00,0.0148
1045.00,0.0149
1044.00,0.0149
1043.00,0.0147
1042.00,0.0146
1041.00,0.0145
1040.00,0.0144
1039.00,0.0144
1038.00,0.0146
1037.00,0.0147
1036.00,0.0148
1035.00,0.0148
1034.00,0.0147
1033.00,0.0144
1032.00,0.0141
1031.00,0.0139
1030.00,0.0137
1029.00,0.0136
1028.00,0.0135
1027.00,0.0134
1026.00,0.0133
1025.00,0.0132
1024.00,0.0131
1023.00,0.0131
1022.00,0.0130
1021.00,0.0129
1020.00,0.0130
1019.00,0.0131
1018.00,0.0132
1017.00,0.0133
1016.00,0.0135
1015.00,0.0137
1014.00,0.0139
1013.00,0.0142
1012.00,0.0144
1011.00,0.0146
1010.00,0.0148
1009.00,0.0149
1008.00,0.0152
1007.00,0.0155
1006.00,0.0161
1005.00,0.0169
1004.00,0.0180
1003.00,0.0196
1002.00,0.0217
1001.00,0.0243
1000.00,0.0270
999.00,0.0292
998.00,0.0301
997.00,0.0294
996.00,0.0273
995.00,0.0244
994.00,0.0214
993.00,0.0188
992.00,0.0167
991.00,0.0151
990.00,0.0140
989.00,0.0133
988.00,0.0127
987.00,0.0125
986.00,0.0124
985.00,0.0126
984.00,0.0130
983.00,0.0136
982.00,0.0146
981.00,0.0160
980.00,0.0179
979.00,0.0205
978.00,0.0236
977.00,0.0271
976.00,0.0307
975.00,0.0339
974.00,0.0362
973.00,0.0368
972.00,0.0355
971.00,0.0326
970.00,0.0287
969.00,0.0247
968.00,0.0212
967.00,0.0186
966.00,0.0166
965.00,0.0151
964.00,0.0140
963.00,0.0132
962.00,0.0126
961.00,0.0120
960.00,0.0116
959.00,0.0113
958.00,0.0110
957.00,0.0108
956.00,0.0106
955.00,0.0104
954.00,0.0103
953.00,0.0103
952.00,0.0102
951.00,0.0102
950.00,0.0102
949.00,0.0102
948.00,0.0103
947.00,0.0104
946.00,0.0106
945.00,0.0109
944.00,0.0113
943.00,0.0116
942.00,0.0119
941.00,0.0121
940.00,0.0119
939.00,0.0116
938.00,0.0111
937.00,0.0106
936.00,0.0102
935.00,0.0099
934.00,0.0097
933.00,0.0094
932.00,0.0092
931.00,0.0090
930.00,0.0090
929.00,0.0090
928.00,0.0089
927.00,0.0088
926.00,0.0087
925.00,0.0086
924.00,0.0086
923.00,0.0086
922.00,0.0086
921.00,0.0087
920.00,0.0088
919.00,0.0089
918.00,0.0091
917.00,0.0092
916.00,0.0093
915.00,0.0095
914.00,0.0096
913.00,0.0097
912.00,0.0098
911.00,0.0099
910.00,0.0099
909.00,0.0101
908.00,0.0103
907.00,0.0107
906.00,0.0115
905.00,0.0127
904.00,0.0143
903.00,0.0163
902.00,0.0185
901.00,0.0206
900.00,0.0221
899.00,0.0225
898.00,0.0218
897.00,0.0202
896.00,0.0180
895.00,0.0159
894.00,0.0141
893.00,0.0127
892.00,0.0118
891.00,0.0112
890.00,0.0107
889.00,0.0103
888.00,0.0100
887.00,0.0098
886.00,0.0097
885.00,0.0096
884.00,0.0095
883.00,0.0095
882.00,0.0095
881.00,0.0095
880.00,0.0096
879.00,0.0096
878.00,0.0098
877.00,0.0099
876.00,0.0101
875.00,0.0101
874.00,0.0100
873.00,0.0098
872.00,0.0097
871.00,0.0096
870.00,0.0095
869.00,0.0095
868.00,0.0094
867.00,0.0094
866.00,0.0095
865.00,0.0096
864.00,0.0097
863.00,0.0098
862.00,0.0098
861.00,0.0100
860.00,0.0101
859.00,0.0102
858.00,0.0102
857.00,0.0102
856.00,0.0103
855.00,0.0103
854.00,0.0105
853.00,0.0107
852.00,0.0110
851.00,0.0114
850.00,0.0119
849.00,0.0125
848.00,0.0133
847.00,0.0144
846.00,0.0160
845.00,0.0184
844.00,0.0216
843.00,0.0249
842.00,0.0273
841.00,0.0278
840.00,0.0260
839.00,0.0228
838.00,0.0196
837.00,0.0170
836.00,0.0154
835.00,0.0144
834.00,0.0139
833.00,0.0136
832.00,0.0134
831.00,0.0133
830.00,0.0131
829.00,0.0130
828.00,0.0129
827.00,0.0129
826.00,0.0128
825.00,0.0127
824.00,0.0126
823.00,0.0125
822.00,0.0126
821.00,0.0128
820.00,0.0130
819.00,0.0133
818.00,0.0138
817.00,0.0145
816.00,0.0152
815.00,0.0162
814.00,0.0176
813.00,0.0194
812.00,0.0214
811.00,0.0233
810.00,0.0247
809.00,0.0254
808.00,0.0252
807.00,0.0242
806.00,0.0226
805.00,0.0208
804.00,0.0191
803.00,0.0176
802.00,0.0163
801.00,0.0154
800.00,0.0145
799.00,0.0137
798.00,0.0131
797.00,0.0125
796.00,0.0121
795.00,0.0119
794.00,0.0117
793.00,0.0116
792.00,0.0115
791.00,0.0114
790.00,0.0113
789.00,0.0111
788.00,0.0110
787.00,0.0107
786.00,0.0104
785.00,0.0102
784.00,0.0099
783.00,0.0098
782.00,0.0098
781.00,0.0098
780.00,0.0098
779.00,0.0096
778.00,0.0095
777.00,0.0094
776.00,0.0094
775.00,0.0094
774.00,0.0095
773.00,0.0097
772.00,0.0099
771.00,0.0101
770.00,0.0102
769.00,0.0102
768.00,0.0102
767.00,0.0103
766.00,0.0102
765.00,0.0101
764.00,0.0099
763.00,0.0098
762.00,0.0097
761.00,0.0096
760.00,0.0095
759.00,0.0093
758.00,0.0091
757.00,0.0090
756.00,0.0090
755.00,0.0090
754.00,0.0091
753.00,0.0092
752.00,0.0091
751.00,0.0090
750.00,0.0089
749.00,0.0087
748.00,0.0087
747.00,0.0088
746.00,0.0090
745.00,0.0092
744.00,0.0094
743.00,0.0095
742.00,0.0095
741.00,0.0096
740.00,0.0098
739.00,0.0101
738.00,0.0105
737.00,0.0108
736.00,0.0111
735.00,0.0114
734.00,0.0116
733.00,0.0119
732.00,0.0120
731.00,0.0121
730.00,0.0120
729.00,0.0119
728.00,0.0118
727.00,0.0117
726.00,0.0117
725.00,0.0118
724.00,0.0118
723.00,0.0118
722.00,0.0116
721.00,0.0113
720.00,0.0110
719.00,0.0109
718.00,0.0108
717.00,0.0108
716.00,0.0106
715.00,0.0105
714.00,0.0104
713.00,0.0103
712.00,0.0103
711.00,0.0103
710.00,0.0103
709.00,0.0105
708.00,0.0107
707.00,0.0109
706.00,0.0111
705.00,0.0112
704.00,0.0111
703.00,0.0109
702.00,0.0105
701.00,0.0101
700.00,0.0097
699.00,0.0095
698.00,0.0094
697.00,0.0094
696.00,0.0094
695.00,0.0094
694.00,0.0094
693.00,0.0094
692.00,0.0094
691.00,0.0094
690.00,0.0095
689.00,0.0095
688.00,0.0094
687.00,0.0093
686.00,0.0092
685.00,0.0093
684.00,0.0093
683.00,0.0092
682.00,0.0091
681.00,0.0090
680.00,0.0091
679.00,0.0092
678.00,0.0094
677.00,0.0096
676.00,0.0097
675.00,0.0097
674.00,0.0098
673.00,0.0097
672.00,0.0097
671.00,0.0097
670.00,0.0098
669.00,0.0099
668.00,0.0099
667.00,0.0099
666.00,0.0099
665.00,0.0098
664.00,0.0097
663.00,0.0094
662.00,0.0092
661.00,0.0091
660.00,0.0093
659.00,0.0095
658.00,0.0095
657.00,0.0093
656.00,0.0091
655.00,0.0090
654.00,0.0092
653.00,0.0095
652.00,0.0097
651.00,0.0098
650.00,0.0098
649.00,0.0099
648.00,0.0101
647.00,0.0103
646.00,0.0103
645.00,0.0102
644.00,0.0099
643.00,0.0096
642.00,0.0094
641.00,0.0093
640.00,0.0093
639.00,0.0095
638.00,0.0098
637.00,0.0099
636.00,0.0099
635.00,0.0099
634.00,0.0098
633.00,0.0098
632.00,0.0098
631.00,0.0097
630.00,0.0097
629.00,0.0100
628.00,0.0104
627.00,0.0106
626.00,0.0107
625.00,0.0105
624.00,0.0103
623.00,0.0100
622.00,0.0098
621.00,0.0098
620.00,0.0099
619.00,0.0102
618.00,0.0104
617.00,0.0106
616.00,0.0108
615.00,0.0109
614.00,0.0108
613.00,0.0105
612.00,0.0102
611.00,0.0100
610.00,0.0100
609.00,0.0100
608.00,0.0100
607.00,0.0100
606.00,0.0101
605.00,0.0102
604.00,0.0101
603.00,0.0099
602.00,0.0097
601.00,0.0096
600.00,0.0096
599.00,0.0097
598.00,0.0099
597.00,0.0101
596.00,0.0104
595.00,0.0106
594.00,0.0106
593.00,0.0105
592.00,0.0103
591.00,0.0101
590.00,0.0099
589.00,0.0098
588.00,0.0096
587.00,0.0097
586.00,0.0099
585.00,0.0103
584.00,0.0106
583.00,0.0107
582.00,0.0109
581.00,0.0110
580.00,0.0111
579.00,0.0112
578.00,0.0112
577.00,0.0111
576.00,0.0109
575.00,0.0106
574.00,0.0106
573.00,0.0107
572.00,0.0109
571.00,0.0109
570.00,0.0107
569.00,0.0106
568.00,0.0106
567.00,0.0107
566.00,0.0108
565.00,0.0109
564.00,0.0110
563.00,0.0110
562.00,0.0108
561.00,0.0105
560.00,0.0101
559.00,0.0100
558.00,0.0100
557.00,0.0102
556.00,0.0103
555.00,0.0105
554.00,0.0106
553.00,0.0109
552.00,0.0112
551.00,0.0115
550.00,0.0115
549.00,0.0112
548.00,0.0108
547.00,0.0105
546.00,0.0105
545.00,0.0105
544.00,0.0106
543.00,0.0108
542.00,0.0113
541.00,0.0118
540.00,0.0121
539.00,0.0121
538.00,0.0118
537.00,0.0117
536.00,0.0118
535.00,0.0120
534.00,0.0122
533.00,0.0123
532.00,0.0123
531.00,0.0123
530.00,0.0122
529.00,0.0122
528.00,0.0121
527.00,0.0119
526.00,0.0119
525.00,0.0119
524.00,0.0121
523.00,0.0125
522.00,0.0127
521.00,0.0128
520.00,0.0126
519.00,0.0122
518.00,0.0117
517.00,0.0112
516.00,0.0107
515.00,0.0102
514.00,0.0097
513.00,0.0093
512.00,0.0090
511.00,0.0091
510.00,0.0096
509.00,0.0102
508.00,0.0107
507.00,0.0109
506.00,0.0110
505.00,0.0110
504.00,0.0109
503.00,0.0108
502.00,0.0107
501.00,0.0104
500.00,0.0097
499.00,0.0090
498.00,0.0085
497.00,0.0086
496.00,0.0092
495.00,0.0100
494.00,0.0107
493.00,0.0108
492.00,0.0102
491.00,0.0094
490.00,0.0089
489.00,0.0090
488.00,0.0097
487.00,0.0105
486.00,0.0109
485.00,0.0106
484.00,0.0096
483.00,0.0086
482.00,0.0084
481.00,0.0091
480.00,0.0101
479.00,0.0109
478.00,0.0112
477.00,0.0109
476.00,0.0102
475.00,0.0096
474.00,0.0094
473.00,0.0098
472.00,0.0105
471.00,0.0111
470.00,0.0115
469.00,0.0119
468.00,0.0124
467.00,0.0128
466.00,0.0132
465.00,0.0138
464.00,0.0145
463.00,0.0154
462.00,0.0165
461.00,0.0178
460.00,0.0190
459.00,0.0196
458.00,0.0197
457.00,0.0196
456.00,0.0194
455.00,0.0185
454.00,0.0171
453.00,0.0159
452.00,0.0156
451.00,0.0163
450.00,0.0172
