Created as New Dataset,Sample 189 By Administrator Date Tuesday, September 09 2025
cm-1,A
4000.00,0.0027
3999.00,0.0027
3998.00,0.0027
3997.00,0.0027
3996.00,0.0027
3995.00,0.0027
3994.00,0.0027
3993.00,0.0027
3992.00,0.0027
3991.00,0.0026
3990.00,0.0026
3989.00,0.0026
3988.00,0.0025
3987.00,0.0025
3986.00,0.0025
3985.00,0.0025
3984.00,0.0026
3983.00,0.0026
3982.00,0.0026
3981.00,0.0026
3980.00,0.0026
3979.00,0.0026
3978.00,0.0026
3977.00,0.0026
3976.00,0.0026
3975.00,0.0027
3974.00,0.0027
3973.00,0.0027
3972.00,0.0026
3971.00,0.0026
3970.00,0.0026
3969.00,0.0026
3968.00,0.0026
3967.00,0.0026
3966.00,0.0026
3965.00,0.0026
3964.00,0.0025
3963.00,0.0025
3962.00,0.0025
3961.00,0.0025
3960.00,0.0025
3959.00,0.0025
3958.00,0.0025
3957.00,0.0025
3956.00,0.0026
3955.00,0.0026
3954.00,0.0026
3953.00,0.0026
3952.00,0.0026
3951.00,0.0026
3950.00,0.0026
3949.00,0.0026
3948.00,0.0026
3947.00,0.0025
3946.00,0.0025
3945.00,0.0024
3944.00,0.0024
3943.00,0.0024
3942.00,0.0024
3941.00,0.0025
3940.00,0.0025
3939.00,0.0025
3938.00,0.0025
3937.00,0.0025
3936.00,0.0025
3935.00,0.0025
3934.00,0.0025
3933.00,0.0025
3932.00,0.0025
3931.00,0.0025
3930.00,0.0025
3929.00,0.0026
3928.00,0.0026
3927.00,0.0026
3926.00,0.0026
3925.00,0.0026
3924.00,0.0026
3923.00,0.0026
3922.00,0.0026
3921.00,0.0026
3920.00,0.0026
3919.00,0.0026
3918.00,0.0026
3917.00,0.0025
3916.00,0.0025
3915.00,0.0025
3914.00,0.0025
3913.00,0.0025
3912.00,0.0026
3911.00,0.0026
3910.00,0.0026
3909.00,0.0026
3908.00,0.0026
3907.00,0.0026
3906.00,0.0026
3905.00,0.0026
3904.00,0.0026
3903.00,0.0026
3902.00,0.0026
3901.00,0.0026
3900.00,0.0026
3899.00,0.0026
3898.00,0.0026
3897.00,0.0026
3896.00,0.0026
3895.00,0.0026
3894.00,0.0026
3893.00,0.0026
3892.00,0.0025
3891.00,0.0025
3890.00,0.0025
3889.00,0.0026
3888.00,0.0026
3887.00,0.0027
3886.00,0.0028
3885.00,0.0028
3884.00,0.0027
3883.00,0.0026
3882.00,0.0026
3881.00,0.0025
3880.00,0.0025
3879.00,0.0025
3878.00,0.0025
3877.00,0.0025
3876.00,0.0025
3875.00,0.0026
3874.00,0.0026
3873.00,0.0027
3872.00,0.0027
3871.00,0.0027
3870.00,0.0027
3869.00,0.0026
3868.00,0.0025
3867.00,0.0025
3866.00,0.0025
3865.00,0.0025
3864.00,0.0025
3863.00,0.0025
3862.00,0.0025
3861.00,0.0026
3860.00,0.0026
3859.00,0.0026
3858.00,0.0026
3857.00,0.0026
3856.00,0.0026
3855.00,0.0026
3854.00,0.0025
3853.00,0.0025
3852.00,0.0025
3851.00,0.0025
3850.00,0.0026
3849.00,0.0026
3848.00,0.0026
3847.00,0.0027
3846.00,0.0027
3845.00,0.0027
3844.00,0.0027
3843.00,0.0027
3842.00,0.0026
3841.00,0.0026
3840.00,0.0026
3839.00,0.0026
3838.00,0.0026
3837.00,0.0026
3836.00,0.0026
3835.00,0.0026
3834.00,0.0026
3833.00,0.0026
3832.00,0.0026
3831.00,0.0025
3830.00,0.0025
3829.00,0.0025
3828.00,0.0026
3827.00,0.0026
3826.00,0.0026
3825.00,0.0026
3824.00,0.0026
3823.00,0.0025
3822.00,0.0025
3821.00,0.0025
3820.00,0.0025
3819.00,0.0025
3818.00,0.0025
3817.00,0.0025
3816.00,0.0025
3815.00,0.0025
3814.00,0.0025
3813.00,0.0025
3812.00,0.0025
3811.00,0.0025
3810.00,0.0024
3809.00,0.0024
3808.00,0.0025
3807.00,0.0025
3806.00,0.0025
3805.00,0.0025
3804.00,0.0025
3803.00,0.0025
3802.00,0.0026
3801.00,0.0026
3800.00,0.0026
3799.00,0.0025
3798.00,0.0026
3797.00,0.0026
3796.00,0.0026
3795.00,0.0025
3794.00,0.0025
3793.00,0.0025
3792.00,0.0025
3791.00,0.0025
3790.00,0.0025
3789.00,0.0025
3788.00,0.0025
3787.00,0.0025
3786.00,0.0026
3785.00,0.0026
3784.00,0.0026
3783.00,0.0025
3782.00,0.0025
3781.00,0.0025
3780.00,0.0025
3779.00,0.0026
3778.00,0.0026
3777.00,0.0026
3776.00,0.0026
3775.00,0.0026
3774.00,0.0025
3773.00,0.0025
3772.00,0.0025
3771.00,0.0024
3770.00,0.0024
3769.00,0.0025
3768.00,0.0025
3767.00,0.0025
3766.00,0.0026
3765.00,0.0026
3764.00,0.0026
3763.00,0.0026
3762.00,0.0026
3761.00,0.0026
3760.00,0.0026
3759.00,0.0026
3758.00,0.0026
3757.00,0.0026
3756.00,0.0026
3755.00,0.0027
3754.00,0.0027
3753.00,0.0027
3752.00,0.0027
3751.00,0.0027
3750.00,0.0026
3749.00,0.0026
3748.00,0.0025
3747.00,0.0025
3746.00,0.0025
3745.00,0.0025
3744.00,0.0024
3743.00,0.0024
3742.00,0.0024
3741.00,0.0024
3740.00,0.0025
3739.00,0.0025
3738.00,0.0025
3737.00,0.0025
3736.00,0.0025
3735.00,0.0025
3734.00,0.0025
3733.00,0.0025
3732.00,0.0025
3731.00,0.0025
3730.00,0.0024
3729.00,0.0024
3728.00,0.0025
3727.00,0.0025
3726.00,0.0025
3725.00,0.0025
3724.00,0.0026
3723.00,0.0026
3722.00,0.0026
3721.00,0.0026
3720.00,0.0025
3719.00,0.0024
3718.00,0.0024
3717.00,0.0024
3716.00,0.0025
3715.00,0.0025
3714.00,0.0025
3713.00,0.0025
3712.00,0.0025
3711.00,0.0024
3710.00,0.0024
3709.00,0.0024
3708.00,0.0025
3707.00,0.0025
3706.00,0.0025
3705.00,0.0025
3704.00,0.0025
3703.00,0.0025
3702.00,0.0025
3701.00,0.0025
3700.00,0.0025
3699.00,0.0025
3698.00,0.0025
3697.00,0.0025
3696.00,0.0025
3695.00,0.0025
3694.00,0.0026
3693.00,0.0026
3692.00,0.0026
3691.00,0.0025
3690.00,0.0025
3689.00,0.0025
3688.00,0.0025
3687.00,0.0025
3686.00,0.0025
3685.00,0.0025
3684.00,0.0026
3683.00,0.0026
3682.00,0.0026
3681.00,0.0026
3680.00,0.0025
3679.00,0.0025
3678.00,0.0025
3677.00,0.0025
3676.00,0.0025
3675.00,0.0025
3674.00,0.0025
3673.00,0.0024
3672.00,0.0024
3671.00,0.0024
3670.00,0.0025
3669.00,0.0025
3668.00,0.0025
3667.00,0.0025
3666.00,0.0024
3665.00,0.0024
3664.00,0.0024
3663.00,0.0024
3662.00,0.0025
3661.00,0.0025
3660.00,0.0025
3659.00,0.0025
3658.00,0.0025
3657.00,0.0025
3656.00,0.0024
3655.00,0.0024
3654.00,0.0024
3653.00,0.0024
3652.00,0.0025
3651.00,0.0026
3650.00,0.0027
3649.00,0.0027
3648.00,0.0027
3647.00,0.0027
3646.00,0.0026
3645.00,0.0026
3644.00,0.0026
3643.00,0.0026
3642.00,0.0026
3641.00,0.0026
3640.00,0.0026
3639.00,0.0027
3638.00,0.0027
3637.00,0.0027
3636.00,0.0027
3635.00,0.0027
3634.00,0.0027
3633.00,0.0027
3632.00,0.0027
3631.00,0.0027
3630.00,0.0028
3629.00,0.0028
3628.00,0.0028
3627.00,0.0027
3626.00,0.0027
3625.00,0.0027
3624.00,0.0027
3623.00,0.0027
3622.00,0.0028
3621.00,0.0028
3620.00,0.0029
3619.00,0.0029
3618.00,0.0029
3617.00,0.0029
3616.00,0.0028
3615.00,0.0028
3614.00,0.0028
3613.00,0.0028
3612.00,0.0028
3611.00,0.0028
3610.00,0.0028
3609.00,0.0028
3608.00,0.0029
3607.00,0.0029
3606.00,0.0029
3605.00,0.0029
3604.00,0.0029
3603.00,0.0029
3602.00,0.0029
3601.00,0.0029
3600.00,0.0029
3599.00,0.0028
3598.00,0.0029
3597.00,0.0029
3596.00,0.0030
3595.00,0.0031
3594.00,0.0032
3593.00,0.0032
3592.00,0.0032
3591.00,0.0032
3590.00,0.0032
3589.00,0.0032
3588.00,0.0032
3587.00,0.0032
3586.00,0.0032
3585.00,0.0032
3584.00,0.0032
3583.00,0.0032
3582.00,0.0033
3581.00,0.0033
3580.00,0.0033
3579.00,0.0034
3578.00,0.0034
3577.00,0.0034
3576.00,0.0034
3575.00,0.0034
3574.00,0.0035
3573.00,0.0035
3572.00,0.0035
3571.00,0.0035
3570.00,0.0035
3569.00,0.0035
3568.00,0.0035
3567.00,0.0035
3566.00,0.0035
3565.00,0.0036
3564.00,0.0036
3563.00,0.0036
3562.00,0.0036
3561.00,0.0036
3560.00,0.0037
3559.00,0.0037
3558.00,0.0038
3557.00,0.0038
3556.00,0.0037
3555.00,0.0037
3554.00,0.0038
3553.00,0.0038
3552.00,0.0038
3551.00,0.0038
3550.00,0.0039
3549.00,0.0039
3548.00,0.0039
3547.00,0.0039
3546.00,0.0040
3545.00,0.0040
3544.00,0.0040
3543.00,0.0040
3542.00,0.0041
3541.00,0.0041
3540.00,0.0041
3539.00,0.0041
3538.00,0.0041
3537.00,0.0041
3536.00,0.0042
3535.00,0.0042
3534.00,0.0043
3533.00,0.0043
3532.00,0.0043
3531.00,0.0043
3530.00,0.0043
3529.00,0.0043
3528.00,0.0043
3527.00,0.0043
3526.00,0.0043
3525.00,0.0043
3524.00,0.0043
3523.00,0.0044
3522.00,0.0044
3521.00,0.0044
3520.00,0.0044
3519.00,0.0044
3518.00,0.0044
3517.00,0.0045
3516.00,0.0046
3515.00,0.0046
3514.00,0.0046
3513.00,0.0047
3512.00,0.0047
3511.00,0.0047
3510.00,0.0047
3509.00,0.0047
3508.00,0.0047
3507.00,0.0047
3506.00,0.0048
3505.00,0.0048
3504.00,0.0048
3503.00,0.0049
3502.00,0.0049
3501.00,0.0049
3500.00,0.0050
3499.00,0.0050
3498.00,0.0050
3497.00,0.0050
3496.00,0.0050
3495.00,0.0050
3494.00,0.0051
3493.00,0.0051
3492.00,0.0051
3491.00,0.0051
3490.00,0.0051
3489.00,0.0051
3488.00,0.0051
3487.00,0.0051
3486.00,0.0052
3485.00,0.0052
3484.00,0.0052
3483.00,0.0053
3482.00,0.0053
3481.00,0.0053
3480.00,0.0053
3479.00,0.0053
3478.00,0.0053
3477.00,0.0053
3476.00,0.0053
3475.00,0.0054
3474.00,0.0054
3473.00,0.0054
3472.00,0.0054
3471.00,0.0055
3470.00,0.0055
3469.00,0.0055
3468.00,0.0055
3467.00,0.0055
3466.00,0.0055
3465.00,0.0055
3464.00,0.0056
3463.00,0.0056
3462.00,0.0057
3461.00,0.0057
3460.00,0.0058
3459.00,0.0058
3458.00,0.0058
3457.00,0.0058
3456.00,0.0058
3455.00,0.0058
3454.00,0.0058
3453.00,0.0058
3452.00,0.0059
3451.00,0.0059
3450.00,0.0059
3449.00,0.0059
3448.00,0.0060
3447.00,0.0060
3446.00,0.0060
3445.00,0.0060
3444.00,0.0060
3443.00,0.0060
3442.00,0.0060
3441.00,0.0061
3440.00,0.0061
3439.00,0.0061
3438.00,0.0061
3437.00,0.0061
3436.00,0.0061
3435.00,0.0062
3434.00,0.0062
3433.00,0.0062
3432.00,0.0062
3431.00,0.0062
3430.00,0.0062
3429.00,0.0063
3428.00,0.0063
3427.00,0.0064
3426.00,0.0064
3425.00,0.0065
3424.00,0.0065
3423.00,0.0065
3422.00,0.0066
3421.00,0.0066
3420.00,0.0066
3419.00,0.0066
3418.00,0.0066
3417.00,0.0066
3416.00,0.0067
3415.00,0.0067
3414.00,0.0067
3413.00,0.0068
3412.00,0.0068
3411.00,0.0068
3410.00,0.0068
3409.00,0.0068
3408.00,0.0068
3407.00,0.0069
3406.00,0.0069
3405.00,0.0069
3404.00,0.0069
3403.00,0.0069
3402.00,0.0070
3401.00,0.0070
3400.00,0.0070
3399.00,0.0071
3398.00,0.0070
3397.00,0.0070
3396.00,0.0070
3395.00,0.0070
3394.00,0.0070
3393.00,0.0070
3392.00,0.0071
3391.00,0.0071
3390.00,0.0071
3389.00,0.0071
3388.00,0.0070
3387.00,0.0070
3386.00,0.0070
3385.00,0.0070
3384.00,0.0071
3383.00,0.0070
3382.00,0.0070
3381.00,0.0071
3380.00,0.0071
3379.00,0.0071
3378.00,0.0071
3377.00,0.0071
3376.00,0.0071
3375.00,0.0071
3374.00,0.0071
3373.00,0.0071
3372.00,0.0072
3371.00,0.0072
3370.00,0.0071
3369.00,0.0071
3368.00,0.0071
3367.00,0.0071
3366.00,0.0072
3365.00,0.0072
3364.00,0.0072
3363.00,0.0071
3362.00,0.0072
3361.00,0.0072
3360.00,0.0072
3359.00,0.0072
3358.00,0.0072
3357.00,0.0072
3356.00,0.0073
3355.00,0.0073
3354.00,0.0073
3353.00,0.0073
3352.00,0.0073
3351.00,0.0073
3350.00,0.0072
3349.00,0.0072
3348.00,0.0072
3347.00,0.0073
3346.00,0.0073
3345.00,0.0073
3344.00,0.0073
3343.00,0.0073
3342.00,0.0073
3341.00,0.0073
3340.00,0.0073
3339.00,0.0073
3338.00,0.0073
3337.00,0.0072
3336.00,0.0072
3335.00,0.0072
3334.00,0.0072
3333.00,0.0072
3332.00,0.0072
3331.00,0.0072
3330.00,0.0072
3329.00,0.0072
3328.00,0.0072
3327.00,0.0072
3326.00,0.0072
3325.00,0.0072
3324.00,0.0072
3323.00,0.0072
3322.00,0.0072
3321.00,0.0072
3320.00,0.0071
3319.00,0.0071
3318.00,0.0071
3317.00,0.0071
3316.00,0.0071
3315.00,0.0072
3314.00,0.0072
3313.00,0.0072
3312.00,0.0072
3311.00,0.0072
3310.00,0.0071
3309.00,0.0071
3308.00,0.0071
3307.00,0.0071
3306.00,0.0071
3305.00,0.0071
3304.00,0.0071
3303.00,0.0071
3302.00,0.0071
3301.00,0.0071
3300.00,0.0071
3299.00,0.0071
3298.00,0.0071
3297.00,0.0072
3296.00,0.0071
3295.00,0.0071
3294.00,0.0071
3293.00,0.0070
3292.00,0.0070
3291.00,0.0070
3290.00,0.0070
3289.00,0.0070
3288.00,0.0070
3287.00,0.0070
3286.00,0.0069
3285.00,0.0069
3284.00,0.0069
3283.00,0.0069
3282.00,0.0069
3281.00,0.0068
3280.00,0.0068
3279.00,0.0067
3278.00,0.0067
3277.00,0.0067
3276.00,0.0067
3275.00,0.0068
3274.00,0.0068
3273.00,0.0068
3272.00,0.0068
3271.00,0.0068
3270.00,0.0067
3269.00,0.0067
3268.00,0.0067
3267.00,0.0067
3266.00,0.0067
3265.00,0.0067
3264.00,0.0067
3263.00,0.0066
3262.00,0.0066
3261.00,0.0066
3260.00,0.0066
3259.00,0.0066
3258.00,0.0066
3257.00,0.0066
3256.00,0.0065
3255.00,0.0065
3254.00,0.0065
3253.00,0.0064
3252.00,0.0064
3251.00,0.0064
3250.00,0.0064
3249.00,0.0064
3248.00,0.0063
3247.00,0.0063
3246.00,0.0062
3245.00,0.0062
3244.00,0.0062
3243.00,0.0063
3242.00,0.0063
3241.00,0.0063
3240.00,0.0063
3239.00,0.0063
3238.00,0.0063
3237.00,0.0063
3236.00,0.0063
3235.00,0.0064
3234.00,0.0064
3233.00,0.0064
3232.00,0.0063
3231.00,0.0063
3230.00,0.0063
3229.00,0.0063
3228.00,0.0063
3227.00,0.0064
3226.00,0.0064
3225.00,0.0064
3224.00,0.0064
3223.00,0.0064
3222.00,0.0064
3221.00,0.0064
3220.00,0.0064
3219.00,0.0064
3218.00,0.0065
3217.00,0.0065
3216.00,0.0065
3215.00,0.0064
3214.00,0.0064
3213.00,0.0064
3212.00,0.0064
3211.00,0.0065
3210.00,0.0065
3209.00,0.0065
3208.00,0.0066
3207.00,0.0066
3206.00,0.0066
3205.00,0.0066
3204.00,0.0065
3203.00,0.0065
3202.00,0.0066
3201.00,0.0066
3200.00,0.0066
3199.00,0.0066
3198.00,0.0066
3197.00,0.0065
3196.00,0.0065
3195.00,0.0065
3194.00,0.0065
3193.00,0.0065
3192.00,0.0065
3191.00,0.0065
3190.00,0.0065
3189.00,0.0064
3188.00,0.0064
3187.00,0.0063
3186.00,0.0063
3185.00,0.0064
3184.00,0.0064
3183.00,0.0064
3182.00,0.0063
3181.00,0.0063
3180.00,0.0062
3179.00,0.0061
3178.00,0.0061
3177.00,0.0061
3176.00,0.0061
3175.00,0.0061
3174.00,0.0061
3173.00,0.0061
3172.00,0.0060
3171.00,0.0060
3170.00,0.0060
3169.00,0.0060
3168.00,0.0059
3167.00,0.0059
3166.00,0.0059
3165.00,0.0059
3164.00,0.0059
3163.00,0.0059
3162.00,0.0059
3161.00,0.0059
3160.00,0.0058
3159.00,0.0058
3158.00,0.0059
3157.00,0.0059
3156.00,0.0059
3155.00,0.0059
3154.00,0.0058
3153.00,0.0058
3152.00,0.0058
3151.00,0.0058
3150.00,0.0058
3149.00,0.0058
3148.00,0.0057
3147.00,0.0057
3146.00,0.0057
3145.00,0.0057
3144.00,0.0057
3143.00,0.0057
3142.00,0.0057
3141.00,0.0057
3140.00,0.0057
3139.00,0.0056
3138.00,0.0056
3137.00,0.0056
3136.00,0.0055
3135.00,0.0055
3134.00,0.0054
3133.00,0.0054
3132.00,0.0054
3131.00,0.0055
3130.00,0.0055
3129.00,0.0055
3128.00,0.0055
3127.00,0.0055
3126.00,0.0054
3125.00,0.0054
3124.00,0.0053
3123.00,0.0053
3122.00,0.0053
3121.00,0.0052
3120.00,0.0052
3119.00,0.0052
3118.00,0.0052
3117.00,0.0051
3116.00,0.0051
3115.00,0.0051
3114.00,0.0051
3113.00,0.0050
3112.00,0.0050
3111.00,0.0050
3110.00,0.0050
3109.00,0.0050
3108.00,0.0050
3107.00,0.0050
3106.00,0.0050
3105.00,0.0049
3104.00,0.0049
3103.00,0.0049
3102.00,0.0049
3101.00,0.0049
3100.00,0.0049
3099.00,0.0049
3098.00,0.0049
3097.00,0.0049
3096.00,0.0049
3095.00,0.0049
3094.00,0.0049
3093.00,0.0048
3092.00,0.0047
3091.00,0.0047
3090.00,0.0047
3089.00,0.0047
3088.00,0.0047
3087.00,0.0046
3086.00,0.0046
3085.00,0.0046
3084.00,0.0046
3083.00,0.0046
3082.00,0.0046
3081.00,0.0047
3080.00,0.0046
3079.00,0.0046
3078.00,0.0046
3077.00,0.0045
3076.00,0.0046
3075.00,0.0046
3074.00,0.0046
3073.00,0.0046
3072.00,0.0046
3071.00,0.0046
3070.00,0.0047
3069.00,0.0047
3068.00,0.0046
3067.00,0.0046
3066.00,0.0046
3065.00,0.0046
3064.00,0.0047
3063.00,0.0047
3062.00,0.0047
3061.00,0.0047
3060.00,0.0047
3059.00,0.0047
3058.00,0.0047
3057.00,0.0047
3056.00,0.0047
3055.00,0.0047
3054.00,0.0047
3053.00,0.0047
3052.00,0.0047
3051.00,0.0047
3050.00,0.0047
3049.00,0.0047
3048.00,0.0047
3047.00,0.0047
3046.00,0.0047
3045.00,0.0047
3044.00,0.0047
3043.00,0.0047
3042.00,0.0048
3041.00,0.0048
3040.00,0.0048
3039.00,0.0048
3038.00,0.0048
3037.00,0.0049
3036.00,0.0049
3035.00,0.0049
3034.00,0.0049
3033.00,0.0049
3032.00,0.0049
3031.00,0.0050
3030.00,0.0050
3029.00,0.0051
3028.00,0.0051
3027.00,0.0051
3026.00,0.0051
3025.00,0.0051
3024.00,0.0052
3023.00,0.0052
3022.00,0.0052
3021.00,0.0053
3020.00,0.0053
3019.00,0.0054
3018.00,0.0054
3017.00,0.0055
3016.00,0.0055
3015.00,0.0056
3014.00,0.0058
3013.00,0.0059
3012.00,0.0060
3011.00,0.0060
3010.00,0.0061
3009.00,0.0062
3008.00,0.0063
3007.00,0.0064
3006.00,0.0065
3005.00,0.0066
3004.00,0.0067
3003.00,0.0068
3002.00,0.0070
3001.00,0.0072
3000.00,0.0073
2999.00,0.0075
2998.00,0.0078
2997.00,0.0080
2996.00,0.0082
2995.00,0.0085
2994.00,0.0088
2993.00,0.0092
2992.00,0.0096
2991.00,0.0100
2990.00,0.0104
2989.00,0.0109
2988.00,0.0115
2987.00,0.0121
2986.00,0.0128
2985.00,0.0137
2984.00,0.0146
2983.00,0.0155
2982.00,0.0166
2981.00,0.0179
2980.00,0.0193
2979.00,0.0209
2978.00,0.0227
2977.00,0.0248
2976.00,0.0272
2975.00,0.0299
2974.00,0.0330
2973.00,0.0364
2972.00,0.0402
2971.00,0.0445
2970.00,0.0492
2969.00,0.0542
2968.00,0.0596
2967.00,0.0653
2966.00,0.0712
2965.00,0.0771
2964.00,0.0827
2963.00,0.0879
2962.00,0.0921
2961.00,0.0954
2960.00,0.0978
2959.00,0.0996
2958.00,0.1013
2957.00,0.1035
2956.00,0.1064
2955.00,0.1104
2954.00,0.1152
2953.00,0.1204
2952.00,0.1254
2951.00,0.1291
2950.00,0.1309
2949.00,0.1301
2948.00,0.1266
2947.00,0.1206
2946.00,0.1128
2945.00,0.1042
2944.00,0.0957
2943.00,0.0881
2942.00,0.0820
2941.00,0.0774
2940.00,0.0745
2939.00,0.0731
2938.00,0.0730
2937.00,0.0741
2936.00,0.0763
2935.00,0.0796
2934.00,0.0837
2933.00,0.0887
2932.00,0.0945
2931.00,0.1009
2930.00,0.1078
2929.00,0.1149
2928.00,0.1221
2927.00,0.1292
2926.00,0.1359
2925.00,0.1424
2924.00,0.1486
2923.00,0.1546
2922.00,0.1604
2921.00,0.1660
2920.00,0.1709
2919.00,0.1746
2918.00,0.1767
2917.00,0.1766
2916.00,0.1743
2915.00,0.1702
2914.00,0.1646
2913.00,0.1584
2912.00,0.1521
2911.00,0.1461
2910.00,0.1406
2909.00,0.1357
2908.00,0.1311
2907.00,0.1267
2906.00,0.1224
2905.00,0.1181
2904.00,0.1137
2903.00,0.1092
2902.00,0.1047
2901.00,0.1003
2900.00,0.0961
2899.00,0.0920
2898.00,0.0882
2897.00,0.0847
2896.00,0.0817
2895.00,0.0791
2894.00,0.0770
2893.00,0.0754
2892.00,0.0741
2891.00,0.0733
2890.00,0.0728
2889.00,0.0726
2888.00,0.0727
2887.00,0.0731
2886.00,0.0737
2885.00,0.0745
2884.00,0.0755
2883.00,0.0767
2882.00,0.0782
2881.00,0.0797
2880.00,0.0811
2879.00,0.0822
2878.00,0.0828
2877.00,0.0829
2876.00,0.0825
2875.00,0.0820
2874.00,0.0817
2873.00,0.0818
2872.00,0.0824
2871.00,0.0836
2870.00,0.0850
2869.00,0.0866
2868.00,0.0877
2867.00,0.0879
2866.00,0.0867
2865.00,0.0837
2864.00,0.0792
2863.00,0.0737
2862.00,0.0677
2861.00,0.0621
2860.00,0.0571
2859.00,0.0531
2858.00,0.0500
2857.00,0.0478
2856.00,0.0463
2855.00,0.0454
2854.00,0.0451
2853.00,0.0451
2852.00,0.0455
2851.00,0.0463
2850.00,0.0474
2849.00,0.0491
2848.00,0.0512
2847.00,0.0540
2846.00,0.0574
2845.00,0.0614
2844.00,0.0658
2843.00,0.0704
2842.00,0.0750
2841.00,0.0791
2840.00,0.0823
2839.00,0.0840
2838.00,0.0838
2837.00,0.0816
2836.00,0.0774
2835.00,0.0716
2834.00,0.0650
2833.00,0.0582
2832.00,0.0517
2831.00,0.0459
2830.00,0.0409
2829.00,0.0368
2828.00,0.0334
2827.00,0.0307
2826.00,0.0284
2825.00,0.0265
2824.00,0.0250
2823.00,0.0237
2822.00,0.0225
2821.00,0.0215
2820.00,0.0206
2819.00,0.0198
2818.00,0.0191
2817.00,0.0185
2816.00,0.0180
2815.00,0.0175
2814.00,0.0171
2813.00,0.0167
2812.00,0.0163
2811.00,0.0159
2810.00,0.0155
2809.00,0.0151
2808.00,0.0147
2807.00,0.0143
2806.00,0.0138
2805.00,0.0133
2804.00,0.0129
2803.00,0.0125
2802.00,0.0121
2801.00,0.0118
2800.00,0.0116
2799.00,0.0114
2798.00,0.0112
2797.00,0.0110
2796.00,0.0108
2795.00,0.0106
2794.00,0.0103
2793.00,0.0101
2792.00,0.0099
2791.00,0.0097
2790.00,0.0094
2789.00,0.0092
2788.00,0.0090
2787.00,0.0088
2786.00,0.0086
2785.00,0.0084
2784.00,0.0083
2783.00,0.0081
2782.00,0.0079
2781.00,0.0078
2780.00,0.0076
2779.00,0.0075
2778.00,0.0074
2777.00,0.0074
2776.00,0.0073
2775.00,0.0072
2774.00,0.0071
2773.00,0.0070
2772.00,0.0070
2771.00,0.0069
2770.00,0.0068
2769.00,0.0068
2768.00,0.0068
2767.00,0.0068
2766.00,0.0068
2765.00,0.0068
2764.00,0.0067
2763.00,0.0067
2762.00,0.0066
2761.00,0.0066
2760.00,0.0066
2759.00,0.0066
2758.00,0.0066
2757.00,0.0066
2756.00,0.0066
2755.00,0.0066
2754.00,0.0066
2753.00,0.0066
2752.00,0.0065
2751.00,0.0065
2750.00,0.0064
2749.00,0.0064
2748.00,0.0064
2747.00,0.0065
2746.00,0.0065
2745.00,0.0065
2744.00,0.0066
2743.00,0.0067
2742.00,0.0067
2741.00,0.0068
2740.00,0.0069
2739.00,0.0069
2738.00,0.0070
2737.00,0.0071
2736.00,0.0072
2735.00,0.0074
2734.00,0.0075
2733.00,0.0076
2732.00,0.0077
2731.00,0.0078
2730.00,0.0079
2729.00,0.0081
2728.00,0.0082
2727.00,0.0084
2726.00,0.0086
2725.00,0.0088
2724.00,0.0089
2723.00,0.0089
2722.00,0.0089
2721.00,0.0088
2720.00,0.0086
2719.00,0.0084
2718.00,0.0082
2717.00,0.0080
2716.00,0.0078
2715.00,0.0076
2714.00,0.0074
2713.00,0.0072
2712.00,0.0071
2711.00,0.0069
2710.00,0.0068
2709.00,0.0067
2708.00,0.0066
2707.00,0.0064
2706.00,0.0063
2705.00,0.0063
2704.00,0.0062
2703.00,0.0061
2702.00,0.0061
2701.00,0.0060
2700.00,0.0059
2699.00,0.0059
2698.00,0.0059
2697.00,0.0058
2696.00,0.0058
2695.00,0.0058
2694.00,0.0058
2693.00,0.0058
2692.00,0.0058
2691.00,0.0059
2690.00,0.0059
2689.00,0.0059
2688.00,0.0058
2687.00,0.0058
2686.00,0.0058
2685.00,0.0058
2684.00,0.0058
2683.00,0.0059
2682.00,0.0059
2681.00,0.0059
2680.00,0.0059
2679.00,0.0059
2678.00,0.0059
2677.00,0.0059
2676.00,0.0059
2675.00,0.0059
2674.00,0.0059
2673.00,0.0059
2672.00,0.0059
2671.00,0.0059
2670.00,0.0058
2669.00,0.0058
2668.00,0.0058
2667.00,0.0058
2666.00,0.0058
2665.00,0.0058
2664.00,0.0059
2663.00,0.0059
2662.00,0.0060
2661.00,0.0061
2660.00,0.0061
2659.00,0.0061
2658.00,0.0061
2657.00,0.0061
2656.00,0.0060
2655.00,0.0060
2654.00,0.0060
2653.00,0.0059
2652.00,0.0059
2651.00,0.0059
2650.00,0.0058
2649.00,0.0058
2648.00,0.0057
2647.00,0.0057
2646.00,0.0057
2645.00,0.0057
2644.00,0.0056
2643.00,0.0056
2642.00,0.0055
2641.00,0.0054
2640.00,0.0054
2639.00,0.0053
2638.00,0.0053
2637.00,0.0053
2636.00,0.0053
2635.00,0.0053
2634.00,0.0053
2633.00,0.0053
2632.00,0.0053
2631.00,0.0053
2630.00,0.0054
2629.00,0.0054
2628.00,0.0055
2627.00,0.0054
2626.00,0.0054
2625.00,0.0054
2624.00,0.0054
2623.00,0.0054
2622.00,0.0054
2621.00,0.0054
2620.00,0.0054
2619.00,0.0054
2618.00,0.0054
2617.00,0.0055
2616.00,0.0055
2615.00,0.0054
2614.00,0.0054
2613.00,0.0054
2612.00,0.0053
2611.00,0.0053
2610.00,0.0052
2609.00,0.0052
2608.00,0.0051
2607.00,0.0050
2606.00,0.0050
2605.00,0.0049
2604.00,0.0049
2603.00,0.0049
2602.00,0.0049
2601.00,0.0049
2600.00,0.0049
2599.00,0.0049
2598.00,0.0048
2597.00,0.0048
2596.00,0.0048
2595.00,0.0048
2594.00,0.0049
2593.00,0.0049
2592.00,0.0049
2591.00,0.0049
2590.00,0.0049
2589.00,0.0050
2588.00,0.0051
2587.00,0.0052
2586.00,0.0052
2585.00,0.0052
2584.00,0.0053
2583.00,0.0053
2582.00,0.0053
2581.00,0.0053
2580.00,0.0053
2579.00,0.0052
2578.00,0.0052
2577.00,0.0051
2576.00,0.0050
2575.00,0.0049
2574.00,0.0048
2573.00,0.0047
2572.00,0.0046
2571.00,0.0045
2570.00,0.0045
2569.00,0.0044
2568.00,0.0044
2567.00,0.0044
2566.00,0.0044
2565.00,0.0044
2564.00,0.0043
2563.00,0.0043
2562.00,0.0043
2561.00,0.0043
2560.00,0.0043
2559.00,0.0043
2558.00,0.0043
2557.00,0.0042
2556.00,0.0042
2555.00,0.0041
2554.00,0.0040
2553.00,0.0040
2552.00,0.0039
2551.00,0.0039
2550.00,0.0039
2549.00,0.0039
2548.00,0.0038
2547.00,0.0038
2546.00,0.0038
2545.00,0.0038
2544.00,0.0038
2543.00,0.0038
2542.00,0.0038
2541.00,0.0038
2540.00,0.0038
2539.00,0.0038
2538.00,0.0037
2537.00,0.0037
2536.00,0.0037
2535.00,0.0037
2534.00,0.0036
2533.00,0.0036
2532.00,0.0036
2531.00,0.0035
2530.00,0.0035
2529.00,0.0035
2528.00,0.0036
2527.00,0.0036
2526.00,0.0036
2525.00,0.0036
2524.00,0.0035
2523.00,0.0035
2522.00,0.0034
2521.00,0.0034
2520.00,0.0034
2519.00,0.0034
2518.00,0.0034
2517.00,0.0034
2516.00,0.0034
2515.00,0.0033
2514.00,0.0033
2513.00,0.0033
2512.00,0.0033
2511.00,0.0033
2510.00,0.0032
2509.00,0.0032
2508.00,0.0032
2507.00,0.0032
2506.00,0.0032
2505.00,0.0032
2504.00,0.0032
2503.00,0.0033
2502.00,0.0032
2501.00,0.0032
2500.00,0.0032
2499.00,0.0032
2498.00,0.0032
2497.00,0.0032
2496.00,0.0033
2495.00,0.0033
2494.00,0.0033
2493.00,0.0033
2492.00,0.0033
2491.00,0.0033
2490.00,0.0033
2489.00,0.0033
2488.00,0.0033
2487.00,0.0032
2486.00,0.0032
2485.00,0.0031
2484.00,0.0031
2483.00,0.0031
2482.00,0.0031
2481.00,0.0030
2480.00,0.0030
2479.00,0.0030
2478.00,0.0030
2477.00,0.0030
2476.00,0.0031
2475.00,0.0031
2474.00,0.0031
2473.00,0.0031
2472.00,0.0031
2471.00,0.0030
2470.00,0.0030
2469.00,0.0030
2468.00,0.0030
2467.00,0.0030
2466.00,0.0030
2465.00,0.0030
2464.00,0.0031
2463.00,0.0032
2462.00,0.0032
2461.00,0.0032
2460.00,0.0032
2459.00,0.0031
2458.00,0.0031
2457.00,0.0031
2456.00,0.0031
2455.00,0.0032
2454.00,0.0032
2453.00,0.0032
2452.00,0.0032
2451.00,0.0032
2450.00,0.0032
2449.00,0.0031
2448.00,0.0031
2447.00,0.0031
2446.00,0.0031
2445.00,0.0031
2444.00,0.0031
2443.00,0.0031
2442.00,0.0031
2441.00,0.0032
2440.00,0.0032
2439.00,0.0033
2438.00,0.0032
2437.00,0.0032
2436.00,0.0032
2435.00,0.0032
2434.00,0.0032
2433.00,0.0032
2432.00,0.0032
2431.00,0.0032
2430.00,0.0032
2429.00,0.0031
2428.00,0.0031
2427.00,0.0031
2426.00,0.0031
2425.00,0.0031
2424.00,0.0031
2423.00,0.0031
2422.00,0.0031
2421.00,0.0031
2420.00,0.0031
2419.00,0.0031
2418.00,0.0031
2417.00,0.0030
2416.00,0.0030
2415.00,0.0030
2414.00,0.0030
2413.00,0.0031
2412.00,0.0031
2411.00,0.0031
2410.00,0.0031
2409.00,0.0031
2408.00,0.0031
2407.00,0.0030
2406.00,0.0029
2405.00,0.0029
2404.00,0.0029
2403.00,0.0029
2402.00,0.0030
2401.00,0.0030
2400.00,0.0030
2399.00,0.0030
2398.00,0.0030
2397.00,0.0030
2396.00,0.0030
2395.00,0.0029
2394.00,0.0029
2393.00,0.0029
2392.00,0.0030
2391.00,0.0030
2390.00,0.0031
2389.00,0.0031
2388.00,0.0031
2387.00,0.0031
2386.00,0.0031
2385.00,0.0030
2384.00,0.0030
2383.00,0.0029
2382.00,0.0029
2381.00,0.0028
2380.00,0.0028
2379.00,0.0027
2378.00,0.0027
2377.00,0.0028
2376.00,0.0029
2375.00,0.0029
2374.00,0.0030
2373.00,0.0030
2372.00,0.0029
2371.00,0.0028
2370.00,0.0027
2369.00,0.0026
2368.00,0.0027
2367.00,0.0027
2366.00,0.0028
2365.00,0.0029
2364.00,0.0030
2363.00,0.0031
2362.00,0.0031
2361.00,0.0031
2360.00,0.0031
2359.00,0.0030
2358.00,0.0030
2357.00,0.0030
2356.00,0.0030
2355.00,0.0031
2354.00,0.0031
2353.00,0.0031
2352.00,0.0031
2351.00,0.0031
2350.00,0.0031
2349.00,0.0031
2348.00,0.0031
2347.00,0.0031
2346.00,0.0032
2345.00,0.0032
2344.00,0.0033
2343.00,0.0033
2342.00,0.0033
2341.00,0.0033
2340.00,0.0033
2339.00,0.0034
2338.00,0.0034
2337.00,0.0033
2336.00,0.0033
2335.00,0.0032
2334.00,0.0031
2333.00,0.0031
2332.00,0.0031
2331.00,0.0031
2330.00,0.0032
2329.00,0.0033
2328.00,0.0034
2327.00,0.0038
2326.00,0.0042
2325.00,0.0045
2324.00,0.0046
2323.00,0.0045
2322.00,0.0043
2321.00,0.0041
2320.00,0.0039
2319.00,0.0038
2318.00,0.0037
2317.00,0.0036
2316.00,0.0036
2315.00,0.0036
2314.00,0.0036
2313.00,0.0035
2312.00,0.0035
2311.00,0.0035
2310.00,0.0035
2309.00,0.0035
2308.00,0.0035
2307.00,0.0035
2306.00,0.0035
2305.00,0.0034
2304.00,0.0034
2303.00,0.0034
2302.00,0.0034
2301.00,0.0034
2300.00,0.0034
2299.00,0.0035
2298.00,0.0035
2297.00,0.0036
2296.00,0.0036
2295.00,0.0036
2294.00,0.0037
2293.00,0.0036
2292.00,0.0036
2291.00,0.0036
2290.00,0.0036
2289.00,0.0037
2288.00,0.0038
2287.00,0.0039
2286.00,0.0040
2285.00,0.0040
2284.00,0.0038
2283.00,0.0037
2282.00,0.0035
2281.00,0.0035
2280.00,0.0035
2279.00,0.0035
2278.00,0.0035
2277.00,0.0034
2276.00,0.0034
2275.00,0.0034
2274.00,0.0033
2273.00,0.0033
2272.00,0.0033
2271.00,0.0034
2270.00,0.0034
2269.00,0.0034
2268.00,0.0033
2267.00,0.0033
2266.00,0.0032
2265.00,0.0032
2264.00,0.0033
2263.00,0.0033
2262.00,0.0034
2261.00,0.0035
2260.00,0.0034
2259.00,0.0034
2258.00,0.0033
2257.00,0.0031
2256.00,0.0029
2255.00,0.0028
2254.00,0.0028
2253.00,0.0028
2252.00,0.0028
2251.00,0.0028
2250.00,0.0027
2249.00,0.0027
2248.00,0.0028
2247.00,0.0029
2246.00,0.0029
2245.00,0.0029
2244.00,0.0029
2243.00,0.0028
2242.00,0.0028
2241.00,0.0029
2240.00,0.0029
2239.00,0.0030
2238.00,0.0030
2237.00,0.0029
2236.00,0.0028
2235.00,0.0027
2234.00,0.0026
2233.00,0.0026
2232.00,0.0026
2231.00,0.0027
2230.00,0.0029
2229.00,0.0029
2228.00,0.0029
2227.00,0.0027
2226.00,0.0026
2225.00,0.0027
2224.00,0.0027
2223.00,0.0027
2222.00,0.0028
2221.00,0.0029
2220.00,0.0030
2219.00,0.0029
2218.00,0.0028
2217.00,0.0027
2216.00,0.0027
2215.00,0.0028
2214.00,0.0028
2213.00,0.0029
2212.00,0.0029
2211.00,0.0028
2210.00,0.0027
2209.00,0.0026
2208.00,0.0026
2207.00,0.0025
2206.00,0.0025
2205.00,0.0027
2204.00,0.0029
2203.00,0.0031
2202.00,0.0032
2201.00,0.0032
2200.00,0.0031
2199.00,0.0030
2198.00,0.0029
2197.00,0.0029
2196.00,0.0029
2195.00,0.0029
2194.00,0.0031
2193.00,0.0032
2192.00,0.0033
2191.00,0.0034
2190.00,0.0035
2189.00,0.0035
2188.00,0.0034
2187.00,0.0032
2186.00,0.0029
2185.00,0.0026
2184.00,0.0023
2183.00,0.0021
2182.00,0.0020
2181.00,0.0020
2180.00,0.0021
2179.00,0.0023
2178.00,0.0025
2177.00,0.0027
2176.00,0.0027
2175.00,0.0025
2174.00,0.0022
2173.00,0.0021
2172.00,0.0021
2171.00,0.0024
2170.00,0.0029
2169.00,0.0034
2168.00,0.0037
2167.00,0.0037
2166.00,0.0037
2165.00,0.0039
2164.00,0.0042
2163.00,0.0045
2162.00,0.0043
2161.00,0.0036
2160.00,0.0024
2159.00,0.0010
2158.00,0.0001
2157.00,-0.0002
2156.00,-0.0000
2155.00,0.0002
2154.00,0.0004
2153.00,0.0006
2152.00,0.0009
2151.00,0.0010
2150.00,0.0011
2149.00,0.0010
2148.00,0.0010
2147.00,0.0009
2146.00,0.0007
2145.00,0.0006
2144.00,0.0006
2143.00,0.0006
2142.00,0.0007
2141.00,0.0008
2140.00,0.0011
2139.00,0.0012
2138.00,0.0014
2137.00,0.0013
2136.00,0.0012
2135.00,0.0009
2134.00,0.0007
2133.00,0.0006
2132.00,0.0007
2131.00,0.0008
2130.00,0.0010
2129.00,0.0012
2128.00,0.0014
2127.00,0.0015
2126.00,0.0016
2125.00,0.0017
2124.00,0.0018
2123.00,0.0018
2122.00,0.0019
2121.00,0.0019
2120.00,0.0019
2119.00,0.0020
2118.00,0.0020
2117.00,0.0022
2116.00,0.0024
2115.00,0.0025
2114.00,0.0025
2113.00,0.0024
2112.00,0.0023
2111.00,0.0023
2110.00,0.0023
2109.00,0.0024
2108.00,0.0025
2107.00,0.0025
2106.00,0.0024
2105.00,0.0025
2104.00,0.0025
2103.00,0.0026
2102.00,0.0025
2101.00,0.0025
2100.00,0.0024
2099.00,0.0023
2098.00,0.0023
2097.00,0.0022
2096.00,0.0020
2095.00,0.0019
2094.00,0.0018
2093.00,0.0019
2092.00,0.0021
2091.00,0.0024
2090.00,0.0025
2089.00,0.0026
2088.00,0.0026
2087.00,0.0026
2086.00,0.0026
2085.00,0.0027
2084.00,0.0027
2083.00,0.0026
2082.00,0.0024
2081.00,0.0023
2080.00,0.0023
2079.00,0.0024
2078.00,0.0024
2077.00,0.0023
2076.00,0.0022
2075.00,0.0021
2074.00,0.0022
2073.00,0.0024
2072.00,0.0025
2071.00,0.0026
2070.00,0.0026
2069.00,0.0026
2068.00,0.0025
2067.00,0.0025
2066.00,0.0024
2065.00,0.0024
2064.00,0.0024
2063.00,0.0024
2062.00,0.0024
2061.00,0.0024
2060.00,0.0025
2059.00,0.0027
2058.00,0.0028
2057.00,0.0029
2056.00,0.0027
2055.00,0.0025
2054.00,0.0025
2053.00,0.0028
2052.00,0.0033
2051.00,0.0036
2050.00,0.0034
2049.00,0.0030
2048.00,0.0025
2047.00,0.0021
2046.00,0.0021
2045.00,0.0022
2044.00,0.0025
2043.00,0.0027
2042.00,0.0027
2041.00,0.0026
2040.00,0.0023
2039.00,0.0022
2038.00,0.0021
2037.00,0.0020
2036.00,0.0019
2035.00,0.0016
2034.00,0.0013
2033.00,0.0013
2032.00,0.0014
2031.00,0.0016
2030.00,0.0018
2029.00,0.0018
2028.00,0.0018
2027.00,0.0017
2026.00,0.0015
2025.00,0.0013
2024.00,0.0012
2023.00,0.0011
2022.00,0.0011
2021.00,0.0011
2020.00,0.0011
2019.00,0.0010
2018.00,0.0010
2017.00,0.0011
2016.00,0.0014
2015.00,0.0017
2014.00,0.0019
2013.00,0.0019
2012.00,0.0018
2011.00,0.0017
2010.00,0.0016
2009.00,0.0016
2008.00,0.0015
2007.00,0.0013
2006.00,0.0011
2005.00,0.0010
2004.00,0.0009
2003.00,0.0009
2002.00,0.0009
2001.00,0.0011
2000.00,0.0013
1999.00,0.0015
1998.00,0.0017
1997.00,0.0017
1996.00,0.0017
1995.00,0.0017
1994.00,0.0018
1993.00,0.0019
1992.00,0.0020
1991.00,0.0020
1990.00,0.0020
1989.00,0.0020
1988.00,0.0021
1987.00,0.0022
1986.00,0.0022
1985.00,0.0023
1984.00,0.0024
1983.00,0.0027
1982.00,0.0030
1981.00,0.0032
1980.00,0.0032
1979.00,0.0029
1978.00,0.0022
1977.00,0.0014
1976.00,0.0009
1975.00,0.0006
1974.00,0.0007
1973.00,0.0009
1972.00,0.0011
1971.00,0.0013
1970.00,0.0016
1969.00,0.0018
1968.00,0.0019
1967.00,0.0017
1966.00,0.0015
1965.00,0.0013
1964.00,0.0011
1963.00,0.0010
1962.00,0.0009
1961.00,0.0009
1960.00,0.0009
1959.00,0.0008
1958.00,0.0007
1957.00,0.0007
1956.00,0.0007
1955.00,0.0007
1954.00,0.0009
1953.00,0.0011
1952.00,0.0013
1951.00,0.0014
1950.00,0.0012
1949.00,0.0010
1948.00,0.0009
1947.00,0.0008
1946.00,0.0009
1945.00,0.0009
1944.00,0.0009
1943.00,0.0010
1942.00,0.0011
1941.00,0.0013
1940.00,0.0014
1939.00,0.0014
1938.00,0.0014
1937.00,0.0013
1936.00,0.0014
1935.00,0.0015
1934.00,0.0016
1933.00,0.0016
1932.00,0.0016
1931.00,0.0016
1930.00,0.0016
1929.00,0.0016
1928.00,0.0016
1927.00,0.0016
1926.00,0.0016
1925.00,0.0015
1924.00,0.0015
1923.00,0.0015
1922.00,0.0016
1921.00,0.0019
1920.00,0.0021
1919.00,0.0022
1918.00,0.0022
1917.00,0.0022
1916.00,0.0021
1915.00,0.0021
1914.00,0.0020
1913.00,0.0020
1912.00,0.0021
1911.00,0.0022
1910.00,0.0022
1909.00,0.0022
1908.00,0.0021
1907.00,0.0020
1906.00,0.0019
1905.00,0.0019
1904.00,0.0019
1903.00,0.0019
1902.00,0.0019
1901.00,0.0020
1900.00,0.0021
1899.00,0.0021
1898.00,0.0022
1897.00,0.0023
1896.00,0.0024
1895.00,0.0024
1894.00,0.0024
1893.00,0.0024
1892.00,0.0024
1891.00,0.0024
1890.00,0.0024
1889.00,0.0024
1888.00,0.0025
1887.00,0.0025
1886.00,0.0025
1885.00,0.0025
1884.00,0.0024
1883.00,0.0023
1882.00,0.0022
1881.00,0.0022
1880.00,0.0022
1879.00,0.0022
1878.00,0.0022
1877.00,0.0022
1876.00,0.0023
1875.00,0.0023
1874.00,0.0023
1873.00,0.0023
1872.00,0.0023
1871.00,0.0023
1870.00,0.0023
1869.00,0.0023
1868.00,0.0022
1867.00,0.0022
1866.00,0.0023
1865.00,0.0024
1864.00,0.0025
1863.00,0.0025
1862.00,0.0024
1861.00,0.0024
1860.00,0.0023
1859.00,0.0023
1858.00,0.0022
1857.00,0.0022
1856.00,0.0022
1855.00,0.0022
1854.00,0.0022
1853.00,0.0023
1852.00,0.0023
1851.00,0.0024
1850.00,0.0025
1849.00,0.0025
1848.00,0.0025
1847.00,0.0025
1846.00,0.0024
1845.00,0.0024
1844.00,0.0023
1843.00,0.0023
1842.00,0.0023
1841.00,0.0024
1840.00,0.0025
1839.00,0.0025
1838.00,0.0025
1837.00,0.0025
1836.00,0.0025
1835.00,0.0026
1834.00,0.0026
1833.00,0.0026
1832.00,0.0025
1831.00,0.0025
1830.00,0.0025
1829.00,0.0026
1828.00,0.0027
1827.00,0.0027
1826.00,0.0027
1825.00,0.0027
1824.00,0.0026
1823.00,0.0026
1822.00,0.0026
1821.00,0.0025
1820.00,0.0025
1819.00,0.0024
1818.00,0.0023
1817.00,0.0022
1816.00,0.0022
1815.00,0.0023
1814.00,0.0024
1813.00,0.0025
1812.00,0.0026
1811.00,0.0026
1810.00,0.0026
1809.00,0.0026
1808.00,0.0027
1807.00,0.0027
1806.00,0.0027
1805.00,0.0028
1804.00,0.0028
1803.00,0.0028
1802.00,0.0028
1801.00,0.0029
1800.00,0.0029
1799.00,0.0030
1798.00,0.0030
1797.00,0.0030
1796.00,0.0030
1795.00,0.0031
1794.00,0.0031
1793.00,0.0032
1792.00,0.0032
1791.00,0.0032
1790.00,0.0031
1789.00,0.0031
1788.00,0.0031
1787.00,0.0031
1786.00,0.0031
1785.00,0.0031
1784.00,0.0031
1783.00,0.0031
1782.00,0.0031
1781.00,0.0031
1780.00,0.0030
1779.00,0.0030
1778.00,0.0030
1777.00,0.0030
1776.00,0.0031
1775.00,0.0030
1774.00,0.0030
1773.00,0.0029
1772.00,0.0029
1771.00,0.0030
1770.00,0.0031
1769.00,0.0031
1768.00,0.0031
1767.00,0.0031
1766.00,0.0031
1765.00,0.0031
1764.00,0.0032
1763.00,0.0032
1762.00,0.0032
1761.00,0.0033
1760.00,0.0033
1759.00,0.0033
1758.00,0.0033
1757.00,0.0033
1756.00,0.0033
1755.00,0.0034
1754.00,0.0035
1753.00,0.0035
1752.00,0.0036
1751.00,0.0035
1750.00,0.0035
1749.00,0.0035
1748.00,0.0035
1747.00,0.0036
1746.00,0.0037
1745.00,0.0037
1744.00,0.0037
1743.00,0.0037
1742.00,0.0036
1741.00,0.0036
1740.00,0.0036
1739.00,0.0036
1738.00,0.0036
1737.00,0.0036
1736.00,0.0036
1735.00,0.0036
1734.00,0.0035
1733.00,0.0034
1732.00,0.0034
1731.00,0.0034
1730.00,0.0034
1729.00,0.0033
1728.00,0.0033
1727.00,0.0033
1726.00,0.0034
1725.00,0.0035
1724.00,0.0035
1723.00,0.0036
1722.00,0.0036
1721.00,0.0036
1720.00,0.0036
1719.00,0.0036
1718.00,0.0037
1717.00,0.0038
1716.00,0.0039
1715.00,0.0039
1714.00,0.0040
1713.00,0.0041
1712.00,0.0041
1711.00,0.0041
1710.00,0.0041
1709.00,0.0041
1708.00,0.0041
1707.00,0.0042
1706.00,0.0042
1705.00,0.0043
1704.00,0.0043
1703.00,0.0044
1702.00,0.0044
1701.00,0.0045
1700.00,0.0046
1699.00,0.0047
1698.00,0.0046
1697.00,0.0046
1696.00,0.0046
1695.00,0.0047
1694.00,0.0047
1693.00,0.0048
1692.00,0.0049
1691.00,0.0050
1690.00,0.0050
1689.00,0.0051
1688.00,0.0052
1687.00,0.0053
1686.00,0.0054
1685.00,0.0055
1684.00,0.0055
1683.00,0.0056
1682.00,0.0057
1681.00,0.0058
1680.00,0.0059
1679.00,0.0060
1678.00,0.0061
1677.00,0.0062
1676.00,0.0062
1675.00,0.0063
1674.00,0.0063
1673.00,0.0063
1672.00,0.0064
1671.00,0.0064
1670.00,0.0065
1669.00,0.0066
1668.00,0.0067
1667.00,0.0067
1666.00,0.0068
1665.00,0.0069
1664.00,0.0069
1663.00,0.0070
1662.00,0.0071
1661.00,0.0072
1660.00,0.0073
1659.00,0.0074
1658.00,0.0075
1657.00,0.0075
1656.00,0.0076
1655.00,0.0077
1654.00,0.0077
1653.00,0.0079
1652.00,0.0080
1651.00,0.0081
1650.00,0.0082
1649.00,0.0083
1648.00,0.0085
1647.00,0.0086
1646.00,0.0088
1645.00,0.0088
1644.00,0.0089
1643.00,0.0089
1642.00,0.0089
1641.00,0.0089
1640.00,0.0089
1639.00,0.0089
1638.00,0.0089
1637.00,0.0089
1636.00,0.0089
1635.00,0.0090
1634.00,0.0090
1633.00,0.0090
1632.00,0.0090
1631.00,0.0090
1630.00,0.0089
1629.00,0.0089
1628.00,0.0088
1627.00,0.0088
1626.00,0.0087
1625.00,0.0087
1624.00,0.0086
1623.00,0.0086
1622.00,0.0086
1621.00,0.0087
1620.00,0.0087
1619.00,0.0086
1618.00,0.0086
1617.00,0.0086
1616.00,0.0086
1615.00,0.0086
1614.00,0.0087
1613.00,0.0087
1612.00,0.0088
1611.00,0.0088
1610.00,0.0088
1609.00,0.0088
1608.00,0.0088
1607.00,0.0088
1606.00,0.0088
1605.00,0.0088
1604.00,0.0089
1603.00,0.0089
1602.00,0.0089
1601.00,0.0089
1600.00,0.0088
1599.00,0.0088
1598.00,0.0087
1597.00,0.0088
1596.00,0.0088
1595.00,0.0089
1594.00,0.0090
1593.00,0.0090
1592.00,0.0090
1591.00,0.0090
1590.00,0.0091
1589.00,0.0092
1588.00,0.0093
1587.00,0.0094
1586.00,0.0096
1585.00,0.0098
1584.00,0.0101
1583.00,0.0103
1582.00,0.0106
1581.00,0.0108
1580.00,0.0111
1579.00,0.0113
1578.00,0.0115
1577.00,0.0115
1576.00,0.0114
1575.00,0.0112
1574.00,0.0110
1573.00,0.0109
1572.00,0.0107
1571.00,0.0105
1570.00,0.0102
1569.00,0.0100
1568.00,0.0098
1567.00,0.0098
1566.00,0.0097
1565.00,0.0097
1564.00,0.0097
1563.00,0.0097
1562.00,0.0098
1561.00,0.0098
1560.00,0.0099
1559.00,0.0099
1558.00,0.0100
1557.00,0.0101
1556.00,0.0102
1555.00,0.0104
1554.00,0.0105
1553.00,0.0106
1552.00,0.0107
1551.00,0.0109
1550.00,0.0110
1549.00,0.0113
1548.00,0.0115
1547.00,0.0119
1546.00,0.0123
1545.00,0.0128
1544.00,0.0132
1543.00,0.0135
1542.00,0.0137
1541.00,0.0138
1540.00,0.0138
1539.00,0.0136
1538.00,0.0134
1537.00,0.0132
1536.00,0.0130
1535.00,0.0126
1534.00,0.0122
1533.00,0.0118
1532.00,0.0116
1531.00,0.0114
1530.00,0.0112
1529.00,0.0111
1528.00,0.0110
1527.00,0.0109
1526.00,0.0108
1525.00,0.0108
1524.00,0.0108
1523.00,0.0109
1522.00,0.0109
1521.00,0.0109
1520.00,0.0110
1519.00,0.0111
1518.00,0.0111
1517.00,0.0111
1516.00,0.0111
1515.00,0.0112
1514.00,0.0112
1513.00,0.0114
1512.00,0.0116
1511.00,0.0118
1510.00,0.0119
1509.00,0.0121
1508.00,0.0122
1507.00,0.0123
1506.00,0.0124
1505.00,0.0126
1504.00,0.0128
1503.00,0.0130
1502.00,0.0133
1501.00,0.0136
1500.00,0.0140
1499.00,0.0143
1498.00,0.0147
1497.00,0.0153
1496.00,0.0158
1495.00,0.0163
1494.00,0.0166
1493.00,0.0170
1492.00,0.0174
1491.00,0.0178
1490.00,0.0182
1489.00,0.0187
1488.00,0.0192
1487.00,0.0197
1486.00,0.0202
1485.00,0.0208
1484.00,0.0216
1483.00,0.0223
1482.00,0.0232
1481.00,0.0243
1480.00,0.0255
1479.00,0.0266
1478.00,0.0279
1477.00,0.0295
1476.00,0.0313
1475.00,0.0333
1474.00,0.0359
1473.00,0.0398
1472.00,0.0447
1471.00,0.0494
1470.00,0.0540
1469.00,0.0587
1468.00,0.0637
1467.00,0.0692
1466.00,0.0755
1465.00,0.0824
1464.00,0.0885
1463.00,0.0929
1462.00,0.0959
1461.00,0.0982
1460.00,0.0999
1459.00,0.1013
1458.00,0.1027
1457.00,0.1042
1456.00,0.1050
1455.00,0.1050
1454.00,0.1046
1453.00,0.1038
1452.00,0.1025
1451.00,0.1003
1450.00,0.0971
1449.00,0.0925
1448.00,0.0863
1447.00,0.0795
1446.00,0.0732
1445.00,0.0677
1444.00,0.0629
1443.00,0.0589
1442.00,0.0559
1441.00,0.0540
1440.00,0.0528
1439.00,0.0524
1438.00,0.0526
1437.00,0.0530
1436.00,0.0525
1435.00,0.0507
1434.00,0.0479
1433.00,0.0445
1432.00,0.0408
1431.00,0.0376
1430.00,0.0352
1429.00,0.0334
1428.00,0.0323
1427.00,0.0316
1426.00,0.0311
1425.00,0.0307
1424.00,0.0302
1423.00,0.0299
1422.00,0.0298
1421.00,0.0296
1420.00,0.0293
1419.00,0.0290
1418.00,0.0286
1417.00,0.0281
1416.00,0.0277
1415.00,0.0273
1414.00,0.0269
1413.00,0.0265
1412.00,0.0259
1411.00,0.0254
1410.00,0.0249
1409.00,0.0244
1408.00,0.0239
1407.00,0.0235
1406.00,0.0232
1405.00,0.0228
1404.00,0.0225
1403.00,0.0222
1402.00,0.0221
1401.00,0.0221
1400.00,0.0220
1399.00,0.0220
1398.00,0.0219
1397.00,0.0218
1396.00,0.0216
1395.00,0.0216
1394.00,0.0216
1393.00,0.0216
1392.00,0.0217
1391.00,0.0221
1390.00,0.0227
1389.00,0.0237
1388.00,0.0254
1387.00,0.0279
1386.00,0.0313
1385.00,0.0357
1384.00,0.0414
1383.00,0.0493
1382.00,0.0595
1381.00,0.0726
1380.00,0.0889
1379.00,0.1081
1378.00,0.1278
1377.00,0.1438
1376.00,0.1518
1375.00,0.1483
1374.00,0.1337
1373.00,0.1137
1372.00,0.0939
1371.00,0.0769
1370.00,0.0630
1369.00,0.0523
1368.00,0.0449
1367.00,0.0403
1366.00,0.0378
1365.00,0.0368
1364.00,0.0369
1363.00,0.0379
1362.00,0.0396
1361.00,0.0413
1360.00,0.0425
1359.00,0.0427
1358.00,0.0417
1357.00,0.0394
1356.00,0.0363
1355.00,0.0329
1354.00,0.0295
1353.00,0.0266
1352.00,0.0243
1351.00,0.0224
1350.00,0.0209
1349.00,0.0196
1348.00,0.0187
1347.00,0.0179
1346.00,0.0173
1345.00,0.0169
1344.00,0.0165
1343.00,0.0162
1342.00,0.0159
1341.00,0.0157
1340.00,0.0154
1339.00,0.0151
1338.00,0.0149
1337.00,0.0148
1336.00,0.0147
1335.00,0.0148
1334.00,0.0150
1333.00,0.0152
1332.00,0.0155
1331.00,0.0158
1330.00,0.0158
1329.00,0.0157
1328.00,0.0154
1327.00,0.0150
1326.00,0.0145
1325.00,0.0140
1324.00,0.0135
1323.00,0.0131
1322.00,0.0128
1321.00,0.0126
1320.00,0.0123
1319.00,0.0121
1318.00,0.0119
1317.00,0.0116
1316.00,0.0115
1315.00,0.0114
1314.00,0.0114
1313.00,0.0114
1312.00,0.0115
1311.00,0.0116
1310.00,0.0119
1309.00,0.0124
1308.00,0.0130
1307.00,0.0139
1306.00,0.0147
1305.00,0.0153
1304.00,0.0155
1303.00,0.0153
1302.00,0.0149
1301.00,0.0145
1300.00,0.0142
1299.00,0.0141
1298.00,0.0141
1297.00,0.0140
1296.00,0.0140
1295.00,0.0138
1294.00,0.0134
1293.00,0.0130
1292.00,0.0125
1291.00,0.0121
1290.00,0.0117
1289.00,0.0114
1288.00,0.0111
1287.00,0.0109
1286.00,0.0107
1285.00,0.0105
1284.00,0.0104
1283.00,0.0103
1282.00,0.0102
1281.00,0.0101
1280.00,0.0100
1279.00,0.0100
1278.00,0.0099
1277.00,0.0098
1276.00,0.0097
1275.00,0.0097
1274.00,0.0097
1273.00,0.0097
1272.00,0.0097
1271.00,0.0097
1270.00,0.0098
1269.00,0.0099
1268.00,0.0100
1267.00,0.0102
1266.00,0.0104
1265.00,0.0106
1264.00,0.0108
1263.00,0.0110
1262.00,0.0113
1261.00,0.0116
1260.00,0.0121
1259.00,0.0126
1258.00,0.0132
1257.00,0.0137
1256.00,0.0139
1255.00,0.0138
1254.00,0.0134
1253.00,0.0128
1252.00,0.0123
1251.00,0.0118
1250.00,0.0114
1249.00,0.0111
1248.00,0.0110
1247.00,0.0109
1246.00,0.0109
1245.00,0.0108
1244.00,0.0107
1243.00,0.0107
1242.00,0.0107
1241.00,0.0106
1240.00,0.0105
1239.00,0.0104
1238.00,0.0103
1237.00,0.0103
1236.00,0.0103
1235.00,0.0103
1234.00,0.0103
1233.00,0.0103
1232.00,0.0103
1231.00,0.0103
1230.00,0.0103
1229.00,0.0103
1228.00,0.0104
1227.00,0.0105
1226.00,0.0107
1225.00,0.0109
1224.00,0.0112
1223.00,0.0115
1222.00,0.0117
1221.00,0.0119
1220.00,0.0120
1219.00,0.0121
1218.00,0.0120
1217.00,0.0119
1216.00,0.0117
1215.00,0.0115
1214.00,0.0113
1213.00,0.0110
1212.00,0.0108
1211.00,0.0107
1210.00,0.0105
1209.00,0.0103
1208.00,0.0102
1207.00,0.0101
1206.00,0.0101
1205.00,0.0101
1204.00,0.0100
1203.00,0.0100
1202.00,0.0099
1201.00,0.0099
1200.00,0.0098
1199.00,0.0099
1198.00,0.0099
1197.00,0.0099
1196.00,0.0099
1195.00,0.0099
1194.00,0.0098
1193.00,0.0098
1192.00,0.0098
1191.00,0.0099
1190.00,0.0099
1189.00,0.0099
1188.00,0.0099
1187.00,0.0100
1186.00,0.0101
1185.00,0.0102
1184.00,0.0104
1183.00,0.0105
1182.00,0.0106
1181.00,0.0107
1180.00,0.0109
1179.00,0.0112
1178.00,0.0117
1177.00,0.0123
1176.00,0.0132
1175.00,0.0144
1174.00,0.0160
1173.00,0.0180
1172.00,0.0205
1171.00,0.0231
1170.00,0.0257
1169.00,0.0279
1168.00,0.0293
1167.00,0.0297
1166.00,0.0294
1165.00,0.0284
1164.00,0.0271
1163.00,0.0258
1162.00,0.0245
1161.00,0.0234
1160.00,0.0226
1159.00,0.0219
1158.00,0.0214
1157.00,0.0210
1156.00,0.0207
1155.00,0.0205
1154.00,0.0203
1153.00,0.0201
1152.00,0.0197
1151.00,0.0192
1150.00,0.0187
1149.00,0.0180
1148.00,0.0173
1147.00,0.0167
1146.00,0.0160
1145.00,0.0154
1144.00,0.0148
1143.00,0.0142
1142.00,0.0136
1141.00,0.0132
1140.00,0.0128
1139.00,0.0125
1138.00,0.0122
1137.00,0.0121
1136.00,0.0119
1135.00,0.0117
1134.00,0.0116
1133.00,0.0115
1132.00,0.0114
1131.00,0.0114
1130.00,0.0114
1129.00,0.0115
1128.00,0.0116
1127.00,0.0117
1126.00,0.0118
1125.00,0.0119
1124.00,0.0120
1123.00,0.0121
1122.00,0.0121
1121.00,0.0122
1120.00,0.0123
1119.00,0.0124
1118.00,0.0126
1117.00,0.0127
1116.00,0.0129
1115.00,0.0130
1114.00,0.0131
1113.00,0.0132
1112.00,0.0132
1111.00,0.0133
1110.00,0.0135
1109.00,0.0138
1108.00,0.0142
1107.00,0.0147
1106.00,0.0153
1105.00,0.0159
1104.00,0.0163
1103.00,0.0166
1102.00,0.0166
1101.00,0.0164
1100.00,0.0160
1099.00,0.0156
1098.00,0.0152
1097.00,0.0147
1096.00,0.0143
1095.00,0.0139
1094.00,0.0136
1093.00,0.0133
1092.00,0.0131
1091.00,0.0129
1090.00,0.0127
1089.00,0.0126
1088.00,0.0126
1087.00,0.0125
1086.00,0.0124
1085.00,0.0122
1084.00,0.0120
1083.00,0.0119
1082.00,0.0118
1081.00,0.0118
1080.00,0.0118
1079.00,0.0117
1078.00,0.0115
1077.00,0.0113
1076.00,0.0110
1075.00,0.0109
1074.00,0.0108
1073.00,0.0109
1072.00,0.0109
1071.00,0.0110
1070.00,0.0111
1069.00,0.0112
1068.00,0.0112
1067.00,0.0113
1066.00,0.0113
1065.00,0.0113
1064.00,0.0113
1063.00,0.0113
1062.00,0.0113
1061.00,0.0113
1060.00,0.0114
1059.00,0.0114
1058.00,0.0115
1057.00,0.0115
1056.00,0.0115
1055.00,0.0115
1054.00,0.0116
1053.00,0.0116
1052.00,0.0117
1051.00,0.0118
1050.00,0.0119
1049.00,0.0121
1048.00,0.0122
1047.00,0.0124
1046.00,0.0126
1045.00,0.0128
1044.00,0.0128
1043.00,0.0127
1042.00,0.0126
1041.00,0.0125
1040.00,0.0124
1039.00,0.0123
1038.00,0.0124
1037.00,0.0124
1036.00,0.0125
1035.00,0.0126
1034.00,0.0125
1033.00,0.0125
1032.00,0.0123
1031.00,0.0122
1030.00,0.0121
1029.00,0.0120
1028.00,0.0120
1027.00,0.0120
1026.00,0.0120
1025.00,0.0119
1024.00,0.0119
1023.00,0.0119
1022.00,0.0119
1021.00,0.0120
1020.00,0.0120
1019.00,0.0121
1018.00,0.0122
1017.00,0.0123
1016.00,0.0125
1015.00,0.0126
1014.00,0.0128
1013.00,0.0131
1012.00,0.0133
1011.00,0.0136
1010.00,0.0138
1009.00,0.0142
1008.00,0.0145
1007.00,0.0150
1006.00,0.0157
1005.00,0.0166
1004.00,0.0178
1003.00,0.0195
1002.00,0.0216
1001.00,0.0244
1000.00,0.0274
999.00,0.0299
998.00,0.0312
997.00,0.0307
996.00,0.0286
995.00,0.0255
994.00,0.0223
993.00,0.0195
992.00,0.0172
991.00,0.0156
990.00,0.0144
989.00,0.0137
988.00,0.0132
987.00,0.0129
986.00,0.0129
985.00,0.0130
984.00,0.0133
983.00,0.0139
982.00,0.0147
981.00,0.0160
980.00,0.0177
979.00,0.0201
978.00,0.0231
977.00,0.0264
976.00,0.0300
975.00,0.0334
974.00,0.0361
973.00,0.0372
972.00,0.0363
971.00,0.0335
970.00,0.0295
969.00,0.0254
968.00,0.0217
967.00,0.0188
966.00,0.0168
965.00,0.0153
964.00,0.0143
963.00,0.0134
962.00,0.0126
961.00,0.0120
960.00,0.0116
959.00,0.0113
958.00,0.0111
957.00,0.0109
956.00,0.0107
955.00,0.0105
954.00,0.0103
953.00,0.0102
952.00,0.0100
951.00,0.0099
950.00,0.0098
949.00,0.0098
948.00,0.0099
947.00,0.0101
946.00,0.0103
945.00,0.0106
944.00,0.0108
943.00,0.0110
942.00,0.0112
941.00,0.0113
940.00,0.0114
939.00,0.0112
938.00,0.0109
937.00,0.0105
936.00,0.0102
935.00,0.0099
934.00,0.0097
933.00,0.0095
932.00,0.0092
931.00,0.0090
930.00,0.0089
929.00,0.0088
928.00,0.0088
927.00,0.0088
926.00,0.0087
925.00,0.0087
924.00,0.0086
923.00,0.0087
922.00,0.0088
921.00,0.0089
920.00,0.0090
919.00,0.0090
918.00,0.0091
917.00,0.0091
916.00,0.0092
915.00,0.0093
914.00,0.0094
913.00,0.0095
912.00,0.0096
911.00,0.0097
910.00,0.0098
909.00,0.0099
908.00,0.0100
907.00,0.0103
906.00,0.0108
905.00,0.0117
904.00,0.0129
903.00,0.0144
902.00,0.0161
901.00,0.0177
900.00,0.0187
899.00,0.0190
898.00,0.0185
897.00,0.0172
896.00,0.0157
895.00,0.0142
894.00,0.0129
893.00,0.0120
892.00,0.0113
891.00,0.0109
890.00,0.0105
889.00,0.0103
888.00,0.0101
887.00,0.0100
886.00,0.0100
885.00,0.0103
884.00,0.0107
883.00,0.0112
882.00,0.0118
881.00,0.0125
880.00,0.0132
879.00,0.0139
878.00,0.0147
877.00,0.0153
876.00,0.0158
875.00,0.0161
874.00,0.0160
873.00,0.0155
872.00,0.0146
871.00,0.0137
870.00,0.0127
869.00,0.0119
868.00,0.0113
867.00,0.0109
866.00,0.0107
865.00,0.0105
864.00,0.0104
863.00,0.0104
862.00,0.0104
861.00,0.0104
860.00,0.0106
859.00,0.0108
858.00,0.0110
857.00,0.0112
856.00,0.0113
855.00,0.0115
854.00,0.0116
853.00,0.0117
852.00,0.0119
851.00,0.0122
850.00,0.0126
849.00,0.0131
848.00,0.0139
847.00,0.0151
846.00,0.0169
845.00,0.0195
844.00,0.0230
843.00,0.0268
842.00,0.0297
841.00,0.0304
840.00,0.0286
839.00,0.0251
838.00,0.0214
837.00,0.0184
836.00,0.0164
835.00,0.0152
834.00,0.0145
833.00,0.0140
832.00,0.0135
831.00,0.0132
830.00,0.0130
829.00,0.0129
828.00,0.0129
827.00,0.0129
826.00,0.0129
825.00,0.0129
824.00,0.0128
823.00,0.0127
822.00,0.0126
821.00,0.0125
820.00,0.0126
819.00,0.0128
818.00,0.0132
817.00,0.0138
816.00,0.0145
815.00,0.0155
814.00,0.0166
813.00,0.0180
812.00,0.0194
811.00,0.0208
810.00,0.0218
809.00,0.0222
808.00,0.0220
807.00,0.0211
806.00,0.0198
805.00,0.0183
804.00,0.0169
803.00,0.0158
802.00,0.0150
801.00,0.0143
800.00,0.0136
799.00,0.0130
798.00,0.0125
797.00,0.0122
796.00,0.0119
795.00,0.0117
794.00,0.0115
793.00,0.0112
792.00,0.0110
791.00,0.0109
790.00,0.0109
789.00,0.0108
788.00,0.0105
787.00,0.0102
786.00,0.0098
785.00,0.0096
784.00,0.0094
783.00,0.0093
782.00,0.0092
781.00,0.0091
780.00,0.0090
779.00,0.0089
778.00,0.0088
777.00,0.0089
776.00,0.0090
775.00,0.0093
774.00,0.0096
773.00,0.0098
772.00,0.0098
771.00,0.0100
770.00,0.0102
769.00,0.0105
768.00,0.0107
767.00,0.0107
766.00,0.0107
765.00,0.0106
764.00,0.0105
763.00,0.0104
762.00,0.0102
761.00,0.0099
760.00,0.0094
759.00,0.0090
758.00,0.0087
757.00,0.0085
756.00,0.0084
755.00,0.0084
754.00,0.0084
753.00,0.0084
752.00,0.0084
751.00,0.0085
750.00,0.0085
749.00,0.0085
748.00,0.0085
747.00,0.0085
746.00,0.0085
745.00,0.0085
744.00,0.0085
743.00,0.0086
742.00,0.0088
741.00,0.0090
740.00,0.0093
739.00,0.0095
738.00,0.0096
737.00,0.0096
736.00,0.0095
735.00,0.0096
734.00,0.0097
733.00,0.0099
732.00,0.0101
731.00,0.0103
730.00,0.0104
729.00,0.0105
728.00,0.0106
727.00,0.0106
726.00,0.0107
725.00,0.0107
724.00,0.0106
723.00,0.0106
722.00,0.0104
721.00,0.0103
720.00,0.0100
719.00,0.0099
718.00,0.0100
717.00,0.0101
716.00,0.0103
715.00,0.0103
714.00,0.0103
713.00,0.0101
712.00,0.0100
711.00,0.0098
710.00,0.0097
709.00,0.0098
708.00,0.0099
707.00,0.0100
706.00,0.0100
705.00,0.0100
704.00,0.0098
703.00,0.0096
702.00,0.0094
701.00,0.0093
700.00,0.0093
699.00,0.0094
698.00,0.0094
697.00,0.0093
696.00,0.0091
695.00,0.0089
694.00,0.0087
693.00,0.0087
692.00,0.0086
691.00,0.0086
690.00,0.0085
689.00,0.0084
688.00,0.0084
687.00,0.0084
686.00,0.0085
685.00,0.0086
684.00,0.0087
683.00,0.0089
682.00,0.0090
681.00,0.0090
680.00,0.0090
679.00,0.0090
678.00,0.0089
677.00,0.0088
676.00,0.0088
675.00,0.0090
674.00,0.0091
673.00,0.0092
672.00,0.0091
671.00,0.0091
670.00,0.0093
669.00,0.0096
668.00,0.0097
667.00,0.0096
666.00,0.0094
665.00,0.0092
664.00,0.0092
663.00,0.0093
662.00,0.0094
661.00,0.0095
660.00,0.0094
659.00,0.0091
658.00,0.0087
657.00,0.0084
656.00,0.0083
655.00,0.0084
654.00,0.0085
653.00,0.0087
652.00,0.0088
651.00,0.0087
650.00,0.0087
649.00,0.0088
648.00,0.0089
647.00,0.0089
646.00,0.0089
645.00,0.0089
644.00,0.0089
643.00,0.0089
642.00,0.0089
641.00,0.0089
640.00,0.0090
639.00,0.0090
638.00,0.0089
637.00,0.0088
636.00,0.0087
635.00,0.0088
634.00,0.0090
633.00,0.0092
632.00,0.0094
631.00,0.0097
630.00,0.0099
629.00,0.0101
628.00,0.0100
627.00,0.0098
626.00,0.0096
625.00,0.0095
624.00,0.0093
623.00,0.0091
622.00,0.0089
621.00,0.0087
620.00,0.0087
619.00,0.0088
618.00,0.0089
617.00,0.0091
616.00,0.0092
615.00,0.0094
614.00,0.0097
613.00,0.0099
612.00,0.0100
611.00,0.0100
610.00,0.0098
609.00,0.0095
608.00,0.0092
607.00,0.0090
606.00,0.0091
605.00,0.0093
604.00,0.0095
603.00,0.0094
602.00,0.0091
601.00,0.0090
600.00,0.0089
599.00,0.0089
598.00,0.0088
597.00,0.0088
596.00,0.0088
595.00,0.0090
594.00,0.0091
593.00,0.0093
592.00,0.0094
591.00,0.0094
590.00,0.0093
589.00,0.0093
588.00,0.0094
587.00,0.0095
586.00,0.0096
585.00,0.0097
584.00,0.0098
583.00,0.0098
582.00,0.0096
581.00,0.0094
580.00,0.0094
579.00,0.0097
578.00,0.0099
577.00,0.0099
576.00,0.0096
575.00,0.0093
574.00,0.0092
573.00,0.0092
572.00,0.0093
571.00,0.0095
570.00,0.0097
569.00,0.0099
568.00,0.0100
567.00,0.0099
566.00,0.0097
565.00,0.0096
564.00,0.0094
563.00,0.0094
562.00,0.0094
561.00,0.0093
560.00,0.0090
559.00,0.0088
558.00,0.0088
557.00,0.0091
556.00,0.0094
555.00,0.0094
554.00,0.0092
553.00,0.0090
552.00,0.0091
551.00,0.0094
550.00,0.0097
549.00,0.0099
548.00,0.0098
547.00,0.0096
546.00,0.0094
545.00,0.0092
544.00,0.0092
543.00,0.0093
542.00,0.0095
541.00,0.0098
540.00,0.0101
539.00,0.0104
538.00,0.0106
537.00,0.0110
536.00,0.0114
535.00,0.0118
534.00,0.0118
533.00,0.0117
532.00,0.0115
531.00,0.0113
530.00,0.0110
529.00,0.0107
528.00,0.0105
527.00,0.0106
526.00,0.0110
525.00,0.0114
524.00,0.0115
523.00,0.0113
522.00,0.0111
521.00,0.0109
520.00,0.0107
519.00,0.0105
518.00,0.0101
517.00,0.0095
516.00,0.0090
515.00,0.0090
514.00,0.0094
513.00,0.0097
512.00,0.0099
511.00,0.0098
510.00,0.0100
509.00,0.0103
508.00,0.0104
507.00,0.0103
506.00,0.0102
505.00,0.0103
504.00,0.0107
503.00,0.0110
502.00,0.0110
501.00,0.0106
500.00,0.0103
499.00,0.0102
498.00,0.0101
497.00,0.0099
496.00,0.0097
495.00,0.0096
494.00,0.0099
493.00,0.0103
492.00,0.0107
491.00,0.0108
490.00,0.0105
489.00,0.0099
488.00,0.0093
487.00,0.0087
486.00,0.0084
485.00,0.0081
484.00,0.0077
483.00,0.0076
482.00,0.0077
481.00,0.0082
480.00,0.0089
479.00,0.0097
478.00,0.0107
477.00,0.0118
476.00,0.0126
475.00,0.0130
474.00,0.0127
473.00,0.0118
472.00,0.0110
471.00,0.0109
470.00,0.0115
469.00,0.0121
468.00,0.0126
467.00,0.0131
466.00,0.0137
465.00,0.0144
464.00,0.0151
463.00,0.0160
462.00,0.0171
461.00,0.0185
460.00,0.0201
459.00,0.0214
458.00,0.0220
457.00,0.0212
456.00,0.0192
455.00,0.0168
454.00,0.0142
453.00,0.0117
452.00,0.0093
451.00,0.0077
450.00,0.0070
