Created as New Dataset,Sample 097 By Administrator Date Tuesday, September 09 2025
cm-1,A
4000.00,0.0012
3999.00,0.0012
3998.00,0.0013
3997.00,0.0013
3996.00,0.0013
3995.00,0.0013
3994.00,0.0014
3993.00,0.0014
3992.00,0.0013
3991.00,0.0013
3990.00,0.0013
3989.00,0.0012
3988.00,0.0012
3987.00,0.0012
3986.00,0.0013
3985.00,0.0013
3984.00,0.0013
3983.00,0.0012
3982.00,0.0012
3981.00,0.0012
3980.00,0.0012
3979.00,0.0012
3978.00,0.0011
3977.00,0.0012
3976.00,0.0012
3975.00,0.0012
3974.00,0.0012
3973.00,0.0012
3972.00,0.0011
3971.00,0.0011
3970.00,0.0011
3969.00,0.0011
3968.00,0.0011
3967.00,0.0011
3966.00,0.0011
3965.00,0.0011
3964.00,0.0011
3963.00,0.0011
3962.00,0.0011
3961.00,0.0010
3960.00,0.0010
3959.00,0.0010
3958.00,0.0010
3957.00,0.0010
3956.00,0.0010
3955.00,0.0010
3954.00,0.0010
3953.00,0.0010
3952.00,0.0010
3951.00,0.0011
3950.00,0.0011
3949.00,0.0011
3948.00,0.0011
3947.00,0.0011
3946.00,0.0011
3945.00,0.0011
3944.00,0.0011
3943.00,0.0011
3942.00,0.0011
3941.00,0.0011
3940.00,0.0011
3939.00,0.0011
3938.00,0.0011
3937.00,0.0011
3936.00,0.0012
3935.00,0.0012
3934.00,0.0012
3933.00,0.0012
3932.00,0.0012
3931.00,0.0012
3930.00,0.0012
3929.00,0.0011
3928.00,0.0011
3927.00,0.0011
3926.00,0.0011
3925.00,0.0011
3924.00,0.0011
3923.00,0.0011
3922.00,0.0011
3921.00,0.0012
3920.00,0.0012
3919.00,0.0012
3918.00,0.0012
3917.00,0.0011
3916.00,0.0011
3915.00,0.0011
3914.00,0.0011
3913.00,0.0010
3912.00,0.0010
3911.00,0.0010
3910.00,0.0011
3909.00,0.0011
3908.00,0.0011
3907.00,0.0011
3906.00,0.0012
3905.00,0.0012
3904.00,0.0013
3903.00,0.0013
3902.00,0.0013
3901.00,0.0013
3900.00,0.0012
3899.00,0.0012
3898.00,0.0012
3897.00,0.0011
3896.00,0.0011
3895.00,0.0012
3894.00,0.0012
3893.00,0.0012
3892.00,0.0012
3891.00,0.0012
3890.00,0.0012
3889.00,0.0012
3888.00,0.0012
3887.00,0.0012
3886.00,0.0012
3885.00,0.0012
3884.00,0.0012
3883.00,0.0012
3882.00,0.0011
3881.00,0.0011
3880.00,0.0011
3879.00,0.0011
3878.00,0.0011
3877.00,0.0011
3876.00,0.0011
3875.00,0.0012
3874.00,0.0012
3873.00,0.0012
3872.00,0.0012
3871.00,0.0012
3870.00,0.0012
3869.00,0.0012
3868.00,0.0012
3867.00,0.0012
3866.00,0.0011
3865.00,0.0011
3864.00,0.0011
3863.00,0.0011
3862.00,0.0011
3861.00,0.0011
3860.00,0.0011
3859.00,0.0011
3858.00,0.0011
3857.00,0.0011
3856.00,0.0011
3855.00,0.0011
3854.00,0.0011
3853.00,0.0011
3852.00,0.0011
3851.00,0.0011
3850.00,0.0011
3849.00,0.0011
3848.00,0.0011
3847.00,0.0011
3846.00,0.0011
3845.00,0.0011
3844.00,0.0011
3843.00,0.0011
3842.00,0.0011
3841.00,0.0011
3840.00,0.0011
3839.00,0.0011
3838.00,0.0011
3837.00,0.0011
3836.00,0.0011
3835.00,0.0011
3834.00,0.0011
3833.00,0.0011
3832.00,0.0011
3831.00,0.0011
3830.00,0.0011
3829.00,0.0012
3828.00,0.0012
3827.00,0.0012
3826.00,0.0012
3825.00,0.0013
3824.00,0.0013
3823.00,0.0013
3822.00,0.0013
3821.00,0.0013
3820.00,0.0012
3819.00,0.0012
3818.00,0.0012
3817.00,0.0011
3816.00,0.0011
3815.00,0.0011
3814.00,0.0011
3813.00,0.0011
3812.00,0.0011
3811.00,0.0011
3810.00,0.0011
3809.00,0.0012
3808.00,0.0012
3807.00,0.0012
3806.00,0.0012
3805.00,0.0013
3804.00,0.0012
3803.00,0.0012
3802.00,0.0012
3801.00,0.0012
3800.00,0.0012
3799.00,0.0011
3798.00,0.0011
3797.00,0.0010
3796.00,0.0010
3795.00,0.0010
3794.00,0.0010
3793.00,0.0010
3792.00,0.0010
3791.00,0.0010
3790.00,0.0010
3789.00,0.0010
3788.00,0.0010
3787.00,0.0010
3786.00,0.0010
3785.00,0.0010
3784.00,0.0010
3783.00,0.0010
3782.00,0.0010
3781.00,0.0010
3780.00,0.0010
3779.00,0.0010
3778.00,0.0011
3777.00,0.0011
3776.00,0.0011
3775.00,0.0011
3774.00,0.0011
3773.00,0.0011
3772.00,0.0011
3771.00,0.0012
3770.00,0.0012
3769.00,0.0012
3768.00,0.0013
3767.00,0.0013
3766.00,0.0012
3765.00,0.0012
3764.00,0.0012
3763.00,0.0012
3762.00,0.0012
3761.00,0.0013
3760.00,0.0013
3759.00,0.0013
3758.00,0.0013
3757.00,0.0013
3756.00,0.0013
3755.00,0.0013
3754.00,0.0013
3753.00,0.0012
3752.00,0.0012
3751.00,0.0012
3750.00,0.0012
3749.00,0.0012
3748.00,0.0013
3747.00,0.0013
3746.00,0.0013
3745.00,0.0012
3744.00,0.0012
3743.00,0.0012
3742.00,0.0012
3741.00,0.0012
3740.00,0.0013
3739.00,0.0013
3738.00,0.0012
3737.00,0.0012
3736.00,0.0011
3735.00,0.0010
3734.00,0.0010
3733.00,0.0009
3732.00,0.0009
3731.00,0.0009
3730.00,0.0009
3729.00,0.0009
3728.00,0.0009
3727.00,0.0009
3726.00,0.0010
3725.00,0.0010
3724.00,0.0010
3723.00,0.0011
3722.00,0.0011
3721.00,0.0010
3720.00,0.0010
3719.00,0.0010
3718.00,0.0010
3717.00,0.0010
3716.00,0.0010
3715.00,0.0010
3714.00,0.0011
3713.00,0.0011
3712.00,0.0012
3711.00,0.0012
3710.00,0.0011
3709.00,0.0011
3708.00,0.0010
3707.00,0.0010
3706.00,0.0010
3705.00,0.0010
3704.00,0.0010
3703.00,0.0010
3702.00,0.0009
3701.00,0.0009
3700.00,0.0009
3699.00,0.0009
3698.00,0.0009
3697.00,0.0009
3696.00,0.0010
3695.00,0.0010
3694.00,0.0010
3693.00,0.0010
3692.00,0.0010
3691.00,0.0010
3690.00,0.0009
3689.00,0.0009
3688.00,0.0009
3687.00,0.0009
3686.00,0.0009
3685.00,0.0010
3684.00,0.0010
3683.00,0.0010
3682.00,0.0010
3681.00,0.0010
3680.00,0.0011
3679.00,0.0011
3678.00,0.0011
3677.00,0.0011
3676.00,0.0012
3675.00,0.0012
3674.00,0.0011
3673.00,0.0011
3672.00,0.0010
3671.00,0.0010
3670.00,0.0010
3669.00,0.0010
3668.00,0.0010
3667.00,0.0010
3666.00,0.0009
3665.00,0.0009
3664.00,0.0010
3663.00,0.0010
3662.00,0.0010
3661.00,0.0010
3660.00,0.0010
3659.00,0.0010
3658.00,0.0010
3657.00,0.0011
3656.00,0.0011
3655.00,0.0012
3654.00,0.0012
3653.00,0.0013
3652.00,0.0013
3651.00,0.0014
3650.00,0.0014
3649.00,0.0014
3648.00,0.0013
3647.00,0.0012
3646.00,0.0012
3645.00,0.0011
3644.00,0.0011
3643.00,0.0011
3642.00,0.0011
3641.00,0.0011
3640.00,0.0011
3639.00,0.0012
3638.00,0.0012
3637.00,0.0013
3636.00,0.0014
3635.00,0.0014
3634.00,0.0014
3633.00,0.0014
3632.00,0.0014
3631.00,0.0013
3630.00,0.0013
3629.00,0.0014
3628.00,0.0014
3627.00,0.0014
3626.00,0.0014
3625.00,0.0014
3624.00,0.0014
3623.00,0.0015
3622.00,0.0015
3621.00,0.0015
3620.00,0.0015
3619.00,0.0015
3618.00,0.0016
3617.00,0.0016
3616.00,0.0017
3615.00,0.0017
3614.00,0.0017
3613.00,0.0017
3612.00,0.0017
3611.00,0.0017
3610.00,0.0018
3609.00,0.0018
3608.00,0.0018
3607.00,0.0018
3606.00,0.0018
3605.00,0.0018
3604.00,0.0018
3603.00,0.0017
3602.00,0.0017
3601.00,0.0017
3600.00,0.0018
3599.00,0.0018
3598.00,0.0019
3597.00,0.0019
3596.00,0.0019
3595.00,0.0019
3594.00,0.0019
3593.00,0.0019
3592.00,0.0020
3591.00,0.0020
3590.00,0.0021
3589.00,0.0022
3588.00,0.0022
3587.00,0.0022
3586.00,0.0022
3585.00,0.0022
3584.00,0.0022
3583.00,0.0022
3582.00,0.0022
3581.00,0.0023
3580.00,0.0023
3579.00,0.0023
3578.00,0.0024
3577.00,0.0024
3576.00,0.0024
3575.00,0.0025
3574.00,0.0026
3573.00,0.0026
3572.00,0.0027
3571.00,0.0027
3570.00,0.0028
3569.00,0.0028
3568.00,0.0029
3567.00,0.0029
3566.00,0.0029
3565.00,0.0029
3564.00,0.0028
3563.00,0.0028
3562.00,0.0028
3561.00,0.0028
3560.00,0.0028
3559.00,0.0029
3558.00,0.0029
3557.00,0.0029
3556.00,0.0030
3555.00,0.0030
3554.00,0.0031
3553.00,0.0031
3552.00,0.0032
3551.00,0.0032
3550.00,0.0033
3549.00,0.0033
3548.00,0.0033
3547.00,0.0033
3546.00,0.0033
3545.00,0.0034
3544.00,0.0034
3543.00,0.0034
3542.00,0.0035
3541.00,0.0035
3540.00,0.0035
3539.00,0.0035
3538.00,0.0036
3537.00,0.0036
3536.00,0.0036
3535.00,0.0036
3534.00,0.0036
3533.00,0.0037
3532.00,0.0037
3531.00,0.0038
3530.00,0.0039
3529.00,0.0039
3528.00,0.0039
3527.00,0.0040
3526.00,0.0040
3525.00,0.0040
3524.00,0.0041
3523.00,0.0041
3522.00,0.0041
3521.00,0.0041
3520.00,0.0041
3519.00,0.0042
3518.00,0.0042
3517.00,0.0042
3516.00,0.0042
3515.00,0.0043
3514.00,0.0043
3513.00,0.0043
3512.00,0.0044
3511.00,0.0044
3510.00,0.0045
3509.00,0.0045
3508.00,0.0045
3507.00,0.0046
3506.00,0.0046
3505.00,0.0046
3504.00,0.0047
3503.00,0.0047
3502.00,0.0047
3501.00,0.0047
3500.00,0.0047
3499.00,0.0048
3498.00,0.0048
3497.00,0.0048
3496.00,0.0049
3495.00,0.0049
3494.00,0.0050
3493.00,0.0050
3492.00,0.0051
3491.00,0.0051
3490.00,0.0051
3489.00,0.0052
3488.00,0.0052
3487.00,0.0052
3486.00,0.0052
3485.00,0.0052
3484.00,0.0052
3483.00,0.0053
3482.00,0.0053
3481.00,0.0053
3480.00,0.0053
3479.00,0.0053
3478.00,0.0054
3477.00,0.0054
3476.00,0.0055
3475.00,0.0055
3474.00,0.0056
3473.00,0.0056
3472.00,0.0057
3471.00,0.0057
3470.00,0.0057
3469.00,0.0057
3468.00,0.0057
3467.00,0.0058
3466.00,0.0058
3465.00,0.0058
3464.00,0.0058
3463.00,0.0059
3462.00,0.0059
3461.00,0.0060
3460.00,0.0060
3459.00,0.0061
3458.00,0.0061
3457.00,0.0062
3456.00,0.0062
3455.00,0.0062
3454.00,0.0062
3453.00,0.0062
3452.00,0.0062
3451.00,0.0062
3450.00,0.0063
3449.00,0.0063
3448.00,0.0064
3447.00,0.0064
3446.00,0.0064
3445.00,0.0065
3444.00,0.0065
3443.00,0.0065
3442.00,0.0065
3441.00,0.0065
3440.00,0.0065
3439.00,0.0066
3438.00,0.0066
3437.00,0.0066
3436.00,0.0067
3435.00,0.0067
3434.00,0.0067
3433.00,0.0067
3432.00,0.0068
3431.00,0.0068
3430.00,0.0068
3429.00,0.0068
3428.00,0.0068
3427.00,0.0069
3426.00,0.0070
3425.00,0.0071
3424.00,0.0071
3423.00,0.0071
3422.00,0.0071
3421.00,0.0071
3420.00,0.0072
3419.00,0.0072
3418.00,0.0073
3417.00,0.0073
3416.00,0.0073
3415.00,0.0073
3414.00,0.0073
3413.00,0.0073
3412.00,0.0073
3411.00,0.0073
3410.00,0.0073
3409.00,0.0073
3408.00,0.0073
3407.00,0.0074
3406.00,0.0074
3405.00,0.0074
3404.00,0.0075
3403.00,0.0075
3402.00,0.0075
3401.00,0.0075
3400.00,0.0075
3399.00,0.0074
3398.00,0.0074
3397.00,0.0074
3396.00,0.0074
3395.00,0.0074
3394.00,0.0075
3393.00,0.0075
3392.00,0.0076
3391.00,0.0076
3390.00,0.0076
3389.00,0.0076
3388.00,0.0076
3387.00,0.0076
3386.00,0.0076
3385.00,0.0076
3384.00,0.0076
3383.00,0.0076
3382.00,0.0077
3381.00,0.0077
3380.00,0.0077
3379.00,0.0078
3378.00,0.0078
3377.00,0.0078
3376.00,0.0078
3375.00,0.0078
3374.00,0.0078
3373.00,0.0078
3372.00,0.0078
3371.00,0.0078
3370.00,0.0078
3369.00,0.0078
3368.00,0.0078
3367.00,0.0079
3366.00,0.0079
3365.00,0.0079
3364.00,0.0079
3363.00,0.0079
3362.00,0.0079
3361.00,0.0079
3360.00,0.0080
3359.00,0.0080
3358.00,0.0080
3357.00,0.0080
3356.00,0.0080
3355.00,0.0080
3354.00,0.0080
3353.00,0.0080
3352.00,0.0080
3351.00,0.0080
3350.00,0.0080
3349.00,0.0080
3348.00,0.0080
3347.00,0.0080
3346.00,0.0080
3345.00,0.0080
3344.00,0.0080
3343.00,0.0080
3342.00,0.0080
3341.00,0.0080
3340.00,0.0080
3339.00,0.0079
3338.00,0.0079
3337.00,0.0079
3336.00,0.0079
3335.00,0.0079
3334.00,0.0079
3333.00,0.0079
3332.00,0.0079
3331.00,0.0079
3330.00,0.0079
3329.00,0.0078
3328.00,0.0078
3327.00,0.0078
3326.00,0.0078
3325.00,0.0078
3324.00,0.0077
3323.00,0.0077
3322.00,0.0076
3321.00,0.0076
3320.00,0.0076
3319.00,0.0076
3318.00,0.0076
3317.00,0.0076
3316.00,0.0076
3315.00,0.0076
3314.00,0.0076
3313.00,0.0077
3312.00,0.0077
3311.00,0.0076
3310.00,0.0076
3309.00,0.0076
3308.00,0.0076
3307.00,0.0077
3306.00,0.0077
3305.00,0.0077
3304.00,0.0076
3303.00,0.0076
3302.00,0.0076
3301.00,0.0076
3300.00,0.0076
3299.00,0.0076
3298.00,0.0076
3297.00,0.0076
3296.00,0.0076
3295.00,0.0075
3294.00,0.0075
3293.00,0.0074
3292.00,0.0074
3291.00,0.0074
3290.00,0.0073
3289.00,0.0073
3288.00,0.0073
3287.00,0.0073
3286.00,0.0073
3285.00,0.0073
3284.00,0.0073
3283.00,0.0072
3282.00,0.0072
3281.00,0.0072
3280.00,0.0072
3279.00,0.0072
3278.00,0.0072
3277.00,0.0072
3276.00,0.0072
3275.00,0.0072
3274.00,0.0072
3273.00,0.0071
3272.00,0.0071
3271.00,0.0070
3270.00,0.0070
3269.00,0.0070
3268.00,0.0069
3267.00,0.0070
3266.00,0.0070
3265.00,0.0069
3264.00,0.0069
3263.00,0.0069
3262.00,0.0068
3261.00,0.0068
3260.00,0.0068
3259.00,0.0068
3258.00,0.0068
3257.00,0.0068
3256.00,0.0068
3255.00,0.0067
3254.00,0.0067
3253.00,0.0067
3252.00,0.0066
3251.00,0.0066
3250.00,0.0066
3249.00,0.0065
3248.00,0.0065
3247.00,0.0065
3246.00,0.0065
3245.00,0.0065
3244.00,0.0064
3243.00,0.0064
3242.00,0.0064
3241.00,0.0063
3240.00,0.0063
3239.00,0.0063
3238.00,0.0064
3237.00,0.0064
3236.00,0.0064
3235.00,0.0063
3234.00,0.0063
3233.00,0.0063
3232.00,0.0063
3231.00,0.0063
3230.00,0.0063
3229.00,0.0064
3228.00,0.0064
3227.00,0.0064
3226.00,0.0064
3225.00,0.0064
3224.00,0.0064
3223.00,0.0064
3222.00,0.0064
3221.00,0.0064
3220.00,0.0064
3219.00,0.0065
3218.00,0.0065
3217.00,0.0065
3216.00,0.0065
3215.00,0.0065
3214.00,0.0065
3213.00,0.0065
3212.00,0.0066
3211.00,0.0066
3210.00,0.0066
3209.00,0.0066
3208.00,0.0066
3207.00,0.0066
3206.00,0.0066
3205.00,0.0066
3204.00,0.0066
3203.00,0.0066
3202.00,0.0066
3201.00,0.0066
3200.00,0.0066
3199.00,0.0065
3198.00,0.0065
3197.00,0.0065
3196.00,0.0065
3195.00,0.0065
3194.00,0.0065
3193.00,0.0065
3192.00,0.0064
3191.00,0.0064
3190.00,0.0065
3189.00,0.0065
3188.00,0.0064
3187.00,0.0064
3186.00,0.0064
3185.00,0.0063
3184.00,0.0063
3183.00,0.0063
3182.00,0.0063
3181.00,0.0062
3180.00,0.0062
3179.00,0.0061
3178.00,0.0061
3177.00,0.0061
3176.00,0.0061
3175.00,0.0060
3174.00,0.0060
3173.00,0.0060
3172.00,0.0059
3171.00,0.0059
3170.00,0.0059
3169.00,0.0059
3168.00,0.0059
3167.00,0.0059
3166.00,0.0059
3165.00,0.0058
3164.00,0.0058
3163.00,0.0058
3162.00,0.0057
3161.00,0.0058
3160.00,0.0058
3159.00,0.0058
3158.00,0.0058
3157.00,0.0057
3156.00,0.0056
3155.00,0.0056
3154.00,0.0056
3153.00,0.0056
3152.00,0.0056
3151.00,0.0056
3150.00,0.0055
3149.00,0.0055
3148.00,0.0055
3147.00,0.0055
3146.00,0.0055
3145.00,0.0055
3144.00,0.0055
3143.00,0.0055
3142.00,0.0054
3141.00,0.0054
3140.00,0.0053
3139.00,0.0053
3138.00,0.0052
3137.00,0.0052
3136.00,0.0051
3135.00,0.0051
3134.00,0.0052
3133.00,0.0052
3132.00,0.0052
3131.00,0.0052
3130.00,0.0051
3129.00,0.0051
3128.00,0.0051
3127.00,0.0051
3126.00,0.0050
3125.00,0.0050
3124.00,0.0049
3123.00,0.0049
3122.00,0.0048
3121.00,0.0047
3120.00,0.0047
3119.00,0.0047
3118.00,0.0047
3117.00,0.0047
3116.00,0.0047
3115.00,0.0047
3114.00,0.0046
3113.00,0.0046
3112.00,0.0046
3111.00,0.0046
3110.00,0.0046
3109.00,0.0046
3108.00,0.0046
3107.00,0.0045
3106.00,0.0045
3105.00,0.0045
3104.00,0.0044
3103.00,0.0044
3102.00,0.0044
3101.00,0.0044
3100.00,0.0044
3099.00,0.0044
3098.00,0.0043
3097.00,0.0043
3096.00,0.0043
3095.00,0.0043
3094.00,0.0043
3093.00,0.0042
3092.00,0.0042
3091.00,0.0042
3090.00,0.0042
3089.00,0.0042
3088.00,0.0042
3087.00,0.0042
3086.00,0.0042
3085.00,0.0042
3084.00,0.0042
3083.00,0.0042
3082.00,0.0042
3081.00,0.0042
3080.00,0.0041
3079.00,0.0041
3078.00,0.0041
3077.00,0.0041
3076.00,0.0042
3075.00,0.0042
3074.00,0.0041
3073.00,0.0041
3072.00,0.0042
3071.00,0.0042
3070.00,0.0042
3069.00,0.0042
3068.00,0.0042
3067.00,0.0042
3066.00,0.0042
3065.00,0.0042
3064.00,0.0042
3063.00,0.0042
3062.00,0.0042
3061.00,0.0042
3060.00,0.0043
3059.00,0.0043
3058.00,0.0043
3057.00,0.0043
3056.00,0.0043
3055.00,0.0043
3054.00,0.0043
3053.00,0.0044
3052.00,0.0044
3051.00,0.0044
3050.00,0.0044
3049.00,0.0044
3048.00,0.0044
3047.00,0.0044
3046.00,0.0045
3045.00,0.0045
3044.00,0.0045
3043.00,0.0045
3042.00,0.0045
3041.00,0.0045
3040.00,0.0046
3039.00,0.0046
3038.00,0.0047
3037.00,0.0047
3036.00,0.0047
3035.00,0.0047
3034.00,0.0047
3033.00,0.0047
3032.00,0.0048
3031.00,0.0048
3030.00,0.0049
3029.00,0.0050
3028.00,0.0050
3027.00,0.0051
3026.00,0.0051
3025.00,0.0052
3024.00,0.0052
3023.00,0.0053
3022.00,0.0054
3021.00,0.0054
3020.00,0.0055
3019.00,0.0056
3018.00,0.0056
3017.00,0.0057
3016.00,0.0057
3015.00,0.0058
3014.00,0.0060
3013.00,0.0061
3012.00,0.0062
3011.00,0.0064
3010.00,0.0065
3009.00,0.0066
3008.00,0.0067
3007.00,0.0068
3006.00,0.0070
3005.00,0.0072
3004.00,0.0074
3003.00,0.0076
3002.00,0.0078
3001.00,0.0080
3000.00,0.0083
2999.00,0.0086
2998.00,0.0089
2997.00,0.0093
2996.00,0.0096
2995.00,0.0100
2994.00,0.0105
2993.00,0.0110
2992.00,0.0115
2991.00,0.0121
2990.00,0.0128
2989.00,0.0135
2988.00,0.0144
2987.00,0.0153
2986.00,0.0163
2985.00,0.0174
2984.00,0.0186
2983.00,0.0200
2982.00,0.0216
2981.00,0.0234
2980.00,0.0255
2979.00,0.0279
2978.00,0.0306
2977.00,0.0337
2976.00,0.0372
2975.00,0.0411
2974.00,0.0456
2973.00,0.0506
2972.00,0.0563
2971.00,0.0627
2970.00,0.0699
2969.00,0.0779
2968.00,0.0866
2967.00,0.0961
2966.00,0.1061
2965.00,0.1166
2964.00,0.1271
2963.00,0.1373
2962.00,0.1467
2961.00,0.1547
2960.00,0.1612
2959.00,0.1662
2958.00,0.1700
2957.00,0.1732
2956.00,0.1763
2955.00,0.1799
2954.00,0.1841
2953.00,0.1887
2952.00,0.1929
2951.00,0.1959
2950.00,0.1967
2949.00,0.1943
2948.00,0.1883
2947.00,0.1790
2946.00,0.1672
2945.00,0.1541
2944.00,0.1411
2943.00,0.1296
2942.00,0.1201
2941.00,0.1132
2940.00,0.1088
2939.00,0.1069
2938.00,0.1070
2937.00,0.1090
2936.00,0.1126
2935.00,0.1177
2934.00,0.1242
2933.00,0.1319
2932.00,0.1406
2931.00,0.1501
2930.00,0.1600
2929.00,0.1702
2928.00,0.1802
2927.00,0.1898
2926.00,0.1989
2925.00,0.2074
2924.00,0.2156
2923.00,0.2234
2922.00,0.2310
2921.00,0.2382
2920.00,0.2445
2919.00,0.2493
2918.00,0.2518
2917.00,0.2516
2916.00,0.2486
2915.00,0.2430
2914.00,0.2356
2913.00,0.2273
2912.00,0.2189
2911.00,0.2109
2910.00,0.2035
2909.00,0.1968
2908.00,0.1905
2907.00,0.1844
2906.00,0.1782
2905.00,0.1718
2904.00,0.1652
2903.00,0.1584
2902.00,0.1516
2901.00,0.1448
2900.00,0.1381
2899.00,0.1318
2898.00,0.1259
2897.00,0.1206
2896.00,0.1160
2895.00,0.1120
2894.00,0.1087
2893.00,0.1061
2892.00,0.1042
2891.00,0.1029
2890.00,0.1022
2889.00,0.1019
2888.00,0.1021
2887.00,0.1027
2886.00,0.1036
2885.00,0.1049
2884.00,0.1066
2883.00,0.1087
2882.00,0.1113
2881.00,0.1140
2880.00,0.1168
2879.00,0.1190
2878.00,0.1205
2877.00,0.1211
2876.00,0.1208
2875.00,0.1200
2874.00,0.1192
2873.00,0.1188
2872.00,0.1192
2871.00,0.1203
2870.00,0.1219
2869.00,0.1237
2868.00,0.1248
2867.00,0.1244
2866.00,0.1219
2865.00,0.1170
2864.00,0.1099
2863.00,0.1014
2862.00,0.0924
2861.00,0.0840
2860.00,0.0766
2859.00,0.0707
2858.00,0.0662
2857.00,0.0631
2856.00,0.0610
2855.00,0.0598
2854.00,0.0593
2853.00,0.0595
2852.00,0.0603
2851.00,0.0617
2850.00,0.0637
2849.00,0.0663
2848.00,0.0696
2847.00,0.0736
2846.00,0.0786
2845.00,0.0845
2844.00,0.0912
2843.00,0.0985
2842.00,0.1060
2841.00,0.1133
2840.00,0.1194
2839.00,0.1235
2838.00,0.1247
2837.00,0.1225
2836.00,0.1167
2835.00,0.1080
2834.00,0.0974
2833.00,0.0861
2832.00,0.0753
2831.00,0.0657
2830.00,0.0575
2829.00,0.0508
2828.00,0.0454
2827.00,0.0411
2826.00,0.0375
2825.00,0.0346
2824.00,0.0322
2823.00,0.0301
2822.00,0.0283
2821.00,0.0268
2820.00,0.0255
2819.00,0.0244
2818.00,0.0234
2817.00,0.0226
2816.00,0.0218
2815.00,0.0211
2814.00,0.0205
2813.00,0.0199
2812.00,0.0193
2811.00,0.0188
2810.00,0.0183
2809.00,0.0177
2808.00,0.0172
2807.00,0.0166
2806.00,0.0160
2805.00,0.0154
2804.00,0.0147
2803.00,0.0141
2802.00,0.0135
2801.00,0.0131
2800.00,0.0127
2799.00,0.0124
2798.00,0.0121
2797.00,0.0119
2796.00,0.0117
2795.00,0.0114
2794.00,0.0112
2793.00,0.0109
2792.00,0.0105
2791.00,0.0102
2790.00,0.0098
2789.00,0.0095
2788.00,0.0092
2787.00,0.0089
2786.00,0.0086
2785.00,0.0083
2784.00,0.0081
2783.00,0.0079
2782.00,0.0077
2781.00,0.0076
2780.00,0.0074
2779.00,0.0072
2778.00,0.0070
2777.00,0.0068
2776.00,0.0067
2775.00,0.0066
2774.00,0.0065
2773.00,0.0065
2772.00,0.0064
2771.00,0.0064
2770.00,0.0064
2769.00,0.0063
2768.00,0.0063
2767.00,0.0062
2766.00,0.0062
2765.00,0.0061
2764.00,0.0061
2763.00,0.0061
2762.00,0.0061
2761.00,0.0060
2760.00,0.0060
2759.00,0.0059
2758.00,0.0059
2757.00,0.0059
2756.00,0.0059
2755.00,0.0059
2754.00,0.0059
2753.00,0.0058
2752.00,0.0058
2751.00,0.0058
2750.00,0.0058
2749.00,0.0058
2748.00,0.0058
2747.00,0.0058
2746.00,0.0058
2745.00,0.0059
2744.00,0.0060
2743.00,0.0061
2742.00,0.0062
2741.00,0.0063
2740.00,0.0064
2739.00,0.0066
2738.00,0.0067
2737.00,0.0069
2736.00,0.0070
2735.00,0.0072
2734.00,0.0073
2733.00,0.0075
2732.00,0.0077
2731.00,0.0079
2730.00,0.0081
2729.00,0.0083
2728.00,0.0086
2727.00,0.0089
2726.00,0.0091
2725.00,0.0093
2724.00,0.0095
2723.00,0.0095
2722.00,0.0095
2721.00,0.0093
2720.00,0.0090
2719.00,0.0087
2718.00,0.0083
2717.00,0.0080
2716.00,0.0077
2715.00,0.0074
2714.00,0.0072
2713.00,0.0069
2712.00,0.0067
2711.00,0.0066
2710.00,0.0064
2709.00,0.0062
2708.00,0.0061
2707.00,0.0060
2706.00,0.0058
2705.00,0.0057
2704.00,0.0056
2703.00,0.0055
2702.00,0.0053
2701.00,0.0053
2700.00,0.0052
2699.00,0.0052
2698.00,0.0052
2697.00,0.0051
2696.00,0.0051
2695.00,0.0051
2694.00,0.0051
2693.00,0.0051
2692.00,0.0051
2691.00,0.0051
2690.00,0.0051
2689.00,0.0051
2688.00,0.0051
2687.00,0.0051
2686.00,0.0051
2685.00,0.0051
2684.00,0.0051
2683.00,0.0051
2682.00,0.0051
2681.00,0.0051
2680.00,0.0051
2679.00,0.0051
2678.00,0.0051
2677.00,0.0051
2676.00,0.0051
2675.00,0.0051
2674.00,0.0051
2673.00,0.0051
2672.00,0.0051
2671.00,0.0051
2670.00,0.0051
2669.00,0.0051
2668.00,0.0051
2667.00,0.0051
2666.00,0.0052
2665.00,0.0052
2664.00,0.0053
2663.00,0.0053
2662.00,0.0053
2661.00,0.0053
2660.00,0.0053
2659.00,0.0053
2658.00,0.0053
2657.00,0.0052
2656.00,0.0052
2655.00,0.0052
2654.00,0.0051
2653.00,0.0050
2652.00,0.0050
2651.00,0.0049
2650.00,0.0049
2649.00,0.0048
2648.00,0.0047
2647.00,0.0047
2646.00,0.0046
2645.00,0.0046
2644.00,0.0046
2643.00,0.0046
2642.00,0.0045
2641.00,0.0045
2640.00,0.0044
2639.00,0.0044
2638.00,0.0043
2637.00,0.0043
2636.00,0.0042
2635.00,0.0042
2634.00,0.0042
2633.00,0.0043
2632.00,0.0043
2631.00,0.0044
2630.00,0.0044
2629.00,0.0044
2628.00,0.0044
2627.00,0.0044
2626.00,0.0044
2625.00,0.0044
2624.00,0.0044
2623.00,0.0044
2622.00,0.0044
2621.00,0.0044
2620.00,0.0045
2619.00,0.0045
2618.00,0.0045
2617.00,0.0045
2616.00,0.0045
2615.00,0.0045
2614.00,0.0045
2613.00,0.0045
2612.00,0.0045
2611.00,0.0044
2610.00,0.0043
2609.00,0.0042
2608.00,0.0041
2607.00,0.0040
2606.00,0.0040
2605.00,0.0039
2604.00,0.0038
2603.00,0.0038
2602.00,0.0038
2601.00,0.0038
2600.00,0.0038
2599.00,0.0038
2598.00,0.0038
2597.00,0.0038
2596.00,0.0038
2595.00,0.0038
2594.00,0.0038
2593.00,0.0038
2592.00,0.0038
2591.00,0.0039
2590.00,0.0039
2589.00,0.0039
2588.00,0.0040
2587.00,0.0041
2586.00,0.0041
2585.00,0.0042
2584.00,0.0043
2583.00,0.0044
2582.00,0.0044
2581.00,0.0044
2580.00,0.0044
2579.00,0.0043
2578.00,0.0042
2577.00,0.0041
2576.00,0.0039
2575.00,0.0038
2574.00,0.0037
2573.00,0.0036
2572.00,0.0035
2571.00,0.0035
2570.00,0.0034
2569.00,0.0033
2568.00,0.0033
2567.00,0.0033
2566.00,0.0032
2565.00,0.0032
2564.00,0.0031
2563.00,0.0030
2562.00,0.0029
2561.00,0.0028
2560.00,0.0028
2559.00,0.0028
2558.00,0.0028
2557.00,0.0028
2556.00,0.0028
2555.00,0.0028
2554.00,0.0027
2553.00,0.0027
2552.00,0.0027
2551.00,0.0027
2550.00,0.0027
2549.00,0.0027
2548.00,0.0027
2547.00,0.0026
2546.00,0.0026
2545.00,0.0025
2544.00,0.0025
2543.00,0.0024
2542.00,0.0023
2541.00,0.0023
2540.00,0.0022
2539.00,0.0022
2538.00,0.0022
2537.00,0.0022
2536.00,0.0022
2535.00,0.0022
2534.00,0.0022
2533.00,0.0022
2532.00,0.0022
2531.00,0.0022
2530.00,0.0022
2529.00,0.0022
2528.00,0.0022
2527.00,0.0022
2526.00,0.0021
2525.00,0.0021
2524.00,0.0021
2523.00,0.0020
2522.00,0.0019
2521.00,0.0018
2520.00,0.0017
2519.00,0.0017
2518.00,0.0017
2517.00,0.0017
2516.00,0.0018
2515.00,0.0018
2514.00,0.0018
2513.00,0.0017
2512.00,0.0017
2511.00,0.0016
2510.00,0.0016
2509.00,0.0016
2508.00,0.0016
2507.00,0.0015
2506.00,0.0015
2505.00,0.0015
2504.00,0.0015
2503.00,0.0015
2502.00,0.0015
2501.00,0.0015
2500.00,0.0016
2499.00,0.0016
2498.00,0.0016
2497.00,0.0016
2496.00,0.0016
2495.00,0.0016
2494.00,0.0017
2493.00,0.0017
2492.00,0.0017
2491.00,0.0016
2490.00,0.0016
2489.00,0.0016
2488.00,0.0016
2487.00,0.0017
2486.00,0.0018
2485.00,0.0018
2484.00,0.0017
2483.00,0.0017
2482.00,0.0016
2481.00,0.0016
2480.00,0.0015
2479.00,0.0015
2478.00,0.0015
2477.00,0.0015
2476.00,0.0015
2475.00,0.0015
2474.00,0.0015
2473.00,0.0015
2472.00,0.0015
2471.00,0.0015
2470.00,0.0014
2469.00,0.0013
2468.00,0.0013
2467.00,0.0014
2466.00,0.0014
2465.00,0.0014
2464.00,0.0014
2463.00,0.0015
2462.00,0.0015
2461.00,0.0016
2460.00,0.0016
2459.00,0.0016
2458.00,0.0016
2457.00,0.0017
2456.00,0.0017
2455.00,0.0018
2454.00,0.0018
2453.00,0.0018
2452.00,0.0018
2451.00,0.0017
2450.00,0.0016
2449.00,0.0016
2448.00,0.0016
2447.00,0.0017
2446.00,0.0017
2445.00,0.0017
2444.00,0.0016
2443.00,0.0016
2442.00,0.0016
2441.00,0.0016
2440.00,0.0017
2439.00,0.0017
2438.00,0.0018
2437.00,0.0018
2436.00,0.0018
2435.00,0.0017
2434.00,0.0017
2433.00,0.0017
2432.00,0.0017
2431.00,0.0017
2430.00,0.0017
2429.00,0.0017
2428.00,0.0017
2427.00,0.0017
2426.00,0.0017
2425.00,0.0016
2424.00,0.0016
2423.00,0.0016
2422.00,0.0015
2421.00,0.0015
2420.00,0.0015
2419.00,0.0015
2418.00,0.0015
2417.00,0.0015
2416.00,0.0015
2415.00,0.0015
2414.00,0.0015
2413.00,0.0015
2412.00,0.0015
2411.00,0.0015
2410.00,0.0015
2409.00,0.0015
2408.00,0.0015
2407.00,0.0015
2406.00,0.0015
2405.00,0.0015
2404.00,0.0015
2403.00,0.0015
2402.00,0.0014
2401.00,0.0014
2400.00,0.0014
2399.00,0.0014
2398.00,0.0014
2397.00,0.0014
2396.00,0.0014
2395.00,0.0014
2394.00,0.0014
2393.00,0.0014
2392.00,0.0014
2391.00,0.0014
2390.00,0.0014
2389.00,0.0014
2388.00,0.0013
2387.00,0.0012
2386.00,0.0011
2385.00,0.0010
2384.00,0.0010
2383.00,0.0009
2382.00,0.0009
2381.00,0.0008
2380.00,0.0008
2379.00,0.0008
2378.00,0.0008
2377.00,0.0008
2376.00,0.0008
2375.00,0.0008
2374.00,0.0007
2373.00,0.0007
2372.00,0.0008
2371.00,0.0008
2370.00,0.0007
2369.00,0.0006
2368.00,0.0006
2367.00,0.0006
2366.00,0.0006
2365.00,0.0006
2364.00,0.0006
2363.00,0.0006
2362.00,0.0006
2361.00,0.0007
2360.00,0.0007
2359.00,0.0007
2358.00,0.0006
2357.00,0.0006
2356.00,0.0006
2355.00,0.0006
2354.00,0.0007
2353.00,0.0007
2352.00,0.0007
2351.00,0.0007
2350.00,0.0007
2349.00,0.0007
2348.00,0.0007
2347.00,0.0007
2346.00,0.0007
2345.00,0.0007
2344.00,0.0008
2343.00,0.0009
2342.00,0.0009
2341.00,0.0009
2340.00,0.0009
2339.00,0.0009
2338.00,0.0009
2337.00,0.0010
2336.00,0.0010
2335.00,0.0010
2334.00,0.0010
2333.00,0.0009
2332.00,0.0009
2331.00,0.0009
2330.00,0.0009
2329.00,0.0009
2328.00,0.0011
2327.00,0.0014
2326.00,0.0018
2325.00,0.0022
2324.00,0.0023
2323.00,0.0023
2322.00,0.0021
2321.00,0.0019
2320.00,0.0017
2319.00,0.0016
2318.00,0.0015
2317.00,0.0015
2316.00,0.0014
2315.00,0.0013
2314.00,0.0014
2313.00,0.0014
2312.00,0.0014
2311.00,0.0013
2310.00,0.0013
2309.00,0.0013
2308.00,0.0013
2307.00,0.0014
2306.00,0.0014
2305.00,0.0015
2304.00,0.0015
2303.00,0.0015
2302.00,0.0014
2301.00,0.0015
2300.00,0.0015
2299.00,0.0016
2298.00,0.0017
2297.00,0.0018
2296.00,0.0019
2295.00,0.0019
2294.00,0.0020
2293.00,0.0020
2292.00,0.0020
2291.00,0.0021
2290.00,0.0022
2289.00,0.0023
2288.00,0.0024
2287.00,0.0024
2286.00,0.0023
2285.00,0.0023
2284.00,0.0022
2283.00,0.0021
2282.00,0.0020
2281.00,0.0019
2280.00,0.0018
2279.00,0.0018
2278.00,0.0018
2277.00,0.0019
2276.00,0.0019
2275.00,0.0019
2274.00,0.0018
2273.00,0.0017
2272.00,0.0016
2271.00,0.0016
2270.00,0.0017
2269.00,0.0018
2268.00,0.0018
2267.00,0.0017
2266.00,0.0016
2265.00,0.0015
2264.00,0.0015
2263.00,0.0016
2262.00,0.0016
2261.00,0.0016
2260.00,0.0016
2259.00,0.0017
2258.00,0.0017
2257.00,0.0017
2256.00,0.0017
2255.00,0.0015
2254.00,0.0013
2253.00,0.0011
2252.00,0.0011
2251.00,0.0011
2250.00,0.0011
2249.00,0.0012
2248.00,0.0014
2247.00,0.0015
2246.00,0.0015
2245.00,0.0015
2244.00,0.0015
2243.00,0.0014
2242.00,0.0014
2241.00,0.0014
2240.00,0.0015
2239.00,0.0015
2238.00,0.0015
2237.00,0.0015
2236.00,0.0014
2235.00,0.0013
2234.00,0.0012
2233.00,0.0013
2232.00,0.0013
2231.00,0.0013
2230.00,0.0012
2229.00,0.0012
2228.00,0.0013
2227.00,0.0014
2226.00,0.0014
2225.00,0.0014
2224.00,0.0014
2223.00,0.0012
2222.00,0.0010
2221.00,0.0010
2220.00,0.0011
2219.00,0.0012
2218.00,0.0012
2217.00,0.0012
2216.00,0.0012
2215.00,0.0012
2214.00,0.0012
2213.00,0.0011
2212.00,0.0010
2211.00,0.0009
2210.00,0.0009
2209.00,0.0010
2208.00,0.0011
2207.00,0.0012
2206.00,0.0013
2205.00,0.0014
2204.00,0.0015
2203.00,0.0015
2202.00,0.0015
2201.00,0.0015
2200.00,0.0014
2199.00,0.0013
2198.00,0.0012
2197.00,0.0011
2196.00,0.0012
2195.00,0.0013
2194.00,0.0014
2193.00,0.0016
2192.00,0.0017
2191.00,0.0017
2190.00,0.0016
2189.00,0.0016
2188.00,0.0016
2187.00,0.0017
2186.00,0.0017
2185.00,0.0015
2184.00,0.0013
2183.00,0.0011
2182.00,0.0009
2181.00,0.0008
2180.00,0.0009
2179.00,0.0010
2178.00,0.0009
2177.00,0.0007
2176.00,0.0005
2175.00,0.0005
2174.00,0.0007
2173.00,0.0011
2172.00,0.0014
2171.00,0.0016
2170.00,0.0018
2169.00,0.0018
2168.00,0.0016
2167.00,0.0015
2166.00,0.0014
2165.00,0.0015
2164.00,0.0017
2163.00,0.0019
2162.00,0.0021
2161.00,0.0018
2160.00,0.0010
2159.00,-0.0003
2158.00,-0.0013
2157.00,-0.0018
2156.00,-0.0019
2155.00,-0.0018
2154.00,-0.0016
2153.00,-0.0014
2152.00,-0.0011
2151.00,-0.0009
2150.00,-0.0006
2149.00,-0.0003
2148.00,-0.0003
2147.00,-0.0005
2146.00,-0.0007
2145.00,-0.0009
2144.00,-0.0008
2143.00,-0.0006
2142.00,-0.0004
2141.00,-0.0002
2140.00,-0.0001
2139.00,-0.0001
2138.00,-0.0002
2137.00,-0.0005
2136.00,-0.0008
2135.00,-0.0011
2134.00,-0.0014
2133.00,-0.0014
2132.00,-0.0013
2131.00,-0.0010
2130.00,-0.0008
2129.00,-0.0006
2128.00,-0.0004
2127.00,-0.0003
2126.00,-0.0004
2125.00,-0.0003
2124.00,-0.0002
2123.00,-0.0001
2122.00,0.0001
2121.00,0.0001
2120.00,0.0002
2119.00,0.0003
2118.00,0.0005
2117.00,0.0007
2116.00,0.0009
2115.00,0.0010
2114.00,0.0009
2113.00,0.0008
2112.00,0.0007
2111.00,0.0007
2110.00,0.0006
2109.00,0.0005
2108.00,0.0004
2107.00,0.0004
2106.00,0.0004
2105.00,0.0006
2104.00,0.0008
2103.00,0.0009
2102.00,0.0011
2101.00,0.0012
2100.00,0.0011
2099.00,0.0011
2098.00,0.0009
2097.00,0.0006
2096.00,0.0004
2095.00,0.0002
2094.00,0.0002
2093.00,0.0003
2092.00,0.0004
2091.00,0.0005
2090.00,0.0007
2089.00,0.0008
2088.00,0.0008
2087.00,0.0008
2086.00,0.0008
2085.00,0.0008
2084.00,0.0009
2083.00,0.0009
2082.00,0.0008
2081.00,0.0007
2080.00,0.0006
2079.00,0.0006
2078.00,0.0006
2077.00,0.0006
2076.00,0.0007
2075.00,0.0008
2074.00,0.0007
2073.00,0.0006
2072.00,0.0005
2071.00,0.0004
2070.00,0.0004
2069.00,0.0005
2068.00,0.0006
2067.00,0.0007
2066.00,0.0006
2065.00,0.0006
2064.00,0.0004
2063.00,0.0004
2062.00,0.0004
2061.00,0.0007
2060.00,0.0010
2059.00,0.0012
2058.00,0.0012
2057.00,0.0010
2056.00,0.0006
2055.00,0.0002
2054.00,0.0001
2053.00,0.0003
2052.00,0.0008
2051.00,0.0013
2050.00,0.0015
2049.00,0.0015
2048.00,0.0015
2047.00,0.0014
2046.00,0.0012
2045.00,0.0009
2044.00,0.0006
2043.00,0.0004
2042.00,0.0004
2041.00,0.0006
2040.00,0.0007
2039.00,0.0007
2038.00,0.0006
2037.00,0.0003
2036.00,-0.0001
2035.00,-0.0005
2034.00,-0.0006
2033.00,-0.0004
2032.00,-0.0001
2031.00,0.0000
2030.00,-0.0000
2029.00,-0.0001
2028.00,-0.0000
2027.00,-0.0000
2026.00,-0.0001
2025.00,-0.0003
2024.00,-0.0004
2023.00,-0.0004
2022.00,-0.0004
2021.00,-0.0003
2020.00,-0.0004
2019.00,-0.0005
2018.00,-0.0006
2017.00,-0.0005
2016.00,-0.0003
2015.00,-0.0000
2014.00,0.0001
2013.00,0.0002
2012.00,0.0001
2011.00,-0.0001
2010.00,-0.0003
2009.00,-0.0003
2008.00,-0.0002
2007.00,-0.0001
2006.00,-0.0002
2005.00,-0.0004
2004.00,-0.0006
2003.00,-0.0008
2002.00,-0.0008
2001.00,-0.0007
2000.00,-0.0005
1999.00,-0.0005
1998.00,-0.0005
1997.00,-0.0004
1996.00,-0.0002
1995.00,-0.0000
1994.00,-0.0000
1993.00,-0.0001
1992.00,-0.0002
1991.00,-0.0002
1990.00,-0.0002
1989.00,-0.0002
1988.00,-0.0004
1987.00,-0.0006
1986.00,-0.0008
1985.00,-0.0006
1984.00,-0.0002
1983.00,0.0005
1982.00,0.0012
1981.00,0.0017
1980.00,0.0017
1979.00,0.0012
1978.00,0.0006
1977.00,0.0001
1976.00,-0.0001
1975.00,-0.0002
1974.00,-0.0003
1973.00,-0.0004
1972.00,-0.0005
1971.00,-0.0005
1970.00,-0.0004
1969.00,-0.0003
1968.00,-0.0003
1967.00,-0.0004
1966.00,-0.0005
1965.00,-0.0007
1964.00,-0.0008
1963.00,-0.0010
1962.00,-0.0012
1961.00,-0.0013
1960.00,-0.0014
1959.00,-0.0015
1958.00,-0.0015
1957.00,-0.0012
1956.00,-0.0009
1955.00,-0.0006
1954.00,-0.0005
1953.00,-0.0005
1952.00,-0.0007
1951.00,-0.0009
1950.00,-0.0011
1949.00,-0.0011
1948.00,-0.0011
1947.00,-0.0011
1946.00,-0.0012
1945.00,-0.0013
1944.00,-0.0013
1943.00,-0.0012
1942.00,-0.0010
1941.00,-0.0006
1940.00,-0.0004
1939.00,-0.0003
1938.00,-0.0003
1937.00,-0.0003
1936.00,-0.0003
1935.00,-0.0003
1934.00,-0.0003
1933.00,-0.0004
1932.00,-0.0004
1931.00,-0.0004
1930.00,-0.0004
1929.00,-0.0004
1928.00,-0.0004
1927.00,-0.0003
1926.00,-0.0002
1925.00,-0.0000
1924.00,0.0002
1923.00,0.0003
1922.00,0.0004
1921.00,0.0004
1920.00,0.0004
1919.00,0.0004
1918.00,0.0004
1917.00,0.0003
1916.00,0.0003
1915.00,0.0003
1914.00,0.0002
1913.00,0.0002
1912.00,0.0001
1911.00,0.0001
1910.00,0.0001
1909.00,0.0002
1908.00,0.0003
1907.00,0.0003
1906.00,0.0003
1905.00,0.0003
1904.00,0.0002
1903.00,0.0003
1902.00,0.0003
1901.00,0.0004
1900.00,0.0005
1899.00,0.0005
1898.00,0.0006
1897.00,0.0006
1896.00,0.0006
1895.00,0.0006
1894.00,0.0005
1893.00,0.0005
1892.00,0.0006
1891.00,0.0006
1890.00,0.0008
1889.00,0.0009
1888.00,0.0010
1887.00,0.0010
1886.00,0.0008
1885.00,0.0006
1884.00,0.0005
1883.00,0.0004
1882.00,0.0004
1881.00,0.0005
1880.00,0.0005
1879.00,0.0006
1878.00,0.0006
1877.00,0.0006
1876.00,0.0007
1875.00,0.0006
1874.00,0.0007
1873.00,0.0007
1872.00,0.0008
1871.00,0.0007
1870.00,0.0007
1869.00,0.0006
1868.00,0.0007
1867.00,0.0007
1866.00,0.0006
1865.00,0.0006
1864.00,0.0006
1863.00,0.0006
1862.00,0.0007
1861.00,0.0007
1860.00,0.0008
1859.00,0.0007
1858.00,0.0007
1857.00,0.0007
1856.00,0.0007
1855.00,0.0008
1854.00,0.0008
1853.00,0.0008
1852.00,0.0008
1851.00,0.0007
1850.00,0.0006
1849.00,0.0005
1848.00,0.0005
1847.00,0.0005
1846.00,0.0005
1845.00,0.0007
1844.00,0.0008
1843.00,0.0009
1842.00,0.0009
1841.00,0.0009
1840.00,0.0009
1839.00,0.0008
1838.00,0.0008
1837.00,0.0008
1836.00,0.0009
1835.00,0.0009
1834.00,0.0009
1833.00,0.0009
1832.00,0.0009
1831.00,0.0009
1830.00,0.0010
1829.00,0.0010
1828.00,0.0010
1827.00,0.0010
1826.00,0.0009
1825.00,0.0009
1824.00,0.0010
1823.00,0.0010
1822.00,0.0010
1821.00,0.0009
1820.00,0.0008
1819.00,0.0007
1818.00,0.0006
1817.00,0.0005
1816.00,0.0006
1815.00,0.0007
1814.00,0.0008
1813.00,0.0009
1812.00,0.0009
1811.00,0.0009
1810.00,0.0009
1809.00,0.0009
1808.00,0.0009
1807.00,0.0009
1806.00,0.0009
1805.00,0.0009
1804.00,0.0009
1803.00,0.0010
1802.00,0.0010
1801.00,0.0011
1800.00,0.0011
1799.00,0.0012
1798.00,0.0012
1797.00,0.0012
1796.00,0.0012
1795.00,0.0012
1794.00,0.0012
1793.00,0.0012
1792.00,0.0013
1791.00,0.0013
1790.00,0.0014
1789.00,0.0014
1788.00,0.0014
1787.00,0.0015
1786.00,0.0015
1785.00,0.0015
1784.00,0.0015
1783.00,0.0014
1782.00,0.0014
1781.00,0.0013
1780.00,0.0013
1779.00,0.0012
1778.00,0.0012
1777.00,0.0012
1776.00,0.0013
1775.00,0.0013
1774.00,0.0014
1773.00,0.0015
1772.00,0.0016
1771.00,0.0016
1770.00,0.0017
1769.00,0.0017
1768.00,0.0017
1767.00,0.0017
1766.00,0.0018
1765.00,0.0018
1764.00,0.0018
1763.00,0.0018
1762.00,0.0018
1761.00,0.0018
1760.00,0.0018
1759.00,0.0019
1758.00,0.0019
1757.00,0.0020
1756.00,0.0020
1755.00,0.0021
1754.00,0.0021
1753.00,0.0021
1752.00,0.0021
1751.00,0.0022
1750.00,0.0023
1749.00,0.0024
1748.00,0.0024
1747.00,0.0024
1746.00,0.0024
1745.00,0.0025
1744.00,0.0026
1743.00,0.0027
1742.00,0.0027
1741.00,0.0027
1740.00,0.0028
1739.00,0.0028
1738.00,0.0029
1737.00,0.0029
1736.00,0.0029
1735.00,0.0029
1734.00,0.0029
1733.00,0.0029
1732.00,0.0029
1731.00,0.0029
1730.00,0.0029
1729.00,0.0029
1728.00,0.0029
1727.00,0.0029
1726.00,0.0028
1725.00,0.0028
1724.00,0.0028
1723.00,0.0028
1722.00,0.0028
1721.00,0.0029
1720.00,0.0029
1719.00,0.0028
1718.00,0.0028
1717.00,0.0028
1716.00,0.0029
1715.00,0.0030
1714.00,0.0030
1713.00,0.0031
1712.00,0.0031
1711.00,0.0032
1710.00,0.0033
1709.00,0.0033
1708.00,0.0034
1707.00,0.0034
1706.00,0.0033
1705.00,0.0034
1704.00,0.0034
1703.00,0.0035
1702.00,0.0035
1701.00,0.0036
1700.00,0.0036
1699.00,0.0037
1698.00,0.0038
1697.00,0.0038
1696.00,0.0039
1695.00,0.0039
1694.00,0.0039
1693.00,0.0040
1692.00,0.0040
1691.00,0.0041
1690.00,0.0043
1689.00,0.0044
1688.00,0.0046
1687.00,0.0047
1686.00,0.0047
1685.00,0.0047
1684.00,0.0048
1683.00,0.0049
1682.00,0.0049
1681.00,0.0051
1680.00,0.0052
1679.00,0.0054
1678.00,0.0055
1677.00,0.0056
1676.00,0.0056
1675.00,0.0057
1674.00,0.0058
1673.00,0.0059
1672.00,0.0060
1671.00,0.0060
1670.00,0.0061
1669.00,0.0062
1668.00,0.0063
1667.00,0.0064
1666.00,0.0064
1665.00,0.0065
1664.00,0.0066
1663.00,0.0067
1662.00,0.0068
1661.00,0.0069
1660.00,0.0070
1659.00,0.0070
1658.00,0.0071
1657.00,0.0072
1656.00,0.0073
1655.00,0.0074
1654.00,0.0074
1653.00,0.0075
1652.00,0.0075
1651.00,0.0075
1650.00,0.0076
1649.00,0.0077
1648.00,0.0079
1647.00,0.0080
1646.00,0.0081
1645.00,0.0081
1644.00,0.0081
1643.00,0.0081
1642.00,0.0081
1641.00,0.0082
1640.00,0.0082
1639.00,0.0082
1638.00,0.0083
1637.00,0.0083
1636.00,0.0084
1635.00,0.0083
1634.00,0.0082
1633.00,0.0082
1632.00,0.0082
1631.00,0.0082
1630.00,0.0082
1629.00,0.0083
1628.00,0.0083
1627.00,0.0083
1626.00,0.0083
1625.00,0.0083
1624.00,0.0083
1623.00,0.0083
1622.00,0.0083
1621.00,0.0083
1620.00,0.0083
1619.00,0.0083
1618.00,0.0083
1617.00,0.0083
1616.00,0.0083
1615.00,0.0083
1614.00,0.0083
1613.00,0.0083
1612.00,0.0084
1611.00,0.0084
1610.00,0.0084
1609.00,0.0084
1608.00,0.0084
1607.00,0.0085
1606.00,0.0085
1605.00,0.0085
1604.00,0.0085
1603.00,0.0085
1602.00,0.0085
1601.00,0.0086
1600.00,0.0086
1599.00,0.0086
1598.00,0.0086
1597.00,0.0086
1596.00,0.0086
1595.00,0.0086
1594.00,0.0085
1593.00,0.0085
1592.00,0.0085
1591.00,0.0085
1590.00,0.0086
1589.00,0.0086
1588.00,0.0086
1587.00,0.0086
1586.00,0.0086
1585.00,0.0086
1584.00,0.0087
1583.00,0.0088
1582.00,0.0089
1581.00,0.0091
1580.00,0.0093
1579.00,0.0094
1578.00,0.0095
1577.00,0.0095
1576.00,0.0094
1575.00,0.0092
1574.00,0.0090
1573.00,0.0089
1572.00,0.0089
1571.00,0.0088
1570.00,0.0086
1569.00,0.0085
1568.00,0.0084
1567.00,0.0083
1566.00,0.0082
1565.00,0.0082
1564.00,0.0082
1563.00,0.0082
1562.00,0.0083
1561.00,0.0083
1560.00,0.0084
1559.00,0.0085
1558.00,0.0085
1557.00,0.0086
1556.00,0.0087
1555.00,0.0087
1554.00,0.0087
1553.00,0.0088
1552.00,0.0088
1551.00,0.0089
1550.00,0.0090
1549.00,0.0090
1548.00,0.0091
1547.00,0.0092
1546.00,0.0094
1545.00,0.0096
1544.00,0.0098
1543.00,0.0099
1542.00,0.0098
1541.00,0.0097
1540.00,0.0094
1539.00,0.0091
1538.00,0.0088
1537.00,0.0086
1536.00,0.0085
1535.00,0.0082
1534.00,0.0080
1533.00,0.0077
1532.00,0.0075
1531.00,0.0074
1530.00,0.0072
1529.00,0.0072
1528.00,0.0072
1527.00,0.0071
1526.00,0.0071
1525.00,0.0070
1524.00,0.0070
1523.00,0.0069
1522.00,0.0069
1521.00,0.0069
1520.00,0.0070
1519.00,0.0070
1518.00,0.0070
1517.00,0.0071
1516.00,0.0071
1515.00,0.0071
1514.00,0.0071
1513.00,0.0072
1512.00,0.0074
1511.00,0.0075
1510.00,0.0076
1509.00,0.0078
1508.00,0.0080
1507.00,0.0081
1506.00,0.0081
1505.00,0.0081
1504.00,0.0082
1503.00,0.0083
1502.00,0.0084
1501.00,0.0086
1500.00,0.0089
1499.00,0.0091
1498.00,0.0093
1497.00,0.0096
1496.00,0.0100
1495.00,0.0103
1494.00,0.0105
1493.00,0.0108
1492.00,0.0112
1491.00,0.0116
1490.00,0.0121
1489.00,0.0126
1488.00,0.0131
1487.00,0.0136
1486.00,0.0140
1485.00,0.0146
1484.00,0.0153
1483.00,0.0160
1482.00,0.0170
1481.00,0.0181
1480.00,0.0193
1479.00,0.0205
1478.00,0.0219
1477.00,0.0238
1476.00,0.0260
1475.00,0.0285
1474.00,0.0320
1473.00,0.0372
1472.00,0.0435
1471.00,0.0498
1470.00,0.0558
1469.00,0.0622
1468.00,0.0691
1467.00,0.0767
1466.00,0.0855
1465.00,0.0950
1464.00,0.1034
1463.00,0.1096
1462.00,0.1139
1461.00,0.1171
1460.00,0.1196
1459.00,0.1215
1458.00,0.1233
1457.00,0.1250
1456.00,0.1259
1455.00,0.1259
1454.00,0.1254
1453.00,0.1243
1452.00,0.1222
1451.00,0.1187
1450.00,0.1135
1449.00,0.1061
1448.00,0.0965
1447.00,0.0862
1446.00,0.0770
1445.00,0.0690
1444.00,0.0623
1443.00,0.0569
1442.00,0.0528
1441.00,0.0501
1440.00,0.0484
1439.00,0.0477
1438.00,0.0477
1437.00,0.0476
1436.00,0.0464
1435.00,0.0436
1434.00,0.0396
1433.00,0.0350
1432.00,0.0304
1431.00,0.0263
1430.00,0.0232
1429.00,0.0210
1428.00,0.0194
1427.00,0.0185
1426.00,0.0179
1425.00,0.0173
1424.00,0.0168
1423.00,0.0165
1422.00,0.0164
1421.00,0.0162
1420.00,0.0159
1419.00,0.0157
1418.00,0.0155
1417.00,0.0152
1416.00,0.0148
1415.00,0.0146
1414.00,0.0145
1413.00,0.0144
1412.00,0.0142
1411.00,0.0141
1410.00,0.0141
1409.00,0.0139
1408.00,0.0138
1407.00,0.0138
1406.00,0.0139
1405.00,0.0139
1404.00,0.0139
1403.00,0.0139
1402.00,0.0140
1401.00,0.0141
1400.00,0.0141
1399.00,0.0143
1398.00,0.0146
1397.00,0.0147
1396.00,0.0150
1395.00,0.0153
1394.00,0.0158
1393.00,0.0164
1392.00,0.0170
1391.00,0.0178
1390.00,0.0191
1389.00,0.0208
1388.00,0.0235
1387.00,0.0273
1386.00,0.0325
1385.00,0.0390
1384.00,0.0475
1383.00,0.0588
1382.00,0.0737
1381.00,0.0923
1380.00,0.1152
1379.00,0.1410
1378.00,0.1660
1377.00,0.1846
1376.00,0.1914
1375.00,0.1829
1374.00,0.1614
1373.00,0.1346
1372.00,0.1097
1371.00,0.0888
1370.00,0.0719
1369.00,0.0590
1368.00,0.0500
1367.00,0.0444
1366.00,0.0414
1365.00,0.0401
1364.00,0.0403
1363.00,0.0417
1362.00,0.0439
1361.00,0.0461
1360.00,0.0478
1359.00,0.0482
1358.00,0.0470
1357.00,0.0444
1356.00,0.0406
1355.00,0.0363
1354.00,0.0321
1353.00,0.0285
1352.00,0.0256
1351.00,0.0233
1350.00,0.0214
1349.00,0.0200
1348.00,0.0188
1347.00,0.0178
1346.00,0.0170
1345.00,0.0164
1344.00,0.0159
1343.00,0.0156
1342.00,0.0153
1341.00,0.0150
1340.00,0.0148
1339.00,0.0146
1338.00,0.0145
1337.00,0.0145
1336.00,0.0145
1335.00,0.0147
1334.00,0.0150
1333.00,0.0154
1332.00,0.0158
1331.00,0.0161
1330.00,0.0162
1329.00,0.0161
1328.00,0.0157
1327.00,0.0152
1326.00,0.0146
1325.00,0.0140
1324.00,0.0134
1323.00,0.0128
1322.00,0.0124
1321.00,0.0120
1320.00,0.0118
1319.00,0.0116
1318.00,0.0114
1317.00,0.0113
1316.00,0.0111
1315.00,0.0109
1314.00,0.0108
1313.00,0.0108
1312.00,0.0110
1311.00,0.0113
1310.00,0.0117
1309.00,0.0125
1308.00,0.0135
1307.00,0.0147
1306.00,0.0159
1305.00,0.0167
1304.00,0.0170
1303.00,0.0168
1302.00,0.0162
1301.00,0.0155
1300.00,0.0151
1299.00,0.0150
1298.00,0.0149
1297.00,0.0148
1296.00,0.0147
1295.00,0.0144
1294.00,0.0139
1293.00,0.0134
1292.00,0.0128
1291.00,0.0123
1290.00,0.0119
1289.00,0.0115
1288.00,0.0111
1287.00,0.0109
1286.00,0.0106
1285.00,0.0104
1284.00,0.0103
1283.00,0.0101
1282.00,0.0100
1281.00,0.0099
1280.00,0.0098
1279.00,0.0097
1278.00,0.0096
1277.00,0.0095
1276.00,0.0095
1275.00,0.0094
1274.00,0.0094
1273.00,0.0095
1272.00,0.0096
1271.00,0.0097
1270.00,0.0097
1269.00,0.0098
1268.00,0.0099
1267.00,0.0101
1266.00,0.0103
1265.00,0.0105
1264.00,0.0107
1263.00,0.0110
1262.00,0.0114
1261.00,0.0119
1260.00,0.0126
1259.00,0.0134
1258.00,0.0143
1257.00,0.0151
1256.00,0.0155
1255.00,0.0154
1254.00,0.0148
1253.00,0.0139
1252.00,0.0129
1251.00,0.0121
1250.00,0.0116
1249.00,0.0112
1248.00,0.0110
1247.00,0.0108
1246.00,0.0107
1245.00,0.0106
1244.00,0.0105
1243.00,0.0104
1242.00,0.0103
1241.00,0.0102
1240.00,0.0101
1239.00,0.0100
1238.00,0.0100
1237.00,0.0099
1236.00,0.0099
1235.00,0.0098
1234.00,0.0098
1233.00,0.0098
1232.00,0.0098
1231.00,0.0098
1230.00,0.0098
1229.00,0.0099
1228.00,0.0100
1227.00,0.0101
1226.00,0.0102
1225.00,0.0104
1224.00,0.0107
1223.00,0.0110
1222.00,0.0113
1221.00,0.0116
1220.00,0.0118
1219.00,0.0119
1218.00,0.0119
1217.00,0.0118
1216.00,0.0116
1215.00,0.0113
1214.00,0.0109
1213.00,0.0106
1212.00,0.0102
1211.00,0.0099
1210.00,0.0097
1209.00,0.0095
1208.00,0.0094
1207.00,0.0093
1206.00,0.0091
1205.00,0.0091
1204.00,0.0090
1203.00,0.0090
1202.00,0.0090
1201.00,0.0090
1200.00,0.0089
1199.00,0.0089
1198.00,0.0089
1197.00,0.0088
1196.00,0.0088
1195.00,0.0088
1194.00,0.0088
1193.00,0.0088
1192.00,0.0088
1191.00,0.0088
1190.00,0.0088
1189.00,0.0088
1188.00,0.0089
1187.00,0.0089
1186.00,0.0090
1185.00,0.0091
1184.00,0.0093
1183.00,0.0095
1182.00,0.0097
1181.00,0.0100
1180.00,0.0104
1179.00,0.0111
1178.00,0.0118
1177.00,0.0128
1176.00,0.0141
1175.00,0.0158
1174.00,0.0181
1173.00,0.0210
1172.00,0.0245
1171.00,0.0283
1170.00,0.0319
1169.00,0.0349
1168.00,0.0367
1167.00,0.0372
1166.00,0.0363
1165.00,0.0346
1164.00,0.0326
1163.00,0.0305
1162.00,0.0287
1161.00,0.0272
1160.00,0.0260
1159.00,0.0250
1158.00,0.0243
1157.00,0.0237
1156.00,0.0232
1155.00,0.0229
1154.00,0.0226
1153.00,0.0223
1152.00,0.0218
1151.00,0.0211
1150.00,0.0202
1149.00,0.0191
1148.00,0.0182
1147.00,0.0173
1146.00,0.0164
1145.00,0.0156
1144.00,0.0148
1143.00,0.0141
1142.00,0.0136
1141.00,0.0131
1140.00,0.0126
1139.00,0.0122
1138.00,0.0118
1137.00,0.0114
1136.00,0.0112
1135.00,0.0111
1134.00,0.0110
1133.00,0.0110
1132.00,0.0109
1131.00,0.0110
1130.00,0.0111
1129.00,0.0113
1128.00,0.0115
1127.00,0.0117
1126.00,0.0118
1125.00,0.0119
1124.00,0.0120
1123.00,0.0120
1122.00,0.0121
1121.00,0.0121
1120.00,0.0122
1119.00,0.0123
1118.00,0.0125
1117.00,0.0126
1116.00,0.0128
1115.00,0.0129
1114.00,0.0131
1113.00,0.0133
1112.00,0.0135
1111.00,0.0138
1110.00,0.0141
1109.00,0.0146
1108.00,0.0151
1107.00,0.0157
1106.00,0.0164
1105.00,0.0170
1104.00,0.0176
1103.00,0.0178
1102.00,0.0177
1101.00,0.0174
1100.00,0.0168
1099.00,0.0162
1098.00,0.0156
1097.00,0.0150
1096.00,0.0144
1095.00,0.0140
1094.00,0.0136
1093.00,0.0133
1092.00,0.0131
1091.00,0.0128
1090.00,0.0126
1089.00,0.0123
1088.00,0.0121
1087.00,0.0119
1086.00,0.0118
1085.00,0.0118
1084.00,0.0117
1083.00,0.0117
1082.00,0.0116
1081.00,0.0115
1080.00,0.0114
1079.00,0.0113
1078.00,0.0112
1077.00,0.0110
1076.00,0.0109
1075.00,0.0109
1074.00,0.0108
1073.00,0.0108
1072.00,0.0108
1071.00,0.0107
1070.00,0.0108
1069.00,0.0108
1068.00,0.0108
1067.00,0.0109
1066.00,0.0110
1065.00,0.0110
1064.00,0.0111
1063.00,0.0112
1062.00,0.0113
1061.00,0.0114
1060.00,0.0115
1059.00,0.0116
1058.00,0.0117
1057.00,0.0118
1056.00,0.0120
1055.00,0.0121
1054.00,0.0122
1053.00,0.0123
1052.00,0.0124
1051.00,0.0126
1050.00,0.0129
1049.00,0.0132
1048.00,0.0135
1047.00,0.0138
1046.00,0.0140
1045.00,0.0142
1044.00,0.0142
1043.00,0.0141
1042.00,0.0139
1041.00,0.0136
1040.00,0.0135
1039.00,0.0135
1038.00,0.0135
1037.00,0.0136
1036.00,0.0136
1035.00,0.0136
1034.00,0.0136
1033.00,0.0136
1032.00,0.0135
1031.00,0.0134
1030.00,0.0132
1029.00,0.0130
1028.00,0.0129
1027.00,0.0129
1026.00,0.0130
1025.00,0.0130
1024.00,0.0129
1023.00,0.0129
1022.00,0.0129
1021.00,0.0129
1020.00,0.0129
1019.00,0.0130
1018.00,0.0132
1017.00,0.0133
1016.00,0.0135
1015.00,0.0137
1014.00,0.0140
1013.00,0.0144
1012.00,0.0149
1011.00,0.0153
1010.00,0.0158
1009.00,0.0163
1008.00,0.0168
1007.00,0.0176
1006.00,0.0186
1005.00,0.0199
1004.00,0.0217
1003.00,0.0242
1002.00,0.0274
1001.00,0.0314
1000.00,0.0357
999.00,0.0393
998.00,0.0412
997.00,0.0406
996.00,0.0378
995.00,0.0336
994.00,0.0290
993.00,0.0248
992.00,0.0215
991.00,0.0191
990.00,0.0174
989.00,0.0162
988.00,0.0155
987.00,0.0151
986.00,0.0151
985.00,0.0153
984.00,0.0157
983.00,0.0164
982.00,0.0175
981.00,0.0192
980.00,0.0215
979.00,0.0245
978.00,0.0284
977.00,0.0330
976.00,0.0381
975.00,0.0430
974.00,0.0469
973.00,0.0484
972.00,0.0471
971.00,0.0430
970.00,0.0374
969.00,0.0315
968.00,0.0263
967.00,0.0223
966.00,0.0194
965.00,0.0172
964.00,0.0156
963.00,0.0144
962.00,0.0135
961.00,0.0127
960.00,0.0121
959.00,0.0117
958.00,0.0112
957.00,0.0108
956.00,0.0104
955.00,0.0102
954.00,0.0100
953.00,0.0099
952.00,0.0098
951.00,0.0097
950.00,0.0097
949.00,0.0098
948.00,0.0099
947.00,0.0100
946.00,0.0102
945.00,0.0103
944.00,0.0106
943.00,0.0108
942.00,0.0110
941.00,0.0111
940.00,0.0109
939.00,0.0107
938.00,0.0103
937.00,0.0100
936.00,0.0096
935.00,0.0093
934.00,0.0090
933.00,0.0088
932.00,0.0086
931.00,0.0085
930.00,0.0083
929.00,0.0082
928.00,0.0080
927.00,0.0079
926.00,0.0079
925.00,0.0080
924.00,0.0080
923.00,0.0081
922.00,0.0083
921.00,0.0085
920.00,0.0086
919.00,0.0088
918.00,0.0089
917.00,0.0089
916.00,0.0088
915.00,0.0088
914.00,0.0089
913.00,0.0090
912.00,0.0091
911.00,0.0093
910.00,0.0094
909.00,0.0096
908.00,0.0099
907.00,0.0103
906.00,0.0110
905.00,0.0120
904.00,0.0134
903.00,0.0151
902.00,0.0171
901.00,0.0190
900.00,0.0204
899.00,0.0208
898.00,0.0201
897.00,0.0187
896.00,0.0167
895.00,0.0148
894.00,0.0131
893.00,0.0119
892.00,0.0110
891.00,0.0103
890.00,0.0098
889.00,0.0094
888.00,0.0091
887.00,0.0089
886.00,0.0088
885.00,0.0087
884.00,0.0087
883.00,0.0087
882.00,0.0087
881.00,0.0088
880.00,0.0089
879.00,0.0089
878.00,0.0090
877.00,0.0091
876.00,0.0092
875.00,0.0092
874.00,0.0092
873.00,0.0092
872.00,0.0092
871.00,0.0092
870.00,0.0093
869.00,0.0093
868.00,0.0093
867.00,0.0093
866.00,0.0093
865.00,0.0092
864.00,0.0093
863.00,0.0095
862.00,0.0098
861.00,0.0100
860.00,0.0102
859.00,0.0102
858.00,0.0103
857.00,0.0104
856.00,0.0106
855.00,0.0109
854.00,0.0112
853.00,0.0114
852.00,0.0117
851.00,0.0121
850.00,0.0127
849.00,0.0135
848.00,0.0145
847.00,0.0161
846.00,0.0186
845.00,0.0225
844.00,0.0276
843.00,0.0331
842.00,0.0373
841.00,0.0383
840.00,0.0357
839.00,0.0308
838.00,0.0256
837.00,0.0215
836.00,0.0187
835.00,0.0169
834.00,0.0158
833.00,0.0150
832.00,0.0145
831.00,0.0140
830.00,0.0136
829.00,0.0132
828.00,0.0130
827.00,0.0129
826.00,0.0128
825.00,0.0127
824.00,0.0127
823.00,0.0127
822.00,0.0128
821.00,0.0129
820.00,0.0129
819.00,0.0130
818.00,0.0132
817.00,0.0136
816.00,0.0144
815.00,0.0154
814.00,0.0168
813.00,0.0184
812.00,0.0201
811.00,0.0216
810.00,0.0228
809.00,0.0232
808.00,0.0229
807.00,0.0220
806.00,0.0207
805.00,0.0192
804.00,0.0177
803.00,0.0165
802.00,0.0154
801.00,0.0146
800.00,0.0139
799.00,0.0134
798.00,0.0128
797.00,0.0123
796.00,0.0117
795.00,0.0112
794.00,0.0108
793.00,0.0106
792.00,0.0104
791.00,0.0103
790.00,0.0101
789.00,0.0099
788.00,0.0097
787.00,0.0094
786.00,0.0091
785.00,0.0089
784.00,0.0086
783.00,0.0083
782.00,0.0082
781.00,0.0082
780.00,0.0083
779.00,0.0083
778.00,0.0083
777.00,0.0083
776.00,0.0083
775.00,0.0083
774.00,0.0085
773.00,0.0088
772.00,0.0093
771.00,0.0097
770.00,0.0100
769.00,0.0101
768.00,0.0102
767.00,0.0102
766.00,0.0102
765.00,0.0100
764.00,0.0098
763.00,0.0095
762.00,0.0091
761.00,0.0087
760.00,0.0083
759.00,0.0080
758.00,0.0078
757.00,0.0077
756.00,0.0076
755.00,0.0076
754.00,0.0077
753.00,0.0076
752.00,0.0075
751.00,0.0075
750.00,0.0075
749.00,0.0076
748.00,0.0077
747.00,0.0076
746.00,0.0075
745.00,0.0074
744.00,0.0074
743.00,0.0076
742.00,0.0078
741.00,0.0081
740.00,0.0083
739.00,0.0084
738.00,0.0086
737.00,0.0086
736.00,0.0086
735.00,0.0087
734.00,0.0088
733.00,0.0090
732.00,0.0091
731.00,0.0090
730.00,0.0090
729.00,0.0090
728.00,0.0092
727.00,0.0093
726.00,0.0093
725.00,0.0093
724.00,0.0093
723.00,0.0092
722.00,0.0092
721.00,0.0092
720.00,0.0090
719.00,0.0088
718.00,0.0085
717.00,0.0084
716.00,0.0082
715.00,0.0082
714.00,0.0083
713.00,0.0085
712.00,0.0086
711.00,0.0087
710.00,0.0087
709.00,0.0086
708.00,0.0085
707.00,0.0084
706.00,0.0084
705.00,0.0085
704.00,0.0087
703.00,0.0087
702.00,0.0085
701.00,0.0081
700.00,0.0078
699.00,0.0077
698.00,0.0076
697.00,0.0077
696.00,0.0078
695.00,0.0079
694.00,0.0080
693.00,0.0082
692.00,0.0082
691.00,0.0083
690.00,0.0082
689.00,0.0082
688.00,0.0083
687.00,0.0083
686.00,0.0084
685.00,0.0083
684.00,0.0082
683.00,0.0081
682.00,0.0080
681.00,0.0080
680.00,0.0080
679.00,0.0080
678.00,0.0080
677.00,0.0080
676.00,0.0080
675.00,0.0081
674.00,0.0081
673.00,0.0080
672.00,0.0079
671.00,0.0078
670.00,0.0078
669.00,0.0080
668.00,0.0084
667.00,0.0085
666.00,0.0084
665.00,0.0083
664.00,0.0084
663.00,0.0086
662.00,0.0088
661.00,0.0088
660.00,0.0086
659.00,0.0083
658.00,0.0079
657.00,0.0078
656.00,0.0079
655.00,0.0081
654.00,0.0083
653.00,0.0084
652.00,0.0084
651.00,0.0086
650.00,0.0088
649.00,0.0088
648.00,0.0086
647.00,0.0084
646.00,0.0083
645.00,0.0083
644.00,0.0083
643.00,0.0083
642.00,0.0083
641.00,0.0083
640.00,0.0084
639.00,0.0085
638.00,0.0086
637.00,0.0087
636.00,0.0087
635.00,0.0087
634.00,0.0089
633.00,0.0092
632.00,0.0093
631.00,0.0093
630.00,0.0092
629.00,0.0090
628.00,0.0087
627.00,0.0086
626.00,0.0085
625.00,0.0085
624.00,0.0086
623.00,0.0087
622.00,0.0088
621.00,0.0090
620.00,0.0092
619.00,0.0094
618.00,0.0094
617.00,0.0093
616.00,0.0094
615.00,0.0094
614.00,0.0094
613.00,0.0092
612.00,0.0091
611.00,0.0091
610.00,0.0091
609.00,0.0090
608.00,0.0089
607.00,0.0089
606.00,0.0090
605.00,0.0090
604.00,0.0090
603.00,0.0089
602.00,0.0090
601.00,0.0091
600.00,0.0095
599.00,0.0098
598.00,0.0099
597.00,0.0096
596.00,0.0092
595.00,0.0090
594.00,0.0090
593.00,0.0091
592.00,0.0093
591.00,0.0095
590.00,0.0096
589.00,0.0095
588.00,0.0093
587.00,0.0091
586.00,0.0089
585.00,0.0088
584.00,0.0088
583.00,0.0088
582.00,0.0089
581.00,0.0090
580.00,0.0092
579.00,0.0095
578.00,0.0097
577.00,0.0098
576.00,0.0098
575.00,0.0099
574.00,0.0101
573.00,0.0103
572.00,0.0104
571.00,0.0103
570.00,0.0101
569.00,0.0098
568.00,0.0097
567.00,0.0098
566.00,0.0098
565.00,0.0098
564.00,0.0096
563.00,0.0095
562.00,0.0094
561.00,0.0095
560.00,0.0095
559.00,0.0094
558.00,0.0094
557.00,0.0094
556.00,0.0095
555.00,0.0098
554.00,0.0100
553.00,0.0102
552.00,0.0101
551.00,0.0100
550.00,0.0100
549.00,0.0101
548.00,0.0105
547.00,0.0108
546.00,0.0110
545.00,0.0109
544.00,0.0106
543.00,0.0102
542.00,0.0098
541.00,0.0095
540.00,0.0093
539.00,0.0092
538.00,0.0092
537.00,0.0093
536.00,0.0097
535.00,0.0103
534.00,0.0112
533.00,0.0120
532.00,0.0124
531.00,0.0124
530.00,0.0121
529.00,0.0116
528.00,0.0110
527.00,0.0104
526.00,0.0102
525.00,0.0104
524.00,0.0109
523.00,0.0111
522.00,0.0110
521.00,0.0106
520.00,0.0100
519.00,0.0093
518.00,0.0088
517.00,0.0089
516.00,0.0094
515.00,0.0101
514.00,0.0105
513.00,0.0104
512.00,0.0100
511.00,0.0097
510.00,0.0096
509.00,0.0097
508.00,0.0100
507.00,0.0104
506.00,0.0107
505.00,0.0107
504.00,0.0104
503.00,0.0101
502.00,0.0100
501.00,0.0099
500.00,0.0096
499.00,0.0091
498.00,0.0089
497.00,0.0093
496.00,0.0100
495.00,0.0105
494.00,0.0105
493.00,0.0100
492.00,0.0095
491.00,0.0092
490.00,0.0091
489.00,0.0093
488.00,0.0098
487.00,0.0104
486.00,0.0107
485.00,0.0104
484.00,0.0100
483.00,0.0100
482.00,0.0107
481.00,0.0112
480.00,0.0109
479.00,0.0100
478.00,0.0094
477.00,0.0092
476.00,0.0089
475.00,0.0081
474.00,0.0069
473.00,0.0063
472.00,0.0071
471.00,0.0088
470.00,0.0104
469.00,0.0113
468.00,0.0118
467.00,0.0119
466.00,0.0120
465.00,0.0124
464.00,0.0135
463.00,0.0152
462.00,0.0165
461.00,0.0168
460.00,0.0163
459.00,0.0158
458.00,0.0163
457.00,0.0175
456.00,0.0184
455.00,0.0185
454.00,0.0179
453.00,0.0169
452.00,0.0156
451.00,0.0142
450.00,0.0129
