Created as New Dataset,Sample 091 By Administrator Date Wednesday, September 10 2025
cm-1,A
4000.00,0.0021
3999.00,0.0021
3998.00,0.0021
3997.00,0.0020
3996.00,0.0020
3995.00,0.0021
3994.00,0.0021
3993.00,0.0021
3992.00,0.0021
3991.00,0.0021
3990.00,0.0021
3989.00,0.0021
3988.00,0.0021
3987.00,0.0021
3986.00,0.0021
3985.00,0.0021
3984.00,0.0020
3983.00,0.0020
3982.00,0.0020
3981.00,0.0020
3980.00,0.0020
3979.00,0.0020
3978.00,0.0020
3977.00,0.0020
3976.00,0.0020
3975.00,0.0020
3974.00,0.0020
3973.00,0.0020
3972.00,0.0020
3971.00,0.0020
3970.00,0.0020
3969.00,0.0020
3968.00,0.0021
3967.00,0.0020
3966.00,0.0020
3965.00,0.0020
3964.00,0.0020
3963.00,0.0020
3962.00,0.0020
3961.00,0.0020
3960.00,0.0020
3959.00,0.0020
3958.00,0.0019
3957.00,0.0019
3956.00,0.0019
3955.00,0.0019
3954.00,0.0020
3953.00,0.0020
3952.00,0.0020
3951.00,0.0020
3950.00,0.0020
3949.00,0.0020
3948.00,0.0020
3947.00,0.0020
3946.00,0.0020
3945.00,0.0020
3944.00,0.0020
3943.00,0.0020
3942.00,0.0020
3941.00,0.0020
3940.00,0.0020
3939.00,0.0020
3938.00,0.0020
3937.00,0.0020
3936.00,0.0020
3935.00,0.0020
3934.00,0.0021
3933.00,0.0021
3932.00,0.0021
3931.00,0.0021
3930.00,0.0021
3929.00,0.0020
3928.00,0.0020
3927.00,0.0020
3926.00,0.0020
3925.00,0.0020
3924.00,0.0020
3923.00,0.0021
3922.00,0.0021
3921.00,0.0021
3920.00,0.0020
3919.00,0.0020
3918.00,0.0020
3917.00,0.0020
3916.00,0.0020
3915.00,0.0020
3914.00,0.0019
3913.00,0.0019
3912.00,0.0019
3911.00,0.0019
3910.00,0.0019
3909.00,0.0019
3908.00,0.0019
3907.00,0.0019
3906.00,0.0020
3905.00,0.0021
3904.00,0.0021
3903.00,0.0021
3902.00,0.0021
3901.00,0.0020
3900.00,0.0020
3899.00,0.0020
3898.00,0.0020
3897.00,0.0020
3896.00,0.0020
3895.00,0.0020
3894.00,0.0020
3893.00,0.0019
3892.00,0.0019
3891.00,0.0019
3890.00,0.0019
3889.00,0.0019
3888.00,0.0019
3887.00,0.0019
3886.00,0.0019
3885.00,0.0019
3884.00,0.0020
3883.00,0.0020
3882.00,0.0020
3881.00,0.0020
3880.00,0.0020
3879.00,0.0020
3878.00,0.0020
3877.00,0.0020
3876.00,0.0020
3875.00,0.0019
3874.00,0.0019
3873.00,0.0019
3872.00,0.0019
3871.00,0.0019
3870.00,0.0019
3869.00,0.0019
3868.00,0.0019
3867.00,0.0019
3866.00,0.0019
3865.00,0.0019
3864.00,0.0018
3863.00,0.0018
3862.00,0.0018
3861.00,0.0018
3860.00,0.0018
3859.00,0.0018
3858.00,0.0019
3857.00,0.0019
3856.00,0.0019
3855.00,0.0019
3854.00,0.0019
3853.00,0.0019
3852.00,0.0019
3851.00,0.0019
3850.00,0.0019
3849.00,0.0019
3848.00,0.0018
3847.00,0.0019
3846.00,0.0019
3845.00,0.0019
3844.00,0.0019
3843.00,0.0019
3842.00,0.0019
3841.00,0.0019
3840.00,0.0019
3839.00,0.0018
3838.00,0.0018
3837.00,0.0018
3836.00,0.0018
3835.00,0.0018
3834.00,0.0018
3833.00,0.0018
3832.00,0.0018
3831.00,0.0018
3830.00,0.0018
3829.00,0.0019
3828.00,0.0019
3827.00,0.0019
3826.00,0.0019
3825.00,0.0019
3824.00,0.0018
3823.00,0.0018
3822.00,0.0018
3821.00,0.0018
3820.00,0.0017
3819.00,0.0017
3818.00,0.0017
3817.00,0.0017
3816.00,0.0017
3815.00,0.0018
3814.00,0.0019
3813.00,0.0019
3812.00,0.0019
3811.00,0.0019
3810.00,0.0019
3809.00,0.0018
3808.00,0.0018
3807.00,0.0017
3806.00,0.0017
3805.00,0.0017
3804.00,0.0017
3803.00,0.0017
3802.00,0.0017
3801.00,0.0017
3800.00,0.0018
3799.00,0.0019
3798.00,0.0019
3797.00,0.0019
3796.00,0.0018
3795.00,0.0019
3794.00,0.0019
3793.00,0.0018
3792.00,0.0018
3791.00,0.0018
3790.00,0.0018
3789.00,0.0018
3788.00,0.0018
3787.00,0.0019
3786.00,0.0019
3785.00,0.0019
3784.00,0.0019
3783.00,0.0019
3782.00,0.0019
3781.00,0.0019
3780.00,0.0019
3779.00,0.0019
3778.00,0.0019
3777.00,0.0019
3776.00,0.0019
3775.00,0.0019
3774.00,0.0019
3773.00,0.0020
3772.00,0.0020
3771.00,0.0020
3770.00,0.0020
3769.00,0.0019
3768.00,0.0019
3767.00,0.0019
3766.00,0.0019
3765.00,0.0019
3764.00,0.0020
3763.00,0.0020
3762.00,0.0020
3761.00,0.0020
3760.00,0.0019
3759.00,0.0019
3758.00,0.0019
3757.00,0.0019
3756.00,0.0019
3755.00,0.0019
3754.00,0.0019
3753.00,0.0019
3752.00,0.0019
3751.00,0.0018
3750.00,0.0018
3749.00,0.0018
3748.00,0.0018
3747.00,0.0018
3746.00,0.0017
3745.00,0.0017
3744.00,0.0018
3743.00,0.0018
3742.00,0.0019
3741.00,0.0020
3740.00,0.0020
3739.00,0.0020
3738.00,0.0020
3737.00,0.0020
3736.00,0.0020
3735.00,0.0020
3734.00,0.0020
3733.00,0.0020
3732.00,0.0019
3731.00,0.0019
3730.00,0.0019
3729.00,0.0019
3728.00,0.0019
3727.00,0.0019
3726.00,0.0019
3725.00,0.0019
3724.00,0.0019
3723.00,0.0019
3722.00,0.0019
3721.00,0.0019
3720.00,0.0019
3719.00,0.0019
3718.00,0.0019
3717.00,0.0018
3716.00,0.0018
3715.00,0.0018
3714.00,0.0018
3713.00,0.0018
3712.00,0.0017
3711.00,0.0017
3710.00,0.0017
3709.00,0.0017
3708.00,0.0017
3707.00,0.0018
3706.00,0.0018
3705.00,0.0018
3704.00,0.0018
3703.00,0.0018
3702.00,0.0018
3701.00,0.0018
3700.00,0.0019
3699.00,0.0019
3698.00,0.0019
3697.00,0.0019
3696.00,0.0019
3695.00,0.0019
3694.00,0.0019
3693.00,0.0018
3692.00,0.0018
3691.00,0.0017
3690.00,0.0017
3689.00,0.0017
3688.00,0.0017
3687.00,0.0017
3686.00,0.0017
3685.00,0.0018
3684.00,0.0018
3683.00,0.0018
3682.00,0.0018
3681.00,0.0019
3680.00,0.0019
3679.00,0.0019
3678.00,0.0020
3677.00,0.0020
3676.00,0.0020
3675.00,0.0019
3674.00,0.0018
3673.00,0.0018
3672.00,0.0017
3671.00,0.0017
3670.00,0.0018
3669.00,0.0018
3668.00,0.0019
3667.00,0.0018
3666.00,0.0018
3665.00,0.0018
3664.00,0.0019
3663.00,0.0020
3662.00,0.0020
3661.00,0.0020
3660.00,0.0020
3659.00,0.0020
3658.00,0.0020
3657.00,0.0020
3656.00,0.0020
3655.00,0.0020
3654.00,0.0021
3653.00,0.0020
3652.00,0.0020
3651.00,0.0020
3650.00,0.0021
3649.00,0.0021
3648.00,0.0022
3647.00,0.0022
3646.00,0.0022
3645.00,0.0022
3644.00,0.0022
3643.00,0.0022
3642.00,0.0022
3641.00,0.0022
3640.00,0.0022
3639.00,0.0022
3638.00,0.0022
3637.00,0.0022
3636.00,0.0022
3635.00,0.0022
3634.00,0.0022
3633.00,0.0023
3632.00,0.0023
3631.00,0.0023
3630.00,0.0023
3629.00,0.0023
3628.00,0.0023
3627.00,0.0023
3626.00,0.0022
3625.00,0.0022
3624.00,0.0022
3623.00,0.0022
3622.00,0.0022
3621.00,0.0022
3620.00,0.0022
3619.00,0.0022
3618.00,0.0023
3617.00,0.0024
3616.00,0.0024
3615.00,0.0025
3614.00,0.0025
3613.00,0.0025
3612.00,0.0025
3611.00,0.0025
3610.00,0.0026
3609.00,0.0026
3608.00,0.0026
3607.00,0.0026
3606.00,0.0026
3605.00,0.0026
3604.00,0.0026
3603.00,0.0026
3602.00,0.0026
3601.00,0.0026
3600.00,0.0027
3599.00,0.0027
3598.00,0.0028
3597.00,0.0028
3596.00,0.0028
3595.00,0.0028
3594.00,0.0028
3593.00,0.0028
3592.00,0.0028
3591.00,0.0028
3590.00,0.0028
3589.00,0.0029
3588.00,0.0029
3587.00,0.0030
3586.00,0.0031
3585.00,0.0031
3584.00,0.0031
3583.00,0.0031
3582.00,0.0030
3581.00,0.0030
3580.00,0.0030
3579.00,0.0030
3578.00,0.0031
3577.00,0.0031
3576.00,0.0031
3575.00,0.0031
3574.00,0.0032
3573.00,0.0032
3572.00,0.0032
3571.00,0.0033
3570.00,0.0034
3569.00,0.0034
3568.00,0.0035
3567.00,0.0036
3566.00,0.0037
3565.00,0.0037
3564.00,0.0037
3563.00,0.0036
3562.00,0.0035
3561.00,0.0035
3560.00,0.0035
3559.00,0.0036
3558.00,0.0037
3557.00,0.0038
3556.00,0.0038
3555.00,0.0039
3554.00,0.0039
3553.00,0.0040
3552.00,0.0040
3551.00,0.0040
3550.00,0.0040
3549.00,0.0040
3548.00,0.0041
3547.00,0.0042
3546.00,0.0043
3545.00,0.0044
3544.00,0.0044
3543.00,0.0044
3542.00,0.0043
3541.00,0.0043
3540.00,0.0042
3539.00,0.0042
3538.00,0.0043
3537.00,0.0043
3536.00,0.0044
3535.00,0.0045
3534.00,0.0045
3533.00,0.0046
3532.00,0.0046
3531.00,0.0047
3530.00,0.0047
3529.00,0.0047
3528.00,0.0047
3527.00,0.0048
3526.00,0.0048
3525.00,0.0048
3524.00,0.0049
3523.00,0.0050
3522.00,0.0050
3521.00,0.0050
3520.00,0.0049
3519.00,0.0049
3518.00,0.0049
3517.00,0.0049
3516.00,0.0050
3515.00,0.0050
3514.00,0.0051
3513.00,0.0052
3512.00,0.0052
3511.00,0.0053
3510.00,0.0053
3509.00,0.0053
3508.00,0.0053
3507.00,0.0053
3506.00,0.0053
3505.00,0.0054
3504.00,0.0054
3503.00,0.0055
3502.00,0.0055
3501.00,0.0055
3500.00,0.0055
3499.00,0.0055
3498.00,0.0055
3497.00,0.0055
3496.00,0.0056
3495.00,0.0057
3494.00,0.0058
3493.00,0.0058
3492.00,0.0059
3491.00,0.0059
3490.00,0.0059
3489.00,0.0059
3488.00,0.0059
3487.00,0.0059
3486.00,0.0059
3485.00,0.0060
3484.00,0.0060
3483.00,0.0060
3482.00,0.0061
3481.00,0.0061
3480.00,0.0061
3479.00,0.0061
3478.00,0.0061
3477.00,0.0061
3476.00,0.0062
3475.00,0.0062
3474.00,0.0063
3473.00,0.0063
3472.00,0.0064
3471.00,0.0064
3470.00,0.0064
3469.00,0.0065
3468.00,0.0065
3467.00,0.0065
3466.00,0.0066
3465.00,0.0066
3464.00,0.0067
3463.00,0.0067
3462.00,0.0068
3461.00,0.0068
3460.00,0.0067
3459.00,0.0067
3458.00,0.0067
3457.00,0.0067
3456.00,0.0067
3455.00,0.0068
3454.00,0.0068
3453.00,0.0069
3452.00,0.0069
3451.00,0.0069
3450.00,0.0070
3449.00,0.0070
3448.00,0.0071
3447.00,0.0071
3446.00,0.0072
3445.00,0.0072
3444.00,0.0072
3443.00,0.0072
3442.00,0.0072
3441.00,0.0072
3440.00,0.0072
3439.00,0.0072
3438.00,0.0072
3437.00,0.0073
3436.00,0.0073
3435.00,0.0074
3434.00,0.0074
3433.00,0.0075
3432.00,0.0075
3431.00,0.0075
3430.00,0.0075
3429.00,0.0076
3428.00,0.0076
3427.00,0.0076
3426.00,0.0077
3425.00,0.0077
3424.00,0.0077
3423.00,0.0077
3422.00,0.0077
3421.00,0.0077
3420.00,0.0078
3419.00,0.0078
3418.00,0.0078
3417.00,0.0078
3416.00,0.0078
3415.00,0.0078
3414.00,0.0079
3413.00,0.0079
3412.00,0.0079
3411.00,0.0080
3410.00,0.0080
3409.00,0.0080
3408.00,0.0080
3407.00,0.0080
3406.00,0.0080
3405.00,0.0081
3404.00,0.0081
3403.00,0.0082
3402.00,0.0082
3401.00,0.0082
3400.00,0.0082
3399.00,0.0082
3398.00,0.0082
3397.00,0.0082
3396.00,0.0082
3395.00,0.0082
3394.00,0.0082
3393.00,0.0083
3392.00,0.0083
3391.00,0.0083
3390.00,0.0083
3389.00,0.0083
3388.00,0.0083
3387.00,0.0083
3386.00,0.0083
3385.00,0.0083
3384.00,0.0083
3383.00,0.0084
3382.00,0.0084
3381.00,0.0084
3380.00,0.0084
3379.00,0.0084
3378.00,0.0084
3377.00,0.0084
3376.00,0.0084
3375.00,0.0084
3374.00,0.0084
3373.00,0.0085
3372.00,0.0085
3371.00,0.0085
3370.00,0.0085
3369.00,0.0085
3368.00,0.0085
3367.00,0.0085
3366.00,0.0085
3365.00,0.0085
3364.00,0.0085
3363.00,0.0085
3362.00,0.0086
3361.00,0.0086
3360.00,0.0086
3359.00,0.0087
3358.00,0.0087
3357.00,0.0087
3356.00,0.0087
3355.00,0.0086
3354.00,0.0086
3353.00,0.0086
3352.00,0.0086
3351.00,0.0086
3350.00,0.0086
3349.00,0.0086
3348.00,0.0086
3347.00,0.0086
3346.00,0.0086
3345.00,0.0087
3344.00,0.0087
3343.00,0.0087
3342.00,0.0087
3341.00,0.0087
3340.00,0.0087
3339.00,0.0086
3338.00,0.0086
3337.00,0.0086
3336.00,0.0086
3335.00,0.0086
3334.00,0.0086
3333.00,0.0086
3332.00,0.0086
3331.00,0.0086
3330.00,0.0085
3329.00,0.0085
3328.00,0.0085
3327.00,0.0085
3326.00,0.0086
3325.00,0.0086
3324.00,0.0086
3323.00,0.0086
3322.00,0.0086
3321.00,0.0086
3320.00,0.0086
3319.00,0.0086
3318.00,0.0086
3317.00,0.0086
3316.00,0.0085
3315.00,0.0085
3314.00,0.0085
3313.00,0.0085
3312.00,0.0085
3311.00,0.0085
3310.00,0.0085
3309.00,0.0085
3308.00,0.0085
3307.00,0.0085
3306.00,0.0085
3305.00,0.0085
3304.00,0.0085
3303.00,0.0085
3302.00,0.0085
3301.00,0.0085
3300.00,0.0084
3299.00,0.0084
3298.00,0.0084
3297.00,0.0083
3296.00,0.0083
3295.00,0.0082
3294.00,0.0082
3293.00,0.0082
3292.00,0.0082
3291.00,0.0082
3290.00,0.0082
3289.00,0.0082
3288.00,0.0082
3287.00,0.0081
3286.00,0.0081
3285.00,0.0080
3284.00,0.0080
3283.00,0.0080
3282.00,0.0080
3281.00,0.0080
3280.00,0.0080
3279.00,0.0080
3278.00,0.0080
3277.00,0.0080
3276.00,0.0080
3275.00,0.0079
3274.00,0.0079
3273.00,0.0079
3272.00,0.0078
3271.00,0.0078
3270.00,0.0078
3269.00,0.0078
3268.00,0.0078
3267.00,0.0078
3266.00,0.0078
3265.00,0.0077
3264.00,0.0077
3263.00,0.0076
3262.00,0.0076
3261.00,0.0076
3260.00,0.0076
3259.00,0.0075
3258.00,0.0075
3257.00,0.0075
3256.00,0.0075
3255.00,0.0075
3254.00,0.0075
3253.00,0.0075
3252.00,0.0075
3251.00,0.0074
3250.00,0.0074
3249.00,0.0074
3248.00,0.0073
3247.00,0.0073
3246.00,0.0074
3245.00,0.0074
3244.00,0.0074
3243.00,0.0074
3242.00,0.0074
3241.00,0.0074
3240.00,0.0073
3239.00,0.0073
3238.00,0.0073
3237.00,0.0072
3236.00,0.0072
3235.00,0.0071
3234.00,0.0071
3233.00,0.0072
3232.00,0.0072
3231.00,0.0073
3230.00,0.0073
3229.00,0.0073
3228.00,0.0073
3227.00,0.0073
3226.00,0.0073
3225.00,0.0073
3224.00,0.0073
3223.00,0.0073
3222.00,0.0073
3221.00,0.0072
3220.00,0.0072
3219.00,0.0073
3218.00,0.0073
3217.00,0.0074
3216.00,0.0074
3215.00,0.0075
3214.00,0.0075
3213.00,0.0075
3212.00,0.0075
3211.00,0.0075
3210.00,0.0075
3209.00,0.0075
3208.00,0.0075
3207.00,0.0075
3206.00,0.0074
3205.00,0.0074
3204.00,0.0074
3203.00,0.0074
3202.00,0.0074
3201.00,0.0074
3200.00,0.0074
3199.00,0.0074
3198.00,0.0074
3197.00,0.0074
3196.00,0.0074
3195.00,0.0074
3194.00,0.0074
3193.00,0.0074
3192.00,0.0074
3191.00,0.0074
3190.00,0.0074
3189.00,0.0074
3188.00,0.0074
3187.00,0.0073
3186.00,0.0073
3185.00,0.0072
3184.00,0.0072
3183.00,0.0071
3182.00,0.0071
3181.00,0.0071
3180.00,0.0070
3179.00,0.0070
3178.00,0.0070
3177.00,0.0069
3176.00,0.0069
3175.00,0.0069
3174.00,0.0069
3173.00,0.0068
3172.00,0.0068
3171.00,0.0068
3170.00,0.0068
3169.00,0.0068
3168.00,0.0068
3167.00,0.0068
3166.00,0.0067
3165.00,0.0067
3164.00,0.0067
3163.00,0.0066
3162.00,0.0066
3161.00,0.0066
3160.00,0.0066
3159.00,0.0066
3158.00,0.0066
3157.00,0.0066
3156.00,0.0065
3155.00,0.0065
3154.00,0.0065
3153.00,0.0065
3152.00,0.0064
3151.00,0.0064
3150.00,0.0064
3149.00,0.0064
3148.00,0.0063
3147.00,0.0063
3146.00,0.0063
3145.00,0.0063
3144.00,0.0063
3143.00,0.0062
3142.00,0.0062
3141.00,0.0062
3140.00,0.0062
3139.00,0.0062
3138.00,0.0062
3137.00,0.0061
3136.00,0.0061
3135.00,0.0061
3134.00,0.0061
3133.00,0.0060
3132.00,0.0060
3131.00,0.0060
3130.00,0.0059
3129.00,0.0059
3128.00,0.0059
3127.00,0.0059
3126.00,0.0058
3125.00,0.0058
3124.00,0.0057
3123.00,0.0057
3122.00,0.0057
3121.00,0.0057
3120.00,0.0057
3119.00,0.0057
3118.00,0.0056
3117.00,0.0056
3116.00,0.0055
3115.00,0.0055
3114.00,0.0055
3113.00,0.0055
3112.00,0.0055
3111.00,0.0055
3110.00,0.0054
3109.00,0.0054
3108.00,0.0054
3107.00,0.0054
3106.00,0.0053
3105.00,0.0053
3104.00,0.0053
3103.00,0.0053
3102.00,0.0052
3101.00,0.0052
3100.00,0.0052
3099.00,0.0052
3098.00,0.0052
3097.00,0.0052
3096.00,0.0052
3095.00,0.0052
3094.00,0.0051
3093.00,0.0051
3092.00,0.0051
3091.00,0.0050
3090.00,0.0050
3089.00,0.0050
3088.00,0.0050
3087.00,0.0050
3086.00,0.0050
3085.00,0.0050
3084.00,0.0049
3083.00,0.0049
3082.00,0.0048
3081.00,0.0048
3080.00,0.0048
3079.00,0.0048
3078.00,0.0048
3077.00,0.0048
3076.00,0.0048
3075.00,0.0048
3074.00,0.0049
3073.00,0.0049
3072.00,0.0049
3071.00,0.0049
3070.00,0.0049
3069.00,0.0049
3068.00,0.0049
3067.00,0.0048
3066.00,0.0048
3065.00,0.0048
3064.00,0.0049
3063.00,0.0049
3062.00,0.0050
3061.00,0.0050
3060.00,0.0049
3059.00,0.0049
3058.00,0.0049
3057.00,0.0049
3056.00,0.0049
3055.00,0.0049
3054.00,0.0049
3053.00,0.0050
3052.00,0.0050
3051.00,0.0050
3050.00,0.0050
3049.00,0.0050
3048.00,0.0050
3047.00,0.0050
3046.00,0.0050
3045.00,0.0050
3044.00,0.0050
3043.00,0.0051
3042.00,0.0051
3041.00,0.0051
3040.00,0.0052
3039.00,0.0052
3038.00,0.0053
3037.00,0.0053
3036.00,0.0053
3035.00,0.0054
3034.00,0.0054
3033.00,0.0054
3032.00,0.0054
3031.00,0.0055
3030.00,0.0055
3029.00,0.0055
3028.00,0.0056
3027.00,0.0056
3026.00,0.0057
3025.00,0.0057
3024.00,0.0057
3023.00,0.0058
3022.00,0.0058
3021.00,0.0059
3020.00,0.0060
3019.00,0.0061
3018.00,0.0062
3017.00,0.0063
3016.00,0.0063
3015.00,0.0064
3014.00,0.0065
3013.00,0.0066
3012.00,0.0068
3011.00,0.0069
3010.00,0.0071
3009.00,0.0073
3008.00,0.0074
3007.00,0.0077
3006.00,0.0079
3005.00,0.0081
3004.00,0.0083
3003.00,0.0085
3002.00,0.0088
3001.00,0.0091
3000.00,0.0094
2999.00,0.0097
2998.00,0.0101
2997.00,0.0104
2996.00,0.0108
2995.00,0.0113
2994.00,0.0117
2993.00,0.0123
2992.00,0.0128
2991.00,0.0134
2990.00,0.0141
2989.00,0.0148
2988.00,0.0157
2987.00,0.0167
2986.00,0.0178
2985.00,0.0191
2984.00,0.0205
2983.00,0.0221
2982.00,0.0237
2981.00,0.0256
2980.00,0.0276
2979.00,0.0298
2978.00,0.0324
2977.00,0.0354
2976.00,0.0388
2975.00,0.0426
2974.00,0.0470
2973.00,0.0518
2972.00,0.0572
2971.00,0.0631
2970.00,0.0696
2969.00,0.0766
2968.00,0.0842
2967.00,0.0923
2966.00,0.1008
2965.00,0.1095
2964.00,0.1182
2963.00,0.1263
2962.00,0.1336
2961.00,0.1396
2960.00,0.1444
2959.00,0.1480
2958.00,0.1509
2957.00,0.1535
2956.00,0.1565
2955.00,0.1600
2954.00,0.1641
2953.00,0.1683
2952.00,0.1720
2951.00,0.1744
2950.00,0.1744
2949.00,0.1717
2948.00,0.1659
2947.00,0.1573
2946.00,0.1470
2945.00,0.1358
2944.00,0.1249
2943.00,0.1154
2942.00,0.1077
2941.00,0.1021
2940.00,0.0988
2939.00,0.0975
2938.00,0.0979
2937.00,0.1000
2936.00,0.1034
2935.00,0.1080
2934.00,0.1139
2933.00,0.1207
2932.00,0.1284
2931.00,0.1367
2930.00,0.1454
2929.00,0.1542
2928.00,0.1629
2927.00,0.1712
2926.00,0.1790
2925.00,0.1865
2924.00,0.1935
2923.00,0.2004
2922.00,0.2070
2921.00,0.2132
2920.00,0.2186
2919.00,0.2227
2918.00,0.2249
2917.00,0.2249
2916.00,0.2225
2915.00,0.2181
2914.00,0.2121
2913.00,0.2054
2912.00,0.1985
2911.00,0.1919
2910.00,0.1857
2909.00,0.1800
2908.00,0.1746
2907.00,0.1693
2906.00,0.1639
2905.00,0.1583
2904.00,0.1525
2903.00,0.1466
2902.00,0.1407
2901.00,0.1348
2900.00,0.1290
2899.00,0.1235
2898.00,0.1184
2897.00,0.1137
2896.00,0.1095
2895.00,0.1059
2894.00,0.1030
2893.00,0.1006
2892.00,0.0989
2891.00,0.0976
2890.00,0.0969
2889.00,0.0965
2888.00,0.0965
2887.00,0.0968
2886.00,0.0974
2885.00,0.0983
2884.00,0.0996
2883.00,0.1013
2882.00,0.1032
2881.00,0.1052
2880.00,0.1070
2879.00,0.1085
2878.00,0.1094
2877.00,0.1095
2876.00,0.1091
2875.00,0.1084
2874.00,0.1079
2873.00,0.1079
2872.00,0.1085
2871.00,0.1097
2870.00,0.1113
2869.00,0.1127
2868.00,0.1135
2867.00,0.1128
2866.00,0.1103
2865.00,0.1056
2864.00,0.0992
2863.00,0.0917
2862.00,0.0840
2861.00,0.0769
2860.00,0.0707
2859.00,0.0658
2858.00,0.0622
2857.00,0.0596
2856.00,0.0580
2855.00,0.0571
2854.00,0.0569
2853.00,0.0572
2852.00,0.0581
2851.00,0.0594
2850.00,0.0612
2849.00,0.0636
2848.00,0.0667
2847.00,0.0704
2846.00,0.0749
2845.00,0.0801
2844.00,0.0860
2843.00,0.0922
2842.00,0.0984
2841.00,0.1040
2840.00,0.1084
2839.00,0.1109
2838.00,0.1108
2837.00,0.1079
2836.00,0.1022
2835.00,0.0944
2834.00,0.0854
2833.00,0.0760
2832.00,0.0671
2831.00,0.0591
2830.00,0.0524
2829.00,0.0468
2828.00,0.0423
2827.00,0.0387
2826.00,0.0357
2825.00,0.0332
2824.00,0.0311
2823.00,0.0293
2822.00,0.0277
2821.00,0.0264
2820.00,0.0252
2819.00,0.0242
2818.00,0.0232
2817.00,0.0224
2816.00,0.0217
2815.00,0.0211
2814.00,0.0205
2813.00,0.0200
2812.00,0.0195
2811.00,0.0189
2810.00,0.0184
2809.00,0.0179
2808.00,0.0173
2807.00,0.0167
2806.00,0.0162
2805.00,0.0156
2804.00,0.0150
2803.00,0.0144
2802.00,0.0140
2801.00,0.0135
2800.00,0.0132
2799.00,0.0129
2798.00,0.0127
2797.00,0.0125
2796.00,0.0123
2795.00,0.0120
2794.00,0.0117
2793.00,0.0115
2792.00,0.0111
2791.00,0.0108
2790.00,0.0105
2789.00,0.0101
2788.00,0.0098
2787.00,0.0096
2786.00,0.0094
2785.00,0.0091
2784.00,0.0089
2783.00,0.0087
2782.00,0.0085
2781.00,0.0083
2780.00,0.0081
2779.00,0.0080
2778.00,0.0078
2777.00,0.0077
2776.00,0.0076
2775.00,0.0075
2774.00,0.0074
2773.00,0.0073
2772.00,0.0072
2771.00,0.0072
2770.00,0.0071
2769.00,0.0071
2768.00,0.0071
2767.00,0.0071
2766.00,0.0070
2765.00,0.0070
2764.00,0.0070
2763.00,0.0069
2762.00,0.0069
2761.00,0.0068
2760.00,0.0068
2759.00,0.0068
2758.00,0.0067
2757.00,0.0067
2756.00,0.0066
2755.00,0.0066
2754.00,0.0066
2753.00,0.0066
2752.00,0.0066
2751.00,0.0066
2750.00,0.0066
2749.00,0.0066
2748.00,0.0066
2747.00,0.0066
2746.00,0.0066
2745.00,0.0067
2744.00,0.0068
2743.00,0.0068
2742.00,0.0069
2741.00,0.0071
2740.00,0.0072
2739.00,0.0073
2738.00,0.0074
2737.00,0.0075
2736.00,0.0076
2735.00,0.0077
2734.00,0.0078
2733.00,0.0080
2732.00,0.0081
2731.00,0.0083
2730.00,0.0085
2729.00,0.0087
2728.00,0.0090
2727.00,0.0092
2726.00,0.0094
2725.00,0.0096
2724.00,0.0098
2723.00,0.0098
2722.00,0.0097
2721.00,0.0096
2720.00,0.0093
2719.00,0.0090
2718.00,0.0087
2717.00,0.0084
2716.00,0.0081
2715.00,0.0079
2714.00,0.0077
2713.00,0.0075
2712.00,0.0074
2711.00,0.0072
2710.00,0.0070
2709.00,0.0069
2708.00,0.0068
2707.00,0.0066
2706.00,0.0065
2705.00,0.0064
2704.00,0.0063
2703.00,0.0062
2702.00,0.0061
2701.00,0.0061
2700.00,0.0060
2699.00,0.0060
2698.00,0.0059
2697.00,0.0059
2696.00,0.0059
2695.00,0.0059
2694.00,0.0058
2693.00,0.0058
2692.00,0.0059
2691.00,0.0059
2690.00,0.0060
2689.00,0.0060
2688.00,0.0059
2687.00,0.0059
2686.00,0.0059
2685.00,0.0058
2684.00,0.0058
2683.00,0.0058
2682.00,0.0058
2681.00,0.0059
2680.00,0.0059
2679.00,0.0059
2678.00,0.0059
2677.00,0.0059
2676.00,0.0059
2675.00,0.0058
2674.00,0.0058
2673.00,0.0057
2672.00,0.0057
2671.00,0.0057
2670.00,0.0056
2669.00,0.0057
2668.00,0.0057
2667.00,0.0057
2666.00,0.0058
2665.00,0.0059
2664.00,0.0060
2663.00,0.0060
2662.00,0.0061
2661.00,0.0061
2660.00,0.0061
2659.00,0.0061
2658.00,0.0061
2657.00,0.0061
2656.00,0.0060
2655.00,0.0060
2654.00,0.0059
2653.00,0.0059
2652.00,0.0058
2651.00,0.0057
2650.00,0.0057
2649.00,0.0056
2648.00,0.0056
2647.00,0.0056
2646.00,0.0056
2645.00,0.0055
2644.00,0.0055
2643.00,0.0055
2642.00,0.0054
2641.00,0.0054
2640.00,0.0054
2639.00,0.0053
2638.00,0.0053
2637.00,0.0053
2636.00,0.0052
2635.00,0.0052
2634.00,0.0052
2633.00,0.0052
2632.00,0.0052
2631.00,0.0053
2630.00,0.0053
2629.00,0.0053
2628.00,0.0053
2627.00,0.0053
2626.00,0.0053
2625.00,0.0053
2624.00,0.0053
2623.00,0.0054
2622.00,0.0054
2621.00,0.0054
2620.00,0.0054
2619.00,0.0054
2618.00,0.0054
2617.00,0.0054
2616.00,0.0054
2615.00,0.0054
2614.00,0.0054
2613.00,0.0054
2612.00,0.0053
2611.00,0.0053
2610.00,0.0052
2609.00,0.0051
2608.00,0.0051
2607.00,0.0050
2606.00,0.0050
2605.00,0.0049
2604.00,0.0048
2603.00,0.0047
2602.00,0.0046
2601.00,0.0046
2600.00,0.0046
2599.00,0.0046
2598.00,0.0046
2597.00,0.0046
2596.00,0.0046
2595.00,0.0046
2594.00,0.0046
2593.00,0.0046
2592.00,0.0046
2591.00,0.0046
2590.00,0.0047
2589.00,0.0048
2588.00,0.0049
2587.00,0.0050
2586.00,0.0051
2585.00,0.0051
2584.00,0.0051
2583.00,0.0051
2582.00,0.0051
2581.00,0.0051
2580.00,0.0051
2579.00,0.0051
2578.00,0.0050
2577.00,0.0050
2576.00,0.0049
2575.00,0.0048
2574.00,0.0047
2573.00,0.0045
2572.00,0.0044
2571.00,0.0043
2570.00,0.0042
2569.00,0.0041
2568.00,0.0041
2567.00,0.0041
2566.00,0.0040
2565.00,0.0040
2564.00,0.0040
2563.00,0.0039
2562.00,0.0039
2561.00,0.0038
2560.00,0.0038
2559.00,0.0037
2558.00,0.0037
2557.00,0.0037
2556.00,0.0037
2555.00,0.0037
2554.00,0.0037
2553.00,0.0037
2552.00,0.0036
2551.00,0.0036
2550.00,0.0035
2549.00,0.0034
2548.00,0.0034
2547.00,0.0034
2546.00,0.0033
2545.00,0.0033
2544.00,0.0033
2543.00,0.0032
2542.00,0.0032
2541.00,0.0032
2540.00,0.0032
2539.00,0.0031
2538.00,0.0030
2537.00,0.0030
2536.00,0.0030
2535.00,0.0031
2534.00,0.0031
2533.00,0.0032
2532.00,0.0032
2531.00,0.0031
2530.00,0.0030
2529.00,0.0030
2528.00,0.0030
2527.00,0.0030
2526.00,0.0031
2525.00,0.0031
2524.00,0.0031
2523.00,0.0030
2522.00,0.0030
2521.00,0.0029
2520.00,0.0029
2519.00,0.0028
2518.00,0.0028
2517.00,0.0027
2516.00,0.0028
2515.00,0.0028
2514.00,0.0028
2513.00,0.0028
2512.00,0.0027
2511.00,0.0027
2510.00,0.0026
2509.00,0.0027
2508.00,0.0028
2507.00,0.0028
2506.00,0.0028
2505.00,0.0028
2504.00,0.0027
2503.00,0.0027
2502.00,0.0026
2501.00,0.0026
2500.00,0.0026
2499.00,0.0025
2498.00,0.0025
2497.00,0.0025
2496.00,0.0025
2495.00,0.0025
2494.00,0.0026
2493.00,0.0026
2492.00,0.0026
2491.00,0.0027
2490.00,0.0027
2489.00,0.0027
2488.00,0.0027
2487.00,0.0026
2486.00,0.0026
2485.00,0.0025
2484.00,0.0025
2483.00,0.0025
2482.00,0.0025
2481.00,0.0025
2480.00,0.0025
2479.00,0.0024
2478.00,0.0023
2477.00,0.0023
2476.00,0.0023
2475.00,0.0023
2474.00,0.0023
2473.00,0.0024
2472.00,0.0024
2471.00,0.0023
2470.00,0.0023
2469.00,0.0023
2468.00,0.0023
2467.00,0.0023
2466.00,0.0023
2465.00,0.0023
2464.00,0.0023
2463.00,0.0023
2462.00,0.0024
2461.00,0.0024
2460.00,0.0024
2459.00,0.0024
2458.00,0.0025
2457.00,0.0025
2456.00,0.0025
2455.00,0.0026
2454.00,0.0026
2453.00,0.0027
2452.00,0.0027
2451.00,0.0027
2450.00,0.0027
2449.00,0.0026
2448.00,0.0026
2447.00,0.0025
2446.00,0.0025
2445.00,0.0025
2444.00,0.0025
2443.00,0.0025
2442.00,0.0025
2441.00,0.0025
2440.00,0.0025
2439.00,0.0026
2438.00,0.0026
2437.00,0.0026
2436.00,0.0026
2435.00,0.0025
2434.00,0.0025
2433.00,0.0025
2432.00,0.0025
2431.00,0.0025
2430.00,0.0025
2429.00,0.0025
2428.00,0.0025
2427.00,0.0025
2426.00,0.0025
2425.00,0.0025
2424.00,0.0025
2423.00,0.0025
2422.00,0.0024
2421.00,0.0024
2420.00,0.0023
2419.00,0.0023
2418.00,0.0024
2417.00,0.0024
2416.00,0.0024
2415.00,0.0024
2414.00,0.0024
2413.00,0.0024
2412.00,0.0023
2411.00,0.0023
2410.00,0.0024
2409.00,0.0024
2408.00,0.0024
2407.00,0.0023
2406.00,0.0022
2405.00,0.0022
2404.00,0.0022
2403.00,0.0023
2402.00,0.0024
2401.00,0.0024
2400.00,0.0024
2399.00,0.0024
2398.00,0.0024
2397.00,0.0024
2396.00,0.0024
2395.00,0.0024
2394.00,0.0023
2393.00,0.0022
2392.00,0.0022
2391.00,0.0021
2390.00,0.0021
2389.00,0.0021
2388.00,0.0021
2387.00,0.0021
2386.00,0.0020
2385.00,0.0019
2384.00,0.0018
2383.00,0.0017
2382.00,0.0017
2381.00,0.0017
2380.00,0.0017
2379.00,0.0017
2378.00,0.0017
2377.00,0.0017
2376.00,0.0018
2375.00,0.0017
2374.00,0.0017
2373.00,0.0016
2372.00,0.0016
2371.00,0.0016
2370.00,0.0015
2369.00,0.0015
2368.00,0.0015
2367.00,0.0015
2366.00,0.0016
2365.00,0.0016
2364.00,0.0017
2363.00,0.0017
2362.00,0.0017
2361.00,0.0017
2360.00,0.0017
2359.00,0.0016
2358.00,0.0016
2357.00,0.0016
2356.00,0.0016
2355.00,0.0016
2354.00,0.0016
2353.00,0.0016
2352.00,0.0016
2351.00,0.0016
2350.00,0.0015
2349.00,0.0015
2348.00,0.0017
2347.00,0.0020
2346.00,0.0023
2345.00,0.0025
2344.00,0.0025
2343.00,0.0023
2342.00,0.0021
2341.00,0.0019
2340.00,0.0019
2339.00,0.0018
2338.00,0.0018
2337.00,0.0019
2336.00,0.0019
2335.00,0.0019
2334.00,0.0019
2333.00,0.0018
2332.00,0.0017
2331.00,0.0017
2330.00,0.0016
2329.00,0.0016
2328.00,0.0018
2327.00,0.0022
2326.00,0.0027
2325.00,0.0031
2324.00,0.0033
2323.00,0.0032
2322.00,0.0030
2321.00,0.0027
2320.00,0.0025
2319.00,0.0023
2318.00,0.0022
2317.00,0.0022
2316.00,0.0022
2315.00,0.0022
2314.00,0.0022
2313.00,0.0021
2312.00,0.0021
2311.00,0.0020
2310.00,0.0020
2309.00,0.0019
2308.00,0.0019
2307.00,0.0019
2306.00,0.0019
2305.00,0.0020
2304.00,0.0021
2303.00,0.0022
2302.00,0.0022
2301.00,0.0023
2300.00,0.0023
2299.00,0.0024
2298.00,0.0024
2297.00,0.0025
2296.00,0.0025
2295.00,0.0025
2294.00,0.0026
2293.00,0.0027
2292.00,0.0029
2291.00,0.0031
2290.00,0.0032
2289.00,0.0033
2288.00,0.0033
2287.00,0.0034
2286.00,0.0035
2285.00,0.0036
2284.00,0.0035
2283.00,0.0033
2282.00,0.0032
2281.00,0.0031
2280.00,0.0031
2279.00,0.0031
2278.00,0.0030
2277.00,0.0029
2276.00,0.0028
2275.00,0.0028
2274.00,0.0029
2273.00,0.0029
2272.00,0.0029
2271.00,0.0029
2270.00,0.0029
2269.00,0.0029
2268.00,0.0029
2267.00,0.0028
2266.00,0.0027
2265.00,0.0026
2264.00,0.0025
2263.00,0.0024
2262.00,0.0025
2261.00,0.0026
2260.00,0.0029
2259.00,0.0031
2258.00,0.0031
2257.00,0.0030
2256.00,0.0028
2255.00,0.0025
2254.00,0.0024
2253.00,0.0024
2252.00,0.0025
2251.00,0.0025
2250.00,0.0025
2249.00,0.0023
2248.00,0.0021
2247.00,0.0020
2246.00,0.0020
2245.00,0.0021
2244.00,0.0023
2243.00,0.0023
2242.00,0.0022
2241.00,0.0022
2240.00,0.0022
2239.00,0.0023
2238.00,0.0024
2237.00,0.0025
2236.00,0.0027
2235.00,0.0028
2234.00,0.0027
2233.00,0.0026
2232.00,0.0025
2231.00,0.0023
2230.00,0.0022
2229.00,0.0022
2228.00,0.0022
2227.00,0.0023
2226.00,0.0023
2225.00,0.0023
2224.00,0.0023
2223.00,0.0022
2222.00,0.0021
2221.00,0.0021
2220.00,0.0022
2219.00,0.0023
2218.00,0.0022
2217.00,0.0020
2216.00,0.0018
2215.00,0.0018
2214.00,0.0019
2213.00,0.0020
2212.00,0.0021
2211.00,0.0021
2210.00,0.0020
2209.00,0.0017
2208.00,0.0016
2207.00,0.0017
2206.00,0.0020
2205.00,0.0023
2204.00,0.0026
2203.00,0.0027
2202.00,0.0027
2201.00,0.0026
2200.00,0.0025
2199.00,0.0024
2198.00,0.0023
2197.00,0.0024
2196.00,0.0026
2195.00,0.0027
2194.00,0.0027
2193.00,0.0026
2192.00,0.0025
2191.00,0.0023
2190.00,0.0023
2189.00,0.0023
2188.00,0.0023
2187.00,0.0024
2186.00,0.0025
2185.00,0.0027
2184.00,0.0027
2183.00,0.0026
2182.00,0.0024
2181.00,0.0024
2180.00,0.0025
2179.00,0.0026
2178.00,0.0026
2177.00,0.0024
2176.00,0.0021
2175.00,0.0019
2174.00,0.0019
2173.00,0.0021
2172.00,0.0024
2171.00,0.0027
2170.00,0.0028
2169.00,0.0029
2168.00,0.0029
2167.00,0.0031
2166.00,0.0034
2165.00,0.0037
2164.00,0.0041
2163.00,0.0042
2162.00,0.0041
2161.00,0.0033
2160.00,0.0019
2159.00,0.0002
2158.00,-0.0010
2157.00,-0.0015
2156.00,-0.0015
2155.00,-0.0012
2154.00,-0.0008
2153.00,-0.0005
2152.00,-0.0002
2151.00,-0.0001
2150.00,-0.0001
2149.00,-0.0002
2148.00,-0.0004
2147.00,-0.0005
2146.00,-0.0004
2145.00,-0.0003
2144.00,-0.0002
2143.00,-0.0001
2142.00,-0.0000
2141.00,0.0001
2140.00,0.0003
2139.00,0.0005
2138.00,0.0005
2137.00,0.0004
2136.00,0.0001
2135.00,-0.0002
2134.00,-0.0004
2133.00,-0.0004
2132.00,-0.0002
2131.00,-0.0001
2130.00,-0.0001
2129.00,0.0000
2128.00,0.0002
2127.00,0.0005
2126.00,0.0008
2125.00,0.0009
2124.00,0.0010
2123.00,0.0009
2122.00,0.0009
2121.00,0.0009
2120.00,0.0009
2119.00,0.0008
2118.00,0.0009
2117.00,0.0011
2116.00,0.0015
2115.00,0.0018
2114.00,0.0019
2113.00,0.0018
2112.00,0.0018
2111.00,0.0018
2110.00,0.0018
2109.00,0.0019
2108.00,0.0019
2107.00,0.0019
2106.00,0.0019
2105.00,0.0018
2104.00,0.0018
2103.00,0.0018
2102.00,0.0018
2101.00,0.0018
2100.00,0.0018
2099.00,0.0018
2098.00,0.0017
2097.00,0.0015
2096.00,0.0013
2095.00,0.0011
2094.00,0.0010
2093.00,0.0011
2092.00,0.0011
2091.00,0.0012
2090.00,0.0014
2089.00,0.0015
2088.00,0.0016
2087.00,0.0016
2086.00,0.0017
2085.00,0.0018
2084.00,0.0019
2083.00,0.0019
2082.00,0.0019
2081.00,0.0018
2080.00,0.0018
2079.00,0.0018
2078.00,0.0018
2077.00,0.0019
2076.00,0.0019
2075.00,0.0019
2074.00,0.0019
2073.00,0.0019
2072.00,0.0018
2071.00,0.0017
2070.00,0.0016
2069.00,0.0017
2068.00,0.0019
2067.00,0.0020
2066.00,0.0019
2065.00,0.0018
2064.00,0.0016
2063.00,0.0014
2062.00,0.0012
2061.00,0.0011
2060.00,0.0012
2059.00,0.0014
2058.00,0.0017
2057.00,0.0019
2056.00,0.0019
2055.00,0.0018
2054.00,0.0019
2053.00,0.0022
2052.00,0.0027
2051.00,0.0031
2050.00,0.0032
2049.00,0.0030
2048.00,0.0027
2047.00,0.0023
2046.00,0.0021
2045.00,0.0020
2044.00,0.0020
2043.00,0.0019
2042.00,0.0018
2041.00,0.0015
2040.00,0.0013
2039.00,0.0012
2038.00,0.0010
2037.00,0.0010
2036.00,0.0009
2035.00,0.0009
2034.00,0.0008
2033.00,0.0007
2032.00,0.0006
2031.00,0.0006
2030.00,0.0005
2029.00,0.0003
2028.00,0.0002
2027.00,0.0003
2026.00,0.0005
2025.00,0.0008
2024.00,0.0012
2023.00,0.0012
2022.00,0.0012
2021.00,0.0010
2020.00,0.0009
2019.00,0.0008
2018.00,0.0005
2017.00,0.0004
2016.00,0.0005
2015.00,0.0008
2014.00,0.0010
2013.00,0.0010
2012.00,0.0010
2011.00,0.0010
2010.00,0.0009
2009.00,0.0007
2008.00,0.0002
2007.00,-0.0003
2006.00,-0.0005
2005.00,-0.0004
2004.00,-0.0001
2003.00,0.0001
2002.00,0.0003
2001.00,0.0006
2000.00,0.0007
1999.00,0.0008
1998.00,0.0007
1997.00,0.0006
1996.00,0.0006
1995.00,0.0007
1994.00,0.0008
1993.00,0.0010
1992.00,0.0012
1991.00,0.0013
1990.00,0.0014
1989.00,0.0015
1988.00,0.0016
1987.00,0.0017
1986.00,0.0019
1985.00,0.0021
1984.00,0.0024
1983.00,0.0026
1982.00,0.0028
1981.00,0.0031
1980.00,0.0031
1979.00,0.0027
1978.00,0.0020
1977.00,0.0013
1976.00,0.0008
1975.00,0.0006
1974.00,0.0007
1973.00,0.0009
1972.00,0.0010
1971.00,0.0011
1970.00,0.0009
1969.00,0.0007
1968.00,0.0005
1967.00,0.0003
1966.00,0.0002
1965.00,0.0002
1964.00,0.0004
1963.00,0.0006
1962.00,0.0004
1961.00,-0.0000
1960.00,-0.0006
1959.00,-0.0010
1958.00,-0.0011
1957.00,-0.0009
1956.00,-0.0007
1955.00,-0.0005
1954.00,-0.0003
1953.00,-0.0001
1952.00,0.0001
1951.00,0.0002
1950.00,0.0002
1949.00,0.0002
1948.00,0.0001
1947.00,-0.0000
1946.00,-0.0001
1945.00,-0.0001
1944.00,-0.0000
1943.00,0.0000
1942.00,0.0000
1941.00,0.0000
1940.00,0.0001
1939.00,0.0001
1938.00,0.0002
1937.00,0.0004
1936.00,0.0006
1935.00,0.0006
1934.00,0.0006
1933.00,0.0005
1932.00,0.0005
1931.00,0.0005
1930.00,0.0006
1929.00,0.0007
1928.00,0.0009
1927.00,0.0009
1926.00,0.0009
1925.00,0.0009
1924.00,0.0010
1923.00,0.0009
1922.00,0.0009
1921.00,0.0009
1920.00,0.0010
1919.00,0.0010
1918.00,0.0011
1917.00,0.0012
1916.00,0.0013
1915.00,0.0014
1914.00,0.0014
1913.00,0.0014
1912.00,0.0015
1911.00,0.0014
1910.00,0.0013
1909.00,0.0012
1908.00,0.0012
1907.00,0.0011
1906.00,0.0012
1905.00,0.0012
1904.00,0.0012
1903.00,0.0012
1902.00,0.0012
1901.00,0.0013
1900.00,0.0014
1899.00,0.0014
1898.00,0.0015
1897.00,0.0015
1896.00,0.0016
1895.00,0.0016
1894.00,0.0016
1893.00,0.0015
1892.00,0.0014
1891.00,0.0014
1890.00,0.0013
1889.00,0.0013
1888.00,0.0013
1887.00,0.0013
1886.00,0.0014
1885.00,0.0013
1884.00,0.0013
1883.00,0.0012
1882.00,0.0011
1881.00,0.0011
1880.00,0.0012
1879.00,0.0012
1878.00,0.0013
1877.00,0.0014
1876.00,0.0015
1875.00,0.0016
1874.00,0.0016
1873.00,0.0016
1872.00,0.0016
1871.00,0.0016
1870.00,0.0016
1869.00,0.0016
1868.00,0.0016
1867.00,0.0015
1866.00,0.0014
1865.00,0.0014
1864.00,0.0014
1863.00,0.0015
1862.00,0.0015
1861.00,0.0016
1860.00,0.0016
1859.00,0.0015
1858.00,0.0015
1857.00,0.0014
1856.00,0.0014
1855.00,0.0014
1854.00,0.0015
1853.00,0.0016
1852.00,0.0016
1851.00,0.0017
1850.00,0.0017
1849.00,0.0016
1848.00,0.0016
1847.00,0.0016
1846.00,0.0016
1845.00,0.0017
1844.00,0.0017
1843.00,0.0016
1842.00,0.0015
1841.00,0.0015
1840.00,0.0015
1839.00,0.0016
1838.00,0.0016
1837.00,0.0017
1836.00,0.0017
1835.00,0.0018
1834.00,0.0018
1833.00,0.0018
1832.00,0.0017
1831.00,0.0016
1830.00,0.0016
1829.00,0.0016
1828.00,0.0017
1827.00,0.0017
1826.00,0.0018
1825.00,0.0018
1824.00,0.0018
1823.00,0.0018
1822.00,0.0017
1821.00,0.0017
1820.00,0.0016
1819.00,0.0015
1818.00,0.0014
1817.00,0.0014
1816.00,0.0014
1815.00,0.0015
1814.00,0.0015
1813.00,0.0016
1812.00,0.0016
1811.00,0.0017
1810.00,0.0018
1809.00,0.0019
1808.00,0.0019
1807.00,0.0019
1806.00,0.0019
1805.00,0.0019
1804.00,0.0020
1803.00,0.0021
1802.00,0.0021
1801.00,0.0022
1800.00,0.0022
1799.00,0.0022
1798.00,0.0022
1797.00,0.0022
1796.00,0.0022
1795.00,0.0022
1794.00,0.0022
1793.00,0.0022
1792.00,0.0022
1791.00,0.0022
1790.00,0.0022
1789.00,0.0023
1788.00,0.0023
1787.00,0.0023
1786.00,0.0023
1785.00,0.0023
1784.00,0.0023
1783.00,0.0023
1782.00,0.0023
1781.00,0.0023
1780.00,0.0023
1779.00,0.0023
1778.00,0.0022
1777.00,0.0022
1776.00,0.0023
1775.00,0.0023
1774.00,0.0024
1773.00,0.0024
1772.00,0.0023
1771.00,0.0024
1770.00,0.0024
1769.00,0.0025
1768.00,0.0025
1767.00,0.0025
1766.00,0.0025
1765.00,0.0025
1764.00,0.0025
1763.00,0.0025
1762.00,0.0025
1761.00,0.0026
1760.00,0.0026
1759.00,0.0027
1758.00,0.0027
1757.00,0.0028
1756.00,0.0028
1755.00,0.0028
1754.00,0.0028
1753.00,0.0028
1752.00,0.0029
1751.00,0.0030
1750.00,0.0030
1749.00,0.0030
1748.00,0.0031
1747.00,0.0031
1746.00,0.0031
1745.00,0.0032
1744.00,0.0033
1743.00,0.0034
1742.00,0.0035
1741.00,0.0035
1740.00,0.0036
1739.00,0.0036
1738.00,0.0036
1737.00,0.0036
1736.00,0.0036
1735.00,0.0035
1734.00,0.0035
1733.00,0.0035
1732.00,0.0036
1731.00,0.0037
1730.00,0.0037
1729.00,0.0038
1728.00,0.0038
1727.00,0.0038
1726.00,0.0037
1725.00,0.0037
1724.00,0.0036
1723.00,0.0036
1722.00,0.0036
1721.00,0.0036
1720.00,0.0037
1719.00,0.0038
1718.00,0.0038
1717.00,0.0038
1716.00,0.0037
1715.00,0.0037
1714.00,0.0037
1713.00,0.0037
1712.00,0.0038
1711.00,0.0038
1710.00,0.0039
1709.00,0.0039
1708.00,0.0039
1707.00,0.0039
1706.00,0.0039
1705.00,0.0040
1704.00,0.0040
1703.00,0.0040
1702.00,0.0041
1701.00,0.0043
1700.00,0.0045
1699.00,0.0046
1698.00,0.0046
1697.00,0.0046
1696.00,0.0047
1695.00,0.0047
1694.00,0.0047
1693.00,0.0048
1692.00,0.0048
1691.00,0.0049
1690.00,0.0050
1689.00,0.0051
1688.00,0.0052
1687.00,0.0052
1686.00,0.0053
1685.00,0.0055
1684.00,0.0057
1683.00,0.0059
1682.00,0.0060
1681.00,0.0061
1680.00,0.0062
1679.00,0.0064
1678.00,0.0065
1677.00,0.0066
1676.00,0.0067
1675.00,0.0068
1674.00,0.0069
1673.00,0.0070
1672.00,0.0071
1671.00,0.0072
1670.00,0.0073
1669.00,0.0075
1668.00,0.0077
1667.00,0.0078
1666.00,0.0079
1665.00,0.0079
1664.00,0.0080
1663.00,0.0081
1662.00,0.0081
1661.00,0.0082
1660.00,0.0082
1659.00,0.0083
1658.00,0.0084
1657.00,0.0085
1656.00,0.0085
1655.00,0.0086
1654.00,0.0087
1653.00,0.0089
1652.00,0.0091
1651.00,0.0092
1650.00,0.0092
1649.00,0.0094
1648.00,0.0095
1647.00,0.0096
1646.00,0.0097
1645.00,0.0097
1644.00,0.0098
1643.00,0.0097
1642.00,0.0097
1641.00,0.0097
1640.00,0.0097
1639.00,0.0097
1638.00,0.0097
1637.00,0.0097
1636.00,0.0097
1635.00,0.0097
1634.00,0.0097
1633.00,0.0097
1632.00,0.0097
1631.00,0.0097
1630.00,0.0096
1629.00,0.0096
1628.00,0.0096
1627.00,0.0095
1626.00,0.0095
1625.00,0.0094
1624.00,0.0094
1623.00,0.0094
1622.00,0.0094
1621.00,0.0094
1620.00,0.0094
1619.00,0.0094
1618.00,0.0094
1617.00,0.0094
1616.00,0.0094
1615.00,0.0094
1614.00,0.0094
1613.00,0.0094
1612.00,0.0094
1611.00,0.0095
1610.00,0.0096
1609.00,0.0096
1608.00,0.0096
1607.00,0.0096
1606.00,0.0096
1605.00,0.0097
1604.00,0.0097
1603.00,0.0097
1602.00,0.0097
1601.00,0.0098
1600.00,0.0098
1599.00,0.0097
1598.00,0.0097
1597.00,0.0096
1596.00,0.0096
1595.00,0.0096
1594.00,0.0096
1593.00,0.0096
1592.00,0.0096
1591.00,0.0095
1590.00,0.0095
1589.00,0.0095
1588.00,0.0096
1587.00,0.0096
1586.00,0.0096
1585.00,0.0096
1584.00,0.0097
1583.00,0.0098
1582.00,0.0098
1581.00,0.0098
1580.00,0.0098
1579.00,0.0098
1578.00,0.0098
1577.00,0.0097
1576.00,0.0096
1575.00,0.0096
1574.00,0.0096
1573.00,0.0096
1572.00,0.0096
1571.00,0.0095
1570.00,0.0095
1569.00,0.0095
1568.00,0.0096
1567.00,0.0096
1566.00,0.0095
1565.00,0.0096
1564.00,0.0096
1563.00,0.0096
1562.00,0.0097
1561.00,0.0097
1560.00,0.0098
1559.00,0.0099
1558.00,0.0100
1557.00,0.0101
1556.00,0.0101
1555.00,0.0102
1554.00,0.0103
1553.00,0.0104
1552.00,0.0105
1551.00,0.0106
1550.00,0.0107
1549.00,0.0108
1548.00,0.0109
1547.00,0.0110
1546.00,0.0111
1545.00,0.0111
1544.00,0.0112
1543.00,0.0113
1542.00,0.0113
1541.00,0.0113
1540.00,0.0113
1539.00,0.0112
1538.00,0.0110
1537.00,0.0109
1536.00,0.0108
1535.00,0.0107
1534.00,0.0106
1533.00,0.0105
1532.00,0.0105
1531.00,0.0104
1530.00,0.0102
1529.00,0.0102
1528.00,0.0102
1527.00,0.0102
1526.00,0.0101
1525.00,0.0101
1524.00,0.0101
1523.00,0.0100
1522.00,0.0100
1521.00,0.0101
1520.00,0.0101
1519.00,0.0101
1518.00,0.0101
1517.00,0.0102
1516.00,0.0103
1515.00,0.0104
1514.00,0.0105
1513.00,0.0106
1512.00,0.0108
1511.00,0.0110
1510.00,0.0110
1509.00,0.0111
1508.00,0.0114
1507.00,0.0117
1506.00,0.0119
1505.00,0.0121
1504.00,0.0123
1503.00,0.0124
1502.00,0.0126
1501.00,0.0129
1500.00,0.0133
1499.00,0.0137
1498.00,0.0141
1497.00,0.0147
1496.00,0.0153
1495.00,0.0158
1494.00,0.0161
1493.00,0.0166
1492.00,0.0170
1491.00,0.0174
1490.00,0.0179
1489.00,0.0184
1488.00,0.0190
1487.00,0.0195
1486.00,0.0200
1485.00,0.0206
1484.00,0.0213
1483.00,0.0220
1482.00,0.0228
1481.00,0.0240
1480.00,0.0252
1479.00,0.0264
1478.00,0.0278
1477.00,0.0296
1476.00,0.0318
1475.00,0.0342
1474.00,0.0376
1473.00,0.0428
1472.00,0.0491
1471.00,0.0551
1470.00,0.0606
1469.00,0.0662
1468.00,0.0723
1467.00,0.0789
1466.00,0.0868
1465.00,0.0955
1464.00,0.1034
1463.00,0.1090
1462.00,0.1126
1461.00,0.1152
1460.00,0.1172
1459.00,0.1189
1458.00,0.1213
1457.00,0.1242
1456.00,0.1260
1455.00,0.1261
1454.00,0.1252
1453.00,0.1239
1452.00,0.1219
1451.00,0.1189
1450.00,0.1146
1449.00,0.1086
1448.00,0.1009
1447.00,0.0925
1446.00,0.0847
1445.00,0.0778
1444.00,0.0718
1443.00,0.0669
1442.00,0.0632
1441.00,0.0606
1440.00,0.0590
1439.00,0.0582
1438.00,0.0581
1437.00,0.0582
1436.00,0.0574
1435.00,0.0551
1434.00,0.0516
1433.00,0.0474
1432.00,0.0430
1431.00,0.0392
1430.00,0.0363
1429.00,0.0341
1428.00,0.0326
1427.00,0.0316
1426.00,0.0309
1425.00,0.0303
1424.00,0.0297
1423.00,0.0293
1422.00,0.0289
1421.00,0.0285
1420.00,0.0281
1419.00,0.0277
1418.00,0.0273
1417.00,0.0268
1416.00,0.0263
1415.00,0.0259
1414.00,0.0255
1413.00,0.0249
1412.00,0.0244
1411.00,0.0239
1410.00,0.0235
1409.00,0.0230
1408.00,0.0226
1407.00,0.0222
1406.00,0.0219
1405.00,0.0216
1404.00,0.0214
1403.00,0.0213
1402.00,0.0213
1401.00,0.0212
1400.00,0.0210
1399.00,0.0209
1398.00,0.0209
1397.00,0.0209
1396.00,0.0209
1395.00,0.0210
1394.00,0.0213
1393.00,0.0215
1392.00,0.0218
1391.00,0.0223
1390.00,0.0232
1389.00,0.0246
1388.00,0.0267
1387.00,0.0301
1386.00,0.0347
1385.00,0.0405
1384.00,0.0481
1383.00,0.0583
1382.00,0.0715
1381.00,0.0881
1380.00,0.1082
1379.00,0.1309
1378.00,0.1529
1377.00,0.1695
1376.00,0.1759
1375.00,0.1692
1374.00,0.1508
1373.00,0.1273
1372.00,0.1050
1371.00,0.0859
1370.00,0.0702
1369.00,0.0581
1368.00,0.0496
1367.00,0.0443
1366.00,0.0414
1365.00,0.0401
1364.00,0.0402
1363.00,0.0414
1362.00,0.0434
1361.00,0.0455
1360.00,0.0470
1359.00,0.0472
1358.00,0.0459
1357.00,0.0431
1356.00,0.0394
1355.00,0.0354
1354.00,0.0315
1353.00,0.0283
1352.00,0.0258
1351.00,0.0237
1350.00,0.0220
1349.00,0.0207
1348.00,0.0196
1347.00,0.0188
1346.00,0.0181
1345.00,0.0176
1344.00,0.0171
1343.00,0.0166
1342.00,0.0162
1341.00,0.0158
1340.00,0.0154
1339.00,0.0151
1338.00,0.0149
1337.00,0.0148
1336.00,0.0148
1335.00,0.0149
1334.00,0.0152
1333.00,0.0155
1332.00,0.0159
1331.00,0.0161
1330.00,0.0162
1329.00,0.0160
1328.00,0.0156
1327.00,0.0151
1326.00,0.0146
1325.00,0.0141
1324.00,0.0136
1323.00,0.0131
1322.00,0.0127
1321.00,0.0124
1320.00,0.0122
1319.00,0.0120
1318.00,0.0118
1317.00,0.0116
1316.00,0.0114
1315.00,0.0112
1314.00,0.0112
1313.00,0.0111
1312.00,0.0112
1311.00,0.0115
1310.00,0.0119
1309.00,0.0126
1308.00,0.0136
1307.00,0.0147
1306.00,0.0158
1305.00,0.0166
1304.00,0.0168
1303.00,0.0166
1302.00,0.0160
1301.00,0.0155
1300.00,0.0151
1299.00,0.0149
1298.00,0.0148
1297.00,0.0148
1296.00,0.0147
1295.00,0.0145
1294.00,0.0142
1293.00,0.0138
1292.00,0.0133
1291.00,0.0129
1290.00,0.0125
1289.00,0.0121
1288.00,0.0117
1287.00,0.0114
1286.00,0.0112
1285.00,0.0110
1284.00,0.0108
1283.00,0.0107
1282.00,0.0106
1281.00,0.0105
1280.00,0.0104
1279.00,0.0103
1278.00,0.0102
1277.00,0.0102
1276.00,0.0101
1275.00,0.0101
1274.00,0.0101
1273.00,0.0101
1272.00,0.0101
1271.00,0.0101
1270.00,0.0102
1269.00,0.0102
1268.00,0.0103
1267.00,0.0105
1266.00,0.0107
1265.00,0.0109
1264.00,0.0112
1263.00,0.0115
1262.00,0.0119
1261.00,0.0124
1260.00,0.0129
1259.00,0.0136
1258.00,0.0144
1257.00,0.0150
1256.00,0.0154
1255.00,0.0152
1254.00,0.0147
1253.00,0.0139
1252.00,0.0132
1251.00,0.0126
1250.00,0.0121
1249.00,0.0118
1248.00,0.0116
1247.00,0.0115
1246.00,0.0114
1245.00,0.0113
1244.00,0.0112
1243.00,0.0111
1242.00,0.0110
1241.00,0.0109
1240.00,0.0108
1239.00,0.0107
1238.00,0.0105
1237.00,0.0104
1236.00,0.0104
1235.00,0.0103
1234.00,0.0102
1233.00,0.0101
1232.00,0.0100
1231.00,0.0100
1230.00,0.0100
1229.00,0.0101
1228.00,0.0101
1227.00,0.0102
1226.00,0.0103
1225.00,0.0105
1224.00,0.0107
1223.00,0.0110
1222.00,0.0114
1221.00,0.0116
1220.00,0.0117
1219.00,0.0118
1218.00,0.0118
1217.00,0.0116
1216.00,0.0114
1215.00,0.0111
1214.00,0.0108
1213.00,0.0105
1212.00,0.0102
1211.00,0.0100
1210.00,0.0099
1209.00,0.0097
1208.00,0.0096
1207.00,0.0095
1206.00,0.0094
1205.00,0.0093
1204.00,0.0093
1203.00,0.0092
1202.00,0.0091
1201.00,0.0091
1200.00,0.0091
1199.00,0.0091
1198.00,0.0092
1197.00,0.0092
1196.00,0.0092
1195.00,0.0093
1194.00,0.0092
1193.00,0.0092
1192.00,0.0092
1191.00,0.0092
1190.00,0.0093
1189.00,0.0093
1188.00,0.0094
1187.00,0.0095
1186.00,0.0095
1185.00,0.0096
1184.00,0.0098
1183.00,0.0100
1182.00,0.0102
1181.00,0.0105
1180.00,0.0109
1179.00,0.0115
1178.00,0.0123
1177.00,0.0133
1176.00,0.0145
1175.00,0.0161
1174.00,0.0181
1173.00,0.0207
1172.00,0.0238
1171.00,0.0272
1170.00,0.0305
1169.00,0.0333
1168.00,0.0351
1167.00,0.0357
1166.00,0.0352
1165.00,0.0338
1164.00,0.0321
1163.00,0.0302
1162.00,0.0285
1161.00,0.0271
1160.00,0.0260
1159.00,0.0251
1158.00,0.0245
1157.00,0.0240
1156.00,0.0237
1155.00,0.0234
1154.00,0.0232
1153.00,0.0229
1152.00,0.0225
1151.00,0.0219
1150.00,0.0212
1149.00,0.0204
1148.00,0.0194
1147.00,0.0185
1146.00,0.0176
1145.00,0.0169
1144.00,0.0162
1143.00,0.0157
1142.00,0.0152
1141.00,0.0147
1140.00,0.0142
1139.00,0.0138
1138.00,0.0134
1137.00,0.0130
1136.00,0.0128
1135.00,0.0126
1134.00,0.0126
1133.00,0.0126
1132.00,0.0126
1131.00,0.0126
1130.00,0.0127
1129.00,0.0127
1128.00,0.0128
1127.00,0.0129
1126.00,0.0131
1125.00,0.0133
1124.00,0.0135
1123.00,0.0137
1122.00,0.0138
1121.00,0.0139
1120.00,0.0140
1119.00,0.0141
1118.00,0.0143
1117.00,0.0145
1116.00,0.0146
1115.00,0.0146
1114.00,0.0147
1113.00,0.0148
1112.00,0.0149
1111.00,0.0151
1110.00,0.0154
1109.00,0.0158
1108.00,0.0162
1107.00,0.0167
1106.00,0.0172
1105.00,0.0177
1104.00,0.0182
1103.00,0.0184
1102.00,0.0184
1101.00,0.0181
1100.00,0.0177
1099.00,0.0172
1098.00,0.0167
1097.00,0.0162
1096.00,0.0158
1095.00,0.0153
1094.00,0.0149
1093.00,0.0146
1092.00,0.0143
1091.00,0.0141
1090.00,0.0139
1089.00,0.0138
1088.00,0.0137
1087.00,0.0136
1086.00,0.0136
1085.00,0.0135
1084.00,0.0134
1083.00,0.0134
1082.00,0.0134
1081.00,0.0133
1080.00,0.0132
1079.00,0.0131
1078.00,0.0129
1077.00,0.0128
1076.00,0.0126
1075.00,0.0125
1074.00,0.0124
1073.00,0.0123
1072.00,0.0123
1071.00,0.0122
1070.00,0.0123
1069.00,0.0123
1068.00,0.0123
1067.00,0.0123
1066.00,0.0122
1065.00,0.0122
1064.00,0.0121
1063.00,0.0121
1062.00,0.0122
1061.00,0.0122
1060.00,0.0121
1059.00,0.0121
1058.00,0.0121
1057.00,0.0121
1056.00,0.0121
1055.00,0.0122
1054.00,0.0123
1053.00,0.0124
1052.00,0.0126
1051.00,0.0128
1050.00,0.0130
1049.00,0.0132
1048.00,0.0135
1047.00,0.0137
1046.00,0.0139
1045.00,0.0140
1044.00,0.0140
1043.00,0.0137
1042.00,0.0134
1041.00,0.0131
1040.00,0.0130
1039.00,0.0128
1038.00,0.0127
1037.00,0.0126
1036.00,0.0126
1035.00,0.0125
1034.00,0.0124
1033.00,0.0123
1032.00,0.0123
1031.00,0.0122
1030.00,0.0122
1029.00,0.0122
1028.00,0.0122
1027.00,0.0122
1026.00,0.0122
1025.00,0.0122
1024.00,0.0122
1023.00,0.0122
1022.00,0.0122
1021.00,0.0122
1020.00,0.0122
1019.00,0.0122
1018.00,0.0123
1017.00,0.0123
1016.00,0.0124
1015.00,0.0126
1014.00,0.0129
1013.00,0.0132
1012.00,0.0134
1011.00,0.0137
1010.00,0.0140
1009.00,0.0144
1008.00,0.0148
1007.00,0.0155
1006.00,0.0165
1005.00,0.0177
1004.00,0.0195
1003.00,0.0218
1002.00,0.0248
1001.00,0.0284
1000.00,0.0322
999.00,0.0353
998.00,0.0368
997.00,0.0360
996.00,0.0333
995.00,0.0294
994.00,0.0253
993.00,0.0217
992.00,0.0188
991.00,0.0167
990.00,0.0152
989.00,0.0142
988.00,0.0136
987.00,0.0133
986.00,0.0132
985.00,0.0133
984.00,0.0138
983.00,0.0146
982.00,0.0158
981.00,0.0175
980.00,0.0197
979.00,0.0226
978.00,0.0261
977.00,0.0303
976.00,0.0349
975.00,0.0393
974.00,0.0427
973.00,0.0441
972.00,0.0429
971.00,0.0395
970.00,0.0345
969.00,0.0293
968.00,0.0248
967.00,0.0212
966.00,0.0186
965.00,0.0167
964.00,0.0153
963.00,0.0143
962.00,0.0134
961.00,0.0126
960.00,0.0121
959.00,0.0116
958.00,0.0113
957.00,0.0110
956.00,0.0107
955.00,0.0105
954.00,0.0104
953.00,0.0103
952.00,0.0103
951.00,0.0102
950.00,0.0101
949.00,0.0100
948.00,0.0099
947.00,0.0100
946.00,0.0102
945.00,0.0104
944.00,0.0107
943.00,0.0110
942.00,0.0112
941.00,0.0112
940.00,0.0111
939.00,0.0108
938.00,0.0104
937.00,0.0100
936.00,0.0096
935.00,0.0092
934.00,0.0089
933.00,0.0087
932.00,0.0085
931.00,0.0084
930.00,0.0083
929.00,0.0082
928.00,0.0081
927.00,0.0080
926.00,0.0080
925.00,0.0080
924.00,0.0080
923.00,0.0081
922.00,0.0082
921.00,0.0083
920.00,0.0084
919.00,0.0085
918.00,0.0086
917.00,0.0087
916.00,0.0087
915.00,0.0087
914.00,0.0087
913.00,0.0088
912.00,0.0089
911.00,0.0089
910.00,0.0090
909.00,0.0091
908.00,0.0093
907.00,0.0097
906.00,0.0103
905.00,0.0113
904.00,0.0126
903.00,0.0143
902.00,0.0162
901.00,0.0180
900.00,0.0192
899.00,0.0195
898.00,0.0189
897.00,0.0175
896.00,0.0157
895.00,0.0140
894.00,0.0125
893.00,0.0114
892.00,0.0106
891.00,0.0101
890.00,0.0097
889.00,0.0096
888.00,0.0096
887.00,0.0096
886.00,0.0096
885.00,0.0097
884.00,0.0099
883.00,0.0104
882.00,0.0109
881.00,0.0116
880.00,0.0124
879.00,0.0133
878.00,0.0142
877.00,0.0147
876.00,0.0149
875.00,0.0148
874.00,0.0144
873.00,0.0137
872.00,0.0128
871.00,0.0117
870.00,0.0108
869.00,0.0101
868.00,0.0096
867.00,0.0094
866.00,0.0094
865.00,0.0094
864.00,0.0094
863.00,0.0093
862.00,0.0094
861.00,0.0095
860.00,0.0098
859.00,0.0100
858.00,0.0103
857.00,0.0105
856.00,0.0106
855.00,0.0108
854.00,0.0110
853.00,0.0113
852.00,0.0116
851.00,0.0120
850.00,0.0126
849.00,0.0133
848.00,0.0143
847.00,0.0159
846.00,0.0183
845.00,0.0217
844.00,0.0261
843.00,0.0308
842.00,0.0344
841.00,0.0353
840.00,0.0331
839.00,0.0287
838.00,0.0240
837.00,0.0202
836.00,0.0177
835.00,0.0161
834.00,0.0151
833.00,0.0145
832.00,0.0141
831.00,0.0137
830.00,0.0134
829.00,0.0131
828.00,0.0128
827.00,0.0127
826.00,0.0126
825.00,0.0126
824.00,0.0125
823.00,0.0124
822.00,0.0123
821.00,0.0124
820.00,0.0126
819.00,0.0128
818.00,0.0131
817.00,0.0135
816.00,0.0142
815.00,0.0151
814.00,0.0163
813.00,0.0179
812.00,0.0195
811.00,0.0210
810.00,0.0220
809.00,0.0224
808.00,0.0221
807.00,0.0212
806.00,0.0200
805.00,0.0185
804.00,0.0170
803.00,0.0157
802.00,0.0147
801.00,0.0139
800.00,0.0133
799.00,0.0127
798.00,0.0123
797.00,0.0120
796.00,0.0117
795.00,0.0114
794.00,0.0111
793.00,0.0108
792.00,0.0105
791.00,0.0103
790.00,0.0101
789.00,0.0100
788.00,0.0098
787.00,0.0095
786.00,0.0092
785.00,0.0088
784.00,0.0085
783.00,0.0083
782.00,0.0082
781.00,0.0082
780.00,0.0082
779.00,0.0082
778.00,0.0082
777.00,0.0084
776.00,0.0086
775.00,0.0088
774.00,0.0089
773.00,0.0091
772.00,0.0092
771.00,0.0094
770.00,0.0097
769.00,0.0098
768.00,0.0098
767.00,0.0098
766.00,0.0097
765.00,0.0096
764.00,0.0094
763.00,0.0092
762.00,0.0088
761.00,0.0085
760.00,0.0082
759.00,0.0080
758.00,0.0078
757.00,0.0077
756.00,0.0077
755.00,0.0078
754.00,0.0078
753.00,0.0078
752.00,0.0077
751.00,0.0077
750.00,0.0077
749.00,0.0076
748.00,0.0076
747.00,0.0077
746.00,0.0079
745.00,0.0081
744.00,0.0082
743.00,0.0082
742.00,0.0082
741.00,0.0083
740.00,0.0083
739.00,0.0085
738.00,0.0086
737.00,0.0088
736.00,0.0090
735.00,0.0093
734.00,0.0095
733.00,0.0097
732.00,0.0097
731.00,0.0096
730.00,0.0095
729.00,0.0094
728.00,0.0093
727.00,0.0092
726.00,0.0092
725.00,0.0093
724.00,0.0095
723.00,0.0096
722.00,0.0096
721.00,0.0096
720.00,0.0094
719.00,0.0092
718.00,0.0090
717.00,0.0089
716.00,0.0090
715.00,0.0092
714.00,0.0094
713.00,0.0095
712.00,0.0095
711.00,0.0094
710.00,0.0094
709.00,0.0093
708.00,0.0091
707.00,0.0088
706.00,0.0086
705.00,0.0085
704.00,0.0085
703.00,0.0084
702.00,0.0084
701.00,0.0084
700.00,0.0084
699.00,0.0084
698.00,0.0082
697.00,0.0080
696.00,0.0079
695.00,0.0079
694.00,0.0078
693.00,0.0078
692.00,0.0078
691.00,0.0080
690.00,0.0080
689.00,0.0080
688.00,0.0078
687.00,0.0078
686.00,0.0078
685.00,0.0080
684.00,0.0081
683.00,0.0082
682.00,0.0082
681.00,0.0081
680.00,0.0080
679.00,0.0079
678.00,0.0079
677.00,0.0079
676.00,0.0079
675.00,0.0079
674.00,0.0079
673.00,0.0079
672.00,0.0079
671.00,0.0080
670.00,0.0080
669.00,0.0077
668.00,0.0074
667.00,0.0072
666.00,0.0073
665.00,0.0076
664.00,0.0080
663.00,0.0082
662.00,0.0083
661.00,0.0083
660.00,0.0081
659.00,0.0079
658.00,0.0078
657.00,0.0077
656.00,0.0078
655.00,0.0079
654.00,0.0080
653.00,0.0081
652.00,0.0081
651.00,0.0081
650.00,0.0079
649.00,0.0077
648.00,0.0075
647.00,0.0075
646.00,0.0076
645.00,0.0077
644.00,0.0080
643.00,0.0081
642.00,0.0081
641.00,0.0080
640.00,0.0079
639.00,0.0079
638.00,0.0078
637.00,0.0078
636.00,0.0078
635.00,0.0079
634.00,0.0079
633.00,0.0079
632.00,0.0079
631.00,0.0079
630.00,0.0081
629.00,0.0083
628.00,0.0087
627.00,0.0092
626.00,0.0095
625.00,0.0095
624.00,0.0092
623.00,0.0089
622.00,0.0087
621.00,0.0086
620.00,0.0086
619.00,0.0085
618.00,0.0083
617.00,0.0081
616.00,0.0079
615.00,0.0079
614.00,0.0079
613.00,0.0078
612.00,0.0078
611.00,0.0078
610.00,0.0078
609.00,0.0079
608.00,0.0080
607.00,0.0081
606.00,0.0081
605.00,0.0081
604.00,0.0081
603.00,0.0082
602.00,0.0083
601.00,0.0083
600.00,0.0083
599.00,0.0082
598.00,0.0082
597.00,0.0080
596.00,0.0079
595.00,0.0079
594.00,0.0079
593.00,0.0079
592.00,0.0079
591.00,0.0078
590.00,0.0078
589.00,0.0079
588.00,0.0081
587.00,0.0084
586.00,0.0086
585.00,0.0089
584.00,0.0090
583.00,0.0090
582.00,0.0088
581.00,0.0087
580.00,0.0087
579.00,0.0088
578.00,0.0089
577.00,0.0090
576.00,0.0090
575.00,0.0088
574.00,0.0087
573.00,0.0087
572.00,0.0088
571.00,0.0088
570.00,0.0086
569.00,0.0083
568.00,0.0081
567.00,0.0080
566.00,0.0080
565.00,0.0080
564.00,0.0081
563.00,0.0082
562.00,0.0083
561.00,0.0085
560.00,0.0088
559.00,0.0094
558.00,0.0098
557.00,0.0099
556.00,0.0095
555.00,0.0091
554.00,0.0087
553.00,0.0086
552.00,0.0086
551.00,0.0085
550.00,0.0084
549.00,0.0083
548.00,0.0084
547.00,0.0086
546.00,0.0089
545.00,0.0090
544.00,0.0090
543.00,0.0090
542.00,0.0091
541.00,0.0090
540.00,0.0088
539.00,0.0085
538.00,0.0085
537.00,0.0087
536.00,0.0090
535.00,0.0092
534.00,0.0092
533.00,0.0092
532.00,0.0094
531.00,0.0099
530.00,0.0103
529.00,0.0105
528.00,0.0105
527.00,0.0103
526.00,0.0099
525.00,0.0093
524.00,0.0089
523.00,0.0088
522.00,0.0090
521.00,0.0092
520.00,0.0092
519.00,0.0093
518.00,0.0096
517.00,0.0098
516.00,0.0100
515.00,0.0099
514.00,0.0096
513.00,0.0091
512.00,0.0088
511.00,0.0089
510.00,0.0092
509.00,0.0096
508.00,0.0099
507.00,0.0100
506.00,0.0098
505.00,0.0095
504.00,0.0094
503.00,0.0095
502.00,0.0093
501.00,0.0087
500.00,0.0082
499.00,0.0081
498.00,0.0083
497.00,0.0086
496.00,0.0086
495.00,0.0087
494.00,0.0089
493.00,0.0090
492.00,0.0087
491.00,0.0082
490.00,0.0078
489.00,0.0080
488.00,0.0084
487.00,0.0086
486.00,0.0083
485.00,0.0074
484.00,0.0066
483.00,0.0064
482.00,0.0070
481.00,0.0078
480.00,0.0085
479.00,0.0090
478.00,0.0093
477.00,0.0092
476.00,0.0091
475.00,0.0092
474.00,0.0096
473.00,0.0104
472.00,0.0116
471.00,0.0125
470.00,0.0127
469.00,0.0121
468.00,0.0114
467.00,0.0113
466.00,0.0118
465.00,0.0124
464.00,0.0129
463.00,0.0135
462.00,0.0144
461.00,0.0152
460.00,0.0157
459.00,0.0158
458.00,0.0156
457.00,0.0154
456.00,0.0152
455.00,0.0152
454.00,0.0151
453.00,0.0143
452.00,0.0126
451.00,0.0109
450.00,0.0100
