Created as New Dataset,Sample 076 By Administrator Date Friday, September 05 2025
cm-1,A
4000.00,0.0020
3999.00,0.0020
3998.00,0.0020
3997.00,0.0020
3996.00,0.0020
3995.00,0.0020
3994.00,0.0020
3993.00,0.0020
3992.00,0.0020
3991.00,0.0020
3990.00,0.0020
3989.00,0.0020
3988.00,0.0020
3987.00,0.0021
3986.00,0.0021
3985.00,0.0020
3984.00,0.0020
3983.00,0.0019
3982.00,0.0019
3981.00,0.0018
3980.00,0.0019
3979.00,0.0019
3978.00,0.0019
3977.00,0.0019
3976.00,0.0019
3975.00,0.0018
3974.00,0.0018
3973.00,0.0018
3972.00,0.0018
3971.00,0.0018
3970.00,0.0018
3969.00,0.0018
3968.00,0.0019
3967.00,0.0019
3966.00,0.0019
3965.00,0.0018
3964.00,0.0018
3963.00,0.0018
3962.00,0.0018
3961.00,0.0018
3960.00,0.0019
3959.00,0.0019
3958.00,0.0019
3957.00,0.0018
3956.00,0.0018
3955.00,0.0018
3954.00,0.0018
3953.00,0.0018
3952.00,0.0018
3951.00,0.0018
3950.00,0.0018
3949.00,0.0018
3948.00,0.0018
3947.00,0.0018
3946.00,0.0018
3945.00,0.0018
3944.00,0.0018
3943.00,0.0018
3942.00,0.0018
3941.00,0.0018
3940.00,0.0018
3939.00,0.0018
3938.00,0.0018
3937.00,0.0018
3936.00,0.0018
3935.00,0.0018
3934.00,0.0018
3933.00,0.0018
3932.00,0.0018
3931.00,0.0018
3930.00,0.0018
3929.00,0.0018
3928.00,0.0018
3927.00,0.0018
3926.00,0.0019
3925.00,0.0019
3924.00,0.0018
3923.00,0.0018
3922.00,0.0018
3921.00,0.0018
3920.00,0.0018
3919.00,0.0018
3918.00,0.0018
3917.00,0.0018
3916.00,0.0018
3915.00,0.0018
3914.00,0.0018
3913.00,0.0018
3912.00,0.0019
3911.00,0.0019
3910.00,0.0019
3909.00,0.0019
3908.00,0.0018
3907.00,0.0018
3906.00,0.0017
3905.00,0.0017
3904.00,0.0017
3903.00,0.0016
3902.00,0.0016
3901.00,0.0016
3900.00,0.0016
3899.00,0.0016
3898.00,0.0016
3897.00,0.0016
3896.00,0.0017
3895.00,0.0017
3894.00,0.0018
3893.00,0.0018
3892.00,0.0019
3891.00,0.0018
3890.00,0.0018
3889.00,0.0017
3888.00,0.0016
3887.00,0.0016
3886.00,0.0016
3885.00,0.0016
3884.00,0.0016
3883.00,0.0016
3882.00,0.0016
3881.00,0.0016
3880.00,0.0016
3879.00,0.0016
3878.00,0.0016
3877.00,0.0017
3876.00,0.0017
3875.00,0.0017
3874.00,0.0017
3873.00,0.0017
3872.00,0.0017
3871.00,0.0017
3870.00,0.0016
3869.00,0.0016
3868.00,0.0016
3867.00,0.0016
3866.00,0.0015
3865.00,0.0015
3864.00,0.0015
3863.00,0.0015
3862.00,0.0015
3861.00,0.0015
3860.00,0.0015
3859.00,0.0015
3858.00,0.0015
3857.00,0.0015
3856.00,0.0016
3855.00,0.0016
3854.00,0.0015
3853.00,0.0015
3852.00,0.0015
3851.00,0.0015
3850.00,0.0016
3849.00,0.0016
3848.00,0.0016
3847.00,0.0016
3846.00,0.0016
3845.00,0.0015
3844.00,0.0015
3843.00,0.0014
3842.00,0.0014
3841.00,0.0014
3840.00,0.0014
3839.00,0.0014
3838.00,0.0014
3837.00,0.0014
3836.00,0.0015
3835.00,0.0015
3834.00,0.0015
3833.00,0.0016
3832.00,0.0016
3831.00,0.0016
3830.00,0.0016
3829.00,0.0016
3828.00,0.0016
3827.00,0.0016
3826.00,0.0016
3825.00,0.0016
3824.00,0.0016
3823.00,0.0016
3822.00,0.0016
3821.00,0.0015
3820.00,0.0015
3819.00,0.0014
3818.00,0.0015
3817.00,0.0016
3816.00,0.0016
3815.00,0.0016
3814.00,0.0016
3813.00,0.0016
3812.00,0.0016
3811.00,0.0016
3810.00,0.0016
3809.00,0.0016
3808.00,0.0016
3807.00,0.0016
3806.00,0.0016
3805.00,0.0016
3804.00,0.0015
3803.00,0.0015
3802.00,0.0015
3801.00,0.0015
3800.00,0.0015
3799.00,0.0015
3798.00,0.0016
3797.00,0.0016
3796.00,0.0016
3795.00,0.0016
3794.00,0.0016
3793.00,0.0016
3792.00,0.0016
3791.00,0.0016
3790.00,0.0017
3789.00,0.0017
3788.00,0.0017
3787.00,0.0017
3786.00,0.0017
3785.00,0.0016
3784.00,0.0016
3783.00,0.0016
3782.00,0.0016
3781.00,0.0016
3780.00,0.0016
3779.00,0.0016
3778.00,0.0016
3777.00,0.0016
3776.00,0.0016
3775.00,0.0017
3774.00,0.0017
3773.00,0.0017
3772.00,0.0017
3771.00,0.0017
3770.00,0.0017
3769.00,0.0016
3768.00,0.0016
3767.00,0.0015
3766.00,0.0015
3765.00,0.0016
3764.00,0.0016
3763.00,0.0016
3762.00,0.0016
3761.00,0.0017
3760.00,0.0016
3759.00,0.0016
3758.00,0.0016
3757.00,0.0016
3756.00,0.0016
3755.00,0.0015
3754.00,0.0015
3753.00,0.0014
3752.00,0.0014
3751.00,0.0015
3750.00,0.0015
3749.00,0.0015
3748.00,0.0015
3747.00,0.0015
3746.00,0.0015
3745.00,0.0015
3744.00,0.0015
3743.00,0.0014
3742.00,0.0014
3741.00,0.0014
3740.00,0.0014
3739.00,0.0015
3738.00,0.0015
3737.00,0.0015
3736.00,0.0015
3735.00,0.0015
3734.00,0.0015
3733.00,0.0015
3732.00,0.0015
3731.00,0.0015
3730.00,0.0015
3729.00,0.0015
3728.00,0.0014
3727.00,0.0014
3726.00,0.0013
3725.00,0.0013
3724.00,0.0014
3723.00,0.0014
3722.00,0.0014
3721.00,0.0015
3720.00,0.0015
3719.00,0.0015
3718.00,0.0016
3717.00,0.0016
3716.00,0.0016
3715.00,0.0015
3714.00,0.0014
3713.00,0.0014
3712.00,0.0013
3711.00,0.0013
3710.00,0.0013
3709.00,0.0013
3708.00,0.0013
3707.00,0.0014
3706.00,0.0014
3705.00,0.0015
3704.00,0.0015
3703.00,0.0016
3702.00,0.0017
3701.00,0.0017
3700.00,0.0017
3699.00,0.0017
3698.00,0.0017
3697.00,0.0017
3696.00,0.0017
3695.00,0.0017
3694.00,0.0017
3693.00,0.0017
3692.00,0.0017
3691.00,0.0017
3690.00,0.0017
3689.00,0.0017
3688.00,0.0017
3687.00,0.0017
3686.00,0.0017
3685.00,0.0017
3684.00,0.0017
3683.00,0.0017
3682.00,0.0017
3681.00,0.0018
3680.00,0.0018
3679.00,0.0018
3678.00,0.0018
3677.00,0.0017
3676.00,0.0016
3675.00,0.0016
3674.00,0.0016
3673.00,0.0016
3672.00,0.0017
3671.00,0.0018
3670.00,0.0019
3669.00,0.0019
3668.00,0.0020
3667.00,0.0020
3666.00,0.0021
3665.00,0.0021
3664.00,0.0021
3663.00,0.0021
3662.00,0.0021
3661.00,0.0021
3660.00,0.0022
3659.00,0.0022
3658.00,0.0022
3657.00,0.0022
3656.00,0.0022
3655.00,0.0022
3654.00,0.0022
3653.00,0.0022
3652.00,0.0021
3651.00,0.0021
3650.00,0.0021
3649.00,0.0022
3648.00,0.0023
3647.00,0.0024
3646.00,0.0025
3645.00,0.0026
3644.00,0.0026
3643.00,0.0027
3642.00,0.0028
3641.00,0.0029
3640.00,0.0030
3639.00,0.0030
3638.00,0.0031
3637.00,0.0031
3636.00,0.0031
3635.00,0.0031
3634.00,0.0032
3633.00,0.0032
3632.00,0.0031
3631.00,0.0032
3630.00,0.0032
3629.00,0.0033
3628.00,0.0034
3627.00,0.0035
3626.00,0.0036
3625.00,0.0037
3624.00,0.0037
3623.00,0.0037
3622.00,0.0038
3621.00,0.0038
3620.00,0.0039
3619.00,0.0040
3618.00,0.0041
3617.00,0.0041
3616.00,0.0042
3615.00,0.0042
3614.00,0.0043
3613.00,0.0044
3612.00,0.0044
3611.00,0.0045
3610.00,0.0046
3609.00,0.0047
3608.00,0.0048
3607.00,0.0049
3606.00,0.0050
3605.00,0.0051
3604.00,0.0051
3603.00,0.0052
3602.00,0.0053
3601.00,0.0053
3600.00,0.0054
3599.00,0.0054
3598.00,0.0054
3597.00,0.0055
3596.00,0.0056
3595.00,0.0057
3594.00,0.0058
3593.00,0.0059
3592.00,0.0059
3591.00,0.0059
3590.00,0.0059
3589.00,0.0060
3588.00,0.0061
3587.00,0.0062
3586.00,0.0063
3585.00,0.0065
3584.00,0.0065
3583.00,0.0066
3582.00,0.0066
3581.00,0.0067
3580.00,0.0067
3579.00,0.0068
3578.00,0.0070
3577.00,0.0071
3576.00,0.0072
3575.00,0.0073
3574.00,0.0074
3573.00,0.0074
3572.00,0.0075
3571.00,0.0075
3570.00,0.0076
3569.00,0.0076
3568.00,0.0077
3567.00,0.0079
3566.00,0.0080
3565.00,0.0081
3564.00,0.0082
3563.00,0.0082
3562.00,0.0083
3561.00,0.0083
3560.00,0.0084
3559.00,0.0086
3558.00,0.0087
3557.00,0.0088
3556.00,0.0088
3555.00,0.0089
3554.00,0.0090
3553.00,0.0092
3552.00,0.0093
3551.00,0.0094
3550.00,0.0094
3549.00,0.0095
3548.00,0.0095
3547.00,0.0097
3546.00,0.0098
3545.00,0.0099
3544.00,0.0100
3543.00,0.0101
3542.00,0.0101
3541.00,0.0102
3540.00,0.0103
3539.00,0.0104
3538.00,0.0106
3537.00,0.0107
3536.00,0.0108
3535.00,0.0109
3534.00,0.0109
3533.00,0.0110
3532.00,0.0111
3531.00,0.0112
3530.00,0.0113
3529.00,0.0114
3528.00,0.0115
3527.00,0.0116
3526.00,0.0117
3525.00,0.0118
3524.00,0.0120
3523.00,0.0121
3522.00,0.0122
3521.00,0.0123
3520.00,0.0124
3519.00,0.0126
3518.00,0.0127
3517.00,0.0128
3516.00,0.0128
3515.00,0.0129
3514.00,0.0131
3513.00,0.0132
3512.00,0.0133
3511.00,0.0134
3510.00,0.0135
3509.00,0.0137
3508.00,0.0138
3507.00,0.0139
3506.00,0.0140
3505.00,0.0141
3504.00,0.0143
3503.00,0.0144
3502.00,0.0145
3501.00,0.0146
3500.00,0.0147
3499.00,0.0148
3498.00,0.0149
3497.00,0.0151
3496.00,0.0152
3495.00,0.0153
3494.00,0.0155
3493.00,0.0156
3492.00,0.0157
3491.00,0.0158
3490.00,0.0159
3489.00,0.0160
3488.00,0.0162
3487.00,0.0163
3486.00,0.0164
3485.00,0.0165
3484.00,0.0165
3483.00,0.0166
3482.00,0.0167
3481.00,0.0168
3480.00,0.0169
3479.00,0.0170
3478.00,0.0171
3477.00,0.0172
3476.00,0.0173
3475.00,0.0174
3474.00,0.0175
3473.00,0.0176
3472.00,0.0177
3471.00,0.0178
3470.00,0.0179
3469.00,0.0180
3468.00,0.0181
3467.00,0.0182
3466.00,0.0182
3465.00,0.0183
3464.00,0.0184
3463.00,0.0184
3462.00,0.0185
3461.00,0.0185
3460.00,0.0186
3459.00,0.0186
3458.00,0.0187
3457.00,0.0188
3456.00,0.0188
3455.00,0.0189
3454.00,0.0189
3453.00,0.0190
3452.00,0.0191
3451.00,0.0191
3450.00,0.0192
3449.00,0.0192
3448.00,0.0193
3447.00,0.0193
3446.00,0.0193
3445.00,0.0193
3444.00,0.0194
3443.00,0.0194
3442.00,0.0195
3441.00,0.0195
3440.00,0.0196
3439.00,0.0196
3438.00,0.0196
3437.00,0.0197
3436.00,0.0197
3435.00,0.0197
3434.00,0.0197
3433.00,0.0198
3432.00,0.0198
3431.00,0.0198
3430.00,0.0198
3429.00,0.0198
3428.00,0.0198
3427.00,0.0199
3426.00,0.0199
3425.00,0.0199
3424.00,0.0199
3423.00,0.0199
3422.00,0.0199
3421.00,0.0199
3420.00,0.0199
3419.00,0.0199
3418.00,0.0199
3417.00,0.0199
3416.00,0.0200
3415.00,0.0200
3414.00,0.0200
3413.00,0.0200
3412.00,0.0200
3411.00,0.0200
3410.00,0.0201
3409.00,0.0201
3408.00,0.0201
3407.00,0.0202
3406.00,0.0202
3405.00,0.0203
3404.00,0.0204
3403.00,0.0205
3402.00,0.0205
3401.00,0.0206
3400.00,0.0206
3399.00,0.0206
3398.00,0.0206
3397.00,0.0206
3396.00,0.0205
3395.00,0.0205
3394.00,0.0206
3393.00,0.0206
3392.00,0.0205
3391.00,0.0205
3390.00,0.0205
3389.00,0.0204
3388.00,0.0203
3387.00,0.0202
3386.00,0.0202
3385.00,0.0201
3384.00,0.0201
3383.00,0.0201
3382.00,0.0200
3381.00,0.0200
3380.00,0.0199
3379.00,0.0199
3378.00,0.0199
3377.00,0.0198
3376.00,0.0198
3375.00,0.0198
3374.00,0.0198
3373.00,0.0198
3372.00,0.0198
3371.00,0.0198
3370.00,0.0197
3369.00,0.0197
3368.00,0.0196
3367.00,0.0195
3366.00,0.0195
3365.00,0.0195
3364.00,0.0195
3363.00,0.0195
3362.00,0.0195
3361.00,0.0195
3360.00,0.0194
3359.00,0.0194
3358.00,0.0193
3357.00,0.0193
3356.00,0.0192
3355.00,0.0192
3354.00,0.0192
3353.00,0.0191
3352.00,0.0191
3351.00,0.0191
3350.00,0.0190
3349.00,0.0190
3348.00,0.0189
3347.00,0.0189
3346.00,0.0188
3345.00,0.0188
3344.00,0.0187
3343.00,0.0187
3342.00,0.0187
3341.00,0.0187
3340.00,0.0186
3339.00,0.0186
3338.00,0.0185
3337.00,0.0185
3336.00,0.0184
3335.00,0.0183
3334.00,0.0183
3333.00,0.0183
3332.00,0.0183
3331.00,0.0182
3330.00,0.0182
3329.00,0.0181
3328.00,0.0180
3327.00,0.0180
3326.00,0.0179
3325.00,0.0179
3324.00,0.0179
3323.00,0.0179
3322.00,0.0178
3321.00,0.0178
3320.00,0.0177
3319.00,0.0177
3318.00,0.0176
3317.00,0.0176
3316.00,0.0175
3315.00,0.0174
3314.00,0.0174
3313.00,0.0173
3312.00,0.0173
3311.00,0.0172
3310.00,0.0171
3309.00,0.0171
3308.00,0.0171
3307.00,0.0171
3306.00,0.0171
3305.00,0.0170
3304.00,0.0170
3303.00,0.0169
3302.00,0.0168
3301.00,0.0168
3300.00,0.0167
3299.00,0.0167
3298.00,0.0167
3297.00,0.0166
3296.00,0.0166
3295.00,0.0165
3294.00,0.0165
3293.00,0.0164
3292.00,0.0164
3291.00,0.0164
3290.00,0.0163
3289.00,0.0163
3288.00,0.0162
3287.00,0.0162
3286.00,0.0161
3285.00,0.0161
3284.00,0.0160
3283.00,0.0159
3282.00,0.0159
3281.00,0.0159
3280.00,0.0158
3279.00,0.0158
3278.00,0.0157
3277.00,0.0157
3276.00,0.0156
3275.00,0.0156
3274.00,0.0156
3273.00,0.0155
3272.00,0.0155
3271.00,0.0154
3270.00,0.0153
3269.00,0.0153
3268.00,0.0152
3267.00,0.0152
3266.00,0.0151
3265.00,0.0151
3264.00,0.0150
3263.00,0.0150
3262.00,0.0149
3261.00,0.0149
3260.00,0.0148
3259.00,0.0147
3258.00,0.0147
3257.00,0.0146
3256.00,0.0146
3255.00,0.0146
3254.00,0.0146
3253.00,0.0145
3252.00,0.0145
3251.00,0.0145
3250.00,0.0144
3249.00,0.0144
3248.00,0.0143
3247.00,0.0143
3246.00,0.0142
3245.00,0.0142
3244.00,0.0141
3243.00,0.0141
3242.00,0.0140
3241.00,0.0140
3240.00,0.0139
3239.00,0.0139
3238.00,0.0138
3237.00,0.0138
3236.00,0.0137
3235.00,0.0137
3234.00,0.0136
3233.00,0.0136
3232.00,0.0136
3231.00,0.0136
3230.00,0.0136
3229.00,0.0136
3228.00,0.0136
3227.00,0.0136
3226.00,0.0136
3225.00,0.0135
3224.00,0.0135
3223.00,0.0135
3222.00,0.0135
3221.00,0.0135
3220.00,0.0134
3219.00,0.0134
3218.00,0.0134
3217.00,0.0134
3216.00,0.0133
3215.00,0.0133
3214.00,0.0133
3213.00,0.0132
3212.00,0.0132
3211.00,0.0131
3210.00,0.0131
3209.00,0.0131
3208.00,0.0130
3207.00,0.0130
3206.00,0.0131
3205.00,0.0131
3204.00,0.0131
3203.00,0.0130
3202.00,0.0130
3201.00,0.0130
3200.00,0.0129
3199.00,0.0129
3198.00,0.0129
3197.00,0.0128
3196.00,0.0128
3195.00,0.0128
3194.00,0.0127
3193.00,0.0127
3192.00,0.0126
3191.00,0.0126
3190.00,0.0125
3189.00,0.0125
3188.00,0.0125
3187.00,0.0125
3186.00,0.0124
3185.00,0.0123
3184.00,0.0122
3183.00,0.0121
3182.00,0.0120
3181.00,0.0119
3180.00,0.0118
3179.00,0.0117
3178.00,0.0117
3177.00,0.0116
3176.00,0.0116
3175.00,0.0115
3174.00,0.0114
3173.00,0.0114
3172.00,0.0113
3171.00,0.0112
3170.00,0.0111
3169.00,0.0111
3168.00,0.0110
3167.00,0.0110
3166.00,0.0109
3165.00,0.0108
3164.00,0.0107
3163.00,0.0106
3162.00,0.0106
3161.00,0.0106
3160.00,0.0106
3159.00,0.0106
3158.00,0.0106
3157.00,0.0105
3156.00,0.0104
3155.00,0.0103
3154.00,0.0102
3153.00,0.0102
3152.00,0.0101
3151.00,0.0101
3150.00,0.0100
3149.00,0.0100
3148.00,0.0099
3147.00,0.0098
3146.00,0.0098
3145.00,0.0097
3144.00,0.0097
3143.00,0.0096
3142.00,0.0096
3141.00,0.0095
3140.00,0.0094
3139.00,0.0094
3138.00,0.0093
3137.00,0.0093
3136.00,0.0092
3135.00,0.0092
3134.00,0.0091
3133.00,0.0091
3132.00,0.0090
3131.00,0.0090
3130.00,0.0089
3129.00,0.0088
3128.00,0.0087
3127.00,0.0087
3126.00,0.0086
3125.00,0.0085
3124.00,0.0085
3123.00,0.0084
3122.00,0.0084
3121.00,0.0084
3120.00,0.0084
3119.00,0.0084
3118.00,0.0083
3117.00,0.0083
3116.00,0.0082
3115.00,0.0082
3114.00,0.0081
3113.00,0.0080
3112.00,0.0079
3111.00,0.0079
3110.00,0.0078
3109.00,0.0078
3108.00,0.0078
3107.00,0.0077
3106.00,0.0077
3105.00,0.0076
3104.00,0.0076
3103.00,0.0076
3102.00,0.0076
3101.00,0.0075
3100.00,0.0075
3099.00,0.0074
3098.00,0.0074
3097.00,0.0074
3096.00,0.0074
3095.00,0.0074
3094.00,0.0074
3093.00,0.0073
3092.00,0.0073
3091.00,0.0073
3090.00,0.0072
3089.00,0.0072
3088.00,0.0071
3087.00,0.0071
3086.00,0.0071
3085.00,0.0070
3084.00,0.0070
3083.00,0.0070
3082.00,0.0070
3081.00,0.0069
3080.00,0.0069
3079.00,0.0069
3078.00,0.0069
3077.00,0.0069
3076.00,0.0069
3075.00,0.0069
3074.00,0.0070
3073.00,0.0070
3072.00,0.0070
3071.00,0.0071
3070.00,0.0070
3069.00,0.0070
3068.00,0.0070
3067.00,0.0070
3066.00,0.0070
3065.00,0.0071
3064.00,0.0071
3063.00,0.0070
3062.00,0.0070
3061.00,0.0070
3060.00,0.0070
3059.00,0.0070
3058.00,0.0070
3057.00,0.0071
3056.00,0.0071
3055.00,0.0071
3054.00,0.0071
3053.00,0.0071
3052.00,0.0071
3051.00,0.0071
3050.00,0.0071
3049.00,0.0071
3048.00,0.0071
3047.00,0.0071
3046.00,0.0071
3045.00,0.0071
3044.00,0.0072
3043.00,0.0072
3042.00,0.0072
3041.00,0.0072
3040.00,0.0073
3039.00,0.0073
3038.00,0.0074
3037.00,0.0074
3036.00,0.0074
3035.00,0.0075
3034.00,0.0075
3033.00,0.0075
3032.00,0.0075
3031.00,0.0076
3030.00,0.0076
3029.00,0.0076
3028.00,0.0077
3027.00,0.0077
3026.00,0.0078
3025.00,0.0079
3024.00,0.0080
3023.00,0.0080
3022.00,0.0081
3021.00,0.0081
3020.00,0.0082
3019.00,0.0083
3018.00,0.0083
3017.00,0.0084
3016.00,0.0085
3015.00,0.0086
3014.00,0.0087
3013.00,0.0089
3012.00,0.0091
3011.00,0.0092
3010.00,0.0094
3009.00,0.0095
3008.00,0.0096
3007.00,0.0098
3006.00,0.0100
3005.00,0.0102
3004.00,0.0104
3003.00,0.0106
3002.00,0.0108
3001.00,0.0110
3000.00,0.0113
2999.00,0.0116
2998.00,0.0120
2997.00,0.0124
2996.00,0.0128
2995.00,0.0132
2994.00,0.0137
2993.00,0.0142
2992.00,0.0148
2991.00,0.0153
2990.00,0.0160
2989.00,0.0167
2988.00,0.0174
2987.00,0.0182
2986.00,0.0190
2985.00,0.0199
2984.00,0.0208
2983.00,0.0218
2982.00,0.0230
2981.00,0.0244
2980.00,0.0260
2979.00,0.0279
2978.00,0.0300
2977.00,0.0323
2976.00,0.0350
2975.00,0.0380
2974.00,0.0413
2973.00,0.0451
2972.00,0.0494
2971.00,0.0543
2970.00,0.0596
2969.00,0.0655
2968.00,0.0719
2967.00,0.0786
2966.00,0.0855
2965.00,0.0924
2964.00,0.0990
2963.00,0.1048
2962.00,0.1097
2961.00,0.1134
2960.00,0.1162
2959.00,0.1183
2958.00,0.1205
2957.00,0.1232
2956.00,0.1269
2955.00,0.1319
2954.00,0.1380
2953.00,0.1446
2952.00,0.1508
2951.00,0.1555
2950.00,0.1577
2949.00,0.1565
2948.00,0.1521
2947.00,0.1450
2946.00,0.1362
2945.00,0.1267
2944.00,0.1178
2943.00,0.1101
2942.00,0.1040
2941.00,0.0998
2940.00,0.0975
2939.00,0.0968
2938.00,0.0977
2937.00,0.1000
2936.00,0.1035
2935.00,0.1081
2934.00,0.1138
2933.00,0.1205
2932.00,0.1280
2931.00,0.1363
2930.00,0.1452
2929.00,0.1544
2928.00,0.1638
2927.00,0.1732
2926.00,0.1824
2925.00,0.1915
2924.00,0.2006
2923.00,0.2097
2922.00,0.2188
2921.00,0.2275
2920.00,0.2353
2919.00,0.2412
2918.00,0.2442
2917.00,0.2436
2916.00,0.2393
2915.00,0.2318
2914.00,0.2223
2913.00,0.2120
2912.00,0.2020
2911.00,0.1929
2910.00,0.1850
2909.00,0.1782
2908.00,0.1721
2907.00,0.1666
2906.00,0.1611
2905.00,0.1557
2904.00,0.1503
2903.00,0.1449
2902.00,0.1395
2901.00,0.1343
2900.00,0.1292
2899.00,0.1243
2898.00,0.1198
2897.00,0.1155
2896.00,0.1116
2895.00,0.1082
2894.00,0.1053
2893.00,0.1030
2892.00,0.1011
2891.00,0.0997
2890.00,0.0988
2889.00,0.0981
2888.00,0.0977
2887.00,0.0976
2886.00,0.0977
2885.00,0.0981
2884.00,0.0989
2883.00,0.0999
2882.00,0.1012
2881.00,0.1027
2880.00,0.1041
2879.00,0.1051
2878.00,0.1057
2877.00,0.1056
2876.00,0.1051
2875.00,0.1045
2874.00,0.1042
2873.00,0.1042
2872.00,0.1049
2871.00,0.1061
2870.00,0.1076
2869.00,0.1091
2868.00,0.1101
2867.00,0.1101
2866.00,0.1084
2865.00,0.1050
2864.00,0.1002
2863.00,0.0945
2862.00,0.0888
2861.00,0.0836
2860.00,0.0795
2859.00,0.0767
2858.00,0.0751
2857.00,0.0746
2856.00,0.0750
2855.00,0.0762
2854.00,0.0780
2853.00,0.0802
2852.00,0.0825
2851.00,0.0847
2850.00,0.0862
2849.00,0.0870
2848.00,0.0872
2847.00,0.0874
2846.00,0.0880
2845.00,0.0896
2844.00,0.0921
2843.00,0.0953
2842.00,0.0989
2841.00,0.1022
2840.00,0.1046
2839.00,0.1056
2838.00,0.1046
2837.00,0.1015
2836.00,0.0962
2835.00,0.0894
2834.00,0.0815
2833.00,0.0735
2832.00,0.0658
2831.00,0.0590
2830.00,0.0531
2829.00,0.0482
2828.00,0.0441
2827.00,0.0407
2826.00,0.0379
2825.00,0.0356
2824.00,0.0336
2823.00,0.0319
2822.00,0.0304
2821.00,0.0292
2820.00,0.0280
2819.00,0.0270
2818.00,0.0261
2817.00,0.0253
2816.00,0.0245
2815.00,0.0238
2814.00,0.0232
2813.00,0.0225
2812.00,0.0219
2811.00,0.0213
2810.00,0.0206
2809.00,0.0199
2808.00,0.0192
2807.00,0.0185
2806.00,0.0178
2805.00,0.0171
2804.00,0.0164
2803.00,0.0158
2802.00,0.0152
2801.00,0.0146
2800.00,0.0142
2799.00,0.0138
2798.00,0.0135
2797.00,0.0132
2796.00,0.0129
2795.00,0.0127
2794.00,0.0125
2793.00,0.0122
2792.00,0.0119
2791.00,0.0116
2790.00,0.0113
2789.00,0.0110
2788.00,0.0107
2787.00,0.0105
2786.00,0.0102
2785.00,0.0099
2784.00,0.0097
2783.00,0.0095
2782.00,0.0093
2781.00,0.0091
2780.00,0.0089
2779.00,0.0088
2778.00,0.0087
2777.00,0.0085
2776.00,0.0084
2775.00,0.0083
2774.00,0.0081
2773.00,0.0081
2772.00,0.0080
2771.00,0.0079
2770.00,0.0079
2769.00,0.0078
2768.00,0.0078
2767.00,0.0077
2766.00,0.0077
2765.00,0.0077
2764.00,0.0077
2763.00,0.0076
2762.00,0.0076
2761.00,0.0076
2760.00,0.0075
2759.00,0.0075
2758.00,0.0074
2757.00,0.0074
2756.00,0.0074
2755.00,0.0074
2754.00,0.0074
2753.00,0.0073
2752.00,0.0073
2751.00,0.0073
2750.00,0.0072
2749.00,0.0072
2748.00,0.0072
2747.00,0.0072
2746.00,0.0073
2745.00,0.0073
2744.00,0.0074
2743.00,0.0075
2742.00,0.0075
2741.00,0.0076
2740.00,0.0076
2739.00,0.0077
2738.00,0.0078
2737.00,0.0079
2736.00,0.0080
2735.00,0.0080
2734.00,0.0081
2733.00,0.0082
2732.00,0.0083
2731.00,0.0085
2730.00,0.0086
2729.00,0.0088
2728.00,0.0090
2727.00,0.0092
2726.00,0.0094
2725.00,0.0095
2724.00,0.0096
2723.00,0.0096
2722.00,0.0096
2721.00,0.0095
2720.00,0.0093
2719.00,0.0091
2718.00,0.0089
2717.00,0.0086
2716.00,0.0083
2715.00,0.0081
2714.00,0.0079
2713.00,0.0077
2712.00,0.0075
2711.00,0.0074
2710.00,0.0072
2709.00,0.0071
2708.00,0.0070
2707.00,0.0069
2706.00,0.0068
2705.00,0.0067
2704.00,0.0066
2703.00,0.0065
2702.00,0.0064
2701.00,0.0064
2700.00,0.0063
2699.00,0.0062
2698.00,0.0062
2697.00,0.0062
2696.00,0.0061
2695.00,0.0061
2694.00,0.0061
2693.00,0.0062
2692.00,0.0062
2691.00,0.0062
2690.00,0.0062
2689.00,0.0062
2688.00,0.0061
2687.00,0.0061
2686.00,0.0061
2685.00,0.0061
2684.00,0.0061
2683.00,0.0061
2682.00,0.0061
2681.00,0.0061
2680.00,0.0061
2679.00,0.0062
2678.00,0.0062
2677.00,0.0062
2676.00,0.0062
2675.00,0.0062
2674.00,0.0062
2673.00,0.0062
2672.00,0.0061
2671.00,0.0061
2670.00,0.0061
2669.00,0.0061
2668.00,0.0061
2667.00,0.0061
2666.00,0.0061
2665.00,0.0062
2664.00,0.0062
2663.00,0.0063
2662.00,0.0063
2661.00,0.0063
2660.00,0.0063
2659.00,0.0063
2658.00,0.0063
2657.00,0.0063
2656.00,0.0063
2655.00,0.0063
2654.00,0.0063
2653.00,0.0062
2652.00,0.0061
2651.00,0.0061
2650.00,0.0060
2649.00,0.0060
2648.00,0.0059
2647.00,0.0059
2646.00,0.0059
2645.00,0.0058
2644.00,0.0058
2643.00,0.0057
2642.00,0.0057
2641.00,0.0056
2640.00,0.0056
2639.00,0.0056
2638.00,0.0055
2637.00,0.0054
2636.00,0.0054
2635.00,0.0054
2634.00,0.0054
2633.00,0.0054
2632.00,0.0054
2631.00,0.0054
2630.00,0.0054
2629.00,0.0055
2628.00,0.0055
2627.00,0.0055
2626.00,0.0055
2625.00,0.0055
2624.00,0.0055
2623.00,0.0055
2622.00,0.0055
2621.00,0.0055
2620.00,0.0055
2619.00,0.0055
2618.00,0.0055
2617.00,0.0055
2616.00,0.0055
2615.00,0.0054
2614.00,0.0054
2613.00,0.0054
2612.00,0.0053
2611.00,0.0053
2610.00,0.0053
2609.00,0.0052
2608.00,0.0051
2607.00,0.0051
2606.00,0.0050
2605.00,0.0049
2604.00,0.0049
2603.00,0.0048
2602.00,0.0048
2601.00,0.0048
2600.00,0.0048
2599.00,0.0048
2598.00,0.0048
2597.00,0.0048
2596.00,0.0048
2595.00,0.0048
2594.00,0.0048
2593.00,0.0048
2592.00,0.0048
2591.00,0.0048
2590.00,0.0048
2589.00,0.0049
2588.00,0.0050
2587.00,0.0051
2586.00,0.0051
2585.00,0.0052
2584.00,0.0052
2583.00,0.0052
2582.00,0.0052
2581.00,0.0051
2580.00,0.0051
2579.00,0.0050
2578.00,0.0049
2577.00,0.0048
2576.00,0.0047
2575.00,0.0047
2574.00,0.0046
2573.00,0.0045
2572.00,0.0044
2571.00,0.0043
2570.00,0.0042
2569.00,0.0041
2568.00,0.0041
2567.00,0.0041
2566.00,0.0040
2565.00,0.0040
2564.00,0.0040
2563.00,0.0040
2562.00,0.0040
2561.00,0.0039
2560.00,0.0039
2559.00,0.0039
2558.00,0.0039
2557.00,0.0039
2556.00,0.0038
2555.00,0.0038
2554.00,0.0037
2553.00,0.0036
2552.00,0.0035
2551.00,0.0035
2550.00,0.0034
2549.00,0.0034
2548.00,0.0034
2547.00,0.0034
2546.00,0.0034
2545.00,0.0034
2544.00,0.0033
2543.00,0.0033
2542.00,0.0033
2541.00,0.0033
2540.00,0.0033
2539.00,0.0032
2538.00,0.0032
2537.00,0.0032
2536.00,0.0032
2535.00,0.0032
2534.00,0.0032
2533.00,0.0032
2532.00,0.0031
2531.00,0.0030
2530.00,0.0030
2529.00,0.0029
2528.00,0.0029
2527.00,0.0030
2526.00,0.0030
2525.00,0.0030
2524.00,0.0029
2523.00,0.0029
2522.00,0.0029
2521.00,0.0029
2520.00,0.0029
2519.00,0.0029
2518.00,0.0029
2517.00,0.0028
2516.00,0.0028
2515.00,0.0027
2514.00,0.0027
2513.00,0.0026
2512.00,0.0026
2511.00,0.0026
2510.00,0.0026
2509.00,0.0026
2508.00,0.0026
2507.00,0.0027
2506.00,0.0027
2505.00,0.0027
2504.00,0.0027
2503.00,0.0027
2502.00,0.0027
2501.00,0.0027
2500.00,0.0027
2499.00,0.0027
2498.00,0.0027
2497.00,0.0028
2496.00,0.0028
2495.00,0.0028
2494.00,0.0027
2493.00,0.0027
2492.00,0.0027
2491.00,0.0027
2490.00,0.0026
2489.00,0.0026
2488.00,0.0026
2487.00,0.0026
2486.00,0.0026
2485.00,0.0026
2484.00,0.0026
2483.00,0.0026
2482.00,0.0025
2481.00,0.0025
2480.00,0.0025
2479.00,0.0025
2478.00,0.0025
2477.00,0.0025
2476.00,0.0025
2475.00,0.0025
2474.00,0.0025
2473.00,0.0025
2472.00,0.0025
2471.00,0.0025
2470.00,0.0025
2469.00,0.0024
2468.00,0.0024
2467.00,0.0023
2466.00,0.0023
2465.00,0.0024
2464.00,0.0024
2463.00,0.0024
2462.00,0.0025
2461.00,0.0025
2460.00,0.0025
2459.00,0.0025
2458.00,0.0025
2457.00,0.0025
2456.00,0.0026
2455.00,0.0026
2454.00,0.0026
2453.00,0.0026
2452.00,0.0025
2451.00,0.0025
2450.00,0.0025
2449.00,0.0025
2448.00,0.0025
2447.00,0.0025
2446.00,0.0025
2445.00,0.0025
2444.00,0.0024
2443.00,0.0025
2442.00,0.0025
2441.00,0.0026
2440.00,0.0027
2439.00,0.0027
2438.00,0.0027
2437.00,0.0026
2436.00,0.0026
2435.00,0.0026
2434.00,0.0026
2433.00,0.0026
2432.00,0.0026
2431.00,0.0026
2430.00,0.0026
2429.00,0.0026
2428.00,0.0025
2427.00,0.0025
2426.00,0.0025
2425.00,0.0025
2424.00,0.0025
2423.00,0.0025
2422.00,0.0025
2421.00,0.0025
2420.00,0.0024
2419.00,0.0024
2418.00,0.0024
2417.00,0.0024
2416.00,0.0024
2415.00,0.0024
2414.00,0.0024
2413.00,0.0024
2412.00,0.0024
2411.00,0.0024
2410.00,0.0024
2409.00,0.0024
2408.00,0.0024
2407.00,0.0023
2406.00,0.0022
2405.00,0.0022
2404.00,0.0022
2403.00,0.0022
2402.00,0.0022
2401.00,0.0022
2400.00,0.0022
2399.00,0.0022
2398.00,0.0022
2397.00,0.0022
2396.00,0.0022
2395.00,0.0022
2394.00,0.0022
2393.00,0.0022
2392.00,0.0022
2391.00,0.0021
2390.00,0.0021
2389.00,0.0021
2388.00,0.0022
2387.00,0.0022
2386.00,0.0023
2385.00,0.0022
2384.00,0.0021
2383.00,0.0020
2382.00,0.0018
2381.00,0.0017
2380.00,0.0017
2379.00,0.0016
2378.00,0.0015
2377.00,0.0015
2376.00,0.0015
2375.00,0.0015
2374.00,0.0015
2373.00,0.0016
2372.00,0.0016
2371.00,0.0016
2370.00,0.0015
2369.00,0.0013
2368.00,0.0012
2367.00,0.0012
2366.00,0.0013
2365.00,0.0013
2364.00,0.0014
2363.00,0.0015
2362.00,0.0015
2361.00,0.0015
2360.00,0.0016
2359.00,0.0016
2358.00,0.0015
2357.00,0.0015
2356.00,0.0015
2355.00,0.0015
2354.00,0.0015
2353.00,0.0015
2352.00,0.0015
2351.00,0.0015
2350.00,0.0015
2349.00,0.0015
2348.00,0.0016
2347.00,0.0016
2346.00,0.0016
2345.00,0.0016
2344.00,0.0016
2343.00,0.0016
2342.00,0.0017
2341.00,0.0018
2340.00,0.0018
2339.00,0.0018
2338.00,0.0018
2337.00,0.0018
2336.00,0.0017
2335.00,0.0017
2334.00,0.0017
2333.00,0.0017
2332.00,0.0017
2331.00,0.0017
2330.00,0.0017
2329.00,0.0018
2328.00,0.0020
2327.00,0.0023
2326.00,0.0026
2325.00,0.0028
2324.00,0.0030
2323.00,0.0029
2322.00,0.0028
2321.00,0.0027
2320.00,0.0027
2319.00,0.0026
2318.00,0.0025
2317.00,0.0024
2316.00,0.0022
2315.00,0.0022
2314.00,0.0022
2313.00,0.0022
2312.00,0.0023
2311.00,0.0024
2310.00,0.0024
2309.00,0.0023
2308.00,0.0023
2307.00,0.0023
2306.00,0.0023
2305.00,0.0024
2304.00,0.0025
2303.00,0.0025
2302.00,0.0025
2301.00,0.0025
2300.00,0.0024
2299.00,0.0024
2298.00,0.0025
2297.00,0.0025
2296.00,0.0025
2295.00,0.0026
2294.00,0.0026
2293.00,0.0027
2292.00,0.0028
2291.00,0.0029
2290.00,0.0030
2289.00,0.0031
2288.00,0.0032
2287.00,0.0033
2286.00,0.0033
2285.00,0.0032
2284.00,0.0032
2283.00,0.0031
2282.00,0.0029
2281.00,0.0029
2280.00,0.0028
2279.00,0.0027
2278.00,0.0027
2277.00,0.0026
2276.00,0.0026
2275.00,0.0026
2274.00,0.0025
2273.00,0.0024
2272.00,0.0024
2271.00,0.0023
2270.00,0.0023
2269.00,0.0024
2268.00,0.0025
2267.00,0.0025
2266.00,0.0024
2265.00,0.0024
2264.00,0.0024
2263.00,0.0024
2262.00,0.0024
2261.00,0.0025
2260.00,0.0025
2259.00,0.0025
2258.00,0.0025
2257.00,0.0025
2256.00,0.0024
2255.00,0.0023
2254.00,0.0021
2253.00,0.0020
2252.00,0.0019
2251.00,0.0019
2250.00,0.0019
2249.00,0.0020
2248.00,0.0020
2247.00,0.0020
2246.00,0.0019
2245.00,0.0020
2244.00,0.0021
2243.00,0.0023
2242.00,0.0023
2241.00,0.0024
2240.00,0.0024
2239.00,0.0024
2238.00,0.0023
2237.00,0.0023
2236.00,0.0022
2235.00,0.0021
2234.00,0.0019
2233.00,0.0018
2232.00,0.0017
2231.00,0.0016
2230.00,0.0015
2229.00,0.0015
2228.00,0.0016
2227.00,0.0018
2226.00,0.0020
2225.00,0.0023
2224.00,0.0024
2223.00,0.0023
2222.00,0.0023
2221.00,0.0022
2220.00,0.0021
2219.00,0.0020
2218.00,0.0020
2217.00,0.0020
2216.00,0.0020
2215.00,0.0020
2214.00,0.0019
2213.00,0.0019
2212.00,0.0018
2211.00,0.0017
2210.00,0.0016
2209.00,0.0016
2208.00,0.0016
2207.00,0.0015
2206.00,0.0014
2205.00,0.0014
2204.00,0.0014
2203.00,0.0015
2202.00,0.0017
2201.00,0.0019
2200.00,0.0020
2199.00,0.0019
2198.00,0.0017
2197.00,0.0016
2196.00,0.0016
2195.00,0.0018
2194.00,0.0020
2193.00,0.0021
2192.00,0.0021
2191.00,0.0022
2190.00,0.0024
2189.00,0.0025
2188.00,0.0023
2187.00,0.0021
2186.00,0.0019
2185.00,0.0019
2184.00,0.0020
2183.00,0.0019
2182.00,0.0017
2181.00,0.0014
2180.00,0.0013
2179.00,0.0012
2178.00,0.0011
2177.00,0.0009
2176.00,0.0008
2175.00,0.0008
2174.00,0.0008
2173.00,0.0009
2172.00,0.0011
2171.00,0.0013
2170.00,0.0015
2169.00,0.0018
2168.00,0.0020
2167.00,0.0021
2166.00,0.0019
2165.00,0.0017
2164.00,0.0016
2163.00,0.0017
2162.00,0.0017
2161.00,0.0014
2160.00,0.0006
2159.00,-0.0006
2158.00,-0.0017
2157.00,-0.0022
2156.00,-0.0023
2155.00,-0.0020
2154.00,-0.0016
2153.00,-0.0011
2152.00,-0.0006
2151.00,-0.0002
2150.00,-0.0000
2149.00,-0.0000
2148.00,-0.0002
2147.00,-0.0002
2146.00,-0.0002
2145.00,-0.0000
2144.00,-0.0000
2143.00,-0.0001
2142.00,-0.0003
2141.00,-0.0004
2140.00,-0.0002
2139.00,-0.0000
2138.00,0.0002
2137.00,0.0003
2136.00,0.0002
2135.00,-0.0000
2134.00,-0.0003
2133.00,-0.0004
2132.00,-0.0004
2131.00,-0.0003
2130.00,-0.0002
2129.00,-0.0000
2128.00,0.0001
2127.00,0.0003
2126.00,0.0004
2125.00,0.0006
2124.00,0.0008
2123.00,0.0010
2122.00,0.0010
2121.00,0.0010
2120.00,0.0009
2119.00,0.0009
2118.00,0.0011
2117.00,0.0013
2116.00,0.0015
2115.00,0.0016
2114.00,0.0016
2113.00,0.0015
2112.00,0.0015
2111.00,0.0015
2110.00,0.0015
2109.00,0.0015
2108.00,0.0014
2107.00,0.0014
2106.00,0.0013
2105.00,0.0013
2104.00,0.0013
2103.00,0.0014
2102.00,0.0016
2101.00,0.0016
2100.00,0.0017
2099.00,0.0017
2098.00,0.0017
2097.00,0.0016
2096.00,0.0014
2095.00,0.0012
2094.00,0.0010
2093.00,0.0008
2092.00,0.0008
2091.00,0.0009
2090.00,0.0009
2089.00,0.0010
2088.00,0.0010
2087.00,0.0011
2086.00,0.0011
2085.00,0.0013
2084.00,0.0015
2083.00,0.0016
2082.00,0.0017
2081.00,0.0016
2080.00,0.0016
2079.00,0.0016
2078.00,0.0017
2077.00,0.0017
2076.00,0.0018
2075.00,0.0019
2074.00,0.0018
2073.00,0.0017
2072.00,0.0016
2071.00,0.0015
2070.00,0.0015
2069.00,0.0015
2068.00,0.0014
2067.00,0.0013
2066.00,0.0013
2065.00,0.0014
2064.00,0.0016
2063.00,0.0017
2062.00,0.0016
2061.00,0.0014
2060.00,0.0012
2059.00,0.0012
2058.00,0.0013
2057.00,0.0015
2056.00,0.0016
2055.00,0.0016
2054.00,0.0017
2053.00,0.0020
2052.00,0.0024
2051.00,0.0027
2050.00,0.0026
2049.00,0.0021
2048.00,0.0014
2047.00,0.0009
2046.00,0.0006
2045.00,0.0005
2044.00,0.0005
2043.00,0.0006
2042.00,0.0006
2041.00,0.0006
2040.00,0.0007
2039.00,0.0008
2038.00,0.0008
2037.00,0.0009
2036.00,0.0011
2035.00,0.0011
2034.00,0.0009
2033.00,0.0006
2032.00,0.0003
2031.00,0.0001
2030.00,0.0001
2029.00,0.0002
2028.00,0.0003
2027.00,0.0004
2026.00,0.0004
2025.00,0.0001
2024.00,-0.0003
2023.00,-0.0008
2022.00,-0.0010
2021.00,-0.0008
2020.00,-0.0005
2019.00,-0.0001
2018.00,0.0002
2017.00,0.0003
2016.00,0.0003
2015.00,0.0001
2014.00,-0.0002
2013.00,-0.0004
2012.00,-0.0005
2011.00,-0.0005
2010.00,-0.0004
2009.00,-0.0004
2008.00,-0.0004
2007.00,-0.0004
2006.00,-0.0004
2005.00,-0.0002
2004.00,-0.0000
2003.00,-0.0000
2002.00,-0.0001
2001.00,-0.0002
2000.00,-0.0003
1999.00,-0.0004
1998.00,-0.0006
1997.00,-0.0006
1996.00,-0.0006
1995.00,-0.0006
1994.00,-0.0005
1993.00,-0.0003
1992.00,-0.0000
1991.00,0.0003
1990.00,0.0005
1989.00,0.0007
1988.00,0.0009
1987.00,0.0012
1986.00,0.0014
1985.00,0.0015
1984.00,0.0015
1983.00,0.0015
1982.00,0.0015
1981.00,0.0016
1980.00,0.0016
1979.00,0.0014
1978.00,0.0010
1977.00,0.0007
1976.00,0.0005
1975.00,0.0005
1974.00,0.0004
1973.00,0.0002
1972.00,0.0001
1971.00,-0.0000
1970.00,-0.0001
1969.00,-0.0003
1968.00,-0.0005
1967.00,-0.0006
1966.00,-0.0004
1965.00,-0.0001
1964.00,0.0003
1963.00,0.0003
1962.00,0.0001
1961.00,-0.0003
1960.00,-0.0006
1959.00,-0.0007
1958.00,-0.0006
1957.00,-0.0003
1956.00,-0.0001
1955.00,-0.0001
1954.00,-0.0001
1953.00,-0.0001
1952.00,0.0000
1951.00,0.0001
1950.00,0.0002
1949.00,0.0002
1948.00,0.0002
1947.00,0.0000
1946.00,-0.0001
1945.00,-0.0002
1944.00,-0.0002
1943.00,-0.0003
1942.00,-0.0002
1941.00,-0.0001
1940.00,0.0001
1939.00,0.0003
1938.00,0.0004
1937.00,0.0004
1936.00,0.0003
1935.00,0.0003
1934.00,0.0004
1933.00,0.0004
1932.00,0.0004
1931.00,0.0003
1930.00,0.0003
1929.00,0.0004
1928.00,0.0005
1927.00,0.0006
1926.00,0.0006
1925.00,0.0007
1924.00,0.0008
1923.00,0.0008
1922.00,0.0008
1921.00,0.0007
1920.00,0.0007
1919.00,0.0007
1918.00,0.0007
1917.00,0.0007
1916.00,0.0008
1915.00,0.0008
1914.00,0.0007
1913.00,0.0007
1912.00,0.0006
1911.00,0.0005
1910.00,0.0004
1909.00,0.0005
1908.00,0.0006
1907.00,0.0007
1906.00,0.0008
1905.00,0.0009
1904.00,0.0010
1903.00,0.0010
1902.00,0.0009
1901.00,0.0009
1900.00,0.0008
1899.00,0.0007
1898.00,0.0007
1897.00,0.0008
1896.00,0.0009
1895.00,0.0009
1894.00,0.0009
1893.00,0.0009
1892.00,0.0010
1891.00,0.0010
1890.00,0.0010
1889.00,0.0010
1888.00,0.0010
1887.00,0.0010
1886.00,0.0010
1885.00,0.0010
1884.00,0.0011
1883.00,0.0011
1882.00,0.0012
1881.00,0.0012
1880.00,0.0013
1879.00,0.0013
1878.00,0.0012
1877.00,0.0011
1876.00,0.0011
1875.00,0.0010
1874.00,0.0010
1873.00,0.0011
1872.00,0.0012
1871.00,0.0012
1870.00,0.0012
1869.00,0.0011
1868.00,0.0010
1867.00,0.0010
1866.00,0.0011
1865.00,0.0011
1864.00,0.0012
1863.00,0.0013
1862.00,0.0012
1861.00,0.0012
1860.00,0.0012
1859.00,0.0011
1858.00,0.0011
1857.00,0.0011
1856.00,0.0012
1855.00,0.0013
1854.00,0.0013
1853.00,0.0013
1852.00,0.0013
1851.00,0.0013
1850.00,0.0013
1849.00,0.0013
1848.00,0.0013
1847.00,0.0013
1846.00,0.0013
1845.00,0.0013
1844.00,0.0013
1843.00,0.0013
1842.00,0.0013
1841.00,0.0013
1840.00,0.0012
1839.00,0.0012
1838.00,0.0012
1837.00,0.0013
1836.00,0.0014
1835.00,0.0015
1834.00,0.0015
1833.00,0.0015
1832.00,0.0015
1831.00,0.0015
1830.00,0.0015
1829.00,0.0015
1828.00,0.0016
1827.00,0.0017
1826.00,0.0017
1825.00,0.0017
1824.00,0.0016
1823.00,0.0016
1822.00,0.0016
1821.00,0.0015
1820.00,0.0014
1819.00,0.0013
1818.00,0.0013
1817.00,0.0013
1816.00,0.0014
1815.00,0.0015
1814.00,0.0015
1813.00,0.0015
1812.00,0.0015
1811.00,0.0015
1810.00,0.0015
1809.00,0.0016
1808.00,0.0016
1807.00,0.0016
1806.00,0.0016
1805.00,0.0017
1804.00,0.0018
1803.00,0.0019
1802.00,0.0018
1801.00,0.0018
1800.00,0.0018
1799.00,0.0018
1798.00,0.0019
1797.00,0.0019
1796.00,0.0020
1795.00,0.0020
1794.00,0.0021
1793.00,0.0021
1792.00,0.0021
1791.00,0.0020
1790.00,0.0020
1789.00,0.0020
1788.00,0.0021
1787.00,0.0021
1786.00,0.0022
1785.00,0.0022
1784.00,0.0022
1783.00,0.0022
1782.00,0.0023
1781.00,0.0023
1780.00,0.0023
1779.00,0.0023
1778.00,0.0022
1777.00,0.0022
1776.00,0.0022
1775.00,0.0022
1774.00,0.0022
1773.00,0.0023
1772.00,0.0023
1771.00,0.0024
1770.00,0.0024
1769.00,0.0025
1768.00,0.0026
1767.00,0.0026
1766.00,0.0026
1765.00,0.0026
1764.00,0.0026
1763.00,0.0026
1762.00,0.0026
1761.00,0.0027
1760.00,0.0028
1759.00,0.0028
1758.00,0.0029
1757.00,0.0029
1756.00,0.0030
1755.00,0.0030
1754.00,0.0030
1753.00,0.0031
1752.00,0.0032
1751.00,0.0033
1750.00,0.0033
1749.00,0.0034
1748.00,0.0035
1747.00,0.0036
1746.00,0.0037
1745.00,0.0038
1744.00,0.0039
1743.00,0.0040
1742.00,0.0041
1741.00,0.0042
1740.00,0.0043
1739.00,0.0043
1738.00,0.0042
1737.00,0.0042
1736.00,0.0043
1735.00,0.0043
1734.00,0.0042
1733.00,0.0042
1732.00,0.0041
1731.00,0.0041
1730.00,0.0041
1729.00,0.0040
1728.00,0.0041
1727.00,0.0041
1726.00,0.0041
1725.00,0.0042
1724.00,0.0042
1723.00,0.0043
1722.00,0.0043
1721.00,0.0044
1720.00,0.0044
1719.00,0.0044
1718.00,0.0043
1717.00,0.0042
1716.00,0.0042
1715.00,0.0043
1714.00,0.0043
1713.00,0.0043
1712.00,0.0044
1711.00,0.0045
1710.00,0.0046
1709.00,0.0047
1708.00,0.0049
1707.00,0.0051
1706.00,0.0052
1705.00,0.0053
1704.00,0.0055
1703.00,0.0056
1702.00,0.0059
1701.00,0.0062
1700.00,0.0064
1699.00,0.0065
1698.00,0.0065
1697.00,0.0067
1696.00,0.0070
1695.00,0.0073
1694.00,0.0074
1693.00,0.0076
1692.00,0.0077
1691.00,0.0079
1690.00,0.0081
1689.00,0.0083
1688.00,0.0084
1687.00,0.0086
1686.00,0.0088
1685.00,0.0089
1684.00,0.0091
1683.00,0.0091
1682.00,0.0091
1681.00,0.0092
1680.00,0.0094
1679.00,0.0095
1678.00,0.0097
1677.00,0.0099
1676.00,0.0102
1675.00,0.0103
1674.00,0.0104
1673.00,0.0105
1672.00,0.0105
1671.00,0.0106
1670.00,0.0107
1669.00,0.0108
1668.00,0.0109
1667.00,0.0110
1666.00,0.0110
1665.00,0.0111
1664.00,0.0113
1663.00,0.0114
1662.00,0.0115
1661.00,0.0115
1660.00,0.0116
1659.00,0.0116
1658.00,0.0117
1657.00,0.0118
1656.00,0.0119
1655.00,0.0122
1654.00,0.0125
1653.00,0.0129
1652.00,0.0131
1651.00,0.0132
1650.00,0.0132
1649.00,0.0134
1648.00,0.0137
1647.00,0.0140
1646.00,0.0142
1645.00,0.0142
1644.00,0.0141
1643.00,0.0140
1642.00,0.0138
1641.00,0.0137
1640.00,0.0136
1639.00,0.0135
1638.00,0.0134
1637.00,0.0134
1636.00,0.0134
1635.00,0.0134
1634.00,0.0135
1633.00,0.0134
1632.00,0.0134
1631.00,0.0134
1630.00,0.0134
1629.00,0.0134
1628.00,0.0133
1627.00,0.0131
1626.00,0.0129
1625.00,0.0128
1624.00,0.0127
1623.00,0.0126
1622.00,0.0125
1621.00,0.0124
1620.00,0.0123
1619.00,0.0122
1618.00,0.0121
1617.00,0.0119
1616.00,0.0119
1615.00,0.0118
1614.00,0.0118
1613.00,0.0118
1612.00,0.0117
1611.00,0.0117
1610.00,0.0116
1609.00,0.0116
1608.00,0.0116
1607.00,0.0116
1606.00,0.0116
1605.00,0.0116
1604.00,0.0115
1603.00,0.0115
1602.00,0.0114
1601.00,0.0114
1600.00,0.0114
1599.00,0.0114
1598.00,0.0114
1597.00,0.0114
1596.00,0.0114
1595.00,0.0114
1594.00,0.0115
1593.00,0.0116
1592.00,0.0118
1591.00,0.0119
1590.00,0.0121
1589.00,0.0124
1588.00,0.0128
1587.00,0.0132
1586.00,0.0136
1585.00,0.0141
1584.00,0.0148
1583.00,0.0156
1582.00,0.0163
1581.00,0.0171
1580.00,0.0177
1579.00,0.0181
1578.00,0.0183
1577.00,0.0183
1576.00,0.0180
1575.00,0.0176
1574.00,0.0172
1573.00,0.0167
1572.00,0.0163
1571.00,0.0157
1570.00,0.0149
1569.00,0.0142
1568.00,0.0137
1567.00,0.0133
1566.00,0.0131
1565.00,0.0129
1564.00,0.0127
1563.00,0.0126
1562.00,0.0125
1561.00,0.0126
1560.00,0.0126
1559.00,0.0126
1558.00,0.0127
1557.00,0.0129
1556.00,0.0130
1555.00,0.0131
1554.00,0.0133
1553.00,0.0136
1552.00,0.0139
1551.00,0.0143
1550.00,0.0148
1549.00,0.0154
1548.00,0.0160
1547.00,0.0167
1546.00,0.0175
1545.00,0.0185
1544.00,0.0194
1543.00,0.0201
1542.00,0.0206
1541.00,0.0208
1540.00,0.0204
1539.00,0.0195
1538.00,0.0186
1537.00,0.0178
1536.00,0.0171
1535.00,0.0163
1534.00,0.0152
1533.00,0.0141
1532.00,0.0133
1531.00,0.0128
1530.00,0.0124
1529.00,0.0121
1528.00,0.0119
1527.00,0.0115
1526.00,0.0112
1525.00,0.0109
1524.00,0.0107
1523.00,0.0106
1522.00,0.0104
1521.00,0.0103
1520.00,0.0104
1519.00,0.0104
1518.00,0.0104
1517.00,0.0105
1516.00,0.0105
1515.00,0.0104
1514.00,0.0104
1513.00,0.0105
1512.00,0.0106
1511.00,0.0107
1510.00,0.0107
1509.00,0.0108
1508.00,0.0108
1507.00,0.0108
1506.00,0.0107
1505.00,0.0109
1504.00,0.0111
1503.00,0.0113
1502.00,0.0116
1501.00,0.0119
1500.00,0.0123
1499.00,0.0127
1498.00,0.0130
1497.00,0.0136
1496.00,0.0142
1495.00,0.0147
1494.00,0.0150
1493.00,0.0155
1492.00,0.0161
1491.00,0.0167
1490.00,0.0173
1489.00,0.0181
1488.00,0.0190
1487.00,0.0198
1486.00,0.0207
1485.00,0.0218
1484.00,0.0230
1483.00,0.0243
1482.00,0.0259
1481.00,0.0278
1480.00,0.0296
1479.00,0.0315
1478.00,0.0334
1477.00,0.0357
1476.00,0.0383
1475.00,0.0412
1474.00,0.0448
1473.00,0.0499
1472.00,0.0557
1471.00,0.0611
1470.00,0.0661
1469.00,0.0713
1468.00,0.0770
1467.00,0.0832
1466.00,0.0901
1465.00,0.0976
1464.00,0.1041
1463.00,0.1084
1462.00,0.1111
1461.00,0.1129
1460.00,0.1142
1459.00,0.1150
1458.00,0.1155
1457.00,0.1158
1456.00,0.1154
1455.00,0.1145
1454.00,0.1134
1453.00,0.1120
1452.00,0.1098
1451.00,0.1068
1450.00,0.1028
1449.00,0.0971
1448.00,0.0898
1447.00,0.0820
1446.00,0.0749
1445.00,0.0689
1444.00,0.0636
1443.00,0.0592
1442.00,0.0558
1441.00,0.0534
1440.00,0.0519
1439.00,0.0512
1438.00,0.0512
1437.00,0.0513
1436.00,0.0504
1435.00,0.0484
1434.00,0.0454
1433.00,0.0418
1432.00,0.0380
1431.00,0.0346
1430.00,0.0319
1429.00,0.0300
1428.00,0.0287
1427.00,0.0279
1426.00,0.0275
1425.00,0.0271
1424.00,0.0269
1423.00,0.0267
1422.00,0.0266
1421.00,0.0265
1420.00,0.0264
1419.00,0.0262
1418.00,0.0259
1417.00,0.0254
1416.00,0.0249
1415.00,0.0245
1414.00,0.0242
1413.00,0.0239
1412.00,0.0235
1411.00,0.0232
1410.00,0.0230
1409.00,0.0227
1408.00,0.0224
1407.00,0.0221
1406.00,0.0219
1405.00,0.0216
1404.00,0.0213
1403.00,0.0212
1402.00,0.0211
1401.00,0.0210
1400.00,0.0208
1399.00,0.0208
1398.00,0.0209
1397.00,0.0210
1396.00,0.0211
1395.00,0.0214
1394.00,0.0218
1393.00,0.0221
1392.00,0.0225
1391.00,0.0231
1390.00,0.0240
1389.00,0.0252
1388.00,0.0270
1387.00,0.0297
1386.00,0.0334
1385.00,0.0380
1384.00,0.0445
1383.00,0.0534
1382.00,0.0653
1381.00,0.0807
1380.00,0.0999
1379.00,0.1221
1378.00,0.1444
1377.00,0.1617
1376.00,0.1692
1375.00,0.1634
1374.00,0.1460
1373.00,0.1237
1372.00,0.1027
1371.00,0.0850
1370.00,0.0707
1369.00,0.0596
1368.00,0.0519
1367.00,0.0471
1366.00,0.0443
1365.00,0.0430
1364.00,0.0429
1363.00,0.0437
1362.00,0.0451
1361.00,0.0467
1360.00,0.0478
1359.00,0.0481
1358.00,0.0471
1357.00,0.0449
1356.00,0.0419
1355.00,0.0385
1354.00,0.0353
1353.00,0.0325
1352.00,0.0303
1351.00,0.0286
1350.00,0.0272
1349.00,0.0261
1348.00,0.0251
1347.00,0.0243
1346.00,0.0236
1345.00,0.0230
1344.00,0.0226
1343.00,0.0223
1342.00,0.0220
1341.00,0.0219
1340.00,0.0218
1339.00,0.0217
1338.00,0.0216
1337.00,0.0216
1336.00,0.0216
1335.00,0.0217
1334.00,0.0219
1333.00,0.0223
1332.00,0.0226
1331.00,0.0228
1330.00,0.0228
1329.00,0.0227
1328.00,0.0225
1327.00,0.0221
1326.00,0.0218
1325.00,0.0214
1324.00,0.0210
1323.00,0.0207
1322.00,0.0205
1321.00,0.0203
1320.00,0.0203
1319.00,0.0202
1318.00,0.0201
1317.00,0.0200
1316.00,0.0200
1315.00,0.0199
1314.00,0.0198
1313.00,0.0197
1312.00,0.0197
1311.00,0.0197
1310.00,0.0200
1309.00,0.0204
1308.00,0.0210
1307.00,0.0218
1306.00,0.0225
1305.00,0.0230
1304.00,0.0231
1303.00,0.0228
1302.00,0.0223
1301.00,0.0218
1300.00,0.0215
1299.00,0.0214
1298.00,0.0213
1297.00,0.0213
1296.00,0.0211
1295.00,0.0209
1294.00,0.0205
1293.00,0.0201
1292.00,0.0197
1291.00,0.0193
1290.00,0.0189
1289.00,0.0186
1288.00,0.0182
1287.00,0.0180
1286.00,0.0177
1285.00,0.0175
1284.00,0.0173
1283.00,0.0171
1282.00,0.0169
1281.00,0.0167
1280.00,0.0165
1279.00,0.0164
1278.00,0.0164
1277.00,0.0163
1276.00,0.0162
1275.00,0.0162
1274.00,0.0162
1273.00,0.0163
1272.00,0.0164
1271.00,0.0165
1270.00,0.0166
1269.00,0.0168
1268.00,0.0171
1267.00,0.0174
1266.00,0.0177
1265.00,0.0180
1264.00,0.0182
1263.00,0.0184
1262.00,0.0186
1261.00,0.0188
1260.00,0.0191
1259.00,0.0194
1258.00,0.0198
1257.00,0.0200
1256.00,0.0201
1255.00,0.0198
1254.00,0.0192
1253.00,0.0184
1252.00,0.0177
1251.00,0.0171
1250.00,0.0166
1249.00,0.0164
1248.00,0.0162
1247.00,0.0160
1246.00,0.0158
1245.00,0.0157
1244.00,0.0156
1243.00,0.0155
1242.00,0.0154
1241.00,0.0154
1240.00,0.0153
1239.00,0.0153
1238.00,0.0152
1237.00,0.0152
1236.00,0.0152
1235.00,0.0152
1234.00,0.0153
1233.00,0.0154
1232.00,0.0154
1231.00,0.0155
1230.00,0.0157
1229.00,0.0158
1228.00,0.0159
1227.00,0.0161
1226.00,0.0164
1225.00,0.0168
1224.00,0.0173
1223.00,0.0178
1222.00,0.0183
1221.00,0.0189
1220.00,0.0194
1219.00,0.0199
1218.00,0.0202
1217.00,0.0205
1216.00,0.0206
1215.00,0.0206
1214.00,0.0205
1213.00,0.0204
1212.00,0.0203
1211.00,0.0201
1210.00,0.0201
1209.00,0.0200
1208.00,0.0200
1207.00,0.0200
1206.00,0.0200
1205.00,0.0201
1204.00,0.0202
1203.00,0.0203
1202.00,0.0205
1201.00,0.0206
1200.00,0.0207
1199.00,0.0209
1198.00,0.0210
1197.00,0.0211
1196.00,0.0213
1195.00,0.0214
1194.00,0.0216
1193.00,0.0217
1192.00,0.0217
1191.00,0.0218
1190.00,0.0218
1189.00,0.0218
1188.00,0.0219
1187.00,0.0220
1186.00,0.0219
1185.00,0.0219
1184.00,0.0219
1183.00,0.0219
1182.00,0.0221
1181.00,0.0224
1180.00,0.0229
1179.00,0.0234
1178.00,0.0240
1177.00,0.0248
1176.00,0.0259
1175.00,0.0272
1174.00,0.0290
1173.00,0.0313
1172.00,0.0340
1171.00,0.0370
1170.00,0.0400
1169.00,0.0426
1168.00,0.0443
1167.00,0.0450
1166.00,0.0450
1165.00,0.0444
1164.00,0.0437
1163.00,0.0430
1162.00,0.0425
1161.00,0.0423
1160.00,0.0422
1159.00,0.0423
1158.00,0.0426
1157.00,0.0430
1156.00,0.0435
1155.00,0.0440
1154.00,0.0444
1153.00,0.0447
1152.00,0.0448
1151.00,0.0447
1150.00,0.0443
1149.00,0.0438
1148.00,0.0432
1147.00,0.0427
1146.00,0.0422
1145.00,0.0418
1144.00,0.0415
1143.00,0.0413
1142.00,0.0412
1141.00,0.0411
1140.00,0.0412
1139.00,0.0414
1138.00,0.0417
1137.00,0.0420
1136.00,0.0426
1135.00,0.0433
1134.00,0.0441
1133.00,0.0450
1132.00,0.0459
1131.00,0.0469
1130.00,0.0479
1129.00,0.0489
1128.00,0.0499
1127.00,0.0508
1126.00,0.0516
1125.00,0.0523
1124.00,0.0530
1123.00,0.0536
1122.00,0.0542
1121.00,0.0548
1120.00,0.0554
1119.00,0.0558
1118.00,0.0562
1117.00,0.0565
1116.00,0.0568
1115.00,0.0571
1114.00,0.0573
1113.00,0.0575
1112.00,0.0578
1111.00,0.0580
1110.00,0.0582
1109.00,0.0584
1108.00,0.0587
1107.00,0.0591
1106.00,0.0595
1105.00,0.0600
1104.00,0.0604
1103.00,0.0606
1102.00,0.0606
1101.00,0.0603
1100.00,0.0600
1099.00,0.0595
1098.00,0.0590
1097.00,0.0586
1096.00,0.0581
1095.00,0.0578
1094.00,0.0576
1093.00,0.0575
1092.00,0.0575
1091.00,0.0576
1090.00,0.0578
1089.00,0.0581
1088.00,0.0585
1087.00,0.0590
1086.00,0.0596
1085.00,0.0601
1084.00,0.0607
1083.00,0.0612
1082.00,0.0616
1081.00,0.0620
1080.00,0.0623
1079.00,0.0627
1078.00,0.0631
1077.00,0.0635
1076.00,0.0639
1075.00,0.0642
1074.00,0.0644
1073.00,0.0646
1072.00,0.0648
1071.00,0.0651
1070.00,0.0654
1069.00,0.0656
1068.00,0.0658
1067.00,0.0660
1066.00,0.0661
1065.00,0.0662
1064.00,0.0664
1063.00,0.0664
1062.00,0.0664
1061.00,0.0663
1060.00,0.0662
1059.00,0.0660
1058.00,0.0657
1057.00,0.0654
1056.00,0.0651
1055.00,0.0647
1054.00,0.0643
1053.00,0.0638
1052.00,0.0634
1051.00,0.0629
1050.00,0.0623
1049.00,0.0617
1048.00,0.0612
1047.00,0.0608
1046.00,0.0604
1045.00,0.0598
1044.00,0.0591
1043.00,0.0583
1042.00,0.0575
1041.00,0.0567
1040.00,0.0561
1039.00,0.0555
1038.00,0.0549
1037.00,0.0543
1036.00,0.0538
1035.00,0.0531
1034.00,0.0523
1033.00,0.0515
1032.00,0.0506
1031.00,0.0497
1030.00,0.0489
1029.00,0.0481
1028.00,0.0474
1027.00,0.0467
1026.00,0.0460
1025.00,0.0454
1024.00,0.0448
1023.00,0.0441
1022.00,0.0434
1021.00,0.0427
1020.00,0.0421
1019.00,0.0415
1018.00,0.0410
1017.00,0.0406
1016.00,0.0402
1015.00,0.0398
1014.00,0.0395
1013.00,0.0392
1012.00,0.0389
1011.00,0.0385
1010.00,0.0379
1009.00,0.0373
1008.00,0.0368
1007.00,0.0364
1006.00,0.0361
1005.00,0.0362
1004.00,0.0368
1003.00,0.0379
1002.00,0.0397
1001.00,0.0423
1000.00,0.0451
999.00,0.0474
998.00,0.0482
997.00,0.0470
996.00,0.0440
995.00,0.0401
994.00,0.0361
993.00,0.0327
992.00,0.0299
991.00,0.0277
990.00,0.0261
989.00,0.0249
988.00,0.0241
987.00,0.0235
986.00,0.0230
985.00,0.0228
984.00,0.0228
983.00,0.0232
982.00,0.0240
981.00,0.0252
980.00,0.0270
979.00,0.0293
978.00,0.0323
977.00,0.0358
976.00,0.0396
975.00,0.0431
974.00,0.0457
973.00,0.0466
972.00,0.0453
971.00,0.0421
970.00,0.0379
969.00,0.0336
968.00,0.0301
967.00,0.0276
966.00,0.0259
965.00,0.0249
964.00,0.0243
963.00,0.0240
962.00,0.0238
961.00,0.0238
960.00,0.0239
959.00,0.0240
958.00,0.0241
957.00,0.0243
956.00,0.0244
955.00,0.0245
954.00,0.0247
953.00,0.0248
952.00,0.0250
951.00,0.0252
950.00,0.0254
949.00,0.0256
948.00,0.0257
947.00,0.0257
946.00,0.0257
945.00,0.0256
944.00,0.0255
943.00,0.0254
942.00,0.0252
941.00,0.0248
940.00,0.0243
939.00,0.0236
938.00,0.0228
937.00,0.0219
936.00,0.0210
935.00,0.0203
934.00,0.0197
933.00,0.0192
932.00,0.0188
931.00,0.0185
930.00,0.0184
929.00,0.0182
928.00,0.0180
927.00,0.0179
926.00,0.0177
925.00,0.0175
924.00,0.0172
923.00,0.0169
922.00,0.0165
921.00,0.0163
920.00,0.0161
919.00,0.0159
918.00,0.0158
917.00,0.0158
916.00,0.0157
915.00,0.0156
914.00,0.0155
913.00,0.0155
912.00,0.0155
911.00,0.0156
910.00,0.0157
909.00,0.0158
908.00,0.0159
907.00,0.0162
906.00,0.0168
905.00,0.0176
904.00,0.0188
903.00,0.0204
902.00,0.0220
901.00,0.0235
900.00,0.0244
899.00,0.0247
898.00,0.0240
897.00,0.0227
896.00,0.0211
895.00,0.0195
894.00,0.0181
893.00,0.0172
892.00,0.0165
891.00,0.0160
890.00,0.0156
889.00,0.0152
888.00,0.0150
887.00,0.0148
886.00,0.0146
885.00,0.0143
884.00,0.0142
883.00,0.0140
882.00,0.0140
881.00,0.0140
880.00,0.0142
879.00,0.0143
878.00,0.0144
877.00,0.0144
876.00,0.0144
875.00,0.0143
874.00,0.0143
873.00,0.0142
872.00,0.0139
871.00,0.0134
870.00,0.0131
869.00,0.0128
868.00,0.0127
867.00,0.0128
866.00,0.0128
865.00,0.0128
864.00,0.0129
863.00,0.0130
862.00,0.0132
861.00,0.0134
860.00,0.0136
859.00,0.0137
858.00,0.0139
857.00,0.0141
856.00,0.0142
855.00,0.0143
854.00,0.0144
853.00,0.0145
852.00,0.0148
851.00,0.0152
850.00,0.0157
849.00,0.0162
848.00,0.0169
847.00,0.0179
846.00,0.0195
845.00,0.0220
844.00,0.0256
843.00,0.0299
842.00,0.0335
841.00,0.0346
840.00,0.0328
839.00,0.0289
838.00,0.0246
837.00,0.0212
836.00,0.0189
835.00,0.0176
834.00,0.0169
833.00,0.0164
832.00,0.0161
831.00,0.0157
830.00,0.0154
829.00,0.0152
828.00,0.0152
827.00,0.0152
826.00,0.0153
825.00,0.0154
824.00,0.0154
823.00,0.0155
822.00,0.0155
821.00,0.0155
820.00,0.0157
819.00,0.0159
818.00,0.0163
817.00,0.0168
816.00,0.0176
815.00,0.0186
814.00,0.0201
813.00,0.0219
812.00,0.0238
811.00,0.0254
810.00,0.0266
809.00,0.0270
808.00,0.0265
807.00,0.0254
806.00,0.0240
805.00,0.0224
804.00,0.0211
803.00,0.0200
802.00,0.0191
801.00,0.0184
800.00,0.0178
799.00,0.0172
798.00,0.0168
797.00,0.0165
796.00,0.0161
795.00,0.0158
794.00,0.0154
793.00,0.0152
792.00,0.0151
791.00,0.0152
790.00,0.0151
789.00,0.0148
788.00,0.0144
787.00,0.0141
786.00,0.0139
785.00,0.0138
784.00,0.0137
783.00,0.0138
782.00,0.0139
781.00,0.0140
780.00,0.0140
779.00,0.0139
778.00,0.0138
777.00,0.0138
776.00,0.0139
775.00,0.0139
774.00,0.0140
773.00,0.0138
772.00,0.0136
771.00,0.0135
770.00,0.0135
769.00,0.0135
768.00,0.0134
767.00,0.0133
766.00,0.0131
765.00,0.0130
764.00,0.0129
763.00,0.0129
762.00,0.0130
761.00,0.0131
760.00,0.0132
759.00,0.0133
758.00,0.0134
757.00,0.0133
756.00,0.0133
755.00,0.0133
754.00,0.0134
753.00,0.0136
752.00,0.0137
751.00,0.0138
750.00,0.0140
749.00,0.0141
748.00,0.0140
747.00,0.0140
746.00,0.0141
745.00,0.0143
744.00,0.0147
743.00,0.0150
742.00,0.0152
741.00,0.0155
740.00,0.0159
739.00,0.0163
738.00,0.0168
737.00,0.0174
736.00,0.0180
735.00,0.0185
734.00,0.0189
733.00,0.0193
732.00,0.0199
731.00,0.0207
730.00,0.0213
729.00,0.0217
728.00,0.0218
727.00,0.0219
726.00,0.0222
725.00,0.0227
724.00,0.0234
723.00,0.0241
722.00,0.0249
721.00,0.0253
720.00,0.0252
719.00,0.0244
718.00,0.0232
717.00,0.0218
716.00,0.0208
715.00,0.0201
714.00,0.0197
713.00,0.0194
712.00,0.0192
711.00,0.0190
710.00,0.0188
709.00,0.0186
708.00,0.0184
707.00,0.0183
706.00,0.0183
705.00,0.0183
704.00,0.0182
703.00,0.0180
702.00,0.0178
701.00,0.0176
700.00,0.0175
699.00,0.0175
698.00,0.0174
697.00,0.0173
696.00,0.0171
695.00,0.0169
694.00,0.0167
693.00,0.0166
692.00,0.0168
691.00,0.0170
690.00,0.0172
689.00,0.0173
688.00,0.0172
687.00,0.0172
686.00,0.0172
685.00,0.0172
684.00,0.0173
683.00,0.0175
682.00,0.0177
681.00,0.0178
680.00,0.0180
679.00,0.0182
678.00,0.0185
677.00,0.0188
676.00,0.0191
675.00,0.0195
674.00,0.0198
673.00,0.0202
672.00,0.0205
671.00,0.0206
670.00,0.0206
669.00,0.0206
668.00,0.0207
667.00,0.0210
666.00,0.0213
665.00,0.0213
664.00,0.0213
663.00,0.0212
662.00,0.0211
661.00,0.0211
660.00,0.0211
659.00,0.0210
658.00,0.0210
657.00,0.0209
656.00,0.0208
655.00,0.0207
654.00,0.0207
653.00,0.0207
652.00,0.0207
651.00,0.0208
650.00,0.0209
649.00,0.0209
648.00,0.0208
647.00,0.0207
646.00,0.0207
645.00,0.0209
644.00,0.0211
643.00,0.0213
642.00,0.0214
641.00,0.0215
640.00,0.0216
639.00,0.0215
638.00,0.0215
637.00,0.0216
636.00,0.0217
635.00,0.0218
634.00,0.0219
633.00,0.0221
632.00,0.0222
631.00,0.0222
630.00,0.0219
629.00,0.0216
628.00,0.0216
627.00,0.0218
626.00,0.0222
625.00,0.0225
624.00,0.0227
623.00,0.0230
622.00,0.0231
621.00,0.0230
620.00,0.0229
619.00,0.0228
618.00,0.0227
617.00,0.0226
616.00,0.0227
615.00,0.0230
614.00,0.0235
613.00,0.0239
612.00,0.0241
611.00,0.0241
610.00,0.0239
609.00,0.0237
608.00,0.0236
607.00,0.0236
606.00,0.0237
605.00,0.0236
604.00,0.0234
603.00,0.0233
602.00,0.0233
601.00,0.0234
600.00,0.0234
599.00,0.0236
598.00,0.0237
597.00,0.0239
596.00,0.0241
595.00,0.0242
594.00,0.0243
593.00,0.0244
592.00,0.0243
591.00,0.0242
590.00,0.0241
589.00,0.0242
588.00,0.0244
587.00,0.0245
586.00,0.0246
585.00,0.0246
584.00,0.0245
583.00,0.0242
582.00,0.0240
581.00,0.0240
580.00,0.0243
579.00,0.0248
578.00,0.0253
577.00,0.0255
576.00,0.0255
575.00,0.0252
574.00,0.0249
573.00,0.0244
572.00,0.0243
571.00,0.0244
570.00,0.0246
569.00,0.0246
568.00,0.0244
567.00,0.0241
566.00,0.0241
565.00,0.0243
564.00,0.0246
563.00,0.0246
562.00,0.0244
561.00,0.0240
560.00,0.0238
559.00,0.0238
558.00,0.0240
557.00,0.0243
556.00,0.0243
555.00,0.0243
554.00,0.0240
553.00,0.0237
552.00,0.0232
551.00,0.0228
550.00,0.0227
549.00,0.0228
548.00,0.0231
547.00,0.0234
546.00,0.0237
545.00,0.0239
544.00,0.0241
543.00,0.0241
542.00,0.0239
541.00,0.0236
540.00,0.0236
539.00,0.0239
538.00,0.0245
537.00,0.0249
536.00,0.0248
535.00,0.0245
534.00,0.0242
533.00,0.0240
532.00,0.0240
531.00,0.0240
530.00,0.0239
529.00,0.0236
528.00,0.0235
527.00,0.0236
526.00,0.0238
525.00,0.0238
524.00,0.0236
523.00,0.0234
522.00,0.0233
521.00,0.0232
520.00,0.0231
519.00,0.0230
518.00,0.0228
517.00,0.0225
516.00,0.0224
515.00,0.0226
514.00,0.0228
513.00,0.0228
512.00,0.0226
511.00,0.0223
510.00,0.0222
509.00,0.0223
508.00,0.0222
507.00,0.0220
506.00,0.0217
505.00,0.0214
504.00,0.0211
503.00,0.0208
502.00,0.0206
501.00,0.0208
500.00,0.0215
499.00,0.0225
498.00,0.0231
497.00,0.0228
496.00,0.0220
495.00,0.0212
494.00,0.0210
493.00,0.0212
492.00,0.0216
491.00,0.0216
490.00,0.0215
489.00,0.0214
488.00,0.0213
487.00,0.0216
486.00,0.0223
485.00,0.0230
484.00,0.0231
483.00,0.0224
482.00,0.0215
481.00,0.0208
480.00,0.0205
479.00,0.0205
478.00,0.0207
477.00,0.0210
476.00,0.0214
475.00,0.0215
474.00,0.0212
473.00,0.0210
472.00,0.0214
471.00,0.0224
470.00,0.0231
469.00,0.0231
468.00,0.0225
467.00,0.0222
466.00,0.0226
465.00,0.0234
464.00,0.0241
463.00,0.0245
462.00,0.0247
461.00,0.0251
460.00,0.0259
459.00,0.0269
458.00,0.0272
457.00,0.0266
456.00,0.0258
455.00,0.0252
454.00,0.0250
453.00,0.0251
452.00,0.0250
451.00,0.0244
450.00,0.0229
