Created as New Dataset,Sample 147 By Administrator Date Tuesday, September 09 2025
cm-1,A
4000.00,0.0009
3999.00,0.0009
3998.00,0.0010
3997.00,0.0010
3996.00,0.0010
3995.00,0.0010
3994.00,0.0010
3993.00,0.0010
3992.00,0.0010
3991.00,0.0010
3990.00,0.0010
3989.00,0.0010
3988.00,0.0009
3987.00,0.0009
3986.00,0.0009
3985.00,0.0009
3984.00,0.0009
3983.00,0.0009
3982.00,0.0009
3981.00,0.0009
3980.00,0.0009
3979.00,0.0009
3978.00,0.0009
3977.00,0.0009
3976.00,0.0009
3975.00,0.0009
3974.00,0.0009
3973.00,0.0008
3972.00,0.0008
3971.00,0.0008
3970.00,0.0008
3969.00,0.0008
3968.00,0.0008
3967.00,0.0008
3966.00,0.0008
3965.00,0.0009
3964.00,0.0009
3963.00,0.0009
3962.00,0.0008
3961.00,0.0008
3960.00,0.0008
3959.00,0.0008
3958.00,0.0009
3957.00,0.0008
3956.00,0.0008
3955.00,0.0008
3954.00,0.0007
3953.00,0.0007
3952.00,0.0008
3951.00,0.0008
3950.00,0.0009
3949.00,0.0009
3948.00,0.0009
3947.00,0.0009
3946.00,0.0009
3945.00,0.0009
3944.00,0.0008
3943.00,0.0008
3942.00,0.0008
3941.00,0.0008
3940.00,0.0008
3939.00,0.0008
3938.00,0.0008
3937.00,0.0008
3936.00,0.0008
3935.00,0.0008
3934.00,0.0009
3933.00,0.0009
3932.00,0.0009
3931.00,0.0009
3930.00,0.0009
3929.00,0.0008
3928.00,0.0008
3927.00,0.0007
3926.00,0.0007
3925.00,0.0007
3924.00,0.0007
3923.00,0.0008
3922.00,0.0008
3921.00,0.0008
3920.00,0.0009
3919.00,0.0009
3918.00,0.0008
3917.00,0.0008
3916.00,0.0008
3915.00,0.0008
3914.00,0.0008
3913.00,0.0008
3912.00,0.0008
3911.00,0.0008
3910.00,0.0008
3909.00,0.0008
3908.00,0.0008
3907.00,0.0008
3906.00,0.0007
3905.00,0.0007
3904.00,0.0007
3903.00,0.0007
3902.00,0.0007
3901.00,0.0007
3900.00,0.0007
3899.00,0.0008
3898.00,0.0008
3897.00,0.0008
3896.00,0.0008
3895.00,0.0008
3894.00,0.0009
3893.00,0.0009
3892.00,0.0009
3891.00,0.0008
3890.00,0.0008
3889.00,0.0008
3888.00,0.0008
3887.00,0.0008
3886.00,0.0008
3885.00,0.0008
3884.00,0.0008
3883.00,0.0008
3882.00,0.0008
3881.00,0.0008
3880.00,0.0008
3879.00,0.0008
3878.00,0.0008
3877.00,0.0007
3876.00,0.0007
3875.00,0.0007
3874.00,0.0007
3873.00,0.0008
3872.00,0.0008
3871.00,0.0008
3870.00,0.0007
3869.00,0.0007
3868.00,0.0007
3867.00,0.0007
3866.00,0.0007
3865.00,0.0007
3864.00,0.0007
3863.00,0.0006
3862.00,0.0006
3861.00,0.0006
3860.00,0.0006
3859.00,0.0006
3858.00,0.0007
3857.00,0.0007
3856.00,0.0006
3855.00,0.0006
3854.00,0.0006
3853.00,0.0006
3852.00,0.0006
3851.00,0.0007
3850.00,0.0007
3849.00,0.0007
3848.00,0.0007
3847.00,0.0006
3846.00,0.0006
3845.00,0.0007
3844.00,0.0007
3843.00,0.0007
3842.00,0.0007
3841.00,0.0007
3840.00,0.0007
3839.00,0.0006
3838.00,0.0006
3837.00,0.0006
3836.00,0.0006
3835.00,0.0007
3834.00,0.0007
3833.00,0.0007
3832.00,0.0007
3831.00,0.0007
3830.00,0.0006
3829.00,0.0006
3828.00,0.0006
3827.00,0.0006
3826.00,0.0007
3825.00,0.0007
3824.00,0.0007
3823.00,0.0007
3822.00,0.0007
3821.00,0.0007
3820.00,0.0007
3819.00,0.0006
3818.00,0.0006
3817.00,0.0007
3816.00,0.0007
3815.00,0.0007
3814.00,0.0008
3813.00,0.0008
3812.00,0.0008
3811.00,0.0007
3810.00,0.0007
3809.00,0.0007
3808.00,0.0007
3807.00,0.0007
3806.00,0.0006
3805.00,0.0006
3804.00,0.0006
3803.00,0.0005
3802.00,0.0005
3801.00,0.0006
3800.00,0.0006
3799.00,0.0007
3798.00,0.0007
3797.00,0.0007
3796.00,0.0007
3795.00,0.0007
3794.00,0.0007
3793.00,0.0007
3792.00,0.0007
3791.00,0.0007
3790.00,0.0008
3789.00,0.0008
3788.00,0.0008
3787.00,0.0008
3786.00,0.0007
3785.00,0.0007
3784.00,0.0007
3783.00,0.0007
3782.00,0.0007
3781.00,0.0007
3780.00,0.0007
3779.00,0.0007
3778.00,0.0008
3777.00,0.0008
3776.00,0.0008
3775.00,0.0008
3774.00,0.0008
3773.00,0.0008
3772.00,0.0008
3771.00,0.0008
3770.00,0.0008
3769.00,0.0008
3768.00,0.0008
3767.00,0.0008
3766.00,0.0008
3765.00,0.0008
3764.00,0.0008
3763.00,0.0009
3762.00,0.0009
3761.00,0.0009
3760.00,0.0009
3759.00,0.0009
3758.00,0.0009
3757.00,0.0009
3756.00,0.0009
3755.00,0.0009
3754.00,0.0008
3753.00,0.0008
3752.00,0.0008
3751.00,0.0008
3750.00,0.0008
3749.00,0.0008
3748.00,0.0007
3747.00,0.0007
3746.00,0.0007
3745.00,0.0007
3744.00,0.0006
3743.00,0.0006
3742.00,0.0006
3741.00,0.0006
3740.00,0.0006
3739.00,0.0006
3738.00,0.0006
3737.00,0.0006
3736.00,0.0006
3735.00,0.0005
3734.00,0.0005
3733.00,0.0006
3732.00,0.0006
3731.00,0.0006
3730.00,0.0006
3729.00,0.0006
3728.00,0.0006
3727.00,0.0006
3726.00,0.0006
3725.00,0.0006
3724.00,0.0006
3723.00,0.0006
3722.00,0.0006
3721.00,0.0006
3720.00,0.0006
3719.00,0.0007
3718.00,0.0007
3717.00,0.0007
3716.00,0.0007
3715.00,0.0008
3714.00,0.0008
3713.00,0.0007
3712.00,0.0007
3711.00,0.0007
3710.00,0.0006
3709.00,0.0005
3708.00,0.0005
3707.00,0.0005
3706.00,0.0005
3705.00,0.0005
3704.00,0.0005
3703.00,0.0006
3702.00,0.0006
3701.00,0.0006
3700.00,0.0007
3699.00,0.0007
3698.00,0.0006
3697.00,0.0006
3696.00,0.0006
3695.00,0.0005
3694.00,0.0005
3693.00,0.0005
3692.00,0.0005
3691.00,0.0005
3690.00,0.0005
3689.00,0.0005
3688.00,0.0006
3687.00,0.0006
3686.00,0.0006
3685.00,0.0006
3684.00,0.0006
3683.00,0.0005
3682.00,0.0005
3681.00,0.0005
3680.00,0.0005
3679.00,0.0005
3678.00,0.0004
3677.00,0.0004
3676.00,0.0004
3675.00,0.0004
3674.00,0.0004
3673.00,0.0005
3672.00,0.0006
3671.00,0.0006
3670.00,0.0006
3669.00,0.0006
3668.00,0.0006
3667.00,0.0006
3666.00,0.0007
3665.00,0.0007
3664.00,0.0007
3663.00,0.0007
3662.00,0.0006
3661.00,0.0006
3660.00,0.0006
3659.00,0.0007
3658.00,0.0007
3657.00,0.0007
3656.00,0.0007
3655.00,0.0007
3654.00,0.0007
3653.00,0.0007
3652.00,0.0006
3651.00,0.0006
3650.00,0.0006
3649.00,0.0006
3648.00,0.0006
3647.00,0.0007
3646.00,0.0007
3645.00,0.0007
3644.00,0.0007
3643.00,0.0007
3642.00,0.0008
3641.00,0.0008
3640.00,0.0008
3639.00,0.0008
3638.00,0.0008
3637.00,0.0009
3636.00,0.0009
3635.00,0.0009
3634.00,0.0009
3633.00,0.0009
3632.00,0.0009
3631.00,0.0008
3630.00,0.0008
3629.00,0.0008
3628.00,0.0008
3627.00,0.0008
3626.00,0.0008
3625.00,0.0008
3624.00,0.0008
3623.00,0.0008
3622.00,0.0008
3621.00,0.0008
3620.00,0.0008
3619.00,0.0008
3618.00,0.0007
3617.00,0.0007
3616.00,0.0008
3615.00,0.0008
3614.00,0.0008
3613.00,0.0009
3612.00,0.0009
3611.00,0.0009
3610.00,0.0009
3609.00,0.0009
3608.00,0.0009
3607.00,0.0009
3606.00,0.0009
3605.00,0.0010
3604.00,0.0010
3603.00,0.0010
3602.00,0.0010
3601.00,0.0010
3600.00,0.0010
3599.00,0.0010
3598.00,0.0011
3597.00,0.0011
3596.00,0.0011
3595.00,0.0011
3594.00,0.0011
3593.00,0.0011
3592.00,0.0011
3591.00,0.0011
3590.00,0.0011
3589.00,0.0012
3588.00,0.0012
3587.00,0.0012
3586.00,0.0013
3585.00,0.0013
3584.00,0.0013
3583.00,0.0013
3582.00,0.0013
3581.00,0.0013
3580.00,0.0013
3579.00,0.0014
3578.00,0.0014
3577.00,0.0014
3576.00,0.0015
3575.00,0.0015
3574.00,0.0016
3573.00,0.0015
3572.00,0.0015
3571.00,0.0015
3570.00,0.0015
3569.00,0.0015
3568.00,0.0016
3567.00,0.0016
3566.00,0.0016
3565.00,0.0016
3564.00,0.0017
3563.00,0.0017
3562.00,0.0017
3561.00,0.0018
3560.00,0.0018
3559.00,0.0019
3558.00,0.0019
3557.00,0.0019
3556.00,0.0019
3555.00,0.0019
3554.00,0.0019
3553.00,0.0019
3552.00,0.0019
3551.00,0.0019
3550.00,0.0020
3549.00,0.0020
3548.00,0.0021
3547.00,0.0021
3546.00,0.0021
3545.00,0.0021
3544.00,0.0021
3543.00,0.0021
3542.00,0.0021
3541.00,0.0022
3540.00,0.0022
3539.00,0.0022
3538.00,0.0022
3537.00,0.0022
3536.00,0.0022
3535.00,0.0023
3534.00,0.0023
3533.00,0.0024
3532.00,0.0024
3531.00,0.0024
3530.00,0.0024
3529.00,0.0024
3528.00,0.0024
3527.00,0.0024
3526.00,0.0024
3525.00,0.0024
3524.00,0.0024
3523.00,0.0024
3522.00,0.0024
3521.00,0.0025
3520.00,0.0025
3519.00,0.0026
3518.00,0.0026
3517.00,0.0027
3516.00,0.0027
3515.00,0.0027
3514.00,0.0026
3513.00,0.0026
3512.00,0.0026
3511.00,0.0026
3510.00,0.0026
3509.00,0.0027
3508.00,0.0027
3507.00,0.0027
3506.00,0.0027
3505.00,0.0027
3504.00,0.0028
3503.00,0.0029
3502.00,0.0029
3501.00,0.0030
3500.00,0.0030
3499.00,0.0030
3498.00,0.0030
3497.00,0.0030
3496.00,0.0030
3495.00,0.0031
3494.00,0.0031
3493.00,0.0032
3492.00,0.0032
3491.00,0.0032
3490.00,0.0032
3489.00,0.0033
3488.00,0.0033
3487.00,0.0033
3486.00,0.0033
3485.00,0.0033
3484.00,0.0033
3483.00,0.0033
3482.00,0.0034
3481.00,0.0034
3480.00,0.0035
3479.00,0.0035
3478.00,0.0035
3477.00,0.0035
3476.00,0.0035
3475.00,0.0035
3474.00,0.0036
3473.00,0.0036
3472.00,0.0036
3471.00,0.0036
3470.00,0.0036
3469.00,0.0036
3468.00,0.0036
3467.00,0.0037
3466.00,0.0037
3465.00,0.0037
3464.00,0.0038
3463.00,0.0038
3462.00,0.0038
3461.00,0.0038
3460.00,0.0039
3459.00,0.0039
3458.00,0.0039
3457.00,0.0039
3456.00,0.0039
3455.00,0.0038
3454.00,0.0038
3453.00,0.0039
3452.00,0.0040
3451.00,0.0040
3450.00,0.0040
3449.00,0.0040
3448.00,0.0040
3447.00,0.0040
3446.00,0.0040
3445.00,0.0040
3444.00,0.0041
3443.00,0.0041
3442.00,0.0042
3441.00,0.0042
3440.00,0.0042
3439.00,0.0042
3438.00,0.0042
3437.00,0.0042
3436.00,0.0042
3435.00,0.0043
3434.00,0.0043
3433.00,0.0043
3432.00,0.0043
3431.00,0.0043
3430.00,0.0044
3429.00,0.0044
3428.00,0.0044
3427.00,0.0045
3426.00,0.0045
3425.00,0.0045
3424.00,0.0045
3423.00,0.0045
3422.00,0.0046
3421.00,0.0046
3420.00,0.0046
3419.00,0.0046
3418.00,0.0046
3417.00,0.0046
3416.00,0.0046
3415.00,0.0046
3414.00,0.0046
3413.00,0.0046
3412.00,0.0047
3411.00,0.0047
3410.00,0.0047
3409.00,0.0047
3408.00,0.0047
3407.00,0.0047
3406.00,0.0048
3405.00,0.0048
3404.00,0.0048
3403.00,0.0048
3402.00,0.0048
3401.00,0.0048
3400.00,0.0048
3399.00,0.0048
3398.00,0.0048
3397.00,0.0048
3396.00,0.0048
3395.00,0.0048
3394.00,0.0048
3393.00,0.0048
3392.00,0.0048
3391.00,0.0048
3390.00,0.0048
3389.00,0.0048
3388.00,0.0048
3387.00,0.0049
3386.00,0.0049
3385.00,0.0049
3384.00,0.0049
3383.00,0.0049
3382.00,0.0049
3381.00,0.0050
3380.00,0.0050
3379.00,0.0050
3378.00,0.0051
3377.00,0.0051
3376.00,0.0051
3375.00,0.0051
3374.00,0.0050
3373.00,0.0050
3372.00,0.0050
3371.00,0.0050
3370.00,0.0051
3369.00,0.0051
3368.00,0.0051
3367.00,0.0051
3366.00,0.0051
3365.00,0.0051
3364.00,0.0051
3363.00,0.0051
3362.00,0.0051
3361.00,0.0051
3360.00,0.0051
3359.00,0.0052
3358.00,0.0052
3357.00,0.0052
3356.00,0.0052
3355.00,0.0052
3354.00,0.0052
3353.00,0.0052
3352.00,0.0052
3351.00,0.0052
3350.00,0.0053
3349.00,0.0053
3348.00,0.0053
3347.00,0.0053
3346.00,0.0052
3345.00,0.0052
3344.00,0.0052
3343.00,0.0051
3342.00,0.0051
3341.00,0.0051
3340.00,0.0051
3339.00,0.0051
3338.00,0.0051
3337.00,0.0051
3336.00,0.0051
3335.00,0.0051
3334.00,0.0051
3333.00,0.0051
3332.00,0.0051
3331.00,0.0051
3330.00,0.0050
3329.00,0.0051
3328.00,0.0051
3327.00,0.0051
3326.00,0.0051
3325.00,0.0051
3324.00,0.0051
3323.00,0.0051
3322.00,0.0051
3321.00,0.0051
3320.00,0.0051
3319.00,0.0051
3318.00,0.0051
3317.00,0.0051
3316.00,0.0051
3315.00,0.0051
3314.00,0.0051
3313.00,0.0051
3312.00,0.0051
3311.00,0.0051
3310.00,0.0051
3309.00,0.0050
3308.00,0.0050
3307.00,0.0050
3306.00,0.0050
3305.00,0.0050
3304.00,0.0050
3303.00,0.0050
3302.00,0.0050
3301.00,0.0050
3300.00,0.0050
3299.00,0.0050
3298.00,0.0050
3297.00,0.0049
3296.00,0.0049
3295.00,0.0049
3294.00,0.0050
3293.00,0.0050
3292.00,0.0050
3291.00,0.0050
3290.00,0.0050
3289.00,0.0050
3288.00,0.0050
3287.00,0.0050
3286.00,0.0050
3285.00,0.0050
3284.00,0.0050
3283.00,0.0049
3282.00,0.0048
3281.00,0.0048
3280.00,0.0048
3279.00,0.0047
3278.00,0.0048
3277.00,0.0048
3276.00,0.0048
3275.00,0.0048
3274.00,0.0047
3273.00,0.0047
3272.00,0.0048
3271.00,0.0048
3270.00,0.0048
3269.00,0.0048
3268.00,0.0048
3267.00,0.0048
3266.00,0.0048
3265.00,0.0047
3264.00,0.0047
3263.00,0.0047
3262.00,0.0047
3261.00,0.0046
3260.00,0.0046
3259.00,0.0045
3258.00,0.0045
3257.00,0.0044
3256.00,0.0044
3255.00,0.0044
3254.00,0.0044
3253.00,0.0044
3252.00,0.0044
3251.00,0.0044
3250.00,0.0044
3249.00,0.0044
3248.00,0.0044
3247.00,0.0044
3246.00,0.0043
3245.00,0.0043
3244.00,0.0043
3243.00,0.0044
3242.00,0.0044
3241.00,0.0044
3240.00,0.0043
3239.00,0.0043
3238.00,0.0043
3237.00,0.0043
3236.00,0.0043
3235.00,0.0043
3234.00,0.0044
3233.00,0.0044
3232.00,0.0044
3231.00,0.0044
3230.00,0.0044
3229.00,0.0044
3228.00,0.0044
3227.00,0.0044
3226.00,0.0044
3225.00,0.0044
3224.00,0.0045
3223.00,0.0045
3222.00,0.0046
3221.00,0.0046
3220.00,0.0046
3219.00,0.0046
3218.00,0.0046
3217.00,0.0046
3216.00,0.0046
3215.00,0.0046
3214.00,0.0047
3213.00,0.0047
3212.00,0.0048
3211.00,0.0048
3210.00,0.0048
3209.00,0.0047
3208.00,0.0047
3207.00,0.0047
3206.00,0.0047
3205.00,0.0047
3204.00,0.0047
3203.00,0.0047
3202.00,0.0047
3201.00,0.0047
3200.00,0.0047
3199.00,0.0047
3198.00,0.0047
3197.00,0.0047
3196.00,0.0048
3195.00,0.0048
3194.00,0.0049
3193.00,0.0049
3192.00,0.0049
3191.00,0.0048
3190.00,0.0048
3189.00,0.0047
3188.00,0.0047
3187.00,0.0046
3186.00,0.0046
3185.00,0.0045
3184.00,0.0045
3183.00,0.0045
3182.00,0.0046
3181.00,0.0046
3180.00,0.0046
3179.00,0.0046
3178.00,0.0045
3177.00,0.0045
3176.00,0.0045
3175.00,0.0044
3174.00,0.0044
3173.00,0.0044
3172.00,0.0044
3171.00,0.0043
3170.00,0.0043
3169.00,0.0042
3168.00,0.0042
3167.00,0.0042
3166.00,0.0042
3165.00,0.0042
3164.00,0.0042
3163.00,0.0043
3162.00,0.0043
3161.00,0.0042
3160.00,0.0042
3159.00,0.0042
3158.00,0.0042
3157.00,0.0042
3156.00,0.0042
3155.00,0.0042
3154.00,0.0041
3153.00,0.0041
3152.00,0.0041
3151.00,0.0041
3150.00,0.0041
3149.00,0.0042
3148.00,0.0042
3147.00,0.0042
3146.00,0.0042
3145.00,0.0042
3144.00,0.0042
3143.00,0.0041
3142.00,0.0041
3141.00,0.0041
3140.00,0.0041
3139.00,0.0040
3138.00,0.0041
3137.00,0.0041
3136.00,0.0040
3135.00,0.0040
3134.00,0.0039
3133.00,0.0039
3132.00,0.0039
3131.00,0.0039
3130.00,0.0039
3129.00,0.0038
3128.00,0.0038
3127.00,0.0038
3126.00,0.0037
3125.00,0.0037
3124.00,0.0036
3123.00,0.0036
3122.00,0.0036
3121.00,0.0036
3120.00,0.0036
3119.00,0.0036
3118.00,0.0036
3117.00,0.0035
3116.00,0.0035
3115.00,0.0035
3114.00,0.0034
3113.00,0.0034
3112.00,0.0034
3111.00,0.0034
3110.00,0.0034
3109.00,0.0034
3108.00,0.0034
3107.00,0.0034
3106.00,0.0034
3105.00,0.0034
3104.00,0.0034
3103.00,0.0034
3102.00,0.0033
3101.00,0.0033
3100.00,0.0033
3099.00,0.0033
3098.00,0.0033
3097.00,0.0033
3096.00,0.0033
3095.00,0.0033
3094.00,0.0033
3093.00,0.0033
3092.00,0.0032
3091.00,0.0032
3090.00,0.0032
3089.00,0.0032
3088.00,0.0032
3087.00,0.0032
3086.00,0.0032
3085.00,0.0032
3084.00,0.0032
3083.00,0.0032
3082.00,0.0032
3081.00,0.0032
3080.00,0.0032
3079.00,0.0032
3078.00,0.0032
3077.00,0.0032
3076.00,0.0032
3075.00,0.0032
3074.00,0.0033
3073.00,0.0033
3072.00,0.0033
3071.00,0.0033
3070.00,0.0033
3069.00,0.0033
3068.00,0.0033
3067.00,0.0033
3066.00,0.0033
3065.00,0.0033
3064.00,0.0033
3063.00,0.0034
3062.00,0.0034
3061.00,0.0034
3060.00,0.0034
3059.00,0.0034
3058.00,0.0034
3057.00,0.0034
3056.00,0.0034
3055.00,0.0034
3054.00,0.0034
3053.00,0.0034
3052.00,0.0034
3051.00,0.0034
3050.00,0.0035
3049.00,0.0035
3048.00,0.0035
3047.00,0.0035
3046.00,0.0036
3045.00,0.0036
3044.00,0.0036
3043.00,0.0036
3042.00,0.0036
3041.00,0.0037
3040.00,0.0037
3039.00,0.0037
3038.00,0.0038
3037.00,0.0038
3036.00,0.0038
3035.00,0.0039
3034.00,0.0039
3033.00,0.0039
3032.00,0.0040
3031.00,0.0041
3030.00,0.0041
3029.00,0.0042
3028.00,0.0042
3027.00,0.0043
3026.00,0.0043
3025.00,0.0043
3024.00,0.0044
3023.00,0.0044
3022.00,0.0045
3021.00,0.0046
3020.00,0.0046
3019.00,0.0047
3018.00,0.0048
3017.00,0.0049
3016.00,0.0050
3015.00,0.0051
3014.00,0.0052
3013.00,0.0053
3012.00,0.0055
3011.00,0.0056
3010.00,0.0058
3009.00,0.0059
3008.00,0.0061
3007.00,0.0063
3006.00,0.0065
3005.00,0.0067
3004.00,0.0069
3003.00,0.0071
3002.00,0.0073
3001.00,0.0075
3000.00,0.0079
2999.00,0.0082
2998.00,0.0085
2997.00,0.0089
2996.00,0.0093
2995.00,0.0098
2994.00,0.0103
2993.00,0.0108
2992.00,0.0114
2991.00,0.0120
2990.00,0.0127
2989.00,0.0135
2988.00,0.0144
2987.00,0.0154
2986.00,0.0164
2985.00,0.0177
2984.00,0.0190
2983.00,0.0205
2982.00,0.0223
2981.00,0.0242
2980.00,0.0264
2979.00,0.0289
2978.00,0.0316
2977.00,0.0348
2976.00,0.0384
2975.00,0.0425
2974.00,0.0471
2973.00,0.0523
2972.00,0.0583
2971.00,0.0649
2970.00,0.0723
2969.00,0.0805
2968.00,0.0895
2967.00,0.0992
2966.00,0.1096
2965.00,0.1203
2964.00,0.1311
2963.00,0.1415
2962.00,0.1511
2961.00,0.1594
2960.00,0.1661
2959.00,0.1713
2958.00,0.1752
2957.00,0.1784
2956.00,0.1815
2955.00,0.1848
2954.00,0.1887
2953.00,0.1927
2952.00,0.1964
2951.00,0.1988
2950.00,0.1989
2949.00,0.1960
2948.00,0.1896
2947.00,0.1801
2946.00,0.1681
2945.00,0.1550
2944.00,0.1420
2943.00,0.1304
2942.00,0.1210
2941.00,0.1141
2940.00,0.1097
2939.00,0.1078
2938.00,0.1079
2937.00,0.1099
2936.00,0.1135
2935.00,0.1187
2934.00,0.1252
2933.00,0.1329
2932.00,0.1416
2931.00,0.1511
2930.00,0.1610
2929.00,0.1711
2928.00,0.1809
2927.00,0.1903
2926.00,0.1992
2925.00,0.2075
2924.00,0.2154
2923.00,0.2230
2922.00,0.2303
2921.00,0.2372
2920.00,0.2432
2919.00,0.2479
2918.00,0.2505
2917.00,0.2505
2916.00,0.2478
2915.00,0.2428
2914.00,0.2361
2913.00,0.2284
2912.00,0.2205
2911.00,0.2129
2910.00,0.2059
2909.00,0.1994
2908.00,0.1933
2907.00,0.1874
2906.00,0.1813
2905.00,0.1750
2904.00,0.1684
2903.00,0.1616
2902.00,0.1548
2901.00,0.1479
2900.00,0.1413
2899.00,0.1349
2898.00,0.1289
2897.00,0.1235
2896.00,0.1187
2895.00,0.1145
2894.00,0.1111
2893.00,0.1084
2892.00,0.1064
2891.00,0.1049
2890.00,0.1040
2889.00,0.1036
2888.00,0.1036
2887.00,0.1040
2886.00,0.1048
2885.00,0.1060
2884.00,0.1076
2883.00,0.1096
2882.00,0.1120
2881.00,0.1146
2880.00,0.1172
2879.00,0.1193
2878.00,0.1206
2877.00,0.1211
2876.00,0.1208
2875.00,0.1200
2874.00,0.1192
2873.00,0.1189
2872.00,0.1194
2871.00,0.1205
2870.00,0.1221
2869.00,0.1237
2868.00,0.1246
2867.00,0.1240
2866.00,0.1212
2865.00,0.1161
2864.00,0.1088
2863.00,0.1002
2862.00,0.0913
2861.00,0.0830
2860.00,0.0758
2859.00,0.0701
2858.00,0.0657
2857.00,0.0627
2856.00,0.0607
2855.00,0.0596
2854.00,0.0592
2853.00,0.0594
2852.00,0.0603
2851.00,0.0618
2850.00,0.0639
2849.00,0.0667
2848.00,0.0702
2847.00,0.0745
2846.00,0.0797
2845.00,0.0857
2844.00,0.0925
2843.00,0.0998
2842.00,0.1074
2841.00,0.1146
2840.00,0.1206
2839.00,0.1245
2838.00,0.1255
2837.00,0.1231
2836.00,0.1171
2835.00,0.1083
2834.00,0.0975
2833.00,0.0861
2832.00,0.0752
2831.00,0.0655
2830.00,0.0572
2829.00,0.0504
2828.00,0.0450
2827.00,0.0406
2826.00,0.0370
2825.00,0.0340
2824.00,0.0315
2823.00,0.0294
2822.00,0.0276
2821.00,0.0261
2820.00,0.0248
2819.00,0.0237
2818.00,0.0227
2817.00,0.0219
2816.00,0.0211
2815.00,0.0204
2814.00,0.0198
2813.00,0.0193
2812.00,0.0187
2811.00,0.0182
2810.00,0.0177
2809.00,0.0171
2808.00,0.0165
2807.00,0.0159
2806.00,0.0153
2805.00,0.0147
2804.00,0.0140
2803.00,0.0134
2802.00,0.0129
2801.00,0.0124
2800.00,0.0121
2799.00,0.0117
2798.00,0.0115
2797.00,0.0112
2796.00,0.0109
2795.00,0.0107
2794.00,0.0104
2793.00,0.0102
2792.00,0.0099
2791.00,0.0095
2790.00,0.0092
2789.00,0.0089
2788.00,0.0086
2787.00,0.0083
2786.00,0.0080
2785.00,0.0077
2784.00,0.0075
2783.00,0.0072
2782.00,0.0070
2781.00,0.0068
2780.00,0.0066
2779.00,0.0065
2778.00,0.0063
2777.00,0.0062
2776.00,0.0060
2775.00,0.0060
2774.00,0.0059
2773.00,0.0058
2772.00,0.0057
2771.00,0.0057
2770.00,0.0056
2769.00,0.0056
2768.00,0.0056
2767.00,0.0056
2766.00,0.0055
2765.00,0.0055
2764.00,0.0055
2763.00,0.0054
2762.00,0.0054
2761.00,0.0053
2760.00,0.0053
2759.00,0.0053
2758.00,0.0053
2757.00,0.0053
2756.00,0.0053
2755.00,0.0053
2754.00,0.0053
2753.00,0.0053
2752.00,0.0052
2751.00,0.0052
2750.00,0.0052
2749.00,0.0052
2748.00,0.0052
2747.00,0.0053
2746.00,0.0053
2745.00,0.0054
2744.00,0.0055
2743.00,0.0056
2742.00,0.0057
2741.00,0.0058
2740.00,0.0059
2739.00,0.0060
2738.00,0.0062
2737.00,0.0063
2736.00,0.0064
2735.00,0.0065
2734.00,0.0067
2733.00,0.0068
2732.00,0.0070
2731.00,0.0072
2730.00,0.0074
2729.00,0.0077
2728.00,0.0080
2727.00,0.0082
2726.00,0.0085
2725.00,0.0088
2724.00,0.0089
2723.00,0.0089
2722.00,0.0088
2721.00,0.0086
2720.00,0.0084
2719.00,0.0080
2718.00,0.0077
2717.00,0.0074
2716.00,0.0071
2715.00,0.0068
2714.00,0.0066
2713.00,0.0063
2712.00,0.0061
2711.00,0.0059
2710.00,0.0057
2709.00,0.0056
2708.00,0.0054
2707.00,0.0053
2706.00,0.0052
2705.00,0.0052
2704.00,0.0051
2703.00,0.0050
2702.00,0.0049
2701.00,0.0048
2700.00,0.0047
2699.00,0.0047
2698.00,0.0046
2697.00,0.0046
2696.00,0.0045
2695.00,0.0045
2694.00,0.0045
2693.00,0.0045
2692.00,0.0046
2691.00,0.0046
2690.00,0.0046
2689.00,0.0046
2688.00,0.0046
2687.00,0.0046
2686.00,0.0046
2685.00,0.0046
2684.00,0.0046
2683.00,0.0046
2682.00,0.0046
2681.00,0.0046
2680.00,0.0046
2679.00,0.0046
2678.00,0.0046
2677.00,0.0046
2676.00,0.0046
2675.00,0.0046
2674.00,0.0045
2673.00,0.0045
2672.00,0.0045
2671.00,0.0045
2670.00,0.0045
2669.00,0.0045
2668.00,0.0045
2667.00,0.0045
2666.00,0.0045
2665.00,0.0046
2664.00,0.0046
2663.00,0.0046
2662.00,0.0047
2661.00,0.0047
2660.00,0.0048
2659.00,0.0048
2658.00,0.0048
2657.00,0.0047
2656.00,0.0047
2655.00,0.0046
2654.00,0.0046
2653.00,0.0045
2652.00,0.0045
2651.00,0.0045
2650.00,0.0044
2649.00,0.0044
2648.00,0.0044
2647.00,0.0043
2646.00,0.0043
2645.00,0.0042
2644.00,0.0042
2643.00,0.0041
2642.00,0.0041
2641.00,0.0041
2640.00,0.0040
2639.00,0.0040
2638.00,0.0039
2637.00,0.0039
2636.00,0.0039
2635.00,0.0039
2634.00,0.0038
2633.00,0.0038
2632.00,0.0038
2631.00,0.0038
2630.00,0.0038
2629.00,0.0039
2628.00,0.0039
2627.00,0.0039
2626.00,0.0040
2625.00,0.0041
2624.00,0.0041
2623.00,0.0041
2622.00,0.0041
2621.00,0.0041
2620.00,0.0040
2619.00,0.0040
2618.00,0.0040
2617.00,0.0040
2616.00,0.0041
2615.00,0.0041
2614.00,0.0041
2613.00,0.0040
2612.00,0.0039
2611.00,0.0039
2610.00,0.0038
2609.00,0.0037
2608.00,0.0036
2607.00,0.0035
2606.00,0.0035
2605.00,0.0034
2604.00,0.0034
2603.00,0.0033
2602.00,0.0033
2601.00,0.0033
2600.00,0.0033
2599.00,0.0032
2598.00,0.0032
2597.00,0.0032
2596.00,0.0033
2595.00,0.0033
2594.00,0.0033
2593.00,0.0034
2592.00,0.0034
2591.00,0.0035
2590.00,0.0036
2589.00,0.0036
2588.00,0.0037
2587.00,0.0037
2586.00,0.0037
2585.00,0.0038
2584.00,0.0038
2583.00,0.0038
2582.00,0.0037
2581.00,0.0037
2580.00,0.0037
2579.00,0.0037
2578.00,0.0037
2577.00,0.0036
2576.00,0.0035
2575.00,0.0034
2574.00,0.0033
2573.00,0.0032
2572.00,0.0031
2571.00,0.0030
2570.00,0.0029
2569.00,0.0028
2568.00,0.0028
2567.00,0.0027
2566.00,0.0027
2565.00,0.0027
2564.00,0.0026
2563.00,0.0026
2562.00,0.0025
2561.00,0.0025
2560.00,0.0024
2559.00,0.0024
2558.00,0.0023
2557.00,0.0023
2556.00,0.0022
2555.00,0.0022
2554.00,0.0022
2553.00,0.0022
2552.00,0.0022
2551.00,0.0022
2550.00,0.0022
2549.00,0.0021
2548.00,0.0021
2547.00,0.0021
2546.00,0.0021
2545.00,0.0021
2544.00,0.0020
2543.00,0.0019
2542.00,0.0018
2541.00,0.0018
2540.00,0.0017
2539.00,0.0017
2538.00,0.0017
2537.00,0.0017
2536.00,0.0017
2535.00,0.0017
2534.00,0.0017
2533.00,0.0017
2532.00,0.0017
2531.00,0.0017
2530.00,0.0017
2529.00,0.0017
2528.00,0.0017
2527.00,0.0016
2526.00,0.0016
2525.00,0.0015
2524.00,0.0015
2523.00,0.0015
2522.00,0.0015
2521.00,0.0014
2520.00,0.0014
2519.00,0.0013
2518.00,0.0012
2517.00,0.0012
2516.00,0.0012
2515.00,0.0012
2514.00,0.0012
2513.00,0.0012
2512.00,0.0013
2511.00,0.0013
2510.00,0.0013
2509.00,0.0013
2508.00,0.0012
2507.00,0.0012
2506.00,0.0011
2505.00,0.0011
2504.00,0.0010
2503.00,0.0010
2502.00,0.0010
2501.00,0.0010
2500.00,0.0011
2499.00,0.0012
2498.00,0.0012
2497.00,0.0012
2496.00,0.0012
2495.00,0.0012
2494.00,0.0012
2493.00,0.0012
2492.00,0.0011
2491.00,0.0011
2490.00,0.0011
2489.00,0.0011
2488.00,0.0011
2487.00,0.0011
2486.00,0.0011
2485.00,0.0011
2484.00,0.0011
2483.00,0.0010
2482.00,0.0010
2481.00,0.0010
2480.00,0.0010
2479.00,0.0010
2478.00,0.0011
2477.00,0.0011
2476.00,0.0011
2475.00,0.0011
2474.00,0.0011
2473.00,0.0011
2472.00,0.0010
2471.00,0.0010
2470.00,0.0010
2469.00,0.0010
2468.00,0.0010
2467.00,0.0009
2466.00,0.0009
2465.00,0.0009
2464.00,0.0010
2463.00,0.0011
2462.00,0.0011
2461.00,0.0012
2460.00,0.0012
2459.00,0.0012
2458.00,0.0012
2457.00,0.0013
2456.00,0.0013
2455.00,0.0013
2454.00,0.0013
2453.00,0.0012
2452.00,0.0011
2451.00,0.0011
2450.00,0.0011
2449.00,0.0011
2448.00,0.0011
2447.00,0.0010
2446.00,0.0010
2445.00,0.0010
2444.00,0.0011
2443.00,0.0011
2442.00,0.0012
2441.00,0.0012
2440.00,0.0012
2439.00,0.0012
2438.00,0.0012
2437.00,0.0012
2436.00,0.0012
2435.00,0.0012
2434.00,0.0013
2433.00,0.0013
2432.00,0.0014
2431.00,0.0014
2430.00,0.0013
2429.00,0.0013
2428.00,0.0013
2427.00,0.0013
2426.00,0.0013
2425.00,0.0013
2424.00,0.0013
2423.00,0.0013
2422.00,0.0012
2421.00,0.0011
2420.00,0.0010
2419.00,0.0010
2418.00,0.0010
2417.00,0.0010
2416.00,0.0011
2415.00,0.0011
2414.00,0.0010
2413.00,0.0010
2412.00,0.0010
2411.00,0.0010
2410.00,0.0010
2409.00,0.0011
2408.00,0.0011
2407.00,0.0011
2406.00,0.0011
2405.00,0.0011
2404.00,0.0010
2403.00,0.0010
2402.00,0.0009
2401.00,0.0009
2400.00,0.0009
2399.00,0.0009
2398.00,0.0009
2397.00,0.0009
2396.00,0.0009
2395.00,0.0009
2394.00,0.0009
2393.00,0.0009
2392.00,0.0009
2391.00,0.0009
2390.00,0.0009
2389.00,0.0008
2388.00,0.0008
2387.00,0.0007
2386.00,0.0006
2385.00,0.0005
2384.00,0.0005
2383.00,0.0006
2382.00,0.0006
2381.00,0.0005
2380.00,0.0005
2379.00,0.0004
2378.00,0.0003
2377.00,0.0003
2376.00,0.0003
2375.00,0.0003
2374.00,0.0003
2373.00,0.0003
2372.00,0.0004
2371.00,0.0005
2370.00,0.0005
2369.00,0.0004
2368.00,0.0003
2367.00,0.0003
2366.00,0.0003
2365.00,0.0003
2364.00,0.0003
2363.00,0.0004
2362.00,0.0004
2361.00,0.0005
2360.00,0.0005
2359.00,0.0005
2358.00,0.0005
2357.00,0.0005
2356.00,0.0005
2355.00,0.0004
2354.00,0.0004
2353.00,0.0003
2352.00,0.0003
2351.00,0.0003
2350.00,0.0004
2349.00,0.0006
2348.00,0.0006
2347.00,0.0007
2346.00,0.0006
2345.00,0.0006
2344.00,0.0006
2343.00,0.0006
2342.00,0.0006
2341.00,0.0006
2340.00,0.0007
2339.00,0.0007
2338.00,0.0007
2337.00,0.0008
2336.00,0.0008
2335.00,0.0007
2334.00,0.0007
2333.00,0.0007
2332.00,0.0006
2331.00,0.0006
2330.00,0.0005
2329.00,0.0006
2328.00,0.0008
2327.00,0.0012
2326.00,0.0016
2325.00,0.0019
2324.00,0.0020
2323.00,0.0019
2322.00,0.0017
2321.00,0.0015
2320.00,0.0014
2319.00,0.0013
2318.00,0.0012
2317.00,0.0011
2316.00,0.0010
2315.00,0.0009
2314.00,0.0008
2313.00,0.0007
2312.00,0.0007
2311.00,0.0007
2310.00,0.0007
2309.00,0.0008
2308.00,0.0008
2307.00,0.0009
2306.00,0.0011
2305.00,0.0011
2304.00,0.0011
2303.00,0.0011
2302.00,0.0010
2301.00,0.0010
2300.00,0.0010
2299.00,0.0011
2298.00,0.0012
2297.00,0.0012
2296.00,0.0012
2295.00,0.0012
2294.00,0.0013
2293.00,0.0014
2292.00,0.0015
2291.00,0.0016
2290.00,0.0017
2289.00,0.0018
2288.00,0.0019
2287.00,0.0019
2286.00,0.0019
2285.00,0.0019
2284.00,0.0019
2283.00,0.0018
2282.00,0.0017
2281.00,0.0016
2280.00,0.0015
2279.00,0.0015
2278.00,0.0014
2277.00,0.0014
2276.00,0.0013
2275.00,0.0012
2274.00,0.0012
2273.00,0.0012
2272.00,0.0013
2271.00,0.0014
2270.00,0.0014
2269.00,0.0014
2268.00,0.0014
2267.00,0.0013
2266.00,0.0013
2265.00,0.0014
2264.00,0.0015
2263.00,0.0015
2262.00,0.0015
2261.00,0.0014
2260.00,0.0013
2259.00,0.0012
2258.00,0.0011
2257.00,0.0011
2256.00,0.0010
2255.00,0.0009
2254.00,0.0009
2253.00,0.0009
2252.00,0.0009
2251.00,0.0010
2250.00,0.0010
2249.00,0.0010
2248.00,0.0010
2247.00,0.0010
2246.00,0.0009
2245.00,0.0009
2244.00,0.0008
2243.00,0.0008
2242.00,0.0009
2241.00,0.0010
2240.00,0.0011
2239.00,0.0012
2238.00,0.0012
2237.00,0.0012
2236.00,0.0013
2235.00,0.0013
2234.00,0.0012
2233.00,0.0011
2232.00,0.0010
2231.00,0.0009
2230.00,0.0008
2229.00,0.0008
2228.00,0.0007
2227.00,0.0006
2226.00,0.0006
2225.00,0.0005
2224.00,0.0005
2223.00,0.0005
2222.00,0.0006
2221.00,0.0008
2220.00,0.0010
2219.00,0.0011
2218.00,0.0011
2217.00,0.0011
2216.00,0.0010
2215.00,0.0008
2214.00,0.0007
2213.00,0.0005
2212.00,0.0004
2211.00,0.0004
2210.00,0.0003
2209.00,0.0003
2208.00,0.0003
2207.00,0.0003
2206.00,0.0002
2205.00,0.0002
2204.00,0.0002
2203.00,0.0003
2202.00,0.0005
2201.00,0.0006
2200.00,0.0006
2199.00,0.0007
2198.00,0.0007
2197.00,0.0007
2196.00,0.0008
2195.00,0.0009
2194.00,0.0011
2193.00,0.0013
2192.00,0.0013
2191.00,0.0011
2190.00,0.0010
2189.00,0.0010
2188.00,0.0011
2187.00,0.0012
2186.00,0.0011
2185.00,0.0010
2184.00,0.0007
2183.00,0.0004
2182.00,0.0002
2181.00,0.0001
2180.00,0.0002
2179.00,0.0004
2178.00,0.0006
2177.00,0.0006
2176.00,0.0005
2175.00,0.0003
2174.00,0.0002
2173.00,0.0003
2172.00,0.0005
2171.00,0.0009
2170.00,0.0014
2169.00,0.0019
2168.00,0.0021
2167.00,0.0020
2166.00,0.0016
2165.00,0.0013
2164.00,0.0014
2163.00,0.0018
2162.00,0.0023
2161.00,0.0021
2160.00,0.0011
2159.00,-0.0004
2158.00,-0.0017
2157.00,-0.0023
2156.00,-0.0022
2155.00,-0.0019
2154.00,-0.0015
2153.00,-0.0011
2152.00,-0.0008
2151.00,-0.0006
2150.00,-0.0006
2149.00,-0.0008
2148.00,-0.0012
2147.00,-0.0016
2146.00,-0.0019
2145.00,-0.0020
2144.00,-0.0019
2143.00,-0.0018
2142.00,-0.0015
2141.00,-0.0013
2140.00,-0.0011
2139.00,-0.0009
2138.00,-0.0008
2137.00,-0.0008
2136.00,-0.0010
2135.00,-0.0012
2134.00,-0.0014
2133.00,-0.0014
2132.00,-0.0013
2131.00,-0.0012
2130.00,-0.0011
2129.00,-0.0011
2128.00,-0.0010
2127.00,-0.0008
2126.00,-0.0006
2125.00,-0.0004
2124.00,-0.0003
2123.00,-0.0003
2122.00,-0.0002
2121.00,-0.0001
2120.00,-0.0001
2119.00,-0.0000
2118.00,0.0000
2117.00,0.0002
2116.00,0.0004
2115.00,0.0005
2114.00,0.0006
2113.00,0.0006
2112.00,0.0006
2111.00,0.0006
2110.00,0.0006
2109.00,0.0005
2108.00,0.0005
2107.00,0.0005
2106.00,0.0004
2105.00,0.0003
2104.00,0.0002
2103.00,0.0002
2102.00,0.0003
2101.00,0.0003
2100.00,0.0003
2099.00,0.0002
2098.00,0.0002
2097.00,0.0000
2096.00,-0.0002
2095.00,-0.0004
2094.00,-0.0005
2093.00,-0.0005
2092.00,-0.0002
2091.00,-0.0000
2090.00,0.0002
2089.00,0.0004
2088.00,0.0005
2087.00,0.0004
2086.00,0.0004
2085.00,0.0004
2084.00,0.0004
2083.00,0.0003
2082.00,0.0002
2081.00,0.0002
2080.00,0.0002
2079.00,0.0005
2078.00,0.0007
2077.00,0.0008
2076.00,0.0007
2075.00,0.0005
2074.00,0.0003
2073.00,0.0002
2072.00,0.0002
2071.00,0.0002
2070.00,0.0003
2069.00,0.0003
2068.00,0.0003
2067.00,0.0002
2066.00,0.0000
2065.00,-0.0001
2064.00,-0.0001
2063.00,0.0000
2062.00,0.0003
2061.00,0.0006
2060.00,0.0008
2059.00,0.0007
2058.00,0.0006
2057.00,0.0003
2056.00,0.0001
2055.00,-0.0000
2054.00,0.0000
2053.00,0.0004
2052.00,0.0010
2051.00,0.0014
2050.00,0.0014
2049.00,0.0010
2048.00,0.0006
2047.00,0.0004
2046.00,0.0004
2045.00,0.0004
2044.00,0.0003
2043.00,0.0002
2042.00,0.0001
2041.00,-0.0001
2040.00,-0.0002
2039.00,-0.0002
2038.00,-0.0000
2037.00,0.0003
2036.00,0.0006
2035.00,0.0007
2034.00,0.0005
2033.00,0.0002
2032.00,-0.0002
2031.00,-0.0006
2030.00,-0.0008
2029.00,-0.0009
2028.00,-0.0008
2027.00,-0.0007
2026.00,-0.0007
2025.00,-0.0007
2024.00,-0.0010
2023.00,-0.0013
2022.00,-0.0015
2021.00,-0.0014
2020.00,-0.0013
2019.00,-0.0012
2018.00,-0.0011
2017.00,-0.0010
2016.00,-0.0010
2015.00,-0.0010
2014.00,-0.0009
2013.00,-0.0008
2012.00,-0.0005
2011.00,-0.0004
2010.00,-0.0004
2009.00,-0.0007
2008.00,-0.0010
2007.00,-0.0012
2006.00,-0.0013
2005.00,-0.0012
2004.00,-0.0010
2003.00,-0.0010
2002.00,-0.0010
2001.00,-0.0010
2000.00,-0.0011
1999.00,-0.0011
1998.00,-0.0010
1997.00,-0.0008
1996.00,-0.0007
1995.00,-0.0007
1994.00,-0.0008
1993.00,-0.0009
1992.00,-0.0007
1991.00,-0.0005
1990.00,-0.0003
1989.00,-0.0002
1988.00,-0.0001
1987.00,-0.0000
1986.00,0.0001
1985.00,0.0002
1984.00,0.0004
1983.00,0.0005
1982.00,0.0005
1981.00,0.0005
1980.00,0.0005
1979.00,0.0003
1978.00,-0.0000
1977.00,-0.0005
1976.00,-0.0008
1975.00,-0.0010
1974.00,-0.0012
1973.00,-0.0013
1972.00,-0.0013
1971.00,-0.0012
1970.00,-0.0011
1969.00,-0.0010
1968.00,-0.0011
1967.00,-0.0013
1966.00,-0.0016
1965.00,-0.0018
1964.00,-0.0019
1963.00,-0.0018
1962.00,-0.0017
1961.00,-0.0016
1960.00,-0.0016
1959.00,-0.0017
1958.00,-0.0017
1957.00,-0.0016
1956.00,-0.0013
1955.00,-0.0011
1954.00,-0.0011
1953.00,-0.0012
1952.00,-0.0015
1951.00,-0.0017
1950.00,-0.0019
1949.00,-0.0019
1948.00,-0.0018
1947.00,-0.0017
1946.00,-0.0015
1945.00,-0.0013
1944.00,-0.0012
1943.00,-0.0011
1942.00,-0.0011
1941.00,-0.0010
1940.00,-0.0008
1939.00,-0.0008
1938.00,-0.0008
1937.00,-0.0008
1936.00,-0.0008
1935.00,-0.0009
1934.00,-0.0010
1933.00,-0.0010
1932.00,-0.0009
1931.00,-0.0009
1930.00,-0.0008
1929.00,-0.0008
1928.00,-0.0008
1927.00,-0.0009
1926.00,-0.0009
1925.00,-0.0009
1924.00,-0.0008
1923.00,-0.0007
1922.00,-0.0005
1921.00,-0.0004
1920.00,-0.0003
1919.00,-0.0002
1918.00,-0.0002
1917.00,-0.0002
1916.00,-0.0002
1915.00,-0.0001
1914.00,-0.0002
1913.00,-0.0003
1912.00,-0.0004
1911.00,-0.0005
1910.00,-0.0005
1909.00,-0.0004
1908.00,-0.0003
1907.00,-0.0002
1906.00,-0.0001
1905.00,-0.0001
1904.00,-0.0001
1903.00,-0.0002
1902.00,-0.0002
1901.00,-0.0002
1900.00,-0.0002
1899.00,-0.0001
1898.00,0.0001
1897.00,0.0001
1896.00,0.0001
1895.00,-0.0000
1894.00,-0.0001
1893.00,-0.0001
1892.00,0.0000
1891.00,0.0001
1890.00,0.0002
1889.00,0.0002
1888.00,0.0001
1887.00,0.0000
1886.00,-0.0000
1885.00,-0.0000
1884.00,-0.0001
1883.00,-0.0001
1882.00,-0.0002
1881.00,-0.0002
1880.00,-0.0002
1879.00,-0.0001
1878.00,-0.0001
1877.00,-0.0001
1876.00,-0.0002
1875.00,-0.0003
1874.00,-0.0003
1873.00,-0.0003
1872.00,-0.0002
1871.00,-0.0001
1870.00,-0.0001
1869.00,0.0001
1868.00,0.0001
1867.00,0.0002
1866.00,0.0001
1865.00,0.0001
1864.00,0.0001
1863.00,0.0001
1862.00,0.0000
1861.00,0.0000
1860.00,0.0001
1859.00,0.0001
1858.00,0.0001
1857.00,0.0001
1856.00,0.0001
1855.00,0.0000
1854.00,0.0001
1853.00,0.0001
1852.00,0.0001
1851.00,0.0001
1850.00,0.0002
1849.00,0.0002
1848.00,0.0002
1847.00,0.0001
1846.00,0.0001
1845.00,0.0000
1844.00,0.0001
1843.00,0.0001
1842.00,0.0001
1841.00,0.0001
1840.00,0.0001
1839.00,0.0001
1838.00,0.0001
1837.00,0.0001
1836.00,0.0002
1835.00,0.0003
1834.00,0.0003
1833.00,0.0004
1832.00,0.0004
1831.00,0.0004
1830.00,0.0003
1829.00,0.0003
1828.00,0.0003
1827.00,0.0003
1826.00,0.0003
1825.00,0.0004
1824.00,0.0004
1823.00,0.0004
1822.00,0.0003
1821.00,0.0002
1820.00,0.0002
1819.00,0.0001
1818.00,0.0000
1817.00,-0.0000
1816.00,0.0000
1815.00,0.0001
1814.00,0.0001
1813.00,0.0002
1812.00,0.0002
1811.00,0.0002
1810.00,0.0003
1809.00,0.0003
1808.00,0.0004
1807.00,0.0004
1806.00,0.0005
1805.00,0.0005
1804.00,0.0006
1803.00,0.0007
1802.00,0.0007
1801.00,0.0007
1800.00,0.0007
1799.00,0.0006
1798.00,0.0006
1797.00,0.0005
1796.00,0.0005
1795.00,0.0006
1794.00,0.0006
1793.00,0.0007
1792.00,0.0008
1791.00,0.0008
1790.00,0.0007
1789.00,0.0007
1788.00,0.0007
1787.00,0.0007
1786.00,0.0007
1785.00,0.0008
1784.00,0.0009
1783.00,0.0009
1782.00,0.0009
1781.00,0.0009
1780.00,0.0009
1779.00,0.0009
1778.00,0.0009
1777.00,0.0009
1776.00,0.0009
1775.00,0.0009
1774.00,0.0008
1773.00,0.0008
1772.00,0.0008
1771.00,0.0009
1770.00,0.0009
1769.00,0.0010
1768.00,0.0011
1767.00,0.0011
1766.00,0.0012
1765.00,0.0011
1764.00,0.0011
1763.00,0.0011
1762.00,0.0012
1761.00,0.0012
1760.00,0.0013
1759.00,0.0013
1758.00,0.0013
1757.00,0.0013
1756.00,0.0013
1755.00,0.0014
1754.00,0.0014
1753.00,0.0015
1752.00,0.0016
1751.00,0.0017
1750.00,0.0018
1749.00,0.0018
1748.00,0.0019
1747.00,0.0020
1746.00,0.0020
1745.00,0.0021
1744.00,0.0021
1743.00,0.0021
1742.00,0.0021
1741.00,0.0021
1740.00,0.0021
1739.00,0.0022
1738.00,0.0023
1737.00,0.0023
1736.00,0.0023
1735.00,0.0024
1734.00,0.0024
1733.00,0.0023
1732.00,0.0023
1731.00,0.0022
1730.00,0.0022
1729.00,0.0022
1728.00,0.0023
1727.00,0.0023
1726.00,0.0023
1725.00,0.0023
1724.00,0.0023
1723.00,0.0023
1722.00,0.0023
1721.00,0.0022
1720.00,0.0022
1719.00,0.0022
1718.00,0.0022
1717.00,0.0022
1716.00,0.0022
1715.00,0.0022
1714.00,0.0022
1713.00,0.0023
1712.00,0.0024
1711.00,0.0025
1710.00,0.0025
1709.00,0.0025
1708.00,0.0025
1707.00,0.0025
1706.00,0.0025
1705.00,0.0026
1704.00,0.0026
1703.00,0.0027
1702.00,0.0027
1701.00,0.0028
1700.00,0.0030
1699.00,0.0030
1698.00,0.0031
1697.00,0.0031
1696.00,0.0031
1695.00,0.0032
1694.00,0.0034
1693.00,0.0035
1692.00,0.0036
1691.00,0.0037
1690.00,0.0038
1689.00,0.0039
1688.00,0.0039
1687.00,0.0040
1686.00,0.0040
1685.00,0.0040
1684.00,0.0042
1683.00,0.0044
1682.00,0.0045
1681.00,0.0046
1680.00,0.0047
1679.00,0.0048
1678.00,0.0048
1677.00,0.0049
1676.00,0.0050
1675.00,0.0052
1674.00,0.0053
1673.00,0.0054
1672.00,0.0055
1671.00,0.0055
1670.00,0.0056
1669.00,0.0057
1668.00,0.0058
1667.00,0.0058
1666.00,0.0058
1665.00,0.0058
1664.00,0.0059
1663.00,0.0059
1662.00,0.0060
1661.00,0.0061
1660.00,0.0061
1659.00,0.0062
1658.00,0.0062
1657.00,0.0062
1656.00,0.0063
1655.00,0.0063
1654.00,0.0063
1653.00,0.0064
1652.00,0.0065
1651.00,0.0066
1650.00,0.0066
1649.00,0.0066
1648.00,0.0066
1647.00,0.0067
1646.00,0.0067
1645.00,0.0066
1644.00,0.0066
1643.00,0.0066
1642.00,0.0067
1641.00,0.0067
1640.00,0.0068
1639.00,0.0068
1638.00,0.0067
1637.00,0.0067
1636.00,0.0066
1635.00,0.0065
1634.00,0.0065
1633.00,0.0066
1632.00,0.0066
1631.00,0.0066
1630.00,0.0066
1629.00,0.0066
1628.00,0.0065
1627.00,0.0065
1626.00,0.0065
1625.00,0.0064
1624.00,0.0064
1623.00,0.0064
1622.00,0.0063
1621.00,0.0063
1620.00,0.0063
1619.00,0.0062
1618.00,0.0063
1617.00,0.0063
1616.00,0.0064
1615.00,0.0064
1614.00,0.0063
1613.00,0.0062
1612.00,0.0062
1611.00,0.0062
1610.00,0.0062
1609.00,0.0062
1608.00,0.0062
1607.00,0.0062
1606.00,0.0062
1605.00,0.0062
1604.00,0.0062
1603.00,0.0062
1602.00,0.0063
1601.00,0.0063
1600.00,0.0063
1599.00,0.0062
1598.00,0.0062
1597.00,0.0062
1596.00,0.0062
1595.00,0.0062
1594.00,0.0062
1593.00,0.0062
1592.00,0.0062
1591.00,0.0062
1590.00,0.0063
1589.00,0.0064
1588.00,0.0065
1587.00,0.0066
1586.00,0.0067
1585.00,0.0068
1584.00,0.0069
1583.00,0.0071
1582.00,0.0072
1581.00,0.0074
1580.00,0.0075
1579.00,0.0076
1578.00,0.0076
1577.00,0.0076
1576.00,0.0075
1575.00,0.0074
1574.00,0.0073
1573.00,0.0072
1572.00,0.0072
1571.00,0.0071
1570.00,0.0070
1569.00,0.0070
1568.00,0.0069
1567.00,0.0068
1566.00,0.0068
1565.00,0.0068
1564.00,0.0068
1563.00,0.0069
1562.00,0.0069
1561.00,0.0070
1560.00,0.0071
1559.00,0.0071
1558.00,0.0070
1557.00,0.0070
1556.00,0.0071
1555.00,0.0072
1554.00,0.0073
1553.00,0.0074
1552.00,0.0075
1551.00,0.0075
1550.00,0.0077
1549.00,0.0078
1548.00,0.0080
1547.00,0.0082
1546.00,0.0083
1545.00,0.0085
1544.00,0.0087
1543.00,0.0089
1542.00,0.0090
1541.00,0.0089
1540.00,0.0087
1539.00,0.0083
1538.00,0.0080
1537.00,0.0078
1536.00,0.0076
1535.00,0.0073
1534.00,0.0069
1533.00,0.0067
1532.00,0.0065
1531.00,0.0064
1530.00,0.0063
1529.00,0.0062
1528.00,0.0062
1527.00,0.0060
1526.00,0.0060
1525.00,0.0059
1524.00,0.0060
1523.00,0.0060
1522.00,0.0060
1521.00,0.0060
1520.00,0.0060
1519.00,0.0060
1518.00,0.0059
1517.00,0.0059
1516.00,0.0059
1515.00,0.0060
1514.00,0.0060
1513.00,0.0061
1512.00,0.0063
1511.00,0.0063
1510.00,0.0063
1509.00,0.0064
1508.00,0.0066
1507.00,0.0066
1506.00,0.0067
1505.00,0.0069
1504.00,0.0071
1503.00,0.0072
1502.00,0.0074
1501.00,0.0076
1500.00,0.0078
1499.00,0.0080
1498.00,0.0081
1497.00,0.0084
1496.00,0.0088
1495.00,0.0092
1494.00,0.0094
1493.00,0.0097
1492.00,0.0100
1491.00,0.0104
1490.00,0.0108
1489.00,0.0113
1488.00,0.0118
1487.00,0.0122
1486.00,0.0127
1485.00,0.0134
1484.00,0.0141
1483.00,0.0149
1482.00,0.0158
1481.00,0.0170
1480.00,0.0182
1479.00,0.0194
1478.00,0.0209
1477.00,0.0228
1476.00,0.0250
1475.00,0.0276
1474.00,0.0311
1473.00,0.0362
1472.00,0.0425
1471.00,0.0489
1470.00,0.0550
1469.00,0.0614
1468.00,0.0684
1467.00,0.0761
1466.00,0.0849
1465.00,0.0944
1464.00,0.1030
1463.00,0.1093
1462.00,0.1137
1461.00,0.1170
1460.00,0.1196
1459.00,0.1216
1458.00,0.1235
1457.00,0.1253
1456.00,0.1262
1455.00,0.1261
1454.00,0.1255
1453.00,0.1242
1452.00,0.1219
1451.00,0.1181
1450.00,0.1127
1449.00,0.1050
1448.00,0.0953
1447.00,0.0851
1446.00,0.0759
1445.00,0.0681
1444.00,0.0615
1443.00,0.0561
1442.00,0.0521
1441.00,0.0494
1440.00,0.0477
1439.00,0.0469
1438.00,0.0466
1437.00,0.0462
1436.00,0.0448
1435.00,0.0419
1434.00,0.0380
1433.00,0.0335
1432.00,0.0289
1431.00,0.0248
1430.00,0.0217
1429.00,0.0194
1428.00,0.0178
1427.00,0.0169
1426.00,0.0162
1425.00,0.0157
1424.00,0.0151
1423.00,0.0148
1422.00,0.0147
1421.00,0.0144
1420.00,0.0141
1419.00,0.0137
1418.00,0.0135
1417.00,0.0132
1416.00,0.0130
1415.00,0.0129
1414.00,0.0128
1413.00,0.0127
1412.00,0.0126
1411.00,0.0125
1410.00,0.0125
1409.00,0.0124
1408.00,0.0123
1407.00,0.0122
1406.00,0.0122
1405.00,0.0121
1404.00,0.0121
1403.00,0.0122
1402.00,0.0124
1401.00,0.0125
1400.00,0.0126
1399.00,0.0128
1398.00,0.0130
1397.00,0.0131
1396.00,0.0133
1395.00,0.0137
1394.00,0.0143
1393.00,0.0149
1392.00,0.0156
1391.00,0.0165
1390.00,0.0177
1389.00,0.0195
1388.00,0.0221
1387.00,0.0262
1386.00,0.0315
1385.00,0.0381
1384.00,0.0468
1383.00,0.0583
1382.00,0.0734
1381.00,0.0922
1380.00,0.1151
1379.00,0.1408
1378.00,0.1653
1377.00,0.1833
1376.00,0.1895
1375.00,0.1807
1374.00,0.1590
1373.00,0.1323
1372.00,0.1075
1371.00,0.0868
1370.00,0.0702
1369.00,0.0574
1368.00,0.0485
1367.00,0.0430
1366.00,0.0399
1365.00,0.0387
1364.00,0.0389
1363.00,0.0402
1362.00,0.0422
1361.00,0.0444
1360.00,0.0459
1359.00,0.0463
1358.00,0.0451
1357.00,0.0424
1356.00,0.0386
1355.00,0.0345
1354.00,0.0304
1353.00,0.0269
1352.00,0.0241
1351.00,0.0219
1350.00,0.0201
1349.00,0.0186
1348.00,0.0175
1347.00,0.0165
1346.00,0.0158
1345.00,0.0151
1344.00,0.0146
1343.00,0.0142
1342.00,0.0139
1341.00,0.0136
1340.00,0.0133
1339.00,0.0131
1338.00,0.0130
1337.00,0.0130
1336.00,0.0131
1335.00,0.0133
1334.00,0.0135
1333.00,0.0138
1332.00,0.0142
1331.00,0.0146
1330.00,0.0147
1329.00,0.0146
1328.00,0.0143
1327.00,0.0137
1326.00,0.0130
1325.00,0.0124
1324.00,0.0117
1323.00,0.0112
1322.00,0.0108
1321.00,0.0105
1320.00,0.0103
1319.00,0.0101
1318.00,0.0098
1317.00,0.0096
1316.00,0.0094
1315.00,0.0093
1314.00,0.0093
1313.00,0.0093
1312.00,0.0095
1311.00,0.0098
1310.00,0.0103
1309.00,0.0110
1308.00,0.0120
1307.00,0.0133
1306.00,0.0145
1305.00,0.0154
1304.00,0.0158
1303.00,0.0156
1302.00,0.0150
1301.00,0.0145
1300.00,0.0141
1299.00,0.0139
1298.00,0.0138
1297.00,0.0137
1296.00,0.0136
1295.00,0.0134
1294.00,0.0130
1293.00,0.0125
1292.00,0.0121
1291.00,0.0116
1290.00,0.0111
1289.00,0.0107
1288.00,0.0104
1287.00,0.0101
1286.00,0.0098
1285.00,0.0095
1284.00,0.0093
1283.00,0.0091
1282.00,0.0089
1281.00,0.0088
1280.00,0.0087
1279.00,0.0086
1278.00,0.0086
1277.00,0.0086
1276.00,0.0085
1275.00,0.0085
1274.00,0.0085
1273.00,0.0085
1272.00,0.0085
1271.00,0.0085
1270.00,0.0086
1269.00,0.0086
1268.00,0.0087
1267.00,0.0089
1266.00,0.0090
1265.00,0.0092
1264.00,0.0095
1263.00,0.0098
1262.00,0.0103
1261.00,0.0109
1260.00,0.0116
1259.00,0.0125
1258.00,0.0133
1257.00,0.0139
1256.00,0.0142
1255.00,0.0140
1254.00,0.0133
1253.00,0.0125
1252.00,0.0117
1251.00,0.0110
1250.00,0.0105
1249.00,0.0101
1248.00,0.0098
1247.00,0.0096
1246.00,0.0095
1245.00,0.0095
1244.00,0.0095
1243.00,0.0094
1242.00,0.0093
1241.00,0.0092
1240.00,0.0091
1239.00,0.0090
1238.00,0.0089
1237.00,0.0089
1236.00,0.0088
1235.00,0.0088
1234.00,0.0088
1233.00,0.0088
1232.00,0.0087
1231.00,0.0087
1230.00,0.0087
1229.00,0.0088
1228.00,0.0088
1227.00,0.0089
1226.00,0.0091
1225.00,0.0093
1224.00,0.0096
1223.00,0.0099
1222.00,0.0102
1221.00,0.0104
1220.00,0.0106
1219.00,0.0107
1218.00,0.0107
1217.00,0.0105
1216.00,0.0103
1215.00,0.0101
1214.00,0.0098
1213.00,0.0095
1212.00,0.0092
1211.00,0.0089
1210.00,0.0087
1209.00,0.0085
1208.00,0.0084
1207.00,0.0082
1206.00,0.0081
1205.00,0.0081
1204.00,0.0081
1203.00,0.0081
1202.00,0.0081
1201.00,0.0081
1200.00,0.0081
1199.00,0.0081
1198.00,0.0081
1197.00,0.0081
1196.00,0.0081
1195.00,0.0081
1194.00,0.0081
1193.00,0.0081
1192.00,0.0081
1191.00,0.0081
1190.00,0.0081
1189.00,0.0082
1188.00,0.0082
1187.00,0.0082
1186.00,0.0083
1185.00,0.0084
1184.00,0.0085
1183.00,0.0086
1182.00,0.0089
1181.00,0.0092
1180.00,0.0096
1179.00,0.0101
1178.00,0.0108
1177.00,0.0118
1176.00,0.0132
1175.00,0.0150
1174.00,0.0173
1173.00,0.0202
1172.00,0.0237
1171.00,0.0274
1170.00,0.0310
1169.00,0.0339
1168.00,0.0357
1167.00,0.0362
1166.00,0.0356
1165.00,0.0340
1164.00,0.0320
1163.00,0.0299
1162.00,0.0280
1161.00,0.0264
1160.00,0.0251
1159.00,0.0240
1158.00,0.0232
1157.00,0.0225
1156.00,0.0221
1155.00,0.0217
1154.00,0.0214
1153.00,0.0210
1152.00,0.0205
1151.00,0.0198
1150.00,0.0190
1149.00,0.0181
1148.00,0.0171
1147.00,0.0161
1146.00,0.0152
1145.00,0.0143
1144.00,0.0135
1143.00,0.0129
1142.00,0.0123
1141.00,0.0117
1140.00,0.0112
1139.00,0.0107
1138.00,0.0103
1137.00,0.0100
1136.00,0.0097
1135.00,0.0094
1134.00,0.0092
1133.00,0.0090
1132.00,0.0089
1131.00,0.0088
1130.00,0.0089
1129.00,0.0089
1128.00,0.0091
1127.00,0.0093
1126.00,0.0095
1125.00,0.0095
1124.00,0.0095
1123.00,0.0094
1122.00,0.0094
1121.00,0.0095
1120.00,0.0096
1119.00,0.0097
1118.00,0.0098
1117.00,0.0098
1116.00,0.0099
1115.00,0.0100
1114.00,0.0102
1113.00,0.0103
1112.00,0.0105
1111.00,0.0108
1110.00,0.0111
1109.00,0.0115
1108.00,0.0120
1107.00,0.0127
1106.00,0.0134
1105.00,0.0142
1104.00,0.0148
1103.00,0.0152
1102.00,0.0152
1101.00,0.0149
1100.00,0.0144
1099.00,0.0137
1098.00,0.0131
1097.00,0.0126
1096.00,0.0120
1095.00,0.0115
1094.00,0.0110
1093.00,0.0107
1092.00,0.0104
1091.00,0.0102
1090.00,0.0101
1089.00,0.0099
1088.00,0.0097
1087.00,0.0096
1086.00,0.0095
1085.00,0.0094
1084.00,0.0093
1083.00,0.0092
1082.00,0.0091
1081.00,0.0090
1080.00,0.0089
1079.00,0.0088
1078.00,0.0087
1077.00,0.0085
1076.00,0.0084
1075.00,0.0084
1074.00,0.0083
1073.00,0.0083
1072.00,0.0082
1071.00,0.0082
1070.00,0.0082
1069.00,0.0083
1068.00,0.0083
1067.00,0.0084
1066.00,0.0084
1065.00,0.0083
1064.00,0.0082
1063.00,0.0082
1062.00,0.0082
1061.00,0.0082
1060.00,0.0082
1059.00,0.0083
1058.00,0.0085
1057.00,0.0086
1056.00,0.0087
1055.00,0.0088
1054.00,0.0088
1053.00,0.0089
1052.00,0.0091
1051.00,0.0092
1050.00,0.0095
1049.00,0.0097
1048.00,0.0101
1047.00,0.0105
1046.00,0.0109
1045.00,0.0110
1044.00,0.0110
1043.00,0.0108
1042.00,0.0104
1041.00,0.0102
1040.00,0.0100
1039.00,0.0100
1038.00,0.0100
1037.00,0.0101
1036.00,0.0101
1035.00,0.0101
1034.00,0.0100
1033.00,0.0099
1032.00,0.0098
1031.00,0.0097
1030.00,0.0097
1029.00,0.0096
1028.00,0.0097
1027.00,0.0097
1026.00,0.0096
1025.00,0.0096
1024.00,0.0095
1023.00,0.0096
1022.00,0.0097
1021.00,0.0098
1020.00,0.0099
1019.00,0.0100
1018.00,0.0101
1017.00,0.0103
1016.00,0.0106
1015.00,0.0108
1014.00,0.0112
1013.00,0.0116
1012.00,0.0120
1011.00,0.0123
1010.00,0.0127
1009.00,0.0132
1008.00,0.0139
1007.00,0.0147
1006.00,0.0157
1005.00,0.0171
1004.00,0.0188
1003.00,0.0211
1002.00,0.0242
1001.00,0.0279
1000.00,0.0321
999.00,0.0357
998.00,0.0376
997.00,0.0371
996.00,0.0343
995.00,0.0301
994.00,0.0256
993.00,0.0216
992.00,0.0184
991.00,0.0162
990.00,0.0146
989.00,0.0134
988.00,0.0127
987.00,0.0123
986.00,0.0122
985.00,0.0124
984.00,0.0129
983.00,0.0138
982.00,0.0150
981.00,0.0168
980.00,0.0192
979.00,0.0225
978.00,0.0265
977.00,0.0313
976.00,0.0365
975.00,0.0414
974.00,0.0451
973.00,0.0467
972.00,0.0454
971.00,0.0415
970.00,0.0360
969.00,0.0301
968.00,0.0250
967.00,0.0209
966.00,0.0179
965.00,0.0157
964.00,0.0140
963.00,0.0127
962.00,0.0117
961.00,0.0109
960.00,0.0104
959.00,0.0100
958.00,0.0097
957.00,0.0094
956.00,0.0092
955.00,0.0090
954.00,0.0088
953.00,0.0087
952.00,0.0085
951.00,0.0083
950.00,0.0082
949.00,0.0082
948.00,0.0083
947.00,0.0085
946.00,0.0087
945.00,0.0089
944.00,0.0092
943.00,0.0094
942.00,0.0096
941.00,0.0096
940.00,0.0095
939.00,0.0092
938.00,0.0089
937.00,0.0086
936.00,0.0082
935.00,0.0078
934.00,0.0075
933.00,0.0071
932.00,0.0069
931.00,0.0068
930.00,0.0067
929.00,0.0066
928.00,0.0066
927.00,0.0065
926.00,0.0065
925.00,0.0065
924.00,0.0066
923.00,0.0067
922.00,0.0068
921.00,0.0069
920.00,0.0070
919.00,0.0071
918.00,0.0073
917.00,0.0074
916.00,0.0075
915.00,0.0075
914.00,0.0075
913.00,0.0076
912.00,0.0076
911.00,0.0077
910.00,0.0078
909.00,0.0079
908.00,0.0081
907.00,0.0086
906.00,0.0093
905.00,0.0102
904.00,0.0116
903.00,0.0134
902.00,0.0153
901.00,0.0171
900.00,0.0183
899.00,0.0186
898.00,0.0180
897.00,0.0166
896.00,0.0148
895.00,0.0131
894.00,0.0116
893.00,0.0104
892.00,0.0095
891.00,0.0089
890.00,0.0083
889.00,0.0080
888.00,0.0077
887.00,0.0076
886.00,0.0076
885.00,0.0075
884.00,0.0075
883.00,0.0074
882.00,0.0074
881.00,0.0075
880.00,0.0076
879.00,0.0077
878.00,0.0077
877.00,0.0078
876.00,0.0079
875.00,0.0079
874.00,0.0080
873.00,0.0080
872.00,0.0081
871.00,0.0081
870.00,0.0081
869.00,0.0080
868.00,0.0079
867.00,0.0079
866.00,0.0079
865.00,0.0080
864.00,0.0081
863.00,0.0083
862.00,0.0086
861.00,0.0088
860.00,0.0090
859.00,0.0091
858.00,0.0093
857.00,0.0094
856.00,0.0095
855.00,0.0096
854.00,0.0097
853.00,0.0100
852.00,0.0105
851.00,0.0111
850.00,0.0118
849.00,0.0126
848.00,0.0136
847.00,0.0153
846.00,0.0178
845.00,0.0217
844.00,0.0267
843.00,0.0321
842.00,0.0359
841.00,0.0367
840.00,0.0342
839.00,0.0295
838.00,0.0245
837.00,0.0205
836.00,0.0178
835.00,0.0161
834.00,0.0150
833.00,0.0143
832.00,0.0137
831.00,0.0132
830.00,0.0127
829.00,0.0124
828.00,0.0121
827.00,0.0119
826.00,0.0116
825.00,0.0114
824.00,0.0112
823.00,0.0111
822.00,0.0112
821.00,0.0113
820.00,0.0116
819.00,0.0119
818.00,0.0122
817.00,0.0125
816.00,0.0131
815.00,0.0140
814.00,0.0152
813.00,0.0166
812.00,0.0181
811.00,0.0194
810.00,0.0204
809.00,0.0209
808.00,0.0208
807.00,0.0202
806.00,0.0191
805.00,0.0179
804.00,0.0165
803.00,0.0151
802.00,0.0139
801.00,0.0129
800.00,0.0121
799.00,0.0114
798.00,0.0110
797.00,0.0106
796.00,0.0103
795.00,0.0100
794.00,0.0097
793.00,0.0094
792.00,0.0092
791.00,0.0089
790.00,0.0088
789.00,0.0086
788.00,0.0084
787.00,0.0082
786.00,0.0079
785.00,0.0076
784.00,0.0073
783.00,0.0071
782.00,0.0068
781.00,0.0067
780.00,0.0067
779.00,0.0068
778.00,0.0068
777.00,0.0069
776.00,0.0069
775.00,0.0070
774.00,0.0071
773.00,0.0073
772.00,0.0075
771.00,0.0079
770.00,0.0082
769.00,0.0085
768.00,0.0087
767.00,0.0088
766.00,0.0087
765.00,0.0084
764.00,0.0081
763.00,0.0076
762.00,0.0072
761.00,0.0068
760.00,0.0066
759.00,0.0065
758.00,0.0064
757.00,0.0063
756.00,0.0062
755.00,0.0061
754.00,0.0060
753.00,0.0059
752.00,0.0059
751.00,0.0059
750.00,0.0058
749.00,0.0058
748.00,0.0058
747.00,0.0060
746.00,0.0062
745.00,0.0063
744.00,0.0062
743.00,0.0061
742.00,0.0062
741.00,0.0063
740.00,0.0065
739.00,0.0067
738.00,0.0069
737.00,0.0072
736.00,0.0075
735.00,0.0077
734.00,0.0079
733.00,0.0080
732.00,0.0080
731.00,0.0080
730.00,0.0080
729.00,0.0079
728.00,0.0077
727.00,0.0075
726.00,0.0073
725.00,0.0073
724.00,0.0073
723.00,0.0073
722.00,0.0072
721.00,0.0070
720.00,0.0068
719.00,0.0067
718.00,0.0066
717.00,0.0066
716.00,0.0066
715.00,0.0065
714.00,0.0063
713.00,0.0062
712.00,0.0061
711.00,0.0061
710.00,0.0062
709.00,0.0061
708.00,0.0060
707.00,0.0059
706.00,0.0060
705.00,0.0061
704.00,0.0062
703.00,0.0062
702.00,0.0062
701.00,0.0062
700.00,0.0062
699.00,0.0060
698.00,0.0059
697.00,0.0058
696.00,0.0059
695.00,0.0060
694.00,0.0059
693.00,0.0058
692.00,0.0059
691.00,0.0060
690.00,0.0061
689.00,0.0061
688.00,0.0061
687.00,0.0061
686.00,0.0061
685.00,0.0060
684.00,0.0058
683.00,0.0055
682.00,0.0054
681.00,0.0053
680.00,0.0053
679.00,0.0054
678.00,0.0055
677.00,0.0056
676.00,0.0057
675.00,0.0058
674.00,0.0059
673.00,0.0059
672.00,0.0060
671.00,0.0060
670.00,0.0061
669.00,0.0063
668.00,0.0065
667.00,0.0064
666.00,0.0061
665.00,0.0058
664.00,0.0056
663.00,0.0056
662.00,0.0056
661.00,0.0055
660.00,0.0054
659.00,0.0053
658.00,0.0053
657.00,0.0054
656.00,0.0054
655.00,0.0055
654.00,0.0056
653.00,0.0057
652.00,0.0057
651.00,0.0057
650.00,0.0056
649.00,0.0055
648.00,0.0054
647.00,0.0054
646.00,0.0055
645.00,0.0055
644.00,0.0055
643.00,0.0056
642.00,0.0058
641.00,0.0060
640.00,0.0062
639.00,0.0063
638.00,0.0064
637.00,0.0064
636.00,0.0064
635.00,0.0064
634.00,0.0063
633.00,0.0062
632.00,0.0060
631.00,0.0057
630.00,0.0055
629.00,0.0054
628.00,0.0055
627.00,0.0056
626.00,0.0057
625.00,0.0057
624.00,0.0057
623.00,0.0056
622.00,0.0054
621.00,0.0054
620.00,0.0053
619.00,0.0053
618.00,0.0054
617.00,0.0055
616.00,0.0056
615.00,0.0058
614.00,0.0060
613.00,0.0062
612.00,0.0064
611.00,0.0064
610.00,0.0065
609.00,0.0066
608.00,0.0069
607.00,0.0072
606.00,0.0074
605.00,0.0074
604.00,0.0072
603.00,0.0069
602.00,0.0065
601.00,0.0062
600.00,0.0060
599.00,0.0059
598.00,0.0061
597.00,0.0062
596.00,0.0064
595.00,0.0064
594.00,0.0063
593.00,0.0063
592.00,0.0062
591.00,0.0062
590.00,0.0061
589.00,0.0061
588.00,0.0063
587.00,0.0065
586.00,0.0067
585.00,0.0068
584.00,0.0069
583.00,0.0070
582.00,0.0072
581.00,0.0073
580.00,0.0074
579.00,0.0075
578.00,0.0075
577.00,0.0074
576.00,0.0072
575.00,0.0070
574.00,0.0071
573.00,0.0073
572.00,0.0075
571.00,0.0077
570.00,0.0076
569.00,0.0073
568.00,0.0069
567.00,0.0068
566.00,0.0070
565.00,0.0072
564.00,0.0074
563.00,0.0074
562.00,0.0070
561.00,0.0065
560.00,0.0060
559.00,0.0059
558.00,0.0061
557.00,0.0064
556.00,0.0065
555.00,0.0066
554.00,0.0070
553.00,0.0076
552.00,0.0082
551.00,0.0084
550.00,0.0080
549.00,0.0073
548.00,0.0068
547.00,0.0065
546.00,0.0064
545.00,0.0064
544.00,0.0064
543.00,0.0065
542.00,0.0067
541.00,0.0068
540.00,0.0068
539.00,0.0067
538.00,0.0069
537.00,0.0074
536.00,0.0079
535.00,0.0084
534.00,0.0087
533.00,0.0088
532.00,0.0087
531.00,0.0085
530.00,0.0086
529.00,0.0090
528.00,0.0096
527.00,0.0099
526.00,0.0097
525.00,0.0092
524.00,0.0088
523.00,0.0089
522.00,0.0093
521.00,0.0094
520.00,0.0090
519.00,0.0086
518.00,0.0082
517.00,0.0079
516.00,0.0074
515.00,0.0068
514.00,0.0065
513.00,0.0062
512.00,0.0061
511.00,0.0060
510.00,0.0064
509.00,0.0069
508.00,0.0071
507.00,0.0067
506.00,0.0061
505.00,0.0058
504.00,0.0059
503.00,0.0064
502.00,0.0071
501.00,0.0076
500.00,0.0076
499.00,0.0071
498.00,0.0065
497.00,0.0063
496.00,0.0064
495.00,0.0067
494.00,0.0068
493.00,0.0065
492.00,0.0059
491.00,0.0052
490.00,0.0051
489.00,0.0053
488.00,0.0056
487.00,0.0054
486.00,0.0052
485.00,0.0052
484.00,0.0055
483.00,0.0059
482.00,0.0061
481.00,0.0061
480.00,0.0062
479.00,0.0061
478.00,0.0060
477.00,0.0060
476.00,0.0066
475.00,0.0075
474.00,0.0085
473.00,0.0090
472.00,0.0091
471.00,0.0092
470.00,0.0094
469.00,0.0096
468.00,0.0098
467.00,0.0102
466.00,0.0106
465.00,0.0109
464.00,0.0108
463.00,0.0109
462.00,0.0117
461.00,0.0133
460.00,0.0151
459.00,0.0160
458.00,0.0153
457.00,0.0136
456.00,0.0123
455.00,0.0122
454.00,0.0126
453.00,0.0129
452.00,0.0122
451.00,0.0108
450.00,0.0097
