Created as New Dataset,Sample 005 By Administrator Date Tuesday, September 09 2025
cm-1,A
4000.00,0.0011
3999.00,0.0011
3998.00,0.0012
3997.00,0.0012
3996.00,0.0013
3995.00,0.0013
3994.00,0.0012
3993.00,0.0012
3992.00,0.0012
3991.00,0.0012
3990.00,0.0011
3989.00,0.0011
3988.00,0.0011
3987.00,0.0011
3986.00,0.0011
3985.00,0.0011
3984.00,0.0010
3983.00,0.0010
3982.00,0.0009
3981.00,0.0009
3980.00,0.0009
3979.00,0.0010
3978.00,0.0010
3977.00,0.0010
3976.00,0.0010
3975.00,0.0010
3974.00,0.0010
3973.00,0.0010
3972.00,0.0010
3971.00,0.0009
3970.00,0.0009
3969.00,0.0009
3968.00,0.0009
3967.00,0.0009
3966.00,0.0009
3965.00,0.0009
3964.00,0.0009
3963.00,0.0009
3962.00,0.0010
3961.00,0.0010
3960.00,0.0010
3959.00,0.0010
3958.00,0.0009
3957.00,0.0009
3956.00,0.0009
3955.00,0.0009
3954.00,0.0009
3953.00,0.0009
3952.00,0.0009
3951.00,0.0009
3950.00,0.0009
3949.00,0.0009
3948.00,0.0009
3947.00,0.0009
3946.00,0.0009
3945.00,0.0009
3944.00,0.0009
3943.00,0.0009
3942.00,0.0008
3941.00,0.0008
3940.00,0.0009
3939.00,0.0009
3938.00,0.0009
3937.00,0.0009
3936.00,0.0009
3935.00,0.0009
3934.00,0.0010
3933.00,0.0010
3932.00,0.0010
3931.00,0.0010
3930.00,0.0010
3929.00,0.0009
3928.00,0.0009
3927.00,0.0009
3926.00,0.0009
3925.00,0.0009
3924.00,0.0010
3923.00,0.0010
3922.00,0.0010
3921.00,0.0010
3920.00,0.0011
3919.00,0.0011
3918.00,0.0011
3917.00,0.0010
3916.00,0.0010
3915.00,0.0009
3914.00,0.0009
3913.00,0.0009
3912.00,0.0009
3911.00,0.0009
3910.00,0.0009
3909.00,0.0009
3908.00,0.0009
3907.00,0.0009
3906.00,0.0009
3905.00,0.0008
3904.00,0.0009
3903.00,0.0009
3902.00,0.0009
3901.00,0.0009
3900.00,0.0009
3899.00,0.0009
3898.00,0.0009
3897.00,0.0009
3896.00,0.0009
3895.00,0.0009
3894.00,0.0009
3893.00,0.0009
3892.00,0.0010
3891.00,0.0010
3890.00,0.0010
3889.00,0.0010
3888.00,0.0011
3887.00,0.0011
3886.00,0.0010
3885.00,0.0010
3884.00,0.0010
3883.00,0.0010
3882.00,0.0009
3881.00,0.0009
3880.00,0.0009
3879.00,0.0009
3878.00,0.0009
3877.00,0.0009
3876.00,0.0009
3875.00,0.0009
3874.00,0.0009
3873.00,0.0009
3872.00,0.0010
3871.00,0.0010
3870.00,0.0010
3869.00,0.0010
3868.00,0.0009
3867.00,0.0009
3866.00,0.0010
3865.00,0.0010
3864.00,0.0010
3863.00,0.0010
3862.00,0.0010
3861.00,0.0010
3860.00,0.0010
3859.00,0.0009
3858.00,0.0009
3857.00,0.0008
3856.00,0.0008
3855.00,0.0008
3854.00,0.0008
3853.00,0.0008
3852.00,0.0009
3851.00,0.0009
3850.00,0.0009
3849.00,0.0010
3848.00,0.0010
3847.00,0.0010
3846.00,0.0009
3845.00,0.0009
3844.00,0.0009
3843.00,0.0009
3842.00,0.0009
3841.00,0.0009
3840.00,0.0010
3839.00,0.0010
3838.00,0.0010
3837.00,0.0009
3836.00,0.0009
3835.00,0.0009
3834.00,0.0009
3833.00,0.0009
3832.00,0.0010
3831.00,0.0010
3830.00,0.0010
3829.00,0.0010
3828.00,0.0010
3827.00,0.0010
3826.00,0.0010
3825.00,0.0010
3824.00,0.0010
3823.00,0.0010
3822.00,0.0010
3821.00,0.0010
3820.00,0.0009
3819.00,0.0009
3818.00,0.0009
3817.00,0.0009
3816.00,0.0008
3815.00,0.0008
3814.00,0.0008
3813.00,0.0009
3812.00,0.0009
3811.00,0.0009
3810.00,0.0009
3809.00,0.0009
3808.00,0.0009
3807.00,0.0009
3806.00,0.0009
3805.00,0.0009
3804.00,0.0009
3803.00,0.0010
3802.00,0.0010
3801.00,0.0010
3800.00,0.0010
3799.00,0.0010
3798.00,0.0010
3797.00,0.0010
3796.00,0.0009
3795.00,0.0009
3794.00,0.0009
3793.00,0.0009
3792.00,0.0009
3791.00,0.0009
3790.00,0.0009
3789.00,0.0009
3788.00,0.0009
3787.00,0.0009
3786.00,0.0009
3785.00,0.0009
3784.00,0.0009
3783.00,0.0010
3782.00,0.0010
3781.00,0.0010
3780.00,0.0010
3779.00,0.0009
3778.00,0.0010
3777.00,0.0010
3776.00,0.0010
3775.00,0.0010
3774.00,0.0010
3773.00,0.0009
3772.00,0.0010
3771.00,0.0010
3770.00,0.0010
3769.00,0.0011
3768.00,0.0011
3767.00,0.0011
3766.00,0.0010
3765.00,0.0010
3764.00,0.0010
3763.00,0.0010
3762.00,0.0011
3761.00,0.0011
3760.00,0.0011
3759.00,0.0011
3758.00,0.0011
3757.00,0.0011
3756.00,0.0011
3755.00,0.0011
3754.00,0.0011
3753.00,0.0011
3752.00,0.0011
3751.00,0.0012
3750.00,0.0012
3749.00,0.0012
3748.00,0.0011
3747.00,0.0011
3746.00,0.0010
3745.00,0.0010
3744.00,0.0010
3743.00,0.0009
3742.00,0.0009
3741.00,0.0009
3740.00,0.0009
3739.00,0.0009
3738.00,0.0009
3737.00,0.0009
3736.00,0.0009
3735.00,0.0009
3734.00,0.0009
3733.00,0.0009
3732.00,0.0009
3731.00,0.0009
3730.00,0.0009
3729.00,0.0009
3728.00,0.0010
3727.00,0.0010
3726.00,0.0009
3725.00,0.0009
3724.00,0.0009
3723.00,0.0009
3722.00,0.0009
3721.00,0.0008
3720.00,0.0008
3719.00,0.0008
3718.00,0.0008
3717.00,0.0008
3716.00,0.0008
3715.00,0.0008
3714.00,0.0008
3713.00,0.0008
3712.00,0.0008
3711.00,0.0008
3710.00,0.0009
3709.00,0.0009
3708.00,0.0009
3707.00,0.0009
3706.00,0.0008
3705.00,0.0008
3704.00,0.0008
3703.00,0.0008
3702.00,0.0008
3701.00,0.0008
3700.00,0.0007
3699.00,0.0007
3698.00,0.0007
3697.00,0.0007
3696.00,0.0008
3695.00,0.0008
3694.00,0.0008
3693.00,0.0008
3692.00,0.0008
3691.00,0.0008
3690.00,0.0009
3689.00,0.0009
3688.00,0.0009
3687.00,0.0009
3686.00,0.0009
3685.00,0.0009
3684.00,0.0009
3683.00,0.0009
3682.00,0.0009
3681.00,0.0009
3680.00,0.0009
3679.00,0.0010
3678.00,0.0010
3677.00,0.0011
3676.00,0.0011
3675.00,0.0011
3674.00,0.0011
3673.00,0.0011
3672.00,0.0011
3671.00,0.0011
3670.00,0.0011
3669.00,0.0011
3668.00,0.0011
3667.00,0.0011
3666.00,0.0011
3665.00,0.0011
3664.00,0.0011
3663.00,0.0010
3662.00,0.0011
3661.00,0.0011
3660.00,0.0011
3659.00,0.0011
3658.00,0.0012
3657.00,0.0012
3656.00,0.0013
3655.00,0.0013
3654.00,0.0012
3653.00,0.0012
3652.00,0.0012
3651.00,0.0012
3650.00,0.0012
3649.00,0.0012
3648.00,0.0011
3647.00,0.0011
3646.00,0.0011
3645.00,0.0011
3644.00,0.0011
3643.00,0.0011
3642.00,0.0012
3641.00,0.0012
3640.00,0.0012
3639.00,0.0012
3638.00,0.0012
3637.00,0.0012
3636.00,0.0012
3635.00,0.0012
3634.00,0.0012
3633.00,0.0013
3632.00,0.0013
3631.00,0.0013
3630.00,0.0013
3629.00,0.0013
3628.00,0.0012
3627.00,0.0012
3626.00,0.0012
3625.00,0.0012
3624.00,0.0012
3623.00,0.0012
3622.00,0.0012
3621.00,0.0012
3620.00,0.0012
3619.00,0.0012
3618.00,0.0012
3617.00,0.0013
3616.00,0.0013
3615.00,0.0014
3614.00,0.0014
3613.00,0.0014
3612.00,0.0014
3611.00,0.0014
3610.00,0.0015
3609.00,0.0014
3608.00,0.0014
3607.00,0.0014
3606.00,0.0014
3605.00,0.0014
3604.00,0.0014
3603.00,0.0014
3602.00,0.0015
3601.00,0.0015
3600.00,0.0015
3599.00,0.0015
3598.00,0.0016
3597.00,0.0016
3596.00,0.0017
3595.00,0.0017
3594.00,0.0017
3593.00,0.0017
3592.00,0.0017
3591.00,0.0018
3590.00,0.0018
3589.00,0.0018
3588.00,0.0018
3587.00,0.0017
3586.00,0.0017
3585.00,0.0017
3584.00,0.0018
3583.00,0.0018
3582.00,0.0019
3581.00,0.0019
3580.00,0.0019
3579.00,0.0019
3578.00,0.0019
3577.00,0.0019
3576.00,0.0019
3575.00,0.0019
3574.00,0.0020
3573.00,0.0020
3572.00,0.0020
3571.00,0.0021
3570.00,0.0021
3569.00,0.0022
3568.00,0.0022
3567.00,0.0022
3566.00,0.0022
3565.00,0.0022
3564.00,0.0022
3563.00,0.0023
3562.00,0.0023
3561.00,0.0023
3560.00,0.0023
3559.00,0.0023
3558.00,0.0023
3557.00,0.0024
3556.00,0.0024
3555.00,0.0024
3554.00,0.0024
3553.00,0.0025
3552.00,0.0026
3551.00,0.0027
3550.00,0.0027
3549.00,0.0027
3548.00,0.0027
3547.00,0.0027
3546.00,0.0027
3545.00,0.0027
3544.00,0.0027
3543.00,0.0027
3542.00,0.0027
3541.00,0.0027
3540.00,0.0027
3539.00,0.0027
3538.00,0.0028
3537.00,0.0028
3536.00,0.0028
3535.00,0.0029
3534.00,0.0029
3533.00,0.0030
3532.00,0.0030
3531.00,0.0030
3530.00,0.0030
3529.00,0.0030
3528.00,0.0030
3527.00,0.0031
3526.00,0.0031
3525.00,0.0031
3524.00,0.0031
3523.00,0.0032
3522.00,0.0032
3521.00,0.0032
3520.00,0.0032
3519.00,0.0032
3518.00,0.0032
3517.00,0.0032
3516.00,0.0032
3515.00,0.0033
3514.00,0.0033
3513.00,0.0033
3512.00,0.0034
3511.00,0.0034
3510.00,0.0034
3509.00,0.0035
3508.00,0.0035
3507.00,0.0035
3506.00,0.0035
3505.00,0.0035
3504.00,0.0035
3503.00,0.0034
3502.00,0.0035
3501.00,0.0035
3500.00,0.0036
3499.00,0.0036
3498.00,0.0037
3497.00,0.0037
3496.00,0.0037
3495.00,0.0037
3494.00,0.0037
3493.00,0.0038
3492.00,0.0038
3491.00,0.0038
3490.00,0.0039
3489.00,0.0039
3488.00,0.0039
3487.00,0.0040
3486.00,0.0040
3485.00,0.0041
3484.00,0.0041
3483.00,0.0041
3482.00,0.0041
3481.00,0.0041
3480.00,0.0041
3479.00,0.0042
3478.00,0.0042
3477.00,0.0042
3476.00,0.0042
3475.00,0.0042
3474.00,0.0043
3473.00,0.0043
3472.00,0.0044
3471.00,0.0044
3470.00,0.0044
3469.00,0.0044
3468.00,0.0044
3467.00,0.0044
3466.00,0.0044
3465.00,0.0044
3464.00,0.0045
3463.00,0.0045
3462.00,0.0045
3461.00,0.0046
3460.00,0.0046
3459.00,0.0046
3458.00,0.0046
3457.00,0.0046
3456.00,0.0046
3455.00,0.0047
3454.00,0.0047
3453.00,0.0047
3452.00,0.0048
3451.00,0.0048
3450.00,0.0049
3449.00,0.0049
3448.00,0.0049
3447.00,0.0049
3446.00,0.0049
3445.00,0.0050
3444.00,0.0050
3443.00,0.0050
3442.00,0.0050
3441.00,0.0050
3440.00,0.0050
3439.00,0.0050
3438.00,0.0050
3437.00,0.0051
3436.00,0.0051
3435.00,0.0052
3434.00,0.0052
3433.00,0.0052
3432.00,0.0052
3431.00,0.0053
3430.00,0.0052
3429.00,0.0052
3428.00,0.0052
3427.00,0.0052
3426.00,0.0053
3425.00,0.0053
3424.00,0.0053
3423.00,0.0054
3422.00,0.0054
3421.00,0.0054
3420.00,0.0054
3419.00,0.0055
3418.00,0.0055
3417.00,0.0055
3416.00,0.0056
3415.00,0.0056
3414.00,0.0057
3413.00,0.0057
3412.00,0.0057
3411.00,0.0057
3410.00,0.0057
3409.00,0.0057
3408.00,0.0057
3407.00,0.0057
3406.00,0.0057
3405.00,0.0057
3404.00,0.0056
3403.00,0.0057
3402.00,0.0057
3401.00,0.0057
3400.00,0.0057
3399.00,0.0057
3398.00,0.0058
3397.00,0.0058
3396.00,0.0058
3395.00,0.0058
3394.00,0.0058
3393.00,0.0057
3392.00,0.0057
3391.00,0.0058
3390.00,0.0058
3389.00,0.0057
3388.00,0.0057
3387.00,0.0057
3386.00,0.0058
3385.00,0.0058
3384.00,0.0058
3383.00,0.0058
3382.00,0.0059
3381.00,0.0059
3380.00,0.0059
3379.00,0.0059
3378.00,0.0059
3377.00,0.0059
3376.00,0.0059
3375.00,0.0059
3374.00,0.0059
3373.00,0.0059
3372.00,0.0059
3371.00,0.0059
3370.00,0.0059
3369.00,0.0059
3368.00,0.0059
3367.00,0.0059
3366.00,0.0060
3365.00,0.0060
3364.00,0.0060
3363.00,0.0061
3362.00,0.0060
3361.00,0.0061
3360.00,0.0061
3359.00,0.0061
3358.00,0.0062
3357.00,0.0062
3356.00,0.0062
3355.00,0.0062
3354.00,0.0062
3353.00,0.0061
3352.00,0.0061
3351.00,0.0061
3350.00,0.0061
3349.00,0.0061
3348.00,0.0061
3347.00,0.0061
3346.00,0.0061
3345.00,0.0061
3344.00,0.0061
3343.00,0.0061
3342.00,0.0061
3341.00,0.0061
3340.00,0.0061
3339.00,0.0060
3338.00,0.0060
3337.00,0.0060
3336.00,0.0060
3335.00,0.0060
3334.00,0.0060
3333.00,0.0060
3332.00,0.0060
3331.00,0.0060
3330.00,0.0060
3329.00,0.0060
3328.00,0.0059
3327.00,0.0059
3326.00,0.0059
3325.00,0.0059
3324.00,0.0060
3323.00,0.0060
3322.00,0.0060
3321.00,0.0060
3320.00,0.0060
3319.00,0.0060
3318.00,0.0060
3317.00,0.0059
3316.00,0.0059
3315.00,0.0059
3314.00,0.0059
3313.00,0.0059
3312.00,0.0059
3311.00,0.0059
3310.00,0.0058
3309.00,0.0058
3308.00,0.0058
3307.00,0.0058
3306.00,0.0058
3305.00,0.0059
3304.00,0.0059
3303.00,0.0059
3302.00,0.0059
3301.00,0.0059
3300.00,0.0059
3299.00,0.0059
3298.00,0.0059
3297.00,0.0059
3296.00,0.0059
3295.00,0.0059
3294.00,0.0059
3293.00,0.0059
3292.00,0.0059
3291.00,0.0058
3290.00,0.0058
3289.00,0.0058
3288.00,0.0058
3287.00,0.0058
3286.00,0.0058
3285.00,0.0057
3284.00,0.0057
3283.00,0.0057
3282.00,0.0056
3281.00,0.0057
3280.00,0.0057
3279.00,0.0057
3278.00,0.0057
3277.00,0.0057
3276.00,0.0056
3275.00,0.0056
3274.00,0.0055
3273.00,0.0055
3272.00,0.0055
3271.00,0.0055
3270.00,0.0055
3269.00,0.0055
3268.00,0.0055
3267.00,0.0054
3266.00,0.0054
3265.00,0.0054
3264.00,0.0054
3263.00,0.0054
3262.00,0.0054
3261.00,0.0054
3260.00,0.0054
3259.00,0.0054
3258.00,0.0054
3257.00,0.0053
3256.00,0.0053
3255.00,0.0052
3254.00,0.0052
3253.00,0.0052
3252.00,0.0051
3251.00,0.0051
3250.00,0.0051
3249.00,0.0051
3248.00,0.0051
3247.00,0.0051
3246.00,0.0051
3245.00,0.0052
3244.00,0.0052
3243.00,0.0052
3242.00,0.0052
3241.00,0.0052
3240.00,0.0052
3239.00,0.0052
3238.00,0.0052
3237.00,0.0051
3236.00,0.0051
3235.00,0.0051
3234.00,0.0051
3233.00,0.0051
3232.00,0.0052
3231.00,0.0052
3230.00,0.0052
3229.00,0.0053
3228.00,0.0053
3227.00,0.0053
3226.00,0.0053
3225.00,0.0052
3224.00,0.0052
3223.00,0.0052
3222.00,0.0052
3221.00,0.0052
3220.00,0.0052
3219.00,0.0052
3218.00,0.0052
3217.00,0.0052
3216.00,0.0052
3215.00,0.0053
3214.00,0.0053
3213.00,0.0053
3212.00,0.0054
3211.00,0.0054
3210.00,0.0055
3209.00,0.0055
3208.00,0.0055
3207.00,0.0055
3206.00,0.0055
3205.00,0.0055
3204.00,0.0055
3203.00,0.0055
3202.00,0.0055
3201.00,0.0055
3200.00,0.0055
3199.00,0.0055
3198.00,0.0055
3197.00,0.0055
3196.00,0.0055
3195.00,0.0055
3194.00,0.0055
3193.00,0.0055
3192.00,0.0055
3191.00,0.0055
3190.00,0.0055
3189.00,0.0055
3188.00,0.0055
3187.00,0.0055
3186.00,0.0055
3185.00,0.0054
3184.00,0.0054
3183.00,0.0054
3182.00,0.0054
3181.00,0.0054
3180.00,0.0053
3179.00,0.0053
3178.00,0.0052
3177.00,0.0052
3176.00,0.0051
3175.00,0.0051
3174.00,0.0051
3173.00,0.0051
3172.00,0.0051
3171.00,0.0050
3170.00,0.0050
3169.00,0.0050
3168.00,0.0050
3167.00,0.0050
3166.00,0.0050
3165.00,0.0050
3164.00,0.0050
3163.00,0.0050
3162.00,0.0049
3161.00,0.0049
3160.00,0.0049
3159.00,0.0049
3158.00,0.0049
3157.00,0.0049
3156.00,0.0049
3155.00,0.0048
3154.00,0.0048
3153.00,0.0048
3152.00,0.0048
3151.00,0.0048
3150.00,0.0048
3149.00,0.0048
3148.00,0.0047
3147.00,0.0047
3146.00,0.0046
3145.00,0.0046
3144.00,0.0046
3143.00,0.0047
3142.00,0.0047
3141.00,0.0047
3140.00,0.0047
3139.00,0.0047
3138.00,0.0046
3137.00,0.0046
3136.00,0.0045
3135.00,0.0045
3134.00,0.0044
3133.00,0.0044
3132.00,0.0043
3131.00,0.0043
3130.00,0.0043
3129.00,0.0043
3128.00,0.0043
3127.00,0.0043
3126.00,0.0043
3125.00,0.0042
3124.00,0.0042
3123.00,0.0042
3122.00,0.0041
3121.00,0.0041
3120.00,0.0041
3119.00,0.0041
3118.00,0.0041
3117.00,0.0040
3116.00,0.0040
3115.00,0.0040
3114.00,0.0040
3113.00,0.0040
3112.00,0.0040
3111.00,0.0039
3110.00,0.0039
3109.00,0.0038
3108.00,0.0038
3107.00,0.0038
3106.00,0.0038
3105.00,0.0038
3104.00,0.0038
3103.00,0.0038
3102.00,0.0038
3101.00,0.0038
3100.00,0.0038
3099.00,0.0038
3098.00,0.0038
3097.00,0.0038
3096.00,0.0038
3095.00,0.0038
3094.00,0.0038
3093.00,0.0037
3092.00,0.0037
3091.00,0.0037
3090.00,0.0037
3089.00,0.0037
3088.00,0.0037
3087.00,0.0036
3086.00,0.0036
3085.00,0.0036
3084.00,0.0036
3083.00,0.0036
3082.00,0.0036
3081.00,0.0036
3080.00,0.0036
3079.00,0.0036
3078.00,0.0037
3077.00,0.0037
3076.00,0.0037
3075.00,0.0037
3074.00,0.0037
3073.00,0.0037
3072.00,0.0037
3071.00,0.0036
3070.00,0.0036
3069.00,0.0036
3068.00,0.0036
3067.00,0.0036
3066.00,0.0037
3065.00,0.0037
3064.00,0.0038
3063.00,0.0038
3062.00,0.0038
3061.00,0.0038
3060.00,0.0038
3059.00,0.0038
3058.00,0.0038
3057.00,0.0038
3056.00,0.0038
3055.00,0.0038
3054.00,0.0038
3053.00,0.0038
3052.00,0.0038
3051.00,0.0039
3050.00,0.0039
3049.00,0.0039
3048.00,0.0040
3047.00,0.0040
3046.00,0.0040
3045.00,0.0039
3044.00,0.0039
3043.00,0.0040
3042.00,0.0039
3041.00,0.0039
3040.00,0.0039
3039.00,0.0039
3038.00,0.0040
3037.00,0.0040
3036.00,0.0041
3035.00,0.0041
3034.00,0.0042
3033.00,0.0042
3032.00,0.0043
3031.00,0.0043
3030.00,0.0044
3029.00,0.0044
3028.00,0.0045
3027.00,0.0045
3026.00,0.0046
3025.00,0.0046
3024.00,0.0047
3023.00,0.0047
3022.00,0.0048
3021.00,0.0049
3020.00,0.0050
3019.00,0.0051
3018.00,0.0052
3017.00,0.0053
3016.00,0.0054
3015.00,0.0056
3014.00,0.0057
3013.00,0.0058
3012.00,0.0060
3011.00,0.0062
3010.00,0.0064
3009.00,0.0066
3008.00,0.0068
3007.00,0.0070
3006.00,0.0073
3005.00,0.0075
3004.00,0.0078
3003.00,0.0081
3002.00,0.0084
3001.00,0.0087
3000.00,0.0090
2999.00,0.0093
2998.00,0.0097
2997.00,0.0101
2996.00,0.0105
2995.00,0.0110
2994.00,0.0115
2993.00,0.0121
2992.00,0.0127
2991.00,0.0133
2990.00,0.0140
2989.00,0.0148
2988.00,0.0157
2987.00,0.0167
2986.00,0.0179
2985.00,0.0192
2984.00,0.0208
2983.00,0.0224
2982.00,0.0242
2981.00,0.0260
2980.00,0.0280
2979.00,0.0302
2978.00,0.0328
2977.00,0.0357
2976.00,0.0391
2975.00,0.0430
2974.00,0.0475
2973.00,0.0525
2972.00,0.0582
2971.00,0.0646
2970.00,0.0717
2969.00,0.0795
2968.00,0.0881
2967.00,0.0974
2966.00,0.1072
2965.00,0.1174
2964.00,0.1276
2963.00,0.1374
2962.00,0.1463
2961.00,0.1538
2960.00,0.1599
2959.00,0.1646
2958.00,0.1683
2957.00,0.1716
2956.00,0.1752
2955.00,0.1794
2954.00,0.1842
2953.00,0.1895
2952.00,0.1943
2951.00,0.1979
2950.00,0.1991
2949.00,0.1970
2948.00,0.1911
2947.00,0.1817
2946.00,0.1696
2945.00,0.1562
2944.00,0.1429
2943.00,0.1310
2942.00,0.1213
2941.00,0.1142
2940.00,0.1097
2939.00,0.1076
2938.00,0.1077
2937.00,0.1096
2936.00,0.1133
2935.00,0.1186
2934.00,0.1253
2933.00,0.1332
2932.00,0.1422
2931.00,0.1520
2930.00,0.1625
2929.00,0.1731
2928.00,0.1837
2927.00,0.1941
2926.00,0.2039
2925.00,0.2133
2924.00,0.2224
2923.00,0.2312
2922.00,0.2399
2921.00,0.2482
2920.00,0.2556
2919.00,0.2613
2918.00,0.2645
2917.00,0.2645
2916.00,0.2611
2915.00,0.2547
2914.00,0.2462
2913.00,0.2366
2912.00,0.2270
2911.00,0.2178
2910.00,0.2095
2909.00,0.2020
2908.00,0.1951
2907.00,0.1884
2906.00,0.1818
2905.00,0.1750
2904.00,0.1681
2903.00,0.1610
2902.00,0.1540
2901.00,0.1470
2900.00,0.1402
2899.00,0.1338
2898.00,0.1279
2897.00,0.1225
2896.00,0.1178
2895.00,0.1137
2894.00,0.1104
2893.00,0.1078
2892.00,0.1059
2891.00,0.1046
2890.00,0.1039
2889.00,0.1037
2888.00,0.1040
2887.00,0.1046
2886.00,0.1055
2885.00,0.1068
2884.00,0.1085
2883.00,0.1107
2882.00,0.1134
2881.00,0.1162
2880.00,0.1190
2879.00,0.1214
2878.00,0.1230
2877.00,0.1235
2876.00,0.1232
2875.00,0.1223
2874.00,0.1215
2873.00,0.1211
2872.00,0.1214
2871.00,0.1225
2870.00,0.1242
2869.00,0.1259
2868.00,0.1271
2867.00,0.1268
2866.00,0.1242
2865.00,0.1191
2864.00,0.1117
2863.00,0.1028
2862.00,0.0935
2861.00,0.0847
2860.00,0.0771
2859.00,0.0711
2858.00,0.0665
2857.00,0.0633
2856.00,0.0613
2855.00,0.0604
2854.00,0.0603
2853.00,0.0611
2852.00,0.0626
2851.00,0.0646
2850.00,0.0671
2849.00,0.0699
2848.00,0.0730
2847.00,0.0767
2846.00,0.0812
2845.00,0.0866
2844.00,0.0929
2843.00,0.0999
2842.00,0.1073
2841.00,0.1144
2840.00,0.1204
2839.00,0.1244
2838.00,0.1255
2837.00,0.1231
2836.00,0.1172
2835.00,0.1084
2834.00,0.0977
2833.00,0.0863
2832.00,0.0754
2831.00,0.0657
2830.00,0.0575
2829.00,0.0508
2828.00,0.0454
2827.00,0.0410
2826.00,0.0374
2825.00,0.0345
2824.00,0.0320
2823.00,0.0299
2822.00,0.0282
2821.00,0.0266
2820.00,0.0253
2819.00,0.0242
2818.00,0.0232
2817.00,0.0224
2816.00,0.0216
2815.00,0.0209
2814.00,0.0202
2813.00,0.0196
2812.00,0.0191
2811.00,0.0186
2810.00,0.0180
2809.00,0.0174
2808.00,0.0168
2807.00,0.0162
2806.00,0.0156
2805.00,0.0150
2804.00,0.0144
2803.00,0.0138
2802.00,0.0132
2801.00,0.0127
2800.00,0.0123
2799.00,0.0120
2798.00,0.0118
2797.00,0.0115
2796.00,0.0113
2795.00,0.0111
2794.00,0.0108
2793.00,0.0105
2792.00,0.0102
2791.00,0.0099
2790.00,0.0095
2789.00,0.0092
2788.00,0.0089
2787.00,0.0086
2786.00,0.0083
2785.00,0.0081
2784.00,0.0078
2783.00,0.0076
2782.00,0.0074
2781.00,0.0072
2780.00,0.0070
2779.00,0.0068
2778.00,0.0066
2777.00,0.0065
2776.00,0.0064
2775.00,0.0063
2774.00,0.0062
2773.00,0.0061
2772.00,0.0061
2771.00,0.0061
2770.00,0.0060
2769.00,0.0060
2768.00,0.0060
2767.00,0.0059
2766.00,0.0059
2765.00,0.0059
2764.00,0.0059
2763.00,0.0058
2762.00,0.0058
2761.00,0.0057
2760.00,0.0056
2759.00,0.0056
2758.00,0.0056
2757.00,0.0055
2756.00,0.0055
2755.00,0.0055
2754.00,0.0055
2753.00,0.0055
2752.00,0.0055
2751.00,0.0055
2750.00,0.0055
2749.00,0.0055
2748.00,0.0055
2747.00,0.0056
2746.00,0.0056
2745.00,0.0057
2744.00,0.0058
2743.00,0.0058
2742.00,0.0059
2741.00,0.0060
2740.00,0.0061
2739.00,0.0062
2738.00,0.0064
2737.00,0.0065
2736.00,0.0067
2735.00,0.0069
2734.00,0.0070
2733.00,0.0072
2732.00,0.0074
2731.00,0.0076
2730.00,0.0078
2729.00,0.0081
2728.00,0.0083
2727.00,0.0086
2726.00,0.0088
2725.00,0.0091
2724.00,0.0093
2723.00,0.0093
2722.00,0.0092
2721.00,0.0090
2720.00,0.0087
2719.00,0.0083
2718.00,0.0080
2717.00,0.0076
2716.00,0.0074
2715.00,0.0071
2714.00,0.0068
2713.00,0.0066
2712.00,0.0064
2711.00,0.0062
2710.00,0.0061
2709.00,0.0059
2708.00,0.0058
2707.00,0.0057
2706.00,0.0055
2705.00,0.0054
2704.00,0.0053
2703.00,0.0052
2702.00,0.0052
2701.00,0.0051
2700.00,0.0050
2699.00,0.0050
2698.00,0.0049
2697.00,0.0048
2696.00,0.0048
2695.00,0.0048
2694.00,0.0048
2693.00,0.0048
2692.00,0.0048
2691.00,0.0048
2690.00,0.0049
2689.00,0.0048
2688.00,0.0048
2687.00,0.0048
2686.00,0.0048
2685.00,0.0047
2684.00,0.0048
2683.00,0.0048
2682.00,0.0048
2681.00,0.0048
2680.00,0.0048
2679.00,0.0048
2678.00,0.0048
2677.00,0.0048
2676.00,0.0048
2675.00,0.0048
2674.00,0.0048
2673.00,0.0048
2672.00,0.0048
2671.00,0.0048
2670.00,0.0048
2669.00,0.0048
2668.00,0.0048
2667.00,0.0048
2666.00,0.0048
2665.00,0.0048
2664.00,0.0048
2663.00,0.0049
2662.00,0.0049
2661.00,0.0050
2660.00,0.0050
2659.00,0.0050
2658.00,0.0050
2657.00,0.0050
2656.00,0.0050
2655.00,0.0050
2654.00,0.0049
2653.00,0.0049
2652.00,0.0048
2651.00,0.0047
2650.00,0.0047
2649.00,0.0047
2648.00,0.0046
2647.00,0.0046
2646.00,0.0045
2645.00,0.0045
2644.00,0.0044
2643.00,0.0044
2642.00,0.0044
2641.00,0.0043
2640.00,0.0042
2639.00,0.0042
2638.00,0.0041
2637.00,0.0041
2636.00,0.0041
2635.00,0.0041
2634.00,0.0041
2633.00,0.0041
2632.00,0.0041
2631.00,0.0041
2630.00,0.0041
2629.00,0.0041
2628.00,0.0041
2627.00,0.0042
2626.00,0.0042
2625.00,0.0042
2624.00,0.0042
2623.00,0.0043
2622.00,0.0043
2621.00,0.0044
2620.00,0.0044
2619.00,0.0044
2618.00,0.0043
2617.00,0.0043
2616.00,0.0042
2615.00,0.0042
2614.00,0.0041
2613.00,0.0041
2612.00,0.0041
2611.00,0.0041
2610.00,0.0040
2609.00,0.0040
2608.00,0.0039
2607.00,0.0038
2606.00,0.0037
2605.00,0.0036
2604.00,0.0035
2603.00,0.0034
2602.00,0.0034
2601.00,0.0034
2600.00,0.0034
2599.00,0.0034
2598.00,0.0034
2597.00,0.0034
2596.00,0.0034
2595.00,0.0034
2594.00,0.0035
2593.00,0.0035
2592.00,0.0035
2591.00,0.0035
2590.00,0.0035
2589.00,0.0036
2588.00,0.0037
2587.00,0.0038
2586.00,0.0040
2585.00,0.0040
2584.00,0.0041
2583.00,0.0041
2582.00,0.0041
2581.00,0.0041
2580.00,0.0040
2579.00,0.0040
2578.00,0.0039
2577.00,0.0039
2576.00,0.0038
2575.00,0.0038
2574.00,0.0037
2573.00,0.0035
2572.00,0.0034
2571.00,0.0032
2570.00,0.0031
2569.00,0.0030
2568.00,0.0029
2567.00,0.0029
2566.00,0.0029
2565.00,0.0029
2564.00,0.0029
2563.00,0.0029
2562.00,0.0028
2561.00,0.0027
2560.00,0.0026
2559.00,0.0025
2558.00,0.0025
2557.00,0.0025
2556.00,0.0025
2555.00,0.0024
2554.00,0.0024
2553.00,0.0023
2552.00,0.0023
2551.00,0.0023
2550.00,0.0023
2549.00,0.0023
2548.00,0.0022
2547.00,0.0022
2546.00,0.0021
2545.00,0.0021
2544.00,0.0020
2543.00,0.0020
2542.00,0.0019
2541.00,0.0018
2540.00,0.0018
2539.00,0.0019
2538.00,0.0019
2537.00,0.0019
2536.00,0.0019
2535.00,0.0019
2534.00,0.0018
2533.00,0.0017
2532.00,0.0016
2531.00,0.0016
2530.00,0.0015
2529.00,0.0015
2528.00,0.0015
2527.00,0.0015
2526.00,0.0015
2525.00,0.0016
2524.00,0.0016
2523.00,0.0016
2522.00,0.0016
2521.00,0.0016
2520.00,0.0015
2519.00,0.0015
2518.00,0.0015
2517.00,0.0015
2516.00,0.0015
2515.00,0.0014
2514.00,0.0014
2513.00,0.0013
2512.00,0.0013
2511.00,0.0013
2510.00,0.0013
2509.00,0.0014
2508.00,0.0014
2507.00,0.0014
2506.00,0.0013
2505.00,0.0013
2504.00,0.0013
2503.00,0.0013
2502.00,0.0013
2501.00,0.0013
2500.00,0.0013
2499.00,0.0013
2498.00,0.0013
2497.00,0.0013
2496.00,0.0013
2495.00,0.0013
2494.00,0.0013
2493.00,0.0013
2492.00,0.0014
2491.00,0.0014
2490.00,0.0014
2489.00,0.0013
2488.00,0.0013
2487.00,0.0013
2486.00,0.0014
2485.00,0.0013
2484.00,0.0013
2483.00,0.0012
2482.00,0.0012
2481.00,0.0012
2480.00,0.0012
2479.00,0.0012
2478.00,0.0012
2477.00,0.0012
2476.00,0.0012
2475.00,0.0012
2474.00,0.0012
2473.00,0.0012
2472.00,0.0012
2471.00,0.0012
2470.00,0.0012
2469.00,0.0012
2468.00,0.0012
2467.00,0.0011
2466.00,0.0011
2465.00,0.0011
2464.00,0.0011
2463.00,0.0011
2462.00,0.0011
2461.00,0.0012
2460.00,0.0012
2459.00,0.0013
2458.00,0.0013
2457.00,0.0013
2456.00,0.0013
2455.00,0.0014
2454.00,0.0014
2453.00,0.0013
2452.00,0.0013
2451.00,0.0012
2450.00,0.0012
2449.00,0.0013
2448.00,0.0013
2447.00,0.0014
2446.00,0.0014
2445.00,0.0014
2444.00,0.0014
2443.00,0.0014
2442.00,0.0014
2441.00,0.0013
2440.00,0.0013
2439.00,0.0012
2438.00,0.0012
2437.00,0.0012
2436.00,0.0012
2435.00,0.0013
2434.00,0.0013
2433.00,0.0013
2432.00,0.0013
2431.00,0.0014
2430.00,0.0015
2429.00,0.0015
2428.00,0.0015
2427.00,0.0015
2426.00,0.0014
2425.00,0.0014
2424.00,0.0014
2423.00,0.0014
2422.00,0.0014
2421.00,0.0014
2420.00,0.0013
2419.00,0.0013
2418.00,0.0013
2417.00,0.0013
2416.00,0.0013
2415.00,0.0013
2414.00,0.0013
2413.00,0.0013
2412.00,0.0012
2411.00,0.0012
2410.00,0.0011
2409.00,0.0011
2408.00,0.0011
2407.00,0.0011
2406.00,0.0010
2405.00,0.0010
2404.00,0.0010
2403.00,0.0010
2402.00,0.0010
2401.00,0.0010
2400.00,0.0010
2399.00,0.0010
2398.00,0.0010
2397.00,0.0010
2396.00,0.0010
2395.00,0.0010
2394.00,0.0010
2393.00,0.0010
2392.00,0.0011
2391.00,0.0011
2390.00,0.0010
2389.00,0.0010
2388.00,0.0009
2387.00,0.0008
2386.00,0.0007
2385.00,0.0007
2384.00,0.0007
2383.00,0.0006
2382.00,0.0006
2381.00,0.0005
2380.00,0.0005
2379.00,0.0005
2378.00,0.0005
2377.00,0.0005
2376.00,0.0005
2375.00,0.0005
2374.00,0.0005
2373.00,0.0005
2372.00,0.0005
2371.00,0.0005
2370.00,0.0005
2369.00,0.0004
2368.00,0.0002
2367.00,0.0001
2366.00,0.0001
2365.00,0.0001
2364.00,0.0002
2363.00,0.0003
2362.00,0.0004
2361.00,0.0004
2360.00,0.0004
2359.00,0.0004
2358.00,0.0004
2357.00,0.0005
2356.00,0.0005
2355.00,0.0005
2354.00,0.0005
2353.00,0.0004
2352.00,0.0004
2351.00,0.0004
2350.00,0.0004
2349.00,0.0005
2348.00,0.0005
2347.00,0.0005
2346.00,0.0005
2345.00,0.0005
2344.00,0.0006
2343.00,0.0006
2342.00,0.0006
2341.00,0.0007
2340.00,0.0008
2339.00,0.0008
2338.00,0.0008
2337.00,0.0008
2336.00,0.0008
2335.00,0.0008
2334.00,0.0007
2333.00,0.0007
2332.00,0.0006
2331.00,0.0006
2330.00,0.0005
2329.00,0.0006
2328.00,0.0007
2327.00,0.0011
2326.00,0.0015
2325.00,0.0019
2324.00,0.0021
2323.00,0.0020
2322.00,0.0018
2321.00,0.0016
2320.00,0.0015
2319.00,0.0014
2318.00,0.0014
2317.00,0.0014
2316.00,0.0013
2315.00,0.0012
2314.00,0.0011
2313.00,0.0009
2312.00,0.0008
2311.00,0.0007
2310.00,0.0007
2309.00,0.0007
2308.00,0.0008
2307.00,0.0009
2306.00,0.0009
2305.00,0.0009
2304.00,0.0010
2303.00,0.0010
2302.00,0.0010
2301.00,0.0010
2300.00,0.0010
2299.00,0.0010
2298.00,0.0011
2297.00,0.0012
2296.00,0.0013
2295.00,0.0014
2294.00,0.0014
2293.00,0.0015
2292.00,0.0016
2291.00,0.0017
2290.00,0.0018
2289.00,0.0019
2288.00,0.0020
2287.00,0.0021
2286.00,0.0021
2285.00,0.0021
2284.00,0.0020
2283.00,0.0020
2282.00,0.0019
2281.00,0.0019
2280.00,0.0018
2279.00,0.0017
2278.00,0.0016
2277.00,0.0015
2276.00,0.0014
2275.00,0.0014
2274.00,0.0015
2273.00,0.0015
2272.00,0.0015
2271.00,0.0014
2270.00,0.0014
2269.00,0.0013
2268.00,0.0014
2267.00,0.0014
2266.00,0.0014
2265.00,0.0015
2264.00,0.0015
2263.00,0.0015
2262.00,0.0014
2261.00,0.0014
2260.00,0.0014
2259.00,0.0015
2258.00,0.0015
2257.00,0.0014
2256.00,0.0013
2255.00,0.0012
2254.00,0.0012
2253.00,0.0011
2252.00,0.0011
2251.00,0.0010
2250.00,0.0010
2249.00,0.0010
2248.00,0.0010
2247.00,0.0010
2246.00,0.0011
2245.00,0.0012
2244.00,0.0012
2243.00,0.0012
2242.00,0.0012
2241.00,0.0011
2240.00,0.0010
2239.00,0.0009
2238.00,0.0009
2237.00,0.0009
2236.00,0.0010
2235.00,0.0011
2234.00,0.0011
2233.00,0.0011
2232.00,0.0011
2231.00,0.0011
2230.00,0.0011
2229.00,0.0011
2228.00,0.0012
2227.00,0.0012
2226.00,0.0011
2225.00,0.0010
2224.00,0.0008
2223.00,0.0007
2222.00,0.0006
2221.00,0.0007
2220.00,0.0007
2219.00,0.0007
2218.00,0.0008
2217.00,0.0009
2216.00,0.0010
2215.00,0.0010
2214.00,0.0009
2213.00,0.0008
2212.00,0.0007
2211.00,0.0007
2210.00,0.0007
2209.00,0.0007
2208.00,0.0007
2207.00,0.0007
2206.00,0.0007
2205.00,0.0008
2204.00,0.0009
2203.00,0.0010
2202.00,0.0011
2201.00,0.0010
2200.00,0.0009
2199.00,0.0009
2198.00,0.0009
2197.00,0.0011
2196.00,0.0011
2195.00,0.0010
2194.00,0.0009
2193.00,0.0009
2192.00,0.0011
2191.00,0.0013
2190.00,0.0013
2189.00,0.0013
2188.00,0.0012
2187.00,0.0010
2186.00,0.0009
2185.00,0.0008
2184.00,0.0008
2183.00,0.0008
2182.00,0.0008
2181.00,0.0005
2180.00,0.0003
2179.00,0.0001
2178.00,0.0001
2177.00,0.0002
2176.00,0.0001
2175.00,-0.0000
2174.00,-0.0001
2173.00,-0.0000
2172.00,0.0002
2171.00,0.0004
2170.00,0.0006
2169.00,0.0010
2168.00,0.0013
2167.00,0.0015
2166.00,0.0015
2165.00,0.0014
2164.00,0.0014
2163.00,0.0016
2162.00,0.0018
2161.00,0.0015
2160.00,0.0006
2159.00,-0.0006
2158.00,-0.0016
2157.00,-0.0020
2156.00,-0.0019
2155.00,-0.0017
2154.00,-0.0016
2153.00,-0.0015
2152.00,-0.0014
2151.00,-0.0014
2150.00,-0.0014
2149.00,-0.0014
2148.00,-0.0015
2147.00,-0.0016
2146.00,-0.0017
2145.00,-0.0017
2144.00,-0.0016
2143.00,-0.0014
2142.00,-0.0012
2141.00,-0.0010
2140.00,-0.0009
2139.00,-0.0006
2138.00,-0.0005
2137.00,-0.0006
2136.00,-0.0008
2135.00,-0.0012
2134.00,-0.0014
2133.00,-0.0014
2132.00,-0.0013
2131.00,-0.0011
2130.00,-0.0008
2129.00,-0.0006
2128.00,-0.0006
2127.00,-0.0006
2126.00,-0.0005
2125.00,-0.0004
2124.00,-0.0004
2123.00,-0.0003
2122.00,-0.0004
2121.00,-0.0004
2120.00,-0.0004
2119.00,-0.0003
2118.00,-0.0002
2117.00,-0.0001
2116.00,0.0000
2115.00,0.0002
2114.00,0.0003
2113.00,0.0004
2112.00,0.0004
2111.00,0.0004
2110.00,0.0004
2109.00,0.0003
2108.00,0.0004
2107.00,0.0004
2106.00,0.0005
2105.00,0.0006
2104.00,0.0007
2103.00,0.0006
2102.00,0.0005
2101.00,0.0004
2100.00,0.0004
2099.00,0.0003
2098.00,0.0002
2097.00,0.0001
2096.00,-0.0000
2095.00,-0.0001
2094.00,-0.0001
2093.00,0.0000
2092.00,0.0001
2091.00,0.0000
2090.00,-0.0001
2089.00,-0.0001
2088.00,-0.0000
2087.00,0.0000
2086.00,0.0001
2085.00,0.0002
2084.00,0.0003
2083.00,0.0003
2082.00,0.0003
2081.00,0.0002
2080.00,0.0003
2079.00,0.0005
2078.00,0.0006
2077.00,0.0006
2076.00,0.0005
2075.00,0.0004
2074.00,0.0002
2073.00,0.0002
2072.00,0.0003
2071.00,0.0004
2070.00,0.0004
2069.00,0.0005
2068.00,0.0004
2067.00,0.0003
2066.00,0.0002
2065.00,0.0002
2064.00,0.0002
2063.00,0.0001
2062.00,0.0001
2061.00,0.0000
2060.00,-0.0001
2059.00,-0.0001
2058.00,-0.0000
2057.00,0.0000
2056.00,0.0001
2055.00,0.0001
2054.00,0.0003
2053.00,0.0007
2052.00,0.0011
2051.00,0.0014
2050.00,0.0013
2049.00,0.0010
2048.00,0.0007
2047.00,0.0005
2046.00,0.0003
2045.00,0.0002
2044.00,0.0001
2043.00,0.0002
2042.00,0.0004
2041.00,0.0006
2040.00,0.0007
2039.00,0.0007
2038.00,0.0006
2037.00,0.0004
2036.00,0.0002
2035.00,-0.0002
2034.00,-0.0005
2033.00,-0.0006
2032.00,-0.0005
2031.00,-0.0004
2030.00,-0.0002
2029.00,-0.0002
2028.00,-0.0001
2027.00,-0.0002
2026.00,-0.0003
2025.00,-0.0003
2024.00,-0.0002
2023.00,-0.0001
2022.00,-0.0003
2021.00,-0.0007
2020.00,-0.0012
2019.00,-0.0016
2018.00,-0.0018
2017.00,-0.0017
2016.00,-0.0014
2015.00,-0.0011
2014.00,-0.0008
2013.00,-0.0006
2012.00,-0.0005
2011.00,-0.0006
2010.00,-0.0008
2009.00,-0.0009
2008.00,-0.0009
2007.00,-0.0010
2006.00,-0.0011
2005.00,-0.0013
2004.00,-0.0015
2003.00,-0.0015
2002.00,-0.0014
2001.00,-0.0013
2000.00,-0.0013
1999.00,-0.0014
1998.00,-0.0015
1997.00,-0.0013
1996.00,-0.0011
1995.00,-0.0010
1994.00,-0.0010
1993.00,-0.0011
1992.00,-0.0011
1991.00,-0.0010
1990.00,-0.0008
1989.00,-0.0005
1988.00,-0.0001
1987.00,0.0001
1986.00,0.0002
1985.00,0.0002
1984.00,0.0003
1983.00,0.0005
1982.00,0.0008
1981.00,0.0011
1980.00,0.0013
1979.00,0.0011
1978.00,0.0007
1977.00,0.0002
1976.00,-0.0002
1975.00,-0.0006
1974.00,-0.0010
1973.00,-0.0013
1972.00,-0.0014
1971.00,-0.0013
1970.00,-0.0011
1969.00,-0.0009
1968.00,-0.0008
1967.00,-0.0008
1966.00,-0.0008
1965.00,-0.0010
1964.00,-0.0010
1963.00,-0.0010
1962.00,-0.0011
1961.00,-0.0011
1960.00,-0.0012
1959.00,-0.0014
1958.00,-0.0015
1957.00,-0.0014
1956.00,-0.0014
1955.00,-0.0014
1954.00,-0.0015
1953.00,-0.0015
1952.00,-0.0014
1951.00,-0.0013
1950.00,-0.0013
1949.00,-0.0012
1948.00,-0.0012
1947.00,-0.0012
1946.00,-0.0013
1945.00,-0.0014
1944.00,-0.0015
1943.00,-0.0015
1942.00,-0.0014
1941.00,-0.0013
1940.00,-0.0011
1939.00,-0.0009
1938.00,-0.0008
1937.00,-0.0008
1936.00,-0.0009
1935.00,-0.0010
1934.00,-0.0011
1933.00,-0.0010
1932.00,-0.0008
1931.00,-0.0006
1930.00,-0.0005
1929.00,-0.0005
1928.00,-0.0005
1927.00,-0.0006
1926.00,-0.0006
1925.00,-0.0005
1924.00,-0.0004
1923.00,-0.0002
1922.00,-0.0001
1921.00,-0.0000
1920.00,-0.0000
1919.00,-0.0002
1918.00,-0.0003
1917.00,-0.0002
1916.00,-0.0001
1915.00,-0.0000
1914.00,0.0000
1913.00,0.0000
1912.00,-0.0001
1911.00,-0.0001
1910.00,-0.0001
1909.00,-0.0001
1908.00,-0.0000
1907.00,0.0000
1906.00,-0.0000
1905.00,-0.0001
1904.00,-0.0001
1903.00,-0.0001
1902.00,-0.0000
1901.00,0.0001
1900.00,0.0001
1899.00,0.0001
1898.00,0.0001
1897.00,0.0001
1896.00,0.0001
1895.00,0.0002
1894.00,0.0003
1893.00,0.0003
1892.00,0.0003
1891.00,0.0003
1890.00,0.0001
1889.00,0.0000
1888.00,-0.0000
1887.00,0.0000
1886.00,0.0000
1885.00,0.0001
1884.00,0.0001
1883.00,0.0002
1882.00,0.0001
1881.00,0.0001
1880.00,0.0001
1879.00,0.0002
1878.00,0.0002
1877.00,0.0003
1876.00,0.0003
1875.00,0.0003
1874.00,0.0003
1873.00,0.0002
1872.00,0.0002
1871.00,0.0003
1870.00,0.0003
1869.00,0.0003
1868.00,0.0002
1867.00,0.0002
1866.00,0.0002
1865.00,0.0002
1864.00,0.0002
1863.00,0.0003
1862.00,0.0003
1861.00,0.0004
1860.00,0.0004
1859.00,0.0004
1858.00,0.0004
1857.00,0.0004
1856.00,0.0004
1855.00,0.0004
1854.00,0.0003
1853.00,0.0003
1852.00,0.0003
1851.00,0.0003
1850.00,0.0003
1849.00,0.0003
1848.00,0.0003
1847.00,0.0003
1846.00,0.0004
1845.00,0.0005
1844.00,0.0005
1843.00,0.0006
1842.00,0.0006
1841.00,0.0005
1840.00,0.0005
1839.00,0.0004
1838.00,0.0003
1837.00,0.0003
1836.00,0.0003
1835.00,0.0004
1834.00,0.0005
1833.00,0.0006
1832.00,0.0006
1831.00,0.0007
1830.00,0.0007
1829.00,0.0007
1828.00,0.0006
1827.00,0.0006
1826.00,0.0005
1825.00,0.0004
1824.00,0.0004
1823.00,0.0004
1822.00,0.0004
1821.00,0.0004
1820.00,0.0004
1819.00,0.0003
1818.00,0.0003
1817.00,0.0003
1816.00,0.0003
1815.00,0.0004
1814.00,0.0005
1813.00,0.0005
1812.00,0.0006
1811.00,0.0006
1810.00,0.0006
1809.00,0.0006
1808.00,0.0006
1807.00,0.0006
1806.00,0.0006
1805.00,0.0006
1804.00,0.0006
1803.00,0.0006
1802.00,0.0007
1801.00,0.0007
1800.00,0.0008
1799.00,0.0009
1798.00,0.0009
1797.00,0.0010
1796.00,0.0010
1795.00,0.0009
1794.00,0.0009
1793.00,0.0009
1792.00,0.0009
1791.00,0.0009
1790.00,0.0009
1789.00,0.0009
1788.00,0.0009
1787.00,0.0009
1786.00,0.0009
1785.00,0.0009
1784.00,0.0009
1783.00,0.0009
1782.00,0.0009
1781.00,0.0009
1780.00,0.0010
1779.00,0.0010
1778.00,0.0011
1777.00,0.0011
1776.00,0.0011
1775.00,0.0011
1774.00,0.0011
1773.00,0.0011
1772.00,0.0011
1771.00,0.0012
1770.00,0.0012
1769.00,0.0012
1768.00,0.0011
1767.00,0.0012
1766.00,0.0012
1765.00,0.0013
1764.00,0.0014
1763.00,0.0014
1762.00,0.0013
1761.00,0.0014
1760.00,0.0015
1759.00,0.0016
1758.00,0.0016
1757.00,0.0017
1756.00,0.0018
1755.00,0.0018
1754.00,0.0019
1753.00,0.0020
1752.00,0.0021
1751.00,0.0021
1750.00,0.0022
1749.00,0.0022
1748.00,0.0023
1747.00,0.0024
1746.00,0.0024
1745.00,0.0024
1744.00,0.0024
1743.00,0.0024
1742.00,0.0025
1741.00,0.0025
1740.00,0.0025
1739.00,0.0025
1738.00,0.0026
1737.00,0.0026
1736.00,0.0027
1735.00,0.0028
1734.00,0.0028
1733.00,0.0027
1732.00,0.0026
1731.00,0.0025
1730.00,0.0025
1729.00,0.0025
1728.00,0.0025
1727.00,0.0025
1726.00,0.0025
1725.00,0.0025
1724.00,0.0025
1723.00,0.0025
1722.00,0.0024
1721.00,0.0024
1720.00,0.0024
1719.00,0.0024
1718.00,0.0024
1717.00,0.0025
1716.00,0.0025
1715.00,0.0025
1714.00,0.0025
1713.00,0.0025
1712.00,0.0025
1711.00,0.0025
1710.00,0.0026
1709.00,0.0026
1708.00,0.0027
1707.00,0.0027
1706.00,0.0028
1705.00,0.0029
1704.00,0.0030
1703.00,0.0031
1702.00,0.0032
1701.00,0.0033
1700.00,0.0033
1699.00,0.0033
1698.00,0.0033
1697.00,0.0034
1696.00,0.0035
1695.00,0.0036
1694.00,0.0036
1693.00,0.0037
1692.00,0.0037
1691.00,0.0038
1690.00,0.0038
1689.00,0.0039
1688.00,0.0040
1687.00,0.0041
1686.00,0.0041
1685.00,0.0041
1684.00,0.0042
1683.00,0.0043
1682.00,0.0044
1681.00,0.0045
1680.00,0.0046
1679.00,0.0047
1678.00,0.0048
1677.00,0.0049
1676.00,0.0050
1675.00,0.0051
1674.00,0.0051
1673.00,0.0052
1672.00,0.0053
1671.00,0.0054
1670.00,0.0055
1669.00,0.0055
1668.00,0.0056
1667.00,0.0056
1666.00,0.0056
1665.00,0.0057
1664.00,0.0058
1663.00,0.0059
1662.00,0.0060
1661.00,0.0060
1660.00,0.0061
1659.00,0.0062
1658.00,0.0062
1657.00,0.0063
1656.00,0.0064
1655.00,0.0065
1654.00,0.0066
1653.00,0.0067
1652.00,0.0069
1651.00,0.0069
1650.00,0.0069
1649.00,0.0070
1648.00,0.0072
1647.00,0.0073
1646.00,0.0074
1645.00,0.0075
1644.00,0.0075
1643.00,0.0074
1642.00,0.0074
1641.00,0.0074
1640.00,0.0074
1639.00,0.0075
1638.00,0.0075
1637.00,0.0075
1636.00,0.0074
1635.00,0.0074
1634.00,0.0074
1633.00,0.0075
1632.00,0.0075
1631.00,0.0076
1630.00,0.0076
1629.00,0.0075
1628.00,0.0075
1627.00,0.0075
1626.00,0.0075
1625.00,0.0074
1624.00,0.0074
1623.00,0.0074
1622.00,0.0073
1621.00,0.0072
1620.00,0.0072
1619.00,0.0072
1618.00,0.0071
1617.00,0.0071
1616.00,0.0072
1615.00,0.0072
1614.00,0.0072
1613.00,0.0072
1612.00,0.0072
1611.00,0.0072
1610.00,0.0071
1609.00,0.0071
1608.00,0.0070
1607.00,0.0070
1606.00,0.0070
1605.00,0.0071
1604.00,0.0071
1603.00,0.0071
1602.00,0.0071
1601.00,0.0071
1600.00,0.0072
1599.00,0.0072
1598.00,0.0073
1597.00,0.0073
1596.00,0.0074
1595.00,0.0074
1594.00,0.0074
1593.00,0.0075
1592.00,0.0076
1591.00,0.0077
1590.00,0.0079
1589.00,0.0080
1588.00,0.0083
1587.00,0.0086
1586.00,0.0089
1585.00,0.0093
1584.00,0.0098
1583.00,0.0102
1582.00,0.0107
1581.00,0.0111
1580.00,0.0115
1579.00,0.0118
1578.00,0.0119
1577.00,0.0119
1576.00,0.0117
1575.00,0.0114
1574.00,0.0111
1573.00,0.0109
1572.00,0.0106
1571.00,0.0102
1570.00,0.0098
1569.00,0.0094
1568.00,0.0091
1567.00,0.0089
1566.00,0.0088
1565.00,0.0086
1564.00,0.0085
1563.00,0.0084
1562.00,0.0084
1561.00,0.0084
1560.00,0.0084
1559.00,0.0084
1558.00,0.0084
1557.00,0.0085
1556.00,0.0087
1555.00,0.0089
1554.00,0.0091
1553.00,0.0092
1552.00,0.0094
1551.00,0.0096
1550.00,0.0099
1549.00,0.0103
1548.00,0.0107
1547.00,0.0112
1546.00,0.0117
1545.00,0.0123
1544.00,0.0130
1543.00,0.0136
1542.00,0.0140
1541.00,0.0140
1540.00,0.0135
1539.00,0.0128
1538.00,0.0122
1537.00,0.0118
1536.00,0.0113
1535.00,0.0108
1534.00,0.0101
1533.00,0.0094
1532.00,0.0089
1531.00,0.0086
1530.00,0.0084
1529.00,0.0082
1528.00,0.0080
1527.00,0.0078
1526.00,0.0076
1525.00,0.0074
1524.00,0.0074
1523.00,0.0073
1522.00,0.0073
1521.00,0.0073
1520.00,0.0072
1519.00,0.0072
1518.00,0.0071
1517.00,0.0072
1516.00,0.0073
1515.00,0.0073
1514.00,0.0073
1513.00,0.0074
1512.00,0.0074
1511.00,0.0074
1510.00,0.0074
1509.00,0.0076
1508.00,0.0078
1507.00,0.0078
1506.00,0.0077
1505.00,0.0078
1504.00,0.0079
1503.00,0.0080
1502.00,0.0082
1501.00,0.0084
1500.00,0.0087
1499.00,0.0089
1498.00,0.0091
1497.00,0.0095
1496.00,0.0099
1495.00,0.0102
1494.00,0.0105
1493.00,0.0108
1492.00,0.0111
1491.00,0.0114
1490.00,0.0118
1489.00,0.0123
1488.00,0.0129
1487.00,0.0135
1486.00,0.0142
1485.00,0.0150
1484.00,0.0159
1483.00,0.0168
1482.00,0.0179
1481.00,0.0193
1480.00,0.0208
1479.00,0.0223
1478.00,0.0240
1477.00,0.0261
1476.00,0.0285
1475.00,0.0312
1474.00,0.0349
1473.00,0.0401
1472.00,0.0463
1471.00,0.0524
1470.00,0.0583
1469.00,0.0646
1468.00,0.0715
1467.00,0.0791
1466.00,0.0879
1465.00,0.0975
1464.00,0.1059
1463.00,0.1120
1462.00,0.1161
1461.00,0.1191
1460.00,0.1213
1459.00,0.1230
1458.00,0.1246
1457.00,0.1261
1456.00,0.1268
1455.00,0.1266
1454.00,0.1260
1453.00,0.1248
1452.00,0.1225
1451.00,0.1189
1450.00,0.1136
1449.00,0.1060
1448.00,0.0962
1447.00,0.0859
1446.00,0.0767
1445.00,0.0688
1444.00,0.0620
1443.00,0.0566
1442.00,0.0526
1441.00,0.0500
1440.00,0.0484
1439.00,0.0478
1438.00,0.0480
1437.00,0.0481
1436.00,0.0470
1435.00,0.0443
1434.00,0.0404
1433.00,0.0358
1432.00,0.0310
1431.00,0.0268
1430.00,0.0235
1429.00,0.0212
1428.00,0.0197
1427.00,0.0188
1426.00,0.0182
1425.00,0.0177
1424.00,0.0172
1423.00,0.0169
1422.00,0.0168
1421.00,0.0166
1420.00,0.0163
1419.00,0.0159
1418.00,0.0157
1417.00,0.0154
1416.00,0.0151
1415.00,0.0149
1414.00,0.0148
1413.00,0.0146
1412.00,0.0145
1411.00,0.0143
1410.00,0.0143
1409.00,0.0141
1408.00,0.0139
1407.00,0.0138
1406.00,0.0139
1405.00,0.0139
1404.00,0.0138
1403.00,0.0139
1402.00,0.0140
1401.00,0.0141
1400.00,0.0142
1399.00,0.0144
1398.00,0.0146
1397.00,0.0148
1396.00,0.0150
1395.00,0.0155
1394.00,0.0161
1393.00,0.0167
1392.00,0.0174
1391.00,0.0183
1390.00,0.0195
1389.00,0.0212
1388.00,0.0239
1387.00,0.0278
1386.00,0.0330
1385.00,0.0396
1384.00,0.0482
1383.00,0.0597
1382.00,0.0747
1381.00,0.0937
1380.00,0.1170
1379.00,0.1436
1378.00,0.1695
1377.00,0.1889
1376.00,0.1962
1375.00,0.1877
1374.00,0.1656
1373.00,0.1379
1372.00,0.1121
1371.00,0.0905
1370.00,0.0731
1369.00,0.0598
1368.00,0.0505
1367.00,0.0448
1366.00,0.0416
1365.00,0.0403
1364.00,0.0404
1363.00,0.0418
1362.00,0.0440
1361.00,0.0463
1360.00,0.0480
1359.00,0.0485
1358.00,0.0473
1357.00,0.0446
1356.00,0.0406
1355.00,0.0362
1354.00,0.0320
1353.00,0.0283
1352.00,0.0254
1351.00,0.0230
1350.00,0.0211
1349.00,0.0195
1348.00,0.0183
1347.00,0.0173
1346.00,0.0165
1345.00,0.0159
1344.00,0.0155
1343.00,0.0151
1342.00,0.0148
1341.00,0.0145
1340.00,0.0143
1339.00,0.0140
1338.00,0.0139
1337.00,0.0138
1336.00,0.0138
1335.00,0.0140
1334.00,0.0143
1333.00,0.0147
1332.00,0.0151
1331.00,0.0155
1330.00,0.0156
1329.00,0.0155
1328.00,0.0151
1327.00,0.0146
1326.00,0.0139
1325.00,0.0133
1324.00,0.0127
1323.00,0.0122
1322.00,0.0118
1321.00,0.0115
1320.00,0.0112
1319.00,0.0109
1318.00,0.0106
1317.00,0.0104
1316.00,0.0102
1315.00,0.0101
1314.00,0.0101
1313.00,0.0101
1312.00,0.0102
1311.00,0.0105
1310.00,0.0109
1309.00,0.0116
1308.00,0.0126
1307.00,0.0138
1306.00,0.0149
1305.00,0.0158
1304.00,0.0161
1303.00,0.0159
1302.00,0.0154
1301.00,0.0149
1300.00,0.0146
1299.00,0.0145
1298.00,0.0145
1297.00,0.0145
1296.00,0.0143
1295.00,0.0140
1294.00,0.0136
1293.00,0.0131
1292.00,0.0125
1291.00,0.0119
1290.00,0.0114
1289.00,0.0110
1288.00,0.0107
1287.00,0.0104
1286.00,0.0101
1285.00,0.0098
1284.00,0.0096
1283.00,0.0094
1282.00,0.0094
1281.00,0.0093
1280.00,0.0093
1279.00,0.0092
1278.00,0.0091
1277.00,0.0091
1276.00,0.0091
1275.00,0.0091
1274.00,0.0091
1273.00,0.0091
1272.00,0.0091
1271.00,0.0091
1270.00,0.0092
1269.00,0.0093
1268.00,0.0095
1267.00,0.0097
1266.00,0.0100
1265.00,0.0103
1264.00,0.0106
1263.00,0.0110
1262.00,0.0115
1261.00,0.0120
1260.00,0.0126
1259.00,0.0134
1258.00,0.0142
1257.00,0.0149
1256.00,0.0153
1255.00,0.0151
1254.00,0.0144
1253.00,0.0136
1252.00,0.0127
1251.00,0.0120
1250.00,0.0114
1249.00,0.0110
1248.00,0.0108
1247.00,0.0106
1246.00,0.0105
1245.00,0.0104
1244.00,0.0103
1243.00,0.0102
1242.00,0.0102
1241.00,0.0101
1240.00,0.0100
1239.00,0.0100
1238.00,0.0099
1237.00,0.0099
1236.00,0.0099
1235.00,0.0099
1234.00,0.0099
1233.00,0.0099
1232.00,0.0099
1231.00,0.0099
1230.00,0.0099
1229.00,0.0099
1228.00,0.0100
1227.00,0.0101
1226.00,0.0103
1225.00,0.0106
1224.00,0.0109
1223.00,0.0112
1222.00,0.0115
1221.00,0.0117
1220.00,0.0119
1219.00,0.0120
1218.00,0.0119
1217.00,0.0117
1216.00,0.0115
1215.00,0.0112
1214.00,0.0109
1213.00,0.0106
1212.00,0.0103
1211.00,0.0100
1210.00,0.0098
1209.00,0.0096
1208.00,0.0094
1207.00,0.0093
1206.00,0.0092
1205.00,0.0091
1204.00,0.0090
1203.00,0.0089
1202.00,0.0089
1201.00,0.0090
1200.00,0.0090
1199.00,0.0091
1198.00,0.0091
1197.00,0.0092
1196.00,0.0093
1195.00,0.0094
1194.00,0.0094
1193.00,0.0094
1192.00,0.0094
1191.00,0.0095
1190.00,0.0095
1189.00,0.0095
1188.00,0.0095
1187.00,0.0095
1186.00,0.0095
1185.00,0.0096
1184.00,0.0097
1183.00,0.0099
1182.00,0.0101
1181.00,0.0105
1180.00,0.0109
1179.00,0.0115
1178.00,0.0123
1177.00,0.0132
1176.00,0.0145
1175.00,0.0162
1174.00,0.0184
1173.00,0.0212
1172.00,0.0245
1171.00,0.0281
1170.00,0.0317
1169.00,0.0346
1168.00,0.0363
1167.00,0.0367
1166.00,0.0359
1165.00,0.0343
1164.00,0.0324
1163.00,0.0304
1162.00,0.0286
1161.00,0.0271
1160.00,0.0259
1159.00,0.0250
1158.00,0.0243
1157.00,0.0237
1156.00,0.0232
1155.00,0.0228
1154.00,0.0225
1153.00,0.0221
1152.00,0.0216
1151.00,0.0209
1150.00,0.0201
1149.00,0.0192
1148.00,0.0183
1147.00,0.0174
1146.00,0.0165
1145.00,0.0156
1144.00,0.0148
1143.00,0.0142
1142.00,0.0136
1141.00,0.0131
1140.00,0.0127
1139.00,0.0122
1138.00,0.0119
1137.00,0.0116
1136.00,0.0113
1135.00,0.0111
1134.00,0.0109
1133.00,0.0108
1132.00,0.0107
1131.00,0.0107
1130.00,0.0108
1129.00,0.0109
1128.00,0.0112
1127.00,0.0114
1126.00,0.0115
1125.00,0.0115
1124.00,0.0114
1123.00,0.0112
1122.00,0.0112
1121.00,0.0112
1120.00,0.0112
1119.00,0.0113
1118.00,0.0114
1117.00,0.0116
1116.00,0.0118
1115.00,0.0120
1114.00,0.0122
1113.00,0.0123
1112.00,0.0125
1111.00,0.0128
1110.00,0.0132
1109.00,0.0136
1108.00,0.0142
1107.00,0.0149
1106.00,0.0157
1105.00,0.0164
1104.00,0.0169
1103.00,0.0172
1102.00,0.0172
1101.00,0.0170
1100.00,0.0165
1099.00,0.0158
1098.00,0.0152
1097.00,0.0145
1096.00,0.0140
1095.00,0.0136
1094.00,0.0133
1093.00,0.0130
1092.00,0.0127
1091.00,0.0124
1090.00,0.0122
1089.00,0.0120
1088.00,0.0119
1087.00,0.0118
1086.00,0.0118
1085.00,0.0118
1084.00,0.0117
1083.00,0.0116
1082.00,0.0115
1081.00,0.0113
1080.00,0.0111
1079.00,0.0111
1078.00,0.0111
1077.00,0.0110
1076.00,0.0109
1075.00,0.0109
1074.00,0.0109
1073.00,0.0110
1072.00,0.0110
1071.00,0.0110
1070.00,0.0110
1069.00,0.0109
1068.00,0.0108
1067.00,0.0108
1066.00,0.0109
1065.00,0.0110
1064.00,0.0111
1063.00,0.0111
1062.00,0.0111
1061.00,0.0110
1060.00,0.0110
1059.00,0.0110
1058.00,0.0111
1057.00,0.0112
1056.00,0.0113
1055.00,0.0114
1054.00,0.0115
1053.00,0.0115
1052.00,0.0115
1051.00,0.0116
1050.00,0.0119
1049.00,0.0122
1048.00,0.0126
1047.00,0.0129
1046.00,0.0131
1045.00,0.0132
1044.00,0.0133
1043.00,0.0132
1042.00,0.0131
1041.00,0.0130
1040.00,0.0129
1039.00,0.0129
1038.00,0.0129
1037.00,0.0129
1036.00,0.0129
1035.00,0.0129
1034.00,0.0128
1033.00,0.0126
1032.00,0.0124
1031.00,0.0123
1030.00,0.0121
1029.00,0.0120
1028.00,0.0119
1027.00,0.0118
1026.00,0.0117
1025.00,0.0118
1024.00,0.0118
1023.00,0.0119
1022.00,0.0120
1021.00,0.0120
1020.00,0.0121
1019.00,0.0123
1018.00,0.0124
1017.00,0.0126
1016.00,0.0128
1015.00,0.0132
1014.00,0.0136
1013.00,0.0141
1012.00,0.0145
1011.00,0.0149
1010.00,0.0152
1009.00,0.0155
1008.00,0.0158
1007.00,0.0163
1006.00,0.0172
1005.00,0.0185
1004.00,0.0203
1003.00,0.0227
1002.00,0.0258
1001.00,0.0296
1000.00,0.0336
999.00,0.0369
998.00,0.0386
997.00,0.0379
996.00,0.0351
995.00,0.0310
994.00,0.0266
993.00,0.0227
992.00,0.0196
991.00,0.0174
990.00,0.0158
989.00,0.0147
988.00,0.0140
987.00,0.0136
986.00,0.0135
985.00,0.0136
984.00,0.0140
983.00,0.0148
982.00,0.0159
981.00,0.0176
980.00,0.0199
979.00,0.0229
978.00,0.0267
977.00,0.0313
976.00,0.0363
975.00,0.0410
974.00,0.0447
973.00,0.0461
972.00,0.0448
971.00,0.0409
970.00,0.0356
969.00,0.0301
968.00,0.0253
967.00,0.0215
966.00,0.0187
965.00,0.0166
964.00,0.0150
963.00,0.0138
962.00,0.0129
961.00,0.0123
960.00,0.0118
959.00,0.0114
958.00,0.0110
957.00,0.0107
956.00,0.0105
955.00,0.0102
954.00,0.0101
953.00,0.0099
952.00,0.0098
951.00,0.0097
950.00,0.0096
949.00,0.0096
948.00,0.0096
947.00,0.0097
946.00,0.0098
945.00,0.0100
944.00,0.0103
943.00,0.0106
942.00,0.0108
941.00,0.0109
940.00,0.0109
939.00,0.0107
938.00,0.0102
937.00,0.0097
936.00,0.0091
935.00,0.0086
934.00,0.0082
933.00,0.0080
932.00,0.0077
931.00,0.0075
930.00,0.0074
929.00,0.0072
928.00,0.0072
927.00,0.0072
926.00,0.0071
925.00,0.0072
924.00,0.0072
923.00,0.0072
922.00,0.0073
921.00,0.0074
920.00,0.0074
919.00,0.0075
918.00,0.0076
917.00,0.0077
916.00,0.0077
915.00,0.0078
914.00,0.0078
913.00,0.0078
912.00,0.0078
911.00,0.0079
910.00,0.0081
909.00,0.0084
908.00,0.0087
907.00,0.0092
906.00,0.0100
905.00,0.0111
904.00,0.0126
903.00,0.0145
902.00,0.0166
901.00,0.0184
900.00,0.0197
899.00,0.0199
898.00,0.0191
897.00,0.0176
896.00,0.0157
895.00,0.0138
894.00,0.0122
893.00,0.0110
892.00,0.0101
891.00,0.0095
890.00,0.0091
889.00,0.0089
888.00,0.0086
887.00,0.0083
886.00,0.0081
885.00,0.0079
884.00,0.0079
883.00,0.0079
882.00,0.0081
881.00,0.0082
880.00,0.0083
879.00,0.0084
878.00,0.0084
877.00,0.0084
876.00,0.0084
875.00,0.0083
874.00,0.0083
873.00,0.0082
872.00,0.0081
871.00,0.0081
870.00,0.0081
869.00,0.0081
868.00,0.0082
867.00,0.0083
866.00,0.0084
865.00,0.0085
864.00,0.0086
863.00,0.0087
862.00,0.0088
861.00,0.0090
860.00,0.0091
859.00,0.0092
858.00,0.0093
857.00,0.0095
856.00,0.0097
855.00,0.0099
854.00,0.0102
853.00,0.0104
852.00,0.0108
851.00,0.0112
850.00,0.0119
849.00,0.0127
848.00,0.0138
847.00,0.0153
846.00,0.0177
845.00,0.0213
844.00,0.0261
843.00,0.0313
842.00,0.0353
841.00,0.0363
840.00,0.0339
839.00,0.0293
838.00,0.0243
837.00,0.0204
836.00,0.0179
835.00,0.0164
834.00,0.0154
833.00,0.0146
832.00,0.0140
831.00,0.0135
830.00,0.0131
829.00,0.0127
828.00,0.0124
827.00,0.0122
826.00,0.0122
825.00,0.0122
824.00,0.0121
823.00,0.0120
822.00,0.0120
821.00,0.0121
820.00,0.0123
819.00,0.0126
818.00,0.0129
817.00,0.0133
816.00,0.0140
815.00,0.0151
814.00,0.0165
813.00,0.0181
812.00,0.0198
811.00,0.0212
810.00,0.0224
809.00,0.0230
808.00,0.0229
807.00,0.0221
806.00,0.0207
805.00,0.0190
804.00,0.0173
803.00,0.0157
802.00,0.0144
801.00,0.0134
800.00,0.0127
799.00,0.0122
798.00,0.0117
797.00,0.0113
796.00,0.0108
795.00,0.0104
794.00,0.0102
793.00,0.0099
792.00,0.0098
791.00,0.0096
790.00,0.0094
789.00,0.0092
788.00,0.0090
787.00,0.0087
786.00,0.0084
785.00,0.0082
784.00,0.0080
783.00,0.0078
782.00,0.0076
781.00,0.0074
780.00,0.0073
779.00,0.0073
778.00,0.0074
777.00,0.0076
776.00,0.0077
775.00,0.0078
774.00,0.0079
773.00,0.0082
772.00,0.0086
771.00,0.0090
770.00,0.0092
769.00,0.0093
768.00,0.0092
767.00,0.0091
766.00,0.0090
765.00,0.0090
764.00,0.0089
763.00,0.0087
762.00,0.0084
761.00,0.0080
760.00,0.0076
759.00,0.0072
758.00,0.0070
757.00,0.0068
756.00,0.0067
755.00,0.0067
754.00,0.0068
753.00,0.0069
752.00,0.0070
751.00,0.0070
750.00,0.0069
749.00,0.0066
748.00,0.0064
747.00,0.0064
746.00,0.0064
745.00,0.0065
744.00,0.0067
743.00,0.0068
742.00,0.0068
741.00,0.0069
740.00,0.0070
739.00,0.0072
738.00,0.0074
737.00,0.0076
736.00,0.0078
735.00,0.0079
734.00,0.0080
733.00,0.0080
732.00,0.0081
731.00,0.0082
730.00,0.0083
729.00,0.0084
728.00,0.0085
727.00,0.0086
726.00,0.0087
725.00,0.0086
724.00,0.0086
723.00,0.0085
722.00,0.0084
721.00,0.0084
720.00,0.0084
719.00,0.0084
718.00,0.0083
717.00,0.0081
716.00,0.0079
715.00,0.0077
714.00,0.0074
713.00,0.0071
712.00,0.0069
711.00,0.0067
710.00,0.0066
709.00,0.0067
708.00,0.0068
707.00,0.0071
706.00,0.0073
705.00,0.0075
704.00,0.0075
703.00,0.0074
702.00,0.0073
701.00,0.0071
700.00,0.0070
699.00,0.0070
698.00,0.0071
697.00,0.0073
696.00,0.0073
695.00,0.0072
694.00,0.0071
693.00,0.0070
692.00,0.0070
691.00,0.0070
690.00,0.0070
689.00,0.0071
688.00,0.0072
687.00,0.0071
686.00,0.0070
685.00,0.0070
684.00,0.0070
683.00,0.0071
682.00,0.0073
681.00,0.0075
680.00,0.0077
679.00,0.0078
678.00,0.0079
677.00,0.0079
676.00,0.0077
675.00,0.0076
674.00,0.0076
673.00,0.0077
672.00,0.0079
671.00,0.0081
670.00,0.0084
669.00,0.0085
668.00,0.0085
667.00,0.0083
666.00,0.0079
665.00,0.0077
664.00,0.0077
663.00,0.0078
662.00,0.0078
661.00,0.0078
660.00,0.0077
659.00,0.0076
658.00,0.0073
657.00,0.0070
656.00,0.0068
655.00,0.0068
654.00,0.0069
653.00,0.0070
652.00,0.0072
651.00,0.0072
650.00,0.0073
649.00,0.0072
648.00,0.0072
647.00,0.0072
646.00,0.0072
645.00,0.0073
644.00,0.0072
643.00,0.0072
642.00,0.0072
641.00,0.0074
640.00,0.0076
639.00,0.0078
638.00,0.0080
637.00,0.0081
636.00,0.0080
635.00,0.0079
634.00,0.0079
633.00,0.0080
632.00,0.0081
631.00,0.0081
630.00,0.0080
629.00,0.0079
628.00,0.0079
627.00,0.0079
626.00,0.0078
625.00,0.0079
624.00,0.0080
623.00,0.0080
622.00,0.0080
621.00,0.0078
620.00,0.0075
619.00,0.0073
618.00,0.0072
617.00,0.0073
616.00,0.0075
615.00,0.0077
614.00,0.0080
613.00,0.0084
612.00,0.0086
611.00,0.0088
610.00,0.0088
609.00,0.0088
608.00,0.0086
607.00,0.0082
606.00,0.0079
605.00,0.0079
604.00,0.0079
603.00,0.0079
602.00,0.0079
601.00,0.0079
600.00,0.0078
599.00,0.0078
598.00,0.0078
597.00,0.0081
596.00,0.0085
595.00,0.0089
594.00,0.0091
593.00,0.0090
592.00,0.0090
591.00,0.0090
590.00,0.0090
589.00,0.0089
588.00,0.0087
587.00,0.0084
586.00,0.0083
585.00,0.0083
584.00,0.0086
583.00,0.0089
582.00,0.0090
581.00,0.0088
580.00,0.0086
579.00,0.0084
578.00,0.0084
577.00,0.0084
576.00,0.0084
575.00,0.0083
574.00,0.0081
573.00,0.0079
572.00,0.0077
571.00,0.0075
570.00,0.0076
569.00,0.0077
568.00,0.0077
567.00,0.0077
566.00,0.0078
565.00,0.0080
564.00,0.0082
563.00,0.0082
562.00,0.0082
561.00,0.0082
560.00,0.0082
559.00,0.0083
558.00,0.0083
557.00,0.0083
556.00,0.0083
555.00,0.0083
554.00,0.0084
553.00,0.0086
552.00,0.0088
551.00,0.0087
550.00,0.0085
549.00,0.0082
548.00,0.0081
547.00,0.0080
546.00,0.0080
545.00,0.0080
544.00,0.0080
543.00,0.0083
542.00,0.0088
541.00,0.0095
540.00,0.0099
539.00,0.0100
538.00,0.0098
537.00,0.0095
536.00,0.0094
535.00,0.0094
534.00,0.0095
533.00,0.0096
532.00,0.0098
531.00,0.0100
530.00,0.0100
529.00,0.0101
528.00,0.0102
527.00,0.0105
526.00,0.0109
525.00,0.0111
524.00,0.0112
523.00,0.0112
522.00,0.0112
521.00,0.0110
520.00,0.0106
519.00,0.0101
518.00,0.0095
517.00,0.0089
516.00,0.0085
515.00,0.0084
514.00,0.0086
513.00,0.0088
512.00,0.0088
511.00,0.0086
510.00,0.0085
509.00,0.0088
508.00,0.0092
507.00,0.0093
506.00,0.0086
505.00,0.0077
504.00,0.0072
503.00,0.0073
502.00,0.0075
501.00,0.0076
500.00,0.0077
499.00,0.0079
498.00,0.0082
497.00,0.0084
496.00,0.0082
495.00,0.0076
494.00,0.0069
493.00,0.0066
492.00,0.0067
491.00,0.0072
490.00,0.0076
489.00,0.0076
488.00,0.0074
487.00,0.0074
486.00,0.0080
485.00,0.0089
484.00,0.0096
483.00,0.0099
482.00,0.0098
481.00,0.0094
480.00,0.0091
479.00,0.0092
478.00,0.0098
477.00,0.0104
476.00,0.0108
475.00,0.0108
474.00,0.0103
473.00,0.0093
472.00,0.0084
471.00,0.0084
470.00,0.0094
469.00,0.0109
468.00,0.0117
467.00,0.0117
466.00,0.0115
465.00,0.0118
464.00,0.0127
463.00,0.0139
462.00,0.0152
461.00,0.0167
460.00,0.0180
459.00,0.0185
458.00,0.0179
457.00,0.0166
456.00,0.0159
455.00,0.0163
454.00,0.0164
453.00,0.0163
452.00,0.0156
451.00,0.0144
450.00,0.0131
