Created as New Dataset,Sample 079 By Administrator Date Tuesday, September 09 2025
cm-1,A
4000.00,0.0009
3999.00,0.0009
3998.00,0.0009
3997.00,0.0009
3996.00,0.0009
3995.00,0.0009
3994.00,0.0009
3993.00,0.0009
3992.00,0.0009
3991.00,0.0009
3990.00,0.0008
3989.00,0.0008
3988.00,0.0008
3987.00,0.0008
3986.00,0.0008
3985.00,0.0008
3984.00,0.0008
3983.00,0.0008
3982.00,0.0007
3981.00,0.0007
3980.00,0.0007
3979.00,0.0007
3978.00,0.0008
3977.00,0.0008
3976.00,0.0008
3975.00,0.0007
3974.00,0.0007
3973.00,0.0007
3972.00,0.0007
3971.00,0.0006
3970.00,0.0006
3969.00,0.0006
3968.00,0.0006
3967.00,0.0006
3966.00,0.0006
3965.00,0.0006
3964.00,0.0007
3963.00,0.0007
3962.00,0.0007
3961.00,0.0007
3960.00,0.0007
3959.00,0.0007
3958.00,0.0006
3957.00,0.0006
3956.00,0.0006
3955.00,0.0007
3954.00,0.0007
3953.00,0.0007
3952.00,0.0007
3951.00,0.0006
3950.00,0.0006
3949.00,0.0006
3948.00,0.0006
3947.00,0.0005
3946.00,0.0005
3945.00,0.0005
3944.00,0.0006
3943.00,0.0006
3942.00,0.0006
3941.00,0.0007
3940.00,0.0007
3939.00,0.0007
3938.00,0.0007
3937.00,0.0008
3936.00,0.0008
3935.00,0.0007
3934.00,0.0007
3933.00,0.0007
3932.00,0.0006
3931.00,0.0006
3930.00,0.0006
3929.00,0.0006
3928.00,0.0007
3927.00,0.0007
3926.00,0.0007
3925.00,0.0007
3924.00,0.0007
3923.00,0.0007
3922.00,0.0007
3921.00,0.0007
3920.00,0.0006
3919.00,0.0006
3918.00,0.0006
3917.00,0.0006
3916.00,0.0006
3915.00,0.0006
3914.00,0.0006
3913.00,0.0006
3912.00,0.0006
3911.00,0.0007
3910.00,0.0007
3909.00,0.0007
3908.00,0.0007
3907.00,0.0007
3906.00,0.0007
3905.00,0.0007
3904.00,0.0007
3903.00,0.0007
3902.00,0.0007
3901.00,0.0006
3900.00,0.0006
3899.00,0.0005
3898.00,0.0005
3897.00,0.0006
3896.00,0.0006
3895.00,0.0006
3894.00,0.0007
3893.00,0.0007
3892.00,0.0007
3891.00,0.0007
3890.00,0.0007
3889.00,0.0006
3888.00,0.0007
3887.00,0.0007
3886.00,0.0007
3885.00,0.0007
3884.00,0.0007
3883.00,0.0007
3882.00,0.0007
3881.00,0.0007
3880.00,0.0007
3879.00,0.0007
3878.00,0.0006
3877.00,0.0006
3876.00,0.0006
3875.00,0.0006
3874.00,0.0006
3873.00,0.0006
3872.00,0.0007
3871.00,0.0007
3870.00,0.0007
3869.00,0.0007
3868.00,0.0007
3867.00,0.0007
3866.00,0.0007
3865.00,0.0007
3864.00,0.0006
3863.00,0.0006
3862.00,0.0006
3861.00,0.0006
3860.00,0.0006
3859.00,0.0007
3858.00,0.0007
3857.00,0.0007
3856.00,0.0007
3855.00,0.0006
3854.00,0.0006
3853.00,0.0006
3852.00,0.0006
3851.00,0.0007
3850.00,0.0007
3849.00,0.0007
3848.00,0.0006
3847.00,0.0006
3846.00,0.0007
3845.00,0.0007
3844.00,0.0007
3843.00,0.0007
3842.00,0.0007
3841.00,0.0007
3840.00,0.0007
3839.00,0.0007
3838.00,0.0008
3837.00,0.0008
3836.00,0.0008
3835.00,0.0008
3834.00,0.0007
3833.00,0.0007
3832.00,0.0007
3831.00,0.0007
3830.00,0.0007
3829.00,0.0007
3828.00,0.0007
3827.00,0.0007
3826.00,0.0007
3825.00,0.0006
3824.00,0.0006
3823.00,0.0006
3822.00,0.0005
3821.00,0.0005
3820.00,0.0005
3819.00,0.0006
3818.00,0.0006
3817.00,0.0006
3816.00,0.0007
3815.00,0.0007
3814.00,0.0007
3813.00,0.0007
3812.00,0.0007
3811.00,0.0007
3810.00,0.0007
3809.00,0.0007
3808.00,0.0006
3807.00,0.0005
3806.00,0.0005
3805.00,0.0006
3804.00,0.0006
3803.00,0.0007
3802.00,0.0007
3801.00,0.0007
3800.00,0.0007
3799.00,0.0006
3798.00,0.0006
3797.00,0.0005
3796.00,0.0005
3795.00,0.0005
3794.00,0.0006
3793.00,0.0006
3792.00,0.0006
3791.00,0.0006
3790.00,0.0006
3789.00,0.0006
3788.00,0.0007
3787.00,0.0007
3786.00,0.0007
3785.00,0.0007
3784.00,0.0007
3783.00,0.0007
3782.00,0.0007
3781.00,0.0007
3780.00,0.0007
3779.00,0.0007
3778.00,0.0006
3777.00,0.0006
3776.00,0.0006
3775.00,0.0006
3774.00,0.0006
3773.00,0.0006
3772.00,0.0007
3771.00,0.0007
3770.00,0.0007
3769.00,0.0007
3768.00,0.0007
3767.00,0.0006
3766.00,0.0006
3765.00,0.0006
3764.00,0.0007
3763.00,0.0007
3762.00,0.0007
3761.00,0.0008
3760.00,0.0008
3759.00,0.0008
3758.00,0.0008
3757.00,0.0008
3756.00,0.0008
3755.00,0.0008
3754.00,0.0007
3753.00,0.0007
3752.00,0.0007
3751.00,0.0007
3750.00,0.0008
3749.00,0.0008
3748.00,0.0008
3747.00,0.0008
3746.00,0.0008
3745.00,0.0008
3744.00,0.0008
3743.00,0.0007
3742.00,0.0007
3741.00,0.0006
3740.00,0.0006
3739.00,0.0006
3738.00,0.0005
3737.00,0.0005
3736.00,0.0005
3735.00,0.0005
3734.00,0.0006
3733.00,0.0006
3732.00,0.0007
3731.00,0.0007
3730.00,0.0007
3729.00,0.0007
3728.00,0.0007
3727.00,0.0007
3726.00,0.0007
3725.00,0.0007
3724.00,0.0007
3723.00,0.0006
3722.00,0.0006
3721.00,0.0005
3720.00,0.0005
3719.00,0.0005
3718.00,0.0005
3717.00,0.0006
3716.00,0.0006
3715.00,0.0006
3714.00,0.0005
3713.00,0.0005
3712.00,0.0005
3711.00,0.0005
3710.00,0.0005
3709.00,0.0005
3708.00,0.0005
3707.00,0.0005
3706.00,0.0005
3705.00,0.0005
3704.00,0.0005
3703.00,0.0004
3702.00,0.0004
3701.00,0.0004
3700.00,0.0004
3699.00,0.0004
3698.00,0.0005
3697.00,0.0005
3696.00,0.0004
3695.00,0.0004
3694.00,0.0004
3693.00,0.0004
3692.00,0.0005
3691.00,0.0005
3690.00,0.0005
3689.00,0.0005
3688.00,0.0005
3687.00,0.0004
3686.00,0.0004
3685.00,0.0004
3684.00,0.0004
3683.00,0.0005
3682.00,0.0005
3681.00,0.0005
3680.00,0.0005
3679.00,0.0005
3678.00,0.0005
3677.00,0.0005
3676.00,0.0006
3675.00,0.0006
3674.00,0.0006
3673.00,0.0006
3672.00,0.0006
3671.00,0.0006
3670.00,0.0006
3669.00,0.0006
3668.00,0.0006
3667.00,0.0006
3666.00,0.0005
3665.00,0.0005
3664.00,0.0005
3663.00,0.0004
3662.00,0.0004
3661.00,0.0004
3660.00,0.0005
3659.00,0.0005
3658.00,0.0005
3657.00,0.0005
3656.00,0.0004
3655.00,0.0004
3654.00,0.0004
3653.00,0.0004
3652.00,0.0004
3651.00,0.0004
3650.00,0.0004
3649.00,0.0004
3648.00,0.0004
3647.00,0.0004
3646.00,0.0004
3645.00,0.0004
3644.00,0.0004
3643.00,0.0005
3642.00,0.0005
3641.00,0.0005
3640.00,0.0005
3639.00,0.0005
3638.00,0.0005
3637.00,0.0005
3636.00,0.0005
3635.00,0.0005
3634.00,0.0005
3633.00,0.0005
3632.00,0.0005
3631.00,0.0005
3630.00,0.0005
3629.00,0.0005
3628.00,0.0005
3627.00,0.0005
3626.00,0.0005
3625.00,0.0006
3624.00,0.0006
3623.00,0.0006
3622.00,0.0006
3621.00,0.0006
3620.00,0.0005
3619.00,0.0006
3618.00,0.0006
3617.00,0.0007
3616.00,0.0007
3615.00,0.0006
3614.00,0.0006
3613.00,0.0006
3612.00,0.0006
3611.00,0.0006
3610.00,0.0006
3609.00,0.0006
3608.00,0.0006
3607.00,0.0007
3606.00,0.0007
3605.00,0.0007
3604.00,0.0008
3603.00,0.0007
3602.00,0.0007
3601.00,0.0007
3600.00,0.0007
3599.00,0.0007
3598.00,0.0007
3597.00,0.0007
3596.00,0.0007
3595.00,0.0007
3594.00,0.0008
3593.00,0.0008
3592.00,0.0008
3591.00,0.0008
3590.00,0.0008
3589.00,0.0008
3588.00,0.0008
3587.00,0.0008
3586.00,0.0009
3585.00,0.0009
3584.00,0.0009
3583.00,0.0009
3582.00,0.0009
3581.00,0.0009
3580.00,0.0009
3579.00,0.0009
3578.00,0.0009
3577.00,0.0009
3576.00,0.0010
3575.00,0.0009
3574.00,0.0009
3573.00,0.0009
3572.00,0.0009
3571.00,0.0010
3570.00,0.0010
3569.00,0.0010
3568.00,0.0010
3567.00,0.0010
3566.00,0.0010
3565.00,0.0010
3564.00,0.0011
3563.00,0.0011
3562.00,0.0011
3561.00,0.0012
3560.00,0.0012
3559.00,0.0013
3558.00,0.0013
3557.00,0.0013
3556.00,0.0013
3555.00,0.0013
3554.00,0.0013
3553.00,0.0013
3552.00,0.0013
3551.00,0.0013
3550.00,0.0013
3549.00,0.0014
3548.00,0.0014
3547.00,0.0014
3546.00,0.0014
3545.00,0.0014
3544.00,0.0014
3543.00,0.0014
3542.00,0.0014
3541.00,0.0015
3540.00,0.0015
3539.00,0.0016
3538.00,0.0016
3537.00,0.0016
3536.00,0.0015
3535.00,0.0016
3534.00,0.0016
3533.00,0.0016
3532.00,0.0017
3531.00,0.0017
3530.00,0.0017
3529.00,0.0017
3528.00,0.0018
3527.00,0.0018
3526.00,0.0018
3525.00,0.0018
3524.00,0.0018
3523.00,0.0018
3522.00,0.0019
3521.00,0.0019
3520.00,0.0019
3519.00,0.0019
3518.00,0.0019
3517.00,0.0019
3516.00,0.0018
3515.00,0.0018
3514.00,0.0018
3513.00,0.0019
3512.00,0.0020
3511.00,0.0020
3510.00,0.0021
3509.00,0.0021
3508.00,0.0021
3507.00,0.0021
3506.00,0.0021
3505.00,0.0021
3504.00,0.0021
3503.00,0.0021
3502.00,0.0021
3501.00,0.0022
3500.00,0.0022
3499.00,0.0022
3498.00,0.0022
3497.00,0.0022
3496.00,0.0022
3495.00,0.0022
3494.00,0.0022
3493.00,0.0022
3492.00,0.0022
3491.00,0.0022
3490.00,0.0023
3489.00,0.0023
3488.00,0.0023
3487.00,0.0023
3486.00,0.0023
3485.00,0.0023
3484.00,0.0023
3483.00,0.0023
3482.00,0.0023
3481.00,0.0023
3480.00,0.0024
3479.00,0.0024
3478.00,0.0024
3477.00,0.0025
3476.00,0.0025
3475.00,0.0025
3474.00,0.0025
3473.00,0.0026
3472.00,0.0025
3471.00,0.0025
3470.00,0.0025
3469.00,0.0025
3468.00,0.0025
3467.00,0.0025
3466.00,0.0025
3465.00,0.0025
3464.00,0.0026
3463.00,0.0026
3462.00,0.0027
3461.00,0.0027
3460.00,0.0028
3459.00,0.0028
3458.00,0.0028
3457.00,0.0028
3456.00,0.0028
3455.00,0.0028
3454.00,0.0028
3453.00,0.0028
3452.00,0.0028
3451.00,0.0028
3450.00,0.0028
3449.00,0.0028
3448.00,0.0028
3447.00,0.0028
3446.00,0.0028
3445.00,0.0029
3444.00,0.0029
3443.00,0.0029
3442.00,0.0029
3441.00,0.0029
3440.00,0.0029
3439.00,0.0029
3438.00,0.0029
3437.00,0.0029
3436.00,0.0029
3435.00,0.0029
3434.00,0.0029
3433.00,0.0030
3432.00,0.0030
3431.00,0.0030
3430.00,0.0030
3429.00,0.0030
3428.00,0.0031
3427.00,0.0031
3426.00,0.0032
3425.00,0.0032
3424.00,0.0032
3423.00,0.0032
3422.00,0.0032
3421.00,0.0032
3420.00,0.0033
3419.00,0.0033
3418.00,0.0033
3417.00,0.0033
3416.00,0.0033
3415.00,0.0033
3414.00,0.0033
3413.00,0.0033
3412.00,0.0033
3411.00,0.0033
3410.00,0.0033
3409.00,0.0033
3408.00,0.0033
3407.00,0.0034
3406.00,0.0034
3405.00,0.0034
3404.00,0.0034
3403.00,0.0034
3402.00,0.0034
3401.00,0.0034
3400.00,0.0035
3399.00,0.0035
3398.00,0.0035
3397.00,0.0035
3396.00,0.0035
3395.00,0.0035
3394.00,0.0035
3393.00,0.0035
3392.00,0.0035
3391.00,0.0034
3390.00,0.0034
3389.00,0.0034
3388.00,0.0034
3387.00,0.0034
3386.00,0.0034
3385.00,0.0033
3384.00,0.0033
3383.00,0.0033
3382.00,0.0033
3381.00,0.0033
3380.00,0.0034
3379.00,0.0034
3378.00,0.0033
3377.00,0.0034
3376.00,0.0034
3375.00,0.0034
3374.00,0.0034
3373.00,0.0034
3372.00,0.0034
3371.00,0.0033
3370.00,0.0033
3369.00,0.0033
3368.00,0.0033
3367.00,0.0033
3366.00,0.0034
3365.00,0.0034
3364.00,0.0034
3363.00,0.0034
3362.00,0.0034
3361.00,0.0034
3360.00,0.0034
3359.00,0.0033
3358.00,0.0033
3357.00,0.0033
3356.00,0.0033
3355.00,0.0033
3354.00,0.0034
3353.00,0.0034
3352.00,0.0034
3351.00,0.0034
3350.00,0.0035
3349.00,0.0035
3348.00,0.0034
3347.00,0.0034
3346.00,0.0034
3345.00,0.0034
3344.00,0.0034
3343.00,0.0034
3342.00,0.0034
3341.00,0.0034
3340.00,0.0034
3339.00,0.0033
3338.00,0.0033
3337.00,0.0033
3336.00,0.0033
3335.00,0.0033
3334.00,0.0033
3333.00,0.0033
3332.00,0.0032
3331.00,0.0032
3330.00,0.0032
3329.00,0.0032
3328.00,0.0032
3327.00,0.0032
3326.00,0.0032
3325.00,0.0032
3324.00,0.0032
3323.00,0.0031
3322.00,0.0031
3321.00,0.0031
3320.00,0.0031
3319.00,0.0030
3318.00,0.0030
3317.00,0.0030
3316.00,0.0030
3315.00,0.0030
3314.00,0.0030
3313.00,0.0030
3312.00,0.0030
3311.00,0.0031
3310.00,0.0031
3309.00,0.0031
3308.00,0.0031
3307.00,0.0031
3306.00,0.0031
3305.00,0.0030
3304.00,0.0030
3303.00,0.0030
3302.00,0.0030
3301.00,0.0030
3300.00,0.0031
3299.00,0.0031
3298.00,0.0031
3297.00,0.0031
3296.00,0.0030
3295.00,0.0030
3294.00,0.0030
3293.00,0.0029
3292.00,0.0029
3291.00,0.0029
3290.00,0.0029
3289.00,0.0029
3288.00,0.0029
3287.00,0.0029
3286.00,0.0029
3285.00,0.0029
3284.00,0.0029
3283.00,0.0030
3282.00,0.0030
3281.00,0.0030
3280.00,0.0029
3279.00,0.0029
3278.00,0.0029
3277.00,0.0029
3276.00,0.0029
3275.00,0.0029
3274.00,0.0029
3273.00,0.0029
3272.00,0.0029
3271.00,0.0028
3270.00,0.0028
3269.00,0.0028
3268.00,0.0028
3267.00,0.0028
3266.00,0.0028
3265.00,0.0028
3264.00,0.0027
3263.00,0.0027
3262.00,0.0028
3261.00,0.0028
3260.00,0.0028
3259.00,0.0028
3258.00,0.0027
3257.00,0.0027
3256.00,0.0026
3255.00,0.0026
3254.00,0.0026
3253.00,0.0027
3252.00,0.0027
3251.00,0.0027
3250.00,0.0027
3249.00,0.0027
3248.00,0.0027
3247.00,0.0027
3246.00,0.0027
3245.00,0.0027
3244.00,0.0026
3243.00,0.0026
3242.00,0.0027
3241.00,0.0027
3240.00,0.0027
3239.00,0.0027
3238.00,0.0027
3237.00,0.0027
3236.00,0.0027
3235.00,0.0027
3234.00,0.0027
3233.00,0.0027
3232.00,0.0027
3231.00,0.0027
3230.00,0.0027
3229.00,0.0028
3228.00,0.0028
3227.00,0.0029
3226.00,0.0029
3225.00,0.0030
3224.00,0.0030
3223.00,0.0030
3222.00,0.0030
3221.00,0.0030
3220.00,0.0030
3219.00,0.0030
3218.00,0.0030
3217.00,0.0029
3216.00,0.0029
3215.00,0.0030
3214.00,0.0030
3213.00,0.0030
3212.00,0.0031
3211.00,0.0031
3210.00,0.0032
3209.00,0.0032
3208.00,0.0032
3207.00,0.0032
3206.00,0.0032
3205.00,0.0032
3204.00,0.0032
3203.00,0.0032
3202.00,0.0032
3201.00,0.0033
3200.00,0.0033
3199.00,0.0032
3198.00,0.0032
3197.00,0.0032
3196.00,0.0032
3195.00,0.0032
3194.00,0.0032
3193.00,0.0032
3192.00,0.0032
3191.00,0.0032
3190.00,0.0031
3189.00,0.0031
3188.00,0.0031
3187.00,0.0031
3186.00,0.0031
3185.00,0.0031
3184.00,0.0031
3183.00,0.0031
3182.00,0.0030
3181.00,0.0030
3180.00,0.0029
3179.00,0.0029
3178.00,0.0029
3177.00,0.0029
3176.00,0.0029
3175.00,0.0029
3174.00,0.0029
3173.00,0.0029
3172.00,0.0029
3171.00,0.0029
3170.00,0.0029
3169.00,0.0029
3168.00,0.0028
3167.00,0.0028
3166.00,0.0028
3165.00,0.0028
3164.00,0.0028
3163.00,0.0027
3162.00,0.0027
3161.00,0.0027
3160.00,0.0027
3159.00,0.0027
3158.00,0.0028
3157.00,0.0028
3156.00,0.0028
3155.00,0.0029
3154.00,0.0029
3153.00,0.0028
3152.00,0.0028
3151.00,0.0028
3150.00,0.0027
3149.00,0.0027
3148.00,0.0028
3147.00,0.0028
3146.00,0.0028
3145.00,0.0028
3144.00,0.0028
3143.00,0.0028
3142.00,0.0027
3141.00,0.0027
3140.00,0.0027
3139.00,0.0027
3138.00,0.0026
3137.00,0.0026
3136.00,0.0026
3135.00,0.0026
3134.00,0.0025
3133.00,0.0025
3132.00,0.0025
3131.00,0.0025
3130.00,0.0025
3129.00,0.0024
3128.00,0.0024
3127.00,0.0024
3126.00,0.0024
3125.00,0.0024
3124.00,0.0024
3123.00,0.0024
3122.00,0.0024
3121.00,0.0024
3120.00,0.0024
3119.00,0.0023
3118.00,0.0023
3117.00,0.0023
3116.00,0.0023
3115.00,0.0023
3114.00,0.0023
3113.00,0.0022
3112.00,0.0022
3111.00,0.0022
3110.00,0.0022
3109.00,0.0022
3108.00,0.0022
3107.00,0.0022
3106.00,0.0021
3105.00,0.0022
3104.00,0.0022
3103.00,0.0022
3102.00,0.0022
3101.00,0.0021
3100.00,0.0021
3099.00,0.0021
3098.00,0.0021
3097.00,0.0022
3096.00,0.0022
3095.00,0.0022
3094.00,0.0022
3093.00,0.0022
3092.00,0.0022
3091.00,0.0022
3090.00,0.0022
3089.00,0.0022
3088.00,0.0022
3087.00,0.0021
3086.00,0.0021
3085.00,0.0021
3084.00,0.0020
3083.00,0.0020
3082.00,0.0020
3081.00,0.0020
3080.00,0.0021
3079.00,0.0022
3078.00,0.0022
3077.00,0.0023
3076.00,0.0023
3075.00,0.0023
3074.00,0.0022
3073.00,0.0022
3072.00,0.0022
3071.00,0.0023
3070.00,0.0023
3069.00,0.0023
3068.00,0.0023
3067.00,0.0023
3066.00,0.0023
3065.00,0.0024
3064.00,0.0024
3063.00,0.0024
3062.00,0.0024
3061.00,0.0024
3060.00,0.0024
3059.00,0.0024
3058.00,0.0024
3057.00,0.0024
3056.00,0.0024
3055.00,0.0024
3054.00,0.0025
3053.00,0.0026
3052.00,0.0026
3051.00,0.0026
3050.00,0.0026
3049.00,0.0026
3048.00,0.0026
3047.00,0.0026
3046.00,0.0027
3045.00,0.0027
3044.00,0.0027
3043.00,0.0028
3042.00,0.0028
3041.00,0.0028
3040.00,0.0028
3039.00,0.0029
3038.00,0.0029
3037.00,0.0029
3036.00,0.0029
3035.00,0.0029
3034.00,0.0030
3033.00,0.0030
3032.00,0.0031
3031.00,0.0031
3030.00,0.0032
3029.00,0.0032
3028.00,0.0033
3027.00,0.0033
3026.00,0.0034
3025.00,0.0035
3024.00,0.0035
3023.00,0.0036
3022.00,0.0036
3021.00,0.0037
3020.00,0.0038
3019.00,0.0039
3018.00,0.0040
3017.00,0.0041
3016.00,0.0043
3015.00,0.0044
3014.00,0.0045
3013.00,0.0046
3012.00,0.0047
3011.00,0.0049
3010.00,0.0050
3009.00,0.0052
3008.00,0.0053
3007.00,0.0055
3006.00,0.0057
3005.00,0.0059
3004.00,0.0061
3003.00,0.0064
3002.00,0.0066
3001.00,0.0068
3000.00,0.0071
2999.00,0.0074
2998.00,0.0077
2997.00,0.0081
2996.00,0.0084
2995.00,0.0088
2994.00,0.0093
2993.00,0.0097
2992.00,0.0102
2991.00,0.0108
2990.00,0.0114
2989.00,0.0122
2988.00,0.0130
2987.00,0.0139
2986.00,0.0149
2985.00,0.0159
2984.00,0.0171
2983.00,0.0185
2982.00,0.0200
2981.00,0.0217
2980.00,0.0236
2979.00,0.0258
2978.00,0.0282
2977.00,0.0309
2976.00,0.0339
2975.00,0.0375
2974.00,0.0415
2973.00,0.0461
2972.00,0.0512
2971.00,0.0568
2970.00,0.0630
2969.00,0.0698
2968.00,0.0771
2967.00,0.0847
2966.00,0.0926
2965.00,0.1003
2964.00,0.1077
2963.00,0.1145
2962.00,0.1205
2961.00,0.1257
2960.00,0.1304
2959.00,0.1349
2958.00,0.1398
2957.00,0.1456
2956.00,0.1527
2955.00,0.1610
2954.00,0.1706
2953.00,0.1807
2952.00,0.1904
2951.00,0.1986
2950.00,0.2038
2949.00,0.2050
2948.00,0.2013
2947.00,0.1927
2946.00,0.1804
2945.00,0.1658
2944.00,0.1510
2943.00,0.1375
2942.00,0.1264
2941.00,0.1182
2940.00,0.1130
2939.00,0.1104
2938.00,0.1103
2937.00,0.1124
2936.00,0.1164
2935.00,0.1222
2934.00,0.1296
2933.00,0.1385
2932.00,0.1486
2931.00,0.1599
2930.00,0.1719
2929.00,0.1844
2928.00,0.1969
2927.00,0.2092
2926.00,0.2211
2925.00,0.2325
2924.00,0.2436
2923.00,0.2546
2922.00,0.2655
2921.00,0.2763
2920.00,0.2862
2919.00,0.2944
2918.00,0.2996
2917.00,0.3008
2916.00,0.2976
2915.00,0.2902
2914.00,0.2796
2913.00,0.2671
2912.00,0.2539
2911.00,0.2411
2910.00,0.2291
2909.00,0.2181
2908.00,0.2078
2907.00,0.1982
2906.00,0.1891
2905.00,0.1802
2904.00,0.1717
2903.00,0.1634
2902.00,0.1555
2901.00,0.1480
2900.00,0.1409
2899.00,0.1343
2898.00,0.1283
2897.00,0.1229
2896.00,0.1182
2895.00,0.1143
2894.00,0.1112
2893.00,0.1088
2892.00,0.1072
2891.00,0.1063
2890.00,0.1060
2889.00,0.1063
2888.00,0.1070
2887.00,0.1081
2886.00,0.1095
2885.00,0.1114
2884.00,0.1139
2883.00,0.1170
2882.00,0.1207
2881.00,0.1247
2880.00,0.1288
2879.00,0.1325
2878.00,0.1352
2877.00,0.1365
2876.00,0.1365
2875.00,0.1357
2874.00,0.1347
2873.00,0.1340
2872.00,0.1343
2871.00,0.1356
2870.00,0.1378
2869.00,0.1403
2868.00,0.1422
2867.00,0.1424
2866.00,0.1400
2865.00,0.1343
2864.00,0.1257
2863.00,0.1150
2862.00,0.1036
2861.00,0.0927
2860.00,0.0832
2859.00,0.0754
2858.00,0.0693
2857.00,0.0648
2856.00,0.0616
2855.00,0.0596
2854.00,0.0585
2853.00,0.0582
2852.00,0.0587
2851.00,0.0599
2850.00,0.0618
2849.00,0.0645
2848.00,0.0680
2847.00,0.0724
2846.00,0.0776
2845.00,0.0838
2844.00,0.0909
2843.00,0.0985
2842.00,0.1065
2841.00,0.1142
2840.00,0.1207
2839.00,0.1252
2838.00,0.1268
2837.00,0.1248
2836.00,0.1191
2835.00,0.1102
2834.00,0.0993
2833.00,0.0876
2832.00,0.0763
2831.00,0.0662
2830.00,0.0577
2829.00,0.0507
2828.00,0.0450
2827.00,0.0405
2826.00,0.0368
2825.00,0.0338
2824.00,0.0313
2823.00,0.0293
2822.00,0.0275
2821.00,0.0261
2820.00,0.0248
2819.00,0.0236
2818.00,0.0226
2817.00,0.0218
2816.00,0.0210
2815.00,0.0204
2814.00,0.0198
2813.00,0.0193
2812.00,0.0187
2811.00,0.0181
2810.00,0.0175
2809.00,0.0168
2808.00,0.0162
2807.00,0.0155
2806.00,0.0148
2805.00,0.0141
2804.00,0.0134
2803.00,0.0128
2802.00,0.0122
2801.00,0.0117
2800.00,0.0113
2799.00,0.0109
2798.00,0.0106
2797.00,0.0104
2796.00,0.0102
2795.00,0.0100
2794.00,0.0097
2793.00,0.0094
2792.00,0.0091
2791.00,0.0088
2790.00,0.0085
2789.00,0.0082
2788.00,0.0079
2787.00,0.0076
2786.00,0.0074
2785.00,0.0071
2784.00,0.0069
2783.00,0.0068
2782.00,0.0066
2781.00,0.0064
2780.00,0.0062
2779.00,0.0061
2778.00,0.0059
2777.00,0.0058
2776.00,0.0057
2775.00,0.0056
2774.00,0.0056
2773.00,0.0055
2772.00,0.0055
2771.00,0.0054
2770.00,0.0054
2769.00,0.0053
2768.00,0.0053
2767.00,0.0053
2766.00,0.0052
2765.00,0.0052
2764.00,0.0052
2763.00,0.0051
2762.00,0.0051
2761.00,0.0050
2760.00,0.0050
2759.00,0.0050
2758.00,0.0050
2757.00,0.0050
2756.00,0.0050
2755.00,0.0050
2754.00,0.0050
2753.00,0.0050
2752.00,0.0050
2751.00,0.0049
2750.00,0.0049
2749.00,0.0049
2748.00,0.0049
2747.00,0.0049
2746.00,0.0050
2745.00,0.0051
2744.00,0.0052
2743.00,0.0052
2742.00,0.0053
2741.00,0.0055
2740.00,0.0056
2739.00,0.0058
2738.00,0.0059
2737.00,0.0061
2736.00,0.0063
2735.00,0.0065
2734.00,0.0066
2733.00,0.0068
2732.00,0.0070
2731.00,0.0072
2730.00,0.0075
2729.00,0.0078
2728.00,0.0081
2727.00,0.0085
2726.00,0.0088
2725.00,0.0090
2724.00,0.0092
2723.00,0.0093
2722.00,0.0091
2721.00,0.0089
2720.00,0.0086
2719.00,0.0082
2718.00,0.0079
2717.00,0.0075
2716.00,0.0072
2715.00,0.0069
2714.00,0.0066
2713.00,0.0063
2712.00,0.0061
2711.00,0.0058
2710.00,0.0056
2709.00,0.0054
2708.00,0.0052
2707.00,0.0050
2706.00,0.0048
2705.00,0.0047
2704.00,0.0046
2703.00,0.0046
2702.00,0.0045
2701.00,0.0045
2700.00,0.0044
2699.00,0.0043
2698.00,0.0043
2697.00,0.0042
2696.00,0.0042
2695.00,0.0042
2694.00,0.0042
2693.00,0.0042
2692.00,0.0041
2691.00,0.0041
2690.00,0.0041
2689.00,0.0041
2688.00,0.0041
2687.00,0.0041
2686.00,0.0041
2685.00,0.0041
2684.00,0.0041
2683.00,0.0041
2682.00,0.0042
2681.00,0.0042
2680.00,0.0042
2679.00,0.0043
2678.00,0.0043
2677.00,0.0043
2676.00,0.0043
2675.00,0.0043
2674.00,0.0043
2673.00,0.0042
2672.00,0.0043
2671.00,0.0043
2670.00,0.0043
2669.00,0.0043
2668.00,0.0042
2667.00,0.0043
2666.00,0.0043
2665.00,0.0044
2664.00,0.0044
2663.00,0.0045
2662.00,0.0045
2661.00,0.0046
2660.00,0.0046
2659.00,0.0046
2658.00,0.0045
2657.00,0.0045
2656.00,0.0044
2655.00,0.0044
2654.00,0.0044
2653.00,0.0043
2652.00,0.0042
2651.00,0.0042
2650.00,0.0041
2649.00,0.0041
2648.00,0.0040
2647.00,0.0040
2646.00,0.0040
2645.00,0.0039
2644.00,0.0039
2643.00,0.0038
2642.00,0.0038
2641.00,0.0037
2640.00,0.0037
2639.00,0.0036
2638.00,0.0036
2637.00,0.0035
2636.00,0.0035
2635.00,0.0035
2634.00,0.0036
2633.00,0.0036
2632.00,0.0036
2631.00,0.0036
2630.00,0.0037
2629.00,0.0037
2628.00,0.0038
2627.00,0.0038
2626.00,0.0038
2625.00,0.0038
2624.00,0.0038
2623.00,0.0038
2622.00,0.0038
2621.00,0.0038
2620.00,0.0039
2619.00,0.0039
2618.00,0.0039
2617.00,0.0039
2616.00,0.0039
2615.00,0.0039
2614.00,0.0039
2613.00,0.0038
2612.00,0.0038
2611.00,0.0037
2610.00,0.0036
2609.00,0.0036
2608.00,0.0035
2607.00,0.0034
2606.00,0.0033
2605.00,0.0033
2604.00,0.0032
2603.00,0.0031
2602.00,0.0031
2601.00,0.0031
2600.00,0.0031
2599.00,0.0031
2598.00,0.0031
2597.00,0.0031
2596.00,0.0031
2595.00,0.0031
2594.00,0.0032
2593.00,0.0032
2592.00,0.0033
2591.00,0.0033
2590.00,0.0034
2589.00,0.0035
2588.00,0.0036
2587.00,0.0037
2586.00,0.0038
2585.00,0.0040
2584.00,0.0041
2583.00,0.0042
2582.00,0.0042
2581.00,0.0041
2580.00,0.0040
2579.00,0.0039
2578.00,0.0038
2577.00,0.0037
2576.00,0.0036
2575.00,0.0035
2574.00,0.0033
2573.00,0.0032
2572.00,0.0030
2571.00,0.0029
2570.00,0.0029
2569.00,0.0028
2568.00,0.0027
2567.00,0.0026
2566.00,0.0025
2565.00,0.0024
2564.00,0.0023
2563.00,0.0023
2562.00,0.0023
2561.00,0.0024
2560.00,0.0024
2559.00,0.0024
2558.00,0.0024
2557.00,0.0023
2556.00,0.0022
2555.00,0.0022
2554.00,0.0021
2553.00,0.0021
2552.00,0.0020
2551.00,0.0020
2550.00,0.0019
2549.00,0.0018
2548.00,0.0018
2547.00,0.0017
2546.00,0.0017
2545.00,0.0017
2544.00,0.0017
2543.00,0.0016
2542.00,0.0016
2541.00,0.0016
2540.00,0.0016
2539.00,0.0016
2538.00,0.0016
2537.00,0.0016
2536.00,0.0016
2535.00,0.0016
2534.00,0.0016
2533.00,0.0016
2532.00,0.0015
2531.00,0.0014
2530.00,0.0013
2529.00,0.0012
2528.00,0.0012
2527.00,0.0012
2526.00,0.0012
2525.00,0.0012
2524.00,0.0012
2523.00,0.0012
2522.00,0.0011
2521.00,0.0011
2520.00,0.0011
2519.00,0.0011
2518.00,0.0011
2517.00,0.0011
2516.00,0.0010
2515.00,0.0010
2514.00,0.0010
2513.00,0.0010
2512.00,0.0009
2511.00,0.0009
2510.00,0.0009
2509.00,0.0009
2508.00,0.0009
2507.00,0.0010
2506.00,0.0010
2505.00,0.0010
2504.00,0.0009
2503.00,0.0009
2502.00,0.0008
2501.00,0.0008
2500.00,0.0009
2499.00,0.0009
2498.00,0.0009
2497.00,0.0009
2496.00,0.0009
2495.00,0.0008
2494.00,0.0008
2493.00,0.0008
2492.00,0.0008
2491.00,0.0008
2490.00,0.0009
2489.00,0.0009
2488.00,0.0010
2487.00,0.0011
2486.00,0.0011
2485.00,0.0010
2484.00,0.0009
2483.00,0.0009
2482.00,0.0008
2481.00,0.0009
2480.00,0.0009
2479.00,0.0009
2478.00,0.0009
2477.00,0.0008
2476.00,0.0008
2475.00,0.0007
2474.00,0.0007
2473.00,0.0007
2472.00,0.0008
2471.00,0.0008
2470.00,0.0008
2469.00,0.0007
2468.00,0.0007
2467.00,0.0007
2466.00,0.0008
2465.00,0.0007
2464.00,0.0007
2463.00,0.0007
2462.00,0.0007
2461.00,0.0008
2460.00,0.0008
2459.00,0.0009
2458.00,0.0009
2457.00,0.0009
2456.00,0.0009
2455.00,0.0010
2454.00,0.0010
2453.00,0.0010
2452.00,0.0010
2451.00,0.0010
2450.00,0.0010
2449.00,0.0010
2448.00,0.0009
2447.00,0.0009
2446.00,0.0009
2445.00,0.0009
2444.00,0.0009
2443.00,0.0010
2442.00,0.0010
2441.00,0.0010
2440.00,0.0010
2439.00,0.0010
2438.00,0.0009
2437.00,0.0009
2436.00,0.0008
2435.00,0.0009
2434.00,0.0009
2433.00,0.0010
2432.00,0.0010
2431.00,0.0010
2430.00,0.0010
2429.00,0.0010
2428.00,0.0010
2427.00,0.0010
2426.00,0.0010
2425.00,0.0010
2424.00,0.0010
2423.00,0.0010
2422.00,0.0010
2421.00,0.0010
2420.00,0.0010
2419.00,0.0010
2418.00,0.0010
2417.00,0.0010
2416.00,0.0010
2415.00,0.0009
2414.00,0.0009
2413.00,0.0009
2412.00,0.0009
2411.00,0.0009
2410.00,0.0010
2409.00,0.0009
2408.00,0.0009
2407.00,0.0008
2406.00,0.0007
2405.00,0.0007
2404.00,0.0007
2403.00,0.0007
2402.00,0.0007
2401.00,0.0007
2400.00,0.0007
2399.00,0.0007
2398.00,0.0007
2397.00,0.0007
2396.00,0.0007
2395.00,0.0007
2394.00,0.0007
2393.00,0.0007
2392.00,0.0007
2391.00,0.0006
2390.00,0.0006
2389.00,0.0005
2388.00,0.0005
2387.00,0.0005
2386.00,0.0005
2385.00,0.0005
2384.00,0.0004
2383.00,0.0003
2382.00,0.0003
2381.00,0.0002
2380.00,0.0002
2379.00,0.0002
2378.00,0.0002
2377.00,0.0002
2376.00,0.0002
2375.00,0.0002
2374.00,0.0002
2373.00,0.0002
2372.00,0.0002
2371.00,0.0002
2370.00,0.0002
2369.00,0.0002
2368.00,0.0001
2367.00,0.0001
2366.00,0.0000
2365.00,0.0001
2364.00,0.0001
2363.00,0.0001
2362.00,0.0002
2361.00,0.0002
2360.00,0.0003
2359.00,0.0003
2358.00,0.0003
2357.00,0.0002
2356.00,0.0002
2355.00,0.0001
2354.00,0.0001
2353.00,0.0001
2352.00,0.0001
2351.00,0.0002
2350.00,0.0002
2349.00,0.0001
2348.00,0.0002
2347.00,0.0004
2346.00,0.0006
2345.00,0.0008
2344.00,0.0008
2343.00,0.0007
2342.00,0.0006
2341.00,0.0005
2340.00,0.0005
2339.00,0.0004
2338.00,0.0004
2337.00,0.0004
2336.00,0.0005
2335.00,0.0005
2334.00,0.0005
2333.00,0.0005
2332.00,0.0004
2331.00,0.0004
2330.00,0.0004
2329.00,0.0004
2328.00,0.0005
2327.00,0.0008
2326.00,0.0012
2325.00,0.0016
2324.00,0.0017
2323.00,0.0017
2322.00,0.0015
2321.00,0.0012
2320.00,0.0011
2319.00,0.0009
2318.00,0.0008
2317.00,0.0007
2316.00,0.0006
2315.00,0.0005
2314.00,0.0005
2313.00,0.0005
2312.00,0.0004
2311.00,0.0004
2310.00,0.0004
2309.00,0.0005
2308.00,0.0005
2307.00,0.0006
2306.00,0.0006
2305.00,0.0007
2304.00,0.0007
2303.00,0.0007
2302.00,0.0007
2301.00,0.0008
2300.00,0.0008
2299.00,0.0008
2298.00,0.0008
2297.00,0.0009
2296.00,0.0009
2295.00,0.0010
2294.00,0.0011
2293.00,0.0011
2292.00,0.0012
2291.00,0.0012
2290.00,0.0013
2289.00,0.0014
2288.00,0.0014
2287.00,0.0015
2286.00,0.0016
2285.00,0.0017
2284.00,0.0017
2283.00,0.0016
2282.00,0.0015
2281.00,0.0014
2280.00,0.0013
2279.00,0.0013
2278.00,0.0013
2277.00,0.0013
2276.00,0.0014
2275.00,0.0014
2274.00,0.0014
2273.00,0.0013
2272.00,0.0013
2271.00,0.0012
2270.00,0.0012
2269.00,0.0011
2268.00,0.0010
2267.00,0.0010
2266.00,0.0009
2265.00,0.0010
2264.00,0.0011
2263.00,0.0011
2262.00,0.0010
2261.00,0.0010
2260.00,0.0009
2259.00,0.0010
2258.00,0.0010
2257.00,0.0011
2256.00,0.0011
2255.00,0.0010
2254.00,0.0008
2253.00,0.0007
2252.00,0.0006
2251.00,0.0006
2250.00,0.0006
2249.00,0.0006
2248.00,0.0006
2247.00,0.0006
2246.00,0.0006
2245.00,0.0007
2244.00,0.0008
2243.00,0.0009
2242.00,0.0009
2241.00,0.0008
2240.00,0.0007
2239.00,0.0006
2238.00,0.0006
2237.00,0.0007
2236.00,0.0008
2235.00,0.0009
2234.00,0.0009
2233.00,0.0008
2232.00,0.0006
2231.00,0.0005
2230.00,0.0005
2229.00,0.0005
2228.00,0.0006
2227.00,0.0006
2226.00,0.0006
2225.00,0.0007
2224.00,0.0006
2223.00,0.0006
2222.00,0.0004
2221.00,0.0004
2220.00,0.0006
2219.00,0.0008
2218.00,0.0009
2217.00,0.0008
2216.00,0.0007
2215.00,0.0005
2214.00,0.0004
2213.00,0.0004
2212.00,0.0004
2211.00,0.0004
2210.00,0.0004
2209.00,0.0004
2208.00,0.0004
2207.00,0.0004
2206.00,0.0004
2205.00,0.0004
2204.00,0.0003
2203.00,0.0002
2202.00,0.0002
2201.00,0.0003
2200.00,0.0005
2199.00,0.0006
2198.00,0.0007
2197.00,0.0007
2196.00,0.0006
2195.00,0.0005
2194.00,0.0005
2193.00,0.0006
2192.00,0.0008
2191.00,0.0009
2190.00,0.0009
2189.00,0.0010
2188.00,0.0010
2187.00,0.0011
2186.00,0.0011
2185.00,0.0010
2184.00,0.0007
2183.00,0.0003
2182.00,-0.0000
2181.00,-0.0000
2180.00,0.0002
2179.00,0.0003
2178.00,0.0002
2177.00,-0.0001
2176.00,-0.0004
2175.00,-0.0005
2174.00,-0.0005
2173.00,-0.0002
2172.00,0.0003
2171.00,0.0009
2170.00,0.0014
2169.00,0.0019
2168.00,0.0022
2167.00,0.0023
2166.00,0.0021
2165.00,0.0019
2164.00,0.0018
2163.00,0.0018
2162.00,0.0017
2161.00,0.0011
2160.00,-0.0001
2159.00,-0.0016
2158.00,-0.0028
2157.00,-0.0031
2156.00,-0.0029
2155.00,-0.0024
2154.00,-0.0021
2153.00,-0.0018
2152.00,-0.0015
2151.00,-0.0014
2150.00,-0.0014
2149.00,-0.0013
2148.00,-0.0013
2147.00,-0.0013
2146.00,-0.0013
2145.00,-0.0015
2144.00,-0.0016
2143.00,-0.0017
2142.00,-0.0016
2141.00,-0.0014
2140.00,-0.0012
2139.00,-0.0010
2138.00,-0.0010
2137.00,-0.0012
2136.00,-0.0015
2135.00,-0.0018
2134.00,-0.0020
2133.00,-0.0019
2132.00,-0.0016
2131.00,-0.0014
2130.00,-0.0012
2129.00,-0.0010
2128.00,-0.0010
2127.00,-0.0009
2126.00,-0.0008
2125.00,-0.0006
2124.00,-0.0005
2123.00,-0.0004
2122.00,-0.0004
2121.00,-0.0005
2120.00,-0.0005
2119.00,-0.0005
2118.00,-0.0004
2117.00,-0.0003
2116.00,-0.0002
2115.00,-0.0001
2114.00,-0.0001
2113.00,-0.0000
2112.00,0.0000
2111.00,0.0001
2110.00,0.0002
2109.00,0.0003
2108.00,0.0003
2107.00,0.0001
2106.00,-0.0001
2105.00,-0.0002
2104.00,-0.0003
2103.00,-0.0002
2102.00,-0.0002
2101.00,-0.0000
2100.00,0.0000
2099.00,0.0001
2098.00,0.0000
2097.00,-0.0001
2096.00,-0.0002
2095.00,-0.0004
2094.00,-0.0005
2093.00,-0.0004
2092.00,-0.0004
2091.00,-0.0003
2090.00,-0.0002
2089.00,-0.0000
2088.00,0.0002
2087.00,0.0003
2086.00,0.0004
2085.00,0.0003
2084.00,0.0003
2083.00,0.0002
2082.00,0.0002
2081.00,0.0003
2080.00,0.0004
2079.00,0.0003
2078.00,0.0001
2077.00,0.0000
2076.00,-0.0000
2075.00,-0.0001
2074.00,-0.0001
2073.00,-0.0001
2072.00,-0.0002
2071.00,-0.0002
2070.00,-0.0003
2069.00,-0.0004
2068.00,-0.0004
2067.00,-0.0005
2066.00,-0.0005
2065.00,-0.0004
2064.00,-0.0002
2063.00,-0.0000
2062.00,0.0001
2061.00,0.0000
2060.00,-0.0002
2059.00,-0.0003
2058.00,-0.0003
2057.00,-0.0002
2056.00,-0.0001
2055.00,0.0001
2054.00,0.0003
2053.00,0.0006
2052.00,0.0010
2051.00,0.0013
2050.00,0.0012
2049.00,0.0009
2048.00,0.0005
2047.00,0.0002
2046.00,0.0000
2045.00,-0.0002
2044.00,-0.0004
2043.00,-0.0005
2042.00,-0.0003
2041.00,-0.0001
2040.00,-0.0000
2039.00,-0.0001
2038.00,-0.0001
2037.00,-0.0002
2036.00,-0.0002
2035.00,-0.0004
2034.00,-0.0007
2033.00,-0.0010
2032.00,-0.0014
2031.00,-0.0018
2030.00,-0.0019
2029.00,-0.0019
2028.00,-0.0017
2027.00,-0.0015
2026.00,-0.0013
2025.00,-0.0011
2024.00,-0.0011
2023.00,-0.0011
2022.00,-0.0010
2021.00,-0.0008
2020.00,-0.0007
2019.00,-0.0008
2018.00,-0.0011
2017.00,-0.0013
2016.00,-0.0013
2015.00,-0.0014
2014.00,-0.0014
2013.00,-0.0012
2012.00,-0.0010
2011.00,-0.0009
2010.00,-0.0009
2009.00,-0.0009
2008.00,-0.0011
2007.00,-0.0013
2006.00,-0.0014
2005.00,-0.0014
2004.00,-0.0014
2003.00,-0.0014
2002.00,-0.0015
2001.00,-0.0015
2000.00,-0.0013
1999.00,-0.0011
1998.00,-0.0009
1997.00,-0.0007
1996.00,-0.0006
1995.00,-0.0007
1994.00,-0.0007
1993.00,-0.0007
1992.00,-0.0008
1991.00,-0.0008
1990.00,-0.0007
1989.00,-0.0005
1988.00,-0.0003
1987.00,-0.0000
1986.00,0.0001
1985.00,0.0002
1984.00,0.0003
1983.00,0.0003
1982.00,0.0004
1981.00,0.0006
1980.00,0.0007
1979.00,0.0005
1978.00,-0.0000
1977.00,-0.0006
1976.00,-0.0009
1975.00,-0.0010
1974.00,-0.0009
1973.00,-0.0008
1972.00,-0.0008
1971.00,-0.0010
1970.00,-0.0012
1969.00,-0.0012
1968.00,-0.0012
1967.00,-0.0011
1966.00,-0.0012
1965.00,-0.0012
1964.00,-0.0012
1963.00,-0.0013
1962.00,-0.0014
1961.00,-0.0015
1960.00,-0.0014
1959.00,-0.0014
1958.00,-0.0014
1957.00,-0.0015
1956.00,-0.0015
1955.00,-0.0016
1954.00,-0.0017
1953.00,-0.0017
1952.00,-0.0016
1951.00,-0.0015
1950.00,-0.0015
1949.00,-0.0015
1948.00,-0.0014
1947.00,-0.0014
1946.00,-0.0014
1945.00,-0.0014
1944.00,-0.0014
1943.00,-0.0015
1942.00,-0.0015
1941.00,-0.0015
1940.00,-0.0015
1939.00,-0.0015
1938.00,-0.0014
1937.00,-0.0011
1936.00,-0.0008
1935.00,-0.0007
1934.00,-0.0007
1933.00,-0.0008
1932.00,-0.0009
1931.00,-0.0011
1930.00,-0.0012
1929.00,-0.0013
1928.00,-0.0013
1927.00,-0.0013
1926.00,-0.0011
1925.00,-0.0010
1924.00,-0.0009
1923.00,-0.0008
1922.00,-0.0007
1921.00,-0.0006
1920.00,-0.0007
1919.00,-0.0008
1918.00,-0.0008
1917.00,-0.0008
1916.00,-0.0007
1915.00,-0.0006
1914.00,-0.0005
1913.00,-0.0005
1912.00,-0.0005
1911.00,-0.0005
1910.00,-0.0006
1909.00,-0.0005
1908.00,-0.0005
1907.00,-0.0004
1906.00,-0.0004
1905.00,-0.0004
1904.00,-0.0004
1903.00,-0.0005
1902.00,-0.0006
1901.00,-0.0007
1900.00,-0.0007
1899.00,-0.0007
1898.00,-0.0006
1897.00,-0.0004
1896.00,-0.0002
1895.00,-0.0001
1894.00,-0.0001
1893.00,-0.0001
1892.00,-0.0002
1891.00,-0.0002
1890.00,-0.0002
1889.00,-0.0002
1888.00,-0.0002
1887.00,-0.0002
1886.00,-0.0002
1885.00,-0.0002
1884.00,-0.0003
1883.00,-0.0004
1882.00,-0.0004
1881.00,-0.0004
1880.00,-0.0004
1879.00,-0.0003
1878.00,-0.0002
1877.00,-0.0001
1876.00,-0.0001
1875.00,-0.0002
1874.00,-0.0003
1873.00,-0.0004
1872.00,-0.0004
1871.00,-0.0003
1870.00,-0.0003
1869.00,-0.0002
1868.00,-0.0002
1867.00,-0.0003
1866.00,-0.0003
1865.00,-0.0003
1864.00,-0.0003
1863.00,-0.0002
1862.00,-0.0002
1861.00,-0.0001
1860.00,-0.0001
1859.00,-0.0000
1858.00,-0.0000
1857.00,-0.0000
1856.00,-0.0001
1855.00,-0.0001
1854.00,-0.0001
1853.00,-0.0001
1852.00,-0.0001
1851.00,-0.0000
1850.00,0.0000
1849.00,0.0000
1848.00,-0.0000
1847.00,-0.0001
1846.00,-0.0001
1845.00,-0.0000
1844.00,0.0001
1843.00,0.0002
1842.00,0.0002
1841.00,0.0001
1840.00,0.0000
1839.00,0.0000
1838.00,0.0000
1837.00,0.0001
1836.00,0.0002
1835.00,0.0002
1834.00,0.0002
1833.00,0.0002
1832.00,0.0001
1831.00,0.0001
1830.00,0.0001
1829.00,0.0002
1828.00,0.0002
1827.00,0.0002
1826.00,0.0001
1825.00,0.0002
1824.00,0.0002
1823.00,0.0003
1822.00,0.0003
1821.00,0.0002
1820.00,0.0001
1819.00,0.0000
1818.00,-0.0001
1817.00,-0.0002
1816.00,-0.0002
1815.00,-0.0001
1814.00,-0.0001
1813.00,-0.0000
1812.00,0.0000
1811.00,0.0001
1810.00,0.0001
1809.00,0.0001
1808.00,0.0002
1807.00,0.0002
1806.00,0.0002
1805.00,0.0002
1804.00,0.0002
1803.00,0.0002
1802.00,0.0003
1801.00,0.0004
1800.00,0.0005
1799.00,0.0005
1798.00,0.0005
1797.00,0.0005
1796.00,0.0004
1795.00,0.0004
1794.00,0.0004
1793.00,0.0004
1792.00,0.0005
1791.00,0.0005
1790.00,0.0005
1789.00,0.0006
1788.00,0.0006
1787.00,0.0006
1786.00,0.0006
1785.00,0.0006
1784.00,0.0006
1783.00,0.0006
1782.00,0.0005
1781.00,0.0005
1780.00,0.0006
1779.00,0.0006
1778.00,0.0006
1777.00,0.0006
1776.00,0.0006
1775.00,0.0007
1774.00,0.0007
1773.00,0.0007
1772.00,0.0008
1771.00,0.0008
1770.00,0.0008
1769.00,0.0008
1768.00,0.0008
1767.00,0.0008
1766.00,0.0008
1765.00,0.0008
1764.00,0.0008
1763.00,0.0008
1762.00,0.0008
1761.00,0.0008
1760.00,0.0009
1759.00,0.0009
1758.00,0.0009
1757.00,0.0010
1756.00,0.0010
1755.00,0.0010
1754.00,0.0010
1753.00,0.0010
1752.00,0.0010
1751.00,0.0010
1750.00,0.0010
1749.00,0.0011
1748.00,0.0011
1747.00,0.0012
1746.00,0.0013
1745.00,0.0013
1744.00,0.0014
1743.00,0.0014
1742.00,0.0014
1741.00,0.0014
1740.00,0.0014
1739.00,0.0014
1738.00,0.0014
1737.00,0.0015
1736.00,0.0015
1735.00,0.0015
1734.00,0.0015
1733.00,0.0015
1732.00,0.0015
1731.00,0.0015
1730.00,0.0015
1729.00,0.0015
1728.00,0.0016
1727.00,0.0016
1726.00,0.0017
1725.00,0.0017
1724.00,0.0018
1723.00,0.0018
1722.00,0.0018
1721.00,0.0017
1720.00,0.0017
1719.00,0.0016
1718.00,0.0016
1717.00,0.0017
1716.00,0.0018
1715.00,0.0018
1714.00,0.0019
1713.00,0.0019
1712.00,0.0020
1711.00,0.0020
1710.00,0.0020
1709.00,0.0021
1708.00,0.0021
1707.00,0.0021
1706.00,0.0022
1705.00,0.0023
1704.00,0.0024
1703.00,0.0024
1702.00,0.0025
1701.00,0.0026
1700.00,0.0028
1699.00,0.0029
1698.00,0.0029
1697.00,0.0029
1696.00,0.0031
1695.00,0.0032
1694.00,0.0034
1693.00,0.0035
1692.00,0.0036
1691.00,0.0037
1690.00,0.0038
1689.00,0.0039
1688.00,0.0041
1687.00,0.0042
1686.00,0.0043
1685.00,0.0045
1684.00,0.0046
1683.00,0.0048
1682.00,0.0050
1681.00,0.0051
1680.00,0.0052
1679.00,0.0053
1678.00,0.0054
1677.00,0.0056
1676.00,0.0057
1675.00,0.0057
1674.00,0.0057
1673.00,0.0058
1672.00,0.0058
1671.00,0.0058
1670.00,0.0058
1669.00,0.0058
1668.00,0.0059
1667.00,0.0059
1666.00,0.0059
1665.00,0.0059
1664.00,0.0059
1663.00,0.0059
1662.00,0.0058
1661.00,0.0058
1660.00,0.0058
1659.00,0.0058
1658.00,0.0058
1657.00,0.0057
1656.00,0.0057
1655.00,0.0056
1654.00,0.0055
1653.00,0.0054
1652.00,0.0054
1651.00,0.0054
1650.00,0.0054
1649.00,0.0055
1648.00,0.0055
1647.00,0.0055
1646.00,0.0055
1645.00,0.0055
1644.00,0.0055
1643.00,0.0054
1642.00,0.0052
1641.00,0.0052
1640.00,0.0051
1639.00,0.0050
1638.00,0.0049
1637.00,0.0048
1636.00,0.0047
1635.00,0.0045
1634.00,0.0045
1633.00,0.0045
1632.00,0.0045
1631.00,0.0045
1630.00,0.0045
1629.00,0.0045
1628.00,0.0045
1627.00,0.0044
1626.00,0.0043
1625.00,0.0042
1624.00,0.0041
1623.00,0.0040
1622.00,0.0040
1621.00,0.0040
1620.00,0.0040
1619.00,0.0040
1618.00,0.0040
1617.00,0.0039
1616.00,0.0039
1615.00,0.0039
1614.00,0.0038
1613.00,0.0038
1612.00,0.0038
1611.00,0.0038
1610.00,0.0038
1609.00,0.0038
1608.00,0.0038
1607.00,0.0038
1606.00,0.0037
1605.00,0.0037
1604.00,0.0036
1603.00,0.0035
1602.00,0.0035
1601.00,0.0035
1600.00,0.0035
1599.00,0.0036
1598.00,0.0036
1597.00,0.0036
1596.00,0.0036
1595.00,0.0035
1594.00,0.0035
1593.00,0.0035
1592.00,0.0035
1591.00,0.0035
1590.00,0.0036
1589.00,0.0036
1588.00,0.0036
1587.00,0.0036
1586.00,0.0036
1585.00,0.0037
1584.00,0.0037
1583.00,0.0037
1582.00,0.0038
1581.00,0.0038
1580.00,0.0039
1579.00,0.0039
1578.00,0.0039
1577.00,0.0039
1576.00,0.0039
1575.00,0.0039
1574.00,0.0039
1573.00,0.0039
1572.00,0.0039
1571.00,0.0039
1570.00,0.0038
1569.00,0.0038
1568.00,0.0038
1567.00,0.0038
1566.00,0.0038
1565.00,0.0038
1564.00,0.0039
1563.00,0.0039
1562.00,0.0039
1561.00,0.0040
1560.00,0.0040
1559.00,0.0039
1558.00,0.0039
1557.00,0.0040
1556.00,0.0040
1555.00,0.0040
1554.00,0.0041
1553.00,0.0041
1552.00,0.0042
1551.00,0.0042
1550.00,0.0042
1549.00,0.0042
1548.00,0.0043
1547.00,0.0043
1546.00,0.0043
1545.00,0.0044
1544.00,0.0045
1543.00,0.0045
1542.00,0.0045
1541.00,0.0044
1540.00,0.0043
1539.00,0.0042
1538.00,0.0042
1537.00,0.0042
1536.00,0.0042
1535.00,0.0041
1534.00,0.0041
1533.00,0.0041
1532.00,0.0041
1531.00,0.0040
1530.00,0.0040
1529.00,0.0041
1528.00,0.0041
1527.00,0.0041
1526.00,0.0041
1525.00,0.0041
1524.00,0.0042
1523.00,0.0042
1522.00,0.0042
1521.00,0.0042
1520.00,0.0043
1519.00,0.0043
1518.00,0.0043
1517.00,0.0043
1516.00,0.0044
1515.00,0.0044
1514.00,0.0044
1513.00,0.0045
1512.00,0.0047
1511.00,0.0048
1510.00,0.0049
1509.00,0.0050
1508.00,0.0051
1507.00,0.0052
1506.00,0.0052
1505.00,0.0054
1504.00,0.0056
1503.00,0.0057
1502.00,0.0059
1501.00,0.0061
1500.00,0.0064
1499.00,0.0067
1498.00,0.0069
1497.00,0.0072
1496.00,0.0076
1495.00,0.0078
1494.00,0.0080
1493.00,0.0082
1492.00,0.0085
1491.00,0.0088
1490.00,0.0092
1489.00,0.0096
1488.00,0.0102
1487.00,0.0107
1486.00,0.0112
1485.00,0.0118
1484.00,0.0124
1483.00,0.0131
1482.00,0.0139
1481.00,0.0150
1480.00,0.0161
1479.00,0.0173
1478.00,0.0187
1477.00,0.0206
1476.00,0.0230
1475.00,0.0256
1474.00,0.0293
1473.00,0.0347
1472.00,0.0415
1471.00,0.0483
1470.00,0.0549
1469.00,0.0620
1468.00,0.0696
1467.00,0.0782
1466.00,0.0880
1465.00,0.0987
1464.00,0.1082
1463.00,0.1151
1462.00,0.1196
1461.00,0.1227
1460.00,0.1248
1459.00,0.1261
1458.00,0.1269
1457.00,0.1272
1456.00,0.1268
1455.00,0.1258
1454.00,0.1244
1453.00,0.1224
1452.00,0.1194
1451.00,0.1150
1450.00,0.1090
1449.00,0.1009
1448.00,0.0908
1447.00,0.0804
1446.00,0.0713
1445.00,0.0636
1444.00,0.0572
1443.00,0.0520
1442.00,0.0484
1441.00,0.0460
1440.00,0.0448
1439.00,0.0447
1438.00,0.0454
1437.00,0.0462
1436.00,0.0456
1435.00,0.0429
1434.00,0.0387
1433.00,0.0336
1432.00,0.0284
1431.00,0.0238
1430.00,0.0203
1429.00,0.0179
1428.00,0.0163
1427.00,0.0153
1426.00,0.0147
1425.00,0.0141
1424.00,0.0135
1423.00,0.0132
1422.00,0.0129
1421.00,0.0127
1420.00,0.0123
1419.00,0.0121
1418.00,0.0118
1417.00,0.0115
1416.00,0.0112
1415.00,0.0110
1414.00,0.0109
1413.00,0.0107
1412.00,0.0106
1411.00,0.0106
1410.00,0.0106
1409.00,0.0106
1408.00,0.0105
1407.00,0.0105
1406.00,0.0106
1405.00,0.0106
1404.00,0.0106
1403.00,0.0107
1402.00,0.0108
1401.00,0.0110
1400.00,0.0111
1399.00,0.0114
1398.00,0.0117
1397.00,0.0119
1396.00,0.0122
1395.00,0.0126
1394.00,0.0133
1393.00,0.0139
1392.00,0.0145
1391.00,0.0154
1390.00,0.0166
1389.00,0.0184
1388.00,0.0212
1387.00,0.0252
1386.00,0.0305
1385.00,0.0372
1384.00,0.0460
1383.00,0.0581
1382.00,0.0743
1381.00,0.0955
1380.00,0.1227
1379.00,0.1549
1378.00,0.1878
1377.00,0.2141
1376.00,0.2261
1375.00,0.2182
1374.00,0.1924
1373.00,0.1590
1372.00,0.1274
1371.00,0.1010
1370.00,0.0798
1369.00,0.0637
1368.00,0.0527
1367.00,0.0460
1366.00,0.0424
1365.00,0.0410
1364.00,0.0413
1363.00,0.0432
1362.00,0.0459
1361.00,0.0489
1360.00,0.0511
1359.00,0.0518
1358.00,0.0505
1357.00,0.0472
1356.00,0.0426
1355.00,0.0373
1354.00,0.0323
1353.00,0.0280
1352.00,0.0246
1351.00,0.0218
1350.00,0.0197
1349.00,0.0180
1348.00,0.0166
1347.00,0.0156
1346.00,0.0147
1345.00,0.0140
1344.00,0.0135
1343.00,0.0131
1342.00,0.0127
1341.00,0.0123
1340.00,0.0121
1339.00,0.0119
1338.00,0.0118
1337.00,0.0118
1336.00,0.0120
1335.00,0.0122
1334.00,0.0126
1333.00,0.0131
1332.00,0.0137
1331.00,0.0141
1330.00,0.0143
1329.00,0.0141
1328.00,0.0137
1327.00,0.0130
1326.00,0.0122
1325.00,0.0114
1324.00,0.0107
1323.00,0.0101
1322.00,0.0097
1321.00,0.0094
1320.00,0.0091
1319.00,0.0088
1318.00,0.0086
1317.00,0.0084
1316.00,0.0082
1315.00,0.0080
1314.00,0.0079
1313.00,0.0079
1312.00,0.0080
1311.00,0.0081
1310.00,0.0085
1309.00,0.0089
1308.00,0.0096
1307.00,0.0103
1306.00,0.0111
1305.00,0.0118
1304.00,0.0121
1303.00,0.0122
1302.00,0.0122
1301.00,0.0122
1300.00,0.0124
1299.00,0.0127
1298.00,0.0131
1297.00,0.0134
1296.00,0.0136
1295.00,0.0135
1294.00,0.0131
1293.00,0.0125
1292.00,0.0119
1291.00,0.0113
1290.00,0.0107
1289.00,0.0102
1288.00,0.0098
1287.00,0.0094
1286.00,0.0091
1285.00,0.0089
1284.00,0.0086
1283.00,0.0084
1282.00,0.0083
1281.00,0.0081
1280.00,0.0079
1279.00,0.0077
1278.00,0.0076
1277.00,0.0075
1276.00,0.0074
1275.00,0.0074
1274.00,0.0074
1273.00,0.0074
1272.00,0.0074
1271.00,0.0074
1270.00,0.0074
1269.00,0.0074
1268.00,0.0075
1267.00,0.0076
1266.00,0.0077
1265.00,0.0079
1264.00,0.0081
1263.00,0.0083
1262.00,0.0085
1261.00,0.0088
1260.00,0.0092
1259.00,0.0097
1258.00,0.0102
1257.00,0.0106
1256.00,0.0107
1255.00,0.0106
1254.00,0.0102
1253.00,0.0097
1252.00,0.0092
1251.00,0.0087
1250.00,0.0084
1249.00,0.0081
1248.00,0.0079
1247.00,0.0077
1246.00,0.0076
1245.00,0.0074
1244.00,0.0074
1243.00,0.0073
1242.00,0.0073
1241.00,0.0073
1240.00,0.0073
1239.00,0.0073
1238.00,0.0073
1237.00,0.0073
1236.00,0.0073
1235.00,0.0072
1234.00,0.0072
1233.00,0.0072
1232.00,0.0071
1231.00,0.0071
1230.00,0.0071
1229.00,0.0072
1228.00,0.0073
1227.00,0.0076
1226.00,0.0078
1225.00,0.0080
1224.00,0.0083
1223.00,0.0087
1222.00,0.0091
1221.00,0.0095
1220.00,0.0098
1219.00,0.0099
1218.00,0.0099
1217.00,0.0096
1216.00,0.0093
1215.00,0.0089
1214.00,0.0086
1213.00,0.0082
1212.00,0.0079
1211.00,0.0076
1210.00,0.0073
1209.00,0.0070
1208.00,0.0068
1207.00,0.0066
1206.00,0.0065
1205.00,0.0064
1204.00,0.0064
1203.00,0.0063
1202.00,0.0063
1201.00,0.0062
1200.00,0.0062
1199.00,0.0062
1198.00,0.0062
1197.00,0.0062
1196.00,0.0062
1195.00,0.0062
1194.00,0.0062
1193.00,0.0063
1192.00,0.0063
1191.00,0.0063
1190.00,0.0063
1189.00,0.0063
1188.00,0.0063
1187.00,0.0064
1186.00,0.0064
1185.00,0.0065
1184.00,0.0065
1183.00,0.0066
1182.00,0.0067
1181.00,0.0068
1180.00,0.0070
1179.00,0.0073
1178.00,0.0078
1177.00,0.0084
1176.00,0.0093
1175.00,0.0104
1174.00,0.0119
1173.00,0.0137
1172.00,0.0159
1171.00,0.0182
1170.00,0.0204
1169.00,0.0222
1168.00,0.0233
1167.00,0.0237
1166.00,0.0234
1165.00,0.0226
1164.00,0.0217
1163.00,0.0207
1162.00,0.0198
1161.00,0.0190
1160.00,0.0184
1159.00,0.0180
1158.00,0.0177
1157.00,0.0176
1156.00,0.0176
1155.00,0.0176
1154.00,0.0176
1153.00,0.0175
1152.00,0.0172
1151.00,0.0166
1150.00,0.0158
1149.00,0.0149
1148.00,0.0140
1147.00,0.0131
1146.00,0.0123
1145.00,0.0115
1144.00,0.0108
1143.00,0.0102
1142.00,0.0097
1141.00,0.0092
1140.00,0.0087
1139.00,0.0083
1138.00,0.0080
1137.00,0.0078
1136.00,0.0076
1135.00,0.0074
1134.00,0.0072
1133.00,0.0070
1132.00,0.0069
1131.00,0.0068
1130.00,0.0068
1129.00,0.0069
1128.00,0.0069
1127.00,0.0070
1126.00,0.0071
1125.00,0.0072
1124.00,0.0072
1123.00,0.0071
1122.00,0.0071
1121.00,0.0071
1120.00,0.0072
1119.00,0.0074
1118.00,0.0075
1117.00,0.0076
1116.00,0.0077
1115.00,0.0079
1114.00,0.0081
1113.00,0.0083
1112.00,0.0085
1111.00,0.0088
1110.00,0.0092
1109.00,0.0098
1108.00,0.0104
1107.00,0.0112
1106.00,0.0119
1105.00,0.0127
1104.00,0.0134
1103.00,0.0138
1102.00,0.0139
1101.00,0.0135
1100.00,0.0129
1099.00,0.0122
1098.00,0.0114
1097.00,0.0107
1096.00,0.0101
1095.00,0.0096
1094.00,0.0092
1093.00,0.0089
1092.00,0.0086
1091.00,0.0084
1090.00,0.0082
1089.00,0.0080
1088.00,0.0079
1087.00,0.0077
1086.00,0.0076
1085.00,0.0075
1084.00,0.0074
1083.00,0.0073
1082.00,0.0072
1081.00,0.0071
1080.00,0.0069
1079.00,0.0068
1078.00,0.0067
1077.00,0.0066
1076.00,0.0066
1075.00,0.0065
1074.00,0.0065
1073.00,0.0065
1072.00,0.0066
1071.00,0.0067
1070.00,0.0068
1069.00,0.0068
1068.00,0.0068
1067.00,0.0068
1066.00,0.0068
1065.00,0.0067
1064.00,0.0068
1063.00,0.0068
1062.00,0.0069
1061.00,0.0069
1060.00,0.0069
1059.00,0.0069
1058.00,0.0069
1057.00,0.0069
1056.00,0.0069
1055.00,0.0070
1054.00,0.0070
1053.00,0.0071
1052.00,0.0072
1051.00,0.0073
1050.00,0.0074
1049.00,0.0075
1048.00,0.0076
1047.00,0.0078
1046.00,0.0080
1045.00,0.0081
1044.00,0.0081
1043.00,0.0081
1042.00,0.0079
1041.00,0.0078
1040.00,0.0078
1039.00,0.0079
1038.00,0.0079
1037.00,0.0079
1036.00,0.0078
1035.00,0.0078
1034.00,0.0076
1033.00,0.0075
1032.00,0.0075
1031.00,0.0074
1030.00,0.0074
1029.00,0.0075
1028.00,0.0075
1027.00,0.0076
1026.00,0.0076
1025.00,0.0076
1024.00,0.0076
1023.00,0.0076
1022.00,0.0077
1021.00,0.0077
1020.00,0.0078
1019.00,0.0078
1018.00,0.0079
1017.00,0.0079
1016.00,0.0080
1015.00,0.0082
1014.00,0.0084
1013.00,0.0087
1012.00,0.0089
1011.00,0.0091
1010.00,0.0093
1009.00,0.0095
1008.00,0.0099
1007.00,0.0103
1006.00,0.0110
1005.00,0.0120
1004.00,0.0133
1003.00,0.0149
1002.00,0.0169
1001.00,0.0192
1000.00,0.0215
999.00,0.0232
998.00,0.0238
997.00,0.0231
996.00,0.0212
995.00,0.0188
994.00,0.0162
993.00,0.0140
992.00,0.0122
991.00,0.0109
990.00,0.0099
989.00,0.0093
988.00,0.0089
987.00,0.0087
986.00,0.0088
985.00,0.0090
984.00,0.0093
983.00,0.0100
982.00,0.0109
981.00,0.0122
980.00,0.0141
979.00,0.0165
978.00,0.0195
977.00,0.0228
976.00,0.0261
975.00,0.0289
974.00,0.0308
973.00,0.0312
972.00,0.0299
971.00,0.0272
970.00,0.0237
969.00,0.0201
968.00,0.0171
967.00,0.0147
966.00,0.0130
965.00,0.0117
964.00,0.0108
963.00,0.0101
962.00,0.0095
961.00,0.0090
960.00,0.0086
959.00,0.0083
958.00,0.0081
957.00,0.0079
956.00,0.0077
955.00,0.0076
954.00,0.0075
953.00,0.0073
952.00,0.0072
951.00,0.0071
950.00,0.0071
949.00,0.0072
948.00,0.0074
947.00,0.0076
946.00,0.0079
945.00,0.0083
944.00,0.0087
943.00,0.0091
942.00,0.0094
941.00,0.0096
940.00,0.0095
939.00,0.0093
938.00,0.0088
937.00,0.0082
936.00,0.0075
935.00,0.0070
934.00,0.0065
933.00,0.0062
932.00,0.0060
931.00,0.0059
930.00,0.0059
929.00,0.0058
928.00,0.0058
927.00,0.0059
926.00,0.0059
925.00,0.0059
924.00,0.0059
923.00,0.0059
922.00,0.0060
921.00,0.0062
920.00,0.0064
919.00,0.0067
918.00,0.0068
917.00,0.0069
916.00,0.0068
915.00,0.0069
914.00,0.0069
913.00,0.0070
912.00,0.0071
911.00,0.0072
910.00,0.0073
909.00,0.0075
908.00,0.0078
907.00,0.0083
906.00,0.0092
905.00,0.0105
904.00,0.0123
903.00,0.0146
902.00,0.0171
901.00,0.0194
900.00,0.0209
899.00,0.0212
898.00,0.0202
897.00,0.0183
896.00,0.0159
895.00,0.0135
894.00,0.0115
893.00,0.0100
892.00,0.0089
891.00,0.0081
890.00,0.0076
889.00,0.0072
888.00,0.0069
887.00,0.0068
886.00,0.0068
885.00,0.0069
884.00,0.0069
883.00,0.0068
882.00,0.0067
881.00,0.0066
880.00,0.0065
879.00,0.0065
878.00,0.0065
877.00,0.0064
876.00,0.0063
875.00,0.0063
874.00,0.0062
873.00,0.0063
872.00,0.0064
871.00,0.0065
870.00,0.0065
869.00,0.0065
868.00,0.0065
867.00,0.0066
866.00,0.0066
865.00,0.0067
864.00,0.0069
863.00,0.0071
862.00,0.0072
861.00,0.0073
860.00,0.0073
859.00,0.0074
858.00,0.0076
857.00,0.0077
856.00,0.0078
855.00,0.0080
854.00,0.0082
853.00,0.0083
852.00,0.0085
851.00,0.0087
850.00,0.0091
849.00,0.0096
848.00,0.0103
847.00,0.0112
846.00,0.0126
845.00,0.0147
844.00,0.0174
843.00,0.0202
842.00,0.0221
841.00,0.0223
840.00,0.0207
839.00,0.0182
838.00,0.0156
837.00,0.0136
836.00,0.0122
835.00,0.0114
834.00,0.0109
833.00,0.0105
832.00,0.0102
831.00,0.0100
830.00,0.0098
829.00,0.0097
828.00,0.0096
827.00,0.0095
826.00,0.0094
825.00,0.0093
824.00,0.0092
823.00,0.0092
822.00,0.0094
821.00,0.0097
820.00,0.0100
819.00,0.0104
818.00,0.0109
817.00,0.0117
816.00,0.0127
815.00,0.0140
814.00,0.0157
813.00,0.0177
812.00,0.0200
811.00,0.0221
810.00,0.0237
809.00,0.0245
808.00,0.0241
807.00,0.0228
806.00,0.0209
805.00,0.0187
804.00,0.0167
803.00,0.0149
802.00,0.0135
801.00,0.0125
800.00,0.0117
799.00,0.0110
798.00,0.0105
797.00,0.0100
796.00,0.0095
795.00,0.0091
794.00,0.0087
793.00,0.0085
792.00,0.0083
791.00,0.0081
790.00,0.0079
789.00,0.0077
788.00,0.0075
787.00,0.0074
786.00,0.0072
785.00,0.0070
784.00,0.0068
783.00,0.0066
782.00,0.0065
781.00,0.0063
780.00,0.0061
779.00,0.0059
778.00,0.0058
777.00,0.0057
776.00,0.0057
775.00,0.0057
774.00,0.0058
773.00,0.0060
772.00,0.0063
771.00,0.0066
770.00,0.0068
769.00,0.0070
768.00,0.0069
767.00,0.0069
766.00,0.0067
765.00,0.0065
764.00,0.0062
763.00,0.0060
762.00,0.0057
761.00,0.0056
760.00,0.0054
759.00,0.0053
758.00,0.0051
757.00,0.0050
756.00,0.0048
755.00,0.0048
754.00,0.0047
753.00,0.0047
752.00,0.0047
751.00,0.0047
750.00,0.0047
749.00,0.0048
748.00,0.0049
747.00,0.0050
746.00,0.0051
745.00,0.0050
744.00,0.0050
743.00,0.0051
742.00,0.0052
741.00,0.0052
740.00,0.0053
739.00,0.0053
738.00,0.0054
737.00,0.0055
736.00,0.0057
735.00,0.0059
734.00,0.0060
733.00,0.0061
732.00,0.0062
731.00,0.0062
730.00,0.0062
729.00,0.0061
728.00,0.0060
727.00,0.0059
726.00,0.0058
725.00,0.0057
724.00,0.0056
723.00,0.0056
722.00,0.0057
721.00,0.0057
720.00,0.0056
719.00,0.0055
718.00,0.0053
717.00,0.0052
716.00,0.0051
715.00,0.0051
714.00,0.0051
713.00,0.0051
712.00,0.0051
711.00,0.0051
710.00,0.0050
709.00,0.0049
708.00,0.0050
707.00,0.0050
706.00,0.0051
705.00,0.0051
704.00,0.0050
703.00,0.0049
702.00,0.0049
701.00,0.0050
700.00,0.0050
699.00,0.0049
698.00,0.0047
697.00,0.0046
696.00,0.0046
695.00,0.0048
694.00,0.0050
693.00,0.0050
692.00,0.0049
691.00,0.0047
690.00,0.0045
689.00,0.0043
688.00,0.0043
687.00,0.0043
686.00,0.0044
685.00,0.0044
684.00,0.0044
683.00,0.0042
682.00,0.0041
681.00,0.0041
680.00,0.0043
679.00,0.0045
678.00,0.0048
677.00,0.0049
676.00,0.0049
675.00,0.0048
674.00,0.0048
673.00,0.0048
672.00,0.0048
671.00,0.0047
670.00,0.0045
669.00,0.0042
668.00,0.0040
667.00,0.0040
666.00,0.0042
665.00,0.0045
664.00,0.0047
663.00,0.0049
662.00,0.0050
661.00,0.0050
660.00,0.0051
659.00,0.0051
658.00,0.0051
657.00,0.0051
656.00,0.0050
655.00,0.0049
654.00,0.0049
653.00,0.0048
652.00,0.0047
651.00,0.0045
650.00,0.0044
649.00,0.0045
648.00,0.0050
647.00,0.0056
646.00,0.0061
645.00,0.0062
644.00,0.0061
643.00,0.0058
642.00,0.0055
641.00,0.0052
640.00,0.0050
639.00,0.0049
638.00,0.0049
637.00,0.0049
636.00,0.0049
635.00,0.0049
634.00,0.0048
633.00,0.0048
632.00,0.0048
631.00,0.0049
630.00,0.0050
629.00,0.0052
628.00,0.0055
627.00,0.0057
626.00,0.0058
625.00,0.0057
624.00,0.0055
623.00,0.0053
622.00,0.0052
621.00,0.0051
620.00,0.0050
619.00,0.0051
618.00,0.0053
617.00,0.0053
616.00,0.0050
615.00,0.0048
614.00,0.0047
613.00,0.0047
612.00,0.0048
611.00,0.0049
610.00,0.0049
609.00,0.0047
608.00,0.0045
607.00,0.0043
606.00,0.0043
605.00,0.0044
604.00,0.0046
603.00,0.0049
602.00,0.0051
601.00,0.0052
600.00,0.0055
599.00,0.0057
598.00,0.0058
597.00,0.0057
596.00,0.0055
595.00,0.0053
594.00,0.0052
593.00,0.0051
592.00,0.0050
591.00,0.0048
590.00,0.0046
589.00,0.0045
588.00,0.0046
587.00,0.0049
586.00,0.0054
585.00,0.0058
584.00,0.0059
583.00,0.0059
582.00,0.0058
581.00,0.0059
580.00,0.0059
579.00,0.0057
578.00,0.0056
577.00,0.0054
576.00,0.0053
575.00,0.0053
574.00,0.0054
573.00,0.0056
572.00,0.0057
571.00,0.0056
570.00,0.0054
569.00,0.0052
568.00,0.0052
567.00,0.0053
566.00,0.0055
565.00,0.0056
564.00,0.0056
563.00,0.0055
562.00,0.0053
561.00,0.0052
560.00,0.0052
559.00,0.0052
558.00,0.0053
557.00,0.0054
556.00,0.0056
555.00,0.0057
554.00,0.0058
553.00,0.0056
552.00,0.0051
551.00,0.0048
550.00,0.0050
549.00,0.0055
548.00,0.0061
547.00,0.0064
546.00,0.0063
545.00,0.0061
544.00,0.0060
543.00,0.0060
542.00,0.0062
541.00,0.0065
540.00,0.0066
539.00,0.0066
538.00,0.0063
537.00,0.0059
536.00,0.0055
535.00,0.0055
534.00,0.0059
533.00,0.0066
532.00,0.0074
531.00,0.0079
530.00,0.0080
529.00,0.0080
528.00,0.0080
527.00,0.0080
526.00,0.0081
525.00,0.0081
524.00,0.0079
523.00,0.0073
522.00,0.0065
521.00,0.0056
520.00,0.0051
519.00,0.0052
518.00,0.0056
517.00,0.0060
516.00,0.0062
515.00,0.0063
514.00,0.0064
513.00,0.0065
512.00,0.0063
511.00,0.0059
510.00,0.0055
509.00,0.0050
508.00,0.0049
507.00,0.0050
506.00,0.0052
505.00,0.0052
504.00,0.0052
503.00,0.0055
502.00,0.0060
501.00,0.0066
500.00,0.0068
499.00,0.0067
498.00,0.0065
497.00,0.0064
496.00,0.0063
495.00,0.0060
494.00,0.0057
493.00,0.0055
492.00,0.0054
491.00,0.0056
490.00,0.0059
489.00,0.0063
488.00,0.0066
487.00,0.0065
486.00,0.0059
485.00,0.0053
484.00,0.0052
483.00,0.0059
482.00,0.0071
481.00,0.0080
480.00,0.0079
479.00,0.0072
478.00,0.0066
477.00,0.0069
476.00,0.0080
475.00,0.0094
474.00,0.0106
473.00,0.0110
472.00,0.0106
471.00,0.0095
470.00,0.0083
469.00,0.0076
468.00,0.0075
467.00,0.0081
466.00,0.0091
465.00,0.0103
464.00,0.0115
463.00,0.0128
462.00,0.0139
461.00,0.0148
460.00,0.0154
459.00,0.0157
458.00,0.0157
457.00,0.0152
456.00,0.0148
455.00,0.0144
454.00,0.0139
453.00,0.0131
452.00,0.0123
451.00,0.0115
450.00,0.0108
