Created as New Dataset,Sample 190 By Administrator Date Tuesday, September 09 2025
cm-1,A
4000.00,0.0002
3999.00,0.0002
3998.00,0.0002
3997.00,0.0003
3996.00,0.0003
3995.00,0.0003
3994.00,0.0003
3993.00,0.0003
3992.00,0.0003
3991.00,0.0003
3990.00,0.0002
3989.00,0.0002
3988.00,0.0001
3987.00,0.0001
3986.00,0.0001
3985.00,0.0001
3984.00,0.0001
3983.00,0.0001
3982.00,0.0001
3981.00,0.0001
3980.00,0.0001
3979.00,0.0001
3978.00,0.0001
3977.00,0.0001
3976.00,0.0002
3975.00,0.0002
3974.00,0.0002
3973.00,0.0002
3972.00,0.0001
3971.00,0.0001
3970.00,0.0001
3969.00,0.0001
3968.00,0.0001
3967.00,0.0002
3966.00,0.0002
3965.00,0.0002
3964.00,0.0002
3963.00,0.0002
3962.00,0.0001
3961.00,0.0001
3960.00,0.0001
3959.00,0.0001
3958.00,0.0001
3957.00,0.0001
3956.00,0.0001
3955.00,0.0001
3954.00,0.0001
3953.00,0.0001
3952.00,0.0001
3951.00,0.0001
3950.00,0.0001
3949.00,0.0001
3948.00,0.0001
3947.00,0.0000
3946.00,0.0000
3945.00,0.0000
3944.00,0.0000
3943.00,0.0000
3942.00,0.0000
3941.00,0.0000
3940.00,0.0001
3939.00,0.0001
3938.00,0.0001
3937.00,0.0001
3936.00,0.0001
3935.00,0.0001
3934.00,0.0002
3933.00,0.0002
3932.00,0.0001
3931.00,0.0001
3930.00,0.0001
3929.00,0.0001
3928.00,0.0001
3927.00,0.0001
3926.00,0.0002
3925.00,0.0002
3924.00,0.0002
3923.00,0.0001
3922.00,0.0001
3921.00,0.0001
3920.00,0.0001
3919.00,0.0001
3918.00,0.0000
3917.00,0.0000
3916.00,0.0001
3915.00,0.0001
3914.00,0.0001
3913.00,0.0002
3912.00,0.0002
3911.00,0.0001
3910.00,0.0001
3909.00,0.0001
3908.00,0.0000
3907.00,0.0000
3906.00,0.0001
3905.00,0.0001
3904.00,0.0001
3903.00,0.0001
3902.00,0.0001
3901.00,0.0001
3900.00,0.0001
3899.00,0.0001
3898.00,0.0001
3897.00,0.0001
3896.00,0.0001
3895.00,0.0001
3894.00,0.0001
3893.00,0.0001
3892.00,0.0001
3891.00,0.0001
3890.00,0.0001
3889.00,0.0001
3888.00,0.0002
3887.00,0.0002
3886.00,0.0002
3885.00,0.0002
3884.00,0.0002
3883.00,0.0002
3882.00,0.0001
3881.00,0.0001
3880.00,0.0000
3879.00,0.0001
3878.00,0.0001
3877.00,0.0001
3876.00,0.0001
3875.00,0.0001
3874.00,0.0001
3873.00,0.0002
3872.00,0.0002
3871.00,0.0003
3870.00,0.0002
3869.00,0.0002
3868.00,0.0001
3867.00,0.0001
3866.00,0.0001
3865.00,0.0001
3864.00,0.0001
3863.00,0.0001
3862.00,0.0001
3861.00,0.0001
3860.00,0.0001
3859.00,0.0001
3858.00,0.0001
3857.00,0.0001
3856.00,0.0001
3855.00,0.0001
3854.00,0.0001
3853.00,0.0000
3852.00,-0.0000
3851.00,-0.0000
3850.00,-0.0000
3849.00,-0.0000
3848.00,-0.0001
3847.00,-0.0000
3846.00,0.0000
3845.00,0.0001
3844.00,0.0001
3843.00,0.0001
3842.00,0.0001
3841.00,0.0002
3840.00,0.0002
3839.00,0.0001
3838.00,0.0001
3837.00,0.0000
3836.00,0.0000
3835.00,0.0001
3834.00,0.0001
3833.00,0.0001
3832.00,0.0001
3831.00,0.0001
3830.00,0.0001
3829.00,0.0001
3828.00,0.0001
3827.00,0.0001
3826.00,0.0001
3825.00,0.0001
3824.00,0.0001
3823.00,0.0001
3822.00,0.0001
3821.00,0.0001
3820.00,0.0001
3819.00,0.0002
3818.00,0.0002
3817.00,0.0002
3816.00,0.0002
3815.00,0.0002
3814.00,0.0001
3813.00,0.0001
3812.00,0.0001
3811.00,0.0001
3810.00,0.0000
3809.00,0.0000
3808.00,-0.0000
3807.00,-0.0000
3806.00,-0.0000
3805.00,0.0000
3804.00,0.0001
3803.00,0.0001
3802.00,0.0001
3801.00,0.0001
3800.00,0.0002
3799.00,0.0002
3798.00,0.0002
3797.00,0.0001
3796.00,0.0001
3795.00,0.0001
3794.00,0.0001
3793.00,0.0001
3792.00,0.0001
3791.00,0.0001
3790.00,0.0001
3789.00,0.0001
3788.00,0.0001
3787.00,0.0001
3786.00,0.0001
3785.00,0.0001
3784.00,0.0001
3783.00,0.0001
3782.00,0.0001
3781.00,0.0001
3780.00,0.0001
3779.00,0.0001
3778.00,0.0001
3777.00,0.0001
3776.00,0.0002
3775.00,0.0002
3774.00,0.0001
3773.00,0.0001
3772.00,0.0001
3771.00,0.0001
3770.00,0.0001
3769.00,0.0001
3768.00,0.0001
3767.00,0.0002
3766.00,0.0002
3765.00,0.0002
3764.00,0.0002
3763.00,0.0002
3762.00,0.0002
3761.00,0.0002
3760.00,0.0002
3759.00,0.0002
3758.00,0.0002
3757.00,0.0002
3756.00,0.0002
3755.00,0.0002
3754.00,0.0003
3753.00,0.0003
3752.00,0.0002
3751.00,0.0002
3750.00,0.0001
3749.00,0.0001
3748.00,0.0000
3747.00,0.0000
3746.00,0.0000
3745.00,-0.0000
3744.00,-0.0000
3743.00,0.0000
3742.00,0.0001
3741.00,0.0001
3740.00,0.0001
3739.00,0.0001
3738.00,0.0001
3737.00,0.0001
3736.00,0.0001
3735.00,0.0002
3734.00,0.0002
3733.00,0.0001
3732.00,0.0001
3731.00,0.0001
3730.00,0.0001
3729.00,0.0001
3728.00,0.0001
3727.00,0.0001
3726.00,0.0001
3725.00,0.0001
3724.00,0.0002
3723.00,0.0002
3722.00,0.0003
3721.00,0.0002
3720.00,0.0001
3719.00,0.0000
3718.00,-0.0000
3717.00,-0.0001
3716.00,-0.0001
3715.00,-0.0000
3714.00,0.0000
3713.00,0.0000
3712.00,-0.0000
3711.00,-0.0000
3710.00,-0.0000
3709.00,-0.0000
3708.00,0.0000
3707.00,0.0000
3706.00,0.0000
3705.00,-0.0000
3704.00,-0.0000
3703.00,-0.0000
3702.00,-0.0000
3701.00,-0.0000
3700.00,-0.0000
3699.00,-0.0000
3698.00,-0.0000
3697.00,0.0000
3696.00,0.0000
3695.00,0.0001
3694.00,0.0001
3693.00,0.0002
3692.00,0.0002
3691.00,0.0002
3690.00,0.0002
3689.00,0.0001
3688.00,0.0001
3687.00,0.0001
3686.00,0.0001
3685.00,0.0000
3684.00,0.0000
3683.00,0.0000
3682.00,0.0000
3681.00,0.0000
3680.00,-0.0000
3679.00,-0.0000
3678.00,-0.0000
3677.00,0.0000
3676.00,0.0000
3675.00,0.0000
3674.00,0.0000
3673.00,0.0000
3672.00,0.0000
3671.00,0.0000
3670.00,-0.0000
3669.00,-0.0000
3668.00,-0.0001
3667.00,-0.0001
3666.00,-0.0001
3665.00,-0.0001
3664.00,-0.0001
3663.00,-0.0001
3662.00,-0.0001
3661.00,-0.0001
3660.00,-0.0000
3659.00,-0.0000
3658.00,0.0000
3657.00,0.0000
3656.00,0.0000
3655.00,0.0000
3654.00,0.0000
3653.00,0.0000
3652.00,-0.0000
3651.00,-0.0000
3650.00,0.0000
3649.00,0.0001
3648.00,0.0002
3647.00,0.0002
3646.00,0.0001
3645.00,0.0001
3644.00,0.0000
3643.00,-0.0000
3642.00,-0.0000
3641.00,-0.0000
3640.00,-0.0000
3639.00,0.0000
3638.00,0.0000
3637.00,0.0001
3636.00,0.0001
3635.00,0.0001
3634.00,0.0001
3633.00,0.0001
3632.00,0.0002
3631.00,0.0002
3630.00,0.0002
3629.00,0.0002
3628.00,0.0002
3627.00,0.0002
3626.00,0.0001
3625.00,0.0001
3624.00,0.0000
3623.00,0.0000
3622.00,0.0001
3621.00,0.0001
3620.00,0.0002
3619.00,0.0002
3618.00,0.0002
3617.00,0.0002
3616.00,0.0002
3615.00,0.0002
3614.00,0.0002
3613.00,0.0001
3612.00,0.0001
3611.00,0.0001
3610.00,0.0001
3609.00,0.0001
3608.00,0.0002
3607.00,0.0002
3606.00,0.0002
3605.00,0.0002
3604.00,0.0002
3603.00,0.0002
3602.00,0.0002
3601.00,0.0002
3600.00,0.0002
3599.00,0.0002
3598.00,0.0002
3597.00,0.0002
3596.00,0.0003
3595.00,0.0004
3594.00,0.0004
3593.00,0.0004
3592.00,0.0005
3591.00,0.0004
3590.00,0.0004
3589.00,0.0004
3588.00,0.0004
3587.00,0.0004
3586.00,0.0004
3585.00,0.0004
3584.00,0.0005
3583.00,0.0005
3582.00,0.0005
3581.00,0.0006
3580.00,0.0006
3579.00,0.0006
3578.00,0.0006
3577.00,0.0006
3576.00,0.0006
3575.00,0.0006
3574.00,0.0007
3573.00,0.0007
3572.00,0.0007
3571.00,0.0008
3570.00,0.0008
3569.00,0.0008
3568.00,0.0008
3567.00,0.0008
3566.00,0.0008
3565.00,0.0008
3564.00,0.0008
3563.00,0.0008
3562.00,0.0008
3561.00,0.0008
3560.00,0.0008
3559.00,0.0009
3558.00,0.0009
3557.00,0.0009
3556.00,0.0009
3555.00,0.0010
3554.00,0.0010
3553.00,0.0010
3552.00,0.0010
3551.00,0.0011
3550.00,0.0011
3549.00,0.0011
3548.00,0.0012
3547.00,0.0012
3546.00,0.0012
3545.00,0.0012
3544.00,0.0011
3543.00,0.0011
3542.00,0.0012
3541.00,0.0012
3540.00,0.0012
3539.00,0.0012
3538.00,0.0012
3537.00,0.0013
3536.00,0.0013
3535.00,0.0014
3534.00,0.0014
3533.00,0.0014
3532.00,0.0014
3531.00,0.0014
3530.00,0.0014
3529.00,0.0014
3528.00,0.0014
3527.00,0.0014
3526.00,0.0014
3525.00,0.0014
3524.00,0.0015
3523.00,0.0015
3522.00,0.0015
3521.00,0.0015
3520.00,0.0015
3519.00,0.0016
3518.00,0.0016
3517.00,0.0016
3516.00,0.0016
3515.00,0.0016
3514.00,0.0016
3513.00,0.0017
3512.00,0.0017
3511.00,0.0018
3510.00,0.0018
3509.00,0.0018
3508.00,0.0018
3507.00,0.0018
3506.00,0.0018
3505.00,0.0018
3504.00,0.0018
3503.00,0.0019
3502.00,0.0019
3501.00,0.0019
3500.00,0.0019
3499.00,0.0020
3498.00,0.0020
3497.00,0.0020
3496.00,0.0020
3495.00,0.0020
3494.00,0.0021
3493.00,0.0021
3492.00,0.0021
3491.00,0.0021
3490.00,0.0022
3489.00,0.0022
3488.00,0.0022
3487.00,0.0022
3486.00,0.0022
3485.00,0.0023
3484.00,0.0023
3483.00,0.0023
3482.00,0.0023
3481.00,0.0023
3480.00,0.0023
3479.00,0.0023
3478.00,0.0023
3477.00,0.0023
3476.00,0.0023
3475.00,0.0024
3474.00,0.0025
3473.00,0.0025
3472.00,0.0025
3471.00,0.0025
3470.00,0.0024
3469.00,0.0024
3468.00,0.0024
3467.00,0.0024
3466.00,0.0025
3465.00,0.0025
3464.00,0.0025
3463.00,0.0025
3462.00,0.0026
3461.00,0.0026
3460.00,0.0027
3459.00,0.0027
3458.00,0.0027
3457.00,0.0027
3456.00,0.0027
3455.00,0.0028
3454.00,0.0028
3453.00,0.0028
3452.00,0.0028
3451.00,0.0028
3450.00,0.0028
3449.00,0.0029
3448.00,0.0029
3447.00,0.0029
3446.00,0.0029
3445.00,0.0029
3444.00,0.0029
3443.00,0.0030
3442.00,0.0031
3441.00,0.0031
3440.00,0.0031
3439.00,0.0031
3438.00,0.0031
3437.00,0.0031
3436.00,0.0031
3435.00,0.0031
3434.00,0.0031
3433.00,0.0031
3432.00,0.0031
3431.00,0.0031
3430.00,0.0032
3429.00,0.0032
3428.00,0.0032
3427.00,0.0033
3426.00,0.0033
3425.00,0.0033
3424.00,0.0033
3423.00,0.0034
3422.00,0.0034
3421.00,0.0034
3420.00,0.0035
3419.00,0.0035
3418.00,0.0035
3417.00,0.0035
3416.00,0.0035
3415.00,0.0035
3414.00,0.0036
3413.00,0.0036
3412.00,0.0036
3411.00,0.0036
3410.00,0.0036
3409.00,0.0036
3408.00,0.0037
3407.00,0.0037
3406.00,0.0037
3405.00,0.0037
3404.00,0.0037
3403.00,0.0038
3402.00,0.0038
3401.00,0.0038
3400.00,0.0039
3399.00,0.0039
3398.00,0.0039
3397.00,0.0038
3396.00,0.0038
3395.00,0.0038
3394.00,0.0038
3393.00,0.0038
3392.00,0.0038
3391.00,0.0038
3390.00,0.0038
3389.00,0.0038
3388.00,0.0038
3387.00,0.0039
3386.00,0.0039
3385.00,0.0039
3384.00,0.0039
3383.00,0.0039
3382.00,0.0039
3381.00,0.0039
3380.00,0.0039
3379.00,0.0039
3378.00,0.0039
3377.00,0.0039
3376.00,0.0039
3375.00,0.0039
3374.00,0.0039
3373.00,0.0040
3372.00,0.0040
3371.00,0.0040
3370.00,0.0040
3369.00,0.0039
3368.00,0.0039
3367.00,0.0040
3366.00,0.0040
3365.00,0.0040
3364.00,0.0039
3363.00,0.0039
3362.00,0.0039
3361.00,0.0039
3360.00,0.0039
3359.00,0.0039
3358.00,0.0040
3357.00,0.0040
3356.00,0.0040
3355.00,0.0041
3354.00,0.0041
3353.00,0.0041
3352.00,0.0041
3351.00,0.0041
3350.00,0.0041
3349.00,0.0041
3348.00,0.0041
3347.00,0.0041
3346.00,0.0041
3345.00,0.0041
3344.00,0.0041
3343.00,0.0041
3342.00,0.0041
3341.00,0.0041
3340.00,0.0040
3339.00,0.0040
3338.00,0.0040
3337.00,0.0040
3336.00,0.0040
3335.00,0.0040
3334.00,0.0040
3333.00,0.0041
3332.00,0.0040
3331.00,0.0040
3330.00,0.0040
3329.00,0.0040
3328.00,0.0040
3327.00,0.0040
3326.00,0.0040
3325.00,0.0040
3324.00,0.0040
3323.00,0.0040
3322.00,0.0040
3321.00,0.0039
3320.00,0.0039
3319.00,0.0039
3318.00,0.0039
3317.00,0.0039
3316.00,0.0039
3315.00,0.0039
3314.00,0.0039
3313.00,0.0039
3312.00,0.0039
3311.00,0.0039
3310.00,0.0038
3309.00,0.0039
3308.00,0.0039
3307.00,0.0039
3306.00,0.0040
3305.00,0.0040
3304.00,0.0040
3303.00,0.0039
3302.00,0.0039
3301.00,0.0039
3300.00,0.0039
3299.00,0.0039
3298.00,0.0039
3297.00,0.0039
3296.00,0.0039
3295.00,0.0039
3294.00,0.0039
3293.00,0.0039
3292.00,0.0039
3291.00,0.0039
3290.00,0.0039
3289.00,0.0039
3288.00,0.0039
3287.00,0.0038
3286.00,0.0038
3285.00,0.0037
3284.00,0.0037
3283.00,0.0037
3282.00,0.0037
3281.00,0.0037
3280.00,0.0037
3279.00,0.0037
3278.00,0.0036
3277.00,0.0037
3276.00,0.0037
3275.00,0.0037
3274.00,0.0037
3273.00,0.0037
3272.00,0.0036
3271.00,0.0036
3270.00,0.0036
3269.00,0.0036
3268.00,0.0036
3267.00,0.0036
3266.00,0.0036
3265.00,0.0036
3264.00,0.0035
3263.00,0.0035
3262.00,0.0035
3261.00,0.0035
3260.00,0.0035
3259.00,0.0035
3258.00,0.0035
3257.00,0.0035
3256.00,0.0035
3255.00,0.0034
3254.00,0.0034
3253.00,0.0034
3252.00,0.0034
3251.00,0.0034
3250.00,0.0034
3249.00,0.0034
3248.00,0.0034
3247.00,0.0033
3246.00,0.0033
3245.00,0.0032
3244.00,0.0032
3243.00,0.0033
3242.00,0.0033
3241.00,0.0033
3240.00,0.0033
3239.00,0.0033
3238.00,0.0033
3237.00,0.0034
3236.00,0.0034
3235.00,0.0035
3234.00,0.0035
3233.00,0.0035
3232.00,0.0035
3231.00,0.0035
3230.00,0.0035
3229.00,0.0035
3228.00,0.0035
3227.00,0.0035
3226.00,0.0035
3225.00,0.0035
3224.00,0.0035
3223.00,0.0035
3222.00,0.0035
3221.00,0.0036
3220.00,0.0036
3219.00,0.0037
3218.00,0.0038
3217.00,0.0038
3216.00,0.0038
3215.00,0.0038
3214.00,0.0038
3213.00,0.0038
3212.00,0.0038
3211.00,0.0038
3210.00,0.0038
3209.00,0.0038
3208.00,0.0038
3207.00,0.0038
3206.00,0.0038
3205.00,0.0039
3204.00,0.0039
3203.00,0.0039
3202.00,0.0040
3201.00,0.0040
3200.00,0.0040
3199.00,0.0040
3198.00,0.0040
3197.00,0.0040
3196.00,0.0040
3195.00,0.0040
3194.00,0.0040
3193.00,0.0040
3192.00,0.0040
3191.00,0.0040
3190.00,0.0039
3189.00,0.0039
3188.00,0.0038
3187.00,0.0038
3186.00,0.0038
3185.00,0.0038
3184.00,0.0038
3183.00,0.0038
3182.00,0.0038
3181.00,0.0037
3180.00,0.0037
3179.00,0.0036
3178.00,0.0036
3177.00,0.0036
3176.00,0.0036
3175.00,0.0035
3174.00,0.0035
3173.00,0.0035
3172.00,0.0034
3171.00,0.0034
3170.00,0.0034
3169.00,0.0034
3168.00,0.0034
3167.00,0.0034
3166.00,0.0034
3165.00,0.0033
3164.00,0.0033
3163.00,0.0033
3162.00,0.0033
3161.00,0.0033
3160.00,0.0033
3159.00,0.0033
3158.00,0.0033
3157.00,0.0033
3156.00,0.0034
3155.00,0.0034
3154.00,0.0034
3153.00,0.0034
3152.00,0.0034
3151.00,0.0034
3150.00,0.0034
3149.00,0.0034
3148.00,0.0034
3147.00,0.0033
3146.00,0.0033
3145.00,0.0033
3144.00,0.0033
3143.00,0.0033
3142.00,0.0033
3141.00,0.0033
3140.00,0.0033
3139.00,0.0032
3138.00,0.0032
3137.00,0.0032
3136.00,0.0031
3135.00,0.0031
3134.00,0.0030
3133.00,0.0030
3132.00,0.0030
3131.00,0.0030
3130.00,0.0030
3129.00,0.0030
3128.00,0.0030
3127.00,0.0030
3126.00,0.0030
3125.00,0.0030
3124.00,0.0030
3123.00,0.0029
3122.00,0.0029
3121.00,0.0029
3120.00,0.0028
3119.00,0.0028
3118.00,0.0028
3117.00,0.0028
3116.00,0.0028
3115.00,0.0027
3114.00,0.0027
3113.00,0.0027
3112.00,0.0027
3111.00,0.0026
3110.00,0.0026
3109.00,0.0026
3108.00,0.0026
3107.00,0.0025
3106.00,0.0025
3105.00,0.0025
3104.00,0.0025
3103.00,0.0026
3102.00,0.0026
3101.00,0.0026
3100.00,0.0026
3099.00,0.0026
3098.00,0.0026
3097.00,0.0026
3096.00,0.0026
3095.00,0.0026
3094.00,0.0025
3093.00,0.0025
3092.00,0.0024
3091.00,0.0024
3090.00,0.0024
3089.00,0.0024
3088.00,0.0024
3087.00,0.0024
3086.00,0.0023
3085.00,0.0023
3084.00,0.0023
3083.00,0.0023
3082.00,0.0023
3081.00,0.0023
3080.00,0.0023
3079.00,0.0023
3078.00,0.0023
3077.00,0.0023
3076.00,0.0023
3075.00,0.0024
3074.00,0.0024
3073.00,0.0023
3072.00,0.0024
3071.00,0.0024
3070.00,0.0024
3069.00,0.0025
3068.00,0.0025
3067.00,0.0025
3066.00,0.0025
3065.00,0.0025
3064.00,0.0025
3063.00,0.0026
3062.00,0.0026
3061.00,0.0026
3060.00,0.0026
3059.00,0.0026
3058.00,0.0026
3057.00,0.0026
3056.00,0.0026
3055.00,0.0027
3054.00,0.0027
3053.00,0.0027
3052.00,0.0027
3051.00,0.0027
3050.00,0.0028
3049.00,0.0028
3048.00,0.0028
3047.00,0.0028
3046.00,0.0028
3045.00,0.0028
3044.00,0.0028
3043.00,0.0028
3042.00,0.0029
3041.00,0.0029
3040.00,0.0030
3039.00,0.0030
3038.00,0.0030
3037.00,0.0031
3036.00,0.0030
3035.00,0.0030
3034.00,0.0030
3033.00,0.0031
3032.00,0.0031
3031.00,0.0032
3030.00,0.0033
3029.00,0.0033
3028.00,0.0034
3027.00,0.0034
3026.00,0.0034
3025.00,0.0035
3024.00,0.0035
3023.00,0.0036
3022.00,0.0037
3021.00,0.0038
3020.00,0.0039
3019.00,0.0040
3018.00,0.0041
3017.00,0.0042
3016.00,0.0043
3015.00,0.0044
3014.00,0.0045
3013.00,0.0047
3012.00,0.0047
3011.00,0.0048
3010.00,0.0049
3009.00,0.0050
3008.00,0.0052
3007.00,0.0053
3006.00,0.0055
3005.00,0.0057
3004.00,0.0059
3003.00,0.0061
3002.00,0.0064
3001.00,0.0066
3000.00,0.0069
2999.00,0.0072
2998.00,0.0075
2997.00,0.0078
2996.00,0.0081
2995.00,0.0085
2994.00,0.0090
2993.00,0.0094
2992.00,0.0100
2991.00,0.0105
2990.00,0.0112
2989.00,0.0118
2988.00,0.0126
2987.00,0.0135
2986.00,0.0145
2985.00,0.0155
2984.00,0.0168
2983.00,0.0181
2982.00,0.0196
2981.00,0.0214
2980.00,0.0233
2979.00,0.0255
2978.00,0.0280
2977.00,0.0308
2976.00,0.0341
2975.00,0.0378
2974.00,0.0421
2973.00,0.0470
2972.00,0.0524
2971.00,0.0585
2970.00,0.0653
2969.00,0.0729
2968.00,0.0811
2967.00,0.0899
2966.00,0.0991
2965.00,0.1086
2964.00,0.1178
2963.00,0.1263
2962.00,0.1337
2961.00,0.1397
2960.00,0.1444
2959.00,0.1481
2958.00,0.1514
2957.00,0.1551
2956.00,0.1597
2955.00,0.1656
2954.00,0.1728
2953.00,0.1807
2952.00,0.1883
2951.00,0.1943
2950.00,0.1974
2949.00,0.1967
2948.00,0.1915
2947.00,0.1822
2946.00,0.1698
2945.00,0.1558
2944.00,0.1418
2943.00,0.1292
2942.00,0.1189
2941.00,0.1113
2940.00,0.1063
2939.00,0.1039
2938.00,0.1036
2937.00,0.1053
2936.00,0.1087
2935.00,0.1137
2934.00,0.1203
2933.00,0.1281
2932.00,0.1372
2931.00,0.1472
2930.00,0.1580
2929.00,0.1692
2928.00,0.1804
2927.00,0.1913
2926.00,0.2017
2925.00,0.2116
2924.00,0.2212
2923.00,0.2306
2922.00,0.2398
2921.00,0.2487
2920.00,0.2567
2919.00,0.2629
2918.00,0.2664
2917.00,0.2666
2916.00,0.2632
2915.00,0.2567
2914.00,0.2479
2913.00,0.2378
2912.00,0.2276
2911.00,0.2177
2910.00,0.2087
2909.00,0.2005
2908.00,0.1929
2907.00,0.1856
2906.00,0.1784
2905.00,0.1712
2904.00,0.1638
2903.00,0.1565
2902.00,0.1492
2901.00,0.1421
2900.00,0.1353
2899.00,0.1289
2898.00,0.1230
2897.00,0.1177
2896.00,0.1131
2895.00,0.1092
2894.00,0.1061
2893.00,0.1037
2892.00,0.1020
2891.00,0.1010
2890.00,0.1006
2889.00,0.1006
2888.00,0.1011
2887.00,0.1020
2886.00,0.1032
2885.00,0.1047
2884.00,0.1066
2883.00,0.1090
2882.00,0.1118
2881.00,0.1149
2880.00,0.1179
2879.00,0.1204
2878.00,0.1221
2877.00,0.1227
2876.00,0.1224
2875.00,0.1215
2874.00,0.1206
2873.00,0.1202
2872.00,0.1207
2871.00,0.1222
2870.00,0.1243
2869.00,0.1265
2868.00,0.1282
2867.00,0.1283
2866.00,0.1260
2865.00,0.1208
2864.00,0.1131
2863.00,0.1037
2862.00,0.0937
2861.00,0.0842
2860.00,0.0759
2859.00,0.0691
2858.00,0.0639
2857.00,0.0601
2856.00,0.0575
2855.00,0.0557
2854.00,0.0548
2853.00,0.0544
2852.00,0.0548
2851.00,0.0558
2850.00,0.0576
2849.00,0.0603
2848.00,0.0641
2847.00,0.0688
2846.00,0.0746
2845.00,0.0813
2844.00,0.0887
2843.00,0.0965
2842.00,0.1045
2841.00,0.1119
2840.00,0.1180
2839.00,0.1219
2838.00,0.1227
2837.00,0.1201
2836.00,0.1140
2835.00,0.1050
2834.00,0.0943
2833.00,0.0831
2832.00,0.0724
2831.00,0.0630
2830.00,0.0550
2829.00,0.0484
2828.00,0.0431
2827.00,0.0389
2826.00,0.0354
2825.00,0.0326
2824.00,0.0302
2823.00,0.0282
2822.00,0.0266
2821.00,0.0251
2820.00,0.0239
2819.00,0.0228
2818.00,0.0218
2817.00,0.0209
2816.00,0.0202
2815.00,0.0196
2814.00,0.0190
2813.00,0.0185
2812.00,0.0180
2811.00,0.0175
2810.00,0.0169
2809.00,0.0163
2808.00,0.0157
2807.00,0.0150
2806.00,0.0143
2805.00,0.0137
2804.00,0.0130
2803.00,0.0125
2802.00,0.0119
2801.00,0.0115
2800.00,0.0111
2799.00,0.0108
2798.00,0.0106
2797.00,0.0103
2796.00,0.0101
2795.00,0.0099
2794.00,0.0096
2793.00,0.0093
2792.00,0.0090
2791.00,0.0086
2790.00,0.0083
2789.00,0.0080
2788.00,0.0078
2787.00,0.0075
2786.00,0.0073
2785.00,0.0070
2784.00,0.0068
2783.00,0.0066
2782.00,0.0064
2781.00,0.0062
2780.00,0.0060
2779.00,0.0058
2778.00,0.0057
2777.00,0.0056
2776.00,0.0055
2775.00,0.0054
2774.00,0.0053
2773.00,0.0052
2772.00,0.0051
2771.00,0.0051
2770.00,0.0051
2769.00,0.0051
2768.00,0.0050
2767.00,0.0050
2766.00,0.0050
2765.00,0.0049
2764.00,0.0049
2763.00,0.0048
2762.00,0.0048
2761.00,0.0047
2760.00,0.0047
2759.00,0.0047
2758.00,0.0047
2757.00,0.0046
2756.00,0.0046
2755.00,0.0046
2754.00,0.0047
2753.00,0.0047
2752.00,0.0046
2751.00,0.0046
2750.00,0.0046
2749.00,0.0046
2748.00,0.0046
2747.00,0.0046
2746.00,0.0047
2745.00,0.0047
2744.00,0.0048
2743.00,0.0050
2742.00,0.0051
2741.00,0.0052
2740.00,0.0053
2739.00,0.0054
2738.00,0.0055
2737.00,0.0057
2736.00,0.0059
2735.00,0.0061
2734.00,0.0062
2733.00,0.0064
2732.00,0.0066
2731.00,0.0068
2730.00,0.0070
2729.00,0.0072
2728.00,0.0074
2727.00,0.0077
2726.00,0.0081
2725.00,0.0083
2724.00,0.0085
2723.00,0.0086
2722.00,0.0085
2721.00,0.0083
2720.00,0.0080
2719.00,0.0076
2718.00,0.0073
2717.00,0.0070
2716.00,0.0066
2715.00,0.0064
2714.00,0.0061
2713.00,0.0059
2712.00,0.0057
2711.00,0.0055
2710.00,0.0053
2709.00,0.0051
2708.00,0.0050
2707.00,0.0048
2706.00,0.0047
2705.00,0.0046
2704.00,0.0045
2703.00,0.0044
2702.00,0.0042
2701.00,0.0041
2700.00,0.0041
2699.00,0.0040
2698.00,0.0040
2697.00,0.0040
2696.00,0.0039
2695.00,0.0039
2694.00,0.0039
2693.00,0.0040
2692.00,0.0040
2691.00,0.0040
2690.00,0.0040
2689.00,0.0040
2688.00,0.0040
2687.00,0.0039
2686.00,0.0039
2685.00,0.0039
2684.00,0.0039
2683.00,0.0040
2682.00,0.0040
2681.00,0.0041
2680.00,0.0041
2679.00,0.0041
2678.00,0.0042
2677.00,0.0042
2676.00,0.0042
2675.00,0.0041
2674.00,0.0041
2673.00,0.0040
2672.00,0.0040
2671.00,0.0040
2670.00,0.0040
2669.00,0.0040
2668.00,0.0040
2667.00,0.0040
2666.00,0.0041
2665.00,0.0041
2664.00,0.0041
2663.00,0.0042
2662.00,0.0042
2661.00,0.0043
2660.00,0.0043
2659.00,0.0043
2658.00,0.0043
2657.00,0.0043
2656.00,0.0042
2655.00,0.0041
2654.00,0.0041
2653.00,0.0040
2652.00,0.0040
2651.00,0.0039
2650.00,0.0039
2649.00,0.0038
2648.00,0.0038
2647.00,0.0038
2646.00,0.0037
2645.00,0.0037
2644.00,0.0036
2643.00,0.0036
2642.00,0.0035
2641.00,0.0034
2640.00,0.0033
2639.00,0.0033
2638.00,0.0033
2637.00,0.0032
2636.00,0.0032
2635.00,0.0033
2634.00,0.0033
2633.00,0.0033
2632.00,0.0034
2631.00,0.0034
2630.00,0.0034
2629.00,0.0035
2628.00,0.0035
2627.00,0.0035
2626.00,0.0035
2625.00,0.0034
2624.00,0.0034
2623.00,0.0034
2622.00,0.0035
2621.00,0.0035
2620.00,0.0036
2619.00,0.0036
2618.00,0.0036
2617.00,0.0036
2616.00,0.0036
2615.00,0.0035
2614.00,0.0035
2613.00,0.0034
2612.00,0.0034
2611.00,0.0034
2610.00,0.0034
2609.00,0.0033
2608.00,0.0032
2607.00,0.0031
2606.00,0.0030
2605.00,0.0029
2604.00,0.0029
2603.00,0.0028
2602.00,0.0028
2601.00,0.0028
2600.00,0.0028
2599.00,0.0028
2598.00,0.0028
2597.00,0.0028
2596.00,0.0028
2595.00,0.0029
2594.00,0.0029
2593.00,0.0030
2592.00,0.0030
2591.00,0.0030
2590.00,0.0031
2589.00,0.0032
2588.00,0.0033
2587.00,0.0034
2586.00,0.0035
2585.00,0.0035
2584.00,0.0036
2583.00,0.0037
2582.00,0.0037
2581.00,0.0037
2580.00,0.0036
2579.00,0.0035
2578.00,0.0034
2577.00,0.0033
2576.00,0.0031
2575.00,0.0030
2574.00,0.0030
2573.00,0.0029
2572.00,0.0028
2571.00,0.0027
2570.00,0.0026
2569.00,0.0024
2568.00,0.0023
2567.00,0.0022
2566.00,0.0022
2565.00,0.0021
2564.00,0.0020
2563.00,0.0020
2562.00,0.0020
2561.00,0.0020
2560.00,0.0020
2559.00,0.0021
2558.00,0.0021
2557.00,0.0021
2556.00,0.0020
2555.00,0.0019
2554.00,0.0018
2553.00,0.0017
2552.00,0.0017
2551.00,0.0017
2550.00,0.0016
2549.00,0.0016
2548.00,0.0015
2547.00,0.0014
2546.00,0.0014
2545.00,0.0014
2544.00,0.0014
2543.00,0.0014
2542.00,0.0014
2541.00,0.0014
2540.00,0.0013
2539.00,0.0013
2538.00,0.0013
2537.00,0.0013
2536.00,0.0013
2535.00,0.0013
2534.00,0.0013
2533.00,0.0013
2532.00,0.0012
2531.00,0.0012
2530.00,0.0011
2529.00,0.0011
2528.00,0.0011
2527.00,0.0011
2526.00,0.0011
2525.00,0.0011
2524.00,0.0010
2523.00,0.0010
2522.00,0.0011
2521.00,0.0011
2520.00,0.0010
2519.00,0.0010
2518.00,0.0010
2517.00,0.0009
2516.00,0.0009
2515.00,0.0008
2514.00,0.0008
2513.00,0.0008
2512.00,0.0008
2511.00,0.0007
2510.00,0.0007
2509.00,0.0007
2508.00,0.0007
2507.00,0.0007
2506.00,0.0007
2505.00,0.0006
2504.00,0.0006
2503.00,0.0006
2502.00,0.0006
2501.00,0.0007
2500.00,0.0007
2499.00,0.0007
2498.00,0.0007
2497.00,0.0007
2496.00,0.0007
2495.00,0.0007
2494.00,0.0007
2493.00,0.0007
2492.00,0.0008
2491.00,0.0008
2490.00,0.0009
2489.00,0.0009
2488.00,0.0009
2487.00,0.0009
2486.00,0.0009
2485.00,0.0009
2484.00,0.0009
2483.00,0.0008
2482.00,0.0007
2481.00,0.0007
2480.00,0.0006
2479.00,0.0006
2478.00,0.0007
2477.00,0.0007
2476.00,0.0007
2475.00,0.0007
2474.00,0.0007
2473.00,0.0007
2472.00,0.0006
2471.00,0.0006
2470.00,0.0005
2469.00,0.0005
2468.00,0.0005
2467.00,0.0006
2466.00,0.0006
2465.00,0.0007
2464.00,0.0007
2463.00,0.0008
2462.00,0.0008
2461.00,0.0008
2460.00,0.0008
2459.00,0.0007
2458.00,0.0007
2457.00,0.0007
2456.00,0.0008
2455.00,0.0008
2454.00,0.0008
2453.00,0.0008
2452.00,0.0008
2451.00,0.0008
2450.00,0.0008
2449.00,0.0008
2448.00,0.0009
2447.00,0.0008
2446.00,0.0008
2445.00,0.0008
2444.00,0.0008
2443.00,0.0008
2442.00,0.0008
2441.00,0.0008
2440.00,0.0009
2439.00,0.0009
2438.00,0.0009
2437.00,0.0009
2436.00,0.0009
2435.00,0.0009
2434.00,0.0009
2433.00,0.0009
2432.00,0.0010
2431.00,0.0010
2430.00,0.0010
2429.00,0.0010
2428.00,0.0009
2427.00,0.0009
2426.00,0.0008
2425.00,0.0008
2424.00,0.0008
2423.00,0.0008
2422.00,0.0008
2421.00,0.0008
2420.00,0.0008
2419.00,0.0008
2418.00,0.0008
2417.00,0.0008
2416.00,0.0008
2415.00,0.0008
2414.00,0.0008
2413.00,0.0008
2412.00,0.0008
2411.00,0.0008
2410.00,0.0007
2409.00,0.0007
2408.00,0.0006
2407.00,0.0006
2406.00,0.0005
2405.00,0.0005
2404.00,0.0005
2403.00,0.0005
2402.00,0.0006
2401.00,0.0007
2400.00,0.0007
2399.00,0.0008
2398.00,0.0008
2397.00,0.0007
2396.00,0.0007
2395.00,0.0006
2394.00,0.0006
2393.00,0.0006
2392.00,0.0007
2391.00,0.0007
2390.00,0.0007
2389.00,0.0007
2388.00,0.0007
2387.00,0.0006
2386.00,0.0006
2385.00,0.0005
2384.00,0.0005
2383.00,0.0005
2382.00,0.0005
2381.00,0.0004
2380.00,0.0003
2379.00,0.0002
2378.00,0.0002
2377.00,0.0002
2376.00,0.0002
2375.00,0.0003
2374.00,0.0003
2373.00,0.0003
2372.00,0.0003
2371.00,0.0002
2370.00,0.0001
2369.00,-0.0000
2368.00,-0.0001
2367.00,-0.0001
2366.00,-0.0001
2365.00,-0.0001
2364.00,-0.0000
2363.00,0.0001
2362.00,0.0001
2361.00,0.0002
2360.00,0.0001
2359.00,0.0001
2358.00,0.0002
2357.00,0.0002
2356.00,0.0003
2355.00,0.0004
2354.00,0.0004
2353.00,0.0005
2352.00,0.0004
2351.00,0.0004
2350.00,0.0004
2349.00,0.0003
2348.00,0.0003
2347.00,0.0002
2346.00,0.0002
2345.00,0.0002
2344.00,0.0001
2343.00,0.0001
2342.00,0.0002
2341.00,0.0003
2340.00,0.0004
2339.00,0.0005
2338.00,0.0006
2337.00,0.0006
2336.00,0.0006
2335.00,0.0006
2334.00,0.0006
2333.00,0.0005
2332.00,0.0005
2331.00,0.0005
2330.00,0.0005
2329.00,0.0005
2328.00,0.0007
2327.00,0.0010
2326.00,0.0015
2325.00,0.0018
2324.00,0.0019
2323.00,0.0019
2322.00,0.0017
2321.00,0.0015
2320.00,0.0013
2319.00,0.0011
2318.00,0.0010
2317.00,0.0009
2316.00,0.0009
2315.00,0.0010
2314.00,0.0010
2313.00,0.0010
2312.00,0.0009
2311.00,0.0009
2310.00,0.0009
2309.00,0.0010
2308.00,0.0009
2307.00,0.0009
2306.00,0.0009
2305.00,0.0009
2304.00,0.0009
2303.00,0.0009
2302.00,0.0010
2301.00,0.0010
2300.00,0.0010
2299.00,0.0010
2298.00,0.0010
2297.00,0.0010
2296.00,0.0010
2295.00,0.0010
2294.00,0.0011
2293.00,0.0012
2292.00,0.0012
2291.00,0.0013
2290.00,0.0013
2289.00,0.0013
2288.00,0.0014
2287.00,0.0014
2286.00,0.0014
2285.00,0.0014
2284.00,0.0014
2283.00,0.0013
2282.00,0.0012
2281.00,0.0011
2280.00,0.0011
2279.00,0.0011
2278.00,0.0011
2277.00,0.0010
2276.00,0.0010
2275.00,0.0010
2274.00,0.0009
2273.00,0.0010
2272.00,0.0011
2271.00,0.0011
2270.00,0.0011
2269.00,0.0010
2268.00,0.0009
2267.00,0.0008
2266.00,0.0008
2265.00,0.0009
2264.00,0.0009
2263.00,0.0010
2262.00,0.0011
2261.00,0.0012
2260.00,0.0011
2259.00,0.0011
2258.00,0.0010
2257.00,0.0009
2256.00,0.0008
2255.00,0.0007
2254.00,0.0007
2253.00,0.0007
2252.00,0.0007
2251.00,0.0006
2250.00,0.0005
2249.00,0.0005
2248.00,0.0006
2247.00,0.0007
2246.00,0.0007
2245.00,0.0007
2244.00,0.0006
2243.00,0.0005
2242.00,0.0005
2241.00,0.0006
2240.00,0.0007
2239.00,0.0007
2238.00,0.0006
2237.00,0.0005
2236.00,0.0004
2235.00,0.0003
2234.00,0.0003
2233.00,0.0003
2232.00,0.0004
2231.00,0.0005
2230.00,0.0006
2229.00,0.0006
2228.00,0.0006
2227.00,0.0005
2226.00,0.0005
2225.00,0.0005
2224.00,0.0006
2223.00,0.0006
2222.00,0.0007
2221.00,0.0008
2220.00,0.0008
2219.00,0.0007
2218.00,0.0006
2217.00,0.0005
2216.00,0.0004
2215.00,0.0004
2214.00,0.0004
2213.00,0.0004
2212.00,0.0003
2211.00,0.0001
2210.00,-0.0001
2209.00,-0.0002
2208.00,-0.0002
2207.00,-0.0001
2206.00,0.0001
2205.00,0.0003
2204.00,0.0006
2203.00,0.0007
2202.00,0.0007
2201.00,0.0007
2200.00,0.0007
2199.00,0.0008
2198.00,0.0007
2197.00,0.0007
2196.00,0.0007
2195.00,0.0007
2194.00,0.0007
2193.00,0.0007
2192.00,0.0007
2191.00,0.0008
2190.00,0.0010
2189.00,0.0011
2188.00,0.0011
2187.00,0.0010
2186.00,0.0010
2185.00,0.0009
2184.00,0.0007
2183.00,0.0005
2182.00,0.0001
2181.00,-0.0002
2180.00,-0.0002
2179.00,0.0000
2178.00,0.0003
2177.00,0.0006
2176.00,0.0007
2175.00,0.0005
2174.00,0.0003
2173.00,0.0001
2172.00,0.0000
2171.00,0.0002
2170.00,0.0005
2169.00,0.0008
2168.00,0.0010
2167.00,0.0011
2166.00,0.0013
2165.00,0.0015
2164.00,0.0017
2163.00,0.0018
2162.00,0.0015
2161.00,0.0009
2160.00,-0.0001
2159.00,-0.0012
2158.00,-0.0019
2157.00,-0.0021
2156.00,-0.0020
2155.00,-0.0020
2154.00,-0.0020
2153.00,-0.0019
2152.00,-0.0017
2151.00,-0.0014
2150.00,-0.0011
2149.00,-0.0011
2148.00,-0.0012
2147.00,-0.0014
2146.00,-0.0016
2145.00,-0.0017
2144.00,-0.0017
2143.00,-0.0016
2142.00,-0.0015
2141.00,-0.0014
2140.00,-0.0012
2139.00,-0.0011
2138.00,-0.0010
2137.00,-0.0010
2136.00,-0.0012
2135.00,-0.0015
2134.00,-0.0018
2133.00,-0.0017
2132.00,-0.0015
2131.00,-0.0012
2130.00,-0.0009
2129.00,-0.0009
2128.00,-0.0009
2127.00,-0.0009
2126.00,-0.0008
2125.00,-0.0007
2124.00,-0.0007
2123.00,-0.0006
2122.00,-0.0006
2121.00,-0.0006
2120.00,-0.0005
2119.00,-0.0004
2118.00,-0.0003
2117.00,-0.0002
2116.00,-0.0000
2115.00,0.0000
2114.00,0.0001
2113.00,0.0001
2112.00,0.0000
2111.00,-0.0000
2110.00,-0.0001
2109.00,-0.0001
2108.00,-0.0000
2107.00,-0.0000
2106.00,0.0000
2105.00,0.0001
2104.00,0.0001
2103.00,0.0000
2102.00,-0.0001
2101.00,-0.0002
2100.00,-0.0003
2099.00,-0.0003
2098.00,-0.0004
2097.00,-0.0005
2096.00,-0.0007
2095.00,-0.0008
2094.00,-0.0008
2093.00,-0.0007
2092.00,-0.0005
2091.00,-0.0002
2090.00,-0.0001
2089.00,-0.0000
2088.00,-0.0000
2087.00,-0.0000
2086.00,0.0000
2085.00,0.0001
2084.00,0.0002
2083.00,0.0003
2082.00,0.0003
2081.00,0.0003
2080.00,0.0002
2079.00,0.0001
2078.00,-0.0001
2077.00,-0.0001
2076.00,-0.0000
2075.00,0.0000
2074.00,0.0001
2073.00,0.0001
2072.00,0.0001
2071.00,0.0001
2070.00,0.0002
2069.00,0.0003
2068.00,0.0003
2067.00,0.0002
2066.00,-0.0000
2065.00,-0.0002
2064.00,-0.0003
2063.00,-0.0003
2062.00,-0.0003
2061.00,-0.0002
2060.00,-0.0000
2059.00,0.0002
2058.00,0.0002
2057.00,0.0001
2056.00,-0.0001
2055.00,-0.0003
2054.00,-0.0003
2053.00,0.0001
2052.00,0.0005
2051.00,0.0008
2050.00,0.0008
2049.00,0.0005
2048.00,0.0001
2047.00,-0.0003
2046.00,-0.0005
2045.00,-0.0006
2044.00,-0.0005
2043.00,-0.0002
2042.00,0.0002
2041.00,0.0006
2040.00,0.0007
2039.00,0.0007
2038.00,0.0005
2037.00,0.0003
2036.00,0.0002
2035.00,-0.0001
2034.00,-0.0005
2033.00,-0.0008
2032.00,-0.0010
2031.00,-0.0010
2030.00,-0.0009
2029.00,-0.0007
2028.00,-0.0005
2027.00,-0.0004
2026.00,-0.0005
2025.00,-0.0007
2024.00,-0.0011
2023.00,-0.0015
2022.00,-0.0017
2021.00,-0.0017
2020.00,-0.0016
2019.00,-0.0016
2018.00,-0.0014
2017.00,-0.0012
2016.00,-0.0010
2015.00,-0.0009
2014.00,-0.0010
2013.00,-0.0013
2012.00,-0.0013
2011.00,-0.0011
2010.00,-0.0008
2009.00,-0.0007
2008.00,-0.0008
2007.00,-0.0011
2006.00,-0.0013
2005.00,-0.0014
2004.00,-0.0015
2003.00,-0.0018
2002.00,-0.0020
2001.00,-0.0020
2000.00,-0.0019
1999.00,-0.0016
1998.00,-0.0013
1997.00,-0.0010
1996.00,-0.0009
1995.00,-0.0008
1994.00,-0.0007
1993.00,-0.0006
1992.00,-0.0006
1991.00,-0.0007
1990.00,-0.0008
1989.00,-0.0007
1988.00,-0.0004
1987.00,-0.0002
1986.00,-0.0000
1985.00,-0.0000
1984.00,0.0000
1983.00,0.0003
1982.00,0.0009
1981.00,0.0015
1980.00,0.0017
1979.00,0.0013
1978.00,0.0005
1977.00,-0.0004
1976.00,-0.0012
1975.00,-0.0016
1974.00,-0.0019
1973.00,-0.0018
1972.00,-0.0015
1971.00,-0.0011
1970.00,-0.0008
1969.00,-0.0006
1968.00,-0.0006
1967.00,-0.0007
1966.00,-0.0009
1965.00,-0.0010
1964.00,-0.0011
1963.00,-0.0011
1962.00,-0.0012
1961.00,-0.0014
1960.00,-0.0016
1959.00,-0.0018
1958.00,-0.0019
1957.00,-0.0020
1956.00,-0.0020
1955.00,-0.0019
1954.00,-0.0018
1953.00,-0.0017
1952.00,-0.0014
1951.00,-0.0013
1950.00,-0.0014
1949.00,-0.0016
1948.00,-0.0018
1947.00,-0.0019
1946.00,-0.0019
1945.00,-0.0018
1944.00,-0.0017
1943.00,-0.0016
1942.00,-0.0014
1941.00,-0.0013
1940.00,-0.0012
1939.00,-0.0013
1938.00,-0.0013
1937.00,-0.0013
1936.00,-0.0012
1935.00,-0.0010
1934.00,-0.0008
1933.00,-0.0007
1932.00,-0.0007
1931.00,-0.0008
1930.00,-0.0009
1929.00,-0.0009
1928.00,-0.0010
1927.00,-0.0009
1926.00,-0.0009
1925.00,-0.0008
1924.00,-0.0007
1923.00,-0.0006
1922.00,-0.0005
1921.00,-0.0003
1920.00,-0.0003
1919.00,-0.0003
1918.00,-0.0005
1917.00,-0.0006
1916.00,-0.0006
1915.00,-0.0006
1914.00,-0.0006
1913.00,-0.0005
1912.00,-0.0004
1911.00,-0.0003
1910.00,-0.0003
1909.00,-0.0004
1908.00,-0.0005
1907.00,-0.0005
1906.00,-0.0005
1905.00,-0.0004
1904.00,-0.0002
1903.00,-0.0001
1902.00,-0.0000
1901.00,-0.0000
1900.00,-0.0000
1899.00,-0.0001
1898.00,-0.0001
1897.00,-0.0001
1896.00,-0.0001
1895.00,-0.0001
1894.00,-0.0001
1893.00,-0.0001
1892.00,-0.0001
1891.00,-0.0002
1890.00,-0.0002
1889.00,-0.0002
1888.00,-0.0002
1887.00,-0.0002
1886.00,-0.0002
1885.00,-0.0002
1884.00,-0.0002
1883.00,-0.0003
1882.00,-0.0004
1881.00,-0.0004
1880.00,-0.0004
1879.00,-0.0003
1878.00,-0.0002
1877.00,-0.0001
1876.00,-0.0001
1875.00,-0.0000
1874.00,-0.0001
1873.00,-0.0001
1872.00,-0.0001
1871.00,-0.0001
1870.00,-0.0001
1869.00,-0.0001
1868.00,-0.0002
1867.00,-0.0001
1866.00,-0.0001
1865.00,0.0000
1864.00,0.0001
1863.00,0.0000
1862.00,-0.0000
1861.00,-0.0000
1860.00,-0.0000
1859.00,0.0001
1858.00,0.0001
1857.00,0.0001
1856.00,0.0000
1855.00,-0.0001
1854.00,-0.0001
1853.00,-0.0001
1852.00,0.0000
1851.00,0.0001
1850.00,0.0000
1849.00,-0.0000
1848.00,-0.0001
1847.00,-0.0001
1846.00,-0.0001
1845.00,-0.0000
1844.00,0.0000
1843.00,0.0000
1842.00,0.0000
1841.00,0.0001
1840.00,0.0001
1839.00,0.0002
1838.00,0.0002
1837.00,0.0003
1836.00,0.0003
1835.00,0.0003
1834.00,0.0002
1833.00,0.0002
1832.00,0.0002
1831.00,0.0003
1830.00,0.0003
1829.00,0.0004
1828.00,0.0004
1827.00,0.0004
1826.00,0.0002
1825.00,0.0002
1824.00,0.0002
1823.00,0.0002
1822.00,0.0002
1821.00,0.0002
1820.00,0.0001
1819.00,0.0000
1818.00,-0.0000
1817.00,-0.0001
1816.00,-0.0000
1815.00,0.0000
1814.00,0.0000
1813.00,0.0001
1812.00,0.0002
1811.00,0.0002
1810.00,0.0002
1809.00,0.0002
1808.00,0.0003
1807.00,0.0003
1806.00,0.0002
1805.00,0.0002
1804.00,0.0001
1803.00,0.0001
1802.00,0.0001
1801.00,0.0002
1800.00,0.0003
1799.00,0.0004
1798.00,0.0004
1797.00,0.0004
1796.00,0.0004
1795.00,0.0005
1794.00,0.0005
1793.00,0.0004
1792.00,0.0004
1791.00,0.0005
1790.00,0.0005
1789.00,0.0006
1788.00,0.0006
1787.00,0.0006
1786.00,0.0006
1785.00,0.0006
1784.00,0.0006
1783.00,0.0006
1782.00,0.0006
1781.00,0.0006
1780.00,0.0006
1779.00,0.0006
1778.00,0.0006
1777.00,0.0006
1776.00,0.0007
1775.00,0.0007
1774.00,0.0007
1773.00,0.0006
1772.00,0.0006
1771.00,0.0006
1770.00,0.0006
1769.00,0.0006
1768.00,0.0006
1767.00,0.0006
1766.00,0.0006
1765.00,0.0007
1764.00,0.0007
1763.00,0.0007
1762.00,0.0008
1761.00,0.0008
1760.00,0.0008
1759.00,0.0008
1758.00,0.0008
1757.00,0.0008
1756.00,0.0008
1755.00,0.0008
1754.00,0.0008
1753.00,0.0008
1752.00,0.0008
1751.00,0.0008
1750.00,0.0008
1749.00,0.0008
1748.00,0.0008
1747.00,0.0008
1746.00,0.0008
1745.00,0.0008
1744.00,0.0008
1743.00,0.0007
1742.00,0.0007
1741.00,0.0006
1740.00,0.0006
1739.00,0.0005
1738.00,0.0004
1737.00,0.0003
1736.00,0.0002
1735.00,0.0001
1734.00,0.0001
1733.00,0.0001
1732.00,0.0001
1731.00,0.0001
1730.00,0.0001
1729.00,0.0001
1728.00,0.0002
1727.00,0.0002
1726.00,0.0003
1725.00,0.0004
1724.00,0.0005
1723.00,0.0006
1722.00,0.0007
1721.00,0.0008
1720.00,0.0008
1719.00,0.0009
1718.00,0.0010
1717.00,0.0012
1716.00,0.0013
1715.00,0.0014
1714.00,0.0015
1713.00,0.0015
1712.00,0.0016
1711.00,0.0016
1710.00,0.0017
1709.00,0.0018
1708.00,0.0018
1707.00,0.0019
1706.00,0.0019
1705.00,0.0019
1704.00,0.0020
1703.00,0.0020
1702.00,0.0020
1701.00,0.0021
1700.00,0.0021
1699.00,0.0022
1698.00,0.0022
1697.00,0.0023
1696.00,0.0023
1695.00,0.0024
1694.00,0.0025
1693.00,0.0025
1692.00,0.0026
1691.00,0.0026
1690.00,0.0026
1689.00,0.0027
1688.00,0.0028
1687.00,0.0028
1686.00,0.0029
1685.00,0.0029
1684.00,0.0030
1683.00,0.0031
1682.00,0.0031
1681.00,0.0032
1680.00,0.0032
1679.00,0.0033
1678.00,0.0034
1677.00,0.0035
1676.00,0.0036
1675.00,0.0036
1674.00,0.0036
1673.00,0.0036
1672.00,0.0037
1671.00,0.0038
1670.00,0.0038
1669.00,0.0039
1668.00,0.0040
1667.00,0.0039
1666.00,0.0039
1665.00,0.0040
1664.00,0.0040
1663.00,0.0041
1662.00,0.0042
1661.00,0.0043
1660.00,0.0043
1659.00,0.0044
1658.00,0.0045
1657.00,0.0045
1656.00,0.0046
1655.00,0.0047
1654.00,0.0047
1653.00,0.0048
1652.00,0.0050
1651.00,0.0051
1650.00,0.0052
1649.00,0.0053
1648.00,0.0054
1647.00,0.0055
1646.00,0.0056
1645.00,0.0057
1644.00,0.0057
1643.00,0.0056
1642.00,0.0056
1641.00,0.0056
1640.00,0.0057
1639.00,0.0057
1638.00,0.0057
1637.00,0.0057
1636.00,0.0057
1635.00,0.0057
1634.00,0.0057
1633.00,0.0057
1632.00,0.0057
1631.00,0.0056
1630.00,0.0056
1629.00,0.0056
1628.00,0.0055
1627.00,0.0055
1626.00,0.0055
1625.00,0.0054
1624.00,0.0054
1623.00,0.0053
1622.00,0.0053
1621.00,0.0054
1620.00,0.0053
1619.00,0.0053
1618.00,0.0053
1617.00,0.0053
1616.00,0.0053
1615.00,0.0053
1614.00,0.0053
1613.00,0.0053
1612.00,0.0053
1611.00,0.0053
1610.00,0.0053
1609.00,0.0053
1608.00,0.0053
1607.00,0.0053
1606.00,0.0053
1605.00,0.0052
1604.00,0.0052
1603.00,0.0052
1602.00,0.0052
1601.00,0.0052
1600.00,0.0052
1599.00,0.0051
1598.00,0.0051
1597.00,0.0051
1596.00,0.0051
1595.00,0.0051
1594.00,0.0051
1593.00,0.0051
1592.00,0.0051
1591.00,0.0051
1590.00,0.0051
1589.00,0.0051
1588.00,0.0052
1587.00,0.0052
1586.00,0.0053
1585.00,0.0053
1584.00,0.0054
1583.00,0.0054
1582.00,0.0055
1581.00,0.0057
1580.00,0.0058
1579.00,0.0059
1578.00,0.0059
1577.00,0.0060
1576.00,0.0059
1575.00,0.0059
1574.00,0.0058
1573.00,0.0058
1572.00,0.0058
1571.00,0.0057
1570.00,0.0056
1569.00,0.0055
1568.00,0.0055
1567.00,0.0055
1566.00,0.0055
1565.00,0.0055
1564.00,0.0056
1563.00,0.0056
1562.00,0.0056
1561.00,0.0056
1560.00,0.0057
1559.00,0.0057
1558.00,0.0058
1557.00,0.0058
1556.00,0.0059
1555.00,0.0060
1554.00,0.0060
1553.00,0.0061
1552.00,0.0061
1551.00,0.0062
1550.00,0.0062
1549.00,0.0063
1548.00,0.0065
1547.00,0.0066
1546.00,0.0067
1545.00,0.0068
1544.00,0.0069
1543.00,0.0070
1542.00,0.0071
1541.00,0.0071
1540.00,0.0071
1539.00,0.0070
1538.00,0.0069
1537.00,0.0067
1536.00,0.0065
1535.00,0.0063
1534.00,0.0061
1533.00,0.0059
1532.00,0.0058
1531.00,0.0057
1530.00,0.0056
1529.00,0.0056
1528.00,0.0055
1527.00,0.0054
1526.00,0.0053
1525.00,0.0053
1524.00,0.0052
1523.00,0.0052
1522.00,0.0051
1521.00,0.0051
1520.00,0.0052
1519.00,0.0051
1518.00,0.0051
1517.00,0.0051
1516.00,0.0051
1515.00,0.0051
1514.00,0.0051
1513.00,0.0052
1512.00,0.0053
1511.00,0.0054
1510.00,0.0054
1509.00,0.0055
1508.00,0.0056
1507.00,0.0056
1506.00,0.0056
1505.00,0.0057
1504.00,0.0059
1503.00,0.0060
1502.00,0.0062
1501.00,0.0064
1500.00,0.0067
1499.00,0.0070
1498.00,0.0072
1497.00,0.0077
1496.00,0.0081
1495.00,0.0085
1494.00,0.0087
1493.00,0.0090
1492.00,0.0093
1491.00,0.0095
1490.00,0.0097
1489.00,0.0102
1488.00,0.0107
1487.00,0.0112
1486.00,0.0117
1485.00,0.0123
1484.00,0.0129
1483.00,0.0136
1482.00,0.0144
1481.00,0.0155
1480.00,0.0167
1479.00,0.0179
1478.00,0.0193
1477.00,0.0211
1476.00,0.0233
1475.00,0.0257
1474.00,0.0292
1473.00,0.0344
1472.00,0.0408
1471.00,0.0471
1470.00,0.0532
1469.00,0.0596
1468.00,0.0666
1467.00,0.0744
1466.00,0.0833
1465.00,0.0931
1464.00,0.1018
1463.00,0.1081
1462.00,0.1124
1461.00,0.1156
1460.00,0.1178
1459.00,0.1195
1458.00,0.1209
1457.00,0.1223
1456.00,0.1230
1455.00,0.1228
1454.00,0.1221
1453.00,0.1209
1452.00,0.1186
1451.00,0.1151
1450.00,0.1098
1449.00,0.1022
1448.00,0.0925
1447.00,0.0821
1446.00,0.0729
1445.00,0.0650
1444.00,0.0583
1443.00,0.0529
1442.00,0.0490
1441.00,0.0464
1440.00,0.0448
1439.00,0.0443
1438.00,0.0446
1437.00,0.0449
1436.00,0.0440
1435.00,0.0414
1434.00,0.0374
1433.00,0.0326
1432.00,0.0276
1431.00,0.0233
1430.00,0.0200
1429.00,0.0177
1428.00,0.0162
1427.00,0.0153
1426.00,0.0147
1425.00,0.0142
1424.00,0.0137
1423.00,0.0134
1422.00,0.0132
1421.00,0.0130
1420.00,0.0126
1419.00,0.0124
1418.00,0.0122
1417.00,0.0120
1416.00,0.0118
1415.00,0.0117
1414.00,0.0117
1413.00,0.0115
1412.00,0.0113
1411.00,0.0112
1410.00,0.0111
1409.00,0.0110
1408.00,0.0109
1407.00,0.0109
1406.00,0.0110
1405.00,0.0110
1404.00,0.0110
1403.00,0.0111
1402.00,0.0113
1401.00,0.0114
1400.00,0.0116
1399.00,0.0118
1398.00,0.0120
1397.00,0.0122
1396.00,0.0123
1395.00,0.0127
1394.00,0.0133
1393.00,0.0138
1392.00,0.0144
1391.00,0.0152
1390.00,0.0164
1389.00,0.0181
1388.00,0.0207
1387.00,0.0246
1386.00,0.0297
1385.00,0.0361
1384.00,0.0444
1383.00,0.0556
1382.00,0.0705
1381.00,0.0896
1380.00,0.1136
1379.00,0.1418
1378.00,0.1703
1377.00,0.1929
1376.00,0.2030
1375.00,0.1958
1374.00,0.1730
1373.00,0.1436
1372.00,0.1157
1371.00,0.0923
1370.00,0.0735
1369.00,0.0592
1368.00,0.0494
1367.00,0.0434
1366.00,0.0401
1365.00,0.0388
1364.00,0.0391
1363.00,0.0407
1362.00,0.0432
1361.00,0.0458
1360.00,0.0478
1359.00,0.0484
1358.00,0.0473
1357.00,0.0443
1356.00,0.0402
1355.00,0.0354
1354.00,0.0308
1353.00,0.0269
1352.00,0.0237
1351.00,0.0213
1350.00,0.0193
1349.00,0.0177
1348.00,0.0164
1347.00,0.0155
1346.00,0.0147
1345.00,0.0140
1344.00,0.0135
1343.00,0.0132
1342.00,0.0128
1341.00,0.0126
1340.00,0.0123
1339.00,0.0120
1338.00,0.0118
1337.00,0.0117
1336.00,0.0118
1335.00,0.0120
1334.00,0.0124
1333.00,0.0129
1332.00,0.0134
1331.00,0.0138
1330.00,0.0139
1329.00,0.0138
1328.00,0.0134
1327.00,0.0128
1326.00,0.0121
1325.00,0.0114
1324.00,0.0107
1323.00,0.0102
1322.00,0.0097
1321.00,0.0094
1320.00,0.0091
1319.00,0.0088
1318.00,0.0086
1317.00,0.0083
1316.00,0.0082
1315.00,0.0081
1314.00,0.0080
1313.00,0.0081
1312.00,0.0082
1311.00,0.0084
1310.00,0.0088
1309.00,0.0094
1308.00,0.0103
1307.00,0.0114
1306.00,0.0125
1305.00,0.0132
1304.00,0.0135
1303.00,0.0132
1302.00,0.0128
1301.00,0.0123
1300.00,0.0120
1299.00,0.0119
1298.00,0.0120
1297.00,0.0120
1296.00,0.0119
1295.00,0.0116
1294.00,0.0112
1293.00,0.0105
1292.00,0.0099
1291.00,0.0092
1290.00,0.0086
1289.00,0.0082
1288.00,0.0078
1287.00,0.0075
1286.00,0.0073
1285.00,0.0071
1284.00,0.0070
1283.00,0.0069
1282.00,0.0067
1281.00,0.0066
1280.00,0.0064
1279.00,0.0063
1278.00,0.0062
1277.00,0.0061
1276.00,0.0061
1275.00,0.0061
1274.00,0.0061
1273.00,0.0061
1272.00,0.0061
1271.00,0.0061
1270.00,0.0061
1269.00,0.0062
1268.00,0.0063
1267.00,0.0066
1266.00,0.0068
1265.00,0.0071
1264.00,0.0074
1263.00,0.0077
1262.00,0.0081
1261.00,0.0086
1260.00,0.0093
1259.00,0.0100
1258.00,0.0107
1257.00,0.0113
1256.00,0.0116
1255.00,0.0115
1254.00,0.0110
1253.00,0.0103
1252.00,0.0095
1251.00,0.0089
1250.00,0.0085
1249.00,0.0082
1248.00,0.0080
1247.00,0.0079
1246.00,0.0078
1245.00,0.0078
1244.00,0.0077
1243.00,0.0076
1242.00,0.0076
1241.00,0.0075
1240.00,0.0074
1239.00,0.0073
1238.00,0.0072
1237.00,0.0072
1236.00,0.0072
1235.00,0.0072
1234.00,0.0072
1233.00,0.0072
1232.00,0.0072
1231.00,0.0072
1230.00,0.0072
1229.00,0.0073
1228.00,0.0074
1227.00,0.0075
1226.00,0.0077
1225.00,0.0080
1224.00,0.0083
1223.00,0.0087
1222.00,0.0091
1221.00,0.0094
1220.00,0.0097
1219.00,0.0098
1218.00,0.0098
1217.00,0.0096
1216.00,0.0093
1215.00,0.0090
1214.00,0.0087
1213.00,0.0083
1212.00,0.0080
1211.00,0.0077
1210.00,0.0074
1209.00,0.0072
1208.00,0.0070
1207.00,0.0069
1206.00,0.0069
1205.00,0.0068
1204.00,0.0068
1203.00,0.0067
1202.00,0.0067
1201.00,0.0067
1200.00,0.0067
1199.00,0.0066
1198.00,0.0066
1197.00,0.0066
1196.00,0.0066
1195.00,0.0066
1194.00,0.0066
1193.00,0.0066
1192.00,0.0066
1191.00,0.0066
1190.00,0.0066
1189.00,0.0066
1188.00,0.0066
1187.00,0.0067
1186.00,0.0067
1185.00,0.0069
1184.00,0.0071
1183.00,0.0073
1182.00,0.0074
1181.00,0.0076
1180.00,0.0079
1179.00,0.0084
1178.00,0.0089
1177.00,0.0097
1176.00,0.0109
1175.00,0.0124
1174.00,0.0143
1173.00,0.0167
1172.00,0.0197
1171.00,0.0229
1170.00,0.0261
1169.00,0.0288
1168.00,0.0305
1167.00,0.0310
1166.00,0.0303
1165.00,0.0290
1164.00,0.0273
1163.00,0.0255
1162.00,0.0240
1161.00,0.0227
1160.00,0.0217
1159.00,0.0208
1158.00,0.0202
1157.00,0.0197
1156.00,0.0194
1155.00,0.0192
1154.00,0.0191
1153.00,0.0188
1152.00,0.0183
1151.00,0.0176
1150.00,0.0167
1149.00,0.0158
1148.00,0.0149
1147.00,0.0141
1146.00,0.0132
1145.00,0.0124
1144.00,0.0116
1143.00,0.0109
1142.00,0.0103
1141.00,0.0098
1140.00,0.0093
1139.00,0.0088
1138.00,0.0085
1137.00,0.0082
1136.00,0.0080
1135.00,0.0078
1134.00,0.0076
1133.00,0.0074
1132.00,0.0072
1131.00,0.0072
1130.00,0.0072
1129.00,0.0072
1128.00,0.0073
1127.00,0.0074
1126.00,0.0074
1125.00,0.0075
1124.00,0.0075
1123.00,0.0075
1122.00,0.0075
1121.00,0.0075
1120.00,0.0076
1119.00,0.0077
1118.00,0.0079
1117.00,0.0081
1116.00,0.0082
1115.00,0.0084
1114.00,0.0087
1113.00,0.0089
1112.00,0.0091
1111.00,0.0093
1110.00,0.0096
1109.00,0.0101
1108.00,0.0107
1107.00,0.0114
1106.00,0.0123
1105.00,0.0131
1104.00,0.0138
1103.00,0.0142
1102.00,0.0143
1101.00,0.0139
1100.00,0.0134
1099.00,0.0127
1098.00,0.0119
1097.00,0.0113
1096.00,0.0107
1095.00,0.0102
1094.00,0.0098
1093.00,0.0095
1092.00,0.0092
1091.00,0.0089
1090.00,0.0087
1089.00,0.0085
1088.00,0.0084
1087.00,0.0083
1086.00,0.0083
1085.00,0.0081
1084.00,0.0080
1083.00,0.0079
1082.00,0.0078
1081.00,0.0077
1080.00,0.0076
1079.00,0.0075
1078.00,0.0073
1077.00,0.0071
1076.00,0.0069
1075.00,0.0067
1074.00,0.0066
1073.00,0.0066
1072.00,0.0067
1071.00,0.0067
1070.00,0.0067
1069.00,0.0067
1068.00,0.0068
1067.00,0.0068
1066.00,0.0069
1065.00,0.0071
1064.00,0.0072
1063.00,0.0072
1062.00,0.0073
1061.00,0.0074
1060.00,0.0075
1059.00,0.0076
1058.00,0.0076
1057.00,0.0076
1056.00,0.0076
1055.00,0.0076
1054.00,0.0077
1053.00,0.0078
1052.00,0.0079
1051.00,0.0081
1050.00,0.0083
1049.00,0.0084
1048.00,0.0085
1047.00,0.0088
1046.00,0.0091
1045.00,0.0093
1044.00,0.0094
1043.00,0.0093
1042.00,0.0091
1041.00,0.0089
1040.00,0.0087
1039.00,0.0087
1038.00,0.0087
1037.00,0.0088
1036.00,0.0089
1035.00,0.0089
1034.00,0.0089
1033.00,0.0088
1032.00,0.0087
1031.00,0.0086
1030.00,0.0086
1029.00,0.0087
1028.00,0.0087
1027.00,0.0086
1026.00,0.0086
1025.00,0.0085
1024.00,0.0084
1023.00,0.0084
1022.00,0.0085
1021.00,0.0086
1020.00,0.0087
1019.00,0.0089
1018.00,0.0090
1017.00,0.0091
1016.00,0.0093
1015.00,0.0095
1014.00,0.0098
1013.00,0.0101
1012.00,0.0104
1011.00,0.0108
1010.00,0.0112
1009.00,0.0116
1008.00,0.0120
1007.00,0.0126
1006.00,0.0134
1005.00,0.0146
1004.00,0.0162
1003.00,0.0184
1002.00,0.0212
1001.00,0.0246
1000.00,0.0282
999.00,0.0312
998.00,0.0327
997.00,0.0321
996.00,0.0295
995.00,0.0258
994.00,0.0219
993.00,0.0184
992.00,0.0157
991.00,0.0138
990.00,0.0125
989.00,0.0117
988.00,0.0111
987.00,0.0108
986.00,0.0107
985.00,0.0108
984.00,0.0112
983.00,0.0120
982.00,0.0131
981.00,0.0146
980.00,0.0168
979.00,0.0196
978.00,0.0231
977.00,0.0272
976.00,0.0317
975.00,0.0359
974.00,0.0391
973.00,0.0404
972.00,0.0392
971.00,0.0357
970.00,0.0308
969.00,0.0257
968.00,0.0213
967.00,0.0179
966.00,0.0154
965.00,0.0136
964.00,0.0123
963.00,0.0113
962.00,0.0104
961.00,0.0097
960.00,0.0092
959.00,0.0087
958.00,0.0084
957.00,0.0082
956.00,0.0080
955.00,0.0078
954.00,0.0077
953.00,0.0075
952.00,0.0074
951.00,0.0073
950.00,0.0073
949.00,0.0073
948.00,0.0075
947.00,0.0077
946.00,0.0080
945.00,0.0083
944.00,0.0086
943.00,0.0090
942.00,0.0093
941.00,0.0095
940.00,0.0095
939.00,0.0092
938.00,0.0087
937.00,0.0081
936.00,0.0076
935.00,0.0073
934.00,0.0070
933.00,0.0068
932.00,0.0065
931.00,0.0063
930.00,0.0061
929.00,0.0060
928.00,0.0060
927.00,0.0059
926.00,0.0059
925.00,0.0058
924.00,0.0058
923.00,0.0059
922.00,0.0061
921.00,0.0062
920.00,0.0064
919.00,0.0066
918.00,0.0068
917.00,0.0069
916.00,0.0070
915.00,0.0070
914.00,0.0070
913.00,0.0070
912.00,0.0071
911.00,0.0073
910.00,0.0074
909.00,0.0076
908.00,0.0078
907.00,0.0082
906.00,0.0089
905.00,0.0100
904.00,0.0116
903.00,0.0135
902.00,0.0157
901.00,0.0178
900.00,0.0191
899.00,0.0195
898.00,0.0187
897.00,0.0170
896.00,0.0150
895.00,0.0130
894.00,0.0114
893.00,0.0102
892.00,0.0093
891.00,0.0087
890.00,0.0082
889.00,0.0079
888.00,0.0076
887.00,0.0074
886.00,0.0072
885.00,0.0070
884.00,0.0069
883.00,0.0070
882.00,0.0071
881.00,0.0071
880.00,0.0071
879.00,0.0071
878.00,0.0072
877.00,0.0072
876.00,0.0072
875.00,0.0072
874.00,0.0072
873.00,0.0072
872.00,0.0072
871.00,0.0072
870.00,0.0072
869.00,0.0072
868.00,0.0072
867.00,0.0072
866.00,0.0073
865.00,0.0074
864.00,0.0074
863.00,0.0075
862.00,0.0076
861.00,0.0077
860.00,0.0079
859.00,0.0081
858.00,0.0083
857.00,0.0085
856.00,0.0087
855.00,0.0088
854.00,0.0090
853.00,0.0092
852.00,0.0094
851.00,0.0098
850.00,0.0103
849.00,0.0109
848.00,0.0118
847.00,0.0132
846.00,0.0153
845.00,0.0185
844.00,0.0228
843.00,0.0276
842.00,0.0312
841.00,0.0322
840.00,0.0302
839.00,0.0260
838.00,0.0216
837.00,0.0179
836.00,0.0154
835.00,0.0139
834.00,0.0129
833.00,0.0122
832.00,0.0116
831.00,0.0112
830.00,0.0110
829.00,0.0108
828.00,0.0107
827.00,0.0108
826.00,0.0109
825.00,0.0109
824.00,0.0109
823.00,0.0108
822.00,0.0107
821.00,0.0106
820.00,0.0107
819.00,0.0110
818.00,0.0115
817.00,0.0122
816.00,0.0131
815.00,0.0143
814.00,0.0157
813.00,0.0175
812.00,0.0193
811.00,0.0210
810.00,0.0223
809.00,0.0229
808.00,0.0227
807.00,0.0216
806.00,0.0199
805.00,0.0181
804.00,0.0163
803.00,0.0148
802.00,0.0135
801.00,0.0125
800.00,0.0117
799.00,0.0109
798.00,0.0104
797.00,0.0099
796.00,0.0096
795.00,0.0092
794.00,0.0089
793.00,0.0087
792.00,0.0085
791.00,0.0083
790.00,0.0081
789.00,0.0080
788.00,0.0077
787.00,0.0073
786.00,0.0069
785.00,0.0067
784.00,0.0065
783.00,0.0064
782.00,0.0063
781.00,0.0062
780.00,0.0062
779.00,0.0061
778.00,0.0061
777.00,0.0061
776.00,0.0061
775.00,0.0063
774.00,0.0065
773.00,0.0067
772.00,0.0068
771.00,0.0069
770.00,0.0070
769.00,0.0072
768.00,0.0074
767.00,0.0074
766.00,0.0074
765.00,0.0073
764.00,0.0072
763.00,0.0071
762.00,0.0069
761.00,0.0067
760.00,0.0063
759.00,0.0059
758.00,0.0057
757.00,0.0056
756.00,0.0055
755.00,0.0055
754.00,0.0054
753.00,0.0052
752.00,0.0051
751.00,0.0051
750.00,0.0051
749.00,0.0050
748.00,0.0050
747.00,0.0050
746.00,0.0052
745.00,0.0052
744.00,0.0053
743.00,0.0053
742.00,0.0054
741.00,0.0054
740.00,0.0055
739.00,0.0057
738.00,0.0060
737.00,0.0062
736.00,0.0062
735.00,0.0063
734.00,0.0063
733.00,0.0065
732.00,0.0065
731.00,0.0066
730.00,0.0067
729.00,0.0067
728.00,0.0067
727.00,0.0066
726.00,0.0065
725.00,0.0065
724.00,0.0065
723.00,0.0064
722.00,0.0064
721.00,0.0063
720.00,0.0062
719.00,0.0061
718.00,0.0060
717.00,0.0060
716.00,0.0058
715.00,0.0056
714.00,0.0054
713.00,0.0052
712.00,0.0051
711.00,0.0051
710.00,0.0053
709.00,0.0055
708.00,0.0058
707.00,0.0059
706.00,0.0059
705.00,0.0058
704.00,0.0056
703.00,0.0056
702.00,0.0055
701.00,0.0055
700.00,0.0055
699.00,0.0054
698.00,0.0053
697.00,0.0051
696.00,0.0050
695.00,0.0049
694.00,0.0051
693.00,0.0053
692.00,0.0054
691.00,0.0053
690.00,0.0051
689.00,0.0047
688.00,0.0045
687.00,0.0045
686.00,0.0047
685.00,0.0048
684.00,0.0049
683.00,0.0050
682.00,0.0050
681.00,0.0049
680.00,0.0049
679.00,0.0048
678.00,0.0048
677.00,0.0049
676.00,0.0050
675.00,0.0052
674.00,0.0055
673.00,0.0057
672.00,0.0058
671.00,0.0058
670.00,0.0058
669.00,0.0057
668.00,0.0055
667.00,0.0052
666.00,0.0051
665.00,0.0051
664.00,0.0054
663.00,0.0057
662.00,0.0058
661.00,0.0058
660.00,0.0055
659.00,0.0052
658.00,0.0052
657.00,0.0053
656.00,0.0054
655.00,0.0053
654.00,0.0053
653.00,0.0053
652.00,0.0054
651.00,0.0054
650.00,0.0053
649.00,0.0052
648.00,0.0052
647.00,0.0052
646.00,0.0053
645.00,0.0054
644.00,0.0054
643.00,0.0053
642.00,0.0052
641.00,0.0051
640.00,0.0052
639.00,0.0053
638.00,0.0053
637.00,0.0053
636.00,0.0053
635.00,0.0053
634.00,0.0054
633.00,0.0055
632.00,0.0056
631.00,0.0058
630.00,0.0059
629.00,0.0061
628.00,0.0061
627.00,0.0060
626.00,0.0058
625.00,0.0056
624.00,0.0055
623.00,0.0052
622.00,0.0050
621.00,0.0049
620.00,0.0051
619.00,0.0054
618.00,0.0057
617.00,0.0057
616.00,0.0057
615.00,0.0057
614.00,0.0058
613.00,0.0058
612.00,0.0059
611.00,0.0061
610.00,0.0062
609.00,0.0061
608.00,0.0059
607.00,0.0056
606.00,0.0054
605.00,0.0053
604.00,0.0053
603.00,0.0052
602.00,0.0052
601.00,0.0053
600.00,0.0054
599.00,0.0055
598.00,0.0056
597.00,0.0057
596.00,0.0058
595.00,0.0058
594.00,0.0058
593.00,0.0058
592.00,0.0056
591.00,0.0055
590.00,0.0054
589.00,0.0054
588.00,0.0055
587.00,0.0055
586.00,0.0054
585.00,0.0055
584.00,0.0057
583.00,0.0059
582.00,0.0060
581.00,0.0060
580.00,0.0060
579.00,0.0061
578.00,0.0062
577.00,0.0062
576.00,0.0059
575.00,0.0058
574.00,0.0057
573.00,0.0057
572.00,0.0058
571.00,0.0059
570.00,0.0060
569.00,0.0061
568.00,0.0061
567.00,0.0061
566.00,0.0061
565.00,0.0061
564.00,0.0061
563.00,0.0060
562.00,0.0058
561.00,0.0057
560.00,0.0057
559.00,0.0057
558.00,0.0057
557.00,0.0058
556.00,0.0059
555.00,0.0061
554.00,0.0061
553.00,0.0060
552.00,0.0060
551.00,0.0060
550.00,0.0061
549.00,0.0064
548.00,0.0066
547.00,0.0067
546.00,0.0068
545.00,0.0068
544.00,0.0068
543.00,0.0069
542.00,0.0070
541.00,0.0071
540.00,0.0074
539.00,0.0076
538.00,0.0077
537.00,0.0076
536.00,0.0074
535.00,0.0072
534.00,0.0073
533.00,0.0076
532.00,0.0079
531.00,0.0081
530.00,0.0081
529.00,0.0080
528.00,0.0079
527.00,0.0080
526.00,0.0083
525.00,0.0084
524.00,0.0083
523.00,0.0079
522.00,0.0074
521.00,0.0070
520.00,0.0068
519.00,0.0066
518.00,0.0063
517.00,0.0057
516.00,0.0053
515.00,0.0054
514.00,0.0059
513.00,0.0063
512.00,0.0064
511.00,0.0063
510.00,0.0063
509.00,0.0064
508.00,0.0065
507.00,0.0065
506.00,0.0065
505.00,0.0066
504.00,0.0068
503.00,0.0069
502.00,0.0066
501.00,0.0061
500.00,0.0057
499.00,0.0059
498.00,0.0067
497.00,0.0074
496.00,0.0075
495.00,0.0071
494.00,0.0065
493.00,0.0063
492.00,0.0064
491.00,0.0064
490.00,0.0060
489.00,0.0053
488.00,0.0046
487.00,0.0043
486.00,0.0045
485.00,0.0048
484.00,0.0049
483.00,0.0046
482.00,0.0043
481.00,0.0043
480.00,0.0047
479.00,0.0055
478.00,0.0063
477.00,0.0073
476.00,0.0081
475.00,0.0082
474.00,0.0076
473.00,0.0068
472.00,0.0066
471.00,0.0072
470.00,0.0080
469.00,0.0085
468.00,0.0088
467.00,0.0092
466.00,0.0103
465.00,0.0118
464.00,0.0136
463.00,0.0152
462.00,0.0161
461.00,0.0163
460.00,0.0162
459.00,0.0160
458.00,0.0157
457.00,0.0148
456.00,0.0134
455.00,0.0118
454.00,0.0100
453.00,0.0082
452.00,0.0068
451.00,0.0060
450.00,0.0054
