Created as New Dataset,Sample 109 By Administrator Date Tuesday, September 09 2025
cm-1,A
4000.00,0.0006
3999.00,0.0006
3998.00,0.0006
3997.00,0.0006
3996.00,0.0006
3995.00,0.0006
3994.00,0.0006
3993.00,0.0006
3992.00,0.0006
3991.00,0.0006
3990.00,0.0006
3989.00,0.0006
3988.00,0.0005
3987.00,0.0005
3986.00,0.0006
3985.00,0.0005
3984.00,0.0005
3983.00,0.0005
3982.00,0.0005
3981.00,0.0005
3980.00,0.0005
3979.00,0.0005
3978.00,0.0005
3977.00,0.0005
3976.00,0.0005
3975.00,0.0005
3974.00,0.0005
3973.00,0.0005
3972.00,0.0005
3971.00,0.0005
3970.00,0.0005
3969.00,0.0005
3968.00,0.0005
3967.00,0.0005
3966.00,0.0005
3965.00,0.0005
3964.00,0.0005
3963.00,0.0004
3962.00,0.0005
3961.00,0.0005
3960.00,0.0005
3959.00,0.0005
3958.00,0.0005
3957.00,0.0005
3956.00,0.0005
3955.00,0.0004
3954.00,0.0004
3953.00,0.0004
3952.00,0.0004
3951.00,0.0004
3950.00,0.0004
3949.00,0.0005
3948.00,0.0005
3947.00,0.0005
3946.00,0.0005
3945.00,0.0005
3944.00,0.0005
3943.00,0.0006
3942.00,0.0006
3941.00,0.0006
3940.00,0.0005
3939.00,0.0005
3938.00,0.0006
3937.00,0.0006
3936.00,0.0006
3935.00,0.0006
3934.00,0.0007
3933.00,0.0006
3932.00,0.0006
3931.00,0.0006
3930.00,0.0006
3929.00,0.0006
3928.00,0.0006
3927.00,0.0005
3926.00,0.0005
3925.00,0.0005
3924.00,0.0005
3923.00,0.0006
3922.00,0.0006
3921.00,0.0006
3920.00,0.0006
3919.00,0.0006
3918.00,0.0005
3917.00,0.0005
3916.00,0.0005
3915.00,0.0005
3914.00,0.0005
3913.00,0.0004
3912.00,0.0004
3911.00,0.0004
3910.00,0.0005
3909.00,0.0005
3908.00,0.0005
3907.00,0.0005
3906.00,0.0005
3905.00,0.0005
3904.00,0.0005
3903.00,0.0006
3902.00,0.0006
3901.00,0.0007
3900.00,0.0007
3899.00,0.0007
3898.00,0.0006
3897.00,0.0006
3896.00,0.0005
3895.00,0.0005
3894.00,0.0005
3893.00,0.0004
3892.00,0.0004
3891.00,0.0005
3890.00,0.0005
3889.00,0.0005
3888.00,0.0005
3887.00,0.0004
3886.00,0.0004
3885.00,0.0004
3884.00,0.0004
3883.00,0.0004
3882.00,0.0004
3881.00,0.0004
3880.00,0.0004
3879.00,0.0005
3878.00,0.0005
3877.00,0.0005
3876.00,0.0005
3875.00,0.0005
3874.00,0.0005
3873.00,0.0005
3872.00,0.0005
3871.00,0.0005
3870.00,0.0005
3869.00,0.0005
3868.00,0.0005
3867.00,0.0005
3866.00,0.0005
3865.00,0.0004
3864.00,0.0005
3863.00,0.0005
3862.00,0.0005
3861.00,0.0005
3860.00,0.0005
3859.00,0.0005
3858.00,0.0005
3857.00,0.0005
3856.00,0.0005
3855.00,0.0005
3854.00,0.0004
3853.00,0.0005
3852.00,0.0005
3851.00,0.0005
3850.00,0.0005
3849.00,0.0004
3848.00,0.0004
3847.00,0.0004
3846.00,0.0004
3845.00,0.0004
3844.00,0.0004
3843.00,0.0005
3842.00,0.0005
3841.00,0.0005
3840.00,0.0005
3839.00,0.0004
3838.00,0.0004
3837.00,0.0004
3836.00,0.0004
3835.00,0.0004
3834.00,0.0004
3833.00,0.0004
3832.00,0.0005
3831.00,0.0005
3830.00,0.0005
3829.00,0.0004
3828.00,0.0004
3827.00,0.0004
3826.00,0.0004
3825.00,0.0005
3824.00,0.0005
3823.00,0.0004
3822.00,0.0005
3821.00,0.0005
3820.00,0.0005
3819.00,0.0006
3818.00,0.0005
3817.00,0.0005
3816.00,0.0005
3815.00,0.0005
3814.00,0.0005
3813.00,0.0005
3812.00,0.0005
3811.00,0.0005
3810.00,0.0005
3809.00,0.0005
3808.00,0.0005
3807.00,0.0005
3806.00,0.0005
3805.00,0.0005
3804.00,0.0004
3803.00,0.0004
3802.00,0.0004
3801.00,0.0004
3800.00,0.0004
3799.00,0.0004
3798.00,0.0003
3797.00,0.0003
3796.00,0.0003
3795.00,0.0004
3794.00,0.0004
3793.00,0.0004
3792.00,0.0004
3791.00,0.0004
3790.00,0.0005
3789.00,0.0005
3788.00,0.0005
3787.00,0.0004
3786.00,0.0004
3785.00,0.0004
3784.00,0.0004
3783.00,0.0004
3782.00,0.0004
3781.00,0.0004
3780.00,0.0004
3779.00,0.0004
3778.00,0.0004
3777.00,0.0005
3776.00,0.0005
3775.00,0.0005
3774.00,0.0005
3773.00,0.0005
3772.00,0.0005
3771.00,0.0005
3770.00,0.0005
3769.00,0.0005
3768.00,0.0005
3767.00,0.0005
3766.00,0.0005
3765.00,0.0005
3764.00,0.0005
3763.00,0.0006
3762.00,0.0006
3761.00,0.0006
3760.00,0.0006
3759.00,0.0006
3758.00,0.0005
3757.00,0.0005
3756.00,0.0005
3755.00,0.0005
3754.00,0.0005
3753.00,0.0005
3752.00,0.0005
3751.00,0.0004
3750.00,0.0004
3749.00,0.0004
3748.00,0.0004
3747.00,0.0004
3746.00,0.0003
3745.00,0.0004
3744.00,0.0004
3743.00,0.0005
3742.00,0.0004
3741.00,0.0004
3740.00,0.0004
3739.00,0.0004
3738.00,0.0004
3737.00,0.0004
3736.00,0.0004
3735.00,0.0004
3734.00,0.0004
3733.00,0.0004
3732.00,0.0004
3731.00,0.0004
3730.00,0.0004
3729.00,0.0004
3728.00,0.0004
3727.00,0.0004
3726.00,0.0004
3725.00,0.0003
3724.00,0.0003
3723.00,0.0003
3722.00,0.0003
3721.00,0.0003
3720.00,0.0003
3719.00,0.0003
3718.00,0.0004
3717.00,0.0004
3716.00,0.0004
3715.00,0.0004
3714.00,0.0004
3713.00,0.0004
3712.00,0.0003
3711.00,0.0003
3710.00,0.0003
3709.00,0.0003
3708.00,0.0003
3707.00,0.0003
3706.00,0.0003
3705.00,0.0003
3704.00,0.0002
3703.00,0.0002
3702.00,0.0002
3701.00,0.0002
3700.00,0.0002
3699.00,0.0002
3698.00,0.0002
3697.00,0.0002
3696.00,0.0002
3695.00,0.0002
3694.00,0.0002
3693.00,0.0002
3692.00,0.0002
3691.00,0.0002
3690.00,0.0002
3689.00,0.0002
3688.00,0.0002
3687.00,0.0002
3686.00,0.0002
3685.00,0.0002
3684.00,0.0002
3683.00,0.0002
3682.00,0.0003
3681.00,0.0003
3680.00,0.0004
3679.00,0.0004
3678.00,0.0005
3677.00,0.0005
3676.00,0.0004
3675.00,0.0004
3674.00,0.0004
3673.00,0.0004
3672.00,0.0004
3671.00,0.0004
3670.00,0.0004
3669.00,0.0004
3668.00,0.0004
3667.00,0.0004
3666.00,0.0004
3665.00,0.0004
3664.00,0.0004
3663.00,0.0004
3662.00,0.0004
3661.00,0.0003
3660.00,0.0003
3659.00,0.0003
3658.00,0.0003
3657.00,0.0003
3656.00,0.0003
3655.00,0.0003
3654.00,0.0003
3653.00,0.0002
3652.00,0.0002
3651.00,0.0003
3650.00,0.0003
3649.00,0.0003
3648.00,0.0002
3647.00,0.0002
3646.00,0.0003
3645.00,0.0003
3644.00,0.0003
3643.00,0.0003
3642.00,0.0003
3641.00,0.0002
3640.00,0.0002
3639.00,0.0003
3638.00,0.0003
3637.00,0.0003
3636.00,0.0003
3635.00,0.0003
3634.00,0.0002
3633.00,0.0002
3632.00,0.0002
3631.00,0.0002
3630.00,0.0002
3629.00,0.0003
3628.00,0.0003
3627.00,0.0003
3626.00,0.0003
3625.00,0.0002
3624.00,0.0002
3623.00,0.0003
3622.00,0.0003
3621.00,0.0004
3620.00,0.0004
3619.00,0.0004
3618.00,0.0004
3617.00,0.0003
3616.00,0.0003
3615.00,0.0003
3614.00,0.0004
3613.00,0.0004
3612.00,0.0005
3611.00,0.0006
3610.00,0.0006
3609.00,0.0006
3608.00,0.0006
3607.00,0.0006
3606.00,0.0006
3605.00,0.0005
3604.00,0.0005
3603.00,0.0005
3602.00,0.0004
3601.00,0.0004
3600.00,0.0005
3599.00,0.0005
3598.00,0.0005
3597.00,0.0005
3596.00,0.0005
3595.00,0.0005
3594.00,0.0005
3593.00,0.0005
3592.00,0.0005
3591.00,0.0006
3590.00,0.0006
3589.00,0.0007
3588.00,0.0007
3587.00,0.0007
3586.00,0.0007
3585.00,0.0007
3584.00,0.0007
3583.00,0.0007
3582.00,0.0007
3581.00,0.0007
3580.00,0.0007
3579.00,0.0007
3578.00,0.0007
3577.00,0.0007
3576.00,0.0007
3575.00,0.0007
3574.00,0.0008
3573.00,0.0008
3572.00,0.0008
3571.00,0.0009
3570.00,0.0009
3569.00,0.0010
3568.00,0.0010
3567.00,0.0010
3566.00,0.0010
3565.00,0.0009
3564.00,0.0009
3563.00,0.0009
3562.00,0.0009
3561.00,0.0010
3560.00,0.0010
3559.00,0.0010
3558.00,0.0011
3557.00,0.0011
3556.00,0.0011
3555.00,0.0011
3554.00,0.0011
3553.00,0.0011
3552.00,0.0012
3551.00,0.0013
3550.00,0.0013
3549.00,0.0013
3548.00,0.0013
3547.00,0.0013
3546.00,0.0013
3545.00,0.0013
3544.00,0.0013
3543.00,0.0013
3542.00,0.0013
3541.00,0.0013
3540.00,0.0014
3539.00,0.0014
3538.00,0.0014
3537.00,0.0014
3536.00,0.0014
3535.00,0.0014
3534.00,0.0015
3533.00,0.0015
3532.00,0.0015
3531.00,0.0015
3530.00,0.0015
3529.00,0.0015
3528.00,0.0015
3527.00,0.0015
3526.00,0.0015
3525.00,0.0016
3524.00,0.0016
3523.00,0.0016
3522.00,0.0015
3521.00,0.0015
3520.00,0.0015
3519.00,0.0015
3518.00,0.0015
3517.00,0.0015
3516.00,0.0015
3515.00,0.0016
3514.00,0.0016
3513.00,0.0017
3512.00,0.0017
3511.00,0.0017
3510.00,0.0018
3509.00,0.0018
3508.00,0.0018
3507.00,0.0018
3506.00,0.0018
3505.00,0.0018
3504.00,0.0018
3503.00,0.0019
3502.00,0.0019
3501.00,0.0019
3500.00,0.0020
3499.00,0.0020
3498.00,0.0019
3497.00,0.0019
3496.00,0.0019
3495.00,0.0020
3494.00,0.0021
3493.00,0.0021
3492.00,0.0021
3491.00,0.0021
3490.00,0.0021
3489.00,0.0020
3488.00,0.0020
3487.00,0.0020
3486.00,0.0021
3485.00,0.0021
3484.00,0.0022
3483.00,0.0022
3482.00,0.0022
3481.00,0.0022
3480.00,0.0022
3479.00,0.0022
3478.00,0.0023
3477.00,0.0023
3476.00,0.0023
3475.00,0.0023
3474.00,0.0022
3473.00,0.0022
3472.00,0.0022
3471.00,0.0023
3470.00,0.0023
3469.00,0.0024
3468.00,0.0024
3467.00,0.0025
3466.00,0.0025
3465.00,0.0025
3464.00,0.0025
3463.00,0.0025
3462.00,0.0025
3461.00,0.0025
3460.00,0.0026
3459.00,0.0026
3458.00,0.0027
3457.00,0.0026
3456.00,0.0026
3455.00,0.0026
3454.00,0.0026
3453.00,0.0026
3452.00,0.0027
3451.00,0.0027
3450.00,0.0027
3449.00,0.0026
3448.00,0.0026
3447.00,0.0026
3446.00,0.0026
3445.00,0.0027
3444.00,0.0028
3443.00,0.0028
3442.00,0.0029
3441.00,0.0029
3440.00,0.0029
3439.00,0.0029
3438.00,0.0029
3437.00,0.0029
3436.00,0.0029
3435.00,0.0029
3434.00,0.0029
3433.00,0.0029
3432.00,0.0029
3431.00,0.0030
3430.00,0.0030
3429.00,0.0031
3428.00,0.0031
3427.00,0.0030
3426.00,0.0030
3425.00,0.0030
3424.00,0.0030
3423.00,0.0030
3422.00,0.0030
3421.00,0.0031
3420.00,0.0031
3419.00,0.0032
3418.00,0.0032
3417.00,0.0032
3416.00,0.0032
3415.00,0.0032
3414.00,0.0032
3413.00,0.0032
3412.00,0.0032
3411.00,0.0032
3410.00,0.0032
3409.00,0.0033
3408.00,0.0033
3407.00,0.0033
3406.00,0.0033
3405.00,0.0033
3404.00,0.0033
3403.00,0.0033
3402.00,0.0033
3401.00,0.0033
3400.00,0.0033
3399.00,0.0033
3398.00,0.0033
3397.00,0.0033
3396.00,0.0034
3395.00,0.0034
3394.00,0.0034
3393.00,0.0034
3392.00,0.0034
3391.00,0.0034
3390.00,0.0034
3389.00,0.0034
3388.00,0.0034
3387.00,0.0034
3386.00,0.0034
3385.00,0.0034
3384.00,0.0034
3383.00,0.0034
3382.00,0.0035
3381.00,0.0035
3380.00,0.0035
3379.00,0.0036
3378.00,0.0036
3377.00,0.0036
3376.00,0.0035
3375.00,0.0035
3374.00,0.0035
3373.00,0.0035
3372.00,0.0035
3371.00,0.0036
3370.00,0.0036
3369.00,0.0036
3368.00,0.0036
3367.00,0.0036
3366.00,0.0036
3365.00,0.0036
3364.00,0.0036
3363.00,0.0036
3362.00,0.0036
3361.00,0.0036
3360.00,0.0036
3359.00,0.0036
3358.00,0.0036
3357.00,0.0036
3356.00,0.0036
3355.00,0.0037
3354.00,0.0037
3353.00,0.0037
3352.00,0.0036
3351.00,0.0036
3350.00,0.0036
3349.00,0.0037
3348.00,0.0037
3347.00,0.0037
3346.00,0.0038
3345.00,0.0038
3344.00,0.0038
3343.00,0.0037
3342.00,0.0037
3341.00,0.0037
3340.00,0.0037
3339.00,0.0037
3338.00,0.0036
3337.00,0.0036
3336.00,0.0036
3335.00,0.0036
3334.00,0.0036
3333.00,0.0037
3332.00,0.0037
3331.00,0.0036
3330.00,0.0036
3329.00,0.0036
3328.00,0.0035
3327.00,0.0035
3326.00,0.0036
3325.00,0.0035
3324.00,0.0035
3323.00,0.0035
3322.00,0.0035
3321.00,0.0035
3320.00,0.0035
3319.00,0.0035
3318.00,0.0035
3317.00,0.0035
3316.00,0.0036
3315.00,0.0036
3314.00,0.0036
3313.00,0.0036
3312.00,0.0036
3311.00,0.0036
3310.00,0.0037
3309.00,0.0037
3308.00,0.0036
3307.00,0.0036
3306.00,0.0036
3305.00,0.0036
3304.00,0.0036
3303.00,0.0037
3302.00,0.0036
3301.00,0.0036
3300.00,0.0036
3299.00,0.0036
3298.00,0.0036
3297.00,0.0036
3296.00,0.0036
3295.00,0.0036
3294.00,0.0036
3293.00,0.0036
3292.00,0.0036
3291.00,0.0036
3290.00,0.0036
3289.00,0.0036
3288.00,0.0036
3287.00,0.0036
3286.00,0.0036
3285.00,0.0036
3284.00,0.0035
3283.00,0.0035
3282.00,0.0035
3281.00,0.0035
3280.00,0.0035
3279.00,0.0035
3278.00,0.0034
3277.00,0.0034
3276.00,0.0034
3275.00,0.0034
3274.00,0.0034
3273.00,0.0034
3272.00,0.0034
3271.00,0.0034
3270.00,0.0034
3269.00,0.0034
3268.00,0.0034
3267.00,0.0033
3266.00,0.0033
3265.00,0.0033
3264.00,0.0032
3263.00,0.0032
3262.00,0.0032
3261.00,0.0032
3260.00,0.0032
3259.00,0.0032
3258.00,0.0031
3257.00,0.0031
3256.00,0.0031
3255.00,0.0031
3254.00,0.0031
3253.00,0.0031
3252.00,0.0031
3251.00,0.0031
3250.00,0.0031
3249.00,0.0031
3248.00,0.0031
3247.00,0.0031
3246.00,0.0031
3245.00,0.0031
3244.00,0.0031
3243.00,0.0031
3242.00,0.0031
3241.00,0.0030
3240.00,0.0030
3239.00,0.0030
3238.00,0.0030
3237.00,0.0030
3236.00,0.0030
3235.00,0.0031
3234.00,0.0031
3233.00,0.0031
3232.00,0.0031
3231.00,0.0031
3230.00,0.0031
3229.00,0.0031
3228.00,0.0031
3227.00,0.0031
3226.00,0.0032
3225.00,0.0032
3224.00,0.0032
3223.00,0.0032
3222.00,0.0033
3221.00,0.0033
3220.00,0.0033
3219.00,0.0033
3218.00,0.0033
3217.00,0.0033
3216.00,0.0033
3215.00,0.0033
3214.00,0.0033
3213.00,0.0034
3212.00,0.0034
3211.00,0.0034
3210.00,0.0034
3209.00,0.0034
3208.00,0.0034
3207.00,0.0034
3206.00,0.0034
3205.00,0.0035
3204.00,0.0035
3203.00,0.0035
3202.00,0.0035
3201.00,0.0035
3200.00,0.0035
3199.00,0.0035
3198.00,0.0035
3197.00,0.0035
3196.00,0.0036
3195.00,0.0036
3194.00,0.0035
3193.00,0.0035
3192.00,0.0035
3191.00,0.0035
3190.00,0.0035
3189.00,0.0034
3188.00,0.0034
3187.00,0.0034
3186.00,0.0034
3185.00,0.0034
3184.00,0.0034
3183.00,0.0034
3182.00,0.0034
3181.00,0.0034
3180.00,0.0034
3179.00,0.0034
3178.00,0.0033
3177.00,0.0033
3176.00,0.0033
3175.00,0.0033
3174.00,0.0032
3173.00,0.0032
3172.00,0.0031
3171.00,0.0031
3170.00,0.0031
3169.00,0.0031
3168.00,0.0031
3167.00,0.0031
3166.00,0.0031
3165.00,0.0031
3164.00,0.0031
3163.00,0.0030
3162.00,0.0030
3161.00,0.0030
3160.00,0.0030
3159.00,0.0030
3158.00,0.0030
3157.00,0.0030
3156.00,0.0030
3155.00,0.0030
3154.00,0.0030
3153.00,0.0030
3152.00,0.0030
3151.00,0.0030
3150.00,0.0030
3149.00,0.0030
3148.00,0.0030
3147.00,0.0030
3146.00,0.0030
3145.00,0.0030
3144.00,0.0030
3143.00,0.0030
3142.00,0.0030
3141.00,0.0030
3140.00,0.0029
3139.00,0.0029
3138.00,0.0029
3137.00,0.0029
3136.00,0.0029
3135.00,0.0029
3134.00,0.0029
3133.00,0.0028
3132.00,0.0028
3131.00,0.0028
3130.00,0.0028
3129.00,0.0028
3128.00,0.0028
3127.00,0.0028
3126.00,0.0027
3125.00,0.0027
3124.00,0.0027
3123.00,0.0027
3122.00,0.0026
3121.00,0.0026
3120.00,0.0025
3119.00,0.0025
3118.00,0.0024
3117.00,0.0024
3116.00,0.0024
3115.00,0.0024
3114.00,0.0025
3113.00,0.0025
3112.00,0.0025
3111.00,0.0024
3110.00,0.0024
3109.00,0.0024
3108.00,0.0024
3107.00,0.0024
3106.00,0.0024
3105.00,0.0024
3104.00,0.0024
3103.00,0.0023
3102.00,0.0023
3101.00,0.0023
3100.00,0.0022
3099.00,0.0022
3098.00,0.0022
3097.00,0.0022
3096.00,0.0022
3095.00,0.0022
3094.00,0.0022
3093.00,0.0023
3092.00,0.0023
3091.00,0.0023
3090.00,0.0023
3089.00,0.0022
3088.00,0.0022
3087.00,0.0022
3086.00,0.0022
3085.00,0.0022
3084.00,0.0022
3083.00,0.0022
3082.00,0.0022
3081.00,0.0022
3080.00,0.0022
3079.00,0.0022
3078.00,0.0022
3077.00,0.0022
3076.00,0.0022
3075.00,0.0022
3074.00,0.0022
3073.00,0.0022
3072.00,0.0022
3071.00,0.0022
3070.00,0.0022
3069.00,0.0023
3068.00,0.0023
3067.00,0.0023
3066.00,0.0024
3065.00,0.0024
3064.00,0.0025
3063.00,0.0025
3062.00,0.0025
3061.00,0.0025
3060.00,0.0025
3059.00,0.0025
3058.00,0.0025
3057.00,0.0026
3056.00,0.0026
3055.00,0.0025
3054.00,0.0025
3053.00,0.0025
3052.00,0.0026
3051.00,0.0026
3050.00,0.0027
3049.00,0.0027
3048.00,0.0027
3047.00,0.0027
3046.00,0.0027
3045.00,0.0027
3044.00,0.0027
3043.00,0.0027
3042.00,0.0028
3041.00,0.0028
3040.00,0.0028
3039.00,0.0029
3038.00,0.0029
3037.00,0.0029
3036.00,0.0030
3035.00,0.0030
3034.00,0.0031
3033.00,0.0031
3032.00,0.0031
3031.00,0.0032
3030.00,0.0032
3029.00,0.0033
3028.00,0.0033
3027.00,0.0034
3026.00,0.0034
3025.00,0.0035
3024.00,0.0035
3023.00,0.0036
3022.00,0.0037
3021.00,0.0038
3020.00,0.0038
3019.00,0.0039
3018.00,0.0039
3017.00,0.0040
3016.00,0.0040
3015.00,0.0041
3014.00,0.0043
3013.00,0.0044
3012.00,0.0045
3011.00,0.0047
3010.00,0.0048
3009.00,0.0050
3008.00,0.0052
3007.00,0.0053
3006.00,0.0055
3005.00,0.0057
3004.00,0.0059
3003.00,0.0062
3002.00,0.0064
3001.00,0.0067
3000.00,0.0070
2999.00,0.0073
2998.00,0.0076
2997.00,0.0080
2996.00,0.0084
2995.00,0.0088
2994.00,0.0093
2993.00,0.0098
2992.00,0.0103
2991.00,0.0109
2990.00,0.0115
2989.00,0.0123
2988.00,0.0131
2987.00,0.0141
2986.00,0.0151
2985.00,0.0163
2984.00,0.0176
2983.00,0.0191
2982.00,0.0207
2981.00,0.0225
2980.00,0.0245
2979.00,0.0268
2978.00,0.0294
2977.00,0.0324
2976.00,0.0359
2975.00,0.0398
2974.00,0.0443
2973.00,0.0494
2972.00,0.0551
2971.00,0.0615
2970.00,0.0686
2969.00,0.0764
2968.00,0.0851
2967.00,0.0944
2966.00,0.1043
2965.00,0.1145
2964.00,0.1246
2963.00,0.1343
2962.00,0.1429
2961.00,0.1503
2960.00,0.1563
2959.00,0.1610
2958.00,0.1648
2957.00,0.1684
2956.00,0.1723
2955.00,0.1769
2954.00,0.1823
2953.00,0.1880
2952.00,0.1933
2951.00,0.1972
2950.00,0.1986
2949.00,0.1966
2948.00,0.1907
2947.00,0.1813
2946.00,0.1690
2945.00,0.1553
2944.00,0.1418
2943.00,0.1296
2942.00,0.1196
2941.00,0.1122
2940.00,0.1074
2939.00,0.1050
2938.00,0.1049
2937.00,0.1066
2936.00,0.1101
2935.00,0.1152
2934.00,0.1218
2933.00,0.1295
2932.00,0.1384
2931.00,0.1481
2930.00,0.1583
2929.00,0.1687
2928.00,0.1790
2927.00,0.1889
2926.00,0.1983
2925.00,0.2071
2924.00,0.2154
2923.00,0.2233
2922.00,0.2310
2921.00,0.2383
2920.00,0.2447
2919.00,0.2496
2918.00,0.2523
2917.00,0.2523
2916.00,0.2494
2915.00,0.2441
2914.00,0.2371
2913.00,0.2290
2912.00,0.2207
2911.00,0.2127
2910.00,0.2052
2909.00,0.1982
2908.00,0.1916
2907.00,0.1852
2906.00,0.1788
2905.00,0.1721
2904.00,0.1653
2903.00,0.1583
2902.00,0.1513
2901.00,0.1443
2900.00,0.1376
2899.00,0.1312
2898.00,0.1253
2897.00,0.1199
2896.00,0.1152
2895.00,0.1113
2894.00,0.1080
2893.00,0.1054
2892.00,0.1036
2891.00,0.1023
2890.00,0.1017
2889.00,0.1015
2888.00,0.1018
2887.00,0.1024
2886.00,0.1034
2885.00,0.1048
2884.00,0.1066
2883.00,0.1088
2882.00,0.1115
2881.00,0.1144
2880.00,0.1172
2879.00,0.1197
2878.00,0.1213
2877.00,0.1220
2876.00,0.1217
2875.00,0.1208
2874.00,0.1199
2873.00,0.1195
2872.00,0.1198
2871.00,0.1210
2870.00,0.1227
2869.00,0.1246
2868.00,0.1257
2867.00,0.1253
2866.00,0.1226
2865.00,0.1172
2864.00,0.1095
2863.00,0.1003
2862.00,0.0908
2861.00,0.0817
2860.00,0.0739
2859.00,0.0676
2858.00,0.0627
2857.00,0.0592
2856.00,0.0566
2855.00,0.0550
2854.00,0.0541
2853.00,0.0538
2852.00,0.0541
2851.00,0.0552
2850.00,0.0571
2849.00,0.0600
2848.00,0.0640
2847.00,0.0690
2846.00,0.0749
2845.00,0.0817
2844.00,0.0891
2843.00,0.0970
2842.00,0.1050
2841.00,0.1126
2840.00,0.1190
2839.00,0.1233
2838.00,0.1246
2837.00,0.1224
2836.00,0.1166
2835.00,0.1077
2834.00,0.0969
2833.00,0.0854
2832.00,0.0744
2831.00,0.0646
2830.00,0.0563
2829.00,0.0495
2828.00,0.0440
2827.00,0.0396
2826.00,0.0360
2825.00,0.0331
2824.00,0.0306
2823.00,0.0286
2822.00,0.0268
2821.00,0.0254
2820.00,0.0241
2819.00,0.0229
2818.00,0.0219
2817.00,0.0211
2816.00,0.0203
2815.00,0.0197
2814.00,0.0191
2813.00,0.0185
2812.00,0.0180
2811.00,0.0175
2810.00,0.0170
2809.00,0.0164
2808.00,0.0158
2807.00,0.0152
2806.00,0.0145
2805.00,0.0139
2804.00,0.0133
2803.00,0.0127
2802.00,0.0121
2801.00,0.0117
2800.00,0.0113
2799.00,0.0110
2798.00,0.0107
2797.00,0.0105
2796.00,0.0103
2795.00,0.0100
2794.00,0.0098
2793.00,0.0095
2792.00,0.0091
2791.00,0.0088
2790.00,0.0085
2789.00,0.0081
2788.00,0.0078
2787.00,0.0076
2786.00,0.0073
2785.00,0.0071
2784.00,0.0069
2783.00,0.0067
2782.00,0.0065
2781.00,0.0063
2780.00,0.0062
2779.00,0.0060
2778.00,0.0058
2777.00,0.0056
2776.00,0.0055
2775.00,0.0054
2774.00,0.0054
2773.00,0.0053
2772.00,0.0052
2771.00,0.0051
2770.00,0.0051
2769.00,0.0051
2768.00,0.0051
2767.00,0.0050
2766.00,0.0050
2765.00,0.0050
2764.00,0.0050
2763.00,0.0050
2762.00,0.0049
2761.00,0.0049
2760.00,0.0048
2759.00,0.0048
2758.00,0.0047
2757.00,0.0047
2756.00,0.0047
2755.00,0.0047
2754.00,0.0047
2753.00,0.0047
2752.00,0.0046
2751.00,0.0046
2750.00,0.0046
2749.00,0.0046
2748.00,0.0046
2747.00,0.0047
2746.00,0.0048
2745.00,0.0048
2744.00,0.0049
2743.00,0.0050
2742.00,0.0051
2741.00,0.0052
2740.00,0.0053
2739.00,0.0054
2738.00,0.0056
2737.00,0.0058
2736.00,0.0059
2735.00,0.0061
2734.00,0.0063
2733.00,0.0065
2732.00,0.0067
2731.00,0.0068
2730.00,0.0071
2729.00,0.0073
2728.00,0.0075
2727.00,0.0078
2726.00,0.0081
2725.00,0.0084
2724.00,0.0085
2723.00,0.0086
2722.00,0.0085
2721.00,0.0083
2720.00,0.0080
2719.00,0.0077
2718.00,0.0073
2717.00,0.0070
2716.00,0.0067
2715.00,0.0064
2714.00,0.0061
2713.00,0.0059
2712.00,0.0057
2711.00,0.0055
2710.00,0.0053
2709.00,0.0052
2708.00,0.0051
2707.00,0.0050
2706.00,0.0049
2705.00,0.0048
2704.00,0.0046
2703.00,0.0045
2702.00,0.0044
2701.00,0.0043
2700.00,0.0043
2699.00,0.0042
2698.00,0.0042
2697.00,0.0042
2696.00,0.0041
2695.00,0.0041
2694.00,0.0041
2693.00,0.0041
2692.00,0.0041
2691.00,0.0041
2690.00,0.0041
2689.00,0.0041
2688.00,0.0041
2687.00,0.0040
2686.00,0.0040
2685.00,0.0040
2684.00,0.0040
2683.00,0.0040
2682.00,0.0041
2681.00,0.0041
2680.00,0.0041
2679.00,0.0041
2678.00,0.0041
2677.00,0.0042
2676.00,0.0042
2675.00,0.0041
2674.00,0.0041
2673.00,0.0041
2672.00,0.0041
2671.00,0.0040
2670.00,0.0040
2669.00,0.0040
2668.00,0.0040
2667.00,0.0040
2666.00,0.0041
2665.00,0.0041
2664.00,0.0042
2663.00,0.0042
2662.00,0.0043
2661.00,0.0043
2660.00,0.0043
2659.00,0.0042
2658.00,0.0042
2657.00,0.0042
2656.00,0.0042
2655.00,0.0042
2654.00,0.0041
2653.00,0.0041
2652.00,0.0040
2651.00,0.0040
2650.00,0.0039
2649.00,0.0038
2648.00,0.0038
2647.00,0.0037
2646.00,0.0037
2645.00,0.0037
2644.00,0.0037
2643.00,0.0036
2642.00,0.0036
2641.00,0.0035
2640.00,0.0035
2639.00,0.0034
2638.00,0.0034
2637.00,0.0033
2636.00,0.0033
2635.00,0.0033
2634.00,0.0034
2633.00,0.0034
2632.00,0.0034
2631.00,0.0034
2630.00,0.0034
2629.00,0.0034
2628.00,0.0034
2627.00,0.0034
2626.00,0.0035
2625.00,0.0036
2624.00,0.0036
2623.00,0.0036
2622.00,0.0036
2621.00,0.0036
2620.00,0.0036
2619.00,0.0037
2618.00,0.0037
2617.00,0.0037
2616.00,0.0037
2615.00,0.0037
2614.00,0.0036
2613.00,0.0036
2612.00,0.0035
2611.00,0.0035
2610.00,0.0034
2609.00,0.0033
2608.00,0.0032
2607.00,0.0031
2606.00,0.0030
2605.00,0.0030
2604.00,0.0029
2603.00,0.0029
2602.00,0.0029
2601.00,0.0029
2600.00,0.0028
2599.00,0.0028
2598.00,0.0028
2597.00,0.0029
2596.00,0.0029
2595.00,0.0029
2594.00,0.0029
2593.00,0.0029
2592.00,0.0030
2591.00,0.0031
2590.00,0.0031
2589.00,0.0032
2588.00,0.0033
2587.00,0.0034
2586.00,0.0034
2585.00,0.0035
2584.00,0.0036
2583.00,0.0036
2582.00,0.0036
2581.00,0.0035
2580.00,0.0035
2579.00,0.0034
2578.00,0.0033
2577.00,0.0032
2576.00,0.0031
2575.00,0.0030
2574.00,0.0029
2573.00,0.0028
2572.00,0.0027
2571.00,0.0026
2570.00,0.0025
2569.00,0.0025
2568.00,0.0024
2567.00,0.0023
2566.00,0.0022
2565.00,0.0022
2564.00,0.0022
2563.00,0.0021
2562.00,0.0021
2561.00,0.0021
2560.00,0.0021
2559.00,0.0020
2558.00,0.0020
2557.00,0.0020
2556.00,0.0020
2555.00,0.0020
2554.00,0.0020
2553.00,0.0019
2552.00,0.0019
2551.00,0.0018
2550.00,0.0018
2549.00,0.0018
2548.00,0.0018
2547.00,0.0018
2546.00,0.0018
2545.00,0.0017
2544.00,0.0016
2543.00,0.0016
2542.00,0.0015
2541.00,0.0015
2540.00,0.0015
2539.00,0.0014
2538.00,0.0014
2537.00,0.0013
2536.00,0.0013
2535.00,0.0012
2534.00,0.0012
2533.00,0.0012
2532.00,0.0012
2531.00,0.0012
2530.00,0.0012
2529.00,0.0012
2528.00,0.0012
2527.00,0.0012
2526.00,0.0011
2525.00,0.0011
2524.00,0.0010
2523.00,0.0009
2522.00,0.0009
2521.00,0.0009
2520.00,0.0009
2519.00,0.0009
2518.00,0.0009
2517.00,0.0008
2516.00,0.0008
2515.00,0.0008
2514.00,0.0008
2513.00,0.0008
2512.00,0.0009
2511.00,0.0009
2510.00,0.0009
2509.00,0.0009
2508.00,0.0008
2507.00,0.0008
2506.00,0.0008
2505.00,0.0009
2504.00,0.0008
2503.00,0.0008
2502.00,0.0008
2501.00,0.0007
2500.00,0.0007
2499.00,0.0007
2498.00,0.0006
2497.00,0.0006
2496.00,0.0006
2495.00,0.0007
2494.00,0.0007
2493.00,0.0008
2492.00,0.0009
2491.00,0.0009
2490.00,0.0009
2489.00,0.0009
2488.00,0.0008
2487.00,0.0008
2486.00,0.0007
2485.00,0.0007
2484.00,0.0007
2483.00,0.0007
2482.00,0.0007
2481.00,0.0007
2480.00,0.0007
2479.00,0.0007
2478.00,0.0006
2477.00,0.0006
2476.00,0.0006
2475.00,0.0006
2474.00,0.0007
2473.00,0.0007
2472.00,0.0007
2471.00,0.0007
2470.00,0.0007
2469.00,0.0006
2468.00,0.0006
2467.00,0.0006
2466.00,0.0006
2465.00,0.0006
2464.00,0.0006
2463.00,0.0007
2462.00,0.0007
2461.00,0.0006
2460.00,0.0006
2459.00,0.0007
2458.00,0.0008
2457.00,0.0009
2456.00,0.0010
2455.00,0.0009
2454.00,0.0009
2453.00,0.0009
2452.00,0.0009
2451.00,0.0009
2450.00,0.0009
2449.00,0.0009
2448.00,0.0008
2447.00,0.0008
2446.00,0.0008
2445.00,0.0007
2444.00,0.0007
2443.00,0.0008
2442.00,0.0008
2441.00,0.0008
2440.00,0.0009
2439.00,0.0009
2438.00,0.0009
2437.00,0.0009
2436.00,0.0009
2435.00,0.0009
2434.00,0.0009
2433.00,0.0009
2432.00,0.0009
2431.00,0.0009
2430.00,0.0009
2429.00,0.0010
2428.00,0.0010
2427.00,0.0011
2426.00,0.0010
2425.00,0.0010
2424.00,0.0009
2423.00,0.0008
2422.00,0.0008
2421.00,0.0007
2420.00,0.0006
2419.00,0.0006
2418.00,0.0007
2417.00,0.0007
2416.00,0.0008
2415.00,0.0008
2414.00,0.0008
2413.00,0.0008
2412.00,0.0008
2411.00,0.0007
2410.00,0.0007
2409.00,0.0007
2408.00,0.0007
2407.00,0.0007
2406.00,0.0008
2405.00,0.0008
2404.00,0.0008
2403.00,0.0008
2402.00,0.0007
2401.00,0.0006
2400.00,0.0006
2399.00,0.0006
2398.00,0.0006
2397.00,0.0006
2396.00,0.0006
2395.00,0.0006
2394.00,0.0006
2393.00,0.0007
2392.00,0.0006
2391.00,0.0006
2390.00,0.0006
2389.00,0.0005
2388.00,0.0005
2387.00,0.0005
2386.00,0.0005
2385.00,0.0004
2384.00,0.0004
2383.00,0.0003
2382.00,0.0002
2381.00,0.0001
2380.00,-0.0000
2379.00,-0.0000
2378.00,0.0000
2377.00,0.0001
2376.00,0.0001
2375.00,0.0001
2374.00,0.0000
2373.00,0.0000
2372.00,0.0000
2371.00,0.0000
2370.00,-0.0000
2369.00,-0.0001
2368.00,-0.0002
2367.00,-0.0003
2366.00,-0.0004
2365.00,-0.0004
2364.00,-0.0005
2363.00,-0.0004
2362.00,-0.0003
2361.00,-0.0001
2360.00,-0.0001
2359.00,-0.0001
2358.00,-0.0001
2357.00,-0.0001
2356.00,-0.0001
2355.00,-0.0001
2354.00,-0.0001
2353.00,-0.0000
2352.00,-0.0001
2351.00,-0.0001
2350.00,-0.0001
2349.00,-0.0001
2348.00,-0.0000
2347.00,0.0000
2346.00,-0.0000
2345.00,-0.0001
2344.00,-0.0001
2343.00,-0.0001
2342.00,-0.0000
2341.00,0.0001
2340.00,0.0002
2339.00,0.0003
2338.00,0.0003
2337.00,0.0002
2336.00,0.0003
2335.00,0.0003
2334.00,0.0003
2333.00,0.0003
2332.00,0.0002
2331.00,0.0001
2330.00,0.0001
2329.00,0.0002
2328.00,0.0004
2327.00,0.0007
2326.00,0.0011
2325.00,0.0015
2324.00,0.0017
2323.00,0.0016
2322.00,0.0014
2321.00,0.0012
2320.00,0.0010
2319.00,0.0009
2318.00,0.0008
2317.00,0.0007
2316.00,0.0007
2315.00,0.0006
2314.00,0.0005
2313.00,0.0005
2312.00,0.0005
2311.00,0.0005
2310.00,0.0005
2309.00,0.0005
2308.00,0.0005
2307.00,0.0005
2306.00,0.0005
2305.00,0.0005
2304.00,0.0005
2303.00,0.0006
2302.00,0.0007
2301.00,0.0008
2300.00,0.0009
2299.00,0.0009
2298.00,0.0009
2297.00,0.0009
2296.00,0.0009
2295.00,0.0010
2294.00,0.0010
2293.00,0.0012
2292.00,0.0013
2291.00,0.0014
2290.00,0.0014
2289.00,0.0015
2288.00,0.0016
2287.00,0.0016
2286.00,0.0016
2285.00,0.0016
2284.00,0.0015
2283.00,0.0014
2282.00,0.0014
2281.00,0.0013
2280.00,0.0012
2279.00,0.0011
2278.00,0.0010
2277.00,0.0010
2276.00,0.0010
2275.00,0.0010
2274.00,0.0009
2273.00,0.0009
2272.00,0.0009
2271.00,0.0009
2270.00,0.0010
2269.00,0.0011
2268.00,0.0011
2267.00,0.0010
2266.00,0.0009
2265.00,0.0007
2264.00,0.0006
2263.00,0.0006
2262.00,0.0006
2261.00,0.0007
2260.00,0.0009
2259.00,0.0010
2258.00,0.0009
2257.00,0.0008
2256.00,0.0007
2255.00,0.0006
2254.00,0.0006
2253.00,0.0007
2252.00,0.0007
2251.00,0.0008
2250.00,0.0008
2249.00,0.0008
2248.00,0.0008
2247.00,0.0009
2246.00,0.0009
2245.00,0.0009
2244.00,0.0008
2243.00,0.0008
2242.00,0.0007
2241.00,0.0008
2240.00,0.0008
2239.00,0.0008
2238.00,0.0007
2237.00,0.0006
2236.00,0.0005
2235.00,0.0004
2234.00,0.0004
2233.00,0.0005
2232.00,0.0006
2231.00,0.0006
2230.00,0.0006
2229.00,0.0007
2228.00,0.0008
2227.00,0.0009
2226.00,0.0009
2225.00,0.0008
2224.00,0.0007
2223.00,0.0007
2222.00,0.0009
2221.00,0.0010
2220.00,0.0011
2219.00,0.0011
2218.00,0.0010
2217.00,0.0009
2216.00,0.0010
2215.00,0.0009
2214.00,0.0008
2213.00,0.0006
2212.00,0.0004
2211.00,0.0002
2210.00,0.0002
2209.00,0.0003
2208.00,0.0005
2207.00,0.0006
2206.00,0.0006
2205.00,0.0005
2204.00,0.0004
2203.00,0.0003
2202.00,0.0002
2201.00,0.0002
2200.00,0.0003
2199.00,0.0004
2198.00,0.0005
2197.00,0.0007
2196.00,0.0008
2195.00,0.0008
2194.00,0.0007
2193.00,0.0006
2192.00,0.0006
2191.00,0.0007
2190.00,0.0007
2189.00,0.0008
2188.00,0.0008
2187.00,0.0010
2186.00,0.0011
2185.00,0.0010
2184.00,0.0007
2183.00,0.0004
2182.00,0.0003
2181.00,0.0005
2180.00,0.0009
2179.00,0.0012
2178.00,0.0014
2177.00,0.0014
2176.00,0.0013
2175.00,0.0010
2174.00,0.0008
2173.00,0.0007
2172.00,0.0007
2171.00,0.0008
2170.00,0.0010
2169.00,0.0012
2168.00,0.0013
2167.00,0.0013
2166.00,0.0011
2165.00,0.0008
2164.00,0.0007
2163.00,0.0008
2162.00,0.0009
2161.00,0.0006
2160.00,-0.0004
2159.00,-0.0017
2158.00,-0.0027
2157.00,-0.0029
2156.00,-0.0026
2155.00,-0.0023
2154.00,-0.0021
2153.00,-0.0019
2152.00,-0.0017
2151.00,-0.0016
2150.00,-0.0015
2149.00,-0.0014
2148.00,-0.0014
2147.00,-0.0015
2146.00,-0.0016
2145.00,-0.0017
2144.00,-0.0016
2143.00,-0.0015
2142.00,-0.0013
2141.00,-0.0010
2140.00,-0.0008
2139.00,-0.0007
2138.00,-0.0007
2137.00,-0.0008
2136.00,-0.0012
2135.00,-0.0015
2134.00,-0.0018
2133.00,-0.0018
2132.00,-0.0017
2131.00,-0.0016
2130.00,-0.0015
2129.00,-0.0014
2128.00,-0.0012
2127.00,-0.0011
2126.00,-0.0009
2125.00,-0.0007
2124.00,-0.0006
2123.00,-0.0006
2122.00,-0.0007
2121.00,-0.0007
2120.00,-0.0008
2119.00,-0.0007
2118.00,-0.0006
2117.00,-0.0004
2116.00,-0.0003
2115.00,-0.0002
2114.00,-0.0001
2113.00,-0.0001
2112.00,-0.0001
2111.00,-0.0000
2110.00,-0.0000
2109.00,-0.0000
2108.00,-0.0000
2107.00,-0.0000
2106.00,-0.0000
2105.00,-0.0000
2104.00,-0.0001
2103.00,-0.0002
2102.00,-0.0004
2101.00,-0.0005
2100.00,-0.0005
2099.00,-0.0003
2098.00,-0.0002
2097.00,-0.0002
2096.00,-0.0003
2095.00,-0.0005
2094.00,-0.0005
2093.00,-0.0005
2092.00,-0.0004
2091.00,-0.0003
2090.00,-0.0002
2089.00,-0.0002
2088.00,-0.0001
2087.00,-0.0001
2086.00,-0.0001
2085.00,0.0001
2084.00,0.0003
2083.00,0.0004
2082.00,0.0004
2081.00,0.0003
2080.00,0.0002
2079.00,0.0001
2078.00,-0.0000
2077.00,-0.0001
2076.00,-0.0001
2075.00,-0.0001
2074.00,-0.0001
2073.00,-0.0001
2072.00,-0.0001
2071.00,-0.0001
2070.00,-0.0001
2069.00,-0.0000
2068.00,0.0000
2067.00,0.0001
2066.00,0.0000
2065.00,-0.0001
2064.00,-0.0004
2063.00,-0.0005
2062.00,-0.0006
2061.00,-0.0006
2060.00,-0.0005
2059.00,-0.0004
2058.00,-0.0003
2057.00,-0.0001
2056.00,0.0000
2055.00,0.0000
2054.00,0.0001
2053.00,0.0002
2052.00,0.0005
2051.00,0.0007
2050.00,0.0007
2049.00,0.0005
2048.00,0.0003
2047.00,0.0002
2046.00,0.0001
2045.00,0.0001
2044.00,0.0001
2043.00,0.0001
2042.00,0.0001
2041.00,0.0002
2040.00,0.0002
2039.00,0.0003
2038.00,0.0003
2037.00,0.0003
2036.00,0.0002
2035.00,-0.0001
2034.00,-0.0003
2033.00,-0.0005
2032.00,-0.0006
2031.00,-0.0006
2030.00,-0.0006
2029.00,-0.0006
2028.00,-0.0006
2027.00,-0.0008
2026.00,-0.0011
2025.00,-0.0014
2024.00,-0.0016
2023.00,-0.0016
2022.00,-0.0016
2021.00,-0.0015
2020.00,-0.0012
2019.00,-0.0009
2018.00,-0.0007
2017.00,-0.0008
2016.00,-0.0011
2015.00,-0.0014
2014.00,-0.0016
2013.00,-0.0016
2012.00,-0.0015
2011.00,-0.0014
2010.00,-0.0014
2009.00,-0.0014
2008.00,-0.0016
2007.00,-0.0019
2006.00,-0.0023
2005.00,-0.0025
2004.00,-0.0025
2003.00,-0.0024
2002.00,-0.0022
2001.00,-0.0019
2000.00,-0.0016
1999.00,-0.0014
1998.00,-0.0012
1997.00,-0.0010
1996.00,-0.0008
1995.00,-0.0007
1994.00,-0.0005
1993.00,-0.0004
1992.00,-0.0003
1991.00,-0.0004
1990.00,-0.0005
1989.00,-0.0005
1988.00,-0.0006
1987.00,-0.0007
1986.00,-0.0007
1985.00,-0.0008
1984.00,-0.0007
1983.00,-0.0005
1982.00,-0.0002
1981.00,0.0002
1980.00,0.0005
1979.00,0.0003
1978.00,-0.0003
1977.00,-0.0008
1976.00,-0.0010
1975.00,-0.0011
1974.00,-0.0013
1973.00,-0.0015
1972.00,-0.0018
1971.00,-0.0019
1970.00,-0.0019
1969.00,-0.0018
1968.00,-0.0016
1967.00,-0.0015
1966.00,-0.0014
1965.00,-0.0014
1964.00,-0.0013
1963.00,-0.0012
1962.00,-0.0011
1961.00,-0.0012
1960.00,-0.0013
1959.00,-0.0015
1958.00,-0.0016
1957.00,-0.0016
1956.00,-0.0014
1955.00,-0.0013
1954.00,-0.0012
1953.00,-0.0012
1952.00,-0.0012
1951.00,-0.0013
1950.00,-0.0014
1949.00,-0.0015
1948.00,-0.0015
1947.00,-0.0014
1946.00,-0.0014
1945.00,-0.0014
1944.00,-0.0015
1943.00,-0.0016
1942.00,-0.0016
1941.00,-0.0015
1940.00,-0.0013
1939.00,-0.0012
1938.00,-0.0012
1937.00,-0.0013
1936.00,-0.0014
1935.00,-0.0015
1934.00,-0.0014
1933.00,-0.0013
1932.00,-0.0012
1931.00,-0.0011
1930.00,-0.0011
1929.00,-0.0010
1928.00,-0.0009
1927.00,-0.0008
1926.00,-0.0007
1925.00,-0.0007
1924.00,-0.0006
1923.00,-0.0006
1922.00,-0.0006
1921.00,-0.0006
1920.00,-0.0007
1919.00,-0.0008
1918.00,-0.0009
1917.00,-0.0008
1916.00,-0.0007
1915.00,-0.0006
1914.00,-0.0006
1913.00,-0.0007
1912.00,-0.0007
1911.00,-0.0006
1910.00,-0.0006
1909.00,-0.0006
1908.00,-0.0005
1907.00,-0.0005
1906.00,-0.0005
1905.00,-0.0005
1904.00,-0.0005
1903.00,-0.0005
1902.00,-0.0004
1901.00,-0.0003
1900.00,-0.0002
1899.00,-0.0002
1898.00,-0.0002
1897.00,-0.0002
1896.00,-0.0003
1895.00,-0.0002
1894.00,-0.0002
1893.00,-0.0002
1892.00,-0.0002
1891.00,-0.0003
1890.00,-0.0003
1889.00,-0.0003
1888.00,-0.0002
1887.00,-0.0002
1886.00,-0.0002
1885.00,-0.0002
1884.00,-0.0003
1883.00,-0.0004
1882.00,-0.0004
1881.00,-0.0004
1880.00,-0.0004
1879.00,-0.0004
1878.00,-0.0004
1877.00,-0.0004
1876.00,-0.0004
1875.00,-0.0003
1874.00,-0.0003
1873.00,-0.0003
1872.00,-0.0003
1871.00,-0.0004
1870.00,-0.0004
1869.00,-0.0004
1868.00,-0.0004
1867.00,-0.0004
1866.00,-0.0003
1865.00,-0.0002
1864.00,-0.0001
1863.00,-0.0000
1862.00,0.0000
1861.00,-0.0000
1860.00,-0.0001
1859.00,-0.0001
1858.00,-0.0002
1857.00,-0.0002
1856.00,-0.0001
1855.00,-0.0000
1854.00,0.0000
1853.00,0.0000
1852.00,0.0000
1851.00,-0.0000
1850.00,-0.0001
1849.00,-0.0001
1848.00,-0.0001
1847.00,-0.0001
1846.00,-0.0001
1845.00,-0.0001
1844.00,0.0000
1843.00,0.0001
1842.00,0.0001
1841.00,0.0001
1840.00,0.0001
1839.00,0.0001
1838.00,0.0001
1837.00,0.0001
1836.00,0.0002
1835.00,0.0002
1834.00,0.0003
1833.00,0.0003
1832.00,0.0003
1831.00,0.0003
1830.00,0.0002
1829.00,0.0002
1828.00,0.0001
1827.00,0.0001
1826.00,0.0000
1825.00,0.0000
1824.00,0.0001
1823.00,0.0001
1822.00,0.0002
1821.00,0.0002
1820.00,0.0002
1819.00,0.0001
1818.00,-0.0000
1817.00,-0.0001
1816.00,-0.0001
1815.00,-0.0002
1814.00,-0.0001
1813.00,-0.0001
1812.00,-0.0000
1811.00,0.0000
1810.00,0.0001
1809.00,0.0001
1808.00,0.0002
1807.00,0.0002
1806.00,0.0002
1805.00,0.0002
1804.00,0.0002
1803.00,0.0001
1802.00,0.0001
1801.00,0.0001
1800.00,0.0002
1799.00,0.0003
1798.00,0.0003
1797.00,0.0003
1796.00,0.0003
1795.00,0.0003
1794.00,0.0002
1793.00,0.0002
1792.00,0.0002
1791.00,0.0002
1790.00,0.0002
1789.00,0.0002
1788.00,0.0002
1787.00,0.0002
1786.00,0.0002
1785.00,0.0002
1784.00,0.0002
1783.00,0.0002
1782.00,0.0003
1781.00,0.0003
1780.00,0.0002
1779.00,0.0002
1778.00,0.0001
1777.00,-0.0000
1776.00,-0.0001
1775.00,-0.0001
1774.00,-0.0002
1773.00,-0.0003
1772.00,-0.0003
1771.00,-0.0002
1770.00,-0.0001
1769.00,-0.0001
1768.00,0.0000
1767.00,0.0000
1766.00,0.0001
1765.00,0.0002
1764.00,0.0002
1763.00,0.0003
1762.00,0.0003
1761.00,0.0003
1760.00,0.0004
1759.00,0.0004
1758.00,0.0004
1757.00,0.0004
1756.00,0.0004
1755.00,0.0004
1754.00,0.0003
1753.00,0.0004
1752.00,0.0004
1751.00,0.0004
1750.00,0.0004
1749.00,0.0004
1748.00,0.0003
1747.00,0.0003
1746.00,0.0002
1745.00,0.0003
1744.00,0.0003
1743.00,0.0003
1742.00,0.0003
1741.00,0.0003
1740.00,0.0003
1739.00,0.0002
1738.00,0.0002
1737.00,0.0001
1736.00,0.0001
1735.00,0.0002
1734.00,0.0001
1733.00,0.0001
1732.00,0.0002
1731.00,0.0002
1730.00,0.0003
1729.00,0.0003
1728.00,0.0003
1727.00,0.0003
1726.00,0.0003
1725.00,0.0003
1724.00,0.0003
1723.00,0.0003
1722.00,0.0003
1721.00,0.0004
1720.00,0.0004
1719.00,0.0005
1718.00,0.0005
1717.00,0.0005
1716.00,0.0006
1715.00,0.0006
1714.00,0.0006
1713.00,0.0006
1712.00,0.0006
1711.00,0.0007
1710.00,0.0007
1709.00,0.0008
1708.00,0.0009
1707.00,0.0009
1706.00,0.0010
1705.00,0.0010
1704.00,0.0011
1703.00,0.0011
1702.00,0.0012
1701.00,0.0013
1700.00,0.0015
1699.00,0.0016
1698.00,0.0017
1697.00,0.0018
1696.00,0.0019
1695.00,0.0020
1694.00,0.0021
1693.00,0.0022
1692.00,0.0023
1691.00,0.0024
1690.00,0.0024
1689.00,0.0025
1688.00,0.0026
1687.00,0.0026
1686.00,0.0027
1685.00,0.0028
1684.00,0.0029
1683.00,0.0030
1682.00,0.0031
1681.00,0.0032
1680.00,0.0034
1679.00,0.0036
1678.00,0.0037
1677.00,0.0038
1676.00,0.0039
1675.00,0.0039
1674.00,0.0039
1673.00,0.0040
1672.00,0.0041
1671.00,0.0043
1670.00,0.0043
1669.00,0.0044
1668.00,0.0045
1667.00,0.0045
1666.00,0.0046
1665.00,0.0046
1664.00,0.0047
1663.00,0.0048
1662.00,0.0048
1661.00,0.0048
1660.00,0.0048
1659.00,0.0049
1658.00,0.0049
1657.00,0.0050
1656.00,0.0050
1655.00,0.0050
1654.00,0.0050
1653.00,0.0050
1652.00,0.0050
1651.00,0.0050
1650.00,0.0051
1649.00,0.0051
1648.00,0.0051
1647.00,0.0052
1646.00,0.0052
1645.00,0.0052
1644.00,0.0052
1643.00,0.0052
1642.00,0.0052
1641.00,0.0052
1640.00,0.0051
1639.00,0.0051
1638.00,0.0051
1637.00,0.0050
1636.00,0.0050
1635.00,0.0050
1634.00,0.0050
1633.00,0.0050
1632.00,0.0050
1631.00,0.0050
1630.00,0.0049
1629.00,0.0049
1628.00,0.0049
1627.00,0.0049
1626.00,0.0049
1625.00,0.0048
1624.00,0.0048
1623.00,0.0047
1622.00,0.0046
1621.00,0.0046
1620.00,0.0045
1619.00,0.0045
1618.00,0.0045
1617.00,0.0044
1616.00,0.0044
1615.00,0.0043
1614.00,0.0043
1613.00,0.0043
1612.00,0.0042
1611.00,0.0041
1610.00,0.0041
1609.00,0.0040
1608.00,0.0040
1607.00,0.0040
1606.00,0.0040
1605.00,0.0041
1604.00,0.0041
1603.00,0.0041
1602.00,0.0041
1601.00,0.0041
1600.00,0.0041
1599.00,0.0041
1598.00,0.0040
1597.00,0.0040
1596.00,0.0041
1595.00,0.0041
1594.00,0.0041
1593.00,0.0041
1592.00,0.0041
1591.00,0.0041
1590.00,0.0041
1589.00,0.0041
1588.00,0.0042
1587.00,0.0042
1586.00,0.0043
1585.00,0.0044
1584.00,0.0045
1583.00,0.0046
1582.00,0.0047
1581.00,0.0047
1580.00,0.0048
1579.00,0.0048
1578.00,0.0048
1577.00,0.0049
1576.00,0.0049
1575.00,0.0050
1574.00,0.0049
1573.00,0.0049
1572.00,0.0049
1571.00,0.0048
1570.00,0.0048
1569.00,0.0048
1568.00,0.0048
1567.00,0.0048
1566.00,0.0048
1565.00,0.0048
1564.00,0.0048
1563.00,0.0048
1562.00,0.0048
1561.00,0.0048
1560.00,0.0049
1559.00,0.0050
1558.00,0.0051
1557.00,0.0051
1556.00,0.0052
1555.00,0.0052
1554.00,0.0053
1553.00,0.0053
1552.00,0.0054
1551.00,0.0054
1550.00,0.0055
1549.00,0.0056
1548.00,0.0057
1547.00,0.0058
1546.00,0.0058
1545.00,0.0059
1544.00,0.0060
1543.00,0.0060
1542.00,0.0060
1541.00,0.0059
1540.00,0.0059
1539.00,0.0058
1538.00,0.0057
1537.00,0.0057
1536.00,0.0057
1535.00,0.0056
1534.00,0.0055
1533.00,0.0053
1532.00,0.0053
1531.00,0.0052
1530.00,0.0051
1529.00,0.0050
1528.00,0.0050
1527.00,0.0049
1526.00,0.0048
1525.00,0.0048
1524.00,0.0048
1523.00,0.0048
1522.00,0.0047
1521.00,0.0048
1520.00,0.0049
1519.00,0.0049
1518.00,0.0049
1517.00,0.0050
1516.00,0.0051
1515.00,0.0052
1514.00,0.0052
1513.00,0.0052
1512.00,0.0052
1511.00,0.0052
1510.00,0.0053
1509.00,0.0054
1508.00,0.0055
1507.00,0.0056
1506.00,0.0056
1505.00,0.0058
1504.00,0.0059
1503.00,0.0061
1502.00,0.0062
1501.00,0.0064
1500.00,0.0067
1499.00,0.0068
1498.00,0.0069
1497.00,0.0071
1496.00,0.0075
1495.00,0.0078
1494.00,0.0080
1493.00,0.0083
1492.00,0.0086
1491.00,0.0089
1490.00,0.0091
1489.00,0.0096
1488.00,0.0101
1487.00,0.0105
1486.00,0.0110
1485.00,0.0116
1484.00,0.0123
1483.00,0.0131
1482.00,0.0139
1481.00,0.0150
1480.00,0.0162
1479.00,0.0174
1478.00,0.0187
1477.00,0.0205
1476.00,0.0225
1475.00,0.0248
1474.00,0.0282
1473.00,0.0333
1472.00,0.0397
1471.00,0.0462
1470.00,0.0523
1469.00,0.0588
1468.00,0.0659
1467.00,0.0736
1466.00,0.0825
1465.00,0.0922
1464.00,0.1008
1463.00,0.1071
1462.00,0.1116
1461.00,0.1149
1460.00,0.1175
1459.00,0.1195
1458.00,0.1213
1457.00,0.1229
1456.00,0.1236
1455.00,0.1234
1454.00,0.1228
1453.00,0.1216
1452.00,0.1192
1451.00,0.1154
1450.00,0.1099
1449.00,0.1021
1448.00,0.0923
1447.00,0.0820
1446.00,0.0728
1445.00,0.0650
1444.00,0.0584
1443.00,0.0531
1442.00,0.0492
1441.00,0.0466
1440.00,0.0450
1439.00,0.0444
1438.00,0.0444
1437.00,0.0443
1436.00,0.0431
1435.00,0.0402
1434.00,0.0362
1433.00,0.0315
1432.00,0.0267
1431.00,0.0226
1430.00,0.0194
1429.00,0.0172
1428.00,0.0156
1427.00,0.0147
1426.00,0.0140
1425.00,0.0134
1424.00,0.0129
1423.00,0.0126
1422.00,0.0124
1421.00,0.0121
1420.00,0.0117
1419.00,0.0114
1418.00,0.0112
1417.00,0.0110
1416.00,0.0108
1415.00,0.0107
1414.00,0.0106
1413.00,0.0105
1412.00,0.0103
1411.00,0.0103
1410.00,0.0103
1409.00,0.0103
1408.00,0.0101
1407.00,0.0101
1406.00,0.0101
1405.00,0.0102
1404.00,0.0102
1403.00,0.0104
1402.00,0.0106
1401.00,0.0107
1400.00,0.0108
1399.00,0.0110
1398.00,0.0112
1397.00,0.0114
1396.00,0.0117
1395.00,0.0121
1394.00,0.0128
1393.00,0.0134
1392.00,0.0141
1391.00,0.0150
1390.00,0.0162
1389.00,0.0179
1388.00,0.0206
1387.00,0.0245
1386.00,0.0298
1385.00,0.0364
1384.00,0.0451
1383.00,0.0566
1382.00,0.0718
1381.00,0.0911
1380.00,0.1149
1379.00,0.1420
1378.00,0.1683
1377.00,0.1879
1376.00,0.1951
1375.00,0.1862
1374.00,0.1636
1373.00,0.1355
1372.00,0.1093
1371.00,0.0876
1370.00,0.0702
1369.00,0.0569
1368.00,0.0477
1367.00,0.0420
1366.00,0.0390
1365.00,0.0377
1364.00,0.0380
1363.00,0.0395
1362.00,0.0417
1361.00,0.0440
1360.00,0.0457
1359.00,0.0461
1358.00,0.0449
1357.00,0.0421
1356.00,0.0382
1355.00,0.0338
1354.00,0.0296
1353.00,0.0259
1352.00,0.0230
1351.00,0.0207
1350.00,0.0188
1349.00,0.0173
1348.00,0.0161
1347.00,0.0151
1346.00,0.0143
1345.00,0.0137
1344.00,0.0133
1343.00,0.0129
1342.00,0.0125
1341.00,0.0122
1340.00,0.0120
1339.00,0.0118
1338.00,0.0117
1337.00,0.0117
1336.00,0.0118
1335.00,0.0120
1334.00,0.0122
1333.00,0.0126
1332.00,0.0131
1331.00,0.0135
1330.00,0.0136
1329.00,0.0135
1328.00,0.0131
1327.00,0.0125
1326.00,0.0119
1325.00,0.0112
1324.00,0.0106
1323.00,0.0100
1322.00,0.0096
1321.00,0.0092
1320.00,0.0090
1319.00,0.0087
1318.00,0.0084
1317.00,0.0082
1316.00,0.0080
1315.00,0.0079
1314.00,0.0078
1313.00,0.0078
1312.00,0.0080
1311.00,0.0082
1310.00,0.0087
1309.00,0.0093
1308.00,0.0103
1307.00,0.0114
1306.00,0.0125
1305.00,0.0133
1304.00,0.0136
1303.00,0.0134
1302.00,0.0129
1301.00,0.0124
1300.00,0.0121
1299.00,0.0121
1298.00,0.0121
1297.00,0.0122
1296.00,0.0121
1295.00,0.0118
1294.00,0.0114
1293.00,0.0108
1292.00,0.0102
1291.00,0.0096
1290.00,0.0091
1289.00,0.0086
1288.00,0.0083
1287.00,0.0080
1286.00,0.0077
1285.00,0.0075
1284.00,0.0072
1283.00,0.0070
1282.00,0.0068
1281.00,0.0067
1280.00,0.0065
1279.00,0.0064
1278.00,0.0063
1277.00,0.0062
1276.00,0.0062
1275.00,0.0062
1274.00,0.0063
1273.00,0.0063
1272.00,0.0063
1271.00,0.0064
1270.00,0.0064
1269.00,0.0065
1268.00,0.0066
1267.00,0.0067
1266.00,0.0069
1265.00,0.0071
1264.00,0.0074
1263.00,0.0077
1262.00,0.0081
1261.00,0.0086
1260.00,0.0093
1259.00,0.0101
1258.00,0.0109
1257.00,0.0116
1256.00,0.0119
1255.00,0.0117
1254.00,0.0111
1253.00,0.0103
1252.00,0.0094
1251.00,0.0088
1250.00,0.0083
1249.00,0.0079
1248.00,0.0077
1247.00,0.0075
1246.00,0.0074
1245.00,0.0073
1244.00,0.0072
1243.00,0.0071
1242.00,0.0071
1241.00,0.0071
1240.00,0.0070
1239.00,0.0070
1238.00,0.0068
1237.00,0.0067
1236.00,0.0066
1235.00,0.0066
1234.00,0.0066
1233.00,0.0066
1232.00,0.0066
1231.00,0.0065
1230.00,0.0065
1229.00,0.0065
1228.00,0.0067
1227.00,0.0068
1226.00,0.0070
1225.00,0.0073
1224.00,0.0076
1223.00,0.0080
1222.00,0.0083
1221.00,0.0087
1220.00,0.0089
1219.00,0.0090
1218.00,0.0089
1217.00,0.0087
1216.00,0.0084
1215.00,0.0081
1214.00,0.0078
1213.00,0.0075
1212.00,0.0071
1211.00,0.0068
1210.00,0.0065
1209.00,0.0063
1208.00,0.0062
1207.00,0.0060
1206.00,0.0058
1205.00,0.0055
1204.00,0.0053
1203.00,0.0052
1202.00,0.0052
1201.00,0.0052
1200.00,0.0051
1199.00,0.0051
1198.00,0.0051
1197.00,0.0051
1196.00,0.0051
1195.00,0.0052
1194.00,0.0052
1193.00,0.0053
1192.00,0.0053
1191.00,0.0052
1190.00,0.0052
1189.00,0.0053
1188.00,0.0054
1187.00,0.0055
1186.00,0.0057
1185.00,0.0059
1184.00,0.0061
1183.00,0.0063
1182.00,0.0066
1181.00,0.0069
1180.00,0.0073
1179.00,0.0079
1178.00,0.0087
1177.00,0.0096
1176.00,0.0109
1175.00,0.0125
1174.00,0.0146
1173.00,0.0173
1172.00,0.0204
1171.00,0.0239
1170.00,0.0273
1169.00,0.0301
1168.00,0.0318
1167.00,0.0323
1166.00,0.0317
1165.00,0.0303
1164.00,0.0284
1163.00,0.0266
1162.00,0.0248
1161.00,0.0233
1160.00,0.0221
1159.00,0.0211
1158.00,0.0204
1157.00,0.0199
1156.00,0.0196
1155.00,0.0193
1154.00,0.0190
1153.00,0.0187
1152.00,0.0182
1151.00,0.0175
1150.00,0.0167
1149.00,0.0159
1148.00,0.0149
1147.00,0.0140
1146.00,0.0130
1145.00,0.0122
1144.00,0.0114
1143.00,0.0108
1142.00,0.0102
1141.00,0.0097
1140.00,0.0092
1139.00,0.0086
1138.00,0.0082
1137.00,0.0077
1136.00,0.0074
1135.00,0.0071
1134.00,0.0069
1133.00,0.0067
1132.00,0.0066
1131.00,0.0066
1130.00,0.0067
1129.00,0.0068
1128.00,0.0068
1127.00,0.0069
1126.00,0.0070
1125.00,0.0071
1124.00,0.0072
1123.00,0.0073
1122.00,0.0073
1121.00,0.0072
1120.00,0.0072
1119.00,0.0072
1118.00,0.0073
1117.00,0.0074
1116.00,0.0076
1115.00,0.0078
1114.00,0.0079
1113.00,0.0080
1112.00,0.0082
1111.00,0.0085
1110.00,0.0089
1109.00,0.0094
1108.00,0.0100
1107.00,0.0106
1106.00,0.0113
1105.00,0.0120
1104.00,0.0126
1103.00,0.0130
1102.00,0.0130
1101.00,0.0128
1100.00,0.0123
1099.00,0.0117
1098.00,0.0110
1097.00,0.0104
1096.00,0.0099
1095.00,0.0094
1094.00,0.0090
1093.00,0.0087
1092.00,0.0084
1091.00,0.0082
1090.00,0.0080
1089.00,0.0078
1088.00,0.0077
1087.00,0.0076
1086.00,0.0074
1085.00,0.0074
1084.00,0.0073
1083.00,0.0073
1082.00,0.0073
1081.00,0.0071
1080.00,0.0069
1079.00,0.0067
1078.00,0.0065
1077.00,0.0064
1076.00,0.0063
1075.00,0.0063
1074.00,0.0062
1073.00,0.0062
1072.00,0.0063
1071.00,0.0064
1070.00,0.0066
1069.00,0.0067
1068.00,0.0067
1067.00,0.0068
1066.00,0.0069
1065.00,0.0070
1064.00,0.0070
1063.00,0.0070
1062.00,0.0070
1061.00,0.0070
1060.00,0.0070
1059.00,0.0072
1058.00,0.0073
1057.00,0.0073
1056.00,0.0074
1055.00,0.0074
1054.00,0.0075
1053.00,0.0074
1052.00,0.0075
1051.00,0.0076
1050.00,0.0078
1049.00,0.0081
1048.00,0.0084
1047.00,0.0086
1046.00,0.0088
1045.00,0.0089
1044.00,0.0089
1043.00,0.0088
1042.00,0.0086
1041.00,0.0084
1040.00,0.0083
1039.00,0.0082
1038.00,0.0083
1037.00,0.0084
1036.00,0.0085
1035.00,0.0086
1034.00,0.0086
1033.00,0.0085
1032.00,0.0084
1031.00,0.0083
1030.00,0.0083
1029.00,0.0083
1028.00,0.0083
1027.00,0.0082
1026.00,0.0081
1025.00,0.0080
1024.00,0.0079
1023.00,0.0079
1022.00,0.0080
1021.00,0.0082
1020.00,0.0083
1019.00,0.0085
1018.00,0.0086
1017.00,0.0087
1016.00,0.0089
1015.00,0.0092
1014.00,0.0095
1013.00,0.0099
1012.00,0.0103
1011.00,0.0107
1010.00,0.0112
1009.00,0.0117
1008.00,0.0122
1007.00,0.0129
1006.00,0.0138
1005.00,0.0150
1004.00,0.0166
1003.00,0.0189
1002.00,0.0218
1001.00,0.0254
1000.00,0.0293
999.00,0.0325
998.00,0.0342
997.00,0.0337
996.00,0.0311
995.00,0.0272
994.00,0.0231
993.00,0.0194
992.00,0.0165
991.00,0.0144
990.00,0.0130
989.00,0.0121
988.00,0.0115
987.00,0.0111
986.00,0.0110
985.00,0.0111
984.00,0.0116
983.00,0.0124
982.00,0.0137
981.00,0.0154
980.00,0.0177
979.00,0.0207
978.00,0.0244
977.00,0.0288
976.00,0.0334
975.00,0.0379
974.00,0.0413
973.00,0.0427
972.00,0.0415
971.00,0.0379
970.00,0.0329
969.00,0.0275
968.00,0.0228
967.00,0.0192
966.00,0.0164
965.00,0.0144
964.00,0.0130
963.00,0.0118
962.00,0.0110
961.00,0.0103
960.00,0.0097
959.00,0.0092
958.00,0.0089
957.00,0.0086
956.00,0.0083
955.00,0.0081
954.00,0.0080
953.00,0.0078
952.00,0.0077
951.00,0.0075
950.00,0.0073
949.00,0.0073
948.00,0.0074
947.00,0.0076
946.00,0.0078
945.00,0.0081
944.00,0.0084
943.00,0.0087
942.00,0.0090
941.00,0.0092
940.00,0.0092
939.00,0.0089
938.00,0.0085
937.00,0.0080
936.00,0.0075
935.00,0.0071
934.00,0.0068
933.00,0.0066
932.00,0.0065
931.00,0.0063
930.00,0.0061
929.00,0.0060
928.00,0.0059
927.00,0.0059
926.00,0.0058
925.00,0.0058
924.00,0.0059
923.00,0.0060
922.00,0.0061
921.00,0.0062
920.00,0.0063
919.00,0.0064
918.00,0.0065
917.00,0.0065
916.00,0.0065
915.00,0.0066
914.00,0.0067
913.00,0.0068
912.00,0.0069
911.00,0.0070
910.00,0.0071
909.00,0.0072
908.00,0.0074
907.00,0.0079
906.00,0.0086
905.00,0.0097
904.00,0.0113
903.00,0.0132
902.00,0.0153
901.00,0.0172
900.00,0.0185
899.00,0.0189
898.00,0.0182
897.00,0.0167
896.00,0.0148
895.00,0.0128
894.00,0.0112
893.00,0.0099
892.00,0.0089
891.00,0.0082
890.00,0.0076
889.00,0.0073
888.00,0.0072
887.00,0.0071
886.00,0.0070
885.00,0.0070
884.00,0.0069
883.00,0.0070
882.00,0.0070
881.00,0.0070
880.00,0.0070
879.00,0.0070
878.00,0.0070
877.00,0.0070
876.00,0.0071
875.00,0.0072
874.00,0.0072
873.00,0.0072
872.00,0.0070
871.00,0.0069
870.00,0.0068
869.00,0.0068
868.00,0.0069
867.00,0.0071
866.00,0.0072
865.00,0.0073
864.00,0.0073
863.00,0.0074
862.00,0.0076
861.00,0.0077
860.00,0.0079
859.00,0.0082
858.00,0.0084
857.00,0.0085
856.00,0.0086
855.00,0.0086
854.00,0.0087
853.00,0.0089
852.00,0.0093
851.00,0.0097
850.00,0.0103
849.00,0.0110
848.00,0.0121
847.00,0.0137
846.00,0.0162
845.00,0.0198
844.00,0.0245
843.00,0.0293
842.00,0.0328
841.00,0.0335
840.00,0.0312
839.00,0.0268
838.00,0.0222
837.00,0.0184
836.00,0.0159
835.00,0.0144
834.00,0.0134
833.00,0.0127
832.00,0.0122
831.00,0.0118
830.00,0.0115
829.00,0.0112
828.00,0.0110
827.00,0.0108
826.00,0.0106
825.00,0.0103
824.00,0.0101
823.00,0.0101
822.00,0.0102
821.00,0.0104
820.00,0.0105
819.00,0.0107
818.00,0.0111
817.00,0.0118
816.00,0.0126
815.00,0.0136
814.00,0.0148
813.00,0.0164
812.00,0.0181
811.00,0.0197
810.00,0.0208
809.00,0.0213
808.00,0.0210
807.00,0.0202
806.00,0.0188
805.00,0.0173
804.00,0.0157
803.00,0.0143
802.00,0.0131
801.00,0.0123
800.00,0.0117
799.00,0.0111
798.00,0.0105
797.00,0.0100
796.00,0.0096
795.00,0.0092
794.00,0.0088
793.00,0.0084
792.00,0.0081
791.00,0.0080
790.00,0.0079
789.00,0.0077
788.00,0.0075
787.00,0.0072
786.00,0.0069
785.00,0.0066
784.00,0.0063
783.00,0.0061
782.00,0.0059
781.00,0.0058
780.00,0.0057
779.00,0.0057
778.00,0.0056
777.00,0.0055
776.00,0.0055
775.00,0.0056
774.00,0.0060
773.00,0.0064
772.00,0.0069
771.00,0.0074
770.00,0.0077
769.00,0.0078
768.00,0.0078
767.00,0.0078
766.00,0.0078
765.00,0.0077
764.00,0.0073
763.00,0.0069
762.00,0.0065
761.00,0.0061
760.00,0.0059
759.00,0.0057
758.00,0.0055
757.00,0.0054
756.00,0.0052
755.00,0.0051
754.00,0.0049
753.00,0.0048
752.00,0.0047
751.00,0.0048
750.00,0.0049
749.00,0.0049
748.00,0.0048
747.00,0.0046
746.00,0.0046
745.00,0.0047
744.00,0.0048
743.00,0.0050
742.00,0.0052
741.00,0.0054
740.00,0.0056
739.00,0.0058
738.00,0.0059
737.00,0.0059
736.00,0.0060
735.00,0.0062
734.00,0.0065
733.00,0.0066
732.00,0.0066
731.00,0.0065
730.00,0.0064
729.00,0.0063
728.00,0.0062
727.00,0.0060
726.00,0.0059
725.00,0.0059
724.00,0.0059
723.00,0.0059
722.00,0.0058
721.00,0.0058
720.00,0.0057
719.00,0.0056
718.00,0.0055
717.00,0.0054
716.00,0.0054
715.00,0.0054
714.00,0.0055
713.00,0.0054
712.00,0.0052
711.00,0.0051
710.00,0.0050
709.00,0.0051
708.00,0.0051
707.00,0.0052
706.00,0.0052
705.00,0.0052
704.00,0.0052
703.00,0.0053
702.00,0.0054
701.00,0.0054
700.00,0.0052
699.00,0.0051
698.00,0.0051
697.00,0.0052
696.00,0.0052
695.00,0.0051
694.00,0.0050
693.00,0.0049
692.00,0.0048
691.00,0.0048
690.00,0.0048
689.00,0.0049
688.00,0.0049
687.00,0.0048
686.00,0.0047
685.00,0.0047
684.00,0.0047
683.00,0.0046
682.00,0.0044
681.00,0.0042
680.00,0.0042
679.00,0.0043
678.00,0.0045
677.00,0.0046
676.00,0.0046
675.00,0.0045
674.00,0.0043
673.00,0.0042
672.00,0.0041
671.00,0.0042
670.00,0.0046
669.00,0.0053
668.00,0.0059
667.00,0.0062
666.00,0.0060
665.00,0.0056
664.00,0.0053
663.00,0.0051
662.00,0.0051
661.00,0.0051
660.00,0.0050
659.00,0.0049
658.00,0.0048
657.00,0.0046
656.00,0.0046
655.00,0.0047
654.00,0.0048
653.00,0.0050
652.00,0.0051
651.00,0.0052
650.00,0.0051
649.00,0.0050
648.00,0.0049
647.00,0.0050
646.00,0.0051
645.00,0.0051
644.00,0.0050
643.00,0.0048
642.00,0.0047
641.00,0.0048
640.00,0.0049
639.00,0.0050
638.00,0.0050
637.00,0.0050
636.00,0.0050
635.00,0.0050
634.00,0.0051
633.00,0.0052
632.00,0.0053
631.00,0.0053
630.00,0.0053
629.00,0.0053
628.00,0.0052
627.00,0.0052
626.00,0.0054
625.00,0.0057
624.00,0.0058
623.00,0.0057
622.00,0.0054
621.00,0.0051
620.00,0.0050
619.00,0.0051
618.00,0.0053
617.00,0.0054
616.00,0.0055
615.00,0.0056
614.00,0.0058
613.00,0.0059
612.00,0.0058
611.00,0.0057
610.00,0.0056
609.00,0.0057
608.00,0.0058
607.00,0.0059
606.00,0.0060
605.00,0.0060
604.00,0.0059
603.00,0.0058
602.00,0.0056
601.00,0.0055
600.00,0.0055
599.00,0.0054
598.00,0.0054
597.00,0.0053
596.00,0.0051
595.00,0.0049
594.00,0.0047
593.00,0.0047
592.00,0.0048
591.00,0.0049
590.00,0.0049
589.00,0.0048
588.00,0.0046
587.00,0.0045
586.00,0.0046
585.00,0.0047
584.00,0.0049
583.00,0.0051
582.00,0.0054
581.00,0.0056
580.00,0.0056
579.00,0.0056
578.00,0.0055
577.00,0.0054
576.00,0.0052
575.00,0.0052
574.00,0.0055
573.00,0.0058
572.00,0.0060
571.00,0.0060
570.00,0.0058
569.00,0.0056
568.00,0.0054
567.00,0.0053
566.00,0.0051
565.00,0.0051
564.00,0.0053
563.00,0.0056
562.00,0.0060
561.00,0.0062
560.00,0.0063
559.00,0.0063
558.00,0.0062
557.00,0.0061
556.00,0.0061
555.00,0.0062
554.00,0.0062
553.00,0.0062
552.00,0.0061
551.00,0.0061
550.00,0.0059
549.00,0.0056
548.00,0.0053
547.00,0.0053
546.00,0.0055
545.00,0.0057
544.00,0.0056
543.00,0.0056
542.00,0.0055
541.00,0.0055
540.00,0.0055
539.00,0.0055
538.00,0.0056
537.00,0.0058
536.00,0.0062
535.00,0.0067
534.00,0.0072
533.00,0.0075
532.00,0.0075
531.00,0.0074
530.00,0.0074
529.00,0.0074
528.00,0.0076
527.00,0.0079
526.00,0.0081
525.00,0.0081
524.00,0.0078
523.00,0.0075
522.00,0.0074
521.00,0.0073
520.00,0.0073
519.00,0.0071
518.00,0.0070
517.00,0.0070
516.00,0.0069
515.00,0.0069
514.00,0.0069
513.00,0.0068
512.00,0.0069
511.00,0.0071
510.00,0.0074
509.00,0.0073
508.00,0.0066
507.00,0.0058
506.00,0.0053
505.00,0.0055
504.00,0.0058
503.00,0.0060
502.00,0.0062
501.00,0.0062
500.00,0.0060
499.00,0.0054
498.00,0.0048
497.00,0.0045
496.00,0.0046
495.00,0.0046
494.00,0.0041
493.00,0.0033
492.00,0.0027
491.00,0.0029
490.00,0.0036
489.00,0.0044
488.00,0.0049
487.00,0.0055
486.00,0.0062
485.00,0.0071
484.00,0.0080
483.00,0.0085
482.00,0.0084
481.00,0.0078
480.00,0.0071
479.00,0.0065
478.00,0.0059
477.00,0.0055
476.00,0.0054
475.00,0.0062
474.00,0.0073
473.00,0.0082
472.00,0.0082
471.00,0.0079
470.00,0.0076
469.00,0.0076
468.00,0.0077
467.00,0.0082
466.00,0.0091
465.00,0.0102
464.00,0.0114
463.00,0.0127
462.00,0.0137
461.00,0.0141
460.00,0.0139
459.00,0.0141
458.00,0.0149
457.00,0.0156
456.00,0.0154
455.00,0.0144
454.00,0.0134
453.00,0.0126
452.00,0.0116
451.00,0.0101
450.00,0.0085
