Created as New Dataset,Sample 108 By Administrator Date Tuesday, September 09 2025
cm-1,A
4000.00,0.0006
3999.00,0.0006
3998.00,0.0006
3997.00,0.0007
3996.00,0.0007
3995.00,0.0007
3994.00,0.0007
3993.00,0.0007
3992.00,0.0006
3991.00,0.0006
3990.00,0.0006
3989.00,0.0006
3988.00,0.0006
3987.00,0.0006
3986.00,0.0006
3985.00,0.0006
3984.00,0.0006
3983.00,0.0006
3982.00,0.0006
3981.00,0.0006
3980.00,0.0006
3979.00,0.0005
3978.00,0.0005
3977.00,0.0005
3976.00,0.0005
3975.00,0.0005
3974.00,0.0006
3973.00,0.0006
3972.00,0.0006
3971.00,0.0005
3970.00,0.0005
3969.00,0.0004
3968.00,0.0004
3967.00,0.0004
3966.00,0.0004
3965.00,0.0004
3964.00,0.0004
3963.00,0.0004
3962.00,0.0004
3961.00,0.0004
3960.00,0.0004
3959.00,0.0004
3958.00,0.0004
3957.00,0.0004
3956.00,0.0004
3955.00,0.0004
3954.00,0.0004
3953.00,0.0004
3952.00,0.0004
3951.00,0.0004
3950.00,0.0004
3949.00,0.0004
3948.00,0.0004
3947.00,0.0004
3946.00,0.0005
3945.00,0.0005
3944.00,0.0005
3943.00,0.0005
3942.00,0.0005
3941.00,0.0005
3940.00,0.0004
3939.00,0.0004
3938.00,0.0004
3937.00,0.0005
3936.00,0.0005
3935.00,0.0005
3934.00,0.0005
3933.00,0.0005
3932.00,0.0005
3931.00,0.0005
3930.00,0.0004
3929.00,0.0004
3928.00,0.0004
3927.00,0.0004
3926.00,0.0004
3925.00,0.0004
3924.00,0.0004
3923.00,0.0005
3922.00,0.0005
3921.00,0.0005
3920.00,0.0005
3919.00,0.0005
3918.00,0.0005
3917.00,0.0004
3916.00,0.0004
3915.00,0.0004
3914.00,0.0004
3913.00,0.0004
3912.00,0.0004
3911.00,0.0004
3910.00,0.0004
3909.00,0.0004
3908.00,0.0004
3907.00,0.0004
3906.00,0.0004
3905.00,0.0004
3904.00,0.0004
3903.00,0.0004
3902.00,0.0004
3901.00,0.0004
3900.00,0.0005
3899.00,0.0005
3898.00,0.0005
3897.00,0.0005
3896.00,0.0005
3895.00,0.0005
3894.00,0.0004
3893.00,0.0004
3892.00,0.0004
3891.00,0.0004
3890.00,0.0004
3889.00,0.0004
3888.00,0.0004
3887.00,0.0004
3886.00,0.0003
3885.00,0.0003
3884.00,0.0003
3883.00,0.0003
3882.00,0.0003
3881.00,0.0004
3880.00,0.0004
3879.00,0.0004
3878.00,0.0003
3877.00,0.0003
3876.00,0.0003
3875.00,0.0003
3874.00,0.0003
3873.00,0.0003
3872.00,0.0003
3871.00,0.0003
3870.00,0.0003
3869.00,0.0003
3868.00,0.0003
3867.00,0.0003
3866.00,0.0004
3865.00,0.0004
3864.00,0.0003
3863.00,0.0003
3862.00,0.0003
3861.00,0.0003
3860.00,0.0003
3859.00,0.0003
3858.00,0.0003
3857.00,0.0003
3856.00,0.0003
3855.00,0.0003
3854.00,0.0003
3853.00,0.0003
3852.00,0.0002
3851.00,0.0003
3850.00,0.0003
3849.00,0.0003
3848.00,0.0003
3847.00,0.0003
3846.00,0.0003
3845.00,0.0003
3844.00,0.0003
3843.00,0.0003
3842.00,0.0002
3841.00,0.0002
3840.00,0.0002
3839.00,0.0002
3838.00,0.0002
3837.00,0.0002
3836.00,0.0002
3835.00,0.0002
3834.00,0.0002
3833.00,0.0003
3832.00,0.0003
3831.00,0.0004
3830.00,0.0004
3829.00,0.0004
3828.00,0.0004
3827.00,0.0004
3826.00,0.0004
3825.00,0.0003
3824.00,0.0003
3823.00,0.0003
3822.00,0.0003
3821.00,0.0003
3820.00,0.0002
3819.00,0.0002
3818.00,0.0002
3817.00,0.0003
3816.00,0.0003
3815.00,0.0003
3814.00,0.0003
3813.00,0.0004
3812.00,0.0004
3811.00,0.0004
3810.00,0.0004
3809.00,0.0004
3808.00,0.0003
3807.00,0.0003
3806.00,0.0003
3805.00,0.0002
3804.00,0.0001
3803.00,0.0001
3802.00,0.0001
3801.00,0.0002
3800.00,0.0002
3799.00,0.0002
3798.00,0.0002
3797.00,0.0003
3796.00,0.0003
3795.00,0.0004
3794.00,0.0004
3793.00,0.0004
3792.00,0.0004
3791.00,0.0004
3790.00,0.0005
3789.00,0.0004
3788.00,0.0004
3787.00,0.0004
3786.00,0.0004
3785.00,0.0004
3784.00,0.0004
3783.00,0.0003
3782.00,0.0003
3781.00,0.0003
3780.00,0.0003
3779.00,0.0003
3778.00,0.0004
3777.00,0.0004
3776.00,0.0004
3775.00,0.0005
3774.00,0.0005
3773.00,0.0005
3772.00,0.0004
3771.00,0.0004
3770.00,0.0004
3769.00,0.0004
3768.00,0.0004
3767.00,0.0004
3766.00,0.0005
3765.00,0.0005
3764.00,0.0005
3763.00,0.0005
3762.00,0.0005
3761.00,0.0005
3760.00,0.0005
3759.00,0.0005
3758.00,0.0005
3757.00,0.0005
3756.00,0.0004
3755.00,0.0003
3754.00,0.0002
3753.00,0.0002
3752.00,0.0002
3751.00,0.0003
3750.00,0.0003
3749.00,0.0004
3748.00,0.0004
3747.00,0.0004
3746.00,0.0004
3745.00,0.0005
3744.00,0.0005
3743.00,0.0005
3742.00,0.0005
3741.00,0.0004
3740.00,0.0004
3739.00,0.0004
3738.00,0.0004
3737.00,0.0003
3736.00,0.0003
3735.00,0.0003
3734.00,0.0004
3733.00,0.0004
3732.00,0.0004
3731.00,0.0004
3730.00,0.0004
3729.00,0.0004
3728.00,0.0005
3727.00,0.0004
3726.00,0.0004
3725.00,0.0004
3724.00,0.0003
3723.00,0.0003
3722.00,0.0003
3721.00,0.0003
3720.00,0.0003
3719.00,0.0003
3718.00,0.0003
3717.00,0.0003
3716.00,0.0003
3715.00,0.0003
3714.00,0.0002
3713.00,0.0002
3712.00,0.0002
3711.00,0.0002
3710.00,0.0002
3709.00,0.0001
3708.00,0.0001
3707.00,0.0001
3706.00,0.0001
3705.00,0.0002
3704.00,0.0002
3703.00,0.0002
3702.00,0.0002
3701.00,0.0003
3700.00,0.0003
3699.00,0.0003
3698.00,0.0004
3697.00,0.0004
3696.00,0.0003
3695.00,0.0003
3694.00,0.0003
3693.00,0.0003
3692.00,0.0002
3691.00,0.0002
3690.00,0.0002
3689.00,0.0002
3688.00,0.0003
3687.00,0.0003
3686.00,0.0004
3685.00,0.0004
3684.00,0.0003
3683.00,0.0003
3682.00,0.0002
3681.00,0.0002
3680.00,0.0002
3679.00,0.0002
3678.00,0.0002
3677.00,0.0001
3676.00,0.0001
3675.00,0.0001
3674.00,0.0001
3673.00,0.0001
3672.00,0.0001
3671.00,0.0002
3670.00,0.0002
3669.00,0.0002
3668.00,0.0002
3667.00,0.0003
3666.00,0.0003
3665.00,0.0003
3664.00,0.0003
3663.00,0.0004
3662.00,0.0004
3661.00,0.0003
3660.00,0.0003
3659.00,0.0002
3658.00,0.0002
3657.00,0.0002
3656.00,0.0002
3655.00,0.0002
3654.00,0.0002
3653.00,0.0001
3652.00,0.0001
3651.00,0.0001
3650.00,0.0001
3649.00,0.0001
3648.00,0.0000
3647.00,0.0000
3646.00,0.0001
3645.00,0.0001
3644.00,0.0002
3643.00,0.0002
3642.00,0.0002
3641.00,0.0003
3640.00,0.0003
3639.00,0.0003
3638.00,0.0004
3637.00,0.0004
3636.00,0.0004
3635.00,0.0004
3634.00,0.0004
3633.00,0.0003
3632.00,0.0003
3631.00,0.0003
3630.00,0.0003
3629.00,0.0003
3628.00,0.0003
3627.00,0.0003
3626.00,0.0003
3625.00,0.0003
3624.00,0.0003
3623.00,0.0004
3622.00,0.0004
3621.00,0.0003
3620.00,0.0003
3619.00,0.0003
3618.00,0.0003
3617.00,0.0002
3616.00,0.0002
3615.00,0.0002
3614.00,0.0003
3613.00,0.0003
3612.00,0.0004
3611.00,0.0005
3610.00,0.0005
3609.00,0.0005
3608.00,0.0005
3607.00,0.0005
3606.00,0.0004
3605.00,0.0004
3604.00,0.0005
3603.00,0.0005
3602.00,0.0005
3601.00,0.0005
3600.00,0.0006
3599.00,0.0006
3598.00,0.0006
3597.00,0.0006
3596.00,0.0006
3595.00,0.0006
3594.00,0.0006
3593.00,0.0007
3592.00,0.0007
3591.00,0.0007
3590.00,0.0006
3589.00,0.0006
3588.00,0.0006
3587.00,0.0007
3586.00,0.0007
3585.00,0.0007
3584.00,0.0007
3583.00,0.0007
3582.00,0.0007
3581.00,0.0007
3580.00,0.0007
3579.00,0.0007
3578.00,0.0007
3577.00,0.0007
3576.00,0.0007
3575.00,0.0007
3574.00,0.0008
3573.00,0.0008
3572.00,0.0009
3571.00,0.0009
3570.00,0.0009
3569.00,0.0009
3568.00,0.0009
3567.00,0.0009
3566.00,0.0009
3565.00,0.0009
3564.00,0.0009
3563.00,0.0010
3562.00,0.0010
3561.00,0.0011
3560.00,0.0011
3559.00,0.0011
3558.00,0.0010
3557.00,0.0010
3556.00,0.0011
3555.00,0.0011
3554.00,0.0012
3553.00,0.0012
3552.00,0.0012
3551.00,0.0013
3550.00,0.0012
3549.00,0.0012
3548.00,0.0012
3547.00,0.0012
3546.00,0.0012
3545.00,0.0012
3544.00,0.0012
3543.00,0.0013
3542.00,0.0013
3541.00,0.0013
3540.00,0.0013
3539.00,0.0014
3538.00,0.0014
3537.00,0.0014
3536.00,0.0014
3535.00,0.0014
3534.00,0.0014
3533.00,0.0014
3532.00,0.0014
3531.00,0.0014
3530.00,0.0014
3529.00,0.0014
3528.00,0.0015
3527.00,0.0015
3526.00,0.0016
3525.00,0.0016
3524.00,0.0016
3523.00,0.0016
3522.00,0.0016
3521.00,0.0016
3520.00,0.0016
3519.00,0.0015
3518.00,0.0015
3517.00,0.0016
3516.00,0.0016
3515.00,0.0017
3514.00,0.0017
3513.00,0.0018
3512.00,0.0018
3511.00,0.0018
3510.00,0.0018
3509.00,0.0019
3508.00,0.0019
3507.00,0.0019
3506.00,0.0019
3505.00,0.0019
3504.00,0.0019
3503.00,0.0019
3502.00,0.0019
3501.00,0.0019
3500.00,0.0020
3499.00,0.0020
3498.00,0.0020
3497.00,0.0020
3496.00,0.0020
3495.00,0.0020
3494.00,0.0021
3493.00,0.0021
3492.00,0.0022
3491.00,0.0022
3490.00,0.0022
3489.00,0.0021
3488.00,0.0021
3487.00,0.0021
3486.00,0.0021
3485.00,0.0022
3484.00,0.0022
3483.00,0.0023
3482.00,0.0023
3481.00,0.0023
3480.00,0.0023
3479.00,0.0023
3478.00,0.0023
3477.00,0.0024
3476.00,0.0024
3475.00,0.0023
3474.00,0.0023
3473.00,0.0023
3472.00,0.0023
3471.00,0.0024
3470.00,0.0024
3469.00,0.0024
3468.00,0.0024
3467.00,0.0025
3466.00,0.0025
3465.00,0.0025
3464.00,0.0025
3463.00,0.0025
3462.00,0.0025
3461.00,0.0026
3460.00,0.0026
3459.00,0.0027
3458.00,0.0027
3457.00,0.0027
3456.00,0.0027
3455.00,0.0027
3454.00,0.0027
3453.00,0.0027
3452.00,0.0027
3451.00,0.0027
3450.00,0.0026
3449.00,0.0026
3448.00,0.0026
3447.00,0.0027
3446.00,0.0027
3445.00,0.0028
3444.00,0.0028
3443.00,0.0028
3442.00,0.0028
3441.00,0.0028
3440.00,0.0029
3439.00,0.0029
3438.00,0.0029
3437.00,0.0029
3436.00,0.0029
3435.00,0.0029
3434.00,0.0030
3433.00,0.0030
3432.00,0.0030
3431.00,0.0030
3430.00,0.0030
3429.00,0.0031
3428.00,0.0031
3427.00,0.0031
3426.00,0.0031
3425.00,0.0031
3424.00,0.0032
3423.00,0.0032
3422.00,0.0033
3421.00,0.0033
3420.00,0.0033
3419.00,0.0033
3418.00,0.0032
3417.00,0.0032
3416.00,0.0033
3415.00,0.0033
3414.00,0.0033
3413.00,0.0033
3412.00,0.0033
3411.00,0.0033
3410.00,0.0033
3409.00,0.0033
3408.00,0.0034
3407.00,0.0034
3406.00,0.0034
3405.00,0.0034
3404.00,0.0034
3403.00,0.0034
3402.00,0.0033
3401.00,0.0033
3400.00,0.0033
3399.00,0.0033
3398.00,0.0034
3397.00,0.0034
3396.00,0.0035
3395.00,0.0035
3394.00,0.0036
3393.00,0.0036
3392.00,0.0035
3391.00,0.0035
3390.00,0.0035
3389.00,0.0035
3388.00,0.0035
3387.00,0.0035
3386.00,0.0035
3385.00,0.0035
3384.00,0.0035
3383.00,0.0035
3382.00,0.0035
3381.00,0.0035
3380.00,0.0035
3379.00,0.0036
3378.00,0.0036
3377.00,0.0036
3376.00,0.0036
3375.00,0.0035
3374.00,0.0035
3373.00,0.0035
3372.00,0.0036
3371.00,0.0036
3370.00,0.0037
3369.00,0.0037
3368.00,0.0037
3367.00,0.0037
3366.00,0.0037
3365.00,0.0037
3364.00,0.0037
3363.00,0.0037
3362.00,0.0037
3361.00,0.0037
3360.00,0.0037
3359.00,0.0037
3358.00,0.0037
3357.00,0.0037
3356.00,0.0037
3355.00,0.0037
3354.00,0.0037
3353.00,0.0037
3352.00,0.0037
3351.00,0.0037
3350.00,0.0037
3349.00,0.0037
3348.00,0.0037
3347.00,0.0037
3346.00,0.0038
3345.00,0.0038
3344.00,0.0038
3343.00,0.0038
3342.00,0.0038
3341.00,0.0037
3340.00,0.0037
3339.00,0.0037
3338.00,0.0037
3337.00,0.0037
3336.00,0.0037
3335.00,0.0037
3334.00,0.0037
3333.00,0.0037
3332.00,0.0037
3331.00,0.0037
3330.00,0.0037
3329.00,0.0037
3328.00,0.0037
3327.00,0.0037
3326.00,0.0036
3325.00,0.0036
3324.00,0.0036
3323.00,0.0036
3322.00,0.0036
3321.00,0.0036
3320.00,0.0036
3319.00,0.0036
3318.00,0.0036
3317.00,0.0036
3316.00,0.0036
3315.00,0.0036
3314.00,0.0037
3313.00,0.0037
3312.00,0.0037
3311.00,0.0037
3310.00,0.0037
3309.00,0.0037
3308.00,0.0037
3307.00,0.0036
3306.00,0.0036
3305.00,0.0036
3304.00,0.0036
3303.00,0.0036
3302.00,0.0036
3301.00,0.0036
3300.00,0.0036
3299.00,0.0036
3298.00,0.0036
3297.00,0.0036
3296.00,0.0036
3295.00,0.0036
3294.00,0.0035
3293.00,0.0035
3292.00,0.0036
3291.00,0.0036
3290.00,0.0036
3289.00,0.0036
3288.00,0.0036
3287.00,0.0036
3286.00,0.0035
3285.00,0.0035
3284.00,0.0035
3283.00,0.0035
3282.00,0.0035
3281.00,0.0035
3280.00,0.0035
3279.00,0.0035
3278.00,0.0034
3277.00,0.0034
3276.00,0.0034
3275.00,0.0034
3274.00,0.0034
3273.00,0.0034
3272.00,0.0034
3271.00,0.0034
3270.00,0.0034
3269.00,0.0034
3268.00,0.0034
3267.00,0.0034
3266.00,0.0033
3265.00,0.0033
3264.00,0.0032
3263.00,0.0032
3262.00,0.0032
3261.00,0.0031
3260.00,0.0031
3259.00,0.0032
3258.00,0.0032
3257.00,0.0032
3256.00,0.0031
3255.00,0.0031
3254.00,0.0031
3253.00,0.0032
3252.00,0.0032
3251.00,0.0032
3250.00,0.0032
3249.00,0.0032
3248.00,0.0031
3247.00,0.0031
3246.00,0.0031
3245.00,0.0030
3244.00,0.0031
3243.00,0.0031
3242.00,0.0031
3241.00,0.0031
3240.00,0.0031
3239.00,0.0031
3238.00,0.0031
3237.00,0.0031
3236.00,0.0031
3235.00,0.0031
3234.00,0.0032
3233.00,0.0032
3232.00,0.0031
3231.00,0.0031
3230.00,0.0031
3229.00,0.0031
3228.00,0.0032
3227.00,0.0032
3226.00,0.0031
3225.00,0.0031
3224.00,0.0031
3223.00,0.0032
3222.00,0.0032
3221.00,0.0033
3220.00,0.0033
3219.00,0.0033
3218.00,0.0033
3217.00,0.0033
3216.00,0.0033
3215.00,0.0034
3214.00,0.0034
3213.00,0.0034
3212.00,0.0035
3211.00,0.0035
3210.00,0.0035
3209.00,0.0035
3208.00,0.0035
3207.00,0.0035
3206.00,0.0035
3205.00,0.0035
3204.00,0.0035
3203.00,0.0035
3202.00,0.0035
3201.00,0.0035
3200.00,0.0035
3199.00,0.0035
3198.00,0.0035
3197.00,0.0035
3196.00,0.0035
3195.00,0.0035
3194.00,0.0035
3193.00,0.0035
3192.00,0.0034
3191.00,0.0034
3190.00,0.0034
3189.00,0.0034
3188.00,0.0034
3187.00,0.0034
3186.00,0.0034
3185.00,0.0034
3184.00,0.0034
3183.00,0.0034
3182.00,0.0034
3181.00,0.0034
3180.00,0.0034
3179.00,0.0033
3178.00,0.0033
3177.00,0.0033
3176.00,0.0032
3175.00,0.0032
3174.00,0.0032
3173.00,0.0031
3172.00,0.0030
3171.00,0.0030
3170.00,0.0030
3169.00,0.0030
3168.00,0.0030
3167.00,0.0031
3166.00,0.0031
3165.00,0.0031
3164.00,0.0031
3163.00,0.0030
3162.00,0.0030
3161.00,0.0030
3160.00,0.0029
3159.00,0.0029
3158.00,0.0029
3157.00,0.0029
3156.00,0.0029
3155.00,0.0029
3154.00,0.0029
3153.00,0.0029
3152.00,0.0029
3151.00,0.0029
3150.00,0.0028
3149.00,0.0028
3148.00,0.0028
3147.00,0.0029
3146.00,0.0029
3145.00,0.0029
3144.00,0.0029
3143.00,0.0028
3142.00,0.0028
3141.00,0.0028
3140.00,0.0028
3139.00,0.0028
3138.00,0.0029
3137.00,0.0029
3136.00,0.0028
3135.00,0.0028
3134.00,0.0028
3133.00,0.0027
3132.00,0.0027
3131.00,0.0027
3130.00,0.0026
3129.00,0.0026
3128.00,0.0026
3127.00,0.0026
3126.00,0.0026
3125.00,0.0026
3124.00,0.0026
3123.00,0.0026
3122.00,0.0025
3121.00,0.0025
3120.00,0.0025
3119.00,0.0025
3118.00,0.0024
3117.00,0.0024
3116.00,0.0025
3115.00,0.0025
3114.00,0.0025
3113.00,0.0025
3112.00,0.0025
3111.00,0.0025
3110.00,0.0024
3109.00,0.0024
3108.00,0.0024
3107.00,0.0024
3106.00,0.0023
3105.00,0.0023
3104.00,0.0023
3103.00,0.0023
3102.00,0.0023
3101.00,0.0023
3100.00,0.0023
3099.00,0.0022
3098.00,0.0022
3097.00,0.0022
3096.00,0.0022
3095.00,0.0022
3094.00,0.0023
3093.00,0.0023
3092.00,0.0023
3091.00,0.0023
3090.00,0.0022
3089.00,0.0022
3088.00,0.0021
3087.00,0.0021
3086.00,0.0022
3085.00,0.0022
3084.00,0.0022
3083.00,0.0021
3082.00,0.0021
3081.00,0.0021
3080.00,0.0021
3079.00,0.0021
3078.00,0.0022
3077.00,0.0022
3076.00,0.0023
3075.00,0.0023
3074.00,0.0023
3073.00,0.0022
3072.00,0.0022
3071.00,0.0022
3070.00,0.0022
3069.00,0.0022
3068.00,0.0022
3067.00,0.0022
3066.00,0.0022
3065.00,0.0023
3064.00,0.0024
3063.00,0.0024
3062.00,0.0024
3061.00,0.0024
3060.00,0.0024
3059.00,0.0024
3058.00,0.0025
3057.00,0.0025
3056.00,0.0025
3055.00,0.0025
3054.00,0.0025
3053.00,0.0026
3052.00,0.0026
3051.00,0.0026
3050.00,0.0027
3049.00,0.0027
3048.00,0.0027
3047.00,0.0027
3046.00,0.0027
3045.00,0.0027
3044.00,0.0027
3043.00,0.0027
3042.00,0.0027
3041.00,0.0028
3040.00,0.0028
3039.00,0.0028
3038.00,0.0028
3037.00,0.0029
3036.00,0.0029
3035.00,0.0029
3034.00,0.0030
3033.00,0.0030
3032.00,0.0031
3031.00,0.0031
3030.00,0.0032
3029.00,0.0032
3028.00,0.0032
3027.00,0.0033
3026.00,0.0033
3025.00,0.0034
3024.00,0.0034
3023.00,0.0035
3022.00,0.0036
3021.00,0.0037
3020.00,0.0037
3019.00,0.0038
3018.00,0.0038
3017.00,0.0039
3016.00,0.0040
3015.00,0.0041
3014.00,0.0042
3013.00,0.0044
3012.00,0.0045
3011.00,0.0046
3010.00,0.0048
3009.00,0.0050
3008.00,0.0051
3007.00,0.0053
3006.00,0.0054
3005.00,0.0056
3004.00,0.0058
3003.00,0.0060
3002.00,0.0062
3001.00,0.0065
3000.00,0.0068
2999.00,0.0071
2998.00,0.0074
2997.00,0.0078
2996.00,0.0082
2995.00,0.0086
2994.00,0.0090
2993.00,0.0095
2992.00,0.0100
2991.00,0.0106
2990.00,0.0112
2989.00,0.0119
2988.00,0.0127
2987.00,0.0135
2986.00,0.0145
2985.00,0.0157
2984.00,0.0169
2983.00,0.0183
2982.00,0.0198
2981.00,0.0215
2980.00,0.0234
2979.00,0.0255
2978.00,0.0279
2977.00,0.0306
2976.00,0.0338
2975.00,0.0374
2974.00,0.0415
2973.00,0.0460
2972.00,0.0511
2971.00,0.0568
2970.00,0.0630
2969.00,0.0697
2968.00,0.0769
2967.00,0.0845
2966.00,0.0924
2965.00,0.1001
2964.00,0.1075
2963.00,0.1143
2962.00,0.1203
2961.00,0.1255
2960.00,0.1300
2959.00,0.1344
2958.00,0.1390
2957.00,0.1445
2956.00,0.1511
2955.00,0.1589
2954.00,0.1678
2953.00,0.1772
2952.00,0.1861
2951.00,0.1933
2950.00,0.1976
2949.00,0.1981
2948.00,0.1941
2947.00,0.1857
2946.00,0.1739
2945.00,0.1601
2944.00,0.1461
2943.00,0.1333
2942.00,0.1228
2941.00,0.1149
2940.00,0.1099
2939.00,0.1074
2938.00,0.1073
2937.00,0.1092
2936.00,0.1130
2935.00,0.1184
2934.00,0.1255
2933.00,0.1339
2932.00,0.1436
2931.00,0.1542
2930.00,0.1657
2929.00,0.1774
2928.00,0.1892
2927.00,0.2008
2926.00,0.2120
2925.00,0.2226
2924.00,0.2329
2923.00,0.2431
2922.00,0.2531
2921.00,0.2629
2920.00,0.2717
2919.00,0.2788
2918.00,0.2831
2917.00,0.2838
2916.00,0.2806
2915.00,0.2739
2914.00,0.2646
2913.00,0.2538
2912.00,0.2424
2911.00,0.2312
2910.00,0.2207
2909.00,0.2109
2908.00,0.2017
2907.00,0.1929
2906.00,0.1846
2905.00,0.1764
2904.00,0.1684
2903.00,0.1607
2902.00,0.1532
2901.00,0.1460
2900.00,0.1391
2899.00,0.1328
2898.00,0.1269
2897.00,0.1217
2896.00,0.1171
2895.00,0.1132
2894.00,0.1101
2893.00,0.1077
2892.00,0.1059
2891.00,0.1049
2890.00,0.1044
2889.00,0.1045
2888.00,0.1050
2887.00,0.1058
2886.00,0.1071
2885.00,0.1088
2884.00,0.1110
2883.00,0.1137
2882.00,0.1169
2881.00,0.1205
2880.00,0.1242
2879.00,0.1274
2878.00,0.1297
2877.00,0.1309
2876.00,0.1309
2875.00,0.1301
2874.00,0.1293
2873.00,0.1288
2872.00,0.1292
2871.00,0.1304
2870.00,0.1325
2869.00,0.1347
2868.00,0.1363
2867.00,0.1363
2866.00,0.1337
2865.00,0.1281
2864.00,0.1197
2863.00,0.1096
2862.00,0.0988
2861.00,0.0886
2860.00,0.0796
2859.00,0.0723
2858.00,0.0667
2857.00,0.0625
2856.00,0.0595
2855.00,0.0576
2854.00,0.0564
2853.00,0.0559
2852.00,0.0561
2851.00,0.0570
2850.00,0.0587
2849.00,0.0613
2848.00,0.0650
2847.00,0.0696
2846.00,0.0752
2845.00,0.0817
2844.00,0.0887
2843.00,0.0962
2842.00,0.1038
2841.00,0.1110
2840.00,0.1170
2839.00,0.1211
2838.00,0.1223
2837.00,0.1202
2836.00,0.1145
2835.00,0.1059
2834.00,0.0954
2833.00,0.0842
2832.00,0.0734
2831.00,0.0637
2830.00,0.0555
2829.00,0.0487
2828.00,0.0433
2827.00,0.0389
2826.00,0.0354
2825.00,0.0325
2824.00,0.0301
2823.00,0.0282
2822.00,0.0265
2821.00,0.0251
2820.00,0.0239
2819.00,0.0228
2818.00,0.0219
2817.00,0.0210
2816.00,0.0203
2815.00,0.0197
2814.00,0.0191
2813.00,0.0185
2812.00,0.0180
2811.00,0.0174
2810.00,0.0168
2809.00,0.0162
2808.00,0.0155
2807.00,0.0149
2806.00,0.0142
2805.00,0.0135
2804.00,0.0129
2803.00,0.0123
2802.00,0.0117
2801.00,0.0112
2800.00,0.0108
2799.00,0.0105
2798.00,0.0102
2797.00,0.0100
2796.00,0.0097
2795.00,0.0095
2794.00,0.0092
2793.00,0.0090
2792.00,0.0087
2791.00,0.0085
2790.00,0.0082
2789.00,0.0079
2788.00,0.0076
2787.00,0.0074
2786.00,0.0071
2785.00,0.0069
2784.00,0.0067
2783.00,0.0066
2782.00,0.0064
2781.00,0.0062
2780.00,0.0060
2779.00,0.0058
2778.00,0.0057
2777.00,0.0056
2776.00,0.0054
2775.00,0.0054
2774.00,0.0053
2773.00,0.0052
2772.00,0.0052
2771.00,0.0052
2770.00,0.0051
2769.00,0.0051
2768.00,0.0051
2767.00,0.0051
2766.00,0.0050
2765.00,0.0050
2764.00,0.0050
2763.00,0.0049
2762.00,0.0049
2761.00,0.0049
2760.00,0.0048
2759.00,0.0048
2758.00,0.0047
2757.00,0.0047
2756.00,0.0047
2755.00,0.0047
2754.00,0.0047
2753.00,0.0047
2752.00,0.0047
2751.00,0.0047
2750.00,0.0047
2749.00,0.0047
2748.00,0.0047
2747.00,0.0047
2746.00,0.0048
2745.00,0.0049
2744.00,0.0050
2743.00,0.0051
2742.00,0.0051
2741.00,0.0052
2740.00,0.0054
2739.00,0.0055
2738.00,0.0057
2737.00,0.0058
2736.00,0.0060
2735.00,0.0062
2734.00,0.0064
2733.00,0.0066
2732.00,0.0068
2731.00,0.0070
2730.00,0.0072
2729.00,0.0075
2728.00,0.0077
2727.00,0.0081
2726.00,0.0084
2725.00,0.0086
2724.00,0.0088
2723.00,0.0088
2722.00,0.0087
2721.00,0.0085
2720.00,0.0082
2719.00,0.0079
2718.00,0.0075
2717.00,0.0072
2716.00,0.0069
2715.00,0.0066
2714.00,0.0063
2713.00,0.0061
2712.00,0.0058
2711.00,0.0056
2710.00,0.0054
2709.00,0.0052
2708.00,0.0050
2707.00,0.0049
2706.00,0.0048
2705.00,0.0047
2704.00,0.0045
2703.00,0.0044
2702.00,0.0043
2701.00,0.0043
2700.00,0.0042
2699.00,0.0042
2698.00,0.0042
2697.00,0.0041
2696.00,0.0041
2695.00,0.0041
2694.00,0.0040
2693.00,0.0041
2692.00,0.0041
2691.00,0.0041
2690.00,0.0040
2689.00,0.0040
2688.00,0.0040
2687.00,0.0040
2686.00,0.0040
2685.00,0.0040
2684.00,0.0040
2683.00,0.0040
2682.00,0.0040
2681.00,0.0041
2680.00,0.0041
2679.00,0.0041
2678.00,0.0041
2677.00,0.0041
2676.00,0.0041
2675.00,0.0041
2674.00,0.0041
2673.00,0.0041
2672.00,0.0041
2671.00,0.0041
2670.00,0.0040
2669.00,0.0040
2668.00,0.0040
2667.00,0.0041
2666.00,0.0041
2665.00,0.0042
2664.00,0.0042
2663.00,0.0043
2662.00,0.0043
2661.00,0.0043
2660.00,0.0044
2659.00,0.0044
2658.00,0.0044
2657.00,0.0043
2656.00,0.0043
2655.00,0.0042
2654.00,0.0042
2653.00,0.0041
2652.00,0.0041
2651.00,0.0040
2650.00,0.0040
2649.00,0.0039
2648.00,0.0039
2647.00,0.0038
2646.00,0.0038
2645.00,0.0038
2644.00,0.0038
2643.00,0.0037
2642.00,0.0037
2641.00,0.0036
2640.00,0.0036
2639.00,0.0035
2638.00,0.0035
2637.00,0.0034
2636.00,0.0034
2635.00,0.0034
2634.00,0.0034
2633.00,0.0034
2632.00,0.0035
2631.00,0.0035
2630.00,0.0034
2629.00,0.0034
2628.00,0.0034
2627.00,0.0035
2626.00,0.0035
2625.00,0.0036
2624.00,0.0036
2623.00,0.0036
2622.00,0.0036
2621.00,0.0036
2620.00,0.0036
2619.00,0.0036
2618.00,0.0036
2617.00,0.0037
2616.00,0.0037
2615.00,0.0037
2614.00,0.0037
2613.00,0.0037
2612.00,0.0036
2611.00,0.0036
2610.00,0.0035
2609.00,0.0034
2608.00,0.0033
2607.00,0.0033
2606.00,0.0032
2605.00,0.0031
2604.00,0.0031
2603.00,0.0030
2602.00,0.0029
2601.00,0.0029
2600.00,0.0029
2599.00,0.0029
2598.00,0.0030
2597.00,0.0030
2596.00,0.0031
2595.00,0.0031
2594.00,0.0031
2593.00,0.0031
2592.00,0.0031
2591.00,0.0032
2590.00,0.0032
2589.00,0.0033
2588.00,0.0034
2587.00,0.0035
2586.00,0.0036
2585.00,0.0037
2584.00,0.0037
2583.00,0.0037
2582.00,0.0037
2581.00,0.0037
2580.00,0.0037
2579.00,0.0036
2578.00,0.0036
2577.00,0.0035
2576.00,0.0035
2575.00,0.0034
2574.00,0.0032
2573.00,0.0031
2572.00,0.0029
2571.00,0.0028
2570.00,0.0027
2569.00,0.0026
2568.00,0.0026
2567.00,0.0025
2566.00,0.0024
2565.00,0.0024
2564.00,0.0023
2563.00,0.0023
2562.00,0.0022
2561.00,0.0021
2560.00,0.0021
2559.00,0.0020
2558.00,0.0020
2557.00,0.0020
2556.00,0.0020
2555.00,0.0020
2554.00,0.0020
2553.00,0.0019
2552.00,0.0019
2551.00,0.0019
2550.00,0.0019
2549.00,0.0018
2548.00,0.0018
2547.00,0.0017
2546.00,0.0017
2545.00,0.0016
2544.00,0.0015
2543.00,0.0014
2542.00,0.0014
2541.00,0.0013
2540.00,0.0013
2539.00,0.0014
2538.00,0.0014
2537.00,0.0014
2536.00,0.0014
2535.00,0.0013
2534.00,0.0013
2533.00,0.0013
2532.00,0.0013
2531.00,0.0013
2530.00,0.0012
2529.00,0.0012
2528.00,0.0012
2527.00,0.0012
2526.00,0.0011
2525.00,0.0011
2524.00,0.0011
2523.00,0.0010
2522.00,0.0010
2521.00,0.0010
2520.00,0.0010
2519.00,0.0009
2518.00,0.0009
2517.00,0.0009
2516.00,0.0009
2515.00,0.0008
2514.00,0.0008
2513.00,0.0008
2512.00,0.0008
2511.00,0.0008
2510.00,0.0008
2509.00,0.0008
2508.00,0.0008
2507.00,0.0008
2506.00,0.0008
2505.00,0.0008
2504.00,0.0008
2503.00,0.0008
2502.00,0.0007
2501.00,0.0007
2500.00,0.0007
2499.00,0.0007
2498.00,0.0007
2497.00,0.0007
2496.00,0.0007
2495.00,0.0007
2494.00,0.0008
2493.00,0.0008
2492.00,0.0009
2491.00,0.0009
2490.00,0.0009
2489.00,0.0009
2488.00,0.0009
2487.00,0.0009
2486.00,0.0009
2485.00,0.0009
2484.00,0.0009
2483.00,0.0008
2482.00,0.0008
2481.00,0.0008
2480.00,0.0008
2479.00,0.0008
2478.00,0.0007
2477.00,0.0007
2476.00,0.0008
2475.00,0.0008
2474.00,0.0008
2473.00,0.0007
2472.00,0.0007
2471.00,0.0006
2470.00,0.0006
2469.00,0.0006
2468.00,0.0006
2467.00,0.0006
2466.00,0.0006
2465.00,0.0007
2464.00,0.0007
2463.00,0.0007
2462.00,0.0007
2461.00,0.0008
2460.00,0.0008
2459.00,0.0009
2458.00,0.0009
2457.00,0.0010
2456.00,0.0010
2455.00,0.0010
2454.00,0.0009
2453.00,0.0009
2452.00,0.0009
2451.00,0.0010
2450.00,0.0010
2449.00,0.0010
2448.00,0.0009
2447.00,0.0008
2446.00,0.0007
2445.00,0.0007
2444.00,0.0007
2443.00,0.0008
2442.00,0.0008
2441.00,0.0009
2440.00,0.0009
2439.00,0.0009
2438.00,0.0009
2437.00,0.0009
2436.00,0.0009
2435.00,0.0009
2434.00,0.0009
2433.00,0.0009
2432.00,0.0009
2431.00,0.0009
2430.00,0.0010
2429.00,0.0010
2428.00,0.0010
2427.00,0.0010
2426.00,0.0010
2425.00,0.0011
2424.00,0.0011
2423.00,0.0010
2422.00,0.0010
2421.00,0.0009
2420.00,0.0008
2419.00,0.0008
2418.00,0.0008
2417.00,0.0008
2416.00,0.0008
2415.00,0.0009
2414.00,0.0008
2413.00,0.0008
2412.00,0.0008
2411.00,0.0007
2410.00,0.0007
2409.00,0.0007
2408.00,0.0007
2407.00,0.0007
2406.00,0.0006
2405.00,0.0006
2404.00,0.0007
2403.00,0.0007
2402.00,0.0007
2401.00,0.0007
2400.00,0.0007
2399.00,0.0007
2398.00,0.0007
2397.00,0.0007
2396.00,0.0007
2395.00,0.0006
2394.00,0.0006
2393.00,0.0007
2392.00,0.0007
2391.00,0.0007
2390.00,0.0007
2389.00,0.0007
2388.00,0.0007
2387.00,0.0008
2386.00,0.0009
2385.00,0.0010
2384.00,0.0010
2383.00,0.0010
2382.00,0.0010
2381.00,0.0008
2380.00,0.0007
2379.00,0.0006
2378.00,0.0005
2377.00,0.0005
2376.00,0.0004
2375.00,0.0004
2374.00,0.0003
2373.00,0.0003
2372.00,0.0003
2371.00,0.0002
2370.00,0.0002
2369.00,0.0002
2368.00,0.0002
2367.00,0.0003
2366.00,0.0004
2365.00,0.0005
2364.00,0.0005
2363.00,0.0006
2362.00,0.0008
2361.00,0.0009
2360.00,0.0009
2359.00,0.0008
2358.00,0.0007
2357.00,0.0005
2356.00,0.0004
2355.00,0.0004
2354.00,0.0005
2353.00,0.0005
2352.00,0.0005
2351.00,0.0005
2350.00,0.0005
2349.00,0.0004
2348.00,0.0003
2347.00,0.0003
2346.00,0.0003
2345.00,0.0004
2344.00,0.0005
2343.00,0.0005
2342.00,0.0004
2341.00,0.0003
2340.00,0.0003
2339.00,0.0004
2338.00,0.0006
2337.00,0.0006
2336.00,0.0006
2335.00,0.0006
2334.00,0.0005
2333.00,0.0004
2332.00,0.0005
2331.00,0.0006
2330.00,0.0008
2329.00,0.0011
2328.00,0.0014
2327.00,0.0017
2326.00,0.0020
2325.00,0.0023
2324.00,0.0024
2323.00,0.0024
2322.00,0.0022
2321.00,0.0021
2320.00,0.0019
2319.00,0.0018
2318.00,0.0017
2317.00,0.0016
2316.00,0.0016
2315.00,0.0015
2314.00,0.0016
2313.00,0.0017
2312.00,0.0018
2311.00,0.0020
2310.00,0.0021
2309.00,0.0021
2308.00,0.0020
2307.00,0.0019
2306.00,0.0019
2305.00,0.0018
2304.00,0.0018
2303.00,0.0018
2302.00,0.0019
2301.00,0.0020
2300.00,0.0020
2299.00,0.0020
2298.00,0.0020
2297.00,0.0020
2296.00,0.0019
2295.00,0.0019
2294.00,0.0019
2293.00,0.0019
2292.00,0.0019
2291.00,0.0020
2290.00,0.0019
2289.00,0.0019
2288.00,0.0019
2287.00,0.0019
2286.00,0.0019
2285.00,0.0019
2284.00,0.0018
2283.00,0.0018
2282.00,0.0018
2281.00,0.0017
2280.00,0.0017
2279.00,0.0016
2278.00,0.0015
2277.00,0.0014
2276.00,0.0014
2275.00,0.0014
2274.00,0.0014
2273.00,0.0013
2272.00,0.0013
2271.00,0.0013
2270.00,0.0012
2269.00,0.0012
2268.00,0.0012
2267.00,0.0011
2266.00,0.0011
2265.00,0.0011
2264.00,0.0011
2263.00,0.0010
2262.00,0.0010
2261.00,0.0010
2260.00,0.0011
2259.00,0.0012
2258.00,0.0011
2257.00,0.0010
2256.00,0.0009
2255.00,0.0008
2254.00,0.0008
2253.00,0.0008
2252.00,0.0008
2251.00,0.0009
2250.00,0.0009
2249.00,0.0010
2248.00,0.0010
2247.00,0.0010
2246.00,0.0010
2245.00,0.0011
2244.00,0.0010
2243.00,0.0009
2242.00,0.0008
2241.00,0.0008
2240.00,0.0008
2239.00,0.0008
2238.00,0.0008
2237.00,0.0009
2236.00,0.0010
2235.00,0.0010
2234.00,0.0009
2233.00,0.0007
2232.00,0.0005
2231.00,0.0004
2230.00,0.0004
2229.00,0.0006
2228.00,0.0008
2227.00,0.0009
2226.00,0.0009
2225.00,0.0009
2224.00,0.0009
2223.00,0.0009
2222.00,0.0008
2221.00,0.0009
2220.00,0.0009
2219.00,0.0010
2218.00,0.0010
2217.00,0.0011
2216.00,0.0011
2215.00,0.0011
2214.00,0.0010
2213.00,0.0008
2212.00,0.0006
2211.00,0.0005
2210.00,0.0004
2209.00,0.0004
2208.00,0.0004
2207.00,0.0004
2206.00,0.0004
2205.00,0.0003
2204.00,0.0003
2203.00,0.0002
2202.00,0.0002
2201.00,0.0003
2200.00,0.0004
2199.00,0.0005
2198.00,0.0005
2197.00,0.0006
2196.00,0.0007
2195.00,0.0007
2194.00,0.0008
2193.00,0.0009
2192.00,0.0011
2191.00,0.0013
2190.00,0.0014
2189.00,0.0015
2188.00,0.0014
2187.00,0.0014
2186.00,0.0012
2185.00,0.0010
2184.00,0.0006
2183.00,0.0003
2182.00,0.0002
2181.00,0.0002
2180.00,0.0004
2179.00,0.0007
2178.00,0.0010
2177.00,0.0013
2176.00,0.0013
2175.00,0.0013
2174.00,0.0012
2173.00,0.0011
2172.00,0.0011
2171.00,0.0011
2170.00,0.0011
2169.00,0.0012
2168.00,0.0014
2167.00,0.0015
2166.00,0.0014
2165.00,0.0013
2164.00,0.0012
2163.00,0.0013
2162.00,0.0012
2161.00,0.0007
2160.00,-0.0005
2159.00,-0.0019
2158.00,-0.0029
2157.00,-0.0032
2156.00,-0.0030
2155.00,-0.0027
2154.00,-0.0025
2153.00,-0.0023
2152.00,-0.0020
2151.00,-0.0017
2150.00,-0.0015
2149.00,-0.0014
2148.00,-0.0014
2147.00,-0.0015
2146.00,-0.0018
2145.00,-0.0020
2144.00,-0.0020
2143.00,-0.0018
2142.00,-0.0015
2141.00,-0.0012
2140.00,-0.0009
2139.00,-0.0009
2138.00,-0.0009
2137.00,-0.0011
2136.00,-0.0013
2135.00,-0.0016
2134.00,-0.0018
2133.00,-0.0018
2132.00,-0.0016
2131.00,-0.0014
2130.00,-0.0013
2129.00,-0.0012
2128.00,-0.0012
2127.00,-0.0011
2126.00,-0.0010
2125.00,-0.0009
2124.00,-0.0009
2123.00,-0.0009
2122.00,-0.0009
2121.00,-0.0008
2120.00,-0.0006
2119.00,-0.0004
2118.00,-0.0003
2117.00,-0.0002
2116.00,-0.0001
2115.00,-0.0001
2114.00,-0.0000
2113.00,-0.0000
2112.00,-0.0001
2111.00,-0.0001
2110.00,-0.0001
2109.00,-0.0001
2108.00,-0.0000
2107.00,0.0000
2106.00,0.0000
2105.00,-0.0000
2104.00,-0.0001
2103.00,-0.0002
2102.00,-0.0003
2101.00,-0.0003
2100.00,-0.0003
2099.00,-0.0002
2098.00,-0.0001
2097.00,-0.0002
2096.00,-0.0003
2095.00,-0.0004
2094.00,-0.0004
2093.00,-0.0003
2092.00,-0.0001
2091.00,0.0000
2090.00,0.0000
2089.00,0.0000
2088.00,-0.0000
2087.00,-0.0000
2086.00,-0.0000
2085.00,0.0001
2084.00,0.0002
2083.00,0.0003
2082.00,0.0004
2081.00,0.0004
2080.00,0.0004
2079.00,0.0003
2078.00,0.0002
2077.00,0.0002
2076.00,0.0002
2075.00,0.0001
2074.00,0.0001
2073.00,0.0000
2072.00,-0.0000
2071.00,-0.0000
2070.00,0.0001
2069.00,0.0002
2068.00,0.0003
2067.00,0.0004
2066.00,0.0004
2065.00,0.0003
2064.00,0.0001
2063.00,-0.0001
2062.00,-0.0003
2061.00,-0.0005
2060.00,-0.0005
2059.00,-0.0006
2058.00,-0.0005
2057.00,-0.0004
2056.00,-0.0002
2055.00,-0.0002
2054.00,-0.0000
2053.00,0.0003
2052.00,0.0007
2051.00,0.0010
2050.00,0.0010
2049.00,0.0008
2048.00,0.0005
2047.00,0.0004
2046.00,0.0003
2045.00,0.0002
2044.00,0.0001
2043.00,-0.0000
2042.00,-0.0001
2041.00,-0.0000
2040.00,0.0001
2039.00,0.0003
2038.00,0.0005
2037.00,0.0005
2036.00,0.0005
2035.00,0.0004
2034.00,0.0002
2033.00,0.0001
2032.00,-0.0000
2031.00,-0.0002
2030.00,-0.0005
2029.00,-0.0009
2028.00,-0.0013
2027.00,-0.0015
2026.00,-0.0016
2025.00,-0.0014
2024.00,-0.0011
2023.00,-0.0010
2022.00,-0.0011
2021.00,-0.0012
2020.00,-0.0014
2019.00,-0.0014
2018.00,-0.0013
2017.00,-0.0012
2016.00,-0.0011
2015.00,-0.0012
2014.00,-0.0013
2013.00,-0.0013
2012.00,-0.0012
2011.00,-0.0011
2010.00,-0.0009
2009.00,-0.0008
2008.00,-0.0008
2007.00,-0.0010
2006.00,-0.0014
2005.00,-0.0018
2004.00,-0.0020
2003.00,-0.0018
2002.00,-0.0015
2001.00,-0.0011
2000.00,-0.0007
1999.00,-0.0006
1998.00,-0.0005
1997.00,-0.0004
1996.00,-0.0004
1995.00,-0.0004
1994.00,-0.0003
1993.00,-0.0003
1992.00,-0.0002
1991.00,-0.0002
1990.00,-0.0001
1989.00,0.0000
1988.00,-0.0000
1987.00,-0.0002
1986.00,-0.0005
1985.00,-0.0007
1984.00,-0.0007
1983.00,-0.0006
1982.00,-0.0002
1981.00,0.0003
1980.00,0.0006
1979.00,0.0005
1978.00,0.0000
1977.00,-0.0006
1976.00,-0.0010
1975.00,-0.0015
1974.00,-0.0019
1973.00,-0.0022
1972.00,-0.0023
1971.00,-0.0023
1970.00,-0.0020
1969.00,-0.0018
1968.00,-0.0017
1967.00,-0.0017
1966.00,-0.0017
1965.00,-0.0017
1964.00,-0.0016
1963.00,-0.0015
1962.00,-0.0014
1961.00,-0.0014
1960.00,-0.0017
1959.00,-0.0020
1958.00,-0.0023
1957.00,-0.0022
1956.00,-0.0019
1955.00,-0.0014
1954.00,-0.0010
1953.00,-0.0009
1952.00,-0.0010
1951.00,-0.0013
1950.00,-0.0015
1949.00,-0.0014
1948.00,-0.0012
1947.00,-0.0010
1946.00,-0.0008
1945.00,-0.0008
1944.00,-0.0009
1943.00,-0.0010
1942.00,-0.0010
1941.00,-0.0010
1940.00,-0.0010
1939.00,-0.0011
1938.00,-0.0012
1937.00,-0.0014
1936.00,-0.0014
1935.00,-0.0014
1934.00,-0.0013
1933.00,-0.0012
1932.00,-0.0012
1931.00,-0.0011
1930.00,-0.0010
1929.00,-0.0009
1928.00,-0.0008
1927.00,-0.0008
1926.00,-0.0008
1925.00,-0.0008
1924.00,-0.0007
1923.00,-0.0006
1922.00,-0.0005
1921.00,-0.0004
1920.00,-0.0003
1919.00,-0.0003
1918.00,-0.0004
1917.00,-0.0004
1916.00,-0.0003
1915.00,-0.0003
1914.00,-0.0003
1913.00,-0.0003
1912.00,-0.0003
1911.00,-0.0003
1910.00,-0.0003
1909.00,-0.0003
1908.00,-0.0003
1907.00,-0.0004
1906.00,-0.0005
1905.00,-0.0005
1904.00,-0.0005
1903.00,-0.0005
1902.00,-0.0005
1901.00,-0.0004
1900.00,-0.0004
1899.00,-0.0004
1898.00,-0.0003
1897.00,-0.0003
1896.00,-0.0002
1895.00,-0.0002
1894.00,-0.0002
1893.00,-0.0002
1892.00,-0.0002
1891.00,-0.0002
1890.00,-0.0003
1889.00,-0.0002
1888.00,-0.0001
1887.00,-0.0001
1886.00,-0.0002
1885.00,-0.0003
1884.00,-0.0003
1883.00,-0.0004
1882.00,-0.0004
1881.00,-0.0003
1880.00,-0.0003
1879.00,-0.0003
1878.00,-0.0004
1877.00,-0.0003
1876.00,-0.0003
1875.00,-0.0002
1874.00,-0.0002
1873.00,-0.0002
1872.00,-0.0003
1871.00,-0.0003
1870.00,-0.0004
1869.00,-0.0003
1868.00,-0.0003
1867.00,-0.0003
1866.00,-0.0003
1865.00,-0.0002
1864.00,-0.0002
1863.00,-0.0002
1862.00,-0.0002
1861.00,-0.0002
1860.00,-0.0002
1859.00,-0.0003
1858.00,-0.0003
1857.00,-0.0003
1856.00,-0.0002
1855.00,-0.0002
1854.00,-0.0001
1853.00,-0.0001
1852.00,-0.0001
1851.00,-0.0001
1850.00,-0.0001
1849.00,-0.0001
1848.00,-0.0001
1847.00,-0.0000
1846.00,-0.0000
1845.00,-0.0000
1844.00,-0.0000
1843.00,-0.0000
1842.00,-0.0000
1841.00,0.0000
1840.00,0.0001
1839.00,0.0001
1838.00,0.0001
1837.00,0.0002
1836.00,0.0002
1835.00,0.0002
1834.00,0.0002
1833.00,0.0002
1832.00,0.0002
1831.00,0.0003
1830.00,0.0003
1829.00,0.0003
1828.00,0.0003
1827.00,0.0002
1826.00,0.0001
1825.00,0.0000
1824.00,0.0001
1823.00,0.0001
1822.00,0.0002
1821.00,0.0002
1820.00,0.0001
1819.00,-0.0000
1818.00,-0.0002
1817.00,-0.0003
1816.00,-0.0003
1815.00,-0.0003
1814.00,-0.0002
1813.00,-0.0001
1812.00,-0.0001
1811.00,0.0000
1810.00,0.0001
1809.00,0.0001
1808.00,0.0001
1807.00,0.0002
1806.00,0.0002
1805.00,0.0002
1804.00,0.0002
1803.00,0.0001
1802.00,0.0001
1801.00,0.0001
1800.00,0.0001
1799.00,0.0002
1798.00,0.0003
1797.00,0.0003
1796.00,0.0004
1795.00,0.0003
1794.00,0.0003
1793.00,0.0003
1792.00,0.0003
1791.00,0.0003
1790.00,0.0003
1789.00,0.0003
1788.00,0.0003
1787.00,0.0003
1786.00,0.0003
1785.00,0.0003
1784.00,0.0003
1783.00,0.0003
1782.00,0.0003
1781.00,0.0003
1780.00,0.0003
1779.00,0.0002
1778.00,0.0001
1777.00,0.0001
1776.00,-0.0000
1775.00,-0.0001
1774.00,-0.0001
1773.00,-0.0001
1772.00,-0.0001
1771.00,-0.0000
1770.00,0.0000
1769.00,0.0001
1768.00,0.0002
1767.00,0.0002
1766.00,0.0002
1765.00,0.0002
1764.00,0.0002
1763.00,0.0003
1762.00,0.0004
1761.00,0.0005
1760.00,0.0006
1759.00,0.0006
1758.00,0.0006
1757.00,0.0006
1756.00,0.0005
1755.00,0.0005
1754.00,0.0004
1753.00,0.0004
1752.00,0.0004
1751.00,0.0004
1750.00,0.0004
1749.00,0.0003
1748.00,0.0003
1747.00,0.0003
1746.00,0.0004
1745.00,0.0004
1744.00,0.0004
1743.00,0.0003
1742.00,0.0003
1741.00,0.0003
1740.00,0.0002
1739.00,0.0002
1738.00,0.0002
1737.00,0.0002
1736.00,0.0001
1735.00,0.0001
1734.00,0.0001
1733.00,0.0001
1732.00,0.0001
1731.00,0.0002
1730.00,0.0002
1729.00,0.0003
1728.00,0.0003
1727.00,0.0003
1726.00,0.0003
1725.00,0.0003
1724.00,0.0003
1723.00,0.0003
1722.00,0.0003
1721.00,0.0004
1720.00,0.0005
1719.00,0.0006
1718.00,0.0007
1717.00,0.0007
1716.00,0.0007
1715.00,0.0008
1714.00,0.0008
1713.00,0.0009
1712.00,0.0009
1711.00,0.0009
1710.00,0.0009
1709.00,0.0009
1708.00,0.0010
1707.00,0.0011
1706.00,0.0011
1705.00,0.0012
1704.00,0.0013
1703.00,0.0013
1702.00,0.0014
1701.00,0.0015
1700.00,0.0016
1699.00,0.0018
1698.00,0.0018
1697.00,0.0018
1696.00,0.0019
1695.00,0.0021
1694.00,0.0022
1693.00,0.0023
1692.00,0.0024
1691.00,0.0024
1690.00,0.0025
1689.00,0.0026
1688.00,0.0026
1687.00,0.0026
1686.00,0.0026
1685.00,0.0027
1684.00,0.0030
1683.00,0.0031
1682.00,0.0033
1681.00,0.0034
1680.00,0.0035
1679.00,0.0036
1678.00,0.0037
1677.00,0.0038
1676.00,0.0038
1675.00,0.0039
1674.00,0.0039
1673.00,0.0039
1672.00,0.0040
1671.00,0.0041
1670.00,0.0042
1669.00,0.0042
1668.00,0.0043
1667.00,0.0043
1666.00,0.0044
1665.00,0.0044
1664.00,0.0045
1663.00,0.0046
1662.00,0.0046
1661.00,0.0047
1660.00,0.0047
1659.00,0.0047
1658.00,0.0047
1657.00,0.0048
1656.00,0.0049
1655.00,0.0049
1654.00,0.0050
1653.00,0.0050
1652.00,0.0050
1651.00,0.0050
1650.00,0.0051
1649.00,0.0051
1648.00,0.0051
1647.00,0.0051
1646.00,0.0051
1645.00,0.0051
1644.00,0.0051
1643.00,0.0052
1642.00,0.0052
1641.00,0.0052
1640.00,0.0052
1639.00,0.0052
1638.00,0.0051
1637.00,0.0050
1636.00,0.0050
1635.00,0.0050
1634.00,0.0050
1633.00,0.0050
1632.00,0.0050
1631.00,0.0050
1630.00,0.0050
1629.00,0.0050
1628.00,0.0050
1627.00,0.0049
1626.00,0.0049
1625.00,0.0049
1624.00,0.0048
1623.00,0.0047
1622.00,0.0047
1621.00,0.0046
1620.00,0.0046
1619.00,0.0045
1618.00,0.0045
1617.00,0.0045
1616.00,0.0044
1615.00,0.0044
1614.00,0.0043
1613.00,0.0042
1612.00,0.0042
1611.00,0.0041
1610.00,0.0040
1609.00,0.0040
1608.00,0.0039
1607.00,0.0039
1606.00,0.0040
1605.00,0.0040
1604.00,0.0041
1603.00,0.0041
1602.00,0.0041
1601.00,0.0042
1600.00,0.0041
1599.00,0.0041
1598.00,0.0041
1597.00,0.0041
1596.00,0.0042
1595.00,0.0042
1594.00,0.0041
1593.00,0.0041
1592.00,0.0041
1591.00,0.0041
1590.00,0.0041
1589.00,0.0042
1588.00,0.0043
1587.00,0.0043
1586.00,0.0044
1585.00,0.0045
1584.00,0.0046
1583.00,0.0047
1582.00,0.0048
1581.00,0.0049
1580.00,0.0051
1579.00,0.0052
1578.00,0.0053
1577.00,0.0053
1576.00,0.0053
1575.00,0.0052
1574.00,0.0052
1573.00,0.0051
1572.00,0.0051
1571.00,0.0050
1570.00,0.0050
1569.00,0.0049
1568.00,0.0049
1567.00,0.0049
1566.00,0.0049
1565.00,0.0049
1564.00,0.0049
1563.00,0.0049
1562.00,0.0049
1561.00,0.0049
1560.00,0.0050
1559.00,0.0050
1558.00,0.0050
1557.00,0.0051
1556.00,0.0051
1555.00,0.0052
1554.00,0.0052
1553.00,0.0053
1552.00,0.0053
1551.00,0.0054
1550.00,0.0054
1549.00,0.0055
1548.00,0.0057
1547.00,0.0058
1546.00,0.0059
1545.00,0.0061
1544.00,0.0063
1543.00,0.0064
1542.00,0.0064
1541.00,0.0064
1540.00,0.0063
1539.00,0.0061
1538.00,0.0059
1537.00,0.0058
1536.00,0.0058
1535.00,0.0056
1534.00,0.0054
1533.00,0.0052
1532.00,0.0052
1531.00,0.0051
1530.00,0.0051
1529.00,0.0051
1528.00,0.0051
1527.00,0.0050
1526.00,0.0049
1525.00,0.0049
1524.00,0.0050
1523.00,0.0049
1522.00,0.0049
1521.00,0.0050
1520.00,0.0050
1519.00,0.0051
1518.00,0.0050
1517.00,0.0051
1516.00,0.0051
1515.00,0.0052
1514.00,0.0052
1513.00,0.0053
1512.00,0.0054
1511.00,0.0054
1510.00,0.0055
1509.00,0.0056
1508.00,0.0057
1507.00,0.0058
1506.00,0.0058
1505.00,0.0059
1504.00,0.0060
1503.00,0.0062
1502.00,0.0063
1501.00,0.0065
1500.00,0.0067
1499.00,0.0068
1498.00,0.0069
1497.00,0.0071
1496.00,0.0075
1495.00,0.0078
1494.00,0.0080
1493.00,0.0084
1492.00,0.0087
1491.00,0.0090
1490.00,0.0093
1489.00,0.0098
1488.00,0.0103
1487.00,0.0107
1486.00,0.0112
1485.00,0.0118
1484.00,0.0125
1483.00,0.0133
1482.00,0.0142
1481.00,0.0153
1480.00,0.0165
1479.00,0.0178
1478.00,0.0192
1477.00,0.0211
1476.00,0.0233
1475.00,0.0258
1474.00,0.0292
1473.00,0.0345
1472.00,0.0411
1471.00,0.0477
1470.00,0.0541
1469.00,0.0609
1468.00,0.0683
1467.00,0.0765
1466.00,0.0859
1465.00,0.0962
1464.00,0.1054
1463.00,0.1121
1462.00,0.1166
1461.00,0.1199
1460.00,0.1222
1459.00,0.1236
1458.00,0.1245
1457.00,0.1250
1456.00,0.1247
1455.00,0.1237
1454.00,0.1224
1453.00,0.1203
1452.00,0.1170
1451.00,0.1125
1450.00,0.1065
1449.00,0.0984
1448.00,0.0885
1447.00,0.0785
1446.00,0.0697
1445.00,0.0624
1444.00,0.0563
1443.00,0.0514
1442.00,0.0479
1441.00,0.0456
1440.00,0.0444
1439.00,0.0442
1438.00,0.0447
1437.00,0.0452
1436.00,0.0444
1435.00,0.0417
1434.00,0.0376
1433.00,0.0326
1432.00,0.0275
1431.00,0.0231
1430.00,0.0197
1429.00,0.0174
1428.00,0.0158
1427.00,0.0148
1426.00,0.0141
1425.00,0.0135
1424.00,0.0130
1423.00,0.0127
1422.00,0.0125
1421.00,0.0122
1420.00,0.0119
1419.00,0.0116
1418.00,0.0114
1417.00,0.0112
1416.00,0.0109
1415.00,0.0107
1414.00,0.0107
1413.00,0.0106
1412.00,0.0105
1411.00,0.0104
1410.00,0.0104
1409.00,0.0103
1408.00,0.0102
1407.00,0.0101
1406.00,0.0102
1405.00,0.0103
1404.00,0.0103
1403.00,0.0104
1402.00,0.0106
1401.00,0.0108
1400.00,0.0109
1399.00,0.0112
1398.00,0.0114
1397.00,0.0116
1396.00,0.0118
1395.00,0.0123
1394.00,0.0129
1393.00,0.0135
1392.00,0.0141
1391.00,0.0150
1390.00,0.0163
1389.00,0.0181
1388.00,0.0208
1387.00,0.0248
1386.00,0.0301
1385.00,0.0368
1384.00,0.0456
1383.00,0.0575
1382.00,0.0734
1381.00,0.0940
1380.00,0.1201
1379.00,0.1507
1378.00,0.1818
1377.00,0.2064
1376.00,0.2173
1375.00,0.2094
1374.00,0.1845
1373.00,0.1525
1372.00,0.1223
1371.00,0.0971
1370.00,0.0771
1369.00,0.0619
1368.00,0.0514
1367.00,0.0450
1366.00,0.0416
1365.00,0.0403
1364.00,0.0406
1363.00,0.0422
1362.00,0.0447
1361.00,0.0473
1360.00,0.0493
1359.00,0.0498
1358.00,0.0485
1357.00,0.0454
1356.00,0.0411
1355.00,0.0362
1354.00,0.0315
1353.00,0.0275
1352.00,0.0243
1351.00,0.0217
1350.00,0.0196
1349.00,0.0180
1348.00,0.0166
1347.00,0.0156
1346.00,0.0147
1345.00,0.0140
1344.00,0.0135
1343.00,0.0131
1342.00,0.0127
1341.00,0.0125
1340.00,0.0122
1339.00,0.0121
1338.00,0.0120
1337.00,0.0120
1336.00,0.0121
1335.00,0.0124
1334.00,0.0127
1333.00,0.0131
1332.00,0.0136
1331.00,0.0140
1330.00,0.0141
1329.00,0.0140
1328.00,0.0135
1327.00,0.0128
1326.00,0.0121
1325.00,0.0114
1324.00,0.0107
1323.00,0.0102
1322.00,0.0097
1321.00,0.0093
1320.00,0.0090
1319.00,0.0087
1318.00,0.0085
1317.00,0.0083
1316.00,0.0080
1315.00,0.0079
1314.00,0.0078
1313.00,0.0078
1312.00,0.0079
1311.00,0.0081
1310.00,0.0083
1309.00,0.0087
1308.00,0.0092
1307.00,0.0100
1306.00,0.0107
1305.00,0.0113
1304.00,0.0116
1303.00,0.0116
1302.00,0.0115
1301.00,0.0114
1300.00,0.0114
1299.00,0.0116
1298.00,0.0119
1297.00,0.0121
1296.00,0.0121
1295.00,0.0119
1294.00,0.0115
1293.00,0.0109
1292.00,0.0103
1291.00,0.0098
1290.00,0.0092
1289.00,0.0088
1288.00,0.0083
1287.00,0.0080
1286.00,0.0077
1285.00,0.0075
1284.00,0.0072
1283.00,0.0070
1282.00,0.0069
1281.00,0.0067
1280.00,0.0066
1279.00,0.0065
1278.00,0.0064
1277.00,0.0063
1276.00,0.0063
1275.00,0.0063
1274.00,0.0063
1273.00,0.0063
1272.00,0.0063
1271.00,0.0063
1270.00,0.0064
1269.00,0.0065
1268.00,0.0065
1267.00,0.0066
1266.00,0.0067
1265.00,0.0069
1264.00,0.0071
1263.00,0.0073
1262.00,0.0076
1261.00,0.0079
1260.00,0.0083
1259.00,0.0087
1258.00,0.0092
1257.00,0.0096
1256.00,0.0098
1255.00,0.0097
1254.00,0.0094
1253.00,0.0089
1252.00,0.0084
1251.00,0.0080
1250.00,0.0076
1249.00,0.0074
1248.00,0.0072
1247.00,0.0071
1246.00,0.0070
1245.00,0.0069
1244.00,0.0068
1243.00,0.0068
1242.00,0.0067
1241.00,0.0067
1240.00,0.0067
1239.00,0.0067
1238.00,0.0067
1237.00,0.0067
1236.00,0.0066
1235.00,0.0065
1234.00,0.0065
1233.00,0.0065
1232.00,0.0064
1231.00,0.0064
1230.00,0.0064
1229.00,0.0065
1228.00,0.0066
1227.00,0.0068
1226.00,0.0071
1225.00,0.0074
1224.00,0.0078
1223.00,0.0083
1222.00,0.0087
1221.00,0.0090
1220.00,0.0092
1219.00,0.0093
1218.00,0.0092
1217.00,0.0090
1216.00,0.0087
1215.00,0.0083
1214.00,0.0080
1213.00,0.0076
1212.00,0.0073
1211.00,0.0069
1210.00,0.0066
1209.00,0.0063
1208.00,0.0061
1207.00,0.0058
1206.00,0.0057
1205.00,0.0055
1204.00,0.0054
1203.00,0.0053
1202.00,0.0052
1201.00,0.0051
1200.00,0.0050
1199.00,0.0050
1198.00,0.0049
1197.00,0.0049
1196.00,0.0049
1195.00,0.0050
1194.00,0.0050
1193.00,0.0051
1192.00,0.0051
1191.00,0.0051
1190.00,0.0051
1189.00,0.0052
1188.00,0.0053
1187.00,0.0054
1186.00,0.0054
1185.00,0.0056
1184.00,0.0057
1183.00,0.0059
1182.00,0.0061
1181.00,0.0064
1180.00,0.0067
1179.00,0.0071
1178.00,0.0076
1177.00,0.0082
1176.00,0.0090
1175.00,0.0101
1174.00,0.0115
1173.00,0.0134
1172.00,0.0156
1171.00,0.0180
1170.00,0.0203
1169.00,0.0221
1168.00,0.0233
1167.00,0.0237
1166.00,0.0235
1165.00,0.0229
1164.00,0.0220
1163.00,0.0211
1162.00,0.0202
1161.00,0.0194
1160.00,0.0188
1159.00,0.0184
1158.00,0.0181
1157.00,0.0180
1156.00,0.0179
1155.00,0.0178
1154.00,0.0177
1153.00,0.0175
1152.00,0.0172
1151.00,0.0167
1150.00,0.0160
1149.00,0.0151
1148.00,0.0142
1147.00,0.0133
1146.00,0.0124
1145.00,0.0117
1144.00,0.0110
1143.00,0.0104
1142.00,0.0098
1141.00,0.0092
1140.00,0.0086
1139.00,0.0081
1138.00,0.0077
1137.00,0.0074
1136.00,0.0072
1135.00,0.0069
1134.00,0.0067
1133.00,0.0065
1132.00,0.0064
1131.00,0.0064
1130.00,0.0064
1129.00,0.0064
1128.00,0.0066
1127.00,0.0068
1126.00,0.0069
1125.00,0.0071
1124.00,0.0072
1123.00,0.0073
1122.00,0.0072
1121.00,0.0072
1120.00,0.0071
1119.00,0.0072
1118.00,0.0073
1117.00,0.0075
1116.00,0.0077
1115.00,0.0080
1114.00,0.0082
1113.00,0.0083
1112.00,0.0085
1111.00,0.0087
1110.00,0.0090
1109.00,0.0095
1108.00,0.0102
1107.00,0.0109
1106.00,0.0118
1105.00,0.0126
1104.00,0.0133
1103.00,0.0137
1102.00,0.0137
1101.00,0.0135
1100.00,0.0129
1099.00,0.0121
1098.00,0.0113
1097.00,0.0106
1096.00,0.0100
1095.00,0.0095
1094.00,0.0091
1093.00,0.0087
1092.00,0.0084
1091.00,0.0081
1090.00,0.0079
1089.00,0.0077
1088.00,0.0076
1087.00,0.0074
1086.00,0.0073
1085.00,0.0073
1084.00,0.0073
1083.00,0.0073
1082.00,0.0073
1081.00,0.0071
1080.00,0.0069
1079.00,0.0068
1078.00,0.0067
1077.00,0.0065
1076.00,0.0064
1075.00,0.0063
1074.00,0.0062
1073.00,0.0063
1072.00,0.0064
1071.00,0.0066
1070.00,0.0067
1069.00,0.0068
1068.00,0.0069
1067.00,0.0069
1066.00,0.0070
1065.00,0.0071
1064.00,0.0072
1063.00,0.0072
1062.00,0.0071
1061.00,0.0072
1060.00,0.0072
1059.00,0.0073
1058.00,0.0074
1057.00,0.0074
1056.00,0.0075
1055.00,0.0075
1054.00,0.0075
1053.00,0.0075
1052.00,0.0075
1051.00,0.0076
1050.00,0.0077
1049.00,0.0078
1048.00,0.0079
1047.00,0.0079
1046.00,0.0080
1045.00,0.0081
1044.00,0.0081
1043.00,0.0081
1042.00,0.0080
1041.00,0.0079
1040.00,0.0079
1039.00,0.0080
1038.00,0.0082
1037.00,0.0084
1036.00,0.0085
1035.00,0.0086
1034.00,0.0085
1033.00,0.0084
1032.00,0.0083
1031.00,0.0083
1030.00,0.0083
1029.00,0.0083
1028.00,0.0084
1027.00,0.0083
1026.00,0.0083
1025.00,0.0082
1024.00,0.0082
1023.00,0.0082
1022.00,0.0082
1021.00,0.0082
1020.00,0.0082
1019.00,0.0082
1018.00,0.0083
1017.00,0.0084
1016.00,0.0084
1015.00,0.0086
1014.00,0.0088
1013.00,0.0091
1012.00,0.0095
1011.00,0.0098
1010.00,0.0102
1009.00,0.0106
1008.00,0.0110
1007.00,0.0114
1006.00,0.0119
1005.00,0.0127
1004.00,0.0137
1003.00,0.0152
1002.00,0.0171
1001.00,0.0194
1000.00,0.0217
999.00,0.0236
998.00,0.0243
997.00,0.0237
996.00,0.0219
995.00,0.0194
994.00,0.0168
993.00,0.0145
992.00,0.0127
991.00,0.0114
990.00,0.0105
989.00,0.0100
988.00,0.0097
987.00,0.0096
986.00,0.0096
985.00,0.0098
984.00,0.0102
983.00,0.0109
982.00,0.0119
981.00,0.0133
980.00,0.0151
979.00,0.0176
978.00,0.0207
977.00,0.0240
976.00,0.0275
975.00,0.0304
974.00,0.0322
973.00,0.0325
972.00,0.0310
971.00,0.0281
970.00,0.0245
969.00,0.0210
968.00,0.0180
967.00,0.0157
966.00,0.0139
965.00,0.0125
964.00,0.0115
963.00,0.0107
962.00,0.0100
961.00,0.0095
960.00,0.0091
959.00,0.0088
958.00,0.0086
957.00,0.0083
956.00,0.0081
955.00,0.0079
954.00,0.0078
953.00,0.0077
952.00,0.0076
951.00,0.0075
950.00,0.0075
949.00,0.0075
948.00,0.0076
947.00,0.0079
946.00,0.0082
945.00,0.0085
944.00,0.0088
943.00,0.0091
942.00,0.0093
941.00,0.0095
940.00,0.0095
939.00,0.0092
938.00,0.0088
937.00,0.0082
936.00,0.0077
935.00,0.0073
934.00,0.0070
933.00,0.0067
932.00,0.0065
931.00,0.0064
930.00,0.0063
929.00,0.0061
928.00,0.0060
927.00,0.0059
926.00,0.0059
925.00,0.0059
924.00,0.0059
923.00,0.0060
922.00,0.0062
921.00,0.0064
920.00,0.0065
919.00,0.0066
918.00,0.0067
917.00,0.0068
916.00,0.0069
915.00,0.0069
914.00,0.0070
913.00,0.0071
912.00,0.0072
911.00,0.0073
910.00,0.0073
909.00,0.0074
908.00,0.0077
907.00,0.0082
906.00,0.0091
905.00,0.0104
904.00,0.0121
903.00,0.0142
902.00,0.0165
901.00,0.0186
900.00,0.0200
899.00,0.0204
898.00,0.0196
897.00,0.0179
896.00,0.0158
895.00,0.0137
894.00,0.0120
893.00,0.0106
892.00,0.0094
891.00,0.0086
890.00,0.0079
889.00,0.0076
888.00,0.0074
887.00,0.0074
886.00,0.0073
885.00,0.0072
884.00,0.0070
883.00,0.0068
882.00,0.0067
881.00,0.0067
880.00,0.0066
879.00,0.0067
878.00,0.0067
877.00,0.0067
876.00,0.0067
875.00,0.0067
874.00,0.0068
873.00,0.0069
872.00,0.0069
871.00,0.0068
870.00,0.0068
869.00,0.0068
868.00,0.0068
867.00,0.0070
866.00,0.0071
865.00,0.0072
864.00,0.0072
863.00,0.0073
862.00,0.0074
861.00,0.0076
860.00,0.0078
859.00,0.0079
858.00,0.0081
857.00,0.0082
856.00,0.0082
855.00,0.0084
854.00,0.0085
853.00,0.0087
852.00,0.0089
851.00,0.0091
850.00,0.0095
849.00,0.0100
848.00,0.0106
847.00,0.0115
846.00,0.0129
845.00,0.0148
844.00,0.0174
843.00,0.0200
842.00,0.0219
841.00,0.0221
840.00,0.0207
839.00,0.0182
838.00,0.0156
837.00,0.0135
836.00,0.0123
835.00,0.0116
834.00,0.0111
833.00,0.0108
832.00,0.0105
831.00,0.0103
830.00,0.0102
829.00,0.0101
828.00,0.0100
827.00,0.0098
826.00,0.0096
825.00,0.0094
824.00,0.0094
823.00,0.0095
822.00,0.0098
821.00,0.0100
820.00,0.0103
819.00,0.0106
818.00,0.0111
817.00,0.0118
816.00,0.0127
815.00,0.0139
814.00,0.0154
813.00,0.0172
812.00,0.0192
811.00,0.0209
810.00,0.0222
809.00,0.0228
808.00,0.0226
807.00,0.0216
806.00,0.0201
805.00,0.0183
804.00,0.0166
803.00,0.0150
802.00,0.0137
801.00,0.0127
800.00,0.0119
799.00,0.0112
798.00,0.0106
797.00,0.0100
796.00,0.0095
795.00,0.0091
794.00,0.0088
793.00,0.0086
792.00,0.0084
791.00,0.0082
790.00,0.0080
789.00,0.0078
788.00,0.0076
787.00,0.0073
786.00,0.0070
785.00,0.0067
784.00,0.0065
783.00,0.0064
782.00,0.0063
781.00,0.0061
780.00,0.0058
779.00,0.0056
778.00,0.0054
777.00,0.0052
776.00,0.0052
775.00,0.0054
774.00,0.0057
773.00,0.0062
772.00,0.0066
771.00,0.0070
770.00,0.0072
769.00,0.0073
768.00,0.0073
767.00,0.0074
766.00,0.0075
765.00,0.0075
764.00,0.0073
763.00,0.0069
762.00,0.0063
761.00,0.0059
760.00,0.0056
759.00,0.0056
758.00,0.0055
757.00,0.0054
756.00,0.0052
755.00,0.0051
754.00,0.0049
753.00,0.0049
752.00,0.0049
751.00,0.0050
750.00,0.0051
749.00,0.0051
748.00,0.0050
747.00,0.0049
746.00,0.0048
745.00,0.0049
744.00,0.0050
743.00,0.0052
742.00,0.0055
741.00,0.0057
740.00,0.0059
739.00,0.0060
738.00,0.0060
737.00,0.0060
736.00,0.0061
735.00,0.0064
734.00,0.0068
733.00,0.0070
732.00,0.0071
731.00,0.0071
730.00,0.0070
729.00,0.0069
728.00,0.0067
727.00,0.0065
726.00,0.0063
725.00,0.0062
724.00,0.0062
723.00,0.0062
722.00,0.0061
721.00,0.0060
720.00,0.0059
719.00,0.0057
718.00,0.0056
717.00,0.0055
716.00,0.0054
715.00,0.0054
714.00,0.0055
713.00,0.0055
712.00,0.0055
711.00,0.0056
710.00,0.0057
709.00,0.0057
708.00,0.0056
707.00,0.0056
706.00,0.0056
705.00,0.0056
704.00,0.0057
703.00,0.0057
702.00,0.0058
701.00,0.0058
700.00,0.0058
699.00,0.0057
698.00,0.0057
697.00,0.0056
696.00,0.0055
695.00,0.0053
694.00,0.0052
693.00,0.0051
692.00,0.0051
691.00,0.0051
690.00,0.0051
689.00,0.0050
688.00,0.0048
687.00,0.0046
686.00,0.0045
685.00,0.0046
684.00,0.0047
683.00,0.0048
682.00,0.0048
681.00,0.0048
680.00,0.0047
679.00,0.0047
678.00,0.0047
677.00,0.0048
676.00,0.0048
675.00,0.0048
674.00,0.0048
673.00,0.0049
672.00,0.0049
671.00,0.0046
670.00,0.0043
669.00,0.0039
668.00,0.0039
667.00,0.0045
666.00,0.0052
665.00,0.0056
664.00,0.0057
663.00,0.0057
662.00,0.0056
661.00,0.0054
660.00,0.0052
659.00,0.0051
658.00,0.0050
657.00,0.0050
656.00,0.0049
655.00,0.0048
654.00,0.0047
653.00,0.0049
652.00,0.0051
651.00,0.0053
650.00,0.0053
649.00,0.0052
648.00,0.0051
647.00,0.0052
646.00,0.0053
645.00,0.0054
644.00,0.0054
643.00,0.0054
642.00,0.0055
641.00,0.0056
640.00,0.0056
639.00,0.0055
638.00,0.0054
637.00,0.0054
636.00,0.0053
635.00,0.0052
634.00,0.0052
633.00,0.0053
632.00,0.0055
631.00,0.0057
630.00,0.0059
629.00,0.0058
628.00,0.0057
627.00,0.0056
626.00,0.0057
625.00,0.0059
624.00,0.0059
623.00,0.0057
622.00,0.0054
621.00,0.0053
620.00,0.0054
619.00,0.0056
618.00,0.0057
617.00,0.0057
616.00,0.0059
615.00,0.0061
614.00,0.0063
613.00,0.0062
612.00,0.0061
611.00,0.0060
610.00,0.0059
609.00,0.0060
608.00,0.0062
607.00,0.0063
606.00,0.0062
605.00,0.0059
604.00,0.0055
603.00,0.0052
602.00,0.0051
601.00,0.0053
600.00,0.0054
599.00,0.0055
598.00,0.0056
597.00,0.0057
596.00,0.0058
595.00,0.0059
594.00,0.0058
593.00,0.0057
592.00,0.0057
591.00,0.0056
590.00,0.0055
589.00,0.0053
588.00,0.0053
587.00,0.0055
586.00,0.0058
585.00,0.0060
584.00,0.0060
583.00,0.0061
582.00,0.0062
581.00,0.0063
580.00,0.0063
579.00,0.0061
578.00,0.0059
577.00,0.0057
576.00,0.0056
575.00,0.0056
574.00,0.0057
573.00,0.0060
572.00,0.0062
571.00,0.0062
570.00,0.0060
569.00,0.0057
568.00,0.0055
567.00,0.0054
566.00,0.0053
565.00,0.0055
564.00,0.0057
563.00,0.0059
562.00,0.0061
561.00,0.0063
560.00,0.0065
559.00,0.0065
558.00,0.0063
557.00,0.0060
556.00,0.0059
555.00,0.0060
554.00,0.0060
553.00,0.0058
552.00,0.0055
551.00,0.0055
550.00,0.0057
549.00,0.0059
548.00,0.0059
547.00,0.0058
546.00,0.0058
545.00,0.0059
544.00,0.0059
543.00,0.0060
542.00,0.0062
541.00,0.0065
540.00,0.0070
539.00,0.0072
538.00,0.0073
537.00,0.0072
536.00,0.0072
535.00,0.0075
534.00,0.0077
533.00,0.0079
532.00,0.0079
531.00,0.0080
530.00,0.0082
529.00,0.0085
528.00,0.0088
527.00,0.0088
526.00,0.0086
525.00,0.0082
524.00,0.0078
523.00,0.0077
522.00,0.0077
521.00,0.0077
520.00,0.0077
519.00,0.0076
518.00,0.0075
517.00,0.0073
516.00,0.0072
515.00,0.0070
514.00,0.0069
513.00,0.0069
512.00,0.0070
511.00,0.0073
510.00,0.0075
509.00,0.0073
508.00,0.0068
507.00,0.0062
506.00,0.0059
505.00,0.0058
504.00,0.0055
503.00,0.0050
502.00,0.0045
501.00,0.0043
500.00,0.0044
499.00,0.0047
498.00,0.0048
497.00,0.0047
496.00,0.0045
495.00,0.0044
494.00,0.0043
493.00,0.0043
492.00,0.0045
491.00,0.0049
490.00,0.0054
489.00,0.0059
488.00,0.0066
487.00,0.0075
486.00,0.0084
485.00,0.0089
484.00,0.0088
483.00,0.0080
482.00,0.0068
481.00,0.0058
480.00,0.0056
479.00,0.0059
478.00,0.0063
477.00,0.0061
476.00,0.0059
475.00,0.0061
474.00,0.0067
473.00,0.0070
472.00,0.0067
471.00,0.0060
470.00,0.0057
469.00,0.0060
468.00,0.0070
467.00,0.0087
466.00,0.0108
465.00,0.0127
464.00,0.0140
463.00,0.0149
462.00,0.0152
461.00,0.0152
460.00,0.0152
459.00,0.0157
458.00,0.0167
457.00,0.0173
456.00,0.0165
455.00,0.0144
454.00,0.0122
453.00,0.0107
452.00,0.0103
451.00,0.0100
450.00,0.0089
