Created as New Dataset,Sample 081 By Administrator Date Wednesday, September 10 2025
cm-1,A
4000.00,0.0008
3999.00,0.0008
3998.00,0.0008
3997.00,0.0008
3996.00,0.0008
3995.00,0.0008
3994.00,0.0008
3993.00,0.0009
3992.00,0.0009
3991.00,0.0009
3990.00,0.0009
3989.00,0.0009
3988.00,0.0009
3987.00,0.0009
3986.00,0.0008
3985.00,0.0008
3984.00,0.0008
3983.00,0.0008
3982.00,0.0008
3981.00,0.0007
3980.00,0.0007
3979.00,0.0007
3978.00,0.0008
3977.00,0.0008
3976.00,0.0007
3975.00,0.0007
3974.00,0.0007
3973.00,0.0007
3972.00,0.0007
3971.00,0.0007
3970.00,0.0008
3969.00,0.0008
3968.00,0.0008
3967.00,0.0007
3966.00,0.0007
3965.00,0.0007
3964.00,0.0007
3963.00,0.0007
3962.00,0.0007
3961.00,0.0007
3960.00,0.0007
3959.00,0.0007
3958.00,0.0007
3957.00,0.0006
3956.00,0.0006
3955.00,0.0006
3954.00,0.0006
3953.00,0.0007
3952.00,0.0007
3951.00,0.0007
3950.00,0.0008
3949.00,0.0008
3948.00,0.0007
3947.00,0.0007
3946.00,0.0007
3945.00,0.0007
3944.00,0.0007
3943.00,0.0007
3942.00,0.0007
3941.00,0.0008
3940.00,0.0008
3939.00,0.0008
3938.00,0.0008
3937.00,0.0007
3936.00,0.0008
3935.00,0.0008
3934.00,0.0008
3933.00,0.0008
3932.00,0.0008
3931.00,0.0008
3930.00,0.0008
3929.00,0.0008
3928.00,0.0008
3927.00,0.0008
3926.00,0.0008
3925.00,0.0008
3924.00,0.0008
3923.00,0.0008
3922.00,0.0008
3921.00,0.0008
3920.00,0.0008
3919.00,0.0008
3918.00,0.0008
3917.00,0.0008
3916.00,0.0008
3915.00,0.0007
3914.00,0.0007
3913.00,0.0007
3912.00,0.0007
3911.00,0.0006
3910.00,0.0006
3909.00,0.0006
3908.00,0.0006
3907.00,0.0006
3906.00,0.0007
3905.00,0.0007
3904.00,0.0008
3903.00,0.0008
3902.00,0.0008
3901.00,0.0008
3900.00,0.0008
3899.00,0.0008
3898.00,0.0008
3897.00,0.0008
3896.00,0.0008
3895.00,0.0008
3894.00,0.0008
3893.00,0.0007
3892.00,0.0007
3891.00,0.0006
3890.00,0.0006
3889.00,0.0006
3888.00,0.0006
3887.00,0.0006
3886.00,0.0007
3885.00,0.0007
3884.00,0.0007
3883.00,0.0007
3882.00,0.0007
3881.00,0.0008
3880.00,0.0008
3879.00,0.0008
3878.00,0.0008
3877.00,0.0008
3876.00,0.0008
3875.00,0.0008
3874.00,0.0008
3873.00,0.0008
3872.00,0.0008
3871.00,0.0008
3870.00,0.0008
3869.00,0.0008
3868.00,0.0008
3867.00,0.0007
3866.00,0.0007
3865.00,0.0007
3864.00,0.0007
3863.00,0.0006
3862.00,0.0006
3861.00,0.0006
3860.00,0.0006
3859.00,0.0006
3858.00,0.0007
3857.00,0.0007
3856.00,0.0008
3855.00,0.0009
3854.00,0.0009
3853.00,0.0009
3852.00,0.0008
3851.00,0.0008
3850.00,0.0007
3849.00,0.0007
3848.00,0.0007
3847.00,0.0006
3846.00,0.0006
3845.00,0.0007
3844.00,0.0007
3843.00,0.0007
3842.00,0.0007
3841.00,0.0007
3840.00,0.0007
3839.00,0.0007
3838.00,0.0007
3837.00,0.0007
3836.00,0.0007
3835.00,0.0007
3834.00,0.0007
3833.00,0.0007
3832.00,0.0007
3831.00,0.0007
3830.00,0.0007
3829.00,0.0007
3828.00,0.0007
3827.00,0.0006
3826.00,0.0006
3825.00,0.0006
3824.00,0.0006
3823.00,0.0006
3822.00,0.0007
3821.00,0.0007
3820.00,0.0007
3819.00,0.0007
3818.00,0.0007
3817.00,0.0007
3816.00,0.0007
3815.00,0.0007
3814.00,0.0007
3813.00,0.0007
3812.00,0.0007
3811.00,0.0008
3810.00,0.0008
3809.00,0.0007
3808.00,0.0007
3807.00,0.0006
3806.00,0.0006
3805.00,0.0006
3804.00,0.0007
3803.00,0.0007
3802.00,0.0007
3801.00,0.0007
3800.00,0.0007
3799.00,0.0007
3798.00,0.0007
3797.00,0.0007
3796.00,0.0007
3795.00,0.0007
3794.00,0.0007
3793.00,0.0007
3792.00,0.0007
3791.00,0.0007
3790.00,0.0006
3789.00,0.0006
3788.00,0.0006
3787.00,0.0006
3786.00,0.0006
3785.00,0.0006
3784.00,0.0006
3783.00,0.0006
3782.00,0.0007
3781.00,0.0007
3780.00,0.0007
3779.00,0.0007
3778.00,0.0007
3777.00,0.0007
3776.00,0.0006
3775.00,0.0007
3774.00,0.0007
3773.00,0.0007
3772.00,0.0007
3771.00,0.0007
3770.00,0.0007
3769.00,0.0007
3768.00,0.0007
3767.00,0.0007
3766.00,0.0008
3765.00,0.0008
3764.00,0.0008
3763.00,0.0008
3762.00,0.0008
3761.00,0.0008
3760.00,0.0008
3759.00,0.0008
3758.00,0.0008
3757.00,0.0007
3756.00,0.0007
3755.00,0.0008
3754.00,0.0008
3753.00,0.0007
3752.00,0.0007
3751.00,0.0006
3750.00,0.0006
3749.00,0.0006
3748.00,0.0006
3747.00,0.0006
3746.00,0.0007
3745.00,0.0007
3744.00,0.0007
3743.00,0.0007
3742.00,0.0007
3741.00,0.0007
3740.00,0.0008
3739.00,0.0008
3738.00,0.0008
3737.00,0.0008
3736.00,0.0008
3735.00,0.0008
3734.00,0.0008
3733.00,0.0007
3732.00,0.0007
3731.00,0.0007
3730.00,0.0006
3729.00,0.0006
3728.00,0.0006
3727.00,0.0006
3726.00,0.0006
3725.00,0.0005
3724.00,0.0005
3723.00,0.0005
3722.00,0.0005
3721.00,0.0006
3720.00,0.0006
3719.00,0.0006
3718.00,0.0006
3717.00,0.0006
3716.00,0.0006
3715.00,0.0006
3714.00,0.0006
3713.00,0.0006
3712.00,0.0006
3711.00,0.0006
3710.00,0.0007
3709.00,0.0007
3708.00,0.0007
3707.00,0.0007
3706.00,0.0007
3705.00,0.0006
3704.00,0.0005
3703.00,0.0005
3702.00,0.0005
3701.00,0.0005
3700.00,0.0005
3699.00,0.0005
3698.00,0.0005
3697.00,0.0005
3696.00,0.0005
3695.00,0.0005
3694.00,0.0006
3693.00,0.0006
3692.00,0.0006
3691.00,0.0006
3690.00,0.0006
3689.00,0.0006
3688.00,0.0006
3687.00,0.0006
3686.00,0.0006
3685.00,0.0006
3684.00,0.0006
3683.00,0.0006
3682.00,0.0006
3681.00,0.0006
3680.00,0.0006
3679.00,0.0007
3678.00,0.0007
3677.00,0.0007
3676.00,0.0006
3675.00,0.0006
3674.00,0.0007
3673.00,0.0007
3672.00,0.0007
3671.00,0.0007
3670.00,0.0007
3669.00,0.0007
3668.00,0.0006
3667.00,0.0006
3666.00,0.0006
3665.00,0.0006
3664.00,0.0006
3663.00,0.0007
3662.00,0.0007
3661.00,0.0007
3660.00,0.0007
3659.00,0.0007
3658.00,0.0007
3657.00,0.0007
3656.00,0.0007
3655.00,0.0007
3654.00,0.0006
3653.00,0.0007
3652.00,0.0007
3651.00,0.0007
3650.00,0.0008
3649.00,0.0008
3648.00,0.0008
3647.00,0.0008
3646.00,0.0008
3645.00,0.0008
3644.00,0.0007
3643.00,0.0007
3642.00,0.0007
3641.00,0.0007
3640.00,0.0007
3639.00,0.0007
3638.00,0.0007
3637.00,0.0007
3636.00,0.0008
3635.00,0.0008
3634.00,0.0008
3633.00,0.0008
3632.00,0.0008
3631.00,0.0008
3630.00,0.0008
3629.00,0.0008
3628.00,0.0008
3627.00,0.0008
3626.00,0.0007
3625.00,0.0007
3624.00,0.0007
3623.00,0.0007
3622.00,0.0007
3621.00,0.0007
3620.00,0.0007
3619.00,0.0008
3618.00,0.0008
3617.00,0.0009
3616.00,0.0009
3615.00,0.0009
3614.00,0.0009
3613.00,0.0009
3612.00,0.0009
3611.00,0.0010
3610.00,0.0010
3609.00,0.0010
3608.00,0.0010
3607.00,0.0010
3606.00,0.0010
3605.00,0.0010
3604.00,0.0010
3603.00,0.0010
3602.00,0.0010
3601.00,0.0010
3600.00,0.0010
3599.00,0.0010
3598.00,0.0010
3597.00,0.0011
3596.00,0.0011
3595.00,0.0011
3594.00,0.0011
3593.00,0.0011
3592.00,0.0011
3591.00,0.0011
3590.00,0.0011
3589.00,0.0012
3588.00,0.0013
3587.00,0.0013
3586.00,0.0013
3585.00,0.0014
3584.00,0.0014
3583.00,0.0014
3582.00,0.0013
3581.00,0.0013
3580.00,0.0013
3579.00,0.0013
3578.00,0.0013
3577.00,0.0013
3576.00,0.0014
3575.00,0.0014
3574.00,0.0014
3573.00,0.0014
3572.00,0.0015
3571.00,0.0015
3570.00,0.0016
3569.00,0.0017
3568.00,0.0017
3567.00,0.0018
3566.00,0.0018
3565.00,0.0018
3564.00,0.0019
3563.00,0.0019
3562.00,0.0019
3561.00,0.0018
3560.00,0.0018
3559.00,0.0019
3558.00,0.0019
3557.00,0.0020
3556.00,0.0020
3555.00,0.0020
3554.00,0.0020
3553.00,0.0020
3552.00,0.0021
3551.00,0.0021
3550.00,0.0021
3549.00,0.0022
3548.00,0.0022
3547.00,0.0022
3546.00,0.0022
3545.00,0.0023
3544.00,0.0023
3543.00,0.0024
3542.00,0.0023
3541.00,0.0023
3540.00,0.0023
3539.00,0.0023
3538.00,0.0023
3537.00,0.0024
3536.00,0.0024
3535.00,0.0025
3534.00,0.0025
3533.00,0.0025
3532.00,0.0026
3531.00,0.0026
3530.00,0.0026
3529.00,0.0026
3528.00,0.0026
3527.00,0.0026
3526.00,0.0027
3525.00,0.0027
3524.00,0.0027
3523.00,0.0028
3522.00,0.0028
3521.00,0.0029
3520.00,0.0029
3519.00,0.0029
3518.00,0.0029
3517.00,0.0029
3516.00,0.0029
3515.00,0.0029
3514.00,0.0030
3513.00,0.0030
3512.00,0.0031
3511.00,0.0030
3510.00,0.0030
3509.00,0.0030
3508.00,0.0031
3507.00,0.0031
3506.00,0.0032
3505.00,0.0033
3504.00,0.0033
3503.00,0.0033
3502.00,0.0033
3501.00,0.0033
3500.00,0.0033
3499.00,0.0032
3498.00,0.0032
3497.00,0.0033
3496.00,0.0033
3495.00,0.0034
3494.00,0.0034
3493.00,0.0034
3492.00,0.0035
3491.00,0.0035
3490.00,0.0035
3489.00,0.0035
3488.00,0.0036
3487.00,0.0036
3486.00,0.0036
3485.00,0.0036
3484.00,0.0037
3483.00,0.0037
3482.00,0.0038
3481.00,0.0038
3480.00,0.0038
3479.00,0.0038
3478.00,0.0038
3477.00,0.0038
3476.00,0.0039
3475.00,0.0039
3474.00,0.0039
3473.00,0.0039
3472.00,0.0039
3471.00,0.0040
3470.00,0.0040
3469.00,0.0041
3468.00,0.0041
3467.00,0.0041
3466.00,0.0041
3465.00,0.0041
3464.00,0.0041
3463.00,0.0042
3462.00,0.0042
3461.00,0.0042
3460.00,0.0042
3459.00,0.0042
3458.00,0.0042
3457.00,0.0043
3456.00,0.0043
3455.00,0.0044
3454.00,0.0044
3453.00,0.0044
3452.00,0.0045
3451.00,0.0045
3450.00,0.0045
3449.00,0.0045
3448.00,0.0046
3447.00,0.0046
3446.00,0.0046
3445.00,0.0046
3444.00,0.0046
3443.00,0.0046
3442.00,0.0046
3441.00,0.0046
3440.00,0.0046
3439.00,0.0046
3438.00,0.0046
3437.00,0.0047
3436.00,0.0047
3435.00,0.0047
3434.00,0.0048
3433.00,0.0048
3432.00,0.0048
3431.00,0.0049
3430.00,0.0049
3429.00,0.0049
3428.00,0.0050
3427.00,0.0050
3426.00,0.0050
3425.00,0.0050
3424.00,0.0050
3423.00,0.0050
3422.00,0.0051
3421.00,0.0051
3420.00,0.0051
3419.00,0.0051
3418.00,0.0051
3417.00,0.0051
3416.00,0.0052
3415.00,0.0052
3414.00,0.0053
3413.00,0.0053
3412.00,0.0053
3411.00,0.0053
3410.00,0.0053
3409.00,0.0053
3408.00,0.0053
3407.00,0.0053
3406.00,0.0053
3405.00,0.0054
3404.00,0.0054
3403.00,0.0054
3402.00,0.0055
3401.00,0.0055
3400.00,0.0055
3399.00,0.0055
3398.00,0.0056
3397.00,0.0056
3396.00,0.0056
3395.00,0.0056
3394.00,0.0056
3393.00,0.0056
3392.00,0.0056
3391.00,0.0056
3390.00,0.0056
3389.00,0.0056
3388.00,0.0056
3387.00,0.0056
3386.00,0.0056
3385.00,0.0056
3384.00,0.0056
3383.00,0.0056
3382.00,0.0056
3381.00,0.0056
3380.00,0.0056
3379.00,0.0056
3378.00,0.0056
3377.00,0.0056
3376.00,0.0056
3375.00,0.0055
3374.00,0.0055
3373.00,0.0055
3372.00,0.0056
3371.00,0.0056
3370.00,0.0056
3369.00,0.0055
3368.00,0.0055
3367.00,0.0055
3366.00,0.0055
3365.00,0.0055
3364.00,0.0055
3363.00,0.0055
3362.00,0.0055
3361.00,0.0055
3360.00,0.0056
3359.00,0.0056
3358.00,0.0057
3357.00,0.0057
3356.00,0.0057
3355.00,0.0057
3354.00,0.0057
3353.00,0.0056
3352.00,0.0056
3351.00,0.0056
3350.00,0.0056
3349.00,0.0055
3348.00,0.0055
3347.00,0.0056
3346.00,0.0056
3345.00,0.0056
3344.00,0.0056
3343.00,0.0056
3342.00,0.0056
3341.00,0.0056
3340.00,0.0056
3339.00,0.0056
3338.00,0.0055
3337.00,0.0055
3336.00,0.0055
3335.00,0.0055
3334.00,0.0055
3333.00,0.0055
3332.00,0.0055
3331.00,0.0055
3330.00,0.0054
3329.00,0.0054
3328.00,0.0054
3327.00,0.0054
3326.00,0.0055
3325.00,0.0055
3324.00,0.0055
3323.00,0.0054
3322.00,0.0054
3321.00,0.0054
3320.00,0.0054
3319.00,0.0054
3318.00,0.0054
3317.00,0.0054
3316.00,0.0054
3315.00,0.0053
3314.00,0.0053
3313.00,0.0053
3312.00,0.0053
3311.00,0.0053
3310.00,0.0053
3309.00,0.0053
3308.00,0.0053
3307.00,0.0053
3306.00,0.0053
3305.00,0.0053
3304.00,0.0052
3303.00,0.0052
3302.00,0.0052
3301.00,0.0052
3300.00,0.0052
3299.00,0.0052
3298.00,0.0052
3297.00,0.0052
3296.00,0.0052
3295.00,0.0052
3294.00,0.0052
3293.00,0.0052
3292.00,0.0052
3291.00,0.0052
3290.00,0.0051
3289.00,0.0051
3288.00,0.0051
3287.00,0.0050
3286.00,0.0050
3285.00,0.0050
3284.00,0.0050
3283.00,0.0051
3282.00,0.0051
3281.00,0.0051
3280.00,0.0051
3279.00,0.0051
3278.00,0.0050
3277.00,0.0050
3276.00,0.0050
3275.00,0.0050
3274.00,0.0050
3273.00,0.0049
3272.00,0.0049
3271.00,0.0049
3270.00,0.0049
3269.00,0.0049
3268.00,0.0048
3267.00,0.0048
3266.00,0.0047
3265.00,0.0047
3264.00,0.0046
3263.00,0.0046
3262.00,0.0046
3261.00,0.0046
3260.00,0.0046
3259.00,0.0046
3258.00,0.0046
3257.00,0.0046
3256.00,0.0046
3255.00,0.0046
3254.00,0.0046
3253.00,0.0046
3252.00,0.0046
3251.00,0.0046
3250.00,0.0046
3249.00,0.0046
3248.00,0.0045
3247.00,0.0045
3246.00,0.0045
3245.00,0.0045
3244.00,0.0045
3243.00,0.0045
3242.00,0.0044
3241.00,0.0044
3240.00,0.0044
3239.00,0.0044
3238.00,0.0044
3237.00,0.0044
3236.00,0.0044
3235.00,0.0044
3234.00,0.0044
3233.00,0.0044
3232.00,0.0045
3231.00,0.0045
3230.00,0.0045
3229.00,0.0046
3228.00,0.0046
3227.00,0.0046
3226.00,0.0046
3225.00,0.0046
3224.00,0.0046
3223.00,0.0047
3222.00,0.0047
3221.00,0.0047
3220.00,0.0047
3219.00,0.0047
3218.00,0.0047
3217.00,0.0048
3216.00,0.0048
3215.00,0.0048
3214.00,0.0049
3213.00,0.0049
3212.00,0.0049
3211.00,0.0049
3210.00,0.0049
3209.00,0.0049
3208.00,0.0049
3207.00,0.0049
3206.00,0.0049
3205.00,0.0049
3204.00,0.0050
3203.00,0.0050
3202.00,0.0050
3201.00,0.0049
3200.00,0.0049
3199.00,0.0049
3198.00,0.0049
3197.00,0.0049
3196.00,0.0050
3195.00,0.0051
3194.00,0.0051
3193.00,0.0051
3192.00,0.0051
3191.00,0.0051
3190.00,0.0050
3189.00,0.0049
3188.00,0.0049
3187.00,0.0048
3186.00,0.0048
3185.00,0.0048
3184.00,0.0048
3183.00,0.0047
3182.00,0.0047
3181.00,0.0046
3180.00,0.0046
3179.00,0.0046
3178.00,0.0045
3177.00,0.0045
3176.00,0.0045
3175.00,0.0045
3174.00,0.0045
3173.00,0.0044
3172.00,0.0044
3171.00,0.0044
3170.00,0.0044
3169.00,0.0044
3168.00,0.0044
3167.00,0.0043
3166.00,0.0043
3165.00,0.0043
3164.00,0.0042
3163.00,0.0042
3162.00,0.0042
3161.00,0.0042
3160.00,0.0042
3159.00,0.0042
3158.00,0.0042
3157.00,0.0043
3156.00,0.0043
3155.00,0.0043
3154.00,0.0042
3153.00,0.0042
3152.00,0.0042
3151.00,0.0042
3150.00,0.0042
3149.00,0.0042
3148.00,0.0042
3147.00,0.0042
3146.00,0.0041
3145.00,0.0041
3144.00,0.0040
3143.00,0.0040
3142.00,0.0040
3141.00,0.0040
3140.00,0.0040
3139.00,0.0040
3138.00,0.0040
3137.00,0.0039
3136.00,0.0039
3135.00,0.0039
3134.00,0.0039
3133.00,0.0039
3132.00,0.0039
3131.00,0.0038
3130.00,0.0038
3129.00,0.0038
3128.00,0.0037
3127.00,0.0037
3126.00,0.0037
3125.00,0.0037
3124.00,0.0037
3123.00,0.0037
3122.00,0.0036
3121.00,0.0036
3120.00,0.0035
3119.00,0.0035
3118.00,0.0034
3117.00,0.0034
3116.00,0.0034
3115.00,0.0033
3114.00,0.0034
3113.00,0.0034
3112.00,0.0034
3111.00,0.0034
3110.00,0.0034
3109.00,0.0034
3108.00,0.0034
3107.00,0.0033
3106.00,0.0033
3105.00,0.0033
3104.00,0.0033
3103.00,0.0032
3102.00,0.0032
3101.00,0.0032
3100.00,0.0032
3099.00,0.0032
3098.00,0.0032
3097.00,0.0032
3096.00,0.0032
3095.00,0.0031
3094.00,0.0031
3093.00,0.0031
3092.00,0.0030
3091.00,0.0030
3090.00,0.0030
3089.00,0.0030
3088.00,0.0031
3087.00,0.0031
3086.00,0.0031
3085.00,0.0030
3084.00,0.0030
3083.00,0.0029
3082.00,0.0029
3081.00,0.0029
3080.00,0.0029
3079.00,0.0029
3078.00,0.0029
3077.00,0.0029
3076.00,0.0029
3075.00,0.0030
3074.00,0.0031
3073.00,0.0031
3072.00,0.0031
3071.00,0.0031
3070.00,0.0031
3069.00,0.0031
3068.00,0.0031
3067.00,0.0031
3066.00,0.0031
3065.00,0.0031
3064.00,0.0032
3063.00,0.0032
3062.00,0.0032
3061.00,0.0032
3060.00,0.0032
3059.00,0.0032
3058.00,0.0032
3057.00,0.0032
3056.00,0.0032
3055.00,0.0033
3054.00,0.0033
3053.00,0.0033
3052.00,0.0033
3051.00,0.0033
3050.00,0.0034
3049.00,0.0034
3048.00,0.0034
3047.00,0.0034
3046.00,0.0034
3045.00,0.0034
3044.00,0.0034
3043.00,0.0034
3042.00,0.0034
3041.00,0.0035
3040.00,0.0035
3039.00,0.0036
3038.00,0.0036
3037.00,0.0037
3036.00,0.0038
3035.00,0.0038
3034.00,0.0038
3033.00,0.0038
3032.00,0.0038
3031.00,0.0039
3030.00,0.0039
3029.00,0.0039
3028.00,0.0040
3027.00,0.0040
3026.00,0.0041
3025.00,0.0042
3024.00,0.0042
3023.00,0.0043
3022.00,0.0044
3021.00,0.0044
3020.00,0.0046
3019.00,0.0047
3018.00,0.0048
3017.00,0.0049
3016.00,0.0050
3015.00,0.0051
3014.00,0.0052
3013.00,0.0053
3012.00,0.0055
3011.00,0.0057
3010.00,0.0058
3009.00,0.0060
3008.00,0.0061
3007.00,0.0063
3006.00,0.0065
3005.00,0.0067
3004.00,0.0069
3003.00,0.0072
3002.00,0.0074
3001.00,0.0077
3000.00,0.0081
2999.00,0.0084
2998.00,0.0088
2997.00,0.0092
2996.00,0.0096
2995.00,0.0101
2994.00,0.0106
2993.00,0.0111
2992.00,0.0117
2991.00,0.0124
2990.00,0.0131
2989.00,0.0139
2988.00,0.0148
2987.00,0.0158
2986.00,0.0169
2985.00,0.0182
2984.00,0.0196
2983.00,0.0212
2982.00,0.0230
2981.00,0.0250
2980.00,0.0271
2979.00,0.0296
2978.00,0.0323
2977.00,0.0355
2976.00,0.0392
2975.00,0.0434
2974.00,0.0482
2973.00,0.0537
2972.00,0.0598
2971.00,0.0668
2970.00,0.0746
2969.00,0.0832
2968.00,0.0928
2967.00,0.1032
2966.00,0.1146
2965.00,0.1266
2964.00,0.1389
2963.00,0.1513
2962.00,0.1632
2961.00,0.1739
2960.00,0.1830
2959.00,0.1902
2958.00,0.1953
2957.00,0.1987
2956.00,0.2008
2955.00,0.2023
2954.00,0.2036
2953.00,0.2049
2952.00,0.2059
2951.00,0.2058
2950.00,0.2038
2949.00,0.1991
2948.00,0.1914
2947.00,0.1809
2946.00,0.1682
2945.00,0.1546
2944.00,0.1414
2943.00,0.1296
2942.00,0.1200
2941.00,0.1129
2940.00,0.1084
2939.00,0.1063
2938.00,0.1062
2937.00,0.1079
2936.00,0.1113
2935.00,0.1161
2934.00,0.1223
2933.00,0.1296
2932.00,0.1378
2931.00,0.1468
2930.00,0.1561
2929.00,0.1655
2928.00,0.1747
2927.00,0.1834
2926.00,0.1915
2925.00,0.1991
2924.00,0.2062
2923.00,0.2130
2922.00,0.2196
2921.00,0.2257
2920.00,0.2312
2919.00,0.2354
2918.00,0.2378
2917.00,0.2381
2916.00,0.2360
2915.00,0.2318
2914.00,0.2261
2913.00,0.2195
2912.00,0.2128
2911.00,0.2064
2910.00,0.2005
2909.00,0.1951
2908.00,0.1899
2907.00,0.1847
2906.00,0.1793
2905.00,0.1736
2904.00,0.1674
2903.00,0.1608
2902.00,0.1539
2901.00,0.1470
2900.00,0.1402
2899.00,0.1336
2898.00,0.1274
2897.00,0.1218
2896.00,0.1168
2895.00,0.1127
2894.00,0.1092
2893.00,0.1066
2892.00,0.1046
2891.00,0.1033
2890.00,0.1025
2889.00,0.1022
2888.00,0.1023
2887.00,0.1028
2886.00,0.1037
2885.00,0.1049
2884.00,0.1065
2883.00,0.1086
2882.00,0.1109
2881.00,0.1133
2880.00,0.1157
2879.00,0.1176
2878.00,0.1187
2877.00,0.1190
2876.00,0.1184
2875.00,0.1174
2874.00,0.1165
2873.00,0.1162
2872.00,0.1165
2871.00,0.1176
2870.00,0.1193
2869.00,0.1210
2868.00,0.1220
2867.00,0.1215
2866.00,0.1189
2865.00,0.1138
2864.00,0.1067
2863.00,0.0983
2862.00,0.0894
2861.00,0.0811
2860.00,0.0739
2859.00,0.0680
2858.00,0.0635
2857.00,0.0603
2856.00,0.0582
2855.00,0.0569
2854.00,0.0565
2853.00,0.0567
2852.00,0.0576
2851.00,0.0591
2850.00,0.0614
2849.00,0.0644
2848.00,0.0683
2847.00,0.0730
2846.00,0.0786
2845.00,0.0852
2844.00,0.0927
2843.00,0.1009
2842.00,0.1094
2841.00,0.1176
2840.00,0.1245
2839.00,0.1292
2838.00,0.1307
2837.00,0.1284
2836.00,0.1223
2835.00,0.1130
2834.00,0.1017
2833.00,0.0898
2832.00,0.0784
2831.00,0.0682
2830.00,0.0595
2829.00,0.0524
2828.00,0.0467
2827.00,0.0421
2826.00,0.0383
2825.00,0.0352
2824.00,0.0327
2823.00,0.0305
2822.00,0.0287
2821.00,0.0271
2820.00,0.0257
2819.00,0.0245
2818.00,0.0234
2817.00,0.0225
2816.00,0.0217
2815.00,0.0210
2814.00,0.0203
2813.00,0.0198
2812.00,0.0193
2811.00,0.0187
2810.00,0.0182
2809.00,0.0176
2808.00,0.0170
2807.00,0.0164
2806.00,0.0158
2805.00,0.0152
2804.00,0.0145
2803.00,0.0139
2802.00,0.0133
2801.00,0.0128
2800.00,0.0124
2799.00,0.0121
2798.00,0.0119
2797.00,0.0117
2796.00,0.0115
2795.00,0.0112
2794.00,0.0110
2793.00,0.0106
2792.00,0.0103
2791.00,0.0099
2790.00,0.0095
2789.00,0.0091
2788.00,0.0088
2787.00,0.0084
2786.00,0.0081
2785.00,0.0078
2784.00,0.0075
2783.00,0.0073
2782.00,0.0071
2781.00,0.0069
2780.00,0.0067
2779.00,0.0066
2778.00,0.0064
2777.00,0.0063
2776.00,0.0062
2775.00,0.0060
2774.00,0.0059
2773.00,0.0059
2772.00,0.0058
2771.00,0.0058
2770.00,0.0058
2769.00,0.0057
2768.00,0.0057
2767.00,0.0056
2766.00,0.0056
2765.00,0.0055
2764.00,0.0054
2763.00,0.0054
2762.00,0.0053
2761.00,0.0053
2760.00,0.0053
2759.00,0.0053
2758.00,0.0053
2757.00,0.0052
2756.00,0.0052
2755.00,0.0052
2754.00,0.0052
2753.00,0.0052
2752.00,0.0052
2751.00,0.0052
2750.00,0.0051
2749.00,0.0051
2748.00,0.0051
2747.00,0.0052
2746.00,0.0053
2745.00,0.0053
2744.00,0.0054
2743.00,0.0055
2742.00,0.0056
2741.00,0.0058
2740.00,0.0059
2739.00,0.0060
2738.00,0.0062
2737.00,0.0063
2736.00,0.0064
2735.00,0.0065
2734.00,0.0066
2733.00,0.0068
2732.00,0.0069
2731.00,0.0071
2730.00,0.0074
2729.00,0.0076
2728.00,0.0079
2727.00,0.0082
2726.00,0.0084
2725.00,0.0087
2724.00,0.0089
2723.00,0.0089
2722.00,0.0089
2721.00,0.0087
2720.00,0.0084
2719.00,0.0080
2718.00,0.0077
2717.00,0.0073
2716.00,0.0070
2715.00,0.0068
2714.00,0.0066
2713.00,0.0064
2712.00,0.0062
2711.00,0.0060
2710.00,0.0058
2709.00,0.0056
2708.00,0.0055
2707.00,0.0054
2706.00,0.0052
2705.00,0.0051
2704.00,0.0050
2703.00,0.0049
2702.00,0.0049
2701.00,0.0048
2700.00,0.0047
2699.00,0.0046
2698.00,0.0046
2697.00,0.0046
2696.00,0.0045
2695.00,0.0045
2694.00,0.0045
2693.00,0.0045
2692.00,0.0046
2691.00,0.0046
2690.00,0.0046
2689.00,0.0046
2688.00,0.0047
2687.00,0.0046
2686.00,0.0046
2685.00,0.0046
2684.00,0.0046
2683.00,0.0046
2682.00,0.0046
2681.00,0.0046
2680.00,0.0046
2679.00,0.0046
2678.00,0.0046
2677.00,0.0046
2676.00,0.0046
2675.00,0.0045
2674.00,0.0045
2673.00,0.0045
2672.00,0.0044
2671.00,0.0044
2670.00,0.0044
2669.00,0.0044
2668.00,0.0044
2667.00,0.0045
2666.00,0.0045
2665.00,0.0046
2664.00,0.0046
2663.00,0.0047
2662.00,0.0048
2661.00,0.0048
2660.00,0.0048
2659.00,0.0047
2658.00,0.0047
2657.00,0.0047
2656.00,0.0047
2655.00,0.0046
2654.00,0.0046
2653.00,0.0045
2652.00,0.0044
2651.00,0.0044
2650.00,0.0043
2649.00,0.0043
2648.00,0.0042
2647.00,0.0042
2646.00,0.0042
2645.00,0.0042
2644.00,0.0041
2643.00,0.0041
2642.00,0.0041
2641.00,0.0040
2640.00,0.0039
2639.00,0.0039
2638.00,0.0038
2637.00,0.0038
2636.00,0.0038
2635.00,0.0038
2634.00,0.0038
2633.00,0.0038
2632.00,0.0038
2631.00,0.0039
2630.00,0.0039
2629.00,0.0040
2628.00,0.0040
2627.00,0.0040
2626.00,0.0040
2625.00,0.0040
2624.00,0.0040
2623.00,0.0040
2622.00,0.0040
2621.00,0.0040
2620.00,0.0040
2619.00,0.0041
2618.00,0.0041
2617.00,0.0041
2616.00,0.0041
2615.00,0.0041
2614.00,0.0041
2613.00,0.0041
2612.00,0.0040
2611.00,0.0039
2610.00,0.0038
2609.00,0.0037
2608.00,0.0036
2607.00,0.0035
2606.00,0.0034
2605.00,0.0034
2604.00,0.0033
2603.00,0.0032
2602.00,0.0031
2601.00,0.0031
2600.00,0.0031
2599.00,0.0031
2598.00,0.0032
2597.00,0.0032
2596.00,0.0032
2595.00,0.0032
2594.00,0.0032
2593.00,0.0032
2592.00,0.0032
2591.00,0.0033
2590.00,0.0034
2589.00,0.0035
2588.00,0.0035
2587.00,0.0036
2586.00,0.0037
2585.00,0.0038
2584.00,0.0039
2583.00,0.0039
2582.00,0.0039
2581.00,0.0038
2580.00,0.0037
2579.00,0.0036
2578.00,0.0035
2577.00,0.0034
2576.00,0.0033
2575.00,0.0032
2574.00,0.0031
2573.00,0.0030
2572.00,0.0029
2571.00,0.0029
2570.00,0.0028
2569.00,0.0027
2568.00,0.0026
2567.00,0.0026
2566.00,0.0025
2565.00,0.0025
2564.00,0.0024
2563.00,0.0024
2562.00,0.0024
2561.00,0.0024
2560.00,0.0024
2559.00,0.0023
2558.00,0.0023
2557.00,0.0023
2556.00,0.0023
2555.00,0.0022
2554.00,0.0022
2553.00,0.0022
2552.00,0.0022
2551.00,0.0021
2550.00,0.0021
2549.00,0.0021
2548.00,0.0021
2547.00,0.0020
2546.00,0.0020
2545.00,0.0020
2544.00,0.0019
2543.00,0.0018
2542.00,0.0017
2541.00,0.0017
2540.00,0.0016
2539.00,0.0016
2538.00,0.0016
2537.00,0.0016
2536.00,0.0016
2535.00,0.0016
2534.00,0.0016
2533.00,0.0016
2532.00,0.0015
2531.00,0.0014
2530.00,0.0013
2529.00,0.0013
2528.00,0.0013
2527.00,0.0014
2526.00,0.0014
2525.00,0.0014
2524.00,0.0014
2523.00,0.0014
2522.00,0.0014
2521.00,0.0014
2520.00,0.0014
2519.00,0.0013
2518.00,0.0013
2517.00,0.0012
2516.00,0.0012
2515.00,0.0011
2514.00,0.0011
2513.00,0.0010
2512.00,0.0010
2511.00,0.0010
2510.00,0.0010
2509.00,0.0010
2508.00,0.0010
2507.00,0.0011
2506.00,0.0012
2505.00,0.0012
2504.00,0.0011
2503.00,0.0011
2502.00,0.0011
2501.00,0.0011
2500.00,0.0011
2499.00,0.0011
2498.00,0.0011
2497.00,0.0011
2496.00,0.0011
2495.00,0.0011
2494.00,0.0011
2493.00,0.0011
2492.00,0.0011
2491.00,0.0011
2490.00,0.0011
2489.00,0.0011
2488.00,0.0010
2487.00,0.0009
2486.00,0.0008
2485.00,0.0008
2484.00,0.0008
2483.00,0.0009
2482.00,0.0010
2481.00,0.0010
2480.00,0.0010
2479.00,0.0009
2478.00,0.0008
2477.00,0.0007
2476.00,0.0007
2475.00,0.0008
2474.00,0.0008
2473.00,0.0009
2472.00,0.0009
2471.00,0.0008
2470.00,0.0008
2469.00,0.0008
2468.00,0.0008
2467.00,0.0009
2466.00,0.0009
2465.00,0.0009
2464.00,0.0010
2463.00,0.0010
2462.00,0.0010
2461.00,0.0010
2460.00,0.0010
2459.00,0.0011
2458.00,0.0011
2457.00,0.0010
2456.00,0.0010
2455.00,0.0010
2454.00,0.0010
2453.00,0.0010
2452.00,0.0010
2451.00,0.0010
2450.00,0.0010
2449.00,0.0009
2448.00,0.0009
2447.00,0.0009
2446.00,0.0009
2445.00,0.0009
2444.00,0.0009
2443.00,0.0009
2442.00,0.0009
2441.00,0.0009
2440.00,0.0010
2439.00,0.0010
2438.00,0.0010
2437.00,0.0010
2436.00,0.0011
2435.00,0.0011
2434.00,0.0011
2433.00,0.0011
2432.00,0.0012
2431.00,0.0012
2430.00,0.0012
2429.00,0.0012
2428.00,0.0011
2427.00,0.0012
2426.00,0.0012
2425.00,0.0012
2424.00,0.0012
2423.00,0.0011
2422.00,0.0011
2421.00,0.0010
2420.00,0.0010
2419.00,0.0010
2418.00,0.0010
2417.00,0.0010
2416.00,0.0010
2415.00,0.0010
2414.00,0.0010
2413.00,0.0009
2412.00,0.0009
2411.00,0.0009
2410.00,0.0009
2409.00,0.0010
2408.00,0.0010
2407.00,0.0010
2406.00,0.0010
2405.00,0.0009
2404.00,0.0009
2403.00,0.0009
2402.00,0.0009
2401.00,0.0009
2400.00,0.0009
2399.00,0.0009
2398.00,0.0009
2397.00,0.0009
2396.00,0.0009
2395.00,0.0009
2394.00,0.0009
2393.00,0.0008
2392.00,0.0007
2391.00,0.0007
2390.00,0.0007
2389.00,0.0007
2388.00,0.0007
2387.00,0.0006
2386.00,0.0006
2385.00,0.0006
2384.00,0.0006
2383.00,0.0005
2382.00,0.0004
2381.00,0.0003
2380.00,0.0003
2379.00,0.0003
2378.00,0.0003
2377.00,0.0003
2376.00,0.0003
2375.00,0.0002
2374.00,0.0002
2373.00,0.0001
2372.00,0.0001
2371.00,0.0001
2370.00,0.0000
2369.00,-0.0001
2368.00,-0.0001
2367.00,-0.0001
2366.00,-0.0001
2365.00,-0.0000
2364.00,0.0001
2363.00,0.0001
2362.00,0.0001
2361.00,0.0001
2360.00,0.0001
2359.00,0.0001
2358.00,0.0000
2357.00,-0.0000
2356.00,-0.0001
2355.00,-0.0001
2354.00,-0.0001
2353.00,0.0000
2352.00,0.0001
2351.00,0.0001
2350.00,0.0001
2349.00,0.0001
2348.00,0.0001
2347.00,0.0002
2346.00,0.0003
2345.00,0.0005
2344.00,0.0005
2343.00,0.0004
2342.00,0.0002
2341.00,0.0001
2340.00,0.0001
2339.00,0.0002
2338.00,0.0002
2337.00,0.0003
2336.00,0.0003
2335.00,0.0004
2334.00,0.0004
2333.00,0.0004
2332.00,0.0003
2331.00,0.0002
2330.00,0.0002
2329.00,0.0002
2328.00,0.0003
2327.00,0.0006
2326.00,0.0011
2325.00,0.0014
2324.00,0.0016
2323.00,0.0015
2322.00,0.0013
2321.00,0.0011
2320.00,0.0009
2319.00,0.0008
2318.00,0.0007
2317.00,0.0006
2316.00,0.0006
2315.00,0.0005
2314.00,0.0005
2313.00,0.0004
2312.00,0.0003
2311.00,0.0003
2310.00,0.0003
2309.00,0.0003
2308.00,0.0003
2307.00,0.0003
2306.00,0.0003
2305.00,0.0003
2304.00,0.0004
2303.00,0.0005
2302.00,0.0006
2301.00,0.0007
2300.00,0.0007
2299.00,0.0008
2298.00,0.0008
2297.00,0.0008
2296.00,0.0008
2295.00,0.0009
2294.00,0.0010
2293.00,0.0012
2292.00,0.0013
2291.00,0.0014
2290.00,0.0015
2289.00,0.0016
2288.00,0.0016
2287.00,0.0017
2286.00,0.0017
2285.00,0.0018
2284.00,0.0018
2283.00,0.0017
2282.00,0.0016
2281.00,0.0015
2280.00,0.0015
2279.00,0.0015
2278.00,0.0015
2277.00,0.0015
2276.00,0.0015
2275.00,0.0014
2274.00,0.0013
2273.00,0.0013
2272.00,0.0012
2271.00,0.0013
2270.00,0.0013
2269.00,0.0013
2268.00,0.0012
2267.00,0.0011
2266.00,0.0010
2265.00,0.0010
2264.00,0.0009
2263.00,0.0010
2262.00,0.0010
2261.00,0.0011
2260.00,0.0011
2259.00,0.0012
2258.00,0.0012
2257.00,0.0011
2256.00,0.0011
2255.00,0.0011
2254.00,0.0011
2253.00,0.0012
2252.00,0.0012
2251.00,0.0012
2250.00,0.0010
2249.00,0.0008
2248.00,0.0007
2247.00,0.0006
2246.00,0.0006
2245.00,0.0007
2244.00,0.0008
2243.00,0.0008
2242.00,0.0008
2241.00,0.0007
2240.00,0.0007
2239.00,0.0008
2238.00,0.0010
2237.00,0.0011
2236.00,0.0012
2235.00,0.0012
2234.00,0.0012
2233.00,0.0011
2232.00,0.0010
2231.00,0.0010
2230.00,0.0010
2229.00,0.0010
2228.00,0.0011
2227.00,0.0011
2226.00,0.0011
2225.00,0.0010
2224.00,0.0008
2223.00,0.0007
2222.00,0.0006
2221.00,0.0006
2220.00,0.0007
2219.00,0.0008
2218.00,0.0008
2217.00,0.0006
2216.00,0.0005
2215.00,0.0004
2214.00,0.0005
2213.00,0.0005
2212.00,0.0006
2211.00,0.0005
2210.00,0.0004
2209.00,0.0004
2208.00,0.0003
2207.00,0.0003
2206.00,0.0004
2205.00,0.0005
2204.00,0.0006
2203.00,0.0006
2202.00,0.0007
2201.00,0.0009
2200.00,0.0010
2199.00,0.0009
2198.00,0.0008
2197.00,0.0007
2196.00,0.0007
2195.00,0.0009
2194.00,0.0011
2193.00,0.0012
2192.00,0.0012
2191.00,0.0011
2190.00,0.0011
2189.00,0.0011
2188.00,0.0011
2187.00,0.0011
2186.00,0.0013
2185.00,0.0015
2184.00,0.0015
2183.00,0.0014
2182.00,0.0013
2181.00,0.0012
2180.00,0.0013
2179.00,0.0013
2178.00,0.0012
2177.00,0.0011
2176.00,0.0010
2175.00,0.0009
2174.00,0.0009
2173.00,0.0009
2172.00,0.0011
2171.00,0.0012
2170.00,0.0013
2169.00,0.0014
2168.00,0.0015
2167.00,0.0016
2166.00,0.0016
2165.00,0.0018
2164.00,0.0021
2163.00,0.0022
2162.00,0.0021
2161.00,0.0014
2160.00,0.0002
2159.00,-0.0011
2158.00,-0.0022
2157.00,-0.0026
2156.00,-0.0026
2155.00,-0.0024
2154.00,-0.0021
2153.00,-0.0019
2152.00,-0.0016
2151.00,-0.0014
2150.00,-0.0013
2149.00,-0.0013
2148.00,-0.0014
2147.00,-0.0016
2146.00,-0.0016
2145.00,-0.0015
2144.00,-0.0014
2143.00,-0.0014
2142.00,-0.0015
2141.00,-0.0014
2140.00,-0.0012
2139.00,-0.0010
2138.00,-0.0009
2137.00,-0.0011
2136.00,-0.0013
2135.00,-0.0017
2134.00,-0.0019
2133.00,-0.0019
2132.00,-0.0017
2131.00,-0.0015
2130.00,-0.0013
2129.00,-0.0012
2128.00,-0.0010
2127.00,-0.0009
2126.00,-0.0008
2125.00,-0.0007
2124.00,-0.0006
2123.00,-0.0005
2122.00,-0.0004
2121.00,-0.0003
2120.00,-0.0003
2119.00,-0.0004
2118.00,-0.0003
2117.00,-0.0002
2116.00,0.0001
2115.00,0.0003
2114.00,0.0004
2113.00,0.0004
2112.00,0.0004
2111.00,0.0003
2110.00,0.0003
2109.00,0.0003
2108.00,0.0002
2107.00,0.0002
2106.00,0.0001
2105.00,0.0001
2104.00,0.0001
2103.00,0.0001
2102.00,0.0001
2101.00,0.0001
2100.00,0.0001
2099.00,0.0001
2098.00,0.0000
2097.00,-0.0001
2096.00,-0.0003
2095.00,-0.0004
2094.00,-0.0005
2093.00,-0.0005
2092.00,-0.0004
2091.00,-0.0003
2090.00,-0.0002
2089.00,-0.0002
2088.00,-0.0002
2087.00,-0.0002
2086.00,-0.0001
2085.00,0.0001
2084.00,0.0003
2083.00,0.0005
2082.00,0.0006
2081.00,0.0006
2080.00,0.0006
2079.00,0.0005
2078.00,0.0003
2077.00,0.0002
2076.00,0.0001
2075.00,0.0001
2074.00,0.0000
2073.00,0.0000
2072.00,0.0001
2071.00,0.0002
2070.00,0.0003
2069.00,0.0003
2068.00,0.0003
2067.00,0.0002
2066.00,0.0000
2065.00,-0.0002
2064.00,-0.0004
2063.00,-0.0005
2062.00,-0.0005
2061.00,-0.0004
2060.00,-0.0003
2059.00,-0.0000
2058.00,0.0002
2057.00,0.0003
2056.00,0.0002
2055.00,0.0001
2054.00,0.0002
2053.00,0.0005
2052.00,0.0009
2051.00,0.0012
2050.00,0.0012
2049.00,0.0009
2048.00,0.0005
2047.00,0.0002
2046.00,0.0001
2045.00,0.0001
2044.00,0.0002
2043.00,0.0001
2042.00,0.0000
2041.00,-0.0000
2040.00,-0.0001
2039.00,-0.0003
2038.00,-0.0004
2037.00,-0.0005
2036.00,-0.0004
2035.00,-0.0004
2034.00,-0.0006
2033.00,-0.0007
2032.00,-0.0008
2031.00,-0.0010
2030.00,-0.0011
2029.00,-0.0011
2028.00,-0.0011
2027.00,-0.0011
2026.00,-0.0010
2025.00,-0.0007
2024.00,-0.0004
2023.00,-0.0003
2022.00,-0.0004
2021.00,-0.0004
2020.00,-0.0005
2019.00,-0.0006
2018.00,-0.0010
2017.00,-0.0012
2016.00,-0.0012
2015.00,-0.0009
2014.00,-0.0006
2013.00,-0.0005
2012.00,-0.0006
2011.00,-0.0008
2010.00,-0.0011
2009.00,-0.0013
2008.00,-0.0016
2007.00,-0.0018
2006.00,-0.0018
2005.00,-0.0016
2004.00,-0.0015
2003.00,-0.0015
2002.00,-0.0016
2001.00,-0.0017
2000.00,-0.0018
1999.00,-0.0018
1998.00,-0.0017
1997.00,-0.0016
1996.00,-0.0014
1995.00,-0.0012
1994.00,-0.0012
1993.00,-0.0010
1992.00,-0.0008
1991.00,-0.0006
1990.00,-0.0005
1989.00,-0.0004
1988.00,-0.0003
1987.00,-0.0002
1986.00,-0.0002
1985.00,-0.0000
1984.00,0.0002
1983.00,0.0005
1982.00,0.0007
1981.00,0.0009
1980.00,0.0009
1979.00,0.0006
1978.00,0.0002
1977.00,-0.0003
1976.00,-0.0007
1975.00,-0.0010
1974.00,-0.0012
1973.00,-0.0012
1972.00,-0.0010
1971.00,-0.0008
1970.00,-0.0007
1969.00,-0.0007
1968.00,-0.0008
1967.00,-0.0010
1966.00,-0.0013
1965.00,-0.0015
1964.00,-0.0016
1963.00,-0.0016
1962.00,-0.0017
1961.00,-0.0019
1960.00,-0.0023
1959.00,-0.0025
1958.00,-0.0026
1957.00,-0.0024
1956.00,-0.0021
1955.00,-0.0018
1954.00,-0.0016
1953.00,-0.0015
1952.00,-0.0016
1951.00,-0.0017
1950.00,-0.0018
1949.00,-0.0018
1948.00,-0.0018
1947.00,-0.0019
1946.00,-0.0020
1945.00,-0.0021
1944.00,-0.0020
1943.00,-0.0019
1942.00,-0.0018
1941.00,-0.0017
1940.00,-0.0016
1939.00,-0.0015
1938.00,-0.0013
1937.00,-0.0011
1936.00,-0.0010
1935.00,-0.0009
1934.00,-0.0009
1933.00,-0.0011
1932.00,-0.0012
1931.00,-0.0012
1930.00,-0.0010
1929.00,-0.0009
1928.00,-0.0007
1927.00,-0.0007
1926.00,-0.0006
1925.00,-0.0006
1924.00,-0.0005
1923.00,-0.0004
1922.00,-0.0004
1921.00,-0.0004
1920.00,-0.0005
1919.00,-0.0005
1918.00,-0.0005
1917.00,-0.0004
1916.00,-0.0003
1915.00,-0.0003
1914.00,-0.0003
1913.00,-0.0003
1912.00,-0.0003
1911.00,-0.0002
1910.00,-0.0002
1909.00,-0.0002
1908.00,-0.0003
1907.00,-0.0003
1906.00,-0.0004
1905.00,-0.0004
1904.00,-0.0003
1903.00,-0.0003
1902.00,-0.0002
1901.00,-0.0001
1900.00,0.0000
1899.00,0.0001
1898.00,0.0001
1897.00,0.0000
1896.00,0.0000
1895.00,0.0001
1894.00,0.0001
1893.00,0.0000
1892.00,-0.0000
1891.00,-0.0001
1890.00,-0.0002
1889.00,-0.0002
1888.00,-0.0001
1887.00,-0.0001
1886.00,-0.0002
1885.00,-0.0003
1884.00,-0.0003
1883.00,-0.0003
1882.00,-0.0003
1881.00,-0.0003
1880.00,-0.0002
1879.00,-0.0002
1878.00,-0.0002
1877.00,-0.0002
1876.00,-0.0001
1875.00,-0.0001
1874.00,-0.0001
1873.00,-0.0001
1872.00,0.0000
1871.00,0.0001
1870.00,0.0002
1869.00,0.0002
1868.00,0.0001
1867.00,-0.0000
1866.00,-0.0001
1865.00,-0.0001
1864.00,-0.0000
1863.00,0.0000
1862.00,0.0000
1861.00,0.0001
1860.00,0.0001
1859.00,0.0001
1858.00,0.0001
1857.00,0.0000
1856.00,-0.0000
1855.00,-0.0001
1854.00,-0.0001
1853.00,-0.0000
1852.00,0.0001
1851.00,0.0002
1850.00,0.0002
1849.00,0.0002
1848.00,0.0001
1847.00,0.0001
1846.00,0.0001
1845.00,0.0001
1844.00,0.0001
1843.00,0.0000
1842.00,0.0000
1841.00,0.0001
1840.00,0.0001
1839.00,0.0001
1838.00,0.0001
1837.00,0.0001
1836.00,0.0002
1835.00,0.0002
1834.00,0.0002
1833.00,0.0002
1832.00,0.0002
1831.00,0.0001
1830.00,0.0001
1829.00,0.0002
1828.00,0.0003
1827.00,0.0003
1826.00,0.0003
1825.00,0.0003
1824.00,0.0002
1823.00,0.0002
1822.00,0.0002
1821.00,0.0002
1820.00,0.0003
1819.00,0.0002
1818.00,0.0001
1817.00,0.0000
1816.00,0.0000
1815.00,0.0001
1814.00,0.0002
1813.00,0.0002
1812.00,0.0003
1811.00,0.0004
1810.00,0.0004
1809.00,0.0004
1808.00,0.0004
1807.00,0.0004
1806.00,0.0003
1805.00,0.0003
1804.00,0.0003
1803.00,0.0004
1802.00,0.0004
1801.00,0.0004
1800.00,0.0004
1799.00,0.0004
1798.00,0.0004
1797.00,0.0004
1796.00,0.0005
1795.00,0.0005
1794.00,0.0005
1793.00,0.0005
1792.00,0.0006
1791.00,0.0006
1790.00,0.0006
1789.00,0.0006
1788.00,0.0007
1787.00,0.0007
1786.00,0.0007
1785.00,0.0007
1784.00,0.0007
1783.00,0.0008
1782.00,0.0008
1781.00,0.0008
1780.00,0.0008
1779.00,0.0008
1778.00,0.0007
1777.00,0.0007
1776.00,0.0008
1775.00,0.0008
1774.00,0.0008
1773.00,0.0009
1772.00,0.0009
1771.00,0.0009
1770.00,0.0010
1769.00,0.0010
1768.00,0.0010
1767.00,0.0010
1766.00,0.0010
1765.00,0.0010
1764.00,0.0011
1763.00,0.0011
1762.00,0.0010
1761.00,0.0011
1760.00,0.0011
1759.00,0.0012
1758.00,0.0012
1757.00,0.0012
1756.00,0.0012
1755.00,0.0013
1754.00,0.0013
1753.00,0.0014
1752.00,0.0015
1751.00,0.0016
1750.00,0.0016
1749.00,0.0016
1748.00,0.0016
1747.00,0.0016
1746.00,0.0016
1745.00,0.0017
1744.00,0.0017
1743.00,0.0018
1742.00,0.0018
1741.00,0.0019
1740.00,0.0019
1739.00,0.0019
1738.00,0.0019
1737.00,0.0019
1736.00,0.0019
1735.00,0.0019
1734.00,0.0018
1733.00,0.0019
1732.00,0.0020
1731.00,0.0020
1730.00,0.0020
1729.00,0.0020
1728.00,0.0020
1727.00,0.0020
1726.00,0.0019
1725.00,0.0019
1724.00,0.0019
1723.00,0.0019
1722.00,0.0019
1721.00,0.0020
1720.00,0.0020
1719.00,0.0021
1718.00,0.0021
1717.00,0.0021
1716.00,0.0021
1715.00,0.0021
1714.00,0.0021
1713.00,0.0021
1712.00,0.0021
1711.00,0.0021
1710.00,0.0022
1709.00,0.0022
1708.00,0.0023
1707.00,0.0023
1706.00,0.0023
1705.00,0.0023
1704.00,0.0024
1703.00,0.0025
1702.00,0.0025
1701.00,0.0026
1700.00,0.0027
1699.00,0.0028
1698.00,0.0028
1697.00,0.0028
1696.00,0.0028
1695.00,0.0028
1694.00,0.0028
1693.00,0.0028
1692.00,0.0029
1691.00,0.0029
1690.00,0.0030
1689.00,0.0030
1688.00,0.0031
1687.00,0.0032
1686.00,0.0033
1685.00,0.0033
1684.00,0.0034
1683.00,0.0035
1682.00,0.0036
1681.00,0.0036
1680.00,0.0036
1679.00,0.0037
1678.00,0.0038
1677.00,0.0038
1676.00,0.0038
1675.00,0.0039
1674.00,0.0040
1673.00,0.0041
1672.00,0.0042
1671.00,0.0042
1670.00,0.0043
1669.00,0.0044
1668.00,0.0045
1667.00,0.0046
1666.00,0.0046
1665.00,0.0047
1664.00,0.0047
1663.00,0.0048
1662.00,0.0047
1661.00,0.0048
1660.00,0.0048
1659.00,0.0049
1658.00,0.0050
1657.00,0.0051
1656.00,0.0053
1655.00,0.0054
1654.00,0.0054
1653.00,0.0056
1652.00,0.0059
1651.00,0.0060
1650.00,0.0061
1649.00,0.0063
1648.00,0.0064
1647.00,0.0066
1646.00,0.0066
1645.00,0.0066
1644.00,0.0066
1643.00,0.0065
1642.00,0.0064
1641.00,0.0064
1640.00,0.0064
1639.00,0.0064
1638.00,0.0064
1637.00,0.0063
1636.00,0.0062
1635.00,0.0062
1634.00,0.0061
1633.00,0.0061
1632.00,0.0061
1631.00,0.0061
1630.00,0.0061
1629.00,0.0061
1628.00,0.0061
1627.00,0.0061
1626.00,0.0061
1625.00,0.0060
1624.00,0.0060
1623.00,0.0059
1622.00,0.0058
1621.00,0.0058
1620.00,0.0058
1619.00,0.0058
1618.00,0.0058
1617.00,0.0058
1616.00,0.0058
1615.00,0.0058
1614.00,0.0057
1613.00,0.0056
1612.00,0.0056
1611.00,0.0056
1610.00,0.0057
1609.00,0.0057
1608.00,0.0057
1607.00,0.0057
1606.00,0.0057
1605.00,0.0056
1604.00,0.0056
1603.00,0.0056
1602.00,0.0057
1601.00,0.0057
1600.00,0.0057
1599.00,0.0056
1598.00,0.0055
1597.00,0.0055
1596.00,0.0054
1595.00,0.0054
1594.00,0.0054
1593.00,0.0054
1592.00,0.0054
1591.00,0.0054
1590.00,0.0054
1589.00,0.0053
1588.00,0.0054
1587.00,0.0053
1586.00,0.0053
1585.00,0.0053
1584.00,0.0054
1583.00,0.0054
1582.00,0.0054
1581.00,0.0054
1580.00,0.0055
1579.00,0.0055
1578.00,0.0055
1577.00,0.0056
1576.00,0.0056
1575.00,0.0056
1574.00,0.0055
1573.00,0.0055
1572.00,0.0055
1571.00,0.0055
1570.00,0.0055
1569.00,0.0055
1568.00,0.0055
1567.00,0.0055
1566.00,0.0055
1565.00,0.0056
1564.00,0.0057
1563.00,0.0058
1562.00,0.0059
1561.00,0.0060
1560.00,0.0060
1559.00,0.0059
1558.00,0.0059
1557.00,0.0059
1556.00,0.0060
1555.00,0.0060
1554.00,0.0061
1553.00,0.0062
1552.00,0.0063
1551.00,0.0063
1550.00,0.0063
1549.00,0.0064
1548.00,0.0064
1547.00,0.0064
1546.00,0.0065
1545.00,0.0065
1544.00,0.0066
1543.00,0.0067
1542.00,0.0067
1541.00,0.0067
1540.00,0.0066
1539.00,0.0065
1538.00,0.0063
1537.00,0.0062
1536.00,0.0061
1535.00,0.0060
1534.00,0.0059
1533.00,0.0058
1532.00,0.0058
1531.00,0.0057
1530.00,0.0056
1529.00,0.0055
1528.00,0.0055
1527.00,0.0055
1526.00,0.0055
1525.00,0.0055
1524.00,0.0055
1523.00,0.0055
1522.00,0.0054
1521.00,0.0054
1520.00,0.0055
1519.00,0.0055
1518.00,0.0054
1517.00,0.0054
1516.00,0.0055
1515.00,0.0054
1514.00,0.0054
1513.00,0.0055
1512.00,0.0056
1511.00,0.0057
1510.00,0.0058
1509.00,0.0059
1508.00,0.0061
1507.00,0.0062
1506.00,0.0062
1505.00,0.0062
1504.00,0.0063
1503.00,0.0063
1502.00,0.0064
1501.00,0.0066
1500.00,0.0069
1499.00,0.0072
1498.00,0.0074
1497.00,0.0078
1496.00,0.0081
1495.00,0.0084
1494.00,0.0087
1493.00,0.0091
1492.00,0.0095
1491.00,0.0098
1490.00,0.0101
1489.00,0.0105
1488.00,0.0110
1487.00,0.0114
1486.00,0.0118
1485.00,0.0123
1484.00,0.0129
1483.00,0.0136
1482.00,0.0144
1481.00,0.0154
1480.00,0.0166
1479.00,0.0178
1478.00,0.0192
1477.00,0.0210
1476.00,0.0232
1475.00,0.0257
1474.00,0.0292
1473.00,0.0344
1472.00,0.0408
1471.00,0.0471
1470.00,0.0531
1469.00,0.0594
1468.00,0.0663
1467.00,0.0738
1466.00,0.0824
1465.00,0.0918
1464.00,0.1003
1463.00,0.1065
1462.00,0.1108
1461.00,0.1141
1460.00,0.1168
1459.00,0.1191
1458.00,0.1214
1457.00,0.1238
1456.00,0.1254
1455.00,0.1260
1454.00,0.1260
1453.00,0.1255
1452.00,0.1240
1451.00,0.1209
1450.00,0.1160
1449.00,0.1085
1448.00,0.0986
1447.00,0.0878
1446.00,0.0780
1445.00,0.0695
1444.00,0.0622
1443.00,0.0563
1442.00,0.0519
1441.00,0.0489
1440.00,0.0470
1439.00,0.0460
1438.00,0.0456
1437.00,0.0451
1436.00,0.0435
1435.00,0.0405
1434.00,0.0366
1433.00,0.0321
1432.00,0.0275
1431.00,0.0235
1430.00,0.0203
1429.00,0.0180
1428.00,0.0165
1427.00,0.0156
1426.00,0.0150
1425.00,0.0145
1424.00,0.0139
1423.00,0.0136
1422.00,0.0134
1421.00,0.0132
1420.00,0.0130
1419.00,0.0128
1418.00,0.0127
1417.00,0.0124
1416.00,0.0122
1415.00,0.0120
1414.00,0.0120
1413.00,0.0118
1412.00,0.0117
1411.00,0.0116
1410.00,0.0116
1409.00,0.0115
1408.00,0.0114
1407.00,0.0115
1406.00,0.0116
1405.00,0.0116
1404.00,0.0117
1403.00,0.0118
1402.00,0.0120
1401.00,0.0121
1400.00,0.0121
1399.00,0.0123
1398.00,0.0126
1397.00,0.0128
1396.00,0.0131
1395.00,0.0136
1394.00,0.0142
1393.00,0.0147
1392.00,0.0154
1391.00,0.0162
1390.00,0.0175
1389.00,0.0193
1388.00,0.0220
1387.00,0.0260
1386.00,0.0313
1385.00,0.0379
1384.00,0.0464
1383.00,0.0578
1382.00,0.0724
1381.00,0.0907
1380.00,0.1125
1379.00,0.1367
1378.00,0.1595
1377.00,0.1758
1376.00,0.1810
1375.00,0.1724
1374.00,0.1519
1373.00,0.1269
1372.00,0.1036
1371.00,0.0840
1370.00,0.0680
1369.00,0.0556
1368.00,0.0469
1367.00,0.0416
1366.00,0.0387
1365.00,0.0375
1364.00,0.0377
1363.00,0.0391
1362.00,0.0412
1361.00,0.0434
1360.00,0.0449
1359.00,0.0453
1358.00,0.0442
1357.00,0.0416
1356.00,0.0379
1355.00,0.0337
1354.00,0.0297
1353.00,0.0262
1352.00,0.0235
1351.00,0.0212
1350.00,0.0194
1349.00,0.0180
1348.00,0.0168
1347.00,0.0159
1346.00,0.0151
1345.00,0.0145
1344.00,0.0140
1343.00,0.0136
1342.00,0.0133
1341.00,0.0129
1340.00,0.0126
1339.00,0.0124
1338.00,0.0122
1337.00,0.0122
1336.00,0.0122
1335.00,0.0125
1334.00,0.0128
1333.00,0.0132
1332.00,0.0137
1331.00,0.0140
1330.00,0.0142
1329.00,0.0141
1328.00,0.0138
1327.00,0.0133
1326.00,0.0127
1325.00,0.0120
1324.00,0.0114
1323.00,0.0109
1322.00,0.0105
1321.00,0.0101
1320.00,0.0098
1319.00,0.0096
1318.00,0.0093
1317.00,0.0092
1316.00,0.0090
1315.00,0.0090
1314.00,0.0090
1313.00,0.0091
1312.00,0.0093
1311.00,0.0096
1310.00,0.0102
1309.00,0.0112
1308.00,0.0125
1307.00,0.0141
1306.00,0.0156
1305.00,0.0166
1304.00,0.0169
1303.00,0.0165
1302.00,0.0157
1301.00,0.0149
1300.00,0.0143
1299.00,0.0139
1298.00,0.0137
1297.00,0.0136
1296.00,0.0134
1295.00,0.0131
1294.00,0.0126
1293.00,0.0121
1292.00,0.0115
1291.00,0.0110
1290.00,0.0105
1289.00,0.0100
1288.00,0.0097
1287.00,0.0093
1286.00,0.0090
1285.00,0.0088
1284.00,0.0086
1283.00,0.0085
1282.00,0.0084
1281.00,0.0083
1280.00,0.0082
1279.00,0.0082
1278.00,0.0081
1277.00,0.0080
1276.00,0.0080
1275.00,0.0080
1274.00,0.0080
1273.00,0.0080
1272.00,0.0080
1271.00,0.0081
1270.00,0.0081
1269.00,0.0082
1268.00,0.0083
1267.00,0.0084
1266.00,0.0087
1265.00,0.0090
1264.00,0.0093
1263.00,0.0097
1262.00,0.0102
1261.00,0.0108
1260.00,0.0116
1259.00,0.0127
1258.00,0.0138
1257.00,0.0148
1256.00,0.0153
1255.00,0.0152
1254.00,0.0144
1253.00,0.0133
1252.00,0.0122
1251.00,0.0113
1250.00,0.0107
1249.00,0.0102
1248.00,0.0099
1247.00,0.0097
1246.00,0.0095
1245.00,0.0094
1244.00,0.0092
1243.00,0.0091
1242.00,0.0090
1241.00,0.0089
1240.00,0.0088
1239.00,0.0087
1238.00,0.0086
1237.00,0.0085
1236.00,0.0084
1235.00,0.0084
1234.00,0.0083
1233.00,0.0082
1232.00,0.0081
1231.00,0.0081
1230.00,0.0081
1229.00,0.0081
1228.00,0.0081
1227.00,0.0082
1226.00,0.0083
1225.00,0.0085
1224.00,0.0087
1223.00,0.0090
1222.00,0.0094
1221.00,0.0097
1220.00,0.0099
1219.00,0.0100
1218.00,0.0099
1217.00,0.0097
1216.00,0.0094
1215.00,0.0091
1214.00,0.0088
1213.00,0.0085
1212.00,0.0082
1211.00,0.0080
1210.00,0.0078
1209.00,0.0077
1208.00,0.0076
1207.00,0.0075
1206.00,0.0075
1205.00,0.0074
1204.00,0.0073
1203.00,0.0072
1202.00,0.0071
1201.00,0.0071
1200.00,0.0071
1199.00,0.0071
1198.00,0.0072
1197.00,0.0072
1196.00,0.0073
1195.00,0.0073
1194.00,0.0074
1193.00,0.0074
1192.00,0.0074
1191.00,0.0074
1190.00,0.0075
1189.00,0.0076
1188.00,0.0076
1187.00,0.0077
1186.00,0.0077
1185.00,0.0079
1184.00,0.0080
1183.00,0.0083
1182.00,0.0085
1181.00,0.0089
1180.00,0.0094
1179.00,0.0101
1178.00,0.0111
1177.00,0.0122
1176.00,0.0137
1175.00,0.0158
1174.00,0.0185
1173.00,0.0220
1172.00,0.0262
1171.00,0.0307
1170.00,0.0352
1169.00,0.0389
1168.00,0.0412
1167.00,0.0418
1166.00,0.0409
1165.00,0.0388
1164.00,0.0360
1163.00,0.0332
1162.00,0.0307
1161.00,0.0285
1160.00,0.0268
1159.00,0.0254
1158.00,0.0243
1157.00,0.0235
1156.00,0.0229
1155.00,0.0224
1154.00,0.0220
1153.00,0.0216
1152.00,0.0210
1151.00,0.0203
1150.00,0.0194
1149.00,0.0184
1148.00,0.0173
1147.00,0.0163
1146.00,0.0154
1145.00,0.0145
1144.00,0.0137
1143.00,0.0130
1142.00,0.0124
1141.00,0.0118
1140.00,0.0113
1139.00,0.0108
1138.00,0.0104
1137.00,0.0100
1136.00,0.0097
1135.00,0.0094
1134.00,0.0093
1133.00,0.0092
1132.00,0.0091
1131.00,0.0091
1130.00,0.0092
1129.00,0.0092
1128.00,0.0092
1127.00,0.0092
1126.00,0.0093
1125.00,0.0094
1124.00,0.0095
1123.00,0.0097
1122.00,0.0097
1121.00,0.0097
1120.00,0.0097
1119.00,0.0097
1118.00,0.0099
1117.00,0.0100
1116.00,0.0101
1115.00,0.0102
1114.00,0.0103
1113.00,0.0105
1112.00,0.0106
1111.00,0.0109
1110.00,0.0112
1109.00,0.0116
1108.00,0.0122
1107.00,0.0129
1106.00,0.0136
1105.00,0.0143
1104.00,0.0149
1103.00,0.0151
1102.00,0.0151
1101.00,0.0148
1100.00,0.0143
1099.00,0.0137
1098.00,0.0131
1097.00,0.0125
1096.00,0.0120
1095.00,0.0115
1094.00,0.0111
1093.00,0.0108
1092.00,0.0105
1091.00,0.0103
1090.00,0.0101
1089.00,0.0099
1088.00,0.0097
1087.00,0.0096
1086.00,0.0095
1085.00,0.0095
1084.00,0.0095
1083.00,0.0095
1082.00,0.0095
1081.00,0.0095
1080.00,0.0093
1079.00,0.0091
1078.00,0.0089
1077.00,0.0088
1076.00,0.0087
1075.00,0.0086
1074.00,0.0086
1073.00,0.0086
1072.00,0.0085
1071.00,0.0086
1070.00,0.0086
1069.00,0.0087
1068.00,0.0086
1067.00,0.0085
1066.00,0.0084
1065.00,0.0085
1064.00,0.0085
1063.00,0.0086
1062.00,0.0087
1061.00,0.0088
1060.00,0.0088
1059.00,0.0089
1058.00,0.0090
1057.00,0.0090
1056.00,0.0091
1055.00,0.0091
1054.00,0.0092
1053.00,0.0093
1052.00,0.0094
1051.00,0.0097
1050.00,0.0100
1049.00,0.0104
1048.00,0.0108
1047.00,0.0112
1046.00,0.0116
1045.00,0.0117
1044.00,0.0117
1043.00,0.0114
1042.00,0.0110
1041.00,0.0106
1040.00,0.0102
1039.00,0.0100
1038.00,0.0099
1037.00,0.0098
1036.00,0.0097
1035.00,0.0097
1034.00,0.0097
1033.00,0.0097
1032.00,0.0096
1031.00,0.0096
1030.00,0.0096
1029.00,0.0096
1028.00,0.0095
1027.00,0.0094
1026.00,0.0093
1025.00,0.0093
1024.00,0.0094
1023.00,0.0095
1022.00,0.0097
1021.00,0.0098
1020.00,0.0098
1019.00,0.0099
1018.00,0.0100
1017.00,0.0102
1016.00,0.0105
1015.00,0.0108
1014.00,0.0113
1013.00,0.0118
1012.00,0.0123
1011.00,0.0127
1010.00,0.0131
1009.00,0.0136
1008.00,0.0143
1007.00,0.0152
1006.00,0.0165
1005.00,0.0182
1004.00,0.0205
1003.00,0.0235
1002.00,0.0275
1001.00,0.0324
1000.00,0.0377
999.00,0.0424
998.00,0.0450
997.00,0.0445
996.00,0.0412
995.00,0.0360
994.00,0.0303
993.00,0.0253
992.00,0.0213
991.00,0.0183
990.00,0.0162
989.00,0.0149
988.00,0.0141
987.00,0.0136
986.00,0.0134
985.00,0.0136
984.00,0.0141
983.00,0.0149
982.00,0.0163
981.00,0.0181
980.00,0.0207
979.00,0.0241
978.00,0.0284
977.00,0.0338
976.00,0.0398
975.00,0.0459
974.00,0.0508
973.00,0.0533
972.00,0.0524
971.00,0.0481
970.00,0.0417
969.00,0.0347
968.00,0.0284
967.00,0.0235
966.00,0.0198
965.00,0.0171
964.00,0.0152
963.00,0.0137
962.00,0.0126
961.00,0.0117
960.00,0.0110
959.00,0.0105
958.00,0.0101
957.00,0.0097
956.00,0.0094
955.00,0.0092
954.00,0.0090
953.00,0.0088
952.00,0.0087
951.00,0.0087
950.00,0.0086
949.00,0.0085
948.00,0.0085
947.00,0.0085
946.00,0.0087
945.00,0.0090
944.00,0.0094
943.00,0.0097
942.00,0.0099
941.00,0.0099
940.00,0.0097
939.00,0.0094
938.00,0.0090
937.00,0.0085
936.00,0.0081
935.00,0.0077
934.00,0.0074
933.00,0.0071
932.00,0.0069
931.00,0.0068
930.00,0.0068
929.00,0.0067
928.00,0.0067
927.00,0.0066
926.00,0.0066
925.00,0.0066
924.00,0.0067
923.00,0.0067
922.00,0.0068
921.00,0.0069
920.00,0.0070
919.00,0.0071
918.00,0.0072
917.00,0.0072
916.00,0.0072
915.00,0.0072
914.00,0.0072
913.00,0.0073
912.00,0.0074
911.00,0.0075
910.00,0.0077
909.00,0.0078
908.00,0.0080
907.00,0.0084
906.00,0.0091
905.00,0.0100
904.00,0.0114
903.00,0.0132
902.00,0.0152
901.00,0.0171
900.00,0.0183
899.00,0.0185
898.00,0.0176
897.00,0.0160
896.00,0.0142
895.00,0.0124
894.00,0.0110
893.00,0.0099
892.00,0.0091
891.00,0.0085
890.00,0.0082
889.00,0.0080
888.00,0.0079
887.00,0.0078
886.00,0.0076
885.00,0.0075
884.00,0.0074
883.00,0.0074
882.00,0.0073
881.00,0.0073
880.00,0.0072
879.00,0.0072
878.00,0.0073
877.00,0.0074
876.00,0.0074
875.00,0.0074
874.00,0.0073
873.00,0.0073
872.00,0.0073
871.00,0.0074
870.00,0.0075
869.00,0.0075
868.00,0.0076
867.00,0.0076
866.00,0.0076
865.00,0.0077
864.00,0.0077
863.00,0.0077
862.00,0.0078
861.00,0.0079
860.00,0.0081
859.00,0.0085
858.00,0.0089
857.00,0.0092
856.00,0.0095
855.00,0.0097
854.00,0.0101
853.00,0.0104
852.00,0.0109
851.00,0.0114
850.00,0.0122
849.00,0.0132
848.00,0.0145
847.00,0.0166
846.00,0.0197
845.00,0.0243
844.00,0.0305
843.00,0.0375
842.00,0.0432
841.00,0.0452
840.00,0.0426
839.00,0.0367
838.00,0.0299
837.00,0.0242
836.00,0.0203
835.00,0.0178
834.00,0.0163
833.00,0.0153
832.00,0.0145
831.00,0.0138
830.00,0.0133
829.00,0.0128
828.00,0.0125
827.00,0.0123
826.00,0.0121
825.00,0.0119
824.00,0.0117
823.00,0.0114
822.00,0.0113
821.00,0.0114
820.00,0.0115
819.00,0.0117
818.00,0.0120
817.00,0.0125
816.00,0.0131
815.00,0.0140
814.00,0.0153
813.00,0.0169
812.00,0.0186
811.00,0.0200
810.00,0.0210
809.00,0.0214
808.00,0.0212
807.00,0.0204
806.00,0.0192
805.00,0.0177
804.00,0.0162
803.00,0.0148
802.00,0.0136
801.00,0.0127
800.00,0.0119
799.00,0.0112
798.00,0.0106
797.00,0.0101
796.00,0.0097
795.00,0.0094
794.00,0.0092
793.00,0.0090
792.00,0.0087
791.00,0.0084
790.00,0.0082
789.00,0.0080
788.00,0.0078
787.00,0.0077
786.00,0.0075
785.00,0.0072
784.00,0.0071
783.00,0.0069
782.00,0.0068
781.00,0.0067
780.00,0.0065
779.00,0.0064
778.00,0.0062
777.00,0.0063
776.00,0.0064
775.00,0.0067
774.00,0.0069
773.00,0.0072
772.00,0.0076
771.00,0.0079
770.00,0.0081
769.00,0.0083
768.00,0.0084
767.00,0.0085
766.00,0.0084
765.00,0.0082
764.00,0.0079
763.00,0.0076
762.00,0.0072
761.00,0.0069
760.00,0.0066
759.00,0.0064
758.00,0.0064
757.00,0.0063
756.00,0.0063
755.00,0.0061
754.00,0.0060
753.00,0.0059
752.00,0.0058
751.00,0.0059
750.00,0.0058
749.00,0.0056
748.00,0.0055
747.00,0.0054
746.00,0.0055
745.00,0.0057
744.00,0.0059
743.00,0.0061
742.00,0.0062
741.00,0.0063
740.00,0.0064
739.00,0.0065
738.00,0.0065
737.00,0.0065
736.00,0.0067
735.00,0.0069
734.00,0.0071
733.00,0.0072
732.00,0.0072
731.00,0.0071
730.00,0.0070
729.00,0.0070
728.00,0.0070
727.00,0.0070
726.00,0.0071
725.00,0.0072
724.00,0.0073
723.00,0.0072
722.00,0.0071
721.00,0.0069
720.00,0.0068
719.00,0.0066
718.00,0.0065
717.00,0.0063
716.00,0.0062
715.00,0.0062
714.00,0.0062
713.00,0.0062
712.00,0.0062
711.00,0.0062
710.00,0.0061
709.00,0.0062
708.00,0.0062
707.00,0.0062
706.00,0.0061
705.00,0.0062
704.00,0.0063
703.00,0.0063
702.00,0.0063
701.00,0.0061
700.00,0.0060
699.00,0.0059
698.00,0.0058
697.00,0.0058
696.00,0.0057
695.00,0.0056
694.00,0.0056
693.00,0.0056
692.00,0.0056
691.00,0.0057
690.00,0.0057
689.00,0.0057
688.00,0.0056
687.00,0.0056
686.00,0.0056
685.00,0.0056
684.00,0.0057
683.00,0.0058
682.00,0.0061
681.00,0.0063
680.00,0.0063
679.00,0.0062
678.00,0.0059
677.00,0.0057
676.00,0.0055
675.00,0.0054
674.00,0.0055
673.00,0.0056
672.00,0.0057
671.00,0.0057
670.00,0.0056
669.00,0.0055
668.00,0.0055
667.00,0.0055
666.00,0.0054
665.00,0.0055
664.00,0.0056
663.00,0.0059
662.00,0.0062
661.00,0.0064
660.00,0.0064
659.00,0.0063
658.00,0.0062
657.00,0.0061
656.00,0.0060
655.00,0.0059
654.00,0.0060
653.00,0.0060
652.00,0.0060
651.00,0.0059
650.00,0.0057
649.00,0.0057
648.00,0.0059
647.00,0.0060
646.00,0.0062
645.00,0.0063
644.00,0.0064
643.00,0.0064
642.00,0.0062
641.00,0.0058
640.00,0.0055
639.00,0.0053
638.00,0.0053
637.00,0.0055
636.00,0.0057
635.00,0.0058
634.00,0.0059
633.00,0.0061
632.00,0.0063
631.00,0.0065
630.00,0.0064
629.00,0.0065
628.00,0.0067
627.00,0.0070
626.00,0.0072
625.00,0.0071
624.00,0.0067
623.00,0.0063
622.00,0.0060
621.00,0.0059
620.00,0.0060
619.00,0.0063
618.00,0.0064
617.00,0.0063
616.00,0.0061
615.00,0.0058
614.00,0.0056
613.00,0.0057
612.00,0.0059
611.00,0.0059
610.00,0.0057
609.00,0.0056
608.00,0.0055
607.00,0.0056
606.00,0.0058
605.00,0.0058
604.00,0.0058
603.00,0.0057
602.00,0.0057
601.00,0.0057
600.00,0.0058
599.00,0.0060
598.00,0.0061
597.00,0.0060
596.00,0.0060
595.00,0.0062
594.00,0.0066
593.00,0.0070
592.00,0.0071
591.00,0.0068
590.00,0.0064
589.00,0.0061
588.00,0.0061
587.00,0.0064
586.00,0.0066
585.00,0.0068
584.00,0.0069
583.00,0.0069
582.00,0.0070
581.00,0.0072
580.00,0.0073
579.00,0.0074
578.00,0.0075
577.00,0.0075
576.00,0.0072
575.00,0.0067
574.00,0.0063
573.00,0.0060
572.00,0.0060
571.00,0.0062
570.00,0.0064
569.00,0.0064
568.00,0.0065
567.00,0.0067
566.00,0.0067
565.00,0.0066
564.00,0.0066
563.00,0.0066
562.00,0.0066
561.00,0.0066
560.00,0.0068
559.00,0.0072
558.00,0.0075
557.00,0.0077
556.00,0.0076
555.00,0.0074
554.00,0.0073
553.00,0.0073
552.00,0.0073
551.00,0.0072
550.00,0.0069
549.00,0.0066
548.00,0.0063
547.00,0.0063
546.00,0.0066
545.00,0.0070
544.00,0.0074
543.00,0.0076
542.00,0.0076
541.00,0.0073
540.00,0.0071
539.00,0.0072
538.00,0.0076
537.00,0.0079
536.00,0.0081
535.00,0.0081
534.00,0.0082
533.00,0.0083
532.00,0.0084
531.00,0.0084
530.00,0.0085
529.00,0.0087
528.00,0.0090
527.00,0.0092
526.00,0.0091
525.00,0.0089
524.00,0.0087
523.00,0.0089
522.00,0.0091
521.00,0.0091
520.00,0.0087
519.00,0.0081
518.00,0.0077
517.00,0.0077
516.00,0.0080
515.00,0.0084
514.00,0.0084
513.00,0.0080
512.00,0.0075
511.00,0.0073
510.00,0.0076
509.00,0.0080
508.00,0.0085
507.00,0.0088
506.00,0.0091
505.00,0.0092
504.00,0.0089
503.00,0.0082
502.00,0.0072
501.00,0.0060
500.00,0.0053
499.00,0.0053
498.00,0.0061
497.00,0.0070
496.00,0.0074
495.00,0.0075
494.00,0.0074
493.00,0.0073
492.00,0.0072
491.00,0.0069
490.00,0.0063
489.00,0.0059
488.00,0.0056
487.00,0.0056
486.00,0.0057
485.00,0.0058
484.00,0.0059
483.00,0.0062
482.00,0.0063
481.00,0.0064
480.00,0.0064
479.00,0.0065
478.00,0.0066
477.00,0.0067
476.00,0.0070
475.00,0.0076
474.00,0.0082
473.00,0.0083
472.00,0.0080
471.00,0.0080
470.00,0.0084
469.00,0.0089
468.00,0.0089
467.00,0.0085
466.00,0.0082
465.00,0.0081
464.00,0.0085
463.00,0.0098
462.00,0.0119
461.00,0.0142
460.00,0.0158
459.00,0.0163
458.00,0.0159
457.00,0.0153
456.00,0.0147
455.00,0.0141
454.00,0.0134
453.00,0.0129
452.00,0.0126
451.00,0.0121
450.00,0.0115
