Created as New Dataset,Sample 132 By Administrator Date Tuesday, September 09 2025
cm-1,A
4000.00,0.0008
3999.00,0.0008
3998.00,0.0008
3997.00,0.0009
3996.00,0.0009
3995.00,0.0009
3994.00,0.0009
3993.00,0.0009
3992.00,0.0009
3991.00,0.0009
3990.00,0.0008
3989.00,0.0008
3988.00,0.0008
3987.00,0.0008
3986.00,0.0007
3985.00,0.0007
3984.00,0.0007
3983.00,0.0007
3982.00,0.0007
3981.00,0.0007
3980.00,0.0007
3979.00,0.0007
3978.00,0.0006
3977.00,0.0006
3976.00,0.0006
3975.00,0.0007
3974.00,0.0007
3973.00,0.0007
3972.00,0.0007
3971.00,0.0007
3970.00,0.0007
3969.00,0.0007
3968.00,0.0007
3967.00,0.0007
3966.00,0.0007
3965.00,0.0007
3964.00,0.0007
3963.00,0.0007
3962.00,0.0007
3961.00,0.0007
3960.00,0.0007
3959.00,0.0007
3958.00,0.0007
3957.00,0.0007
3956.00,0.0007
3955.00,0.0007
3954.00,0.0006
3953.00,0.0006
3952.00,0.0006
3951.00,0.0006
3950.00,0.0006
3949.00,0.0006
3948.00,0.0007
3947.00,0.0007
3946.00,0.0007
3945.00,0.0007
3944.00,0.0007
3943.00,0.0007
3942.00,0.0007
3941.00,0.0007
3940.00,0.0007
3939.00,0.0007
3938.00,0.0007
3937.00,0.0007
3936.00,0.0007
3935.00,0.0007
3934.00,0.0007
3933.00,0.0007
3932.00,0.0007
3931.00,0.0007
3930.00,0.0007
3929.00,0.0007
3928.00,0.0007
3927.00,0.0007
3926.00,0.0006
3925.00,0.0006
3924.00,0.0006
3923.00,0.0006
3922.00,0.0006
3921.00,0.0007
3920.00,0.0007
3919.00,0.0007
3918.00,0.0007
3917.00,0.0007
3916.00,0.0008
3915.00,0.0008
3914.00,0.0007
3913.00,0.0007
3912.00,0.0007
3911.00,0.0007
3910.00,0.0007
3909.00,0.0007
3908.00,0.0007
3907.00,0.0006
3906.00,0.0006
3905.00,0.0006
3904.00,0.0006
3903.00,0.0006
3902.00,0.0006
3901.00,0.0006
3900.00,0.0006
3899.00,0.0006
3898.00,0.0006
3897.00,0.0006
3896.00,0.0006
3895.00,0.0007
3894.00,0.0007
3893.00,0.0007
3892.00,0.0007
3891.00,0.0007
3890.00,0.0007
3889.00,0.0007
3888.00,0.0007
3887.00,0.0008
3886.00,0.0008
3885.00,0.0008
3884.00,0.0008
3883.00,0.0007
3882.00,0.0006
3881.00,0.0006
3880.00,0.0006
3879.00,0.0006
3878.00,0.0006
3877.00,0.0006
3876.00,0.0006
3875.00,0.0006
3874.00,0.0006
3873.00,0.0006
3872.00,0.0006
3871.00,0.0006
3870.00,0.0006
3869.00,0.0006
3868.00,0.0006
3867.00,0.0006
3866.00,0.0006
3865.00,0.0006
3864.00,0.0005
3863.00,0.0005
3862.00,0.0005
3861.00,0.0005
3860.00,0.0005
3859.00,0.0006
3858.00,0.0006
3857.00,0.0006
3856.00,0.0006
3855.00,0.0005
3854.00,0.0005
3853.00,0.0005
3852.00,0.0006
3851.00,0.0006
3850.00,0.0006
3849.00,0.0006
3848.00,0.0006
3847.00,0.0006
3846.00,0.0005
3845.00,0.0005
3844.00,0.0005
3843.00,0.0005
3842.00,0.0006
3841.00,0.0006
3840.00,0.0006
3839.00,0.0006
3838.00,0.0006
3837.00,0.0006
3836.00,0.0006
3835.00,0.0005
3834.00,0.0005
3833.00,0.0005
3832.00,0.0005
3831.00,0.0005
3830.00,0.0005
3829.00,0.0005
3828.00,0.0005
3827.00,0.0005
3826.00,0.0006
3825.00,0.0006
3824.00,0.0006
3823.00,0.0006
3822.00,0.0006
3821.00,0.0006
3820.00,0.0006
3819.00,0.0006
3818.00,0.0006
3817.00,0.0006
3816.00,0.0006
3815.00,0.0006
3814.00,0.0006
3813.00,0.0007
3812.00,0.0007
3811.00,0.0007
3810.00,0.0007
3809.00,0.0007
3808.00,0.0006
3807.00,0.0006
3806.00,0.0006
3805.00,0.0005
3804.00,0.0005
3803.00,0.0005
3802.00,0.0005
3801.00,0.0005
3800.00,0.0005
3799.00,0.0005
3798.00,0.0006
3797.00,0.0006
3796.00,0.0006
3795.00,0.0006
3794.00,0.0006
3793.00,0.0006
3792.00,0.0006
3791.00,0.0006
3790.00,0.0006
3789.00,0.0006
3788.00,0.0006
3787.00,0.0006
3786.00,0.0006
3785.00,0.0006
3784.00,0.0006
3783.00,0.0007
3782.00,0.0007
3781.00,0.0007
3780.00,0.0007
3779.00,0.0007
3778.00,0.0007
3777.00,0.0006
3776.00,0.0006
3775.00,0.0006
3774.00,0.0007
3773.00,0.0007
3772.00,0.0007
3771.00,0.0007
3770.00,0.0008
3769.00,0.0008
3768.00,0.0008
3767.00,0.0007
3766.00,0.0007
3765.00,0.0007
3764.00,0.0007
3763.00,0.0008
3762.00,0.0008
3761.00,0.0008
3760.00,0.0008
3759.00,0.0008
3758.00,0.0008
3757.00,0.0007
3756.00,0.0007
3755.00,0.0007
3754.00,0.0007
3753.00,0.0006
3752.00,0.0006
3751.00,0.0006
3750.00,0.0007
3749.00,0.0007
3748.00,0.0007
3747.00,0.0007
3746.00,0.0007
3745.00,0.0007
3744.00,0.0007
3743.00,0.0007
3742.00,0.0006
3741.00,0.0005
3740.00,0.0005
3739.00,0.0005
3738.00,0.0005
3737.00,0.0005
3736.00,0.0005
3735.00,0.0006
3734.00,0.0006
3733.00,0.0006
3732.00,0.0006
3731.00,0.0006
3730.00,0.0006
3729.00,0.0005
3728.00,0.0005
3727.00,0.0004
3726.00,0.0004
3725.00,0.0004
3724.00,0.0005
3723.00,0.0005
3722.00,0.0005
3721.00,0.0005
3720.00,0.0005
3719.00,0.0005
3718.00,0.0006
3717.00,0.0006
3716.00,0.0006
3715.00,0.0006
3714.00,0.0006
3713.00,0.0006
3712.00,0.0005
3711.00,0.0005
3710.00,0.0005
3709.00,0.0005
3708.00,0.0005
3707.00,0.0005
3706.00,0.0005
3705.00,0.0005
3704.00,0.0005
3703.00,0.0005
3702.00,0.0005
3701.00,0.0005
3700.00,0.0005
3699.00,0.0005
3698.00,0.0004
3697.00,0.0004
3696.00,0.0004
3695.00,0.0004
3694.00,0.0004
3693.00,0.0004
3692.00,0.0004
3691.00,0.0005
3690.00,0.0005
3689.00,0.0005
3688.00,0.0005
3687.00,0.0005
3686.00,0.0005
3685.00,0.0005
3684.00,0.0005
3683.00,0.0005
3682.00,0.0004
3681.00,0.0004
3680.00,0.0004
3679.00,0.0005
3678.00,0.0005
3677.00,0.0005
3676.00,0.0004
3675.00,0.0004
3674.00,0.0004
3673.00,0.0005
3672.00,0.0005
3671.00,0.0005
3670.00,0.0006
3669.00,0.0006
3668.00,0.0006
3667.00,0.0006
3666.00,0.0006
3665.00,0.0006
3664.00,0.0006
3663.00,0.0005
3662.00,0.0005
3661.00,0.0005
3660.00,0.0005
3659.00,0.0005
3658.00,0.0005
3657.00,0.0005
3656.00,0.0005
3655.00,0.0005
3654.00,0.0005
3653.00,0.0005
3652.00,0.0005
3651.00,0.0004
3650.00,0.0004
3649.00,0.0005
3648.00,0.0005
3647.00,0.0006
3646.00,0.0005
3645.00,0.0005
3644.00,0.0005
3643.00,0.0004
3642.00,0.0004
3641.00,0.0005
3640.00,0.0005
3639.00,0.0006
3638.00,0.0006
3637.00,0.0007
3636.00,0.0007
3635.00,0.0007
3634.00,0.0007
3633.00,0.0007
3632.00,0.0006
3631.00,0.0006
3630.00,0.0006
3629.00,0.0006
3628.00,0.0007
3627.00,0.0006
3626.00,0.0006
3625.00,0.0006
3624.00,0.0006
3623.00,0.0006
3622.00,0.0006
3621.00,0.0006
3620.00,0.0006
3619.00,0.0005
3618.00,0.0005
3617.00,0.0004
3616.00,0.0004
3615.00,0.0004
3614.00,0.0005
3613.00,0.0006
3612.00,0.0006
3611.00,0.0007
3610.00,0.0007
3609.00,0.0007
3608.00,0.0007
3607.00,0.0006
3606.00,0.0006
3605.00,0.0007
3604.00,0.0007
3603.00,0.0007
3602.00,0.0007
3601.00,0.0007
3600.00,0.0006
3599.00,0.0006
3598.00,0.0006
3597.00,0.0007
3596.00,0.0007
3595.00,0.0007
3594.00,0.0007
3593.00,0.0007
3592.00,0.0008
3591.00,0.0008
3590.00,0.0008
3589.00,0.0009
3588.00,0.0009
3587.00,0.0009
3586.00,0.0009
3585.00,0.0009
3584.00,0.0008
3583.00,0.0008
3582.00,0.0008
3581.00,0.0007
3580.00,0.0007
3579.00,0.0007
3578.00,0.0008
3577.00,0.0008
3576.00,0.0009
3575.00,0.0009
3574.00,0.0010
3573.00,0.0010
3572.00,0.0011
3571.00,0.0011
3570.00,0.0011
3569.00,0.0011
3568.00,0.0011
3567.00,0.0011
3566.00,0.0011
3565.00,0.0011
3564.00,0.0011
3563.00,0.0011
3562.00,0.0011
3561.00,0.0012
3560.00,0.0013
3559.00,0.0013
3558.00,0.0014
3557.00,0.0014
3556.00,0.0014
3555.00,0.0014
3554.00,0.0013
3553.00,0.0013
3552.00,0.0013
3551.00,0.0013
3550.00,0.0014
3549.00,0.0014
3548.00,0.0015
3547.00,0.0015
3546.00,0.0015
3545.00,0.0015
3544.00,0.0016
3543.00,0.0016
3542.00,0.0016
3541.00,0.0016
3540.00,0.0016
3539.00,0.0016
3538.00,0.0016
3537.00,0.0016
3536.00,0.0016
3535.00,0.0016
3534.00,0.0016
3533.00,0.0017
3532.00,0.0017
3531.00,0.0017
3530.00,0.0016
3529.00,0.0017
3528.00,0.0017
3527.00,0.0017
3526.00,0.0017
3525.00,0.0017
3524.00,0.0017
3523.00,0.0017
3522.00,0.0017
3521.00,0.0018
3520.00,0.0018
3519.00,0.0019
3518.00,0.0019
3517.00,0.0020
3516.00,0.0020
3515.00,0.0020
3514.00,0.0020
3513.00,0.0020
3512.00,0.0020
3511.00,0.0020
3510.00,0.0020
3509.00,0.0020
3508.00,0.0021
3507.00,0.0021
3506.00,0.0021
3505.00,0.0021
3504.00,0.0021
3503.00,0.0021
3502.00,0.0022
3501.00,0.0022
3500.00,0.0023
3499.00,0.0023
3498.00,0.0022
3497.00,0.0022
3496.00,0.0023
3495.00,0.0023
3494.00,0.0023
3493.00,0.0023
3492.00,0.0024
3491.00,0.0024
3490.00,0.0024
3489.00,0.0024
3488.00,0.0024
3487.00,0.0025
3486.00,0.0025
3485.00,0.0025
3484.00,0.0025
3483.00,0.0025
3482.00,0.0025
3481.00,0.0025
3480.00,0.0025
3479.00,0.0025
3478.00,0.0025
3477.00,0.0025
3476.00,0.0025
3475.00,0.0026
3474.00,0.0026
3473.00,0.0026
3472.00,0.0026
3471.00,0.0026
3470.00,0.0026
3469.00,0.0026
3468.00,0.0026
3467.00,0.0027
3466.00,0.0027
3465.00,0.0027
3464.00,0.0027
3463.00,0.0027
3462.00,0.0027
3461.00,0.0028
3460.00,0.0028
3459.00,0.0028
3458.00,0.0028
3457.00,0.0028
3456.00,0.0028
3455.00,0.0028
3454.00,0.0028
3453.00,0.0028
3452.00,0.0029
3451.00,0.0029
3450.00,0.0030
3449.00,0.0030
3448.00,0.0030
3447.00,0.0030
3446.00,0.0030
3445.00,0.0030
3444.00,0.0030
3443.00,0.0031
3442.00,0.0031
3441.00,0.0031
3440.00,0.0031
3439.00,0.0031
3438.00,0.0031
3437.00,0.0031
3436.00,0.0031
3435.00,0.0031
3434.00,0.0032
3433.00,0.0032
3432.00,0.0032
3431.00,0.0032
3430.00,0.0032
3429.00,0.0032
3428.00,0.0033
3427.00,0.0033
3426.00,0.0033
3425.00,0.0033
3424.00,0.0033
3423.00,0.0033
3422.00,0.0033
3421.00,0.0033
3420.00,0.0033
3419.00,0.0033
3418.00,0.0033
3417.00,0.0033
3416.00,0.0033
3415.00,0.0034
3414.00,0.0034
3413.00,0.0034
3412.00,0.0034
3411.00,0.0035
3410.00,0.0035
3409.00,0.0035
3408.00,0.0035
3407.00,0.0035
3406.00,0.0035
3405.00,0.0035
3404.00,0.0035
3403.00,0.0035
3402.00,0.0036
3401.00,0.0036
3400.00,0.0036
3399.00,0.0035
3398.00,0.0035
3397.00,0.0035
3396.00,0.0034
3395.00,0.0034
3394.00,0.0034
3393.00,0.0035
3392.00,0.0035
3391.00,0.0035
3390.00,0.0035
3389.00,0.0035
3388.00,0.0036
3387.00,0.0036
3386.00,0.0036
3385.00,0.0036
3384.00,0.0036
3383.00,0.0036
3382.00,0.0036
3381.00,0.0036
3380.00,0.0036
3379.00,0.0037
3378.00,0.0037
3377.00,0.0037
3376.00,0.0037
3375.00,0.0037
3374.00,0.0037
3373.00,0.0037
3372.00,0.0037
3371.00,0.0037
3370.00,0.0037
3369.00,0.0037
3368.00,0.0037
3367.00,0.0037
3366.00,0.0037
3365.00,0.0037
3364.00,0.0037
3363.00,0.0037
3362.00,0.0037
3361.00,0.0037
3360.00,0.0037
3359.00,0.0037
3358.00,0.0037
3357.00,0.0037
3356.00,0.0038
3355.00,0.0038
3354.00,0.0038
3353.00,0.0038
3352.00,0.0037
3351.00,0.0037
3350.00,0.0037
3349.00,0.0037
3348.00,0.0037
3347.00,0.0037
3346.00,0.0037
3345.00,0.0037
3344.00,0.0037
3343.00,0.0037
3342.00,0.0037
3341.00,0.0037
3340.00,0.0037
3339.00,0.0036
3338.00,0.0036
3337.00,0.0036
3336.00,0.0035
3335.00,0.0035
3334.00,0.0035
3333.00,0.0035
3332.00,0.0035
3331.00,0.0035
3330.00,0.0036
3329.00,0.0036
3328.00,0.0036
3327.00,0.0036
3326.00,0.0036
3325.00,0.0036
3324.00,0.0036
3323.00,0.0035
3322.00,0.0035
3321.00,0.0034
3320.00,0.0034
3319.00,0.0034
3318.00,0.0034
3317.00,0.0034
3316.00,0.0035
3315.00,0.0035
3314.00,0.0035
3313.00,0.0035
3312.00,0.0035
3311.00,0.0035
3310.00,0.0034
3309.00,0.0034
3308.00,0.0034
3307.00,0.0035
3306.00,0.0035
3305.00,0.0035
3304.00,0.0034
3303.00,0.0034
3302.00,0.0034
3301.00,0.0034
3300.00,0.0034
3299.00,0.0034
3298.00,0.0034
3297.00,0.0034
3296.00,0.0034
3295.00,0.0034
3294.00,0.0033
3293.00,0.0033
3292.00,0.0033
3291.00,0.0033
3290.00,0.0033
3289.00,0.0033
3288.00,0.0034
3287.00,0.0034
3286.00,0.0034
3285.00,0.0035
3284.00,0.0034
3283.00,0.0034
3282.00,0.0034
3281.00,0.0034
3280.00,0.0034
3279.00,0.0034
3278.00,0.0033
3277.00,0.0033
3276.00,0.0033
3275.00,0.0033
3274.00,0.0033
3273.00,0.0033
3272.00,0.0033
3271.00,0.0032
3270.00,0.0032
3269.00,0.0032
3268.00,0.0032
3267.00,0.0033
3266.00,0.0033
3265.00,0.0033
3264.00,0.0033
3263.00,0.0032
3262.00,0.0032
3261.00,0.0032
3260.00,0.0031
3259.00,0.0030
3258.00,0.0030
3257.00,0.0030
3256.00,0.0029
3255.00,0.0029
3254.00,0.0029
3253.00,0.0029
3252.00,0.0029
3251.00,0.0029
3250.00,0.0029
3249.00,0.0029
3248.00,0.0029
3247.00,0.0030
3246.00,0.0030
3245.00,0.0030
3244.00,0.0030
3243.00,0.0030
3242.00,0.0031
3241.00,0.0031
3240.00,0.0030
3239.00,0.0030
3238.00,0.0029
3237.00,0.0029
3236.00,0.0029
3235.00,0.0029
3234.00,0.0029
3233.00,0.0029
3232.00,0.0030
3231.00,0.0030
3230.00,0.0030
3229.00,0.0030
3228.00,0.0031
3227.00,0.0031
3226.00,0.0031
3225.00,0.0031
3224.00,0.0031
3223.00,0.0032
3222.00,0.0032
3221.00,0.0032
3220.00,0.0032
3219.00,0.0032
3218.00,0.0032
3217.00,0.0033
3216.00,0.0033
3215.00,0.0033
3214.00,0.0034
3213.00,0.0034
3212.00,0.0034
3211.00,0.0034
3210.00,0.0034
3209.00,0.0034
3208.00,0.0034
3207.00,0.0035
3206.00,0.0035
3205.00,0.0035
3204.00,0.0035
3203.00,0.0035
3202.00,0.0035
3201.00,0.0034
3200.00,0.0034
3199.00,0.0035
3198.00,0.0035
3197.00,0.0035
3196.00,0.0035
3195.00,0.0035
3194.00,0.0035
3193.00,0.0035
3192.00,0.0034
3191.00,0.0034
3190.00,0.0034
3189.00,0.0034
3188.00,0.0034
3187.00,0.0033
3186.00,0.0033
3185.00,0.0033
3184.00,0.0033
3183.00,0.0033
3182.00,0.0032
3181.00,0.0032
3180.00,0.0032
3179.00,0.0032
3178.00,0.0032
3177.00,0.0032
3176.00,0.0031
3175.00,0.0031
3174.00,0.0031
3173.00,0.0031
3172.00,0.0031
3171.00,0.0031
3170.00,0.0030
3169.00,0.0030
3168.00,0.0030
3167.00,0.0030
3166.00,0.0030
3165.00,0.0030
3164.00,0.0030
3163.00,0.0030
3162.00,0.0030
3161.00,0.0030
3160.00,0.0030
3159.00,0.0030
3158.00,0.0030
3157.00,0.0030
3156.00,0.0030
3155.00,0.0030
3154.00,0.0030
3153.00,0.0030
3152.00,0.0030
3151.00,0.0030
3150.00,0.0030
3149.00,0.0030
3148.00,0.0030
3147.00,0.0030
3146.00,0.0030
3145.00,0.0030
3144.00,0.0030
3143.00,0.0030
3142.00,0.0030
3141.00,0.0029
3140.00,0.0029
3139.00,0.0029
3138.00,0.0029
3137.00,0.0029
3136.00,0.0028
3135.00,0.0028
3134.00,0.0028
3133.00,0.0028
3132.00,0.0028
3131.00,0.0028
3130.00,0.0028
3129.00,0.0028
3128.00,0.0027
3127.00,0.0027
3126.00,0.0026
3125.00,0.0026
3124.00,0.0026
3123.00,0.0026
3122.00,0.0026
3121.00,0.0026
3120.00,0.0026
3119.00,0.0026
3118.00,0.0026
3117.00,0.0026
3116.00,0.0026
3115.00,0.0025
3114.00,0.0025
3113.00,0.0025
3112.00,0.0025
3111.00,0.0025
3110.00,0.0025
3109.00,0.0025
3108.00,0.0025
3107.00,0.0025
3106.00,0.0024
3105.00,0.0024
3104.00,0.0024
3103.00,0.0024
3102.00,0.0024
3101.00,0.0024
3100.00,0.0023
3099.00,0.0023
3098.00,0.0023
3097.00,0.0023
3096.00,0.0023
3095.00,0.0023
3094.00,0.0024
3093.00,0.0023
3092.00,0.0023
3091.00,0.0023
3090.00,0.0023
3089.00,0.0023
3088.00,0.0023
3087.00,0.0023
3086.00,0.0023
3085.00,0.0023
3084.00,0.0023
3083.00,0.0023
3082.00,0.0023
3081.00,0.0023
3080.00,0.0023
3079.00,0.0023
3078.00,0.0023
3077.00,0.0023
3076.00,0.0024
3075.00,0.0024
3074.00,0.0024
3073.00,0.0024
3072.00,0.0024
3071.00,0.0024
3070.00,0.0024
3069.00,0.0025
3068.00,0.0025
3067.00,0.0025
3066.00,0.0025
3065.00,0.0026
3064.00,0.0026
3063.00,0.0026
3062.00,0.0026
3061.00,0.0026
3060.00,0.0026
3059.00,0.0026
3058.00,0.0026
3057.00,0.0027
3056.00,0.0027
3055.00,0.0028
3054.00,0.0028
3053.00,0.0028
3052.00,0.0028
3051.00,0.0028
3050.00,0.0028
3049.00,0.0028
3048.00,0.0028
3047.00,0.0028
3046.00,0.0028
3045.00,0.0028
3044.00,0.0029
3043.00,0.0029
3042.00,0.0029
3041.00,0.0029
3040.00,0.0029
3039.00,0.0030
3038.00,0.0030
3037.00,0.0031
3036.00,0.0031
3035.00,0.0031
3034.00,0.0031
3033.00,0.0032
3032.00,0.0032
3031.00,0.0032
3030.00,0.0033
3029.00,0.0034
3028.00,0.0035
3027.00,0.0036
3026.00,0.0036
3025.00,0.0037
3024.00,0.0037
3023.00,0.0038
3022.00,0.0038
3021.00,0.0039
3020.00,0.0039
3019.00,0.0040
3018.00,0.0041
3017.00,0.0042
3016.00,0.0043
3015.00,0.0044
3014.00,0.0046
3013.00,0.0047
3012.00,0.0048
3011.00,0.0050
3010.00,0.0051
3009.00,0.0053
3008.00,0.0055
3007.00,0.0057
3006.00,0.0059
3005.00,0.0061
3004.00,0.0063
3003.00,0.0066
3002.00,0.0068
3001.00,0.0071
3000.00,0.0074
2999.00,0.0077
2998.00,0.0080
2997.00,0.0084
2996.00,0.0088
2995.00,0.0092
2994.00,0.0096
2993.00,0.0102
2992.00,0.0107
2991.00,0.0114
2990.00,0.0121
2989.00,0.0128
2988.00,0.0137
2987.00,0.0146
2986.00,0.0156
2985.00,0.0167
2984.00,0.0181
2983.00,0.0195
2982.00,0.0211
2981.00,0.0229
2980.00,0.0249
2979.00,0.0272
2978.00,0.0297
2977.00,0.0326
2976.00,0.0359
2975.00,0.0396
2974.00,0.0438
2973.00,0.0485
2972.00,0.0538
2971.00,0.0597
2970.00,0.0662
2969.00,0.0731
2968.00,0.0806
2967.00,0.0885
2966.00,0.0965
2965.00,0.1045
2964.00,0.1121
2963.00,0.1190
2962.00,0.1251
2961.00,0.1303
2960.00,0.1349
2959.00,0.1392
2958.00,0.1439
2957.00,0.1493
2956.00,0.1559
2955.00,0.1638
2954.00,0.1727
2953.00,0.1821
2952.00,0.1910
2951.00,0.1981
2950.00,0.2023
2949.00,0.2025
2948.00,0.1982
2947.00,0.1895
2946.00,0.1774
2945.00,0.1634
2944.00,0.1492
2943.00,0.1364
2942.00,0.1259
2941.00,0.1181
2940.00,0.1131
2939.00,0.1107
2938.00,0.1106
2937.00,0.1127
2936.00,0.1166
2935.00,0.1222
2934.00,0.1295
2933.00,0.1382
2932.00,0.1481
2931.00,0.1591
2930.00,0.1708
2929.00,0.1828
2928.00,0.1948
2927.00,0.2065
2926.00,0.2178
2925.00,0.2286
2924.00,0.2391
2923.00,0.2495
2922.00,0.2597
2921.00,0.2696
2920.00,0.2786
2919.00,0.2857
2918.00,0.2899
2917.00,0.2904
2916.00,0.2869
2915.00,0.2798
2914.00,0.2700
2913.00,0.2587
2912.00,0.2469
2911.00,0.2355
2910.00,0.2247
2909.00,0.2148
2908.00,0.2056
2907.00,0.1969
2906.00,0.1885
2905.00,0.1803
2904.00,0.1722
2903.00,0.1644
2902.00,0.1568
2901.00,0.1496
2900.00,0.1427
2899.00,0.1363
2898.00,0.1304
2897.00,0.1250
2896.00,0.1203
2895.00,0.1163
2894.00,0.1131
2893.00,0.1106
2892.00,0.1088
2891.00,0.1077
2890.00,0.1071
2889.00,0.1071
2888.00,0.1076
2887.00,0.1084
2886.00,0.1096
2885.00,0.1112
2884.00,0.1132
2883.00,0.1159
2882.00,0.1190
2881.00,0.1226
2880.00,0.1261
2879.00,0.1292
2878.00,0.1314
2877.00,0.1325
2876.00,0.1325
2875.00,0.1318
2874.00,0.1309
2873.00,0.1305
2872.00,0.1310
2871.00,0.1324
2870.00,0.1344
2869.00,0.1366
2868.00,0.1382
2867.00,0.1380
2866.00,0.1353
2865.00,0.1296
2864.00,0.1212
2863.00,0.1110
2862.00,0.1003
2861.00,0.0901
2860.00,0.0813
2859.00,0.0742
2858.00,0.0687
2857.00,0.0647
2856.00,0.0619
2855.00,0.0601
2854.00,0.0591
2853.00,0.0589
2852.00,0.0594
2851.00,0.0606
2850.00,0.0626
2849.00,0.0654
2848.00,0.0690
2847.00,0.0734
2846.00,0.0787
2845.00,0.0847
2844.00,0.0914
2843.00,0.0987
2842.00,0.1061
2841.00,0.1131
2840.00,0.1190
2839.00,0.1229
2838.00,0.1239
2837.00,0.1216
2836.00,0.1158
2835.00,0.1071
2834.00,0.0965
2833.00,0.0852
2832.00,0.0743
2831.00,0.0646
2830.00,0.0563
2829.00,0.0495
2828.00,0.0440
2827.00,0.0396
2826.00,0.0361
2825.00,0.0332
2824.00,0.0307
2823.00,0.0287
2822.00,0.0271
2821.00,0.0256
2820.00,0.0244
2819.00,0.0233
2818.00,0.0223
2817.00,0.0215
2816.00,0.0208
2815.00,0.0201
2814.00,0.0195
2813.00,0.0189
2812.00,0.0183
2811.00,0.0178
2810.00,0.0172
2809.00,0.0166
2808.00,0.0160
2807.00,0.0154
2806.00,0.0147
2805.00,0.0140
2804.00,0.0134
2803.00,0.0128
2802.00,0.0122
2801.00,0.0117
2800.00,0.0113
2799.00,0.0110
2798.00,0.0107
2797.00,0.0104
2796.00,0.0101
2795.00,0.0099
2794.00,0.0096
2793.00,0.0093
2792.00,0.0090
2791.00,0.0088
2790.00,0.0085
2789.00,0.0083
2788.00,0.0080
2787.00,0.0077
2786.00,0.0075
2785.00,0.0072
2784.00,0.0070
2783.00,0.0068
2782.00,0.0066
2781.00,0.0065
2780.00,0.0063
2779.00,0.0061
2778.00,0.0060
2777.00,0.0059
2776.00,0.0058
2775.00,0.0057
2774.00,0.0056
2773.00,0.0056
2772.00,0.0055
2771.00,0.0055
2770.00,0.0054
2769.00,0.0053
2768.00,0.0053
2767.00,0.0053
2766.00,0.0052
2765.00,0.0052
2764.00,0.0052
2763.00,0.0051
2762.00,0.0051
2761.00,0.0050
2760.00,0.0050
2759.00,0.0050
2758.00,0.0050
2757.00,0.0050
2756.00,0.0050
2755.00,0.0050
2754.00,0.0050
2753.00,0.0050
2752.00,0.0049
2751.00,0.0049
2750.00,0.0049
2749.00,0.0049
2748.00,0.0049
2747.00,0.0050
2746.00,0.0051
2745.00,0.0051
2744.00,0.0052
2743.00,0.0052
2742.00,0.0053
2741.00,0.0055
2740.00,0.0056
2739.00,0.0058
2738.00,0.0059
2737.00,0.0061
2736.00,0.0062
2735.00,0.0064
2734.00,0.0066
2733.00,0.0068
2732.00,0.0070
2731.00,0.0072
2730.00,0.0074
2729.00,0.0077
2728.00,0.0080
2727.00,0.0083
2726.00,0.0086
2725.00,0.0089
2724.00,0.0090
2723.00,0.0091
2722.00,0.0090
2721.00,0.0087
2720.00,0.0084
2719.00,0.0081
2718.00,0.0077
2717.00,0.0074
2716.00,0.0070
2715.00,0.0067
2714.00,0.0065
2713.00,0.0062
2712.00,0.0060
2711.00,0.0058
2710.00,0.0056
2709.00,0.0054
2708.00,0.0052
2707.00,0.0050
2706.00,0.0049
2705.00,0.0048
2704.00,0.0048
2703.00,0.0047
2702.00,0.0046
2701.00,0.0045
2700.00,0.0044
2699.00,0.0043
2698.00,0.0043
2697.00,0.0043
2696.00,0.0042
2695.00,0.0042
2694.00,0.0042
2693.00,0.0042
2692.00,0.0042
2691.00,0.0042
2690.00,0.0042
2689.00,0.0042
2688.00,0.0042
2687.00,0.0042
2686.00,0.0042
2685.00,0.0042
2684.00,0.0042
2683.00,0.0042
2682.00,0.0042
2681.00,0.0043
2680.00,0.0044
2679.00,0.0044
2678.00,0.0044
2677.00,0.0044
2676.00,0.0044
2675.00,0.0043
2674.00,0.0043
2673.00,0.0043
2672.00,0.0043
2671.00,0.0043
2670.00,0.0043
2669.00,0.0043
2668.00,0.0043
2667.00,0.0043
2666.00,0.0044
2665.00,0.0044
2664.00,0.0044
2663.00,0.0045
2662.00,0.0045
2661.00,0.0045
2660.00,0.0046
2659.00,0.0046
2658.00,0.0046
2657.00,0.0046
2656.00,0.0045
2655.00,0.0045
2654.00,0.0044
2653.00,0.0044
2652.00,0.0043
2651.00,0.0043
2650.00,0.0042
2649.00,0.0042
2648.00,0.0041
2647.00,0.0040
2646.00,0.0040
2645.00,0.0039
2644.00,0.0039
2643.00,0.0038
2642.00,0.0038
2641.00,0.0038
2640.00,0.0037
2639.00,0.0037
2638.00,0.0037
2637.00,0.0037
2636.00,0.0037
2635.00,0.0037
2634.00,0.0036
2633.00,0.0037
2632.00,0.0037
2631.00,0.0037
2630.00,0.0038
2629.00,0.0038
2628.00,0.0038
2627.00,0.0038
2626.00,0.0038
2625.00,0.0038
2624.00,0.0038
2623.00,0.0038
2622.00,0.0038
2621.00,0.0038
2620.00,0.0038
2619.00,0.0038
2618.00,0.0038
2617.00,0.0039
2616.00,0.0040
2615.00,0.0040
2614.00,0.0040
2613.00,0.0040
2612.00,0.0039
2611.00,0.0038
2610.00,0.0037
2609.00,0.0036
2608.00,0.0034
2607.00,0.0034
2606.00,0.0034
2605.00,0.0033
2604.00,0.0033
2603.00,0.0032
2602.00,0.0031
2601.00,0.0030
2600.00,0.0030
2599.00,0.0030
2598.00,0.0031
2597.00,0.0032
2596.00,0.0033
2595.00,0.0033
2594.00,0.0034
2593.00,0.0034
2592.00,0.0035
2591.00,0.0036
2590.00,0.0036
2589.00,0.0037
2588.00,0.0037
2587.00,0.0037
2586.00,0.0038
2585.00,0.0038
2584.00,0.0039
2583.00,0.0039
2582.00,0.0039
2581.00,0.0039
2580.00,0.0038
2579.00,0.0038
2578.00,0.0037
2577.00,0.0036
2576.00,0.0035
2575.00,0.0034
2574.00,0.0032
2573.00,0.0031
2572.00,0.0031
2571.00,0.0030
2570.00,0.0028
2569.00,0.0027
2568.00,0.0026
2567.00,0.0025
2566.00,0.0024
2565.00,0.0024
2564.00,0.0024
2563.00,0.0024
2562.00,0.0024
2561.00,0.0023
2560.00,0.0023
2559.00,0.0022
2558.00,0.0021
2557.00,0.0021
2556.00,0.0020
2555.00,0.0020
2554.00,0.0020
2553.00,0.0020
2552.00,0.0021
2551.00,0.0021
2550.00,0.0020
2549.00,0.0020
2548.00,0.0019
2547.00,0.0019
2546.00,0.0019
2545.00,0.0018
2544.00,0.0018
2543.00,0.0017
2542.00,0.0016
2541.00,0.0016
2540.00,0.0015
2539.00,0.0015
2538.00,0.0015
2537.00,0.0015
2536.00,0.0015
2535.00,0.0015
2534.00,0.0014
2533.00,0.0014
2532.00,0.0014
2531.00,0.0014
2530.00,0.0014
2529.00,0.0014
2528.00,0.0015
2527.00,0.0015
2526.00,0.0015
2525.00,0.0014
2524.00,0.0014
2523.00,0.0014
2522.00,0.0014
2521.00,0.0013
2520.00,0.0012
2519.00,0.0011
2518.00,0.0010
2517.00,0.0010
2516.00,0.0010
2515.00,0.0010
2514.00,0.0010
2513.00,0.0010
2512.00,0.0010
2511.00,0.0010
2510.00,0.0010
2509.00,0.0009
2508.00,0.0010
2507.00,0.0010
2506.00,0.0009
2505.00,0.0009
2504.00,0.0008
2503.00,0.0008
2502.00,0.0008
2501.00,0.0009
2500.00,0.0010
2499.00,0.0011
2498.00,0.0011
2497.00,0.0011
2496.00,0.0010
2495.00,0.0010
2494.00,0.0010
2493.00,0.0010
2492.00,0.0010
2491.00,0.0010
2490.00,0.0010
2489.00,0.0010
2488.00,0.0010
2487.00,0.0010
2486.00,0.0010
2485.00,0.0010
2484.00,0.0010
2483.00,0.0010
2482.00,0.0010
2481.00,0.0010
2480.00,0.0009
2479.00,0.0009
2478.00,0.0009
2477.00,0.0008
2476.00,0.0008
2475.00,0.0008
2474.00,0.0008
2473.00,0.0008
2472.00,0.0008
2471.00,0.0009
2470.00,0.0009
2469.00,0.0009
2468.00,0.0009
2467.00,0.0009
2466.00,0.0008
2465.00,0.0008
2464.00,0.0009
2463.00,0.0009
2462.00,0.0010
2461.00,0.0010
2460.00,0.0010
2459.00,0.0010
2458.00,0.0010
2457.00,0.0010
2456.00,0.0010
2455.00,0.0011
2454.00,0.0010
2453.00,0.0010
2452.00,0.0010
2451.00,0.0010
2450.00,0.0010
2449.00,0.0009
2448.00,0.0009
2447.00,0.0009
2446.00,0.0009
2445.00,0.0009
2444.00,0.0009
2443.00,0.0009
2442.00,0.0009
2441.00,0.0010
2440.00,0.0010
2439.00,0.0010
2438.00,0.0010
2437.00,0.0009
2436.00,0.0009
2435.00,0.0010
2434.00,0.0011
2433.00,0.0012
2432.00,0.0012
2431.00,0.0012
2430.00,0.0011
2429.00,0.0011
2428.00,0.0011
2427.00,0.0011
2426.00,0.0011
2425.00,0.0011
2424.00,0.0011
2423.00,0.0010
2422.00,0.0010
2421.00,0.0009
2420.00,0.0009
2419.00,0.0008
2418.00,0.0008
2417.00,0.0008
2416.00,0.0009
2415.00,0.0009
2414.00,0.0009
2413.00,0.0008
2412.00,0.0008
2411.00,0.0008
2410.00,0.0009
2409.00,0.0010
2408.00,0.0010
2407.00,0.0010
2406.00,0.0009
2405.00,0.0008
2404.00,0.0008
2403.00,0.0008
2402.00,0.0008
2401.00,0.0008
2400.00,0.0007
2399.00,0.0007
2398.00,0.0006
2397.00,0.0006
2396.00,0.0006
2395.00,0.0006
2394.00,0.0006
2393.00,0.0006
2392.00,0.0006
2391.00,0.0006
2390.00,0.0006
2389.00,0.0006
2388.00,0.0006
2387.00,0.0005
2386.00,0.0005
2385.00,0.0005
2384.00,0.0004
2383.00,0.0004
2382.00,0.0004
2381.00,0.0003
2380.00,0.0003
2379.00,0.0003
2378.00,0.0002
2377.00,0.0002
2376.00,0.0002
2375.00,0.0003
2374.00,0.0003
2373.00,0.0003
2372.00,0.0004
2371.00,0.0004
2370.00,0.0004
2369.00,0.0003
2368.00,0.0003
2367.00,0.0003
2366.00,0.0003
2365.00,0.0003
2364.00,0.0003
2363.00,0.0004
2362.00,0.0005
2361.00,0.0007
2360.00,0.0007
2359.00,0.0007
2358.00,0.0006
2357.00,0.0005
2356.00,0.0004
2355.00,0.0005
2354.00,0.0005
2353.00,0.0005
2352.00,0.0005
2351.00,0.0004
2350.00,0.0005
2349.00,0.0006
2348.00,0.0006
2347.00,0.0007
2346.00,0.0007
2345.00,0.0007
2344.00,0.0007
2343.00,0.0007
2342.00,0.0007
2341.00,0.0007
2340.00,0.0007
2339.00,0.0007
2338.00,0.0007
2337.00,0.0008
2336.00,0.0008
2335.00,0.0008
2334.00,0.0007
2333.00,0.0007
2332.00,0.0006
2331.00,0.0006
2330.00,0.0006
2329.00,0.0007
2328.00,0.0009
2327.00,0.0012
2326.00,0.0017
2325.00,0.0020
2324.00,0.0022
2323.00,0.0021
2322.00,0.0019
2321.00,0.0017
2320.00,0.0016
2319.00,0.0015
2318.00,0.0014
2317.00,0.0013
2316.00,0.0012
2315.00,0.0011
2314.00,0.0010
2313.00,0.0010
2312.00,0.0010
2311.00,0.0010
2310.00,0.0010
2309.00,0.0010
2308.00,0.0011
2307.00,0.0011
2306.00,0.0012
2305.00,0.0012
2304.00,0.0012
2303.00,0.0012
2302.00,0.0012
2301.00,0.0012
2300.00,0.0013
2299.00,0.0013
2298.00,0.0013
2297.00,0.0013
2296.00,0.0013
2295.00,0.0013
2294.00,0.0013
2293.00,0.0014
2292.00,0.0014
2291.00,0.0015
2290.00,0.0016
2289.00,0.0018
2288.00,0.0018
2287.00,0.0019
2286.00,0.0018
2285.00,0.0018
2284.00,0.0017
2283.00,0.0017
2282.00,0.0016
2281.00,0.0016
2280.00,0.0015
2279.00,0.0015
2278.00,0.0014
2277.00,0.0013
2276.00,0.0012
2275.00,0.0012
2274.00,0.0011
2273.00,0.0011
2272.00,0.0012
2271.00,0.0013
2270.00,0.0013
2269.00,0.0014
2268.00,0.0013
2267.00,0.0012
2266.00,0.0011
2265.00,0.0011
2264.00,0.0011
2263.00,0.0011
2262.00,0.0011
2261.00,0.0011
2260.00,0.0011
2259.00,0.0011
2258.00,0.0010
2257.00,0.0009
2256.00,0.0007
2255.00,0.0005
2254.00,0.0005
2253.00,0.0006
2252.00,0.0008
2251.00,0.0010
2250.00,0.0011
2249.00,0.0010
2248.00,0.0009
2247.00,0.0008
2246.00,0.0008
2245.00,0.0007
2244.00,0.0007
2243.00,0.0007
2242.00,0.0008
2241.00,0.0007
2240.00,0.0007
2239.00,0.0007
2238.00,0.0008
2237.00,0.0009
2236.00,0.0009
2235.00,0.0008
2234.00,0.0008
2233.00,0.0008
2232.00,0.0008
2231.00,0.0008
2230.00,0.0008
2229.00,0.0009
2228.00,0.0009
2227.00,0.0008
2226.00,0.0006
2225.00,0.0004
2224.00,0.0003
2223.00,0.0002
2222.00,0.0003
2221.00,0.0005
2220.00,0.0006
2219.00,0.0006
2218.00,0.0006
2217.00,0.0005
2216.00,0.0006
2215.00,0.0007
2214.00,0.0007
2213.00,0.0005
2212.00,0.0003
2211.00,0.0002
2210.00,0.0003
2209.00,0.0003
2208.00,0.0004
2207.00,0.0003
2206.00,0.0002
2205.00,0.0002
2204.00,0.0004
2203.00,0.0006
2202.00,0.0007
2201.00,0.0006
2200.00,0.0004
2199.00,0.0002
2198.00,0.0000
2197.00,0.0000
2196.00,0.0002
2195.00,0.0005
2194.00,0.0007
2193.00,0.0008
2192.00,0.0009
2191.00,0.0009
2190.00,0.0010
2189.00,0.0012
2188.00,0.0013
2187.00,0.0013
2186.00,0.0012
2185.00,0.0009
2184.00,0.0006
2183.00,0.0002
2182.00,-0.0001
2181.00,-0.0002
2180.00,0.0001
2179.00,0.0004
2178.00,0.0007
2177.00,0.0006
2176.00,0.0004
2175.00,0.0001
2174.00,0.0000
2173.00,0.0002
2172.00,0.0004
2171.00,0.0007
2170.00,0.0009
2169.00,0.0011
2168.00,0.0013
2167.00,0.0011
2166.00,0.0008
2165.00,0.0006
2164.00,0.0008
2163.00,0.0013
2162.00,0.0019
2161.00,0.0018
2160.00,0.0009
2159.00,-0.0007
2158.00,-0.0020
2157.00,-0.0026
2156.00,-0.0026
2155.00,-0.0022
2154.00,-0.0018
2153.00,-0.0014
2152.00,-0.0011
2151.00,-0.0009
2150.00,-0.0008
2149.00,-0.0010
2148.00,-0.0015
2147.00,-0.0020
2146.00,-0.0023
2145.00,-0.0023
2144.00,-0.0022
2143.00,-0.0020
2142.00,-0.0018
2141.00,-0.0016
2140.00,-0.0015
2139.00,-0.0015
2138.00,-0.0015
2137.00,-0.0014
2136.00,-0.0014
2135.00,-0.0016
2134.00,-0.0017
2133.00,-0.0018
2132.00,-0.0017
2131.00,-0.0016
2130.00,-0.0014
2129.00,-0.0013
2128.00,-0.0011
2127.00,-0.0010
2126.00,-0.0008
2125.00,-0.0006
2124.00,-0.0004
2123.00,-0.0002
2122.00,-0.0002
2121.00,-0.0002
2120.00,-0.0002
2119.00,-0.0002
2118.00,-0.0001
2117.00,0.0000
2116.00,0.0002
2115.00,0.0003
2114.00,0.0003
2113.00,0.0002
2112.00,0.0001
2111.00,0.0002
2110.00,0.0002
2109.00,0.0003
2108.00,0.0003
2107.00,0.0003
2106.00,0.0003
2105.00,0.0003
2104.00,0.0004
2103.00,0.0004
2102.00,0.0004
2101.00,0.0003
2100.00,0.0002
2099.00,0.0001
2098.00,0.0000
2097.00,-0.0002
2096.00,-0.0005
2095.00,-0.0007
2094.00,-0.0008
2093.00,-0.0006
2092.00,-0.0003
2091.00,0.0000
2090.00,0.0003
2089.00,0.0004
2088.00,0.0003
2087.00,0.0003
2086.00,0.0002
2085.00,0.0002
2084.00,0.0003
2083.00,0.0003
2082.00,0.0003
2081.00,0.0003
2080.00,0.0003
2079.00,0.0003
2078.00,0.0004
2077.00,0.0004
2076.00,0.0004
2075.00,0.0003
2074.00,0.0003
2073.00,0.0001
2072.00,-0.0000
2071.00,-0.0002
2070.00,-0.0002
2069.00,-0.0001
2068.00,0.0000
2067.00,0.0001
2066.00,-0.0000
2065.00,-0.0001
2064.00,-0.0002
2063.00,-0.0001
2062.00,0.0001
2061.00,0.0003
2060.00,0.0004
2059.00,0.0003
2058.00,0.0001
2057.00,-0.0000
2056.00,-0.0000
2055.00,0.0001
2054.00,0.0004
2053.00,0.0008
2052.00,0.0013
2051.00,0.0015
2050.00,0.0014
2049.00,0.0010
2048.00,0.0006
2047.00,0.0005
2046.00,0.0004
2045.00,0.0004
2044.00,0.0004
2043.00,0.0003
2042.00,0.0001
2041.00,-0.0001
2040.00,-0.0002
2039.00,-0.0001
2038.00,0.0001
2037.00,0.0002
2036.00,0.0002
2035.00,0.0000
2034.00,-0.0002
2033.00,-0.0004
2032.00,-0.0006
2031.00,-0.0008
2030.00,-0.0011
2029.00,-0.0014
2028.00,-0.0016
2027.00,-0.0016
2026.00,-0.0016
2025.00,-0.0014
2024.00,-0.0013
2023.00,-0.0012
2022.00,-0.0012
2021.00,-0.0013
2020.00,-0.0015
2019.00,-0.0018
2018.00,-0.0018
2017.00,-0.0017
2016.00,-0.0015
2015.00,-0.0014
2014.00,-0.0013
2013.00,-0.0011
2012.00,-0.0009
2011.00,-0.0007
2010.00,-0.0008
2009.00,-0.0009
2008.00,-0.0011
2007.00,-0.0013
2006.00,-0.0015
2005.00,-0.0014
2004.00,-0.0013
2003.00,-0.0014
2002.00,-0.0015
2001.00,-0.0015
2000.00,-0.0015
1999.00,-0.0014
1998.00,-0.0013
1997.00,-0.0010
1996.00,-0.0008
1995.00,-0.0006
1994.00,-0.0005
1993.00,-0.0004
1992.00,-0.0002
1991.00,-0.0001
1990.00,0.0001
1989.00,0.0002
1988.00,0.0003
1987.00,0.0002
1986.00,0.0002
1985.00,0.0002
1984.00,0.0002
1983.00,0.0004
1982.00,0.0005
1981.00,0.0007
1980.00,0.0007
1979.00,0.0005
1978.00,0.0001
1977.00,-0.0005
1976.00,-0.0010
1975.00,-0.0014
1974.00,-0.0017
1973.00,-0.0019
1972.00,-0.0020
1971.00,-0.0019
1970.00,-0.0016
1969.00,-0.0014
1968.00,-0.0013
1967.00,-0.0014
1966.00,-0.0018
1965.00,-0.0021
1964.00,-0.0022
1963.00,-0.0021
1962.00,-0.0020
1961.00,-0.0018
1960.00,-0.0018
1959.00,-0.0018
1958.00,-0.0019
1957.00,-0.0018
1956.00,-0.0016
1955.00,-0.0015
1954.00,-0.0015
1953.00,-0.0015
1952.00,-0.0016
1951.00,-0.0016
1950.00,-0.0016
1949.00,-0.0016
1948.00,-0.0016
1947.00,-0.0017
1946.00,-0.0016
1945.00,-0.0013
1944.00,-0.0010
1943.00,-0.0008
1942.00,-0.0007
1941.00,-0.0008
1940.00,-0.0009
1939.00,-0.0010
1938.00,-0.0011
1937.00,-0.0010
1936.00,-0.0009
1935.00,-0.0009
1934.00,-0.0009
1933.00,-0.0008
1932.00,-0.0007
1931.00,-0.0006
1930.00,-0.0006
1929.00,-0.0006
1928.00,-0.0007
1927.00,-0.0009
1926.00,-0.0010
1925.00,-0.0010
1924.00,-0.0009
1923.00,-0.0007
1922.00,-0.0005
1921.00,-0.0004
1920.00,-0.0004
1919.00,-0.0004
1918.00,-0.0004
1917.00,-0.0004
1916.00,-0.0004
1915.00,-0.0004
1914.00,-0.0003
1913.00,-0.0003
1912.00,-0.0003
1911.00,-0.0004
1910.00,-0.0004
1909.00,-0.0004
1908.00,-0.0004
1907.00,-0.0003
1906.00,-0.0002
1905.00,-0.0002
1904.00,-0.0002
1903.00,-0.0003
1902.00,-0.0003
1901.00,-0.0003
1900.00,-0.0003
1899.00,-0.0002
1898.00,-0.0002
1897.00,-0.0002
1896.00,-0.0003
1895.00,-0.0003
1894.00,-0.0003
1893.00,-0.0003
1892.00,-0.0001
1891.00,0.0000
1890.00,0.0000
1889.00,-0.0000
1888.00,-0.0001
1887.00,-0.0002
1886.00,-0.0002
1885.00,-0.0002
1884.00,-0.0002
1883.00,-0.0003
1882.00,-0.0003
1881.00,-0.0003
1880.00,-0.0003
1879.00,-0.0002
1878.00,-0.0002
1877.00,-0.0002
1876.00,-0.0003
1875.00,-0.0003
1874.00,-0.0003
1873.00,-0.0003
1872.00,-0.0002
1871.00,-0.0001
1870.00,-0.0001
1869.00,-0.0001
1868.00,-0.0001
1867.00,-0.0001
1866.00,-0.0002
1865.00,-0.0001
1864.00,-0.0001
1863.00,-0.0001
1862.00,-0.0000
1861.00,-0.0000
1860.00,-0.0000
1859.00,-0.0000
1858.00,-0.0001
1857.00,-0.0001
1856.00,-0.0002
1855.00,-0.0002
1854.00,-0.0002
1853.00,-0.0002
1852.00,-0.0002
1851.00,-0.0002
1850.00,-0.0001
1849.00,-0.0001
1848.00,-0.0001
1847.00,-0.0001
1846.00,0.0000
1845.00,0.0001
1844.00,0.0002
1843.00,0.0001
1842.00,0.0000
1841.00,-0.0001
1840.00,-0.0002
1839.00,-0.0001
1838.00,-0.0000
1837.00,0.0001
1836.00,0.0002
1835.00,0.0002
1834.00,0.0003
1833.00,0.0003
1832.00,0.0002
1831.00,0.0002
1830.00,0.0001
1829.00,0.0001
1828.00,0.0001
1827.00,0.0001
1826.00,0.0001
1825.00,0.0002
1824.00,0.0002
1823.00,0.0003
1822.00,0.0003
1821.00,0.0003
1820.00,0.0003
1819.00,0.0001
1818.00,0.0000
1817.00,-0.0001
1816.00,-0.0001
1815.00,-0.0001
1814.00,-0.0001
1813.00,-0.0000
1812.00,0.0001
1811.00,0.0001
1810.00,0.0002
1809.00,0.0003
1808.00,0.0003
1807.00,0.0003
1806.00,0.0003
1805.00,0.0004
1804.00,0.0004
1803.00,0.0004
1802.00,0.0003
1801.00,0.0003
1800.00,0.0003
1799.00,0.0003
1798.00,0.0003
1797.00,0.0003
1796.00,0.0003
1795.00,0.0003
1794.00,0.0003
1793.00,0.0004
1792.00,0.0004
1791.00,0.0004
1790.00,0.0004
1789.00,0.0003
1788.00,0.0003
1787.00,0.0004
1786.00,0.0005
1785.00,0.0006
1784.00,0.0007
1783.00,0.0008
1782.00,0.0008
1781.00,0.0007
1780.00,0.0007
1779.00,0.0007
1778.00,0.0007
1777.00,0.0007
1776.00,0.0006
1775.00,0.0006
1774.00,0.0006
1773.00,0.0006
1772.00,0.0007
1771.00,0.0007
1770.00,0.0007
1769.00,0.0007
1768.00,0.0008
1767.00,0.0008
1766.00,0.0009
1765.00,0.0008
1764.00,0.0008
1763.00,0.0008
1762.00,0.0008
1761.00,0.0008
1760.00,0.0009
1759.00,0.0009
1758.00,0.0010
1757.00,0.0010
1756.00,0.0010
1755.00,0.0010
1754.00,0.0011
1753.00,0.0011
1752.00,0.0011
1751.00,0.0011
1750.00,0.0011
1749.00,0.0011
1748.00,0.0012
1747.00,0.0013
1746.00,0.0014
1745.00,0.0014
1744.00,0.0014
1743.00,0.0014
1742.00,0.0014
1741.00,0.0014
1740.00,0.0014
1739.00,0.0015
1738.00,0.0015
1737.00,0.0015
1736.00,0.0015
1735.00,0.0016
1734.00,0.0016
1733.00,0.0016
1732.00,0.0016
1731.00,0.0016
1730.00,0.0016
1729.00,0.0016
1728.00,0.0016
1727.00,0.0016
1726.00,0.0016
1725.00,0.0017
1724.00,0.0017
1723.00,0.0017
1722.00,0.0017
1721.00,0.0017
1720.00,0.0016
1719.00,0.0016
1718.00,0.0015
1717.00,0.0016
1716.00,0.0016
1715.00,0.0017
1714.00,0.0017
1713.00,0.0018
1712.00,0.0018
1711.00,0.0019
1710.00,0.0019
1709.00,0.0020
1708.00,0.0020
1707.00,0.0021
1706.00,0.0021
1705.00,0.0021
1704.00,0.0021
1703.00,0.0021
1702.00,0.0021
1701.00,0.0021
1700.00,0.0022
1699.00,0.0022
1698.00,0.0022
1697.00,0.0023
1696.00,0.0024
1695.00,0.0024
1694.00,0.0025
1693.00,0.0025
1692.00,0.0026
1691.00,0.0026
1690.00,0.0027
1689.00,0.0027
1688.00,0.0027
1687.00,0.0027
1686.00,0.0027
1685.00,0.0028
1684.00,0.0029
1683.00,0.0029
1682.00,0.0029
1681.00,0.0029
1680.00,0.0030
1679.00,0.0030
1678.00,0.0031
1677.00,0.0031
1676.00,0.0032
1675.00,0.0032
1674.00,0.0033
1673.00,0.0033
1672.00,0.0033
1671.00,0.0033
1670.00,0.0034
1669.00,0.0035
1668.00,0.0035
1667.00,0.0036
1666.00,0.0035
1665.00,0.0035
1664.00,0.0035
1663.00,0.0036
1662.00,0.0036
1661.00,0.0036
1660.00,0.0037
1659.00,0.0037
1658.00,0.0038
1657.00,0.0038
1656.00,0.0039
1655.00,0.0039
1654.00,0.0039
1653.00,0.0040
1652.00,0.0040
1651.00,0.0040
1650.00,0.0040
1649.00,0.0041
1648.00,0.0042
1647.00,0.0043
1646.00,0.0043
1645.00,0.0043
1644.00,0.0043
1643.00,0.0043
1642.00,0.0043
1641.00,0.0043
1640.00,0.0043
1639.00,0.0043
1638.00,0.0043
1637.00,0.0043
1636.00,0.0043
1635.00,0.0042
1634.00,0.0042
1633.00,0.0042
1632.00,0.0042
1631.00,0.0042
1630.00,0.0042
1629.00,0.0042
1628.00,0.0043
1627.00,0.0043
1626.00,0.0042
1625.00,0.0042
1624.00,0.0042
1623.00,0.0042
1622.00,0.0042
1621.00,0.0042
1620.00,0.0042
1619.00,0.0042
1618.00,0.0042
1617.00,0.0042
1616.00,0.0042
1615.00,0.0041
1614.00,0.0041
1613.00,0.0040
1612.00,0.0040
1611.00,0.0040
1610.00,0.0040
1609.00,0.0040
1608.00,0.0040
1607.00,0.0041
1606.00,0.0041
1605.00,0.0041
1604.00,0.0041
1603.00,0.0041
1602.00,0.0040
1601.00,0.0040
1600.00,0.0040
1599.00,0.0040
1598.00,0.0039
1597.00,0.0040
1596.00,0.0040
1595.00,0.0040
1594.00,0.0039
1593.00,0.0039
1592.00,0.0039
1591.00,0.0039
1590.00,0.0040
1589.00,0.0040
1588.00,0.0040
1587.00,0.0041
1586.00,0.0041
1585.00,0.0041
1584.00,0.0041
1583.00,0.0042
1582.00,0.0042
1581.00,0.0043
1580.00,0.0044
1579.00,0.0045
1578.00,0.0045
1577.00,0.0045
1576.00,0.0045
1575.00,0.0045
1574.00,0.0045
1573.00,0.0044
1572.00,0.0044
1571.00,0.0044
1570.00,0.0043
1569.00,0.0043
1568.00,0.0043
1567.00,0.0042
1566.00,0.0042
1565.00,0.0043
1564.00,0.0043
1563.00,0.0043
1562.00,0.0043
1561.00,0.0043
1560.00,0.0043
1559.00,0.0044
1558.00,0.0044
1557.00,0.0044
1556.00,0.0045
1555.00,0.0045
1554.00,0.0045
1553.00,0.0045
1552.00,0.0046
1551.00,0.0046
1550.00,0.0047
1549.00,0.0048
1548.00,0.0049
1547.00,0.0050
1546.00,0.0051
1545.00,0.0052
1544.00,0.0053
1543.00,0.0053
1542.00,0.0054
1541.00,0.0054
1540.00,0.0053
1539.00,0.0051
1538.00,0.0050
1537.00,0.0049
1536.00,0.0049
1535.00,0.0048
1534.00,0.0046
1533.00,0.0045
1532.00,0.0044
1531.00,0.0044
1530.00,0.0043
1529.00,0.0043
1528.00,0.0044
1527.00,0.0044
1526.00,0.0044
1525.00,0.0044
1524.00,0.0045
1523.00,0.0045
1522.00,0.0045
1521.00,0.0045
1520.00,0.0045
1519.00,0.0045
1518.00,0.0045
1517.00,0.0046
1516.00,0.0047
1515.00,0.0047
1514.00,0.0048
1513.00,0.0049
1512.00,0.0050
1511.00,0.0051
1510.00,0.0052
1509.00,0.0053
1508.00,0.0054
1507.00,0.0054
1506.00,0.0055
1505.00,0.0057
1504.00,0.0059
1503.00,0.0061
1502.00,0.0062
1501.00,0.0063
1500.00,0.0066
1499.00,0.0068
1498.00,0.0069
1497.00,0.0072
1496.00,0.0076
1495.00,0.0078
1494.00,0.0080
1493.00,0.0083
1492.00,0.0087
1491.00,0.0091
1490.00,0.0095
1489.00,0.0101
1488.00,0.0107
1487.00,0.0111
1486.00,0.0116
1485.00,0.0121
1484.00,0.0128
1483.00,0.0135
1482.00,0.0143
1481.00,0.0154
1480.00,0.0166
1479.00,0.0178
1478.00,0.0193
1477.00,0.0212
1476.00,0.0235
1475.00,0.0261
1474.00,0.0296
1473.00,0.0351
1472.00,0.0418
1471.00,0.0484
1470.00,0.0549
1469.00,0.0618
1468.00,0.0693
1467.00,0.0777
1466.00,0.0873
1465.00,0.0978
1464.00,0.1072
1463.00,0.1139
1462.00,0.1185
1461.00,0.1217
1460.00,0.1239
1459.00,0.1253
1458.00,0.1262
1457.00,0.1269
1456.00,0.1266
1455.00,0.1255
1454.00,0.1239
1453.00,0.1215
1452.00,0.1180
1451.00,0.1133
1450.00,0.1072
1449.00,0.0991
1448.00,0.0894
1447.00,0.0794
1446.00,0.0707
1445.00,0.0634
1444.00,0.0573
1443.00,0.0524
1442.00,0.0488
1441.00,0.0465
1440.00,0.0453
1439.00,0.0450
1438.00,0.0455
1437.00,0.0459
1436.00,0.0450
1435.00,0.0423
1434.00,0.0381
1433.00,0.0332
1432.00,0.0281
1431.00,0.0237
1430.00,0.0203
1429.00,0.0179
1428.00,0.0163
1427.00,0.0153
1426.00,0.0147
1425.00,0.0140
1424.00,0.0135
1423.00,0.0132
1422.00,0.0130
1421.00,0.0127
1420.00,0.0123
1419.00,0.0121
1418.00,0.0119
1417.00,0.0117
1416.00,0.0115
1415.00,0.0114
1414.00,0.0114
1413.00,0.0113
1412.00,0.0112
1411.00,0.0111
1410.00,0.0111
1409.00,0.0111
1408.00,0.0110
1407.00,0.0110
1406.00,0.0110
1405.00,0.0110
1404.00,0.0110
1403.00,0.0112
1402.00,0.0114
1401.00,0.0115
1400.00,0.0116
1399.00,0.0118
1398.00,0.0120
1397.00,0.0123
1396.00,0.0125
1395.00,0.0130
1394.00,0.0136
1393.00,0.0142
1392.00,0.0149
1391.00,0.0159
1390.00,0.0172
1389.00,0.0190
1388.00,0.0217
1387.00,0.0257
1386.00,0.0311
1385.00,0.0379
1384.00,0.0467
1383.00,0.0587
1382.00,0.0747
1381.00,0.0954
1380.00,0.1216
1379.00,0.1523
1378.00,0.1831
1377.00,0.2073
1376.00,0.2176
1375.00,0.2091
1374.00,0.1838
1373.00,0.1517
1372.00,0.1218
1371.00,0.0969
1370.00,0.0770
1369.00,0.0620
1368.00,0.0517
1367.00,0.0453
1366.00,0.0419
1365.00,0.0406
1364.00,0.0409
1363.00,0.0425
1362.00,0.0450
1361.00,0.0476
1360.00,0.0495
1359.00,0.0500
1358.00,0.0486
1357.00,0.0455
1356.00,0.0411
1355.00,0.0363
1354.00,0.0316
1353.00,0.0276
1352.00,0.0244
1351.00,0.0218
1350.00,0.0198
1349.00,0.0181
1348.00,0.0169
1347.00,0.0158
1346.00,0.0150
1345.00,0.0143
1344.00,0.0138
1343.00,0.0134
1342.00,0.0130
1341.00,0.0127
1340.00,0.0125
1339.00,0.0124
1338.00,0.0123
1337.00,0.0122
1336.00,0.0122
1335.00,0.0124
1334.00,0.0127
1333.00,0.0131
1332.00,0.0136
1331.00,0.0140
1330.00,0.0142
1329.00,0.0140
1328.00,0.0136
1327.00,0.0129
1326.00,0.0122
1325.00,0.0114
1324.00,0.0108
1323.00,0.0102
1322.00,0.0098
1321.00,0.0094
1320.00,0.0091
1319.00,0.0089
1318.00,0.0087
1317.00,0.0084
1316.00,0.0083
1315.00,0.0081
1314.00,0.0080
1313.00,0.0080
1312.00,0.0082
1311.00,0.0084
1310.00,0.0088
1309.00,0.0092
1308.00,0.0098
1307.00,0.0106
1306.00,0.0114
1305.00,0.0121
1304.00,0.0124
1303.00,0.0124
1302.00,0.0123
1301.00,0.0122
1300.00,0.0122
1299.00,0.0124
1298.00,0.0126
1297.00,0.0128
1296.00,0.0128
1295.00,0.0126
1294.00,0.0122
1293.00,0.0117
1292.00,0.0111
1291.00,0.0105
1290.00,0.0100
1289.00,0.0096
1288.00,0.0093
1287.00,0.0090
1286.00,0.0087
1285.00,0.0084
1284.00,0.0082
1283.00,0.0080
1282.00,0.0078
1281.00,0.0077
1280.00,0.0076
1279.00,0.0075
1278.00,0.0074
1277.00,0.0074
1276.00,0.0073
1275.00,0.0073
1274.00,0.0073
1273.00,0.0073
1272.00,0.0073
1271.00,0.0073
1270.00,0.0074
1269.00,0.0075
1268.00,0.0075
1267.00,0.0076
1266.00,0.0077
1265.00,0.0078
1264.00,0.0080
1263.00,0.0082
1262.00,0.0086
1261.00,0.0091
1260.00,0.0095
1259.00,0.0100
1258.00,0.0105
1257.00,0.0109
1256.00,0.0110
1255.00,0.0109
1254.00,0.0105
1253.00,0.0100
1252.00,0.0095
1251.00,0.0091
1250.00,0.0088
1249.00,0.0085
1248.00,0.0083
1247.00,0.0081
1246.00,0.0081
1245.00,0.0080
1244.00,0.0080
1243.00,0.0079
1242.00,0.0078
1241.00,0.0077
1240.00,0.0077
1239.00,0.0076
1238.00,0.0076
1237.00,0.0075
1236.00,0.0075
1235.00,0.0074
1234.00,0.0074
1233.00,0.0074
1232.00,0.0075
1231.00,0.0075
1230.00,0.0075
1229.00,0.0076
1228.00,0.0077
1227.00,0.0078
1226.00,0.0080
1225.00,0.0083
1224.00,0.0086
1223.00,0.0089
1222.00,0.0092
1221.00,0.0095
1220.00,0.0097
1219.00,0.0098
1218.00,0.0097
1217.00,0.0095
1216.00,0.0093
1215.00,0.0090
1214.00,0.0087
1213.00,0.0084
1212.00,0.0081
1211.00,0.0079
1210.00,0.0076
1209.00,0.0073
1208.00,0.0071
1207.00,0.0069
1206.00,0.0069
1205.00,0.0068
1204.00,0.0067
1203.00,0.0066
1202.00,0.0065
1201.00,0.0065
1200.00,0.0065
1199.00,0.0065
1198.00,0.0064
1197.00,0.0064
1196.00,0.0064
1195.00,0.0064
1194.00,0.0064
1193.00,0.0064
1192.00,0.0064
1191.00,0.0064
1190.00,0.0065
1189.00,0.0065
1188.00,0.0065
1187.00,0.0065
1186.00,0.0065
1185.00,0.0066
1184.00,0.0067
1183.00,0.0068
1182.00,0.0070
1181.00,0.0072
1180.00,0.0075
1179.00,0.0078
1178.00,0.0083
1177.00,0.0090
1176.00,0.0099
1175.00,0.0111
1174.00,0.0126
1173.00,0.0146
1172.00,0.0168
1171.00,0.0191
1170.00,0.0213
1169.00,0.0231
1168.00,0.0244
1167.00,0.0248
1166.00,0.0246
1165.00,0.0238
1164.00,0.0229
1163.00,0.0219
1162.00,0.0211
1161.00,0.0204
1160.00,0.0199
1159.00,0.0195
1158.00,0.0192
1157.00,0.0190
1156.00,0.0189
1155.00,0.0188
1154.00,0.0187
1153.00,0.0185
1152.00,0.0181
1151.00,0.0175
1150.00,0.0168
1149.00,0.0160
1148.00,0.0151
1147.00,0.0141
1146.00,0.0132
1145.00,0.0124
1144.00,0.0117
1143.00,0.0111
1142.00,0.0106
1141.00,0.0101
1140.00,0.0096
1139.00,0.0091
1138.00,0.0087
1137.00,0.0083
1136.00,0.0080
1135.00,0.0078
1134.00,0.0076
1133.00,0.0075
1132.00,0.0074
1131.00,0.0073
1130.00,0.0073
1129.00,0.0074
1128.00,0.0076
1127.00,0.0078
1126.00,0.0079
1125.00,0.0079
1124.00,0.0078
1123.00,0.0078
1122.00,0.0079
1121.00,0.0080
1120.00,0.0081
1119.00,0.0082
1118.00,0.0082
1117.00,0.0083
1116.00,0.0083
1115.00,0.0084
1114.00,0.0086
1113.00,0.0087
1112.00,0.0090
1111.00,0.0093
1110.00,0.0096
1109.00,0.0101
1108.00,0.0107
1107.00,0.0114
1106.00,0.0123
1105.00,0.0130
1104.00,0.0137
1103.00,0.0141
1102.00,0.0142
1101.00,0.0139
1100.00,0.0134
1099.00,0.0127
1098.00,0.0120
1097.00,0.0112
1096.00,0.0105
1095.00,0.0099
1094.00,0.0095
1093.00,0.0092
1092.00,0.0090
1091.00,0.0089
1090.00,0.0087
1089.00,0.0085
1088.00,0.0084
1087.00,0.0082
1086.00,0.0081
1085.00,0.0079
1084.00,0.0078
1083.00,0.0077
1082.00,0.0077
1081.00,0.0076
1080.00,0.0075
1079.00,0.0074
1078.00,0.0073
1077.00,0.0072
1076.00,0.0072
1075.00,0.0072
1074.00,0.0071
1073.00,0.0071
1072.00,0.0071
1071.00,0.0071
1070.00,0.0071
1069.00,0.0071
1068.00,0.0071
1067.00,0.0070
1066.00,0.0069
1065.00,0.0069
1064.00,0.0069
1063.00,0.0070
1062.00,0.0071
1061.00,0.0072
1060.00,0.0073
1059.00,0.0073
1058.00,0.0072
1057.00,0.0071
1056.00,0.0071
1055.00,0.0072
1054.00,0.0073
1053.00,0.0074
1052.00,0.0075
1051.00,0.0076
1050.00,0.0077
1049.00,0.0077
1048.00,0.0079
1047.00,0.0081
1046.00,0.0084
1045.00,0.0086
1044.00,0.0086
1043.00,0.0085
1042.00,0.0084
1041.00,0.0082
1040.00,0.0082
1039.00,0.0082
1038.00,0.0083
1037.00,0.0083
1036.00,0.0083
1035.00,0.0084
1034.00,0.0085
1033.00,0.0085
1032.00,0.0084
1031.00,0.0084
1030.00,0.0083
1029.00,0.0083
1028.00,0.0083
1027.00,0.0083
1026.00,0.0082
1025.00,0.0081
1024.00,0.0081
1023.00,0.0081
1022.00,0.0082
1021.00,0.0081
1020.00,0.0081
1019.00,0.0082
1018.00,0.0084
1017.00,0.0085
1016.00,0.0087
1015.00,0.0088
1014.00,0.0089
1013.00,0.0091
1012.00,0.0094
1011.00,0.0097
1010.00,0.0099
1009.00,0.0103
1008.00,0.0107
1007.00,0.0113
1006.00,0.0121
1005.00,0.0130
1004.00,0.0142
1003.00,0.0156
1002.00,0.0175
1001.00,0.0197
1000.00,0.0220
999.00,0.0238
998.00,0.0246
997.00,0.0240
996.00,0.0222
995.00,0.0197
994.00,0.0170
993.00,0.0147
992.00,0.0129
991.00,0.0116
990.00,0.0108
989.00,0.0101
988.00,0.0097
987.00,0.0095
986.00,0.0094
985.00,0.0097
984.00,0.0101
983.00,0.0109
982.00,0.0119
981.00,0.0134
980.00,0.0153
979.00,0.0178
978.00,0.0209
977.00,0.0244
976.00,0.0280
975.00,0.0310
974.00,0.0329
973.00,0.0332
972.00,0.0316
971.00,0.0287
970.00,0.0251
969.00,0.0215
968.00,0.0184
967.00,0.0160
966.00,0.0141
965.00,0.0127
964.00,0.0117
963.00,0.0108
962.00,0.0101
961.00,0.0095
960.00,0.0090
959.00,0.0087
958.00,0.0085
957.00,0.0083
956.00,0.0082
955.00,0.0080
954.00,0.0079
953.00,0.0078
952.00,0.0077
951.00,0.0076
950.00,0.0075
949.00,0.0075
948.00,0.0077
947.00,0.0079
946.00,0.0082
945.00,0.0086
944.00,0.0090
943.00,0.0094
942.00,0.0096
941.00,0.0096
940.00,0.0094
939.00,0.0091
938.00,0.0087
937.00,0.0083
936.00,0.0080
935.00,0.0076
934.00,0.0072
933.00,0.0068
932.00,0.0065
931.00,0.0063
930.00,0.0062
929.00,0.0061
928.00,0.0060
927.00,0.0060
926.00,0.0059
925.00,0.0059
924.00,0.0060
923.00,0.0062
922.00,0.0063
921.00,0.0065
920.00,0.0066
919.00,0.0067
918.00,0.0068
917.00,0.0069
916.00,0.0070
915.00,0.0071
914.00,0.0072
913.00,0.0073
912.00,0.0074
911.00,0.0075
910.00,0.0076
909.00,0.0078
908.00,0.0081
907.00,0.0087
906.00,0.0095
905.00,0.0106
904.00,0.0122
903.00,0.0141
902.00,0.0163
901.00,0.0184
900.00,0.0198
899.00,0.0202
898.00,0.0195
897.00,0.0178
896.00,0.0157
895.00,0.0135
894.00,0.0117
893.00,0.0103
892.00,0.0093
891.00,0.0086
890.00,0.0081
889.00,0.0076
888.00,0.0073
887.00,0.0071
886.00,0.0071
885.00,0.0070
884.00,0.0069
883.00,0.0068
882.00,0.0068
881.00,0.0068
880.00,0.0069
879.00,0.0069
878.00,0.0069
877.00,0.0069
876.00,0.0069
875.00,0.0069
874.00,0.0070
873.00,0.0070
872.00,0.0071
871.00,0.0070
870.00,0.0070
869.00,0.0070
868.00,0.0069
867.00,0.0070
866.00,0.0070
865.00,0.0071
864.00,0.0073
863.00,0.0074
862.00,0.0077
861.00,0.0079
860.00,0.0082
859.00,0.0083
858.00,0.0083
857.00,0.0082
856.00,0.0081
855.00,0.0081
854.00,0.0083
853.00,0.0085
852.00,0.0089
851.00,0.0093
850.00,0.0097
849.00,0.0102
848.00,0.0108
847.00,0.0117
846.00,0.0131
845.00,0.0151
844.00,0.0178
843.00,0.0206
842.00,0.0225
841.00,0.0225
840.00,0.0207
839.00,0.0181
838.00,0.0155
837.00,0.0135
836.00,0.0122
835.00,0.0114
834.00,0.0110
833.00,0.0109
832.00,0.0108
831.00,0.0106
830.00,0.0103
829.00,0.0101
828.00,0.0100
827.00,0.0099
826.00,0.0097
825.00,0.0096
824.00,0.0096
823.00,0.0097
822.00,0.0099
821.00,0.0102
820.00,0.0105
819.00,0.0108
818.00,0.0113
817.00,0.0119
816.00,0.0129
815.00,0.0142
814.00,0.0157
813.00,0.0174
812.00,0.0191
811.00,0.0207
810.00,0.0218
809.00,0.0224
808.00,0.0223
807.00,0.0213
806.00,0.0199
805.00,0.0182
804.00,0.0166
803.00,0.0150
802.00,0.0137
801.00,0.0127
800.00,0.0119
799.00,0.0112
798.00,0.0107
797.00,0.0101
796.00,0.0095
795.00,0.0091
794.00,0.0089
793.00,0.0087
792.00,0.0085
791.00,0.0083
790.00,0.0082
789.00,0.0080
788.00,0.0078
787.00,0.0076
786.00,0.0073
785.00,0.0070
784.00,0.0066
783.00,0.0063
782.00,0.0060
781.00,0.0059
780.00,0.0059
779.00,0.0059
778.00,0.0060
777.00,0.0060
776.00,0.0061
775.00,0.0062
774.00,0.0063
773.00,0.0064
772.00,0.0065
771.00,0.0066
770.00,0.0067
769.00,0.0070
768.00,0.0072
767.00,0.0073
766.00,0.0073
765.00,0.0072
764.00,0.0070
763.00,0.0067
762.00,0.0065
761.00,0.0063
760.00,0.0061
759.00,0.0058
758.00,0.0055
757.00,0.0053
756.00,0.0052
755.00,0.0051
754.00,0.0050
753.00,0.0049
752.00,0.0048
751.00,0.0048
750.00,0.0049
749.00,0.0050
748.00,0.0051
747.00,0.0053
746.00,0.0054
745.00,0.0054
744.00,0.0054
743.00,0.0054
742.00,0.0055
741.00,0.0056
740.00,0.0056
739.00,0.0056
738.00,0.0058
737.00,0.0061
736.00,0.0063
735.00,0.0065
734.00,0.0066
733.00,0.0067
732.00,0.0068
731.00,0.0068
730.00,0.0066
729.00,0.0064
728.00,0.0061
727.00,0.0059
726.00,0.0058
725.00,0.0058
724.00,0.0059
723.00,0.0058
722.00,0.0058
721.00,0.0057
720.00,0.0056
719.00,0.0056
718.00,0.0056
717.00,0.0056
716.00,0.0057
715.00,0.0057
714.00,0.0055
713.00,0.0054
712.00,0.0053
711.00,0.0052
710.00,0.0053
709.00,0.0053
708.00,0.0052
707.00,0.0052
706.00,0.0053
705.00,0.0055
704.00,0.0055
703.00,0.0054
702.00,0.0053
701.00,0.0052
700.00,0.0050
699.00,0.0048
698.00,0.0046
697.00,0.0045
696.00,0.0046
695.00,0.0047
694.00,0.0048
693.00,0.0047
692.00,0.0046
691.00,0.0046
690.00,0.0046
689.00,0.0046
688.00,0.0046
687.00,0.0047
686.00,0.0047
685.00,0.0047
684.00,0.0046
683.00,0.0045
682.00,0.0045
681.00,0.0046
680.00,0.0048
679.00,0.0049
678.00,0.0050
677.00,0.0050
676.00,0.0049
675.00,0.0050
674.00,0.0049
673.00,0.0048
672.00,0.0046
671.00,0.0045
670.00,0.0044
669.00,0.0045
668.00,0.0047
667.00,0.0049
666.00,0.0048
665.00,0.0047
664.00,0.0048
663.00,0.0049
662.00,0.0049
661.00,0.0048
660.00,0.0045
659.00,0.0044
658.00,0.0045
657.00,0.0046
656.00,0.0046
655.00,0.0045
654.00,0.0044
653.00,0.0044
652.00,0.0045
651.00,0.0048
650.00,0.0050
649.00,0.0052
648.00,0.0053
647.00,0.0052
646.00,0.0051
645.00,0.0048
644.00,0.0047
643.00,0.0047
642.00,0.0050
641.00,0.0053
640.00,0.0055
639.00,0.0055
638.00,0.0055
637.00,0.0053
636.00,0.0052
635.00,0.0050
634.00,0.0050
633.00,0.0051
632.00,0.0051
631.00,0.0051
630.00,0.0050
629.00,0.0050
628.00,0.0050
627.00,0.0050
626.00,0.0050
625.00,0.0051
624.00,0.0051
623.00,0.0051
622.00,0.0049
621.00,0.0048
620.00,0.0048
619.00,0.0049
618.00,0.0050
617.00,0.0051
616.00,0.0051
615.00,0.0051
614.00,0.0051
613.00,0.0052
612.00,0.0052
611.00,0.0052
610.00,0.0053
609.00,0.0054
608.00,0.0055
607.00,0.0056
606.00,0.0055
605.00,0.0054
604.00,0.0053
603.00,0.0053
602.00,0.0052
601.00,0.0052
600.00,0.0053
599.00,0.0055
598.00,0.0057
597.00,0.0056
596.00,0.0054
595.00,0.0052
594.00,0.0050
593.00,0.0050
592.00,0.0051
591.00,0.0051
590.00,0.0050
589.00,0.0050
588.00,0.0051
587.00,0.0054
586.00,0.0056
585.00,0.0055
584.00,0.0054
583.00,0.0054
582.00,0.0057
581.00,0.0060
580.00,0.0063
579.00,0.0065
578.00,0.0066
577.00,0.0065
576.00,0.0064
575.00,0.0063
574.00,0.0063
573.00,0.0064
572.00,0.0064
571.00,0.0066
570.00,0.0068
569.00,0.0068
568.00,0.0067
567.00,0.0065
566.00,0.0063
565.00,0.0062
564.00,0.0059
563.00,0.0057
562.00,0.0056
561.00,0.0057
560.00,0.0058
559.00,0.0059
558.00,0.0060
557.00,0.0060
556.00,0.0059
555.00,0.0060
554.00,0.0063
553.00,0.0067
552.00,0.0071
551.00,0.0071
550.00,0.0069
549.00,0.0065
548.00,0.0061
547.00,0.0058
546.00,0.0056
545.00,0.0056
544.00,0.0056
543.00,0.0057
542.00,0.0060
541.00,0.0062
540.00,0.0064
539.00,0.0066
538.00,0.0067
537.00,0.0067
536.00,0.0066
535.00,0.0066
534.00,0.0070
533.00,0.0075
532.00,0.0080
531.00,0.0082
530.00,0.0084
529.00,0.0086
528.00,0.0087
527.00,0.0087
526.00,0.0085
525.00,0.0081
524.00,0.0077
523.00,0.0073
522.00,0.0070
521.00,0.0068
520.00,0.0067
519.00,0.0067
518.00,0.0068
517.00,0.0068
516.00,0.0063
515.00,0.0054
514.00,0.0046
513.00,0.0040
512.00,0.0037
511.00,0.0038
510.00,0.0043
509.00,0.0051
508.00,0.0056
507.00,0.0057
506.00,0.0057
505.00,0.0057
504.00,0.0058
503.00,0.0058
502.00,0.0060
501.00,0.0063
500.00,0.0065
499.00,0.0065
498.00,0.0066
497.00,0.0067
496.00,0.0064
495.00,0.0056
494.00,0.0050
493.00,0.0048
492.00,0.0049
491.00,0.0048
490.00,0.0047
489.00,0.0050
488.00,0.0056
487.00,0.0060
486.00,0.0061
485.00,0.0059
484.00,0.0056
483.00,0.0053
482.00,0.0051
481.00,0.0052
480.00,0.0056
479.00,0.0061
478.00,0.0064
477.00,0.0069
476.00,0.0080
475.00,0.0092
474.00,0.0098
473.00,0.0095
472.00,0.0086
471.00,0.0080
470.00,0.0078
469.00,0.0078
468.00,0.0079
467.00,0.0083
466.00,0.0091
465.00,0.0100
464.00,0.0106
463.00,0.0108
462.00,0.0111
461.00,0.0125
460.00,0.0148
459.00,0.0169
458.00,0.0174
457.00,0.0155
456.00,0.0125
455.00,0.0100
454.00,0.0085
453.00,0.0080
452.00,0.0084
451.00,0.0089
450.00,0.0094
