Created as New Dataset,Sample 109 By Administrator Date Tuesday, September 09 2025
cm-1,A
4000.00,0.0011
3999.00,0.0011
3998.00,0.0011
3997.00,0.0012
3996.00,0.0012
3995.00,0.0012
3994.00,0.0012
3993.00,0.0011
3992.00,0.0011
3991.00,0.0011
3990.00,0.0011
3989.00,0.0011
3988.00,0.0011
3987.00,0.0011
3986.00,0.0010
3985.00,0.0010
3984.00,0.0010
3983.00,0.0010
3982.00,0.0010
3981.00,0.0009
3980.00,0.0009
3979.00,0.0009
3978.00,0.0009
3977.00,0.0009
3976.00,0.0009
3975.00,0.0009
3974.00,0.0009
3973.00,0.0009
3972.00,0.0009
3971.00,0.0009
3970.00,0.0009
3969.00,0.0009
3968.00,0.0009
3967.00,0.0009
3966.00,0.0009
3965.00,0.0009
3964.00,0.0009
3963.00,0.0009
3962.00,0.0009
3961.00,0.0009
3960.00,0.0009
3959.00,0.0008
3958.00,0.0008
3957.00,0.0009
3956.00,0.0009
3955.00,0.0009
3954.00,0.0009
3953.00,0.0009
3952.00,0.0008
3951.00,0.0008
3950.00,0.0008
3949.00,0.0008
3948.00,0.0008
3947.00,0.0008
3946.00,0.0008
3945.00,0.0008
3944.00,0.0008
3943.00,0.0008
3942.00,0.0008
3941.00,0.0008
3940.00,0.0008
3939.00,0.0009
3938.00,0.0009
3937.00,0.0008
3936.00,0.0008
3935.00,0.0008
3934.00,0.0009
3933.00,0.0009
3932.00,0.0009
3931.00,0.0010
3930.00,0.0010
3929.00,0.0010
3928.00,0.0009
3927.00,0.0009
3926.00,0.0009
3925.00,0.0009
3924.00,0.0009
3923.00,0.0009
3922.00,0.0009
3921.00,0.0009
3920.00,0.0009
3919.00,0.0009
3918.00,0.0009
3917.00,0.0008
3916.00,0.0008
3915.00,0.0009
3914.00,0.0009
3913.00,0.0009
3912.00,0.0010
3911.00,0.0009
3910.00,0.0009
3909.00,0.0008
3908.00,0.0008
3907.00,0.0007
3906.00,0.0007
3905.00,0.0007
3904.00,0.0008
3903.00,0.0008
3902.00,0.0008
3901.00,0.0008
3900.00,0.0008
3899.00,0.0008
3898.00,0.0008
3897.00,0.0008
3896.00,0.0008
3895.00,0.0008
3894.00,0.0009
3893.00,0.0009
3892.00,0.0009
3891.00,0.0009
3890.00,0.0009
3889.00,0.0009
3888.00,0.0009
3887.00,0.0009
3886.00,0.0009
3885.00,0.0009
3884.00,0.0009
3883.00,0.0008
3882.00,0.0008
3881.00,0.0008
3880.00,0.0008
3879.00,0.0007
3878.00,0.0007
3877.00,0.0007
3876.00,0.0007
3875.00,0.0007
3874.00,0.0007
3873.00,0.0007
3872.00,0.0007
3871.00,0.0007
3870.00,0.0007
3869.00,0.0007
3868.00,0.0007
3867.00,0.0007
3866.00,0.0007
3865.00,0.0008
3864.00,0.0009
3863.00,0.0009
3862.00,0.0009
3861.00,0.0009
3860.00,0.0009
3859.00,0.0008
3858.00,0.0008
3857.00,0.0007
3856.00,0.0007
3855.00,0.0007
3854.00,0.0007
3853.00,0.0007
3852.00,0.0007
3851.00,0.0007
3850.00,0.0007
3849.00,0.0008
3848.00,0.0008
3847.00,0.0009
3846.00,0.0009
3845.00,0.0008
3844.00,0.0008
3843.00,0.0008
3842.00,0.0008
3841.00,0.0008
3840.00,0.0008
3839.00,0.0008
3838.00,0.0008
3837.00,0.0008
3836.00,0.0007
3835.00,0.0007
3834.00,0.0008
3833.00,0.0008
3832.00,0.0008
3831.00,0.0009
3830.00,0.0009
3829.00,0.0009
3828.00,0.0009
3827.00,0.0009
3826.00,0.0009
3825.00,0.0008
3824.00,0.0008
3823.00,0.0007
3822.00,0.0007
3821.00,0.0008
3820.00,0.0008
3819.00,0.0008
3818.00,0.0008
3817.00,0.0008
3816.00,0.0008
3815.00,0.0008
3814.00,0.0008
3813.00,0.0008
3812.00,0.0009
3811.00,0.0009
3810.00,0.0009
3809.00,0.0009
3808.00,0.0010
3807.00,0.0010
3806.00,0.0010
3805.00,0.0009
3804.00,0.0009
3803.00,0.0008
3802.00,0.0007
3801.00,0.0007
3800.00,0.0008
3799.00,0.0008
3798.00,0.0008
3797.00,0.0009
3796.00,0.0009
3795.00,0.0009
3794.00,0.0009
3793.00,0.0009
3792.00,0.0009
3791.00,0.0008
3790.00,0.0008
3789.00,0.0008
3788.00,0.0007
3787.00,0.0007
3786.00,0.0007
3785.00,0.0007
3784.00,0.0007
3783.00,0.0008
3782.00,0.0008
3781.00,0.0009
3780.00,0.0009
3779.00,0.0009
3778.00,0.0009
3777.00,0.0009
3776.00,0.0009
3775.00,0.0009
3774.00,0.0009
3773.00,0.0009
3772.00,0.0009
3771.00,0.0010
3770.00,0.0010
3769.00,0.0011
3768.00,0.0011
3767.00,0.0010
3766.00,0.0010
3765.00,0.0010
3764.00,0.0010
3763.00,0.0010
3762.00,0.0010
3761.00,0.0010
3760.00,0.0010
3759.00,0.0009
3758.00,0.0009
3757.00,0.0009
3756.00,0.0008
3755.00,0.0008
3754.00,0.0008
3753.00,0.0008
3752.00,0.0008
3751.00,0.0009
3750.00,0.0009
3749.00,0.0009
3748.00,0.0008
3747.00,0.0008
3746.00,0.0008
3745.00,0.0007
3744.00,0.0007
3743.00,0.0007
3742.00,0.0006
3741.00,0.0006
3740.00,0.0006
3739.00,0.0006
3738.00,0.0006
3737.00,0.0006
3736.00,0.0006
3735.00,0.0006
3734.00,0.0007
3733.00,0.0007
3732.00,0.0007
3731.00,0.0007
3730.00,0.0007
3729.00,0.0007
3728.00,0.0007
3727.00,0.0007
3726.00,0.0007
3725.00,0.0007
3724.00,0.0007
3723.00,0.0007
3722.00,0.0007
3721.00,0.0007
3720.00,0.0007
3719.00,0.0007
3718.00,0.0008
3717.00,0.0008
3716.00,0.0008
3715.00,0.0008
3714.00,0.0007
3713.00,0.0007
3712.00,0.0007
3711.00,0.0007
3710.00,0.0007
3709.00,0.0007
3708.00,0.0007
3707.00,0.0007
3706.00,0.0007
3705.00,0.0007
3704.00,0.0007
3703.00,0.0007
3702.00,0.0007
3701.00,0.0007
3700.00,0.0006
3699.00,0.0006
3698.00,0.0006
3697.00,0.0007
3696.00,0.0007
3695.00,0.0007
3694.00,0.0007
3693.00,0.0007
3692.00,0.0007
3691.00,0.0007
3690.00,0.0007
3689.00,0.0007
3688.00,0.0008
3687.00,0.0008
3686.00,0.0008
3685.00,0.0008
3684.00,0.0008
3683.00,0.0008
3682.00,0.0008
3681.00,0.0008
3680.00,0.0008
3679.00,0.0008
3678.00,0.0009
3677.00,0.0009
3676.00,0.0010
3675.00,0.0010
3674.00,0.0011
3673.00,0.0011
3672.00,0.0011
3671.00,0.0011
3670.00,0.0011
3669.00,0.0011
3668.00,0.0011
3667.00,0.0011
3666.00,0.0011
3665.00,0.0011
3664.00,0.0011
3663.00,0.0011
3662.00,0.0011
3661.00,0.0011
3660.00,0.0012
3659.00,0.0012
3658.00,0.0012
3657.00,0.0012
3656.00,0.0012
3655.00,0.0012
3654.00,0.0011
3653.00,0.0011
3652.00,0.0011
3651.00,0.0010
3650.00,0.0010
3649.00,0.0010
3648.00,0.0010
3647.00,0.0010
3646.00,0.0010
3645.00,0.0010
3644.00,0.0010
3643.00,0.0010
3642.00,0.0010
3641.00,0.0010
3640.00,0.0010
3639.00,0.0010
3638.00,0.0010
3637.00,0.0010
3636.00,0.0010
3635.00,0.0010
3634.00,0.0010
3633.00,0.0009
3632.00,0.0009
3631.00,0.0008
3630.00,0.0007
3629.00,0.0007
3628.00,0.0007
3627.00,0.0007
3626.00,0.0007
3625.00,0.0007
3624.00,0.0007
3623.00,0.0007
3622.00,0.0007
3621.00,0.0007
3620.00,0.0007
3619.00,0.0007
3618.00,0.0007
3617.00,0.0007
3616.00,0.0007
3615.00,0.0007
3614.00,0.0008
3613.00,0.0008
3612.00,0.0008
3611.00,0.0008
3610.00,0.0009
3609.00,0.0008
3608.00,0.0008
3607.00,0.0008
3606.00,0.0008
3605.00,0.0008
3604.00,0.0008
3603.00,0.0008
3602.00,0.0008
3601.00,0.0008
3600.00,0.0008
3599.00,0.0008
3598.00,0.0009
3597.00,0.0009
3596.00,0.0009
3595.00,0.0009
3594.00,0.0009
3593.00,0.0009
3592.00,0.0010
3591.00,0.0010
3590.00,0.0010
3589.00,0.0009
3588.00,0.0009
3587.00,0.0009
3586.00,0.0010
3585.00,0.0010
3584.00,0.0011
3583.00,0.0011
3582.00,0.0011
3581.00,0.0011
3580.00,0.0011
3579.00,0.0011
3578.00,0.0011
3577.00,0.0011
3576.00,0.0011
3575.00,0.0011
3574.00,0.0012
3573.00,0.0012
3572.00,0.0012
3571.00,0.0012
3570.00,0.0012
3569.00,0.0012
3568.00,0.0012
3567.00,0.0012
3566.00,0.0012
3565.00,0.0012
3564.00,0.0013
3563.00,0.0013
3562.00,0.0013
3561.00,0.0014
3560.00,0.0014
3559.00,0.0014
3558.00,0.0014
3557.00,0.0015
3556.00,0.0015
3555.00,0.0015
3554.00,0.0016
3553.00,0.0016
3552.00,0.0016
3551.00,0.0016
3550.00,0.0016
3549.00,0.0016
3548.00,0.0016
3547.00,0.0016
3546.00,0.0016
3545.00,0.0016
3544.00,0.0016
3543.00,0.0016
3542.00,0.0016
3541.00,0.0016
3540.00,0.0016
3539.00,0.0016
3538.00,0.0016
3537.00,0.0017
3536.00,0.0017
3535.00,0.0018
3534.00,0.0018
3533.00,0.0018
3532.00,0.0019
3531.00,0.0019
3530.00,0.0019
3529.00,0.0019
3528.00,0.0019
3527.00,0.0020
3526.00,0.0020
3525.00,0.0020
3524.00,0.0020
3523.00,0.0020
3522.00,0.0020
3521.00,0.0021
3520.00,0.0021
3519.00,0.0021
3518.00,0.0021
3517.00,0.0021
3516.00,0.0021
3515.00,0.0021
3514.00,0.0022
3513.00,0.0022
3512.00,0.0023
3511.00,0.0023
3510.00,0.0023
3509.00,0.0023
3508.00,0.0023
3507.00,0.0023
3506.00,0.0022
3505.00,0.0022
3504.00,0.0022
3503.00,0.0022
3502.00,0.0023
3501.00,0.0023
3500.00,0.0023
3499.00,0.0024
3498.00,0.0024
3497.00,0.0025
3496.00,0.0025
3495.00,0.0025
3494.00,0.0025
3493.00,0.0025
3492.00,0.0025
3491.00,0.0025
3490.00,0.0025
3489.00,0.0025
3488.00,0.0026
3487.00,0.0026
3486.00,0.0027
3485.00,0.0027
3484.00,0.0027
3483.00,0.0027
3482.00,0.0028
3481.00,0.0028
3480.00,0.0028
3479.00,0.0028
3478.00,0.0028
3477.00,0.0028
3476.00,0.0028
3475.00,0.0028
3474.00,0.0029
3473.00,0.0029
3472.00,0.0029
3471.00,0.0029
3470.00,0.0029
3469.00,0.0029
3468.00,0.0029
3467.00,0.0029
3466.00,0.0030
3465.00,0.0030
3464.00,0.0030
3463.00,0.0031
3462.00,0.0031
3461.00,0.0032
3460.00,0.0032
3459.00,0.0032
3458.00,0.0032
3457.00,0.0032
3456.00,0.0032
3455.00,0.0032
3454.00,0.0032
3453.00,0.0032
3452.00,0.0032
3451.00,0.0033
3450.00,0.0033
3449.00,0.0033
3448.00,0.0033
3447.00,0.0033
3446.00,0.0033
3445.00,0.0033
3444.00,0.0033
3443.00,0.0034
3442.00,0.0034
3441.00,0.0034
3440.00,0.0034
3439.00,0.0034
3438.00,0.0034
3437.00,0.0035
3436.00,0.0035
3435.00,0.0036
3434.00,0.0036
3433.00,0.0036
3432.00,0.0036
3431.00,0.0036
3430.00,0.0036
3429.00,0.0036
3428.00,0.0036
3427.00,0.0036
3426.00,0.0036
3425.00,0.0037
3424.00,0.0037
3423.00,0.0037
3422.00,0.0037
3421.00,0.0037
3420.00,0.0037
3419.00,0.0037
3418.00,0.0038
3417.00,0.0038
3416.00,0.0039
3415.00,0.0039
3414.00,0.0039
3413.00,0.0040
3412.00,0.0040
3411.00,0.0040
3410.00,0.0041
3409.00,0.0041
3408.00,0.0041
3407.00,0.0040
3406.00,0.0040
3405.00,0.0040
3404.00,0.0041
3403.00,0.0041
3402.00,0.0041
3401.00,0.0041
3400.00,0.0041
3399.00,0.0042
3398.00,0.0042
3397.00,0.0042
3396.00,0.0043
3395.00,0.0042
3394.00,0.0042
3393.00,0.0042
3392.00,0.0042
3391.00,0.0042
3390.00,0.0042
3389.00,0.0041
3388.00,0.0041
3387.00,0.0041
3386.00,0.0041
3385.00,0.0041
3384.00,0.0041
3383.00,0.0041
3382.00,0.0041
3381.00,0.0041
3380.00,0.0041
3379.00,0.0040
3378.00,0.0040
3377.00,0.0040
3376.00,0.0040
3375.00,0.0040
3374.00,0.0041
3373.00,0.0041
3372.00,0.0041
3371.00,0.0041
3370.00,0.0041
3369.00,0.0041
3368.00,0.0041
3367.00,0.0041
3366.00,0.0041
3365.00,0.0041
3364.00,0.0041
3363.00,0.0041
3362.00,0.0042
3361.00,0.0042
3360.00,0.0042
3359.00,0.0042
3358.00,0.0042
3357.00,0.0042
3356.00,0.0042
3355.00,0.0042
3354.00,0.0042
3353.00,0.0042
3352.00,0.0042
3351.00,0.0042
3350.00,0.0041
3349.00,0.0041
3348.00,0.0041
3347.00,0.0041
3346.00,0.0041
3345.00,0.0041
3344.00,0.0041
3343.00,0.0042
3342.00,0.0042
3341.00,0.0042
3340.00,0.0042
3339.00,0.0041
3338.00,0.0041
3337.00,0.0041
3336.00,0.0040
3335.00,0.0040
3334.00,0.0040
3333.00,0.0040
3332.00,0.0041
3331.00,0.0041
3330.00,0.0041
3329.00,0.0041
3328.00,0.0040
3327.00,0.0040
3326.00,0.0040
3325.00,0.0040
3324.00,0.0041
3323.00,0.0041
3322.00,0.0041
3321.00,0.0041
3320.00,0.0041
3319.00,0.0040
3318.00,0.0040
3317.00,0.0040
3316.00,0.0040
3315.00,0.0040
3314.00,0.0040
3313.00,0.0039
3312.00,0.0039
3311.00,0.0039
3310.00,0.0039
3309.00,0.0039
3308.00,0.0039
3307.00,0.0039
3306.00,0.0039
3305.00,0.0039
3304.00,0.0040
3303.00,0.0040
3302.00,0.0040
3301.00,0.0040
3300.00,0.0040
3299.00,0.0040
3298.00,0.0039
3297.00,0.0039
3296.00,0.0039
3295.00,0.0039
3294.00,0.0039
3293.00,0.0039
3292.00,0.0039
3291.00,0.0039
3290.00,0.0039
3289.00,0.0040
3288.00,0.0040
3287.00,0.0040
3286.00,0.0039
3285.00,0.0039
3284.00,0.0038
3283.00,0.0038
3282.00,0.0038
3281.00,0.0038
3280.00,0.0038
3279.00,0.0038
3278.00,0.0038
3277.00,0.0038
3276.00,0.0038
3275.00,0.0038
3274.00,0.0038
3273.00,0.0038
3272.00,0.0038
3271.00,0.0037
3270.00,0.0037
3269.00,0.0037
3268.00,0.0037
3267.00,0.0037
3266.00,0.0037
3265.00,0.0037
3264.00,0.0037
3263.00,0.0037
3262.00,0.0037
3261.00,0.0037
3260.00,0.0037
3259.00,0.0037
3258.00,0.0037
3257.00,0.0037
3256.00,0.0036
3255.00,0.0036
3254.00,0.0036
3253.00,0.0036
3252.00,0.0036
3251.00,0.0036
3250.00,0.0035
3249.00,0.0035
3248.00,0.0035
3247.00,0.0035
3246.00,0.0035
3245.00,0.0035
3244.00,0.0036
3243.00,0.0036
3242.00,0.0036
3241.00,0.0036
3240.00,0.0036
3239.00,0.0036
3238.00,0.0036
3237.00,0.0036
3236.00,0.0035
3235.00,0.0035
3234.00,0.0036
3233.00,0.0036
3232.00,0.0036
3231.00,0.0037
3230.00,0.0037
3229.00,0.0037
3228.00,0.0037
3227.00,0.0037
3226.00,0.0037
3225.00,0.0037
3224.00,0.0037
3223.00,0.0037
3222.00,0.0037
3221.00,0.0037
3220.00,0.0038
3219.00,0.0038
3218.00,0.0038
3217.00,0.0038
3216.00,0.0038
3215.00,0.0038
3214.00,0.0039
3213.00,0.0039
3212.00,0.0040
3211.00,0.0040
3210.00,0.0040
3209.00,0.0041
3208.00,0.0041
3207.00,0.0041
3206.00,0.0041
3205.00,0.0042
3204.00,0.0042
3203.00,0.0041
3202.00,0.0041
3201.00,0.0041
3200.00,0.0041
3199.00,0.0042
3198.00,0.0041
3197.00,0.0041
3196.00,0.0041
3195.00,0.0041
3194.00,0.0041
3193.00,0.0041
3192.00,0.0041
3191.00,0.0041
3190.00,0.0041
3189.00,0.0041
3188.00,0.0041
3187.00,0.0041
3186.00,0.0041
3185.00,0.0041
3184.00,0.0040
3183.00,0.0040
3182.00,0.0040
3181.00,0.0040
3180.00,0.0040
3179.00,0.0039
3178.00,0.0039
3177.00,0.0039
3176.00,0.0038
3175.00,0.0038
3174.00,0.0037
3173.00,0.0037
3172.00,0.0037
3171.00,0.0037
3170.00,0.0037
3169.00,0.0038
3168.00,0.0037
3167.00,0.0037
3166.00,0.0036
3165.00,0.0036
3164.00,0.0036
3163.00,0.0036
3162.00,0.0036
3161.00,0.0036
3160.00,0.0036
3159.00,0.0036
3158.00,0.0036
3157.00,0.0036
3156.00,0.0036
3155.00,0.0036
3154.00,0.0036
3153.00,0.0035
3152.00,0.0035
3151.00,0.0035
3150.00,0.0035
3149.00,0.0035
3148.00,0.0035
3147.00,0.0034
3146.00,0.0034
3145.00,0.0034
3144.00,0.0034
3143.00,0.0034
3142.00,0.0035
3141.00,0.0035
3140.00,0.0035
3139.00,0.0034
3138.00,0.0034
3137.00,0.0034
3136.00,0.0034
3135.00,0.0033
3134.00,0.0033
3133.00,0.0032
3132.00,0.0032
3131.00,0.0031
3130.00,0.0031
3129.00,0.0031
3128.00,0.0031
3127.00,0.0030
3126.00,0.0030
3125.00,0.0030
3124.00,0.0030
3123.00,0.0030
3122.00,0.0030
3121.00,0.0030
3120.00,0.0030
3119.00,0.0029
3118.00,0.0029
3117.00,0.0029
3116.00,0.0029
3115.00,0.0029
3114.00,0.0029
3113.00,0.0029
3112.00,0.0028
3111.00,0.0028
3110.00,0.0028
3109.00,0.0028
3108.00,0.0028
3107.00,0.0028
3106.00,0.0028
3105.00,0.0028
3104.00,0.0028
3103.00,0.0027
3102.00,0.0027
3101.00,0.0027
3100.00,0.0027
3099.00,0.0028
3098.00,0.0028
3097.00,0.0028
3096.00,0.0028
3095.00,0.0028
3094.00,0.0028
3093.00,0.0028
3092.00,0.0028
3091.00,0.0028
3090.00,0.0027
3089.00,0.0027
3088.00,0.0027
3087.00,0.0027
3086.00,0.0027
3085.00,0.0026
3084.00,0.0026
3083.00,0.0027
3082.00,0.0027
3081.00,0.0027
3080.00,0.0027
3079.00,0.0027
3078.00,0.0027
3077.00,0.0027
3076.00,0.0027
3075.00,0.0028
3074.00,0.0028
3073.00,0.0028
3072.00,0.0028
3071.00,0.0027
3070.00,0.0027
3069.00,0.0027
3068.00,0.0028
3067.00,0.0028
3066.00,0.0029
3065.00,0.0029
3064.00,0.0029
3063.00,0.0029
3062.00,0.0029
3061.00,0.0029
3060.00,0.0029
3059.00,0.0030
3058.00,0.0030
3057.00,0.0030
3056.00,0.0030
3055.00,0.0030
3054.00,0.0030
3053.00,0.0031
3052.00,0.0031
3051.00,0.0031
3050.00,0.0031
3049.00,0.0032
3048.00,0.0032
3047.00,0.0032
3046.00,0.0032
3045.00,0.0032
3044.00,0.0032
3043.00,0.0032
3042.00,0.0032
3041.00,0.0032
3040.00,0.0032
3039.00,0.0032
3038.00,0.0032
3037.00,0.0032
3036.00,0.0033
3035.00,0.0033
3034.00,0.0034
3033.00,0.0035
3032.00,0.0036
3031.00,0.0036
3030.00,0.0037
3029.00,0.0037
3028.00,0.0038
3027.00,0.0038
3026.00,0.0038
3025.00,0.0039
3024.00,0.0039
3023.00,0.0040
3022.00,0.0041
3021.00,0.0042
3020.00,0.0043
3019.00,0.0045
3018.00,0.0046
3017.00,0.0047
3016.00,0.0049
3015.00,0.0050
3014.00,0.0052
3013.00,0.0054
3012.00,0.0056
3011.00,0.0058
3010.00,0.0060
3009.00,0.0063
3008.00,0.0066
3007.00,0.0069
3006.00,0.0072
3005.00,0.0075
3004.00,0.0078
3003.00,0.0082
3002.00,0.0086
3001.00,0.0089
3000.00,0.0093
2999.00,0.0097
2998.00,0.0101
2997.00,0.0105
2996.00,0.0110
2995.00,0.0115
2994.00,0.0120
2993.00,0.0126
2992.00,0.0132
2991.00,0.0139
2990.00,0.0146
2989.00,0.0153
2988.00,0.0162
2987.00,0.0172
2986.00,0.0184
2985.00,0.0199
2984.00,0.0215
2983.00,0.0233
2982.00,0.0251
2981.00,0.0269
2980.00,0.0288
2979.00,0.0308
2978.00,0.0331
2977.00,0.0358
2976.00,0.0390
2975.00,0.0426
2974.00,0.0468
2973.00,0.0516
2972.00,0.0569
2971.00,0.0628
2970.00,0.0692
2969.00,0.0761
2968.00,0.0836
2967.00,0.0915
2966.00,0.0997
2965.00,0.1079
2964.00,0.1158
2963.00,0.1230
2962.00,0.1294
2961.00,0.1348
2960.00,0.1394
2959.00,0.1437
2958.00,0.1481
2957.00,0.1533
2956.00,0.1597
2955.00,0.1673
2954.00,0.1760
2953.00,0.1853
2952.00,0.1941
2951.00,0.2014
2950.00,0.2058
2949.00,0.2061
2948.00,0.2018
2947.00,0.1928
2946.00,0.1803
2945.00,0.1658
2944.00,0.1511
2943.00,0.1378
2942.00,0.1270
2941.00,0.1189
2940.00,0.1138
2939.00,0.1113
2938.00,0.1112
2937.00,0.1132
2936.00,0.1171
2935.00,0.1227
2934.00,0.1299
2933.00,0.1385
2932.00,0.1484
2931.00,0.1594
2930.00,0.1711
2929.00,0.1832
2928.00,0.1953
2927.00,0.2072
2926.00,0.2186
2925.00,0.2297
2924.00,0.2405
2923.00,0.2512
2922.00,0.2619
2921.00,0.2722
2920.00,0.2817
2919.00,0.2892
2918.00,0.2937
2917.00,0.2943
2916.00,0.2907
2915.00,0.2833
2914.00,0.2731
2913.00,0.2614
2912.00,0.2492
2911.00,0.2374
2910.00,0.2265
2909.00,0.2165
2908.00,0.2071
2907.00,0.1983
2906.00,0.1898
2905.00,0.1815
2904.00,0.1733
2903.00,0.1653
2902.00,0.1576
2901.00,0.1501
2900.00,0.1431
2899.00,0.1365
2898.00,0.1305
2897.00,0.1251
2896.00,0.1204
2895.00,0.1165
2894.00,0.1133
2893.00,0.1109
2892.00,0.1092
2891.00,0.1082
2890.00,0.1078
2889.00,0.1080
2888.00,0.1085
2887.00,0.1095
2886.00,0.1109
2885.00,0.1126
2884.00,0.1149
2883.00,0.1177
2882.00,0.1210
2881.00,0.1246
2880.00,0.1283
2879.00,0.1315
2878.00,0.1337
2877.00,0.1347
2876.00,0.1346
2875.00,0.1338
2874.00,0.1328
2873.00,0.1323
2872.00,0.1327
2871.00,0.1340
2870.00,0.1361
2869.00,0.1384
2868.00,0.1401
2867.00,0.1400
2866.00,0.1374
2865.00,0.1317
2864.00,0.1232
2863.00,0.1128
2862.00,0.1017
2861.00,0.0912
2860.00,0.0819
2859.00,0.0744
2858.00,0.0685
2857.00,0.0642
2856.00,0.0612
2855.00,0.0593
2854.00,0.0583
2853.00,0.0582
2852.00,0.0587
2851.00,0.0601
2850.00,0.0622
2849.00,0.0650
2848.00,0.0687
2847.00,0.0732
2846.00,0.0785
2845.00,0.0848
2844.00,0.0918
2843.00,0.0995
2842.00,0.1074
2841.00,0.1149
2840.00,0.1212
2839.00,0.1255
2838.00,0.1268
2837.00,0.1246
2836.00,0.1187
2835.00,0.1098
2834.00,0.0989
2833.00,0.0873
2832.00,0.0761
2831.00,0.0662
2830.00,0.0578
2829.00,0.0509
2828.00,0.0453
2827.00,0.0408
2826.00,0.0372
2825.00,0.0342
2824.00,0.0318
2823.00,0.0297
2822.00,0.0280
2821.00,0.0265
2820.00,0.0252
2819.00,0.0241
2818.00,0.0231
2817.00,0.0223
2816.00,0.0215
2815.00,0.0208
2814.00,0.0202
2813.00,0.0196
2812.00,0.0190
2811.00,0.0185
2810.00,0.0179
2809.00,0.0172
2808.00,0.0166
2807.00,0.0159
2806.00,0.0152
2805.00,0.0146
2804.00,0.0139
2803.00,0.0133
2802.00,0.0127
2801.00,0.0122
2800.00,0.0118
2799.00,0.0115
2798.00,0.0112
2797.00,0.0110
2796.00,0.0107
2795.00,0.0104
2794.00,0.0102
2793.00,0.0099
2792.00,0.0096
2791.00,0.0093
2790.00,0.0090
2789.00,0.0087
2788.00,0.0084
2787.00,0.0081
2786.00,0.0078
2785.00,0.0076
2784.00,0.0074
2783.00,0.0072
2782.00,0.0070
2781.00,0.0068
2780.00,0.0066
2779.00,0.0065
2778.00,0.0064
2777.00,0.0062
2776.00,0.0061
2775.00,0.0060
2774.00,0.0059
2773.00,0.0059
2772.00,0.0059
2771.00,0.0058
2770.00,0.0058
2769.00,0.0057
2768.00,0.0057
2767.00,0.0057
2766.00,0.0057
2765.00,0.0057
2764.00,0.0056
2763.00,0.0056
2762.00,0.0055
2761.00,0.0055
2760.00,0.0054
2759.00,0.0054
2758.00,0.0053
2757.00,0.0053
2756.00,0.0053
2755.00,0.0053
2754.00,0.0053
2753.00,0.0053
2752.00,0.0053
2751.00,0.0053
2750.00,0.0053
2749.00,0.0053
2748.00,0.0053
2747.00,0.0053
2746.00,0.0053
2745.00,0.0054
2744.00,0.0054
2743.00,0.0055
2742.00,0.0056
2741.00,0.0057
2740.00,0.0059
2739.00,0.0061
2738.00,0.0062
2737.00,0.0064
2736.00,0.0066
2735.00,0.0067
2734.00,0.0069
2733.00,0.0071
2732.00,0.0073
2731.00,0.0075
2730.00,0.0077
2729.00,0.0080
2728.00,0.0083
2727.00,0.0086
2726.00,0.0089
2725.00,0.0092
2724.00,0.0094
2723.00,0.0095
2722.00,0.0094
2721.00,0.0091
2720.00,0.0088
2719.00,0.0084
2718.00,0.0080
2717.00,0.0077
2716.00,0.0073
2715.00,0.0070
2714.00,0.0068
2713.00,0.0065
2712.00,0.0063
2711.00,0.0061
2710.00,0.0059
2709.00,0.0058
2708.00,0.0056
2707.00,0.0055
2706.00,0.0053
2705.00,0.0052
2704.00,0.0050
2703.00,0.0049
2702.00,0.0048
2701.00,0.0047
2700.00,0.0047
2699.00,0.0046
2698.00,0.0046
2697.00,0.0045
2696.00,0.0045
2695.00,0.0045
2694.00,0.0045
2693.00,0.0045
2692.00,0.0045
2691.00,0.0045
2690.00,0.0045
2689.00,0.0045
2688.00,0.0045
2687.00,0.0045
2686.00,0.0045
2685.00,0.0045
2684.00,0.0045
2683.00,0.0045
2682.00,0.0045
2681.00,0.0045
2680.00,0.0046
2679.00,0.0046
2678.00,0.0046
2677.00,0.0046
2676.00,0.0046
2675.00,0.0046
2674.00,0.0046
2673.00,0.0046
2672.00,0.0046
2671.00,0.0046
2670.00,0.0045
2669.00,0.0045
2668.00,0.0045
2667.00,0.0046
2666.00,0.0046
2665.00,0.0047
2664.00,0.0047
2663.00,0.0048
2662.00,0.0048
2661.00,0.0048
2660.00,0.0048
2659.00,0.0049
2658.00,0.0049
2657.00,0.0049
2656.00,0.0049
2655.00,0.0048
2654.00,0.0047
2653.00,0.0047
2652.00,0.0046
2651.00,0.0045
2650.00,0.0045
2649.00,0.0045
2648.00,0.0045
2647.00,0.0044
2646.00,0.0044
2645.00,0.0043
2644.00,0.0043
2643.00,0.0042
2642.00,0.0041
2641.00,0.0040
2640.00,0.0040
2639.00,0.0039
2638.00,0.0039
2637.00,0.0039
2636.00,0.0039
2635.00,0.0039
2634.00,0.0039
2633.00,0.0039
2632.00,0.0039
2631.00,0.0039
2630.00,0.0039
2629.00,0.0039
2628.00,0.0039
2627.00,0.0039
2626.00,0.0040
2625.00,0.0040
2624.00,0.0040
2623.00,0.0040
2622.00,0.0040
2621.00,0.0041
2620.00,0.0041
2619.00,0.0041
2618.00,0.0041
2617.00,0.0041
2616.00,0.0041
2615.00,0.0040
2614.00,0.0040
2613.00,0.0040
2612.00,0.0040
2611.00,0.0040
2610.00,0.0040
2609.00,0.0039
2608.00,0.0039
2607.00,0.0038
2606.00,0.0037
2605.00,0.0036
2604.00,0.0035
2603.00,0.0034
2602.00,0.0033
2601.00,0.0033
2600.00,0.0033
2599.00,0.0033
2598.00,0.0033
2597.00,0.0033
2596.00,0.0033
2595.00,0.0033
2594.00,0.0034
2593.00,0.0035
2592.00,0.0035
2591.00,0.0035
2590.00,0.0036
2589.00,0.0037
2588.00,0.0038
2587.00,0.0039
2586.00,0.0040
2585.00,0.0041
2584.00,0.0041
2583.00,0.0042
2582.00,0.0042
2581.00,0.0042
2580.00,0.0042
2579.00,0.0042
2578.00,0.0041
2577.00,0.0040
2576.00,0.0039
2575.00,0.0037
2574.00,0.0035
2573.00,0.0033
2572.00,0.0031
2571.00,0.0030
2570.00,0.0029
2569.00,0.0028
2568.00,0.0027
2567.00,0.0027
2566.00,0.0027
2565.00,0.0027
2564.00,0.0027
2563.00,0.0027
2562.00,0.0026
2561.00,0.0026
2560.00,0.0025
2559.00,0.0025
2558.00,0.0024
2557.00,0.0024
2556.00,0.0024
2555.00,0.0024
2554.00,0.0024
2553.00,0.0023
2552.00,0.0022
2551.00,0.0022
2550.00,0.0021
2549.00,0.0021
2548.00,0.0020
2547.00,0.0020
2546.00,0.0019
2545.00,0.0019
2544.00,0.0018
2543.00,0.0018
2542.00,0.0017
2541.00,0.0017
2540.00,0.0017
2539.00,0.0017
2538.00,0.0018
2537.00,0.0018
2536.00,0.0017
2535.00,0.0017
2534.00,0.0017
2533.00,0.0016
2532.00,0.0015
2531.00,0.0015
2530.00,0.0014
2529.00,0.0014
2528.00,0.0014
2527.00,0.0013
2526.00,0.0013
2525.00,0.0013
2524.00,0.0012
2523.00,0.0013
2522.00,0.0013
2521.00,0.0013
2520.00,0.0013
2519.00,0.0013
2518.00,0.0012
2517.00,0.0011
2516.00,0.0011
2515.00,0.0011
2514.00,0.0011
2513.00,0.0012
2512.00,0.0011
2511.00,0.0011
2510.00,0.0011
2509.00,0.0011
2508.00,0.0011
2507.00,0.0011
2506.00,0.0011
2505.00,0.0011
2504.00,0.0011
2503.00,0.0011
2502.00,0.0011
2501.00,0.0011
2500.00,0.0012
2499.00,0.0012
2498.00,0.0012
2497.00,0.0012
2496.00,0.0011
2495.00,0.0011
2494.00,0.0011
2493.00,0.0011
2492.00,0.0012
2491.00,0.0012
2490.00,0.0012
2489.00,0.0012
2488.00,0.0011
2487.00,0.0011
2486.00,0.0011
2485.00,0.0011
2484.00,0.0010
2483.00,0.0010
2482.00,0.0010
2481.00,0.0010
2480.00,0.0011
2479.00,0.0011
2478.00,0.0010
2477.00,0.0010
2476.00,0.0010
2475.00,0.0010
2474.00,0.0010
2473.00,0.0010
2472.00,0.0010
2471.00,0.0010
2470.00,0.0010
2469.00,0.0010
2468.00,0.0009
2467.00,0.0009
2466.00,0.0009
2465.00,0.0009
2464.00,0.0009
2463.00,0.0008
2462.00,0.0008
2461.00,0.0009
2460.00,0.0009
2459.00,0.0010
2458.00,0.0011
2457.00,0.0011
2456.00,0.0012
2455.00,0.0012
2454.00,0.0012
2453.00,0.0012
2452.00,0.0012
2451.00,0.0012
2450.00,0.0012
2449.00,0.0013
2448.00,0.0013
2447.00,0.0013
2446.00,0.0013
2445.00,0.0012
2444.00,0.0012
2443.00,0.0012
2442.00,0.0011
2441.00,0.0011
2440.00,0.0011
2439.00,0.0010
2438.00,0.0010
2437.00,0.0011
2436.00,0.0011
2435.00,0.0011
2434.00,0.0011
2433.00,0.0012
2432.00,0.0012
2431.00,0.0012
2430.00,0.0013
2429.00,0.0013
2428.00,0.0013
2427.00,0.0013
2426.00,0.0013
2425.00,0.0013
2424.00,0.0013
2423.00,0.0012
2422.00,0.0012
2421.00,0.0012
2420.00,0.0012
2419.00,0.0012
2418.00,0.0011
2417.00,0.0011
2416.00,0.0011
2415.00,0.0011
2414.00,0.0011
2413.00,0.0011
2412.00,0.0011
2411.00,0.0011
2410.00,0.0010
2409.00,0.0009
2408.00,0.0009
2407.00,0.0008
2406.00,0.0007
2405.00,0.0007
2404.00,0.0007
2403.00,0.0008
2402.00,0.0008
2401.00,0.0008
2400.00,0.0009
2399.00,0.0009
2398.00,0.0009
2397.00,0.0009
2396.00,0.0008
2395.00,0.0009
2394.00,0.0009
2393.00,0.0009
2392.00,0.0009
2391.00,0.0009
2390.00,0.0008
2389.00,0.0008
2388.00,0.0008
2387.00,0.0007
2386.00,0.0006
2385.00,0.0006
2384.00,0.0006
2383.00,0.0006
2382.00,0.0005
2381.00,0.0005
2380.00,0.0004
2379.00,0.0004
2378.00,0.0004
2377.00,0.0005
2376.00,0.0005
2375.00,0.0005
2374.00,0.0005
2373.00,0.0005
2372.00,0.0004
2371.00,0.0004
2370.00,0.0004
2369.00,0.0003
2368.00,0.0003
2367.00,0.0002
2366.00,0.0002
2365.00,0.0003
2364.00,0.0004
2363.00,0.0004
2362.00,0.0004
2361.00,0.0004
2360.00,0.0004
2359.00,0.0004
2358.00,0.0005
2357.00,0.0005
2356.00,0.0005
2355.00,0.0005
2354.00,0.0005
2353.00,0.0004
2352.00,0.0003
2351.00,0.0004
2350.00,0.0004
2349.00,0.0005
2348.00,0.0006
2347.00,0.0006
2346.00,0.0006
2345.00,0.0006
2344.00,0.0006
2343.00,0.0006
2342.00,0.0006
2341.00,0.0007
2340.00,0.0007
2339.00,0.0007
2338.00,0.0007
2337.00,0.0007
2336.00,0.0007
2335.00,0.0007
2334.00,0.0007
2333.00,0.0006
2332.00,0.0005
2331.00,0.0005
2330.00,0.0005
2329.00,0.0006
2328.00,0.0008
2327.00,0.0011
2326.00,0.0016
2325.00,0.0020
2324.00,0.0022
2323.00,0.0021
2322.00,0.0019
2321.00,0.0017
2320.00,0.0016
2319.00,0.0015
2318.00,0.0015
2317.00,0.0015
2316.00,0.0014
2315.00,0.0013
2314.00,0.0012
2313.00,0.0011
2312.00,0.0010
2311.00,0.0009
2310.00,0.0008
2309.00,0.0008
2308.00,0.0008
2307.00,0.0008
2306.00,0.0009
2305.00,0.0010
2304.00,0.0011
2303.00,0.0011
2302.00,0.0012
2301.00,0.0012
2300.00,0.0012
2299.00,0.0012
2298.00,0.0012
2297.00,0.0012
2296.00,0.0012
2295.00,0.0013
2294.00,0.0014
2293.00,0.0015
2292.00,0.0016
2291.00,0.0017
2290.00,0.0017
2289.00,0.0017
2288.00,0.0018
2287.00,0.0018
2286.00,0.0019
2285.00,0.0018
2284.00,0.0018
2283.00,0.0017
2282.00,0.0016
2281.00,0.0016
2280.00,0.0016
2279.00,0.0015
2278.00,0.0013
2277.00,0.0012
2276.00,0.0012
2275.00,0.0012
2274.00,0.0012
2273.00,0.0013
2272.00,0.0013
2271.00,0.0014
2270.00,0.0013
2269.00,0.0012
2268.00,0.0011
2267.00,0.0010
2266.00,0.0010
2265.00,0.0011
2264.00,0.0013
2263.00,0.0013
2262.00,0.0013
2261.00,0.0013
2260.00,0.0013
2259.00,0.0014
2258.00,0.0014
2257.00,0.0014
2256.00,0.0013
2255.00,0.0012
2254.00,0.0011
2253.00,0.0009
2252.00,0.0009
2251.00,0.0009
2250.00,0.0009
2249.00,0.0009
2248.00,0.0008
2247.00,0.0008
2246.00,0.0008
2245.00,0.0010
2244.00,0.0011
2243.00,0.0012
2242.00,0.0012
2241.00,0.0010
2240.00,0.0009
2239.00,0.0009
2238.00,0.0009
2237.00,0.0010
2236.00,0.0011
2235.00,0.0011
2234.00,0.0011
2233.00,0.0010
2232.00,0.0009
2231.00,0.0008
2230.00,0.0006
2229.00,0.0006
2228.00,0.0006
2227.00,0.0006
2226.00,0.0006
2225.00,0.0005
2224.00,0.0005
2223.00,0.0004
2222.00,0.0005
2221.00,0.0006
2220.00,0.0007
2219.00,0.0008
2218.00,0.0008
2217.00,0.0008
2216.00,0.0008
2215.00,0.0007
2214.00,0.0007
2213.00,0.0006
2212.00,0.0006
2211.00,0.0006
2210.00,0.0005
2209.00,0.0005
2208.00,0.0005
2207.00,0.0006
2206.00,0.0007
2205.00,0.0008
2204.00,0.0009
2203.00,0.0009
2202.00,0.0009
2201.00,0.0009
2200.00,0.0009
2199.00,0.0010
2198.00,0.0013
2197.00,0.0014
2196.00,0.0013
2195.00,0.0010
2194.00,0.0007
2193.00,0.0006
2192.00,0.0007
2191.00,0.0008
2190.00,0.0009
2189.00,0.0008
2188.00,0.0008
2187.00,0.0008
2186.00,0.0008
2185.00,0.0009
2184.00,0.0010
2183.00,0.0009
2182.00,0.0009
2181.00,0.0008
2180.00,0.0007
2179.00,0.0007
2178.00,0.0007
2177.00,0.0006
2176.00,0.0005
2175.00,0.0003
2174.00,0.0002
2173.00,0.0003
2172.00,0.0003
2171.00,0.0004
2170.00,0.0006
2169.00,0.0009
2168.00,0.0013
2167.00,0.0017
2166.00,0.0018
2165.00,0.0018
2164.00,0.0017
2163.00,0.0017
2162.00,0.0018
2161.00,0.0015
2160.00,0.0006
2159.00,-0.0007
2158.00,-0.0019
2157.00,-0.0025
2156.00,-0.0025
2155.00,-0.0023
2154.00,-0.0021
2153.00,-0.0020
2152.00,-0.0019
2151.00,-0.0018
2150.00,-0.0016
2149.00,-0.0015
2148.00,-0.0015
2147.00,-0.0017
2146.00,-0.0018
2145.00,-0.0018
2144.00,-0.0017
2143.00,-0.0014
2142.00,-0.0013
2141.00,-0.0012
2140.00,-0.0011
2139.00,-0.0011
2138.00,-0.0010
2137.00,-0.0010
2136.00,-0.0011
2135.00,-0.0013
2134.00,-0.0016
2133.00,-0.0017
2132.00,-0.0015
2131.00,-0.0013
2130.00,-0.0010
2129.00,-0.0007
2128.00,-0.0006
2127.00,-0.0007
2126.00,-0.0008
2125.00,-0.0009
2124.00,-0.0009
2123.00,-0.0009
2122.00,-0.0008
2121.00,-0.0006
2120.00,-0.0005
2119.00,-0.0005
2118.00,-0.0004
2117.00,-0.0002
2116.00,-0.0000
2115.00,0.0002
2114.00,0.0004
2113.00,0.0004
2112.00,0.0004
2111.00,0.0003
2110.00,0.0003
2109.00,0.0003
2108.00,0.0003
2107.00,0.0003
2106.00,0.0003
2105.00,0.0004
2104.00,0.0003
2103.00,0.0003
2102.00,0.0002
2101.00,0.0003
2100.00,0.0004
2099.00,0.0004
2098.00,0.0002
2097.00,-0.0001
2096.00,-0.0003
2095.00,-0.0005
2094.00,-0.0005
2093.00,-0.0005
2092.00,-0.0004
2091.00,-0.0003
2090.00,-0.0002
2089.00,-0.0000
2088.00,0.0001
2087.00,0.0002
2086.00,0.0002
2085.00,0.0003
2084.00,0.0004
2083.00,0.0004
2082.00,0.0004
2081.00,0.0004
2080.00,0.0005
2079.00,0.0005
2078.00,0.0004
2077.00,0.0003
2076.00,0.0003
2075.00,0.0003
2074.00,0.0003
2073.00,0.0004
2072.00,0.0004
2071.00,0.0004
2070.00,0.0004
2069.00,0.0003
2068.00,0.0001
2067.00,-0.0001
2066.00,-0.0003
2065.00,-0.0002
2064.00,-0.0001
2063.00,-0.0000
2062.00,0.0000
2061.00,0.0000
2060.00,-0.0000
2059.00,-0.0000
2058.00,0.0000
2057.00,0.0001
2056.00,0.0000
2055.00,-0.0001
2054.00,-0.0000
2053.00,0.0004
2052.00,0.0010
2051.00,0.0014
2050.00,0.0013
2049.00,0.0010
2048.00,0.0006
2047.00,0.0003
2046.00,0.0001
2045.00,-0.0000
2044.00,-0.0000
2043.00,0.0000
2042.00,0.0002
2041.00,0.0005
2040.00,0.0007
2039.00,0.0008
2038.00,0.0007
2037.00,0.0003
2036.00,-0.0002
2035.00,-0.0006
2034.00,-0.0009
2033.00,-0.0008
2032.00,-0.0005
2031.00,-0.0003
2030.00,-0.0002
2029.00,-0.0001
2028.00,-0.0001
2027.00,-0.0001
2026.00,-0.0002
2025.00,-0.0004
2024.00,-0.0006
2023.00,-0.0006
2022.00,-0.0006
2021.00,-0.0007
2020.00,-0.0008
2019.00,-0.0010
2018.00,-0.0011
2017.00,-0.0011
2016.00,-0.0010
2015.00,-0.0009
2014.00,-0.0008
2013.00,-0.0006
2012.00,-0.0004
2011.00,-0.0004
2010.00,-0.0005
2009.00,-0.0008
2008.00,-0.0010
2007.00,-0.0013
2006.00,-0.0015
2005.00,-0.0015
2004.00,-0.0015
2003.00,-0.0014
2002.00,-0.0013
2001.00,-0.0013
2000.00,-0.0015
1999.00,-0.0017
1998.00,-0.0018
1997.00,-0.0016
1996.00,-0.0013
1995.00,-0.0010
1994.00,-0.0009
1993.00,-0.0007
1992.00,-0.0005
1991.00,-0.0004
1990.00,-0.0003
1989.00,-0.0002
1988.00,-0.0000
1987.00,0.0001
1986.00,0.0001
1985.00,0.0001
1984.00,0.0003
1983.00,0.0006
1982.00,0.0010
1981.00,0.0012
1980.00,0.0011
1979.00,0.0006
1978.00,-0.0001
1977.00,-0.0007
1976.00,-0.0010
1975.00,-0.0012
1974.00,-0.0014
1973.00,-0.0015
1972.00,-0.0016
1971.00,-0.0016
1970.00,-0.0014
1969.00,-0.0011
1968.00,-0.0008
1967.00,-0.0007
1966.00,-0.0008
1965.00,-0.0010
1964.00,-0.0011
1963.00,-0.0011
1962.00,-0.0011
1961.00,-0.0013
1960.00,-0.0016
1959.00,-0.0019
1958.00,-0.0021
1957.00,-0.0021
1956.00,-0.0019
1955.00,-0.0017
1954.00,-0.0015
1953.00,-0.0013
1952.00,-0.0011
1951.00,-0.0012
1950.00,-0.0012
1949.00,-0.0013
1948.00,-0.0012
1947.00,-0.0012
1946.00,-0.0012
1945.00,-0.0011
1944.00,-0.0011
1943.00,-0.0010
1942.00,-0.0010
1941.00,-0.0010
1940.00,-0.0011
1939.00,-0.0011
1938.00,-0.0012
1937.00,-0.0012
1936.00,-0.0012
1935.00,-0.0013
1934.00,-0.0013
1933.00,-0.0012
1932.00,-0.0011
1931.00,-0.0008
1930.00,-0.0007
1929.00,-0.0006
1928.00,-0.0006
1927.00,-0.0006
1926.00,-0.0006
1925.00,-0.0007
1924.00,-0.0007
1923.00,-0.0006
1922.00,-0.0005
1921.00,-0.0004
1920.00,-0.0002
1919.00,-0.0002
1918.00,-0.0003
1917.00,-0.0004
1916.00,-0.0004
1915.00,-0.0004
1914.00,-0.0003
1913.00,-0.0003
1912.00,-0.0002
1911.00,-0.0002
1910.00,-0.0002
1909.00,-0.0002
1908.00,-0.0001
1907.00,-0.0001
1906.00,-0.0001
1905.00,-0.0002
1904.00,-0.0003
1903.00,-0.0003
1902.00,-0.0002
1901.00,-0.0001
1900.00,-0.0000
1899.00,0.0000
1898.00,0.0001
1897.00,0.0001
1896.00,0.0001
1895.00,0.0002
1894.00,0.0002
1893.00,0.0002
1892.00,0.0001
1891.00,-0.0000
1890.00,-0.0002
1889.00,-0.0003
1888.00,-0.0003
1887.00,-0.0003
1886.00,-0.0003
1885.00,-0.0003
1884.00,-0.0002
1883.00,-0.0002
1882.00,-0.0001
1881.00,-0.0001
1880.00,-0.0000
1879.00,0.0000
1878.00,0.0000
1877.00,0.0000
1876.00,0.0000
1875.00,0.0000
1874.00,0.0000
1873.00,0.0001
1872.00,0.0001
1871.00,0.0001
1870.00,0.0001
1869.00,0.0001
1868.00,0.0001
1867.00,0.0002
1866.00,0.0002
1865.00,0.0002
1864.00,0.0002
1863.00,0.0002
1862.00,0.0001
1861.00,0.0001
1860.00,0.0002
1859.00,0.0002
1858.00,0.0002
1857.00,0.0001
1856.00,0.0001
1855.00,0.0001
1854.00,0.0001
1853.00,0.0002
1852.00,0.0002
1851.00,0.0002
1850.00,0.0002
1849.00,0.0002
1848.00,0.0002
1847.00,0.0003
1846.00,0.0003
1845.00,0.0003
1844.00,0.0004
1843.00,0.0003
1842.00,0.0003
1841.00,0.0002
1840.00,0.0002
1839.00,0.0001
1838.00,0.0001
1837.00,0.0001
1836.00,0.0002
1835.00,0.0003
1834.00,0.0003
1833.00,0.0004
1832.00,0.0004
1831.00,0.0004
1830.00,0.0004
1829.00,0.0005
1828.00,0.0005
1827.00,0.0004
1826.00,0.0004
1825.00,0.0004
1824.00,0.0004
1823.00,0.0004
1822.00,0.0005
1821.00,0.0005
1820.00,0.0004
1819.00,0.0003
1818.00,0.0002
1817.00,0.0001
1816.00,0.0001
1815.00,0.0001
1814.00,0.0002
1813.00,0.0002
1812.00,0.0003
1811.00,0.0004
1810.00,0.0004
1809.00,0.0005
1808.00,0.0005
1807.00,0.0004
1806.00,0.0004
1805.00,0.0004
1804.00,0.0004
1803.00,0.0004
1802.00,0.0004
1801.00,0.0005
1800.00,0.0006
1799.00,0.0007
1798.00,0.0007
1797.00,0.0008
1796.00,0.0008
1795.00,0.0007
1794.00,0.0007
1793.00,0.0006
1792.00,0.0006
1791.00,0.0007
1790.00,0.0007
1789.00,0.0008
1788.00,0.0008
1787.00,0.0008
1786.00,0.0008
1785.00,0.0008
1784.00,0.0008
1783.00,0.0007
1782.00,0.0007
1781.00,0.0007
1780.00,0.0008
1779.00,0.0009
1778.00,0.0009
1777.00,0.0009
1776.00,0.0009
1775.00,0.0009
1774.00,0.0008
1773.00,0.0008
1772.00,0.0009
1771.00,0.0009
1770.00,0.0010
1769.00,0.0010
1768.00,0.0010
1767.00,0.0010
1766.00,0.0010
1765.00,0.0010
1764.00,0.0010
1763.00,0.0010
1762.00,0.0010
1761.00,0.0010
1760.00,0.0011
1759.00,0.0011
1758.00,0.0012
1757.00,0.0012
1756.00,0.0013
1755.00,0.0013
1754.00,0.0014
1753.00,0.0015
1752.00,0.0015
1751.00,0.0015
1750.00,0.0016
1749.00,0.0016
1748.00,0.0017
1747.00,0.0017
1746.00,0.0017
1745.00,0.0017
1744.00,0.0017
1743.00,0.0017
1742.00,0.0017
1741.00,0.0018
1740.00,0.0018
1739.00,0.0019
1738.00,0.0019
1737.00,0.0019
1736.00,0.0019
1735.00,0.0019
1734.00,0.0019
1733.00,0.0019
1732.00,0.0018
1731.00,0.0018
1730.00,0.0018
1729.00,0.0019
1728.00,0.0019
1727.00,0.0018
1726.00,0.0018
1725.00,0.0018
1724.00,0.0018
1723.00,0.0019
1722.00,0.0019
1721.00,0.0018
1720.00,0.0018
1719.00,0.0018
1718.00,0.0019
1717.00,0.0020
1716.00,0.0020
1715.00,0.0020
1714.00,0.0020
1713.00,0.0020
1712.00,0.0020
1711.00,0.0020
1710.00,0.0021
1709.00,0.0021
1708.00,0.0022
1707.00,0.0022
1706.00,0.0023
1705.00,0.0024
1704.00,0.0024
1703.00,0.0024
1702.00,0.0025
1701.00,0.0025
1700.00,0.0025
1699.00,0.0025
1698.00,0.0025
1697.00,0.0026
1696.00,0.0027
1695.00,0.0028
1694.00,0.0028
1693.00,0.0029
1692.00,0.0030
1691.00,0.0030
1690.00,0.0031
1689.00,0.0031
1688.00,0.0031
1687.00,0.0031
1686.00,0.0031
1685.00,0.0030
1684.00,0.0031
1683.00,0.0031
1682.00,0.0032
1681.00,0.0033
1680.00,0.0035
1679.00,0.0036
1678.00,0.0037
1677.00,0.0037
1676.00,0.0037
1675.00,0.0037
1674.00,0.0037
1673.00,0.0037
1672.00,0.0037
1671.00,0.0038
1670.00,0.0039
1669.00,0.0039
1668.00,0.0040
1667.00,0.0040
1666.00,0.0040
1665.00,0.0041
1664.00,0.0041
1663.00,0.0042
1662.00,0.0042
1661.00,0.0042
1660.00,0.0043
1659.00,0.0044
1658.00,0.0044
1657.00,0.0045
1656.00,0.0046
1655.00,0.0046
1654.00,0.0048
1653.00,0.0049
1652.00,0.0050
1651.00,0.0050
1650.00,0.0051
1649.00,0.0053
1648.00,0.0055
1647.00,0.0057
1646.00,0.0058
1645.00,0.0058
1644.00,0.0057
1643.00,0.0057
1642.00,0.0056
1641.00,0.0055
1640.00,0.0055
1639.00,0.0054
1638.00,0.0054
1637.00,0.0054
1636.00,0.0054
1635.00,0.0053
1634.00,0.0052
1633.00,0.0052
1632.00,0.0053
1631.00,0.0053
1630.00,0.0053
1629.00,0.0053
1628.00,0.0053
1627.00,0.0052
1626.00,0.0051
1625.00,0.0051
1624.00,0.0050
1623.00,0.0049
1622.00,0.0049
1621.00,0.0048
1620.00,0.0048
1619.00,0.0048
1618.00,0.0047
1617.00,0.0047
1616.00,0.0047
1615.00,0.0047
1614.00,0.0047
1613.00,0.0047
1612.00,0.0047
1611.00,0.0047
1610.00,0.0047
1609.00,0.0047
1608.00,0.0047
1607.00,0.0046
1606.00,0.0047
1605.00,0.0047
1604.00,0.0047
1603.00,0.0047
1602.00,0.0046
1601.00,0.0046
1600.00,0.0045
1599.00,0.0045
1598.00,0.0045
1597.00,0.0046
1596.00,0.0046
1595.00,0.0045
1594.00,0.0045
1593.00,0.0045
1592.00,0.0044
1591.00,0.0044
1590.00,0.0044
1589.00,0.0043
1588.00,0.0043
1587.00,0.0044
1586.00,0.0044
1585.00,0.0045
1584.00,0.0045
1583.00,0.0045
1582.00,0.0045
1581.00,0.0045
1580.00,0.0046
1579.00,0.0046
1578.00,0.0046
1577.00,0.0047
1576.00,0.0047
1575.00,0.0046
1574.00,0.0046
1573.00,0.0046
1572.00,0.0046
1571.00,0.0046
1570.00,0.0046
1569.00,0.0046
1568.00,0.0047
1567.00,0.0047
1566.00,0.0047
1565.00,0.0047
1564.00,0.0048
1563.00,0.0048
1562.00,0.0048
1561.00,0.0049
1560.00,0.0050
1559.00,0.0050
1558.00,0.0049
1557.00,0.0049
1556.00,0.0050
1555.00,0.0050
1554.00,0.0051
1553.00,0.0051
1552.00,0.0051
1551.00,0.0052
1550.00,0.0053
1549.00,0.0054
1548.00,0.0054
1547.00,0.0054
1546.00,0.0054
1545.00,0.0054
1544.00,0.0055
1543.00,0.0056
1542.00,0.0056
1541.00,0.0056
1540.00,0.0055
1539.00,0.0054
1538.00,0.0053
1537.00,0.0053
1536.00,0.0053
1535.00,0.0053
1534.00,0.0052
1533.00,0.0052
1532.00,0.0051
1531.00,0.0051
1530.00,0.0050
1529.00,0.0050
1528.00,0.0050
1527.00,0.0049
1526.00,0.0049
1525.00,0.0049
1524.00,0.0049
1523.00,0.0049
1522.00,0.0049
1521.00,0.0049
1520.00,0.0049
1519.00,0.0049
1518.00,0.0049
1517.00,0.0051
1516.00,0.0052
1515.00,0.0052
1514.00,0.0053
1513.00,0.0053
1512.00,0.0054
1511.00,0.0055
1510.00,0.0055
1509.00,0.0057
1508.00,0.0059
1507.00,0.0060
1506.00,0.0060
1505.00,0.0061
1504.00,0.0062
1503.00,0.0064
1502.00,0.0065
1501.00,0.0067
1500.00,0.0069
1499.00,0.0071
1498.00,0.0074
1497.00,0.0077
1496.00,0.0081
1495.00,0.0084
1494.00,0.0086
1493.00,0.0089
1492.00,0.0092
1491.00,0.0095
1490.00,0.0099
1489.00,0.0104
1488.00,0.0108
1487.00,0.0113
1486.00,0.0117
1485.00,0.0123
1484.00,0.0129
1483.00,0.0136
1482.00,0.0144
1481.00,0.0154
1480.00,0.0166
1479.00,0.0178
1478.00,0.0192
1477.00,0.0212
1476.00,0.0235
1475.00,0.0262
1474.00,0.0299
1473.00,0.0355
1472.00,0.0422
1471.00,0.0489
1470.00,0.0554
1469.00,0.0623
1468.00,0.0697
1467.00,0.0781
1466.00,0.0877
1465.00,0.0983
1464.00,0.1077
1463.00,0.1145
1462.00,0.1190
1461.00,0.1222
1460.00,0.1244
1459.00,0.1259
1458.00,0.1270
1457.00,0.1277
1456.00,0.1275
1455.00,0.1266
1454.00,0.1253
1453.00,0.1234
1452.00,0.1205
1451.00,0.1161
1450.00,0.1102
1449.00,0.1021
1448.00,0.0920
1447.00,0.0817
1446.00,0.0725
1445.00,0.0649
1444.00,0.0584
1443.00,0.0533
1442.00,0.0495
1441.00,0.0471
1440.00,0.0458
1439.00,0.0455
1438.00,0.0460
1437.00,0.0466
1436.00,0.0458
1435.00,0.0431
1434.00,0.0389
1433.00,0.0339
1432.00,0.0288
1431.00,0.0242
1430.00,0.0208
1429.00,0.0184
1428.00,0.0168
1427.00,0.0158
1426.00,0.0152
1425.00,0.0146
1424.00,0.0141
1423.00,0.0138
1422.00,0.0136
1421.00,0.0133
1420.00,0.0130
1419.00,0.0128
1418.00,0.0127
1417.00,0.0124
1416.00,0.0122
1415.00,0.0121
1414.00,0.0121
1413.00,0.0120
1412.00,0.0119
1411.00,0.0119
1410.00,0.0119
1409.00,0.0119
1408.00,0.0118
1407.00,0.0119
1406.00,0.0120
1405.00,0.0121
1404.00,0.0122
1403.00,0.0124
1402.00,0.0126
1401.00,0.0128
1400.00,0.0130
1399.00,0.0133
1398.00,0.0136
1397.00,0.0139
1396.00,0.0142
1395.00,0.0147
1394.00,0.0154
1393.00,0.0160
1392.00,0.0167
1391.00,0.0176
1390.00,0.0189
1389.00,0.0206
1388.00,0.0234
1387.00,0.0274
1386.00,0.0328
1385.00,0.0396
1384.00,0.0484
1383.00,0.0605
1382.00,0.0764
1381.00,0.0971
1380.00,0.1232
1379.00,0.1540
1378.00,0.1853
1377.00,0.2102
1376.00,0.2213
1375.00,0.2135
1374.00,0.1886
1373.00,0.1563
1372.00,0.1258
1371.00,0.1002
1370.00,0.0797
1369.00,0.0642
1368.00,0.0534
1367.00,0.0468
1366.00,0.0432
1365.00,0.0418
1364.00,0.0421
1363.00,0.0438
1362.00,0.0464
1361.00,0.0492
1360.00,0.0513
1359.00,0.0519
1358.00,0.0505
1357.00,0.0473
1356.00,0.0429
1355.00,0.0378
1354.00,0.0330
1353.00,0.0288
1352.00,0.0254
1351.00,0.0228
1350.00,0.0206
1349.00,0.0189
1348.00,0.0176
1347.00,0.0165
1346.00,0.0157
1345.00,0.0150
1344.00,0.0144
1343.00,0.0140
1342.00,0.0136
1341.00,0.0133
1340.00,0.0131
1339.00,0.0128
1338.00,0.0127
1337.00,0.0126
1336.00,0.0126
1335.00,0.0129
1334.00,0.0132
1333.00,0.0137
1332.00,0.0143
1331.00,0.0147
1330.00,0.0149
1329.00,0.0147
1328.00,0.0142
1327.00,0.0135
1326.00,0.0128
1325.00,0.0120
1324.00,0.0114
1323.00,0.0108
1322.00,0.0103
1321.00,0.0099
1320.00,0.0096
1319.00,0.0092
1318.00,0.0089
1317.00,0.0087
1316.00,0.0085
1315.00,0.0085
1314.00,0.0084
1313.00,0.0084
1312.00,0.0085
1311.00,0.0086
1310.00,0.0090
1309.00,0.0095
1308.00,0.0102
1307.00,0.0111
1306.00,0.0119
1305.00,0.0126
1304.00,0.0129
1303.00,0.0129
1302.00,0.0127
1301.00,0.0126
1300.00,0.0126
1299.00,0.0129
1298.00,0.0131
1297.00,0.0133
1296.00,0.0133
1295.00,0.0130
1294.00,0.0126
1293.00,0.0120
1292.00,0.0113
1291.00,0.0108
1290.00,0.0103
1289.00,0.0098
1288.00,0.0095
1287.00,0.0091
1286.00,0.0088
1285.00,0.0085
1284.00,0.0082
1283.00,0.0081
1282.00,0.0080
1281.00,0.0080
1280.00,0.0079
1279.00,0.0078
1278.00,0.0078
1277.00,0.0077
1276.00,0.0077
1275.00,0.0077
1274.00,0.0078
1273.00,0.0078
1272.00,0.0078
1271.00,0.0078
1270.00,0.0078
1269.00,0.0080
1268.00,0.0081
1267.00,0.0083
1266.00,0.0085
1265.00,0.0086
1264.00,0.0089
1263.00,0.0092
1262.00,0.0096
1261.00,0.0100
1260.00,0.0105
1259.00,0.0111
1258.00,0.0117
1257.00,0.0122
1256.00,0.0125
1255.00,0.0124
1254.00,0.0120
1253.00,0.0114
1252.00,0.0109
1251.00,0.0104
1250.00,0.0100
1249.00,0.0097
1248.00,0.0095
1247.00,0.0093
1246.00,0.0092
1245.00,0.0090
1244.00,0.0090
1243.00,0.0089
1242.00,0.0089
1241.00,0.0088
1240.00,0.0087
1239.00,0.0086
1238.00,0.0085
1237.00,0.0085
1236.00,0.0084
1235.00,0.0084
1234.00,0.0083
1233.00,0.0082
1232.00,0.0081
1231.00,0.0081
1230.00,0.0080
1229.00,0.0081
1228.00,0.0082
1227.00,0.0083
1226.00,0.0085
1225.00,0.0087
1224.00,0.0090
1223.00,0.0094
1222.00,0.0097
1221.00,0.0100
1220.00,0.0102
1219.00,0.0103
1218.00,0.0102
1217.00,0.0100
1216.00,0.0097
1215.00,0.0094
1214.00,0.0090
1213.00,0.0087
1212.00,0.0084
1211.00,0.0081
1210.00,0.0079
1209.00,0.0076
1208.00,0.0075
1207.00,0.0073
1206.00,0.0072
1205.00,0.0071
1204.00,0.0070
1203.00,0.0069
1202.00,0.0068
1201.00,0.0068
1200.00,0.0068
1199.00,0.0068
1198.00,0.0068
1197.00,0.0069
1196.00,0.0069
1195.00,0.0069
1194.00,0.0069
1193.00,0.0069
1192.00,0.0069
1191.00,0.0070
1190.00,0.0070
1189.00,0.0070
1188.00,0.0070
1187.00,0.0071
1186.00,0.0071
1185.00,0.0072
1184.00,0.0073
1183.00,0.0075
1182.00,0.0077
1181.00,0.0080
1180.00,0.0083
1179.00,0.0088
1178.00,0.0094
1177.00,0.0101
1176.00,0.0111
1175.00,0.0124
1174.00,0.0142
1173.00,0.0163
1172.00,0.0188
1171.00,0.0214
1170.00,0.0239
1169.00,0.0259
1168.00,0.0271
1167.00,0.0275
1166.00,0.0272
1165.00,0.0263
1164.00,0.0252
1163.00,0.0240
1162.00,0.0231
1161.00,0.0223
1160.00,0.0217
1159.00,0.0212
1158.00,0.0209
1157.00,0.0207
1156.00,0.0206
1155.00,0.0206
1154.00,0.0206
1153.00,0.0204
1152.00,0.0200
1151.00,0.0194
1150.00,0.0185
1149.00,0.0175
1148.00,0.0165
1147.00,0.0156
1146.00,0.0148
1145.00,0.0140
1144.00,0.0133
1143.00,0.0127
1142.00,0.0121
1141.00,0.0115
1140.00,0.0110
1139.00,0.0106
1138.00,0.0102
1137.00,0.0099
1136.00,0.0095
1135.00,0.0093
1134.00,0.0090
1133.00,0.0088
1132.00,0.0087
1131.00,0.0087
1130.00,0.0087
1129.00,0.0087
1128.00,0.0088
1127.00,0.0089
1126.00,0.0089
1125.00,0.0089
1124.00,0.0088
1123.00,0.0087
1122.00,0.0087
1121.00,0.0088
1120.00,0.0088
1119.00,0.0089
1118.00,0.0089
1117.00,0.0090
1116.00,0.0092
1115.00,0.0093
1114.00,0.0095
1113.00,0.0096
1112.00,0.0098
1111.00,0.0101
1110.00,0.0106
1109.00,0.0112
1108.00,0.0119
1107.00,0.0127
1106.00,0.0135
1105.00,0.0143
1104.00,0.0149
1103.00,0.0152
1102.00,0.0153
1101.00,0.0150
1100.00,0.0144
1099.00,0.0137
1098.00,0.0129
1097.00,0.0122
1096.00,0.0116
1095.00,0.0112
1094.00,0.0108
1093.00,0.0105
1092.00,0.0102
1091.00,0.0100
1090.00,0.0098
1089.00,0.0097
1088.00,0.0096
1087.00,0.0095
1086.00,0.0095
1085.00,0.0095
1084.00,0.0095
1083.00,0.0094
1082.00,0.0093
1081.00,0.0091
1080.00,0.0089
1079.00,0.0088
1078.00,0.0087
1077.00,0.0086
1076.00,0.0085
1075.00,0.0085
1074.00,0.0085
1073.00,0.0086
1072.00,0.0086
1071.00,0.0086
1070.00,0.0086
1069.00,0.0085
1068.00,0.0085
1067.00,0.0085
1066.00,0.0085
1065.00,0.0085
1064.00,0.0085
1063.00,0.0084
1062.00,0.0083
1061.00,0.0082
1060.00,0.0082
1059.00,0.0081
1058.00,0.0082
1057.00,0.0083
1056.00,0.0083
1055.00,0.0083
1054.00,0.0083
1053.00,0.0083
1052.00,0.0084
1051.00,0.0085
1050.00,0.0087
1049.00,0.0089
1048.00,0.0091
1047.00,0.0092
1046.00,0.0093
1045.00,0.0093
1044.00,0.0092
1043.00,0.0091
1042.00,0.0090
1041.00,0.0090
1040.00,0.0090
1039.00,0.0091
1038.00,0.0091
1037.00,0.0090
1036.00,0.0090
1035.00,0.0090
1034.00,0.0089
1033.00,0.0089
1032.00,0.0089
1031.00,0.0088
1030.00,0.0088
1029.00,0.0087
1028.00,0.0086
1027.00,0.0085
1026.00,0.0084
1025.00,0.0083
1024.00,0.0084
1023.00,0.0084
1022.00,0.0085
1021.00,0.0086
1020.00,0.0087
1019.00,0.0088
1018.00,0.0089
1017.00,0.0090
1016.00,0.0091
1015.00,0.0092
1014.00,0.0094
1013.00,0.0097
1012.00,0.0099
1011.00,0.0102
1010.00,0.0105
1009.00,0.0108
1008.00,0.0112
1007.00,0.0117
1006.00,0.0124
1005.00,0.0134
1004.00,0.0148
1003.00,0.0166
1002.00,0.0188
1001.00,0.0214
1000.00,0.0240
999.00,0.0260
998.00,0.0269
997.00,0.0262
996.00,0.0241
995.00,0.0212
994.00,0.0182
993.00,0.0156
992.00,0.0136
991.00,0.0121
990.00,0.0112
989.00,0.0105
988.00,0.0101
987.00,0.0099
986.00,0.0099
985.00,0.0101
984.00,0.0105
983.00,0.0112
982.00,0.0122
981.00,0.0137
980.00,0.0157
979.00,0.0183
978.00,0.0215
977.00,0.0252
976.00,0.0291
975.00,0.0325
974.00,0.0349
973.00,0.0355
972.00,0.0341
971.00,0.0310
970.00,0.0271
969.00,0.0231
968.00,0.0197
967.00,0.0171
966.00,0.0152
965.00,0.0138
964.00,0.0126
963.00,0.0118
962.00,0.0111
961.00,0.0107
960.00,0.0103
959.00,0.0101
958.00,0.0098
957.00,0.0096
956.00,0.0095
955.00,0.0094
954.00,0.0093
953.00,0.0092
952.00,0.0091
951.00,0.0090
950.00,0.0089
949.00,0.0089
948.00,0.0089
947.00,0.0091
946.00,0.0093
945.00,0.0097
944.00,0.0101
943.00,0.0106
942.00,0.0109
941.00,0.0110
940.00,0.0109
939.00,0.0105
938.00,0.0099
937.00,0.0091
936.00,0.0085
935.00,0.0080
934.00,0.0077
933.00,0.0074
932.00,0.0071
931.00,0.0068
930.00,0.0065
929.00,0.0064
928.00,0.0064
927.00,0.0064
926.00,0.0064
925.00,0.0065
924.00,0.0066
923.00,0.0066
922.00,0.0067
921.00,0.0067
920.00,0.0067
919.00,0.0068
918.00,0.0069
917.00,0.0071
916.00,0.0072
915.00,0.0073
914.00,0.0072
913.00,0.0072
912.00,0.0072
911.00,0.0073
910.00,0.0074
909.00,0.0077
908.00,0.0081
907.00,0.0086
906.00,0.0095
905.00,0.0108
904.00,0.0125
903.00,0.0146
902.00,0.0170
901.00,0.0191
900.00,0.0205
899.00,0.0208
898.00,0.0199
897.00,0.0181
896.00,0.0158
895.00,0.0136
894.00,0.0117
893.00,0.0104
892.00,0.0094
891.00,0.0087
890.00,0.0082
889.00,0.0078
888.00,0.0076
887.00,0.0073
886.00,0.0072
885.00,0.0070
884.00,0.0069
883.00,0.0069
882.00,0.0070
881.00,0.0071
880.00,0.0071
879.00,0.0071
878.00,0.0071
877.00,0.0070
876.00,0.0070
875.00,0.0070
874.00,0.0070
873.00,0.0071
872.00,0.0071
871.00,0.0071
870.00,0.0071
869.00,0.0071
868.00,0.0071
867.00,0.0072
866.00,0.0073
865.00,0.0074
864.00,0.0076
863.00,0.0077
862.00,0.0078
861.00,0.0079
860.00,0.0080
859.00,0.0082
858.00,0.0083
857.00,0.0085
856.00,0.0086
855.00,0.0086
854.00,0.0086
853.00,0.0086
852.00,0.0087
851.00,0.0090
850.00,0.0095
849.00,0.0102
848.00,0.0111
847.00,0.0122
846.00,0.0138
845.00,0.0161
844.00,0.0191
843.00,0.0222
842.00,0.0245
841.00,0.0248
840.00,0.0232
839.00,0.0203
838.00,0.0173
837.00,0.0150
836.00,0.0135
835.00,0.0125
834.00,0.0119
833.00,0.0115
832.00,0.0111
831.00,0.0108
830.00,0.0106
829.00,0.0103
828.00,0.0101
827.00,0.0100
826.00,0.0100
825.00,0.0100
824.00,0.0100
823.00,0.0100
822.00,0.0102
821.00,0.0105
820.00,0.0109
819.00,0.0112
818.00,0.0117
817.00,0.0122
816.00,0.0130
815.00,0.0142
814.00,0.0159
813.00,0.0179
812.00,0.0199
811.00,0.0218
810.00,0.0231
809.00,0.0239
808.00,0.0237
807.00,0.0227
806.00,0.0210
805.00,0.0191
804.00,0.0171
803.00,0.0153
802.00,0.0138
801.00,0.0126
800.00,0.0117
799.00,0.0110
798.00,0.0105
797.00,0.0101
796.00,0.0097
795.00,0.0093
794.00,0.0090
793.00,0.0088
792.00,0.0086
791.00,0.0085
790.00,0.0083
789.00,0.0081
788.00,0.0078
787.00,0.0074
786.00,0.0070
785.00,0.0068
784.00,0.0067
783.00,0.0066
782.00,0.0065
781.00,0.0063
780.00,0.0061
779.00,0.0060
778.00,0.0060
777.00,0.0061
776.00,0.0062
775.00,0.0063
774.00,0.0064
773.00,0.0066
772.00,0.0068
771.00,0.0071
770.00,0.0074
769.00,0.0075
768.00,0.0074
767.00,0.0072
766.00,0.0071
765.00,0.0070
764.00,0.0069
763.00,0.0068
762.00,0.0067
761.00,0.0064
760.00,0.0061
759.00,0.0058
758.00,0.0057
757.00,0.0056
756.00,0.0055
755.00,0.0053
754.00,0.0052
753.00,0.0050
752.00,0.0050
751.00,0.0051
750.00,0.0052
749.00,0.0052
748.00,0.0053
747.00,0.0053
746.00,0.0053
745.00,0.0053
744.00,0.0053
743.00,0.0053
742.00,0.0054
741.00,0.0056
740.00,0.0057
739.00,0.0059
738.00,0.0061
737.00,0.0063
736.00,0.0063
735.00,0.0063
734.00,0.0062
733.00,0.0063
732.00,0.0063
731.00,0.0064
730.00,0.0065
729.00,0.0064
728.00,0.0063
727.00,0.0063
726.00,0.0063
725.00,0.0062
724.00,0.0061
723.00,0.0060
722.00,0.0058
721.00,0.0056
720.00,0.0055
719.00,0.0056
718.00,0.0057
717.00,0.0058
716.00,0.0058
715.00,0.0058
714.00,0.0058
713.00,0.0056
712.00,0.0054
711.00,0.0053
710.00,0.0051
709.00,0.0049
708.00,0.0048
707.00,0.0049
706.00,0.0050
705.00,0.0051
704.00,0.0052
703.00,0.0052
702.00,0.0052
701.00,0.0052
700.00,0.0051
699.00,0.0052
698.00,0.0053
697.00,0.0053
696.00,0.0053
695.00,0.0052
694.00,0.0051
693.00,0.0049
692.00,0.0048
691.00,0.0048
690.00,0.0050
689.00,0.0051
688.00,0.0052
687.00,0.0052
686.00,0.0052
685.00,0.0051
684.00,0.0051
683.00,0.0050
682.00,0.0051
681.00,0.0052
680.00,0.0053
679.00,0.0053
678.00,0.0053
677.00,0.0051
676.00,0.0049
675.00,0.0047
674.00,0.0046
673.00,0.0046
672.00,0.0048
671.00,0.0049
670.00,0.0051
669.00,0.0052
668.00,0.0052
667.00,0.0053
666.00,0.0052
665.00,0.0052
664.00,0.0051
663.00,0.0051
662.00,0.0051
661.00,0.0052
660.00,0.0053
659.00,0.0052
658.00,0.0051
657.00,0.0050
656.00,0.0051
655.00,0.0053
654.00,0.0054
653.00,0.0053
652.00,0.0052
651.00,0.0050
650.00,0.0050
649.00,0.0049
648.00,0.0049
647.00,0.0049
646.00,0.0051
645.00,0.0052
644.00,0.0052
643.00,0.0051
642.00,0.0050
641.00,0.0049
640.00,0.0050
639.00,0.0052
638.00,0.0055
637.00,0.0057
636.00,0.0058
635.00,0.0058
634.00,0.0058
633.00,0.0058
632.00,0.0058
631.00,0.0058
630.00,0.0058
629.00,0.0057
628.00,0.0055
627.00,0.0053
626.00,0.0051
625.00,0.0051
624.00,0.0052
623.00,0.0054
622.00,0.0056
621.00,0.0055
620.00,0.0052
619.00,0.0048
618.00,0.0047
617.00,0.0048
616.00,0.0050
615.00,0.0051
614.00,0.0052
613.00,0.0053
612.00,0.0055
611.00,0.0056
610.00,0.0056
609.00,0.0056
608.00,0.0055
607.00,0.0054
606.00,0.0054
605.00,0.0052
604.00,0.0052
603.00,0.0052
602.00,0.0054
601.00,0.0057
600.00,0.0057
599.00,0.0056
598.00,0.0055
597.00,0.0056
596.00,0.0058
595.00,0.0060
594.00,0.0060
593.00,0.0060
592.00,0.0061
591.00,0.0062
590.00,0.0063
589.00,0.0062
588.00,0.0058
587.00,0.0054
586.00,0.0052
585.00,0.0052
584.00,0.0054
583.00,0.0056
582.00,0.0058
581.00,0.0061
580.00,0.0063
579.00,0.0064
578.00,0.0065
577.00,0.0063
576.00,0.0060
575.00,0.0057
574.00,0.0055
573.00,0.0053
572.00,0.0052
571.00,0.0050
570.00,0.0050
569.00,0.0051
568.00,0.0052
567.00,0.0053
566.00,0.0052
565.00,0.0053
564.00,0.0053
563.00,0.0055
562.00,0.0056
561.00,0.0057
560.00,0.0059
559.00,0.0060
558.00,0.0060
557.00,0.0058
556.00,0.0055
555.00,0.0053
554.00,0.0052
553.00,0.0053
552.00,0.0056
551.00,0.0061
550.00,0.0067
549.00,0.0071
548.00,0.0072
547.00,0.0068
546.00,0.0061
545.00,0.0055
544.00,0.0052
543.00,0.0052
542.00,0.0056
541.00,0.0060
540.00,0.0062
539.00,0.0062
538.00,0.0062
537.00,0.0062
536.00,0.0065
535.00,0.0067
534.00,0.0068
533.00,0.0068
532.00,0.0067
531.00,0.0068
530.00,0.0071
529.00,0.0075
528.00,0.0078
527.00,0.0080
526.00,0.0081
525.00,0.0080
524.00,0.0078
523.00,0.0077
522.00,0.0076
521.00,0.0076
520.00,0.0076
519.00,0.0077
518.00,0.0077
517.00,0.0078
516.00,0.0080
515.00,0.0080
514.00,0.0078
513.00,0.0072
512.00,0.0061
511.00,0.0049
510.00,0.0043
509.00,0.0046
508.00,0.0055
507.00,0.0062
506.00,0.0061
505.00,0.0055
504.00,0.0049
503.00,0.0047
502.00,0.0047
501.00,0.0046
500.00,0.0042
499.00,0.0040
498.00,0.0041
497.00,0.0043
496.00,0.0047
495.00,0.0052
494.00,0.0059
493.00,0.0066
492.00,0.0070
491.00,0.0066
490.00,0.0057
489.00,0.0048
488.00,0.0045
487.00,0.0048
486.00,0.0051
485.00,0.0051
484.00,0.0050
483.00,0.0053
482.00,0.0058
481.00,0.0060
480.00,0.0060
479.00,0.0060
478.00,0.0064
477.00,0.0069
476.00,0.0073
475.00,0.0075
474.00,0.0074
473.00,0.0071
472.00,0.0070
471.00,0.0074
470.00,0.0082
469.00,0.0088
468.00,0.0088
467.00,0.0088
466.00,0.0093
465.00,0.0104
464.00,0.0118
463.00,0.0136
462.00,0.0158
461.00,0.0181
460.00,0.0196
459.00,0.0193
458.00,0.0170
457.00,0.0137
456.00,0.0111
455.00,0.0099
454.00,0.0099
453.00,0.0101
452.00,0.0102
451.00,0.0100
450.00,0.0099
