Created as New Dataset,Sample 168 By Administrator Date Tuesday, September 09 2025
cm-1,A
4000.00,0.0010
3999.00,0.0010
3998.00,0.0010
3997.00,0.0010
3996.00,0.0010
3995.00,0.0010
3994.00,0.0010
3993.00,0.0010
3992.00,0.0010
3991.00,0.0010
3990.00,0.0010
3989.00,0.0011
3988.00,0.0011
3987.00,0.0011
3986.00,0.0010
3985.00,0.0010
3984.00,0.0010
3983.00,0.0010
3982.00,0.0009
3981.00,0.0009
3980.00,0.0009
3979.00,0.0009
3978.00,0.0009
3977.00,0.0009
3976.00,0.0009
3975.00,0.0009
3974.00,0.0009
3973.00,0.0009
3972.00,0.0008
3971.00,0.0008
3970.00,0.0008
3969.00,0.0008
3968.00,0.0008
3967.00,0.0008
3966.00,0.0008
3965.00,0.0008
3964.00,0.0008
3963.00,0.0008
3962.00,0.0008
3961.00,0.0009
3960.00,0.0009
3959.00,0.0009
3958.00,0.0009
3957.00,0.0009
3956.00,0.0009
3955.00,0.0008
3954.00,0.0008
3953.00,0.0008
3952.00,0.0008
3951.00,0.0008
3950.00,0.0009
3949.00,0.0009
3948.00,0.0009
3947.00,0.0009
3946.00,0.0009
3945.00,0.0009
3944.00,0.0009
3943.00,0.0009
3942.00,0.0009
3941.00,0.0009
3940.00,0.0008
3939.00,0.0008
3938.00,0.0008
3937.00,0.0008
3936.00,0.0008
3935.00,0.0009
3934.00,0.0009
3933.00,0.0009
3932.00,0.0009
3931.00,0.0009
3930.00,0.0009
3929.00,0.0009
3928.00,0.0009
3927.00,0.0009
3926.00,0.0009
3925.00,0.0009
3924.00,0.0009
3923.00,0.0010
3922.00,0.0010
3921.00,0.0009
3920.00,0.0009
3919.00,0.0009
3918.00,0.0008
3917.00,0.0008
3916.00,0.0008
3915.00,0.0008
3914.00,0.0008
3913.00,0.0009
3912.00,0.0009
3911.00,0.0009
3910.00,0.0009
3909.00,0.0008
3908.00,0.0008
3907.00,0.0009
3906.00,0.0009
3905.00,0.0010
3904.00,0.0010
3903.00,0.0010
3902.00,0.0010
3901.00,0.0009
3900.00,0.0008
3899.00,0.0008
3898.00,0.0008
3897.00,0.0008
3896.00,0.0009
3895.00,0.0009
3894.00,0.0009
3893.00,0.0009
3892.00,0.0009
3891.00,0.0008
3890.00,0.0008
3889.00,0.0008
3888.00,0.0008
3887.00,0.0008
3886.00,0.0009
3885.00,0.0009
3884.00,0.0009
3883.00,0.0008
3882.00,0.0008
3881.00,0.0008
3880.00,0.0008
3879.00,0.0008
3878.00,0.0008
3877.00,0.0007
3876.00,0.0007
3875.00,0.0007
3874.00,0.0007
3873.00,0.0007
3872.00,0.0007
3871.00,0.0007
3870.00,0.0007
3869.00,0.0007
3868.00,0.0007
3867.00,0.0007
3866.00,0.0007
3865.00,0.0007
3864.00,0.0008
3863.00,0.0008
3862.00,0.0008
3861.00,0.0007
3860.00,0.0007
3859.00,0.0007
3858.00,0.0007
3857.00,0.0006
3856.00,0.0006
3855.00,0.0006
3854.00,0.0006
3853.00,0.0006
3852.00,0.0005
3851.00,0.0006
3850.00,0.0006
3849.00,0.0007
3848.00,0.0007
3847.00,0.0007
3846.00,0.0007
3845.00,0.0007
3844.00,0.0007
3843.00,0.0007
3842.00,0.0007
3841.00,0.0007
3840.00,0.0007
3839.00,0.0007
3838.00,0.0007
3837.00,0.0007
3836.00,0.0007
3835.00,0.0007
3834.00,0.0007
3833.00,0.0007
3832.00,0.0007
3831.00,0.0007
3830.00,0.0007
3829.00,0.0007
3828.00,0.0007
3827.00,0.0007
3826.00,0.0007
3825.00,0.0007
3824.00,0.0007
3823.00,0.0007
3822.00,0.0006
3821.00,0.0006
3820.00,0.0007
3819.00,0.0007
3818.00,0.0007
3817.00,0.0007
3816.00,0.0008
3815.00,0.0008
3814.00,0.0007
3813.00,0.0007
3812.00,0.0007
3811.00,0.0007
3810.00,0.0008
3809.00,0.0007
3808.00,0.0007
3807.00,0.0007
3806.00,0.0007
3805.00,0.0007
3804.00,0.0006
3803.00,0.0006
3802.00,0.0006
3801.00,0.0006
3800.00,0.0006
3799.00,0.0006
3798.00,0.0006
3797.00,0.0006
3796.00,0.0007
3795.00,0.0007
3794.00,0.0007
3793.00,0.0007
3792.00,0.0007
3791.00,0.0008
3790.00,0.0008
3789.00,0.0008
3788.00,0.0008
3787.00,0.0008
3786.00,0.0007
3785.00,0.0007
3784.00,0.0008
3783.00,0.0008
3782.00,0.0008
3781.00,0.0008
3780.00,0.0008
3779.00,0.0008
3778.00,0.0008
3777.00,0.0008
3776.00,0.0008
3775.00,0.0008
3774.00,0.0008
3773.00,0.0009
3772.00,0.0009
3771.00,0.0009
3770.00,0.0009
3769.00,0.0009
3768.00,0.0008
3767.00,0.0008
3766.00,0.0008
3765.00,0.0008
3764.00,0.0008
3763.00,0.0008
3762.00,0.0008
3761.00,0.0008
3760.00,0.0008
3759.00,0.0008
3758.00,0.0008
3757.00,0.0008
3756.00,0.0008
3755.00,0.0008
3754.00,0.0007
3753.00,0.0007
3752.00,0.0007
3751.00,0.0007
3750.00,0.0007
3749.00,0.0007
3748.00,0.0007
3747.00,0.0007
3746.00,0.0007
3745.00,0.0008
3744.00,0.0008
3743.00,0.0007
3742.00,0.0007
3741.00,0.0007
3740.00,0.0008
3739.00,0.0008
3738.00,0.0008
3737.00,0.0007
3736.00,0.0007
3735.00,0.0007
3734.00,0.0007
3733.00,0.0007
3732.00,0.0007
3731.00,0.0007
3730.00,0.0007
3729.00,0.0007
3728.00,0.0007
3727.00,0.0007
3726.00,0.0006
3725.00,0.0006
3724.00,0.0006
3723.00,0.0005
3722.00,0.0006
3721.00,0.0006
3720.00,0.0006
3719.00,0.0007
3718.00,0.0007
3717.00,0.0007
3716.00,0.0007
3715.00,0.0007
3714.00,0.0006
3713.00,0.0005
3712.00,0.0005
3711.00,0.0004
3710.00,0.0005
3709.00,0.0005
3708.00,0.0005
3707.00,0.0006
3706.00,0.0006
3705.00,0.0006
3704.00,0.0006
3703.00,0.0006
3702.00,0.0006
3701.00,0.0006
3700.00,0.0006
3699.00,0.0006
3698.00,0.0006
3697.00,0.0006
3696.00,0.0007
3695.00,0.0007
3694.00,0.0006
3693.00,0.0006
3692.00,0.0005
3691.00,0.0006
3690.00,0.0006
3689.00,0.0007
3688.00,0.0007
3687.00,0.0006
3686.00,0.0006
3685.00,0.0006
3684.00,0.0006
3683.00,0.0006
3682.00,0.0007
3681.00,0.0007
3680.00,0.0008
3679.00,0.0008
3678.00,0.0008
3677.00,0.0008
3676.00,0.0008
3675.00,0.0008
3674.00,0.0007
3673.00,0.0006
3672.00,0.0006
3671.00,0.0006
3670.00,0.0007
3669.00,0.0008
3668.00,0.0009
3667.00,0.0009
3666.00,0.0010
3665.00,0.0010
3664.00,0.0010
3663.00,0.0010
3662.00,0.0009
3661.00,0.0009
3660.00,0.0009
3659.00,0.0009
3658.00,0.0009
3657.00,0.0009
3656.00,0.0009
3655.00,0.0009
3654.00,0.0009
3653.00,0.0009
3652.00,0.0009
3651.00,0.0010
3650.00,0.0010
3649.00,0.0010
3648.00,0.0010
3647.00,0.0010
3646.00,0.0010
3645.00,0.0010
3644.00,0.0010
3643.00,0.0011
3642.00,0.0011
3641.00,0.0010
3640.00,0.0010
3639.00,0.0010
3638.00,0.0010
3637.00,0.0011
3636.00,0.0011
3635.00,0.0011
3634.00,0.0012
3633.00,0.0012
3632.00,0.0012
3631.00,0.0011
3630.00,0.0011
3629.00,0.0011
3628.00,0.0011
3627.00,0.0011
3626.00,0.0011
3625.00,0.0011
3624.00,0.0011
3623.00,0.0011
3622.00,0.0011
3621.00,0.0011
3620.00,0.0012
3619.00,0.0012
3618.00,0.0013
3617.00,0.0013
3616.00,0.0013
3615.00,0.0014
3614.00,0.0014
3613.00,0.0015
3612.00,0.0015
3611.00,0.0015
3610.00,0.0015
3609.00,0.0015
3608.00,0.0015
3607.00,0.0015
3606.00,0.0015
3605.00,0.0015
3604.00,0.0015
3603.00,0.0016
3602.00,0.0016
3601.00,0.0016
3600.00,0.0017
3599.00,0.0017
3598.00,0.0017
3597.00,0.0017
3596.00,0.0018
3595.00,0.0018
3594.00,0.0018
3593.00,0.0019
3592.00,0.0019
3591.00,0.0019
3590.00,0.0020
3589.00,0.0020
3588.00,0.0020
3587.00,0.0020
3586.00,0.0020
3585.00,0.0020
3584.00,0.0020
3583.00,0.0020
3582.00,0.0020
3581.00,0.0021
3580.00,0.0022
3579.00,0.0022
3578.00,0.0023
3577.00,0.0023
3576.00,0.0023
3575.00,0.0023
3574.00,0.0024
3573.00,0.0024
3572.00,0.0025
3571.00,0.0026
3570.00,0.0026
3569.00,0.0027
3568.00,0.0027
3567.00,0.0027
3566.00,0.0027
3565.00,0.0028
3564.00,0.0028
3563.00,0.0028
3562.00,0.0029
3561.00,0.0030
3560.00,0.0030
3559.00,0.0030
3558.00,0.0031
3557.00,0.0031
3556.00,0.0031
3555.00,0.0031
3554.00,0.0031
3553.00,0.0032
3552.00,0.0033
3551.00,0.0033
3550.00,0.0034
3549.00,0.0034
3548.00,0.0035
3547.00,0.0035
3546.00,0.0035
3545.00,0.0035
3544.00,0.0035
3543.00,0.0036
3542.00,0.0036
3541.00,0.0037
3540.00,0.0037
3539.00,0.0038
3538.00,0.0039
3537.00,0.0039
3536.00,0.0040
3535.00,0.0040
3534.00,0.0040
3533.00,0.0041
3532.00,0.0041
3531.00,0.0041
3530.00,0.0042
3529.00,0.0042
3528.00,0.0043
3527.00,0.0043
3526.00,0.0043
3525.00,0.0044
3524.00,0.0045
3523.00,0.0045
3522.00,0.0046
3521.00,0.0046
3520.00,0.0047
3519.00,0.0047
3518.00,0.0048
3517.00,0.0048
3516.00,0.0049
3515.00,0.0050
3514.00,0.0050
3513.00,0.0051
3512.00,0.0051
3511.00,0.0051
3510.00,0.0052
3509.00,0.0052
3508.00,0.0053
3507.00,0.0053
3506.00,0.0053
3505.00,0.0054
3504.00,0.0054
3503.00,0.0055
3502.00,0.0055
3501.00,0.0056
3500.00,0.0056
3499.00,0.0056
3498.00,0.0056
3497.00,0.0056
3496.00,0.0057
3495.00,0.0057
3494.00,0.0058
3493.00,0.0058
3492.00,0.0058
3491.00,0.0058
3490.00,0.0059
3489.00,0.0059
3488.00,0.0060
3487.00,0.0060
3486.00,0.0061
3485.00,0.0061
3484.00,0.0061
3483.00,0.0061
3482.00,0.0062
3481.00,0.0062
3480.00,0.0063
3479.00,0.0064
3478.00,0.0064
3477.00,0.0065
3476.00,0.0066
3475.00,0.0066
3474.00,0.0066
3473.00,0.0066
3472.00,0.0067
3471.00,0.0067
3470.00,0.0067
3469.00,0.0068
3468.00,0.0069
3467.00,0.0069
3466.00,0.0070
3465.00,0.0070
3464.00,0.0071
3463.00,0.0071
3462.00,0.0072
3461.00,0.0072
3460.00,0.0072
3459.00,0.0073
3458.00,0.0073
3457.00,0.0074
3456.00,0.0074
3455.00,0.0075
3454.00,0.0075
3453.00,0.0075
3452.00,0.0076
3451.00,0.0076
3450.00,0.0076
3449.00,0.0077
3448.00,0.0077
3447.00,0.0078
3446.00,0.0079
3445.00,0.0079
3444.00,0.0080
3443.00,0.0080
3442.00,0.0080
3441.00,0.0081
3440.00,0.0081
3439.00,0.0082
3438.00,0.0083
3437.00,0.0083
3436.00,0.0084
3435.00,0.0084
3434.00,0.0085
3433.00,0.0085
3432.00,0.0086
3431.00,0.0087
3430.00,0.0087
3429.00,0.0088
3428.00,0.0089
3427.00,0.0089
3426.00,0.0090
3425.00,0.0091
3424.00,0.0091
3423.00,0.0091
3422.00,0.0091
3421.00,0.0092
3420.00,0.0092
3419.00,0.0093
3418.00,0.0093
3417.00,0.0094
3416.00,0.0095
3415.00,0.0095
3414.00,0.0096
3413.00,0.0097
3412.00,0.0098
3411.00,0.0098
3410.00,0.0099
3409.00,0.0099
3408.00,0.0099
3407.00,0.0099
3406.00,0.0099
3405.00,0.0100
3404.00,0.0101
3403.00,0.0102
3402.00,0.0103
3401.00,0.0104
3400.00,0.0105
3399.00,0.0105
3398.00,0.0106
3397.00,0.0106
3396.00,0.0106
3395.00,0.0106
3394.00,0.0106
3393.00,0.0106
3392.00,0.0106
3391.00,0.0106
3390.00,0.0106
3389.00,0.0106
3388.00,0.0106
3387.00,0.0106
3386.00,0.0106
3385.00,0.0106
3384.00,0.0106
3383.00,0.0106
3382.00,0.0106
3381.00,0.0106
3380.00,0.0106
3379.00,0.0107
3378.00,0.0107
3377.00,0.0107
3376.00,0.0107
3375.00,0.0107
3374.00,0.0107
3373.00,0.0107
3372.00,0.0107
3371.00,0.0107
3370.00,0.0108
3369.00,0.0108
3368.00,0.0108
3367.00,0.0108
3366.00,0.0108
3365.00,0.0108
3364.00,0.0109
3363.00,0.0109
3362.00,0.0109
3361.00,0.0110
3360.00,0.0110
3359.00,0.0110
3358.00,0.0111
3357.00,0.0111
3356.00,0.0111
3355.00,0.0111
3354.00,0.0111
3353.00,0.0112
3352.00,0.0112
3351.00,0.0112
3350.00,0.0112
3349.00,0.0112
3348.00,0.0112
3347.00,0.0112
3346.00,0.0113
3345.00,0.0113
3344.00,0.0114
3343.00,0.0114
3342.00,0.0115
3341.00,0.0115
3340.00,0.0116
3339.00,0.0116
3338.00,0.0117
3337.00,0.0117
3336.00,0.0118
3335.00,0.0119
3334.00,0.0119
3333.00,0.0120
3332.00,0.0120
3331.00,0.0121
3330.00,0.0121
3329.00,0.0122
3328.00,0.0122
3327.00,0.0122
3326.00,0.0123
3325.00,0.0124
3324.00,0.0124
3323.00,0.0125
3322.00,0.0126
3321.00,0.0126
3320.00,0.0126
3319.00,0.0127
3318.00,0.0127
3317.00,0.0127
3316.00,0.0128
3315.00,0.0128
3314.00,0.0128
3313.00,0.0129
3312.00,0.0129
3311.00,0.0129
3310.00,0.0128
3309.00,0.0128
3308.00,0.0128
3307.00,0.0127
3306.00,0.0127
3305.00,0.0127
3304.00,0.0127
3303.00,0.0126
3302.00,0.0126
3301.00,0.0125
3300.00,0.0125
3299.00,0.0124
3298.00,0.0124
3297.00,0.0123
3296.00,0.0123
3295.00,0.0122
3294.00,0.0122
3293.00,0.0122
3292.00,0.0121
3291.00,0.0121
3290.00,0.0121
3289.00,0.0120
3288.00,0.0119
3287.00,0.0119
3286.00,0.0118
3285.00,0.0118
3284.00,0.0117
3283.00,0.0117
3282.00,0.0117
3281.00,0.0116
3280.00,0.0116
3279.00,0.0116
3278.00,0.0116
3277.00,0.0115
3276.00,0.0115
3275.00,0.0114
3274.00,0.0113
3273.00,0.0113
3272.00,0.0112
3271.00,0.0112
3270.00,0.0111
3269.00,0.0110
3268.00,0.0109
3267.00,0.0109
3266.00,0.0108
3265.00,0.0108
3264.00,0.0108
3263.00,0.0108
3262.00,0.0108
3261.00,0.0107
3260.00,0.0107
3259.00,0.0106
3258.00,0.0106
3257.00,0.0105
3256.00,0.0105
3255.00,0.0104
3254.00,0.0104
3253.00,0.0104
3252.00,0.0104
3251.00,0.0103
3250.00,0.0103
3249.00,0.0102
3248.00,0.0101
3247.00,0.0101
3246.00,0.0101
3245.00,0.0101
3244.00,0.0100
3243.00,0.0100
3242.00,0.0100
3241.00,0.0100
3240.00,0.0099
3239.00,0.0099
3238.00,0.0098
3237.00,0.0098
3236.00,0.0098
3235.00,0.0098
3234.00,0.0098
3233.00,0.0098
3232.00,0.0099
3231.00,0.0099
3230.00,0.0099
3229.00,0.0099
3228.00,0.0100
3227.00,0.0100
3226.00,0.0100
3225.00,0.0100
3224.00,0.0101
3223.00,0.0101
3222.00,0.0101
3221.00,0.0102
3220.00,0.0102
3219.00,0.0103
3218.00,0.0104
3217.00,0.0105
3216.00,0.0105
3215.00,0.0106
3214.00,0.0107
3213.00,0.0108
3212.00,0.0108
3211.00,0.0109
3210.00,0.0109
3209.00,0.0110
3208.00,0.0110
3207.00,0.0111
3206.00,0.0111
3205.00,0.0111
3204.00,0.0111
3203.00,0.0111
3202.00,0.0111
3201.00,0.0111
3200.00,0.0111
3199.00,0.0112
3198.00,0.0112
3197.00,0.0112
3196.00,0.0112
3195.00,0.0111
3194.00,0.0111
3193.00,0.0110
3192.00,0.0110
3191.00,0.0109
3190.00,0.0109
3189.00,0.0108
3188.00,0.0107
3187.00,0.0106
3186.00,0.0106
3185.00,0.0105
3184.00,0.0105
3183.00,0.0105
3182.00,0.0104
3181.00,0.0103
3180.00,0.0102
3179.00,0.0101
3178.00,0.0100
3177.00,0.0099
3176.00,0.0099
3175.00,0.0098
3174.00,0.0097
3173.00,0.0097
3172.00,0.0096
3171.00,0.0095
3170.00,0.0094
3169.00,0.0094
3168.00,0.0093
3167.00,0.0093
3166.00,0.0092
3165.00,0.0091
3164.00,0.0090
3163.00,0.0090
3162.00,0.0090
3161.00,0.0089
3160.00,0.0089
3159.00,0.0088
3158.00,0.0088
3157.00,0.0087
3156.00,0.0087
3155.00,0.0087
3154.00,0.0087
3153.00,0.0086
3152.00,0.0086
3151.00,0.0086
3150.00,0.0086
3149.00,0.0086
3148.00,0.0086
3147.00,0.0085
3146.00,0.0085
3145.00,0.0085
3144.00,0.0085
3143.00,0.0085
3142.00,0.0085
3141.00,0.0084
3140.00,0.0084
3139.00,0.0083
3138.00,0.0083
3137.00,0.0082
3136.00,0.0081
3135.00,0.0081
3134.00,0.0081
3133.00,0.0081
3132.00,0.0081
3131.00,0.0081
3130.00,0.0080
3129.00,0.0080
3128.00,0.0080
3127.00,0.0080
3126.00,0.0080
3125.00,0.0080
3124.00,0.0080
3123.00,0.0079
3122.00,0.0078
3121.00,0.0078
3120.00,0.0077
3119.00,0.0076
3118.00,0.0076
3117.00,0.0075
3116.00,0.0075
3115.00,0.0074
3114.00,0.0074
3113.00,0.0073
3112.00,0.0073
3111.00,0.0072
3110.00,0.0072
3109.00,0.0071
3108.00,0.0070
3107.00,0.0069
3106.00,0.0069
3105.00,0.0068
3104.00,0.0067
3103.00,0.0067
3102.00,0.0067
3101.00,0.0067
3100.00,0.0066
3099.00,0.0066
3098.00,0.0065
3097.00,0.0064
3096.00,0.0063
3095.00,0.0062
3094.00,0.0062
3093.00,0.0061
3092.00,0.0061
3091.00,0.0061
3090.00,0.0061
3089.00,0.0061
3088.00,0.0061
3087.00,0.0061
3086.00,0.0061
3085.00,0.0060
3084.00,0.0059
3083.00,0.0059
3082.00,0.0059
3081.00,0.0059
3080.00,0.0059
3079.00,0.0059
3078.00,0.0059
3077.00,0.0059
3076.00,0.0059
3075.00,0.0059
3074.00,0.0059
3073.00,0.0059
3072.00,0.0059
3071.00,0.0059
3070.00,0.0059
3069.00,0.0058
3068.00,0.0058
3067.00,0.0058
3066.00,0.0058
3065.00,0.0058
3064.00,0.0058
3063.00,0.0058
3062.00,0.0058
3061.00,0.0058
3060.00,0.0057
3059.00,0.0057
3058.00,0.0058
3057.00,0.0058
3056.00,0.0058
3055.00,0.0058
3054.00,0.0057
3053.00,0.0057
3052.00,0.0057
3051.00,0.0057
3050.00,0.0057
3049.00,0.0057
3048.00,0.0057
3047.00,0.0057
3046.00,0.0057
3045.00,0.0057
3044.00,0.0057
3043.00,0.0057
3042.00,0.0057
3041.00,0.0058
3040.00,0.0058
3039.00,0.0058
3038.00,0.0059
3037.00,0.0059
3036.00,0.0059
3035.00,0.0059
3034.00,0.0059
3033.00,0.0059
3032.00,0.0060
3031.00,0.0060
3030.00,0.0061
3029.00,0.0061
3028.00,0.0061
3027.00,0.0061
3026.00,0.0062
3025.00,0.0063
3024.00,0.0064
3023.00,0.0064
3022.00,0.0065
3021.00,0.0065
3020.00,0.0066
3019.00,0.0066
3018.00,0.0067
3017.00,0.0068
3016.00,0.0069
3015.00,0.0070
3014.00,0.0072
3013.00,0.0074
3012.00,0.0075
3011.00,0.0077
3010.00,0.0079
3009.00,0.0080
3008.00,0.0081
3007.00,0.0083
3006.00,0.0085
3005.00,0.0087
3004.00,0.0089
3003.00,0.0092
3002.00,0.0094
3001.00,0.0097
3000.00,0.0100
2999.00,0.0103
2998.00,0.0106
2997.00,0.0109
2996.00,0.0113
2995.00,0.0117
2994.00,0.0121
2993.00,0.0126
2992.00,0.0132
2991.00,0.0139
2990.00,0.0146
2989.00,0.0154
2988.00,0.0163
2987.00,0.0172
2986.00,0.0183
2985.00,0.0195
2984.00,0.0209
2983.00,0.0225
2982.00,0.0242
2981.00,0.0261
2980.00,0.0282
2979.00,0.0305
2978.00,0.0332
2977.00,0.0363
2976.00,0.0398
2975.00,0.0438
2974.00,0.0483
2973.00,0.0535
2972.00,0.0595
2971.00,0.0661
2970.00,0.0736
2969.00,0.0819
2968.00,0.0911
2967.00,0.1012
2966.00,0.1120
2965.00,0.1235
2964.00,0.1354
2963.00,0.1471
2962.00,0.1583
2961.00,0.1683
2960.00,0.1767
2959.00,0.1831
2958.00,0.1877
2957.00,0.1907
2956.00,0.1928
2955.00,0.1945
2954.00,0.1962
2953.00,0.1978
2952.00,0.1990
2951.00,0.1991
2950.00,0.1973
2949.00,0.1930
2948.00,0.1857
2947.00,0.1757
2946.00,0.1638
2945.00,0.1510
2944.00,0.1386
2943.00,0.1276
2942.00,0.1187
2941.00,0.1122
2940.00,0.1080
2939.00,0.1060
2938.00,0.1061
2937.00,0.1079
2936.00,0.1112
2935.00,0.1160
2934.00,0.1221
2933.00,0.1293
2932.00,0.1374
2931.00,0.1462
2930.00,0.1553
2929.00,0.1645
2928.00,0.1736
2927.00,0.1822
2926.00,0.1903
2925.00,0.1978
2924.00,0.2049
2923.00,0.2116
2922.00,0.2182
2921.00,0.2243
2920.00,0.2296
2919.00,0.2336
2918.00,0.2357
2917.00,0.2355
2916.00,0.2330
2915.00,0.2284
2914.00,0.2225
2913.00,0.2158
2912.00,0.2090
2911.00,0.2026
2910.00,0.1967
2909.00,0.1914
2908.00,0.1863
2907.00,0.1812
2906.00,0.1760
2905.00,0.1703
2904.00,0.1643
2903.00,0.1579
2902.00,0.1513
2901.00,0.1446
2900.00,0.1380
2899.00,0.1316
2898.00,0.1257
2897.00,0.1204
2896.00,0.1156
2895.00,0.1116
2894.00,0.1082
2893.00,0.1055
2892.00,0.1035
2891.00,0.1021
2890.00,0.1012
2889.00,0.1008
2888.00,0.1009
2887.00,0.1012
2886.00,0.1019
2885.00,0.1029
2884.00,0.1043
2883.00,0.1061
2882.00,0.1082
2881.00,0.1104
2880.00,0.1126
2879.00,0.1144
2878.00,0.1155
2877.00,0.1158
2876.00,0.1154
2875.00,0.1146
2874.00,0.1138
2873.00,0.1135
2872.00,0.1139
2871.00,0.1150
2870.00,0.1166
2869.00,0.1182
2868.00,0.1191
2867.00,0.1186
2866.00,0.1162
2865.00,0.1115
2864.00,0.1048
2863.00,0.0969
2862.00,0.0887
2861.00,0.0810
2860.00,0.0743
2859.00,0.0690
2858.00,0.0650
2857.00,0.0621
2856.00,0.0602
2855.00,0.0592
2854.00,0.0589
2853.00,0.0592
2852.00,0.0602
2851.00,0.0617
2850.00,0.0638
2849.00,0.0665
2848.00,0.0699
2847.00,0.0740
2846.00,0.0789
2845.00,0.0848
2844.00,0.0916
2843.00,0.0990
2842.00,0.1067
2841.00,0.1140
2840.00,0.1202
2839.00,0.1242
2838.00,0.1253
2837.00,0.1230
2836.00,0.1171
2835.00,0.1084
2834.00,0.0978
2833.00,0.0867
2832.00,0.0759
2831.00,0.0663
2830.00,0.0582
2829.00,0.0515
2828.00,0.0460
2827.00,0.0417
2826.00,0.0381
2825.00,0.0352
2824.00,0.0327
2823.00,0.0306
2822.00,0.0288
2821.00,0.0273
2820.00,0.0259
2819.00,0.0247
2818.00,0.0237
2817.00,0.0228
2816.00,0.0220
2815.00,0.0213
2814.00,0.0207
2813.00,0.0201
2812.00,0.0196
2811.00,0.0190
2810.00,0.0185
2809.00,0.0180
2808.00,0.0175
2807.00,0.0169
2806.00,0.0163
2805.00,0.0156
2804.00,0.0150
2803.00,0.0144
2802.00,0.0139
2801.00,0.0134
2800.00,0.0131
2799.00,0.0128
2798.00,0.0125
2797.00,0.0123
2796.00,0.0121
2795.00,0.0118
2794.00,0.0115
2793.00,0.0112
2792.00,0.0109
2791.00,0.0106
2790.00,0.0102
2789.00,0.0099
2788.00,0.0095
2787.00,0.0092
2786.00,0.0089
2785.00,0.0086
2784.00,0.0083
2783.00,0.0081
2782.00,0.0078
2781.00,0.0076
2780.00,0.0074
2779.00,0.0073
2778.00,0.0071
2777.00,0.0070
2776.00,0.0068
2775.00,0.0067
2774.00,0.0066
2773.00,0.0065
2772.00,0.0065
2771.00,0.0064
2770.00,0.0064
2769.00,0.0064
2768.00,0.0063
2767.00,0.0063
2766.00,0.0063
2765.00,0.0062
2764.00,0.0062
2763.00,0.0061
2762.00,0.0061
2761.00,0.0061
2760.00,0.0060
2759.00,0.0060
2758.00,0.0060
2757.00,0.0059
2756.00,0.0059
2755.00,0.0059
2754.00,0.0059
2753.00,0.0059
2752.00,0.0059
2751.00,0.0059
2750.00,0.0059
2749.00,0.0058
2748.00,0.0058
2747.00,0.0058
2746.00,0.0059
2745.00,0.0059
2744.00,0.0060
2743.00,0.0062
2742.00,0.0063
2741.00,0.0064
2740.00,0.0065
2739.00,0.0066
2738.00,0.0068
2737.00,0.0069
2736.00,0.0071
2735.00,0.0072
2734.00,0.0074
2733.00,0.0075
2732.00,0.0076
2731.00,0.0078
2730.00,0.0080
2729.00,0.0082
2728.00,0.0085
2727.00,0.0087
2726.00,0.0090
2725.00,0.0092
2724.00,0.0093
2723.00,0.0093
2722.00,0.0093
2721.00,0.0091
2720.00,0.0088
2719.00,0.0085
2718.00,0.0081
2717.00,0.0078
2716.00,0.0075
2715.00,0.0072
2714.00,0.0070
2713.00,0.0068
2712.00,0.0067
2711.00,0.0065
2710.00,0.0064
2709.00,0.0063
2708.00,0.0061
2707.00,0.0060
2706.00,0.0059
2705.00,0.0058
2704.00,0.0057
2703.00,0.0056
2702.00,0.0055
2701.00,0.0054
2700.00,0.0053
2699.00,0.0052
2698.00,0.0052
2697.00,0.0052
2696.00,0.0052
2695.00,0.0052
2694.00,0.0052
2693.00,0.0051
2692.00,0.0051
2691.00,0.0051
2690.00,0.0051
2689.00,0.0052
2688.00,0.0052
2687.00,0.0052
2686.00,0.0051
2685.00,0.0051
2684.00,0.0051
2683.00,0.0051
2682.00,0.0051
2681.00,0.0052
2680.00,0.0052
2679.00,0.0052
2678.00,0.0052
2677.00,0.0051
2676.00,0.0051
2675.00,0.0051
2674.00,0.0051
2673.00,0.0051
2672.00,0.0050
2671.00,0.0050
2670.00,0.0050
2669.00,0.0049
2668.00,0.0049
2667.00,0.0049
2666.00,0.0050
2665.00,0.0050
2664.00,0.0051
2663.00,0.0052
2662.00,0.0052
2661.00,0.0053
2660.00,0.0053
2659.00,0.0053
2658.00,0.0053
2657.00,0.0052
2656.00,0.0052
2655.00,0.0052
2654.00,0.0051
2653.00,0.0051
2652.00,0.0050
2651.00,0.0050
2650.00,0.0049
2649.00,0.0048
2648.00,0.0048
2647.00,0.0047
2646.00,0.0047
2645.00,0.0047
2644.00,0.0046
2643.00,0.0046
2642.00,0.0046
2641.00,0.0045
2640.00,0.0045
2639.00,0.0044
2638.00,0.0044
2637.00,0.0044
2636.00,0.0043
2635.00,0.0043
2634.00,0.0043
2633.00,0.0043
2632.00,0.0044
2631.00,0.0044
2630.00,0.0044
2629.00,0.0044
2628.00,0.0044
2627.00,0.0044
2626.00,0.0043
2625.00,0.0044
2624.00,0.0044
2623.00,0.0044
2622.00,0.0044
2621.00,0.0044
2620.00,0.0044
2619.00,0.0044
2618.00,0.0044
2617.00,0.0044
2616.00,0.0044
2615.00,0.0043
2614.00,0.0043
2613.00,0.0043
2612.00,0.0043
2611.00,0.0042
2610.00,0.0042
2609.00,0.0041
2608.00,0.0041
2607.00,0.0040
2606.00,0.0039
2605.00,0.0039
2604.00,0.0038
2603.00,0.0037
2602.00,0.0037
2601.00,0.0036
2600.00,0.0035
2599.00,0.0035
2598.00,0.0035
2597.00,0.0035
2596.00,0.0035
2595.00,0.0035
2594.00,0.0035
2593.00,0.0035
2592.00,0.0036
2591.00,0.0036
2590.00,0.0037
2589.00,0.0038
2588.00,0.0039
2587.00,0.0039
2586.00,0.0040
2585.00,0.0041
2584.00,0.0042
2583.00,0.0043
2582.00,0.0042
2581.00,0.0042
2580.00,0.0041
2579.00,0.0040
2578.00,0.0039
2577.00,0.0038
2576.00,0.0037
2575.00,0.0036
2574.00,0.0035
2573.00,0.0034
2572.00,0.0032
2571.00,0.0031
2570.00,0.0030
2569.00,0.0030
2568.00,0.0030
2567.00,0.0030
2566.00,0.0029
2565.00,0.0029
2564.00,0.0029
2563.00,0.0028
2562.00,0.0028
2561.00,0.0028
2560.00,0.0028
2559.00,0.0029
2558.00,0.0028
2557.00,0.0028
2556.00,0.0027
2555.00,0.0027
2554.00,0.0027
2553.00,0.0027
2552.00,0.0027
2551.00,0.0027
2550.00,0.0026
2549.00,0.0025
2548.00,0.0024
2547.00,0.0023
2546.00,0.0023
2545.00,0.0022
2544.00,0.0022
2543.00,0.0022
2542.00,0.0022
2541.00,0.0022
2540.00,0.0021
2539.00,0.0021
2538.00,0.0021
2537.00,0.0021
2536.00,0.0021
2535.00,0.0021
2534.00,0.0020
2533.00,0.0019
2532.00,0.0019
2531.00,0.0019
2530.00,0.0018
2529.00,0.0018
2528.00,0.0018
2527.00,0.0018
2526.00,0.0017
2525.00,0.0017
2524.00,0.0017
2523.00,0.0016
2522.00,0.0016
2521.00,0.0015
2520.00,0.0014
2519.00,0.0014
2518.00,0.0014
2517.00,0.0014
2516.00,0.0015
2515.00,0.0015
2514.00,0.0014
2513.00,0.0014
2512.00,0.0014
2511.00,0.0015
2510.00,0.0015
2509.00,0.0015
2508.00,0.0015
2507.00,0.0014
2506.00,0.0014
2505.00,0.0013
2504.00,0.0013
2503.00,0.0013
2502.00,0.0013
2501.00,0.0013
2500.00,0.0013
2499.00,0.0013
2498.00,0.0013
2497.00,0.0013
2496.00,0.0013
2495.00,0.0013
2494.00,0.0014
2493.00,0.0014
2492.00,0.0014
2491.00,0.0014
2490.00,0.0014
2489.00,0.0014
2488.00,0.0014
2487.00,0.0014
2486.00,0.0014
2485.00,0.0014
2484.00,0.0014
2483.00,0.0013
2482.00,0.0013
2481.00,0.0013
2480.00,0.0012
2479.00,0.0012
2478.00,0.0012
2477.00,0.0012
2476.00,0.0012
2475.00,0.0013
2474.00,0.0013
2473.00,0.0014
2472.00,0.0014
2471.00,0.0013
2470.00,0.0012
2469.00,0.0012
2468.00,0.0011
2467.00,0.0011
2466.00,0.0010
2465.00,0.0010
2464.00,0.0009
2463.00,0.0010
2462.00,0.0011
2461.00,0.0012
2460.00,0.0013
2459.00,0.0014
2458.00,0.0015
2457.00,0.0015
2456.00,0.0014
2455.00,0.0014
2454.00,0.0013
2453.00,0.0013
2452.00,0.0013
2451.00,0.0013
2450.00,0.0013
2449.00,0.0013
2448.00,0.0013
2447.00,0.0013
2446.00,0.0013
2445.00,0.0012
2444.00,0.0012
2443.00,0.0012
2442.00,0.0011
2441.00,0.0011
2440.00,0.0012
2439.00,0.0012
2438.00,0.0012
2437.00,0.0012
2436.00,0.0013
2435.00,0.0013
2434.00,0.0013
2433.00,0.0013
2432.00,0.0013
2431.00,0.0013
2430.00,0.0013
2429.00,0.0013
2428.00,0.0013
2427.00,0.0013
2426.00,0.0013
2425.00,0.0014
2424.00,0.0014
2423.00,0.0014
2422.00,0.0013
2421.00,0.0013
2420.00,0.0013
2419.00,0.0012
2418.00,0.0012
2417.00,0.0012
2416.00,0.0012
2415.00,0.0011
2414.00,0.0011
2413.00,0.0011
2412.00,0.0012
2411.00,0.0013
2410.00,0.0013
2409.00,0.0013
2408.00,0.0013
2407.00,0.0012
2406.00,0.0011
2405.00,0.0011
2404.00,0.0011
2403.00,0.0011
2402.00,0.0011
2401.00,0.0011
2400.00,0.0012
2399.00,0.0012
2398.00,0.0012
2397.00,0.0012
2396.00,0.0012
2395.00,0.0012
2394.00,0.0012
2393.00,0.0012
2392.00,0.0012
2391.00,0.0011
2390.00,0.0011
2389.00,0.0011
2388.00,0.0010
2387.00,0.0010
2386.00,0.0009
2385.00,0.0009
2384.00,0.0008
2383.00,0.0008
2382.00,0.0007
2381.00,0.0006
2380.00,0.0006
2379.00,0.0005
2378.00,0.0005
2377.00,0.0005
2376.00,0.0005
2375.00,0.0006
2374.00,0.0007
2373.00,0.0007
2372.00,0.0008
2371.00,0.0007
2370.00,0.0007
2369.00,0.0007
2368.00,0.0007
2367.00,0.0007
2366.00,0.0007
2365.00,0.0008
2364.00,0.0008
2363.00,0.0007
2362.00,0.0007
2361.00,0.0008
2360.00,0.0008
2359.00,0.0009
2358.00,0.0009
2357.00,0.0009
2356.00,0.0009
2355.00,0.0009
2354.00,0.0008
2353.00,0.0007
2352.00,0.0008
2351.00,0.0008
2350.00,0.0009
2349.00,0.0009
2348.00,0.0009
2347.00,0.0009
2346.00,0.0010
2345.00,0.0010
2344.00,0.0011
2343.00,0.0011
2342.00,0.0011
2341.00,0.0011
2340.00,0.0011
2339.00,0.0011
2338.00,0.0011
2337.00,0.0011
2336.00,0.0011
2335.00,0.0010
2334.00,0.0010
2333.00,0.0009
2332.00,0.0008
2331.00,0.0008
2330.00,0.0008
2329.00,0.0009
2328.00,0.0012
2327.00,0.0015
2326.00,0.0019
2325.00,0.0022
2324.00,0.0024
2323.00,0.0023
2322.00,0.0021
2321.00,0.0019
2320.00,0.0018
2319.00,0.0017
2318.00,0.0016
2317.00,0.0016
2316.00,0.0016
2315.00,0.0016
2314.00,0.0015
2313.00,0.0015
2312.00,0.0014
2311.00,0.0013
2310.00,0.0012
2309.00,0.0012
2308.00,0.0012
2307.00,0.0013
2306.00,0.0013
2305.00,0.0013
2304.00,0.0013
2303.00,0.0013
2302.00,0.0013
2301.00,0.0013
2300.00,0.0013
2299.00,0.0014
2298.00,0.0015
2297.00,0.0015
2296.00,0.0016
2295.00,0.0016
2294.00,0.0017
2293.00,0.0017
2292.00,0.0018
2291.00,0.0019
2290.00,0.0020
2289.00,0.0021
2288.00,0.0021
2287.00,0.0021
2286.00,0.0021
2285.00,0.0020
2284.00,0.0019
2283.00,0.0018
2282.00,0.0018
2281.00,0.0019
2280.00,0.0019
2279.00,0.0019
2278.00,0.0018
2277.00,0.0017
2276.00,0.0017
2275.00,0.0016
2274.00,0.0016
2273.00,0.0016
2272.00,0.0016
2271.00,0.0017
2270.00,0.0017
2269.00,0.0016
2268.00,0.0015
2267.00,0.0013
2266.00,0.0012
2265.00,0.0012
2264.00,0.0012
2263.00,0.0013
2262.00,0.0014
2261.00,0.0016
2260.00,0.0017
2259.00,0.0017
2258.00,0.0016
2257.00,0.0016
2256.00,0.0015
2255.00,0.0014
2254.00,0.0014
2253.00,0.0013
2252.00,0.0012
2251.00,0.0012
2250.00,0.0011
2249.00,0.0011
2248.00,0.0010
2247.00,0.0010
2246.00,0.0009
2245.00,0.0010
2244.00,0.0011
2243.00,0.0012
2242.00,0.0012
2241.00,0.0012
2240.00,0.0011
2239.00,0.0009
2238.00,0.0007
2237.00,0.0007
2236.00,0.0009
2235.00,0.0010
2234.00,0.0012
2233.00,0.0012
2232.00,0.0012
2231.00,0.0011
2230.00,0.0011
2229.00,0.0009
2228.00,0.0008
2227.00,0.0006
2226.00,0.0005
2225.00,0.0005
2224.00,0.0006
2223.00,0.0007
2222.00,0.0007
2221.00,0.0008
2220.00,0.0008
2219.00,0.0008
2218.00,0.0006
2217.00,0.0005
2216.00,0.0004
2215.00,0.0004
2214.00,0.0004
2213.00,0.0005
2212.00,0.0006
2211.00,0.0007
2210.00,0.0007
2209.00,0.0007
2208.00,0.0008
2207.00,0.0008
2206.00,0.0009
2205.00,0.0008
2204.00,0.0007
2203.00,0.0006
2202.00,0.0006
2201.00,0.0007
2200.00,0.0008
2199.00,0.0009
2198.00,0.0010
2197.00,0.0010
2196.00,0.0011
2195.00,0.0011
2194.00,0.0011
2193.00,0.0010
2192.00,0.0009
2191.00,0.0008
2190.00,0.0008
2189.00,0.0009
2188.00,0.0010
2187.00,0.0010
2186.00,0.0010
2185.00,0.0010
2184.00,0.0009
2183.00,0.0008
2182.00,0.0007
2181.00,0.0007
2180.00,0.0009
2179.00,0.0012
2178.00,0.0013
2177.00,0.0013
2176.00,0.0010
2175.00,0.0008
2174.00,0.0007
2173.00,0.0007
2172.00,0.0008
2171.00,0.0009
2170.00,0.0011
2169.00,0.0013
2168.00,0.0014
2167.00,0.0013
2166.00,0.0013
2165.00,0.0015
2164.00,0.0018
2163.00,0.0021
2162.00,0.0022
2161.00,0.0017
2160.00,0.0004
2159.00,-0.0013
2158.00,-0.0029
2157.00,-0.0036
2156.00,-0.0037
2155.00,-0.0035
2154.00,-0.0032
2153.00,-0.0029
2152.00,-0.0025
2151.00,-0.0022
2150.00,-0.0017
2149.00,-0.0012
2148.00,-0.0007
2147.00,-0.0005
2146.00,-0.0005
2145.00,-0.0008
2144.00,-0.0011
2143.00,-0.0013
2142.00,-0.0014
2141.00,-0.0012
2140.00,-0.0011
2139.00,-0.0010
2138.00,-0.0010
2137.00,-0.0011
2136.00,-0.0012
2135.00,-0.0014
2134.00,-0.0016
2133.00,-0.0015
2132.00,-0.0013
2131.00,-0.0010
2130.00,-0.0008
2129.00,-0.0006
2128.00,-0.0005
2127.00,-0.0005
2126.00,-0.0005
2125.00,-0.0005
2124.00,-0.0004
2123.00,-0.0003
2122.00,-0.0001
2121.00,-0.0000
2120.00,0.0000
2119.00,0.0001
2118.00,0.0001
2117.00,0.0001
2116.00,0.0002
2115.00,0.0003
2114.00,0.0005
2113.00,0.0005
2112.00,0.0005
2111.00,0.0003
2110.00,0.0003
2109.00,0.0003
2108.00,0.0003
2107.00,0.0004
2106.00,0.0004
2105.00,0.0005
2104.00,0.0005
2103.00,0.0006
2102.00,0.0005
2101.00,0.0005
2100.00,0.0005
2099.00,0.0006
2098.00,0.0006
2097.00,0.0006
2096.00,0.0004
2095.00,0.0002
2094.00,0.0000
2093.00,0.0001
2092.00,0.0003
2091.00,0.0006
2090.00,0.0007
2089.00,0.0006
2088.00,0.0006
2087.00,0.0005
2086.00,0.0004
2085.00,0.0005
2084.00,0.0005
2083.00,0.0005
2082.00,0.0006
2081.00,0.0006
2080.00,0.0006
2079.00,0.0006
2078.00,0.0004
2077.00,0.0003
2076.00,0.0003
2075.00,0.0003
2074.00,0.0003
2073.00,0.0003
2072.00,0.0003
2071.00,0.0003
2070.00,0.0003
2069.00,0.0003
2068.00,0.0002
2067.00,0.0000
2066.00,-0.0001
2065.00,-0.0001
2064.00,0.0001
2063.00,0.0002
2062.00,0.0003
2061.00,0.0003
2060.00,0.0003
2059.00,0.0002
2058.00,0.0002
2057.00,0.0002
2056.00,0.0003
2055.00,0.0003
2054.00,0.0005
2053.00,0.0009
2052.00,0.0014
2051.00,0.0017
2050.00,0.0016
2049.00,0.0011
2048.00,0.0006
2047.00,0.0002
2046.00,0.0000
2045.00,-0.0001
2044.00,-0.0000
2043.00,0.0001
2042.00,0.0004
2041.00,0.0007
2040.00,0.0008
2039.00,0.0007
2038.00,0.0004
2037.00,0.0002
2036.00,-0.0001
2035.00,-0.0005
2034.00,-0.0008
2033.00,-0.0010
2032.00,-0.0010
2031.00,-0.0009
2030.00,-0.0007
2029.00,-0.0005
2028.00,-0.0003
2027.00,-0.0004
2026.00,-0.0007
2025.00,-0.0011
2024.00,-0.0015
2023.00,-0.0018
2022.00,-0.0018
2021.00,-0.0018
2020.00,-0.0018
2019.00,-0.0016
2018.00,-0.0013
2017.00,-0.0007
2016.00,-0.0003
2015.00,-0.0002
2014.00,-0.0005
2013.00,-0.0008
2012.00,-0.0009
2011.00,-0.0010
2010.00,-0.0011
2009.00,-0.0013
2008.00,-0.0015
2007.00,-0.0017
2006.00,-0.0016
2005.00,-0.0012
2004.00,-0.0008
2003.00,-0.0006
2002.00,-0.0008
2001.00,-0.0012
2000.00,-0.0015
1999.00,-0.0017
1998.00,-0.0016
1997.00,-0.0014
1996.00,-0.0013
1995.00,-0.0012
1994.00,-0.0011
1993.00,-0.0010
1992.00,-0.0007
1991.00,-0.0005
1990.00,-0.0004
1989.00,-0.0004
1988.00,-0.0003
1987.00,-0.0003
1986.00,-0.0002
1985.00,-0.0001
1984.00,0.0001
1983.00,0.0002
1982.00,0.0005
1981.00,0.0009
1980.00,0.0013
1979.00,0.0012
1978.00,0.0006
1977.00,-0.0003
1976.00,-0.0012
1975.00,-0.0019
1974.00,-0.0024
1973.00,-0.0024
1972.00,-0.0020
1971.00,-0.0015
1970.00,-0.0011
1969.00,-0.0009
1968.00,-0.0009
1967.00,-0.0010
1966.00,-0.0011
1965.00,-0.0013
1964.00,-0.0014
1963.00,-0.0015
1962.00,-0.0016
1961.00,-0.0019
1960.00,-0.0021
1959.00,-0.0023
1958.00,-0.0023
1957.00,-0.0022
1956.00,-0.0018
1955.00,-0.0016
1954.00,-0.0014
1953.00,-0.0015
1952.00,-0.0017
1951.00,-0.0019
1950.00,-0.0020
1949.00,-0.0020
1948.00,-0.0018
1947.00,-0.0017
1946.00,-0.0016
1945.00,-0.0015
1944.00,-0.0012
1943.00,-0.0011
1942.00,-0.0010
1941.00,-0.0011
1940.00,-0.0012
1939.00,-0.0014
1938.00,-0.0015
1937.00,-0.0014
1936.00,-0.0011
1935.00,-0.0009
1934.00,-0.0008
1933.00,-0.0008
1932.00,-0.0009
1931.00,-0.0010
1930.00,-0.0011
1929.00,-0.0011
1928.00,-0.0010
1927.00,-0.0009
1926.00,-0.0008
1925.00,-0.0007
1924.00,-0.0007
1923.00,-0.0007
1922.00,-0.0007
1921.00,-0.0006
1920.00,-0.0005
1919.00,-0.0004
1918.00,-0.0003
1917.00,-0.0003
1916.00,-0.0004
1915.00,-0.0005
1914.00,-0.0006
1913.00,-0.0005
1912.00,-0.0004
1911.00,-0.0003
1910.00,-0.0003
1909.00,-0.0004
1908.00,-0.0005
1907.00,-0.0006
1906.00,-0.0006
1905.00,-0.0005
1904.00,-0.0003
1903.00,-0.0002
1902.00,-0.0002
1901.00,-0.0002
1900.00,-0.0001
1899.00,-0.0000
1898.00,-0.0000
1897.00,-0.0000
1896.00,-0.0001
1895.00,-0.0001
1894.00,-0.0001
1893.00,-0.0002
1892.00,-0.0003
1891.00,-0.0003
1890.00,-0.0003
1889.00,-0.0002
1888.00,-0.0001
1887.00,-0.0001
1886.00,-0.0000
1885.00,0.0000
1884.00,0.0000
1883.00,0.0000
1882.00,-0.0001
1881.00,-0.0001
1880.00,-0.0002
1879.00,-0.0002
1878.00,-0.0001
1877.00,-0.0001
1876.00,0.0001
1875.00,0.0002
1874.00,0.0002
1873.00,0.0001
1872.00,0.0000
1871.00,-0.0001
1870.00,-0.0001
1869.00,-0.0001
1868.00,0.0000
1867.00,0.0001
1866.00,0.0001
1865.00,0.0002
1864.00,0.0002
1863.00,0.0002
1862.00,0.0002
1861.00,0.0002
1860.00,0.0003
1859.00,0.0003
1858.00,0.0002
1857.00,0.0002
1856.00,0.0002
1855.00,0.0002
1854.00,0.0002
1853.00,0.0003
1852.00,0.0003
1851.00,0.0003
1850.00,0.0002
1849.00,0.0002
1848.00,0.0001
1847.00,0.0001
1846.00,0.0002
1845.00,0.0003
1844.00,0.0004
1843.00,0.0005
1842.00,0.0005
1841.00,0.0005
1840.00,0.0004
1839.00,0.0003
1838.00,0.0002
1837.00,0.0002
1836.00,0.0002
1835.00,0.0003
1834.00,0.0003
1833.00,0.0003
1832.00,0.0003
1831.00,0.0003
1830.00,0.0004
1829.00,0.0005
1828.00,0.0005
1827.00,0.0004
1826.00,0.0004
1825.00,0.0004
1824.00,0.0004
1823.00,0.0004
1822.00,0.0004
1821.00,0.0004
1820.00,0.0004
1819.00,0.0003
1818.00,0.0002
1817.00,0.0002
1816.00,0.0003
1815.00,0.0003
1814.00,0.0004
1813.00,0.0004
1812.00,0.0004
1811.00,0.0004
1810.00,0.0004
1809.00,0.0005
1808.00,0.0005
1807.00,0.0005
1806.00,0.0005
1805.00,0.0005
1804.00,0.0005
1803.00,0.0005
1802.00,0.0005
1801.00,0.0006
1800.00,0.0007
1799.00,0.0007
1798.00,0.0007
1797.00,0.0007
1796.00,0.0007
1795.00,0.0008
1794.00,0.0008
1793.00,0.0009
1792.00,0.0009
1791.00,0.0009
1790.00,0.0009
1789.00,0.0010
1788.00,0.0010
1787.00,0.0010
1786.00,0.0009
1785.00,0.0009
1784.00,0.0009
1783.00,0.0009
1782.00,0.0009
1781.00,0.0009
1780.00,0.0009
1779.00,0.0009
1778.00,0.0009
1777.00,0.0009
1776.00,0.0009
1775.00,0.0009
1774.00,0.0010
1773.00,0.0010
1772.00,0.0011
1771.00,0.0011
1770.00,0.0011
1769.00,0.0011
1768.00,0.0012
1767.00,0.0013
1766.00,0.0013
1765.00,0.0013
1764.00,0.0013
1763.00,0.0013
1762.00,0.0014
1761.00,0.0015
1760.00,0.0015
1759.00,0.0015
1758.00,0.0015
1757.00,0.0015
1756.00,0.0016
1755.00,0.0016
1754.00,0.0017
1753.00,0.0017
1752.00,0.0017
1751.00,0.0017
1750.00,0.0017
1749.00,0.0018
1748.00,0.0018
1747.00,0.0018
1746.00,0.0018
1745.00,0.0017
1744.00,0.0017
1743.00,0.0018
1742.00,0.0019
1741.00,0.0020
1740.00,0.0021
1739.00,0.0021
1738.00,0.0022
1737.00,0.0022
1736.00,0.0022
1735.00,0.0022
1734.00,0.0022
1733.00,0.0021
1732.00,0.0020
1731.00,0.0019
1730.00,0.0019
1729.00,0.0020
1728.00,0.0021
1727.00,0.0021
1726.00,0.0021
1725.00,0.0021
1724.00,0.0021
1723.00,0.0022
1722.00,0.0022
1721.00,0.0023
1720.00,0.0024
1719.00,0.0025
1718.00,0.0026
1717.00,0.0026
1716.00,0.0026
1715.00,0.0026
1714.00,0.0026
1713.00,0.0026
1712.00,0.0027
1711.00,0.0027
1710.00,0.0028
1709.00,0.0028
1708.00,0.0029
1707.00,0.0030
1706.00,0.0031
1705.00,0.0032
1704.00,0.0033
1703.00,0.0034
1702.00,0.0035
1701.00,0.0037
1700.00,0.0039
1699.00,0.0041
1698.00,0.0042
1697.00,0.0043
1696.00,0.0045
1695.00,0.0046
1694.00,0.0046
1693.00,0.0046
1692.00,0.0047
1691.00,0.0047
1690.00,0.0048
1689.00,0.0050
1688.00,0.0052
1687.00,0.0054
1686.00,0.0055
1685.00,0.0056
1684.00,0.0058
1683.00,0.0060
1682.00,0.0061
1681.00,0.0063
1680.00,0.0065
1679.00,0.0067
1678.00,0.0069
1677.00,0.0071
1676.00,0.0073
1675.00,0.0075
1674.00,0.0076
1673.00,0.0077
1672.00,0.0078
1671.00,0.0080
1670.00,0.0082
1669.00,0.0085
1668.00,0.0087
1667.00,0.0089
1666.00,0.0090
1665.00,0.0092
1664.00,0.0094
1663.00,0.0097
1662.00,0.0101
1661.00,0.0104
1660.00,0.0108
1659.00,0.0111
1658.00,0.0115
1657.00,0.0118
1656.00,0.0122
1655.00,0.0127
1654.00,0.0133
1653.00,0.0142
1652.00,0.0146
1651.00,0.0147
1650.00,0.0147
1649.00,0.0150
1648.00,0.0155
1647.00,0.0163
1646.00,0.0169
1645.00,0.0173
1644.00,0.0175
1643.00,0.0177
1642.00,0.0178
1641.00,0.0179
1640.00,0.0180
1639.00,0.0181
1638.00,0.0181
1637.00,0.0181
1636.00,0.0182
1635.00,0.0181
1634.00,0.0178
1633.00,0.0176
1632.00,0.0173
1631.00,0.0171
1630.00,0.0168
1629.00,0.0165
1628.00,0.0163
1627.00,0.0161
1626.00,0.0159
1625.00,0.0157
1624.00,0.0155
1623.00,0.0152
1622.00,0.0151
1621.00,0.0149
1620.00,0.0149
1619.00,0.0149
1618.00,0.0148
1617.00,0.0148
1616.00,0.0148
1615.00,0.0148
1614.00,0.0147
1613.00,0.0147
1612.00,0.0148
1611.00,0.0148
1610.00,0.0148
1609.00,0.0148
1608.00,0.0148
1607.00,0.0148
1606.00,0.0148
1605.00,0.0148
1604.00,0.0147
1603.00,0.0145
1602.00,0.0143
1601.00,0.0141
1600.00,0.0139
1599.00,0.0138
1598.00,0.0136
1597.00,0.0133
1596.00,0.0131
1595.00,0.0128
1594.00,0.0126
1593.00,0.0124
1592.00,0.0123
1591.00,0.0123
1590.00,0.0123
1589.00,0.0123
1588.00,0.0124
1587.00,0.0126
1586.00,0.0128
1585.00,0.0130
1584.00,0.0133
1583.00,0.0135
1582.00,0.0136
1581.00,0.0136
1580.00,0.0135
1579.00,0.0134
1578.00,0.0132
1577.00,0.0130
1576.00,0.0127
1575.00,0.0124
1574.00,0.0122
1573.00,0.0120
1572.00,0.0118
1571.00,0.0116
1570.00,0.0115
1569.00,0.0114
1568.00,0.0114
1567.00,0.0113
1566.00,0.0113
1565.00,0.0113
1564.00,0.0113
1563.00,0.0114
1562.00,0.0114
1561.00,0.0114
1560.00,0.0114
1559.00,0.0115
1558.00,0.0115
1557.00,0.0115
1556.00,0.0116
1555.00,0.0117
1554.00,0.0119
1553.00,0.0121
1552.00,0.0124
1551.00,0.0127
1550.00,0.0131
1549.00,0.0136
1548.00,0.0140
1547.00,0.0144
1546.00,0.0149
1545.00,0.0156
1544.00,0.0164
1543.00,0.0171
1542.00,0.0177
1541.00,0.0185
1540.00,0.0193
1539.00,0.0199
1538.00,0.0201
1537.00,0.0201
1536.00,0.0201
1535.00,0.0200
1534.00,0.0198
1533.00,0.0195
1532.00,0.0191
1531.00,0.0187
1530.00,0.0182
1529.00,0.0177
1528.00,0.0171
1527.00,0.0164
1526.00,0.0158
1525.00,0.0152
1524.00,0.0147
1523.00,0.0142
1522.00,0.0136
1521.00,0.0131
1520.00,0.0126
1519.00,0.0122
1518.00,0.0118
1517.00,0.0115
1516.00,0.0113
1515.00,0.0112
1514.00,0.0110
1513.00,0.0109
1512.00,0.0107
1511.00,0.0106
1510.00,0.0104
1509.00,0.0102
1508.00,0.0102
1507.00,0.0102
1506.00,0.0102
1505.00,0.0103
1504.00,0.0104
1503.00,0.0105
1502.00,0.0107
1501.00,0.0111
1500.00,0.0117
1499.00,0.0126
1498.00,0.0137
1497.00,0.0151
1496.00,0.0164
1495.00,0.0173
1494.00,0.0177
1493.00,0.0178
1492.00,0.0177
1491.00,0.0173
1490.00,0.0168
1489.00,0.0165
1488.00,0.0164
1487.00,0.0164
1486.00,0.0165
1485.00,0.0168
1484.00,0.0173
1483.00,0.0179
1482.00,0.0186
1481.00,0.0196
1480.00,0.0207
1479.00,0.0217
1478.00,0.0231
1477.00,0.0249
1476.00,0.0271
1475.00,0.0296
1474.00,0.0330
1473.00,0.0381
1472.00,0.0442
1471.00,0.0503
1470.00,0.0562
1469.00,0.0623
1468.00,0.0689
1467.00,0.0762
1466.00,0.0845
1465.00,0.0935
1464.00,0.1018
1463.00,0.1078
1462.00,0.1121
1461.00,0.1153
1460.00,0.1180
1459.00,0.1202
1458.00,0.1226
1457.00,0.1252
1456.00,0.1268
1455.00,0.1271
1454.00,0.1270
1453.00,0.1262
1452.00,0.1246
1451.00,0.1215
1450.00,0.1167
1449.00,0.1095
1448.00,0.1000
1447.00,0.0897
1446.00,0.0802
1445.00,0.0721
1444.00,0.0651
1443.00,0.0594
1442.00,0.0552
1441.00,0.0522
1440.00,0.0504
1439.00,0.0495
1438.00,0.0491
1437.00,0.0486
1436.00,0.0471
1435.00,0.0443
1434.00,0.0405
1433.00,0.0361
1432.00,0.0317
1431.00,0.0278
1430.00,0.0248
1429.00,0.0227
1428.00,0.0213
1427.00,0.0204
1426.00,0.0199
1425.00,0.0195
1424.00,0.0192
1423.00,0.0192
1422.00,0.0193
1421.00,0.0194
1420.00,0.0194
1419.00,0.0195
1418.00,0.0195
1417.00,0.0193
1416.00,0.0190
1415.00,0.0187
1414.00,0.0184
1413.00,0.0180
1412.00,0.0176
1411.00,0.0172
1410.00,0.0170
1409.00,0.0168
1408.00,0.0165
1407.00,0.0163
1406.00,0.0162
1405.00,0.0161
1404.00,0.0160
1403.00,0.0160
1402.00,0.0161
1401.00,0.0161
1400.00,0.0161
1399.00,0.0162
1398.00,0.0164
1397.00,0.0166
1396.00,0.0167
1395.00,0.0171
1394.00,0.0176
1393.00,0.0182
1392.00,0.0188
1391.00,0.0197
1390.00,0.0209
1389.00,0.0227
1388.00,0.0253
1387.00,0.0293
1386.00,0.0345
1385.00,0.0409
1384.00,0.0494
1383.00,0.0605
1382.00,0.0748
1381.00,0.0925
1380.00,0.1137
1379.00,0.1370
1378.00,0.1590
1377.00,0.1748
1376.00,0.1799
1375.00,0.1716
1374.00,0.1519
1373.00,0.1277
1372.00,0.1050
1371.00,0.0858
1370.00,0.0702
1369.00,0.0581
1368.00,0.0496
1367.00,0.0443
1366.00,0.0414
1365.00,0.0402
1364.00,0.0403
1363.00,0.0415
1362.00,0.0435
1361.00,0.0456
1360.00,0.0473
1359.00,0.0478
1358.00,0.0468
1357.00,0.0443
1356.00,0.0407
1355.00,0.0366
1354.00,0.0326
1353.00,0.0292
1352.00,0.0264
1351.00,0.0242
1350.00,0.0225
1349.00,0.0211
1348.00,0.0199
1347.00,0.0190
1346.00,0.0183
1345.00,0.0178
1344.00,0.0174
1343.00,0.0170
1342.00,0.0167
1341.00,0.0163
1340.00,0.0160
1339.00,0.0157
1338.00,0.0154
1337.00,0.0153
1336.00,0.0153
1335.00,0.0154
1334.00,0.0156
1333.00,0.0159
1332.00,0.0163
1331.00,0.0166
1330.00,0.0167
1329.00,0.0166
1328.00,0.0162
1327.00,0.0157
1326.00,0.0151
1325.00,0.0144
1324.00,0.0138
1323.00,0.0133
1322.00,0.0129
1321.00,0.0126
1320.00,0.0124
1319.00,0.0121
1318.00,0.0119
1317.00,0.0117
1316.00,0.0116
1315.00,0.0115
1314.00,0.0114
1313.00,0.0115
1312.00,0.0117
1311.00,0.0120
1310.00,0.0126
1309.00,0.0134
1308.00,0.0147
1307.00,0.0163
1306.00,0.0178
1305.00,0.0189
1304.00,0.0192
1303.00,0.0189
1302.00,0.0181
1301.00,0.0173
1300.00,0.0167
1299.00,0.0162
1298.00,0.0160
1297.00,0.0158
1296.00,0.0156
1295.00,0.0153
1294.00,0.0148
1293.00,0.0143
1292.00,0.0137
1291.00,0.0132
1290.00,0.0127
1289.00,0.0122
1288.00,0.0118
1287.00,0.0115
1286.00,0.0113
1285.00,0.0110
1284.00,0.0108
1283.00,0.0106
1282.00,0.0104
1281.00,0.0103
1280.00,0.0102
1279.00,0.0100
1278.00,0.0100
1277.00,0.0099
1276.00,0.0099
1275.00,0.0098
1274.00,0.0098
1273.00,0.0098
1272.00,0.0098
1271.00,0.0099
1270.00,0.0101
1269.00,0.0103
1268.00,0.0105
1267.00,0.0107
1266.00,0.0110
1265.00,0.0113
1264.00,0.0117
1263.00,0.0121
1262.00,0.0126
1261.00,0.0133
1260.00,0.0141
1259.00,0.0151
1258.00,0.0163
1257.00,0.0172
1256.00,0.0177
1255.00,0.0176
1254.00,0.0169
1253.00,0.0159
1252.00,0.0149
1251.00,0.0140
1250.00,0.0133
1249.00,0.0129
1248.00,0.0125
1247.00,0.0123
1246.00,0.0121
1245.00,0.0120
1244.00,0.0119
1243.00,0.0118
1242.00,0.0117
1241.00,0.0116
1240.00,0.0115
1239.00,0.0114
1238.00,0.0112
1237.00,0.0110
1236.00,0.0108
1235.00,0.0107
1234.00,0.0106
1233.00,0.0105
1232.00,0.0105
1231.00,0.0104
1230.00,0.0104
1229.00,0.0105
1228.00,0.0106
1227.00,0.0107
1226.00,0.0109
1225.00,0.0112
1224.00,0.0115
1223.00,0.0118
1222.00,0.0121
1221.00,0.0124
1220.00,0.0126
1219.00,0.0126
1218.00,0.0126
1217.00,0.0124
1216.00,0.0122
1215.00,0.0118
1214.00,0.0115
1213.00,0.0112
1212.00,0.0110
1211.00,0.0107
1210.00,0.0104
1209.00,0.0102
1208.00,0.0099
1207.00,0.0097
1206.00,0.0096
1205.00,0.0095
1204.00,0.0095
1203.00,0.0095
1202.00,0.0095
1201.00,0.0095
1200.00,0.0095
1199.00,0.0094
1198.00,0.0094
1197.00,0.0095
1196.00,0.0095
1195.00,0.0095
1194.00,0.0095
1193.00,0.0095
1192.00,0.0095
1191.00,0.0095
1190.00,0.0095
1189.00,0.0095
1188.00,0.0096
1187.00,0.0097
1186.00,0.0099
1185.00,0.0101
1184.00,0.0103
1183.00,0.0105
1182.00,0.0108
1181.00,0.0111
1180.00,0.0116
1179.00,0.0122
1178.00,0.0130
1177.00,0.0141
1176.00,0.0156
1175.00,0.0177
1174.00,0.0203
1173.00,0.0236
1172.00,0.0275
1171.00,0.0319
1170.00,0.0362
1169.00,0.0398
1168.00,0.0421
1167.00,0.0428
1166.00,0.0419
1165.00,0.0400
1164.00,0.0375
1163.00,0.0349
1162.00,0.0325
1161.00,0.0304
1160.00,0.0287
1159.00,0.0273
1158.00,0.0263
1157.00,0.0255
1156.00,0.0249
1155.00,0.0245
1154.00,0.0242
1153.00,0.0238
1152.00,0.0232
1151.00,0.0224
1150.00,0.0214
1149.00,0.0204
1148.00,0.0194
1147.00,0.0185
1146.00,0.0177
1145.00,0.0169
1144.00,0.0163
1143.00,0.0156
1142.00,0.0150
1141.00,0.0145
1140.00,0.0139
1139.00,0.0134
1138.00,0.0129
1137.00,0.0125
1136.00,0.0122
1135.00,0.0119
1134.00,0.0116
1133.00,0.0115
1132.00,0.0115
1131.00,0.0116
1130.00,0.0117
1129.00,0.0118
1128.00,0.0120
1127.00,0.0122
1126.00,0.0123
1125.00,0.0123
1124.00,0.0123
1123.00,0.0123
1122.00,0.0124
1121.00,0.0125
1120.00,0.0126
1119.00,0.0127
1118.00,0.0128
1117.00,0.0130
1116.00,0.0132
1115.00,0.0134
1114.00,0.0137
1113.00,0.0139
1112.00,0.0141
1111.00,0.0144
1110.00,0.0147
1109.00,0.0152
1108.00,0.0157
1107.00,0.0163
1106.00,0.0171
1105.00,0.0178
1104.00,0.0184
1103.00,0.0188
1102.00,0.0189
1101.00,0.0187
1100.00,0.0183
1099.00,0.0178
1098.00,0.0173
1097.00,0.0168
1096.00,0.0164
1095.00,0.0161
1094.00,0.0158
1093.00,0.0155
1092.00,0.0152
1091.00,0.0149
1090.00,0.0146
1089.00,0.0144
1088.00,0.0142
1087.00,0.0141
1086.00,0.0142
1085.00,0.0143
1084.00,0.0143
1083.00,0.0143
1082.00,0.0142
1081.00,0.0139
1080.00,0.0137
1079.00,0.0134
1078.00,0.0131
1077.00,0.0129
1076.00,0.0126
1075.00,0.0125
1074.00,0.0123
1073.00,0.0122
1072.00,0.0122
1071.00,0.0122
1070.00,0.0122
1069.00,0.0122
1068.00,0.0121
1067.00,0.0120
1066.00,0.0119
1065.00,0.0119
1064.00,0.0120
1063.00,0.0120
1062.00,0.0121
1061.00,0.0121
1060.00,0.0122
1059.00,0.0123
1058.00,0.0124
1057.00,0.0124
1056.00,0.0125
1055.00,0.0125
1054.00,0.0127
1053.00,0.0129
1052.00,0.0131
1051.00,0.0132
1050.00,0.0134
1049.00,0.0137
1048.00,0.0140
1047.00,0.0144
1046.00,0.0147
1045.00,0.0150
1044.00,0.0149
1043.00,0.0147
1042.00,0.0143
1041.00,0.0138
1040.00,0.0135
1039.00,0.0132
1038.00,0.0131
1037.00,0.0131
1036.00,0.0132
1035.00,0.0132
1034.00,0.0131
1033.00,0.0130
1032.00,0.0128
1031.00,0.0127
1030.00,0.0127
1029.00,0.0126
1028.00,0.0126
1027.00,0.0125
1026.00,0.0124
1025.00,0.0122
1024.00,0.0121
1023.00,0.0120
1022.00,0.0120
1021.00,0.0120
1020.00,0.0121
1019.00,0.0123
1018.00,0.0126
1017.00,0.0129
1016.00,0.0133
1015.00,0.0137
1014.00,0.0142
1013.00,0.0146
1012.00,0.0151
1011.00,0.0154
1010.00,0.0158
1009.00,0.0162
1008.00,0.0167
1007.00,0.0175
1006.00,0.0186
1005.00,0.0201
1004.00,0.0221
1003.00,0.0248
1002.00,0.0285
1001.00,0.0332
1000.00,0.0383
999.00,0.0428
998.00,0.0453
997.00,0.0450
996.00,0.0420
995.00,0.0371
994.00,0.0317
993.00,0.0268
992.00,0.0228
991.00,0.0199
990.00,0.0178
989.00,0.0163
988.00,0.0153
987.00,0.0148
986.00,0.0146
985.00,0.0147
984.00,0.0152
983.00,0.0161
982.00,0.0174
981.00,0.0193
980.00,0.0219
979.00,0.0254
978.00,0.0297
977.00,0.0349
976.00,0.0407
975.00,0.0466
974.00,0.0513
973.00,0.0537
972.00,0.0529
971.00,0.0488
970.00,0.0426
969.00,0.0358
968.00,0.0296
967.00,0.0247
966.00,0.0210
965.00,0.0184
964.00,0.0164
963.00,0.0150
962.00,0.0139
961.00,0.0130
960.00,0.0123
959.00,0.0118
958.00,0.0114
957.00,0.0111
956.00,0.0109
955.00,0.0106
954.00,0.0104
953.00,0.0102
952.00,0.0100
951.00,0.0099
950.00,0.0098
949.00,0.0098
948.00,0.0097
947.00,0.0098
946.00,0.0098
945.00,0.0100
944.00,0.0103
943.00,0.0107
942.00,0.0110
941.00,0.0111
940.00,0.0110
939.00,0.0108
938.00,0.0104
937.00,0.0099
936.00,0.0094
935.00,0.0090
934.00,0.0087
933.00,0.0085
932.00,0.0084
931.00,0.0083
930.00,0.0081
929.00,0.0079
928.00,0.0077
927.00,0.0076
926.00,0.0076
925.00,0.0077
924.00,0.0077
923.00,0.0077
922.00,0.0077
921.00,0.0078
920.00,0.0079
919.00,0.0080
918.00,0.0082
917.00,0.0082
916.00,0.0082
915.00,0.0082
914.00,0.0081
913.00,0.0082
912.00,0.0083
911.00,0.0084
910.00,0.0086
909.00,0.0088
908.00,0.0091
907.00,0.0096
906.00,0.0103
905.00,0.0113
904.00,0.0126
903.00,0.0142
902.00,0.0160
901.00,0.0177
900.00,0.0188
899.00,0.0190
898.00,0.0183
897.00,0.0169
896.00,0.0151
895.00,0.0135
894.00,0.0122
893.00,0.0113
892.00,0.0105
891.00,0.0100
890.00,0.0095
889.00,0.0092
888.00,0.0090
887.00,0.0088
886.00,0.0088
885.00,0.0087
884.00,0.0087
883.00,0.0087
882.00,0.0086
881.00,0.0087
880.00,0.0087
879.00,0.0088
878.00,0.0088
877.00,0.0089
876.00,0.0089
875.00,0.0089
874.00,0.0088
873.00,0.0087
872.00,0.0086
871.00,0.0086
870.00,0.0087
869.00,0.0088
868.00,0.0088
867.00,0.0089
866.00,0.0090
865.00,0.0091
864.00,0.0092
863.00,0.0093
862.00,0.0095
861.00,0.0098
860.00,0.0101
859.00,0.0103
858.00,0.0104
857.00,0.0106
856.00,0.0107
855.00,0.0109
854.00,0.0112
853.00,0.0115
852.00,0.0119
851.00,0.0124
850.00,0.0131
849.00,0.0140
848.00,0.0153
847.00,0.0174
846.00,0.0204
845.00,0.0250
844.00,0.0311
843.00,0.0378
842.00,0.0432
841.00,0.0451
840.00,0.0427
839.00,0.0372
838.00,0.0309
837.00,0.0257
836.00,0.0221
835.00,0.0199
834.00,0.0185
833.00,0.0176
832.00,0.0170
831.00,0.0164
830.00,0.0160
829.00,0.0157
828.00,0.0156
827.00,0.0155
826.00,0.0154
825.00,0.0152
824.00,0.0150
823.00,0.0146
822.00,0.0142
821.00,0.0139
820.00,0.0138
819.00,0.0138
818.00,0.0141
817.00,0.0147
816.00,0.0155
815.00,0.0165
814.00,0.0176
813.00,0.0189
812.00,0.0202
811.00,0.0215
810.00,0.0225
809.00,0.0230
808.00,0.0228
807.00,0.0219
806.00,0.0205
805.00,0.0189
804.00,0.0174
803.00,0.0162
802.00,0.0153
801.00,0.0146
800.00,0.0141
799.00,0.0136
798.00,0.0131
797.00,0.0126
796.00,0.0121
795.00,0.0116
794.00,0.0112
793.00,0.0109
792.00,0.0107
791.00,0.0107
790.00,0.0107
789.00,0.0105
788.00,0.0102
787.00,0.0099
786.00,0.0096
785.00,0.0094
784.00,0.0092
783.00,0.0091
782.00,0.0089
781.00,0.0086
780.00,0.0084
779.00,0.0082
778.00,0.0081
777.00,0.0083
776.00,0.0085
775.00,0.0088
774.00,0.0091
773.00,0.0093
772.00,0.0095
771.00,0.0098
770.00,0.0101
769.00,0.0105
768.00,0.0108
767.00,0.0108
766.00,0.0107
765.00,0.0106
764.00,0.0104
763.00,0.0101
762.00,0.0098
761.00,0.0095
760.00,0.0093
759.00,0.0091
758.00,0.0090
757.00,0.0089
756.00,0.0087
755.00,0.0086
754.00,0.0086
753.00,0.0086
752.00,0.0086
751.00,0.0086
750.00,0.0087
749.00,0.0088
748.00,0.0088
747.00,0.0088
746.00,0.0088
745.00,0.0087
744.00,0.0087
743.00,0.0088
742.00,0.0089
741.00,0.0091
740.00,0.0093
739.00,0.0095
738.00,0.0098
737.00,0.0100
736.00,0.0103
735.00,0.0106
734.00,0.0107
733.00,0.0107
732.00,0.0107
731.00,0.0107
730.00,0.0108
729.00,0.0109
728.00,0.0109
727.00,0.0108
726.00,0.0107
725.00,0.0106
724.00,0.0107
723.00,0.0107
722.00,0.0107
721.00,0.0107
720.00,0.0106
719.00,0.0105
718.00,0.0103
717.00,0.0100
716.00,0.0096
715.00,0.0093
714.00,0.0092
713.00,0.0093
712.00,0.0094
711.00,0.0093
710.00,0.0092
709.00,0.0091
708.00,0.0091
707.00,0.0091
706.00,0.0091
705.00,0.0091
704.00,0.0093
703.00,0.0094
702.00,0.0094
701.00,0.0093
700.00,0.0089
699.00,0.0085
698.00,0.0082
697.00,0.0081
696.00,0.0082
695.00,0.0083
694.00,0.0083
693.00,0.0083
692.00,0.0083
691.00,0.0083
690.00,0.0085
689.00,0.0087
688.00,0.0087
687.00,0.0086
686.00,0.0084
685.00,0.0083
684.00,0.0083
683.00,0.0084
682.00,0.0084
681.00,0.0083
680.00,0.0083
679.00,0.0085
678.00,0.0087
677.00,0.0088
676.00,0.0087
675.00,0.0086
674.00,0.0086
673.00,0.0087
672.00,0.0088
671.00,0.0087
670.00,0.0084
669.00,0.0081
668.00,0.0082
667.00,0.0086
666.00,0.0089
665.00,0.0089
664.00,0.0088
663.00,0.0085
662.00,0.0083
661.00,0.0083
660.00,0.0084
659.00,0.0086
658.00,0.0087
657.00,0.0088
656.00,0.0087
655.00,0.0084
654.00,0.0080
653.00,0.0077
652.00,0.0075
651.00,0.0076
650.00,0.0079
649.00,0.0082
648.00,0.0084
647.00,0.0086
646.00,0.0087
645.00,0.0089
644.00,0.0092
643.00,0.0094
642.00,0.0094
641.00,0.0092
640.00,0.0089
639.00,0.0088
638.00,0.0087
637.00,0.0087
636.00,0.0087
635.00,0.0086
634.00,0.0086
633.00,0.0085
632.00,0.0084
631.00,0.0083
630.00,0.0083
629.00,0.0083
628.00,0.0082
627.00,0.0081
626.00,0.0080
625.00,0.0082
624.00,0.0086
623.00,0.0089
622.00,0.0091
621.00,0.0092
620.00,0.0092
619.00,0.0090
618.00,0.0087
617.00,0.0084
616.00,0.0083
615.00,0.0085
614.00,0.0087
613.00,0.0087
612.00,0.0087
611.00,0.0087
610.00,0.0089
609.00,0.0093
608.00,0.0095
607.00,0.0095
606.00,0.0092
605.00,0.0089
604.00,0.0087
603.00,0.0089
602.00,0.0090
601.00,0.0090
600.00,0.0088
599.00,0.0086
598.00,0.0086
597.00,0.0088
596.00,0.0091
595.00,0.0091
594.00,0.0089
593.00,0.0087
592.00,0.0086
591.00,0.0086
590.00,0.0087
589.00,0.0088
588.00,0.0089
587.00,0.0090
586.00,0.0093
585.00,0.0094
584.00,0.0094
583.00,0.0094
582.00,0.0095
581.00,0.0097
580.00,0.0098
579.00,0.0098
578.00,0.0095
577.00,0.0091
576.00,0.0088
575.00,0.0088
574.00,0.0089
573.00,0.0090
572.00,0.0091
571.00,0.0091
570.00,0.0092
569.00,0.0091
568.00,0.0090
567.00,0.0090
566.00,0.0090
565.00,0.0091
564.00,0.0091
563.00,0.0092
562.00,0.0093
561.00,0.0095
560.00,0.0096
559.00,0.0095
558.00,0.0095
557.00,0.0097
556.00,0.0097
555.00,0.0095
554.00,0.0092
553.00,0.0090
552.00,0.0091
551.00,0.0093
550.00,0.0093
549.00,0.0091
548.00,0.0090
547.00,0.0090
546.00,0.0092
545.00,0.0093
544.00,0.0094
543.00,0.0096
542.00,0.0097
541.00,0.0100
540.00,0.0103
539.00,0.0104
538.00,0.0103
537.00,0.0101
536.00,0.0099
535.00,0.0100
534.00,0.0103
533.00,0.0105
532.00,0.0105
531.00,0.0105
530.00,0.0110
529.00,0.0117
528.00,0.0122
527.00,0.0123
526.00,0.0119
525.00,0.0115
524.00,0.0113
523.00,0.0111
522.00,0.0109
521.00,0.0104
520.00,0.0100
519.00,0.0098
518.00,0.0101
517.00,0.0106
516.00,0.0109
515.00,0.0108
514.00,0.0106
513.00,0.0105
512.00,0.0106
511.00,0.0107
510.00,0.0107
509.00,0.0106
508.00,0.0106
507.00,0.0106
506.00,0.0105
505.00,0.0103
504.00,0.0101
503.00,0.0097
502.00,0.0094
501.00,0.0092
500.00,0.0091
499.00,0.0093
498.00,0.0097
497.00,0.0102
496.00,0.0105
495.00,0.0105
494.00,0.0103
493.00,0.0101
492.00,0.0102
491.00,0.0102
490.00,0.0098
489.00,0.0087
488.00,0.0077
487.00,0.0071
486.00,0.0070
485.00,0.0072
484.00,0.0075
483.00,0.0080
482.00,0.0085
481.00,0.0087
480.00,0.0085
479.00,0.0083
478.00,0.0084
477.00,0.0091
476.00,0.0099
475.00,0.0106
474.00,0.0112
473.00,0.0117
472.00,0.0119
471.00,0.0120
470.00,0.0120
469.00,0.0121
468.00,0.0123
467.00,0.0125
466.00,0.0127
465.00,0.0130
464.00,0.0135
463.00,0.0139
462.00,0.0143
461.00,0.0151
460.00,0.0164
459.00,0.0179
458.00,0.0186
457.00,0.0181
456.00,0.0172
455.00,0.0166
454.00,0.0161
453.00,0.0156
452.00,0.0144
451.00,0.0129
450.00,0.0116
