Created as New Dataset,Sample 027 By Administrator Date Wednesday, September 10 2025
cm-1,A
4000.00,0.0010
3999.00,0.0010
3998.00,0.0010
3997.00,0.0010
3996.00,0.0010
3995.00,0.0010
3994.00,0.0011
3993.00,0.0011
3992.00,0.0011
3991.00,0.0011
3990.00,0.0011
3989.00,0.0011
3988.00,0.0011
3987.00,0.0010
3986.00,0.0010
3985.00,0.0009
3984.00,0.0009
3983.00,0.0009
3982.00,0.0009
3981.00,0.0009
3980.00,0.0009
3979.00,0.0009
3978.00,0.0009
3977.00,0.0009
3976.00,0.0009
3975.00,0.0009
3974.00,0.0009
3973.00,0.0008
3972.00,0.0008
3971.00,0.0008
3970.00,0.0008
3969.00,0.0008
3968.00,0.0008
3967.00,0.0008
3966.00,0.0009
3965.00,0.0009
3964.00,0.0008
3963.00,0.0008
3962.00,0.0008
3961.00,0.0008
3960.00,0.0008
3959.00,0.0008
3958.00,0.0008
3957.00,0.0007
3956.00,0.0007
3955.00,0.0007
3954.00,0.0008
3953.00,0.0008
3952.00,0.0008
3951.00,0.0008
3950.00,0.0008
3949.00,0.0008
3948.00,0.0008
3947.00,0.0008
3946.00,0.0008
3945.00,0.0008
3944.00,0.0008
3943.00,0.0008
3942.00,0.0008
3941.00,0.0008
3940.00,0.0008
3939.00,0.0009
3938.00,0.0009
3937.00,0.0009
3936.00,0.0009
3935.00,0.0009
3934.00,0.0009
3933.00,0.0009
3932.00,0.0009
3931.00,0.0009
3930.00,0.0009
3929.00,0.0008
3928.00,0.0008
3927.00,0.0008
3926.00,0.0008
3925.00,0.0008
3924.00,0.0009
3923.00,0.0009
3922.00,0.0009
3921.00,0.0009
3920.00,0.0009
3919.00,0.0008
3918.00,0.0008
3917.00,0.0008
3916.00,0.0008
3915.00,0.0008
3914.00,0.0008
3913.00,0.0008
3912.00,0.0008
3911.00,0.0008
3910.00,0.0008
3909.00,0.0008
3908.00,0.0008
3907.00,0.0008
3906.00,0.0007
3905.00,0.0007
3904.00,0.0007
3903.00,0.0007
3902.00,0.0006
3901.00,0.0006
3900.00,0.0006
3899.00,0.0006
3898.00,0.0007
3897.00,0.0007
3896.00,0.0007
3895.00,0.0007
3894.00,0.0007
3893.00,0.0007
3892.00,0.0007
3891.00,0.0008
3890.00,0.0008
3889.00,0.0007
3888.00,0.0007
3887.00,0.0007
3886.00,0.0007
3885.00,0.0007
3884.00,0.0007
3883.00,0.0007
3882.00,0.0007
3881.00,0.0007
3880.00,0.0008
3879.00,0.0008
3878.00,0.0008
3877.00,0.0007
3876.00,0.0007
3875.00,0.0007
3874.00,0.0007
3873.00,0.0007
3872.00,0.0006
3871.00,0.0005
3870.00,0.0006
3869.00,0.0006
3868.00,0.0006
3867.00,0.0006
3866.00,0.0006
3865.00,0.0006
3864.00,0.0006
3863.00,0.0006
3862.00,0.0005
3861.00,0.0005
3860.00,0.0006
3859.00,0.0006
3858.00,0.0006
3857.00,0.0005
3856.00,0.0005
3855.00,0.0006
3854.00,0.0006
3853.00,0.0005
3852.00,0.0005
3851.00,0.0005
3850.00,0.0005
3849.00,0.0006
3848.00,0.0006
3847.00,0.0006
3846.00,0.0006
3845.00,0.0006
3844.00,0.0007
3843.00,0.0006
3842.00,0.0006
3841.00,0.0006
3840.00,0.0006
3839.00,0.0006
3838.00,0.0006
3837.00,0.0006
3836.00,0.0006
3835.00,0.0006
3834.00,0.0006
3833.00,0.0006
3832.00,0.0006
3831.00,0.0007
3830.00,0.0007
3829.00,0.0006
3828.00,0.0006
3827.00,0.0006
3826.00,0.0006
3825.00,0.0006
3824.00,0.0006
3823.00,0.0005
3822.00,0.0006
3821.00,0.0006
3820.00,0.0006
3819.00,0.0005
3818.00,0.0005
3817.00,0.0005
3816.00,0.0006
3815.00,0.0006
3814.00,0.0006
3813.00,0.0007
3812.00,0.0007
3811.00,0.0007
3810.00,0.0007
3809.00,0.0007
3808.00,0.0007
3807.00,0.0007
3806.00,0.0007
3805.00,0.0006
3804.00,0.0006
3803.00,0.0006
3802.00,0.0006
3801.00,0.0006
3800.00,0.0006
3799.00,0.0006
3798.00,0.0006
3797.00,0.0006
3796.00,0.0007
3795.00,0.0007
3794.00,0.0007
3793.00,0.0007
3792.00,0.0007
3791.00,0.0007
3790.00,0.0007
3789.00,0.0007
3788.00,0.0007
3787.00,0.0006
3786.00,0.0006
3785.00,0.0006
3784.00,0.0006
3783.00,0.0007
3782.00,0.0007
3781.00,0.0007
3780.00,0.0008
3779.00,0.0008
3778.00,0.0008
3777.00,0.0008
3776.00,0.0008
3775.00,0.0009
3774.00,0.0009
3773.00,0.0009
3772.00,0.0008
3771.00,0.0008
3770.00,0.0008
3769.00,0.0008
3768.00,0.0007
3767.00,0.0007
3766.00,0.0007
3765.00,0.0008
3764.00,0.0008
3763.00,0.0008
3762.00,0.0008
3761.00,0.0008
3760.00,0.0008
3759.00,0.0008
3758.00,0.0008
3757.00,0.0008
3756.00,0.0008
3755.00,0.0007
3754.00,0.0007
3753.00,0.0007
3752.00,0.0007
3751.00,0.0007
3750.00,0.0008
3749.00,0.0007
3748.00,0.0007
3747.00,0.0006
3746.00,0.0006
3745.00,0.0006
3744.00,0.0006
3743.00,0.0006
3742.00,0.0006
3741.00,0.0005
3740.00,0.0005
3739.00,0.0005
3738.00,0.0005
3737.00,0.0006
3736.00,0.0006
3735.00,0.0006
3734.00,0.0005
3733.00,0.0004
3732.00,0.0004
3731.00,0.0005
3730.00,0.0005
3729.00,0.0005
3728.00,0.0005
3727.00,0.0006
3726.00,0.0006
3725.00,0.0006
3724.00,0.0005
3723.00,0.0005
3722.00,0.0005
3721.00,0.0005
3720.00,0.0005
3719.00,0.0006
3718.00,0.0006
3717.00,0.0006
3716.00,0.0006
3715.00,0.0005
3714.00,0.0005
3713.00,0.0005
3712.00,0.0005
3711.00,0.0004
3710.00,0.0004
3709.00,0.0004
3708.00,0.0005
3707.00,0.0005
3706.00,0.0006
3705.00,0.0006
3704.00,0.0006
3703.00,0.0006
3702.00,0.0006
3701.00,0.0005
3700.00,0.0005
3699.00,0.0005
3698.00,0.0005
3697.00,0.0005
3696.00,0.0006
3695.00,0.0006
3694.00,0.0005
3693.00,0.0005
3692.00,0.0005
3691.00,0.0005
3690.00,0.0005
3689.00,0.0005
3688.00,0.0005
3687.00,0.0006
3686.00,0.0006
3685.00,0.0007
3684.00,0.0007
3683.00,0.0007
3682.00,0.0007
3681.00,0.0006
3680.00,0.0006
3679.00,0.0006
3678.00,0.0005
3677.00,0.0006
3676.00,0.0006
3675.00,0.0005
3674.00,0.0005
3673.00,0.0005
3672.00,0.0005
3671.00,0.0005
3670.00,0.0006
3669.00,0.0006
3668.00,0.0006
3667.00,0.0006
3666.00,0.0006
3665.00,0.0006
3664.00,0.0006
3663.00,0.0006
3662.00,0.0007
3661.00,0.0007
3660.00,0.0007
3659.00,0.0007
3658.00,0.0007
3657.00,0.0007
3656.00,0.0007
3655.00,0.0007
3654.00,0.0007
3653.00,0.0007
3652.00,0.0007
3651.00,0.0007
3650.00,0.0007
3649.00,0.0007
3648.00,0.0007
3647.00,0.0007
3646.00,0.0007
3645.00,0.0007
3644.00,0.0008
3643.00,0.0008
3642.00,0.0008
3641.00,0.0008
3640.00,0.0008
3639.00,0.0008
3638.00,0.0009
3637.00,0.0009
3636.00,0.0008
3635.00,0.0008
3634.00,0.0007
3633.00,0.0007
3632.00,0.0007
3631.00,0.0007
3630.00,0.0007
3629.00,0.0007
3628.00,0.0007
3627.00,0.0007
3626.00,0.0007
3625.00,0.0008
3624.00,0.0008
3623.00,0.0008
3622.00,0.0008
3621.00,0.0008
3620.00,0.0009
3619.00,0.0009
3618.00,0.0009
3617.00,0.0009
3616.00,0.0009
3615.00,0.0009
3614.00,0.0009
3613.00,0.0009
3612.00,0.0009
3611.00,0.0009
3610.00,0.0009
3609.00,0.0009
3608.00,0.0009
3607.00,0.0010
3606.00,0.0010
3605.00,0.0010
3604.00,0.0010
3603.00,0.0010
3602.00,0.0011
3601.00,0.0011
3600.00,0.0011
3599.00,0.0011
3598.00,0.0011
3597.00,0.0011
3596.00,0.0012
3595.00,0.0012
3594.00,0.0013
3593.00,0.0013
3592.00,0.0013
3591.00,0.0013
3590.00,0.0013
3589.00,0.0013
3588.00,0.0013
3587.00,0.0013
3586.00,0.0014
3585.00,0.0014
3584.00,0.0014
3583.00,0.0014
3582.00,0.0015
3581.00,0.0015
3580.00,0.0015
3579.00,0.0016
3578.00,0.0016
3577.00,0.0016
3576.00,0.0017
3575.00,0.0016
3574.00,0.0016
3573.00,0.0016
3572.00,0.0016
3571.00,0.0017
3570.00,0.0018
3569.00,0.0019
3568.00,0.0019
3567.00,0.0019
3566.00,0.0018
3565.00,0.0018
3564.00,0.0018
3563.00,0.0018
3562.00,0.0018
3561.00,0.0019
3560.00,0.0019
3559.00,0.0019
3558.00,0.0019
3557.00,0.0019
3556.00,0.0020
3555.00,0.0020
3554.00,0.0020
3553.00,0.0021
3552.00,0.0021
3551.00,0.0021
3550.00,0.0021
3549.00,0.0022
3548.00,0.0023
3547.00,0.0023
3546.00,0.0024
3545.00,0.0024
3544.00,0.0025
3543.00,0.0025
3542.00,0.0025
3541.00,0.0025
3540.00,0.0026
3539.00,0.0026
3538.00,0.0026
3537.00,0.0026
3536.00,0.0027
3535.00,0.0027
3534.00,0.0027
3533.00,0.0027
3532.00,0.0027
3531.00,0.0027
3530.00,0.0027
3529.00,0.0027
3528.00,0.0028
3527.00,0.0028
3526.00,0.0029
3525.00,0.0029
3524.00,0.0030
3523.00,0.0030
3522.00,0.0030
3521.00,0.0030
3520.00,0.0030
3519.00,0.0030
3518.00,0.0030
3517.00,0.0030
3516.00,0.0031
3515.00,0.0031
3514.00,0.0031
3513.00,0.0031
3512.00,0.0032
3511.00,0.0032
3510.00,0.0032
3509.00,0.0032
3508.00,0.0032
3507.00,0.0033
3506.00,0.0033
3505.00,0.0033
3504.00,0.0034
3503.00,0.0034
3502.00,0.0035
3501.00,0.0035
3500.00,0.0035
3499.00,0.0035
3498.00,0.0035
3497.00,0.0035
3496.00,0.0036
3495.00,0.0037
3494.00,0.0038
3493.00,0.0038
3492.00,0.0038
3491.00,0.0038
3490.00,0.0038
3489.00,0.0038
3488.00,0.0038
3487.00,0.0038
3486.00,0.0039
3485.00,0.0039
3484.00,0.0039
3483.00,0.0040
3482.00,0.0040
3481.00,0.0040
3480.00,0.0041
3479.00,0.0041
3478.00,0.0041
3477.00,0.0041
3476.00,0.0041
3475.00,0.0041
3474.00,0.0041
3473.00,0.0041
3472.00,0.0041
3471.00,0.0041
3470.00,0.0041
3469.00,0.0041
3468.00,0.0042
3467.00,0.0042
3466.00,0.0042
3465.00,0.0043
3464.00,0.0043
3463.00,0.0044
3462.00,0.0044
3461.00,0.0045
3460.00,0.0045
3459.00,0.0045
3458.00,0.0045
3457.00,0.0045
3456.00,0.0045
3455.00,0.0045
3454.00,0.0045
3453.00,0.0045
3452.00,0.0045
3451.00,0.0046
3450.00,0.0046
3449.00,0.0047
3448.00,0.0047
3447.00,0.0047
3446.00,0.0047
3445.00,0.0047
3444.00,0.0048
3443.00,0.0048
3442.00,0.0049
3441.00,0.0050
3440.00,0.0050
3439.00,0.0050
3438.00,0.0051
3437.00,0.0051
3436.00,0.0051
3435.00,0.0051
3434.00,0.0051
3433.00,0.0051
3432.00,0.0051
3431.00,0.0051
3430.00,0.0052
3429.00,0.0052
3428.00,0.0053
3427.00,0.0053
3426.00,0.0053
3425.00,0.0053
3424.00,0.0053
3423.00,0.0053
3422.00,0.0053
3421.00,0.0054
3420.00,0.0054
3419.00,0.0054
3418.00,0.0055
3417.00,0.0055
3416.00,0.0055
3415.00,0.0055
3414.00,0.0056
3413.00,0.0056
3412.00,0.0057
3411.00,0.0057
3410.00,0.0057
3409.00,0.0057
3408.00,0.0057
3407.00,0.0057
3406.00,0.0057
3405.00,0.0057
3404.00,0.0057
3403.00,0.0057
3402.00,0.0057
3401.00,0.0057
3400.00,0.0058
3399.00,0.0058
3398.00,0.0058
3397.00,0.0058
3396.00,0.0058
3395.00,0.0058
3394.00,0.0058
3393.00,0.0058
3392.00,0.0058
3391.00,0.0058
3390.00,0.0058
3389.00,0.0059
3388.00,0.0059
3387.00,0.0059
3386.00,0.0059
3385.00,0.0059
3384.00,0.0059
3383.00,0.0059
3382.00,0.0059
3381.00,0.0059
3380.00,0.0059
3379.00,0.0059
3378.00,0.0059
3377.00,0.0060
3376.00,0.0060
3375.00,0.0060
3374.00,0.0059
3373.00,0.0060
3372.00,0.0060
3371.00,0.0060
3370.00,0.0060
3369.00,0.0060
3368.00,0.0060
3367.00,0.0059
3366.00,0.0059
3365.00,0.0060
3364.00,0.0060
3363.00,0.0061
3362.00,0.0061
3361.00,0.0062
3360.00,0.0062
3359.00,0.0062
3358.00,0.0062
3357.00,0.0061
3356.00,0.0061
3355.00,0.0061
3354.00,0.0061
3353.00,0.0061
3352.00,0.0061
3351.00,0.0061
3350.00,0.0061
3349.00,0.0061
3348.00,0.0061
3347.00,0.0061
3346.00,0.0061
3345.00,0.0062
3344.00,0.0062
3343.00,0.0062
3342.00,0.0062
3341.00,0.0062
3340.00,0.0062
3339.00,0.0061
3338.00,0.0061
3337.00,0.0062
3336.00,0.0062
3335.00,0.0062
3334.00,0.0062
3333.00,0.0062
3332.00,0.0062
3331.00,0.0062
3330.00,0.0062
3329.00,0.0062
3328.00,0.0062
3327.00,0.0063
3326.00,0.0063
3325.00,0.0063
3324.00,0.0062
3323.00,0.0062
3322.00,0.0062
3321.00,0.0061
3320.00,0.0061
3319.00,0.0061
3318.00,0.0061
3317.00,0.0061
3316.00,0.0061
3315.00,0.0061
3314.00,0.0061
3313.00,0.0061
3312.00,0.0061
3311.00,0.0061
3310.00,0.0061
3309.00,0.0061
3308.00,0.0061
3307.00,0.0061
3306.00,0.0061
3305.00,0.0061
3304.00,0.0061
3303.00,0.0061
3302.00,0.0061
3301.00,0.0061
3300.00,0.0061
3299.00,0.0061
3298.00,0.0061
3297.00,0.0061
3296.00,0.0060
3295.00,0.0060
3294.00,0.0060
3293.00,0.0061
3292.00,0.0061
3291.00,0.0061
3290.00,0.0061
3289.00,0.0060
3288.00,0.0060
3287.00,0.0060
3286.00,0.0060
3285.00,0.0060
3284.00,0.0059
3283.00,0.0059
3282.00,0.0059
3281.00,0.0059
3280.00,0.0059
3279.00,0.0059
3278.00,0.0059
3277.00,0.0058
3276.00,0.0058
3275.00,0.0058
3274.00,0.0058
3273.00,0.0058
3272.00,0.0058
3271.00,0.0057
3270.00,0.0057
3269.00,0.0057
3268.00,0.0057
3267.00,0.0057
3266.00,0.0057
3265.00,0.0056
3264.00,0.0056
3263.00,0.0056
3262.00,0.0055
3261.00,0.0055
3260.00,0.0055
3259.00,0.0055
3258.00,0.0055
3257.00,0.0055
3256.00,0.0055
3255.00,0.0054
3254.00,0.0054
3253.00,0.0053
3252.00,0.0053
3251.00,0.0053
3250.00,0.0053
3249.00,0.0052
3248.00,0.0052
3247.00,0.0052
3246.00,0.0052
3245.00,0.0052
3244.00,0.0052
3243.00,0.0052
3242.00,0.0052
3241.00,0.0052
3240.00,0.0052
3239.00,0.0051
3238.00,0.0051
3237.00,0.0051
3236.00,0.0052
3235.00,0.0052
3234.00,0.0052
3233.00,0.0052
3232.00,0.0052
3231.00,0.0052
3230.00,0.0052
3229.00,0.0052
3228.00,0.0052
3227.00,0.0052
3226.00,0.0053
3225.00,0.0053
3224.00,0.0054
3223.00,0.0054
3222.00,0.0054
3221.00,0.0054
3220.00,0.0054
3219.00,0.0054
3218.00,0.0054
3217.00,0.0054
3216.00,0.0055
3215.00,0.0055
3214.00,0.0055
3213.00,0.0055
3212.00,0.0055
3211.00,0.0055
3210.00,0.0055
3209.00,0.0055
3208.00,0.0056
3207.00,0.0056
3206.00,0.0056
3205.00,0.0056
3204.00,0.0056
3203.00,0.0056
3202.00,0.0056
3201.00,0.0056
3200.00,0.0056
3199.00,0.0056
3198.00,0.0056
3197.00,0.0056
3196.00,0.0056
3195.00,0.0057
3194.00,0.0057
3193.00,0.0057
3192.00,0.0056
3191.00,0.0056
3190.00,0.0056
3189.00,0.0055
3188.00,0.0055
3187.00,0.0055
3186.00,0.0054
3185.00,0.0054
3184.00,0.0054
3183.00,0.0054
3182.00,0.0054
3181.00,0.0053
3180.00,0.0053
3179.00,0.0053
3178.00,0.0053
3177.00,0.0052
3176.00,0.0052
3175.00,0.0051
3174.00,0.0051
3173.00,0.0050
3172.00,0.0050
3171.00,0.0050
3170.00,0.0050
3169.00,0.0049
3168.00,0.0049
3167.00,0.0049
3166.00,0.0049
3165.00,0.0049
3164.00,0.0049
3163.00,0.0048
3162.00,0.0048
3161.00,0.0048
3160.00,0.0048
3159.00,0.0048
3158.00,0.0047
3157.00,0.0047
3156.00,0.0047
3155.00,0.0047
3154.00,0.0047
3153.00,0.0047
3152.00,0.0047
3151.00,0.0047
3150.00,0.0047
3149.00,0.0047
3148.00,0.0048
3147.00,0.0047
3146.00,0.0047
3145.00,0.0047
3144.00,0.0046
3143.00,0.0046
3142.00,0.0045
3141.00,0.0045
3140.00,0.0045
3139.00,0.0045
3138.00,0.0044
3137.00,0.0044
3136.00,0.0044
3135.00,0.0044
3134.00,0.0044
3133.00,0.0044
3132.00,0.0044
3131.00,0.0044
3130.00,0.0044
3129.00,0.0043
3128.00,0.0043
3127.00,0.0042
3126.00,0.0042
3125.00,0.0042
3124.00,0.0041
3123.00,0.0041
3122.00,0.0041
3121.00,0.0040
3120.00,0.0040
3119.00,0.0039
3118.00,0.0039
3117.00,0.0039
3116.00,0.0039
3115.00,0.0039
3114.00,0.0039
3113.00,0.0039
3112.00,0.0039
3111.00,0.0039
3110.00,0.0039
3109.00,0.0038
3108.00,0.0038
3107.00,0.0039
3106.00,0.0039
3105.00,0.0039
3104.00,0.0038
3103.00,0.0038
3102.00,0.0038
3101.00,0.0038
3100.00,0.0037
3099.00,0.0037
3098.00,0.0037
3097.00,0.0037
3096.00,0.0037
3095.00,0.0037
3094.00,0.0038
3093.00,0.0037
3092.00,0.0037
3091.00,0.0037
3090.00,0.0036
3089.00,0.0036
3088.00,0.0036
3087.00,0.0036
3086.00,0.0036
3085.00,0.0036
3084.00,0.0036
3083.00,0.0035
3082.00,0.0035
3081.00,0.0035
3080.00,0.0035
3079.00,0.0035
3078.00,0.0035
3077.00,0.0034
3076.00,0.0034
3075.00,0.0034
3074.00,0.0035
3073.00,0.0035
3072.00,0.0035
3071.00,0.0036
3070.00,0.0036
3069.00,0.0037
3068.00,0.0037
3067.00,0.0037
3066.00,0.0037
3065.00,0.0037
3064.00,0.0037
3063.00,0.0037
3062.00,0.0038
3061.00,0.0038
3060.00,0.0038
3059.00,0.0038
3058.00,0.0038
3057.00,0.0038
3056.00,0.0038
3055.00,0.0038
3054.00,0.0038
3053.00,0.0038
3052.00,0.0038
3051.00,0.0038
3050.00,0.0038
3049.00,0.0039
3048.00,0.0039
3047.00,0.0040
3046.00,0.0040
3045.00,0.0040
3044.00,0.0040
3043.00,0.0040
3042.00,0.0040
3041.00,0.0040
3040.00,0.0040
3039.00,0.0041
3038.00,0.0041
3037.00,0.0041
3036.00,0.0042
3035.00,0.0042
3034.00,0.0042
3033.00,0.0042
3032.00,0.0042
3031.00,0.0042
3030.00,0.0043
3029.00,0.0043
3028.00,0.0044
3027.00,0.0045
3026.00,0.0046
3025.00,0.0046
3024.00,0.0047
3023.00,0.0047
3022.00,0.0047
3021.00,0.0048
3020.00,0.0049
3019.00,0.0050
3018.00,0.0052
3017.00,0.0053
3016.00,0.0054
3015.00,0.0055
3014.00,0.0055
3013.00,0.0056
3012.00,0.0058
3011.00,0.0059
3010.00,0.0061
3009.00,0.0063
3008.00,0.0064
3007.00,0.0066
3006.00,0.0068
3005.00,0.0070
3004.00,0.0072
3003.00,0.0074
3002.00,0.0077
3001.00,0.0079
3000.00,0.0082
2999.00,0.0085
2998.00,0.0088
2997.00,0.0092
2996.00,0.0096
2995.00,0.0100
2994.00,0.0105
2993.00,0.0111
2992.00,0.0117
2991.00,0.0123
2990.00,0.0129
2989.00,0.0136
2988.00,0.0144
2987.00,0.0152
2986.00,0.0163
2985.00,0.0174
2984.00,0.0188
2983.00,0.0202
2982.00,0.0219
2981.00,0.0237
2980.00,0.0257
2979.00,0.0280
2978.00,0.0306
2977.00,0.0335
2976.00,0.0368
2975.00,0.0406
2974.00,0.0449
2973.00,0.0498
2972.00,0.0554
2971.00,0.0616
2970.00,0.0686
2969.00,0.0762
2968.00,0.0844
2967.00,0.0933
2966.00,0.1026
2965.00,0.1120
2964.00,0.1212
2963.00,0.1299
2962.00,0.1375
2961.00,0.1438
2960.00,0.1489
2959.00,0.1530
2958.00,0.1567
2957.00,0.1606
2956.00,0.1652
2955.00,0.1709
2954.00,0.1776
2953.00,0.1849
2952.00,0.1919
2951.00,0.1974
2950.00,0.2003
2949.00,0.1995
2948.00,0.1945
2947.00,0.1854
2946.00,0.1733
2945.00,0.1595
2944.00,0.1457
2943.00,0.1333
2942.00,0.1232
2941.00,0.1157
2940.00,0.1110
2939.00,0.1087
2938.00,0.1086
2937.00,0.1106
2936.00,0.1143
2935.00,0.1196
2934.00,0.1264
2933.00,0.1346
2932.00,0.1439
2931.00,0.1542
2930.00,0.1652
2929.00,0.1764
2928.00,0.1876
2927.00,0.1986
2926.00,0.2091
2925.00,0.2191
2924.00,0.2287
2923.00,0.2381
2922.00,0.2473
2921.00,0.2562
2920.00,0.2641
2919.00,0.2703
2918.00,0.2737
2917.00,0.2737
2916.00,0.2702
2915.00,0.2634
2914.00,0.2543
2913.00,0.2440
2912.00,0.2335
2911.00,0.2235
2910.00,0.2143
2909.00,0.2059
2908.00,0.1981
2907.00,0.1906
2906.00,0.1833
2905.00,0.1760
2904.00,0.1686
2903.00,0.1612
2902.00,0.1540
2901.00,0.1468
2900.00,0.1400
2899.00,0.1335
2898.00,0.1276
2897.00,0.1223
2896.00,0.1176
2895.00,0.1136
2894.00,0.1104
2893.00,0.1079
2892.00,0.1061
2891.00,0.1050
2890.00,0.1044
2889.00,0.1044
2888.00,0.1047
2887.00,0.1055
2886.00,0.1066
2885.00,0.1082
2884.00,0.1101
2883.00,0.1126
2882.00,0.1155
2881.00,0.1186
2880.00,0.1218
2879.00,0.1245
2878.00,0.1264
2877.00,0.1271
2876.00,0.1268
2875.00,0.1260
2874.00,0.1251
2873.00,0.1247
2872.00,0.1251
2871.00,0.1264
2870.00,0.1284
2869.00,0.1305
2868.00,0.1319
2867.00,0.1318
2866.00,0.1293
2865.00,0.1241
2864.00,0.1164
2863.00,0.1070
2862.00,0.0971
2861.00,0.0877
2860.00,0.0794
2859.00,0.0728
2858.00,0.0677
2857.00,0.0640
2856.00,0.0615
2855.00,0.0599
2854.00,0.0592
2853.00,0.0593
2852.00,0.0601
2851.00,0.0615
2850.00,0.0635
2849.00,0.0662
2848.00,0.0696
2847.00,0.0738
2846.00,0.0788
2845.00,0.0848
2844.00,0.0917
2843.00,0.0992
2842.00,0.1069
2841.00,0.1142
2840.00,0.1203
2839.00,0.1243
2838.00,0.1254
2837.00,0.1230
2836.00,0.1171
2835.00,0.1082
2834.00,0.0975
2833.00,0.0861
2832.00,0.0752
2831.00,0.0655
2830.00,0.0573
2829.00,0.0506
2828.00,0.0452
2827.00,0.0408
2826.00,0.0373
2825.00,0.0343
2824.00,0.0319
2823.00,0.0299
2822.00,0.0281
2821.00,0.0266
2820.00,0.0253
2819.00,0.0242
2818.00,0.0232
2817.00,0.0223
2816.00,0.0215
2815.00,0.0209
2814.00,0.0203
2813.00,0.0197
2812.00,0.0191
2811.00,0.0185
2810.00,0.0180
2809.00,0.0174
2808.00,0.0168
2807.00,0.0162
2806.00,0.0155
2805.00,0.0148
2804.00,0.0142
2803.00,0.0135
2802.00,0.0130
2801.00,0.0125
2800.00,0.0121
2799.00,0.0118
2798.00,0.0115
2797.00,0.0113
2796.00,0.0111
2795.00,0.0109
2794.00,0.0107
2793.00,0.0104
2792.00,0.0100
2791.00,0.0097
2790.00,0.0093
2789.00,0.0090
2788.00,0.0087
2787.00,0.0084
2786.00,0.0082
2785.00,0.0079
2784.00,0.0077
2783.00,0.0074
2782.00,0.0072
2781.00,0.0070
2780.00,0.0069
2779.00,0.0067
2778.00,0.0066
2777.00,0.0065
2776.00,0.0063
2775.00,0.0062
2774.00,0.0061
2773.00,0.0060
2772.00,0.0059
2771.00,0.0058
2770.00,0.0058
2769.00,0.0058
2768.00,0.0057
2767.00,0.0057
2766.00,0.0057
2765.00,0.0057
2764.00,0.0056
2763.00,0.0056
2762.00,0.0056
2761.00,0.0056
2760.00,0.0056
2759.00,0.0055
2758.00,0.0055
2757.00,0.0055
2756.00,0.0054
2755.00,0.0054
2754.00,0.0054
2753.00,0.0054
2752.00,0.0054
2751.00,0.0054
2750.00,0.0054
2749.00,0.0054
2748.00,0.0054
2747.00,0.0054
2746.00,0.0055
2745.00,0.0055
2744.00,0.0056
2743.00,0.0057
2742.00,0.0058
2741.00,0.0059
2740.00,0.0061
2739.00,0.0062
2738.00,0.0064
2737.00,0.0065
2736.00,0.0067
2735.00,0.0068
2734.00,0.0070
2733.00,0.0071
2732.00,0.0073
2731.00,0.0075
2730.00,0.0077
2729.00,0.0080
2728.00,0.0082
2727.00,0.0085
2726.00,0.0088
2725.00,0.0091
2724.00,0.0093
2723.00,0.0094
2722.00,0.0093
2721.00,0.0091
2720.00,0.0088
2719.00,0.0084
2718.00,0.0081
2717.00,0.0078
2716.00,0.0074
2715.00,0.0072
2714.00,0.0069
2713.00,0.0066
2712.00,0.0064
2711.00,0.0062
2710.00,0.0061
2709.00,0.0059
2708.00,0.0057
2707.00,0.0056
2706.00,0.0054
2705.00,0.0053
2704.00,0.0051
2703.00,0.0051
2702.00,0.0050
2701.00,0.0050
2700.00,0.0049
2699.00,0.0048
2698.00,0.0048
2697.00,0.0048
2696.00,0.0047
2695.00,0.0047
2694.00,0.0047
2693.00,0.0046
2692.00,0.0046
2691.00,0.0046
2690.00,0.0046
2689.00,0.0046
2688.00,0.0046
2687.00,0.0047
2686.00,0.0047
2685.00,0.0047
2684.00,0.0047
2683.00,0.0047
2682.00,0.0047
2681.00,0.0047
2680.00,0.0047
2679.00,0.0047
2678.00,0.0047
2677.00,0.0048
2676.00,0.0048
2675.00,0.0048
2674.00,0.0047
2673.00,0.0047
2672.00,0.0047
2671.00,0.0047
2670.00,0.0046
2669.00,0.0046
2668.00,0.0046
2667.00,0.0047
2666.00,0.0047
2665.00,0.0047
2664.00,0.0048
2663.00,0.0048
2662.00,0.0049
2661.00,0.0049
2660.00,0.0049
2659.00,0.0049
2658.00,0.0049
2657.00,0.0049
2656.00,0.0049
2655.00,0.0048
2654.00,0.0048
2653.00,0.0047
2652.00,0.0047
2651.00,0.0046
2650.00,0.0046
2649.00,0.0045
2648.00,0.0045
2647.00,0.0044
2646.00,0.0044
2645.00,0.0044
2644.00,0.0044
2643.00,0.0043
2642.00,0.0042
2641.00,0.0042
2640.00,0.0041
2639.00,0.0041
2638.00,0.0040
2637.00,0.0040
2636.00,0.0039
2635.00,0.0039
2634.00,0.0039
2633.00,0.0039
2632.00,0.0040
2631.00,0.0040
2630.00,0.0041
2629.00,0.0041
2628.00,0.0041
2627.00,0.0041
2626.00,0.0041
2625.00,0.0042
2624.00,0.0042
2623.00,0.0043
2622.00,0.0043
2621.00,0.0043
2620.00,0.0043
2619.00,0.0043
2618.00,0.0042
2617.00,0.0042
2616.00,0.0042
2615.00,0.0041
2614.00,0.0041
2613.00,0.0041
2612.00,0.0041
2611.00,0.0041
2610.00,0.0040
2609.00,0.0039
2608.00,0.0038
2607.00,0.0037
2606.00,0.0037
2605.00,0.0036
2604.00,0.0035
2603.00,0.0035
2602.00,0.0034
2601.00,0.0034
2600.00,0.0034
2599.00,0.0034
2598.00,0.0034
2597.00,0.0034
2596.00,0.0034
2595.00,0.0034
2594.00,0.0035
2593.00,0.0035
2592.00,0.0036
2591.00,0.0036
2590.00,0.0036
2589.00,0.0036
2588.00,0.0037
2587.00,0.0038
2586.00,0.0040
2585.00,0.0041
2584.00,0.0042
2583.00,0.0043
2582.00,0.0043
2581.00,0.0043
2580.00,0.0042
2579.00,0.0040
2578.00,0.0039
2577.00,0.0038
2576.00,0.0037
2575.00,0.0037
2574.00,0.0036
2573.00,0.0035
2572.00,0.0034
2571.00,0.0032
2570.00,0.0031
2569.00,0.0030
2568.00,0.0028
2567.00,0.0027
2566.00,0.0026
2565.00,0.0025
2564.00,0.0025
2563.00,0.0024
2562.00,0.0024
2561.00,0.0025
2560.00,0.0025
2559.00,0.0025
2558.00,0.0025
2557.00,0.0025
2556.00,0.0024
2555.00,0.0024
2554.00,0.0023
2553.00,0.0023
2552.00,0.0024
2551.00,0.0024
2550.00,0.0023
2549.00,0.0023
2548.00,0.0022
2547.00,0.0022
2546.00,0.0021
2545.00,0.0020
2544.00,0.0019
2543.00,0.0019
2542.00,0.0018
2541.00,0.0017
2540.00,0.0017
2539.00,0.0017
2538.00,0.0017
2537.00,0.0018
2536.00,0.0018
2535.00,0.0018
2534.00,0.0017
2533.00,0.0017
2532.00,0.0018
2531.00,0.0018
2530.00,0.0017
2529.00,0.0017
2528.00,0.0016
2527.00,0.0016
2526.00,0.0016
2525.00,0.0016
2524.00,0.0017
2523.00,0.0017
2522.00,0.0017
2521.00,0.0016
2520.00,0.0015
2519.00,0.0014
2518.00,0.0014
2517.00,0.0014
2516.00,0.0014
2515.00,0.0014
2514.00,0.0013
2513.00,0.0012
2512.00,0.0012
2511.00,0.0012
2510.00,0.0013
2509.00,0.0013
2508.00,0.0013
2507.00,0.0013
2506.00,0.0012
2505.00,0.0012
2504.00,0.0012
2503.00,0.0012
2502.00,0.0012
2501.00,0.0013
2500.00,0.0013
2499.00,0.0014
2498.00,0.0014
2497.00,0.0013
2496.00,0.0013
2495.00,0.0012
2494.00,0.0012
2493.00,0.0012
2492.00,0.0011
2491.00,0.0011
2490.00,0.0011
2489.00,0.0011
2488.00,0.0011
2487.00,0.0011
2486.00,0.0011
2485.00,0.0011
2484.00,0.0011
2483.00,0.0011
2482.00,0.0011
2481.00,0.0011
2480.00,0.0011
2479.00,0.0012
2478.00,0.0012
2477.00,0.0012
2476.00,0.0012
2475.00,0.0011
2474.00,0.0011
2473.00,0.0011
2472.00,0.0011
2471.00,0.0011
2470.00,0.0011
2469.00,0.0011
2468.00,0.0011
2467.00,0.0010
2466.00,0.0010
2465.00,0.0010
2464.00,0.0011
2463.00,0.0011
2462.00,0.0012
2461.00,0.0012
2460.00,0.0012
2459.00,0.0012
2458.00,0.0012
2457.00,0.0012
2456.00,0.0012
2455.00,0.0012
2454.00,0.0013
2453.00,0.0013
2452.00,0.0013
2451.00,0.0013
2450.00,0.0013
2449.00,0.0013
2448.00,0.0013
2447.00,0.0012
2446.00,0.0012
2445.00,0.0012
2444.00,0.0012
2443.00,0.0012
2442.00,0.0011
2441.00,0.0011
2440.00,0.0011
2439.00,0.0012
2438.00,0.0012
2437.00,0.0013
2436.00,0.0014
2435.00,0.0014
2434.00,0.0014
2433.00,0.0014
2432.00,0.0014
2431.00,0.0014
2430.00,0.0013
2429.00,0.0013
2428.00,0.0013
2427.00,0.0012
2426.00,0.0013
2425.00,0.0013
2424.00,0.0013
2423.00,0.0013
2422.00,0.0013
2421.00,0.0013
2420.00,0.0012
2419.00,0.0012
2418.00,0.0012
2417.00,0.0012
2416.00,0.0011
2415.00,0.0011
2414.00,0.0010
2413.00,0.0010
2412.00,0.0010
2411.00,0.0011
2410.00,0.0011
2409.00,0.0011
2408.00,0.0011
2407.00,0.0010
2406.00,0.0010
2405.00,0.0009
2404.00,0.0009
2403.00,0.0009
2402.00,0.0010
2401.00,0.0010
2400.00,0.0010
2399.00,0.0010
2398.00,0.0010
2397.00,0.0010
2396.00,0.0010
2395.00,0.0010
2394.00,0.0009
2393.00,0.0009
2392.00,0.0010
2391.00,0.0010
2390.00,0.0010
2389.00,0.0010
2388.00,0.0009
2387.00,0.0009
2386.00,0.0008
2385.00,0.0008
2384.00,0.0008
2383.00,0.0007
2382.00,0.0006
2381.00,0.0005
2380.00,0.0005
2379.00,0.0004
2378.00,0.0005
2377.00,0.0005
2376.00,0.0005
2375.00,0.0006
2374.00,0.0006
2373.00,0.0006
2372.00,0.0005
2371.00,0.0005
2370.00,0.0005
2369.00,0.0005
2368.00,0.0005
2367.00,0.0006
2366.00,0.0006
2365.00,0.0005
2364.00,0.0005
2363.00,0.0004
2362.00,0.0004
2361.00,0.0004
2360.00,0.0005
2359.00,0.0006
2358.00,0.0007
2357.00,0.0007
2356.00,0.0007
2355.00,0.0006
2354.00,0.0005
2353.00,0.0004
2352.00,0.0005
2351.00,0.0005
2350.00,0.0006
2349.00,0.0006
2348.00,0.0006
2347.00,0.0006
2346.00,0.0006
2345.00,0.0006
2344.00,0.0007
2343.00,0.0008
2342.00,0.0008
2341.00,0.0008
2340.00,0.0008
2339.00,0.0008
2338.00,0.0008
2337.00,0.0008
2336.00,0.0008
2335.00,0.0008
2334.00,0.0007
2333.00,0.0007
2332.00,0.0007
2331.00,0.0007
2330.00,0.0008
2329.00,0.0009
2328.00,0.0011
2327.00,0.0014
2326.00,0.0017
2325.00,0.0020
2324.00,0.0021
2323.00,0.0021
2322.00,0.0019
2321.00,0.0017
2320.00,0.0016
2319.00,0.0015
2318.00,0.0015
2317.00,0.0014
2316.00,0.0013
2315.00,0.0012
2314.00,0.0011
2313.00,0.0011
2312.00,0.0011
2311.00,0.0011
2310.00,0.0012
2309.00,0.0012
2308.00,0.0012
2307.00,0.0012
2306.00,0.0012
2305.00,0.0013
2304.00,0.0013
2303.00,0.0013
2302.00,0.0013
2301.00,0.0013
2300.00,0.0013
2299.00,0.0014
2298.00,0.0014
2297.00,0.0014
2296.00,0.0014
2295.00,0.0014
2294.00,0.0014
2293.00,0.0016
2292.00,0.0017
2291.00,0.0019
2290.00,0.0020
2289.00,0.0020
2288.00,0.0020
2287.00,0.0020
2286.00,0.0020
2285.00,0.0019
2284.00,0.0019
2283.00,0.0018
2282.00,0.0017
2281.00,0.0016
2280.00,0.0016
2279.00,0.0016
2278.00,0.0016
2277.00,0.0016
2276.00,0.0017
2275.00,0.0017
2274.00,0.0017
2273.00,0.0017
2272.00,0.0016
2271.00,0.0016
2270.00,0.0015
2269.00,0.0014
2268.00,0.0013
2267.00,0.0012
2266.00,0.0012
2265.00,0.0011
2264.00,0.0011
2263.00,0.0011
2262.00,0.0012
2261.00,0.0013
2260.00,0.0014
2259.00,0.0015
2258.00,0.0014
2257.00,0.0014
2256.00,0.0013
2255.00,0.0012
2254.00,0.0010
2253.00,0.0009
2252.00,0.0009
2251.00,0.0009
2250.00,0.0010
2249.00,0.0010
2248.00,0.0010
2247.00,0.0009
2246.00,0.0008
2245.00,0.0007
2244.00,0.0007
2243.00,0.0007
2242.00,0.0007
2241.00,0.0007
2240.00,0.0007
2239.00,0.0007
2238.00,0.0007
2237.00,0.0007
2236.00,0.0007
2235.00,0.0007
2234.00,0.0007
2233.00,0.0007
2232.00,0.0007
2231.00,0.0006
2230.00,0.0005
2229.00,0.0006
2228.00,0.0006
2227.00,0.0006
2226.00,0.0007
2225.00,0.0007
2224.00,0.0008
2223.00,0.0009
2222.00,0.0009
2221.00,0.0008
2220.00,0.0008
2219.00,0.0008
2218.00,0.0008
2217.00,0.0008
2216.00,0.0009
2215.00,0.0009
2214.00,0.0010
2213.00,0.0009
2212.00,0.0009
2211.00,0.0008
2210.00,0.0008
2209.00,0.0008
2208.00,0.0008
2207.00,0.0008
2206.00,0.0007
2205.00,0.0007
2204.00,0.0006
2203.00,0.0006
2202.00,0.0006
2201.00,0.0008
2200.00,0.0009
2199.00,0.0009
2198.00,0.0009
2197.00,0.0009
2196.00,0.0010
2195.00,0.0012
2194.00,0.0014
2193.00,0.0015
2192.00,0.0013
2191.00,0.0011
2190.00,0.0009
2189.00,0.0010
2188.00,0.0012
2187.00,0.0014
2186.00,0.0014
2185.00,0.0012
2184.00,0.0010
2183.00,0.0007
2182.00,0.0004
2181.00,0.0002
2180.00,0.0003
2179.00,0.0005
2178.00,0.0006
2177.00,0.0006
2176.00,0.0005
2175.00,0.0004
2174.00,0.0004
2173.00,0.0006
2172.00,0.0009
2171.00,0.0012
2170.00,0.0014
2169.00,0.0016
2168.00,0.0018
2167.00,0.0018
2166.00,0.0018
2165.00,0.0018
2164.00,0.0019
2163.00,0.0019
2162.00,0.0017
2161.00,0.0010
2160.00,-0.0003
2159.00,-0.0018
2158.00,-0.0030
2157.00,-0.0033
2156.00,-0.0031
2155.00,-0.0025
2154.00,-0.0020
2153.00,-0.0017
2152.00,-0.0015
2151.00,-0.0014
2150.00,-0.0013
2149.00,-0.0011
2148.00,-0.0011
2147.00,-0.0012
2146.00,-0.0014
2145.00,-0.0014
2144.00,-0.0013
2143.00,-0.0011
2142.00,-0.0010
2141.00,-0.0008
2140.00,-0.0007
2139.00,-0.0008
2138.00,-0.0009
2137.00,-0.0011
2136.00,-0.0012
2135.00,-0.0013
2134.00,-0.0014
2133.00,-0.0015
2132.00,-0.0015
2131.00,-0.0014
2130.00,-0.0012
2129.00,-0.0011
2128.00,-0.0009
2127.00,-0.0008
2126.00,-0.0007
2125.00,-0.0007
2124.00,-0.0005
2123.00,-0.0004
2122.00,-0.0002
2121.00,-0.0001
2120.00,-0.0001
2119.00,-0.0002
2118.00,-0.0001
2117.00,0.0001
2116.00,0.0003
2115.00,0.0004
2114.00,0.0004
2113.00,0.0002
2112.00,0.0002
2111.00,0.0002
2110.00,0.0003
2109.00,0.0004
2108.00,0.0004
2107.00,0.0003
2106.00,0.0002
2105.00,0.0001
2104.00,0.0002
2103.00,0.0002
2102.00,0.0003
2101.00,0.0004
2100.00,0.0004
2099.00,0.0003
2098.00,0.0002
2097.00,0.0000
2096.00,-0.0002
2095.00,-0.0003
2094.00,-0.0004
2093.00,-0.0003
2092.00,-0.0003
2091.00,-0.0003
2090.00,-0.0003
2089.00,-0.0002
2088.00,-0.0001
2087.00,0.0001
2086.00,0.0003
2085.00,0.0006
2084.00,0.0008
2083.00,0.0009
2082.00,0.0010
2081.00,0.0010
2080.00,0.0009
2079.00,0.0008
2078.00,0.0007
2077.00,0.0007
2076.00,0.0007
2075.00,0.0008
2074.00,0.0008
2073.00,0.0009
2072.00,0.0009
2071.00,0.0008
2070.00,0.0007
2069.00,0.0006
2068.00,0.0005
2067.00,0.0005
2066.00,0.0004
2065.00,0.0003
2064.00,0.0002
2063.00,0.0001
2062.00,-0.0001
2061.00,-0.0002
2060.00,-0.0003
2059.00,-0.0004
2058.00,-0.0004
2057.00,-0.0003
2056.00,-0.0000
2055.00,0.0002
2054.00,0.0004
2053.00,0.0008
2052.00,0.0011
2051.00,0.0013
2050.00,0.0011
2049.00,0.0007
2048.00,0.0004
2047.00,0.0002
2046.00,0.0002
2045.00,0.0002
2044.00,0.0002
2043.00,0.0002
2042.00,0.0001
2041.00,0.0001
2040.00,0.0001
2039.00,0.0002
2038.00,0.0003
2037.00,0.0004
2036.00,0.0003
2035.00,0.0001
2034.00,-0.0001
2033.00,-0.0003
2032.00,-0.0004
2031.00,-0.0006
2030.00,-0.0009
2029.00,-0.0011
2028.00,-0.0010
2027.00,-0.0007
2026.00,-0.0005
2025.00,-0.0004
2024.00,-0.0004
2023.00,-0.0006
2022.00,-0.0007
2021.00,-0.0008
2020.00,-0.0010
2019.00,-0.0012
2018.00,-0.0013
2017.00,-0.0012
2016.00,-0.0009
2015.00,-0.0007
2014.00,-0.0005
2013.00,-0.0005
2012.00,-0.0004
2011.00,-0.0004
2010.00,-0.0004
2009.00,-0.0004
2008.00,-0.0003
2007.00,-0.0005
2006.00,-0.0008
2005.00,-0.0010
2004.00,-0.0010
2003.00,-0.0010
2002.00,-0.0009
2001.00,-0.0009
2000.00,-0.0008
1999.00,-0.0008
1998.00,-0.0008
1997.00,-0.0008
1996.00,-0.0008
1995.00,-0.0008
1994.00,-0.0009
1993.00,-0.0008
1992.00,-0.0007
1991.00,-0.0006
1990.00,-0.0005
1989.00,-0.0004
1988.00,0.0000
1987.00,0.0005
1986.00,0.0009
1985.00,0.0010
1984.00,0.0010
1983.00,0.0010
1982.00,0.0014
1981.00,0.0019
1980.00,0.0021
1979.00,0.0016
1978.00,0.0006
1977.00,-0.0004
1976.00,-0.0009
1975.00,-0.0010
1974.00,-0.0010
1973.00,-0.0008
1972.00,-0.0007
1971.00,-0.0008
1970.00,-0.0010
1969.00,-0.0012
1968.00,-0.0013
1967.00,-0.0013
1966.00,-0.0012
1965.00,-0.0011
1964.00,-0.0010
1963.00,-0.0010
1962.00,-0.0010
1961.00,-0.0010
1960.00,-0.0011
1959.00,-0.0014
1958.00,-0.0017
1957.00,-0.0020
1956.00,-0.0020
1955.00,-0.0020
1954.00,-0.0019
1953.00,-0.0017
1952.00,-0.0016
1951.00,-0.0015
1950.00,-0.0014
1949.00,-0.0014
1948.00,-0.0013
1947.00,-0.0013
1946.00,-0.0014
1945.00,-0.0015
1944.00,-0.0015
1943.00,-0.0016
1942.00,-0.0016
1941.00,-0.0016
1940.00,-0.0015
1939.00,-0.0014
1938.00,-0.0013
1937.00,-0.0011
1936.00,-0.0008
1935.00,-0.0007
1934.00,-0.0007
1933.00,-0.0007
1932.00,-0.0007
1931.00,-0.0008
1930.00,-0.0008
1929.00,-0.0008
1928.00,-0.0008
1927.00,-0.0009
1926.00,-0.0009
1925.00,-0.0009
1924.00,-0.0008
1923.00,-0.0006
1922.00,-0.0004
1921.00,-0.0002
1920.00,-0.0001
1919.00,-0.0001
1918.00,-0.0002
1917.00,-0.0003
1916.00,-0.0004
1915.00,-0.0004
1914.00,-0.0005
1913.00,-0.0005
1912.00,-0.0004
1911.00,-0.0003
1910.00,-0.0002
1909.00,-0.0002
1908.00,-0.0002
1907.00,-0.0003
1906.00,-0.0003
1905.00,-0.0003
1904.00,-0.0003
1903.00,-0.0003
1902.00,-0.0004
1901.00,-0.0003
1900.00,-0.0003
1899.00,-0.0002
1898.00,-0.0001
1897.00,-0.0000
1896.00,0.0000
1895.00,0.0000
1894.00,0.0000
1893.00,0.0001
1892.00,0.0001
1891.00,0.0002
1890.00,0.0002
1889.00,0.0001
1888.00,0.0001
1887.00,0.0000
1886.00,-0.0001
1885.00,-0.0001
1884.00,-0.0001
1883.00,-0.0001
1882.00,-0.0001
1881.00,-0.0002
1880.00,-0.0002
1879.00,-0.0002
1878.00,-0.0002
1877.00,-0.0001
1876.00,-0.0001
1875.00,-0.0000
1874.00,-0.0000
1873.00,0.0000
1872.00,0.0000
1871.00,-0.0000
1870.00,-0.0000
1869.00,0.0000
1868.00,0.0001
1867.00,0.0001
1866.00,0.0001
1865.00,0.0001
1864.00,0.0002
1863.00,0.0002
1862.00,0.0003
1861.00,0.0003
1860.00,0.0002
1859.00,0.0002
1858.00,0.0001
1857.00,0.0002
1856.00,0.0002
1855.00,0.0002
1854.00,0.0002
1853.00,0.0002
1852.00,0.0002
1851.00,0.0002
1850.00,0.0002
1849.00,0.0002
1848.00,0.0002
1847.00,0.0002
1846.00,0.0003
1845.00,0.0003
1844.00,0.0004
1843.00,0.0004
1842.00,0.0003
1841.00,0.0002
1840.00,0.0001
1839.00,0.0001
1838.00,0.0001
1837.00,0.0001
1836.00,0.0001
1835.00,0.0001
1834.00,0.0001
1833.00,0.0002
1832.00,0.0003
1831.00,0.0004
1830.00,0.0004
1829.00,0.0005
1828.00,0.0005
1827.00,0.0005
1826.00,0.0006
1825.00,0.0006
1824.00,0.0006
1823.00,0.0005
1822.00,0.0005
1821.00,0.0005
1820.00,0.0004
1819.00,0.0003
1818.00,0.0001
1817.00,0.0001
1816.00,0.0001
1815.00,0.0002
1814.00,0.0002
1813.00,0.0003
1812.00,0.0003
1811.00,0.0004
1810.00,0.0004
1809.00,0.0004
1808.00,0.0005
1807.00,0.0005
1806.00,0.0005
1805.00,0.0005
1804.00,0.0005
1803.00,0.0006
1802.00,0.0006
1801.00,0.0006
1800.00,0.0006
1799.00,0.0006
1798.00,0.0007
1797.00,0.0007
1796.00,0.0008
1795.00,0.0007
1794.00,0.0007
1793.00,0.0007
1792.00,0.0008
1791.00,0.0008
1790.00,0.0009
1789.00,0.0009
1788.00,0.0010
1787.00,0.0010
1786.00,0.0011
1785.00,0.0011
1784.00,0.0011
1783.00,0.0010
1782.00,0.0009
1781.00,0.0009
1780.00,0.0008
1779.00,0.0008
1778.00,0.0008
1777.00,0.0009
1776.00,0.0009
1775.00,0.0010
1774.00,0.0010
1773.00,0.0011
1772.00,0.0012
1771.00,0.0012
1770.00,0.0012
1769.00,0.0012
1768.00,0.0012
1767.00,0.0012
1766.00,0.0012
1765.00,0.0012
1764.00,0.0012
1763.00,0.0013
1762.00,0.0015
1761.00,0.0016
1760.00,0.0016
1759.00,0.0016
1758.00,0.0016
1757.00,0.0017
1756.00,0.0018
1755.00,0.0019
1754.00,0.0020
1753.00,0.0021
1752.00,0.0022
1751.00,0.0023
1750.00,0.0023
1749.00,0.0023
1748.00,0.0023
1747.00,0.0024
1746.00,0.0024
1745.00,0.0024
1744.00,0.0024
1743.00,0.0025
1742.00,0.0025
1741.00,0.0026
1740.00,0.0026
1739.00,0.0026
1738.00,0.0025
1737.00,0.0024
1736.00,0.0024
1735.00,0.0023
1734.00,0.0023
1733.00,0.0024
1732.00,0.0024
1731.00,0.0024
1730.00,0.0024
1729.00,0.0024
1728.00,0.0024
1727.00,0.0024
1726.00,0.0024
1725.00,0.0024
1724.00,0.0024
1723.00,0.0024
1722.00,0.0024
1721.00,0.0024
1720.00,0.0024
1719.00,0.0023
1718.00,0.0023
1717.00,0.0023
1716.00,0.0024
1715.00,0.0025
1714.00,0.0025
1713.00,0.0025
1712.00,0.0026
1711.00,0.0026
1710.00,0.0026
1709.00,0.0027
1708.00,0.0027
1707.00,0.0027
1706.00,0.0028
1705.00,0.0028
1704.00,0.0029
1703.00,0.0029
1702.00,0.0029
1701.00,0.0030
1700.00,0.0031
1699.00,0.0032
1698.00,0.0032
1697.00,0.0033
1696.00,0.0035
1695.00,0.0036
1694.00,0.0037
1693.00,0.0038
1692.00,0.0038
1691.00,0.0039
1690.00,0.0040
1689.00,0.0040
1688.00,0.0041
1687.00,0.0040
1686.00,0.0040
1685.00,0.0042
1684.00,0.0044
1683.00,0.0046
1682.00,0.0047
1681.00,0.0048
1680.00,0.0049
1679.00,0.0051
1678.00,0.0052
1677.00,0.0053
1676.00,0.0054
1675.00,0.0055
1674.00,0.0055
1673.00,0.0056
1672.00,0.0057
1671.00,0.0058
1670.00,0.0059
1669.00,0.0060
1668.00,0.0061
1667.00,0.0061
1666.00,0.0062
1665.00,0.0063
1664.00,0.0064
1663.00,0.0065
1662.00,0.0066
1661.00,0.0066
1660.00,0.0067
1659.00,0.0068
1658.00,0.0069
1657.00,0.0070
1656.00,0.0071
1655.00,0.0071
1654.00,0.0072
1653.00,0.0075
1652.00,0.0077
1651.00,0.0078
1650.00,0.0078
1649.00,0.0078
1648.00,0.0079
1647.00,0.0081
1646.00,0.0082
1645.00,0.0083
1644.00,0.0083
1643.00,0.0082
1642.00,0.0082
1641.00,0.0082
1640.00,0.0082
1639.00,0.0081
1638.00,0.0081
1637.00,0.0081
1636.00,0.0081
1635.00,0.0081
1634.00,0.0081
1633.00,0.0081
1632.00,0.0080
1631.00,0.0079
1630.00,0.0079
1629.00,0.0078
1628.00,0.0078
1627.00,0.0077
1626.00,0.0076
1625.00,0.0076
1624.00,0.0075
1623.00,0.0075
1622.00,0.0074
1621.00,0.0073
1620.00,0.0073
1619.00,0.0072
1618.00,0.0072
1617.00,0.0071
1616.00,0.0071
1615.00,0.0071
1614.00,0.0071
1613.00,0.0071
1612.00,0.0071
1611.00,0.0071
1610.00,0.0070
1609.00,0.0071
1608.00,0.0071
1607.00,0.0072
1606.00,0.0072
1605.00,0.0071
1604.00,0.0071
1603.00,0.0071
1602.00,0.0070
1601.00,0.0070
1600.00,0.0069
1599.00,0.0069
1598.00,0.0069
1597.00,0.0069
1596.00,0.0069
1595.00,0.0069
1594.00,0.0069
1593.00,0.0069
1592.00,0.0069
1591.00,0.0069
1590.00,0.0069
1589.00,0.0069
1588.00,0.0070
1587.00,0.0071
1586.00,0.0071
1585.00,0.0072
1584.00,0.0074
1583.00,0.0075
1582.00,0.0076
1581.00,0.0077
1580.00,0.0078
1579.00,0.0078
1578.00,0.0078
1577.00,0.0078
1576.00,0.0079
1575.00,0.0079
1574.00,0.0079
1573.00,0.0079
1572.00,0.0078
1571.00,0.0077
1570.00,0.0076
1569.00,0.0075
1568.00,0.0075
1567.00,0.0075
1566.00,0.0075
1565.00,0.0075
1564.00,0.0076
1563.00,0.0076
1562.00,0.0076
1561.00,0.0077
1560.00,0.0078
1559.00,0.0078
1558.00,0.0078
1557.00,0.0078
1556.00,0.0078
1555.00,0.0079
1554.00,0.0079
1553.00,0.0080
1552.00,0.0082
1551.00,0.0083
1550.00,0.0085
1549.00,0.0086
1548.00,0.0088
1547.00,0.0089
1546.00,0.0091
1545.00,0.0093
1544.00,0.0094
1543.00,0.0095
1542.00,0.0094
1541.00,0.0094
1540.00,0.0093
1539.00,0.0092
1538.00,0.0091
1537.00,0.0091
1536.00,0.0090
1535.00,0.0089
1534.00,0.0086
1533.00,0.0083
1532.00,0.0081
1531.00,0.0080
1530.00,0.0078
1529.00,0.0077
1528.00,0.0076
1527.00,0.0075
1526.00,0.0074
1525.00,0.0073
1524.00,0.0073
1523.00,0.0072
1522.00,0.0072
1521.00,0.0071
1520.00,0.0071
1519.00,0.0071
1518.00,0.0070
1517.00,0.0070
1516.00,0.0071
1515.00,0.0071
1514.00,0.0071
1513.00,0.0072
1512.00,0.0073
1511.00,0.0074
1510.00,0.0074
1509.00,0.0074
1508.00,0.0075
1507.00,0.0076
1506.00,0.0076
1505.00,0.0077
1504.00,0.0078
1503.00,0.0078
1502.00,0.0080
1501.00,0.0082
1500.00,0.0084
1499.00,0.0087
1498.00,0.0089
1497.00,0.0093
1496.00,0.0098
1495.00,0.0102
1494.00,0.0105
1493.00,0.0108
1492.00,0.0111
1491.00,0.0115
1490.00,0.0118
1489.00,0.0122
1488.00,0.0127
1487.00,0.0131
1486.00,0.0135
1485.00,0.0141
1484.00,0.0147
1483.00,0.0154
1482.00,0.0163
1481.00,0.0175
1480.00,0.0187
1479.00,0.0200
1478.00,0.0215
1477.00,0.0235
1476.00,0.0258
1475.00,0.0284
1474.00,0.0318
1473.00,0.0370
1472.00,0.0435
1471.00,0.0499
1470.00,0.0562
1469.00,0.0628
1468.00,0.0699
1467.00,0.0779
1466.00,0.0871
1465.00,0.0972
1464.00,0.1062
1463.00,0.1126
1462.00,0.1169
1461.00,0.1201
1460.00,0.1225
1459.00,0.1243
1458.00,0.1259
1457.00,0.1272
1456.00,0.1276
1455.00,0.1271
1454.00,0.1263
1453.00,0.1248
1452.00,0.1224
1451.00,0.1185
1450.00,0.1131
1449.00,0.1053
1448.00,0.0954
1447.00,0.0851
1446.00,0.0758
1445.00,0.0680
1444.00,0.0615
1443.00,0.0562
1442.00,0.0523
1441.00,0.0497
1440.00,0.0483
1439.00,0.0478
1438.00,0.0480
1437.00,0.0482
1436.00,0.0471
1435.00,0.0443
1434.00,0.0402
1433.00,0.0355
1432.00,0.0306
1431.00,0.0263
1430.00,0.0231
1429.00,0.0207
1428.00,0.0191
1427.00,0.0181
1426.00,0.0175
1425.00,0.0169
1424.00,0.0163
1423.00,0.0160
1422.00,0.0159
1421.00,0.0157
1420.00,0.0155
1419.00,0.0153
1418.00,0.0152
1417.00,0.0149
1416.00,0.0146
1415.00,0.0144
1414.00,0.0143
1413.00,0.0142
1412.00,0.0139
1411.00,0.0138
1410.00,0.0137
1409.00,0.0136
1408.00,0.0135
1407.00,0.0135
1406.00,0.0136
1405.00,0.0136
1404.00,0.0135
1403.00,0.0136
1402.00,0.0137
1401.00,0.0138
1400.00,0.0140
1399.00,0.0142
1398.00,0.0144
1397.00,0.0146
1396.00,0.0148
1395.00,0.0152
1394.00,0.0158
1393.00,0.0163
1392.00,0.0169
1391.00,0.0178
1390.00,0.0190
1389.00,0.0207
1388.00,0.0234
1387.00,0.0274
1386.00,0.0326
1385.00,0.0392
1384.00,0.0477
1383.00,0.0592
1382.00,0.0745
1381.00,0.0940
1380.00,0.1185
1379.00,0.1469
1378.00,0.1753
1377.00,0.1974
1376.00,0.2067
1375.00,0.1988
1374.00,0.1754
1373.00,0.1456
1372.00,0.1178
1371.00,0.0945
1370.00,0.0757
1369.00,0.0614
1368.00,0.0515
1367.00,0.0454
1366.00,0.0421
1365.00,0.0409
1364.00,0.0411
1363.00,0.0427
1362.00,0.0451
1361.00,0.0476
1360.00,0.0495
1359.00,0.0500
1358.00,0.0487
1357.00,0.0457
1356.00,0.0415
1355.00,0.0368
1354.00,0.0323
1353.00,0.0285
1352.00,0.0254
1351.00,0.0230
1350.00,0.0211
1349.00,0.0195
1348.00,0.0182
1347.00,0.0172
1346.00,0.0164
1345.00,0.0157
1344.00,0.0152
1343.00,0.0148
1342.00,0.0144
1341.00,0.0141
1340.00,0.0138
1339.00,0.0135
1338.00,0.0133
1337.00,0.0133
1336.00,0.0133
1335.00,0.0135
1334.00,0.0138
1333.00,0.0143
1332.00,0.0147
1331.00,0.0151
1330.00,0.0152
1329.00,0.0151
1328.00,0.0147
1327.00,0.0141
1326.00,0.0134
1325.00,0.0127
1324.00,0.0121
1323.00,0.0115
1322.00,0.0111
1321.00,0.0108
1320.00,0.0105
1319.00,0.0102
1318.00,0.0100
1317.00,0.0098
1316.00,0.0096
1315.00,0.0095
1314.00,0.0094
1313.00,0.0095
1312.00,0.0097
1311.00,0.0099
1310.00,0.0104
1309.00,0.0110
1308.00,0.0119
1307.00,0.0131
1306.00,0.0141
1305.00,0.0149
1304.00,0.0151
1303.00,0.0150
1302.00,0.0146
1301.00,0.0142
1300.00,0.0141
1299.00,0.0141
1298.00,0.0142
1297.00,0.0143
1296.00,0.0142
1295.00,0.0139
1294.00,0.0134
1293.00,0.0129
1292.00,0.0123
1291.00,0.0117
1290.00,0.0112
1289.00,0.0108
1288.00,0.0104
1287.00,0.0101
1286.00,0.0099
1285.00,0.0096
1284.00,0.0094
1283.00,0.0093
1282.00,0.0092
1281.00,0.0091
1280.00,0.0090
1279.00,0.0089
1278.00,0.0088
1277.00,0.0087
1276.00,0.0087
1275.00,0.0087
1274.00,0.0087
1273.00,0.0088
1272.00,0.0088
1271.00,0.0089
1270.00,0.0090
1269.00,0.0091
1268.00,0.0092
1267.00,0.0094
1266.00,0.0096
1265.00,0.0099
1264.00,0.0102
1263.00,0.0106
1262.00,0.0109
1261.00,0.0113
1260.00,0.0119
1259.00,0.0126
1258.00,0.0133
1257.00,0.0139
1256.00,0.0141
1255.00,0.0139
1254.00,0.0134
1253.00,0.0126
1252.00,0.0118
1251.00,0.0112
1250.00,0.0107
1249.00,0.0104
1248.00,0.0101
1247.00,0.0099
1246.00,0.0098
1245.00,0.0098
1244.00,0.0097
1243.00,0.0096
1242.00,0.0095
1241.00,0.0095
1240.00,0.0094
1239.00,0.0093
1238.00,0.0092
1237.00,0.0091
1236.00,0.0090
1235.00,0.0090
1234.00,0.0089
1233.00,0.0089
1232.00,0.0089
1231.00,0.0089
1230.00,0.0089
1229.00,0.0090
1228.00,0.0091
1227.00,0.0092
1226.00,0.0094
1225.00,0.0096
1224.00,0.0099
1223.00,0.0102
1222.00,0.0106
1221.00,0.0108
1220.00,0.0110
1219.00,0.0110
1218.00,0.0109
1217.00,0.0108
1216.00,0.0105
1215.00,0.0102
1214.00,0.0099
1213.00,0.0096
1212.00,0.0092
1211.00,0.0089
1210.00,0.0087
1209.00,0.0086
1208.00,0.0085
1207.00,0.0084
1206.00,0.0082
1205.00,0.0081
1204.00,0.0081
1203.00,0.0080
1202.00,0.0080
1201.00,0.0079
1200.00,0.0079
1199.00,0.0078
1198.00,0.0077
1197.00,0.0077
1196.00,0.0076
1195.00,0.0076
1194.00,0.0077
1193.00,0.0078
1192.00,0.0078
1191.00,0.0079
1190.00,0.0080
1189.00,0.0080
1188.00,0.0080
1187.00,0.0080
1186.00,0.0081
1185.00,0.0082
1184.00,0.0083
1183.00,0.0085
1182.00,0.0087
1181.00,0.0090
1180.00,0.0094
1179.00,0.0099
1178.00,0.0106
1177.00,0.0115
1176.00,0.0127
1175.00,0.0143
1174.00,0.0163
1173.00,0.0189
1172.00,0.0218
1171.00,0.0250
1170.00,0.0280
1169.00,0.0304
1168.00,0.0318
1167.00,0.0321
1166.00,0.0315
1165.00,0.0302
1164.00,0.0287
1163.00,0.0270
1162.00,0.0256
1161.00,0.0243
1160.00,0.0233
1159.00,0.0226
1158.00,0.0221
1157.00,0.0217
1156.00,0.0214
1155.00,0.0212
1154.00,0.0211
1153.00,0.0209
1152.00,0.0205
1151.00,0.0198
1150.00,0.0190
1149.00,0.0181
1148.00,0.0172
1147.00,0.0163
1146.00,0.0155
1145.00,0.0147
1144.00,0.0139
1143.00,0.0132
1142.00,0.0125
1141.00,0.0120
1140.00,0.0115
1139.00,0.0112
1138.00,0.0109
1137.00,0.0107
1136.00,0.0105
1135.00,0.0103
1134.00,0.0101
1133.00,0.0099
1132.00,0.0098
1131.00,0.0097
1130.00,0.0097
1129.00,0.0098
1128.00,0.0099
1127.00,0.0101
1126.00,0.0103
1125.00,0.0104
1124.00,0.0105
1123.00,0.0105
1122.00,0.0105
1121.00,0.0105
1120.00,0.0106
1119.00,0.0108
1118.00,0.0110
1117.00,0.0112
1116.00,0.0113
1115.00,0.0115
1114.00,0.0117
1113.00,0.0119
1112.00,0.0121
1111.00,0.0123
1110.00,0.0127
1109.00,0.0132
1108.00,0.0138
1107.00,0.0144
1106.00,0.0151
1105.00,0.0157
1104.00,0.0162
1103.00,0.0165
1102.00,0.0166
1101.00,0.0165
1100.00,0.0160
1099.00,0.0154
1098.00,0.0146
1097.00,0.0139
1096.00,0.0133
1095.00,0.0129
1094.00,0.0125
1093.00,0.0121
1092.00,0.0118
1091.00,0.0115
1090.00,0.0112
1089.00,0.0111
1088.00,0.0110
1087.00,0.0109
1086.00,0.0108
1085.00,0.0107
1084.00,0.0106
1083.00,0.0105
1082.00,0.0104
1081.00,0.0102
1080.00,0.0101
1079.00,0.0099
1078.00,0.0098
1077.00,0.0097
1076.00,0.0097
1075.00,0.0097
1074.00,0.0097
1073.00,0.0097
1072.00,0.0097
1071.00,0.0097
1070.00,0.0097
1069.00,0.0096
1068.00,0.0096
1067.00,0.0095
1066.00,0.0095
1065.00,0.0096
1064.00,0.0096
1063.00,0.0097
1062.00,0.0098
1061.00,0.0098
1060.00,0.0098
1059.00,0.0098
1058.00,0.0098
1057.00,0.0098
1056.00,0.0099
1055.00,0.0099
1054.00,0.0099
1053.00,0.0100
1052.00,0.0100
1051.00,0.0102
1050.00,0.0104
1049.00,0.0106
1048.00,0.0109
1047.00,0.0112
1046.00,0.0114
1045.00,0.0114
1044.00,0.0114
1043.00,0.0112
1042.00,0.0110
1041.00,0.0109
1040.00,0.0108
1039.00,0.0108
1038.00,0.0108
1037.00,0.0107
1036.00,0.0107
1035.00,0.0107
1034.00,0.0107
1033.00,0.0106
1032.00,0.0105
1031.00,0.0104
1030.00,0.0105
1029.00,0.0105
1028.00,0.0105
1027.00,0.0104
1026.00,0.0104
1025.00,0.0103
1024.00,0.0103
1023.00,0.0103
1022.00,0.0103
1021.00,0.0102
1020.00,0.0103
1019.00,0.0104
1018.00,0.0106
1017.00,0.0107
1016.00,0.0109
1015.00,0.0111
1014.00,0.0113
1013.00,0.0116
1012.00,0.0119
1011.00,0.0122
1010.00,0.0125
1009.00,0.0129
1008.00,0.0133
1007.00,0.0139
1006.00,0.0147
1005.00,0.0158
1004.00,0.0173
1003.00,0.0195
1002.00,0.0222
1001.00,0.0255
1000.00,0.0290
999.00,0.0318
998.00,0.0331
997.00,0.0325
996.00,0.0299
995.00,0.0263
994.00,0.0226
993.00,0.0193
992.00,0.0167
991.00,0.0148
990.00,0.0134
989.00,0.0125
988.00,0.0119
987.00,0.0116
986.00,0.0116
985.00,0.0117
984.00,0.0122
983.00,0.0129
982.00,0.0141
981.00,0.0156
980.00,0.0178
979.00,0.0206
978.00,0.0241
977.00,0.0283
976.00,0.0327
975.00,0.0369
974.00,0.0399
973.00,0.0409
972.00,0.0395
971.00,0.0360
970.00,0.0313
969.00,0.0264
968.00,0.0221
967.00,0.0187
966.00,0.0163
965.00,0.0145
964.00,0.0132
963.00,0.0123
962.00,0.0115
961.00,0.0109
960.00,0.0104
959.00,0.0100
958.00,0.0097
957.00,0.0094
956.00,0.0092
955.00,0.0090
954.00,0.0088
953.00,0.0087
952.00,0.0086
951.00,0.0085
950.00,0.0085
949.00,0.0085
948.00,0.0085
947.00,0.0086
946.00,0.0089
945.00,0.0092
944.00,0.0096
943.00,0.0100
942.00,0.0103
941.00,0.0104
940.00,0.0102
939.00,0.0099
938.00,0.0095
937.00,0.0089
936.00,0.0084
935.00,0.0080
934.00,0.0077
933.00,0.0075
932.00,0.0074
931.00,0.0072
930.00,0.0072
929.00,0.0071
928.00,0.0070
927.00,0.0068
926.00,0.0068
925.00,0.0067
924.00,0.0067
923.00,0.0067
922.00,0.0068
921.00,0.0070
920.00,0.0071
919.00,0.0072
918.00,0.0073
917.00,0.0074
916.00,0.0076
915.00,0.0077
914.00,0.0078
913.00,0.0079
912.00,0.0079
911.00,0.0080
910.00,0.0081
909.00,0.0083
908.00,0.0086
907.00,0.0090
906.00,0.0097
905.00,0.0108
904.00,0.0124
903.00,0.0144
902.00,0.0166
901.00,0.0187
900.00,0.0200
899.00,0.0204
898.00,0.0197
897.00,0.0181
896.00,0.0161
895.00,0.0141
894.00,0.0124
893.00,0.0110
892.00,0.0100
891.00,0.0092
890.00,0.0088
889.00,0.0085
888.00,0.0082
887.00,0.0081
886.00,0.0079
885.00,0.0078
884.00,0.0077
883.00,0.0076
882.00,0.0076
881.00,0.0076
880.00,0.0077
879.00,0.0078
878.00,0.0080
877.00,0.0082
876.00,0.0083
875.00,0.0083
874.00,0.0082
873.00,0.0081
872.00,0.0080
871.00,0.0080
870.00,0.0080
869.00,0.0080
868.00,0.0079
867.00,0.0079
866.00,0.0079
865.00,0.0080
864.00,0.0081
863.00,0.0082
862.00,0.0083
861.00,0.0085
860.00,0.0086
859.00,0.0088
858.00,0.0089
857.00,0.0090
856.00,0.0091
855.00,0.0092
854.00,0.0094
853.00,0.0097
852.00,0.0101
851.00,0.0106
850.00,0.0112
849.00,0.0119
848.00,0.0129
847.00,0.0143
846.00,0.0165
845.00,0.0195
844.00,0.0235
843.00,0.0278
842.00,0.0310
841.00,0.0318
840.00,0.0297
839.00,0.0257
838.00,0.0215
837.00,0.0182
836.00,0.0161
835.00,0.0147
834.00,0.0137
833.00,0.0131
832.00,0.0126
831.00,0.0122
830.00,0.0120
829.00,0.0118
828.00,0.0116
827.00,0.0116
826.00,0.0116
825.00,0.0116
824.00,0.0116
823.00,0.0115
822.00,0.0115
821.00,0.0117
820.00,0.0119
819.00,0.0122
818.00,0.0127
817.00,0.0133
816.00,0.0140
815.00,0.0151
814.00,0.0165
813.00,0.0183
812.00,0.0201
811.00,0.0219
810.00,0.0231
809.00,0.0236
808.00,0.0234
807.00,0.0224
806.00,0.0210
805.00,0.0193
804.00,0.0177
803.00,0.0162
802.00,0.0150
801.00,0.0141
800.00,0.0132
799.00,0.0125
798.00,0.0117
797.00,0.0112
796.00,0.0107
795.00,0.0104
794.00,0.0103
793.00,0.0102
792.00,0.0100
791.00,0.0097
790.00,0.0094
789.00,0.0092
788.00,0.0090
787.00,0.0088
786.00,0.0086
785.00,0.0083
784.00,0.0080
783.00,0.0077
782.00,0.0075
781.00,0.0074
780.00,0.0074
779.00,0.0072
778.00,0.0071
777.00,0.0070
776.00,0.0070
775.00,0.0072
774.00,0.0075
773.00,0.0078
772.00,0.0081
771.00,0.0083
770.00,0.0085
769.00,0.0087
768.00,0.0088
767.00,0.0089
766.00,0.0088
765.00,0.0086
764.00,0.0082
763.00,0.0079
762.00,0.0076
761.00,0.0074
760.00,0.0072
759.00,0.0071
758.00,0.0070
757.00,0.0069
756.00,0.0068
755.00,0.0068
754.00,0.0067
753.00,0.0065
752.00,0.0063
751.00,0.0062
750.00,0.0062
749.00,0.0063
748.00,0.0064
747.00,0.0064
746.00,0.0064
745.00,0.0064
744.00,0.0065
743.00,0.0066
742.00,0.0066
741.00,0.0066
740.00,0.0066
739.00,0.0069
738.00,0.0072
737.00,0.0074
736.00,0.0075
735.00,0.0076
734.00,0.0077
733.00,0.0077
732.00,0.0077
731.00,0.0076
730.00,0.0076
729.00,0.0075
728.00,0.0075
727.00,0.0075
726.00,0.0074
725.00,0.0074
724.00,0.0074
723.00,0.0074
722.00,0.0074
721.00,0.0074
720.00,0.0073
719.00,0.0073
718.00,0.0073
717.00,0.0072
716.00,0.0072
715.00,0.0071
714.00,0.0070
713.00,0.0070
712.00,0.0071
711.00,0.0071
710.00,0.0070
709.00,0.0068
708.00,0.0068
707.00,0.0070
706.00,0.0072
705.00,0.0073
704.00,0.0072
703.00,0.0070
702.00,0.0067
701.00,0.0064
700.00,0.0062
699.00,0.0061
698.00,0.0061
697.00,0.0062
696.00,0.0063
695.00,0.0064
694.00,0.0065
693.00,0.0065
692.00,0.0064
691.00,0.0063
690.00,0.0063
689.00,0.0064
688.00,0.0064
687.00,0.0064
686.00,0.0063
685.00,0.0061
684.00,0.0059
683.00,0.0057
682.00,0.0058
681.00,0.0059
680.00,0.0060
679.00,0.0061
678.00,0.0063
677.00,0.0064
676.00,0.0065
675.00,0.0066
674.00,0.0067
673.00,0.0067
672.00,0.0067
671.00,0.0067
670.00,0.0067
669.00,0.0066
668.00,0.0064
667.00,0.0063
666.00,0.0063
665.00,0.0064
664.00,0.0065
663.00,0.0065
662.00,0.0064
661.00,0.0063
660.00,0.0063
659.00,0.0065
658.00,0.0067
657.00,0.0066
656.00,0.0064
655.00,0.0063
654.00,0.0064
653.00,0.0066
652.00,0.0068
651.00,0.0067
650.00,0.0066
649.00,0.0066
648.00,0.0068
647.00,0.0070
646.00,0.0070
645.00,0.0069
644.00,0.0068
643.00,0.0067
642.00,0.0067
641.00,0.0065
640.00,0.0063
639.00,0.0063
638.00,0.0065
637.00,0.0066
636.00,0.0067
635.00,0.0066
634.00,0.0065
633.00,0.0065
632.00,0.0066
631.00,0.0067
630.00,0.0068
629.00,0.0069
628.00,0.0071
627.00,0.0072
626.00,0.0073
625.00,0.0073
624.00,0.0070
623.00,0.0067
622.00,0.0063
621.00,0.0062
620.00,0.0063
619.00,0.0064
618.00,0.0065
617.00,0.0066
616.00,0.0068
615.00,0.0070
614.00,0.0071
613.00,0.0070
612.00,0.0066
611.00,0.0063
610.00,0.0061
609.00,0.0061
608.00,0.0060
607.00,0.0060
606.00,0.0062
605.00,0.0064
604.00,0.0067
603.00,0.0069
602.00,0.0069
601.00,0.0069
600.00,0.0069
599.00,0.0069
598.00,0.0068
597.00,0.0068
596.00,0.0069
595.00,0.0072
594.00,0.0074
593.00,0.0074
592.00,0.0071
591.00,0.0069
590.00,0.0068
589.00,0.0069
588.00,0.0070
587.00,0.0070
586.00,0.0070
585.00,0.0070
584.00,0.0070
583.00,0.0071
582.00,0.0072
581.00,0.0074
580.00,0.0076
579.00,0.0077
578.00,0.0076
577.00,0.0075
576.00,0.0074
575.00,0.0073
574.00,0.0073
573.00,0.0074
572.00,0.0075
571.00,0.0076
570.00,0.0075
569.00,0.0073
568.00,0.0072
567.00,0.0071
566.00,0.0071
565.00,0.0073
564.00,0.0074
563.00,0.0074
562.00,0.0071
561.00,0.0067
560.00,0.0063
559.00,0.0061
558.00,0.0062
557.00,0.0065
556.00,0.0069
555.00,0.0072
554.00,0.0074
553.00,0.0076
552.00,0.0078
551.00,0.0079
550.00,0.0077
549.00,0.0074
548.00,0.0071
547.00,0.0071
546.00,0.0074
545.00,0.0077
544.00,0.0078
543.00,0.0079
542.00,0.0079
541.00,0.0079
540.00,0.0077
539.00,0.0075
538.00,0.0073
537.00,0.0074
536.00,0.0078
535.00,0.0082
534.00,0.0087
533.00,0.0092
532.00,0.0098
531.00,0.0103
530.00,0.0106
529.00,0.0107
528.00,0.0105
527.00,0.0103
526.00,0.0104
525.00,0.0105
524.00,0.0103
523.00,0.0099
522.00,0.0094
521.00,0.0089
520.00,0.0086
519.00,0.0084
518.00,0.0084
517.00,0.0085
516.00,0.0086
515.00,0.0086
514.00,0.0083
513.00,0.0077
512.00,0.0072
511.00,0.0069
510.00,0.0070
509.00,0.0071
508.00,0.0071
507.00,0.0067
506.00,0.0063
505.00,0.0063
504.00,0.0067
503.00,0.0077
502.00,0.0086
501.00,0.0089
500.00,0.0084
499.00,0.0074
498.00,0.0066
497.00,0.0064
496.00,0.0067
495.00,0.0074
494.00,0.0080
493.00,0.0082
492.00,0.0080
491.00,0.0077
490.00,0.0077
489.00,0.0080
488.00,0.0084
487.00,0.0087
486.00,0.0088
485.00,0.0086
484.00,0.0082
483.00,0.0080
482.00,0.0082
481.00,0.0087
480.00,0.0089
479.00,0.0087
478.00,0.0084
477.00,0.0081
476.00,0.0077
475.00,0.0072
474.00,0.0067
473.00,0.0066
472.00,0.0068
471.00,0.0074
470.00,0.0081
469.00,0.0089
468.00,0.0093
467.00,0.0093
466.00,0.0096
465.00,0.0106
464.00,0.0122
463.00,0.0139
462.00,0.0155
461.00,0.0171
460.00,0.0185
459.00,0.0190
458.00,0.0183
457.00,0.0169
456.00,0.0157
455.00,0.0149
454.00,0.0141
453.00,0.0133
452.00,0.0124
451.00,0.0116
450.00,0.0108
