Created as New Dataset,Sample 071 By Administrator Date Friday, September 05 2025
cm-1,A
4000.00,0.0027
3999.00,0.0027
3998.00,0.0027
3997.00,0.0027
3996.00,0.0027
3995.00,0.0027
3994.00,0.0027
3993.00,0.0027
3992.00,0.0027
3991.00,0.0027
3990.00,0.0027
3989.00,0.0027
3988.00,0.0027
3987.00,0.0028
3986.00,0.0028
3985.00,0.0027
3984.00,0.0027
3983.00,0.0026
3982.00,0.0026
3981.00,0.0026
3980.00,0.0026
3979.00,0.0026
3978.00,0.0027
3977.00,0.0027
3976.00,0.0027
3975.00,0.0026
3974.00,0.0026
3973.00,0.0026
3972.00,0.0026
3971.00,0.0026
3970.00,0.0026
3969.00,0.0026
3968.00,0.0026
3967.00,0.0026
3966.00,0.0026
3965.00,0.0026
3964.00,0.0025
3963.00,0.0025
3962.00,0.0025
3961.00,0.0026
3960.00,0.0026
3959.00,0.0026
3958.00,0.0026
3957.00,0.0026
3956.00,0.0025
3955.00,0.0025
3954.00,0.0025
3953.00,0.0025
3952.00,0.0026
3951.00,0.0026
3950.00,0.0026
3949.00,0.0026
3948.00,0.0026
3947.00,0.0026
3946.00,0.0026
3945.00,0.0026
3944.00,0.0026
3943.00,0.0025
3942.00,0.0025
3941.00,0.0025
3940.00,0.0025
3939.00,0.0025
3938.00,0.0025
3937.00,0.0025
3936.00,0.0026
3935.00,0.0026
3934.00,0.0026
3933.00,0.0026
3932.00,0.0026
3931.00,0.0026
3930.00,0.0026
3929.00,0.0026
3928.00,0.0026
3927.00,0.0025
3926.00,0.0025
3925.00,0.0025
3924.00,0.0025
3923.00,0.0025
3922.00,0.0026
3921.00,0.0026
3920.00,0.0026
3919.00,0.0026
3918.00,0.0026
3917.00,0.0025
3916.00,0.0025
3915.00,0.0025
3914.00,0.0025
3913.00,0.0025
3912.00,0.0025
3911.00,0.0025
3910.00,0.0025
3909.00,0.0025
3908.00,0.0025
3907.00,0.0025
3906.00,0.0025
3905.00,0.0025
3904.00,0.0025
3903.00,0.0025
3902.00,0.0025
3901.00,0.0025
3900.00,0.0024
3899.00,0.0024
3898.00,0.0024
3897.00,0.0024
3896.00,0.0024
3895.00,0.0025
3894.00,0.0025
3893.00,0.0025
3892.00,0.0026
3891.00,0.0025
3890.00,0.0025
3889.00,0.0025
3888.00,0.0024
3887.00,0.0024
3886.00,0.0024
3885.00,0.0024
3884.00,0.0024
3883.00,0.0025
3882.00,0.0025
3881.00,0.0025
3880.00,0.0025
3879.00,0.0024
3878.00,0.0024
3877.00,0.0024
3876.00,0.0024
3875.00,0.0024
3874.00,0.0024
3873.00,0.0024
3872.00,0.0023
3871.00,0.0023
3870.00,0.0024
3869.00,0.0024
3868.00,0.0024
3867.00,0.0023
3866.00,0.0023
3865.00,0.0023
3864.00,0.0023
3863.00,0.0023
3862.00,0.0023
3861.00,0.0023
3860.00,0.0023
3859.00,0.0023
3858.00,0.0024
3857.00,0.0025
3856.00,0.0025
3855.00,0.0024
3854.00,0.0023
3853.00,0.0022
3852.00,0.0022
3851.00,0.0022
3850.00,0.0022
3849.00,0.0023
3848.00,0.0023
3847.00,0.0023
3846.00,0.0023
3845.00,0.0022
3844.00,0.0022
3843.00,0.0022
3842.00,0.0022
3841.00,0.0022
3840.00,0.0022
3839.00,0.0023
3838.00,0.0023
3837.00,0.0023
3836.00,0.0023
3835.00,0.0023
3834.00,0.0023
3833.00,0.0023
3832.00,0.0023
3831.00,0.0023
3830.00,0.0023
3829.00,0.0023
3828.00,0.0023
3827.00,0.0023
3826.00,0.0023
3825.00,0.0023
3824.00,0.0023
3823.00,0.0024
3822.00,0.0023
3821.00,0.0023
3820.00,0.0023
3819.00,0.0022
3818.00,0.0022
3817.00,0.0022
3816.00,0.0023
3815.00,0.0023
3814.00,0.0023
3813.00,0.0023
3812.00,0.0023
3811.00,0.0023
3810.00,0.0023
3809.00,0.0023
3808.00,0.0023
3807.00,0.0023
3806.00,0.0023
3805.00,0.0023
3804.00,0.0023
3803.00,0.0023
3802.00,0.0023
3801.00,0.0023
3800.00,0.0023
3799.00,0.0023
3798.00,0.0023
3797.00,0.0023
3796.00,0.0023
3795.00,0.0023
3794.00,0.0023
3793.00,0.0023
3792.00,0.0023
3791.00,0.0023
3790.00,0.0024
3789.00,0.0023
3788.00,0.0023
3787.00,0.0023
3786.00,0.0023
3785.00,0.0024
3784.00,0.0024
3783.00,0.0023
3782.00,0.0023
3781.00,0.0023
3780.00,0.0023
3779.00,0.0023
3778.00,0.0023
3777.00,0.0023
3776.00,0.0023
3775.00,0.0023
3774.00,0.0023
3773.00,0.0024
3772.00,0.0024
3771.00,0.0024
3770.00,0.0024
3769.00,0.0024
3768.00,0.0023
3767.00,0.0023
3766.00,0.0023
3765.00,0.0023
3764.00,0.0023
3763.00,0.0023
3762.00,0.0023
3761.00,0.0023
3760.00,0.0023
3759.00,0.0023
3758.00,0.0023
3757.00,0.0023
3756.00,0.0023
3755.00,0.0022
3754.00,0.0022
3753.00,0.0022
3752.00,0.0022
3751.00,0.0023
3750.00,0.0022
3749.00,0.0022
3748.00,0.0022
3747.00,0.0022
3746.00,0.0021
3745.00,0.0021
3744.00,0.0021
3743.00,0.0021
3742.00,0.0021
3741.00,0.0022
3740.00,0.0022
3739.00,0.0023
3738.00,0.0023
3737.00,0.0023
3736.00,0.0023
3735.00,0.0023
3734.00,0.0023
3733.00,0.0022
3732.00,0.0022
3731.00,0.0022
3730.00,0.0022
3729.00,0.0022
3728.00,0.0022
3727.00,0.0021
3726.00,0.0021
3725.00,0.0021
3724.00,0.0021
3723.00,0.0021
3722.00,0.0022
3721.00,0.0022
3720.00,0.0022
3719.00,0.0023
3718.00,0.0023
3717.00,0.0023
3716.00,0.0024
3715.00,0.0023
3714.00,0.0023
3713.00,0.0022
3712.00,0.0021
3711.00,0.0021
3710.00,0.0021
3709.00,0.0021
3708.00,0.0021
3707.00,0.0021
3706.00,0.0021
3705.00,0.0022
3704.00,0.0022
3703.00,0.0023
3702.00,0.0024
3701.00,0.0024
3700.00,0.0024
3699.00,0.0024
3698.00,0.0024
3697.00,0.0024
3696.00,0.0024
3695.00,0.0024
3694.00,0.0024
3693.00,0.0024
3692.00,0.0024
3691.00,0.0024
3690.00,0.0023
3689.00,0.0022
3688.00,0.0021
3687.00,0.0021
3686.00,0.0022
3685.00,0.0022
3684.00,0.0023
3683.00,0.0023
3682.00,0.0024
3681.00,0.0025
3680.00,0.0025
3679.00,0.0026
3678.00,0.0026
3677.00,0.0026
3676.00,0.0025
3675.00,0.0025
3674.00,0.0025
3673.00,0.0026
3672.00,0.0026
3671.00,0.0026
3670.00,0.0026
3669.00,0.0026
3668.00,0.0026
3667.00,0.0026
3666.00,0.0026
3665.00,0.0026
3664.00,0.0027
3663.00,0.0027
3662.00,0.0027
3661.00,0.0028
3660.00,0.0028
3659.00,0.0029
3658.00,0.0029
3657.00,0.0029
3656.00,0.0030
3655.00,0.0030
3654.00,0.0030
3653.00,0.0030
3652.00,0.0030
3651.00,0.0030
3650.00,0.0030
3649.00,0.0031
3648.00,0.0032
3647.00,0.0032
3646.00,0.0033
3645.00,0.0033
3644.00,0.0033
3643.00,0.0034
3642.00,0.0035
3641.00,0.0036
3640.00,0.0036
3639.00,0.0037
3638.00,0.0038
3637.00,0.0039
3636.00,0.0040
3635.00,0.0040
3634.00,0.0041
3633.00,0.0041
3632.00,0.0041
3631.00,0.0041
3630.00,0.0042
3629.00,0.0043
3628.00,0.0043
3627.00,0.0044
3626.00,0.0044
3625.00,0.0044
3624.00,0.0045
3623.00,0.0045
3622.00,0.0046
3621.00,0.0046
3620.00,0.0047
3619.00,0.0049
3618.00,0.0049
3617.00,0.0050
3616.00,0.0050
3615.00,0.0050
3614.00,0.0051
3613.00,0.0051
3612.00,0.0052
3611.00,0.0053
3610.00,0.0053
3609.00,0.0054
3608.00,0.0055
3607.00,0.0056
3606.00,0.0057
3605.00,0.0058
3604.00,0.0059
3603.00,0.0059
3602.00,0.0060
3601.00,0.0060
3600.00,0.0061
3599.00,0.0061
3598.00,0.0061
3597.00,0.0062
3596.00,0.0063
3595.00,0.0064
3594.00,0.0065
3593.00,0.0066
3592.00,0.0067
3591.00,0.0067
3590.00,0.0068
3589.00,0.0069
3588.00,0.0070
3587.00,0.0071
3586.00,0.0072
3585.00,0.0073
3584.00,0.0073
3583.00,0.0074
3582.00,0.0074
3581.00,0.0074
3580.00,0.0075
3579.00,0.0075
3578.00,0.0076
3577.00,0.0077
3576.00,0.0078
3575.00,0.0079
3574.00,0.0080
3573.00,0.0081
3572.00,0.0082
3571.00,0.0083
3570.00,0.0084
3569.00,0.0085
3568.00,0.0085
3567.00,0.0086
3566.00,0.0087
3565.00,0.0088
3564.00,0.0089
3563.00,0.0090
3562.00,0.0091
3561.00,0.0092
3560.00,0.0093
3559.00,0.0093
3558.00,0.0094
3557.00,0.0095
3556.00,0.0096
3555.00,0.0097
3554.00,0.0098
3553.00,0.0099
3552.00,0.0101
3551.00,0.0102
3550.00,0.0103
3549.00,0.0103
3548.00,0.0105
3547.00,0.0106
3546.00,0.0107
3545.00,0.0107
3544.00,0.0108
3543.00,0.0108
3542.00,0.0109
3541.00,0.0110
3540.00,0.0112
3539.00,0.0113
3538.00,0.0114
3537.00,0.0115
3536.00,0.0116
3535.00,0.0117
3534.00,0.0118
3533.00,0.0119
3532.00,0.0120
3531.00,0.0121
3530.00,0.0122
3529.00,0.0123
3528.00,0.0124
3527.00,0.0125
3526.00,0.0127
3525.00,0.0128
3524.00,0.0130
3523.00,0.0131
3522.00,0.0132
3521.00,0.0133
3520.00,0.0134
3519.00,0.0135
3518.00,0.0136
3517.00,0.0138
3516.00,0.0139
3515.00,0.0140
3514.00,0.0142
3513.00,0.0143
3512.00,0.0144
3511.00,0.0145
3510.00,0.0146
3509.00,0.0148
3508.00,0.0149
3507.00,0.0150
3506.00,0.0151
3505.00,0.0153
3504.00,0.0154
3503.00,0.0156
3502.00,0.0158
3501.00,0.0159
3500.00,0.0160
3499.00,0.0161
3498.00,0.0163
3497.00,0.0164
3496.00,0.0166
3495.00,0.0167
3494.00,0.0168
3493.00,0.0170
3492.00,0.0171
3491.00,0.0172
3490.00,0.0174
3489.00,0.0175
3488.00,0.0176
3487.00,0.0177
3486.00,0.0178
3485.00,0.0179
3484.00,0.0181
3483.00,0.0182
3482.00,0.0183
3481.00,0.0184
3480.00,0.0185
3479.00,0.0185
3478.00,0.0186
3477.00,0.0186
3476.00,0.0188
3475.00,0.0189
3474.00,0.0190
3473.00,0.0192
3472.00,0.0193
3471.00,0.0194
3470.00,0.0195
3469.00,0.0195
3468.00,0.0196
3467.00,0.0197
3466.00,0.0197
3465.00,0.0198
3464.00,0.0198
3463.00,0.0198
3462.00,0.0199
3461.00,0.0199
3460.00,0.0200
3459.00,0.0200
3458.00,0.0201
3457.00,0.0201
3456.00,0.0202
3455.00,0.0202
3454.00,0.0203
3453.00,0.0204
3452.00,0.0204
3451.00,0.0205
3450.00,0.0205
3449.00,0.0206
3448.00,0.0206
3447.00,0.0206
3446.00,0.0207
3445.00,0.0207
3444.00,0.0207
3443.00,0.0207
3442.00,0.0207
3441.00,0.0206
3440.00,0.0206
3439.00,0.0207
3438.00,0.0207
3437.00,0.0208
3436.00,0.0208
3435.00,0.0209
3434.00,0.0209
3433.00,0.0209
3432.00,0.0209
3431.00,0.0208
3430.00,0.0208
3429.00,0.0208
3428.00,0.0209
3427.00,0.0209
3426.00,0.0209
3425.00,0.0208
3424.00,0.0208
3423.00,0.0208
3422.00,0.0208
3421.00,0.0208
3420.00,0.0208
3419.00,0.0207
3418.00,0.0208
3417.00,0.0208
3416.00,0.0208
3415.00,0.0208
3414.00,0.0209
3413.00,0.0209
3412.00,0.0209
3411.00,0.0209
3410.00,0.0208
3409.00,0.0208
3408.00,0.0209
3407.00,0.0209
3406.00,0.0210
3405.00,0.0210
3404.00,0.0211
3403.00,0.0212
3402.00,0.0212
3401.00,0.0213
3400.00,0.0213
3399.00,0.0214
3398.00,0.0214
3397.00,0.0213
3396.00,0.0213
3395.00,0.0213
3394.00,0.0213
3393.00,0.0212
3392.00,0.0211
3391.00,0.0210
3390.00,0.0209
3389.00,0.0208
3388.00,0.0208
3387.00,0.0207
3386.00,0.0207
3385.00,0.0206
3384.00,0.0206
3383.00,0.0205
3382.00,0.0204
3381.00,0.0204
3380.00,0.0203
3379.00,0.0202
3378.00,0.0201
3377.00,0.0201
3376.00,0.0200
3375.00,0.0200
3374.00,0.0200
3373.00,0.0200
3372.00,0.0199
3371.00,0.0199
3370.00,0.0199
3369.00,0.0198
3368.00,0.0197
3367.00,0.0197
3366.00,0.0196
3365.00,0.0195
3364.00,0.0195
3363.00,0.0195
3362.00,0.0195
3361.00,0.0194
3360.00,0.0193
3359.00,0.0193
3358.00,0.0192
3357.00,0.0192
3356.00,0.0191
3355.00,0.0191
3354.00,0.0190
3353.00,0.0190
3352.00,0.0190
3351.00,0.0190
3350.00,0.0190
3349.00,0.0189
3348.00,0.0189
3347.00,0.0188
3346.00,0.0187
3345.00,0.0186
3344.00,0.0185
3343.00,0.0184
3342.00,0.0184
3341.00,0.0183
3340.00,0.0184
3339.00,0.0184
3338.00,0.0183
3337.00,0.0183
3336.00,0.0182
3335.00,0.0180
3334.00,0.0179
3333.00,0.0179
3332.00,0.0178
3331.00,0.0178
3330.00,0.0177
3329.00,0.0177
3328.00,0.0177
3327.00,0.0177
3326.00,0.0176
3325.00,0.0176
3324.00,0.0176
3323.00,0.0176
3322.00,0.0175
3321.00,0.0174
3320.00,0.0174
3319.00,0.0173
3318.00,0.0172
3317.00,0.0172
3316.00,0.0171
3315.00,0.0171
3314.00,0.0170
3313.00,0.0170
3312.00,0.0169
3311.00,0.0168
3310.00,0.0168
3309.00,0.0167
3308.00,0.0167
3307.00,0.0166
3306.00,0.0166
3305.00,0.0166
3304.00,0.0166
3303.00,0.0165
3302.00,0.0165
3301.00,0.0164
3300.00,0.0163
3299.00,0.0163
3298.00,0.0162
3297.00,0.0162
3296.00,0.0162
3295.00,0.0161
3294.00,0.0161
3293.00,0.0160
3292.00,0.0160
3291.00,0.0160
3290.00,0.0160
3289.00,0.0159
3288.00,0.0159
3287.00,0.0158
3286.00,0.0158
3285.00,0.0157
3284.00,0.0157
3283.00,0.0156
3282.00,0.0156
3281.00,0.0156
3280.00,0.0155
3279.00,0.0154
3278.00,0.0154
3277.00,0.0153
3276.00,0.0153
3275.00,0.0153
3274.00,0.0153
3273.00,0.0152
3272.00,0.0151
3271.00,0.0150
3270.00,0.0150
3269.00,0.0149
3268.00,0.0149
3267.00,0.0148
3266.00,0.0148
3265.00,0.0148
3264.00,0.0147
3263.00,0.0147
3262.00,0.0146
3261.00,0.0146
3260.00,0.0145
3259.00,0.0145
3258.00,0.0145
3257.00,0.0144
3256.00,0.0143
3255.00,0.0143
3254.00,0.0142
3253.00,0.0141
3252.00,0.0141
3251.00,0.0140
3250.00,0.0140
3249.00,0.0140
3248.00,0.0140
3247.00,0.0140
3246.00,0.0139
3245.00,0.0139
3244.00,0.0139
3243.00,0.0138
3242.00,0.0138
3241.00,0.0138
3240.00,0.0137
3239.00,0.0137
3238.00,0.0136
3237.00,0.0136
3236.00,0.0135
3235.00,0.0135
3234.00,0.0134
3233.00,0.0134
3232.00,0.0134
3231.00,0.0134
3230.00,0.0134
3229.00,0.0133
3228.00,0.0133
3227.00,0.0133
3226.00,0.0132
3225.00,0.0132
3224.00,0.0132
3223.00,0.0132
3222.00,0.0132
3221.00,0.0132
3220.00,0.0132
3219.00,0.0131
3218.00,0.0131
3217.00,0.0131
3216.00,0.0130
3215.00,0.0130
3214.00,0.0130
3213.00,0.0129
3212.00,0.0129
3211.00,0.0129
3210.00,0.0128
3209.00,0.0128
3208.00,0.0128
3207.00,0.0128
3206.00,0.0128
3205.00,0.0128
3204.00,0.0128
3203.00,0.0127
3202.00,0.0127
3201.00,0.0126
3200.00,0.0126
3199.00,0.0126
3198.00,0.0125
3197.00,0.0125
3196.00,0.0125
3195.00,0.0124
3194.00,0.0124
3193.00,0.0124
3192.00,0.0124
3191.00,0.0123
3190.00,0.0123
3189.00,0.0123
3188.00,0.0123
3187.00,0.0123
3186.00,0.0122
3185.00,0.0121
3184.00,0.0120
3183.00,0.0119
3182.00,0.0118
3181.00,0.0117
3180.00,0.0116
3179.00,0.0115
3178.00,0.0114
3177.00,0.0114
3176.00,0.0113
3175.00,0.0113
3174.00,0.0112
3173.00,0.0111
3172.00,0.0110
3171.00,0.0109
3170.00,0.0109
3169.00,0.0108
3168.00,0.0108
3167.00,0.0107
3166.00,0.0107
3165.00,0.0106
3164.00,0.0105
3163.00,0.0105
3162.00,0.0104
3161.00,0.0104
3160.00,0.0103
3159.00,0.0102
3158.00,0.0101
3157.00,0.0101
3156.00,0.0100
3155.00,0.0099
3154.00,0.0098
3153.00,0.0098
3152.00,0.0098
3151.00,0.0098
3150.00,0.0098
3149.00,0.0097
3148.00,0.0097
3147.00,0.0096
3146.00,0.0096
3145.00,0.0095
3144.00,0.0095
3143.00,0.0095
3142.00,0.0094
3141.00,0.0094
3140.00,0.0093
3139.00,0.0093
3138.00,0.0092
3137.00,0.0091
3136.00,0.0090
3135.00,0.0090
3134.00,0.0089
3133.00,0.0089
3132.00,0.0088
3131.00,0.0088
3130.00,0.0087
3129.00,0.0087
3128.00,0.0086
3127.00,0.0085
3126.00,0.0085
3125.00,0.0084
3124.00,0.0083
3123.00,0.0082
3122.00,0.0082
3121.00,0.0081
3120.00,0.0081
3119.00,0.0081
3118.00,0.0080
3117.00,0.0080
3116.00,0.0080
3115.00,0.0079
3114.00,0.0079
3113.00,0.0079
3112.00,0.0078
3111.00,0.0078
3110.00,0.0078
3109.00,0.0077
3108.00,0.0077
3107.00,0.0076
3106.00,0.0076
3105.00,0.0075
3104.00,0.0075
3103.00,0.0075
3102.00,0.0075
3101.00,0.0075
3100.00,0.0074
3099.00,0.0074
3098.00,0.0074
3097.00,0.0073
3096.00,0.0073
3095.00,0.0073
3094.00,0.0073
3093.00,0.0072
3092.00,0.0072
3091.00,0.0071
3090.00,0.0071
3089.00,0.0071
3088.00,0.0071
3087.00,0.0070
3086.00,0.0070
3085.00,0.0069
3084.00,0.0069
3083.00,0.0069
3082.00,0.0069
3081.00,0.0068
3080.00,0.0068
3079.00,0.0068
3078.00,0.0068
3077.00,0.0068
3076.00,0.0068
3075.00,0.0068
3074.00,0.0068
3073.00,0.0069
3072.00,0.0069
3071.00,0.0069
3070.00,0.0069
3069.00,0.0069
3068.00,0.0069
3067.00,0.0070
3066.00,0.0070
3065.00,0.0070
3064.00,0.0069
3063.00,0.0069
3062.00,0.0069
3061.00,0.0069
3060.00,0.0068
3059.00,0.0068
3058.00,0.0069
3057.00,0.0069
3056.00,0.0069
3055.00,0.0069
3054.00,0.0070
3053.00,0.0070
3052.00,0.0070
3051.00,0.0070
3050.00,0.0070
3049.00,0.0070
3048.00,0.0070
3047.00,0.0070
3046.00,0.0070
3045.00,0.0070
3044.00,0.0071
3043.00,0.0071
3042.00,0.0071
3041.00,0.0072
3040.00,0.0072
3039.00,0.0073
3038.00,0.0073
3037.00,0.0073
3036.00,0.0073
3035.00,0.0073
3034.00,0.0073
3033.00,0.0073
3032.00,0.0074
3031.00,0.0074
3030.00,0.0074
3029.00,0.0075
3028.00,0.0075
3027.00,0.0076
3026.00,0.0077
3025.00,0.0078
3024.00,0.0078
3023.00,0.0079
3022.00,0.0080
3021.00,0.0080
3020.00,0.0081
3019.00,0.0082
3018.00,0.0083
3017.00,0.0084
3016.00,0.0085
3015.00,0.0086
3014.00,0.0088
3013.00,0.0090
3012.00,0.0092
3011.00,0.0093
3010.00,0.0094
3009.00,0.0096
3008.00,0.0098
3007.00,0.0099
3006.00,0.0101
3005.00,0.0103
3004.00,0.0106
3003.00,0.0108
3002.00,0.0111
3001.00,0.0113
3000.00,0.0116
2999.00,0.0120
2998.00,0.0124
2997.00,0.0128
2996.00,0.0133
2995.00,0.0137
2994.00,0.0143
2993.00,0.0148
2992.00,0.0154
2991.00,0.0160
2990.00,0.0166
2989.00,0.0173
2988.00,0.0180
2987.00,0.0188
2986.00,0.0196
2985.00,0.0205
2984.00,0.0214
2983.00,0.0224
2982.00,0.0236
2981.00,0.0249
2980.00,0.0264
2979.00,0.0282
2978.00,0.0301
2977.00,0.0323
2976.00,0.0348
2975.00,0.0376
2974.00,0.0407
2973.00,0.0443
2972.00,0.0483
2971.00,0.0528
2970.00,0.0579
2969.00,0.0635
2968.00,0.0695
2967.00,0.0760
2966.00,0.0827
2965.00,0.0895
2964.00,0.0960
2963.00,0.1019
2962.00,0.1070
2961.00,0.1109
2960.00,0.1138
2959.00,0.1159
2958.00,0.1178
2957.00,0.1199
2956.00,0.1226
2955.00,0.1263
2954.00,0.1309
2953.00,0.1358
2952.00,0.1403
2951.00,0.1435
2950.00,0.1447
2949.00,0.1432
2948.00,0.1391
2947.00,0.1326
2946.00,0.1248
2945.00,0.1164
2944.00,0.1084
2943.00,0.1015
2942.00,0.0961
2941.00,0.0923
2940.00,0.0902
2939.00,0.0897
2938.00,0.0905
2937.00,0.0925
2936.00,0.0957
2935.00,0.0998
2934.00,0.1049
2933.00,0.1107
2932.00,0.1173
2931.00,0.1245
2930.00,0.1320
2929.00,0.1399
2928.00,0.1477
2927.00,0.1554
2926.00,0.1629
2925.00,0.1703
2924.00,0.1774
2923.00,0.1845
2922.00,0.1914
2921.00,0.1979
2920.00,0.2034
2919.00,0.2075
2918.00,0.2093
2917.00,0.2085
2916.00,0.2050
2915.00,0.1993
2914.00,0.1922
2913.00,0.1846
2912.00,0.1773
2911.00,0.1707
2910.00,0.1648
2909.00,0.1598
2908.00,0.1552
2907.00,0.1509
2906.00,0.1467
2905.00,0.1424
2904.00,0.1379
2903.00,0.1334
2902.00,0.1288
2901.00,0.1243
2900.00,0.1199
2899.00,0.1156
2898.00,0.1116
2897.00,0.1078
2896.00,0.1044
2895.00,0.1013
2894.00,0.0987
2893.00,0.0966
2892.00,0.0949
2891.00,0.0937
2890.00,0.0928
2889.00,0.0922
2888.00,0.0919
2887.00,0.0917
2886.00,0.0918
2885.00,0.0922
2884.00,0.0928
2883.00,0.0937
2882.00,0.0948
2881.00,0.0962
2880.00,0.0974
2879.00,0.0984
2878.00,0.0989
2877.00,0.0988
2876.00,0.0983
2875.00,0.0976
2874.00,0.0971
2873.00,0.0969
2872.00,0.0973
2871.00,0.0982
2870.00,0.0993
2869.00,0.1005
2868.00,0.1011
2867.00,0.1007
2866.00,0.0989
2865.00,0.0956
2864.00,0.0909
2863.00,0.0855
2862.00,0.0801
2861.00,0.0753
2860.00,0.0713
2859.00,0.0685
2858.00,0.0668
2857.00,0.0661
2856.00,0.0661
2855.00,0.0668
2854.00,0.0681
2853.00,0.0697
2852.00,0.0714
2851.00,0.0731
2850.00,0.0745
2849.00,0.0756
2848.00,0.0765
2847.00,0.0775
2846.00,0.0790
2845.00,0.0812
2844.00,0.0843
2843.00,0.0879
2842.00,0.0918
2841.00,0.0954
2840.00,0.0983
2839.00,0.0997
2838.00,0.0994
2837.00,0.0970
2836.00,0.0926
2835.00,0.0865
2834.00,0.0793
2833.00,0.0719
2832.00,0.0647
2831.00,0.0582
2830.00,0.0526
2829.00,0.0479
2828.00,0.0440
2827.00,0.0408
2826.00,0.0381
2825.00,0.0359
2824.00,0.0340
2823.00,0.0323
2822.00,0.0309
2821.00,0.0297
2820.00,0.0286
2819.00,0.0276
2818.00,0.0267
2817.00,0.0260
2816.00,0.0253
2815.00,0.0246
2814.00,0.0239
2813.00,0.0232
2812.00,0.0226
2811.00,0.0219
2810.00,0.0212
2809.00,0.0206
2808.00,0.0198
2807.00,0.0191
2806.00,0.0184
2805.00,0.0176
2804.00,0.0169
2803.00,0.0163
2802.00,0.0156
2801.00,0.0151
2800.00,0.0147
2799.00,0.0143
2798.00,0.0139
2797.00,0.0136
2796.00,0.0133
2795.00,0.0131
2794.00,0.0128
2793.00,0.0126
2792.00,0.0123
2791.00,0.0120
2790.00,0.0116
2789.00,0.0113
2788.00,0.0111
2787.00,0.0108
2786.00,0.0106
2785.00,0.0104
2784.00,0.0101
2783.00,0.0099
2782.00,0.0097
2781.00,0.0095
2780.00,0.0094
2779.00,0.0092
2778.00,0.0091
2777.00,0.0089
2776.00,0.0088
2775.00,0.0087
2774.00,0.0086
2773.00,0.0085
2772.00,0.0085
2771.00,0.0084
2770.00,0.0083
2769.00,0.0083
2768.00,0.0082
2767.00,0.0082
2766.00,0.0082
2765.00,0.0081
2764.00,0.0081
2763.00,0.0081
2762.00,0.0081
2761.00,0.0080
2760.00,0.0080
2759.00,0.0080
2758.00,0.0080
2757.00,0.0079
2756.00,0.0079
2755.00,0.0079
2754.00,0.0078
2753.00,0.0078
2752.00,0.0078
2751.00,0.0077
2750.00,0.0077
2749.00,0.0077
2748.00,0.0077
2747.00,0.0077
2746.00,0.0077
2745.00,0.0078
2744.00,0.0078
2743.00,0.0078
2742.00,0.0079
2741.00,0.0080
2740.00,0.0080
2739.00,0.0081
2738.00,0.0081
2737.00,0.0082
2736.00,0.0083
2735.00,0.0083
2734.00,0.0084
2733.00,0.0085
2732.00,0.0086
2731.00,0.0087
2730.00,0.0088
2729.00,0.0090
2728.00,0.0091
2727.00,0.0093
2726.00,0.0095
2725.00,0.0096
2724.00,0.0097
2723.00,0.0098
2722.00,0.0097
2721.00,0.0096
2720.00,0.0094
2719.00,0.0092
2718.00,0.0090
2717.00,0.0088
2716.00,0.0086
2715.00,0.0084
2714.00,0.0082
2713.00,0.0080
2712.00,0.0079
2711.00,0.0077
2710.00,0.0075
2709.00,0.0074
2708.00,0.0073
2707.00,0.0072
2706.00,0.0071
2705.00,0.0070
2704.00,0.0070
2703.00,0.0069
2702.00,0.0069
2701.00,0.0068
2700.00,0.0067
2699.00,0.0067
2698.00,0.0066
2697.00,0.0066
2696.00,0.0065
2695.00,0.0065
2694.00,0.0065
2693.00,0.0065
2692.00,0.0065
2691.00,0.0066
2690.00,0.0066
2689.00,0.0066
2688.00,0.0066
2687.00,0.0066
2686.00,0.0065
2685.00,0.0065
2684.00,0.0065
2683.00,0.0065
2682.00,0.0065
2681.00,0.0065
2680.00,0.0065
2679.00,0.0065
2678.00,0.0065
2677.00,0.0066
2676.00,0.0066
2675.00,0.0066
2674.00,0.0065
2673.00,0.0065
2672.00,0.0065
2671.00,0.0065
2670.00,0.0064
2669.00,0.0064
2668.00,0.0064
2667.00,0.0064
2666.00,0.0065
2665.00,0.0065
2664.00,0.0066
2663.00,0.0066
2662.00,0.0067
2661.00,0.0067
2660.00,0.0067
2659.00,0.0067
2658.00,0.0067
2657.00,0.0066
2656.00,0.0066
2655.00,0.0066
2654.00,0.0066
2653.00,0.0065
2652.00,0.0065
2651.00,0.0065
2650.00,0.0064
2649.00,0.0063
2648.00,0.0063
2647.00,0.0062
2646.00,0.0062
2645.00,0.0061
2644.00,0.0061
2643.00,0.0060
2642.00,0.0060
2641.00,0.0060
2640.00,0.0060
2639.00,0.0059
2638.00,0.0059
2637.00,0.0058
2636.00,0.0058
2635.00,0.0058
2634.00,0.0058
2633.00,0.0058
2632.00,0.0058
2631.00,0.0058
2630.00,0.0058
2629.00,0.0058
2628.00,0.0058
2627.00,0.0057
2626.00,0.0057
2625.00,0.0057
2624.00,0.0057
2623.00,0.0057
2622.00,0.0058
2621.00,0.0058
2620.00,0.0058
2619.00,0.0058
2618.00,0.0058
2617.00,0.0058
2616.00,0.0058
2615.00,0.0057
2614.00,0.0057
2613.00,0.0057
2612.00,0.0057
2611.00,0.0057
2610.00,0.0056
2609.00,0.0055
2608.00,0.0054
2607.00,0.0053
2606.00,0.0053
2605.00,0.0053
2604.00,0.0052
2603.00,0.0052
2602.00,0.0052
2601.00,0.0051
2600.00,0.0051
2599.00,0.0051
2598.00,0.0051
2597.00,0.0051
2596.00,0.0051
2595.00,0.0052
2594.00,0.0052
2593.00,0.0052
2592.00,0.0051
2591.00,0.0051
2590.00,0.0051
2589.00,0.0051
2588.00,0.0051
2587.00,0.0052
2586.00,0.0052
2585.00,0.0053
2584.00,0.0053
2583.00,0.0053
2582.00,0.0054
2581.00,0.0054
2580.00,0.0054
2579.00,0.0053
2578.00,0.0052
2577.00,0.0051
2576.00,0.0050
2575.00,0.0050
2574.00,0.0049
2573.00,0.0049
2572.00,0.0048
2571.00,0.0047
2570.00,0.0046
2569.00,0.0045
2568.00,0.0045
2567.00,0.0044
2566.00,0.0043
2565.00,0.0043
2564.00,0.0042
2563.00,0.0042
2562.00,0.0042
2561.00,0.0043
2560.00,0.0043
2559.00,0.0043
2558.00,0.0043
2557.00,0.0043
2556.00,0.0043
2555.00,0.0042
2554.00,0.0041
2553.00,0.0040
2552.00,0.0039
2551.00,0.0038
2550.00,0.0038
2549.00,0.0038
2548.00,0.0038
2547.00,0.0039
2546.00,0.0039
2545.00,0.0038
2544.00,0.0037
2543.00,0.0037
2542.00,0.0037
2541.00,0.0037
2540.00,0.0037
2539.00,0.0037
2538.00,0.0036
2537.00,0.0035
2536.00,0.0035
2535.00,0.0035
2534.00,0.0035
2533.00,0.0035
2532.00,0.0035
2531.00,0.0034
2530.00,0.0033
2529.00,0.0033
2528.00,0.0033
2527.00,0.0033
2526.00,0.0033
2525.00,0.0034
2524.00,0.0034
2523.00,0.0034
2522.00,0.0034
2521.00,0.0034
2520.00,0.0034
2519.00,0.0034
2518.00,0.0034
2517.00,0.0033
2516.00,0.0033
2515.00,0.0032
2514.00,0.0032
2513.00,0.0032
2512.00,0.0031
2511.00,0.0031
2510.00,0.0031
2509.00,0.0031
2508.00,0.0031
2507.00,0.0030
2506.00,0.0031
2505.00,0.0031
2504.00,0.0031
2503.00,0.0031
2502.00,0.0031
2501.00,0.0031
2500.00,0.0031
2499.00,0.0031
2498.00,0.0032
2497.00,0.0032
2496.00,0.0032
2495.00,0.0031
2494.00,0.0031
2493.00,0.0031
2492.00,0.0031
2491.00,0.0030
2490.00,0.0030
2489.00,0.0030
2488.00,0.0030
2487.00,0.0030
2486.00,0.0030
2485.00,0.0031
2484.00,0.0031
2483.00,0.0031
2482.00,0.0030
2481.00,0.0030
2480.00,0.0029
2479.00,0.0029
2478.00,0.0028
2477.00,0.0029
2476.00,0.0029
2475.00,0.0029
2474.00,0.0029
2473.00,0.0029
2472.00,0.0029
2471.00,0.0030
2470.00,0.0030
2469.00,0.0030
2468.00,0.0029
2467.00,0.0028
2466.00,0.0028
2465.00,0.0027
2464.00,0.0028
2463.00,0.0028
2462.00,0.0029
2461.00,0.0028
2460.00,0.0028
2459.00,0.0028
2458.00,0.0029
2457.00,0.0030
2456.00,0.0030
2455.00,0.0031
2454.00,0.0031
2453.00,0.0032
2452.00,0.0031
2451.00,0.0031
2450.00,0.0030
2449.00,0.0030
2448.00,0.0029
2447.00,0.0029
2446.00,0.0028
2445.00,0.0028
2444.00,0.0028
2443.00,0.0028
2442.00,0.0028
2441.00,0.0029
2440.00,0.0030
2439.00,0.0031
2438.00,0.0030
2437.00,0.0030
2436.00,0.0030
2435.00,0.0030
2434.00,0.0030
2433.00,0.0030
2432.00,0.0030
2431.00,0.0030
2430.00,0.0030
2429.00,0.0031
2428.00,0.0031
2427.00,0.0030
2426.00,0.0030
2425.00,0.0029
2424.00,0.0029
2423.00,0.0029
2422.00,0.0029
2421.00,0.0029
2420.00,0.0029
2419.00,0.0028
2418.00,0.0028
2417.00,0.0028
2416.00,0.0028
2415.00,0.0028
2414.00,0.0028
2413.00,0.0028
2412.00,0.0028
2411.00,0.0027
2410.00,0.0027
2409.00,0.0027
2408.00,0.0027
2407.00,0.0028
2406.00,0.0028
2405.00,0.0027
2404.00,0.0028
2403.00,0.0028
2402.00,0.0028
2401.00,0.0027
2400.00,0.0027
2399.00,0.0027
2398.00,0.0027
2397.00,0.0027
2396.00,0.0026
2395.00,0.0026
2394.00,0.0026
2393.00,0.0026
2392.00,0.0025
2391.00,0.0025
2390.00,0.0025
2389.00,0.0025
2388.00,0.0026
2387.00,0.0026
2386.00,0.0026
2385.00,0.0025
2384.00,0.0024
2383.00,0.0024
2382.00,0.0023
2381.00,0.0022
2380.00,0.0022
2379.00,0.0021
2378.00,0.0021
2377.00,0.0021
2376.00,0.0021
2375.00,0.0021
2374.00,0.0022
2373.00,0.0022
2372.00,0.0021
2371.00,0.0020
2370.00,0.0020
2369.00,0.0019
2368.00,0.0019
2367.00,0.0018
2366.00,0.0018
2365.00,0.0019
2364.00,0.0020
2363.00,0.0022
2362.00,0.0023
2361.00,0.0024
2360.00,0.0024
2359.00,0.0024
2358.00,0.0023
2357.00,0.0022
2356.00,0.0021
2355.00,0.0021
2354.00,0.0021
2353.00,0.0021
2352.00,0.0021
2351.00,0.0021
2350.00,0.0021
2349.00,0.0022
2348.00,0.0023
2347.00,0.0023
2346.00,0.0023
2345.00,0.0023
2344.00,0.0023
2343.00,0.0023
2342.00,0.0024
2341.00,0.0024
2340.00,0.0024
2339.00,0.0024
2338.00,0.0024
2337.00,0.0024
2336.00,0.0024
2335.00,0.0024
2334.00,0.0024
2333.00,0.0023
2332.00,0.0023
2331.00,0.0022
2330.00,0.0022
2329.00,0.0023
2328.00,0.0025
2327.00,0.0028
2326.00,0.0031
2325.00,0.0034
2324.00,0.0036
2323.00,0.0035
2322.00,0.0033
2321.00,0.0031
2320.00,0.0030
2319.00,0.0029
2318.00,0.0028
2317.00,0.0027
2316.00,0.0026
2315.00,0.0025
2314.00,0.0024
2313.00,0.0024
2312.00,0.0025
2311.00,0.0026
2310.00,0.0027
2309.00,0.0027
2308.00,0.0026
2307.00,0.0025
2306.00,0.0025
2305.00,0.0025
2304.00,0.0025
2303.00,0.0025
2302.00,0.0026
2301.00,0.0027
2300.00,0.0027
2299.00,0.0028
2298.00,0.0029
2297.00,0.0028
2296.00,0.0028
2295.00,0.0028
2294.00,0.0028
2293.00,0.0029
2292.00,0.0030
2291.00,0.0031
2290.00,0.0032
2289.00,0.0032
2288.00,0.0033
2287.00,0.0034
2286.00,0.0034
2285.00,0.0034
2284.00,0.0034
2283.00,0.0033
2282.00,0.0032
2281.00,0.0031
2280.00,0.0030
2279.00,0.0029
2278.00,0.0028
2277.00,0.0027
2276.00,0.0027
2275.00,0.0026
2274.00,0.0026
2273.00,0.0026
2272.00,0.0026
2271.00,0.0025
2270.00,0.0025
2269.00,0.0025
2268.00,0.0026
2267.00,0.0026
2266.00,0.0026
2265.00,0.0026
2264.00,0.0026
2263.00,0.0026
2262.00,0.0026
2261.00,0.0026
2260.00,0.0025
2259.00,0.0025
2258.00,0.0024
2257.00,0.0023
2256.00,0.0023
2255.00,0.0022
2254.00,0.0022
2253.00,0.0023
2252.00,0.0022
2251.00,0.0021
2250.00,0.0021
2249.00,0.0020
2248.00,0.0020
2247.00,0.0020
2246.00,0.0020
2245.00,0.0020
2244.00,0.0021
2243.00,0.0022
2242.00,0.0022
2241.00,0.0022
2240.00,0.0022
2239.00,0.0022
2238.00,0.0021
2237.00,0.0022
2236.00,0.0022
2235.00,0.0022
2234.00,0.0021
2233.00,0.0020
2232.00,0.0019
2231.00,0.0018
2230.00,0.0017
2229.00,0.0016
2228.00,0.0016
2227.00,0.0016
2226.00,0.0017
2225.00,0.0018
2224.00,0.0019
2223.00,0.0020
2222.00,0.0022
2221.00,0.0023
2220.00,0.0023
2219.00,0.0021
2218.00,0.0020
2217.00,0.0020
2216.00,0.0020
2215.00,0.0020
2214.00,0.0020
2213.00,0.0020
2212.00,0.0019
2211.00,0.0018
2210.00,0.0017
2209.00,0.0017
2208.00,0.0017
2207.00,0.0017
2206.00,0.0015
2205.00,0.0013
2204.00,0.0012
2203.00,0.0013
2202.00,0.0016
2201.00,0.0020
2200.00,0.0021
2199.00,0.0021
2198.00,0.0018
2197.00,0.0016
2196.00,0.0015
2195.00,0.0015
2194.00,0.0017
2193.00,0.0019
2192.00,0.0020
2191.00,0.0020
2190.00,0.0019
2189.00,0.0019
2188.00,0.0018
2187.00,0.0017
2186.00,0.0017
2185.00,0.0018
2184.00,0.0018
2183.00,0.0018
2182.00,0.0016
2181.00,0.0015
2180.00,0.0014
2179.00,0.0012
2178.00,0.0011
2177.00,0.0009
2176.00,0.0008
2175.00,0.0009
2174.00,0.0011
2173.00,0.0013
2172.00,0.0017
2171.00,0.0020
2170.00,0.0022
2169.00,0.0024
2168.00,0.0025
2167.00,0.0024
2166.00,0.0022
2165.00,0.0019
2164.00,0.0018
2163.00,0.0018
2162.00,0.0018
2161.00,0.0013
2160.00,0.0003
2159.00,-0.0008
2158.00,-0.0017
2157.00,-0.0018
2156.00,-0.0015
2155.00,-0.0009
2154.00,-0.0005
2153.00,-0.0001
2152.00,0.0001
2151.00,0.0002
2150.00,0.0001
2149.00,-0.0000
2148.00,-0.0002
2147.00,-0.0002
2146.00,-0.0002
2145.00,-0.0002
2144.00,-0.0001
2143.00,0.0000
2142.00,0.0002
2141.00,0.0004
2140.00,0.0006
2139.00,0.0007
2138.00,0.0008
2137.00,0.0007
2136.00,0.0005
2135.00,0.0002
2134.00,0.0000
2133.00,-0.0000
2132.00,0.0001
2131.00,0.0003
2130.00,0.0004
2129.00,0.0005
2128.00,0.0007
2127.00,0.0008
2126.00,0.0010
2125.00,0.0011
2124.00,0.0012
2123.00,0.0012
2122.00,0.0012
2121.00,0.0012
2120.00,0.0012
2119.00,0.0014
2118.00,0.0016
2117.00,0.0018
2116.00,0.0019
2115.00,0.0020
2114.00,0.0019
2113.00,0.0018
2112.00,0.0018
2111.00,0.0016
2110.00,0.0016
2109.00,0.0015
2108.00,0.0015
2107.00,0.0014
2106.00,0.0014
2105.00,0.0015
2104.00,0.0015
2103.00,0.0016
2102.00,0.0016
2101.00,0.0017
2100.00,0.0017
2099.00,0.0017
2098.00,0.0017
2097.00,0.0017
2096.00,0.0016
2095.00,0.0015
2094.00,0.0013
2093.00,0.0012
2092.00,0.0012
2091.00,0.0013
2090.00,0.0013
2089.00,0.0014
2088.00,0.0014
2087.00,0.0013
2086.00,0.0013
2085.00,0.0014
2084.00,0.0016
2083.00,0.0017
2082.00,0.0018
2081.00,0.0018
2080.00,0.0018
2079.00,0.0018
2078.00,0.0019
2077.00,0.0019
2076.00,0.0019
2075.00,0.0019
2074.00,0.0018
2073.00,0.0017
2072.00,0.0017
2071.00,0.0016
2070.00,0.0016
2069.00,0.0015
2068.00,0.0015
2067.00,0.0015
2066.00,0.0015
2065.00,0.0018
2064.00,0.0020
2063.00,0.0022
2062.00,0.0022
2061.00,0.0020
2060.00,0.0017
2059.00,0.0015
2058.00,0.0015
2057.00,0.0016
2056.00,0.0018
2055.00,0.0019
2054.00,0.0021
2053.00,0.0025
2052.00,0.0030
2051.00,0.0032
2050.00,0.0031
2049.00,0.0026
2048.00,0.0020
2047.00,0.0014
2046.00,0.0010
2045.00,0.0009
2044.00,0.0009
2043.00,0.0008
2042.00,0.0007
2041.00,0.0006
2040.00,0.0007
2039.00,0.0009
2038.00,0.0012
2037.00,0.0014
2036.00,0.0014
2035.00,0.0014
2034.00,0.0012
2033.00,0.0011
2032.00,0.0009
2031.00,0.0006
2030.00,0.0004
2029.00,0.0003
2028.00,0.0004
2027.00,0.0003
2026.00,0.0002
2025.00,0.0000
2024.00,-0.0002
2023.00,-0.0004
2022.00,-0.0004
2021.00,-0.0003
2020.00,-0.0001
2019.00,0.0000
2018.00,0.0000
2017.00,0.0001
2016.00,0.0003
2015.00,0.0005
2014.00,0.0007
2013.00,0.0007
2012.00,0.0006
2011.00,0.0004
2010.00,0.0002
2009.00,0.0001
2008.00,0.0000
2007.00,-0.0001
2006.00,-0.0000
2005.00,0.0000
2004.00,0.0000
2003.00,-0.0000
2002.00,-0.0001
2001.00,-0.0002
2000.00,-0.0003
1999.00,-0.0005
1998.00,-0.0005
1997.00,-0.0003
1996.00,-0.0001
1995.00,0.0001
1994.00,0.0002
1993.00,0.0004
1992.00,0.0005
1991.00,0.0005
1990.00,0.0004
1989.00,0.0005
1988.00,0.0007
1987.00,0.0009
1986.00,0.0010
1985.00,0.0012
1984.00,0.0014
1983.00,0.0016
1982.00,0.0018
1981.00,0.0020
1980.00,0.0018
1979.00,0.0014
1978.00,0.0008
1977.00,0.0004
1976.00,0.0002
1975.00,0.0002
1974.00,0.0004
1973.00,0.0005
1972.00,0.0006
1971.00,0.0004
1970.00,0.0002
1969.00,0.0000
1968.00,-0.0000
1967.00,-0.0001
1966.00,-0.0001
1965.00,0.0001
1964.00,0.0003
1963.00,0.0003
1962.00,0.0002
1961.00,0.0001
1960.00,0.0001
1959.00,0.0002
1958.00,0.0003
1957.00,0.0005
1956.00,0.0005
1955.00,0.0004
1954.00,0.0002
1953.00,0.0001
1952.00,0.0001
1951.00,0.0001
1950.00,0.0000
1949.00,-0.0000
1948.00,-0.0001
1947.00,-0.0001
1946.00,-0.0001
1945.00,-0.0000
1944.00,0.0001
1943.00,0.0003
1942.00,0.0003
1941.00,0.0002
1940.00,0.0002
1939.00,0.0002
1938.00,0.0003
1937.00,0.0005
1936.00,0.0006
1935.00,0.0006
1934.00,0.0006
1933.00,0.0006
1932.00,0.0005
1931.00,0.0006
1930.00,0.0007
1929.00,0.0008
1928.00,0.0009
1927.00,0.0010
1926.00,0.0009
1925.00,0.0009
1924.00,0.0009
1923.00,0.0009
1922.00,0.0009
1921.00,0.0010
1920.00,0.0010
1919.00,0.0010
1918.00,0.0010
1917.00,0.0010
1916.00,0.0010
1915.00,0.0011
1914.00,0.0011
1913.00,0.0011
1912.00,0.0010
1911.00,0.0010
1910.00,0.0009
1909.00,0.0010
1908.00,0.0010
1907.00,0.0011
1906.00,0.0011
1905.00,0.0011
1904.00,0.0012
1903.00,0.0012
1902.00,0.0011
1901.00,0.0010
1900.00,0.0010
1899.00,0.0010
1898.00,0.0010
1897.00,0.0010
1896.00,0.0011
1895.00,0.0012
1894.00,0.0012
1893.00,0.0011
1892.00,0.0011
1891.00,0.0012
1890.00,0.0013
1889.00,0.0014
1888.00,0.0014
1887.00,0.0013
1886.00,0.0011
1885.00,0.0011
1884.00,0.0012
1883.00,0.0013
1882.00,0.0013
1881.00,0.0014
1880.00,0.0013
1879.00,0.0013
1878.00,0.0013
1877.00,0.0013
1876.00,0.0013
1875.00,0.0013
1874.00,0.0013
1873.00,0.0013
1872.00,0.0013
1871.00,0.0012
1870.00,0.0012
1869.00,0.0011
1868.00,0.0012
1867.00,0.0012
1866.00,0.0013
1865.00,0.0014
1864.00,0.0014
1863.00,0.0014
1862.00,0.0015
1861.00,0.0015
1860.00,0.0014
1859.00,0.0014
1858.00,0.0013
1857.00,0.0014
1856.00,0.0014
1855.00,0.0015
1854.00,0.0015
1853.00,0.0014
1852.00,0.0014
1851.00,0.0014
1850.00,0.0015
1849.00,0.0015
1848.00,0.0015
1847.00,0.0015
1846.00,0.0015
1845.00,0.0015
1844.00,0.0015
1843.00,0.0015
1842.00,0.0015
1841.00,0.0014
1840.00,0.0015
1839.00,0.0015
1838.00,0.0015
1837.00,0.0016
1836.00,0.0017
1835.00,0.0018
1834.00,0.0018
1833.00,0.0018
1832.00,0.0019
1831.00,0.0018
1830.00,0.0018
1829.00,0.0018
1828.00,0.0018
1827.00,0.0019
1826.00,0.0019
1825.00,0.0019
1824.00,0.0019
1823.00,0.0018
1822.00,0.0018
1821.00,0.0017
1820.00,0.0017
1819.00,0.0016
1818.00,0.0015
1817.00,0.0014
1816.00,0.0014
1815.00,0.0015
1814.00,0.0016
1813.00,0.0016
1812.00,0.0017
1811.00,0.0017
1810.00,0.0017
1809.00,0.0017
1808.00,0.0017
1807.00,0.0018
1806.00,0.0018
1805.00,0.0019
1804.00,0.0020
1803.00,0.0020
1802.00,0.0020
1801.00,0.0020
1800.00,0.0020
1799.00,0.0020
1798.00,0.0020
1797.00,0.0020
1796.00,0.0020
1795.00,0.0020
1794.00,0.0021
1793.00,0.0021
1792.00,0.0022
1791.00,0.0023
1790.00,0.0023
1789.00,0.0023
1788.00,0.0023
1787.00,0.0023
1786.00,0.0023
1785.00,0.0023
1784.00,0.0023
1783.00,0.0023
1782.00,0.0023
1781.00,0.0023
1780.00,0.0023
1779.00,0.0023
1778.00,0.0023
1777.00,0.0022
1776.00,0.0022
1775.00,0.0022
1774.00,0.0023
1773.00,0.0023
1772.00,0.0024
1771.00,0.0024
1770.00,0.0025
1769.00,0.0026
1768.00,0.0026
1767.00,0.0026
1766.00,0.0026
1765.00,0.0026
1764.00,0.0027
1763.00,0.0027
1762.00,0.0027
1761.00,0.0027
1760.00,0.0028
1759.00,0.0028
1758.00,0.0028
1757.00,0.0028
1756.00,0.0028
1755.00,0.0028
1754.00,0.0028
1753.00,0.0029
1752.00,0.0029
1751.00,0.0030
1750.00,0.0030
1749.00,0.0031
1748.00,0.0032
1747.00,0.0032
1746.00,0.0033
1745.00,0.0034
1744.00,0.0035
1743.00,0.0035
1742.00,0.0036
1741.00,0.0037
1740.00,0.0038
1739.00,0.0039
1738.00,0.0039
1737.00,0.0039
1736.00,0.0039
1735.00,0.0039
1734.00,0.0040
1733.00,0.0040
1732.00,0.0040
1731.00,0.0040
1730.00,0.0040
1729.00,0.0040
1728.00,0.0040
1727.00,0.0040
1726.00,0.0040
1725.00,0.0041
1724.00,0.0041
1723.00,0.0041
1722.00,0.0041
1721.00,0.0041
1720.00,0.0042
1719.00,0.0042
1718.00,0.0042
1717.00,0.0042
1716.00,0.0043
1715.00,0.0044
1714.00,0.0044
1713.00,0.0045
1712.00,0.0046
1711.00,0.0046
1710.00,0.0047
1709.00,0.0048
1708.00,0.0050
1707.00,0.0051
1706.00,0.0052
1705.00,0.0054
1704.00,0.0056
1703.00,0.0058
1702.00,0.0060
1701.00,0.0063
1700.00,0.0066
1699.00,0.0067
1698.00,0.0068
1697.00,0.0069
1696.00,0.0073
1695.00,0.0076
1694.00,0.0079
1693.00,0.0081
1692.00,0.0083
1691.00,0.0085
1690.00,0.0086
1689.00,0.0087
1688.00,0.0087
1687.00,0.0088
1686.00,0.0089
1685.00,0.0090
1684.00,0.0092
1683.00,0.0093
1682.00,0.0093
1681.00,0.0094
1680.00,0.0094
1679.00,0.0095
1678.00,0.0096
1677.00,0.0097
1676.00,0.0099
1675.00,0.0099
1674.00,0.0099
1673.00,0.0099
1672.00,0.0099
1671.00,0.0100
1670.00,0.0100
1669.00,0.0101
1668.00,0.0102
1667.00,0.0102
1666.00,0.0103
1665.00,0.0104
1664.00,0.0105
1663.00,0.0106
1662.00,0.0106
1661.00,0.0106
1660.00,0.0107
1659.00,0.0108
1658.00,0.0109
1657.00,0.0110
1656.00,0.0111
1655.00,0.0112
1654.00,0.0115
1653.00,0.0121
1652.00,0.0124
1651.00,0.0126
1650.00,0.0128
1649.00,0.0130
1648.00,0.0134
1647.00,0.0139
1646.00,0.0141
1645.00,0.0141
1644.00,0.0139
1643.00,0.0136
1642.00,0.0133
1641.00,0.0130
1640.00,0.0127
1639.00,0.0125
1638.00,0.0123
1637.00,0.0122
1636.00,0.0122
1635.00,0.0122
1634.00,0.0122
1633.00,0.0122
1632.00,0.0121
1631.00,0.0120
1630.00,0.0120
1629.00,0.0119
1628.00,0.0118
1627.00,0.0116
1626.00,0.0114
1625.00,0.0112
1624.00,0.0110
1623.00,0.0108
1622.00,0.0107
1621.00,0.0105
1620.00,0.0104
1619.00,0.0103
1618.00,0.0102
1617.00,0.0100
1616.00,0.0099
1615.00,0.0099
1614.00,0.0098
1613.00,0.0098
1612.00,0.0098
1611.00,0.0097
1610.00,0.0097
1609.00,0.0097
1608.00,0.0096
1607.00,0.0096
1606.00,0.0095
1605.00,0.0095
1604.00,0.0094
1603.00,0.0093
1602.00,0.0092
1601.00,0.0092
1600.00,0.0092
1599.00,0.0092
1598.00,0.0091
1597.00,0.0091
1596.00,0.0090
1595.00,0.0090
1594.00,0.0090
1593.00,0.0090
1592.00,0.0090
1591.00,0.0091
1590.00,0.0091
1589.00,0.0092
1588.00,0.0092
1587.00,0.0093
1586.00,0.0094
1585.00,0.0096
1584.00,0.0098
1583.00,0.0100
1582.00,0.0103
1581.00,0.0105
1580.00,0.0107
1579.00,0.0107
1578.00,0.0107
1577.00,0.0107
1576.00,0.0107
1575.00,0.0107
1574.00,0.0106
1573.00,0.0105
1572.00,0.0104
1571.00,0.0102
1570.00,0.0100
1569.00,0.0098
1568.00,0.0096
1567.00,0.0095
1566.00,0.0094
1565.00,0.0094
1564.00,0.0094
1563.00,0.0094
1562.00,0.0094
1561.00,0.0095
1560.00,0.0095
1559.00,0.0095
1558.00,0.0096
1557.00,0.0098
1556.00,0.0100
1555.00,0.0101
1554.00,0.0103
1553.00,0.0105
1552.00,0.0107
1551.00,0.0109
1550.00,0.0111
1549.00,0.0112
1548.00,0.0114
1547.00,0.0116
1546.00,0.0119
1545.00,0.0122
1544.00,0.0125
1543.00,0.0127
1542.00,0.0127
1541.00,0.0127
1540.00,0.0127
1539.00,0.0125
1538.00,0.0123
1537.00,0.0120
1536.00,0.0118
1535.00,0.0116
1534.00,0.0112
1533.00,0.0108
1532.00,0.0104
1531.00,0.0101
1530.00,0.0100
1529.00,0.0099
1528.00,0.0098
1527.00,0.0097
1526.00,0.0094
1525.00,0.0092
1524.00,0.0090
1523.00,0.0089
1522.00,0.0088
1521.00,0.0089
1520.00,0.0090
1519.00,0.0091
1518.00,0.0091
1517.00,0.0092
1516.00,0.0092
1515.00,0.0092
1514.00,0.0092
1513.00,0.0093
1512.00,0.0094
1511.00,0.0095
1510.00,0.0096
1509.00,0.0096
1508.00,0.0097
1507.00,0.0097
1506.00,0.0097
1505.00,0.0098
1504.00,0.0100
1503.00,0.0101
1502.00,0.0103
1501.00,0.0106
1500.00,0.0109
1499.00,0.0111
1498.00,0.0114
1497.00,0.0118
1496.00,0.0123
1495.00,0.0127
1494.00,0.0130
1493.00,0.0134
1492.00,0.0139
1491.00,0.0144
1490.00,0.0150
1489.00,0.0156
1488.00,0.0164
1487.00,0.0171
1486.00,0.0178
1485.00,0.0186
1484.00,0.0196
1483.00,0.0206
1482.00,0.0219
1481.00,0.0234
1480.00,0.0249
1479.00,0.0264
1478.00,0.0281
1477.00,0.0302
1476.00,0.0325
1475.00,0.0352
1474.00,0.0387
1473.00,0.0435
1472.00,0.0491
1471.00,0.0543
1470.00,0.0591
1469.00,0.0641
1468.00,0.0694
1467.00,0.0751
1466.00,0.0817
1465.00,0.0888
1464.00,0.0950
1463.00,0.0993
1462.00,0.1021
1461.00,0.1041
1460.00,0.1054
1459.00,0.1064
1458.00,0.1073
1457.00,0.1081
1456.00,0.1082
1455.00,0.1077
1454.00,0.1069
1453.00,0.1058
1452.00,0.1039
1451.00,0.1012
1450.00,0.0975
1449.00,0.0923
1448.00,0.0855
1447.00,0.0781
1446.00,0.0714
1445.00,0.0656
1444.00,0.0605
1443.00,0.0563
1442.00,0.0529
1441.00,0.0505
1440.00,0.0489
1439.00,0.0480
1438.00,0.0477
1437.00,0.0474
1436.00,0.0464
1435.00,0.0443
1434.00,0.0415
1433.00,0.0382
1432.00,0.0347
1431.00,0.0317
1430.00,0.0293
1429.00,0.0276
1428.00,0.0265
1427.00,0.0258
1426.00,0.0255
1425.00,0.0251
1424.00,0.0249
1423.00,0.0248
1422.00,0.0247
1421.00,0.0247
1420.00,0.0246
1419.00,0.0245
1418.00,0.0243
1417.00,0.0240
1416.00,0.0237
1415.00,0.0234
1414.00,0.0232
1413.00,0.0230
1412.00,0.0227
1411.00,0.0225
1410.00,0.0224
1409.00,0.0221
1408.00,0.0219
1407.00,0.0217
1406.00,0.0215
1405.00,0.0213
1404.00,0.0210
1403.00,0.0209
1402.00,0.0209
1401.00,0.0208
1400.00,0.0207
1399.00,0.0208
1398.00,0.0209
1397.00,0.0210
1396.00,0.0212
1395.00,0.0215
1394.00,0.0218
1393.00,0.0222
1392.00,0.0226
1391.00,0.0233
1390.00,0.0242
1389.00,0.0255
1388.00,0.0273
1387.00,0.0300
1386.00,0.0335
1385.00,0.0380
1384.00,0.0443
1383.00,0.0529
1382.00,0.0645
1381.00,0.0792
1380.00,0.0973
1379.00,0.1178
1378.00,0.1377
1377.00,0.1525
1376.00,0.1579
1375.00,0.1515
1374.00,0.1349
1373.00,0.1145
1372.00,0.0957
1371.00,0.0800
1370.00,0.0673
1369.00,0.0575
1368.00,0.0506
1367.00,0.0461
1366.00,0.0435
1365.00,0.0423
1364.00,0.0421
1363.00,0.0427
1362.00,0.0438
1361.00,0.0450
1360.00,0.0459
1359.00,0.0459
1358.00,0.0449
1357.00,0.0430
1356.00,0.0403
1355.00,0.0372
1354.00,0.0343
1353.00,0.0317
1352.00,0.0297
1351.00,0.0282
1350.00,0.0269
1349.00,0.0259
1348.00,0.0251
1347.00,0.0244
1346.00,0.0238
1345.00,0.0234
1344.00,0.0231
1343.00,0.0229
1342.00,0.0228
1341.00,0.0226
1340.00,0.0226
1339.00,0.0225
1338.00,0.0225
1337.00,0.0225
1336.00,0.0225
1335.00,0.0226
1334.00,0.0228
1333.00,0.0230
1332.00,0.0233
1331.00,0.0234
1330.00,0.0235
1329.00,0.0234
1328.00,0.0231
1327.00,0.0229
1326.00,0.0226
1325.00,0.0222
1324.00,0.0219
1323.00,0.0216
1322.00,0.0214
1321.00,0.0213
1320.00,0.0213
1319.00,0.0213
1318.00,0.0213
1317.00,0.0213
1316.00,0.0212
1315.00,0.0212
1314.00,0.0211
1313.00,0.0211
1312.00,0.0211
1311.00,0.0212
1310.00,0.0214
1309.00,0.0217
1308.00,0.0223
1307.00,0.0230
1306.00,0.0237
1305.00,0.0242
1304.00,0.0242
1303.00,0.0238
1302.00,0.0232
1301.00,0.0227
1300.00,0.0223
1299.00,0.0220
1298.00,0.0219
1297.00,0.0218
1296.00,0.0216
1295.00,0.0214
1294.00,0.0212
1293.00,0.0209
1292.00,0.0205
1291.00,0.0201
1290.00,0.0198
1289.00,0.0194
1288.00,0.0191
1287.00,0.0188
1286.00,0.0186
1285.00,0.0184
1284.00,0.0182
1283.00,0.0180
1282.00,0.0177
1281.00,0.0175
1280.00,0.0174
1279.00,0.0172
1278.00,0.0171
1277.00,0.0171
1276.00,0.0170
1275.00,0.0171
1274.00,0.0171
1273.00,0.0172
1272.00,0.0173
1271.00,0.0174
1270.00,0.0176
1269.00,0.0178
1268.00,0.0180
1267.00,0.0183
1266.00,0.0185
1265.00,0.0188
1264.00,0.0189
1263.00,0.0191
1262.00,0.0192
1261.00,0.0194
1260.00,0.0196
1259.00,0.0200
1258.00,0.0204
1257.00,0.0206
1256.00,0.0206
1255.00,0.0202
1254.00,0.0195
1253.00,0.0186
1252.00,0.0178
1251.00,0.0172
1250.00,0.0167
1249.00,0.0164
1248.00,0.0162
1247.00,0.0160
1246.00,0.0159
1245.00,0.0157
1244.00,0.0156
1243.00,0.0156
1242.00,0.0155
1241.00,0.0154
1240.00,0.0153
1239.00,0.0152
1238.00,0.0151
1237.00,0.0151
1236.00,0.0150
1235.00,0.0150
1234.00,0.0150
1233.00,0.0150
1232.00,0.0149
1231.00,0.0150
1230.00,0.0150
1229.00,0.0152
1228.00,0.0154
1227.00,0.0156
1226.00,0.0158
1225.00,0.0162
1224.00,0.0167
1223.00,0.0173
1222.00,0.0179
1221.00,0.0184
1220.00,0.0190
1219.00,0.0196
1218.00,0.0200
1217.00,0.0204
1216.00,0.0207
1215.00,0.0208
1214.00,0.0209
1213.00,0.0208
1212.00,0.0208
1211.00,0.0208
1210.00,0.0207
1209.00,0.0207
1208.00,0.0207
1207.00,0.0208
1206.00,0.0209
1205.00,0.0211
1204.00,0.0213
1203.00,0.0215
1202.00,0.0216
1201.00,0.0218
1200.00,0.0219
1199.00,0.0221
1198.00,0.0222
1197.00,0.0224
1196.00,0.0225
1195.00,0.0227
1194.00,0.0228
1193.00,0.0228
1192.00,0.0229
1191.00,0.0230
1190.00,0.0230
1189.00,0.0230
1188.00,0.0231
1187.00,0.0231
1186.00,0.0230
1185.00,0.0230
1184.00,0.0230
1183.00,0.0231
1182.00,0.0233
1181.00,0.0237
1180.00,0.0241
1179.00,0.0247
1178.00,0.0254
1177.00,0.0264
1176.00,0.0275
1175.00,0.0291
1174.00,0.0310
1173.00,0.0335
1172.00,0.0364
1171.00,0.0396
1170.00,0.0428
1169.00,0.0457
1168.00,0.0476
1167.00,0.0486
1166.00,0.0487
1165.00,0.0482
1164.00,0.0476
1163.00,0.0471
1162.00,0.0468
1161.00,0.0468
1160.00,0.0469
1159.00,0.0473
1158.00,0.0477
1157.00,0.0483
1156.00,0.0490
1155.00,0.0497
1154.00,0.0503
1153.00,0.0508
1152.00,0.0511
1151.00,0.0511
1150.00,0.0508
1149.00,0.0504
1148.00,0.0499
1147.00,0.0494
1146.00,0.0490
1145.00,0.0487
1144.00,0.0485
1143.00,0.0484
1142.00,0.0484
1141.00,0.0485
1140.00,0.0487
1139.00,0.0490
1138.00,0.0495
1137.00,0.0501
1136.00,0.0509
1135.00,0.0519
1134.00,0.0530
1133.00,0.0541
1132.00,0.0553
1131.00,0.0565
1130.00,0.0577
1129.00,0.0589
1128.00,0.0601
1127.00,0.0613
1126.00,0.0624
1125.00,0.0635
1124.00,0.0645
1123.00,0.0654
1122.00,0.0662
1121.00,0.0668
1120.00,0.0674
1119.00,0.0678
1118.00,0.0682
1117.00,0.0686
1116.00,0.0690
1115.00,0.0693
1114.00,0.0694
1113.00,0.0696
1112.00,0.0697
1111.00,0.0699
1110.00,0.0702
1109.00,0.0704
1108.00,0.0707
1107.00,0.0711
1106.00,0.0714
1105.00,0.0718
1104.00,0.0721
1103.00,0.0723
1102.00,0.0723
1101.00,0.0722
1100.00,0.0718
1099.00,0.0714
1098.00,0.0710
1097.00,0.0706
1096.00,0.0702
1095.00,0.0700
1094.00,0.0698
1093.00,0.0699
1092.00,0.0700
1091.00,0.0703
1090.00,0.0706
1089.00,0.0711
1088.00,0.0717
1087.00,0.0725
1086.00,0.0732
1085.00,0.0740
1084.00,0.0748
1083.00,0.0756
1082.00,0.0763
1081.00,0.0770
1080.00,0.0776
1079.00,0.0781
1078.00,0.0787
1077.00,0.0792
1076.00,0.0798
1075.00,0.0803
1074.00,0.0806
1073.00,0.0810
1072.00,0.0813
1071.00,0.0816
1070.00,0.0819
1069.00,0.0822
1068.00,0.0826
1067.00,0.0829
1066.00,0.0831
1065.00,0.0833
1064.00,0.0834
1063.00,0.0834
1062.00,0.0834
1061.00,0.0834
1060.00,0.0833
1059.00,0.0831
1058.00,0.0827
1057.00,0.0822
1056.00,0.0817
1055.00,0.0811
1054.00,0.0805
1053.00,0.0798
1052.00,0.0790
1051.00,0.0782
1050.00,0.0773
1049.00,0.0764
1048.00,0.0756
1047.00,0.0749
1046.00,0.0742
1045.00,0.0734
1044.00,0.0724
1043.00,0.0712
1042.00,0.0699
1041.00,0.0686
1040.00,0.0674
1039.00,0.0664
1038.00,0.0654
1037.00,0.0646
1036.00,0.0638
1035.00,0.0630
1034.00,0.0621
1033.00,0.0611
1032.00,0.0601
1031.00,0.0591
1030.00,0.0582
1029.00,0.0574
1028.00,0.0567
1027.00,0.0560
1026.00,0.0552
1025.00,0.0543
1024.00,0.0534
1023.00,0.0526
1022.00,0.0518
1021.00,0.0509
1020.00,0.0501
1019.00,0.0492
1018.00,0.0485
1017.00,0.0478
1016.00,0.0471
1015.00,0.0464
1014.00,0.0458
1013.00,0.0451
1012.00,0.0443
1011.00,0.0436
1010.00,0.0428
1009.00,0.0421
1008.00,0.0415
1007.00,0.0410
1006.00,0.0408
1005.00,0.0409
1004.00,0.0415
1003.00,0.0427
1002.00,0.0446
1001.00,0.0471
1000.00,0.0500
999.00,0.0523
998.00,0.0531
997.00,0.0519
996.00,0.0488
995.00,0.0446
994.00,0.0402
993.00,0.0363
992.00,0.0332
991.00,0.0308
990.00,0.0290
989.00,0.0276
988.00,0.0266
987.00,0.0259
986.00,0.0254
985.00,0.0251
984.00,0.0250
983.00,0.0253
982.00,0.0260
981.00,0.0272
980.00,0.0289
979.00,0.0313
978.00,0.0343
977.00,0.0380
976.00,0.0419
975.00,0.0456
974.00,0.0484
973.00,0.0494
972.00,0.0481
971.00,0.0449
970.00,0.0404
969.00,0.0360
968.00,0.0323
967.00,0.0297
966.00,0.0280
965.00,0.0271
964.00,0.0266
963.00,0.0264
962.00,0.0264
961.00,0.0265
960.00,0.0267
959.00,0.0270
958.00,0.0274
957.00,0.0278
956.00,0.0281
955.00,0.0284
954.00,0.0286
953.00,0.0288
952.00,0.0290
951.00,0.0291
950.00,0.0293
949.00,0.0295
948.00,0.0296
947.00,0.0296
946.00,0.0295
945.00,0.0294
944.00,0.0292
943.00,0.0289
942.00,0.0285
941.00,0.0280
940.00,0.0273
939.00,0.0265
938.00,0.0256
937.00,0.0246
936.00,0.0236
935.00,0.0227
934.00,0.0220
933.00,0.0214
932.00,0.0211
931.00,0.0208
930.00,0.0207
929.00,0.0205
928.00,0.0202
927.00,0.0200
926.00,0.0196
925.00,0.0193
924.00,0.0189
923.00,0.0185
922.00,0.0182
921.00,0.0179
920.00,0.0176
919.00,0.0173
918.00,0.0171
917.00,0.0170
916.00,0.0169
915.00,0.0168
914.00,0.0166
913.00,0.0165
912.00,0.0166
911.00,0.0169
910.00,0.0171
909.00,0.0173
908.00,0.0174
907.00,0.0175
906.00,0.0179
905.00,0.0185
904.00,0.0194
903.00,0.0207
902.00,0.0222
901.00,0.0235
900.00,0.0244
899.00,0.0246
898.00,0.0241
897.00,0.0229
896.00,0.0214
895.00,0.0199
894.00,0.0187
893.00,0.0178
892.00,0.0172
891.00,0.0167
890.00,0.0162
889.00,0.0159
888.00,0.0156
887.00,0.0153
886.00,0.0151
885.00,0.0149
884.00,0.0146
883.00,0.0144
882.00,0.0143
881.00,0.0142
880.00,0.0141
879.00,0.0142
878.00,0.0143
877.00,0.0143
876.00,0.0144
875.00,0.0143
874.00,0.0142
873.00,0.0140
872.00,0.0137
871.00,0.0134
870.00,0.0131
869.00,0.0128
868.00,0.0127
867.00,0.0126
866.00,0.0126
865.00,0.0128
864.00,0.0129
863.00,0.0131
862.00,0.0133
861.00,0.0135
860.00,0.0137
859.00,0.0140
858.00,0.0143
857.00,0.0145
856.00,0.0147
855.00,0.0149
854.00,0.0151
853.00,0.0153
852.00,0.0155
851.00,0.0157
850.00,0.0160
849.00,0.0165
848.00,0.0173
847.00,0.0186
846.00,0.0205
845.00,0.0233
844.00,0.0273
843.00,0.0318
842.00,0.0355
841.00,0.0365
840.00,0.0344
839.00,0.0301
838.00,0.0254
837.00,0.0219
836.00,0.0196
835.00,0.0182
834.00,0.0173
833.00,0.0167
832.00,0.0163
831.00,0.0159
830.00,0.0156
829.00,0.0155
828.00,0.0155
827.00,0.0155
826.00,0.0155
825.00,0.0155
824.00,0.0155
823.00,0.0156
822.00,0.0158
821.00,0.0159
820.00,0.0161
819.00,0.0163
818.00,0.0166
817.00,0.0170
816.00,0.0177
815.00,0.0187
814.00,0.0200
813.00,0.0215
812.00,0.0231
811.00,0.0246
810.00,0.0256
809.00,0.0260
808.00,0.0257
807.00,0.0248
806.00,0.0235
805.00,0.0220
804.00,0.0207
803.00,0.0197
802.00,0.0189
801.00,0.0183
800.00,0.0179
799.00,0.0174
798.00,0.0169
797.00,0.0165
796.00,0.0162
795.00,0.0158
794.00,0.0155
793.00,0.0152
792.00,0.0151
791.00,0.0151
790.00,0.0150
789.00,0.0148
788.00,0.0145
787.00,0.0142
786.00,0.0140
785.00,0.0139
784.00,0.0138
783.00,0.0138
782.00,0.0139
781.00,0.0139
780.00,0.0138
779.00,0.0137
778.00,0.0137
777.00,0.0137
776.00,0.0138
775.00,0.0139
774.00,0.0139
773.00,0.0139
772.00,0.0138
771.00,0.0137
770.00,0.0138
769.00,0.0138
768.00,0.0137
767.00,0.0135
766.00,0.0133
765.00,0.0131
764.00,0.0130
763.00,0.0130
762.00,0.0130
761.00,0.0131
760.00,0.0132
759.00,0.0132
758.00,0.0132
757.00,0.0131
756.00,0.0130
755.00,0.0130
754.00,0.0132
753.00,0.0133
752.00,0.0134
751.00,0.0135
750.00,0.0134
749.00,0.0134
748.00,0.0135
747.00,0.0137
746.00,0.0139
745.00,0.0141
744.00,0.0143
743.00,0.0144
742.00,0.0146
741.00,0.0150
740.00,0.0154
739.00,0.0159
738.00,0.0164
737.00,0.0169
736.00,0.0173
735.00,0.0176
734.00,0.0180
733.00,0.0185
732.00,0.0191
731.00,0.0198
730.00,0.0204
729.00,0.0208
728.00,0.0209
727.00,0.0210
726.00,0.0212
725.00,0.0215
724.00,0.0220
723.00,0.0227
722.00,0.0233
721.00,0.0238
720.00,0.0238
719.00,0.0231
718.00,0.0220
717.00,0.0209
716.00,0.0200
715.00,0.0195
714.00,0.0193
713.00,0.0193
712.00,0.0192
711.00,0.0191
710.00,0.0189
709.00,0.0186
708.00,0.0184
707.00,0.0183
706.00,0.0183
705.00,0.0184
704.00,0.0184
703.00,0.0182
702.00,0.0178
701.00,0.0175
700.00,0.0173
699.00,0.0172
698.00,0.0170
697.00,0.0169
696.00,0.0167
695.00,0.0166
694.00,0.0164
693.00,0.0163
692.00,0.0163
691.00,0.0164
690.00,0.0165
689.00,0.0167
688.00,0.0170
687.00,0.0172
686.00,0.0172
685.00,0.0173
684.00,0.0175
683.00,0.0178
682.00,0.0181
681.00,0.0182
680.00,0.0183
679.00,0.0185
678.00,0.0188
677.00,0.0191
676.00,0.0193
675.00,0.0196
674.00,0.0199
673.00,0.0203
672.00,0.0208
671.00,0.0213
670.00,0.0216
669.00,0.0219
668.00,0.0222
667.00,0.0227
666.00,0.0229
665.00,0.0229
664.00,0.0228
663.00,0.0227
662.00,0.0225
661.00,0.0225
660.00,0.0225
659.00,0.0226
658.00,0.0225
657.00,0.0223
656.00,0.0221
655.00,0.0220
654.00,0.0221
653.00,0.0223
652.00,0.0226
651.00,0.0228
650.00,0.0230
649.00,0.0230
648.00,0.0228
647.00,0.0225
646.00,0.0223
645.00,0.0222
644.00,0.0223
643.00,0.0224
642.00,0.0225
641.00,0.0225
640.00,0.0224
639.00,0.0223
638.00,0.0224
637.00,0.0227
636.00,0.0230
635.00,0.0233
634.00,0.0235
633.00,0.0236
632.00,0.0236
631.00,0.0235
630.00,0.0235
629.00,0.0234
628.00,0.0234
627.00,0.0236
626.00,0.0239
625.00,0.0244
624.00,0.0247
623.00,0.0247
622.00,0.0245
621.00,0.0244
620.00,0.0244
619.00,0.0246
618.00,0.0248
617.00,0.0249
616.00,0.0250
615.00,0.0253
614.00,0.0256
613.00,0.0258
612.00,0.0260
611.00,0.0259
610.00,0.0256
609.00,0.0254
608.00,0.0253
607.00,0.0254
606.00,0.0255
605.00,0.0256
604.00,0.0256
603.00,0.0255
602.00,0.0253
601.00,0.0250
600.00,0.0248
599.00,0.0249
598.00,0.0252
597.00,0.0258
596.00,0.0264
595.00,0.0267
594.00,0.0267
593.00,0.0264
592.00,0.0263
591.00,0.0264
590.00,0.0266
589.00,0.0269
588.00,0.0270
587.00,0.0269
586.00,0.0267
585.00,0.0265
584.00,0.0263
583.00,0.0261
582.00,0.0259
581.00,0.0259
580.00,0.0262
579.00,0.0266
578.00,0.0269
577.00,0.0271
576.00,0.0271
575.00,0.0271
574.00,0.0270
573.00,0.0267
572.00,0.0264
571.00,0.0262
570.00,0.0263
569.00,0.0265
568.00,0.0266
567.00,0.0266
566.00,0.0267
565.00,0.0269
564.00,0.0271
563.00,0.0269
562.00,0.0264
561.00,0.0258
560.00,0.0255
559.00,0.0257
558.00,0.0260
557.00,0.0261
556.00,0.0258
555.00,0.0254
554.00,0.0250
553.00,0.0248
552.00,0.0245
551.00,0.0242
550.00,0.0240
549.00,0.0242
548.00,0.0249
547.00,0.0258
546.00,0.0266
545.00,0.0269
544.00,0.0266
543.00,0.0261
542.00,0.0256
541.00,0.0254
540.00,0.0259
539.00,0.0267
538.00,0.0276
537.00,0.0279
536.00,0.0276
535.00,0.0269
534.00,0.0265
533.00,0.0264
532.00,0.0265
531.00,0.0264
530.00,0.0259
529.00,0.0255
528.00,0.0254
527.00,0.0257
526.00,0.0259
525.00,0.0257
524.00,0.0252
523.00,0.0248
522.00,0.0246
521.00,0.0246
520.00,0.0246
519.00,0.0246
518.00,0.0245
517.00,0.0244
516.00,0.0243
515.00,0.0243
514.00,0.0243
513.00,0.0241
512.00,0.0239
511.00,0.0236
510.00,0.0233
509.00,0.0233
508.00,0.0233
507.00,0.0235
506.00,0.0237
505.00,0.0239
504.00,0.0241
503.00,0.0240
502.00,0.0236
501.00,0.0228
500.00,0.0222
499.00,0.0220
498.00,0.0221
497.00,0.0221
496.00,0.0221
495.00,0.0220
494.00,0.0222
493.00,0.0225
492.00,0.0226
491.00,0.0224
490.00,0.0221
489.00,0.0220
488.00,0.0220
487.00,0.0219
486.00,0.0216
485.00,0.0215
484.00,0.0217
483.00,0.0224
482.00,0.0229
481.00,0.0231
480.00,0.0232
479.00,0.0236
478.00,0.0243
477.00,0.0251
476.00,0.0254
475.00,0.0249
474.00,0.0240
473.00,0.0235
472.00,0.0237
471.00,0.0241
470.00,0.0241
469.00,0.0236
468.00,0.0232
467.00,0.0234
466.00,0.0240
465.00,0.0245
464.00,0.0247
463.00,0.0249
462.00,0.0254
461.00,0.0259
460.00,0.0262
459.00,0.0262
458.00,0.0263
457.00,0.0269
456.00,0.0278
455.00,0.0283
454.00,0.0282
453.00,0.0274
452.00,0.0264
451.00,0.0254
450.00,0.0242
