Created as New Dataset,Sample 118 By Administrator Date Tuesday, September 09 2025
cm-1,A
4000.00,0.0006
3999.00,0.0006
3998.00,0.0006
3997.00,0.0006
3996.00,0.0006
3995.00,0.0006
3994.00,0.0006
3993.00,0.0006
3992.00,0.0006
3991.00,0.0005
3990.00,0.0005
3989.00,0.0005
3988.00,0.0005
3987.00,0.0005
3986.00,0.0005
3985.00,0.0005
3984.00,0.0005
3983.00,0.0005
3982.00,0.0006
3981.00,0.0006
3980.00,0.0006
3979.00,0.0006
3978.00,0.0006
3977.00,0.0005
3976.00,0.0005
3975.00,0.0005
3974.00,0.0006
3973.00,0.0006
3972.00,0.0005
3971.00,0.0005
3970.00,0.0005
3969.00,0.0005
3968.00,0.0005
3967.00,0.0004
3966.00,0.0004
3965.00,0.0004
3964.00,0.0004
3963.00,0.0004
3962.00,0.0004
3961.00,0.0004
3960.00,0.0004
3959.00,0.0005
3958.00,0.0004
3957.00,0.0004
3956.00,0.0004
3955.00,0.0004
3954.00,0.0004
3953.00,0.0004
3952.00,0.0004
3951.00,0.0004
3950.00,0.0004
3949.00,0.0004
3948.00,0.0004
3947.00,0.0004
3946.00,0.0004
3945.00,0.0004
3944.00,0.0004
3943.00,0.0004
3942.00,0.0004
3941.00,0.0004
3940.00,0.0004
3939.00,0.0005
3938.00,0.0005
3937.00,0.0005
3936.00,0.0006
3935.00,0.0006
3934.00,0.0006
3933.00,0.0006
3932.00,0.0006
3931.00,0.0006
3930.00,0.0005
3929.00,0.0005
3928.00,0.0005
3927.00,0.0004
3926.00,0.0004
3925.00,0.0004
3924.00,0.0004
3923.00,0.0005
3922.00,0.0005
3921.00,0.0005
3920.00,0.0005
3919.00,0.0005
3918.00,0.0005
3917.00,0.0005
3916.00,0.0005
3915.00,0.0005
3914.00,0.0005
3913.00,0.0004
3912.00,0.0004
3911.00,0.0005
3910.00,0.0005
3909.00,0.0005
3908.00,0.0005
3907.00,0.0005
3906.00,0.0005
3905.00,0.0005
3904.00,0.0005
3903.00,0.0006
3902.00,0.0006
3901.00,0.0006
3900.00,0.0006
3899.00,0.0006
3898.00,0.0006
3897.00,0.0006
3896.00,0.0006
3895.00,0.0005
3894.00,0.0005
3893.00,0.0005
3892.00,0.0004
3891.00,0.0005
3890.00,0.0005
3889.00,0.0005
3888.00,0.0005
3887.00,0.0004
3886.00,0.0004
3885.00,0.0004
3884.00,0.0005
3883.00,0.0004
3882.00,0.0004
3881.00,0.0004
3880.00,0.0004
3879.00,0.0004
3878.00,0.0004
3877.00,0.0004
3876.00,0.0004
3875.00,0.0004
3874.00,0.0005
3873.00,0.0005
3872.00,0.0005
3871.00,0.0004
3870.00,0.0004
3869.00,0.0005
3868.00,0.0005
3867.00,0.0004
3866.00,0.0004
3865.00,0.0004
3864.00,0.0004
3863.00,0.0004
3862.00,0.0004
3861.00,0.0004
3860.00,0.0005
3859.00,0.0005
3858.00,0.0006
3857.00,0.0006
3856.00,0.0006
3855.00,0.0005
3854.00,0.0005
3853.00,0.0005
3852.00,0.0005
3851.00,0.0005
3850.00,0.0005
3849.00,0.0004
3848.00,0.0004
3847.00,0.0004
3846.00,0.0004
3845.00,0.0004
3844.00,0.0004
3843.00,0.0004
3842.00,0.0004
3841.00,0.0004
3840.00,0.0004
3839.00,0.0004
3838.00,0.0005
3837.00,0.0005
3836.00,0.0005
3835.00,0.0005
3834.00,0.0005
3833.00,0.0005
3832.00,0.0005
3831.00,0.0005
3830.00,0.0005
3829.00,0.0004
3828.00,0.0004
3827.00,0.0004
3826.00,0.0005
3825.00,0.0005
3824.00,0.0005
3823.00,0.0005
3822.00,0.0004
3821.00,0.0004
3820.00,0.0004
3819.00,0.0004
3818.00,0.0004
3817.00,0.0003
3816.00,0.0004
3815.00,0.0005
3814.00,0.0005
3813.00,0.0005
3812.00,0.0005
3811.00,0.0006
3810.00,0.0006
3809.00,0.0005
3808.00,0.0005
3807.00,0.0004
3806.00,0.0004
3805.00,0.0004
3804.00,0.0004
3803.00,0.0004
3802.00,0.0004
3801.00,0.0004
3800.00,0.0004
3799.00,0.0004
3798.00,0.0004
3797.00,0.0004
3796.00,0.0004
3795.00,0.0004
3794.00,0.0005
3793.00,0.0005
3792.00,0.0005
3791.00,0.0005
3790.00,0.0005
3789.00,0.0005
3788.00,0.0005
3787.00,0.0005
3786.00,0.0004
3785.00,0.0004
3784.00,0.0004
3783.00,0.0004
3782.00,0.0003
3781.00,0.0003
3780.00,0.0003
3779.00,0.0003
3778.00,0.0004
3777.00,0.0004
3776.00,0.0004
3775.00,0.0004
3774.00,0.0005
3773.00,0.0004
3772.00,0.0004
3771.00,0.0004
3770.00,0.0004
3769.00,0.0005
3768.00,0.0005
3767.00,0.0005
3766.00,0.0005
3765.00,0.0006
3764.00,0.0006
3763.00,0.0006
3762.00,0.0006
3761.00,0.0006
3760.00,0.0006
3759.00,0.0006
3758.00,0.0006
3757.00,0.0006
3756.00,0.0005
3755.00,0.0005
3754.00,0.0005
3753.00,0.0005
3752.00,0.0005
3751.00,0.0005
3750.00,0.0005
3749.00,0.0006
3748.00,0.0006
3747.00,0.0006
3746.00,0.0006
3745.00,0.0006
3744.00,0.0006
3743.00,0.0006
3742.00,0.0006
3741.00,0.0005
3740.00,0.0005
3739.00,0.0004
3738.00,0.0004
3737.00,0.0004
3736.00,0.0005
3735.00,0.0005
3734.00,0.0006
3733.00,0.0006
3732.00,0.0006
3731.00,0.0006
3730.00,0.0006
3729.00,0.0005
3728.00,0.0005
3727.00,0.0004
3726.00,0.0004
3725.00,0.0004
3724.00,0.0003
3723.00,0.0003
3722.00,0.0004
3721.00,0.0004
3720.00,0.0004
3719.00,0.0004
3718.00,0.0004
3717.00,0.0004
3716.00,0.0004
3715.00,0.0004
3714.00,0.0003
3713.00,0.0003
3712.00,0.0003
3711.00,0.0003
3710.00,0.0003
3709.00,0.0003
3708.00,0.0003
3707.00,0.0003
3706.00,0.0003
3705.00,0.0003
3704.00,0.0003
3703.00,0.0003
3702.00,0.0003
3701.00,0.0004
3700.00,0.0004
3699.00,0.0004
3698.00,0.0004
3697.00,0.0004
3696.00,0.0004
3695.00,0.0003
3694.00,0.0003
3693.00,0.0003
3692.00,0.0004
3691.00,0.0004
3690.00,0.0004
3689.00,0.0004
3688.00,0.0004
3687.00,0.0004
3686.00,0.0004
3685.00,0.0004
3684.00,0.0004
3683.00,0.0004
3682.00,0.0004
3681.00,0.0004
3680.00,0.0004
3679.00,0.0005
3678.00,0.0005
3677.00,0.0004
3676.00,0.0004
3675.00,0.0004
3674.00,0.0005
3673.00,0.0005
3672.00,0.0004
3671.00,0.0004
3670.00,0.0005
3669.00,0.0005
3668.00,0.0005
3667.00,0.0004
3666.00,0.0004
3665.00,0.0004
3664.00,0.0004
3663.00,0.0003
3662.00,0.0003
3661.00,0.0003
3660.00,0.0002
3659.00,0.0002
3658.00,0.0002
3657.00,0.0002
3656.00,0.0003
3655.00,0.0003
3654.00,0.0004
3653.00,0.0004
3652.00,0.0004
3651.00,0.0004
3650.00,0.0004
3649.00,0.0004
3648.00,0.0003
3647.00,0.0003
3646.00,0.0003
3645.00,0.0003
3644.00,0.0003
3643.00,0.0002
3642.00,0.0003
3641.00,0.0003
3640.00,0.0003
3639.00,0.0003
3638.00,0.0004
3637.00,0.0004
3636.00,0.0005
3635.00,0.0005
3634.00,0.0005
3633.00,0.0005
3632.00,0.0005
3631.00,0.0004
3630.00,0.0004
3629.00,0.0004
3628.00,0.0004
3627.00,0.0004
3626.00,0.0004
3625.00,0.0004
3624.00,0.0005
3623.00,0.0005
3622.00,0.0006
3621.00,0.0006
3620.00,0.0005
3619.00,0.0005
3618.00,0.0005
3617.00,0.0005
3616.00,0.0005
3615.00,0.0005
3614.00,0.0005
3613.00,0.0006
3612.00,0.0007
3611.00,0.0007
3610.00,0.0008
3609.00,0.0008
3608.00,0.0007
3607.00,0.0007
3606.00,0.0007
3605.00,0.0006
3604.00,0.0006
3603.00,0.0006
3602.00,0.0007
3601.00,0.0007
3600.00,0.0008
3599.00,0.0008
3598.00,0.0008
3597.00,0.0008
3596.00,0.0008
3595.00,0.0008
3594.00,0.0008
3593.00,0.0008
3592.00,0.0009
3591.00,0.0009
3590.00,0.0009
3589.00,0.0009
3588.00,0.0009
3587.00,0.0009
3586.00,0.0009
3585.00,0.0010
3584.00,0.0010
3583.00,0.0010
3582.00,0.0010
3581.00,0.0010
3580.00,0.0010
3579.00,0.0010
3578.00,0.0010
3577.00,0.0010
3576.00,0.0010
3575.00,0.0010
3574.00,0.0011
3573.00,0.0011
3572.00,0.0011
3571.00,0.0011
3570.00,0.0011
3569.00,0.0012
3568.00,0.0012
3567.00,0.0012
3566.00,0.0013
3565.00,0.0013
3564.00,0.0013
3563.00,0.0013
3562.00,0.0014
3561.00,0.0014
3560.00,0.0015
3559.00,0.0015
3558.00,0.0015
3557.00,0.0015
3556.00,0.0015
3555.00,0.0015
3554.00,0.0015
3553.00,0.0016
3552.00,0.0016
3551.00,0.0017
3550.00,0.0017
3549.00,0.0017
3548.00,0.0017
3547.00,0.0018
3546.00,0.0018
3545.00,0.0018
3544.00,0.0018
3543.00,0.0018
3542.00,0.0018
3541.00,0.0018
3540.00,0.0019
3539.00,0.0019
3538.00,0.0019
3537.00,0.0018
3536.00,0.0018
3535.00,0.0018
3534.00,0.0019
3533.00,0.0019
3532.00,0.0020
3531.00,0.0020
3530.00,0.0020
3529.00,0.0020
3528.00,0.0021
3527.00,0.0022
3526.00,0.0022
3525.00,0.0022
3524.00,0.0022
3523.00,0.0022
3522.00,0.0022
3521.00,0.0022
3520.00,0.0022
3519.00,0.0021
3518.00,0.0021
3517.00,0.0021
3516.00,0.0021
3515.00,0.0022
3514.00,0.0022
3513.00,0.0023
3512.00,0.0024
3511.00,0.0024
3510.00,0.0024
3509.00,0.0025
3508.00,0.0025
3507.00,0.0025
3506.00,0.0025
3505.00,0.0025
3504.00,0.0025
3503.00,0.0025
3502.00,0.0026
3501.00,0.0026
3500.00,0.0027
3499.00,0.0027
3498.00,0.0027
3497.00,0.0027
3496.00,0.0027
3495.00,0.0027
3494.00,0.0028
3493.00,0.0028
3492.00,0.0029
3491.00,0.0029
3490.00,0.0029
3489.00,0.0029
3488.00,0.0029
3487.00,0.0029
3486.00,0.0029
3485.00,0.0030
3484.00,0.0030
3483.00,0.0030
3482.00,0.0031
3481.00,0.0031
3480.00,0.0031
3479.00,0.0031
3478.00,0.0031
3477.00,0.0031
3476.00,0.0031
3475.00,0.0032
3474.00,0.0032
3473.00,0.0032
3472.00,0.0032
3471.00,0.0032
3470.00,0.0032
3469.00,0.0033
3468.00,0.0033
3467.00,0.0033
3466.00,0.0033
3465.00,0.0033
3464.00,0.0033
3463.00,0.0033
3462.00,0.0033
3461.00,0.0034
3460.00,0.0034
3459.00,0.0035
3458.00,0.0035
3457.00,0.0036
3456.00,0.0036
3455.00,0.0036
3454.00,0.0036
3453.00,0.0036
3452.00,0.0036
3451.00,0.0036
3450.00,0.0036
3449.00,0.0036
3448.00,0.0036
3447.00,0.0036
3446.00,0.0036
3445.00,0.0037
3444.00,0.0037
3443.00,0.0038
3442.00,0.0037
3441.00,0.0037
3440.00,0.0038
3439.00,0.0038
3438.00,0.0038
3437.00,0.0038
3436.00,0.0038
3435.00,0.0039
3434.00,0.0039
3433.00,0.0039
3432.00,0.0040
3431.00,0.0041
3430.00,0.0041
3429.00,0.0042
3428.00,0.0042
3427.00,0.0042
3426.00,0.0042
3425.00,0.0042
3424.00,0.0042
3423.00,0.0042
3422.00,0.0042
3421.00,0.0042
3420.00,0.0043
3419.00,0.0043
3418.00,0.0043
3417.00,0.0043
3416.00,0.0044
3415.00,0.0044
3414.00,0.0044
3413.00,0.0044
3412.00,0.0044
3411.00,0.0045
3410.00,0.0045
3409.00,0.0045
3408.00,0.0045
3407.00,0.0046
3406.00,0.0046
3405.00,0.0046
3404.00,0.0047
3403.00,0.0047
3402.00,0.0047
3401.00,0.0047
3400.00,0.0047
3399.00,0.0047
3398.00,0.0048
3397.00,0.0048
3396.00,0.0048
3395.00,0.0049
3394.00,0.0049
3393.00,0.0049
3392.00,0.0049
3391.00,0.0049
3390.00,0.0049
3389.00,0.0049
3388.00,0.0048
3387.00,0.0048
3386.00,0.0048
3385.00,0.0048
3384.00,0.0048
3383.00,0.0048
3382.00,0.0048
3381.00,0.0048
3380.00,0.0048
3379.00,0.0049
3378.00,0.0049
3377.00,0.0049
3376.00,0.0048
3375.00,0.0048
3374.00,0.0048
3373.00,0.0048
3372.00,0.0048
3371.00,0.0049
3370.00,0.0049
3369.00,0.0050
3368.00,0.0050
3367.00,0.0050
3366.00,0.0050
3365.00,0.0050
3364.00,0.0049
3363.00,0.0049
3362.00,0.0049
3361.00,0.0050
3360.00,0.0050
3359.00,0.0050
3358.00,0.0050
3357.00,0.0050
3356.00,0.0050
3355.00,0.0050
3354.00,0.0050
3353.00,0.0050
3352.00,0.0051
3351.00,0.0051
3350.00,0.0051
3349.00,0.0050
3348.00,0.0050
3347.00,0.0050
3346.00,0.0050
3345.00,0.0051
3344.00,0.0051
3343.00,0.0051
3342.00,0.0051
3341.00,0.0051
3340.00,0.0050
3339.00,0.0050
3338.00,0.0050
3337.00,0.0050
3336.00,0.0050
3335.00,0.0051
3334.00,0.0051
3333.00,0.0051
3332.00,0.0050
3331.00,0.0050
3330.00,0.0050
3329.00,0.0049
3328.00,0.0049
3327.00,0.0049
3326.00,0.0049
3325.00,0.0049
3324.00,0.0049
3323.00,0.0049
3322.00,0.0049
3321.00,0.0049
3320.00,0.0049
3319.00,0.0049
3318.00,0.0050
3317.00,0.0050
3316.00,0.0050
3315.00,0.0051
3314.00,0.0051
3313.00,0.0051
3312.00,0.0050
3311.00,0.0050
3310.00,0.0050
3309.00,0.0051
3308.00,0.0050
3307.00,0.0050
3306.00,0.0050
3305.00,0.0050
3304.00,0.0050
3303.00,0.0050
3302.00,0.0050
3301.00,0.0049
3300.00,0.0049
3299.00,0.0049
3298.00,0.0049
3297.00,0.0049
3296.00,0.0049
3295.00,0.0049
3294.00,0.0049
3293.00,0.0049
3292.00,0.0050
3291.00,0.0050
3290.00,0.0050
3289.00,0.0049
3288.00,0.0049
3287.00,0.0049
3286.00,0.0048
3285.00,0.0048
3284.00,0.0048
3283.00,0.0048
3282.00,0.0047
3281.00,0.0047
3280.00,0.0047
3279.00,0.0047
3278.00,0.0047
3277.00,0.0047
3276.00,0.0047
3275.00,0.0046
3274.00,0.0046
3273.00,0.0046
3272.00,0.0046
3271.00,0.0046
3270.00,0.0046
3269.00,0.0046
3268.00,0.0046
3267.00,0.0046
3266.00,0.0045
3265.00,0.0045
3264.00,0.0045
3263.00,0.0044
3262.00,0.0044
3261.00,0.0044
3260.00,0.0043
3259.00,0.0043
3258.00,0.0043
3257.00,0.0043
3256.00,0.0043
3255.00,0.0043
3254.00,0.0042
3253.00,0.0043
3252.00,0.0043
3251.00,0.0042
3250.00,0.0042
3249.00,0.0042
3248.00,0.0042
3247.00,0.0042
3246.00,0.0042
3245.00,0.0042
3244.00,0.0042
3243.00,0.0042
3242.00,0.0042
3241.00,0.0042
3240.00,0.0041
3239.00,0.0041
3238.00,0.0041
3237.00,0.0041
3236.00,0.0041
3235.00,0.0041
3234.00,0.0041
3233.00,0.0042
3232.00,0.0042
3231.00,0.0042
3230.00,0.0042
3229.00,0.0042
3228.00,0.0042
3227.00,0.0043
3226.00,0.0043
3225.00,0.0043
3224.00,0.0043
3223.00,0.0043
3222.00,0.0043
3221.00,0.0044
3220.00,0.0044
3219.00,0.0044
3218.00,0.0044
3217.00,0.0044
3216.00,0.0044
3215.00,0.0044
3214.00,0.0044
3213.00,0.0044
3212.00,0.0044
3211.00,0.0045
3210.00,0.0045
3209.00,0.0045
3208.00,0.0045
3207.00,0.0046
3206.00,0.0046
3205.00,0.0046
3204.00,0.0046
3203.00,0.0046
3202.00,0.0047
3201.00,0.0047
3200.00,0.0047
3199.00,0.0046
3198.00,0.0046
3197.00,0.0046
3196.00,0.0047
3195.00,0.0047
3194.00,0.0047
3193.00,0.0047
3192.00,0.0047
3191.00,0.0047
3190.00,0.0047
3189.00,0.0047
3188.00,0.0047
3187.00,0.0047
3186.00,0.0046
3185.00,0.0046
3184.00,0.0046
3183.00,0.0046
3182.00,0.0046
3181.00,0.0045
3180.00,0.0045
3179.00,0.0045
3178.00,0.0044
3177.00,0.0044
3176.00,0.0044
3175.00,0.0043
3174.00,0.0043
3173.00,0.0042
3172.00,0.0042
3171.00,0.0041
3170.00,0.0041
3169.00,0.0040
3168.00,0.0040
3167.00,0.0040
3166.00,0.0040
3165.00,0.0040
3164.00,0.0040
3163.00,0.0040
3162.00,0.0040
3161.00,0.0040
3160.00,0.0040
3159.00,0.0040
3158.00,0.0040
3157.00,0.0040
3156.00,0.0040
3155.00,0.0039
3154.00,0.0039
3153.00,0.0039
3152.00,0.0038
3151.00,0.0038
3150.00,0.0038
3149.00,0.0038
3148.00,0.0038
3147.00,0.0038
3146.00,0.0039
3145.00,0.0039
3144.00,0.0039
3143.00,0.0038
3142.00,0.0038
3141.00,0.0038
3140.00,0.0037
3139.00,0.0037
3138.00,0.0037
3137.00,0.0037
3136.00,0.0037
3135.00,0.0036
3134.00,0.0036
3133.00,0.0036
3132.00,0.0035
3131.00,0.0035
3130.00,0.0035
3129.00,0.0035
3128.00,0.0035
3127.00,0.0035
3126.00,0.0034
3125.00,0.0034
3124.00,0.0033
3123.00,0.0032
3122.00,0.0032
3121.00,0.0031
3120.00,0.0031
3119.00,0.0031
3118.00,0.0031
3117.00,0.0031
3116.00,0.0031
3115.00,0.0031
3114.00,0.0031
3113.00,0.0031
3112.00,0.0031
3111.00,0.0031
3110.00,0.0030
3109.00,0.0030
3108.00,0.0030
3107.00,0.0030
3106.00,0.0031
3105.00,0.0031
3104.00,0.0031
3103.00,0.0031
3102.00,0.0031
3101.00,0.0030
3100.00,0.0029
3099.00,0.0029
3098.00,0.0028
3097.00,0.0028
3096.00,0.0028
3095.00,0.0028
3094.00,0.0029
3093.00,0.0029
3092.00,0.0029
3091.00,0.0029
3090.00,0.0029
3089.00,0.0028
3088.00,0.0028
3087.00,0.0028
3086.00,0.0028
3085.00,0.0028
3084.00,0.0028
3083.00,0.0028
3082.00,0.0027
3081.00,0.0027
3080.00,0.0027
3079.00,0.0027
3078.00,0.0028
3077.00,0.0028
3076.00,0.0028
3075.00,0.0028
3074.00,0.0028
3073.00,0.0028
3072.00,0.0028
3071.00,0.0028
3070.00,0.0028
3069.00,0.0028
3068.00,0.0028
3067.00,0.0029
3066.00,0.0029
3065.00,0.0029
3064.00,0.0029
3063.00,0.0029
3062.00,0.0030
3061.00,0.0030
3060.00,0.0030
3059.00,0.0030
3058.00,0.0031
3057.00,0.0031
3056.00,0.0031
3055.00,0.0031
3054.00,0.0031
3053.00,0.0031
3052.00,0.0031
3051.00,0.0031
3050.00,0.0032
3049.00,0.0032
3048.00,0.0032
3047.00,0.0032
3046.00,0.0032
3045.00,0.0032
3044.00,0.0033
3043.00,0.0033
3042.00,0.0033
3041.00,0.0033
3040.00,0.0033
3039.00,0.0033
3038.00,0.0033
3037.00,0.0034
3036.00,0.0034
3035.00,0.0034
3034.00,0.0035
3033.00,0.0035
3032.00,0.0036
3031.00,0.0036
3030.00,0.0037
3029.00,0.0037
3028.00,0.0038
3027.00,0.0038
3026.00,0.0039
3025.00,0.0040
3024.00,0.0040
3023.00,0.0041
3022.00,0.0042
3021.00,0.0042
3020.00,0.0043
3019.00,0.0043
3018.00,0.0044
3017.00,0.0044
3016.00,0.0045
3015.00,0.0046
3014.00,0.0048
3013.00,0.0049
3012.00,0.0051
3011.00,0.0052
3010.00,0.0053
3009.00,0.0055
3008.00,0.0056
3007.00,0.0058
3006.00,0.0059
3005.00,0.0061
3004.00,0.0063
3003.00,0.0065
3002.00,0.0068
3001.00,0.0071
3000.00,0.0074
2999.00,0.0077
2998.00,0.0080
2997.00,0.0083
2996.00,0.0087
2995.00,0.0091
2994.00,0.0096
2993.00,0.0101
2992.00,0.0106
2991.00,0.0112
2990.00,0.0119
2989.00,0.0127
2988.00,0.0135
2987.00,0.0144
2986.00,0.0155
2985.00,0.0167
2984.00,0.0180
2983.00,0.0195
2982.00,0.0211
2981.00,0.0230
2980.00,0.0250
2979.00,0.0274
2978.00,0.0301
2977.00,0.0331
2976.00,0.0367
2975.00,0.0407
2974.00,0.0452
2973.00,0.0504
2972.00,0.0561
2971.00,0.0627
2970.00,0.0699
2969.00,0.0780
2968.00,0.0869
2967.00,0.0964
2966.00,0.1067
2965.00,0.1173
2964.00,0.1280
2963.00,0.1383
2962.00,0.1479
2961.00,0.1562
2960.00,0.1630
2959.00,0.1683
2958.00,0.1723
2957.00,0.1755
2956.00,0.1786
2955.00,0.1819
2954.00,0.1857
2953.00,0.1898
2952.00,0.1934
2951.00,0.1957
2950.00,0.1958
2949.00,0.1929
2948.00,0.1866
2947.00,0.1771
2946.00,0.1652
2945.00,0.1521
2944.00,0.1392
2943.00,0.1276
2942.00,0.1182
2941.00,0.1113
2940.00,0.1068
2939.00,0.1047
2938.00,0.1046
2937.00,0.1064
2936.00,0.1099
2935.00,0.1149
2934.00,0.1212
2933.00,0.1287
2932.00,0.1372
2931.00,0.1465
2930.00,0.1562
2929.00,0.1662
2928.00,0.1759
2927.00,0.1852
2926.00,0.1940
2925.00,0.2022
2924.00,0.2100
2923.00,0.2174
2922.00,0.2245
2921.00,0.2312
2920.00,0.2371
2919.00,0.2414
2918.00,0.2437
2917.00,0.2435
2916.00,0.2408
2915.00,0.2359
2914.00,0.2295
2913.00,0.2222
2912.00,0.2146
2911.00,0.2074
2910.00,0.2007
2909.00,0.1945
2908.00,0.1886
2907.00,0.1828
2906.00,0.1769
2905.00,0.1708
2904.00,0.1643
2903.00,0.1576
2902.00,0.1508
2901.00,0.1440
2900.00,0.1374
2899.00,0.1312
2898.00,0.1253
2897.00,0.1200
2896.00,0.1153
2895.00,0.1112
2894.00,0.1079
2893.00,0.1052
2892.00,0.1033
2891.00,0.1019
2890.00,0.1011
2889.00,0.1008
2888.00,0.1010
2887.00,0.1014
2886.00,0.1023
2885.00,0.1035
2884.00,0.1051
2883.00,0.1071
2882.00,0.1095
2881.00,0.1121
2880.00,0.1147
2879.00,0.1169
2878.00,0.1183
2877.00,0.1188
2876.00,0.1185
2875.00,0.1177
2874.00,0.1169
2873.00,0.1166
2872.00,0.1169
2871.00,0.1180
2870.00,0.1196
2869.00,0.1213
2868.00,0.1222
2867.00,0.1216
2866.00,0.1189
2865.00,0.1138
2864.00,0.1066
2863.00,0.0981
2862.00,0.0891
2861.00,0.0807
2860.00,0.0734
2859.00,0.0675
2858.00,0.0631
2857.00,0.0598
2856.00,0.0576
2855.00,0.0562
2854.00,0.0556
2853.00,0.0556
2852.00,0.0563
2851.00,0.0575
2850.00,0.0595
2849.00,0.0623
2848.00,0.0660
2847.00,0.0706
2846.00,0.0762
2845.00,0.0826
2844.00,0.0897
2843.00,0.0973
2842.00,0.1051
2841.00,0.1125
2840.00,0.1186
2839.00,0.1227
2838.00,0.1240
2837.00,0.1217
2836.00,0.1159
2835.00,0.1071
2834.00,0.0965
2833.00,0.0852
2832.00,0.0744
2831.00,0.0647
2830.00,0.0564
2829.00,0.0497
2828.00,0.0442
2827.00,0.0398
2826.00,0.0362
2825.00,0.0333
2824.00,0.0309
2823.00,0.0288
2822.00,0.0271
2821.00,0.0256
2820.00,0.0243
2819.00,0.0232
2818.00,0.0222
2817.00,0.0213
2816.00,0.0205
2815.00,0.0198
2814.00,0.0192
2813.00,0.0187
2812.00,0.0181
2811.00,0.0176
2810.00,0.0171
2809.00,0.0166
2808.00,0.0160
2807.00,0.0154
2806.00,0.0148
2805.00,0.0141
2804.00,0.0135
2803.00,0.0129
2802.00,0.0124
2801.00,0.0119
2800.00,0.0115
2799.00,0.0112
2798.00,0.0110
2797.00,0.0107
2796.00,0.0105
2795.00,0.0103
2794.00,0.0100
2793.00,0.0097
2792.00,0.0094
2791.00,0.0091
2790.00,0.0088
2789.00,0.0084
2788.00,0.0081
2787.00,0.0078
2786.00,0.0075
2785.00,0.0073
2784.00,0.0070
2783.00,0.0068
2782.00,0.0066
2781.00,0.0065
2780.00,0.0063
2779.00,0.0061
2778.00,0.0060
2777.00,0.0058
2776.00,0.0057
2775.00,0.0056
2774.00,0.0055
2773.00,0.0055
2772.00,0.0054
2771.00,0.0053
2770.00,0.0053
2769.00,0.0053
2768.00,0.0052
2767.00,0.0052
2766.00,0.0051
2765.00,0.0051
2764.00,0.0050
2763.00,0.0050
2762.00,0.0050
2761.00,0.0049
2760.00,0.0049
2759.00,0.0049
2758.00,0.0049
2757.00,0.0048
2756.00,0.0048
2755.00,0.0047
2754.00,0.0047
2753.00,0.0048
2752.00,0.0048
2751.00,0.0047
2750.00,0.0047
2749.00,0.0047
2748.00,0.0047
2747.00,0.0048
2746.00,0.0049
2745.00,0.0050
2744.00,0.0050
2743.00,0.0051
2742.00,0.0052
2741.00,0.0053
2740.00,0.0054
2739.00,0.0055
2738.00,0.0057
2737.00,0.0058
2736.00,0.0060
2735.00,0.0062
2734.00,0.0063
2733.00,0.0065
2732.00,0.0067
2731.00,0.0068
2730.00,0.0070
2729.00,0.0073
2728.00,0.0075
2727.00,0.0078
2726.00,0.0081
2725.00,0.0084
2724.00,0.0085
2723.00,0.0086
2722.00,0.0085
2721.00,0.0083
2720.00,0.0080
2719.00,0.0076
2718.00,0.0072
2717.00,0.0069
2716.00,0.0066
2715.00,0.0064
2714.00,0.0062
2713.00,0.0060
2712.00,0.0058
2711.00,0.0056
2710.00,0.0054
2709.00,0.0052
2708.00,0.0051
2707.00,0.0050
2706.00,0.0049
2705.00,0.0047
2704.00,0.0046
2703.00,0.0045
2702.00,0.0045
2701.00,0.0044
2700.00,0.0044
2699.00,0.0044
2698.00,0.0044
2697.00,0.0043
2696.00,0.0042
2695.00,0.0042
2694.00,0.0042
2693.00,0.0042
2692.00,0.0042
2691.00,0.0042
2690.00,0.0042
2689.00,0.0042
2688.00,0.0042
2687.00,0.0042
2686.00,0.0042
2685.00,0.0041
2684.00,0.0041
2683.00,0.0041
2682.00,0.0041
2681.00,0.0042
2680.00,0.0042
2679.00,0.0042
2678.00,0.0042
2677.00,0.0042
2676.00,0.0042
2675.00,0.0042
2674.00,0.0041
2673.00,0.0040
2672.00,0.0040
2671.00,0.0040
2670.00,0.0040
2669.00,0.0040
2668.00,0.0040
2667.00,0.0041
2666.00,0.0041
2665.00,0.0042
2664.00,0.0043
2663.00,0.0043
2662.00,0.0043
2661.00,0.0043
2660.00,0.0043
2659.00,0.0043
2658.00,0.0043
2657.00,0.0043
2656.00,0.0043
2655.00,0.0043
2654.00,0.0042
2653.00,0.0042
2652.00,0.0041
2651.00,0.0041
2650.00,0.0040
2649.00,0.0040
2648.00,0.0040
2647.00,0.0039
2646.00,0.0039
2645.00,0.0038
2644.00,0.0038
2643.00,0.0038
2642.00,0.0037
2641.00,0.0037
2640.00,0.0036
2639.00,0.0035
2638.00,0.0035
2637.00,0.0034
2636.00,0.0034
2635.00,0.0034
2634.00,0.0034
2633.00,0.0034
2632.00,0.0035
2631.00,0.0034
2630.00,0.0034
2629.00,0.0034
2628.00,0.0035
2627.00,0.0036
2626.00,0.0036
2625.00,0.0036
2624.00,0.0036
2623.00,0.0036
2622.00,0.0036
2621.00,0.0037
2620.00,0.0037
2619.00,0.0037
2618.00,0.0037
2617.00,0.0037
2616.00,0.0037
2615.00,0.0037
2614.00,0.0037
2613.00,0.0036
2612.00,0.0036
2611.00,0.0035
2610.00,0.0034
2609.00,0.0033
2608.00,0.0032
2607.00,0.0031
2606.00,0.0031
2605.00,0.0031
2604.00,0.0030
2603.00,0.0030
2602.00,0.0029
2601.00,0.0029
2600.00,0.0029
2599.00,0.0029
2598.00,0.0029
2597.00,0.0029
2596.00,0.0029
2595.00,0.0029
2594.00,0.0029
2593.00,0.0030
2592.00,0.0030
2591.00,0.0031
2590.00,0.0031
2589.00,0.0031
2588.00,0.0032
2587.00,0.0034
2586.00,0.0035
2585.00,0.0036
2584.00,0.0036
2583.00,0.0036
2582.00,0.0036
2581.00,0.0036
2580.00,0.0036
2579.00,0.0035
2578.00,0.0034
2577.00,0.0033
2576.00,0.0032
2575.00,0.0031
2574.00,0.0030
2573.00,0.0029
2572.00,0.0028
2571.00,0.0027
2570.00,0.0025
2569.00,0.0025
2568.00,0.0024
2567.00,0.0024
2566.00,0.0023
2565.00,0.0023
2564.00,0.0022
2563.00,0.0022
2562.00,0.0022
2561.00,0.0022
2560.00,0.0021
2559.00,0.0021
2558.00,0.0020
2557.00,0.0020
2556.00,0.0019
2555.00,0.0019
2554.00,0.0019
2553.00,0.0018
2552.00,0.0018
2551.00,0.0018
2550.00,0.0018
2549.00,0.0018
2548.00,0.0017
2547.00,0.0017
2546.00,0.0016
2545.00,0.0016
2544.00,0.0015
2543.00,0.0015
2542.00,0.0014
2541.00,0.0014
2540.00,0.0014
2539.00,0.0014
2538.00,0.0015
2537.00,0.0015
2536.00,0.0015
2535.00,0.0015
2534.00,0.0015
2533.00,0.0014
2532.00,0.0014
2531.00,0.0013
2530.00,0.0013
2529.00,0.0013
2528.00,0.0013
2527.00,0.0012
2526.00,0.0012
2525.00,0.0011
2524.00,0.0011
2523.00,0.0010
2522.00,0.0010
2521.00,0.0010
2520.00,0.0010
2519.00,0.0009
2518.00,0.0009
2517.00,0.0009
2516.00,0.0008
2515.00,0.0008
2514.00,0.0008
2513.00,0.0008
2512.00,0.0009
2511.00,0.0009
2510.00,0.0009
2509.00,0.0009
2508.00,0.0008
2507.00,0.0007
2506.00,0.0007
2505.00,0.0006
2504.00,0.0006
2503.00,0.0006
2502.00,0.0006
2501.00,0.0007
2500.00,0.0007
2499.00,0.0007
2498.00,0.0008
2497.00,0.0008
2496.00,0.0008
2495.00,0.0008
2494.00,0.0008
2493.00,0.0008
2492.00,0.0009
2491.00,0.0009
2490.00,0.0009
2489.00,0.0008
2488.00,0.0008
2487.00,0.0008
2486.00,0.0007
2485.00,0.0007
2484.00,0.0007
2483.00,0.0007
2482.00,0.0006
2481.00,0.0006
2480.00,0.0006
2479.00,0.0006
2478.00,0.0007
2477.00,0.0007
2476.00,0.0008
2475.00,0.0008
2474.00,0.0008
2473.00,0.0007
2472.00,0.0007
2471.00,0.0007
2470.00,0.0007
2469.00,0.0007
2468.00,0.0007
2467.00,0.0006
2466.00,0.0006
2465.00,0.0006
2464.00,0.0006
2463.00,0.0007
2462.00,0.0007
2461.00,0.0007
2460.00,0.0007
2459.00,0.0008
2458.00,0.0009
2457.00,0.0010
2456.00,0.0010
2455.00,0.0010
2454.00,0.0010
2453.00,0.0009
2452.00,0.0009
2451.00,0.0009
2450.00,0.0008
2449.00,0.0008
2448.00,0.0008
2447.00,0.0008
2446.00,0.0008
2445.00,0.0008
2444.00,0.0008
2443.00,0.0008
2442.00,0.0008
2441.00,0.0008
2440.00,0.0008
2439.00,0.0007
2438.00,0.0008
2437.00,0.0008
2436.00,0.0009
2435.00,0.0009
2434.00,0.0008
2433.00,0.0008
2432.00,0.0008
2431.00,0.0008
2430.00,0.0009
2429.00,0.0009
2428.00,0.0009
2427.00,0.0009
2426.00,0.0009
2425.00,0.0008
2424.00,0.0008
2423.00,0.0008
2422.00,0.0008
2421.00,0.0007
2420.00,0.0007
2419.00,0.0006
2418.00,0.0006
2417.00,0.0007
2416.00,0.0007
2415.00,0.0007
2414.00,0.0008
2413.00,0.0008
2412.00,0.0008
2411.00,0.0008
2410.00,0.0008
2409.00,0.0008
2408.00,0.0008
2407.00,0.0008
2406.00,0.0007
2405.00,0.0007
2404.00,0.0006
2403.00,0.0006
2402.00,0.0006
2401.00,0.0006
2400.00,0.0006
2399.00,0.0006
2398.00,0.0006
2397.00,0.0007
2396.00,0.0007
2395.00,0.0007
2394.00,0.0007
2393.00,0.0007
2392.00,0.0007
2391.00,0.0007
2390.00,0.0007
2389.00,0.0006
2388.00,0.0006
2387.00,0.0006
2386.00,0.0005
2385.00,0.0006
2384.00,0.0006
2383.00,0.0006
2382.00,0.0006
2381.00,0.0005
2380.00,0.0005
2379.00,0.0005
2378.00,0.0006
2377.00,0.0006
2376.00,0.0006
2375.00,0.0006
2374.00,0.0006
2373.00,0.0006
2372.00,0.0006
2371.00,0.0006
2370.00,0.0006
2369.00,0.0005
2368.00,0.0005
2367.00,0.0005
2366.00,0.0005
2365.00,0.0005
2364.00,0.0005
2363.00,0.0006
2362.00,0.0007
2361.00,0.0008
2360.00,0.0009
2359.00,0.0009
2358.00,0.0008
2357.00,0.0008
2356.00,0.0008
2355.00,0.0008
2354.00,0.0007
2353.00,0.0007
2352.00,0.0006
2351.00,0.0007
2350.00,0.0007
2349.00,0.0008
2348.00,0.0008
2347.00,0.0008
2346.00,0.0008
2345.00,0.0008
2344.00,0.0008
2343.00,0.0008
2342.00,0.0009
2341.00,0.0009
2340.00,0.0010
2339.00,0.0010
2338.00,0.0010
2337.00,0.0011
2336.00,0.0011
2335.00,0.0010
2334.00,0.0009
2333.00,0.0008
2332.00,0.0007
2331.00,0.0007
2330.00,0.0008
2329.00,0.0009
2328.00,0.0012
2327.00,0.0015
2326.00,0.0018
2325.00,0.0022
2324.00,0.0024
2323.00,0.0023
2322.00,0.0022
2321.00,0.0020
2320.00,0.0018
2319.00,0.0016
2318.00,0.0015
2317.00,0.0014
2316.00,0.0013
2315.00,0.0012
2314.00,0.0011
2313.00,0.0011
2312.00,0.0011
2311.00,0.0011
2310.00,0.0011
2309.00,0.0011
2308.00,0.0011
2307.00,0.0011
2306.00,0.0011
2305.00,0.0011
2304.00,0.0011
2303.00,0.0011
2302.00,0.0011
2301.00,0.0011
2300.00,0.0012
2299.00,0.0012
2298.00,0.0012
2297.00,0.0013
2296.00,0.0013
2295.00,0.0013
2294.00,0.0014
2293.00,0.0014
2292.00,0.0015
2291.00,0.0016
2290.00,0.0017
2289.00,0.0017
2288.00,0.0017
2287.00,0.0017
2286.00,0.0016
2285.00,0.0015
2284.00,0.0015
2283.00,0.0015
2282.00,0.0015
2281.00,0.0015
2280.00,0.0015
2279.00,0.0014
2278.00,0.0013
2277.00,0.0013
2276.00,0.0012
2275.00,0.0013
2274.00,0.0012
2273.00,0.0012
2272.00,0.0012
2271.00,0.0011
2270.00,0.0012
2269.00,0.0013
2268.00,0.0013
2267.00,0.0013
2266.00,0.0011
2265.00,0.0010
2264.00,0.0009
2263.00,0.0008
2262.00,0.0008
2261.00,0.0008
2260.00,0.0009
2259.00,0.0009
2258.00,0.0009
2257.00,0.0009
2256.00,0.0008
2255.00,0.0008
2254.00,0.0007
2253.00,0.0007
2252.00,0.0007
2251.00,0.0007
2250.00,0.0007
2249.00,0.0007
2248.00,0.0007
2247.00,0.0007
2246.00,0.0008
2245.00,0.0009
2244.00,0.0009
2243.00,0.0009
2242.00,0.0008
2241.00,0.0008
2240.00,0.0008
2239.00,0.0008
2238.00,0.0008
2237.00,0.0007
2236.00,0.0007
2235.00,0.0006
2234.00,0.0006
2233.00,0.0007
2232.00,0.0006
2231.00,0.0006
2230.00,0.0007
2229.00,0.0008
2228.00,0.0009
2227.00,0.0010
2226.00,0.0010
2225.00,0.0010
2224.00,0.0009
2223.00,0.0009
2222.00,0.0010
2221.00,0.0011
2220.00,0.0012
2219.00,0.0012
2218.00,0.0012
2217.00,0.0012
2216.00,0.0012
2215.00,0.0010
2214.00,0.0008
2213.00,0.0005
2212.00,0.0003
2211.00,0.0003
2210.00,0.0004
2209.00,0.0005
2208.00,0.0006
2207.00,0.0005
2206.00,0.0003
2205.00,0.0001
2204.00,0.0000
2203.00,0.0001
2202.00,0.0003
2201.00,0.0004
2200.00,0.0005
2199.00,0.0006
2198.00,0.0005
2197.00,0.0006
2196.00,0.0006
2195.00,0.0007
2194.00,0.0008
2193.00,0.0008
2192.00,0.0008
2191.00,0.0008
2190.00,0.0007
2189.00,0.0007
2188.00,0.0008
2187.00,0.0010
2186.00,0.0010
2185.00,0.0010
2184.00,0.0008
2183.00,0.0006
2182.00,0.0005
2181.00,0.0005
2180.00,0.0007
2179.00,0.0009
2178.00,0.0010
2177.00,0.0010
2176.00,0.0008
2175.00,0.0005
2174.00,0.0004
2173.00,0.0004
2172.00,0.0005
2171.00,0.0007
2170.00,0.0009
2169.00,0.0012
2168.00,0.0015
2167.00,0.0016
2166.00,0.0016
2165.00,0.0015
2164.00,0.0015
2163.00,0.0015
2162.00,0.0015
2161.00,0.0012
2160.00,0.0003
2159.00,-0.0011
2158.00,-0.0024
2157.00,-0.0029
2156.00,-0.0028
2155.00,-0.0025
2154.00,-0.0022
2153.00,-0.0019
2152.00,-0.0016
2151.00,-0.0013
2150.00,-0.0012
2149.00,-0.0013
2148.00,-0.0014
2147.00,-0.0015
2146.00,-0.0016
2145.00,-0.0015
2144.00,-0.0014
2143.00,-0.0012
2142.00,-0.0010
2141.00,-0.0008
2140.00,-0.0006
2139.00,-0.0005
2138.00,-0.0007
2137.00,-0.0009
2136.00,-0.0013
2135.00,-0.0016
2134.00,-0.0018
2133.00,-0.0018
2132.00,-0.0017
2131.00,-0.0016
2130.00,-0.0015
2129.00,-0.0014
2128.00,-0.0011
2127.00,-0.0009
2126.00,-0.0007
2125.00,-0.0006
2124.00,-0.0006
2123.00,-0.0006
2122.00,-0.0007
2121.00,-0.0008
2120.00,-0.0008
2119.00,-0.0007
2118.00,-0.0006
2117.00,-0.0003
2116.00,-0.0001
2115.00,0.0001
2114.00,0.0002
2113.00,0.0003
2112.00,0.0002
2111.00,0.0001
2110.00,0.0001
2109.00,0.0001
2108.00,0.0001
2107.00,0.0001
2106.00,0.0002
2105.00,0.0002
2104.00,0.0002
2103.00,0.0000
2102.00,-0.0002
2101.00,-0.0004
2100.00,-0.0004
2099.00,-0.0003
2098.00,-0.0002
2097.00,-0.0001
2096.00,-0.0002
2095.00,-0.0004
2094.00,-0.0004
2093.00,-0.0003
2092.00,-0.0002
2091.00,-0.0001
2090.00,-0.0000
2089.00,0.0000
2088.00,0.0000
2087.00,0.0001
2086.00,0.0001
2085.00,0.0002
2084.00,0.0003
2083.00,0.0004
2082.00,0.0004
2081.00,0.0003
2080.00,0.0002
2079.00,0.0000
2078.00,-0.0002
2077.00,-0.0003
2076.00,-0.0003
2075.00,-0.0002
2074.00,-0.0001
2073.00,-0.0000
2072.00,-0.0001
2071.00,-0.0002
2070.00,-0.0003
2069.00,-0.0002
2068.00,0.0000
2067.00,0.0001
2066.00,0.0001
2065.00,-0.0001
2064.00,-0.0003
2063.00,-0.0005
2062.00,-0.0007
2061.00,-0.0007
2060.00,-0.0007
2059.00,-0.0005
2058.00,-0.0003
2057.00,-0.0001
2056.00,-0.0001
2055.00,-0.0002
2054.00,-0.0003
2053.00,-0.0001
2052.00,0.0004
2051.00,0.0007
2050.00,0.0007
2049.00,0.0005
2048.00,0.0002
2047.00,0.0001
2046.00,0.0001
2045.00,0.0001
2044.00,0.0000
2043.00,0.0000
2042.00,0.0001
2041.00,0.0002
2040.00,0.0003
2039.00,0.0003
2038.00,0.0003
2037.00,0.0003
2036.00,0.0004
2035.00,0.0005
2034.00,0.0005
2033.00,0.0003
2032.00,-0.0000
2031.00,-0.0004
2030.00,-0.0008
2029.00,-0.0010
2028.00,-0.0012
2027.00,-0.0014
2026.00,-0.0017
2025.00,-0.0020
2024.00,-0.0021
2023.00,-0.0019
2022.00,-0.0016
2021.00,-0.0012
2020.00,-0.0008
2019.00,-0.0006
2018.00,-0.0007
2017.00,-0.0011
2016.00,-0.0017
2015.00,-0.0020
2014.00,-0.0020
2013.00,-0.0017
2012.00,-0.0012
2011.00,-0.0009
2010.00,-0.0007
2009.00,-0.0007
2008.00,-0.0011
2007.00,-0.0017
2006.00,-0.0023
2005.00,-0.0025
2004.00,-0.0025
2003.00,-0.0022
2002.00,-0.0019
2001.00,-0.0017
2000.00,-0.0014
1999.00,-0.0012
1998.00,-0.0009
1997.00,-0.0006
1996.00,-0.0004
1995.00,-0.0004
1994.00,-0.0005
1993.00,-0.0005
1992.00,-0.0005
1991.00,-0.0004
1990.00,-0.0003
1989.00,-0.0002
1988.00,-0.0002
1987.00,-0.0003
1986.00,-0.0004
1985.00,-0.0004
1984.00,-0.0003
1983.00,-0.0001
1982.00,0.0003
1981.00,0.0007
1980.00,0.0009
1979.00,0.0006
1978.00,-0.0000
1977.00,-0.0007
1976.00,-0.0011
1975.00,-0.0015
1974.00,-0.0018
1973.00,-0.0020
1972.00,-0.0019
1971.00,-0.0017
1970.00,-0.0014
1969.00,-0.0012
1968.00,-0.0011
1967.00,-0.0011
1966.00,-0.0010
1965.00,-0.0009
1964.00,-0.0009
1963.00,-0.0010
1962.00,-0.0011
1961.00,-0.0013
1960.00,-0.0016
1959.00,-0.0019
1958.00,-0.0020
1957.00,-0.0020
1956.00,-0.0017
1955.00,-0.0015
1954.00,-0.0013
1953.00,-0.0012
1952.00,-0.0012
1951.00,-0.0012
1950.00,-0.0014
1949.00,-0.0015
1948.00,-0.0015
1947.00,-0.0015
1946.00,-0.0015
1945.00,-0.0015
1944.00,-0.0016
1943.00,-0.0016
1942.00,-0.0017
1941.00,-0.0016
1940.00,-0.0015
1939.00,-0.0014
1938.00,-0.0014
1937.00,-0.0014
1936.00,-0.0015
1935.00,-0.0015
1934.00,-0.0014
1933.00,-0.0014
1932.00,-0.0013
1931.00,-0.0013
1930.00,-0.0013
1929.00,-0.0011
1928.00,-0.0010
1927.00,-0.0009
1926.00,-0.0009
1925.00,-0.0008
1924.00,-0.0008
1923.00,-0.0007
1922.00,-0.0005
1921.00,-0.0003
1920.00,-0.0003
1919.00,-0.0005
1918.00,-0.0006
1917.00,-0.0006
1916.00,-0.0005
1915.00,-0.0004
1914.00,-0.0004
1913.00,-0.0005
1912.00,-0.0005
1911.00,-0.0006
1910.00,-0.0005
1909.00,-0.0005
1908.00,-0.0004
1907.00,-0.0004
1906.00,-0.0006
1905.00,-0.0007
1904.00,-0.0007
1903.00,-0.0007
1902.00,-0.0006
1901.00,-0.0005
1900.00,-0.0004
1899.00,-0.0003
1898.00,-0.0003
1897.00,-0.0002
1896.00,-0.0002
1895.00,-0.0002
1894.00,-0.0002
1893.00,-0.0001
1892.00,-0.0001
1891.00,-0.0001
1890.00,-0.0001
1889.00,-0.0001
1888.00,-0.0000
1887.00,-0.0001
1886.00,-0.0002
1885.00,-0.0003
1884.00,-0.0004
1883.00,-0.0004
1882.00,-0.0004
1881.00,-0.0004
1880.00,-0.0004
1879.00,-0.0004
1878.00,-0.0004
1877.00,-0.0004
1876.00,-0.0003
1875.00,-0.0002
1874.00,-0.0002
1873.00,-0.0002
1872.00,-0.0002
1871.00,-0.0003
1870.00,-0.0003
1869.00,-0.0003
1868.00,-0.0003
1867.00,-0.0003
1866.00,-0.0002
1865.00,-0.0002
1864.00,-0.0002
1863.00,-0.0001
1862.00,-0.0001
1861.00,-0.0000
1860.00,-0.0000
1859.00,-0.0000
1858.00,-0.0001
1857.00,-0.0001
1856.00,-0.0001
1855.00,-0.0001
1854.00,-0.0001
1853.00,-0.0001
1852.00,-0.0001
1851.00,-0.0001
1850.00,-0.0001
1849.00,-0.0001
1848.00,-0.0000
1847.00,-0.0001
1846.00,-0.0001
1845.00,-0.0001
1844.00,0.0000
1843.00,0.0001
1842.00,0.0001
1841.00,0.0002
1840.00,0.0002
1839.00,0.0002
1838.00,0.0002
1837.00,0.0002
1836.00,0.0002
1835.00,0.0002
1834.00,0.0002
1833.00,0.0002
1832.00,0.0001
1831.00,0.0001
1830.00,0.0001
1829.00,0.0002
1828.00,0.0002
1827.00,0.0002
1826.00,0.0002
1825.00,0.0002
1824.00,0.0002
1823.00,0.0002
1822.00,0.0003
1821.00,0.0003
1820.00,0.0002
1819.00,0.0001
1818.00,-0.0001
1817.00,-0.0002
1816.00,-0.0002
1815.00,-0.0002
1814.00,-0.0002
1813.00,-0.0001
1812.00,0.0001
1811.00,0.0001
1810.00,0.0002
1809.00,0.0002
1808.00,0.0002
1807.00,0.0002
1806.00,0.0002
1805.00,0.0002
1804.00,0.0002
1803.00,0.0002
1802.00,0.0002
1801.00,0.0002
1800.00,0.0003
1799.00,0.0004
1798.00,0.0005
1797.00,0.0005
1796.00,0.0005
1795.00,0.0005
1794.00,0.0004
1793.00,0.0004
1792.00,0.0003
1791.00,0.0003
1790.00,0.0002
1789.00,0.0003
1788.00,0.0003
1787.00,0.0004
1786.00,0.0004
1785.00,0.0004
1784.00,0.0004
1783.00,0.0004
1782.00,0.0003
1781.00,0.0003
1780.00,0.0002
1779.00,0.0002
1778.00,0.0001
1777.00,0.0001
1776.00,0.0000
1775.00,-0.0000
1774.00,-0.0001
1773.00,-0.0001
1772.00,-0.0001
1771.00,0.0000
1770.00,0.0001
1769.00,0.0002
1768.00,0.0002
1767.00,0.0002
1766.00,0.0002
1765.00,0.0003
1764.00,0.0003
1763.00,0.0004
1762.00,0.0004
1761.00,0.0005
1760.00,0.0006
1759.00,0.0006
1758.00,0.0006
1757.00,0.0006
1756.00,0.0006
1755.00,0.0006
1754.00,0.0006
1753.00,0.0006
1752.00,0.0007
1751.00,0.0007
1750.00,0.0007
1749.00,0.0006
1748.00,0.0006
1747.00,0.0005
1746.00,0.0005
1745.00,0.0005
1744.00,0.0005
1743.00,0.0005
1742.00,0.0005
1741.00,0.0005
1740.00,0.0006
1739.00,0.0006
1738.00,0.0006
1737.00,0.0006
1736.00,0.0006
1735.00,0.0006
1734.00,0.0005
1733.00,0.0005
1732.00,0.0005
1731.00,0.0006
1730.00,0.0006
1729.00,0.0007
1728.00,0.0007
1727.00,0.0006
1726.00,0.0006
1725.00,0.0006
1724.00,0.0006
1723.00,0.0006
1722.00,0.0007
1721.00,0.0007
1720.00,0.0008
1719.00,0.0008
1718.00,0.0008
1717.00,0.0009
1716.00,0.0010
1715.00,0.0011
1714.00,0.0011
1713.00,0.0011
1712.00,0.0011
1711.00,0.0011
1710.00,0.0012
1709.00,0.0013
1708.00,0.0014
1707.00,0.0014
1706.00,0.0015
1705.00,0.0016
1704.00,0.0017
1703.00,0.0019
1702.00,0.0020
1701.00,0.0022
1700.00,0.0024
1699.00,0.0025
1698.00,0.0025
1697.00,0.0025
1696.00,0.0027
1695.00,0.0029
1694.00,0.0031
1693.00,0.0032
1692.00,0.0033
1691.00,0.0035
1690.00,0.0036
1689.00,0.0038
1688.00,0.0039
1687.00,0.0039
1686.00,0.0040
1685.00,0.0042
1684.00,0.0045
1683.00,0.0047
1682.00,0.0049
1681.00,0.0050
1680.00,0.0052
1679.00,0.0054
1678.00,0.0056
1677.00,0.0057
1676.00,0.0059
1675.00,0.0060
1674.00,0.0060
1673.00,0.0061
1672.00,0.0062
1671.00,0.0063
1670.00,0.0065
1669.00,0.0067
1668.00,0.0068
1667.00,0.0069
1666.00,0.0069
1665.00,0.0070
1664.00,0.0070
1663.00,0.0071
1662.00,0.0071
1661.00,0.0072
1660.00,0.0072
1659.00,0.0073
1658.00,0.0074
1657.00,0.0075
1656.00,0.0076
1655.00,0.0076
1654.00,0.0077
1653.00,0.0077
1652.00,0.0078
1651.00,0.0078
1650.00,0.0079
1649.00,0.0080
1648.00,0.0081
1647.00,0.0082
1646.00,0.0082
1645.00,0.0082
1644.00,0.0081
1643.00,0.0080
1642.00,0.0079
1641.00,0.0078
1640.00,0.0076
1639.00,0.0075
1638.00,0.0074
1637.00,0.0074
1636.00,0.0074
1635.00,0.0073
1634.00,0.0073
1633.00,0.0073
1632.00,0.0073
1631.00,0.0073
1630.00,0.0072
1629.00,0.0072
1628.00,0.0071
1627.00,0.0071
1626.00,0.0070
1625.00,0.0070
1624.00,0.0068
1623.00,0.0067
1622.00,0.0066
1621.00,0.0065
1620.00,0.0064
1619.00,0.0063
1618.00,0.0062
1617.00,0.0061
1616.00,0.0060
1615.00,0.0060
1614.00,0.0060
1613.00,0.0060
1612.00,0.0060
1611.00,0.0059
1610.00,0.0058
1609.00,0.0057
1608.00,0.0057
1607.00,0.0057
1606.00,0.0057
1605.00,0.0057
1604.00,0.0057
1603.00,0.0058
1602.00,0.0057
1601.00,0.0057
1600.00,0.0057
1599.00,0.0057
1598.00,0.0057
1597.00,0.0057
1596.00,0.0057
1595.00,0.0057
1594.00,0.0057
1593.00,0.0057
1592.00,0.0058
1591.00,0.0058
1590.00,0.0059
1589.00,0.0060
1588.00,0.0061
1587.00,0.0061
1586.00,0.0062
1585.00,0.0064
1584.00,0.0066
1583.00,0.0068
1582.00,0.0070
1581.00,0.0072
1580.00,0.0074
1579.00,0.0075
1578.00,0.0076
1577.00,0.0076
1576.00,0.0076
1575.00,0.0076
1574.00,0.0076
1573.00,0.0075
1572.00,0.0075
1571.00,0.0073
1570.00,0.0072
1569.00,0.0070
1568.00,0.0070
1567.00,0.0069
1566.00,0.0069
1565.00,0.0068
1564.00,0.0068
1563.00,0.0068
1562.00,0.0068
1561.00,0.0069
1560.00,0.0070
1559.00,0.0071
1558.00,0.0072
1557.00,0.0073
1556.00,0.0074
1555.00,0.0074
1554.00,0.0075
1553.00,0.0076
1552.00,0.0077
1551.00,0.0078
1550.00,0.0080
1549.00,0.0082
1548.00,0.0083
1547.00,0.0085
1546.00,0.0086
1545.00,0.0088
1544.00,0.0091
1543.00,0.0093
1542.00,0.0094
1541.00,0.0093
1540.00,0.0091
1539.00,0.0088
1538.00,0.0086
1537.00,0.0085
1536.00,0.0083
1535.00,0.0081
1534.00,0.0077
1533.00,0.0074
1532.00,0.0071
1531.00,0.0070
1530.00,0.0068
1529.00,0.0068
1528.00,0.0067
1527.00,0.0066
1526.00,0.0064
1525.00,0.0064
1524.00,0.0064
1523.00,0.0064
1522.00,0.0063
1521.00,0.0063
1520.00,0.0064
1519.00,0.0063
1518.00,0.0063
1517.00,0.0063
1516.00,0.0064
1515.00,0.0064
1514.00,0.0064
1513.00,0.0065
1512.00,0.0066
1511.00,0.0066
1510.00,0.0066
1509.00,0.0066
1508.00,0.0067
1507.00,0.0067
1506.00,0.0067
1505.00,0.0068
1504.00,0.0069
1503.00,0.0070
1502.00,0.0072
1501.00,0.0074
1500.00,0.0076
1499.00,0.0077
1498.00,0.0079
1497.00,0.0081
1496.00,0.0085
1495.00,0.0087
1494.00,0.0090
1493.00,0.0093
1492.00,0.0097
1491.00,0.0100
1490.00,0.0103
1489.00,0.0107
1488.00,0.0113
1487.00,0.0117
1486.00,0.0122
1485.00,0.0129
1484.00,0.0136
1483.00,0.0144
1482.00,0.0154
1481.00,0.0166
1480.00,0.0178
1479.00,0.0191
1478.00,0.0205
1477.00,0.0223
1476.00,0.0244
1475.00,0.0269
1474.00,0.0302
1473.00,0.0352
1472.00,0.0415
1471.00,0.0478
1470.00,0.0538
1469.00,0.0601
1468.00,0.0670
1467.00,0.0745
1466.00,0.0831
1465.00,0.0925
1464.00,0.1009
1463.00,0.1070
1462.00,0.1114
1461.00,0.1148
1460.00,0.1174
1459.00,0.1195
1458.00,0.1214
1457.00,0.1231
1456.00,0.1240
1455.00,0.1240
1454.00,0.1236
1453.00,0.1225
1452.00,0.1203
1451.00,0.1167
1450.00,0.1114
1449.00,0.1038
1448.00,0.0941
1447.00,0.0839
1446.00,0.0747
1445.00,0.0668
1444.00,0.0602
1443.00,0.0548
1442.00,0.0509
1441.00,0.0482
1440.00,0.0465
1439.00,0.0458
1438.00,0.0458
1437.00,0.0455
1436.00,0.0441
1435.00,0.0412
1434.00,0.0372
1433.00,0.0326
1432.00,0.0279
1431.00,0.0238
1430.00,0.0207
1429.00,0.0185
1428.00,0.0170
1427.00,0.0160
1426.00,0.0154
1425.00,0.0149
1424.00,0.0144
1423.00,0.0141
1422.00,0.0140
1421.00,0.0138
1420.00,0.0134
1419.00,0.0131
1418.00,0.0128
1417.00,0.0124
1416.00,0.0121
1415.00,0.0120
1414.00,0.0119
1413.00,0.0117
1412.00,0.0115
1411.00,0.0115
1410.00,0.0114
1409.00,0.0114
1408.00,0.0112
1407.00,0.0112
1406.00,0.0113
1405.00,0.0113
1404.00,0.0113
1403.00,0.0113
1402.00,0.0115
1401.00,0.0117
1400.00,0.0118
1399.00,0.0120
1398.00,0.0123
1397.00,0.0125
1396.00,0.0127
1395.00,0.0131
1394.00,0.0136
1393.00,0.0142
1392.00,0.0148
1391.00,0.0156
1390.00,0.0169
1389.00,0.0187
1388.00,0.0214
1387.00,0.0253
1386.00,0.0306
1385.00,0.0371
1384.00,0.0457
1383.00,0.0571
1382.00,0.0720
1381.00,0.0908
1380.00,0.1136
1379.00,0.1391
1378.00,0.1636
1377.00,0.1815
1376.00,0.1876
1375.00,0.1787
1374.00,0.1570
1373.00,0.1305
1372.00,0.1058
1371.00,0.0853
1370.00,0.0688
1369.00,0.0562
1368.00,0.0474
1367.00,0.0419
1366.00,0.0390
1365.00,0.0378
1364.00,0.0380
1363.00,0.0394
1362.00,0.0414
1361.00,0.0435
1360.00,0.0451
1359.00,0.0454
1358.00,0.0443
1357.00,0.0416
1356.00,0.0379
1355.00,0.0337
1354.00,0.0297
1353.00,0.0262
1352.00,0.0235
1351.00,0.0213
1350.00,0.0195
1349.00,0.0180
1348.00,0.0169
1347.00,0.0159
1346.00,0.0151
1345.00,0.0145
1344.00,0.0140
1343.00,0.0136
1342.00,0.0133
1341.00,0.0130
1340.00,0.0128
1339.00,0.0126
1338.00,0.0125
1337.00,0.0124
1336.00,0.0125
1335.00,0.0126
1334.00,0.0129
1333.00,0.0132
1332.00,0.0136
1331.00,0.0139
1330.00,0.0141
1329.00,0.0140
1328.00,0.0137
1327.00,0.0132
1326.00,0.0126
1325.00,0.0119
1324.00,0.0113
1323.00,0.0107
1322.00,0.0103
1321.00,0.0100
1320.00,0.0097
1319.00,0.0095
1318.00,0.0092
1317.00,0.0090
1316.00,0.0088
1315.00,0.0086
1314.00,0.0086
1313.00,0.0086
1312.00,0.0088
1311.00,0.0091
1310.00,0.0096
1309.00,0.0103
1308.00,0.0113
1307.00,0.0125
1306.00,0.0137
1305.00,0.0146
1304.00,0.0149
1303.00,0.0147
1302.00,0.0142
1301.00,0.0136
1300.00,0.0132
1299.00,0.0130
1298.00,0.0129
1297.00,0.0129
1296.00,0.0128
1295.00,0.0126
1294.00,0.0121
1293.00,0.0116
1292.00,0.0110
1291.00,0.0105
1290.00,0.0100
1289.00,0.0095
1288.00,0.0092
1287.00,0.0089
1286.00,0.0086
1285.00,0.0083
1284.00,0.0081
1283.00,0.0078
1282.00,0.0076
1281.00,0.0075
1280.00,0.0074
1279.00,0.0073
1278.00,0.0072
1277.00,0.0071
1276.00,0.0071
1275.00,0.0071
1274.00,0.0072
1273.00,0.0073
1272.00,0.0073
1271.00,0.0074
1270.00,0.0075
1269.00,0.0075
1268.00,0.0076
1267.00,0.0078
1266.00,0.0080
1265.00,0.0083
1264.00,0.0086
1263.00,0.0090
1262.00,0.0093
1261.00,0.0098
1260.00,0.0105
1259.00,0.0113
1258.00,0.0122
1257.00,0.0129
1256.00,0.0132
1255.00,0.0131
1254.00,0.0124
1253.00,0.0115
1252.00,0.0106
1251.00,0.0098
1250.00,0.0093
1249.00,0.0089
1248.00,0.0086
1247.00,0.0085
1246.00,0.0083
1245.00,0.0082
1244.00,0.0082
1243.00,0.0081
1242.00,0.0080
1241.00,0.0079
1240.00,0.0079
1239.00,0.0078
1238.00,0.0076
1237.00,0.0075
1236.00,0.0074
1235.00,0.0074
1234.00,0.0073
1233.00,0.0073
1232.00,0.0072
1231.00,0.0072
1230.00,0.0071
1229.00,0.0072
1228.00,0.0072
1227.00,0.0074
1226.00,0.0076
1225.00,0.0079
1224.00,0.0082
1223.00,0.0085
1222.00,0.0089
1221.00,0.0091
1220.00,0.0093
1219.00,0.0094
1218.00,0.0094
1217.00,0.0093
1216.00,0.0090
1215.00,0.0087
1214.00,0.0084
1213.00,0.0081
1212.00,0.0077
1211.00,0.0074
1210.00,0.0072
1209.00,0.0070
1208.00,0.0068
1207.00,0.0066
1206.00,0.0065
1205.00,0.0063
1204.00,0.0061
1203.00,0.0059
1202.00,0.0059
1201.00,0.0058
1200.00,0.0058
1199.00,0.0057
1198.00,0.0057
1197.00,0.0057
1196.00,0.0058
1195.00,0.0058
1194.00,0.0058
1193.00,0.0058
1192.00,0.0058
1191.00,0.0059
1190.00,0.0059
1189.00,0.0060
1188.00,0.0061
1187.00,0.0062
1186.00,0.0064
1185.00,0.0066
1184.00,0.0069
1183.00,0.0072
1182.00,0.0075
1181.00,0.0079
1180.00,0.0083
1179.00,0.0089
1178.00,0.0097
1177.00,0.0108
1176.00,0.0122
1175.00,0.0140
1174.00,0.0163
1173.00,0.0192
1172.00,0.0226
1171.00,0.0264
1170.00,0.0301
1169.00,0.0331
1168.00,0.0349
1167.00,0.0354
1166.00,0.0346
1165.00,0.0330
1164.00,0.0310
1163.00,0.0288
1162.00,0.0269
1161.00,0.0253
1160.00,0.0239
1159.00,0.0229
1158.00,0.0220
1157.00,0.0214
1156.00,0.0209
1155.00,0.0206
1154.00,0.0203
1153.00,0.0200
1152.00,0.0195
1151.00,0.0188
1150.00,0.0180
1149.00,0.0170
1148.00,0.0160
1147.00,0.0151
1146.00,0.0142
1145.00,0.0134
1144.00,0.0126
1143.00,0.0119
1142.00,0.0112
1141.00,0.0105
1140.00,0.0099
1139.00,0.0095
1138.00,0.0091
1137.00,0.0087
1136.00,0.0085
1135.00,0.0082
1134.00,0.0080
1133.00,0.0078
1132.00,0.0077
1131.00,0.0077
1130.00,0.0078
1129.00,0.0079
1128.00,0.0081
1127.00,0.0082
1126.00,0.0084
1125.00,0.0085
1124.00,0.0086
1123.00,0.0085
1122.00,0.0084
1121.00,0.0084
1120.00,0.0084
1119.00,0.0085
1118.00,0.0087
1117.00,0.0090
1116.00,0.0092
1115.00,0.0094
1114.00,0.0096
1113.00,0.0097
1112.00,0.0099
1111.00,0.0101
1110.00,0.0105
1109.00,0.0109
1108.00,0.0115
1107.00,0.0121
1106.00,0.0128
1105.00,0.0135
1104.00,0.0141
1103.00,0.0144
1102.00,0.0144
1101.00,0.0141
1100.00,0.0137
1099.00,0.0131
1098.00,0.0124
1097.00,0.0118
1096.00,0.0112
1095.00,0.0107
1094.00,0.0103
1093.00,0.0099
1092.00,0.0096
1091.00,0.0094
1090.00,0.0092
1089.00,0.0090
1088.00,0.0089
1087.00,0.0087
1086.00,0.0086
1085.00,0.0084
1084.00,0.0083
1083.00,0.0083
1082.00,0.0082
1081.00,0.0082
1080.00,0.0080
1079.00,0.0078
1078.00,0.0077
1077.00,0.0077
1076.00,0.0076
1075.00,0.0076
1074.00,0.0076
1073.00,0.0076
1072.00,0.0077
1071.00,0.0077
1070.00,0.0078
1069.00,0.0077
1068.00,0.0077
1067.00,0.0077
1066.00,0.0078
1065.00,0.0079
1064.00,0.0080
1063.00,0.0080
1062.00,0.0080
1061.00,0.0080
1060.00,0.0081
1059.00,0.0082
1058.00,0.0083
1057.00,0.0084
1056.00,0.0085
1055.00,0.0085
1054.00,0.0086
1053.00,0.0085
1052.00,0.0086
1051.00,0.0087
1050.00,0.0090
1049.00,0.0093
1048.00,0.0096
1047.00,0.0099
1046.00,0.0101
1045.00,0.0103
1044.00,0.0103
1043.00,0.0102
1042.00,0.0100
1041.00,0.0096
1040.00,0.0094
1039.00,0.0094
1038.00,0.0094
1037.00,0.0096
1036.00,0.0096
1035.00,0.0096
1034.00,0.0096
1033.00,0.0095
1032.00,0.0094
1031.00,0.0093
1030.00,0.0093
1029.00,0.0092
1028.00,0.0092
1027.00,0.0092
1026.00,0.0091
1025.00,0.0090
1024.00,0.0090
1023.00,0.0090
1022.00,0.0091
1021.00,0.0092
1020.00,0.0094
1019.00,0.0096
1018.00,0.0097
1017.00,0.0098
1016.00,0.0099
1015.00,0.0101
1014.00,0.0105
1013.00,0.0109
1012.00,0.0114
1011.00,0.0119
1010.00,0.0123
1009.00,0.0128
1008.00,0.0133
1007.00,0.0140
1006.00,0.0150
1005.00,0.0164
1004.00,0.0182
1003.00,0.0208
1002.00,0.0240
1001.00,0.0280
1000.00,0.0322
999.00,0.0358
998.00,0.0376
997.00,0.0371
996.00,0.0342
995.00,0.0299
994.00,0.0253
993.00,0.0212
992.00,0.0180
991.00,0.0157
990.00,0.0141
989.00,0.0131
988.00,0.0124
987.00,0.0121
986.00,0.0120
985.00,0.0122
984.00,0.0126
983.00,0.0135
982.00,0.0148
981.00,0.0166
980.00,0.0191
979.00,0.0222
978.00,0.0262
977.00,0.0309
976.00,0.0360
975.00,0.0410
974.00,0.0448
973.00,0.0464
972.00,0.0452
971.00,0.0413
970.00,0.0357
969.00,0.0298
968.00,0.0246
967.00,0.0205
966.00,0.0175
965.00,0.0154
964.00,0.0138
963.00,0.0126
962.00,0.0117
961.00,0.0109
960.00,0.0102
959.00,0.0096
958.00,0.0092
957.00,0.0089
956.00,0.0086
955.00,0.0084
954.00,0.0083
953.00,0.0082
952.00,0.0082
951.00,0.0081
950.00,0.0081
949.00,0.0081
948.00,0.0082
947.00,0.0084
946.00,0.0086
945.00,0.0088
944.00,0.0090
943.00,0.0092
942.00,0.0093
941.00,0.0094
940.00,0.0094
939.00,0.0092
938.00,0.0088
937.00,0.0083
936.00,0.0078
935.00,0.0074
934.00,0.0071
933.00,0.0069
932.00,0.0067
931.00,0.0066
930.00,0.0064
929.00,0.0063
928.00,0.0063
927.00,0.0062
926.00,0.0062
925.00,0.0063
924.00,0.0064
923.00,0.0065
922.00,0.0066
921.00,0.0067
920.00,0.0068
919.00,0.0069
918.00,0.0070
917.00,0.0070
916.00,0.0070
915.00,0.0071
914.00,0.0071
913.00,0.0072
912.00,0.0074
911.00,0.0075
910.00,0.0077
909.00,0.0078
908.00,0.0080
907.00,0.0083
906.00,0.0089
905.00,0.0100
904.00,0.0115
903.00,0.0133
902.00,0.0152
901.00,0.0170
900.00,0.0183
899.00,0.0187
898.00,0.0180
897.00,0.0166
896.00,0.0147
895.00,0.0129
894.00,0.0114
893.00,0.0102
892.00,0.0093
891.00,0.0086
890.00,0.0082
889.00,0.0079
888.00,0.0078
887.00,0.0077
886.00,0.0076
885.00,0.0075
884.00,0.0073
883.00,0.0073
882.00,0.0073
881.00,0.0074
880.00,0.0074
879.00,0.0074
878.00,0.0074
877.00,0.0074
876.00,0.0074
875.00,0.0075
874.00,0.0075
873.00,0.0074
872.00,0.0073
871.00,0.0073
870.00,0.0073
869.00,0.0073
868.00,0.0073
867.00,0.0074
866.00,0.0075
865.00,0.0076
864.00,0.0078
863.00,0.0080
862.00,0.0081
861.00,0.0083
860.00,0.0086
859.00,0.0089
858.00,0.0092
857.00,0.0093
856.00,0.0092
855.00,0.0092
854.00,0.0093
853.00,0.0097
852.00,0.0101
851.00,0.0106
850.00,0.0112
849.00,0.0120
848.00,0.0132
847.00,0.0150
846.00,0.0177
845.00,0.0216
844.00,0.0266
843.00,0.0319
842.00,0.0358
841.00,0.0368
840.00,0.0344
839.00,0.0297
838.00,0.0246
837.00,0.0204
836.00,0.0175
835.00,0.0157
834.00,0.0145
833.00,0.0137
832.00,0.0131
831.00,0.0127
830.00,0.0124
829.00,0.0121
828.00,0.0119
827.00,0.0118
826.00,0.0116
825.00,0.0115
824.00,0.0113
823.00,0.0113
822.00,0.0113
821.00,0.0115
820.00,0.0116
819.00,0.0118
818.00,0.0122
817.00,0.0128
816.00,0.0135
815.00,0.0144
814.00,0.0155
813.00,0.0168
812.00,0.0183
811.00,0.0197
810.00,0.0207
809.00,0.0213
808.00,0.0212
807.00,0.0205
806.00,0.0193
805.00,0.0179
804.00,0.0164
803.00,0.0152
802.00,0.0142
801.00,0.0134
800.00,0.0126
799.00,0.0120
798.00,0.0114
797.00,0.0109
796.00,0.0104
795.00,0.0101
794.00,0.0098
793.00,0.0094
792.00,0.0092
791.00,0.0090
790.00,0.0088
789.00,0.0085
788.00,0.0081
787.00,0.0078
786.00,0.0075
785.00,0.0072
784.00,0.0070
783.00,0.0068
782.00,0.0066
781.00,0.0066
780.00,0.0065
779.00,0.0064
778.00,0.0064
777.00,0.0063
776.00,0.0062
775.00,0.0063
774.00,0.0066
773.00,0.0070
772.00,0.0075
771.00,0.0080
770.00,0.0083
769.00,0.0084
768.00,0.0085
767.00,0.0085
766.00,0.0086
765.00,0.0086
764.00,0.0083
763.00,0.0079
762.00,0.0074
761.00,0.0069
760.00,0.0066
759.00,0.0064
758.00,0.0063
757.00,0.0061
756.00,0.0059
755.00,0.0057
754.00,0.0055
753.00,0.0055
752.00,0.0056
751.00,0.0057
750.00,0.0058
749.00,0.0058
748.00,0.0057
747.00,0.0056
746.00,0.0056
745.00,0.0056
744.00,0.0057
743.00,0.0058
742.00,0.0058
741.00,0.0059
740.00,0.0060
739.00,0.0062
738.00,0.0064
737.00,0.0066
736.00,0.0068
735.00,0.0071
734.00,0.0074
733.00,0.0077
732.00,0.0077
731.00,0.0076
730.00,0.0074
729.00,0.0072
728.00,0.0070
727.00,0.0068
726.00,0.0068
725.00,0.0069
724.00,0.0070
723.00,0.0070
722.00,0.0068
721.00,0.0067
720.00,0.0066
719.00,0.0066
718.00,0.0065
717.00,0.0064
716.00,0.0062
715.00,0.0061
714.00,0.0061
713.00,0.0061
712.00,0.0060
711.00,0.0061
710.00,0.0061
709.00,0.0061
708.00,0.0061
707.00,0.0062
706.00,0.0064
705.00,0.0065
704.00,0.0065
703.00,0.0065
702.00,0.0065
701.00,0.0065
700.00,0.0064
699.00,0.0063
698.00,0.0062
697.00,0.0061
696.00,0.0060
695.00,0.0060
694.00,0.0061
693.00,0.0061
692.00,0.0061
691.00,0.0060
690.00,0.0059
689.00,0.0058
688.00,0.0056
687.00,0.0055
686.00,0.0055
685.00,0.0056
684.00,0.0057
683.00,0.0058
682.00,0.0058
681.00,0.0058
680.00,0.0058
679.00,0.0059
678.00,0.0059
677.00,0.0059
676.00,0.0058
675.00,0.0056
674.00,0.0056
673.00,0.0056
672.00,0.0056
671.00,0.0057
670.00,0.0060
669.00,0.0063
668.00,0.0067
667.00,0.0068
666.00,0.0067
665.00,0.0066
664.00,0.0064
663.00,0.0063
662.00,0.0062
661.00,0.0062
660.00,0.0062
659.00,0.0063
658.00,0.0064
657.00,0.0065
656.00,0.0067
655.00,0.0067
654.00,0.0067
653.00,0.0067
652.00,0.0066
651.00,0.0066
650.00,0.0064
649.00,0.0062
648.00,0.0061
647.00,0.0061
646.00,0.0062
645.00,0.0062
644.00,0.0061
643.00,0.0059
642.00,0.0059
641.00,0.0058
640.00,0.0058
639.00,0.0058
638.00,0.0059
637.00,0.0059
636.00,0.0059
635.00,0.0058
634.00,0.0057
633.00,0.0057
632.00,0.0059
631.00,0.0062
630.00,0.0065
629.00,0.0066
628.00,0.0066
627.00,0.0065
626.00,0.0065
625.00,0.0066
624.00,0.0067
623.00,0.0067
622.00,0.0065
621.00,0.0064
620.00,0.0063
619.00,0.0062
618.00,0.0061
617.00,0.0060
616.00,0.0061
615.00,0.0063
614.00,0.0065
613.00,0.0063
612.00,0.0061
611.00,0.0059
610.00,0.0059
609.00,0.0062
608.00,0.0064
607.00,0.0065
606.00,0.0064
605.00,0.0061
604.00,0.0059
603.00,0.0057
602.00,0.0057
601.00,0.0059
600.00,0.0060
599.00,0.0062
598.00,0.0063
597.00,0.0064
596.00,0.0065
595.00,0.0066
594.00,0.0067
593.00,0.0067
592.00,0.0066
591.00,0.0065
590.00,0.0061
589.00,0.0058
588.00,0.0056
587.00,0.0056
586.00,0.0058
585.00,0.0060
584.00,0.0059
583.00,0.0059
582.00,0.0059
581.00,0.0062
580.00,0.0066
579.00,0.0068
578.00,0.0068
577.00,0.0066
576.00,0.0065
575.00,0.0064
574.00,0.0065
573.00,0.0066
572.00,0.0067
571.00,0.0065
570.00,0.0063
569.00,0.0062
568.00,0.0062
567.00,0.0063
566.00,0.0064
565.00,0.0067
564.00,0.0069
563.00,0.0070
562.00,0.0070
561.00,0.0068
560.00,0.0067
559.00,0.0067
558.00,0.0067
557.00,0.0067
556.00,0.0066
555.00,0.0064
554.00,0.0063
553.00,0.0061
552.00,0.0060
551.00,0.0061
550.00,0.0064
549.00,0.0065
548.00,0.0065
547.00,0.0064
546.00,0.0063
545.00,0.0064
544.00,0.0068
543.00,0.0071
542.00,0.0074
541.00,0.0074
540.00,0.0072
539.00,0.0069
538.00,0.0067
537.00,0.0068
536.00,0.0070
535.00,0.0073
534.00,0.0075
533.00,0.0076
532.00,0.0076
531.00,0.0076
530.00,0.0076
529.00,0.0076
528.00,0.0079
527.00,0.0082
526.00,0.0086
525.00,0.0088
524.00,0.0089
523.00,0.0086
522.00,0.0081
521.00,0.0076
520.00,0.0073
519.00,0.0072
518.00,0.0075
517.00,0.0077
516.00,0.0076
515.00,0.0073
514.00,0.0069
513.00,0.0069
512.00,0.0074
511.00,0.0080
510.00,0.0083
509.00,0.0080
508.00,0.0073
507.00,0.0067
506.00,0.0065
505.00,0.0065
504.00,0.0065
503.00,0.0064
502.00,0.0064
501.00,0.0066
500.00,0.0067
499.00,0.0063
498.00,0.0057
497.00,0.0053
496.00,0.0053
495.00,0.0054
494.00,0.0053
493.00,0.0051
492.00,0.0049
491.00,0.0050
490.00,0.0050
489.00,0.0049
488.00,0.0049
487.00,0.0053
486.00,0.0060
485.00,0.0065
484.00,0.0066
483.00,0.0064
482.00,0.0064
481.00,0.0071
480.00,0.0085
479.00,0.0099
478.00,0.0103
477.00,0.0095
476.00,0.0080
475.00,0.0069
474.00,0.0066
473.00,0.0068
472.00,0.0073
471.00,0.0076
470.00,0.0076
469.00,0.0073
468.00,0.0069
467.00,0.0071
466.00,0.0082
465.00,0.0098
464.00,0.0115
463.00,0.0132
462.00,0.0145
461.00,0.0150
460.00,0.0148
459.00,0.0145
458.00,0.0147
457.00,0.0151
456.00,0.0149
455.00,0.0137
454.00,0.0121
453.00,0.0107
452.00,0.0098
451.00,0.0092
450.00,0.0086
