Created as New Dataset,Sample 198 By Administrator Date Tuesday, September 09 2025
cm-1,A
4000.00,0.0002
3999.00,0.0002
3998.00,0.0002
3997.00,0.0002
3996.00,0.0002
3995.00,0.0002
3994.00,0.0002
3993.00,0.0002
3992.00,0.0002
3991.00,0.0002
3990.00,0.0002
3989.00,0.0002
3988.00,0.0001
3987.00,0.0001
3986.00,0.0001
3985.00,0.0001
3984.00,0.0001
3983.00,0.0002
3982.00,0.0002
3981.00,0.0002
3980.00,0.0001
3979.00,0.0001
3978.00,0.0001
3977.00,0.0001
3976.00,0.0002
3975.00,0.0002
3974.00,0.0002
3973.00,0.0002
3972.00,0.0002
3971.00,0.0002
3970.00,0.0002
3969.00,0.0002
3968.00,0.0002
3967.00,0.0002
3966.00,0.0002
3965.00,0.0002
3964.00,0.0002
3963.00,0.0002
3962.00,0.0002
3961.00,0.0002
3960.00,0.0001
3959.00,0.0001
3958.00,0.0001
3957.00,0.0001
3956.00,0.0001
3955.00,0.0001
3954.00,0.0001
3953.00,0.0001
3952.00,0.0000
3951.00,0.0000
3950.00,0.0001
3949.00,0.0001
3948.00,0.0001
3947.00,0.0001
3946.00,0.0001
3945.00,0.0001
3944.00,0.0001
3943.00,0.0001
3942.00,0.0001
3941.00,0.0001
3940.00,0.0001
3939.00,0.0001
3938.00,0.0001
3937.00,0.0001
3936.00,0.0001
3935.00,0.0001
3934.00,0.0001
3933.00,0.0001
3932.00,0.0002
3931.00,0.0002
3930.00,0.0002
3929.00,0.0002
3928.00,0.0002
3927.00,0.0002
3926.00,0.0002
3925.00,0.0002
3924.00,0.0002
3923.00,0.0002
3922.00,0.0002
3921.00,0.0001
3920.00,0.0001
3919.00,0.0001
3918.00,0.0001
3917.00,0.0001
3916.00,0.0001
3915.00,0.0001
3914.00,0.0001
3913.00,0.0002
3912.00,0.0002
3911.00,0.0001
3910.00,0.0001
3909.00,0.0001
3908.00,0.0001
3907.00,0.0001
3906.00,0.0002
3905.00,0.0002
3904.00,0.0002
3903.00,0.0002
3902.00,0.0002
3901.00,0.0002
3900.00,0.0002
3899.00,0.0001
3898.00,0.0001
3897.00,0.0001
3896.00,0.0001
3895.00,0.0001
3894.00,0.0001
3893.00,0.0001
3892.00,0.0001
3891.00,0.0001
3890.00,0.0002
3889.00,0.0002
3888.00,0.0003
3887.00,0.0003
3886.00,0.0003
3885.00,0.0003
3884.00,0.0003
3883.00,0.0002
3882.00,0.0002
3881.00,0.0002
3880.00,0.0001
3879.00,0.0001
3878.00,0.0001
3877.00,0.0001
3876.00,0.0002
3875.00,0.0002
3874.00,0.0002
3873.00,0.0002
3872.00,0.0003
3871.00,0.0003
3870.00,0.0003
3869.00,0.0003
3868.00,0.0002
3867.00,0.0002
3866.00,0.0002
3865.00,0.0002
3864.00,0.0002
3863.00,0.0002
3862.00,0.0002
3861.00,0.0002
3860.00,0.0002
3859.00,0.0002
3858.00,0.0002
3857.00,0.0003
3856.00,0.0003
3855.00,0.0003
3854.00,0.0003
3853.00,0.0003
3852.00,0.0003
3851.00,0.0003
3850.00,0.0003
3849.00,0.0002
3848.00,0.0002
3847.00,0.0002
3846.00,0.0002
3845.00,0.0002
3844.00,0.0002
3843.00,0.0002
3842.00,0.0001
3841.00,0.0001
3840.00,0.0001
3839.00,0.0001
3838.00,0.0001
3837.00,0.0001
3836.00,0.0002
3835.00,0.0003
3834.00,0.0003
3833.00,0.0002
3832.00,0.0002
3831.00,0.0001
3830.00,0.0001
3829.00,0.0001
3828.00,0.0001
3827.00,0.0002
3826.00,0.0002
3825.00,0.0001
3824.00,0.0001
3823.00,0.0000
3822.00,-0.0000
3821.00,-0.0000
3820.00,0.0000
3819.00,0.0000
3818.00,0.0000
3817.00,0.0001
3816.00,0.0001
3815.00,0.0001
3814.00,0.0001
3813.00,0.0002
3812.00,0.0002
3811.00,0.0002
3810.00,0.0001
3809.00,0.0001
3808.00,0.0001
3807.00,0.0001
3806.00,0.0001
3805.00,0.0001
3804.00,0.0001
3803.00,0.0001
3802.00,0.0001
3801.00,0.0002
3800.00,0.0002
3799.00,0.0003
3798.00,0.0003
3797.00,0.0003
3796.00,0.0002
3795.00,0.0001
3794.00,0.0000
3793.00,0.0000
3792.00,0.0000
3791.00,0.0000
3790.00,0.0000
3789.00,0.0000
3788.00,0.0000
3787.00,0.0001
3786.00,0.0001
3785.00,0.0001
3784.00,0.0001
3783.00,0.0001
3782.00,0.0001
3781.00,0.0001
3780.00,0.0002
3779.00,0.0002
3778.00,0.0001
3777.00,0.0001
3776.00,0.0001
3775.00,0.0001
3774.00,0.0001
3773.00,0.0001
3772.00,0.0001
3771.00,0.0001
3770.00,0.0001
3769.00,0.0001
3768.00,0.0002
3767.00,0.0002
3766.00,0.0002
3765.00,0.0002
3764.00,0.0002
3763.00,0.0002
3762.00,0.0002
3761.00,0.0002
3760.00,0.0002
3759.00,0.0002
3758.00,0.0002
3757.00,0.0002
3756.00,0.0002
3755.00,0.0003
3754.00,0.0004
3753.00,0.0004
3752.00,0.0004
3751.00,0.0004
3750.00,0.0004
3749.00,0.0004
3748.00,0.0004
3747.00,0.0004
3746.00,0.0004
3745.00,0.0003
3744.00,0.0003
3743.00,0.0003
3742.00,0.0003
3741.00,0.0003
3740.00,0.0003
3739.00,0.0003
3738.00,0.0002
3737.00,0.0002
3736.00,0.0002
3735.00,0.0001
3734.00,0.0001
3733.00,0.0001
3732.00,0.0002
3731.00,0.0001
3730.00,0.0001
3729.00,0.0001
3728.00,0.0001
3727.00,0.0001
3726.00,0.0001
3725.00,0.0001
3724.00,0.0002
3723.00,0.0002
3722.00,0.0002
3721.00,0.0002
3720.00,0.0002
3719.00,0.0001
3718.00,0.0001
3717.00,0.0001
3716.00,0.0001
3715.00,0.0002
3714.00,0.0002
3713.00,0.0001
3712.00,0.0000
3711.00,-0.0001
3710.00,-0.0001
3709.00,-0.0000
3708.00,0.0000
3707.00,0.0000
3706.00,-0.0000
3705.00,-0.0001
3704.00,-0.0001
3703.00,-0.0002
3702.00,-0.0001
3701.00,-0.0001
3700.00,-0.0001
3699.00,-0.0000
3698.00,0.0000
3697.00,0.0001
3696.00,0.0001
3695.00,0.0001
3694.00,0.0001
3693.00,0.0001
3692.00,0.0001
3691.00,0.0001
3690.00,0.0001
3689.00,0.0001
3688.00,0.0001
3687.00,0.0001
3686.00,0.0001
3685.00,0.0001
3684.00,0.0001
3683.00,0.0001
3682.00,0.0001
3681.00,0.0001
3680.00,0.0001
3679.00,0.0001
3678.00,0.0001
3677.00,0.0001
3676.00,0.0002
3675.00,0.0001
3674.00,0.0001
3673.00,0.0001
3672.00,0.0001
3671.00,0.0002
3670.00,0.0002
3669.00,0.0001
3668.00,0.0001
3667.00,0.0001
3666.00,0.0000
3665.00,0.0000
3664.00,0.0000
3663.00,0.0000
3662.00,0.0000
3661.00,0.0001
3660.00,0.0001
3659.00,0.0001
3658.00,0.0002
3657.00,0.0002
3656.00,0.0001
3655.00,0.0001
3654.00,0.0001
3653.00,0.0001
3652.00,0.0001
3651.00,0.0002
3650.00,0.0003
3649.00,0.0003
3648.00,0.0004
3647.00,0.0004
3646.00,0.0003
3645.00,0.0003
3644.00,0.0002
3643.00,0.0002
3642.00,0.0002
3641.00,0.0002
3640.00,0.0002
3639.00,0.0002
3638.00,0.0002
3637.00,0.0002
3636.00,0.0003
3635.00,0.0003
3634.00,0.0003
3633.00,0.0003
3632.00,0.0004
3631.00,0.0004
3630.00,0.0005
3629.00,0.0005
3628.00,0.0005
3627.00,0.0005
3626.00,0.0005
3625.00,0.0004
3624.00,0.0004
3623.00,0.0004
3622.00,0.0004
3621.00,0.0004
3620.00,0.0005
3619.00,0.0005
3618.00,0.0005
3617.00,0.0005
3616.00,0.0006
3615.00,0.0006
3614.00,0.0006
3613.00,0.0006
3612.00,0.0006
3611.00,0.0006
3610.00,0.0006
3609.00,0.0006
3608.00,0.0006
3607.00,0.0007
3606.00,0.0007
3605.00,0.0007
3604.00,0.0007
3603.00,0.0006
3602.00,0.0006
3601.00,0.0005
3600.00,0.0005
3599.00,0.0005
3598.00,0.0005
3597.00,0.0006
3596.00,0.0007
3595.00,0.0008
3594.00,0.0008
3593.00,0.0009
3592.00,0.0009
3591.00,0.0009
3590.00,0.0009
3589.00,0.0009
3588.00,0.0009
3587.00,0.0009
3586.00,0.0009
3585.00,0.0009
3584.00,0.0010
3583.00,0.0010
3582.00,0.0010
3581.00,0.0010
3580.00,0.0011
3579.00,0.0011
3578.00,0.0011
3577.00,0.0010
3576.00,0.0010
3575.00,0.0011
3574.00,0.0011
3573.00,0.0012
3572.00,0.0013
3571.00,0.0014
3570.00,0.0015
3569.00,0.0015
3568.00,0.0015
3567.00,0.0015
3566.00,0.0014
3565.00,0.0014
3564.00,0.0014
3563.00,0.0015
3562.00,0.0015
3561.00,0.0015
3560.00,0.0015
3559.00,0.0015
3558.00,0.0016
3557.00,0.0016
3556.00,0.0016
3555.00,0.0016
3554.00,0.0016
3553.00,0.0017
3552.00,0.0017
3551.00,0.0018
3550.00,0.0018
3549.00,0.0018
3548.00,0.0019
3547.00,0.0019
3546.00,0.0019
3545.00,0.0019
3544.00,0.0019
3543.00,0.0020
3542.00,0.0020
3541.00,0.0020
3540.00,0.0020
3539.00,0.0021
3538.00,0.0021
3537.00,0.0021
3536.00,0.0022
3535.00,0.0022
3534.00,0.0022
3533.00,0.0022
3532.00,0.0022
3531.00,0.0022
3530.00,0.0023
3529.00,0.0023
3528.00,0.0023
3527.00,0.0023
3526.00,0.0023
3525.00,0.0023
3524.00,0.0023
3523.00,0.0023
3522.00,0.0023
3521.00,0.0023
3520.00,0.0024
3519.00,0.0024
3518.00,0.0025
3517.00,0.0025
3516.00,0.0025
3515.00,0.0025
3514.00,0.0025
3513.00,0.0026
3512.00,0.0026
3511.00,0.0026
3510.00,0.0027
3509.00,0.0027
3508.00,0.0027
3507.00,0.0028
3506.00,0.0028
3505.00,0.0028
3504.00,0.0029
3503.00,0.0030
3502.00,0.0031
3501.00,0.0031
3500.00,0.0031
3499.00,0.0031
3498.00,0.0031
3497.00,0.0031
3496.00,0.0031
3495.00,0.0031
3494.00,0.0032
3493.00,0.0032
3492.00,0.0032
3491.00,0.0032
3490.00,0.0032
3489.00,0.0032
3488.00,0.0033
3487.00,0.0033
3486.00,0.0034
3485.00,0.0034
3484.00,0.0034
3483.00,0.0034
3482.00,0.0034
3481.00,0.0034
3480.00,0.0034
3479.00,0.0034
3478.00,0.0034
3477.00,0.0034
3476.00,0.0035
3475.00,0.0036
3474.00,0.0036
3473.00,0.0037
3472.00,0.0037
3471.00,0.0037
3470.00,0.0037
3469.00,0.0037
3468.00,0.0037
3467.00,0.0037
3466.00,0.0037
3465.00,0.0038
3464.00,0.0038
3463.00,0.0039
3462.00,0.0039
3461.00,0.0040
3460.00,0.0040
3459.00,0.0041
3458.00,0.0040
3457.00,0.0040
3456.00,0.0040
3455.00,0.0040
3454.00,0.0041
3453.00,0.0041
3452.00,0.0042
3451.00,0.0042
3450.00,0.0043
3449.00,0.0043
3448.00,0.0043
3447.00,0.0043
3446.00,0.0043
3445.00,0.0043
3444.00,0.0044
3443.00,0.0044
3442.00,0.0045
3441.00,0.0045
3440.00,0.0045
3439.00,0.0045
3438.00,0.0045
3437.00,0.0045
3436.00,0.0045
3435.00,0.0045
3434.00,0.0045
3433.00,0.0045
3432.00,0.0046
3431.00,0.0046
3430.00,0.0046
3429.00,0.0046
3428.00,0.0047
3427.00,0.0047
3426.00,0.0048
3425.00,0.0048
3424.00,0.0049
3423.00,0.0049
3422.00,0.0049
3421.00,0.0050
3420.00,0.0050
3419.00,0.0050
3418.00,0.0051
3417.00,0.0051
3416.00,0.0051
3415.00,0.0052
3414.00,0.0052
3413.00,0.0052
3412.00,0.0052
3411.00,0.0052
3410.00,0.0053
3409.00,0.0053
3408.00,0.0053
3407.00,0.0053
3406.00,0.0054
3405.00,0.0054
3404.00,0.0054
3403.00,0.0054
3402.00,0.0054
3401.00,0.0055
3400.00,0.0055
3399.00,0.0055
3398.00,0.0055
3397.00,0.0055
3396.00,0.0055
3395.00,0.0055
3394.00,0.0055
3393.00,0.0055
3392.00,0.0055
3391.00,0.0055
3390.00,0.0055
3389.00,0.0055
3388.00,0.0055
3387.00,0.0055
3386.00,0.0055
3385.00,0.0055
3384.00,0.0055
3383.00,0.0055
3382.00,0.0056
3381.00,0.0056
3380.00,0.0056
3379.00,0.0056
3378.00,0.0056
3377.00,0.0056
3376.00,0.0056
3375.00,0.0056
3374.00,0.0056
3373.00,0.0057
3372.00,0.0057
3371.00,0.0057
3370.00,0.0057
3369.00,0.0057
3368.00,0.0057
3367.00,0.0057
3366.00,0.0058
3365.00,0.0058
3364.00,0.0058
3363.00,0.0058
3362.00,0.0057
3361.00,0.0057
3360.00,0.0058
3359.00,0.0058
3358.00,0.0059
3357.00,0.0059
3356.00,0.0059
3355.00,0.0059
3354.00,0.0059
3353.00,0.0059
3352.00,0.0059
3351.00,0.0059
3350.00,0.0059
3349.00,0.0059
3348.00,0.0059
3347.00,0.0059
3346.00,0.0059
3345.00,0.0059
3344.00,0.0059
3343.00,0.0059
3342.00,0.0059
3341.00,0.0059
3340.00,0.0059
3339.00,0.0059
3338.00,0.0059
3337.00,0.0059
3336.00,0.0058
3335.00,0.0058
3334.00,0.0058
3333.00,0.0058
3332.00,0.0059
3331.00,0.0059
3330.00,0.0059
3329.00,0.0059
3328.00,0.0059
3327.00,0.0058
3326.00,0.0058
3325.00,0.0058
3324.00,0.0058
3323.00,0.0057
3322.00,0.0057
3321.00,0.0057
3320.00,0.0057
3319.00,0.0057
3318.00,0.0057
3317.00,0.0057
3316.00,0.0057
3315.00,0.0057
3314.00,0.0057
3313.00,0.0057
3312.00,0.0057
3311.00,0.0057
3310.00,0.0057
3309.00,0.0057
3308.00,0.0057
3307.00,0.0057
3306.00,0.0057
3305.00,0.0057
3304.00,0.0057
3303.00,0.0057
3302.00,0.0057
3301.00,0.0057
3300.00,0.0057
3299.00,0.0057
3298.00,0.0057
3297.00,0.0057
3296.00,0.0056
3295.00,0.0056
3294.00,0.0056
3293.00,0.0056
3292.00,0.0056
3291.00,0.0056
3290.00,0.0056
3289.00,0.0056
3288.00,0.0056
3287.00,0.0055
3286.00,0.0055
3285.00,0.0054
3284.00,0.0054
3283.00,0.0054
3282.00,0.0054
3281.00,0.0054
3280.00,0.0054
3279.00,0.0053
3278.00,0.0053
3277.00,0.0053
3276.00,0.0053
3275.00,0.0053
3274.00,0.0053
3273.00,0.0052
3272.00,0.0052
3271.00,0.0052
3270.00,0.0052
3269.00,0.0052
3268.00,0.0052
3267.00,0.0052
3266.00,0.0051
3265.00,0.0051
3264.00,0.0051
3263.00,0.0050
3262.00,0.0050
3261.00,0.0050
3260.00,0.0050
3259.00,0.0050
3258.00,0.0050
3257.00,0.0050
3256.00,0.0050
3255.00,0.0049
3254.00,0.0049
3253.00,0.0049
3252.00,0.0049
3251.00,0.0049
3250.00,0.0049
3249.00,0.0049
3248.00,0.0049
3247.00,0.0049
3246.00,0.0048
3245.00,0.0048
3244.00,0.0048
3243.00,0.0048
3242.00,0.0048
3241.00,0.0048
3240.00,0.0048
3239.00,0.0048
3238.00,0.0048
3237.00,0.0048
3236.00,0.0048
3235.00,0.0048
3234.00,0.0048
3233.00,0.0048
3232.00,0.0048
3231.00,0.0048
3230.00,0.0049
3229.00,0.0048
3228.00,0.0048
3227.00,0.0048
3226.00,0.0048
3225.00,0.0048
3224.00,0.0049
3223.00,0.0049
3222.00,0.0049
3221.00,0.0049
3220.00,0.0049
3219.00,0.0050
3218.00,0.0050
3217.00,0.0051
3216.00,0.0051
3215.00,0.0051
3214.00,0.0051
3213.00,0.0051
3212.00,0.0051
3211.00,0.0051
3210.00,0.0052
3209.00,0.0052
3208.00,0.0052
3207.00,0.0052
3206.00,0.0052
3205.00,0.0052
3204.00,0.0052
3203.00,0.0052
3202.00,0.0052
3201.00,0.0052
3200.00,0.0052
3199.00,0.0052
3198.00,0.0052
3197.00,0.0052
3196.00,0.0052
3195.00,0.0052
3194.00,0.0052
3193.00,0.0052
3192.00,0.0052
3191.00,0.0052
3190.00,0.0052
3189.00,0.0051
3188.00,0.0051
3187.00,0.0051
3186.00,0.0051
3185.00,0.0051
3184.00,0.0051
3183.00,0.0051
3182.00,0.0051
3181.00,0.0050
3180.00,0.0050
3179.00,0.0049
3178.00,0.0048
3177.00,0.0048
3176.00,0.0047
3175.00,0.0047
3174.00,0.0047
3173.00,0.0046
3172.00,0.0046
3171.00,0.0045
3170.00,0.0045
3169.00,0.0046
3168.00,0.0046
3167.00,0.0046
3166.00,0.0046
3165.00,0.0046
3164.00,0.0045
3163.00,0.0045
3162.00,0.0045
3161.00,0.0045
3160.00,0.0044
3159.00,0.0044
3158.00,0.0044
3157.00,0.0044
3156.00,0.0044
3155.00,0.0044
3154.00,0.0044
3153.00,0.0044
3152.00,0.0044
3151.00,0.0044
3150.00,0.0044
3149.00,0.0043
3148.00,0.0043
3147.00,0.0043
3146.00,0.0043
3145.00,0.0043
3144.00,0.0043
3143.00,0.0043
3142.00,0.0043
3141.00,0.0043
3140.00,0.0043
3139.00,0.0042
3138.00,0.0042
3137.00,0.0042
3136.00,0.0041
3135.00,0.0041
3134.00,0.0040
3133.00,0.0040
3132.00,0.0040
3131.00,0.0041
3130.00,0.0041
3129.00,0.0041
3128.00,0.0040
3127.00,0.0040
3126.00,0.0039
3125.00,0.0039
3124.00,0.0038
3123.00,0.0038
3122.00,0.0037
3121.00,0.0037
3120.00,0.0037
3119.00,0.0036
3118.00,0.0036
3117.00,0.0036
3116.00,0.0036
3115.00,0.0036
3114.00,0.0036
3113.00,0.0035
3112.00,0.0035
3111.00,0.0034
3110.00,0.0034
3109.00,0.0034
3108.00,0.0034
3107.00,0.0034
3106.00,0.0034
3105.00,0.0033
3104.00,0.0033
3103.00,0.0034
3102.00,0.0034
3101.00,0.0034
3100.00,0.0033
3099.00,0.0033
3098.00,0.0033
3097.00,0.0033
3096.00,0.0034
3095.00,0.0034
3094.00,0.0033
3093.00,0.0032
3092.00,0.0032
3091.00,0.0031
3090.00,0.0031
3089.00,0.0031
3088.00,0.0031
3087.00,0.0031
3086.00,0.0031
3085.00,0.0031
3084.00,0.0031
3083.00,0.0031
3082.00,0.0032
3081.00,0.0031
3080.00,0.0031
3079.00,0.0030
3078.00,0.0030
3077.00,0.0030
3076.00,0.0031
3075.00,0.0031
3074.00,0.0031
3073.00,0.0031
3072.00,0.0031
3071.00,0.0031
3070.00,0.0031
3069.00,0.0031
3068.00,0.0032
3067.00,0.0032
3066.00,0.0032
3065.00,0.0032
3064.00,0.0032
3063.00,0.0032
3062.00,0.0032
3061.00,0.0032
3060.00,0.0032
3059.00,0.0032
3058.00,0.0033
3057.00,0.0033
3056.00,0.0034
3055.00,0.0034
3054.00,0.0034
3053.00,0.0034
3052.00,0.0034
3051.00,0.0034
3050.00,0.0035
3049.00,0.0035
3048.00,0.0035
3047.00,0.0034
3046.00,0.0034
3045.00,0.0034
3044.00,0.0035
3043.00,0.0035
3042.00,0.0036
3041.00,0.0036
3040.00,0.0036
3039.00,0.0036
3038.00,0.0037
3037.00,0.0037
3036.00,0.0037
3035.00,0.0037
3034.00,0.0037
3033.00,0.0037
3032.00,0.0038
3031.00,0.0039
3030.00,0.0040
3029.00,0.0040
3028.00,0.0041
3027.00,0.0041
3026.00,0.0041
3025.00,0.0042
3024.00,0.0042
3023.00,0.0043
3022.00,0.0044
3021.00,0.0045
3020.00,0.0046
3019.00,0.0046
3018.00,0.0047
3017.00,0.0048
3016.00,0.0049
3015.00,0.0050
3014.00,0.0052
3013.00,0.0053
3012.00,0.0054
3011.00,0.0055
3010.00,0.0056
3009.00,0.0057
3008.00,0.0058
3007.00,0.0060
3006.00,0.0061
3005.00,0.0063
3004.00,0.0065
3003.00,0.0067
3002.00,0.0070
3001.00,0.0072
3000.00,0.0075
2999.00,0.0077
2998.00,0.0081
2997.00,0.0084
2996.00,0.0088
2995.00,0.0092
2994.00,0.0097
2993.00,0.0103
2992.00,0.0108
2991.00,0.0114
2990.00,0.0121
2989.00,0.0128
2988.00,0.0136
2987.00,0.0145
2986.00,0.0155
2985.00,0.0166
2984.00,0.0179
2983.00,0.0194
2982.00,0.0210
2981.00,0.0228
2980.00,0.0248
2979.00,0.0272
2978.00,0.0299
2977.00,0.0329
2976.00,0.0364
2975.00,0.0403
2974.00,0.0449
2973.00,0.0500
2972.00,0.0558
2971.00,0.0624
2970.00,0.0698
2969.00,0.0780
2968.00,0.0871
2967.00,0.0969
2966.00,0.1076
2965.00,0.1188
2964.00,0.1303
2963.00,0.1416
2962.00,0.1521
2961.00,0.1612
2960.00,0.1685
2959.00,0.1740
2958.00,0.1778
2957.00,0.1804
2956.00,0.1827
2955.00,0.1852
2954.00,0.1882
2953.00,0.1915
2952.00,0.1946
2951.00,0.1963
2950.00,0.1959
2949.00,0.1924
2948.00,0.1856
2947.00,0.1758
2946.00,0.1637
2945.00,0.1505
2944.00,0.1377
2943.00,0.1262
2942.00,0.1169
2941.00,0.1101
2940.00,0.1057
2939.00,0.1036
2938.00,0.1035
2937.00,0.1051
2936.00,0.1084
2935.00,0.1131
2934.00,0.1191
2933.00,0.1264
2932.00,0.1346
2931.00,0.1436
2930.00,0.1532
2929.00,0.1630
2928.00,0.1727
2927.00,0.1820
2926.00,0.1908
2925.00,0.1990
2924.00,0.2068
2923.00,0.2143
2922.00,0.2216
2921.00,0.2284
2920.00,0.2344
2919.00,0.2390
2918.00,0.2415
2917.00,0.2414
2916.00,0.2387
2915.00,0.2337
2914.00,0.2270
2913.00,0.2196
2912.00,0.2120
2911.00,0.2048
2910.00,0.1983
2909.00,0.1924
2908.00,0.1869
2907.00,0.1814
2906.00,0.1758
2905.00,0.1698
2904.00,0.1635
2903.00,0.1569
2902.00,0.1501
2901.00,0.1433
2900.00,0.1367
2899.00,0.1303
2898.00,0.1243
2897.00,0.1190
2896.00,0.1142
2895.00,0.1102
2894.00,0.1069
2893.00,0.1042
2892.00,0.1023
2891.00,0.1009
2890.00,0.1002
2889.00,0.0998
2888.00,0.0999
2887.00,0.1004
2886.00,0.1012
2885.00,0.1023
2884.00,0.1038
2883.00,0.1057
2882.00,0.1078
2881.00,0.1101
2880.00,0.1122
2879.00,0.1139
2878.00,0.1149
2877.00,0.1151
2876.00,0.1147
2875.00,0.1139
2874.00,0.1132
2873.00,0.1130
2872.00,0.1135
2871.00,0.1148
2870.00,0.1166
2869.00,0.1184
2868.00,0.1196
2867.00,0.1193
2866.00,0.1170
2865.00,0.1123
2864.00,0.1055
2863.00,0.0974
2862.00,0.0889
2861.00,0.0809
2860.00,0.0739
2859.00,0.0684
2858.00,0.0642
2857.00,0.0612
2856.00,0.0592
2855.00,0.0581
2854.00,0.0577
2853.00,0.0578
2852.00,0.0586
2851.00,0.0599
2850.00,0.0619
2849.00,0.0645
2848.00,0.0680
2847.00,0.0724
2846.00,0.0777
2845.00,0.0840
2844.00,0.0910
2843.00,0.0987
2842.00,0.1064
2841.00,0.1137
2840.00,0.1196
2839.00,0.1234
2838.00,0.1241
2837.00,0.1213
2836.00,0.1150
2835.00,0.1060
2834.00,0.0953
2833.00,0.0841
2832.00,0.0735
2831.00,0.0641
2830.00,0.0561
2829.00,0.0496
2828.00,0.0443
2827.00,0.0400
2826.00,0.0365
2825.00,0.0336
2824.00,0.0312
2823.00,0.0292
2822.00,0.0275
2821.00,0.0259
2820.00,0.0246
2819.00,0.0234
2818.00,0.0224
2817.00,0.0215
2816.00,0.0207
2815.00,0.0200
2814.00,0.0194
2813.00,0.0189
2812.00,0.0184
2811.00,0.0179
2810.00,0.0173
2809.00,0.0168
2808.00,0.0162
2807.00,0.0156
2806.00,0.0150
2805.00,0.0143
2804.00,0.0137
2803.00,0.0131
2802.00,0.0126
2801.00,0.0122
2800.00,0.0119
2799.00,0.0116
2798.00,0.0113
2797.00,0.0111
2796.00,0.0108
2795.00,0.0106
2794.00,0.0103
2793.00,0.0100
2792.00,0.0097
2791.00,0.0093
2790.00,0.0090
2789.00,0.0087
2788.00,0.0083
2787.00,0.0080
2786.00,0.0077
2785.00,0.0075
2784.00,0.0072
2783.00,0.0070
2782.00,0.0068
2781.00,0.0066
2780.00,0.0064
2779.00,0.0062
2778.00,0.0061
2777.00,0.0059
2776.00,0.0058
2775.00,0.0057
2774.00,0.0056
2773.00,0.0055
2772.00,0.0054
2771.00,0.0053
2770.00,0.0053
2769.00,0.0053
2768.00,0.0053
2767.00,0.0053
2766.00,0.0053
2765.00,0.0052
2764.00,0.0051
2763.00,0.0051
2762.00,0.0050
2761.00,0.0050
2760.00,0.0050
2759.00,0.0049
2758.00,0.0049
2757.00,0.0049
2756.00,0.0049
2755.00,0.0049
2754.00,0.0049
2753.00,0.0049
2752.00,0.0049
2751.00,0.0048
2750.00,0.0048
2749.00,0.0048
2748.00,0.0048
2747.00,0.0049
2746.00,0.0049
2745.00,0.0050
2744.00,0.0051
2743.00,0.0052
2742.00,0.0053
2741.00,0.0054
2740.00,0.0056
2739.00,0.0057
2738.00,0.0058
2737.00,0.0060
2736.00,0.0061
2735.00,0.0062
2734.00,0.0063
2733.00,0.0065
2732.00,0.0067
2731.00,0.0068
2730.00,0.0070
2729.00,0.0072
2728.00,0.0075
2727.00,0.0077
2726.00,0.0080
2725.00,0.0083
2724.00,0.0084
2723.00,0.0085
2722.00,0.0084
2721.00,0.0082
2720.00,0.0079
2719.00,0.0076
2718.00,0.0073
2717.00,0.0070
2716.00,0.0067
2715.00,0.0065
2714.00,0.0062
2713.00,0.0060
2712.00,0.0058
2711.00,0.0056
2710.00,0.0054
2709.00,0.0053
2708.00,0.0051
2707.00,0.0050
2706.00,0.0049
2705.00,0.0049
2704.00,0.0048
2703.00,0.0047
2702.00,0.0046
2701.00,0.0045
2700.00,0.0044
2699.00,0.0043
2698.00,0.0043
2697.00,0.0042
2696.00,0.0042
2695.00,0.0042
2694.00,0.0042
2693.00,0.0042
2692.00,0.0042
2691.00,0.0043
2690.00,0.0043
2689.00,0.0043
2688.00,0.0043
2687.00,0.0043
2686.00,0.0043
2685.00,0.0043
2684.00,0.0043
2683.00,0.0043
2682.00,0.0043
2681.00,0.0043
2680.00,0.0043
2679.00,0.0043
2678.00,0.0043
2677.00,0.0043
2676.00,0.0044
2675.00,0.0043
2674.00,0.0043
2673.00,0.0043
2672.00,0.0042
2671.00,0.0042
2670.00,0.0042
2669.00,0.0042
2668.00,0.0042
2667.00,0.0042
2666.00,0.0042
2665.00,0.0042
2664.00,0.0043
2663.00,0.0044
2662.00,0.0045
2661.00,0.0045
2660.00,0.0045
2659.00,0.0045
2658.00,0.0045
2657.00,0.0045
2656.00,0.0044
2655.00,0.0044
2654.00,0.0043
2653.00,0.0042
2652.00,0.0042
2651.00,0.0041
2650.00,0.0041
2649.00,0.0040
2648.00,0.0040
2647.00,0.0040
2646.00,0.0040
2645.00,0.0039
2644.00,0.0039
2643.00,0.0038
2642.00,0.0037
2641.00,0.0036
2640.00,0.0035
2639.00,0.0035
2638.00,0.0035
2637.00,0.0035
2636.00,0.0035
2635.00,0.0036
2634.00,0.0036
2633.00,0.0036
2632.00,0.0036
2631.00,0.0036
2630.00,0.0036
2629.00,0.0037
2628.00,0.0037
2627.00,0.0037
2626.00,0.0038
2625.00,0.0038
2624.00,0.0038
2623.00,0.0038
2622.00,0.0038
2621.00,0.0038
2620.00,0.0038
2619.00,0.0038
2618.00,0.0038
2617.00,0.0038
2616.00,0.0038
2615.00,0.0038
2614.00,0.0037
2613.00,0.0037
2612.00,0.0036
2611.00,0.0036
2610.00,0.0036
2609.00,0.0035
2608.00,0.0034
2607.00,0.0033
2606.00,0.0032
2605.00,0.0032
2604.00,0.0031
2603.00,0.0030
2602.00,0.0030
2601.00,0.0029
2600.00,0.0028
2599.00,0.0028
2598.00,0.0028
2597.00,0.0028
2596.00,0.0029
2595.00,0.0029
2594.00,0.0030
2593.00,0.0030
2592.00,0.0030
2591.00,0.0030
2590.00,0.0031
2589.00,0.0032
2588.00,0.0033
2587.00,0.0034
2586.00,0.0035
2585.00,0.0036
2584.00,0.0037
2583.00,0.0037
2582.00,0.0037
2581.00,0.0037
2580.00,0.0036
2579.00,0.0035
2578.00,0.0035
2577.00,0.0034
2576.00,0.0033
2575.00,0.0031
2574.00,0.0029
2573.00,0.0028
2572.00,0.0027
2571.00,0.0026
2570.00,0.0026
2569.00,0.0025
2568.00,0.0024
2567.00,0.0024
2566.00,0.0023
2565.00,0.0023
2564.00,0.0023
2563.00,0.0023
2562.00,0.0022
2561.00,0.0022
2560.00,0.0022
2559.00,0.0022
2558.00,0.0022
2557.00,0.0022
2556.00,0.0021
2555.00,0.0020
2554.00,0.0019
2553.00,0.0019
2552.00,0.0018
2551.00,0.0018
2550.00,0.0018
2549.00,0.0017
2548.00,0.0017
2547.00,0.0017
2546.00,0.0017
2545.00,0.0016
2544.00,0.0016
2543.00,0.0016
2542.00,0.0016
2541.00,0.0016
2540.00,0.0016
2539.00,0.0016
2538.00,0.0016
2537.00,0.0016
2536.00,0.0015
2535.00,0.0015
2534.00,0.0014
2533.00,0.0014
2532.00,0.0013
2531.00,0.0013
2530.00,0.0012
2529.00,0.0012
2528.00,0.0012
2527.00,0.0013
2526.00,0.0013
2525.00,0.0012
2524.00,0.0011
2523.00,0.0011
2522.00,0.0010
2521.00,0.0009
2520.00,0.0009
2519.00,0.0009
2518.00,0.0009
2517.00,0.0009
2516.00,0.0009
2515.00,0.0009
2514.00,0.0009
2513.00,0.0009
2512.00,0.0009
2511.00,0.0009
2510.00,0.0009
2509.00,0.0008
2508.00,0.0008
2507.00,0.0007
2506.00,0.0007
2505.00,0.0007
2504.00,0.0008
2503.00,0.0008
2502.00,0.0008
2501.00,0.0008
2500.00,0.0009
2499.00,0.0009
2498.00,0.0008
2497.00,0.0008
2496.00,0.0008
2495.00,0.0009
2494.00,0.0009
2493.00,0.0009
2492.00,0.0009
2491.00,0.0009
2490.00,0.0009
2489.00,0.0009
2488.00,0.0009
2487.00,0.0009
2486.00,0.0009
2485.00,0.0009
2484.00,0.0008
2483.00,0.0007
2482.00,0.0007
2481.00,0.0007
2480.00,0.0007
2479.00,0.0007
2478.00,0.0007
2477.00,0.0007
2476.00,0.0007
2475.00,0.0007
2474.00,0.0007
2473.00,0.0007
2472.00,0.0007
2471.00,0.0007
2470.00,0.0006
2469.00,0.0006
2468.00,0.0006
2467.00,0.0006
2466.00,0.0006
2465.00,0.0007
2464.00,0.0007
2463.00,0.0007
2462.00,0.0007
2461.00,0.0008
2460.00,0.0008
2459.00,0.0008
2458.00,0.0008
2457.00,0.0008
2456.00,0.0008
2455.00,0.0008
2454.00,0.0008
2453.00,0.0008
2452.00,0.0008
2451.00,0.0008
2450.00,0.0009
2449.00,0.0009
2448.00,0.0009
2447.00,0.0008
2446.00,0.0008
2445.00,0.0009
2444.00,0.0009
2443.00,0.0009
2442.00,0.0010
2441.00,0.0010
2440.00,0.0010
2439.00,0.0010
2438.00,0.0010
2437.00,0.0010
2436.00,0.0010
2435.00,0.0009
2434.00,0.0009
2433.00,0.0010
2432.00,0.0010
2431.00,0.0011
2430.00,0.0011
2429.00,0.0011
2428.00,0.0010
2427.00,0.0010
2426.00,0.0010
2425.00,0.0009
2424.00,0.0008
2423.00,0.0008
2422.00,0.0009
2421.00,0.0009
2420.00,0.0010
2419.00,0.0010
2418.00,0.0009
2417.00,0.0009
2416.00,0.0008
2415.00,0.0008
2414.00,0.0008
2413.00,0.0007
2412.00,0.0008
2411.00,0.0008
2410.00,0.0008
2409.00,0.0008
2408.00,0.0008
2407.00,0.0007
2406.00,0.0007
2405.00,0.0007
2404.00,0.0007
2403.00,0.0007
2402.00,0.0008
2401.00,0.0008
2400.00,0.0008
2399.00,0.0008
2398.00,0.0008
2397.00,0.0007
2396.00,0.0007
2395.00,0.0006
2394.00,0.0006
2393.00,0.0006
2392.00,0.0007
2391.00,0.0007
2390.00,0.0007
2389.00,0.0008
2388.00,0.0007
2387.00,0.0007
2386.00,0.0006
2385.00,0.0005
2384.00,0.0004
2383.00,0.0004
2382.00,0.0003
2381.00,0.0002
2380.00,0.0001
2379.00,0.0000
2378.00,-0.0001
2377.00,-0.0001
2376.00,-0.0000
2375.00,0.0000
2374.00,0.0001
2373.00,0.0001
2372.00,0.0000
2371.00,-0.0000
2370.00,-0.0001
2369.00,-0.0001
2368.00,-0.0001
2367.00,-0.0001
2366.00,-0.0001
2365.00,-0.0001
2364.00,-0.0000
2363.00,0.0000
2362.00,0.0000
2361.00,0.0000
2360.00,0.0000
2359.00,0.0000
2358.00,0.0001
2357.00,0.0001
2356.00,0.0001
2355.00,0.0002
2354.00,0.0002
2353.00,0.0002
2352.00,0.0002
2351.00,0.0001
2350.00,0.0001
2349.00,0.0001
2348.00,0.0001
2347.00,0.0001
2346.00,0.0000
2345.00,0.0000
2344.00,0.0001
2343.00,0.0002
2342.00,0.0003
2341.00,0.0004
2340.00,0.0004
2339.00,0.0004
2338.00,0.0005
2337.00,0.0005
2336.00,0.0005
2335.00,0.0005
2334.00,0.0005
2333.00,0.0004
2332.00,0.0004
2331.00,0.0004
2330.00,0.0004
2329.00,0.0004
2328.00,0.0006
2327.00,0.0010
2326.00,0.0015
2325.00,0.0019
2324.00,0.0020
2323.00,0.0019
2322.00,0.0017
2321.00,0.0014
2320.00,0.0012
2319.00,0.0011
2318.00,0.0010
2317.00,0.0010
2316.00,0.0010
2315.00,0.0009
2314.00,0.0008
2313.00,0.0007
2312.00,0.0007
2311.00,0.0007
2310.00,0.0008
2309.00,0.0009
2308.00,0.0009
2307.00,0.0008
2306.00,0.0008
2305.00,0.0008
2304.00,0.0008
2303.00,0.0008
2302.00,0.0008
2301.00,0.0009
2300.00,0.0009
2299.00,0.0010
2298.00,0.0011
2297.00,0.0012
2296.00,0.0012
2295.00,0.0012
2294.00,0.0012
2293.00,0.0012
2292.00,0.0012
2291.00,0.0012
2290.00,0.0013
2289.00,0.0014
2288.00,0.0016
2287.00,0.0017
2286.00,0.0018
2285.00,0.0017
2284.00,0.0016
2283.00,0.0015
2282.00,0.0014
2281.00,0.0013
2280.00,0.0012
2279.00,0.0012
2278.00,0.0012
2277.00,0.0012
2276.00,0.0012
2275.00,0.0012
2274.00,0.0012
2273.00,0.0012
2272.00,0.0013
2271.00,0.0014
2270.00,0.0014
2269.00,0.0013
2268.00,0.0012
2267.00,0.0010
2266.00,0.0009
2265.00,0.0010
2264.00,0.0010
2263.00,0.0011
2262.00,0.0011
2261.00,0.0011
2260.00,0.0010
2259.00,0.0010
2258.00,0.0010
2257.00,0.0009
2256.00,0.0009
2255.00,0.0008
2254.00,0.0008
2253.00,0.0008
2252.00,0.0007
2251.00,0.0006
2250.00,0.0005
2249.00,0.0005
2248.00,0.0005
2247.00,0.0006
2246.00,0.0007
2245.00,0.0007
2244.00,0.0007
2243.00,0.0007
2242.00,0.0008
2241.00,0.0008
2240.00,0.0009
2239.00,0.0009
2238.00,0.0009
2237.00,0.0008
2236.00,0.0007
2235.00,0.0006
2234.00,0.0005
2233.00,0.0004
2232.00,0.0004
2231.00,0.0004
2230.00,0.0005
2229.00,0.0006
2228.00,0.0006
2227.00,0.0005
2226.00,0.0005
2225.00,0.0006
2224.00,0.0007
2223.00,0.0007
2222.00,0.0007
2221.00,0.0008
2220.00,0.0008
2219.00,0.0007
2218.00,0.0006
2217.00,0.0006
2216.00,0.0007
2215.00,0.0008
2214.00,0.0008
2213.00,0.0007
2212.00,0.0006
2211.00,0.0005
2210.00,0.0003
2209.00,0.0002
2208.00,0.0001
2207.00,0.0000
2206.00,0.0001
2205.00,0.0002
2204.00,0.0004
2203.00,0.0005
2202.00,0.0006
2201.00,0.0007
2200.00,0.0009
2199.00,0.0009
2198.00,0.0009
2197.00,0.0008
2196.00,0.0007
2195.00,0.0007
2194.00,0.0009
2193.00,0.0010
2192.00,0.0011
2191.00,0.0011
2190.00,0.0012
2189.00,0.0013
2188.00,0.0015
2187.00,0.0015
2186.00,0.0014
2185.00,0.0011
2184.00,0.0006
2183.00,0.0001
2182.00,-0.0004
2181.00,-0.0005
2180.00,-0.0004
2179.00,-0.0001
2178.00,0.0002
2177.00,0.0003
2176.00,0.0003
2175.00,0.0002
2174.00,0.0000
2173.00,-0.0000
2172.00,0.0000
2171.00,0.0002
2170.00,0.0006
2169.00,0.0011
2168.00,0.0015
2167.00,0.0017
2166.00,0.0017
2165.00,0.0018
2164.00,0.0021
2163.00,0.0023
2162.00,0.0021
2161.00,0.0014
2160.00,0.0000
2159.00,-0.0015
2158.00,-0.0027
2157.00,-0.0031
2156.00,-0.0030
2155.00,-0.0026
2154.00,-0.0023
2153.00,-0.0019
2152.00,-0.0015
2151.00,-0.0013
2150.00,-0.0013
2149.00,-0.0013
2148.00,-0.0014
2147.00,-0.0014
2146.00,-0.0016
2145.00,-0.0018
2144.00,-0.0020
2143.00,-0.0021
2142.00,-0.0020
2141.00,-0.0018
2140.00,-0.0016
2139.00,-0.0016
2138.00,-0.0015
2137.00,-0.0015
2136.00,-0.0016
2135.00,-0.0017
2134.00,-0.0019
2133.00,-0.0019
2132.00,-0.0017
2131.00,-0.0014
2130.00,-0.0011
2129.00,-0.0009
2128.00,-0.0008
2127.00,-0.0007
2126.00,-0.0006
2125.00,-0.0006
2124.00,-0.0006
2123.00,-0.0007
2122.00,-0.0008
2121.00,-0.0007
2120.00,-0.0006
2119.00,-0.0005
2118.00,-0.0003
2117.00,-0.0001
2116.00,0.0000
2115.00,0.0000
2114.00,-0.0000
2113.00,-0.0000
2112.00,0.0000
2111.00,0.0002
2110.00,0.0002
2109.00,0.0002
2108.00,0.0002
2107.00,0.0001
2106.00,0.0000
2105.00,0.0001
2104.00,0.0001
2103.00,0.0000
2102.00,-0.0001
2101.00,-0.0002
2100.00,-0.0003
2099.00,-0.0004
2098.00,-0.0003
2097.00,-0.0004
2096.00,-0.0005
2095.00,-0.0006
2094.00,-0.0007
2093.00,-0.0006
2092.00,-0.0005
2091.00,-0.0003
2090.00,-0.0002
2089.00,-0.0001
2088.00,-0.0000
2087.00,0.0000
2086.00,0.0001
2085.00,0.0001
2084.00,0.0002
2083.00,0.0002
2082.00,0.0002
2081.00,0.0002
2080.00,0.0002
2079.00,0.0003
2078.00,0.0003
2077.00,0.0002
2076.00,0.0001
2075.00,0.0000
2074.00,0.0002
2073.00,0.0004
2072.00,0.0006
2071.00,0.0006
2070.00,0.0005
2069.00,0.0004
2068.00,0.0003
2067.00,0.0000
2066.00,-0.0002
2065.00,-0.0003
2064.00,-0.0004
2063.00,-0.0004
2062.00,-0.0004
2061.00,-0.0003
2060.00,-0.0002
2059.00,-0.0001
2058.00,0.0001
2057.00,0.0001
2056.00,-0.0000
2055.00,-0.0002
2054.00,-0.0001
2053.00,0.0002
2052.00,0.0008
2051.00,0.0012
2050.00,0.0013
2049.00,0.0009
2048.00,0.0005
2047.00,0.0001
2046.00,-0.0002
2045.00,-0.0003
2044.00,-0.0002
2043.00,-0.0002
2042.00,-0.0002
2041.00,-0.0002
2040.00,-0.0003
2039.00,-0.0003
2038.00,-0.0002
2037.00,-0.0001
2036.00,-0.0001
2035.00,-0.0002
2034.00,-0.0003
2033.00,-0.0003
2032.00,-0.0003
2031.00,-0.0003
2030.00,-0.0004
2029.00,-0.0006
2028.00,-0.0007
2027.00,-0.0008
2026.00,-0.0009
2025.00,-0.0009
2024.00,-0.0009
2023.00,-0.0010
2022.00,-0.0012
2021.00,-0.0015
2020.00,-0.0017
2019.00,-0.0018
2018.00,-0.0019
2017.00,-0.0018
2016.00,-0.0016
2015.00,-0.0013
2014.00,-0.0013
2013.00,-0.0014
2012.00,-0.0015
2011.00,-0.0015
2010.00,-0.0014
2009.00,-0.0013
2008.00,-0.0013
2007.00,-0.0014
2006.00,-0.0016
2005.00,-0.0017
2004.00,-0.0017
2003.00,-0.0018
2002.00,-0.0019
2001.00,-0.0018
2000.00,-0.0017
1999.00,-0.0014
1998.00,-0.0013
1997.00,-0.0011
1996.00,-0.0010
1995.00,-0.0009
1994.00,-0.0007
1993.00,-0.0006
1992.00,-0.0005
1991.00,-0.0006
1990.00,-0.0007
1989.00,-0.0006
1988.00,-0.0004
1987.00,-0.0002
1986.00,-0.0000
1985.00,0.0001
1984.00,0.0002
1983.00,0.0004
1982.00,0.0008
1981.00,0.0012
1980.00,0.0012
1979.00,0.0008
1978.00,-0.0001
1977.00,-0.0010
1976.00,-0.0016
1975.00,-0.0018
1974.00,-0.0018
1973.00,-0.0016
1972.00,-0.0014
1971.00,-0.0012
1970.00,-0.0009
1969.00,-0.0007
1968.00,-0.0005
1967.00,-0.0005
1966.00,-0.0006
1965.00,-0.0009
1964.00,-0.0011
1963.00,-0.0013
1962.00,-0.0015
1961.00,-0.0016
1960.00,-0.0018
1959.00,-0.0020
1958.00,-0.0020
1957.00,-0.0019
1956.00,-0.0017
1955.00,-0.0016
1954.00,-0.0016
1953.00,-0.0015
1952.00,-0.0014
1951.00,-0.0014
1950.00,-0.0014
1949.00,-0.0016
1948.00,-0.0018
1947.00,-0.0019
1946.00,-0.0019
1945.00,-0.0018
1944.00,-0.0018
1943.00,-0.0017
1942.00,-0.0016
1941.00,-0.0015
1940.00,-0.0014
1939.00,-0.0014
1938.00,-0.0013
1937.00,-0.0012
1936.00,-0.0011
1935.00,-0.0009
1934.00,-0.0008
1933.00,-0.0008
1932.00,-0.0009
1931.00,-0.0010
1930.00,-0.0010
1929.00,-0.0011
1928.00,-0.0011
1927.00,-0.0010
1926.00,-0.0010
1925.00,-0.0010
1924.00,-0.0009
1923.00,-0.0008
1922.00,-0.0006
1921.00,-0.0003
1920.00,-0.0001
1919.00,-0.0001
1918.00,-0.0001
1917.00,-0.0002
1916.00,-0.0002
1915.00,-0.0004
1914.00,-0.0005
1913.00,-0.0006
1912.00,-0.0005
1911.00,-0.0004
1910.00,-0.0003
1909.00,-0.0003
1908.00,-0.0004
1907.00,-0.0005
1906.00,-0.0005
1905.00,-0.0005
1904.00,-0.0004
1903.00,-0.0004
1902.00,-0.0004
1901.00,-0.0003
1900.00,-0.0002
1899.00,-0.0002
1898.00,-0.0001
1897.00,-0.0000
1896.00,0.0000
1895.00,-0.0000
1894.00,-0.0001
1893.00,-0.0001
1892.00,-0.0001
1891.00,-0.0001
1890.00,-0.0001
1889.00,-0.0001
1888.00,-0.0000
1887.00,0.0000
1886.00,0.0000
1885.00,-0.0000
1884.00,-0.0002
1883.00,-0.0003
1882.00,-0.0004
1881.00,-0.0004
1880.00,-0.0004
1879.00,-0.0003
1878.00,-0.0002
1877.00,-0.0002
1876.00,-0.0001
1875.00,-0.0001
1874.00,-0.0001
1873.00,-0.0001
1872.00,-0.0001
1871.00,-0.0001
1870.00,-0.0001
1869.00,-0.0001
1868.00,-0.0001
1867.00,-0.0001
1866.00,-0.0000
1865.00,0.0000
1864.00,0.0000
1863.00,0.0000
1862.00,0.0000
1861.00,0.0000
1860.00,0.0001
1859.00,0.0001
1858.00,0.0001
1857.00,0.0001
1856.00,-0.0000
1855.00,-0.0001
1854.00,-0.0001
1853.00,-0.0001
1852.00,-0.0001
1851.00,-0.0000
1850.00,0.0001
1849.00,0.0001
1848.00,0.0002
1847.00,0.0002
1846.00,0.0002
1845.00,0.0002
1844.00,0.0001
1843.00,0.0001
1842.00,0.0001
1841.00,0.0001
1840.00,0.0002
1839.00,0.0002
1838.00,0.0003
1837.00,0.0003
1836.00,0.0003
1835.00,0.0003
1834.00,0.0002
1833.00,0.0002
1832.00,0.0002
1831.00,0.0002
1830.00,0.0002
1829.00,0.0002
1828.00,0.0002
1827.00,0.0002
1826.00,0.0001
1825.00,0.0001
1824.00,0.0002
1823.00,0.0002
1822.00,0.0003
1821.00,0.0002
1820.00,0.0002
1819.00,0.0001
1818.00,-0.0000
1817.00,-0.0000
1816.00,0.0000
1815.00,0.0001
1814.00,0.0002
1813.00,0.0003
1812.00,0.0003
1811.00,0.0003
1810.00,0.0003
1809.00,0.0003
1808.00,0.0004
1807.00,0.0004
1806.00,0.0004
1805.00,0.0004
1804.00,0.0004
1803.00,0.0004
1802.00,0.0004
1801.00,0.0004
1800.00,0.0005
1799.00,0.0005
1798.00,0.0005
1797.00,0.0005
1796.00,0.0005
1795.00,0.0005
1794.00,0.0005
1793.00,0.0005
1792.00,0.0006
1791.00,0.0006
1790.00,0.0007
1789.00,0.0007
1788.00,0.0007
1787.00,0.0007
1786.00,0.0007
1785.00,0.0007
1784.00,0.0007
1783.00,0.0008
1782.00,0.0008
1781.00,0.0008
1780.00,0.0008
1779.00,0.0008
1778.00,0.0008
1777.00,0.0008
1776.00,0.0008
1775.00,0.0008
1774.00,0.0008
1773.00,0.0008
1772.00,0.0008
1771.00,0.0009
1770.00,0.0010
1769.00,0.0011
1768.00,0.0011
1767.00,0.0011
1766.00,0.0010
1765.00,0.0010
1764.00,0.0010
1763.00,0.0010
1762.00,0.0011
1761.00,0.0011
1760.00,0.0012
1759.00,0.0012
1758.00,0.0011
1757.00,0.0012
1756.00,0.0012
1755.00,0.0013
1754.00,0.0013
1753.00,0.0014
1752.00,0.0014
1751.00,0.0014
1750.00,0.0013
1749.00,0.0014
1748.00,0.0014
1747.00,0.0014
1746.00,0.0015
1745.00,0.0015
1744.00,0.0015
1743.00,0.0015
1742.00,0.0014
1741.00,0.0013
1740.00,0.0013
1739.00,0.0013
1738.00,0.0012
1737.00,0.0012
1736.00,0.0011
1735.00,0.0010
1734.00,0.0009
1733.00,0.0010
1732.00,0.0010
1731.00,0.0010
1730.00,0.0010
1729.00,0.0010
1728.00,0.0010
1727.00,0.0010
1726.00,0.0011
1725.00,0.0012
1724.00,0.0013
1723.00,0.0014
1722.00,0.0014
1721.00,0.0015
1720.00,0.0015
1719.00,0.0016
1718.00,0.0017
1717.00,0.0019
1716.00,0.0020
1715.00,0.0021
1714.00,0.0021
1713.00,0.0022
1712.00,0.0022
1711.00,0.0023
1710.00,0.0024
1709.00,0.0024
1708.00,0.0024
1707.00,0.0025
1706.00,0.0025
1705.00,0.0025
1704.00,0.0026
1703.00,0.0026
1702.00,0.0026
1701.00,0.0027
1700.00,0.0027
1699.00,0.0027
1698.00,0.0028
1697.00,0.0028
1696.00,0.0030
1695.00,0.0032
1694.00,0.0033
1693.00,0.0033
1692.00,0.0033
1691.00,0.0034
1690.00,0.0034
1689.00,0.0036
1688.00,0.0037
1687.00,0.0038
1686.00,0.0038
1685.00,0.0039
1684.00,0.0041
1683.00,0.0043
1682.00,0.0044
1681.00,0.0045
1680.00,0.0046
1679.00,0.0047
1678.00,0.0047
1677.00,0.0048
1676.00,0.0049
1675.00,0.0049
1674.00,0.0050
1673.00,0.0050
1672.00,0.0051
1671.00,0.0052
1670.00,0.0053
1669.00,0.0054
1668.00,0.0056
1667.00,0.0056
1666.00,0.0057
1665.00,0.0057
1664.00,0.0058
1663.00,0.0059
1662.00,0.0060
1661.00,0.0061
1660.00,0.0062
1659.00,0.0063
1658.00,0.0063
1657.00,0.0064
1656.00,0.0065
1655.00,0.0066
1654.00,0.0067
1653.00,0.0069
1652.00,0.0071
1651.00,0.0073
1650.00,0.0073
1649.00,0.0074
1648.00,0.0075
1647.00,0.0077
1646.00,0.0077
1645.00,0.0077
1644.00,0.0077
1643.00,0.0077
1642.00,0.0077
1641.00,0.0077
1640.00,0.0078
1639.00,0.0078
1638.00,0.0077
1637.00,0.0077
1636.00,0.0078
1635.00,0.0079
1634.00,0.0079
1633.00,0.0079
1632.00,0.0079
1631.00,0.0079
1630.00,0.0078
1629.00,0.0078
1628.00,0.0077
1627.00,0.0076
1626.00,0.0075
1625.00,0.0074
1624.00,0.0074
1623.00,0.0074
1622.00,0.0074
1621.00,0.0074
1620.00,0.0073
1619.00,0.0073
1618.00,0.0072
1617.00,0.0072
1616.00,0.0073
1615.00,0.0073
1614.00,0.0072
1613.00,0.0072
1612.00,0.0072
1611.00,0.0073
1610.00,0.0073
1609.00,0.0072
1608.00,0.0072
1607.00,0.0072
1606.00,0.0072
1605.00,0.0072
1604.00,0.0072
1603.00,0.0072
1602.00,0.0072
1601.00,0.0071
1600.00,0.0071
1599.00,0.0071
1598.00,0.0071
1597.00,0.0071
1596.00,0.0071
1595.00,0.0071
1594.00,0.0071
1593.00,0.0071
1592.00,0.0071
1591.00,0.0072
1590.00,0.0072
1589.00,0.0073
1588.00,0.0074
1587.00,0.0075
1586.00,0.0076
1585.00,0.0078
1584.00,0.0081
1583.00,0.0083
1582.00,0.0085
1581.00,0.0088
1580.00,0.0091
1579.00,0.0093
1578.00,0.0095
1577.00,0.0095
1576.00,0.0095
1575.00,0.0094
1574.00,0.0092
1573.00,0.0090
1572.00,0.0088
1571.00,0.0086
1570.00,0.0084
1569.00,0.0082
1568.00,0.0081
1567.00,0.0080
1566.00,0.0080
1565.00,0.0079
1564.00,0.0079
1563.00,0.0079
1562.00,0.0079
1561.00,0.0079
1560.00,0.0080
1559.00,0.0080
1558.00,0.0081
1557.00,0.0082
1556.00,0.0083
1555.00,0.0083
1554.00,0.0084
1553.00,0.0085
1552.00,0.0086
1551.00,0.0088
1550.00,0.0090
1549.00,0.0092
1548.00,0.0093
1547.00,0.0095
1546.00,0.0098
1545.00,0.0102
1544.00,0.0106
1543.00,0.0109
1542.00,0.0110
1541.00,0.0110
1540.00,0.0109
1539.00,0.0106
1538.00,0.0103
1537.00,0.0099
1536.00,0.0096
1535.00,0.0091
1534.00,0.0086
1533.00,0.0081
1532.00,0.0078
1531.00,0.0076
1530.00,0.0074
1529.00,0.0072
1528.00,0.0070
1527.00,0.0068
1526.00,0.0066
1525.00,0.0065
1524.00,0.0065
1523.00,0.0065
1522.00,0.0064
1521.00,0.0064
1520.00,0.0064
1519.00,0.0064
1518.00,0.0063
1517.00,0.0063
1516.00,0.0063
1515.00,0.0062
1514.00,0.0061
1513.00,0.0062
1512.00,0.0062
1511.00,0.0062
1510.00,0.0062
1509.00,0.0063
1508.00,0.0064
1507.00,0.0064
1506.00,0.0064
1505.00,0.0066
1504.00,0.0067
1503.00,0.0069
1502.00,0.0070
1501.00,0.0072
1500.00,0.0075
1499.00,0.0077
1498.00,0.0081
1497.00,0.0085
1496.00,0.0091
1495.00,0.0094
1494.00,0.0097
1493.00,0.0099
1492.00,0.0102
1491.00,0.0105
1490.00,0.0109
1489.00,0.0114
1488.00,0.0120
1487.00,0.0125
1486.00,0.0130
1485.00,0.0136
1484.00,0.0144
1483.00,0.0152
1482.00,0.0162
1481.00,0.0174
1480.00,0.0187
1479.00,0.0200
1478.00,0.0214
1477.00,0.0233
1476.00,0.0255
1475.00,0.0279
1474.00,0.0312
1473.00,0.0361
1472.00,0.0422
1471.00,0.0483
1470.00,0.0541
1469.00,0.0603
1468.00,0.0669
1467.00,0.0742
1466.00,0.0825
1465.00,0.0916
1464.00,0.0998
1463.00,0.1058
1462.00,0.1101
1461.00,0.1133
1460.00,0.1159
1459.00,0.1179
1458.00,0.1200
1457.00,0.1221
1456.00,0.1234
1455.00,0.1238
1454.00,0.1237
1453.00,0.1230
1452.00,0.1213
1451.00,0.1182
1450.00,0.1133
1449.00,0.1060
1448.00,0.0964
1447.00,0.0861
1446.00,0.0766
1445.00,0.0685
1444.00,0.0614
1443.00,0.0557
1442.00,0.0514
1441.00,0.0484
1440.00,0.0466
1439.00,0.0457
1438.00,0.0454
1437.00,0.0451
1436.00,0.0438
1435.00,0.0410
1434.00,0.0371
1433.00,0.0326
1432.00,0.0279
1431.00,0.0239
1430.00,0.0207
1429.00,0.0185
1428.00,0.0170
1427.00,0.0161
1426.00,0.0156
1425.00,0.0151
1424.00,0.0147
1423.00,0.0144
1422.00,0.0142
1421.00,0.0140
1420.00,0.0137
1419.00,0.0135
1418.00,0.0133
1417.00,0.0131
1416.00,0.0128
1415.00,0.0127
1414.00,0.0125
1413.00,0.0123
1412.00,0.0121
1411.00,0.0119
1410.00,0.0119
1409.00,0.0118
1408.00,0.0118
1407.00,0.0118
1406.00,0.0119
1405.00,0.0119
1404.00,0.0118
1403.00,0.0119
1402.00,0.0121
1401.00,0.0122
1400.00,0.0123
1399.00,0.0125
1398.00,0.0127
1397.00,0.0129
1396.00,0.0131
1395.00,0.0135
1394.00,0.0140
1393.00,0.0145
1392.00,0.0151
1391.00,0.0160
1390.00,0.0172
1389.00,0.0189
1388.00,0.0215
1387.00,0.0253
1386.00,0.0304
1385.00,0.0367
1384.00,0.0450
1383.00,0.0560
1382.00,0.0703
1381.00,0.0881
1380.00,0.1098
1379.00,0.1342
1378.00,0.1580
1377.00,0.1758
1376.00,0.1825
1375.00,0.1749
1374.00,0.1547
1373.00,0.1294
1372.00,0.1055
1371.00,0.0854
1370.00,0.0691
1369.00,0.0565
1368.00,0.0478
1367.00,0.0423
1366.00,0.0393
1365.00,0.0381
1364.00,0.0383
1363.00,0.0396
1362.00,0.0417
1361.00,0.0439
1360.00,0.0455
1359.00,0.0460
1358.00,0.0449
1357.00,0.0423
1356.00,0.0386
1355.00,0.0344
1354.00,0.0304
1353.00,0.0268
1352.00,0.0240
1351.00,0.0217
1350.00,0.0199
1349.00,0.0185
1348.00,0.0173
1347.00,0.0164
1346.00,0.0157
1345.00,0.0151
1344.00,0.0147
1343.00,0.0144
1342.00,0.0140
1341.00,0.0137
1340.00,0.0134
1339.00,0.0131
1338.00,0.0129
1337.00,0.0128
1336.00,0.0128
1335.00,0.0130
1334.00,0.0134
1333.00,0.0138
1332.00,0.0142
1331.00,0.0146
1330.00,0.0147
1329.00,0.0146
1328.00,0.0142
1327.00,0.0137
1326.00,0.0131
1325.00,0.0125
1324.00,0.0118
1323.00,0.0112
1322.00,0.0108
1321.00,0.0104
1320.00,0.0102
1319.00,0.0099
1318.00,0.0097
1317.00,0.0095
1316.00,0.0093
1315.00,0.0093
1314.00,0.0092
1313.00,0.0093
1312.00,0.0095
1311.00,0.0098
1310.00,0.0103
1309.00,0.0111
1308.00,0.0123
1307.00,0.0137
1306.00,0.0151
1305.00,0.0161
1304.00,0.0163
1303.00,0.0159
1302.00,0.0151
1301.00,0.0143
1300.00,0.0137
1299.00,0.0133
1298.00,0.0132
1297.00,0.0131
1296.00,0.0129
1295.00,0.0126
1294.00,0.0121
1293.00,0.0115
1292.00,0.0109
1291.00,0.0102
1290.00,0.0096
1289.00,0.0092
1288.00,0.0089
1287.00,0.0086
1286.00,0.0084
1285.00,0.0083
1284.00,0.0081
1283.00,0.0080
1282.00,0.0078
1281.00,0.0077
1280.00,0.0076
1279.00,0.0074
1278.00,0.0073
1277.00,0.0073
1276.00,0.0072
1275.00,0.0072
1274.00,0.0072
1273.00,0.0072
1272.00,0.0073
1271.00,0.0074
1270.00,0.0075
1269.00,0.0076
1268.00,0.0078
1267.00,0.0081
1266.00,0.0085
1265.00,0.0088
1264.00,0.0092
1263.00,0.0096
1262.00,0.0101
1261.00,0.0107
1260.00,0.0114
1259.00,0.0124
1258.00,0.0133
1257.00,0.0140
1256.00,0.0144
1255.00,0.0142
1254.00,0.0136
1253.00,0.0126
1252.00,0.0116
1251.00,0.0107
1250.00,0.0101
1249.00,0.0097
1248.00,0.0094
1247.00,0.0093
1246.00,0.0092
1245.00,0.0091
1244.00,0.0091
1243.00,0.0091
1242.00,0.0090
1241.00,0.0089
1240.00,0.0088
1239.00,0.0087
1238.00,0.0086
1237.00,0.0085
1236.00,0.0085
1235.00,0.0084
1234.00,0.0084
1233.00,0.0084
1232.00,0.0084
1231.00,0.0085
1230.00,0.0084
1229.00,0.0085
1228.00,0.0086
1227.00,0.0088
1226.00,0.0090
1225.00,0.0093
1224.00,0.0096
1223.00,0.0100
1222.00,0.0103
1221.00,0.0105
1220.00,0.0107
1219.00,0.0108
1218.00,0.0108
1217.00,0.0107
1216.00,0.0105
1215.00,0.0101
1214.00,0.0098
1213.00,0.0094
1212.00,0.0091
1211.00,0.0089
1210.00,0.0087
1209.00,0.0084
1208.00,0.0083
1207.00,0.0082
1206.00,0.0081
1205.00,0.0081
1204.00,0.0081
1203.00,0.0082
1202.00,0.0082
1201.00,0.0082
1200.00,0.0082
1199.00,0.0083
1198.00,0.0083
1197.00,0.0083
1196.00,0.0083
1195.00,0.0082
1194.00,0.0082
1193.00,0.0082
1192.00,0.0082
1191.00,0.0082
1190.00,0.0082
1189.00,0.0082
1188.00,0.0082
1187.00,0.0083
1186.00,0.0085
1185.00,0.0087
1184.00,0.0088
1183.00,0.0090
1182.00,0.0093
1181.00,0.0096
1180.00,0.0099
1179.00,0.0105
1178.00,0.0112
1177.00,0.0122
1176.00,0.0136
1175.00,0.0154
1174.00,0.0179
1173.00,0.0210
1172.00,0.0248
1171.00,0.0290
1170.00,0.0331
1169.00,0.0365
1168.00,0.0388
1167.00,0.0395
1166.00,0.0387
1165.00,0.0369
1164.00,0.0345
1163.00,0.0320
1162.00,0.0296
1161.00,0.0276
1160.00,0.0259
1159.00,0.0247
1158.00,0.0237
1157.00,0.0229
1156.00,0.0224
1155.00,0.0219
1154.00,0.0215
1153.00,0.0210
1152.00,0.0205
1151.00,0.0199
1150.00,0.0191
1149.00,0.0181
1148.00,0.0171
1147.00,0.0161
1146.00,0.0151
1145.00,0.0142
1144.00,0.0134
1143.00,0.0127
1142.00,0.0120
1141.00,0.0114
1140.00,0.0109
1139.00,0.0104
1138.00,0.0100
1137.00,0.0097
1136.00,0.0094
1135.00,0.0092
1134.00,0.0091
1133.00,0.0089
1132.00,0.0088
1131.00,0.0088
1130.00,0.0088
1129.00,0.0089
1128.00,0.0090
1127.00,0.0092
1126.00,0.0093
1125.00,0.0094
1124.00,0.0094
1123.00,0.0094
1122.00,0.0094
1121.00,0.0095
1120.00,0.0097
1119.00,0.0099
1118.00,0.0101
1117.00,0.0103
1116.00,0.0105
1115.00,0.0107
1114.00,0.0109
1113.00,0.0111
1112.00,0.0113
1111.00,0.0115
1110.00,0.0118
1109.00,0.0121
1108.00,0.0126
1107.00,0.0132
1106.00,0.0140
1105.00,0.0147
1104.00,0.0152
1103.00,0.0155
1102.00,0.0155
1101.00,0.0152
1100.00,0.0147
1099.00,0.0140
1098.00,0.0134
1097.00,0.0128
1096.00,0.0123
1095.00,0.0118
1094.00,0.0115
1093.00,0.0112
1092.00,0.0109
1091.00,0.0107
1090.00,0.0104
1089.00,0.0102
1088.00,0.0101
1087.00,0.0100
1086.00,0.0099
1085.00,0.0097
1084.00,0.0095
1083.00,0.0094
1082.00,0.0093
1081.00,0.0092
1080.00,0.0092
1079.00,0.0090
1078.00,0.0088
1077.00,0.0086
1076.00,0.0083
1075.00,0.0081
1074.00,0.0081
1073.00,0.0081
1072.00,0.0081
1071.00,0.0082
1070.00,0.0082
1069.00,0.0082
1068.00,0.0083
1067.00,0.0083
1066.00,0.0084
1065.00,0.0085
1064.00,0.0086
1063.00,0.0087
1062.00,0.0088
1061.00,0.0089
1060.00,0.0089
1059.00,0.0089
1058.00,0.0090
1057.00,0.0090
1056.00,0.0090
1055.00,0.0090
1054.00,0.0090
1053.00,0.0092
1052.00,0.0094
1051.00,0.0096
1050.00,0.0098
1049.00,0.0100
1048.00,0.0104
1047.00,0.0109
1046.00,0.0113
1045.00,0.0116
1044.00,0.0116
1043.00,0.0114
1042.00,0.0112
1041.00,0.0109
1040.00,0.0106
1039.00,0.0105
1038.00,0.0105
1037.00,0.0105
1036.00,0.0106
1035.00,0.0106
1034.00,0.0106
1033.00,0.0105
1032.00,0.0104
1031.00,0.0103
1030.00,0.0102
1029.00,0.0101
1028.00,0.0100
1027.00,0.0099
1026.00,0.0099
1025.00,0.0099
1024.00,0.0098
1023.00,0.0098
1022.00,0.0099
1021.00,0.0099
1020.00,0.0100
1019.00,0.0102
1018.00,0.0104
1017.00,0.0106
1016.00,0.0109
1015.00,0.0112
1014.00,0.0116
1013.00,0.0120
1012.00,0.0124
1011.00,0.0129
1010.00,0.0134
1009.00,0.0139
1008.00,0.0145
1007.00,0.0153
1006.00,0.0163
1005.00,0.0178
1004.00,0.0198
1003.00,0.0224
1002.00,0.0259
1001.00,0.0303
1000.00,0.0352
999.00,0.0396
998.00,0.0420
997.00,0.0417
996.00,0.0386
995.00,0.0338
994.00,0.0285
993.00,0.0239
992.00,0.0202
991.00,0.0175
990.00,0.0156
989.00,0.0142
988.00,0.0134
987.00,0.0129
986.00,0.0128
985.00,0.0130
984.00,0.0135
983.00,0.0143
982.00,0.0156
981.00,0.0174
980.00,0.0198
979.00,0.0231
978.00,0.0273
977.00,0.0323
976.00,0.0379
975.00,0.0434
974.00,0.0479
973.00,0.0501
972.00,0.0492
971.00,0.0452
970.00,0.0392
969.00,0.0326
968.00,0.0266
967.00,0.0220
966.00,0.0186
965.00,0.0161
964.00,0.0144
963.00,0.0130
962.00,0.0120
961.00,0.0111
960.00,0.0105
959.00,0.0101
958.00,0.0097
957.00,0.0094
956.00,0.0091
955.00,0.0088
954.00,0.0086
953.00,0.0084
952.00,0.0083
951.00,0.0081
950.00,0.0080
949.00,0.0080
948.00,0.0082
947.00,0.0085
946.00,0.0087
945.00,0.0089
944.00,0.0091
943.00,0.0094
942.00,0.0097
941.00,0.0098
940.00,0.0098
939.00,0.0095
938.00,0.0090
937.00,0.0085
936.00,0.0081
935.00,0.0078
934.00,0.0076
933.00,0.0074
932.00,0.0071
931.00,0.0069
930.00,0.0067
929.00,0.0066
928.00,0.0066
927.00,0.0066
926.00,0.0067
925.00,0.0067
924.00,0.0067
923.00,0.0067
922.00,0.0068
921.00,0.0069
920.00,0.0071
919.00,0.0072
918.00,0.0074
917.00,0.0075
916.00,0.0075
915.00,0.0075
914.00,0.0076
913.00,0.0076
912.00,0.0077
911.00,0.0078
910.00,0.0079
909.00,0.0080
908.00,0.0081
907.00,0.0084
906.00,0.0091
905.00,0.0100
904.00,0.0114
903.00,0.0132
902.00,0.0152
901.00,0.0170
900.00,0.0183
899.00,0.0186
898.00,0.0180
897.00,0.0166
896.00,0.0148
895.00,0.0131
894.00,0.0117
893.00,0.0105
892.00,0.0097
891.00,0.0092
890.00,0.0088
889.00,0.0085
888.00,0.0082
887.00,0.0079
886.00,0.0077
885.00,0.0076
884.00,0.0075
883.00,0.0076
882.00,0.0076
881.00,0.0076
880.00,0.0077
879.00,0.0077
878.00,0.0076
877.00,0.0076
876.00,0.0076
875.00,0.0076
874.00,0.0076
873.00,0.0076
872.00,0.0076
871.00,0.0077
870.00,0.0078
869.00,0.0078
868.00,0.0078
867.00,0.0078
866.00,0.0080
865.00,0.0081
864.00,0.0083
863.00,0.0084
862.00,0.0085
861.00,0.0087
860.00,0.0088
859.00,0.0090
858.00,0.0092
857.00,0.0093
856.00,0.0095
855.00,0.0098
854.00,0.0101
853.00,0.0105
852.00,0.0108
851.00,0.0113
850.00,0.0119
849.00,0.0128
848.00,0.0141
847.00,0.0159
846.00,0.0186
845.00,0.0228
844.00,0.0285
843.00,0.0351
842.00,0.0404
841.00,0.0423
840.00,0.0399
839.00,0.0344
838.00,0.0281
837.00,0.0230
836.00,0.0194
835.00,0.0172
834.00,0.0158
833.00,0.0149
832.00,0.0141
831.00,0.0135
830.00,0.0130
829.00,0.0126
828.00,0.0123
827.00,0.0121
826.00,0.0119
825.00,0.0118
824.00,0.0118
823.00,0.0118
822.00,0.0117
821.00,0.0117
820.00,0.0118
819.00,0.0120
818.00,0.0124
817.00,0.0131
816.00,0.0139
815.00,0.0149
814.00,0.0162
813.00,0.0176
812.00,0.0192
811.00,0.0206
810.00,0.0216
809.00,0.0220
808.00,0.0218
807.00,0.0210
806.00,0.0197
805.00,0.0181
804.00,0.0165
803.00,0.0150
802.00,0.0138
801.00,0.0129
800.00,0.0122
799.00,0.0117
798.00,0.0112
797.00,0.0109
796.00,0.0105
795.00,0.0103
794.00,0.0100
793.00,0.0096
792.00,0.0092
791.00,0.0090
790.00,0.0088
789.00,0.0087
788.00,0.0085
787.00,0.0082
786.00,0.0078
785.00,0.0075
784.00,0.0073
783.00,0.0072
782.00,0.0071
781.00,0.0070
780.00,0.0070
779.00,0.0070
778.00,0.0069
777.00,0.0069
776.00,0.0070
775.00,0.0073
774.00,0.0075
773.00,0.0077
772.00,0.0079
771.00,0.0081
770.00,0.0085
769.00,0.0088
768.00,0.0091
767.00,0.0091
766.00,0.0090
765.00,0.0088
764.00,0.0086
763.00,0.0082
762.00,0.0078
761.00,0.0074
760.00,0.0069
759.00,0.0065
758.00,0.0061
757.00,0.0059
756.00,0.0059
755.00,0.0060
754.00,0.0061
753.00,0.0063
752.00,0.0063
751.00,0.0062
750.00,0.0061
749.00,0.0060
748.00,0.0060
747.00,0.0060
746.00,0.0061
745.00,0.0061
744.00,0.0061
743.00,0.0061
742.00,0.0062
741.00,0.0063
740.00,0.0065
739.00,0.0068
738.00,0.0071
737.00,0.0074
736.00,0.0076
735.00,0.0079
734.00,0.0080
733.00,0.0081
732.00,0.0080
731.00,0.0080
730.00,0.0079
729.00,0.0078
728.00,0.0077
727.00,0.0078
726.00,0.0079
725.00,0.0080
724.00,0.0080
723.00,0.0079
722.00,0.0077
721.00,0.0075
720.00,0.0073
719.00,0.0072
718.00,0.0070
717.00,0.0069
716.00,0.0068
715.00,0.0067
714.00,0.0066
713.00,0.0065
712.00,0.0064
711.00,0.0065
710.00,0.0067
709.00,0.0069
708.00,0.0070
707.00,0.0070
706.00,0.0069
705.00,0.0068
704.00,0.0067
703.00,0.0065
702.00,0.0064
701.00,0.0064
700.00,0.0064
699.00,0.0066
698.00,0.0066
697.00,0.0066
696.00,0.0064
695.00,0.0062
694.00,0.0061
693.00,0.0061
692.00,0.0061
691.00,0.0061
690.00,0.0061
689.00,0.0060
688.00,0.0059
687.00,0.0059
686.00,0.0059
685.00,0.0060
684.00,0.0061
683.00,0.0062
682.00,0.0063
681.00,0.0064
680.00,0.0064
679.00,0.0063
678.00,0.0062
677.00,0.0061
676.00,0.0061
675.00,0.0062
674.00,0.0064
673.00,0.0066
672.00,0.0066
671.00,0.0066
670.00,0.0067
669.00,0.0067
668.00,0.0067
667.00,0.0065
666.00,0.0064
665.00,0.0062
664.00,0.0061
663.00,0.0062
662.00,0.0063
661.00,0.0066
660.00,0.0068
659.00,0.0068
658.00,0.0067
657.00,0.0064
656.00,0.0060
655.00,0.0058
654.00,0.0058
653.00,0.0060
652.00,0.0062
651.00,0.0063
650.00,0.0061
649.00,0.0059
648.00,0.0059
647.00,0.0060
646.00,0.0062
645.00,0.0062
644.00,0.0061
643.00,0.0060
642.00,0.0059
641.00,0.0060
640.00,0.0061
639.00,0.0061
638.00,0.0062
637.00,0.0062
636.00,0.0064
635.00,0.0066
634.00,0.0068
633.00,0.0068
632.00,0.0069
631.00,0.0069
630.00,0.0069
629.00,0.0068
628.00,0.0067
627.00,0.0066
626.00,0.0065
625.00,0.0064
624.00,0.0064
623.00,0.0063
622.00,0.0062
621.00,0.0062
620.00,0.0064
619.00,0.0065
618.00,0.0066
617.00,0.0064
616.00,0.0062
615.00,0.0061
614.00,0.0062
613.00,0.0064
612.00,0.0067
611.00,0.0069
610.00,0.0070
609.00,0.0069
608.00,0.0068
607.00,0.0067
606.00,0.0068
605.00,0.0070
604.00,0.0072
603.00,0.0072
602.00,0.0070
601.00,0.0068
600.00,0.0068
599.00,0.0069
598.00,0.0071
597.00,0.0072
596.00,0.0072
595.00,0.0072
594.00,0.0071
593.00,0.0071
592.00,0.0069
591.00,0.0066
590.00,0.0063
589.00,0.0062
588.00,0.0063
587.00,0.0066
586.00,0.0068
585.00,0.0068
584.00,0.0069
583.00,0.0070
582.00,0.0071
581.00,0.0069
580.00,0.0068
579.00,0.0069
578.00,0.0071
577.00,0.0072
576.00,0.0072
575.00,0.0070
574.00,0.0070
573.00,0.0070
572.00,0.0070
571.00,0.0071
570.00,0.0072
569.00,0.0072
568.00,0.0071
567.00,0.0070
566.00,0.0069
565.00,0.0068
564.00,0.0064
563.00,0.0061
562.00,0.0061
561.00,0.0063
560.00,0.0066
559.00,0.0068
558.00,0.0068
557.00,0.0068
556.00,0.0069
555.00,0.0071
554.00,0.0072
553.00,0.0071
552.00,0.0069
551.00,0.0067
550.00,0.0068
549.00,0.0069
548.00,0.0071
547.00,0.0070
546.00,0.0069
545.00,0.0067
544.00,0.0067
543.00,0.0069
542.00,0.0071
541.00,0.0072
540.00,0.0073
539.00,0.0076
538.00,0.0080
537.00,0.0085
536.00,0.0088
535.00,0.0089
534.00,0.0087
533.00,0.0086
532.00,0.0084
531.00,0.0083
530.00,0.0083
529.00,0.0083
528.00,0.0082
527.00,0.0081
526.00,0.0081
525.00,0.0081
524.00,0.0082
523.00,0.0083
522.00,0.0083
521.00,0.0081
520.00,0.0078
519.00,0.0073
518.00,0.0066
517.00,0.0062
516.00,0.0062
515.00,0.0065
514.00,0.0067
513.00,0.0068
512.00,0.0069
511.00,0.0075
510.00,0.0085
509.00,0.0092
508.00,0.0091
507.00,0.0084
506.00,0.0075
505.00,0.0071
504.00,0.0070
503.00,0.0070
502.00,0.0070
501.00,0.0069
500.00,0.0068
499.00,0.0068
498.00,0.0068
497.00,0.0068
496.00,0.0067
495.00,0.0068
494.00,0.0071
493.00,0.0074
492.00,0.0075
491.00,0.0075
490.00,0.0075
489.00,0.0076
488.00,0.0075
487.00,0.0072
486.00,0.0066
485.00,0.0061
484.00,0.0057
483.00,0.0056
482.00,0.0058
481.00,0.0060
480.00,0.0063
479.00,0.0067
478.00,0.0072
477.00,0.0079
476.00,0.0084
475.00,0.0086
474.00,0.0083
473.00,0.0080
472.00,0.0079
471.00,0.0082
470.00,0.0085
469.00,0.0084
468.00,0.0080
467.00,0.0084
466.00,0.0100
465.00,0.0125
464.00,0.0151
463.00,0.0168
462.00,0.0174
461.00,0.0173
460.00,0.0171
459.00,0.0174
458.00,0.0182
457.00,0.0189
456.00,0.0185
455.00,0.0169
454.00,0.0146
453.00,0.0121
452.00,0.0099
451.00,0.0082
450.00,0.0068
