Created as New Dataset,Sample 084 By Administrator Date Tuesday, September 09 2025
cm-1,A
4000.00,0.0010
3999.00,0.0010
3998.00,0.0010
3997.00,0.0011
3996.00,0.0011
3995.00,0.0011
3994.00,0.0011
3993.00,0.0011
3992.00,0.0011
3991.00,0.0010
3990.00,0.0010
3989.00,0.0010
3988.00,0.0010
3987.00,0.0009
3986.00,0.0009
3985.00,0.0009
3984.00,0.0009
3983.00,0.0009
3982.00,0.0009
3981.00,0.0009
3980.00,0.0009
3979.00,0.0009
3978.00,0.0009
3977.00,0.0009
3976.00,0.0008
3975.00,0.0008
3974.00,0.0008
3973.00,0.0008
3972.00,0.0008
3971.00,0.0008
3970.00,0.0008
3969.00,0.0008
3968.00,0.0009
3967.00,0.0009
3966.00,0.0009
3965.00,0.0009
3964.00,0.0008
3963.00,0.0008
3962.00,0.0008
3961.00,0.0008
3960.00,0.0008
3959.00,0.0008
3958.00,0.0007
3957.00,0.0007
3956.00,0.0007
3955.00,0.0007
3954.00,0.0007
3953.00,0.0007
3952.00,0.0007
3951.00,0.0008
3950.00,0.0008
3949.00,0.0008
3948.00,0.0008
3947.00,0.0008
3946.00,0.0008
3945.00,0.0009
3944.00,0.0009
3943.00,0.0009
3942.00,0.0009
3941.00,0.0009
3940.00,0.0009
3939.00,0.0009
3938.00,0.0009
3937.00,0.0009
3936.00,0.0009
3935.00,0.0009
3934.00,0.0009
3933.00,0.0009
3932.00,0.0009
3931.00,0.0009
3930.00,0.0009
3929.00,0.0009
3928.00,0.0008
3927.00,0.0008
3926.00,0.0008
3925.00,0.0009
3924.00,0.0009
3923.00,0.0009
3922.00,0.0010
3921.00,0.0009
3920.00,0.0009
3919.00,0.0009
3918.00,0.0009
3917.00,0.0008
3916.00,0.0008
3915.00,0.0008
3914.00,0.0008
3913.00,0.0008
3912.00,0.0008
3911.00,0.0008
3910.00,0.0008
3909.00,0.0008
3908.00,0.0008
3907.00,0.0008
3906.00,0.0008
3905.00,0.0009
3904.00,0.0009
3903.00,0.0009
3902.00,0.0009
3901.00,0.0009
3900.00,0.0009
3899.00,0.0009
3898.00,0.0008
3897.00,0.0009
3896.00,0.0009
3895.00,0.0009
3894.00,0.0009
3893.00,0.0009
3892.00,0.0009
3891.00,0.0009
3890.00,0.0009
3889.00,0.0009
3888.00,0.0009
3887.00,0.0009
3886.00,0.0008
3885.00,0.0008
3884.00,0.0008
3883.00,0.0008
3882.00,0.0008
3881.00,0.0008
3880.00,0.0008
3879.00,0.0009
3878.00,0.0009
3877.00,0.0009
3876.00,0.0009
3875.00,0.0009
3874.00,0.0009
3873.00,0.0009
3872.00,0.0008
3871.00,0.0008
3870.00,0.0008
3869.00,0.0009
3868.00,0.0009
3867.00,0.0008
3866.00,0.0008
3865.00,0.0007
3864.00,0.0007
3863.00,0.0008
3862.00,0.0008
3861.00,0.0008
3860.00,0.0008
3859.00,0.0008
3858.00,0.0009
3857.00,0.0009
3856.00,0.0008
3855.00,0.0008
3854.00,0.0008
3853.00,0.0008
3852.00,0.0008
3851.00,0.0008
3850.00,0.0008
3849.00,0.0008
3848.00,0.0008
3847.00,0.0009
3846.00,0.0009
3845.00,0.0009
3844.00,0.0009
3843.00,0.0009
3842.00,0.0008
3841.00,0.0008
3840.00,0.0007
3839.00,0.0007
3838.00,0.0007
3837.00,0.0008
3836.00,0.0008
3835.00,0.0008
3834.00,0.0008
3833.00,0.0008
3832.00,0.0008
3831.00,0.0008
3830.00,0.0008
3829.00,0.0009
3828.00,0.0009
3827.00,0.0010
3826.00,0.0010
3825.00,0.0011
3824.00,0.0011
3823.00,0.0010
3822.00,0.0010
3821.00,0.0010
3820.00,0.0010
3819.00,0.0010
3818.00,0.0009
3817.00,0.0009
3816.00,0.0009
3815.00,0.0009
3814.00,0.0008
3813.00,0.0008
3812.00,0.0008
3811.00,0.0009
3810.00,0.0009
3809.00,0.0009
3808.00,0.0009
3807.00,0.0009
3806.00,0.0010
3805.00,0.0010
3804.00,0.0010
3803.00,0.0010
3802.00,0.0009
3801.00,0.0009
3800.00,0.0008
3799.00,0.0008
3798.00,0.0008
3797.00,0.0008
3796.00,0.0008
3795.00,0.0008
3794.00,0.0008
3793.00,0.0008
3792.00,0.0008
3791.00,0.0008
3790.00,0.0008
3789.00,0.0008
3788.00,0.0008
3787.00,0.0008
3786.00,0.0007
3785.00,0.0007
3784.00,0.0008
3783.00,0.0008
3782.00,0.0008
3781.00,0.0008
3780.00,0.0008
3779.00,0.0009
3778.00,0.0009
3777.00,0.0009
3776.00,0.0009
3775.00,0.0009
3774.00,0.0009
3773.00,0.0009
3772.00,0.0009
3771.00,0.0010
3770.00,0.0010
3769.00,0.0011
3768.00,0.0011
3767.00,0.0010
3766.00,0.0010
3765.00,0.0009
3764.00,0.0009
3763.00,0.0010
3762.00,0.0010
3761.00,0.0010
3760.00,0.0010
3759.00,0.0010
3758.00,0.0010
3757.00,0.0009
3756.00,0.0009
3755.00,0.0009
3754.00,0.0009
3753.00,0.0009
3752.00,0.0009
3751.00,0.0009
3750.00,0.0009
3749.00,0.0010
3748.00,0.0010
3747.00,0.0010
3746.00,0.0009
3745.00,0.0009
3744.00,0.0009
3743.00,0.0009
3742.00,0.0009
3741.00,0.0009
3740.00,0.0009
3739.00,0.0009
3738.00,0.0008
3737.00,0.0008
3736.00,0.0008
3735.00,0.0008
3734.00,0.0007
3733.00,0.0007
3732.00,0.0007
3731.00,0.0007
3730.00,0.0007
3729.00,0.0007
3728.00,0.0007
3727.00,0.0007
3726.00,0.0007
3725.00,0.0007
3724.00,0.0008
3723.00,0.0008
3722.00,0.0008
3721.00,0.0008
3720.00,0.0008
3719.00,0.0008
3718.00,0.0007
3717.00,0.0007
3716.00,0.0007
3715.00,0.0008
3714.00,0.0008
3713.00,0.0008
3712.00,0.0008
3711.00,0.0008
3710.00,0.0008
3709.00,0.0008
3708.00,0.0007
3707.00,0.0007
3706.00,0.0007
3705.00,0.0007
3704.00,0.0007
3703.00,0.0007
3702.00,0.0007
3701.00,0.0007
3700.00,0.0007
3699.00,0.0007
3698.00,0.0008
3697.00,0.0008
3696.00,0.0008
3695.00,0.0008
3694.00,0.0008
3693.00,0.0008
3692.00,0.0008
3691.00,0.0008
3690.00,0.0008
3689.00,0.0008
3688.00,0.0008
3687.00,0.0007
3686.00,0.0007
3685.00,0.0007
3684.00,0.0008
3683.00,0.0008
3682.00,0.0009
3681.00,0.0009
3680.00,0.0009
3679.00,0.0009
3678.00,0.0009
3677.00,0.0009
3676.00,0.0010
3675.00,0.0010
3674.00,0.0010
3673.00,0.0009
3672.00,0.0008
3671.00,0.0007
3670.00,0.0007
3669.00,0.0007
3668.00,0.0007
3667.00,0.0007
3666.00,0.0007
3665.00,0.0008
3664.00,0.0008
3663.00,0.0008
3662.00,0.0008
3661.00,0.0008
3660.00,0.0009
3659.00,0.0009
3658.00,0.0009
3657.00,0.0009
3656.00,0.0009
3655.00,0.0010
3654.00,0.0010
3653.00,0.0010
3652.00,0.0010
3651.00,0.0010
3650.00,0.0010
3649.00,0.0010
3648.00,0.0010
3647.00,0.0010
3646.00,0.0009
3645.00,0.0009
3644.00,0.0008
3643.00,0.0008
3642.00,0.0007
3641.00,0.0008
3640.00,0.0008
3639.00,0.0009
3638.00,0.0009
3637.00,0.0009
3636.00,0.0010
3635.00,0.0010
3634.00,0.0010
3633.00,0.0010
3632.00,0.0010
3631.00,0.0009
3630.00,0.0009
3629.00,0.0009
3628.00,0.0009
3627.00,0.0009
3626.00,0.0009
3625.00,0.0009
3624.00,0.0010
3623.00,0.0010
3622.00,0.0011
3621.00,0.0011
3620.00,0.0011
3619.00,0.0011
3618.00,0.0011
3617.00,0.0011
3616.00,0.0011
3615.00,0.0011
3614.00,0.0010
3613.00,0.0010
3612.00,0.0010
3611.00,0.0011
3610.00,0.0011
3609.00,0.0011
3608.00,0.0012
3607.00,0.0012
3606.00,0.0012
3605.00,0.0012
3604.00,0.0012
3603.00,0.0012
3602.00,0.0012
3601.00,0.0012
3600.00,0.0013
3599.00,0.0013
3598.00,0.0014
3597.00,0.0014
3596.00,0.0014
3595.00,0.0014
3594.00,0.0015
3593.00,0.0015
3592.00,0.0014
3591.00,0.0015
3590.00,0.0015
3589.00,0.0015
3588.00,0.0016
3587.00,0.0016
3586.00,0.0015
3585.00,0.0015
3584.00,0.0015
3583.00,0.0015
3582.00,0.0015
3581.00,0.0016
3580.00,0.0016
3579.00,0.0017
3578.00,0.0017
3577.00,0.0017
3576.00,0.0017
3575.00,0.0017
3574.00,0.0017
3573.00,0.0018
3572.00,0.0018
3571.00,0.0018
3570.00,0.0019
3569.00,0.0019
3568.00,0.0020
3567.00,0.0020
3566.00,0.0020
3565.00,0.0019
3564.00,0.0019
3563.00,0.0019
3562.00,0.0019
3561.00,0.0019
3560.00,0.0020
3559.00,0.0020
3558.00,0.0021
3557.00,0.0021
3556.00,0.0021
3555.00,0.0021
3554.00,0.0021
3553.00,0.0022
3552.00,0.0022
3551.00,0.0023
3550.00,0.0023
3549.00,0.0023
3548.00,0.0023
3547.00,0.0023
3546.00,0.0023
3545.00,0.0024
3544.00,0.0024
3543.00,0.0024
3542.00,0.0024
3541.00,0.0024
3540.00,0.0024
3539.00,0.0025
3538.00,0.0025
3537.00,0.0025
3536.00,0.0025
3535.00,0.0026
3534.00,0.0026
3533.00,0.0026
3532.00,0.0026
3531.00,0.0027
3530.00,0.0027
3529.00,0.0028
3528.00,0.0029
3527.00,0.0029
3526.00,0.0029
3525.00,0.0029
3524.00,0.0029
3523.00,0.0029
3522.00,0.0029
3521.00,0.0029
3520.00,0.0028
3519.00,0.0028
3518.00,0.0028
3517.00,0.0028
3516.00,0.0029
3515.00,0.0029
3514.00,0.0030
3513.00,0.0030
3512.00,0.0031
3511.00,0.0031
3510.00,0.0031
3509.00,0.0031
3508.00,0.0032
3507.00,0.0032
3506.00,0.0032
3505.00,0.0033
3504.00,0.0033
3503.00,0.0033
3502.00,0.0033
3501.00,0.0033
3500.00,0.0033
3499.00,0.0034
3498.00,0.0034
3497.00,0.0035
3496.00,0.0035
3495.00,0.0035
3494.00,0.0036
3493.00,0.0036
3492.00,0.0036
3491.00,0.0036
3490.00,0.0036
3489.00,0.0036
3488.00,0.0036
3487.00,0.0036
3486.00,0.0035
3485.00,0.0035
3484.00,0.0035
3483.00,0.0036
3482.00,0.0036
3481.00,0.0036
3480.00,0.0037
3479.00,0.0037
3478.00,0.0037
3477.00,0.0038
3476.00,0.0039
3475.00,0.0039
3474.00,0.0040
3473.00,0.0040
3472.00,0.0040
3471.00,0.0040
3470.00,0.0041
3469.00,0.0041
3468.00,0.0041
3467.00,0.0041
3466.00,0.0041
3465.00,0.0041
3464.00,0.0041
3463.00,0.0041
3462.00,0.0041
3461.00,0.0041
3460.00,0.0042
3459.00,0.0042
3458.00,0.0042
3457.00,0.0043
3456.00,0.0043
3455.00,0.0043
3454.00,0.0043
3453.00,0.0043
3452.00,0.0043
3451.00,0.0043
3450.00,0.0044
3449.00,0.0044
3448.00,0.0044
3447.00,0.0045
3446.00,0.0046
3445.00,0.0046
3444.00,0.0046
3443.00,0.0046
3442.00,0.0046
3441.00,0.0045
3440.00,0.0045
3439.00,0.0046
3438.00,0.0046
3437.00,0.0046
3436.00,0.0046
3435.00,0.0047
3434.00,0.0047
3433.00,0.0048
3432.00,0.0047
3431.00,0.0047
3430.00,0.0048
3429.00,0.0048
3428.00,0.0048
3427.00,0.0048
3426.00,0.0049
3425.00,0.0049
3424.00,0.0049
3423.00,0.0049
3422.00,0.0049
3421.00,0.0049
3420.00,0.0049
3419.00,0.0049
3418.00,0.0050
3417.00,0.0050
3416.00,0.0051
3415.00,0.0051
3414.00,0.0051
3413.00,0.0051
3412.00,0.0051
3411.00,0.0051
3410.00,0.0051
3409.00,0.0052
3408.00,0.0052
3407.00,0.0053
3406.00,0.0053
3405.00,0.0053
3404.00,0.0053
3403.00,0.0053
3402.00,0.0053
3401.00,0.0053
3400.00,0.0053
3399.00,0.0053
3398.00,0.0053
3397.00,0.0053
3396.00,0.0054
3395.00,0.0054
3394.00,0.0054
3393.00,0.0055
3392.00,0.0055
3391.00,0.0055
3390.00,0.0055
3389.00,0.0055
3388.00,0.0055
3387.00,0.0055
3386.00,0.0054
3385.00,0.0054
3384.00,0.0054
3383.00,0.0054
3382.00,0.0054
3381.00,0.0054
3380.00,0.0054
3379.00,0.0054
3378.00,0.0054
3377.00,0.0054
3376.00,0.0054
3375.00,0.0054
3374.00,0.0054
3373.00,0.0054
3372.00,0.0054
3371.00,0.0055
3370.00,0.0054
3369.00,0.0054
3368.00,0.0054
3367.00,0.0054
3366.00,0.0054
3365.00,0.0054
3364.00,0.0054
3363.00,0.0054
3362.00,0.0054
3361.00,0.0055
3360.00,0.0054
3359.00,0.0054
3358.00,0.0055
3357.00,0.0055
3356.00,0.0055
3355.00,0.0054
3354.00,0.0054
3353.00,0.0054
3352.00,0.0054
3351.00,0.0054
3350.00,0.0054
3349.00,0.0054
3348.00,0.0054
3347.00,0.0054
3346.00,0.0054
3345.00,0.0054
3344.00,0.0055
3343.00,0.0055
3342.00,0.0055
3341.00,0.0054
3340.00,0.0054
3339.00,0.0053
3338.00,0.0053
3337.00,0.0053
3336.00,0.0053
3335.00,0.0053
3334.00,0.0053
3333.00,0.0054
3332.00,0.0054
3331.00,0.0053
3330.00,0.0053
3329.00,0.0053
3328.00,0.0052
3327.00,0.0052
3326.00,0.0053
3325.00,0.0053
3324.00,0.0053
3323.00,0.0052
3322.00,0.0051
3321.00,0.0051
3320.00,0.0050
3319.00,0.0050
3318.00,0.0050
3317.00,0.0051
3316.00,0.0051
3315.00,0.0051
3314.00,0.0051
3313.00,0.0051
3312.00,0.0051
3311.00,0.0051
3310.00,0.0050
3309.00,0.0050
3308.00,0.0050
3307.00,0.0050
3306.00,0.0050
3305.00,0.0050
3304.00,0.0051
3303.00,0.0051
3302.00,0.0051
3301.00,0.0051
3300.00,0.0051
3299.00,0.0051
3298.00,0.0050
3297.00,0.0050
3296.00,0.0050
3295.00,0.0050
3294.00,0.0050
3293.00,0.0050
3292.00,0.0049
3291.00,0.0049
3290.00,0.0048
3289.00,0.0048
3288.00,0.0048
3287.00,0.0048
3286.00,0.0048
3285.00,0.0048
3284.00,0.0048
3283.00,0.0048
3282.00,0.0048
3281.00,0.0048
3280.00,0.0047
3279.00,0.0047
3278.00,0.0047
3277.00,0.0047
3276.00,0.0047
3275.00,0.0047
3274.00,0.0047
3273.00,0.0047
3272.00,0.0046
3271.00,0.0046
3270.00,0.0046
3269.00,0.0046
3268.00,0.0046
3267.00,0.0046
3266.00,0.0047
3265.00,0.0046
3264.00,0.0046
3263.00,0.0045
3262.00,0.0045
3261.00,0.0045
3260.00,0.0045
3259.00,0.0045
3258.00,0.0044
3257.00,0.0044
3256.00,0.0044
3255.00,0.0044
3254.00,0.0044
3253.00,0.0045
3252.00,0.0045
3251.00,0.0044
3250.00,0.0044
3249.00,0.0043
3248.00,0.0043
3247.00,0.0043
3246.00,0.0043
3245.00,0.0043
3244.00,0.0043
3243.00,0.0043
3242.00,0.0042
3241.00,0.0042
3240.00,0.0042
3239.00,0.0042
3238.00,0.0042
3237.00,0.0042
3236.00,0.0042
3235.00,0.0042
3234.00,0.0042
3233.00,0.0043
3232.00,0.0043
3231.00,0.0043
3230.00,0.0043
3229.00,0.0043
3228.00,0.0044
3227.00,0.0044
3226.00,0.0044
3225.00,0.0044
3224.00,0.0044
3223.00,0.0044
3222.00,0.0044
3221.00,0.0045
3220.00,0.0045
3219.00,0.0045
3218.00,0.0045
3217.00,0.0045
3216.00,0.0045
3215.00,0.0045
3214.00,0.0045
3213.00,0.0045
3212.00,0.0046
3211.00,0.0046
3210.00,0.0046
3209.00,0.0046
3208.00,0.0047
3207.00,0.0047
3206.00,0.0047
3205.00,0.0046
3204.00,0.0046
3203.00,0.0046
3202.00,0.0047
3201.00,0.0047
3200.00,0.0047
3199.00,0.0047
3198.00,0.0047
3197.00,0.0048
3196.00,0.0048
3195.00,0.0048
3194.00,0.0048
3193.00,0.0048
3192.00,0.0048
3191.00,0.0047
3190.00,0.0047
3189.00,0.0047
3188.00,0.0047
3187.00,0.0047
3186.00,0.0046
3185.00,0.0046
3184.00,0.0046
3183.00,0.0046
3182.00,0.0045
3181.00,0.0045
3180.00,0.0045
3179.00,0.0045
3178.00,0.0044
3177.00,0.0044
3176.00,0.0044
3175.00,0.0044
3174.00,0.0044
3173.00,0.0044
3172.00,0.0043
3171.00,0.0043
3170.00,0.0043
3169.00,0.0043
3168.00,0.0043
3167.00,0.0043
3166.00,0.0043
3165.00,0.0042
3164.00,0.0042
3163.00,0.0041
3162.00,0.0041
3161.00,0.0041
3160.00,0.0041
3159.00,0.0041
3158.00,0.0041
3157.00,0.0040
3156.00,0.0040
3155.00,0.0040
3154.00,0.0039
3153.00,0.0039
3152.00,0.0039
3151.00,0.0039
3150.00,0.0040
3149.00,0.0040
3148.00,0.0040
3147.00,0.0040
3146.00,0.0039
3145.00,0.0039
3144.00,0.0038
3143.00,0.0038
3142.00,0.0039
3141.00,0.0039
3140.00,0.0039
3139.00,0.0038
3138.00,0.0038
3137.00,0.0038
3136.00,0.0037
3135.00,0.0037
3134.00,0.0038
3133.00,0.0037
3132.00,0.0037
3131.00,0.0037
3130.00,0.0036
3129.00,0.0036
3128.00,0.0036
3127.00,0.0036
3126.00,0.0036
3125.00,0.0036
3124.00,0.0036
3123.00,0.0035
3122.00,0.0035
3121.00,0.0034
3120.00,0.0034
3119.00,0.0033
3118.00,0.0033
3117.00,0.0033
3116.00,0.0033
3115.00,0.0034
3114.00,0.0034
3113.00,0.0033
3112.00,0.0033
3111.00,0.0033
3110.00,0.0033
3109.00,0.0033
3108.00,0.0033
3107.00,0.0033
3106.00,0.0033
3105.00,0.0032
3104.00,0.0032
3103.00,0.0031
3102.00,0.0031
3101.00,0.0031
3100.00,0.0030
3099.00,0.0030
3098.00,0.0030
3097.00,0.0030
3096.00,0.0030
3095.00,0.0030
3094.00,0.0031
3093.00,0.0031
3092.00,0.0031
3091.00,0.0031
3090.00,0.0031
3089.00,0.0030
3088.00,0.0030
3087.00,0.0030
3086.00,0.0030
3085.00,0.0030
3084.00,0.0030
3083.00,0.0030
3082.00,0.0030
3081.00,0.0030
3080.00,0.0029
3079.00,0.0030
3078.00,0.0030
3077.00,0.0030
3076.00,0.0031
3075.00,0.0031
3074.00,0.0031
3073.00,0.0031
3072.00,0.0031
3071.00,0.0031
3070.00,0.0031
3069.00,0.0031
3068.00,0.0031
3067.00,0.0032
3066.00,0.0032
3065.00,0.0032
3064.00,0.0032
3063.00,0.0032
3062.00,0.0032
3061.00,0.0032
3060.00,0.0032
3059.00,0.0032
3058.00,0.0032
3057.00,0.0032
3056.00,0.0032
3055.00,0.0033
3054.00,0.0033
3053.00,0.0034
3052.00,0.0034
3051.00,0.0034
3050.00,0.0034
3049.00,0.0034
3048.00,0.0034
3047.00,0.0034
3046.00,0.0035
3045.00,0.0035
3044.00,0.0035
3043.00,0.0035
3042.00,0.0035
3041.00,0.0036
3040.00,0.0036
3039.00,0.0037
3038.00,0.0037
3037.00,0.0037
3036.00,0.0037
3035.00,0.0037
3034.00,0.0038
3033.00,0.0038
3032.00,0.0039
3031.00,0.0039
3030.00,0.0039
3029.00,0.0040
3028.00,0.0041
3027.00,0.0042
3026.00,0.0042
3025.00,0.0043
3024.00,0.0044
3023.00,0.0044
3022.00,0.0045
3021.00,0.0046
3020.00,0.0046
3019.00,0.0047
3018.00,0.0047
3017.00,0.0048
3016.00,0.0049
3015.00,0.0050
3014.00,0.0051
3013.00,0.0052
3012.00,0.0054
3011.00,0.0055
3010.00,0.0056
3009.00,0.0058
3008.00,0.0059
3007.00,0.0061
3006.00,0.0063
3005.00,0.0065
3004.00,0.0067
3003.00,0.0069
3002.00,0.0072
3001.00,0.0074
3000.00,0.0077
2999.00,0.0080
2998.00,0.0083
2997.00,0.0086
2996.00,0.0090
2995.00,0.0095
2994.00,0.0099
2993.00,0.0104
2992.00,0.0109
2991.00,0.0114
2990.00,0.0121
2989.00,0.0128
2988.00,0.0136
2987.00,0.0145
2986.00,0.0155
2985.00,0.0167
2984.00,0.0179
2983.00,0.0193
2982.00,0.0209
2981.00,0.0227
2980.00,0.0246
2979.00,0.0268
2978.00,0.0293
2977.00,0.0322
2976.00,0.0354
2975.00,0.0392
2974.00,0.0434
2973.00,0.0483
2972.00,0.0537
2971.00,0.0599
2970.00,0.0667
2969.00,0.0742
2968.00,0.0824
2967.00,0.0911
2966.00,0.1004
2965.00,0.1099
2964.00,0.1192
2963.00,0.1280
2962.00,0.1357
2961.00,0.1422
2960.00,0.1472
2959.00,0.1512
2958.00,0.1546
2957.00,0.1581
2956.00,0.1622
2955.00,0.1673
2954.00,0.1733
2953.00,0.1799
2952.00,0.1860
2951.00,0.1908
2950.00,0.1929
2949.00,0.1915
2948.00,0.1861
2947.00,0.1770
2946.00,0.1652
2945.00,0.1520
2944.00,0.1390
2943.00,0.1273
2942.00,0.1177
2941.00,0.1108
2940.00,0.1064
2939.00,0.1044
2938.00,0.1045
2937.00,0.1065
2936.00,0.1103
2935.00,0.1155
2934.00,0.1221
2933.00,0.1300
2932.00,0.1390
2931.00,0.1489
2930.00,0.1594
2929.00,0.1701
2928.00,0.1808
2927.00,0.1912
2926.00,0.2012
2925.00,0.2107
2924.00,0.2199
2923.00,0.2290
2922.00,0.2378
2921.00,0.2463
2920.00,0.2539
2919.00,0.2596
2918.00,0.2628
2917.00,0.2626
2916.00,0.2589
2915.00,0.2521
2914.00,0.2431
2913.00,0.2330
2912.00,0.2228
2911.00,0.2133
2910.00,0.2046
2909.00,0.1967
2908.00,0.1894
2907.00,0.1825
2906.00,0.1757
2905.00,0.1688
2904.00,0.1618
2903.00,0.1548
2902.00,0.1478
2901.00,0.1409
2900.00,0.1343
2899.00,0.1281
2898.00,0.1223
2897.00,0.1171
2896.00,0.1126
2895.00,0.1087
2894.00,0.1056
2893.00,0.1031
2892.00,0.1014
2891.00,0.1003
2890.00,0.0997
2889.00,0.0997
2888.00,0.1000
2887.00,0.1006
2886.00,0.1017
2885.00,0.1030
2884.00,0.1048
2883.00,0.1071
2882.00,0.1098
2881.00,0.1127
2880.00,0.1156
2879.00,0.1181
2878.00,0.1197
2877.00,0.1203
2876.00,0.1200
2875.00,0.1192
2874.00,0.1184
2873.00,0.1181
2872.00,0.1186
2871.00,0.1198
2870.00,0.1217
2869.00,0.1236
2868.00,0.1250
2867.00,0.1249
2866.00,0.1225
2865.00,0.1175
2864.00,0.1103
2863.00,0.1015
2862.00,0.0922
2861.00,0.0835
2860.00,0.0759
2859.00,0.0698
2858.00,0.0653
2857.00,0.0621
2856.00,0.0600
2855.00,0.0589
2854.00,0.0586
2853.00,0.0590
2852.00,0.0600
2851.00,0.0616
2850.00,0.0637
2849.00,0.0662
2848.00,0.0693
2847.00,0.0730
2846.00,0.0776
2845.00,0.0831
2844.00,0.0894
2843.00,0.0963
2842.00,0.1034
2841.00,0.1102
2840.00,0.1159
2839.00,0.1196
2838.00,0.1204
2837.00,0.1179
2836.00,0.1120
2835.00,0.1033
2834.00,0.0929
2833.00,0.0819
2832.00,0.0715
2831.00,0.0623
2830.00,0.0544
2829.00,0.0480
2828.00,0.0429
2827.00,0.0387
2826.00,0.0354
2825.00,0.0326
2824.00,0.0303
2823.00,0.0284
2822.00,0.0267
2821.00,0.0253
2820.00,0.0241
2819.00,0.0230
2818.00,0.0221
2817.00,0.0213
2816.00,0.0205
2815.00,0.0198
2814.00,0.0192
2813.00,0.0187
2812.00,0.0181
2811.00,0.0176
2810.00,0.0171
2809.00,0.0166
2808.00,0.0160
2807.00,0.0154
2806.00,0.0148
2805.00,0.0142
2804.00,0.0135
2803.00,0.0129
2802.00,0.0124
2801.00,0.0119
2800.00,0.0116
2799.00,0.0113
2798.00,0.0110
2797.00,0.0108
2796.00,0.0106
2795.00,0.0103
2794.00,0.0101
2793.00,0.0098
2792.00,0.0095
2791.00,0.0092
2790.00,0.0088
2789.00,0.0085
2788.00,0.0082
2787.00,0.0079
2786.00,0.0077
2785.00,0.0075
2784.00,0.0072
2783.00,0.0070
2782.00,0.0069
2781.00,0.0067
2780.00,0.0065
2779.00,0.0064
2778.00,0.0062
2777.00,0.0061
2776.00,0.0059
2775.00,0.0058
2774.00,0.0057
2773.00,0.0057
2772.00,0.0056
2771.00,0.0056
2770.00,0.0056
2769.00,0.0055
2768.00,0.0055
2767.00,0.0055
2766.00,0.0054
2765.00,0.0054
2764.00,0.0054
2763.00,0.0053
2762.00,0.0053
2761.00,0.0053
2760.00,0.0052
2759.00,0.0052
2758.00,0.0052
2757.00,0.0052
2756.00,0.0051
2755.00,0.0051
2754.00,0.0051
2753.00,0.0051
2752.00,0.0051
2751.00,0.0051
2750.00,0.0050
2749.00,0.0050
2748.00,0.0050
2747.00,0.0051
2746.00,0.0051
2745.00,0.0052
2744.00,0.0053
2743.00,0.0054
2742.00,0.0055
2741.00,0.0056
2740.00,0.0058
2739.00,0.0059
2738.00,0.0060
2737.00,0.0061
2736.00,0.0063
2735.00,0.0064
2734.00,0.0066
2733.00,0.0067
2732.00,0.0069
2731.00,0.0072
2730.00,0.0074
2729.00,0.0077
2728.00,0.0079
2727.00,0.0082
2726.00,0.0084
2725.00,0.0087
2724.00,0.0088
2723.00,0.0088
2722.00,0.0088
2721.00,0.0086
2720.00,0.0083
2719.00,0.0079
2718.00,0.0076
2717.00,0.0073
2716.00,0.0070
2715.00,0.0067
2714.00,0.0065
2713.00,0.0063
2712.00,0.0061
2711.00,0.0059
2710.00,0.0057
2709.00,0.0056
2708.00,0.0054
2707.00,0.0053
2706.00,0.0052
2705.00,0.0050
2704.00,0.0049
2703.00,0.0048
2702.00,0.0047
2701.00,0.0046
2700.00,0.0046
2699.00,0.0045
2698.00,0.0045
2697.00,0.0044
2696.00,0.0044
2695.00,0.0044
2694.00,0.0044
2693.00,0.0044
2692.00,0.0044
2691.00,0.0044
2690.00,0.0044
2689.00,0.0044
2688.00,0.0044
2687.00,0.0044
2686.00,0.0044
2685.00,0.0044
2684.00,0.0044
2683.00,0.0044
2682.00,0.0045
2681.00,0.0045
2680.00,0.0045
2679.00,0.0045
2678.00,0.0045
2677.00,0.0045
2676.00,0.0045
2675.00,0.0044
2674.00,0.0044
2673.00,0.0044
2672.00,0.0044
2671.00,0.0044
2670.00,0.0044
2669.00,0.0044
2668.00,0.0044
2667.00,0.0045
2666.00,0.0045
2665.00,0.0046
2664.00,0.0046
2663.00,0.0046
2662.00,0.0047
2661.00,0.0047
2660.00,0.0047
2659.00,0.0046
2658.00,0.0046
2657.00,0.0046
2656.00,0.0046
2655.00,0.0046
2654.00,0.0046
2653.00,0.0045
2652.00,0.0044
2651.00,0.0044
2650.00,0.0043
2649.00,0.0042
2648.00,0.0041
2647.00,0.0041
2646.00,0.0041
2645.00,0.0040
2644.00,0.0040
2643.00,0.0040
2642.00,0.0039
2641.00,0.0039
2640.00,0.0039
2639.00,0.0039
2638.00,0.0038
2637.00,0.0037
2636.00,0.0037
2635.00,0.0037
2634.00,0.0036
2633.00,0.0037
2632.00,0.0037
2631.00,0.0037
2630.00,0.0037
2629.00,0.0038
2628.00,0.0038
2627.00,0.0039
2626.00,0.0039
2625.00,0.0039
2624.00,0.0039
2623.00,0.0039
2622.00,0.0038
2621.00,0.0038
2620.00,0.0039
2619.00,0.0039
2618.00,0.0040
2617.00,0.0040
2616.00,0.0040
2615.00,0.0039
2614.00,0.0039
2613.00,0.0039
2612.00,0.0038
2611.00,0.0038
2610.00,0.0037
2609.00,0.0037
2608.00,0.0037
2607.00,0.0036
2606.00,0.0035
2605.00,0.0035
2604.00,0.0034
2603.00,0.0033
2602.00,0.0033
2601.00,0.0033
2600.00,0.0033
2599.00,0.0033
2598.00,0.0033
2597.00,0.0033
2596.00,0.0033
2595.00,0.0033
2594.00,0.0033
2593.00,0.0033
2592.00,0.0033
2591.00,0.0033
2590.00,0.0034
2589.00,0.0035
2588.00,0.0036
2587.00,0.0037
2586.00,0.0038
2585.00,0.0038
2584.00,0.0039
2583.00,0.0040
2582.00,0.0040
2581.00,0.0040
2580.00,0.0039
2579.00,0.0038
2578.00,0.0037
2577.00,0.0035
2576.00,0.0034
2575.00,0.0033
2574.00,0.0032
2573.00,0.0031
2572.00,0.0030
2571.00,0.0030
2570.00,0.0029
2569.00,0.0029
2568.00,0.0029
2567.00,0.0028
2566.00,0.0028
2565.00,0.0027
2564.00,0.0026
2563.00,0.0025
2562.00,0.0024
2561.00,0.0023
2560.00,0.0023
2559.00,0.0023
2558.00,0.0023
2557.00,0.0023
2556.00,0.0022
2555.00,0.0022
2554.00,0.0022
2553.00,0.0022
2552.00,0.0021
2551.00,0.0021
2550.00,0.0021
2549.00,0.0020
2548.00,0.0020
2547.00,0.0019
2546.00,0.0019
2545.00,0.0019
2544.00,0.0019
2543.00,0.0019
2542.00,0.0018
2541.00,0.0018
2540.00,0.0018
2539.00,0.0018
2538.00,0.0018
2537.00,0.0017
2536.00,0.0016
2535.00,0.0016
2534.00,0.0016
2533.00,0.0016
2532.00,0.0016
2531.00,0.0016
2530.00,0.0016
2529.00,0.0016
2528.00,0.0016
2527.00,0.0015
2526.00,0.0015
2525.00,0.0015
2524.00,0.0015
2523.00,0.0015
2522.00,0.0014
2521.00,0.0014
2520.00,0.0013
2519.00,0.0012
2518.00,0.0012
2517.00,0.0012
2516.00,0.0012
2515.00,0.0013
2514.00,0.0013
2513.00,0.0013
2512.00,0.0013
2511.00,0.0012
2510.00,0.0011
2509.00,0.0011
2508.00,0.0011
2507.00,0.0011
2506.00,0.0011
2505.00,0.0011
2504.00,0.0011
2503.00,0.0011
2502.00,0.0011
2501.00,0.0011
2500.00,0.0011
2499.00,0.0011
2498.00,0.0012
2497.00,0.0012
2496.00,0.0013
2495.00,0.0013
2494.00,0.0013
2493.00,0.0012
2492.00,0.0011
2491.00,0.0011
2490.00,0.0011
2489.00,0.0011
2488.00,0.0011
2487.00,0.0011
2486.00,0.0011
2485.00,0.0011
2484.00,0.0011
2483.00,0.0011
2482.00,0.0011
2481.00,0.0011
2480.00,0.0011
2479.00,0.0011
2478.00,0.0010
2477.00,0.0010
2476.00,0.0010
2475.00,0.0010
2474.00,0.0010
2473.00,0.0010
2472.00,0.0011
2471.00,0.0011
2470.00,0.0011
2469.00,0.0010
2468.00,0.0010
2467.00,0.0010
2466.00,0.0010
2465.00,0.0011
2464.00,0.0011
2463.00,0.0011
2462.00,0.0011
2461.00,0.0012
2460.00,0.0012
2459.00,0.0012
2458.00,0.0012
2457.00,0.0012
2456.00,0.0013
2455.00,0.0013
2454.00,0.0013
2453.00,0.0013
2452.00,0.0012
2451.00,0.0012
2450.00,0.0012
2449.00,0.0012
2448.00,0.0012
2447.00,0.0012
2446.00,0.0012
2445.00,0.0012
2444.00,0.0011
2443.00,0.0011
2442.00,0.0011
2441.00,0.0011
2440.00,0.0012
2439.00,0.0012
2438.00,0.0013
2437.00,0.0013
2436.00,0.0013
2435.00,0.0013
2434.00,0.0013
2433.00,0.0013
2432.00,0.0013
2431.00,0.0013
2430.00,0.0012
2429.00,0.0012
2428.00,0.0012
2427.00,0.0012
2426.00,0.0012
2425.00,0.0013
2424.00,0.0013
2423.00,0.0012
2422.00,0.0012
2421.00,0.0012
2420.00,0.0012
2419.00,0.0012
2418.00,0.0011
2417.00,0.0011
2416.00,0.0011
2415.00,0.0011
2414.00,0.0011
2413.00,0.0012
2412.00,0.0011
2411.00,0.0011
2410.00,0.0010
2409.00,0.0010
2408.00,0.0010
2407.00,0.0010
2406.00,0.0010
2405.00,0.0010
2404.00,0.0009
2403.00,0.0010
2402.00,0.0010
2401.00,0.0010
2400.00,0.0010
2399.00,0.0010
2398.00,0.0010
2397.00,0.0010
2396.00,0.0010
2395.00,0.0010
2394.00,0.0010
2393.00,0.0010
2392.00,0.0010
2391.00,0.0010
2390.00,0.0010
2389.00,0.0009
2388.00,0.0009
2387.00,0.0009
2386.00,0.0009
2385.00,0.0008
2384.00,0.0008
2383.00,0.0007
2382.00,0.0007
2381.00,0.0006
2380.00,0.0005
2379.00,0.0005
2378.00,0.0004
2377.00,0.0004
2376.00,0.0004
2375.00,0.0004
2374.00,0.0005
2373.00,0.0005
2372.00,0.0006
2371.00,0.0006
2370.00,0.0006
2369.00,0.0006
2368.00,0.0005
2367.00,0.0005
2366.00,0.0004
2365.00,0.0004
2364.00,0.0005
2363.00,0.0005
2362.00,0.0006
2361.00,0.0006
2360.00,0.0006
2359.00,0.0006
2358.00,0.0006
2357.00,0.0006
2356.00,0.0006
2355.00,0.0006
2354.00,0.0006
2353.00,0.0006
2352.00,0.0006
2351.00,0.0006
2350.00,0.0006
2349.00,0.0007
2348.00,0.0007
2347.00,0.0006
2346.00,0.0007
2345.00,0.0007
2344.00,0.0008
2343.00,0.0008
2342.00,0.0008
2341.00,0.0008
2340.00,0.0009
2339.00,0.0009
2338.00,0.0009
2337.00,0.0009
2336.00,0.0009
2335.00,0.0008
2334.00,0.0007
2333.00,0.0007
2332.00,0.0007
2331.00,0.0008
2330.00,0.0009
2329.00,0.0010
2328.00,0.0012
2327.00,0.0015
2326.00,0.0018
2325.00,0.0021
2324.00,0.0022
2323.00,0.0021
2322.00,0.0019
2321.00,0.0017
2320.00,0.0016
2319.00,0.0016
2318.00,0.0015
2317.00,0.0014
2316.00,0.0013
2315.00,0.0013
2314.00,0.0013
2313.00,0.0013
2312.00,0.0013
2311.00,0.0013
2310.00,0.0013
2309.00,0.0013
2308.00,0.0013
2307.00,0.0014
2306.00,0.0014
2305.00,0.0015
2304.00,0.0015
2303.00,0.0015
2302.00,0.0015
2301.00,0.0015
2300.00,0.0015
2299.00,0.0016
2298.00,0.0017
2297.00,0.0017
2296.00,0.0017
2295.00,0.0017
2294.00,0.0017
2293.00,0.0018
2292.00,0.0018
2291.00,0.0019
2290.00,0.0019
2289.00,0.0019
2288.00,0.0020
2287.00,0.0020
2286.00,0.0020
2285.00,0.0020
2284.00,0.0019
2283.00,0.0018
2282.00,0.0017
2281.00,0.0016
2280.00,0.0016
2279.00,0.0015
2278.00,0.0015
2277.00,0.0014
2276.00,0.0013
2275.00,0.0013
2274.00,0.0013
2273.00,0.0013
2272.00,0.0013
2271.00,0.0013
2270.00,0.0013
2269.00,0.0013
2268.00,0.0014
2267.00,0.0013
2266.00,0.0013
2265.00,0.0012
2264.00,0.0012
2263.00,0.0012
2262.00,0.0013
2261.00,0.0013
2260.00,0.0013
2259.00,0.0014
2258.00,0.0014
2257.00,0.0013
2256.00,0.0012
2255.00,0.0011
2254.00,0.0009
2253.00,0.0009
2252.00,0.0009
2251.00,0.0009
2250.00,0.0009
2249.00,0.0009
2248.00,0.0009
2247.00,0.0009
2246.00,0.0009
2245.00,0.0009
2244.00,0.0009
2243.00,0.0009
2242.00,0.0009
2241.00,0.0008
2240.00,0.0007
2239.00,0.0006
2238.00,0.0006
2237.00,0.0007
2236.00,0.0007
2235.00,0.0008
2234.00,0.0008
2233.00,0.0007
2232.00,0.0007
2231.00,0.0007
2230.00,0.0009
2229.00,0.0010
2228.00,0.0012
2227.00,0.0012
2226.00,0.0011
2225.00,0.0010
2224.00,0.0009
2223.00,0.0008
2222.00,0.0008
2221.00,0.0008
2220.00,0.0009
2219.00,0.0010
2218.00,0.0010
2217.00,0.0009
2216.00,0.0009
2215.00,0.0008
2214.00,0.0008
2213.00,0.0008
2212.00,0.0007
2211.00,0.0006
2210.00,0.0005
2209.00,0.0005
2208.00,0.0005
2207.00,0.0005
2206.00,0.0006
2205.00,0.0006
2204.00,0.0008
2203.00,0.0009
2202.00,0.0009
2201.00,0.0009
2200.00,0.0008
2199.00,0.0007
2198.00,0.0007
2197.00,0.0006
2196.00,0.0005
2195.00,0.0006
2194.00,0.0007
2193.00,0.0009
2192.00,0.0010
2191.00,0.0010
2190.00,0.0010
2189.00,0.0009
2188.00,0.0008
2187.00,0.0009
2186.00,0.0009
2185.00,0.0010
2184.00,0.0009
2183.00,0.0009
2182.00,0.0008
2181.00,0.0008
2180.00,0.0009
2179.00,0.0009
2178.00,0.0010
2177.00,0.0010
2176.00,0.0007
2175.00,0.0005
2174.00,0.0004
2173.00,0.0005
2172.00,0.0007
2171.00,0.0011
2170.00,0.0013
2169.00,0.0015
2168.00,0.0014
2167.00,0.0012
2166.00,0.0011
2165.00,0.0013
2164.00,0.0017
2163.00,0.0021
2162.00,0.0023
2161.00,0.0018
2160.00,0.0006
2159.00,-0.0009
2158.00,-0.0021
2157.00,-0.0025
2156.00,-0.0024
2155.00,-0.0021
2154.00,-0.0018
2153.00,-0.0018
2152.00,-0.0018
2151.00,-0.0017
2150.00,-0.0016
2149.00,-0.0015
2148.00,-0.0015
2147.00,-0.0015
2146.00,-0.0015
2145.00,-0.0013
2144.00,-0.0011
2143.00,-0.0010
2142.00,-0.0009
2141.00,-0.0008
2140.00,-0.0008
2139.00,-0.0009
2138.00,-0.0009
2137.00,-0.0010
2136.00,-0.0010
2135.00,-0.0012
2134.00,-0.0014
2133.00,-0.0014
2132.00,-0.0013
2131.00,-0.0011
2130.00,-0.0009
2129.00,-0.0007
2128.00,-0.0006
2127.00,-0.0006
2126.00,-0.0006
2125.00,-0.0007
2124.00,-0.0006
2123.00,-0.0004
2122.00,-0.0002
2121.00,-0.0001
2120.00,-0.0001
2119.00,-0.0001
2118.00,-0.0000
2117.00,0.0002
2116.00,0.0004
2115.00,0.0006
2114.00,0.0006
2113.00,0.0004
2112.00,0.0003
2111.00,0.0003
2110.00,0.0002
2109.00,0.0001
2108.00,0.0000
2107.00,-0.0001
2106.00,-0.0000
2105.00,0.0001
2104.00,0.0003
2103.00,0.0005
2102.00,0.0007
2101.00,0.0008
2100.00,0.0008
2099.00,0.0006
2098.00,0.0004
2097.00,0.0002
2096.00,-0.0000
2095.00,-0.0002
2094.00,-0.0004
2093.00,-0.0004
2092.00,-0.0002
2091.00,-0.0000
2090.00,0.0002
2089.00,0.0004
2088.00,0.0005
2087.00,0.0006
2086.00,0.0006
2085.00,0.0005
2084.00,0.0005
2083.00,0.0005
2082.00,0.0005
2081.00,0.0005
2080.00,0.0005
2079.00,0.0005
2078.00,0.0004
2077.00,0.0004
2076.00,0.0003
2075.00,0.0003
2074.00,0.0002
2073.00,0.0001
2072.00,0.0001
2071.00,0.0001
2070.00,0.0002
2069.00,0.0004
2068.00,0.0006
2067.00,0.0006
2066.00,0.0005
2065.00,0.0004
2064.00,0.0002
2063.00,0.0000
2062.00,-0.0001
2061.00,-0.0000
2060.00,0.0001
2059.00,0.0003
2058.00,0.0005
2057.00,0.0005
2056.00,0.0004
2055.00,0.0002
2054.00,0.0001
2053.00,0.0004
2052.00,0.0010
2051.00,0.0016
2050.00,0.0018
2049.00,0.0016
2048.00,0.0011
2047.00,0.0007
2046.00,0.0004
2045.00,0.0003
2044.00,0.0002
2043.00,0.0002
2042.00,0.0002
2041.00,0.0003
2040.00,0.0004
2039.00,0.0003
2038.00,0.0002
2037.00,-0.0000
2036.00,-0.0004
2035.00,-0.0007
2034.00,-0.0007
2033.00,-0.0005
2032.00,-0.0002
2031.00,-0.0001
2030.00,-0.0002
2029.00,-0.0004
2028.00,-0.0006
2027.00,-0.0007
2026.00,-0.0008
2025.00,-0.0007
2024.00,-0.0006
2023.00,-0.0006
2022.00,-0.0007
2021.00,-0.0009
2020.00,-0.0011
2019.00,-0.0012
2018.00,-0.0014
2017.00,-0.0013
2016.00,-0.0011
2015.00,-0.0009
2014.00,-0.0007
2013.00,-0.0006
2012.00,-0.0005
2011.00,-0.0006
2010.00,-0.0006
2009.00,-0.0005
2008.00,-0.0005
2007.00,-0.0006
2006.00,-0.0008
2005.00,-0.0012
2004.00,-0.0016
2003.00,-0.0018
2002.00,-0.0016
2001.00,-0.0013
2000.00,-0.0009
1999.00,-0.0008
1998.00,-0.0008
1997.00,-0.0008
1996.00,-0.0007
1995.00,-0.0007
1994.00,-0.0007
1993.00,-0.0008
1992.00,-0.0008
1991.00,-0.0006
1990.00,-0.0003
1989.00,0.0000
1988.00,0.0002
1987.00,0.0003
1986.00,0.0004
1985.00,0.0006
1984.00,0.0009
1983.00,0.0013
1982.00,0.0018
1981.00,0.0021
1980.00,0.0021
1979.00,0.0016
1978.00,0.0010
1977.00,0.0004
1976.00,-0.0001
1975.00,-0.0005
1974.00,-0.0007
1973.00,-0.0008
1972.00,-0.0008
1971.00,-0.0009
1970.00,-0.0010
1969.00,-0.0011
1968.00,-0.0011
1967.00,-0.0010
1966.00,-0.0010
1965.00,-0.0010
1964.00,-0.0011
1963.00,-0.0013
1962.00,-0.0015
1961.00,-0.0016
1960.00,-0.0018
1959.00,-0.0019
1958.00,-0.0018
1957.00,-0.0016
1956.00,-0.0014
1955.00,-0.0014
1954.00,-0.0014
1953.00,-0.0014
1952.00,-0.0013
1951.00,-0.0012
1950.00,-0.0012
1949.00,-0.0012
1948.00,-0.0013
1947.00,-0.0014
1946.00,-0.0015
1945.00,-0.0016
1944.00,-0.0015
1943.00,-0.0013
1942.00,-0.0010
1941.00,-0.0007
1940.00,-0.0006
1939.00,-0.0007
1938.00,-0.0009
1937.00,-0.0009
1936.00,-0.0009
1935.00,-0.0008
1934.00,-0.0007
1933.00,-0.0006
1932.00,-0.0005
1931.00,-0.0005
1930.00,-0.0005
1929.00,-0.0005
1928.00,-0.0005
1927.00,-0.0005
1926.00,-0.0004
1925.00,-0.0003
1924.00,-0.0003
1923.00,-0.0003
1922.00,-0.0003
1921.00,-0.0002
1920.00,-0.0002
1919.00,-0.0002
1918.00,-0.0001
1917.00,-0.0001
1916.00,-0.0001
1915.00,-0.0002
1914.00,-0.0002
1913.00,-0.0002
1912.00,-0.0002
1911.00,-0.0002
1910.00,-0.0001
1909.00,-0.0001
1908.00,-0.0001
1907.00,-0.0002
1906.00,-0.0002
1905.00,-0.0001
1904.00,0.0000
1903.00,0.0001
1902.00,0.0002
1901.00,0.0001
1900.00,0.0001
1899.00,0.0000
1898.00,0.0001
1897.00,0.0002
1896.00,0.0003
1895.00,0.0004
1894.00,0.0004
1893.00,0.0004
1892.00,0.0004
1891.00,0.0004
1890.00,0.0004
1889.00,0.0004
1888.00,0.0005
1887.00,0.0005
1886.00,0.0004
1885.00,0.0003
1884.00,0.0002
1883.00,0.0001
1882.00,0.0001
1881.00,0.0001
1880.00,0.0001
1879.00,0.0002
1878.00,0.0002
1877.00,0.0002
1876.00,0.0002
1875.00,0.0002
1874.00,0.0002
1873.00,0.0003
1872.00,0.0003
1871.00,0.0004
1870.00,0.0003
1869.00,0.0002
1868.00,0.0002
1867.00,0.0001
1866.00,0.0001
1865.00,0.0001
1864.00,0.0001
1863.00,0.0002
1862.00,0.0002
1861.00,0.0002
1860.00,0.0003
1859.00,0.0003
1858.00,0.0003
1857.00,0.0003
1856.00,0.0003
1855.00,0.0003
1854.00,0.0003
1853.00,0.0002
1852.00,0.0002
1851.00,0.0001
1850.00,0.0001
1849.00,0.0002
1848.00,0.0003
1847.00,0.0004
1846.00,0.0004
1845.00,0.0004
1844.00,0.0004
1843.00,0.0004
1842.00,0.0004
1841.00,0.0004
1840.00,0.0004
1839.00,0.0004
1838.00,0.0004
1837.00,0.0004
1836.00,0.0004
1835.00,0.0004
1834.00,0.0005
1833.00,0.0004
1832.00,0.0004
1831.00,0.0004
1830.00,0.0004
1829.00,0.0005
1828.00,0.0006
1827.00,0.0006
1826.00,0.0006
1825.00,0.0006
1824.00,0.0006
1823.00,0.0006
1822.00,0.0006
1821.00,0.0005
1820.00,0.0004
1819.00,0.0003
1818.00,0.0002
1817.00,0.0001
1816.00,0.0002
1815.00,0.0002
1814.00,0.0003
1813.00,0.0003
1812.00,0.0003
1811.00,0.0003
1810.00,0.0003
1809.00,0.0004
1808.00,0.0004
1807.00,0.0005
1806.00,0.0005
1805.00,0.0005
1804.00,0.0005
1803.00,0.0006
1802.00,0.0006
1801.00,0.0006
1800.00,0.0006
1799.00,0.0005
1798.00,0.0006
1797.00,0.0006
1796.00,0.0006
1795.00,0.0007
1794.00,0.0007
1793.00,0.0008
1792.00,0.0008
1791.00,0.0008
1790.00,0.0009
1789.00,0.0009
1788.00,0.0010
1787.00,0.0010
1786.00,0.0010
1785.00,0.0010
1784.00,0.0010
1783.00,0.0009
1782.00,0.0009
1781.00,0.0009
1780.00,0.0009
1779.00,0.0009
1778.00,0.0009
1777.00,0.0009
1776.00,0.0010
1775.00,0.0010
1774.00,0.0010
1773.00,0.0011
1772.00,0.0011
1771.00,0.0012
1770.00,0.0012
1769.00,0.0012
1768.00,0.0012
1767.00,0.0012
1766.00,0.0012
1765.00,0.0012
1764.00,0.0013
1763.00,0.0013
1762.00,0.0014
1761.00,0.0014
1760.00,0.0014
1759.00,0.0014
1758.00,0.0014
1757.00,0.0014
1756.00,0.0015
1755.00,0.0015
1754.00,0.0015
1753.00,0.0016
1752.00,0.0016
1751.00,0.0017
1750.00,0.0017
1749.00,0.0018
1748.00,0.0017
1747.00,0.0017
1746.00,0.0017
1745.00,0.0017
1744.00,0.0018
1743.00,0.0019
1742.00,0.0019
1741.00,0.0020
1740.00,0.0020
1739.00,0.0020
1738.00,0.0021
1737.00,0.0021
1736.00,0.0021
1735.00,0.0021
1734.00,0.0022
1733.00,0.0022
1732.00,0.0022
1731.00,0.0021
1730.00,0.0021
1729.00,0.0021
1728.00,0.0021
1727.00,0.0021
1726.00,0.0021
1725.00,0.0021
1724.00,0.0021
1723.00,0.0021
1722.00,0.0021
1721.00,0.0021
1720.00,0.0021
1719.00,0.0021
1718.00,0.0021
1717.00,0.0022
1716.00,0.0022
1715.00,0.0023
1714.00,0.0023
1713.00,0.0023
1712.00,0.0024
1711.00,0.0024
1710.00,0.0025
1709.00,0.0026
1708.00,0.0026
1707.00,0.0026
1706.00,0.0026
1705.00,0.0026
1704.00,0.0026
1703.00,0.0026
1702.00,0.0027
1701.00,0.0027
1700.00,0.0028
1699.00,0.0028
1698.00,0.0029
1697.00,0.0029
1696.00,0.0029
1695.00,0.0029
1694.00,0.0029
1693.00,0.0029
1692.00,0.0030
1691.00,0.0031
1690.00,0.0031
1689.00,0.0032
1688.00,0.0033
1687.00,0.0033
1686.00,0.0034
1685.00,0.0034
1684.00,0.0035
1683.00,0.0036
1682.00,0.0037
1681.00,0.0038
1680.00,0.0039
1679.00,0.0040
1678.00,0.0040
1677.00,0.0041
1676.00,0.0041
1675.00,0.0042
1674.00,0.0042
1673.00,0.0043
1672.00,0.0044
1671.00,0.0044
1670.00,0.0044
1669.00,0.0045
1668.00,0.0045
1667.00,0.0045
1666.00,0.0046
1665.00,0.0046
1664.00,0.0047
1663.00,0.0048
1662.00,0.0048
1661.00,0.0049
1660.00,0.0049
1659.00,0.0050
1658.00,0.0050
1657.00,0.0051
1656.00,0.0052
1655.00,0.0053
1654.00,0.0054
1653.00,0.0055
1652.00,0.0055
1651.00,0.0056
1650.00,0.0056
1649.00,0.0058
1648.00,0.0060
1647.00,0.0062
1646.00,0.0063
1645.00,0.0064
1644.00,0.0064
1643.00,0.0063
1642.00,0.0063
1641.00,0.0063
1640.00,0.0063
1639.00,0.0063
1638.00,0.0063
1637.00,0.0063
1636.00,0.0063
1635.00,0.0063
1634.00,0.0062
1633.00,0.0062
1632.00,0.0062
1631.00,0.0063
1630.00,0.0063
1629.00,0.0063
1628.00,0.0063
1627.00,0.0063
1626.00,0.0063
1625.00,0.0063
1624.00,0.0063
1623.00,0.0063
1622.00,0.0062
1621.00,0.0061
1620.00,0.0061
1619.00,0.0060
1618.00,0.0060
1617.00,0.0060
1616.00,0.0060
1615.00,0.0060
1614.00,0.0060
1613.00,0.0060
1612.00,0.0060
1611.00,0.0060
1610.00,0.0059
1609.00,0.0059
1608.00,0.0060
1607.00,0.0060
1606.00,0.0060
1605.00,0.0060
1604.00,0.0060
1603.00,0.0060
1602.00,0.0060
1601.00,0.0060
1600.00,0.0060
1599.00,0.0059
1598.00,0.0059
1597.00,0.0059
1596.00,0.0059
1595.00,0.0059
1594.00,0.0059
1593.00,0.0060
1592.00,0.0061
1591.00,0.0061
1590.00,0.0062
1589.00,0.0063
1588.00,0.0064
1587.00,0.0065
1586.00,0.0066
1585.00,0.0068
1584.00,0.0070
1583.00,0.0072
1582.00,0.0076
1581.00,0.0079
1580.00,0.0083
1579.00,0.0086
1578.00,0.0088
1577.00,0.0088
1576.00,0.0088
1575.00,0.0086
1574.00,0.0083
1573.00,0.0081
1572.00,0.0079
1571.00,0.0077
1570.00,0.0075
1569.00,0.0073
1568.00,0.0071
1567.00,0.0069
1566.00,0.0068
1565.00,0.0067
1564.00,0.0067
1563.00,0.0067
1562.00,0.0067
1561.00,0.0067
1560.00,0.0067
1559.00,0.0067
1558.00,0.0067
1557.00,0.0068
1556.00,0.0069
1555.00,0.0070
1554.00,0.0071
1553.00,0.0072
1552.00,0.0074
1551.00,0.0075
1550.00,0.0076
1549.00,0.0077
1548.00,0.0079
1547.00,0.0081
1546.00,0.0085
1545.00,0.0089
1544.00,0.0093
1543.00,0.0095
1542.00,0.0096
1541.00,0.0096
1540.00,0.0094
1539.00,0.0091
1538.00,0.0087
1537.00,0.0084
1536.00,0.0081
1535.00,0.0077
1534.00,0.0072
1533.00,0.0069
1532.00,0.0066
1531.00,0.0064
1530.00,0.0062
1529.00,0.0061
1528.00,0.0061
1527.00,0.0060
1526.00,0.0059
1525.00,0.0058
1524.00,0.0058
1523.00,0.0058
1522.00,0.0058
1521.00,0.0058
1520.00,0.0058
1519.00,0.0058
1518.00,0.0058
1517.00,0.0058
1516.00,0.0059
1515.00,0.0058
1514.00,0.0058
1513.00,0.0059
1512.00,0.0059
1511.00,0.0060
1510.00,0.0061
1509.00,0.0063
1508.00,0.0065
1507.00,0.0066
1506.00,0.0066
1505.00,0.0067
1504.00,0.0068
1503.00,0.0069
1502.00,0.0070
1501.00,0.0073
1500.00,0.0075
1499.00,0.0078
1498.00,0.0080
1497.00,0.0084
1496.00,0.0088
1495.00,0.0090
1494.00,0.0092
1493.00,0.0095
1492.00,0.0100
1491.00,0.0104
1490.00,0.0109
1489.00,0.0115
1488.00,0.0121
1487.00,0.0126
1486.00,0.0131
1485.00,0.0138
1484.00,0.0145
1483.00,0.0154
1482.00,0.0164
1481.00,0.0176
1480.00,0.0189
1479.00,0.0202
1478.00,0.0217
1477.00,0.0236
1476.00,0.0258
1475.00,0.0282
1474.00,0.0316
1473.00,0.0368
1472.00,0.0431
1471.00,0.0493
1470.00,0.0553
1469.00,0.0616
1468.00,0.0683
1467.00,0.0759
1466.00,0.0845
1465.00,0.0941
1464.00,0.1025
1463.00,0.1085
1462.00,0.1123
1461.00,0.1150
1460.00,0.1170
1459.00,0.1184
1458.00,0.1200
1457.00,0.1217
1456.00,0.1225
1455.00,0.1223
1454.00,0.1213
1453.00,0.1198
1452.00,0.1174
1451.00,0.1138
1450.00,0.1085
1449.00,0.1012
1448.00,0.0918
1447.00,0.0818
1446.00,0.0728
1445.00,0.0652
1444.00,0.0587
1443.00,0.0534
1442.00,0.0496
1441.00,0.0470
1440.00,0.0455
1439.00,0.0450
1438.00,0.0452
1437.00,0.0455
1436.00,0.0446
1435.00,0.0419
1434.00,0.0379
1433.00,0.0332
1432.00,0.0284
1431.00,0.0242
1430.00,0.0211
1429.00,0.0188
1428.00,0.0173
1427.00,0.0164
1426.00,0.0159
1425.00,0.0154
1424.00,0.0149
1423.00,0.0146
1422.00,0.0144
1421.00,0.0143
1420.00,0.0140
1419.00,0.0138
1418.00,0.0136
1417.00,0.0132
1416.00,0.0129
1415.00,0.0127
1414.00,0.0125
1413.00,0.0124
1412.00,0.0122
1411.00,0.0122
1410.00,0.0122
1409.00,0.0121
1408.00,0.0120
1407.00,0.0120
1406.00,0.0120
1405.00,0.0120
1404.00,0.0120
1403.00,0.0120
1402.00,0.0121
1401.00,0.0122
1400.00,0.0123
1399.00,0.0124
1398.00,0.0127
1397.00,0.0129
1396.00,0.0131
1395.00,0.0136
1394.00,0.0141
1393.00,0.0146
1392.00,0.0152
1391.00,0.0161
1390.00,0.0174
1389.00,0.0191
1388.00,0.0217
1387.00,0.0256
1386.00,0.0306
1385.00,0.0369
1384.00,0.0452
1383.00,0.0563
1382.00,0.0709
1381.00,0.0896
1380.00,0.1129
1379.00,0.1398
1378.00,0.1666
1377.00,0.1872
1376.00,0.1956
1375.00,0.1878
1374.00,0.1657
1373.00,0.1376
1372.00,0.1112
1371.00,0.0891
1370.00,0.0713
1369.00,0.0578
1368.00,0.0485
1367.00,0.0429
1366.00,0.0398
1365.00,0.0387
1364.00,0.0390
1363.00,0.0406
1362.00,0.0429
1361.00,0.0453
1360.00,0.0471
1359.00,0.0475
1358.00,0.0463
1357.00,0.0435
1356.00,0.0394
1355.00,0.0350
1354.00,0.0306
1353.00,0.0270
1352.00,0.0240
1351.00,0.0217
1350.00,0.0198
1349.00,0.0183
1348.00,0.0171
1347.00,0.0161
1346.00,0.0153
1345.00,0.0146
1344.00,0.0141
1343.00,0.0138
1342.00,0.0135
1341.00,0.0132
1340.00,0.0129
1339.00,0.0127
1338.00,0.0126
1337.00,0.0126
1336.00,0.0126
1335.00,0.0128
1334.00,0.0131
1333.00,0.0135
1332.00,0.0140
1331.00,0.0143
1330.00,0.0145
1329.00,0.0143
1328.00,0.0140
1327.00,0.0134
1326.00,0.0127
1325.00,0.0120
1324.00,0.0114
1323.00,0.0108
1322.00,0.0104
1321.00,0.0101
1320.00,0.0099
1319.00,0.0096
1318.00,0.0094
1317.00,0.0092
1316.00,0.0090
1315.00,0.0089
1314.00,0.0088
1313.00,0.0088
1312.00,0.0089
1311.00,0.0092
1310.00,0.0096
1309.00,0.0103
1308.00,0.0112
1307.00,0.0124
1306.00,0.0135
1305.00,0.0142
1304.00,0.0145
1303.00,0.0143
1302.00,0.0138
1301.00,0.0134
1300.00,0.0132
1299.00,0.0131
1298.00,0.0132
1297.00,0.0132
1296.00,0.0131
1295.00,0.0128
1294.00,0.0124
1293.00,0.0118
1292.00,0.0112
1291.00,0.0107
1290.00,0.0102
1289.00,0.0098
1288.00,0.0095
1287.00,0.0092
1286.00,0.0090
1285.00,0.0087
1284.00,0.0085
1283.00,0.0083
1282.00,0.0082
1281.00,0.0081
1280.00,0.0081
1279.00,0.0080
1278.00,0.0079
1277.00,0.0078
1276.00,0.0077
1275.00,0.0077
1274.00,0.0077
1273.00,0.0078
1272.00,0.0079
1271.00,0.0079
1270.00,0.0080
1269.00,0.0081
1268.00,0.0081
1267.00,0.0082
1266.00,0.0083
1265.00,0.0085
1264.00,0.0087
1263.00,0.0090
1262.00,0.0093
1261.00,0.0098
1260.00,0.0103
1259.00,0.0110
1258.00,0.0118
1257.00,0.0125
1256.00,0.0130
1255.00,0.0129
1254.00,0.0124
1253.00,0.0117
1252.00,0.0109
1251.00,0.0102
1250.00,0.0097
1249.00,0.0094
1248.00,0.0092
1247.00,0.0090
1246.00,0.0089
1245.00,0.0088
1244.00,0.0088
1243.00,0.0087
1242.00,0.0086
1241.00,0.0085
1240.00,0.0084
1239.00,0.0084
1238.00,0.0084
1237.00,0.0084
1236.00,0.0084
1235.00,0.0084
1234.00,0.0084
1233.00,0.0084
1232.00,0.0083
1231.00,0.0084
1230.00,0.0084
1229.00,0.0085
1228.00,0.0086
1227.00,0.0087
1226.00,0.0088
1225.00,0.0091
1224.00,0.0094
1223.00,0.0098
1222.00,0.0102
1221.00,0.0105
1220.00,0.0107
1219.00,0.0108
1218.00,0.0108
1217.00,0.0107
1216.00,0.0105
1215.00,0.0102
1214.00,0.0099
1213.00,0.0096
1212.00,0.0092
1211.00,0.0089
1210.00,0.0087
1209.00,0.0085
1208.00,0.0084
1207.00,0.0083
1206.00,0.0082
1205.00,0.0080
1204.00,0.0079
1203.00,0.0079
1202.00,0.0079
1201.00,0.0078
1200.00,0.0078
1199.00,0.0079
1198.00,0.0079
1197.00,0.0079
1196.00,0.0079
1195.00,0.0079
1194.00,0.0079
1193.00,0.0079
1192.00,0.0078
1191.00,0.0078
1190.00,0.0079
1189.00,0.0079
1188.00,0.0079
1187.00,0.0080
1186.00,0.0080
1185.00,0.0081
1184.00,0.0081
1183.00,0.0082
1182.00,0.0084
1181.00,0.0086
1180.00,0.0090
1179.00,0.0095
1178.00,0.0101
1177.00,0.0110
1176.00,0.0121
1175.00,0.0136
1174.00,0.0155
1173.00,0.0179
1172.00,0.0209
1171.00,0.0241
1170.00,0.0273
1169.00,0.0300
1168.00,0.0316
1167.00,0.0320
1166.00,0.0313
1165.00,0.0299
1164.00,0.0281
1163.00,0.0263
1162.00,0.0248
1161.00,0.0235
1160.00,0.0225
1159.00,0.0217
1158.00,0.0211
1157.00,0.0205
1156.00,0.0202
1155.00,0.0199
1154.00,0.0198
1153.00,0.0195
1152.00,0.0191
1151.00,0.0185
1150.00,0.0177
1149.00,0.0167
1148.00,0.0158
1147.00,0.0149
1146.00,0.0140
1145.00,0.0132
1144.00,0.0124
1143.00,0.0117
1142.00,0.0112
1141.00,0.0107
1140.00,0.0103
1139.00,0.0099
1138.00,0.0096
1137.00,0.0093
1136.00,0.0090
1135.00,0.0088
1134.00,0.0086
1133.00,0.0085
1132.00,0.0084
1131.00,0.0085
1130.00,0.0086
1129.00,0.0087
1128.00,0.0088
1127.00,0.0089
1126.00,0.0090
1125.00,0.0090
1124.00,0.0090
1123.00,0.0090
1122.00,0.0090
1121.00,0.0090
1120.00,0.0091
1119.00,0.0091
1118.00,0.0091
1117.00,0.0092
1116.00,0.0093
1115.00,0.0094
1114.00,0.0096
1113.00,0.0097
1112.00,0.0099
1111.00,0.0101
1110.00,0.0104
1109.00,0.0109
1108.00,0.0115
1107.00,0.0122
1106.00,0.0129
1105.00,0.0136
1104.00,0.0141
1103.00,0.0143
1102.00,0.0142
1101.00,0.0139
1100.00,0.0135
1099.00,0.0130
1098.00,0.0124
1097.00,0.0118
1096.00,0.0112
1095.00,0.0107
1094.00,0.0103
1093.00,0.0100
1092.00,0.0098
1091.00,0.0096
1090.00,0.0094
1089.00,0.0091
1088.00,0.0088
1087.00,0.0086
1086.00,0.0085
1085.00,0.0084
1084.00,0.0084
1083.00,0.0084
1082.00,0.0083
1081.00,0.0082
1080.00,0.0081
1079.00,0.0080
1078.00,0.0079
1077.00,0.0078
1076.00,0.0077
1075.00,0.0076
1074.00,0.0075
1073.00,0.0074
1072.00,0.0073
1071.00,0.0073
1070.00,0.0073
1069.00,0.0073
1068.00,0.0074
1067.00,0.0074
1066.00,0.0075
1065.00,0.0075
1064.00,0.0075
1063.00,0.0076
1062.00,0.0077
1061.00,0.0077
1060.00,0.0077
1059.00,0.0077
1058.00,0.0078
1057.00,0.0078
1056.00,0.0079
1055.00,0.0080
1054.00,0.0081
1053.00,0.0082
1052.00,0.0083
1051.00,0.0085
1050.00,0.0088
1049.00,0.0090
1048.00,0.0093
1047.00,0.0095
1046.00,0.0097
1045.00,0.0098
1044.00,0.0098
1043.00,0.0096
1042.00,0.0094
1041.00,0.0092
1040.00,0.0092
1039.00,0.0092
1038.00,0.0094
1037.00,0.0096
1036.00,0.0097
1035.00,0.0097
1034.00,0.0096
1033.00,0.0094
1032.00,0.0093
1031.00,0.0092
1030.00,0.0090
1029.00,0.0088
1028.00,0.0087
1027.00,0.0086
1026.00,0.0086
1025.00,0.0087
1024.00,0.0088
1023.00,0.0088
1022.00,0.0087
1021.00,0.0087
1020.00,0.0087
1019.00,0.0088
1018.00,0.0090
1017.00,0.0092
1016.00,0.0095
1015.00,0.0098
1014.00,0.0101
1013.00,0.0106
1012.00,0.0111
1011.00,0.0116
1010.00,0.0119
1009.00,0.0122
1008.00,0.0127
1007.00,0.0133
1006.00,0.0142
1005.00,0.0153
1004.00,0.0168
1003.00,0.0189
1002.00,0.0217
1001.00,0.0251
1000.00,0.0288
999.00,0.0318
998.00,0.0333
997.00,0.0327
996.00,0.0301
995.00,0.0265
994.00,0.0226
993.00,0.0191
992.00,0.0163
991.00,0.0144
990.00,0.0130
989.00,0.0121
988.00,0.0115
987.00,0.0112
986.00,0.0112
985.00,0.0113
984.00,0.0117
983.00,0.0124
982.00,0.0135
981.00,0.0150
980.00,0.0172
979.00,0.0200
978.00,0.0235
977.00,0.0277
976.00,0.0322
975.00,0.0366
974.00,0.0398
973.00,0.0410
972.00,0.0397
971.00,0.0361
970.00,0.0312
969.00,0.0262
968.00,0.0218
967.00,0.0184
966.00,0.0159
965.00,0.0141
964.00,0.0127
963.00,0.0117
962.00,0.0109
961.00,0.0103
960.00,0.0098
959.00,0.0094
958.00,0.0091
957.00,0.0088
956.00,0.0086
955.00,0.0084
954.00,0.0083
953.00,0.0083
952.00,0.0081
951.00,0.0080
950.00,0.0079
949.00,0.0080
948.00,0.0081
947.00,0.0082
946.00,0.0084
945.00,0.0087
944.00,0.0091
943.00,0.0094
942.00,0.0097
941.00,0.0098
940.00,0.0096
939.00,0.0093
938.00,0.0089
937.00,0.0084
936.00,0.0080
935.00,0.0076
934.00,0.0073
933.00,0.0071
932.00,0.0069
931.00,0.0068
930.00,0.0067
929.00,0.0066
928.00,0.0065
927.00,0.0064
926.00,0.0063
925.00,0.0063
924.00,0.0064
923.00,0.0064
922.00,0.0065
921.00,0.0066
920.00,0.0068
919.00,0.0069
918.00,0.0071
917.00,0.0072
916.00,0.0073
915.00,0.0073
914.00,0.0074
913.00,0.0075
912.00,0.0076
911.00,0.0077
910.00,0.0079
909.00,0.0081
908.00,0.0083
907.00,0.0087
906.00,0.0094
905.00,0.0103
904.00,0.0117
903.00,0.0135
902.00,0.0155
901.00,0.0175
900.00,0.0189
899.00,0.0194
898.00,0.0187
897.00,0.0171
896.00,0.0151
895.00,0.0131
894.00,0.0114
893.00,0.0102
892.00,0.0094
891.00,0.0087
890.00,0.0082
889.00,0.0078
888.00,0.0075
887.00,0.0074
886.00,0.0074
885.00,0.0074
884.00,0.0074
883.00,0.0074
882.00,0.0075
881.00,0.0075
880.00,0.0075
879.00,0.0074
878.00,0.0074
877.00,0.0075
876.00,0.0075
875.00,0.0075
874.00,0.0075
873.00,0.0076
872.00,0.0076
871.00,0.0077
870.00,0.0077
869.00,0.0076
868.00,0.0075
867.00,0.0075
866.00,0.0075
865.00,0.0076
864.00,0.0078
863.00,0.0080
862.00,0.0082
861.00,0.0084
860.00,0.0085
859.00,0.0085
858.00,0.0085
857.00,0.0086
856.00,0.0088
855.00,0.0091
854.00,0.0093
853.00,0.0096
852.00,0.0098
851.00,0.0102
850.00,0.0106
849.00,0.0112
848.00,0.0122
847.00,0.0136
846.00,0.0158
845.00,0.0190
844.00,0.0233
843.00,0.0279
842.00,0.0315
841.00,0.0323
840.00,0.0300
839.00,0.0258
838.00,0.0213
837.00,0.0178
836.00,0.0156
835.00,0.0143
834.00,0.0133
833.00,0.0127
832.00,0.0121
831.00,0.0116
830.00,0.0112
829.00,0.0109
828.00,0.0106
827.00,0.0106
826.00,0.0106
825.00,0.0106
824.00,0.0107
823.00,0.0108
822.00,0.0108
821.00,0.0109
820.00,0.0111
819.00,0.0112
818.00,0.0115
817.00,0.0120
816.00,0.0128
815.00,0.0138
814.00,0.0152
813.00,0.0170
812.00,0.0189
811.00,0.0208
810.00,0.0221
809.00,0.0225
808.00,0.0222
807.00,0.0211
806.00,0.0196
805.00,0.0180
804.00,0.0163
803.00,0.0149
802.00,0.0136
801.00,0.0127
800.00,0.0119
799.00,0.0113
798.00,0.0108
797.00,0.0103
796.00,0.0098
795.00,0.0094
794.00,0.0091
793.00,0.0088
792.00,0.0086
791.00,0.0085
790.00,0.0083
789.00,0.0081
788.00,0.0080
787.00,0.0078
786.00,0.0076
785.00,0.0074
784.00,0.0072
783.00,0.0071
782.00,0.0069
781.00,0.0067
780.00,0.0065
779.00,0.0064
778.00,0.0063
777.00,0.0064
776.00,0.0065
775.00,0.0067
774.00,0.0069
773.00,0.0072
772.00,0.0075
771.00,0.0078
770.00,0.0081
769.00,0.0083
768.00,0.0084
767.00,0.0083
766.00,0.0082
765.00,0.0079
764.00,0.0077
763.00,0.0074
762.00,0.0071
761.00,0.0068
760.00,0.0066
759.00,0.0064
758.00,0.0063
757.00,0.0061
756.00,0.0060
755.00,0.0059
754.00,0.0059
753.00,0.0058
752.00,0.0057
751.00,0.0057
750.00,0.0058
749.00,0.0059
748.00,0.0060
747.00,0.0061
746.00,0.0060
745.00,0.0059
744.00,0.0058
743.00,0.0058
742.00,0.0060
741.00,0.0064
740.00,0.0067
739.00,0.0069
738.00,0.0070
737.00,0.0071
736.00,0.0072
735.00,0.0072
734.00,0.0073
733.00,0.0075
732.00,0.0075
731.00,0.0074
730.00,0.0073
729.00,0.0071
728.00,0.0071
727.00,0.0072
726.00,0.0073
725.00,0.0073
724.00,0.0073
723.00,0.0073
722.00,0.0073
721.00,0.0073
720.00,0.0071
719.00,0.0069
718.00,0.0066
717.00,0.0064
716.00,0.0062
715.00,0.0061
714.00,0.0062
713.00,0.0062
712.00,0.0062
711.00,0.0062
710.00,0.0061
709.00,0.0062
708.00,0.0063
707.00,0.0064
706.00,0.0065
705.00,0.0066
704.00,0.0065
703.00,0.0063
702.00,0.0062
701.00,0.0060
700.00,0.0059
699.00,0.0058
698.00,0.0058
697.00,0.0057
696.00,0.0058
695.00,0.0058
694.00,0.0059
693.00,0.0059
692.00,0.0058
691.00,0.0058
690.00,0.0058
689.00,0.0059
688.00,0.0060
687.00,0.0061
686.00,0.0061
685.00,0.0061
684.00,0.0061
683.00,0.0060
682.00,0.0058
681.00,0.0057
680.00,0.0057
679.00,0.0057
678.00,0.0057
677.00,0.0057
676.00,0.0059
675.00,0.0060
674.00,0.0062
673.00,0.0061
672.00,0.0060
671.00,0.0059
670.00,0.0060
669.00,0.0061
668.00,0.0062
667.00,0.0062
666.00,0.0061
665.00,0.0059
664.00,0.0059
663.00,0.0060
662.00,0.0061
661.00,0.0062
660.00,0.0062
659.00,0.0060
658.00,0.0058
657.00,0.0056
656.00,0.0056
655.00,0.0057
654.00,0.0057
653.00,0.0057
652.00,0.0057
651.00,0.0059
650.00,0.0061
649.00,0.0062
648.00,0.0060
647.00,0.0058
646.00,0.0057
645.00,0.0057
644.00,0.0058
643.00,0.0059
642.00,0.0060
641.00,0.0061
640.00,0.0062
639.00,0.0064
638.00,0.0066
637.00,0.0067
636.00,0.0066
635.00,0.0065
634.00,0.0064
633.00,0.0064
632.00,0.0064
631.00,0.0063
630.00,0.0061
629.00,0.0059
628.00,0.0059
627.00,0.0061
626.00,0.0063
625.00,0.0064
624.00,0.0064
623.00,0.0062
622.00,0.0061
621.00,0.0060
620.00,0.0060
619.00,0.0061
618.00,0.0063
617.00,0.0066
616.00,0.0068
615.00,0.0069
614.00,0.0068
613.00,0.0066
612.00,0.0064
611.00,0.0064
610.00,0.0064
609.00,0.0063
608.00,0.0061
607.00,0.0058
606.00,0.0056
605.00,0.0055
604.00,0.0054
603.00,0.0056
602.00,0.0059
601.00,0.0062
600.00,0.0064
599.00,0.0064
598.00,0.0062
597.00,0.0061
596.00,0.0060
595.00,0.0061
594.00,0.0062
593.00,0.0062
592.00,0.0062
591.00,0.0061
590.00,0.0060
589.00,0.0060
588.00,0.0061
587.00,0.0062
586.00,0.0064
585.00,0.0066
584.00,0.0067
583.00,0.0069
582.00,0.0070
581.00,0.0071
580.00,0.0070
579.00,0.0068
578.00,0.0067
577.00,0.0067
576.00,0.0069
575.00,0.0069
574.00,0.0067
573.00,0.0065
572.00,0.0062
571.00,0.0060
570.00,0.0059
569.00,0.0060
568.00,0.0063
567.00,0.0066
566.00,0.0068
565.00,0.0067
564.00,0.0065
563.00,0.0063
562.00,0.0061
561.00,0.0059
560.00,0.0057
559.00,0.0057
558.00,0.0061
557.00,0.0066
556.00,0.0069
555.00,0.0070
554.00,0.0069
553.00,0.0067
552.00,0.0065
551.00,0.0064
550.00,0.0066
549.00,0.0070
548.00,0.0076
547.00,0.0080
546.00,0.0080
545.00,0.0077
544.00,0.0072
543.00,0.0068
542.00,0.0065
541.00,0.0064
540.00,0.0064
539.00,0.0065
538.00,0.0067
537.00,0.0068
536.00,0.0070
535.00,0.0073
534.00,0.0078
533.00,0.0081
532.00,0.0082
531.00,0.0083
530.00,0.0085
529.00,0.0088
528.00,0.0090
527.00,0.0091
526.00,0.0089
525.00,0.0087
524.00,0.0084
523.00,0.0084
522.00,0.0084
521.00,0.0084
520.00,0.0084
519.00,0.0081
518.00,0.0080
517.00,0.0078
516.00,0.0077
515.00,0.0073
514.00,0.0068
513.00,0.0062
512.00,0.0060
511.00,0.0062
510.00,0.0066
509.00,0.0069
508.00,0.0069
507.00,0.0069
506.00,0.0068
505.00,0.0069
504.00,0.0070
503.00,0.0072
502.00,0.0074
501.00,0.0076
500.00,0.0077
499.00,0.0076
498.00,0.0074
497.00,0.0070
496.00,0.0066
495.00,0.0063
494.00,0.0063
493.00,0.0066
492.00,0.0068
491.00,0.0068
490.00,0.0063
489.00,0.0058
488.00,0.0057
487.00,0.0063
486.00,0.0068
485.00,0.0069
484.00,0.0067
483.00,0.0066
482.00,0.0070
481.00,0.0072
480.00,0.0071
479.00,0.0068
478.00,0.0066
477.00,0.0067
476.00,0.0067
475.00,0.0068
474.00,0.0071
473.00,0.0074
472.00,0.0078
471.00,0.0082
470.00,0.0087
469.00,0.0095
468.00,0.0102
467.00,0.0104
466.00,0.0102
465.00,0.0101
464.00,0.0106
463.00,0.0117
462.00,0.0128
461.00,0.0134
460.00,0.0133
459.00,0.0132
458.00,0.0135
457.00,0.0143
456.00,0.0151
455.00,0.0153
454.00,0.0147
453.00,0.0137
452.00,0.0128
451.00,0.0121
450.00,0.0113
