Created as New Dataset,Sample 085 By Administrator Date Wednesday, September 10 2025
cm-1,A
4000.00,0.0010
3999.00,0.0010
3998.00,0.0009
3997.00,0.0009
3996.00,0.0009
3995.00,0.0009
3994.00,0.0009
3993.00,0.0010
3992.00,0.0010
3991.00,0.0010
3990.00,0.0010
3989.00,0.0010
3988.00,0.0010
3987.00,0.0009
3986.00,0.0009
3985.00,0.0009
3984.00,0.0009
3983.00,0.0009
3982.00,0.0009
3981.00,0.0008
3980.00,0.0008
3979.00,0.0008
3978.00,0.0009
3977.00,0.0009
3976.00,0.0009
3975.00,0.0009
3974.00,0.0009
3973.00,0.0009
3972.00,0.0009
3971.00,0.0009
3970.00,0.0009
3969.00,0.0009
3968.00,0.0009
3967.00,0.0009
3966.00,0.0009
3965.00,0.0008
3964.00,0.0008
3963.00,0.0008
3962.00,0.0008
3961.00,0.0008
3960.00,0.0008
3959.00,0.0008
3958.00,0.0008
3957.00,0.0008
3956.00,0.0008
3955.00,0.0008
3954.00,0.0008
3953.00,0.0009
3952.00,0.0009
3951.00,0.0009
3950.00,0.0010
3949.00,0.0010
3948.00,0.0010
3947.00,0.0010
3946.00,0.0009
3945.00,0.0009
3944.00,0.0009
3943.00,0.0009
3942.00,0.0009
3941.00,0.0009
3940.00,0.0009
3939.00,0.0009
3938.00,0.0009
3937.00,0.0009
3936.00,0.0009
3935.00,0.0009
3934.00,0.0009
3933.00,0.0009
3932.00,0.0009
3931.00,0.0009
3930.00,0.0009
3929.00,0.0009
3928.00,0.0008
3927.00,0.0008
3926.00,0.0009
3925.00,0.0009
3924.00,0.0009
3923.00,0.0009
3922.00,0.0008
3921.00,0.0008
3920.00,0.0008
3919.00,0.0009
3918.00,0.0009
3917.00,0.0009
3916.00,0.0009
3915.00,0.0009
3914.00,0.0009
3913.00,0.0009
3912.00,0.0009
3911.00,0.0008
3910.00,0.0008
3909.00,0.0008
3908.00,0.0008
3907.00,0.0009
3906.00,0.0010
3905.00,0.0010
3904.00,0.0011
3903.00,0.0011
3902.00,0.0010
3901.00,0.0010
3900.00,0.0010
3899.00,0.0009
3898.00,0.0009
3897.00,0.0009
3896.00,0.0009
3895.00,0.0009
3894.00,0.0009
3893.00,0.0009
3892.00,0.0008
3891.00,0.0008
3890.00,0.0008
3889.00,0.0008
3888.00,0.0008
3887.00,0.0008
3886.00,0.0008
3885.00,0.0008
3884.00,0.0008
3883.00,0.0008
3882.00,0.0009
3881.00,0.0009
3880.00,0.0009
3879.00,0.0009
3878.00,0.0008
3877.00,0.0008
3876.00,0.0008
3875.00,0.0009
3874.00,0.0009
3873.00,0.0009
3872.00,0.0009
3871.00,0.0009
3870.00,0.0009
3869.00,0.0009
3868.00,0.0009
3867.00,0.0009
3866.00,0.0009
3865.00,0.0010
3864.00,0.0009
3863.00,0.0009
3862.00,0.0009
3861.00,0.0008
3860.00,0.0008
3859.00,0.0008
3858.00,0.0008
3857.00,0.0009
3856.00,0.0010
3855.00,0.0011
3854.00,0.0011
3853.00,0.0011
3852.00,0.0011
3851.00,0.0010
3850.00,0.0010
3849.00,0.0009
3848.00,0.0008
3847.00,0.0008
3846.00,0.0008
3845.00,0.0008
3844.00,0.0008
3843.00,0.0009
3842.00,0.0009
3841.00,0.0009
3840.00,0.0009
3839.00,0.0009
3838.00,0.0008
3837.00,0.0008
3836.00,0.0009
3835.00,0.0009
3834.00,0.0009
3833.00,0.0009
3832.00,0.0009
3831.00,0.0009
3830.00,0.0009
3829.00,0.0009
3828.00,0.0009
3827.00,0.0008
3826.00,0.0008
3825.00,0.0008
3824.00,0.0008
3823.00,0.0008
3822.00,0.0009
3821.00,0.0009
3820.00,0.0009
3819.00,0.0009
3818.00,0.0009
3817.00,0.0009
3816.00,0.0010
3815.00,0.0010
3814.00,0.0009
3813.00,0.0009
3812.00,0.0009
3811.00,0.0009
3810.00,0.0009
3809.00,0.0008
3808.00,0.0008
3807.00,0.0008
3806.00,0.0008
3805.00,0.0008
3804.00,0.0009
3803.00,0.0009
3802.00,0.0009
3801.00,0.0010
3800.00,0.0010
3799.00,0.0010
3798.00,0.0010
3797.00,0.0009
3796.00,0.0009
3795.00,0.0008
3794.00,0.0008
3793.00,0.0007
3792.00,0.0007
3791.00,0.0007
3790.00,0.0007
3789.00,0.0007
3788.00,0.0008
3787.00,0.0008
3786.00,0.0008
3785.00,0.0008
3784.00,0.0008
3783.00,0.0008
3782.00,0.0008
3781.00,0.0008
3780.00,0.0008
3779.00,0.0008
3778.00,0.0008
3777.00,0.0008
3776.00,0.0008
3775.00,0.0008
3774.00,0.0008
3773.00,0.0009
3772.00,0.0009
3771.00,0.0009
3770.00,0.0009
3769.00,0.0009
3768.00,0.0009
3767.00,0.0009
3766.00,0.0009
3765.00,0.0009
3764.00,0.0009
3763.00,0.0009
3762.00,0.0009
3761.00,0.0008
3760.00,0.0008
3759.00,0.0008
3758.00,0.0008
3757.00,0.0009
3756.00,0.0009
3755.00,0.0010
3754.00,0.0010
3753.00,0.0010
3752.00,0.0010
3751.00,0.0010
3750.00,0.0010
3749.00,0.0010
3748.00,0.0010
3747.00,0.0010
3746.00,0.0009
3745.00,0.0009
3744.00,0.0009
3743.00,0.0010
3742.00,0.0010
3741.00,0.0010
3740.00,0.0010
3739.00,0.0010
3738.00,0.0010
3737.00,0.0010
3736.00,0.0010
3735.00,0.0010
3734.00,0.0009
3733.00,0.0009
3732.00,0.0009
3731.00,0.0009
3730.00,0.0008
3729.00,0.0008
3728.00,0.0008
3727.00,0.0008
3726.00,0.0008
3725.00,0.0008
3724.00,0.0008
3723.00,0.0008
3722.00,0.0008
3721.00,0.0008
3720.00,0.0008
3719.00,0.0008
3718.00,0.0008
3717.00,0.0007
3716.00,0.0007
3715.00,0.0007
3714.00,0.0008
3713.00,0.0008
3712.00,0.0008
3711.00,0.0008
3710.00,0.0008
3709.00,0.0008
3708.00,0.0008
3707.00,0.0008
3706.00,0.0008
3705.00,0.0007
3704.00,0.0007
3703.00,0.0007
3702.00,0.0007
3701.00,0.0007
3700.00,0.0007
3699.00,0.0007
3698.00,0.0007
3697.00,0.0007
3696.00,0.0007
3695.00,0.0007
3694.00,0.0007
3693.00,0.0007
3692.00,0.0007
3691.00,0.0007
3690.00,0.0007
3689.00,0.0007
3688.00,0.0008
3687.00,0.0008
3686.00,0.0008
3685.00,0.0008
3684.00,0.0008
3683.00,0.0008
3682.00,0.0008
3681.00,0.0009
3680.00,0.0009
3679.00,0.0009
3678.00,0.0009
3677.00,0.0009
3676.00,0.0010
3675.00,0.0010
3674.00,0.0010
3673.00,0.0010
3672.00,0.0010
3671.00,0.0010
3670.00,0.0010
3669.00,0.0009
3668.00,0.0009
3667.00,0.0009
3666.00,0.0009
3665.00,0.0008
3664.00,0.0009
3663.00,0.0009
3662.00,0.0009
3661.00,0.0009
3660.00,0.0009
3659.00,0.0009
3658.00,0.0009
3657.00,0.0009
3656.00,0.0009
3655.00,0.0010
3654.00,0.0010
3653.00,0.0011
3652.00,0.0011
3651.00,0.0012
3650.00,0.0012
3649.00,0.0012
3648.00,0.0012
3647.00,0.0012
3646.00,0.0012
3645.00,0.0011
3644.00,0.0011
3643.00,0.0010
3642.00,0.0010
3641.00,0.0009
3640.00,0.0009
3639.00,0.0010
3638.00,0.0010
3637.00,0.0011
3636.00,0.0011
3635.00,0.0010
3634.00,0.0010
3633.00,0.0010
3632.00,0.0010
3631.00,0.0010
3630.00,0.0011
3629.00,0.0010
3628.00,0.0010
3627.00,0.0010
3626.00,0.0010
3625.00,0.0010
3624.00,0.0011
3623.00,0.0011
3622.00,0.0012
3621.00,0.0012
3620.00,0.0012
3619.00,0.0012
3618.00,0.0012
3617.00,0.0012
3616.00,0.0012
3615.00,0.0013
3614.00,0.0013
3613.00,0.0014
3612.00,0.0014
3611.00,0.0014
3610.00,0.0014
3609.00,0.0014
3608.00,0.0014
3607.00,0.0014
3606.00,0.0014
3605.00,0.0014
3604.00,0.0014
3603.00,0.0015
3602.00,0.0015
3601.00,0.0015
3600.00,0.0016
3599.00,0.0016
3598.00,0.0016
3597.00,0.0017
3596.00,0.0017
3595.00,0.0017
3594.00,0.0017
3593.00,0.0016
3592.00,0.0016
3591.00,0.0016
3590.00,0.0017
3589.00,0.0018
3588.00,0.0018
3587.00,0.0019
3586.00,0.0019
3585.00,0.0019
3584.00,0.0018
3583.00,0.0018
3582.00,0.0018
3581.00,0.0018
3580.00,0.0018
3579.00,0.0019
3578.00,0.0019
3577.00,0.0020
3576.00,0.0020
3575.00,0.0020
3574.00,0.0020
3573.00,0.0020
3572.00,0.0021
3571.00,0.0021
3570.00,0.0022
3569.00,0.0023
3568.00,0.0024
3567.00,0.0024
3566.00,0.0025
3565.00,0.0025
3564.00,0.0024
3563.00,0.0024
3562.00,0.0024
3561.00,0.0024
3560.00,0.0024
3559.00,0.0024
3558.00,0.0025
3557.00,0.0025
3556.00,0.0026
3555.00,0.0026
3554.00,0.0027
3553.00,0.0027
3552.00,0.0027
3551.00,0.0028
3550.00,0.0028
3549.00,0.0029
3548.00,0.0030
3547.00,0.0030
3546.00,0.0031
3545.00,0.0031
3544.00,0.0031
3543.00,0.0031
3542.00,0.0031
3541.00,0.0031
3540.00,0.0031
3539.00,0.0031
3538.00,0.0031
3537.00,0.0031
3536.00,0.0032
3535.00,0.0032
3534.00,0.0033
3533.00,0.0033
3532.00,0.0033
3531.00,0.0034
3530.00,0.0034
3529.00,0.0034
3528.00,0.0035
3527.00,0.0036
3526.00,0.0036
3525.00,0.0036
3524.00,0.0037
3523.00,0.0037
3522.00,0.0038
3521.00,0.0038
3520.00,0.0038
3519.00,0.0038
3518.00,0.0037
3517.00,0.0037
3516.00,0.0038
3515.00,0.0038
3514.00,0.0039
3513.00,0.0040
3512.00,0.0040
3511.00,0.0041
3510.00,0.0041
3509.00,0.0041
3508.00,0.0041
3507.00,0.0042
3506.00,0.0042
3505.00,0.0043
3504.00,0.0043
3503.00,0.0043
3502.00,0.0044
3501.00,0.0044
3500.00,0.0044
3499.00,0.0044
3498.00,0.0044
3497.00,0.0045
3496.00,0.0045
3495.00,0.0046
3494.00,0.0046
3493.00,0.0047
3492.00,0.0047
3491.00,0.0047
3490.00,0.0048
3489.00,0.0048
3488.00,0.0048
3487.00,0.0048
3486.00,0.0048
3485.00,0.0048
3484.00,0.0049
3483.00,0.0049
3482.00,0.0049
3481.00,0.0050
3480.00,0.0050
3479.00,0.0050
3478.00,0.0051
3477.00,0.0051
3476.00,0.0051
3475.00,0.0052
3474.00,0.0052
3473.00,0.0052
3472.00,0.0053
3471.00,0.0053
3470.00,0.0053
3469.00,0.0054
3468.00,0.0054
3467.00,0.0054
3466.00,0.0055
3465.00,0.0055
3464.00,0.0056
3463.00,0.0056
3462.00,0.0057
3461.00,0.0057
3460.00,0.0057
3459.00,0.0057
3458.00,0.0057
3457.00,0.0057
3456.00,0.0057
3455.00,0.0057
3454.00,0.0058
3453.00,0.0058
3452.00,0.0058
3451.00,0.0058
3450.00,0.0058
3449.00,0.0058
3448.00,0.0059
3447.00,0.0059
3446.00,0.0060
3445.00,0.0060
3444.00,0.0060
3443.00,0.0061
3442.00,0.0061
3441.00,0.0061
3440.00,0.0061
3439.00,0.0061
3438.00,0.0061
3437.00,0.0062
3436.00,0.0062
3435.00,0.0062
3434.00,0.0062
3433.00,0.0062
3432.00,0.0063
3431.00,0.0063
3430.00,0.0064
3429.00,0.0064
3428.00,0.0065
3427.00,0.0065
3426.00,0.0065
3425.00,0.0065
3424.00,0.0066
3423.00,0.0066
3422.00,0.0067
3421.00,0.0067
3420.00,0.0067
3419.00,0.0067
3418.00,0.0067
3417.00,0.0067
3416.00,0.0067
3415.00,0.0068
3414.00,0.0068
3413.00,0.0068
3412.00,0.0068
3411.00,0.0068
3410.00,0.0068
3409.00,0.0068
3408.00,0.0068
3407.00,0.0068
3406.00,0.0068
3405.00,0.0069
3404.00,0.0069
3403.00,0.0069
3402.00,0.0069
3401.00,0.0069
3400.00,0.0069
3399.00,0.0069
3398.00,0.0069
3397.00,0.0068
3396.00,0.0068
3395.00,0.0069
3394.00,0.0069
3393.00,0.0070
3392.00,0.0070
3391.00,0.0070
3390.00,0.0070
3389.00,0.0070
3388.00,0.0070
3387.00,0.0070
3386.00,0.0070
3385.00,0.0070
3384.00,0.0070
3383.00,0.0070
3382.00,0.0071
3381.00,0.0071
3380.00,0.0071
3379.00,0.0071
3378.00,0.0071
3377.00,0.0071
3376.00,0.0071
3375.00,0.0071
3374.00,0.0071
3373.00,0.0071
3372.00,0.0071
3371.00,0.0072
3370.00,0.0072
3369.00,0.0072
3368.00,0.0071
3367.00,0.0071
3366.00,0.0071
3365.00,0.0071
3364.00,0.0071
3363.00,0.0071
3362.00,0.0071
3361.00,0.0071
3360.00,0.0071
3359.00,0.0072
3358.00,0.0072
3357.00,0.0072
3356.00,0.0072
3355.00,0.0072
3354.00,0.0072
3353.00,0.0072
3352.00,0.0072
3351.00,0.0072
3350.00,0.0072
3349.00,0.0072
3348.00,0.0072
3347.00,0.0072
3346.00,0.0071
3345.00,0.0071
3344.00,0.0071
3343.00,0.0071
3342.00,0.0071
3341.00,0.0071
3340.00,0.0072
3339.00,0.0072
3338.00,0.0072
3337.00,0.0072
3336.00,0.0072
3335.00,0.0071
3334.00,0.0071
3333.00,0.0070
3332.00,0.0070
3331.00,0.0070
3330.00,0.0070
3329.00,0.0070
3328.00,0.0070
3327.00,0.0070
3326.00,0.0070
3325.00,0.0070
3324.00,0.0070
3323.00,0.0070
3322.00,0.0070
3321.00,0.0070
3320.00,0.0070
3319.00,0.0070
3318.00,0.0069
3317.00,0.0069
3316.00,0.0069
3315.00,0.0068
3314.00,0.0068
3313.00,0.0069
3312.00,0.0069
3311.00,0.0069
3310.00,0.0069
3309.00,0.0069
3308.00,0.0069
3307.00,0.0068
3306.00,0.0068
3305.00,0.0068
3304.00,0.0068
3303.00,0.0068
3302.00,0.0067
3301.00,0.0067
3300.00,0.0067
3299.00,0.0067
3298.00,0.0067
3297.00,0.0066
3296.00,0.0066
3295.00,0.0066
3294.00,0.0065
3293.00,0.0065
3292.00,0.0065
3291.00,0.0065
3290.00,0.0065
3289.00,0.0065
3288.00,0.0065
3287.00,0.0065
3286.00,0.0064
3285.00,0.0064
3284.00,0.0064
3283.00,0.0064
3282.00,0.0064
3281.00,0.0064
3280.00,0.0064
3279.00,0.0064
3278.00,0.0064
3277.00,0.0063
3276.00,0.0063
3275.00,0.0063
3274.00,0.0062
3273.00,0.0062
3272.00,0.0061
3271.00,0.0061
3270.00,0.0061
3269.00,0.0061
3268.00,0.0061
3267.00,0.0061
3266.00,0.0061
3265.00,0.0060
3264.00,0.0060
3263.00,0.0059
3262.00,0.0059
3261.00,0.0059
3260.00,0.0059
3259.00,0.0059
3258.00,0.0058
3257.00,0.0058
3256.00,0.0058
3255.00,0.0058
3254.00,0.0058
3253.00,0.0058
3252.00,0.0058
3251.00,0.0058
3250.00,0.0057
3249.00,0.0057
3248.00,0.0056
3247.00,0.0056
3246.00,0.0056
3245.00,0.0056
3244.00,0.0056
3243.00,0.0056
3242.00,0.0056
3241.00,0.0056
3240.00,0.0056
3239.00,0.0056
3238.00,0.0056
3237.00,0.0056
3236.00,0.0056
3235.00,0.0056
3234.00,0.0056
3233.00,0.0056
3232.00,0.0056
3231.00,0.0056
3230.00,0.0056
3229.00,0.0056
3228.00,0.0056
3227.00,0.0056
3226.00,0.0056
3225.00,0.0057
3224.00,0.0057
3223.00,0.0057
3222.00,0.0057
3221.00,0.0057
3220.00,0.0057
3219.00,0.0057
3218.00,0.0057
3217.00,0.0058
3216.00,0.0058
3215.00,0.0058
3214.00,0.0058
3213.00,0.0058
3212.00,0.0058
3211.00,0.0058
3210.00,0.0058
3209.00,0.0058
3208.00,0.0059
3207.00,0.0058
3206.00,0.0058
3205.00,0.0058
3204.00,0.0058
3203.00,0.0058
3202.00,0.0058
3201.00,0.0058
3200.00,0.0059
3199.00,0.0059
3198.00,0.0059
3197.00,0.0059
3196.00,0.0060
3195.00,0.0060
3194.00,0.0060
3193.00,0.0059
3192.00,0.0059
3191.00,0.0059
3190.00,0.0059
3189.00,0.0059
3188.00,0.0058
3187.00,0.0058
3186.00,0.0057
3185.00,0.0057
3184.00,0.0056
3183.00,0.0056
3182.00,0.0056
3181.00,0.0055
3180.00,0.0055
3179.00,0.0055
3178.00,0.0054
3177.00,0.0054
3176.00,0.0054
3175.00,0.0053
3174.00,0.0053
3173.00,0.0053
3172.00,0.0053
3171.00,0.0053
3170.00,0.0053
3169.00,0.0053
3168.00,0.0052
3167.00,0.0052
3166.00,0.0051
3165.00,0.0051
3164.00,0.0051
3163.00,0.0051
3162.00,0.0051
3161.00,0.0051
3160.00,0.0051
3159.00,0.0051
3158.00,0.0051
3157.00,0.0050
3156.00,0.0050
3155.00,0.0050
3154.00,0.0049
3153.00,0.0049
3152.00,0.0049
3151.00,0.0049
3150.00,0.0049
3149.00,0.0049
3148.00,0.0049
3147.00,0.0048
3146.00,0.0048
3145.00,0.0048
3144.00,0.0048
3143.00,0.0048
3142.00,0.0048
3141.00,0.0048
3140.00,0.0048
3139.00,0.0047
3138.00,0.0047
3137.00,0.0047
3136.00,0.0047
3135.00,0.0046
3134.00,0.0046
3133.00,0.0046
3132.00,0.0046
3131.00,0.0045
3130.00,0.0045
3129.00,0.0045
3128.00,0.0045
3127.00,0.0044
3126.00,0.0044
3125.00,0.0043
3124.00,0.0043
3123.00,0.0043
3122.00,0.0043
3121.00,0.0042
3120.00,0.0042
3119.00,0.0041
3118.00,0.0040
3117.00,0.0040
3116.00,0.0040
3115.00,0.0040
3114.00,0.0041
3113.00,0.0041
3112.00,0.0040
3111.00,0.0040
3110.00,0.0040
3109.00,0.0039
3108.00,0.0039
3107.00,0.0039
3106.00,0.0039
3105.00,0.0039
3104.00,0.0039
3103.00,0.0038
3102.00,0.0038
3101.00,0.0038
3100.00,0.0037
3099.00,0.0037
3098.00,0.0037
3097.00,0.0037
3096.00,0.0037
3095.00,0.0037
3094.00,0.0036
3093.00,0.0036
3092.00,0.0036
3091.00,0.0036
3090.00,0.0036
3089.00,0.0037
3088.00,0.0036
3087.00,0.0036
3086.00,0.0036
3085.00,0.0036
3084.00,0.0035
3083.00,0.0035
3082.00,0.0035
3081.00,0.0035
3080.00,0.0035
3079.00,0.0035
3078.00,0.0035
3077.00,0.0035
3076.00,0.0035
3075.00,0.0035
3074.00,0.0035
3073.00,0.0035
3072.00,0.0035
3071.00,0.0035
3070.00,0.0036
3069.00,0.0035
3068.00,0.0035
3067.00,0.0035
3066.00,0.0036
3065.00,0.0036
3064.00,0.0036
3063.00,0.0037
3062.00,0.0037
3061.00,0.0037
3060.00,0.0037
3059.00,0.0037
3058.00,0.0037
3057.00,0.0037
3056.00,0.0037
3055.00,0.0037
3054.00,0.0037
3053.00,0.0037
3052.00,0.0037
3051.00,0.0037
3050.00,0.0037
3049.00,0.0037
3048.00,0.0037
3047.00,0.0038
3046.00,0.0038
3045.00,0.0038
3044.00,0.0039
3043.00,0.0039
3042.00,0.0040
3041.00,0.0040
3040.00,0.0040
3039.00,0.0040
3038.00,0.0040
3037.00,0.0041
3036.00,0.0041
3035.00,0.0042
3034.00,0.0043
3033.00,0.0043
3032.00,0.0044
3031.00,0.0044
3030.00,0.0044
3029.00,0.0044
3028.00,0.0045
3027.00,0.0045
3026.00,0.0046
3025.00,0.0047
3024.00,0.0047
3023.00,0.0048
3022.00,0.0049
3021.00,0.0050
3020.00,0.0051
3019.00,0.0052
3018.00,0.0052
3017.00,0.0053
3016.00,0.0054
3015.00,0.0055
3014.00,0.0056
3013.00,0.0057
3012.00,0.0058
3011.00,0.0060
3010.00,0.0062
3009.00,0.0064
3008.00,0.0066
3007.00,0.0068
3006.00,0.0070
3005.00,0.0072
3004.00,0.0074
3003.00,0.0077
3002.00,0.0079
3001.00,0.0082
3000.00,0.0085
2999.00,0.0089
2998.00,0.0093
2997.00,0.0097
2996.00,0.0101
2995.00,0.0106
2994.00,0.0111
2993.00,0.0116
2992.00,0.0122
2991.00,0.0129
2990.00,0.0136
2989.00,0.0144
2988.00,0.0152
2987.00,0.0163
2986.00,0.0174
2985.00,0.0187
2984.00,0.0201
2983.00,0.0217
2982.00,0.0235
2981.00,0.0254
2980.00,0.0275
2979.00,0.0300
2978.00,0.0327
2977.00,0.0358
2976.00,0.0394
2975.00,0.0435
2974.00,0.0483
2973.00,0.0536
2972.00,0.0597
2971.00,0.0665
2970.00,0.0741
2969.00,0.0826
2968.00,0.0920
2967.00,0.1023
2966.00,0.1134
2965.00,0.1253
2964.00,0.1375
2963.00,0.1497
2962.00,0.1614
2961.00,0.1720
2960.00,0.1809
2959.00,0.1879
2958.00,0.1928
2957.00,0.1960
2956.00,0.1979
2955.00,0.1992
2954.00,0.2004
2953.00,0.2014
2952.00,0.2021
2951.00,0.2017
2950.00,0.1995
2949.00,0.1948
2948.00,0.1872
2947.00,0.1770
2946.00,0.1647
2945.00,0.1517
2944.00,0.1389
2943.00,0.1276
2942.00,0.1184
2941.00,0.1116
2940.00,0.1074
2939.00,0.1055
2938.00,0.1056
2937.00,0.1074
2936.00,0.1108
2935.00,0.1155
2934.00,0.1216
2933.00,0.1288
2932.00,0.1369
2931.00,0.1456
2930.00,0.1547
2929.00,0.1639
2928.00,0.1727
2927.00,0.1811
2926.00,0.1890
2925.00,0.1962
2924.00,0.2031
2923.00,0.2096
2922.00,0.2158
2921.00,0.2217
2920.00,0.2270
2919.00,0.2311
2918.00,0.2335
2917.00,0.2338
2916.00,0.2319
2915.00,0.2279
2914.00,0.2224
2913.00,0.2162
2912.00,0.2097
2911.00,0.2035
2910.00,0.1978
2909.00,0.1925
2908.00,0.1875
2907.00,0.1825
2906.00,0.1773
2905.00,0.1717
2904.00,0.1656
2903.00,0.1591
2902.00,0.1523
2901.00,0.1455
2900.00,0.1388
2899.00,0.1324
2898.00,0.1264
2897.00,0.1209
2896.00,0.1161
2895.00,0.1119
2894.00,0.1086
2893.00,0.1059
2892.00,0.1039
2891.00,0.1025
2890.00,0.1016
2889.00,0.1012
2888.00,0.1013
2887.00,0.1017
2886.00,0.1024
2885.00,0.1036
2884.00,0.1051
2883.00,0.1069
2882.00,0.1091
2881.00,0.1115
2880.00,0.1137
2879.00,0.1155
2878.00,0.1167
2877.00,0.1169
2876.00,0.1165
2875.00,0.1157
2874.00,0.1149
2873.00,0.1145
2872.00,0.1149
2871.00,0.1159
2870.00,0.1175
2869.00,0.1191
2868.00,0.1200
2867.00,0.1194
2866.00,0.1169
2865.00,0.1120
2864.00,0.1051
2863.00,0.0970
2862.00,0.0885
2861.00,0.0806
2860.00,0.0738
2859.00,0.0682
2858.00,0.0641
2857.00,0.0611
2856.00,0.0591
2855.00,0.0579
2854.00,0.0574
2853.00,0.0576
2852.00,0.0583
2851.00,0.0597
2850.00,0.0617
2849.00,0.0645
2848.00,0.0681
2847.00,0.0726
2846.00,0.0780
2845.00,0.0844
2844.00,0.0916
2843.00,0.0995
2842.00,0.1076
2841.00,0.1154
2840.00,0.1220
2839.00,0.1264
2838.00,0.1278
2837.00,0.1255
2836.00,0.1195
2835.00,0.1105
2834.00,0.0995
2833.00,0.0879
2832.00,0.0767
2831.00,0.0668
2830.00,0.0584
2829.00,0.0516
2828.00,0.0460
2827.00,0.0415
2826.00,0.0379
2825.00,0.0349
2824.00,0.0324
2823.00,0.0302
2822.00,0.0284
2821.00,0.0269
2820.00,0.0255
2819.00,0.0244
2818.00,0.0233
2817.00,0.0224
2816.00,0.0216
2815.00,0.0209
2814.00,0.0203
2813.00,0.0197
2812.00,0.0192
2811.00,0.0186
2810.00,0.0181
2809.00,0.0176
2808.00,0.0170
2807.00,0.0164
2806.00,0.0158
2805.00,0.0152
2804.00,0.0145
2803.00,0.0139
2802.00,0.0134
2801.00,0.0129
2800.00,0.0125
2799.00,0.0122
2798.00,0.0120
2797.00,0.0118
2796.00,0.0116
2795.00,0.0113
2794.00,0.0110
2793.00,0.0107
2792.00,0.0104
2791.00,0.0100
2790.00,0.0096
2789.00,0.0092
2788.00,0.0089
2787.00,0.0085
2786.00,0.0082
2785.00,0.0080
2784.00,0.0077
2783.00,0.0075
2782.00,0.0072
2781.00,0.0071
2780.00,0.0069
2779.00,0.0067
2778.00,0.0066
2777.00,0.0064
2776.00,0.0063
2775.00,0.0062
2774.00,0.0061
2773.00,0.0060
2772.00,0.0059
2771.00,0.0059
2770.00,0.0058
2769.00,0.0058
2768.00,0.0058
2767.00,0.0058
2766.00,0.0057
2765.00,0.0057
2764.00,0.0057
2763.00,0.0056
2762.00,0.0056
2761.00,0.0055
2760.00,0.0055
2759.00,0.0054
2758.00,0.0054
2757.00,0.0054
2756.00,0.0054
2755.00,0.0053
2754.00,0.0053
2753.00,0.0053
2752.00,0.0053
2751.00,0.0053
2750.00,0.0053
2749.00,0.0053
2748.00,0.0053
2747.00,0.0053
2746.00,0.0054
2745.00,0.0054
2744.00,0.0055
2743.00,0.0056
2742.00,0.0057
2741.00,0.0058
2740.00,0.0060
2739.00,0.0061
2738.00,0.0062
2737.00,0.0063
2736.00,0.0064
2735.00,0.0066
2734.00,0.0067
2733.00,0.0068
2732.00,0.0070
2731.00,0.0072
2730.00,0.0075
2729.00,0.0077
2728.00,0.0080
2727.00,0.0083
2726.00,0.0086
2725.00,0.0088
2724.00,0.0089
2723.00,0.0090
2722.00,0.0089
2721.00,0.0087
2720.00,0.0084
2719.00,0.0080
2718.00,0.0077
2717.00,0.0073
2716.00,0.0071
2715.00,0.0068
2714.00,0.0066
2713.00,0.0064
2712.00,0.0062
2711.00,0.0060
2710.00,0.0059
2709.00,0.0057
2708.00,0.0056
2707.00,0.0054
2706.00,0.0053
2705.00,0.0052
2704.00,0.0051
2703.00,0.0050
2702.00,0.0049
2701.00,0.0049
2700.00,0.0048
2699.00,0.0047
2698.00,0.0047
2697.00,0.0046
2696.00,0.0046
2695.00,0.0046
2694.00,0.0046
2693.00,0.0047
2692.00,0.0047
2691.00,0.0047
2690.00,0.0048
2689.00,0.0048
2688.00,0.0048
2687.00,0.0047
2686.00,0.0047
2685.00,0.0047
2684.00,0.0047
2683.00,0.0047
2682.00,0.0047
2681.00,0.0047
2680.00,0.0047
2679.00,0.0048
2678.00,0.0048
2677.00,0.0047
2676.00,0.0047
2675.00,0.0047
2674.00,0.0046
2673.00,0.0046
2672.00,0.0046
2671.00,0.0046
2670.00,0.0045
2669.00,0.0045
2668.00,0.0045
2667.00,0.0046
2666.00,0.0046
2665.00,0.0047
2664.00,0.0047
2663.00,0.0048
2662.00,0.0048
2661.00,0.0049
2660.00,0.0049
2659.00,0.0048
2658.00,0.0048
2657.00,0.0048
2656.00,0.0048
2655.00,0.0047
2654.00,0.0047
2653.00,0.0046
2652.00,0.0046
2651.00,0.0045
2650.00,0.0044
2649.00,0.0044
2648.00,0.0043
2647.00,0.0043
2646.00,0.0043
2645.00,0.0042
2644.00,0.0042
2643.00,0.0042
2642.00,0.0042
2641.00,0.0042
2640.00,0.0041
2639.00,0.0040
2638.00,0.0039
2637.00,0.0038
2636.00,0.0038
2635.00,0.0038
2634.00,0.0038
2633.00,0.0038
2632.00,0.0038
2631.00,0.0039
2630.00,0.0039
2629.00,0.0039
2628.00,0.0040
2627.00,0.0040
2626.00,0.0041
2625.00,0.0041
2624.00,0.0041
2623.00,0.0041
2622.00,0.0041
2621.00,0.0042
2620.00,0.0042
2619.00,0.0042
2618.00,0.0042
2617.00,0.0042
2616.00,0.0042
2615.00,0.0041
2614.00,0.0041
2613.00,0.0041
2612.00,0.0040
2611.00,0.0040
2610.00,0.0039
2609.00,0.0038
2608.00,0.0037
2607.00,0.0036
2606.00,0.0036
2605.00,0.0035
2604.00,0.0034
2603.00,0.0033
2602.00,0.0033
2601.00,0.0032
2600.00,0.0032
2599.00,0.0032
2598.00,0.0033
2597.00,0.0033
2596.00,0.0033
2595.00,0.0033
2594.00,0.0033
2593.00,0.0033
2592.00,0.0033
2591.00,0.0033
2590.00,0.0034
2589.00,0.0035
2588.00,0.0036
2587.00,0.0037
2586.00,0.0038
2585.00,0.0039
2584.00,0.0039
2583.00,0.0040
2582.00,0.0039
2581.00,0.0039
2580.00,0.0038
2579.00,0.0037
2578.00,0.0037
2577.00,0.0036
2576.00,0.0034
2575.00,0.0033
2574.00,0.0032
2573.00,0.0031
2572.00,0.0030
2571.00,0.0030
2570.00,0.0029
2569.00,0.0028
2568.00,0.0027
2567.00,0.0027
2566.00,0.0026
2565.00,0.0026
2564.00,0.0026
2563.00,0.0026
2562.00,0.0025
2561.00,0.0025
2560.00,0.0024
2559.00,0.0024
2558.00,0.0024
2557.00,0.0024
2556.00,0.0023
2555.00,0.0023
2554.00,0.0023
2553.00,0.0022
2552.00,0.0022
2551.00,0.0021
2550.00,0.0021
2549.00,0.0020
2548.00,0.0020
2547.00,0.0020
2546.00,0.0020
2545.00,0.0020
2544.00,0.0020
2543.00,0.0019
2542.00,0.0018
2541.00,0.0018
2540.00,0.0018
2539.00,0.0018
2538.00,0.0018
2537.00,0.0017
2536.00,0.0017
2535.00,0.0017
2534.00,0.0018
2533.00,0.0017
2532.00,0.0017
2531.00,0.0016
2530.00,0.0016
2529.00,0.0015
2528.00,0.0015
2527.00,0.0015
2526.00,0.0015
2525.00,0.0015
2524.00,0.0014
2523.00,0.0014
2522.00,0.0014
2521.00,0.0014
2520.00,0.0014
2519.00,0.0013
2518.00,0.0013
2517.00,0.0013
2516.00,0.0013
2515.00,0.0012
2514.00,0.0012
2513.00,0.0012
2512.00,0.0011
2511.00,0.0011
2510.00,0.0011
2509.00,0.0011
2508.00,0.0012
2507.00,0.0012
2506.00,0.0012
2505.00,0.0012
2504.00,0.0011
2503.00,0.0011
2502.00,0.0011
2501.00,0.0012
2500.00,0.0012
2499.00,0.0012
2498.00,0.0011
2497.00,0.0011
2496.00,0.0011
2495.00,0.0011
2494.00,0.0011
2493.00,0.0012
2492.00,0.0012
2491.00,0.0012
2490.00,0.0012
2489.00,0.0012
2488.00,0.0012
2487.00,0.0011
2486.00,0.0011
2485.00,0.0010
2484.00,0.0011
2483.00,0.0011
2482.00,0.0012
2481.00,0.0011
2480.00,0.0011
2479.00,0.0010
2478.00,0.0009
2477.00,0.0009
2476.00,0.0009
2475.00,0.0009
2474.00,0.0010
2473.00,0.0010
2472.00,0.0010
2471.00,0.0010
2470.00,0.0010
2469.00,0.0010
2468.00,0.0010
2467.00,0.0010
2466.00,0.0010
2465.00,0.0009
2464.00,0.0010
2463.00,0.0010
2462.00,0.0010
2461.00,0.0010
2460.00,0.0010
2459.00,0.0011
2458.00,0.0011
2457.00,0.0011
2456.00,0.0010
2455.00,0.0010
2454.00,0.0011
2453.00,0.0012
2452.00,0.0013
2451.00,0.0013
2450.00,0.0012
2449.00,0.0012
2448.00,0.0011
2447.00,0.0010
2446.00,0.0010
2445.00,0.0009
2444.00,0.0009
2443.00,0.0009
2442.00,0.0010
2441.00,0.0010
2440.00,0.0011
2439.00,0.0012
2438.00,0.0012
2437.00,0.0012
2436.00,0.0012
2435.00,0.0012
2434.00,0.0013
2433.00,0.0013
2432.00,0.0013
2431.00,0.0013
2430.00,0.0013
2429.00,0.0013
2428.00,0.0012
2427.00,0.0012
2426.00,0.0012
2425.00,0.0013
2424.00,0.0013
2423.00,0.0012
2422.00,0.0011
2421.00,0.0010
2420.00,0.0010
2419.00,0.0010
2418.00,0.0010
2417.00,0.0011
2416.00,0.0011
2415.00,0.0011
2414.00,0.0010
2413.00,0.0010
2412.00,0.0009
2411.00,0.0010
2410.00,0.0010
2409.00,0.0011
2408.00,0.0011
2407.00,0.0011
2406.00,0.0011
2405.00,0.0011
2404.00,0.0011
2403.00,0.0011
2402.00,0.0010
2401.00,0.0010
2400.00,0.0010
2399.00,0.0010
2398.00,0.0010
2397.00,0.0011
2396.00,0.0012
2395.00,0.0012
2394.00,0.0012
2393.00,0.0011
2392.00,0.0011
2391.00,0.0010
2390.00,0.0009
2389.00,0.0009
2388.00,0.0008
2387.00,0.0008
2386.00,0.0008
2385.00,0.0007
2384.00,0.0007
2383.00,0.0007
2382.00,0.0006
2381.00,0.0006
2380.00,0.0005
2379.00,0.0005
2378.00,0.0005
2377.00,0.0006
2376.00,0.0006
2375.00,0.0006
2374.00,0.0006
2373.00,0.0005
2372.00,0.0005
2371.00,0.0004
2370.00,0.0004
2369.00,0.0003
2368.00,0.0002
2367.00,0.0003
2366.00,0.0004
2365.00,0.0006
2364.00,0.0007
2363.00,0.0007
2362.00,0.0007
2361.00,0.0006
2360.00,0.0005
2359.00,0.0004
2358.00,0.0005
2357.00,0.0005
2356.00,0.0005
2355.00,0.0005
2354.00,0.0005
2353.00,0.0005
2352.00,0.0005
2351.00,0.0005
2350.00,0.0005
2349.00,0.0005
2348.00,0.0005
2347.00,0.0006
2346.00,0.0008
2345.00,0.0010
2344.00,0.0010
2343.00,0.0010
2342.00,0.0009
2341.00,0.0008
2340.00,0.0007
2339.00,0.0007
2338.00,0.0007
2337.00,0.0007
2336.00,0.0008
2335.00,0.0008
2334.00,0.0008
2333.00,0.0007
2332.00,0.0007
2331.00,0.0006
2330.00,0.0006
2329.00,0.0006
2328.00,0.0007
2327.00,0.0010
2326.00,0.0014
2325.00,0.0018
2324.00,0.0020
2323.00,0.0019
2322.00,0.0017
2321.00,0.0014
2320.00,0.0012
2319.00,0.0011
2318.00,0.0010
2317.00,0.0009
2316.00,0.0009
2315.00,0.0008
2314.00,0.0007
2313.00,0.0007
2312.00,0.0006
2311.00,0.0006
2310.00,0.0007
2309.00,0.0007
2308.00,0.0007
2307.00,0.0007
2306.00,0.0006
2305.00,0.0007
2304.00,0.0008
2303.00,0.0008
2302.00,0.0009
2301.00,0.0009
2300.00,0.0010
2299.00,0.0011
2298.00,0.0011
2297.00,0.0011
2296.00,0.0012
2295.00,0.0012
2294.00,0.0013
2293.00,0.0014
2292.00,0.0015
2291.00,0.0016
2290.00,0.0016
2289.00,0.0016
2288.00,0.0017
2287.00,0.0018
2286.00,0.0019
2285.00,0.0020
2284.00,0.0020
2283.00,0.0019
2282.00,0.0018
2281.00,0.0018
2280.00,0.0017
2279.00,0.0016
2278.00,0.0015
2277.00,0.0015
2276.00,0.0014
2275.00,0.0014
2274.00,0.0015
2273.00,0.0015
2272.00,0.0015
2271.00,0.0014
2270.00,0.0015
2269.00,0.0015
2268.00,0.0015
2267.00,0.0014
2266.00,0.0013
2265.00,0.0012
2264.00,0.0012
2263.00,0.0011
2262.00,0.0012
2261.00,0.0012
2260.00,0.0013
2259.00,0.0012
2258.00,0.0012
2257.00,0.0011
2256.00,0.0010
2255.00,0.0010
2254.00,0.0009
2253.00,0.0009
2252.00,0.0010
2251.00,0.0010
2250.00,0.0010
2249.00,0.0009
2248.00,0.0009
2247.00,0.0008
2246.00,0.0008
2245.00,0.0009
2244.00,0.0010
2243.00,0.0010
2242.00,0.0010
2241.00,0.0009
2240.00,0.0009
2239.00,0.0009
2238.00,0.0010
2237.00,0.0011
2236.00,0.0012
2235.00,0.0013
2234.00,0.0013
2233.00,0.0011
2232.00,0.0009
2231.00,0.0008
2230.00,0.0007
2229.00,0.0008
2228.00,0.0009
2227.00,0.0010
2226.00,0.0011
2225.00,0.0011
2224.00,0.0010
2223.00,0.0008
2222.00,0.0006
2221.00,0.0005
2220.00,0.0005
2219.00,0.0005
2218.00,0.0005
2217.00,0.0005
2216.00,0.0006
2215.00,0.0006
2214.00,0.0007
2213.00,0.0007
2212.00,0.0007
2211.00,0.0006
2210.00,0.0006
2209.00,0.0006
2208.00,0.0006
2207.00,0.0007
2206.00,0.0008
2205.00,0.0010
2204.00,0.0010
2203.00,0.0009
2202.00,0.0009
2201.00,0.0009
2200.00,0.0009
2199.00,0.0011
2198.00,0.0012
2197.00,0.0014
2196.00,0.0016
2195.00,0.0016
2194.00,0.0015
2193.00,0.0013
2192.00,0.0011
2191.00,0.0011
2190.00,0.0010
2189.00,0.0009
2188.00,0.0009
2187.00,0.0008
2186.00,0.0009
2185.00,0.0010
2184.00,0.0009
2183.00,0.0008
2182.00,0.0007
2181.00,0.0007
2180.00,0.0010
2179.00,0.0012
2178.00,0.0014
2177.00,0.0014
2176.00,0.0013
2175.00,0.0012
2174.00,0.0010
2173.00,0.0010
2172.00,0.0010
2171.00,0.0011
2170.00,0.0011
2169.00,0.0012
2168.00,0.0014
2167.00,0.0016
2166.00,0.0019
2165.00,0.0022
2164.00,0.0024
2163.00,0.0026
2162.00,0.0024
2161.00,0.0018
2160.00,0.0007
2159.00,-0.0007
2158.00,-0.0019
2157.00,-0.0025
2156.00,-0.0025
2155.00,-0.0023
2154.00,-0.0020
2153.00,-0.0018
2152.00,-0.0016
2151.00,-0.0015
2150.00,-0.0015
2149.00,-0.0014
2148.00,-0.0015
2147.00,-0.0016
2146.00,-0.0016
2145.00,-0.0016
2144.00,-0.0015
2143.00,-0.0015
2142.00,-0.0014
2141.00,-0.0012
2140.00,-0.0008
2139.00,-0.0004
2138.00,-0.0002
2137.00,-0.0004
2136.00,-0.0007
2135.00,-0.0011
2134.00,-0.0014
2133.00,-0.0015
2132.00,-0.0014
2131.00,-0.0013
2130.00,-0.0011
2129.00,-0.0010
2128.00,-0.0009
2127.00,-0.0008
2126.00,-0.0007
2125.00,-0.0007
2124.00,-0.0006
2123.00,-0.0004
2122.00,-0.0003
2121.00,-0.0002
2120.00,-0.0001
2119.00,-0.0001
2118.00,-0.0001
2117.00,0.0000
2116.00,0.0002
2115.00,0.0003
2114.00,0.0003
2113.00,0.0003
2112.00,0.0003
2111.00,0.0004
2110.00,0.0004
2109.00,0.0005
2108.00,0.0005
2107.00,0.0005
2106.00,0.0004
2105.00,0.0003
2104.00,0.0002
2103.00,0.0001
2102.00,0.0001
2101.00,0.0002
2100.00,0.0003
2099.00,0.0004
2098.00,0.0005
2097.00,0.0003
2096.00,0.0001
2095.00,-0.0001
2094.00,-0.0003
2093.00,-0.0003
2092.00,-0.0004
2091.00,-0.0004
2090.00,-0.0003
2089.00,-0.0002
2088.00,0.0000
2087.00,0.0002
2086.00,0.0003
2085.00,0.0004
2084.00,0.0004
2083.00,0.0005
2082.00,0.0005
2081.00,0.0005
2080.00,0.0005
2079.00,0.0004
2078.00,0.0004
2077.00,0.0004
2076.00,0.0004
2075.00,0.0003
2074.00,0.0002
2073.00,0.0001
2072.00,0.0001
2071.00,0.0001
2070.00,0.0000
2069.00,-0.0001
2068.00,-0.0001
2067.00,-0.0000
2066.00,0.0001
2065.00,0.0001
2064.00,-0.0001
2063.00,-0.0003
2062.00,-0.0004
2061.00,-0.0004
2060.00,-0.0002
2059.00,-0.0000
2058.00,0.0002
2057.00,0.0004
2056.00,0.0004
2055.00,0.0004
2054.00,0.0006
2053.00,0.0010
2052.00,0.0016
2051.00,0.0020
2050.00,0.0020
2049.00,0.0016
2048.00,0.0011
2047.00,0.0006
2046.00,0.0003
2045.00,0.0001
2044.00,0.0001
2043.00,0.0001
2042.00,0.0001
2041.00,0.0001
2040.00,0.0001
2039.00,0.0001
2038.00,0.0001
2037.00,0.0002
2036.00,0.0002
2035.00,0.0001
2034.00,0.0000
2033.00,0.0001
2032.00,0.0000
2031.00,-0.0001
2030.00,-0.0004
2029.00,-0.0008
2028.00,-0.0010
2027.00,-0.0010
2026.00,-0.0008
2025.00,-0.0005
2024.00,-0.0002
2023.00,-0.0001
2022.00,-0.0002
2021.00,-0.0003
2020.00,-0.0006
2019.00,-0.0009
2018.00,-0.0012
2017.00,-0.0011
2016.00,-0.0009
2015.00,-0.0007
2014.00,-0.0006
2013.00,-0.0007
2012.00,-0.0009
2011.00,-0.0009
2010.00,-0.0009
2009.00,-0.0009
2008.00,-0.0011
2007.00,-0.0013
2006.00,-0.0015
2005.00,-0.0015
2004.00,-0.0015
2003.00,-0.0016
2002.00,-0.0016
2001.00,-0.0014
2000.00,-0.0013
1999.00,-0.0012
1998.00,-0.0012
1997.00,-0.0012
1996.00,-0.0011
1995.00,-0.0011
1994.00,-0.0010
1993.00,-0.0008
1992.00,-0.0005
1991.00,-0.0003
1990.00,-0.0001
1989.00,0.0001
1988.00,0.0002
1987.00,0.0003
1986.00,0.0002
1985.00,0.0001
1984.00,0.0001
1983.00,0.0003
1982.00,0.0006
1981.00,0.0009
1980.00,0.0010
1979.00,0.0007
1978.00,0.0001
1977.00,-0.0003
1976.00,-0.0005
1975.00,-0.0006
1974.00,-0.0005
1973.00,-0.0005
1972.00,-0.0005
1971.00,-0.0005
1970.00,-0.0005
1969.00,-0.0006
1968.00,-0.0008
1967.00,-0.0010
1966.00,-0.0012
1965.00,-0.0012
1964.00,-0.0011
1963.00,-0.0012
1962.00,-0.0013
1961.00,-0.0016
1960.00,-0.0019
1959.00,-0.0022
1958.00,-0.0023
1957.00,-0.0022
1956.00,-0.0019
1955.00,-0.0018
1954.00,-0.0017
1953.00,-0.0017
1952.00,-0.0018
1951.00,-0.0018
1950.00,-0.0017
1949.00,-0.0017
1948.00,-0.0016
1947.00,-0.0017
1946.00,-0.0017
1945.00,-0.0018
1944.00,-0.0017
1943.00,-0.0016
1942.00,-0.0015
1941.00,-0.0014
1940.00,-0.0014
1939.00,-0.0013
1938.00,-0.0012
1937.00,-0.0011
1936.00,-0.0010
1935.00,-0.0010
1934.00,-0.0010
1933.00,-0.0011
1932.00,-0.0011
1931.00,-0.0011
1930.00,-0.0009
1929.00,-0.0007
1928.00,-0.0007
1927.00,-0.0008
1926.00,-0.0009
1925.00,-0.0009
1924.00,-0.0008
1923.00,-0.0007
1922.00,-0.0005
1921.00,-0.0004
1920.00,-0.0004
1919.00,-0.0004
1918.00,-0.0004
1917.00,-0.0004
1916.00,-0.0004
1915.00,-0.0004
1914.00,-0.0003
1913.00,-0.0001
1912.00,0.0000
1911.00,0.0000
1910.00,-0.0000
1909.00,-0.0002
1908.00,-0.0003
1907.00,-0.0003
1906.00,-0.0002
1905.00,-0.0001
1904.00,0.0000
1903.00,0.0001
1902.00,0.0000
1901.00,-0.0001
1900.00,-0.0001
1899.00,-0.0001
1898.00,-0.0001
1897.00,-0.0000
1896.00,0.0001
1895.00,0.0002
1894.00,0.0002
1893.00,0.0001
1892.00,-0.0000
1891.00,-0.0002
1890.00,-0.0003
1889.00,-0.0003
1888.00,-0.0001
1887.00,-0.0000
1886.00,-0.0000
1885.00,-0.0000
1884.00,-0.0001
1883.00,-0.0001
1882.00,-0.0000
1881.00,0.0000
1880.00,0.0000
1879.00,0.0000
1878.00,-0.0000
1877.00,-0.0000
1876.00,0.0000
1875.00,0.0000
1874.00,0.0000
1873.00,0.0000
1872.00,0.0001
1871.00,0.0002
1870.00,0.0003
1869.00,0.0004
1868.00,0.0004
1867.00,0.0002
1866.00,0.0001
1865.00,0.0001
1864.00,0.0001
1863.00,0.0001
1862.00,0.0001
1861.00,0.0002
1860.00,0.0002
1859.00,0.0002
1858.00,0.0001
1857.00,0.0001
1856.00,0.0001
1855.00,-0.0000
1854.00,-0.0000
1853.00,0.0000
1852.00,0.0001
1851.00,0.0002
1850.00,0.0002
1849.00,0.0003
1848.00,0.0003
1847.00,0.0003
1846.00,0.0003
1845.00,0.0003
1844.00,0.0003
1843.00,0.0003
1842.00,0.0002
1841.00,0.0002
1840.00,0.0002
1839.00,0.0002
1838.00,0.0002
1837.00,0.0003
1836.00,0.0003
1835.00,0.0004
1834.00,0.0004
1833.00,0.0004
1832.00,0.0005
1831.00,0.0005
1830.00,0.0004
1829.00,0.0004
1828.00,0.0005
1827.00,0.0005
1826.00,0.0005
1825.00,0.0005
1824.00,0.0005
1823.00,0.0005
1822.00,0.0005
1821.00,0.0004
1820.00,0.0003
1819.00,0.0002
1818.00,0.0001
1817.00,0.0001
1816.00,0.0001
1815.00,0.0001
1814.00,0.0002
1813.00,0.0003
1812.00,0.0003
1811.00,0.0004
1810.00,0.0004
1809.00,0.0004
1808.00,0.0004
1807.00,0.0003
1806.00,0.0003
1805.00,0.0004
1804.00,0.0005
1803.00,0.0006
1802.00,0.0007
1801.00,0.0006
1800.00,0.0006
1799.00,0.0006
1798.00,0.0006
1797.00,0.0006
1796.00,0.0006
1795.00,0.0006
1794.00,0.0005
1793.00,0.0006
1792.00,0.0007
1791.00,0.0007
1790.00,0.0007
1789.00,0.0008
1788.00,0.0009
1787.00,0.0009
1786.00,0.0010
1785.00,0.0010
1784.00,0.0009
1783.00,0.0009
1782.00,0.0009
1781.00,0.0009
1780.00,0.0009
1779.00,0.0009
1778.00,0.0009
1777.00,0.0009
1776.00,0.0009
1775.00,0.0009
1774.00,0.0009
1773.00,0.0010
1772.00,0.0010
1771.00,0.0011
1770.00,0.0011
1769.00,0.0011
1768.00,0.0011
1767.00,0.0011
1766.00,0.0011
1765.00,0.0011
1764.00,0.0012
1763.00,0.0012
1762.00,0.0012
1761.00,0.0012
1760.00,0.0012
1759.00,0.0013
1758.00,0.0013
1757.00,0.0014
1756.00,0.0014
1755.00,0.0015
1754.00,0.0015
1753.00,0.0016
1752.00,0.0016
1751.00,0.0017
1750.00,0.0017
1749.00,0.0017
1748.00,0.0017
1747.00,0.0017
1746.00,0.0018
1745.00,0.0018
1744.00,0.0019
1743.00,0.0020
1742.00,0.0020
1741.00,0.0021
1740.00,0.0021
1739.00,0.0021
1738.00,0.0021
1737.00,0.0021
1736.00,0.0021
1735.00,0.0021
1734.00,0.0021
1733.00,0.0022
1732.00,0.0024
1731.00,0.0024
1730.00,0.0024
1729.00,0.0024
1728.00,0.0024
1727.00,0.0024
1726.00,0.0024
1725.00,0.0023
1724.00,0.0023
1723.00,0.0023
1722.00,0.0023
1721.00,0.0023
1720.00,0.0023
1719.00,0.0023
1718.00,0.0023
1717.00,0.0024
1716.00,0.0024
1715.00,0.0024
1714.00,0.0024
1713.00,0.0024
1712.00,0.0024
1711.00,0.0025
1710.00,0.0025
1709.00,0.0025
1708.00,0.0025
1707.00,0.0025
1706.00,0.0025
1705.00,0.0026
1704.00,0.0027
1703.00,0.0027
1702.00,0.0028
1701.00,0.0028
1700.00,0.0029
1699.00,0.0030
1698.00,0.0030
1697.00,0.0030
1696.00,0.0030
1695.00,0.0031
1694.00,0.0031
1693.00,0.0031
1692.00,0.0032
1691.00,0.0033
1690.00,0.0033
1689.00,0.0034
1688.00,0.0035
1687.00,0.0035
1686.00,0.0035
1685.00,0.0037
1684.00,0.0039
1683.00,0.0041
1682.00,0.0042
1681.00,0.0042
1680.00,0.0043
1679.00,0.0044
1678.00,0.0045
1677.00,0.0045
1676.00,0.0046
1675.00,0.0047
1674.00,0.0048
1673.00,0.0049
1672.00,0.0050
1671.00,0.0050
1670.00,0.0051
1669.00,0.0052
1668.00,0.0054
1667.00,0.0054
1666.00,0.0054
1665.00,0.0055
1664.00,0.0055
1663.00,0.0056
1662.00,0.0056
1661.00,0.0057
1660.00,0.0058
1659.00,0.0059
1658.00,0.0060
1657.00,0.0061
1656.00,0.0062
1655.00,0.0062
1654.00,0.0062
1653.00,0.0064
1652.00,0.0066
1651.00,0.0068
1650.00,0.0068
1649.00,0.0069
1648.00,0.0070
1647.00,0.0071
1646.00,0.0071
1645.00,0.0072
1644.00,0.0071
1643.00,0.0071
1642.00,0.0072
1641.00,0.0072
1640.00,0.0073
1639.00,0.0073
1638.00,0.0073
1637.00,0.0072
1636.00,0.0072
1635.00,0.0072
1634.00,0.0072
1633.00,0.0072
1632.00,0.0072
1631.00,0.0072
1630.00,0.0072
1629.00,0.0072
1628.00,0.0072
1627.00,0.0071
1626.00,0.0071
1625.00,0.0070
1624.00,0.0070
1623.00,0.0070
1622.00,0.0070
1621.00,0.0070
1620.00,0.0070
1619.00,0.0070
1618.00,0.0069
1617.00,0.0070
1616.00,0.0070
1615.00,0.0070
1614.00,0.0069
1613.00,0.0069
1612.00,0.0069
1611.00,0.0069
1610.00,0.0069
1609.00,0.0070
1608.00,0.0070
1607.00,0.0070
1606.00,0.0070
1605.00,0.0069
1604.00,0.0069
1603.00,0.0069
1602.00,0.0069
1601.00,0.0069
1600.00,0.0069
1599.00,0.0069
1598.00,0.0068
1597.00,0.0067
1596.00,0.0067
1595.00,0.0067
1594.00,0.0066
1593.00,0.0065
1592.00,0.0065
1591.00,0.0064
1590.00,0.0064
1589.00,0.0064
1588.00,0.0064
1587.00,0.0064
1586.00,0.0064
1585.00,0.0064
1584.00,0.0064
1583.00,0.0064
1582.00,0.0064
1581.00,0.0063
1580.00,0.0064
1579.00,0.0064
1578.00,0.0064
1577.00,0.0064
1576.00,0.0064
1575.00,0.0064
1574.00,0.0064
1573.00,0.0064
1572.00,0.0064
1571.00,0.0064
1570.00,0.0064
1569.00,0.0064
1568.00,0.0064
1567.00,0.0064
1566.00,0.0064
1565.00,0.0065
1564.00,0.0066
1563.00,0.0067
1562.00,0.0067
1561.00,0.0068
1560.00,0.0069
1559.00,0.0069
1558.00,0.0069
1557.00,0.0070
1556.00,0.0071
1555.00,0.0071
1554.00,0.0071
1553.00,0.0071
1552.00,0.0072
1551.00,0.0071
1550.00,0.0071
1549.00,0.0072
1548.00,0.0073
1547.00,0.0073
1546.00,0.0074
1545.00,0.0074
1544.00,0.0074
1543.00,0.0074
1542.00,0.0075
1541.00,0.0075
1540.00,0.0075
1539.00,0.0073
1538.00,0.0072
1537.00,0.0071
1536.00,0.0070
1535.00,0.0069
1534.00,0.0068
1533.00,0.0067
1532.00,0.0067
1531.00,0.0065
1530.00,0.0064
1529.00,0.0063
1528.00,0.0062
1527.00,0.0061
1526.00,0.0060
1525.00,0.0060
1524.00,0.0060
1523.00,0.0059
1522.00,0.0058
1521.00,0.0058
1520.00,0.0058
1519.00,0.0058
1518.00,0.0057
1517.00,0.0058
1516.00,0.0058
1515.00,0.0058
1514.00,0.0058
1513.00,0.0059
1512.00,0.0060
1511.00,0.0060
1510.00,0.0061
1509.00,0.0062
1508.00,0.0063
1507.00,0.0063
1506.00,0.0063
1505.00,0.0064
1504.00,0.0066
1503.00,0.0067
1502.00,0.0068
1501.00,0.0070
1500.00,0.0073
1499.00,0.0076
1498.00,0.0079
1497.00,0.0084
1496.00,0.0089
1495.00,0.0092
1494.00,0.0095
1493.00,0.0098
1492.00,0.0102
1491.00,0.0106
1490.00,0.0109
1489.00,0.0113
1488.00,0.0118
1487.00,0.0122
1486.00,0.0125
1485.00,0.0130
1484.00,0.0136
1483.00,0.0142
1482.00,0.0150
1481.00,0.0160
1480.00,0.0171
1479.00,0.0183
1478.00,0.0196
1477.00,0.0214
1476.00,0.0236
1475.00,0.0260
1474.00,0.0295
1473.00,0.0346
1472.00,0.0410
1471.00,0.0472
1470.00,0.0531
1469.00,0.0593
1468.00,0.0660
1467.00,0.0734
1466.00,0.0819
1465.00,0.0912
1464.00,0.0996
1463.00,0.1057
1462.00,0.1100
1461.00,0.1132
1460.00,0.1159
1459.00,0.1181
1458.00,0.1204
1457.00,0.1230
1456.00,0.1247
1455.00,0.1253
1454.00,0.1252
1453.00,0.1246
1452.00,0.1230
1451.00,0.1199
1450.00,0.1150
1449.00,0.1077
1448.00,0.0980
1447.00,0.0875
1446.00,0.0778
1445.00,0.0694
1444.00,0.0623
1443.00,0.0564
1442.00,0.0521
1441.00,0.0490
1440.00,0.0471
1439.00,0.0461
1438.00,0.0457
1437.00,0.0451
1436.00,0.0435
1435.00,0.0406
1434.00,0.0367
1433.00,0.0323
1432.00,0.0277
1431.00,0.0237
1430.00,0.0206
1429.00,0.0183
1428.00,0.0168
1427.00,0.0159
1426.00,0.0153
1425.00,0.0147
1424.00,0.0142
1423.00,0.0139
1422.00,0.0138
1421.00,0.0136
1420.00,0.0133
1419.00,0.0131
1418.00,0.0130
1417.00,0.0129
1416.00,0.0127
1415.00,0.0126
1414.00,0.0125
1413.00,0.0124
1412.00,0.0122
1411.00,0.0122
1410.00,0.0122
1409.00,0.0121
1408.00,0.0120
1407.00,0.0120
1406.00,0.0121
1405.00,0.0121
1404.00,0.0121
1403.00,0.0122
1402.00,0.0124
1401.00,0.0125
1400.00,0.0126
1399.00,0.0128
1398.00,0.0131
1397.00,0.0133
1396.00,0.0136
1395.00,0.0141
1394.00,0.0147
1393.00,0.0152
1392.00,0.0158
1391.00,0.0167
1390.00,0.0179
1389.00,0.0196
1388.00,0.0222
1387.00,0.0262
1386.00,0.0314
1385.00,0.0379
1384.00,0.0464
1383.00,0.0576
1382.00,0.0720
1381.00,0.0900
1380.00,0.1114
1379.00,0.1351
1378.00,0.1574
1377.00,0.1734
1376.00,0.1784
1375.00,0.1700
1374.00,0.1499
1373.00,0.1254
1372.00,0.1025
1371.00,0.0833
1370.00,0.0677
1369.00,0.0555
1368.00,0.0470
1367.00,0.0417
1366.00,0.0388
1365.00,0.0376
1364.00,0.0378
1363.00,0.0390
1362.00,0.0411
1361.00,0.0432
1360.00,0.0448
1359.00,0.0453
1358.00,0.0442
1357.00,0.0416
1356.00,0.0380
1355.00,0.0339
1354.00,0.0299
1353.00,0.0265
1352.00,0.0238
1351.00,0.0216
1350.00,0.0199
1349.00,0.0185
1348.00,0.0174
1347.00,0.0165
1346.00,0.0157
1345.00,0.0152
1344.00,0.0147
1343.00,0.0143
1342.00,0.0139
1341.00,0.0136
1340.00,0.0132
1339.00,0.0130
1338.00,0.0128
1337.00,0.0127
1336.00,0.0127
1335.00,0.0129
1334.00,0.0132
1333.00,0.0136
1332.00,0.0140
1331.00,0.0143
1330.00,0.0145
1329.00,0.0144
1328.00,0.0140
1327.00,0.0135
1326.00,0.0129
1325.00,0.0123
1324.00,0.0117
1323.00,0.0112
1322.00,0.0108
1321.00,0.0105
1320.00,0.0102
1319.00,0.0100
1318.00,0.0098
1317.00,0.0096
1316.00,0.0094
1315.00,0.0093
1314.00,0.0094
1313.00,0.0094
1312.00,0.0096
1311.00,0.0100
1310.00,0.0106
1309.00,0.0115
1308.00,0.0128
1307.00,0.0144
1306.00,0.0159
1305.00,0.0169
1304.00,0.0173
1303.00,0.0168
1302.00,0.0160
1301.00,0.0152
1300.00,0.0146
1299.00,0.0142
1298.00,0.0140
1297.00,0.0138
1296.00,0.0136
1295.00,0.0134
1294.00,0.0130
1293.00,0.0125
1292.00,0.0120
1291.00,0.0115
1290.00,0.0109
1289.00,0.0105
1288.00,0.0101
1287.00,0.0098
1286.00,0.0096
1285.00,0.0094
1284.00,0.0092
1283.00,0.0090
1282.00,0.0089
1281.00,0.0089
1280.00,0.0088
1279.00,0.0088
1278.00,0.0087
1277.00,0.0087
1276.00,0.0086
1275.00,0.0085
1274.00,0.0085
1273.00,0.0085
1272.00,0.0086
1271.00,0.0086
1270.00,0.0086
1269.00,0.0087
1268.00,0.0088
1267.00,0.0090
1266.00,0.0092
1265.00,0.0096
1264.00,0.0100
1263.00,0.0104
1262.00,0.0109
1261.00,0.0115
1260.00,0.0123
1259.00,0.0132
1258.00,0.0143
1257.00,0.0152
1256.00,0.0157
1255.00,0.0156
1254.00,0.0149
1253.00,0.0138
1252.00,0.0127
1251.00,0.0118
1250.00,0.0111
1249.00,0.0106
1248.00,0.0103
1247.00,0.0101
1246.00,0.0099
1245.00,0.0098
1244.00,0.0097
1243.00,0.0097
1242.00,0.0096
1241.00,0.0095
1240.00,0.0093
1239.00,0.0092
1238.00,0.0091
1237.00,0.0090
1236.00,0.0089
1235.00,0.0088
1234.00,0.0087
1233.00,0.0086
1232.00,0.0086
1231.00,0.0085
1230.00,0.0085
1229.00,0.0084
1228.00,0.0084
1227.00,0.0085
1226.00,0.0087
1225.00,0.0089
1224.00,0.0092
1223.00,0.0095
1222.00,0.0098
1221.00,0.0100
1220.00,0.0102
1219.00,0.0103
1218.00,0.0103
1217.00,0.0101
1216.00,0.0099
1215.00,0.0096
1214.00,0.0092
1213.00,0.0089
1212.00,0.0086
1211.00,0.0084
1210.00,0.0082
1209.00,0.0080
1208.00,0.0079
1207.00,0.0078
1206.00,0.0078
1205.00,0.0077
1204.00,0.0076
1203.00,0.0076
1202.00,0.0075
1201.00,0.0075
1200.00,0.0075
1199.00,0.0075
1198.00,0.0075
1197.00,0.0076
1196.00,0.0076
1195.00,0.0077
1194.00,0.0077
1193.00,0.0077
1192.00,0.0077
1191.00,0.0077
1190.00,0.0077
1189.00,0.0078
1188.00,0.0079
1187.00,0.0080
1186.00,0.0081
1185.00,0.0082
1184.00,0.0084
1183.00,0.0087
1182.00,0.0090
1181.00,0.0093
1180.00,0.0098
1179.00,0.0105
1178.00,0.0114
1177.00,0.0126
1176.00,0.0141
1175.00,0.0161
1174.00,0.0187
1173.00,0.0221
1172.00,0.0262
1171.00,0.0306
1170.00,0.0350
1169.00,0.0387
1168.00,0.0412
1167.00,0.0420
1166.00,0.0412
1165.00,0.0393
1164.00,0.0367
1163.00,0.0339
1162.00,0.0314
1161.00,0.0293
1160.00,0.0275
1159.00,0.0261
1158.00,0.0250
1157.00,0.0242
1156.00,0.0236
1155.00,0.0231
1154.00,0.0227
1153.00,0.0222
1152.00,0.0217
1151.00,0.0210
1150.00,0.0201
1149.00,0.0192
1148.00,0.0182
1147.00,0.0172
1146.00,0.0162
1145.00,0.0153
1144.00,0.0146
1143.00,0.0139
1142.00,0.0133
1141.00,0.0128
1140.00,0.0123
1139.00,0.0118
1138.00,0.0114
1137.00,0.0110
1136.00,0.0107
1135.00,0.0105
1134.00,0.0104
1133.00,0.0103
1132.00,0.0102
1131.00,0.0103
1130.00,0.0103
1129.00,0.0103
1128.00,0.0103
1127.00,0.0103
1126.00,0.0104
1125.00,0.0106
1124.00,0.0108
1123.00,0.0109
1122.00,0.0111
1121.00,0.0112
1120.00,0.0112
1119.00,0.0113
1118.00,0.0115
1117.00,0.0116
1116.00,0.0118
1115.00,0.0118
1114.00,0.0119
1113.00,0.0119
1112.00,0.0121
1111.00,0.0123
1110.00,0.0126
1109.00,0.0130
1108.00,0.0135
1107.00,0.0141
1106.00,0.0147
1105.00,0.0153
1104.00,0.0157
1103.00,0.0159
1102.00,0.0159
1101.00,0.0156
1100.00,0.0152
1099.00,0.0146
1098.00,0.0140
1097.00,0.0135
1096.00,0.0130
1095.00,0.0126
1094.00,0.0122
1093.00,0.0119
1092.00,0.0116
1091.00,0.0114
1090.00,0.0112
1089.00,0.0110
1088.00,0.0109
1087.00,0.0108
1086.00,0.0107
1085.00,0.0105
1084.00,0.0104
1083.00,0.0104
1082.00,0.0104
1081.00,0.0103
1080.00,0.0102
1079.00,0.0099
1078.00,0.0097
1077.00,0.0096
1076.00,0.0095
1075.00,0.0094
1074.00,0.0094
1073.00,0.0094
1072.00,0.0094
1071.00,0.0094
1070.00,0.0094
1069.00,0.0094
1068.00,0.0093
1067.00,0.0093
1066.00,0.0093
1065.00,0.0093
1064.00,0.0093
1063.00,0.0093
1062.00,0.0094
1061.00,0.0094
1060.00,0.0094
1059.00,0.0095
1058.00,0.0096
1057.00,0.0098
1056.00,0.0098
1055.00,0.0098
1054.00,0.0099
1053.00,0.0100
1052.00,0.0101
1051.00,0.0104
1050.00,0.0107
1049.00,0.0110
1048.00,0.0113
1047.00,0.0117
1046.00,0.0120
1045.00,0.0122
1044.00,0.0123
1043.00,0.0121
1042.00,0.0117
1041.00,0.0113
1040.00,0.0109
1039.00,0.0106
1038.00,0.0104
1037.00,0.0103
1036.00,0.0102
1035.00,0.0102
1034.00,0.0102
1033.00,0.0102
1032.00,0.0101
1031.00,0.0101
1030.00,0.0101
1029.00,0.0100
1028.00,0.0100
1027.00,0.0099
1026.00,0.0099
1025.00,0.0098
1024.00,0.0099
1023.00,0.0100
1022.00,0.0102
1021.00,0.0103
1020.00,0.0104
1019.00,0.0104
1018.00,0.0105
1017.00,0.0107
1016.00,0.0109
1015.00,0.0112
1014.00,0.0116
1013.00,0.0121
1012.00,0.0126
1011.00,0.0131
1010.00,0.0135
1009.00,0.0140
1008.00,0.0146
1007.00,0.0155
1006.00,0.0168
1005.00,0.0185
1004.00,0.0208
1003.00,0.0237
1002.00,0.0276
1001.00,0.0323
1000.00,0.0375
999.00,0.0420
998.00,0.0446
997.00,0.0443
996.00,0.0411
995.00,0.0360
994.00,0.0304
993.00,0.0253
992.00,0.0213
991.00,0.0184
990.00,0.0164
989.00,0.0151
988.00,0.0142
987.00,0.0137
986.00,0.0135
985.00,0.0136
984.00,0.0140
983.00,0.0149
982.00,0.0163
981.00,0.0182
980.00,0.0208
979.00,0.0242
978.00,0.0286
977.00,0.0339
976.00,0.0398
975.00,0.0457
974.00,0.0507
973.00,0.0533
972.00,0.0526
971.00,0.0485
970.00,0.0423
969.00,0.0353
968.00,0.0291
967.00,0.0241
966.00,0.0204
965.00,0.0176
964.00,0.0156
963.00,0.0141
962.00,0.0130
961.00,0.0121
960.00,0.0115
959.00,0.0111
958.00,0.0107
957.00,0.0103
956.00,0.0100
955.00,0.0098
954.00,0.0095
953.00,0.0093
952.00,0.0092
951.00,0.0092
950.00,0.0091
949.00,0.0091
948.00,0.0090
947.00,0.0091
946.00,0.0092
945.00,0.0094
944.00,0.0097
943.00,0.0100
942.00,0.0102
941.00,0.0103
940.00,0.0101
939.00,0.0098
938.00,0.0094
937.00,0.0090
936.00,0.0085
935.00,0.0082
934.00,0.0079
933.00,0.0076
932.00,0.0073
931.00,0.0072
930.00,0.0071
929.00,0.0070
928.00,0.0070
927.00,0.0070
926.00,0.0070
925.00,0.0071
924.00,0.0071
923.00,0.0071
922.00,0.0071
921.00,0.0071
920.00,0.0071
919.00,0.0072
918.00,0.0074
917.00,0.0075
916.00,0.0075
915.00,0.0076
914.00,0.0076
913.00,0.0077
912.00,0.0077
911.00,0.0078
910.00,0.0079
909.00,0.0081
908.00,0.0083
907.00,0.0086
906.00,0.0092
905.00,0.0102
904.00,0.0116
903.00,0.0134
902.00,0.0153
901.00,0.0171
900.00,0.0183
899.00,0.0186
898.00,0.0179
897.00,0.0164
896.00,0.0146
895.00,0.0128
894.00,0.0114
893.00,0.0102
892.00,0.0094
891.00,0.0088
890.00,0.0085
889.00,0.0083
888.00,0.0083
887.00,0.0082
886.00,0.0081
885.00,0.0079
884.00,0.0078
883.00,0.0078
882.00,0.0077
881.00,0.0077
880.00,0.0076
879.00,0.0076
878.00,0.0076
877.00,0.0076
876.00,0.0076
875.00,0.0076
874.00,0.0076
873.00,0.0077
872.00,0.0077
871.00,0.0077
870.00,0.0077
869.00,0.0077
868.00,0.0078
867.00,0.0079
866.00,0.0080
865.00,0.0081
864.00,0.0082
863.00,0.0083
862.00,0.0083
861.00,0.0084
860.00,0.0086
859.00,0.0089
858.00,0.0093
857.00,0.0097
856.00,0.0099
855.00,0.0101
854.00,0.0104
853.00,0.0107
852.00,0.0111
851.00,0.0117
850.00,0.0124
849.00,0.0134
848.00,0.0148
847.00,0.0168
846.00,0.0198
845.00,0.0243
844.00,0.0304
843.00,0.0373
842.00,0.0430
841.00,0.0450
840.00,0.0425
839.00,0.0367
838.00,0.0301
837.00,0.0246
836.00,0.0208
835.00,0.0183
834.00,0.0166
833.00,0.0154
832.00,0.0146
831.00,0.0139
830.00,0.0134
829.00,0.0131
828.00,0.0128
827.00,0.0125
826.00,0.0123
825.00,0.0121
824.00,0.0118
823.00,0.0116
822.00,0.0116
821.00,0.0118
820.00,0.0119
819.00,0.0121
818.00,0.0123
817.00,0.0127
816.00,0.0134
815.00,0.0143
814.00,0.0155
813.00,0.0170
812.00,0.0186
811.00,0.0201
810.00,0.0213
809.00,0.0218
808.00,0.0217
807.00,0.0208
806.00,0.0194
805.00,0.0178
804.00,0.0162
803.00,0.0148
802.00,0.0138
801.00,0.0130
800.00,0.0123
799.00,0.0116
798.00,0.0110
797.00,0.0106
796.00,0.0103
795.00,0.0101
794.00,0.0099
793.00,0.0096
792.00,0.0094
791.00,0.0091
790.00,0.0089
789.00,0.0086
788.00,0.0084
787.00,0.0082
786.00,0.0080
785.00,0.0077
784.00,0.0075
783.00,0.0073
782.00,0.0071
781.00,0.0070
780.00,0.0070
779.00,0.0070
778.00,0.0069
777.00,0.0069
776.00,0.0069
775.00,0.0070
774.00,0.0072
773.00,0.0076
772.00,0.0080
771.00,0.0085
770.00,0.0088
769.00,0.0091
768.00,0.0092
767.00,0.0092
766.00,0.0092
765.00,0.0090
764.00,0.0086
763.00,0.0082
762.00,0.0078
761.00,0.0075
760.00,0.0072
759.00,0.0068
758.00,0.0065
757.00,0.0063
756.00,0.0062
755.00,0.0060
754.00,0.0059
753.00,0.0059
752.00,0.0060
751.00,0.0062
750.00,0.0062
749.00,0.0062
748.00,0.0062
747.00,0.0063
746.00,0.0064
745.00,0.0065
744.00,0.0065
743.00,0.0066
742.00,0.0067
741.00,0.0069
740.00,0.0070
739.00,0.0071
738.00,0.0071
737.00,0.0072
736.00,0.0073
735.00,0.0075
734.00,0.0078
733.00,0.0079
732.00,0.0079
731.00,0.0077
730.00,0.0075
729.00,0.0074
728.00,0.0073
727.00,0.0073
726.00,0.0073
725.00,0.0074
724.00,0.0076
723.00,0.0077
722.00,0.0076
721.00,0.0074
720.00,0.0072
719.00,0.0070
718.00,0.0069
717.00,0.0069
716.00,0.0068
715.00,0.0068
714.00,0.0068
713.00,0.0068
712.00,0.0068
711.00,0.0068
710.00,0.0069
709.00,0.0070
708.00,0.0070
707.00,0.0068
706.00,0.0067
705.00,0.0067
704.00,0.0069
703.00,0.0070
702.00,0.0069
701.00,0.0067
700.00,0.0065
699.00,0.0062
698.00,0.0061
697.00,0.0060
696.00,0.0059
695.00,0.0059
694.00,0.0059
693.00,0.0060
692.00,0.0060
691.00,0.0061
690.00,0.0061
689.00,0.0060
688.00,0.0060
687.00,0.0060
686.00,0.0060
685.00,0.0060
684.00,0.0061
683.00,0.0061
682.00,0.0062
681.00,0.0062
680.00,0.0061
679.00,0.0060
678.00,0.0059
677.00,0.0060
676.00,0.0062
675.00,0.0065
674.00,0.0067
673.00,0.0067
672.00,0.0067
671.00,0.0066
670.00,0.0065
669.00,0.0063
668.00,0.0061
667.00,0.0059
666.00,0.0058
665.00,0.0058
664.00,0.0059
663.00,0.0061
662.00,0.0064
661.00,0.0064
660.00,0.0063
659.00,0.0061
658.00,0.0060
657.00,0.0060
656.00,0.0061
655.00,0.0061
654.00,0.0062
653.00,0.0063
652.00,0.0063
651.00,0.0062
650.00,0.0061
649.00,0.0060
648.00,0.0060
647.00,0.0061
646.00,0.0062
645.00,0.0062
644.00,0.0062
643.00,0.0062
642.00,0.0063
641.00,0.0063
640.00,0.0062
639.00,0.0060
638.00,0.0059
637.00,0.0058
636.00,0.0059
635.00,0.0061
634.00,0.0064
633.00,0.0067
632.00,0.0068
631.00,0.0067
630.00,0.0065
629.00,0.0063
628.00,0.0064
627.00,0.0067
626.00,0.0070
625.00,0.0072
624.00,0.0071
623.00,0.0070
622.00,0.0069
621.00,0.0067
620.00,0.0065
619.00,0.0063
618.00,0.0062
617.00,0.0062
616.00,0.0064
615.00,0.0065
614.00,0.0063
613.00,0.0061
612.00,0.0059
611.00,0.0059
610.00,0.0060
609.00,0.0061
608.00,0.0063
607.00,0.0065
606.00,0.0066
605.00,0.0066
604.00,0.0066
603.00,0.0066
602.00,0.0067
601.00,0.0068
600.00,0.0068
599.00,0.0066
598.00,0.0064
597.00,0.0063
596.00,0.0062
595.00,0.0064
594.00,0.0067
593.00,0.0069
592.00,0.0069
591.00,0.0068
590.00,0.0067
589.00,0.0066
588.00,0.0066
587.00,0.0067
586.00,0.0069
585.00,0.0070
584.00,0.0070
583.00,0.0070
582.00,0.0072
581.00,0.0074
580.00,0.0075
579.00,0.0074
578.00,0.0074
577.00,0.0074
576.00,0.0075
575.00,0.0075
574.00,0.0074
573.00,0.0072
572.00,0.0071
571.00,0.0070
570.00,0.0069
569.00,0.0067
568.00,0.0067
567.00,0.0068
566.00,0.0069
565.00,0.0071
564.00,0.0071
563.00,0.0072
562.00,0.0072
561.00,0.0073
560.00,0.0075
559.00,0.0079
558.00,0.0082
557.00,0.0082
556.00,0.0078
555.00,0.0073
554.00,0.0070
553.00,0.0069
552.00,0.0069
551.00,0.0069
550.00,0.0067
549.00,0.0067
548.00,0.0069
547.00,0.0071
546.00,0.0074
545.00,0.0076
544.00,0.0078
543.00,0.0078
542.00,0.0076
541.00,0.0072
540.00,0.0069
539.00,0.0070
538.00,0.0073
537.00,0.0075
536.00,0.0077
535.00,0.0078
534.00,0.0080
533.00,0.0082
532.00,0.0084
531.00,0.0087
530.00,0.0092
529.00,0.0096
528.00,0.0098
527.00,0.0096
526.00,0.0092
525.00,0.0086
524.00,0.0084
523.00,0.0085
522.00,0.0088
521.00,0.0087
520.00,0.0082
519.00,0.0073
518.00,0.0068
517.00,0.0067
516.00,0.0071
515.00,0.0073
514.00,0.0073
513.00,0.0071
512.00,0.0070
511.00,0.0071
510.00,0.0074
509.00,0.0076
508.00,0.0075
507.00,0.0073
506.00,0.0072
505.00,0.0072
504.00,0.0075
503.00,0.0078
502.00,0.0079
501.00,0.0075
500.00,0.0069
499.00,0.0065
498.00,0.0066
497.00,0.0070
496.00,0.0073
495.00,0.0074
494.00,0.0073
493.00,0.0074
492.00,0.0077
491.00,0.0077
490.00,0.0075
489.00,0.0073
488.00,0.0075
487.00,0.0078
486.00,0.0077
485.00,0.0069
484.00,0.0058
483.00,0.0051
482.00,0.0051
481.00,0.0054
480.00,0.0057
479.00,0.0061
478.00,0.0068
477.00,0.0078
476.00,0.0088
475.00,0.0096
474.00,0.0103
473.00,0.0107
472.00,0.0110
471.00,0.0114
470.00,0.0118
469.00,0.0119
468.00,0.0114
467.00,0.0107
466.00,0.0102
465.00,0.0100
464.00,0.0100
463.00,0.0104
462.00,0.0117
461.00,0.0136
460.00,0.0155
459.00,0.0163
458.00,0.0157
457.00,0.0145
456.00,0.0135
455.00,0.0133
454.00,0.0134
453.00,0.0134
452.00,0.0129
451.00,0.0120
450.00,0.0110
