Created as New Dataset,Sample 182 By Administrator Date Tuesday, September 09 2025
cm-1,A
4000.00,0.0002
3999.00,0.0002
3998.00,0.0002
3997.00,0.0002
3996.00,0.0002
3995.00,0.0002
3994.00,0.0002
3993.00,0.0002
3992.00,0.0002
3991.00,0.0002
3990.00,0.0001
3989.00,0.0001
3988.00,0.0001
3987.00,0.0001
3986.00,0.0001
3985.00,0.0001
3984.00,0.0001
3983.00,0.0001
3982.00,0.0001
3981.00,0.0001
3980.00,0.0001
3979.00,0.0000
3978.00,0.0000
3977.00,0.0000
3976.00,0.0001
3975.00,0.0001
3974.00,0.0001
3973.00,0.0001
3972.00,0.0001
3971.00,0.0001
3970.00,0.0001
3969.00,0.0001
3968.00,0.0001
3967.00,0.0001
3966.00,0.0001
3965.00,0.0001
3964.00,0.0001
3963.00,0.0001
3962.00,0.0000
3961.00,0.0000
3960.00,0.0000
3959.00,0.0000
3958.00,0.0000
3957.00,0.0001
3956.00,0.0001
3955.00,0.0001
3954.00,0.0001
3953.00,0.0001
3952.00,0.0000
3951.00,0.0000
3950.00,0.0000
3949.00,0.0000
3948.00,0.0000
3947.00,0.0000
3946.00,0.0001
3945.00,0.0000
3944.00,0.0000
3943.00,0.0000
3942.00,0.0000
3941.00,0.0001
3940.00,0.0001
3939.00,0.0000
3938.00,0.0000
3937.00,0.0000
3936.00,0.0000
3935.00,0.0000
3934.00,-0.0000
3933.00,0.0000
3932.00,0.0000
3931.00,0.0001
3930.00,0.0001
3929.00,0.0001
3928.00,0.0001
3927.00,0.0001
3926.00,0.0001
3925.00,0.0001
3924.00,0.0001
3923.00,0.0001
3922.00,0.0001
3921.00,0.0001
3920.00,0.0001
3919.00,0.0000
3918.00,0.0000
3917.00,0.0000
3916.00,0.0000
3915.00,0.0001
3914.00,0.0001
3913.00,0.0001
3912.00,0.0001
3911.00,0.0001
3910.00,0.0001
3909.00,0.0001
3908.00,0.0000
3907.00,0.0000
3906.00,-0.0000
3905.00,-0.0000
3904.00,-0.0000
3903.00,-0.0000
3902.00,-0.0000
3901.00,-0.0000
3900.00,-0.0000
3899.00,-0.0000
3898.00,0.0000
3897.00,0.0000
3896.00,0.0000
3895.00,0.0000
3894.00,0.0001
3893.00,0.0001
3892.00,0.0001
3891.00,0.0000
3890.00,0.0000
3889.00,0.0000
3888.00,0.0000
3887.00,0.0001
3886.00,0.0001
3885.00,0.0001
3884.00,0.0001
3883.00,0.0001
3882.00,0.0001
3881.00,0.0001
3880.00,0.0001
3879.00,0.0001
3878.00,0.0001
3877.00,0.0001
3876.00,0.0001
3875.00,0.0001
3874.00,0.0001
3873.00,0.0002
3872.00,0.0002
3871.00,0.0002
3870.00,0.0002
3869.00,0.0001
3868.00,0.0001
3867.00,0.0001
3866.00,0.0002
3865.00,0.0002
3864.00,0.0002
3863.00,0.0002
3862.00,0.0002
3861.00,0.0002
3860.00,0.0002
3859.00,0.0001
3858.00,0.0001
3857.00,0.0002
3856.00,0.0002
3855.00,0.0002
3854.00,0.0002
3853.00,0.0002
3852.00,0.0002
3851.00,0.0002
3850.00,0.0003
3849.00,0.0002
3848.00,0.0002
3847.00,0.0001
3846.00,0.0001
3845.00,0.0001
3844.00,0.0001
3843.00,0.0001
3842.00,0.0001
3841.00,0.0001
3840.00,0.0001
3839.00,0.0001
3838.00,0.0002
3837.00,0.0003
3836.00,0.0003
3835.00,0.0003
3834.00,0.0003
3833.00,0.0002
3832.00,0.0002
3831.00,0.0002
3830.00,0.0002
3829.00,0.0002
3828.00,0.0002
3827.00,0.0002
3826.00,0.0002
3825.00,0.0002
3824.00,0.0002
3823.00,0.0002
3822.00,0.0002
3821.00,0.0002
3820.00,0.0002
3819.00,0.0002
3818.00,0.0002
3817.00,0.0002
3816.00,0.0003
3815.00,0.0003
3814.00,0.0003
3813.00,0.0003
3812.00,0.0003
3811.00,0.0003
3810.00,0.0002
3809.00,0.0002
3808.00,0.0001
3807.00,0.0001
3806.00,0.0001
3805.00,0.0001
3804.00,0.0002
3803.00,0.0002
3802.00,0.0003
3801.00,0.0003
3800.00,0.0003
3799.00,0.0004
3798.00,0.0003
3797.00,0.0003
3796.00,0.0002
3795.00,0.0002
3794.00,0.0002
3793.00,0.0002
3792.00,0.0002
3791.00,0.0001
3790.00,0.0001
3789.00,0.0001
3788.00,0.0001
3787.00,0.0001
3786.00,0.0001
3785.00,0.0001
3784.00,0.0001
3783.00,0.0001
3782.00,0.0001
3781.00,0.0001
3780.00,0.0001
3779.00,0.0002
3778.00,0.0002
3777.00,0.0002
3776.00,0.0002
3775.00,0.0002
3774.00,0.0001
3773.00,0.0001
3772.00,0.0001
3771.00,0.0001
3770.00,0.0001
3769.00,0.0002
3768.00,0.0002
3767.00,0.0002
3766.00,0.0003
3765.00,0.0003
3764.00,0.0003
3763.00,0.0003
3762.00,0.0003
3761.00,0.0002
3760.00,0.0002
3759.00,0.0002
3758.00,0.0002
3757.00,0.0003
3756.00,0.0003
3755.00,0.0003
3754.00,0.0004
3753.00,0.0004
3752.00,0.0004
3751.00,0.0004
3750.00,0.0004
3749.00,0.0004
3748.00,0.0004
3747.00,0.0004
3746.00,0.0004
3745.00,0.0003
3744.00,0.0003
3743.00,0.0003
3742.00,0.0003
3741.00,0.0003
3740.00,0.0002
3739.00,0.0002
3738.00,0.0003
3737.00,0.0003
3736.00,0.0002
3735.00,0.0002
3734.00,0.0002
3733.00,0.0002
3732.00,0.0002
3731.00,0.0002
3730.00,0.0002
3729.00,0.0002
3728.00,0.0001
3727.00,0.0001
3726.00,0.0001
3725.00,0.0001
3724.00,0.0002
3723.00,0.0002
3722.00,0.0002
3721.00,0.0002
3720.00,0.0001
3719.00,0.0000
3718.00,-0.0000
3717.00,-0.0000
3716.00,0.0000
3715.00,0.0001
3714.00,0.0001
3713.00,0.0000
3712.00,-0.0000
3711.00,-0.0001
3710.00,-0.0001
3709.00,0.0000
3708.00,0.0001
3707.00,0.0001
3706.00,0.0001
3705.00,0.0001
3704.00,0.0000
3703.00,0.0000
3702.00,-0.0000
3701.00,-0.0000
3700.00,-0.0000
3699.00,0.0000
3698.00,0.0000
3697.00,0.0000
3696.00,0.0000
3695.00,0.0000
3694.00,0.0001
3693.00,0.0001
3692.00,0.0001
3691.00,0.0001
3690.00,0.0002
3689.00,0.0002
3688.00,0.0002
3687.00,0.0002
3686.00,0.0002
3685.00,0.0002
3684.00,0.0002
3683.00,0.0001
3682.00,0.0001
3681.00,0.0001
3680.00,0.0001
3679.00,0.0001
3678.00,0.0001
3677.00,0.0001
3676.00,0.0002
3675.00,0.0002
3674.00,0.0002
3673.00,0.0002
3672.00,0.0002
3671.00,0.0002
3670.00,0.0002
3669.00,0.0001
3668.00,0.0000
3667.00,-0.0000
3666.00,-0.0001
3665.00,-0.0001
3664.00,-0.0001
3663.00,-0.0001
3662.00,-0.0001
3661.00,-0.0000
3660.00,-0.0000
3659.00,-0.0000
3658.00,-0.0000
3657.00,-0.0001
3656.00,-0.0001
3655.00,-0.0001
3654.00,-0.0001
3653.00,-0.0001
3652.00,-0.0000
3651.00,0.0001
3650.00,0.0001
3649.00,0.0002
3648.00,0.0002
3647.00,0.0003
3646.00,0.0002
3645.00,0.0001
3644.00,0.0001
3643.00,0.0000
3642.00,0.0000
3641.00,0.0000
3640.00,0.0001
3639.00,0.0001
3638.00,0.0001
3637.00,0.0001
3636.00,0.0001
3635.00,0.0001
3634.00,0.0001
3633.00,0.0001
3632.00,0.0001
3631.00,0.0001
3630.00,0.0001
3629.00,0.0001
3628.00,0.0001
3627.00,0.0001
3626.00,0.0000
3625.00,0.0000
3624.00,0.0000
3623.00,0.0000
3622.00,0.0000
3621.00,0.0001
3620.00,0.0001
3619.00,0.0002
3618.00,0.0002
3617.00,0.0002
3616.00,0.0002
3615.00,0.0002
3614.00,0.0002
3613.00,0.0002
3612.00,0.0001
3611.00,0.0001
3610.00,0.0001
3609.00,0.0001
3608.00,0.0001
3607.00,0.0001
3606.00,0.0001
3605.00,0.0001
3604.00,0.0001
3603.00,0.0001
3602.00,0.0001
3601.00,0.0001
3600.00,0.0001
3599.00,0.0001
3598.00,0.0001
3597.00,0.0001
3596.00,0.0001
3595.00,0.0002
3594.00,0.0003
3593.00,0.0004
3592.00,0.0004
3591.00,0.0004
3590.00,0.0004
3589.00,0.0004
3588.00,0.0003
3587.00,0.0003
3586.00,0.0003
3585.00,0.0003
3584.00,0.0003
3583.00,0.0003
3582.00,0.0003
3581.00,0.0004
3580.00,0.0004
3579.00,0.0005
3578.00,0.0005
3577.00,0.0005
3576.00,0.0005
3575.00,0.0004
3574.00,0.0004
3573.00,0.0004
3572.00,0.0004
3571.00,0.0004
3570.00,0.0004
3569.00,0.0005
3568.00,0.0005
3567.00,0.0005
3566.00,0.0005
3565.00,0.0005
3564.00,0.0006
3563.00,0.0006
3562.00,0.0006
3561.00,0.0006
3560.00,0.0006
3559.00,0.0007
3558.00,0.0007
3557.00,0.0007
3556.00,0.0007
3555.00,0.0007
3554.00,0.0007
3553.00,0.0007
3552.00,0.0007
3551.00,0.0008
3550.00,0.0008
3549.00,0.0008
3548.00,0.0008
3547.00,0.0008
3546.00,0.0008
3545.00,0.0009
3544.00,0.0009
3543.00,0.0009
3542.00,0.0009
3541.00,0.0009
3540.00,0.0009
3539.00,0.0009
3538.00,0.0009
3537.00,0.0009
3536.00,0.0010
3535.00,0.0010
3534.00,0.0011
3533.00,0.0011
3532.00,0.0011
3531.00,0.0011
3530.00,0.0011
3529.00,0.0011
3528.00,0.0011
3527.00,0.0012
3526.00,0.0012
3525.00,0.0012
3524.00,0.0012
3523.00,0.0012
3522.00,0.0012
3521.00,0.0012
3520.00,0.0012
3519.00,0.0013
3518.00,0.0013
3517.00,0.0013
3516.00,0.0013
3515.00,0.0013
3514.00,0.0013
3513.00,0.0013
3512.00,0.0014
3511.00,0.0015
3510.00,0.0015
3509.00,0.0015
3508.00,0.0015
3507.00,0.0015
3506.00,0.0015
3505.00,0.0015
3504.00,0.0015
3503.00,0.0016
3502.00,0.0016
3501.00,0.0017
3500.00,0.0017
3499.00,0.0017
3498.00,0.0017
3497.00,0.0017
3496.00,0.0017
3495.00,0.0018
3494.00,0.0018
3493.00,0.0018
3492.00,0.0018
3491.00,0.0018
3490.00,0.0018
3489.00,0.0018
3488.00,0.0018
3487.00,0.0019
3486.00,0.0019
3485.00,0.0019
3484.00,0.0020
3483.00,0.0020
3482.00,0.0020
3481.00,0.0020
3480.00,0.0020
3479.00,0.0020
3478.00,0.0020
3477.00,0.0020
3476.00,0.0020
3475.00,0.0020
3474.00,0.0021
3473.00,0.0021
3472.00,0.0021
3471.00,0.0021
3470.00,0.0021
3469.00,0.0021
3468.00,0.0021
3467.00,0.0021
3466.00,0.0021
3465.00,0.0021
3464.00,0.0021
3463.00,0.0022
3462.00,0.0022
3461.00,0.0023
3460.00,0.0023
3459.00,0.0023
3458.00,0.0023
3457.00,0.0023
3456.00,0.0023
3455.00,0.0023
3454.00,0.0023
3453.00,0.0024
3452.00,0.0024
3451.00,0.0024
3450.00,0.0024
3449.00,0.0024
3448.00,0.0025
3447.00,0.0025
3446.00,0.0025
3445.00,0.0025
3444.00,0.0026
3443.00,0.0026
3442.00,0.0026
3441.00,0.0026
3440.00,0.0026
3439.00,0.0026
3438.00,0.0026
3437.00,0.0026
3436.00,0.0027
3435.00,0.0027
3434.00,0.0027
3433.00,0.0027
3432.00,0.0027
3431.00,0.0027
3430.00,0.0027
3429.00,0.0027
3428.00,0.0028
3427.00,0.0028
3426.00,0.0029
3425.00,0.0029
3424.00,0.0029
3423.00,0.0029
3422.00,0.0029
3421.00,0.0029
3420.00,0.0030
3419.00,0.0030
3418.00,0.0031
3417.00,0.0031
3416.00,0.0031
3415.00,0.0031
3414.00,0.0031
3413.00,0.0031
3412.00,0.0032
3411.00,0.0032
3410.00,0.0032
3409.00,0.0032
3408.00,0.0032
3407.00,0.0032
3406.00,0.0032
3405.00,0.0032
3404.00,0.0032
3403.00,0.0032
3402.00,0.0033
3401.00,0.0033
3400.00,0.0033
3399.00,0.0033
3398.00,0.0033
3397.00,0.0034
3396.00,0.0033
3395.00,0.0033
3394.00,0.0033
3393.00,0.0033
3392.00,0.0033
3391.00,0.0033
3390.00,0.0033
3389.00,0.0033
3388.00,0.0033
3387.00,0.0033
3386.00,0.0033
3385.00,0.0033
3384.00,0.0033
3383.00,0.0033
3382.00,0.0033
3381.00,0.0034
3380.00,0.0034
3379.00,0.0034
3378.00,0.0034
3377.00,0.0034
3376.00,0.0033
3375.00,0.0034
3374.00,0.0034
3373.00,0.0034
3372.00,0.0034
3371.00,0.0034
3370.00,0.0034
3369.00,0.0033
3368.00,0.0034
3367.00,0.0034
3366.00,0.0034
3365.00,0.0034
3364.00,0.0034
3363.00,0.0034
3362.00,0.0034
3361.00,0.0034
3360.00,0.0034
3359.00,0.0034
3358.00,0.0035
3357.00,0.0035
3356.00,0.0035
3355.00,0.0035
3354.00,0.0035
3353.00,0.0035
3352.00,0.0035
3351.00,0.0035
3350.00,0.0035
3349.00,0.0035
3348.00,0.0035
3347.00,0.0035
3346.00,0.0035
3345.00,0.0035
3344.00,0.0035
3343.00,0.0035
3342.00,0.0035
3341.00,0.0035
3340.00,0.0035
3339.00,0.0034
3338.00,0.0034
3337.00,0.0034
3336.00,0.0034
3335.00,0.0034
3334.00,0.0034
3333.00,0.0033
3332.00,0.0033
3331.00,0.0033
3330.00,0.0033
3329.00,0.0033
3328.00,0.0033
3327.00,0.0033
3326.00,0.0033
3325.00,0.0033
3324.00,0.0033
3323.00,0.0033
3322.00,0.0033
3321.00,0.0033
3320.00,0.0032
3319.00,0.0032
3318.00,0.0033
3317.00,0.0033
3316.00,0.0033
3315.00,0.0033
3314.00,0.0033
3313.00,0.0033
3312.00,0.0033
3311.00,0.0033
3310.00,0.0032
3309.00,0.0032
3308.00,0.0032
3307.00,0.0032
3306.00,0.0032
3305.00,0.0032
3304.00,0.0032
3303.00,0.0033
3302.00,0.0033
3301.00,0.0033
3300.00,0.0033
3299.00,0.0033
3298.00,0.0033
3297.00,0.0033
3296.00,0.0033
3295.00,0.0033
3294.00,0.0033
3293.00,0.0033
3292.00,0.0033
3291.00,0.0033
3290.00,0.0033
3289.00,0.0033
3288.00,0.0032
3287.00,0.0032
3286.00,0.0031
3285.00,0.0031
3284.00,0.0031
3283.00,0.0031
3282.00,0.0031
3281.00,0.0031
3280.00,0.0031
3279.00,0.0030
3278.00,0.0030
3277.00,0.0031
3276.00,0.0031
3275.00,0.0031
3274.00,0.0031
3273.00,0.0031
3272.00,0.0031
3271.00,0.0031
3270.00,0.0031
3269.00,0.0031
3268.00,0.0031
3267.00,0.0031
3266.00,0.0030
3265.00,0.0030
3264.00,0.0030
3263.00,0.0030
3262.00,0.0030
3261.00,0.0030
3260.00,0.0030
3259.00,0.0030
3258.00,0.0030
3257.00,0.0029
3256.00,0.0029
3255.00,0.0029
3254.00,0.0028
3253.00,0.0028
3252.00,0.0028
3251.00,0.0028
3250.00,0.0029
3249.00,0.0029
3248.00,0.0029
3247.00,0.0028
3246.00,0.0028
3245.00,0.0028
3244.00,0.0028
3243.00,0.0028
3242.00,0.0028
3241.00,0.0029
3240.00,0.0029
3239.00,0.0029
3238.00,0.0028
3237.00,0.0028
3236.00,0.0029
3235.00,0.0029
3234.00,0.0029
3233.00,0.0029
3232.00,0.0029
3231.00,0.0029
3230.00,0.0029
3229.00,0.0029
3228.00,0.0030
3227.00,0.0030
3226.00,0.0030
3225.00,0.0030
3224.00,0.0031
3223.00,0.0031
3222.00,0.0031
3221.00,0.0031
3220.00,0.0031
3219.00,0.0031
3218.00,0.0032
3217.00,0.0032
3216.00,0.0032
3215.00,0.0032
3214.00,0.0032
3213.00,0.0032
3212.00,0.0032
3211.00,0.0033
3210.00,0.0033
3209.00,0.0033
3208.00,0.0034
3207.00,0.0034
3206.00,0.0034
3205.00,0.0034
3204.00,0.0034
3203.00,0.0034
3202.00,0.0034
3201.00,0.0034
3200.00,0.0034
3199.00,0.0034
3198.00,0.0034
3197.00,0.0034
3196.00,0.0034
3195.00,0.0034
3194.00,0.0034
3193.00,0.0034
3192.00,0.0033
3191.00,0.0033
3190.00,0.0033
3189.00,0.0032
3188.00,0.0032
3187.00,0.0031
3186.00,0.0031
3185.00,0.0031
3184.00,0.0031
3183.00,0.0032
3182.00,0.0032
3181.00,0.0031
3180.00,0.0031
3179.00,0.0030
3178.00,0.0030
3177.00,0.0030
3176.00,0.0030
3175.00,0.0030
3174.00,0.0030
3173.00,0.0029
3172.00,0.0029
3171.00,0.0029
3170.00,0.0029
3169.00,0.0029
3168.00,0.0029
3167.00,0.0029
3166.00,0.0029
3165.00,0.0029
3164.00,0.0029
3163.00,0.0029
3162.00,0.0029
3161.00,0.0029
3160.00,0.0028
3159.00,0.0028
3158.00,0.0028
3157.00,0.0028
3156.00,0.0028
3155.00,0.0029
3154.00,0.0029
3153.00,0.0029
3152.00,0.0029
3151.00,0.0029
3150.00,0.0029
3149.00,0.0029
3148.00,0.0029
3147.00,0.0028
3146.00,0.0028
3145.00,0.0028
3144.00,0.0028
3143.00,0.0028
3142.00,0.0028
3141.00,0.0028
3140.00,0.0028
3139.00,0.0028
3138.00,0.0028
3137.00,0.0027
3136.00,0.0027
3135.00,0.0026
3134.00,0.0026
3133.00,0.0026
3132.00,0.0026
3131.00,0.0026
3130.00,0.0026
3129.00,0.0026
3128.00,0.0026
3127.00,0.0026
3126.00,0.0025
3125.00,0.0025
3124.00,0.0025
3123.00,0.0025
3122.00,0.0024
3121.00,0.0024
3120.00,0.0024
3119.00,0.0024
3118.00,0.0024
3117.00,0.0024
3116.00,0.0024
3115.00,0.0024
3114.00,0.0023
3113.00,0.0023
3112.00,0.0023
3111.00,0.0022
3110.00,0.0022
3109.00,0.0022
3108.00,0.0022
3107.00,0.0022
3106.00,0.0022
3105.00,0.0021
3104.00,0.0021
3103.00,0.0021
3102.00,0.0021
3101.00,0.0021
3100.00,0.0021
3099.00,0.0021
3098.00,0.0021
3097.00,0.0022
3096.00,0.0022
3095.00,0.0022
3094.00,0.0021
3093.00,0.0021
3092.00,0.0020
3091.00,0.0020
3090.00,0.0020
3089.00,0.0021
3088.00,0.0021
3087.00,0.0020
3086.00,0.0020
3085.00,0.0020
3084.00,0.0020
3083.00,0.0020
3082.00,0.0020
3081.00,0.0020
3080.00,0.0020
3079.00,0.0020
3078.00,0.0020
3077.00,0.0020
3076.00,0.0020
3075.00,0.0020
3074.00,0.0020
3073.00,0.0020
3072.00,0.0020
3071.00,0.0020
3070.00,0.0021
3069.00,0.0021
3068.00,0.0022
3067.00,0.0022
3066.00,0.0022
3065.00,0.0022
3064.00,0.0023
3063.00,0.0023
3062.00,0.0023
3061.00,0.0023
3060.00,0.0023
3059.00,0.0023
3058.00,0.0023
3057.00,0.0023
3056.00,0.0024
3055.00,0.0024
3054.00,0.0025
3053.00,0.0025
3052.00,0.0025
3051.00,0.0026
3050.00,0.0026
3049.00,0.0026
3048.00,0.0026
3047.00,0.0025
3046.00,0.0025
3045.00,0.0025
3044.00,0.0026
3043.00,0.0026
3042.00,0.0027
3041.00,0.0027
3040.00,0.0027
3039.00,0.0027
3038.00,0.0028
3037.00,0.0028
3036.00,0.0029
3035.00,0.0029
3034.00,0.0029
3033.00,0.0029
3032.00,0.0029
3031.00,0.0030
3030.00,0.0030
3029.00,0.0031
3028.00,0.0031
3027.00,0.0032
3026.00,0.0032
3025.00,0.0033
3024.00,0.0034
3023.00,0.0034
3022.00,0.0035
3021.00,0.0036
3020.00,0.0037
3019.00,0.0038
3018.00,0.0038
3017.00,0.0039
3016.00,0.0041
3015.00,0.0042
3014.00,0.0044
3013.00,0.0045
3012.00,0.0046
3011.00,0.0047
3010.00,0.0048
3009.00,0.0049
3008.00,0.0051
3007.00,0.0052
3006.00,0.0054
3005.00,0.0056
3004.00,0.0058
3003.00,0.0060
3002.00,0.0063
3001.00,0.0065
3000.00,0.0068
2999.00,0.0071
2998.00,0.0074
2997.00,0.0078
2996.00,0.0081
2995.00,0.0085
2994.00,0.0090
2993.00,0.0095
2992.00,0.0100
2991.00,0.0106
2990.00,0.0112
2989.00,0.0119
2988.00,0.0127
2987.00,0.0136
2986.00,0.0146
2985.00,0.0157
2984.00,0.0169
2983.00,0.0183
2982.00,0.0199
2981.00,0.0216
2980.00,0.0236
2979.00,0.0258
2978.00,0.0283
2977.00,0.0311
2976.00,0.0343
2975.00,0.0380
2974.00,0.0422
2973.00,0.0469
2972.00,0.0523
2971.00,0.0584
2970.00,0.0650
2969.00,0.0723
2968.00,0.0802
2967.00,0.0885
2966.00,0.0971
2965.00,0.1057
2964.00,0.1140
2963.00,0.1214
2962.00,0.1277
2961.00,0.1327
2960.00,0.1366
2959.00,0.1400
2958.00,0.1436
2957.00,0.1481
2956.00,0.1541
2955.00,0.1618
2954.00,0.1711
2953.00,0.1812
2952.00,0.1910
2951.00,0.1990
2950.00,0.2038
2949.00,0.2041
2948.00,0.1994
2947.00,0.1899
2946.00,0.1769
2945.00,0.1620
2944.00,0.1471
2943.00,0.1337
2942.00,0.1227
2941.00,0.1145
2940.00,0.1091
2939.00,0.1064
2938.00,0.1060
2937.00,0.1076
2936.00,0.1111
2935.00,0.1162
2934.00,0.1230
2933.00,0.1312
2932.00,0.1407
2931.00,0.1514
2930.00,0.1629
2929.00,0.1749
2928.00,0.1872
2927.00,0.1992
2926.00,0.2109
2925.00,0.2222
2924.00,0.2332
2923.00,0.2441
2922.00,0.2550
2921.00,0.2656
2920.00,0.2753
2919.00,0.2829
2918.00,0.2875
2917.00,0.2881
2916.00,0.2844
2915.00,0.2769
2914.00,0.2667
2913.00,0.2551
2912.00,0.2432
2911.00,0.2318
2910.00,0.2213
2909.00,0.2117
2908.00,0.2028
2907.00,0.1943
2906.00,0.1862
2905.00,0.1781
2904.00,0.1701
2903.00,0.1622
2902.00,0.1545
2901.00,0.1471
2900.00,0.1400
2899.00,0.1334
2898.00,0.1273
2897.00,0.1218
2896.00,0.1171
2895.00,0.1131
2894.00,0.1099
2893.00,0.1075
2892.00,0.1057
2891.00,0.1047
2890.00,0.1043
2889.00,0.1044
2888.00,0.1050
2887.00,0.1059
2886.00,0.1072
2885.00,0.1088
2884.00,0.1109
2883.00,0.1135
2882.00,0.1165
2881.00,0.1197
2880.00,0.1229
2879.00,0.1255
2878.00,0.1272
2877.00,0.1278
2876.00,0.1275
2875.00,0.1266
2874.00,0.1258
2873.00,0.1256
2872.00,0.1264
2871.00,0.1281
2870.00,0.1305
2869.00,0.1331
2868.00,0.1351
2867.00,0.1354
2866.00,0.1332
2865.00,0.1278
2864.00,0.1196
2863.00,0.1094
2862.00,0.0986
2861.00,0.0883
2860.00,0.0793
2859.00,0.0720
2858.00,0.0663
2857.00,0.0621
2856.00,0.0591
2855.00,0.0572
2854.00,0.0560
2853.00,0.0555
2852.00,0.0558
2851.00,0.0568
2850.00,0.0587
2849.00,0.0616
2848.00,0.0655
2847.00,0.0705
2846.00,0.0765
2845.00,0.0834
2844.00,0.0910
2843.00,0.0991
2842.00,0.1071
2841.00,0.1144
2840.00,0.1203
2839.00,0.1239
2838.00,0.1244
2837.00,0.1213
2836.00,0.1149
2835.00,0.1057
2834.00,0.0949
2833.00,0.0836
2832.00,0.0730
2831.00,0.0635
2830.00,0.0555
2829.00,0.0489
2828.00,0.0436
2827.00,0.0393
2826.00,0.0359
2825.00,0.0330
2824.00,0.0307
2823.00,0.0287
2822.00,0.0270
2821.00,0.0256
2820.00,0.0243
2819.00,0.0232
2818.00,0.0222
2817.00,0.0214
2816.00,0.0206
2815.00,0.0199
2814.00,0.0193
2813.00,0.0187
2812.00,0.0181
2811.00,0.0176
2810.00,0.0170
2809.00,0.0164
2808.00,0.0158
2807.00,0.0151
2806.00,0.0145
2805.00,0.0138
2804.00,0.0131
2803.00,0.0125
2802.00,0.0120
2801.00,0.0116
2800.00,0.0112
2799.00,0.0109
2798.00,0.0106
2797.00,0.0103
2796.00,0.0100
2795.00,0.0097
2794.00,0.0095
2793.00,0.0092
2792.00,0.0089
2791.00,0.0086
2790.00,0.0084
2789.00,0.0081
2788.00,0.0078
2787.00,0.0076
2786.00,0.0073
2785.00,0.0071
2784.00,0.0068
2783.00,0.0066
2782.00,0.0063
2781.00,0.0061
2780.00,0.0059
2779.00,0.0058
2778.00,0.0057
2777.00,0.0056
2776.00,0.0054
2775.00,0.0053
2774.00,0.0053
2773.00,0.0052
2772.00,0.0051
2771.00,0.0051
2770.00,0.0051
2769.00,0.0050
2768.00,0.0050
2767.00,0.0050
2766.00,0.0050
2765.00,0.0050
2764.00,0.0049
2763.00,0.0049
2762.00,0.0048
2761.00,0.0048
2760.00,0.0047
2759.00,0.0047
2758.00,0.0047
2757.00,0.0046
2756.00,0.0046
2755.00,0.0046
2754.00,0.0047
2753.00,0.0047
2752.00,0.0046
2751.00,0.0046
2750.00,0.0046
2749.00,0.0046
2748.00,0.0046
2747.00,0.0047
2746.00,0.0048
2745.00,0.0048
2744.00,0.0049
2743.00,0.0050
2742.00,0.0051
2741.00,0.0052
2740.00,0.0053
2739.00,0.0054
2738.00,0.0056
2737.00,0.0058
2736.00,0.0059
2735.00,0.0061
2734.00,0.0063
2733.00,0.0065
2732.00,0.0067
2731.00,0.0069
2730.00,0.0071
2729.00,0.0074
2728.00,0.0076
2727.00,0.0080
2726.00,0.0083
2725.00,0.0086
2724.00,0.0088
2723.00,0.0088
2722.00,0.0087
2721.00,0.0085
2720.00,0.0082
2719.00,0.0079
2718.00,0.0075
2717.00,0.0072
2716.00,0.0068
2715.00,0.0065
2714.00,0.0063
2713.00,0.0060
2712.00,0.0058
2711.00,0.0056
2710.00,0.0054
2709.00,0.0052
2708.00,0.0050
2707.00,0.0049
2706.00,0.0047
2705.00,0.0046
2704.00,0.0045
2703.00,0.0044
2702.00,0.0043
2701.00,0.0042
2700.00,0.0041
2699.00,0.0041
2698.00,0.0040
2697.00,0.0040
2696.00,0.0040
2695.00,0.0039
2694.00,0.0039
2693.00,0.0039
2692.00,0.0039
2691.00,0.0040
2690.00,0.0040
2689.00,0.0040
2688.00,0.0040
2687.00,0.0040
2686.00,0.0040
2685.00,0.0040
2684.00,0.0040
2683.00,0.0040
2682.00,0.0040
2681.00,0.0041
2680.00,0.0041
2679.00,0.0041
2678.00,0.0041
2677.00,0.0041
2676.00,0.0041
2675.00,0.0041
2674.00,0.0041
2673.00,0.0041
2672.00,0.0041
2671.00,0.0041
2670.00,0.0040
2669.00,0.0040
2668.00,0.0040
2667.00,0.0041
2666.00,0.0041
2665.00,0.0042
2664.00,0.0042
2663.00,0.0043
2662.00,0.0043
2661.00,0.0044
2660.00,0.0044
2659.00,0.0044
2658.00,0.0044
2657.00,0.0044
2656.00,0.0043
2655.00,0.0043
2654.00,0.0042
2653.00,0.0041
2652.00,0.0041
2651.00,0.0040
2650.00,0.0039
2649.00,0.0039
2648.00,0.0038
2647.00,0.0038
2646.00,0.0037
2645.00,0.0037
2644.00,0.0036
2643.00,0.0036
2642.00,0.0036
2641.00,0.0035
2640.00,0.0035
2639.00,0.0034
2638.00,0.0034
2637.00,0.0033
2636.00,0.0033
2635.00,0.0033
2634.00,0.0033
2633.00,0.0034
2632.00,0.0034
2631.00,0.0035
2630.00,0.0035
2629.00,0.0035
2628.00,0.0035
2627.00,0.0035
2626.00,0.0035
2625.00,0.0034
2624.00,0.0034
2623.00,0.0035
2622.00,0.0035
2621.00,0.0036
2620.00,0.0036
2619.00,0.0037
2618.00,0.0038
2617.00,0.0038
2616.00,0.0038
2615.00,0.0037
2614.00,0.0037
2613.00,0.0036
2612.00,0.0036
2611.00,0.0035
2610.00,0.0035
2609.00,0.0034
2608.00,0.0033
2607.00,0.0032
2606.00,0.0031
2605.00,0.0030
2604.00,0.0030
2603.00,0.0030
2602.00,0.0030
2601.00,0.0029
2600.00,0.0029
2599.00,0.0028
2598.00,0.0028
2597.00,0.0028
2596.00,0.0029
2595.00,0.0029
2594.00,0.0029
2593.00,0.0029
2592.00,0.0030
2591.00,0.0030
2590.00,0.0031
2589.00,0.0032
2588.00,0.0033
2587.00,0.0035
2586.00,0.0036
2585.00,0.0037
2584.00,0.0038
2583.00,0.0039
2582.00,0.0039
2581.00,0.0039
2580.00,0.0038
2579.00,0.0037
2578.00,0.0036
2577.00,0.0035
2576.00,0.0033
2575.00,0.0032
2574.00,0.0030
2573.00,0.0029
2572.00,0.0029
2571.00,0.0028
2570.00,0.0027
2569.00,0.0026
2568.00,0.0024
2567.00,0.0023
2566.00,0.0022
2565.00,0.0022
2564.00,0.0021
2563.00,0.0021
2562.00,0.0021
2561.00,0.0020
2560.00,0.0020
2559.00,0.0020
2558.00,0.0020
2557.00,0.0020
2556.00,0.0020
2555.00,0.0019
2554.00,0.0019
2553.00,0.0018
2552.00,0.0018
2551.00,0.0017
2550.00,0.0017
2549.00,0.0017
2548.00,0.0017
2547.00,0.0016
2546.00,0.0016
2545.00,0.0016
2544.00,0.0015
2543.00,0.0015
2542.00,0.0015
2541.00,0.0015
2540.00,0.0014
2539.00,0.0014
2538.00,0.0014
2537.00,0.0013
2536.00,0.0013
2535.00,0.0013
2534.00,0.0012
2533.00,0.0012
2532.00,0.0012
2531.00,0.0011
2530.00,0.0011
2529.00,0.0011
2528.00,0.0010
2527.00,0.0010
2526.00,0.0010
2525.00,0.0010
2524.00,0.0010
2523.00,0.0010
2522.00,0.0010
2521.00,0.0009
2520.00,0.0009
2519.00,0.0009
2518.00,0.0009
2517.00,0.0009
2516.00,0.0009
2515.00,0.0009
2514.00,0.0009
2513.00,0.0008
2512.00,0.0008
2511.00,0.0008
2510.00,0.0007
2509.00,0.0007
2508.00,0.0007
2507.00,0.0007
2506.00,0.0007
2505.00,0.0007
2504.00,0.0006
2503.00,0.0006
2502.00,0.0006
2501.00,0.0006
2500.00,0.0006
2499.00,0.0007
2498.00,0.0007
2497.00,0.0007
2496.00,0.0008
2495.00,0.0008
2494.00,0.0008
2493.00,0.0009
2492.00,0.0009
2491.00,0.0009
2490.00,0.0009
2489.00,0.0008
2488.00,0.0008
2487.00,0.0008
2486.00,0.0008
2485.00,0.0008
2484.00,0.0008
2483.00,0.0008
2482.00,0.0007
2481.00,0.0007
2480.00,0.0007
2479.00,0.0007
2478.00,0.0007
2477.00,0.0007
2476.00,0.0007
2475.00,0.0007
2474.00,0.0007
2473.00,0.0007
2472.00,0.0006
2471.00,0.0006
2470.00,0.0006
2469.00,0.0005
2468.00,0.0005
2467.00,0.0005
2466.00,0.0005
2465.00,0.0005
2464.00,0.0006
2463.00,0.0006
2462.00,0.0007
2461.00,0.0007
2460.00,0.0007
2459.00,0.0007
2458.00,0.0007
2457.00,0.0007
2456.00,0.0008
2455.00,0.0008
2454.00,0.0008
2453.00,0.0008
2452.00,0.0008
2451.00,0.0008
2450.00,0.0008
2449.00,0.0007
2448.00,0.0007
2447.00,0.0007
2446.00,0.0008
2445.00,0.0008
2444.00,0.0008
2443.00,0.0008
2442.00,0.0008
2441.00,0.0008
2440.00,0.0009
2439.00,0.0009
2438.00,0.0009
2437.00,0.0009
2436.00,0.0009
2435.00,0.0009
2434.00,0.0009
2433.00,0.0009
2432.00,0.0009
2431.00,0.0009
2430.00,0.0009
2429.00,0.0009
2428.00,0.0009
2427.00,0.0009
2426.00,0.0008
2425.00,0.0007
2424.00,0.0007
2423.00,0.0006
2422.00,0.0006
2421.00,0.0007
2420.00,0.0007
2419.00,0.0007
2418.00,0.0006
2417.00,0.0006
2416.00,0.0006
2415.00,0.0007
2414.00,0.0007
2413.00,0.0007
2412.00,0.0006
2411.00,0.0006
2410.00,0.0006
2409.00,0.0006
2408.00,0.0006
2407.00,0.0005
2406.00,0.0005
2405.00,0.0005
2404.00,0.0006
2403.00,0.0006
2402.00,0.0006
2401.00,0.0007
2400.00,0.0007
2399.00,0.0007
2398.00,0.0006
2397.00,0.0006
2396.00,0.0006
2395.00,0.0005
2394.00,0.0005
2393.00,0.0004
2392.00,0.0005
2391.00,0.0005
2390.00,0.0006
2389.00,0.0006
2388.00,0.0007
2387.00,0.0007
2386.00,0.0006
2385.00,0.0006
2384.00,0.0006
2383.00,0.0005
2382.00,0.0005
2381.00,0.0005
2380.00,0.0004
2379.00,0.0004
2378.00,0.0004
2377.00,0.0004
2376.00,0.0004
2375.00,0.0004
2374.00,0.0004
2373.00,0.0004
2372.00,0.0004
2371.00,0.0004
2370.00,0.0004
2369.00,0.0004
2368.00,0.0003
2367.00,0.0003
2366.00,0.0003
2365.00,0.0003
2364.00,0.0004
2363.00,0.0004
2362.00,0.0005
2361.00,0.0005
2360.00,0.0004
2359.00,0.0004
2358.00,0.0004
2357.00,0.0004
2356.00,0.0005
2355.00,0.0006
2354.00,0.0006
2353.00,0.0006
2352.00,0.0006
2351.00,0.0006
2350.00,0.0005
2349.00,0.0005
2348.00,0.0004
2347.00,0.0004
2346.00,0.0004
2345.00,0.0005
2344.00,0.0005
2343.00,0.0006
2342.00,0.0006
2341.00,0.0006
2340.00,0.0007
2339.00,0.0007
2338.00,0.0008
2337.00,0.0009
2336.00,0.0009
2335.00,0.0009
2334.00,0.0008
2333.00,0.0007
2332.00,0.0007
2331.00,0.0006
2330.00,0.0007
2329.00,0.0008
2328.00,0.0010
2327.00,0.0014
2326.00,0.0019
2325.00,0.0024
2324.00,0.0026
2323.00,0.0025
2322.00,0.0023
2321.00,0.0020
2320.00,0.0018
2319.00,0.0016
2318.00,0.0015
2317.00,0.0015
2316.00,0.0015
2315.00,0.0015
2314.00,0.0014
2313.00,0.0013
2312.00,0.0012
2311.00,0.0012
2310.00,0.0012
2309.00,0.0013
2308.00,0.0014
2307.00,0.0014
2306.00,0.0013
2305.00,0.0014
2304.00,0.0014
2303.00,0.0014
2302.00,0.0013
2301.00,0.0013
2300.00,0.0012
2299.00,0.0012
2298.00,0.0013
2297.00,0.0013
2296.00,0.0013
2295.00,0.0014
2294.00,0.0014
2293.00,0.0014
2292.00,0.0014
2291.00,0.0014
2290.00,0.0015
2289.00,0.0015
2288.00,0.0015
2287.00,0.0016
2286.00,0.0016
2285.00,0.0016
2284.00,0.0016
2283.00,0.0015
2282.00,0.0014
2281.00,0.0014
2280.00,0.0013
2279.00,0.0013
2278.00,0.0013
2277.00,0.0013
2276.00,0.0013
2275.00,0.0013
2274.00,0.0013
2273.00,0.0012
2272.00,0.0011
2271.00,0.0011
2270.00,0.0011
2269.00,0.0011
2268.00,0.0010
2267.00,0.0010
2266.00,0.0010
2265.00,0.0010
2264.00,0.0011
2263.00,0.0011
2262.00,0.0012
2261.00,0.0012
2260.00,0.0012
2259.00,0.0011
2258.00,0.0011
2257.00,0.0010
2256.00,0.0009
2255.00,0.0008
2254.00,0.0007
2253.00,0.0006
2252.00,0.0005
2251.00,0.0005
2250.00,0.0004
2249.00,0.0005
2248.00,0.0005
2247.00,0.0005
2246.00,0.0005
2245.00,0.0004
2244.00,0.0004
2243.00,0.0004
2242.00,0.0005
2241.00,0.0007
2240.00,0.0009
2239.00,0.0010
2238.00,0.0009
2237.00,0.0008
2236.00,0.0006
2235.00,0.0004
2234.00,0.0002
2233.00,0.0001
2232.00,0.0001
2231.00,0.0003
2230.00,0.0005
2229.00,0.0006
2228.00,0.0005
2227.00,0.0005
2226.00,0.0005
2225.00,0.0006
2224.00,0.0007
2223.00,0.0008
2222.00,0.0008
2221.00,0.0007
2220.00,0.0006
2219.00,0.0005
2218.00,0.0004
2217.00,0.0004
2216.00,0.0004
2215.00,0.0004
2214.00,0.0004
2213.00,0.0004
2212.00,0.0003
2211.00,0.0002
2210.00,0.0001
2209.00,0.0002
2208.00,0.0003
2207.00,0.0004
2206.00,0.0005
2205.00,0.0006
2204.00,0.0008
2203.00,0.0008
2202.00,0.0008
2201.00,0.0007
2200.00,0.0005
2199.00,0.0003
2198.00,0.0002
2197.00,0.0002
2196.00,0.0002
2195.00,0.0004
2194.00,0.0005
2193.00,0.0007
2192.00,0.0009
2191.00,0.0010
2190.00,0.0012
2189.00,0.0013
2188.00,0.0014
2187.00,0.0014
2186.00,0.0012
2185.00,0.0009
2184.00,0.0005
2183.00,0.0001
2182.00,-0.0002
2181.00,-0.0003
2180.00,-0.0001
2179.00,0.0002
2178.00,0.0005
2177.00,0.0006
2176.00,0.0003
2175.00,-0.0001
2174.00,-0.0004
2173.00,-0.0004
2172.00,-0.0002
2171.00,0.0002
2170.00,0.0007
2169.00,0.0013
2168.00,0.0016
2167.00,0.0015
2166.00,0.0013
2165.00,0.0013
2164.00,0.0015
2163.00,0.0018
2162.00,0.0018
2161.00,0.0013
2160.00,0.0002
2159.00,-0.0012
2158.00,-0.0020
2157.00,-0.0021
2156.00,-0.0019
2155.00,-0.0018
2154.00,-0.0019
2153.00,-0.0019
2152.00,-0.0017
2151.00,-0.0015
2150.00,-0.0014
2149.00,-0.0014
2148.00,-0.0016
2147.00,-0.0017
2146.00,-0.0018
2145.00,-0.0018
2144.00,-0.0018
2143.00,-0.0018
2142.00,-0.0018
2141.00,-0.0016
2140.00,-0.0015
2139.00,-0.0013
2138.00,-0.0013
2137.00,-0.0013
2136.00,-0.0015
2135.00,-0.0017
2134.00,-0.0019
2133.00,-0.0019
2132.00,-0.0018
2131.00,-0.0016
2130.00,-0.0013
2129.00,-0.0011
2128.00,-0.0010
2127.00,-0.0008
2126.00,-0.0008
2125.00,-0.0007
2124.00,-0.0007
2123.00,-0.0007
2122.00,-0.0007
2121.00,-0.0007
2120.00,-0.0006
2119.00,-0.0005
2118.00,-0.0003
2117.00,-0.0002
2116.00,-0.0001
2115.00,-0.0000
2114.00,-0.0001
2113.00,-0.0001
2112.00,-0.0001
2111.00,-0.0001
2110.00,-0.0001
2109.00,-0.0000
2108.00,0.0000
2107.00,0.0001
2106.00,0.0001
2105.00,0.0001
2104.00,0.0001
2103.00,0.0001
2102.00,0.0000
2101.00,-0.0001
2100.00,-0.0002
2099.00,-0.0003
2098.00,-0.0004
2097.00,-0.0004
2096.00,-0.0005
2095.00,-0.0006
2094.00,-0.0008
2093.00,-0.0009
2092.00,-0.0009
2091.00,-0.0008
2090.00,-0.0006
2089.00,-0.0004
2088.00,-0.0003
2087.00,-0.0001
2086.00,0.0000
2085.00,0.0002
2084.00,0.0002
2083.00,0.0002
2082.00,0.0001
2081.00,0.0001
2080.00,0.0001
2079.00,0.0001
2078.00,0.0000
2077.00,0.0000
2076.00,-0.0000
2075.00,-0.0001
2074.00,-0.0001
2073.00,-0.0000
2072.00,0.0000
2071.00,0.0001
2070.00,0.0002
2069.00,0.0001
2068.00,0.0000
2067.00,-0.0001
2066.00,-0.0001
2065.00,-0.0000
2064.00,0.0001
2063.00,0.0001
2062.00,0.0001
2061.00,0.0001
2060.00,0.0001
2059.00,0.0002
2058.00,0.0002
2057.00,0.0002
2056.00,0.0002
2055.00,0.0002
2054.00,0.0002
2053.00,0.0005
2052.00,0.0009
2051.00,0.0011
2050.00,0.0010
2049.00,0.0007
2048.00,0.0002
2047.00,-0.0003
2046.00,-0.0006
2045.00,-0.0008
2044.00,-0.0008
2043.00,-0.0007
2042.00,-0.0006
2041.00,-0.0004
2040.00,-0.0004
2039.00,-0.0005
2038.00,-0.0005
2037.00,-0.0004
2036.00,-0.0002
2035.00,-0.0000
2034.00,0.0000
2033.00,-0.0002
2032.00,-0.0005
2031.00,-0.0008
2030.00,-0.0010
2029.00,-0.0010
2028.00,-0.0009
2027.00,-0.0008
2026.00,-0.0008
2025.00,-0.0008
2024.00,-0.0009
2023.00,-0.0010
2022.00,-0.0012
2021.00,-0.0014
2020.00,-0.0017
2019.00,-0.0019
2018.00,-0.0020
2017.00,-0.0017
2016.00,-0.0012
2015.00,-0.0008
2014.00,-0.0006
2013.00,-0.0005
2012.00,-0.0005
2011.00,-0.0006
2010.00,-0.0008
2009.00,-0.0011
2008.00,-0.0015
2007.00,-0.0018
2006.00,-0.0018
2005.00,-0.0016
2004.00,-0.0014
2003.00,-0.0015
2002.00,-0.0018
2001.00,-0.0019
2000.00,-0.0019
1999.00,-0.0016
1998.00,-0.0013
1997.00,-0.0011
1996.00,-0.0010
1995.00,-0.0010
1994.00,-0.0008
1993.00,-0.0005
1992.00,-0.0003
1991.00,-0.0003
1990.00,-0.0004
1989.00,-0.0004
1988.00,-0.0003
1987.00,-0.0001
1986.00,-0.0000
1985.00,0.0001
1984.00,0.0002
1983.00,0.0005
1982.00,0.0010
1981.00,0.0013
1980.00,0.0014
1979.00,0.0010
1978.00,0.0002
1977.00,-0.0005
1976.00,-0.0010
1975.00,-0.0013
1974.00,-0.0015
1973.00,-0.0014
1972.00,-0.0012
1971.00,-0.0010
1970.00,-0.0008
1969.00,-0.0006
1968.00,-0.0005
1967.00,-0.0006
1966.00,-0.0009
1965.00,-0.0012
1964.00,-0.0015
1963.00,-0.0017
1962.00,-0.0017
1961.00,-0.0016
1960.00,-0.0015
1959.00,-0.0016
1958.00,-0.0017
1957.00,-0.0018
1956.00,-0.0017
1955.00,-0.0017
1954.00,-0.0016
1953.00,-0.0016
1952.00,-0.0017
1951.00,-0.0017
1950.00,-0.0018
1949.00,-0.0019
1948.00,-0.0019
1947.00,-0.0018
1946.00,-0.0018
1945.00,-0.0017
1944.00,-0.0016
1943.00,-0.0014
1942.00,-0.0012
1941.00,-0.0010
1940.00,-0.0009
1939.00,-0.0010
1938.00,-0.0011
1937.00,-0.0012
1936.00,-0.0011
1935.00,-0.0011
1934.00,-0.0010
1933.00,-0.0009
1932.00,-0.0010
1931.00,-0.0010
1930.00,-0.0010
1929.00,-0.0010
1928.00,-0.0010
1927.00,-0.0010
1926.00,-0.0011
1925.00,-0.0011
1924.00,-0.0011
1923.00,-0.0010
1922.00,-0.0008
1921.00,-0.0006
1920.00,-0.0004
1919.00,-0.0003
1918.00,-0.0004
1917.00,-0.0004
1916.00,-0.0004
1915.00,-0.0005
1914.00,-0.0005
1913.00,-0.0006
1912.00,-0.0005
1911.00,-0.0005
1910.00,-0.0004
1909.00,-0.0004
1908.00,-0.0004
1907.00,-0.0005
1906.00,-0.0005
1905.00,-0.0005
1904.00,-0.0004
1903.00,-0.0004
1902.00,-0.0003
1901.00,-0.0003
1900.00,-0.0002
1899.00,-0.0002
1898.00,-0.0002
1897.00,-0.0002
1896.00,-0.0002
1895.00,-0.0002
1894.00,-0.0002
1893.00,-0.0001
1892.00,-0.0001
1891.00,-0.0001
1890.00,-0.0001
1889.00,-0.0001
1888.00,-0.0001
1887.00,-0.0001
1886.00,-0.0001
1885.00,-0.0001
1884.00,-0.0002
1883.00,-0.0003
1882.00,-0.0004
1881.00,-0.0004
1880.00,-0.0004
1879.00,-0.0003
1878.00,-0.0002
1877.00,-0.0002
1876.00,-0.0002
1875.00,-0.0002
1874.00,-0.0003
1873.00,-0.0003
1872.00,-0.0003
1871.00,-0.0003
1870.00,-0.0003
1869.00,-0.0003
1868.00,-0.0002
1867.00,-0.0002
1866.00,-0.0001
1865.00,-0.0000
1864.00,-0.0000
1863.00,-0.0000
1862.00,-0.0001
1861.00,-0.0001
1860.00,-0.0001
1859.00,-0.0001
1858.00,-0.0002
1857.00,-0.0002
1856.00,-0.0002
1855.00,-0.0002
1854.00,-0.0002
1853.00,-0.0001
1852.00,-0.0000
1851.00,-0.0000
1850.00,-0.0000
1849.00,-0.0001
1848.00,-0.0001
1847.00,-0.0001
1846.00,-0.0001
1845.00,-0.0001
1844.00,-0.0001
1843.00,-0.0001
1842.00,-0.0001
1841.00,-0.0001
1840.00,0.0000
1839.00,0.0001
1838.00,0.0002
1837.00,0.0002
1836.00,0.0002
1835.00,0.0002
1834.00,0.0002
1833.00,0.0002
1832.00,0.0002
1831.00,0.0002
1830.00,0.0002
1829.00,0.0002
1828.00,0.0002
1827.00,0.0001
1826.00,0.0000
1825.00,-0.0000
1824.00,0.0000
1823.00,0.0000
1822.00,0.0000
1821.00,0.0001
1820.00,0.0000
1819.00,-0.0000
1818.00,-0.0001
1817.00,-0.0002
1816.00,-0.0002
1815.00,-0.0002
1814.00,-0.0001
1813.00,-0.0001
1812.00,0.0000
1811.00,0.0001
1810.00,0.0001
1809.00,0.0002
1808.00,0.0002
1807.00,0.0002
1806.00,0.0002
1805.00,0.0002
1804.00,0.0002
1803.00,0.0002
1802.00,0.0002
1801.00,0.0003
1800.00,0.0003
1799.00,0.0003
1798.00,0.0003
1797.00,0.0003
1796.00,0.0003
1795.00,0.0003
1794.00,0.0003
1793.00,0.0003
1792.00,0.0003
1791.00,0.0004
1790.00,0.0004
1789.00,0.0005
1788.00,0.0005
1787.00,0.0005
1786.00,0.0005
1785.00,0.0005
1784.00,0.0005
1783.00,0.0005
1782.00,0.0005
1781.00,0.0005
1780.00,0.0005
1779.00,0.0005
1778.00,0.0005
1777.00,0.0005
1776.00,0.0005
1775.00,0.0005
1774.00,0.0005
1773.00,0.0005
1772.00,0.0005
1771.00,0.0006
1770.00,0.0006
1769.00,0.0007
1768.00,0.0007
1767.00,0.0006
1766.00,0.0006
1765.00,0.0007
1764.00,0.0007
1763.00,0.0007
1762.00,0.0007
1761.00,0.0008
1760.00,0.0008
1759.00,0.0008
1758.00,0.0008
1757.00,0.0008
1756.00,0.0008
1755.00,0.0008
1754.00,0.0008
1753.00,0.0008
1752.00,0.0008
1751.00,0.0008
1750.00,0.0008
1749.00,0.0008
1748.00,0.0008
1747.00,0.0008
1746.00,0.0008
1745.00,0.0007
1744.00,0.0007
1743.00,0.0006
1742.00,0.0006
1741.00,0.0006
1740.00,0.0006
1739.00,0.0005
1738.00,0.0004
1737.00,0.0004
1736.00,0.0003
1735.00,0.0001
1734.00,0.0000
1733.00,-0.0000
1732.00,-0.0000
1731.00,0.0000
1730.00,0.0001
1729.00,0.0001
1728.00,0.0002
1727.00,0.0003
1726.00,0.0004
1725.00,0.0005
1724.00,0.0006
1723.00,0.0007
1722.00,0.0007
1721.00,0.0007
1720.00,0.0008
1719.00,0.0008
1718.00,0.0009
1717.00,0.0011
1716.00,0.0012
1715.00,0.0013
1714.00,0.0014
1713.00,0.0016
1712.00,0.0017
1711.00,0.0018
1710.00,0.0018
1709.00,0.0018
1708.00,0.0018
1707.00,0.0018
1706.00,0.0018
1705.00,0.0019
1704.00,0.0019
1703.00,0.0020
1702.00,0.0020
1701.00,0.0020
1700.00,0.0020
1699.00,0.0020
1698.00,0.0020
1697.00,0.0020
1696.00,0.0021
1695.00,0.0021
1694.00,0.0022
1693.00,0.0023
1692.00,0.0023
1691.00,0.0024
1690.00,0.0024
1689.00,0.0024
1688.00,0.0025
1687.00,0.0025
1686.00,0.0025
1685.00,0.0026
1684.00,0.0026
1683.00,0.0027
1682.00,0.0027
1681.00,0.0027
1680.00,0.0028
1679.00,0.0029
1678.00,0.0029
1677.00,0.0030
1676.00,0.0030
1675.00,0.0030
1674.00,0.0029
1673.00,0.0029
1672.00,0.0030
1671.00,0.0030
1670.00,0.0030
1669.00,0.0030
1668.00,0.0031
1667.00,0.0031
1666.00,0.0031
1665.00,0.0032
1664.00,0.0032
1663.00,0.0033
1662.00,0.0034
1661.00,0.0035
1660.00,0.0036
1659.00,0.0037
1658.00,0.0037
1657.00,0.0038
1656.00,0.0037
1655.00,0.0037
1654.00,0.0038
1653.00,0.0039
1652.00,0.0040
1651.00,0.0041
1650.00,0.0041
1649.00,0.0042
1648.00,0.0044
1647.00,0.0045
1646.00,0.0046
1645.00,0.0046
1644.00,0.0046
1643.00,0.0046
1642.00,0.0046
1641.00,0.0046
1640.00,0.0046
1639.00,0.0046
1638.00,0.0046
1637.00,0.0047
1636.00,0.0047
1635.00,0.0046
1634.00,0.0046
1633.00,0.0046
1632.00,0.0046
1631.00,0.0046
1630.00,0.0046
1629.00,0.0046
1628.00,0.0045
1627.00,0.0044
1626.00,0.0043
1625.00,0.0043
1624.00,0.0043
1623.00,0.0043
1622.00,0.0043
1621.00,0.0043
1620.00,0.0043
1619.00,0.0043
1618.00,0.0043
1617.00,0.0043
1616.00,0.0043
1615.00,0.0043
1614.00,0.0043
1613.00,0.0043
1612.00,0.0043
1611.00,0.0043
1610.00,0.0043
1609.00,0.0042
1608.00,0.0042
1607.00,0.0042
1606.00,0.0042
1605.00,0.0042
1604.00,0.0042
1603.00,0.0042
1602.00,0.0042
1601.00,0.0042
1600.00,0.0041
1599.00,0.0041
1598.00,0.0040
1597.00,0.0040
1596.00,0.0040
1595.00,0.0040
1594.00,0.0040
1593.00,0.0040
1592.00,0.0040
1591.00,0.0040
1590.00,0.0039
1589.00,0.0039
1588.00,0.0040
1587.00,0.0040
1586.00,0.0040
1585.00,0.0040
1584.00,0.0040
1583.00,0.0039
1582.00,0.0040
1581.00,0.0040
1580.00,0.0040
1579.00,0.0041
1578.00,0.0041
1577.00,0.0042
1576.00,0.0042
1575.00,0.0041
1574.00,0.0041
1573.00,0.0041
1572.00,0.0041
1571.00,0.0041
1570.00,0.0041
1569.00,0.0041
1568.00,0.0042
1567.00,0.0042
1566.00,0.0042
1565.00,0.0043
1564.00,0.0043
1563.00,0.0043
1562.00,0.0043
1561.00,0.0043
1560.00,0.0044
1559.00,0.0045
1558.00,0.0045
1557.00,0.0045
1556.00,0.0046
1555.00,0.0046
1554.00,0.0046
1553.00,0.0046
1552.00,0.0046
1551.00,0.0047
1550.00,0.0046
1549.00,0.0046
1548.00,0.0047
1547.00,0.0047
1546.00,0.0047
1545.00,0.0048
1544.00,0.0049
1543.00,0.0049
1542.00,0.0048
1541.00,0.0048
1540.00,0.0049
1539.00,0.0049
1538.00,0.0048
1537.00,0.0048
1536.00,0.0048
1535.00,0.0048
1534.00,0.0047
1533.00,0.0046
1532.00,0.0046
1531.00,0.0046
1530.00,0.0046
1529.00,0.0046
1528.00,0.0045
1527.00,0.0045
1526.00,0.0044
1525.00,0.0045
1524.00,0.0045
1523.00,0.0044
1522.00,0.0044
1521.00,0.0044
1520.00,0.0045
1519.00,0.0045
1518.00,0.0045
1517.00,0.0045
1516.00,0.0046
1515.00,0.0046
1514.00,0.0046
1513.00,0.0047
1512.00,0.0048
1511.00,0.0048
1510.00,0.0048
1509.00,0.0049
1508.00,0.0050
1507.00,0.0050
1506.00,0.0050
1505.00,0.0052
1504.00,0.0054
1503.00,0.0056
1502.00,0.0058
1501.00,0.0061
1500.00,0.0063
1499.00,0.0065
1498.00,0.0067
1497.00,0.0071
1496.00,0.0075
1495.00,0.0078
1494.00,0.0081
1493.00,0.0084
1492.00,0.0087
1491.00,0.0089
1490.00,0.0092
1489.00,0.0097
1488.00,0.0102
1487.00,0.0107
1486.00,0.0112
1485.00,0.0118
1484.00,0.0124
1483.00,0.0131
1482.00,0.0139
1481.00,0.0150
1480.00,0.0161
1479.00,0.0172
1478.00,0.0186
1477.00,0.0204
1476.00,0.0226
1475.00,0.0251
1474.00,0.0286
1473.00,0.0339
1472.00,0.0405
1471.00,0.0471
1470.00,0.0535
1469.00,0.0603
1468.00,0.0676
1467.00,0.0758
1466.00,0.0851
1465.00,0.0953
1464.00,0.1044
1463.00,0.1109
1462.00,0.1154
1461.00,0.1187
1460.00,0.1211
1459.00,0.1227
1458.00,0.1239
1457.00,0.1247
1456.00,0.1248
1455.00,0.1243
1454.00,0.1233
1453.00,0.1219
1452.00,0.1193
1451.00,0.1154
1450.00,0.1099
1449.00,0.1021
1448.00,0.0922
1447.00,0.0818
1446.00,0.0726
1445.00,0.0647
1444.00,0.0581
1443.00,0.0527
1442.00,0.0487
1441.00,0.0461
1440.00,0.0446
1439.00,0.0442
1438.00,0.0446
1437.00,0.0450
1436.00,0.0442
1435.00,0.0416
1434.00,0.0376
1433.00,0.0327
1432.00,0.0276
1431.00,0.0232
1430.00,0.0198
1429.00,0.0174
1428.00,0.0158
1427.00,0.0149
1426.00,0.0142
1425.00,0.0137
1424.00,0.0131
1423.00,0.0128
1422.00,0.0126
1421.00,0.0123
1420.00,0.0120
1419.00,0.0117
1418.00,0.0115
1417.00,0.0113
1416.00,0.0111
1415.00,0.0111
1414.00,0.0111
1413.00,0.0109
1412.00,0.0108
1411.00,0.0107
1410.00,0.0107
1409.00,0.0106
1408.00,0.0106
1407.00,0.0106
1406.00,0.0106
1405.00,0.0106
1404.00,0.0106
1403.00,0.0107
1402.00,0.0110
1401.00,0.0111
1400.00,0.0113
1399.00,0.0116
1398.00,0.0118
1397.00,0.0120
1396.00,0.0122
1395.00,0.0126
1394.00,0.0131
1393.00,0.0137
1392.00,0.0143
1391.00,0.0152
1390.00,0.0165
1389.00,0.0183
1388.00,0.0210
1387.00,0.0249
1386.00,0.0300
1385.00,0.0365
1384.00,0.0449
1383.00,0.0562
1382.00,0.0712
1381.00,0.0907
1380.00,0.1155
1379.00,0.1452
1378.00,0.1761
1377.00,0.2017
1376.00,0.2145
1375.00,0.2087
1374.00,0.1855
1373.00,0.1542
1372.00,0.1241
1371.00,0.0986
1370.00,0.0781
1369.00,0.0625
1368.00,0.0518
1367.00,0.0452
1366.00,0.0417
1365.00,0.0404
1364.00,0.0407
1363.00,0.0424
1362.00,0.0450
1361.00,0.0478
1360.00,0.0499
1359.00,0.0506
1358.00,0.0493
1357.00,0.0462
1356.00,0.0417
1355.00,0.0367
1354.00,0.0318
1353.00,0.0276
1352.00,0.0243
1351.00,0.0216
1350.00,0.0195
1349.00,0.0178
1348.00,0.0165
1347.00,0.0154
1346.00,0.0146
1345.00,0.0139
1344.00,0.0134
1343.00,0.0130
1342.00,0.0126
1341.00,0.0123
1340.00,0.0121
1339.00,0.0118
1338.00,0.0117
1337.00,0.0116
1336.00,0.0117
1335.00,0.0119
1334.00,0.0123
1333.00,0.0128
1332.00,0.0134
1331.00,0.0138
1330.00,0.0139
1329.00,0.0138
1328.00,0.0134
1327.00,0.0128
1326.00,0.0120
1325.00,0.0113
1324.00,0.0106
1323.00,0.0100
1322.00,0.0095
1321.00,0.0091
1320.00,0.0088
1319.00,0.0086
1318.00,0.0083
1317.00,0.0081
1316.00,0.0079
1315.00,0.0078
1314.00,0.0078
1313.00,0.0078
1312.00,0.0079
1311.00,0.0080
1310.00,0.0084
1309.00,0.0089
1308.00,0.0097
1307.00,0.0106
1306.00,0.0115
1305.00,0.0122
1304.00,0.0124
1303.00,0.0123
1302.00,0.0120
1301.00,0.0117
1300.00,0.0115
1299.00,0.0116
1298.00,0.0117
1297.00,0.0118
1296.00,0.0117
1295.00,0.0115
1294.00,0.0110
1293.00,0.0104
1292.00,0.0097
1291.00,0.0090
1290.00,0.0084
1289.00,0.0080
1288.00,0.0076
1287.00,0.0073
1286.00,0.0071
1285.00,0.0069
1284.00,0.0067
1283.00,0.0065
1282.00,0.0064
1281.00,0.0062
1280.00,0.0061
1279.00,0.0061
1278.00,0.0060
1277.00,0.0059
1276.00,0.0058
1275.00,0.0058
1274.00,0.0057
1273.00,0.0057
1272.00,0.0057
1271.00,0.0057
1270.00,0.0057
1269.00,0.0058
1268.00,0.0059
1267.00,0.0061
1266.00,0.0063
1265.00,0.0065
1264.00,0.0067
1263.00,0.0070
1262.00,0.0073
1261.00,0.0078
1260.00,0.0083
1259.00,0.0090
1258.00,0.0096
1257.00,0.0102
1256.00,0.0105
1255.00,0.0105
1254.00,0.0101
1253.00,0.0096
1252.00,0.0090
1251.00,0.0084
1250.00,0.0081
1249.00,0.0078
1248.00,0.0076
1247.00,0.0075
1246.00,0.0075
1245.00,0.0074
1244.00,0.0074
1243.00,0.0074
1242.00,0.0073
1241.00,0.0073
1240.00,0.0073
1239.00,0.0072
1238.00,0.0071
1237.00,0.0071
1236.00,0.0070
1235.00,0.0070
1234.00,0.0069
1233.00,0.0069
1232.00,0.0069
1231.00,0.0070
1230.00,0.0070
1229.00,0.0071
1228.00,0.0072
1227.00,0.0074
1226.00,0.0076
1225.00,0.0079
1224.00,0.0083
1223.00,0.0087
1222.00,0.0091
1221.00,0.0094
1220.00,0.0096
1219.00,0.0096
1218.00,0.0096
1217.00,0.0094
1216.00,0.0091
1215.00,0.0088
1214.00,0.0084
1213.00,0.0080
1212.00,0.0077
1211.00,0.0074
1210.00,0.0071
1209.00,0.0069
1208.00,0.0067
1207.00,0.0066
1206.00,0.0066
1205.00,0.0066
1204.00,0.0066
1203.00,0.0066
1202.00,0.0067
1201.00,0.0067
1200.00,0.0066
1199.00,0.0066
1198.00,0.0066
1197.00,0.0065
1196.00,0.0065
1195.00,0.0064
1194.00,0.0064
1193.00,0.0063
1192.00,0.0063
1191.00,0.0063
1190.00,0.0063
1189.00,0.0063
1188.00,0.0063
1187.00,0.0064
1186.00,0.0065
1185.00,0.0066
1184.00,0.0068
1183.00,0.0069
1182.00,0.0070
1181.00,0.0071
1180.00,0.0073
1179.00,0.0077
1178.00,0.0082
1177.00,0.0089
1176.00,0.0099
1175.00,0.0111
1174.00,0.0128
1173.00,0.0150
1172.00,0.0177
1171.00,0.0206
1170.00,0.0235
1169.00,0.0258
1168.00,0.0272
1167.00,0.0277
1166.00,0.0273
1165.00,0.0263
1164.00,0.0249
1163.00,0.0235
1162.00,0.0222
1161.00,0.0212
1160.00,0.0203
1159.00,0.0197
1158.00,0.0192
1157.00,0.0188
1156.00,0.0186
1155.00,0.0184
1154.00,0.0183
1153.00,0.0180
1152.00,0.0176
1151.00,0.0170
1150.00,0.0162
1149.00,0.0154
1148.00,0.0144
1147.00,0.0135
1146.00,0.0127
1145.00,0.0119
1144.00,0.0111
1143.00,0.0104
1142.00,0.0097
1141.00,0.0092
1140.00,0.0087
1139.00,0.0082
1138.00,0.0079
1137.00,0.0075
1136.00,0.0072
1135.00,0.0070
1134.00,0.0068
1133.00,0.0067
1132.00,0.0066
1131.00,0.0065
1130.00,0.0065
1129.00,0.0064
1128.00,0.0064
1127.00,0.0065
1126.00,0.0065
1125.00,0.0066
1124.00,0.0066
1123.00,0.0065
1122.00,0.0064
1121.00,0.0064
1120.00,0.0065
1119.00,0.0066
1118.00,0.0068
1117.00,0.0069
1116.00,0.0070
1115.00,0.0072
1114.00,0.0074
1113.00,0.0076
1112.00,0.0079
1111.00,0.0083
1110.00,0.0087
1109.00,0.0091
1108.00,0.0097
1107.00,0.0105
1106.00,0.0114
1105.00,0.0123
1104.00,0.0129
1103.00,0.0133
1102.00,0.0133
1101.00,0.0129
1100.00,0.0123
1099.00,0.0116
1098.00,0.0109
1097.00,0.0102
1096.00,0.0097
1095.00,0.0092
1094.00,0.0089
1093.00,0.0086
1092.00,0.0083
1091.00,0.0082
1090.00,0.0080
1089.00,0.0079
1088.00,0.0077
1087.00,0.0076
1086.00,0.0076
1085.00,0.0074
1084.00,0.0073
1083.00,0.0072
1082.00,0.0071
1081.00,0.0070
1080.00,0.0069
1079.00,0.0067
1078.00,0.0065
1077.00,0.0062
1076.00,0.0060
1075.00,0.0059
1074.00,0.0059
1073.00,0.0060
1072.00,0.0061
1071.00,0.0061
1070.00,0.0061
1069.00,0.0061
1068.00,0.0062
1067.00,0.0063
1066.00,0.0064
1065.00,0.0065
1064.00,0.0066
1063.00,0.0067
1062.00,0.0067
1061.00,0.0067
1060.00,0.0068
1059.00,0.0068
1058.00,0.0069
1057.00,0.0068
1056.00,0.0068
1055.00,0.0067
1054.00,0.0068
1053.00,0.0069
1052.00,0.0071
1051.00,0.0073
1050.00,0.0074
1049.00,0.0076
1048.00,0.0078
1047.00,0.0081
1046.00,0.0083
1045.00,0.0084
1044.00,0.0085
1043.00,0.0084
1042.00,0.0083
1041.00,0.0081
1040.00,0.0080
1039.00,0.0079
1038.00,0.0078
1037.00,0.0079
1036.00,0.0079
1035.00,0.0080
1034.00,0.0079
1033.00,0.0078
1032.00,0.0077
1031.00,0.0077
1030.00,0.0077
1029.00,0.0077
1028.00,0.0078
1027.00,0.0078
1026.00,0.0078
1025.00,0.0078
1024.00,0.0079
1023.00,0.0079
1022.00,0.0079
1021.00,0.0080
1020.00,0.0080
1019.00,0.0081
1018.00,0.0083
1017.00,0.0084
1016.00,0.0085
1015.00,0.0087
1014.00,0.0089
1013.00,0.0092
1012.00,0.0095
1011.00,0.0099
1010.00,0.0103
1009.00,0.0108
1008.00,0.0112
1007.00,0.0118
1006.00,0.0125
1005.00,0.0135
1004.00,0.0149
1003.00,0.0168
1002.00,0.0191
1001.00,0.0219
1000.00,0.0249
999.00,0.0274
998.00,0.0285
997.00,0.0278
996.00,0.0256
995.00,0.0224
994.00,0.0191
993.00,0.0162
992.00,0.0140
991.00,0.0124
990.00,0.0113
989.00,0.0106
988.00,0.0101
987.00,0.0099
986.00,0.0098
985.00,0.0100
984.00,0.0104
983.00,0.0112
982.00,0.0122
981.00,0.0137
980.00,0.0156
979.00,0.0182
978.00,0.0215
977.00,0.0253
976.00,0.0293
975.00,0.0330
974.00,0.0356
973.00,0.0365
972.00,0.0353
971.00,0.0322
970.00,0.0279
969.00,0.0234
968.00,0.0195
967.00,0.0164
966.00,0.0142
965.00,0.0127
964.00,0.0115
963.00,0.0106
962.00,0.0099
961.00,0.0094
960.00,0.0089
959.00,0.0086
958.00,0.0083
957.00,0.0081
956.00,0.0079
955.00,0.0078
954.00,0.0077
953.00,0.0075
952.00,0.0073
951.00,0.0072
950.00,0.0071
949.00,0.0072
948.00,0.0074
947.00,0.0077
946.00,0.0080
945.00,0.0083
944.00,0.0086
943.00,0.0089
942.00,0.0092
941.00,0.0094
940.00,0.0095
939.00,0.0093
938.00,0.0088
937.00,0.0082
936.00,0.0077
935.00,0.0073
934.00,0.0070
933.00,0.0067
932.00,0.0065
931.00,0.0062
930.00,0.0060
929.00,0.0059
928.00,0.0059
927.00,0.0059
926.00,0.0059
925.00,0.0058
924.00,0.0057
923.00,0.0058
922.00,0.0060
921.00,0.0062
920.00,0.0063
919.00,0.0064
918.00,0.0065
917.00,0.0065
916.00,0.0066
915.00,0.0068
914.00,0.0069
913.00,0.0070
912.00,0.0071
911.00,0.0072
910.00,0.0074
909.00,0.0076
908.00,0.0079
907.00,0.0083
906.00,0.0090
905.00,0.0101
904.00,0.0117
903.00,0.0139
902.00,0.0162
901.00,0.0184
900.00,0.0198
899.00,0.0202
898.00,0.0194
897.00,0.0176
896.00,0.0155
895.00,0.0134
894.00,0.0117
893.00,0.0104
892.00,0.0095
891.00,0.0089
890.00,0.0085
889.00,0.0080
888.00,0.0076
887.00,0.0072
886.00,0.0070
885.00,0.0068
884.00,0.0069
883.00,0.0069
882.00,0.0069
881.00,0.0068
880.00,0.0067
879.00,0.0067
878.00,0.0066
877.00,0.0066
876.00,0.0066
875.00,0.0066
874.00,0.0066
873.00,0.0068
872.00,0.0069
871.00,0.0070
870.00,0.0070
869.00,0.0069
868.00,0.0069
867.00,0.0070
866.00,0.0072
865.00,0.0074
864.00,0.0074
863.00,0.0075
862.00,0.0076
861.00,0.0077
860.00,0.0078
859.00,0.0080
858.00,0.0082
857.00,0.0084
856.00,0.0086
855.00,0.0088
854.00,0.0089
853.00,0.0090
852.00,0.0091
851.00,0.0093
850.00,0.0097
849.00,0.0102
848.00,0.0111
847.00,0.0122
846.00,0.0140
845.00,0.0166
844.00,0.0200
843.00,0.0238
842.00,0.0266
841.00,0.0271
840.00,0.0253
839.00,0.0220
838.00,0.0185
837.00,0.0157
836.00,0.0138
835.00,0.0126
834.00,0.0119
833.00,0.0113
832.00,0.0109
831.00,0.0105
830.00,0.0102
829.00,0.0101
828.00,0.0101
827.00,0.0101
826.00,0.0101
825.00,0.0101
824.00,0.0100
823.00,0.0100
822.00,0.0100
821.00,0.0101
820.00,0.0103
819.00,0.0107
818.00,0.0112
817.00,0.0119
816.00,0.0128
815.00,0.0140
814.00,0.0155
813.00,0.0173
812.00,0.0193
811.00,0.0211
810.00,0.0224
809.00,0.0230
808.00,0.0227
807.00,0.0215
806.00,0.0198
805.00,0.0178
804.00,0.0159
803.00,0.0143
802.00,0.0131
801.00,0.0122
800.00,0.0114
799.00,0.0106
798.00,0.0100
797.00,0.0095
796.00,0.0091
795.00,0.0089
794.00,0.0087
793.00,0.0084
792.00,0.0082
791.00,0.0080
790.00,0.0078
789.00,0.0076
788.00,0.0074
787.00,0.0070
786.00,0.0066
785.00,0.0063
784.00,0.0061
783.00,0.0060
782.00,0.0060
781.00,0.0060
780.00,0.0060
779.00,0.0058
778.00,0.0057
777.00,0.0056
776.00,0.0057
775.00,0.0060
774.00,0.0062
773.00,0.0064
772.00,0.0065
771.00,0.0067
770.00,0.0069
769.00,0.0072
768.00,0.0073
767.00,0.0073
766.00,0.0072
765.00,0.0071
764.00,0.0071
763.00,0.0071
762.00,0.0069
761.00,0.0066
760.00,0.0061
759.00,0.0057
758.00,0.0054
757.00,0.0052
756.00,0.0050
755.00,0.0049
754.00,0.0047
753.00,0.0047
752.00,0.0047
751.00,0.0047
750.00,0.0048
749.00,0.0048
748.00,0.0049
747.00,0.0049
746.00,0.0049
745.00,0.0049
744.00,0.0049
743.00,0.0050
742.00,0.0052
741.00,0.0054
740.00,0.0056
739.00,0.0058
738.00,0.0060
737.00,0.0061
736.00,0.0061
735.00,0.0061
734.00,0.0060
733.00,0.0060
732.00,0.0060
731.00,0.0060
730.00,0.0060
729.00,0.0060
728.00,0.0059
727.00,0.0059
726.00,0.0059
725.00,0.0059
724.00,0.0060
723.00,0.0060
722.00,0.0059
721.00,0.0058
720.00,0.0057
719.00,0.0056
718.00,0.0055
717.00,0.0056
716.00,0.0056
715.00,0.0055
714.00,0.0054
713.00,0.0052
712.00,0.0051
711.00,0.0050
710.00,0.0051
709.00,0.0052
708.00,0.0053
707.00,0.0053
706.00,0.0053
705.00,0.0053
704.00,0.0052
703.00,0.0051
702.00,0.0050
701.00,0.0050
700.00,0.0051
699.00,0.0051
698.00,0.0051
697.00,0.0049
696.00,0.0046
695.00,0.0043
694.00,0.0042
693.00,0.0043
692.00,0.0045
691.00,0.0046
690.00,0.0046
689.00,0.0045
688.00,0.0046
687.00,0.0047
686.00,0.0048
685.00,0.0048
684.00,0.0048
683.00,0.0048
682.00,0.0047
681.00,0.0046
680.00,0.0045
679.00,0.0044
678.00,0.0045
677.00,0.0047
676.00,0.0048
675.00,0.0050
674.00,0.0051
673.00,0.0052
672.00,0.0054
671.00,0.0056
670.00,0.0059
669.00,0.0060
668.00,0.0058
667.00,0.0054
666.00,0.0051
665.00,0.0049
664.00,0.0048
663.00,0.0048
662.00,0.0049
661.00,0.0051
660.00,0.0052
659.00,0.0051
658.00,0.0050
657.00,0.0049
656.00,0.0048
655.00,0.0047
654.00,0.0046
653.00,0.0046
652.00,0.0048
651.00,0.0050
650.00,0.0053
649.00,0.0054
648.00,0.0053
647.00,0.0052
646.00,0.0052
645.00,0.0052
644.00,0.0052
643.00,0.0051
642.00,0.0049
641.00,0.0048
640.00,0.0047
639.00,0.0046
638.00,0.0045
637.00,0.0044
636.00,0.0045
635.00,0.0047
634.00,0.0051
633.00,0.0053
632.00,0.0055
631.00,0.0055
630.00,0.0055
629.00,0.0056
628.00,0.0055
627.00,0.0054
626.00,0.0051
625.00,0.0050
624.00,0.0050
623.00,0.0050
622.00,0.0049
621.00,0.0048
620.00,0.0050
619.00,0.0054
618.00,0.0057
617.00,0.0057
616.00,0.0055
615.00,0.0053
614.00,0.0053
613.00,0.0053
612.00,0.0052
611.00,0.0050
610.00,0.0051
609.00,0.0052
608.00,0.0052
607.00,0.0052
606.00,0.0053
605.00,0.0053
604.00,0.0054
603.00,0.0053
602.00,0.0051
601.00,0.0051
600.00,0.0051
599.00,0.0052
598.00,0.0050
597.00,0.0049
596.00,0.0049
595.00,0.0049
594.00,0.0049
593.00,0.0050
592.00,0.0051
591.00,0.0053
590.00,0.0055
589.00,0.0057
588.00,0.0057
587.00,0.0056
586.00,0.0054
585.00,0.0052
584.00,0.0053
583.00,0.0055
582.00,0.0057
581.00,0.0057
580.00,0.0057
579.00,0.0057
578.00,0.0057
577.00,0.0056
576.00,0.0056
575.00,0.0056
574.00,0.0057
573.00,0.0057
572.00,0.0057
571.00,0.0057
570.00,0.0057
569.00,0.0058
568.00,0.0056
567.00,0.0053
566.00,0.0051
565.00,0.0051
564.00,0.0054
563.00,0.0056
562.00,0.0059
561.00,0.0061
560.00,0.0064
559.00,0.0064
558.00,0.0061
557.00,0.0057
556.00,0.0053
555.00,0.0052
554.00,0.0051
553.00,0.0050
552.00,0.0050
551.00,0.0053
550.00,0.0059
549.00,0.0065
548.00,0.0068
547.00,0.0068
546.00,0.0066
545.00,0.0062
544.00,0.0058
543.00,0.0056
542.00,0.0055
541.00,0.0056
540.00,0.0058
539.00,0.0062
538.00,0.0067
537.00,0.0073
536.00,0.0078
535.00,0.0082
534.00,0.0085
533.00,0.0085
532.00,0.0083
531.00,0.0078
530.00,0.0073
529.00,0.0072
528.00,0.0073
527.00,0.0074
526.00,0.0071
525.00,0.0066
524.00,0.0064
523.00,0.0064
522.00,0.0064
521.00,0.0063
520.00,0.0064
519.00,0.0065
518.00,0.0064
517.00,0.0059
516.00,0.0054
515.00,0.0054
514.00,0.0058
513.00,0.0062
512.00,0.0062
511.00,0.0062
510.00,0.0063
509.00,0.0065
508.00,0.0066
507.00,0.0067
506.00,0.0069
505.00,0.0072
504.00,0.0073
503.00,0.0072
502.00,0.0068
501.00,0.0064
500.00,0.0060
499.00,0.0059
498.00,0.0059
497.00,0.0058
496.00,0.0058
495.00,0.0057
494.00,0.0058
493.00,0.0061
492.00,0.0065
491.00,0.0069
490.00,0.0069
489.00,0.0067
488.00,0.0066
487.00,0.0065
486.00,0.0064
485.00,0.0058
484.00,0.0048
483.00,0.0039
482.00,0.0035
481.00,0.0037
480.00,0.0047
479.00,0.0062
478.00,0.0077
477.00,0.0088
476.00,0.0091
475.00,0.0087
474.00,0.0082
473.00,0.0079
472.00,0.0079
471.00,0.0080
470.00,0.0079
469.00,0.0077
468.00,0.0077
467.00,0.0082
466.00,0.0092
465.00,0.0106
464.00,0.0124
463.00,0.0146
462.00,0.0166
461.00,0.0182
460.00,0.0192
459.00,0.0195
458.00,0.0186
457.00,0.0168
456.00,0.0147
455.00,0.0128
454.00,0.0110
453.00,0.0094
452.00,0.0088
451.00,0.0090
450.00,0.0093
