Created as New Dataset,Sample 210 By Administrator Date Tuesday, September 09 2025
cm-1,A
4000.00,0.0012
3999.00,0.0012
3998.00,0.0013
3997.00,0.0013
3996.00,0.0013
3995.00,0.0013
3994.00,0.0012
3993.00,0.0012
3992.00,0.0012
3991.00,0.0012
3990.00,0.0012
3989.00,0.0012
3988.00,0.0012
3987.00,0.0012
3986.00,0.0012
3985.00,0.0012
3984.00,0.0012
3983.00,0.0012
3982.00,0.0012
3981.00,0.0012
3980.00,0.0012
3979.00,0.0012
3978.00,0.0012
3977.00,0.0012
3976.00,0.0012
3975.00,0.0012
3974.00,0.0012
3973.00,0.0011
3972.00,0.0011
3971.00,0.0011
3970.00,0.0011
3969.00,0.0010
3968.00,0.0011
3967.00,0.0011
3966.00,0.0011
3965.00,0.0011
3964.00,0.0011
3963.00,0.0011
3962.00,0.0010
3961.00,0.0010
3960.00,0.0010
3959.00,0.0010
3958.00,0.0010
3957.00,0.0011
3956.00,0.0011
3955.00,0.0011
3954.00,0.0011
3953.00,0.0011
3952.00,0.0011
3951.00,0.0011
3950.00,0.0011
3949.00,0.0011
3948.00,0.0010
3947.00,0.0010
3946.00,0.0010
3945.00,0.0010
3944.00,0.0011
3943.00,0.0011
3942.00,0.0011
3941.00,0.0011
3940.00,0.0011
3939.00,0.0011
3938.00,0.0011
3937.00,0.0011
3936.00,0.0011
3935.00,0.0011
3934.00,0.0011
3933.00,0.0012
3932.00,0.0012
3931.00,0.0012
3930.00,0.0011
3929.00,0.0011
3928.00,0.0011
3927.00,0.0011
3926.00,0.0011
3925.00,0.0010
3924.00,0.0010
3923.00,0.0010
3922.00,0.0010
3921.00,0.0011
3920.00,0.0011
3919.00,0.0012
3918.00,0.0012
3917.00,0.0012
3916.00,0.0012
3915.00,0.0012
3914.00,0.0012
3913.00,0.0011
3912.00,0.0011
3911.00,0.0011
3910.00,0.0010
3909.00,0.0010
3908.00,0.0010
3907.00,0.0011
3906.00,0.0011
3905.00,0.0011
3904.00,0.0011
3903.00,0.0011
3902.00,0.0011
3901.00,0.0012
3900.00,0.0012
3899.00,0.0012
3898.00,0.0012
3897.00,0.0012
3896.00,0.0011
3895.00,0.0011
3894.00,0.0011
3893.00,0.0011
3892.00,0.0011
3891.00,0.0011
3890.00,0.0011
3889.00,0.0012
3888.00,0.0012
3887.00,0.0012
3886.00,0.0012
3885.00,0.0012
3884.00,0.0012
3883.00,0.0011
3882.00,0.0011
3881.00,0.0011
3880.00,0.0011
3879.00,0.0011
3878.00,0.0011
3877.00,0.0011
3876.00,0.0012
3875.00,0.0012
3874.00,0.0012
3873.00,0.0012
3872.00,0.0012
3871.00,0.0012
3870.00,0.0012
3869.00,0.0011
3868.00,0.0011
3867.00,0.0011
3866.00,0.0011
3865.00,0.0011
3864.00,0.0011
3863.00,0.0010
3862.00,0.0010
3861.00,0.0010
3860.00,0.0011
3859.00,0.0011
3858.00,0.0012
3857.00,0.0012
3856.00,0.0012
3855.00,0.0012
3854.00,0.0012
3853.00,0.0012
3852.00,0.0012
3851.00,0.0011
3850.00,0.0011
3849.00,0.0011
3848.00,0.0010
3847.00,0.0011
3846.00,0.0011
3845.00,0.0011
3844.00,0.0011
3843.00,0.0010
3842.00,0.0010
3841.00,0.0010
3840.00,0.0010
3839.00,0.0010
3838.00,0.0010
3837.00,0.0010
3836.00,0.0011
3835.00,0.0011
3834.00,0.0011
3833.00,0.0012
3832.00,0.0012
3831.00,0.0012
3830.00,0.0012
3829.00,0.0011
3828.00,0.0011
3827.00,0.0010
3826.00,0.0011
3825.00,0.0011
3824.00,0.0011
3823.00,0.0011
3822.00,0.0011
3821.00,0.0011
3820.00,0.0011
3819.00,0.0011
3818.00,0.0011
3817.00,0.0011
3816.00,0.0011
3815.00,0.0011
3814.00,0.0011
3813.00,0.0011
3812.00,0.0011
3811.00,0.0011
3810.00,0.0012
3809.00,0.0012
3808.00,0.0012
3807.00,0.0012
3806.00,0.0012
3805.00,0.0012
3804.00,0.0012
3803.00,0.0011
3802.00,0.0011
3801.00,0.0011
3800.00,0.0010
3799.00,0.0010
3798.00,0.0010
3797.00,0.0010
3796.00,0.0010
3795.00,0.0011
3794.00,0.0011
3793.00,0.0012
3792.00,0.0012
3791.00,0.0012
3790.00,0.0011
3789.00,0.0011
3788.00,0.0011
3787.00,0.0011
3786.00,0.0011
3785.00,0.0011
3784.00,0.0011
3783.00,0.0011
3782.00,0.0011
3781.00,0.0011
3780.00,0.0012
3779.00,0.0012
3778.00,0.0012
3777.00,0.0011
3776.00,0.0011
3775.00,0.0011
3774.00,0.0011
3773.00,0.0011
3772.00,0.0011
3771.00,0.0012
3770.00,0.0012
3769.00,0.0012
3768.00,0.0012
3767.00,0.0012
3766.00,0.0012
3765.00,0.0012
3764.00,0.0012
3763.00,0.0011
3762.00,0.0011
3761.00,0.0011
3760.00,0.0011
3759.00,0.0011
3758.00,0.0010
3757.00,0.0010
3756.00,0.0011
3755.00,0.0011
3754.00,0.0011
3753.00,0.0011
3752.00,0.0011
3751.00,0.0011
3750.00,0.0011
3749.00,0.0011
3748.00,0.0011
3747.00,0.0010
3746.00,0.0010
3745.00,0.0010
3744.00,0.0010
3743.00,0.0011
3742.00,0.0011
3741.00,0.0010
3740.00,0.0010
3739.00,0.0010
3738.00,0.0010
3737.00,0.0010
3736.00,0.0009
3735.00,0.0009
3734.00,0.0008
3733.00,0.0008
3732.00,0.0009
3731.00,0.0010
3730.00,0.0010
3729.00,0.0010
3728.00,0.0010
3727.00,0.0010
3726.00,0.0010
3725.00,0.0010
3724.00,0.0010
3723.00,0.0010
3722.00,0.0010
3721.00,0.0010
3720.00,0.0010
3719.00,0.0009
3718.00,0.0009
3717.00,0.0009
3716.00,0.0009
3715.00,0.0009
3714.00,0.0010
3713.00,0.0010
3712.00,0.0010
3711.00,0.0010
3710.00,0.0010
3709.00,0.0010
3708.00,0.0010
3707.00,0.0010
3706.00,0.0010
3705.00,0.0010
3704.00,0.0010
3703.00,0.0010
3702.00,0.0010
3701.00,0.0010
3700.00,0.0010
3699.00,0.0010
3698.00,0.0010
3697.00,0.0011
3696.00,0.0011
3695.00,0.0012
3694.00,0.0013
3693.00,0.0013
3692.00,0.0013
3691.00,0.0013
3690.00,0.0013
3689.00,0.0014
3688.00,0.0016
3687.00,0.0017
3686.00,0.0019
3685.00,0.0020
3684.00,0.0021
3683.00,0.0023
3682.00,0.0024
3681.00,0.0026
3680.00,0.0028
3679.00,0.0030
3678.00,0.0033
3677.00,0.0035
3676.00,0.0037
3675.00,0.0039
3674.00,0.0040
3673.00,0.0040
3672.00,0.0041
3671.00,0.0041
3670.00,0.0042
3669.00,0.0042
3668.00,0.0043
3667.00,0.0044
3666.00,0.0045
3665.00,0.0045
3664.00,0.0046
3663.00,0.0047
3662.00,0.0047
3661.00,0.0048
3660.00,0.0048
3659.00,0.0048
3658.00,0.0049
3657.00,0.0049
3656.00,0.0049
3655.00,0.0049
3654.00,0.0048
3653.00,0.0047
3652.00,0.0047
3651.00,0.0046
3650.00,0.0046
3649.00,0.0045
3648.00,0.0044
3647.00,0.0043
3646.00,0.0043
3645.00,0.0042
3644.00,0.0042
3643.00,0.0041
3642.00,0.0040
3641.00,0.0039
3640.00,0.0039
3639.00,0.0039
3638.00,0.0039
3637.00,0.0038
3636.00,0.0036
3635.00,0.0033
3634.00,0.0030
3633.00,0.0028
3632.00,0.0027
3631.00,0.0026
3630.00,0.0026
3629.00,0.0025
3628.00,0.0025
3627.00,0.0025
3626.00,0.0024
3625.00,0.0024
3624.00,0.0023
3623.00,0.0023
3622.00,0.0023
3621.00,0.0023
3620.00,0.0024
3619.00,0.0024
3618.00,0.0024
3617.00,0.0024
3616.00,0.0024
3615.00,0.0024
3614.00,0.0024
3613.00,0.0024
3612.00,0.0023
3611.00,0.0023
3610.00,0.0023
3609.00,0.0024
3608.00,0.0024
3607.00,0.0024
3606.00,0.0024
3605.00,0.0025
3604.00,0.0025
3603.00,0.0024
3602.00,0.0024
3601.00,0.0024
3600.00,0.0024
3599.00,0.0024
3598.00,0.0025
3597.00,0.0025
3596.00,0.0026
3595.00,0.0027
3594.00,0.0027
3593.00,0.0028
3592.00,0.0028
3591.00,0.0028
3590.00,0.0028
3589.00,0.0029
3588.00,0.0029
3587.00,0.0029
3586.00,0.0029
3585.00,0.0030
3584.00,0.0030
3583.00,0.0031
3582.00,0.0031
3581.00,0.0032
3580.00,0.0032
3579.00,0.0032
3578.00,0.0032
3577.00,0.0033
3576.00,0.0033
3575.00,0.0033
3574.00,0.0034
3573.00,0.0034
3572.00,0.0034
3571.00,0.0034
3570.00,0.0035
3569.00,0.0036
3568.00,0.0036
3567.00,0.0037
3566.00,0.0037
3565.00,0.0038
3564.00,0.0038
3563.00,0.0039
3562.00,0.0039
3561.00,0.0040
3560.00,0.0040
3559.00,0.0041
3558.00,0.0041
3557.00,0.0042
3556.00,0.0043
3555.00,0.0043
3554.00,0.0044
3553.00,0.0044
3552.00,0.0044
3551.00,0.0044
3550.00,0.0044
3549.00,0.0044
3548.00,0.0045
3547.00,0.0046
3546.00,0.0047
3545.00,0.0047
3544.00,0.0048
3543.00,0.0049
3542.00,0.0049
3541.00,0.0050
3540.00,0.0050
3539.00,0.0051
3538.00,0.0051
3537.00,0.0051
3536.00,0.0051
3535.00,0.0051
3534.00,0.0051
3533.00,0.0052
3532.00,0.0053
3531.00,0.0054
3530.00,0.0055
3529.00,0.0055
3528.00,0.0056
3527.00,0.0056
3526.00,0.0057
3525.00,0.0058
3524.00,0.0059
3523.00,0.0059
3522.00,0.0060
3521.00,0.0060
3520.00,0.0060
3519.00,0.0061
3518.00,0.0061
3517.00,0.0062
3516.00,0.0062
3515.00,0.0063
3514.00,0.0064
3513.00,0.0064
3512.00,0.0065
3511.00,0.0066
3510.00,0.0066
3509.00,0.0066
3508.00,0.0066
3507.00,0.0067
3506.00,0.0067
3505.00,0.0068
3504.00,0.0068
3503.00,0.0069
3502.00,0.0070
3501.00,0.0071
3500.00,0.0071
3499.00,0.0072
3498.00,0.0073
3497.00,0.0073
3496.00,0.0074
3495.00,0.0075
3494.00,0.0075
3493.00,0.0075
3492.00,0.0076
3491.00,0.0076
3490.00,0.0076
3489.00,0.0077
3488.00,0.0078
3487.00,0.0078
3486.00,0.0079
3485.00,0.0080
3484.00,0.0080
3483.00,0.0081
3482.00,0.0082
3481.00,0.0083
3480.00,0.0084
3479.00,0.0084
3478.00,0.0085
3477.00,0.0085
3476.00,0.0086
3475.00,0.0086
3474.00,0.0086
3473.00,0.0087
3472.00,0.0087
3471.00,0.0088
3470.00,0.0088
3469.00,0.0088
3468.00,0.0089
3467.00,0.0089
3466.00,0.0090
3465.00,0.0090
3464.00,0.0090
3463.00,0.0091
3462.00,0.0092
3461.00,0.0093
3460.00,0.0094
3459.00,0.0094
3458.00,0.0094
3457.00,0.0094
3456.00,0.0094
3455.00,0.0094
3454.00,0.0095
3453.00,0.0095
3452.00,0.0096
3451.00,0.0096
3450.00,0.0096
3449.00,0.0097
3448.00,0.0098
3447.00,0.0098
3446.00,0.0099
3445.00,0.0100
3444.00,0.0100
3443.00,0.0100
3442.00,0.0100
3441.00,0.0100
3440.00,0.0100
3439.00,0.0101
3438.00,0.0101
3437.00,0.0102
3436.00,0.0103
3435.00,0.0104
3434.00,0.0105
3433.00,0.0105
3432.00,0.0105
3431.00,0.0105
3430.00,0.0105
3429.00,0.0105
3428.00,0.0105
3427.00,0.0105
3426.00,0.0105
3425.00,0.0105
3424.00,0.0106
3423.00,0.0106
3422.00,0.0107
3421.00,0.0107
3420.00,0.0108
3419.00,0.0108
3418.00,0.0109
3417.00,0.0109
3416.00,0.0109
3415.00,0.0109
3414.00,0.0109
3413.00,0.0110
3412.00,0.0110
3411.00,0.0111
3410.00,0.0111
3409.00,0.0112
3408.00,0.0112
3407.00,0.0112
3406.00,0.0112
3405.00,0.0112
3404.00,0.0112
3403.00,0.0112
3402.00,0.0113
3401.00,0.0113
3400.00,0.0113
3399.00,0.0113
3398.00,0.0113
3397.00,0.0113
3396.00,0.0113
3395.00,0.0113
3394.00,0.0114
3393.00,0.0114
3392.00,0.0115
3391.00,0.0115
3390.00,0.0115
3389.00,0.0115
3388.00,0.0115
3387.00,0.0115
3386.00,0.0115
3385.00,0.0114
3384.00,0.0114
3383.00,0.0114
3382.00,0.0114
3381.00,0.0115
3380.00,0.0115
3379.00,0.0115
3378.00,0.0115
3377.00,0.0115
3376.00,0.0115
3375.00,0.0116
3374.00,0.0116
3373.00,0.0116
3372.00,0.0116
3371.00,0.0117
3370.00,0.0117
3369.00,0.0117
3368.00,0.0117
3367.00,0.0117
3366.00,0.0118
3365.00,0.0117
3364.00,0.0117
3363.00,0.0117
3362.00,0.0117
3361.00,0.0117
3360.00,0.0117
3359.00,0.0117
3358.00,0.0117
3357.00,0.0117
3356.00,0.0118
3355.00,0.0118
3354.00,0.0118
3353.00,0.0117
3352.00,0.0117
3351.00,0.0117
3350.00,0.0118
3349.00,0.0118
3348.00,0.0118
3347.00,0.0117
3346.00,0.0117
3345.00,0.0117
3344.00,0.0117
3343.00,0.0117
3342.00,0.0117
3341.00,0.0117
3340.00,0.0116
3339.00,0.0116
3338.00,0.0115
3337.00,0.0115
3336.00,0.0115
3335.00,0.0115
3334.00,0.0115
3333.00,0.0115
3332.00,0.0115
3331.00,0.0114
3330.00,0.0114
3329.00,0.0114
3328.00,0.0113
3327.00,0.0113
3326.00,0.0113
3325.00,0.0112
3324.00,0.0112
3323.00,0.0111
3322.00,0.0111
3321.00,0.0111
3320.00,0.0112
3319.00,0.0112
3318.00,0.0112
3317.00,0.0112
3316.00,0.0112
3315.00,0.0111
3314.00,0.0111
3313.00,0.0110
3312.00,0.0110
3311.00,0.0109
3310.00,0.0109
3309.00,0.0109
3308.00,0.0109
3307.00,0.0109
3306.00,0.0108
3305.00,0.0108
3304.00,0.0108
3303.00,0.0108
3302.00,0.0108
3301.00,0.0108
3300.00,0.0107
3299.00,0.0107
3298.00,0.0107
3297.00,0.0106
3296.00,0.0106
3295.00,0.0106
3294.00,0.0105
3293.00,0.0105
3292.00,0.0105
3291.00,0.0105
3290.00,0.0104
3289.00,0.0104
3288.00,0.0103
3287.00,0.0103
3286.00,0.0103
3285.00,0.0103
3284.00,0.0102
3283.00,0.0102
3282.00,0.0102
3281.00,0.0101
3280.00,0.0101
3279.00,0.0101
3278.00,0.0100
3277.00,0.0100
3276.00,0.0099
3275.00,0.0099
3274.00,0.0098
3273.00,0.0098
3272.00,0.0097
3271.00,0.0097
3270.00,0.0096
3269.00,0.0096
3268.00,0.0096
3267.00,0.0096
3266.00,0.0096
3265.00,0.0096
3264.00,0.0096
3263.00,0.0096
3262.00,0.0096
3261.00,0.0095
3260.00,0.0095
3259.00,0.0094
3258.00,0.0094
3257.00,0.0094
3256.00,0.0094
3255.00,0.0093
3254.00,0.0093
3253.00,0.0092
3252.00,0.0092
3251.00,0.0091
3250.00,0.0091
3249.00,0.0091
3248.00,0.0091
3247.00,0.0090
3246.00,0.0090
3245.00,0.0090
3244.00,0.0090
3243.00,0.0090
3242.00,0.0090
3241.00,0.0090
3240.00,0.0089
3239.00,0.0089
3238.00,0.0089
3237.00,0.0088
3236.00,0.0088
3235.00,0.0088
3234.00,0.0088
3233.00,0.0088
3232.00,0.0088
3231.00,0.0088
3230.00,0.0087
3229.00,0.0087
3228.00,0.0087
3227.00,0.0087
3226.00,0.0086
3225.00,0.0086
3224.00,0.0087
3223.00,0.0087
3222.00,0.0087
3221.00,0.0087
3220.00,0.0087
3219.00,0.0087
3218.00,0.0087
3217.00,0.0087
3216.00,0.0087
3215.00,0.0087
3214.00,0.0087
3213.00,0.0086
3212.00,0.0086
3211.00,0.0086
3210.00,0.0086
3209.00,0.0086
3208.00,0.0086
3207.00,0.0086
3206.00,0.0086
3205.00,0.0086
3204.00,0.0086
3203.00,0.0086
3202.00,0.0087
3201.00,0.0087
3200.00,0.0087
3199.00,0.0087
3198.00,0.0087
3197.00,0.0086
3196.00,0.0086
3195.00,0.0085
3194.00,0.0085
3193.00,0.0085
3192.00,0.0085
3191.00,0.0085
3190.00,0.0085
3189.00,0.0085
3188.00,0.0085
3187.00,0.0084
3186.00,0.0084
3185.00,0.0084
3184.00,0.0083
3183.00,0.0083
3182.00,0.0082
3181.00,0.0081
3180.00,0.0081
3179.00,0.0080
3178.00,0.0080
3177.00,0.0079
3176.00,0.0079
3175.00,0.0079
3174.00,0.0078
3173.00,0.0078
3172.00,0.0077
3171.00,0.0077
3170.00,0.0077
3169.00,0.0076
3168.00,0.0076
3167.00,0.0075
3166.00,0.0074
3165.00,0.0074
3164.00,0.0074
3163.00,0.0074
3162.00,0.0074
3161.00,0.0074
3160.00,0.0074
3159.00,0.0074
3158.00,0.0073
3157.00,0.0073
3156.00,0.0072
3155.00,0.0072
3154.00,0.0072
3153.00,0.0071
3152.00,0.0071
3151.00,0.0071
3150.00,0.0071
3149.00,0.0071
3148.00,0.0070
3147.00,0.0070
3146.00,0.0069
3145.00,0.0069
3144.00,0.0069
3143.00,0.0068
3142.00,0.0068
3141.00,0.0068
3140.00,0.0067
3139.00,0.0067
3138.00,0.0066
3137.00,0.0066
3136.00,0.0065
3135.00,0.0065
3134.00,0.0065
3133.00,0.0065
3132.00,0.0064
3131.00,0.0064
3130.00,0.0063
3129.00,0.0063
3128.00,0.0063
3127.00,0.0063
3126.00,0.0063
3125.00,0.0062
3124.00,0.0062
3123.00,0.0061
3122.00,0.0060
3121.00,0.0060
3120.00,0.0059
3119.00,0.0059
3118.00,0.0059
3117.00,0.0059
3116.00,0.0059
3115.00,0.0059
3114.00,0.0058
3113.00,0.0058
3112.00,0.0058
3111.00,0.0058
3110.00,0.0057
3109.00,0.0057
3108.00,0.0056
3107.00,0.0056
3106.00,0.0056
3105.00,0.0056
3104.00,0.0056
3103.00,0.0055
3102.00,0.0055
3101.00,0.0054
3100.00,0.0054
3099.00,0.0054
3098.00,0.0054
3097.00,0.0053
3096.00,0.0053
3095.00,0.0053
3094.00,0.0053
3093.00,0.0053
3092.00,0.0053
3091.00,0.0053
3090.00,0.0052
3089.00,0.0052
3088.00,0.0052
3087.00,0.0052
3086.00,0.0051
3085.00,0.0051
3084.00,0.0051
3083.00,0.0050
3082.00,0.0050
3081.00,0.0049
3080.00,0.0049
3079.00,0.0049
3078.00,0.0050
3077.00,0.0050
3076.00,0.0050
3075.00,0.0050
3074.00,0.0049
3073.00,0.0049
3072.00,0.0049
3071.00,0.0050
3070.00,0.0050
3069.00,0.0050
3068.00,0.0050
3067.00,0.0050
3066.00,0.0050
3065.00,0.0050
3064.00,0.0050
3063.00,0.0050
3062.00,0.0050
3061.00,0.0051
3060.00,0.0051
3059.00,0.0051
3058.00,0.0050
3057.00,0.0050
3056.00,0.0050
3055.00,0.0050
3054.00,0.0050
3053.00,0.0050
3052.00,0.0051
3051.00,0.0051
3050.00,0.0051
3049.00,0.0052
3048.00,0.0052
3047.00,0.0052
3046.00,0.0053
3045.00,0.0053
3044.00,0.0053
3043.00,0.0053
3042.00,0.0054
3041.00,0.0054
3040.00,0.0055
3039.00,0.0056
3038.00,0.0056
3037.00,0.0056
3036.00,0.0056
3035.00,0.0056
3034.00,0.0057
3033.00,0.0058
3032.00,0.0059
3031.00,0.0059
3030.00,0.0060
3029.00,0.0060
3028.00,0.0061
3027.00,0.0062
3026.00,0.0063
3025.00,0.0064
3024.00,0.0065
3023.00,0.0066
3022.00,0.0068
3021.00,0.0070
3020.00,0.0072
3019.00,0.0075
3018.00,0.0078
3017.00,0.0081
3016.00,0.0085
3015.00,0.0090
3014.00,0.0094
3013.00,0.0100
3012.00,0.0106
3011.00,0.0113
3010.00,0.0121
3009.00,0.0130
3008.00,0.0140
3007.00,0.0151
3006.00,0.0162
3005.00,0.0174
3004.00,0.0186
3003.00,0.0197
3002.00,0.0209
3001.00,0.0221
3000.00,0.0232
2999.00,0.0242
2998.00,0.0252
2997.00,0.0262
2996.00,0.0271
2995.00,0.0280
2994.00,0.0289
2993.00,0.0298
2992.00,0.0307
2991.00,0.0317
2990.00,0.0328
2989.00,0.0339
2988.00,0.0353
2987.00,0.0371
2986.00,0.0396
2985.00,0.0431
2984.00,0.0472
2983.00,0.0514
2982.00,0.0546
2981.00,0.0565
2980.00,0.0573
2979.00,0.0576
2978.00,0.0580
2977.00,0.0591
2976.00,0.0609
2975.00,0.0637
2974.00,0.0674
2973.00,0.0719
2972.00,0.0768
2971.00,0.0817
2970.00,0.0865
2969.00,0.0916
2968.00,0.0974
2967.00,0.1040
2966.00,0.1115
2965.00,0.1194
2964.00,0.1277
2963.00,0.1360
2962.00,0.1439
2961.00,0.1511
2960.00,0.1571
2959.00,0.1617
2958.00,0.1648
2957.00,0.1666
2956.00,0.1675
2955.00,0.1678
2954.00,0.1678
2953.00,0.1677
2952.00,0.1672
2951.00,0.1659
2950.00,0.1635
2949.00,0.1593
2948.00,0.1532
2947.00,0.1454
2946.00,0.1364
2945.00,0.1270
2944.00,0.1181
2943.00,0.1105
2942.00,0.1046
2941.00,0.1005
2940.00,0.0983
2939.00,0.0976
2938.00,0.0984
2937.00,0.1005
2936.00,0.1037
2935.00,0.1080
2934.00,0.1132
2933.00,0.1192
2932.00,0.1257
2931.00,0.1326
2930.00,0.1395
2929.00,0.1464
2928.00,0.1529
2927.00,0.1590
2926.00,0.1646
2925.00,0.1696
2924.00,0.1742
2923.00,0.1785
2922.00,0.1824
2921.00,0.1860
2920.00,0.1890
2919.00,0.1911
2918.00,0.1919
2917.00,0.1913
2916.00,0.1891
2915.00,0.1857
2914.00,0.1813
2913.00,0.1765
2912.00,0.1716
2911.00,0.1670
2910.00,0.1628
2909.00,0.1589
2908.00,0.1552
2907.00,0.1516
2906.00,0.1478
2905.00,0.1436
2904.00,0.1392
2903.00,0.1345
2902.00,0.1296
2901.00,0.1247
2900.00,0.1198
2899.00,0.1151
2898.00,0.1107
2897.00,0.1067
2896.00,0.1032
2895.00,0.1003
2894.00,0.0979
2893.00,0.0961
2892.00,0.0947
2891.00,0.0938
2890.00,0.0931
2889.00,0.0928
2888.00,0.0926
2887.00,0.0927
2886.00,0.0931
2885.00,0.0938
2884.00,0.0948
2883.00,0.0958
2882.00,0.0969
2881.00,0.0980
2880.00,0.0991
2879.00,0.0999
2878.00,0.1003
2877.00,0.1002
2876.00,0.0997
2875.00,0.0991
2874.00,0.0986
2873.00,0.0984
2872.00,0.0987
2871.00,0.0994
2870.00,0.1004
2869.00,0.1013
2868.00,0.1017
2867.00,0.1012
2866.00,0.0992
2865.00,0.0958
2864.00,0.0910
2863.00,0.0855
2862.00,0.0800
2861.00,0.0749
2860.00,0.0707
2859.00,0.0674
2858.00,0.0649
2857.00,0.0632
2856.00,0.0620
2855.00,0.0612
2854.00,0.0607
2853.00,0.0604
2852.00,0.0604
2851.00,0.0606
2850.00,0.0613
2849.00,0.0623
2848.00,0.0640
2847.00,0.0662
2846.00,0.0692
2845.00,0.0729
2844.00,0.0774
2843.00,0.0824
2842.00,0.0876
2841.00,0.0926
2840.00,0.0967
2839.00,0.0993
2838.00,0.0998
2837.00,0.0976
2836.00,0.0928
2835.00,0.0859
2834.00,0.0776
2833.00,0.0690
2832.00,0.0608
2831.00,0.0535
2830.00,0.0473
2829.00,0.0422
2828.00,0.0381
2827.00,0.0348
2826.00,0.0321
2825.00,0.0299
2824.00,0.0280
2823.00,0.0264
2822.00,0.0249
2821.00,0.0237
2820.00,0.0226
2819.00,0.0216
2818.00,0.0208
2817.00,0.0201
2816.00,0.0194
2815.00,0.0189
2814.00,0.0183
2813.00,0.0179
2812.00,0.0174
2811.00,0.0170
2810.00,0.0166
2809.00,0.0161
2808.00,0.0157
2807.00,0.0152
2806.00,0.0147
2805.00,0.0142
2804.00,0.0137
2803.00,0.0131
2802.00,0.0127
2801.00,0.0123
2800.00,0.0119
2799.00,0.0117
2798.00,0.0115
2797.00,0.0114
2796.00,0.0112
2795.00,0.0110
2794.00,0.0108
2793.00,0.0105
2792.00,0.0102
2791.00,0.0099
2790.00,0.0096
2789.00,0.0093
2788.00,0.0090
2787.00,0.0087
2786.00,0.0085
2785.00,0.0083
2784.00,0.0080
2783.00,0.0078
2782.00,0.0076
2781.00,0.0074
2780.00,0.0072
2779.00,0.0071
2778.00,0.0070
2777.00,0.0069
2776.00,0.0067
2775.00,0.0066
2774.00,0.0065
2773.00,0.0065
2772.00,0.0064
2771.00,0.0064
2770.00,0.0063
2769.00,0.0063
2768.00,0.0063
2767.00,0.0062
2766.00,0.0062
2765.00,0.0061
2764.00,0.0061
2763.00,0.0060
2762.00,0.0060
2761.00,0.0060
2760.00,0.0059
2759.00,0.0059
2758.00,0.0058
2757.00,0.0057
2756.00,0.0057
2755.00,0.0057
2754.00,0.0057
2753.00,0.0056
2752.00,0.0056
2751.00,0.0056
2750.00,0.0056
2749.00,0.0056
2748.00,0.0057
2747.00,0.0057
2746.00,0.0057
2745.00,0.0058
2744.00,0.0058
2743.00,0.0059
2742.00,0.0059
2741.00,0.0060
2740.00,0.0061
2739.00,0.0062
2738.00,0.0063
2737.00,0.0065
2736.00,0.0066
2735.00,0.0067
2734.00,0.0068
2733.00,0.0069
2732.00,0.0070
2731.00,0.0071
2730.00,0.0073
2729.00,0.0074
2728.00,0.0076
2727.00,0.0078
2726.00,0.0080
2725.00,0.0082
2724.00,0.0082
2723.00,0.0082
2722.00,0.0081
2721.00,0.0079
2720.00,0.0077
2719.00,0.0074
2718.00,0.0072
2717.00,0.0069
2716.00,0.0067
2715.00,0.0065
2714.00,0.0064
2713.00,0.0062
2712.00,0.0060
2711.00,0.0059
2710.00,0.0058
2709.00,0.0056
2708.00,0.0055
2707.00,0.0054
2706.00,0.0053
2705.00,0.0053
2704.00,0.0052
2703.00,0.0051
2702.00,0.0051
2701.00,0.0050
2700.00,0.0049
2699.00,0.0048
2698.00,0.0048
2697.00,0.0048
2696.00,0.0048
2695.00,0.0048
2694.00,0.0048
2693.00,0.0049
2692.00,0.0049
2691.00,0.0049
2690.00,0.0049
2689.00,0.0049
2688.00,0.0049
2687.00,0.0049
2686.00,0.0049
2685.00,0.0049
2684.00,0.0049
2683.00,0.0049
2682.00,0.0049
2681.00,0.0048
2680.00,0.0048
2679.00,0.0048
2678.00,0.0048
2677.00,0.0049
2676.00,0.0049
2675.00,0.0049
2674.00,0.0049
2673.00,0.0049
2672.00,0.0049
2671.00,0.0049
2670.00,0.0048
2669.00,0.0049
2668.00,0.0049
2667.00,0.0049
2666.00,0.0050
2665.00,0.0050
2664.00,0.0051
2663.00,0.0051
2662.00,0.0051
2661.00,0.0051
2660.00,0.0052
2659.00,0.0052
2658.00,0.0051
2657.00,0.0051
2656.00,0.0051
2655.00,0.0051
2654.00,0.0050
2653.00,0.0050
2652.00,0.0049
2651.00,0.0049
2650.00,0.0048
2649.00,0.0048
2648.00,0.0047
2647.00,0.0047
2646.00,0.0046
2645.00,0.0046
2644.00,0.0046
2643.00,0.0046
2642.00,0.0045
2641.00,0.0044
2640.00,0.0044
2639.00,0.0043
2638.00,0.0043
2637.00,0.0042
2636.00,0.0042
2635.00,0.0041
2634.00,0.0041
2633.00,0.0041
2632.00,0.0042
2631.00,0.0042
2630.00,0.0042
2629.00,0.0042
2628.00,0.0042
2627.00,0.0042
2626.00,0.0042
2625.00,0.0042
2624.00,0.0042
2623.00,0.0042
2622.00,0.0041
2621.00,0.0042
2620.00,0.0042
2619.00,0.0042
2618.00,0.0042
2617.00,0.0042
2616.00,0.0042
2615.00,0.0042
2614.00,0.0041
2613.00,0.0041
2612.00,0.0040
2611.00,0.0040
2610.00,0.0040
2609.00,0.0039
2608.00,0.0038
2607.00,0.0037
2606.00,0.0035
2605.00,0.0034
2604.00,0.0034
2603.00,0.0034
2602.00,0.0034
2601.00,0.0033
2600.00,0.0033
2599.00,0.0033
2598.00,0.0033
2597.00,0.0033
2596.00,0.0033
2595.00,0.0033
2594.00,0.0033
2593.00,0.0034
2592.00,0.0034
2591.00,0.0035
2590.00,0.0035
2589.00,0.0035
2588.00,0.0035
2587.00,0.0036
2586.00,0.0036
2585.00,0.0037
2584.00,0.0038
2583.00,0.0038
2582.00,0.0039
2581.00,0.0038
2580.00,0.0038
2579.00,0.0038
2578.00,0.0037
2577.00,0.0036
2576.00,0.0035
2575.00,0.0034
2574.00,0.0033
2573.00,0.0031
2572.00,0.0030
2571.00,0.0029
2570.00,0.0028
2569.00,0.0027
2568.00,0.0027
2567.00,0.0027
2566.00,0.0027
2565.00,0.0026
2564.00,0.0026
2563.00,0.0025
2562.00,0.0024
2561.00,0.0024
2560.00,0.0024
2559.00,0.0024
2558.00,0.0024
2557.00,0.0024
2556.00,0.0023
2555.00,0.0023
2554.00,0.0023
2553.00,0.0023
2552.00,0.0022
2551.00,0.0022
2550.00,0.0022
2549.00,0.0022
2548.00,0.0022
2547.00,0.0022
2546.00,0.0022
2545.00,0.0021
2544.00,0.0021
2543.00,0.0020
2542.00,0.0020
2541.00,0.0020
2540.00,0.0020
2539.00,0.0020
2538.00,0.0020
2537.00,0.0020
2536.00,0.0020
2535.00,0.0020
2534.00,0.0019
2533.00,0.0019
2532.00,0.0019
2531.00,0.0019
2530.00,0.0019
2529.00,0.0019
2528.00,0.0019
2527.00,0.0018
2526.00,0.0018
2525.00,0.0017
2524.00,0.0017
2523.00,0.0017
2522.00,0.0017
2521.00,0.0017
2520.00,0.0016
2519.00,0.0016
2518.00,0.0016
2517.00,0.0016
2516.00,0.0016
2515.00,0.0016
2514.00,0.0016
2513.00,0.0015
2512.00,0.0014
2511.00,0.0014
2510.00,0.0014
2509.00,0.0015
2508.00,0.0015
2507.00,0.0016
2506.00,0.0016
2505.00,0.0016
2504.00,0.0015
2503.00,0.0014
2502.00,0.0014
2501.00,0.0014
2500.00,0.0014
2499.00,0.0015
2498.00,0.0015
2497.00,0.0015
2496.00,0.0015
2495.00,0.0014
2494.00,0.0014
2493.00,0.0014
2492.00,0.0014
2491.00,0.0014
2490.00,0.0014
2489.00,0.0014
2488.00,0.0014
2487.00,0.0014
2486.00,0.0014
2485.00,0.0014
2484.00,0.0013
2483.00,0.0013
2482.00,0.0013
2481.00,0.0013
2480.00,0.0013
2479.00,0.0013
2478.00,0.0013
2477.00,0.0013
2476.00,0.0014
2475.00,0.0014
2474.00,0.0014
2473.00,0.0013
2472.00,0.0012
2471.00,0.0011
2470.00,0.0011
2469.00,0.0011
2468.00,0.0011
2467.00,0.0011
2466.00,0.0011
2465.00,0.0012
2464.00,0.0012
2463.00,0.0012
2462.00,0.0012
2461.00,0.0012
2460.00,0.0013
2459.00,0.0014
2458.00,0.0014
2457.00,0.0014
2456.00,0.0015
2455.00,0.0015
2454.00,0.0015
2453.00,0.0015
2452.00,0.0014
2451.00,0.0014
2450.00,0.0014
2449.00,0.0014
2448.00,0.0014
2447.00,0.0015
2446.00,0.0015
2445.00,0.0015
2444.00,0.0015
2443.00,0.0015
2442.00,0.0015
2441.00,0.0014
2440.00,0.0014
2439.00,0.0014
2438.00,0.0013
2437.00,0.0014
2436.00,0.0014
2435.00,0.0014
2434.00,0.0014
2433.00,0.0015
2432.00,0.0015
2431.00,0.0015
2430.00,0.0015
2429.00,0.0015
2428.00,0.0014
2427.00,0.0015
2426.00,0.0015
2425.00,0.0015
2424.00,0.0015
2423.00,0.0015
2422.00,0.0014
2421.00,0.0013
2420.00,0.0013
2419.00,0.0012
2418.00,0.0012
2417.00,0.0012
2416.00,0.0012
2415.00,0.0012
2414.00,0.0013
2413.00,0.0013
2412.00,0.0014
2411.00,0.0013
2410.00,0.0012
2409.00,0.0012
2408.00,0.0011
2407.00,0.0011
2406.00,0.0011
2405.00,0.0011
2404.00,0.0011
2403.00,0.0011
2402.00,0.0012
2401.00,0.0012
2400.00,0.0012
2399.00,0.0011
2398.00,0.0011
2397.00,0.0011
2396.00,0.0010
2395.00,0.0010
2394.00,0.0011
2393.00,0.0011
2392.00,0.0011
2391.00,0.0011
2390.00,0.0011
2389.00,0.0011
2388.00,0.0011
2387.00,0.0011
2386.00,0.0011
2385.00,0.0011
2384.00,0.0010
2383.00,0.0009
2382.00,0.0008
2381.00,0.0007
2380.00,0.0007
2379.00,0.0007
2378.00,0.0007
2377.00,0.0007
2376.00,0.0008
2375.00,0.0008
2374.00,0.0008
2373.00,0.0009
2372.00,0.0009
2371.00,0.0009
2370.00,0.0009
2369.00,0.0009
2368.00,0.0009
2367.00,0.0010
2366.00,0.0010
2365.00,0.0010
2364.00,0.0010
2363.00,0.0010
2362.00,0.0010
2361.00,0.0010
2360.00,0.0010
2359.00,0.0010
2358.00,0.0010
2357.00,0.0010
2356.00,0.0011
2355.00,0.0011
2354.00,0.0012
2353.00,0.0013
2352.00,0.0013
2351.00,0.0013
2350.00,0.0012
2349.00,0.0012
2348.00,0.0012
2347.00,0.0012
2346.00,0.0012
2345.00,0.0012
2344.00,0.0013
2343.00,0.0014
2342.00,0.0015
2341.00,0.0015
2340.00,0.0015
2339.00,0.0014
2338.00,0.0014
2337.00,0.0014
2336.00,0.0015
2335.00,0.0015
2334.00,0.0015
2333.00,0.0015
2332.00,0.0014
2331.00,0.0014
2330.00,0.0013
2329.00,0.0014
2328.00,0.0015
2327.00,0.0018
2326.00,0.0022
2325.00,0.0026
2324.00,0.0027
2323.00,0.0026
2322.00,0.0023
2321.00,0.0021
2320.00,0.0021
2319.00,0.0021
2318.00,0.0021
2317.00,0.0021
2316.00,0.0020
2315.00,0.0018
2314.00,0.0017
2313.00,0.0016
2312.00,0.0015
2311.00,0.0014
2310.00,0.0013
2309.00,0.0013
2308.00,0.0014
2307.00,0.0015
2306.00,0.0016
2305.00,0.0017
2304.00,0.0017
2303.00,0.0016
2302.00,0.0016
2301.00,0.0016
2300.00,0.0016
2299.00,0.0016
2298.00,0.0016
2297.00,0.0016
2296.00,0.0017
2295.00,0.0018
2294.00,0.0019
2293.00,0.0020
2292.00,0.0020
2291.00,0.0021
2290.00,0.0021
2289.00,0.0022
2288.00,0.0022
2287.00,0.0022
2286.00,0.0022
2285.00,0.0022
2284.00,0.0022
2283.00,0.0021
2282.00,0.0020
2281.00,0.0019
2280.00,0.0019
2279.00,0.0018
2278.00,0.0018
2277.00,0.0018
2276.00,0.0017
2275.00,0.0016
2274.00,0.0015
2273.00,0.0014
2272.00,0.0014
2271.00,0.0013
2270.00,0.0014
2269.00,0.0015
2268.00,0.0015
2267.00,0.0014
2266.00,0.0014
2265.00,0.0014
2264.00,0.0014
2263.00,0.0014
2262.00,0.0013
2261.00,0.0013
2260.00,0.0014
2259.00,0.0015
2258.00,0.0015
2257.00,0.0015
2256.00,0.0014
2255.00,0.0012
2254.00,0.0011
2253.00,0.0010
2252.00,0.0011
2251.00,0.0012
2250.00,0.0014
2249.00,0.0015
2248.00,0.0015
2247.00,0.0014
2246.00,0.0011
2245.00,0.0009
2244.00,0.0008
2243.00,0.0007
2242.00,0.0008
2241.00,0.0009
2240.00,0.0011
2239.00,0.0012
2238.00,0.0013
2237.00,0.0013
2236.00,0.0012
2235.00,0.0012
2234.00,0.0011
2233.00,0.0012
2232.00,0.0012
2231.00,0.0011
2230.00,0.0011
2229.00,0.0012
2228.00,0.0012
2227.00,0.0013
2226.00,0.0012
2225.00,0.0011
2224.00,0.0010
2223.00,0.0010
2222.00,0.0010
2221.00,0.0011
2220.00,0.0011
2219.00,0.0011
2218.00,0.0012
2217.00,0.0013
2216.00,0.0014
2215.00,0.0013
2214.00,0.0013
2213.00,0.0013
2212.00,0.0014
2211.00,0.0014
2210.00,0.0015
2209.00,0.0014
2208.00,0.0012
2207.00,0.0010
2206.00,0.0009
2205.00,0.0009
2204.00,0.0009
2203.00,0.0010
2202.00,0.0012
2201.00,0.0013
2200.00,0.0012
2199.00,0.0010
2198.00,0.0008
2197.00,0.0008
2196.00,0.0009
2195.00,0.0012
2194.00,0.0015
2193.00,0.0018
2192.00,0.0019
2191.00,0.0019
2190.00,0.0018
2189.00,0.0018
2188.00,0.0018
2187.00,0.0019
2186.00,0.0019
2185.00,0.0018
2184.00,0.0016
2183.00,0.0013
2182.00,0.0011
2181.00,0.0011
2180.00,0.0011
2179.00,0.0011
2178.00,0.0010
2177.00,0.0009
2176.00,0.0010
2175.00,0.0011
2174.00,0.0011
2173.00,0.0011
2172.00,0.0010
2171.00,0.0011
2170.00,0.0015
2169.00,0.0018
2168.00,0.0020
2167.00,0.0019
2166.00,0.0018
2165.00,0.0018
2164.00,0.0020
2163.00,0.0022
2162.00,0.0021
2161.00,0.0014
2160.00,0.0002
2159.00,-0.0013
2158.00,-0.0023
2157.00,-0.0026
2156.00,-0.0025
2155.00,-0.0024
2154.00,-0.0023
2153.00,-0.0023
2152.00,-0.0020
2151.00,-0.0016
2150.00,-0.0013
2149.00,-0.0011
2148.00,-0.0010
2147.00,-0.0011
2146.00,-0.0012
2145.00,-0.0012
2144.00,-0.0012
2143.00,-0.0011
2142.00,-0.0010
2141.00,-0.0009
2140.00,-0.0008
2139.00,-0.0007
2138.00,-0.0007
2137.00,-0.0008
2136.00,-0.0010
2135.00,-0.0012
2134.00,-0.0014
2133.00,-0.0015
2132.00,-0.0013
2131.00,-0.0011
2130.00,-0.0010
2129.00,-0.0008
2128.00,-0.0007
2127.00,-0.0006
2126.00,-0.0005
2125.00,-0.0003
2124.00,-0.0002
2123.00,-0.0001
2122.00,-0.0000
2121.00,0.0001
2120.00,0.0002
2119.00,0.0003
2118.00,0.0005
2117.00,0.0006
2116.00,0.0006
2115.00,0.0006
2114.00,0.0006
2113.00,0.0005
2112.00,0.0005
2111.00,0.0006
2110.00,0.0007
2109.00,0.0009
2108.00,0.0010
2107.00,0.0010
2106.00,0.0010
2105.00,0.0009
2104.00,0.0008
2103.00,0.0008
2102.00,0.0007
2101.00,0.0007
2100.00,0.0007
2099.00,0.0007
2098.00,0.0006
2097.00,0.0003
2096.00,0.0001
2095.00,-0.0001
2094.00,-0.0002
2093.00,-0.0000
2092.00,0.0002
2091.00,0.0004
2090.00,0.0005
2089.00,0.0007
2088.00,0.0008
2087.00,0.0009
2086.00,0.0010
2085.00,0.0010
2084.00,0.0010
2083.00,0.0010
2082.00,0.0009
2081.00,0.0008
2080.00,0.0008
2079.00,0.0009
2078.00,0.0010
2077.00,0.0010
2076.00,0.0010
2075.00,0.0009
2074.00,0.0008
2073.00,0.0007
2072.00,0.0007
2071.00,0.0006
2070.00,0.0006
2069.00,0.0006
2068.00,0.0007
2067.00,0.0007
2066.00,0.0006
2065.00,0.0004
2064.00,0.0003
2063.00,0.0001
2062.00,0.0001
2061.00,0.0002
2060.00,0.0004
2059.00,0.0006
2058.00,0.0006
2057.00,0.0007
2056.00,0.0008
2055.00,0.0009
2054.00,0.0011
2053.00,0.0014
2052.00,0.0017
2051.00,0.0017
2050.00,0.0015
2049.00,0.0010
2048.00,0.0006
2047.00,0.0006
2046.00,0.0008
2045.00,0.0010
2044.00,0.0009
2043.00,0.0008
2042.00,0.0007
2041.00,0.0007
2040.00,0.0008
2039.00,0.0008
2038.00,0.0008
2037.00,0.0008
2036.00,0.0007
2035.00,0.0005
2034.00,0.0001
2033.00,-0.0001
2032.00,-0.0002
2031.00,-0.0003
2030.00,-0.0004
2029.00,-0.0004
2028.00,-0.0005
2027.00,-0.0006
2026.00,-0.0006
2025.00,-0.0005
2024.00,-0.0003
2023.00,-0.0002
2022.00,-0.0002
2021.00,-0.0004
2020.00,-0.0005
2019.00,-0.0005
2018.00,-0.0005
2017.00,-0.0003
2016.00,-0.0002
2015.00,-0.0001
2014.00,0.0000
2013.00,0.0001
2012.00,0.0001
2011.00,-0.0000
2010.00,-0.0002
2009.00,-0.0002
2008.00,-0.0003
2007.00,-0.0006
2006.00,-0.0009
2005.00,-0.0010
2004.00,-0.0010
2003.00,-0.0009
2002.00,-0.0009
2001.00,-0.0010
2000.00,-0.0011
1999.00,-0.0012
1998.00,-0.0011
1997.00,-0.0009
1996.00,-0.0009
1995.00,-0.0011
1994.00,-0.0012
1993.00,-0.0011
1992.00,-0.0007
1991.00,-0.0003
1990.00,-0.0000
1989.00,0.0003
1988.00,0.0006
1987.00,0.0007
1986.00,0.0008
1985.00,0.0008
1984.00,0.0010
1983.00,0.0012
1982.00,0.0015
1981.00,0.0016
1980.00,0.0016
1979.00,0.0011
1978.00,0.0004
1977.00,-0.0003
1976.00,-0.0006
1975.00,-0.0006
1974.00,-0.0005
1973.00,-0.0003
1972.00,-0.0002
1971.00,-0.0004
1970.00,-0.0006
1969.00,-0.0008
1968.00,-0.0009
1967.00,-0.0011
1966.00,-0.0011
1965.00,-0.0009
1964.00,-0.0008
1963.00,-0.0009
1962.00,-0.0011
1961.00,-0.0013
1960.00,-0.0015
1959.00,-0.0016
1958.00,-0.0016
1957.00,-0.0016
1956.00,-0.0015
1955.00,-0.0014
1954.00,-0.0015
1953.00,-0.0015
1952.00,-0.0015
1951.00,-0.0015
1950.00,-0.0016
1949.00,-0.0015
1948.00,-0.0015
1947.00,-0.0015
1946.00,-0.0014
1945.00,-0.0013
1944.00,-0.0012
1943.00,-0.0012
1942.00,-0.0012
1941.00,-0.0012
1940.00,-0.0013
1939.00,-0.0014
1938.00,-0.0014
1937.00,-0.0013
1936.00,-0.0010
1935.00,-0.0008
1934.00,-0.0007
1933.00,-0.0007
1932.00,-0.0007
1931.00,-0.0007
1930.00,-0.0007
1929.00,-0.0007
1928.00,-0.0007
1927.00,-0.0008
1926.00,-0.0008
1925.00,-0.0008
1924.00,-0.0007
1923.00,-0.0006
1922.00,-0.0003
1921.00,-0.0001
1920.00,0.0001
1919.00,0.0002
1918.00,0.0002
1917.00,0.0001
1916.00,0.0002
1915.00,0.0003
1914.00,0.0003
1913.00,0.0003
1912.00,0.0002
1911.00,0.0001
1910.00,0.0000
1909.00,-0.0000
1908.00,0.0001
1907.00,0.0002
1906.00,0.0002
1905.00,0.0002
1904.00,0.0001
1903.00,0.0000
1902.00,-0.0001
1901.00,-0.0000
1900.00,0.0001
1899.00,0.0002
1898.00,0.0003
1897.00,0.0004
1896.00,0.0005
1895.00,0.0004
1894.00,0.0003
1893.00,0.0002
1892.00,0.0001
1891.00,0.0001
1890.00,0.0001
1889.00,0.0002
1888.00,0.0002
1887.00,0.0002
1886.00,0.0002
1885.00,0.0002
1884.00,0.0002
1883.00,0.0002
1882.00,0.0002
1881.00,0.0002
1880.00,0.0002
1879.00,0.0002
1878.00,0.0002
1877.00,0.0002
1876.00,0.0003
1875.00,0.0003
1874.00,0.0003
1873.00,0.0003
1872.00,0.0003
1871.00,0.0003
1870.00,0.0002
1869.00,0.0002
1868.00,0.0002
1867.00,0.0001
1866.00,0.0001
1865.00,0.0002
1864.00,0.0003
1863.00,0.0003
1862.00,0.0003
1861.00,0.0003
1860.00,0.0003
1859.00,0.0003
1858.00,0.0004
1857.00,0.0005
1856.00,0.0005
1855.00,0.0005
1854.00,0.0004
1853.00,0.0004
1852.00,0.0004
1851.00,0.0004
1850.00,0.0004
1849.00,0.0004
1848.00,0.0005
1847.00,0.0006
1846.00,0.0006
1845.00,0.0005
1844.00,0.0005
1843.00,0.0004
1842.00,0.0003
1841.00,0.0003
1840.00,0.0004
1839.00,0.0004
1838.00,0.0005
1837.00,0.0006
1836.00,0.0006
1835.00,0.0006
1834.00,0.0006
1833.00,0.0006
1832.00,0.0006
1831.00,0.0006
1830.00,0.0006
1829.00,0.0006
1828.00,0.0006
1827.00,0.0008
1826.00,0.0009
1825.00,0.0009
1824.00,0.0009
1823.00,0.0009
1822.00,0.0008
1821.00,0.0007
1820.00,0.0005
1819.00,0.0004
1818.00,0.0002
1817.00,0.0002
1816.00,0.0003
1815.00,0.0004
1814.00,0.0005
1813.00,0.0006
1812.00,0.0006
1811.00,0.0007
1810.00,0.0007
1809.00,0.0007
1808.00,0.0007
1807.00,0.0007
1806.00,0.0007
1805.00,0.0008
1804.00,0.0008
1803.00,0.0008
1802.00,0.0008
1801.00,0.0008
1800.00,0.0009
1799.00,0.0009
1798.00,0.0009
1797.00,0.0010
1796.00,0.0010
1795.00,0.0011
1794.00,0.0012
1793.00,0.0012
1792.00,0.0012
1791.00,0.0012
1790.00,0.0012
1789.00,0.0012
1788.00,0.0012
1787.00,0.0012
1786.00,0.0012
1785.00,0.0012
1784.00,0.0013
1783.00,0.0014
1782.00,0.0014
1781.00,0.0014
1780.00,0.0014
1779.00,0.0014
1778.00,0.0014
1777.00,0.0014
1776.00,0.0014
1775.00,0.0014
1774.00,0.0014
1773.00,0.0015
1772.00,0.0015
1771.00,0.0015
1770.00,0.0015
1769.00,0.0015
1768.00,0.0015
1767.00,0.0015
1766.00,0.0016
1765.00,0.0016
1764.00,0.0016
1763.00,0.0017
1762.00,0.0017
1761.00,0.0017
1760.00,0.0019
1759.00,0.0020
1758.00,0.0020
1757.00,0.0021
1756.00,0.0021
1755.00,0.0020
1754.00,0.0021
1753.00,0.0021
1752.00,0.0022
1751.00,0.0023
1750.00,0.0024
1749.00,0.0025
1748.00,0.0025
1747.00,0.0026
1746.00,0.0026
1745.00,0.0027
1744.00,0.0028
1743.00,0.0028
1742.00,0.0029
1741.00,0.0029
1740.00,0.0031
1739.00,0.0032
1738.00,0.0033
1737.00,0.0034
1736.00,0.0035
1735.00,0.0035
1734.00,0.0035
1733.00,0.0035
1732.00,0.0036
1731.00,0.0036
1730.00,0.0036
1729.00,0.0035
1728.00,0.0035
1727.00,0.0034
1726.00,0.0034
1725.00,0.0034
1724.00,0.0033
1723.00,0.0033
1722.00,0.0032
1721.00,0.0032
1720.00,0.0032
1719.00,0.0031
1718.00,0.0031
1717.00,0.0031
1716.00,0.0031
1715.00,0.0031
1714.00,0.0031
1713.00,0.0032
1712.00,0.0032
1711.00,0.0032
1710.00,0.0032
1709.00,0.0032
1708.00,0.0032
1707.00,0.0033
1706.00,0.0033
1705.00,0.0034
1704.00,0.0034
1703.00,0.0035
1702.00,0.0036
1701.00,0.0037
1700.00,0.0038
1699.00,0.0039
1698.00,0.0039
1697.00,0.0040
1696.00,0.0040
1695.00,0.0041
1694.00,0.0043
1693.00,0.0044
1692.00,0.0046
1691.00,0.0047
1690.00,0.0049
1689.00,0.0050
1688.00,0.0052
1687.00,0.0054
1686.00,0.0055
1685.00,0.0056
1684.00,0.0059
1683.00,0.0061
1682.00,0.0064
1681.00,0.0066
1680.00,0.0068
1679.00,0.0070
1678.00,0.0072
1677.00,0.0075
1676.00,0.0077
1675.00,0.0079
1674.00,0.0080
1673.00,0.0081
1672.00,0.0083
1671.00,0.0084
1670.00,0.0085
1669.00,0.0087
1668.00,0.0088
1667.00,0.0089
1666.00,0.0090
1665.00,0.0090
1664.00,0.0091
1663.00,0.0093
1662.00,0.0094
1661.00,0.0095
1660.00,0.0095
1659.00,0.0096
1658.00,0.0096
1657.00,0.0096
1656.00,0.0097
1655.00,0.0097
1654.00,0.0097
1653.00,0.0099
1652.00,0.0101
1651.00,0.0102
1650.00,0.0103
1649.00,0.0103
1648.00,0.0105
1647.00,0.0106
1646.00,0.0106
1645.00,0.0105
1644.00,0.0105
1643.00,0.0105
1642.00,0.0105
1641.00,0.0105
1640.00,0.0105
1639.00,0.0106
1638.00,0.0106
1637.00,0.0106
1636.00,0.0107
1635.00,0.0107
1634.00,0.0107
1633.00,0.0106
1632.00,0.0106
1631.00,0.0105
1630.00,0.0105
1629.00,0.0105
1628.00,0.0104
1627.00,0.0104
1626.00,0.0103
1625.00,0.0102
1624.00,0.0102
1623.00,0.0102
1622.00,0.0101
1621.00,0.0101
1620.00,0.0101
1619.00,0.0101
1618.00,0.0101
1617.00,0.0101
1616.00,0.0100
1615.00,0.0099
1614.00,0.0099
1613.00,0.0098
1612.00,0.0098
1611.00,0.0098
1610.00,0.0098
1609.00,0.0098
1608.00,0.0098
1607.00,0.0098
1606.00,0.0098
1605.00,0.0098
1604.00,0.0097
1603.00,0.0097
1602.00,0.0096
1601.00,0.0096
1600.00,0.0095
1599.00,0.0094
1598.00,0.0094
1597.00,0.0093
1596.00,0.0092
1595.00,0.0092
1594.00,0.0091
1593.00,0.0091
1592.00,0.0090
1591.00,0.0089
1590.00,0.0089
1589.00,0.0088
1588.00,0.0088
1587.00,0.0087
1586.00,0.0087
1585.00,0.0086
1584.00,0.0086
1583.00,0.0085
1582.00,0.0085
1581.00,0.0085
1580.00,0.0086
1579.00,0.0086
1578.00,0.0087
1577.00,0.0087
1576.00,0.0088
1575.00,0.0088
1574.00,0.0088
1573.00,0.0089
1572.00,0.0089
1571.00,0.0090
1570.00,0.0091
1569.00,0.0093
1568.00,0.0094
1567.00,0.0095
1566.00,0.0095
1565.00,0.0096
1564.00,0.0098
1563.00,0.0099
1562.00,0.0100
1561.00,0.0102
1560.00,0.0105
1559.00,0.0108
1558.00,0.0110
1557.00,0.0110
1556.00,0.0111
1555.00,0.0111
1554.00,0.0112
1553.00,0.0114
1552.00,0.0115
1551.00,0.0116
1550.00,0.0116
1549.00,0.0116
1548.00,0.0116
1547.00,0.0115
1546.00,0.0114
1545.00,0.0112
1544.00,0.0111
1543.00,0.0110
1542.00,0.0109
1541.00,0.0106
1540.00,0.0103
1539.00,0.0100
1538.00,0.0098
1537.00,0.0096
1536.00,0.0095
1535.00,0.0094
1534.00,0.0091
1533.00,0.0089
1532.00,0.0087
1531.00,0.0085
1530.00,0.0083
1529.00,0.0082
1528.00,0.0080
1527.00,0.0078
1526.00,0.0076
1525.00,0.0076
1524.00,0.0076
1523.00,0.0076
1522.00,0.0075
1521.00,0.0075
1520.00,0.0074
1519.00,0.0074
1518.00,0.0073
1517.00,0.0073
1516.00,0.0074
1515.00,0.0074
1514.00,0.0074
1513.00,0.0075
1512.00,0.0075
1511.00,0.0075
1510.00,0.0076
1509.00,0.0077
1508.00,0.0079
1507.00,0.0081
1506.00,0.0083
1505.00,0.0085
1504.00,0.0087
1503.00,0.0089
1502.00,0.0091
1501.00,0.0095
1500.00,0.0099
1499.00,0.0104
1498.00,0.0108
1497.00,0.0113
1496.00,0.0118
1495.00,0.0123
1494.00,0.0127
1493.00,0.0132
1492.00,0.0137
1491.00,0.0142
1490.00,0.0148
1489.00,0.0155
1488.00,0.0161
1487.00,0.0166
1486.00,0.0170
1485.00,0.0175
1484.00,0.0181
1483.00,0.0186
1482.00,0.0192
1481.00,0.0200
1480.00,0.0209
1479.00,0.0218
1478.00,0.0231
1477.00,0.0248
1476.00,0.0270
1475.00,0.0295
1474.00,0.0328
1473.00,0.0375
1472.00,0.0428
1471.00,0.0477
1470.00,0.0522
1469.00,0.0569
1468.00,0.0619
1467.00,0.0675
1466.00,0.0743
1465.00,0.0820
1464.00,0.0889
1463.00,0.0936
1462.00,0.0964
1461.00,0.0982
1460.00,0.0993
1459.00,0.1005
1458.00,0.1024
1457.00,0.1053
1456.00,0.1072
1455.00,0.1075
1454.00,0.1068
1453.00,0.1056
1452.00,0.1038
1451.00,0.1010
1450.00,0.0970
1449.00,0.0913
1448.00,0.0839
1447.00,0.0759
1446.00,0.0685
1445.00,0.0619
1444.00,0.0562
1443.00,0.0516
1442.00,0.0481
1441.00,0.0455
1440.00,0.0438
1439.00,0.0428
1438.00,0.0424
1437.00,0.0418
1436.00,0.0405
1435.00,0.0381
1434.00,0.0348
1433.00,0.0311
1432.00,0.0274
1431.00,0.0242
1430.00,0.0217
1429.00,0.0200
1428.00,0.0188
1427.00,0.0181
1426.00,0.0177
1425.00,0.0172
1424.00,0.0168
1423.00,0.0166
1422.00,0.0165
1421.00,0.0164
1420.00,0.0163
1419.00,0.0163
1418.00,0.0164
1417.00,0.0163
1416.00,0.0163
1415.00,0.0163
1414.00,0.0164
1413.00,0.0165
1412.00,0.0166
1411.00,0.0167
1410.00,0.0169
1409.00,0.0171
1408.00,0.0173
1407.00,0.0177
1406.00,0.0182
1405.00,0.0187
1404.00,0.0193
1403.00,0.0200
1402.00,0.0206
1401.00,0.0212
1400.00,0.0219
1399.00,0.0228
1398.00,0.0236
1397.00,0.0244
1396.00,0.0251
1395.00,0.0259
1394.00,0.0266
1393.00,0.0273
1392.00,0.0278
1391.00,0.0285
1390.00,0.0294
1389.00,0.0308
1388.00,0.0330
1387.00,0.0363
1386.00,0.0406
1385.00,0.0459
1384.00,0.0528
1383.00,0.0619
1382.00,0.0734
1381.00,0.0874
1380.00,0.1037
1379.00,0.1213
1378.00,0.1370
1377.00,0.1474
1376.00,0.1495
1375.00,0.1419
1374.00,0.1265
1373.00,0.1079
1372.00,0.0905
1371.00,0.0756
1370.00,0.0633
1369.00,0.0538
1368.00,0.0470
1367.00,0.0426
1366.00,0.0401
1365.00,0.0390
1364.00,0.0389
1363.00,0.0397
1362.00,0.0411
1361.00,0.0425
1360.00,0.0435
1359.00,0.0436
1358.00,0.0425
1357.00,0.0404
1356.00,0.0374
1355.00,0.0341
1354.00,0.0310
1353.00,0.0283
1352.00,0.0261
1351.00,0.0243
1350.00,0.0228
1349.00,0.0216
1348.00,0.0207
1347.00,0.0199
1346.00,0.0193
1345.00,0.0188
1344.00,0.0183
1343.00,0.0178
1342.00,0.0173
1341.00,0.0168
1340.00,0.0163
1339.00,0.0159
1338.00,0.0157
1337.00,0.0155
1336.00,0.0155
1335.00,0.0155
1334.00,0.0157
1333.00,0.0159
1332.00,0.0162
1331.00,0.0164
1330.00,0.0164
1329.00,0.0162
1328.00,0.0158
1327.00,0.0153
1326.00,0.0147
1325.00,0.0141
1324.00,0.0136
1323.00,0.0131
1322.00,0.0127
1321.00,0.0123
1320.00,0.0121
1319.00,0.0118
1318.00,0.0116
1317.00,0.0115
1316.00,0.0113
1315.00,0.0112
1314.00,0.0112
1313.00,0.0112
1312.00,0.0113
1311.00,0.0116
1310.00,0.0122
1309.00,0.0130
1308.00,0.0141
1307.00,0.0154
1306.00,0.0165
1305.00,0.0173
1304.00,0.0175
1303.00,0.0171
1302.00,0.0164
1301.00,0.0157
1300.00,0.0152
1299.00,0.0150
1298.00,0.0149
1297.00,0.0148
1296.00,0.0146
1295.00,0.0144
1294.00,0.0141
1293.00,0.0137
1292.00,0.0134
1291.00,0.0130
1290.00,0.0126
1289.00,0.0123
1288.00,0.0121
1287.00,0.0120
1286.00,0.0119
1285.00,0.0119
1284.00,0.0118
1283.00,0.0117
1282.00,0.0117
1281.00,0.0117
1280.00,0.0118
1279.00,0.0119
1278.00,0.0120
1277.00,0.0122
1276.00,0.0125
1275.00,0.0127
1274.00,0.0130
1273.00,0.0133
1272.00,0.0136
1271.00,0.0140
1270.00,0.0144
1269.00,0.0148
1268.00,0.0153
1267.00,0.0159
1266.00,0.0164
1265.00,0.0170
1264.00,0.0175
1263.00,0.0179
1262.00,0.0185
1261.00,0.0190
1260.00,0.0198
1259.00,0.0206
1258.00,0.0216
1257.00,0.0225
1256.00,0.0230
1255.00,0.0231
1254.00,0.0228
1253.00,0.0221
1252.00,0.0213
1251.00,0.0205
1250.00,0.0198
1249.00,0.0191
1248.00,0.0185
1247.00,0.0180
1246.00,0.0177
1245.00,0.0175
1244.00,0.0174
1243.00,0.0174
1242.00,0.0172
1241.00,0.0170
1240.00,0.0167
1239.00,0.0164
1238.00,0.0161
1237.00,0.0158
1236.00,0.0156
1235.00,0.0153
1234.00,0.0150
1233.00,0.0147
1232.00,0.0144
1231.00,0.0141
1230.00,0.0139
1229.00,0.0136
1228.00,0.0134
1227.00,0.0132
1226.00,0.0130
1225.00,0.0130
1224.00,0.0130
1223.00,0.0131
1222.00,0.0132
1221.00,0.0133
1220.00,0.0134
1219.00,0.0134
1218.00,0.0133
1217.00,0.0130
1216.00,0.0126
1215.00,0.0122
1214.00,0.0118
1213.00,0.0114
1212.00,0.0111
1211.00,0.0108
1210.00,0.0106
1209.00,0.0104
1208.00,0.0103
1207.00,0.0102
1206.00,0.0101
1205.00,0.0101
1204.00,0.0100
1203.00,0.0100
1202.00,0.0100
1201.00,0.0101
1200.00,0.0101
1199.00,0.0102
1198.00,0.0103
1197.00,0.0103
1196.00,0.0104
1195.00,0.0105
1194.00,0.0106
1193.00,0.0109
1192.00,0.0111
1191.00,0.0114
1190.00,0.0116
1189.00,0.0119
1188.00,0.0122
1187.00,0.0125
1186.00,0.0129
1185.00,0.0133
1184.00,0.0139
1183.00,0.0144
1182.00,0.0150
1181.00,0.0156
1180.00,0.0163
1179.00,0.0172
1178.00,0.0181
1177.00,0.0194
1176.00,0.0209
1175.00,0.0228
1174.00,0.0253
1173.00,0.0283
1172.00,0.0319
1171.00,0.0358
1170.00,0.0397
1169.00,0.0431
1168.00,0.0453
1167.00,0.0462
1166.00,0.0458
1165.00,0.0445
1164.00,0.0428
1163.00,0.0410
1162.00,0.0394
1161.00,0.0379
1160.00,0.0368
1159.00,0.0360
1158.00,0.0354
1157.00,0.0350
1156.00,0.0346
1155.00,0.0344
1154.00,0.0342
1153.00,0.0339
1152.00,0.0336
1151.00,0.0331
1150.00,0.0324
1149.00,0.0316
1148.00,0.0307
1147.00,0.0298
1146.00,0.0289
1145.00,0.0280
1144.00,0.0272
1143.00,0.0263
1142.00,0.0256
1141.00,0.0248
1140.00,0.0242
1139.00,0.0236
1138.00,0.0232
1137.00,0.0228
1136.00,0.0224
1135.00,0.0220
1134.00,0.0217
1133.00,0.0216
1132.00,0.0215
1131.00,0.0214
1130.00,0.0212
1129.00,0.0211
1128.00,0.0210
1127.00,0.0210
1126.00,0.0210
1125.00,0.0211
1124.00,0.0211
1123.00,0.0211
1122.00,0.0212
1121.00,0.0212
1120.00,0.0212
1119.00,0.0211
1118.00,0.0210
1117.00,0.0209
1116.00,0.0208
1115.00,0.0207
1114.00,0.0206
1113.00,0.0206
1112.00,0.0205
1111.00,0.0205
1110.00,0.0205
1109.00,0.0207
1108.00,0.0210
1107.00,0.0215
1106.00,0.0219
1105.00,0.0224
1104.00,0.0227
1103.00,0.0230
1102.00,0.0230
1101.00,0.0228
1100.00,0.0226
1099.00,0.0223
1098.00,0.0220
1097.00,0.0217
1096.00,0.0215
1095.00,0.0214
1094.00,0.0213
1093.00,0.0213
1092.00,0.0214
1091.00,0.0215
1090.00,0.0215
1089.00,0.0214
1088.00,0.0213
1087.00,0.0211
1086.00,0.0210
1085.00,0.0210
1084.00,0.0210
1083.00,0.0209
1082.00,0.0208
1081.00,0.0206
1080.00,0.0205
1079.00,0.0203
1078.00,0.0202
1077.00,0.0201
1076.00,0.0201
1075.00,0.0202
1074.00,0.0204
1073.00,0.0205
1072.00,0.0204
1071.00,0.0202
1070.00,0.0199
1069.00,0.0195
1068.00,0.0191
1067.00,0.0188
1066.00,0.0184
1065.00,0.0181
1064.00,0.0179
1063.00,0.0176
1062.00,0.0175
1061.00,0.0174
1060.00,0.0172
1059.00,0.0169
1058.00,0.0166
1057.00,0.0162
1056.00,0.0158
1055.00,0.0155
1054.00,0.0152
1053.00,0.0149
1052.00,0.0147
1051.00,0.0146
1050.00,0.0146
1049.00,0.0147
1048.00,0.0148
1047.00,0.0149
1046.00,0.0149
1045.00,0.0148
1044.00,0.0145
1043.00,0.0141
1042.00,0.0137
1041.00,0.0134
1040.00,0.0131
1039.00,0.0129
1038.00,0.0127
1037.00,0.0126
1036.00,0.0126
1035.00,0.0126
1034.00,0.0125
1033.00,0.0124
1032.00,0.0122
1031.00,0.0121
1030.00,0.0119
1029.00,0.0118
1028.00,0.0116
1027.00,0.0114
1026.00,0.0113
1025.00,0.0113
1024.00,0.0113
1023.00,0.0113
1022.00,0.0113
1021.00,0.0113
1020.00,0.0114
1019.00,0.0115
1018.00,0.0117
1017.00,0.0119
1016.00,0.0122
1015.00,0.0124
1014.00,0.0126
1013.00,0.0128
1012.00,0.0132
1011.00,0.0136
1010.00,0.0140
1009.00,0.0145
1008.00,0.0151
1007.00,0.0159
1006.00,0.0169
1005.00,0.0182
1004.00,0.0200
1003.00,0.0223
1002.00,0.0255
1001.00,0.0294
1000.00,0.0337
999.00,0.0374
998.00,0.0395
997.00,0.0392
996.00,0.0365
995.00,0.0324
994.00,0.0278
993.00,0.0237
992.00,0.0205
991.00,0.0181
990.00,0.0164
989.00,0.0152
988.00,0.0145
987.00,0.0142
986.00,0.0141
985.00,0.0143
984.00,0.0149
983.00,0.0159
982.00,0.0172
981.00,0.0191
980.00,0.0214
979.00,0.0246
978.00,0.0285
977.00,0.0334
976.00,0.0390
975.00,0.0446
974.00,0.0494
973.00,0.0522
972.00,0.0523
971.00,0.0495
970.00,0.0449
969.00,0.0398
968.00,0.0351
967.00,0.0314
966.00,0.0285
965.00,0.0264
964.00,0.0247
963.00,0.0234
962.00,0.0225
961.00,0.0220
960.00,0.0217
959.00,0.0217
958.00,0.0217
957.00,0.0217
956.00,0.0215
955.00,0.0213
954.00,0.0212
953.00,0.0211
952.00,0.0210
951.00,0.0208
950.00,0.0205
949.00,0.0201
948.00,0.0197
947.00,0.0195
946.00,0.0194
945.00,0.0194
944.00,0.0195
943.00,0.0196
942.00,0.0195
941.00,0.0193
940.00,0.0190
939.00,0.0184
938.00,0.0177
937.00,0.0169
936.00,0.0161
935.00,0.0153
934.00,0.0145
933.00,0.0137
932.00,0.0130
931.00,0.0124
930.00,0.0120
929.00,0.0116
928.00,0.0112
927.00,0.0108
926.00,0.0104
925.00,0.0101
924.00,0.0099
923.00,0.0097
922.00,0.0096
921.00,0.0094
920.00,0.0093
919.00,0.0092
918.00,0.0091
917.00,0.0091
916.00,0.0091
915.00,0.0092
914.00,0.0092
913.00,0.0092
912.00,0.0092
911.00,0.0093
910.00,0.0093
909.00,0.0094
908.00,0.0096
907.00,0.0099
906.00,0.0104
905.00,0.0112
904.00,0.0122
903.00,0.0136
902.00,0.0150
901.00,0.0163
900.00,0.0171
899.00,0.0173
898.00,0.0167
897.00,0.0157
896.00,0.0143
895.00,0.0130
894.00,0.0119
893.00,0.0109
892.00,0.0102
891.00,0.0098
890.00,0.0094
889.00,0.0091
888.00,0.0089
887.00,0.0088
886.00,0.0088
885.00,0.0088
884.00,0.0089
883.00,0.0090
882.00,0.0091
881.00,0.0092
880.00,0.0093
879.00,0.0093
878.00,0.0093
877.00,0.0093
876.00,0.0093
875.00,0.0093
874.00,0.0093
873.00,0.0093
872.00,0.0092
871.00,0.0092
870.00,0.0093
869.00,0.0093
868.00,0.0093
867.00,0.0092
866.00,0.0092
865.00,0.0092
864.00,0.0092
863.00,0.0092
862.00,0.0092
861.00,0.0092
860.00,0.0093
859.00,0.0093
858.00,0.0095
857.00,0.0097
856.00,0.0099
855.00,0.0103
854.00,0.0106
853.00,0.0110
852.00,0.0113
851.00,0.0118
850.00,0.0123
849.00,0.0130
848.00,0.0141
847.00,0.0159
846.00,0.0185
845.00,0.0224
844.00,0.0277
843.00,0.0336
842.00,0.0384
841.00,0.0401
840.00,0.0381
839.00,0.0333
838.00,0.0278
837.00,0.0232
836.00,0.0201
835.00,0.0181
834.00,0.0168
833.00,0.0160
832.00,0.0154
831.00,0.0150
830.00,0.0147
829.00,0.0144
828.00,0.0143
827.00,0.0141
826.00,0.0139
825.00,0.0138
824.00,0.0136
823.00,0.0135
822.00,0.0134
821.00,0.0135
820.00,0.0137
819.00,0.0139
818.00,0.0143
817.00,0.0147
816.00,0.0154
815.00,0.0162
814.00,0.0171
813.00,0.0181
812.00,0.0192
811.00,0.0202
810.00,0.0210
809.00,0.0214
808.00,0.0213
807.00,0.0207
806.00,0.0197
805.00,0.0186
804.00,0.0173
803.00,0.0161
802.00,0.0151
801.00,0.0143
800.00,0.0138
799.00,0.0133
798.00,0.0128
797.00,0.0122
796.00,0.0117
795.00,0.0112
794.00,0.0109
793.00,0.0107
792.00,0.0106
791.00,0.0104
790.00,0.0102
789.00,0.0100
788.00,0.0098
787.00,0.0097
786.00,0.0096
785.00,0.0094
784.00,0.0092
783.00,0.0090
782.00,0.0087
781.00,0.0085
780.00,0.0084
779.00,0.0083
778.00,0.0083
777.00,0.0084
776.00,0.0085
775.00,0.0086
774.00,0.0087
773.00,0.0088
772.00,0.0090
771.00,0.0092
770.00,0.0094
769.00,0.0095
768.00,0.0096
767.00,0.0097
766.00,0.0096
765.00,0.0094
764.00,0.0092
763.00,0.0089
762.00,0.0087
761.00,0.0084
760.00,0.0081
759.00,0.0079
758.00,0.0077
757.00,0.0076
756.00,0.0077
755.00,0.0078
754.00,0.0080
753.00,0.0080
752.00,0.0079
751.00,0.0078
750.00,0.0077
749.00,0.0077
748.00,0.0078
747.00,0.0080
746.00,0.0083
745.00,0.0086
744.00,0.0087
743.00,0.0087
742.00,0.0088
741.00,0.0089
740.00,0.0091
739.00,0.0093
738.00,0.0096
737.00,0.0099
736.00,0.0103
735.00,0.0107
734.00,0.0109
733.00,0.0111
732.00,0.0112
731.00,0.0113
730.00,0.0115
729.00,0.0116
728.00,0.0115
727.00,0.0114
726.00,0.0111
725.00,0.0110
724.00,0.0109
723.00,0.0109
722.00,0.0108
721.00,0.0107
720.00,0.0104
719.00,0.0102
718.00,0.0099
717.00,0.0096
716.00,0.0094
715.00,0.0092
714.00,0.0091
713.00,0.0091
712.00,0.0092
711.00,0.0092
710.00,0.0093
709.00,0.0094
708.00,0.0095
707.00,0.0096
706.00,0.0097
705.00,0.0097
704.00,0.0096
703.00,0.0094
702.00,0.0091
701.00,0.0089
700.00,0.0086
699.00,0.0084
698.00,0.0084
697.00,0.0084
696.00,0.0085
695.00,0.0086
694.00,0.0084
693.00,0.0081
692.00,0.0079
691.00,0.0078
690.00,0.0078
689.00,0.0078
688.00,0.0078
687.00,0.0078
686.00,0.0080
685.00,0.0082
684.00,0.0081
683.00,0.0080
682.00,0.0078
681.00,0.0078
680.00,0.0079
679.00,0.0080
678.00,0.0082
677.00,0.0082
676.00,0.0081
675.00,0.0080
674.00,0.0079
673.00,0.0079
672.00,0.0078
671.00,0.0078
670.00,0.0078
669.00,0.0077
668.00,0.0076
667.00,0.0077
666.00,0.0078
665.00,0.0079
664.00,0.0081
663.00,0.0081
662.00,0.0081
661.00,0.0081
660.00,0.0079
659.00,0.0078
658.00,0.0076
657.00,0.0076
656.00,0.0078
655.00,0.0080
654.00,0.0081
653.00,0.0082
652.00,0.0082
651.00,0.0083
650.00,0.0086
649.00,0.0088
648.00,0.0087
647.00,0.0085
646.00,0.0083
645.00,0.0083
644.00,0.0085
643.00,0.0086
642.00,0.0086
641.00,0.0085
640.00,0.0085
639.00,0.0086
638.00,0.0088
637.00,0.0089
636.00,0.0090
635.00,0.0089
634.00,0.0088
633.00,0.0087
632.00,0.0084
631.00,0.0082
630.00,0.0082
629.00,0.0086
628.00,0.0090
627.00,0.0093
626.00,0.0093
625.00,0.0090
624.00,0.0086
623.00,0.0083
622.00,0.0083
621.00,0.0086
620.00,0.0089
619.00,0.0090
618.00,0.0089
617.00,0.0088
616.00,0.0086
615.00,0.0085
614.00,0.0086
613.00,0.0088
612.00,0.0090
611.00,0.0090
610.00,0.0090
609.00,0.0089
608.00,0.0089
607.00,0.0089
606.00,0.0089
605.00,0.0090
604.00,0.0091
603.00,0.0092
602.00,0.0091
601.00,0.0088
600.00,0.0085
599.00,0.0082
598.00,0.0082
597.00,0.0083
596.00,0.0085
595.00,0.0085
594.00,0.0084
593.00,0.0083
592.00,0.0082
591.00,0.0082
590.00,0.0084
589.00,0.0086
588.00,0.0088
587.00,0.0091
586.00,0.0094
585.00,0.0096
584.00,0.0098
583.00,0.0099
582.00,0.0101
581.00,0.0102
580.00,0.0102
579.00,0.0103
578.00,0.0103
577.00,0.0103
576.00,0.0100
575.00,0.0097
574.00,0.0093
573.00,0.0092
572.00,0.0094
571.00,0.0095
570.00,0.0096
569.00,0.0095
568.00,0.0093
567.00,0.0092
566.00,0.0092
565.00,0.0093
564.00,0.0094
563.00,0.0092
562.00,0.0089
561.00,0.0086
560.00,0.0086
559.00,0.0088
558.00,0.0091
557.00,0.0095
556.00,0.0099
555.00,0.0101
554.00,0.0099
553.00,0.0095
552.00,0.0091
551.00,0.0090
550.00,0.0090
549.00,0.0093
548.00,0.0095
547.00,0.0098
546.00,0.0098
545.00,0.0096
544.00,0.0092
543.00,0.0090
542.00,0.0091
541.00,0.0092
540.00,0.0093
539.00,0.0093
538.00,0.0093
537.00,0.0094
536.00,0.0095
535.00,0.0097
534.00,0.0099
533.00,0.0100
532.00,0.0101
531.00,0.0102
530.00,0.0104
529.00,0.0106
528.00,0.0106
527.00,0.0106
526.00,0.0108
525.00,0.0109
524.00,0.0110
523.00,0.0110
522.00,0.0111
521.00,0.0110
520.00,0.0105
519.00,0.0095
518.00,0.0087
517.00,0.0086
516.00,0.0093
515.00,0.0101
514.00,0.0106
513.00,0.0106
512.00,0.0101
511.00,0.0094
510.00,0.0090
509.00,0.0090
508.00,0.0091
507.00,0.0090
506.00,0.0090
505.00,0.0090
504.00,0.0090
503.00,0.0088
502.00,0.0084
501.00,0.0082
500.00,0.0085
499.00,0.0090
498.00,0.0094
497.00,0.0097
496.00,0.0100
495.00,0.0103
494.00,0.0104
493.00,0.0100
492.00,0.0095
491.00,0.0092
490.00,0.0093
489.00,0.0097
488.00,0.0101
487.00,0.0104
486.00,0.0103
485.00,0.0099
484.00,0.0092
483.00,0.0088
482.00,0.0089
481.00,0.0093
480.00,0.0096
479.00,0.0098
478.00,0.0099
477.00,0.0103
476.00,0.0107
475.00,0.0110
474.00,0.0113
473.00,0.0118
472.00,0.0123
471.00,0.0123
470.00,0.0118
469.00,0.0113
468.00,0.0115
467.00,0.0125
466.00,0.0136
465.00,0.0144
464.00,0.0149
463.00,0.0151
462.00,0.0154
461.00,0.0158
460.00,0.0162
459.00,0.0162
458.00,0.0157
457.00,0.0150
456.00,0.0143
455.00,0.0138
454.00,0.0132
453.00,0.0125
452.00,0.0117
451.00,0.0112
450.00,0.0110
