Created as New Dataset,Sample 029 By Administrator Date Wednesday, September 10 2025
cm-1,A
4000.00,0.0009
3999.00,0.0009
3998.00,0.0009
3997.00,0.0009
3996.00,0.0009
3995.00,0.0009
3994.00,0.0009
3993.00,0.0010
3992.00,0.0010
3991.00,0.0010
3990.00,0.0010
3989.00,0.0009
3988.00,0.0009
3987.00,0.0009
3986.00,0.0009
3985.00,0.0009
3984.00,0.0009
3983.00,0.0008
3982.00,0.0008
3981.00,0.0008
3980.00,0.0009
3979.00,0.0009
3978.00,0.0008
3977.00,0.0008
3976.00,0.0008
3975.00,0.0008
3974.00,0.0008
3973.00,0.0008
3972.00,0.0008
3971.00,0.0008
3970.00,0.0008
3969.00,0.0008
3968.00,0.0008
3967.00,0.0009
3966.00,0.0009
3965.00,0.0008
3964.00,0.0008
3963.00,0.0008
3962.00,0.0008
3961.00,0.0008
3960.00,0.0008
3959.00,0.0008
3958.00,0.0007
3957.00,0.0007
3956.00,0.0007
3955.00,0.0007
3954.00,0.0007
3953.00,0.0007
3952.00,0.0008
3951.00,0.0008
3950.00,0.0008
3949.00,0.0008
3948.00,0.0008
3947.00,0.0008
3946.00,0.0008
3945.00,0.0009
3944.00,0.0009
3943.00,0.0009
3942.00,0.0009
3941.00,0.0009
3940.00,0.0009
3939.00,0.0009
3938.00,0.0008
3937.00,0.0008
3936.00,0.0008
3935.00,0.0008
3934.00,0.0009
3933.00,0.0009
3932.00,0.0010
3931.00,0.0010
3930.00,0.0009
3929.00,0.0009
3928.00,0.0009
3927.00,0.0009
3926.00,0.0008
3925.00,0.0008
3924.00,0.0008
3923.00,0.0008
3922.00,0.0009
3921.00,0.0009
3920.00,0.0009
3919.00,0.0009
3918.00,0.0009
3917.00,0.0009
3916.00,0.0009
3915.00,0.0009
3914.00,0.0008
3913.00,0.0008
3912.00,0.0008
3911.00,0.0008
3910.00,0.0008
3909.00,0.0008
3908.00,0.0009
3907.00,0.0010
3906.00,0.0010
3905.00,0.0011
3904.00,0.0011
3903.00,0.0012
3902.00,0.0012
3901.00,0.0012
3900.00,0.0011
3899.00,0.0010
3898.00,0.0010
3897.00,0.0010
3896.00,0.0009
3895.00,0.0010
3894.00,0.0010
3893.00,0.0010
3892.00,0.0010
3891.00,0.0010
3890.00,0.0010
3889.00,0.0010
3888.00,0.0010
3887.00,0.0009
3886.00,0.0009
3885.00,0.0010
3884.00,0.0010
3883.00,0.0010
3882.00,0.0010
3881.00,0.0010
3880.00,0.0010
3879.00,0.0010
3878.00,0.0010
3877.00,0.0010
3876.00,0.0010
3875.00,0.0010
3874.00,0.0010
3873.00,0.0010
3872.00,0.0010
3871.00,0.0010
3870.00,0.0011
3869.00,0.0011
3868.00,0.0011
3867.00,0.0011
3866.00,0.0011
3865.00,0.0011
3864.00,0.0010
3863.00,0.0010
3862.00,0.0009
3861.00,0.0009
3860.00,0.0009
3859.00,0.0009
3858.00,0.0010
3857.00,0.0011
3856.00,0.0012
3855.00,0.0013
3854.00,0.0012
3853.00,0.0012
3852.00,0.0012
3851.00,0.0011
3850.00,0.0011
3849.00,0.0010
3848.00,0.0009
3847.00,0.0009
3846.00,0.0009
3845.00,0.0009
3844.00,0.0009
3843.00,0.0010
3842.00,0.0010
3841.00,0.0011
3840.00,0.0012
3839.00,0.0012
3838.00,0.0012
3837.00,0.0012
3836.00,0.0011
3835.00,0.0011
3834.00,0.0010
3833.00,0.0010
3832.00,0.0009
3831.00,0.0009
3830.00,0.0008
3829.00,0.0008
3828.00,0.0008
3827.00,0.0009
3826.00,0.0009
3825.00,0.0010
3824.00,0.0010
3823.00,0.0011
3822.00,0.0011
3821.00,0.0012
3820.00,0.0012
3819.00,0.0012
3818.00,0.0011
3817.00,0.0011
3816.00,0.0010
3815.00,0.0009
3814.00,0.0009
3813.00,0.0009
3812.00,0.0009
3811.00,0.0009
3810.00,0.0009
3809.00,0.0009
3808.00,0.0009
3807.00,0.0009
3806.00,0.0010
3805.00,0.0010
3804.00,0.0011
3803.00,0.0011
3802.00,0.0011
3801.00,0.0011
3800.00,0.0011
3799.00,0.0011
3798.00,0.0011
3797.00,0.0010
3796.00,0.0009
3795.00,0.0009
3794.00,0.0008
3793.00,0.0007
3792.00,0.0007
3791.00,0.0007
3790.00,0.0007
3789.00,0.0007
3788.00,0.0007
3787.00,0.0007
3786.00,0.0007
3785.00,0.0007
3784.00,0.0007
3783.00,0.0008
3782.00,0.0009
3781.00,0.0009
3780.00,0.0009
3779.00,0.0009
3778.00,0.0009
3777.00,0.0009
3776.00,0.0009
3775.00,0.0008
3774.00,0.0008
3773.00,0.0008
3772.00,0.0009
3771.00,0.0009
3770.00,0.0010
3769.00,0.0010
3768.00,0.0010
3767.00,0.0010
3766.00,0.0010
3765.00,0.0010
3764.00,0.0010
3763.00,0.0010
3762.00,0.0009
3761.00,0.0009
3760.00,0.0009
3759.00,0.0010
3758.00,0.0010
3757.00,0.0011
3756.00,0.0011
3755.00,0.0012
3754.00,0.0012
3753.00,0.0013
3752.00,0.0013
3751.00,0.0014
3750.00,0.0014
3749.00,0.0015
3748.00,0.0015
3747.00,0.0014
3746.00,0.0013
3745.00,0.0013
3744.00,0.0012
3743.00,0.0012
3742.00,0.0011
3741.00,0.0011
3740.00,0.0010
3739.00,0.0011
3738.00,0.0012
3737.00,0.0012
3736.00,0.0012
3735.00,0.0011
3734.00,0.0010
3733.00,0.0010
3732.00,0.0009
3731.00,0.0009
3730.00,0.0008
3729.00,0.0007
3728.00,0.0007
3727.00,0.0007
3726.00,0.0008
3725.00,0.0007
3724.00,0.0007
3723.00,0.0007
3722.00,0.0007
3721.00,0.0007
3720.00,0.0007
3719.00,0.0007
3718.00,0.0007
3717.00,0.0007
3716.00,0.0007
3715.00,0.0008
3714.00,0.0008
3713.00,0.0009
3712.00,0.0009
3711.00,0.0009
3710.00,0.0009
3709.00,0.0009
3708.00,0.0008
3707.00,0.0008
3706.00,0.0007
3705.00,0.0007
3704.00,0.0007
3703.00,0.0006
3702.00,0.0006
3701.00,0.0006
3700.00,0.0006
3699.00,0.0006
3698.00,0.0006
3697.00,0.0006
3696.00,0.0007
3695.00,0.0007
3694.00,0.0008
3693.00,0.0008
3692.00,0.0009
3691.00,0.0010
3690.00,0.0010
3689.00,0.0010
3688.00,0.0010
3687.00,0.0010
3686.00,0.0009
3685.00,0.0009
3684.00,0.0008
3683.00,0.0008
3682.00,0.0008
3681.00,0.0009
3680.00,0.0009
3679.00,0.0011
3678.00,0.0012
3677.00,0.0013
3676.00,0.0013
3675.00,0.0013
3674.00,0.0013
3673.00,0.0013
3672.00,0.0013
3671.00,0.0013
3670.00,0.0012
3669.00,0.0012
3668.00,0.0011
3667.00,0.0010
3666.00,0.0009
3665.00,0.0009
3664.00,0.0009
3663.00,0.0009
3662.00,0.0009
3661.00,0.0009
3660.00,0.0010
3659.00,0.0010
3658.00,0.0010
3657.00,0.0011
3656.00,0.0011
3655.00,0.0012
3654.00,0.0013
3653.00,0.0014
3652.00,0.0014
3651.00,0.0015
3650.00,0.0015
3649.00,0.0016
3648.00,0.0017
3647.00,0.0017
3646.00,0.0017
3645.00,0.0016
3644.00,0.0015
3643.00,0.0013
3642.00,0.0012
3641.00,0.0012
3640.00,0.0011
3639.00,0.0011
3638.00,0.0012
3637.00,0.0012
3636.00,0.0012
3635.00,0.0013
3634.00,0.0013
3633.00,0.0014
3632.00,0.0015
3631.00,0.0015
3630.00,0.0016
3629.00,0.0016
3628.00,0.0016
3627.00,0.0016
3626.00,0.0016
3625.00,0.0015
3624.00,0.0015
3623.00,0.0014
3622.00,0.0015
3621.00,0.0015
3620.00,0.0016
3619.00,0.0017
3618.00,0.0017
3617.00,0.0018
3616.00,0.0018
3615.00,0.0018
3614.00,0.0018
3613.00,0.0019
3612.00,0.0019
3611.00,0.0019
3610.00,0.0019
3609.00,0.0019
3608.00,0.0019
3607.00,0.0019
3606.00,0.0019
3605.00,0.0019
3604.00,0.0018
3603.00,0.0019
3602.00,0.0019
3601.00,0.0019
3600.00,0.0019
3599.00,0.0020
3598.00,0.0020
3597.00,0.0020
3596.00,0.0020
3595.00,0.0020
3594.00,0.0020
3593.00,0.0020
3592.00,0.0021
3591.00,0.0021
3590.00,0.0022
3589.00,0.0023
3588.00,0.0024
3587.00,0.0024
3586.00,0.0024
3585.00,0.0025
3584.00,0.0025
3583.00,0.0025
3582.00,0.0025
3581.00,0.0025
3580.00,0.0025
3579.00,0.0026
3578.00,0.0026
3577.00,0.0027
3576.00,0.0027
3575.00,0.0027
3574.00,0.0027
3573.00,0.0027
3572.00,0.0028
3571.00,0.0029
3570.00,0.0031
3569.00,0.0032
3568.00,0.0033
3567.00,0.0033
3566.00,0.0033
3565.00,0.0033
3564.00,0.0032
3563.00,0.0032
3562.00,0.0032
3561.00,0.0032
3560.00,0.0033
3559.00,0.0033
3558.00,0.0033
3557.00,0.0033
3556.00,0.0034
3555.00,0.0035
3554.00,0.0035
3553.00,0.0036
3552.00,0.0036
3551.00,0.0037
3550.00,0.0037
3549.00,0.0038
3548.00,0.0039
3547.00,0.0040
3546.00,0.0040
3545.00,0.0040
3544.00,0.0040
3543.00,0.0040
3542.00,0.0040
3541.00,0.0040
3540.00,0.0040
3539.00,0.0041
3538.00,0.0041
3537.00,0.0042
3536.00,0.0042
3535.00,0.0043
3534.00,0.0043
3533.00,0.0044
3532.00,0.0044
3531.00,0.0045
3530.00,0.0045
3529.00,0.0046
3528.00,0.0047
3527.00,0.0048
3526.00,0.0048
3525.00,0.0049
3524.00,0.0049
3523.00,0.0049
3522.00,0.0049
3521.00,0.0049
3520.00,0.0049
3519.00,0.0049
3518.00,0.0049
3517.00,0.0050
3516.00,0.0050
3515.00,0.0050
3514.00,0.0051
3513.00,0.0051
3512.00,0.0051
3511.00,0.0052
3510.00,0.0052
3509.00,0.0052
3508.00,0.0053
3507.00,0.0054
3506.00,0.0054
3505.00,0.0055
3504.00,0.0055
3503.00,0.0056
3502.00,0.0056
3501.00,0.0057
3500.00,0.0057
3499.00,0.0057
3498.00,0.0057
3497.00,0.0058
3496.00,0.0058
3495.00,0.0059
3494.00,0.0060
3493.00,0.0061
3492.00,0.0061
3491.00,0.0061
3490.00,0.0061
3489.00,0.0062
3488.00,0.0062
3487.00,0.0062
3486.00,0.0063
3485.00,0.0063
3484.00,0.0064
3483.00,0.0064
3482.00,0.0065
3481.00,0.0065
3480.00,0.0066
3479.00,0.0066
3478.00,0.0066
3477.00,0.0066
3476.00,0.0067
3475.00,0.0067
3474.00,0.0067
3473.00,0.0068
3472.00,0.0068
3471.00,0.0069
3470.00,0.0069
3469.00,0.0070
3468.00,0.0070
3467.00,0.0071
3466.00,0.0071
3465.00,0.0072
3464.00,0.0073
3463.00,0.0074
3462.00,0.0074
3461.00,0.0074
3460.00,0.0074
3459.00,0.0074
3458.00,0.0074
3457.00,0.0075
3456.00,0.0075
3455.00,0.0075
3454.00,0.0075
3453.00,0.0075
3452.00,0.0075
3451.00,0.0076
3450.00,0.0077
3449.00,0.0077
3448.00,0.0077
3447.00,0.0078
3446.00,0.0078
3445.00,0.0078
3444.00,0.0079
3443.00,0.0079
3442.00,0.0080
3441.00,0.0080
3440.00,0.0081
3439.00,0.0081
3438.00,0.0082
3437.00,0.0082
3436.00,0.0083
3435.00,0.0083
3434.00,0.0083
3433.00,0.0084
3432.00,0.0084
3431.00,0.0084
3430.00,0.0084
3429.00,0.0084
3428.00,0.0085
3427.00,0.0085
3426.00,0.0085
3425.00,0.0086
3424.00,0.0086
3423.00,0.0086
3422.00,0.0087
3421.00,0.0087
3420.00,0.0087
3419.00,0.0088
3418.00,0.0088
3417.00,0.0088
3416.00,0.0089
3415.00,0.0089
3414.00,0.0090
3413.00,0.0090
3412.00,0.0090
3411.00,0.0090
3410.00,0.0090
3409.00,0.0091
3408.00,0.0091
3407.00,0.0091
3406.00,0.0092
3405.00,0.0092
3404.00,0.0092
3403.00,0.0093
3402.00,0.0093
3401.00,0.0093
3400.00,0.0093
3399.00,0.0093
3398.00,0.0093
3397.00,0.0093
3396.00,0.0094
3395.00,0.0094
3394.00,0.0094
3393.00,0.0094
3392.00,0.0094
3391.00,0.0094
3390.00,0.0094
3389.00,0.0094
3388.00,0.0094
3387.00,0.0094
3386.00,0.0094
3385.00,0.0094
3384.00,0.0094
3383.00,0.0093
3382.00,0.0093
3381.00,0.0093
3380.00,0.0093
3379.00,0.0093
3378.00,0.0093
3377.00,0.0094
3376.00,0.0094
3375.00,0.0094
3374.00,0.0094
3373.00,0.0093
3372.00,0.0094
3371.00,0.0094
3370.00,0.0094
3369.00,0.0094
3368.00,0.0093
3367.00,0.0094
3366.00,0.0094
3365.00,0.0094
3364.00,0.0095
3363.00,0.0095
3362.00,0.0095
3361.00,0.0095
3360.00,0.0095
3359.00,0.0095
3358.00,0.0095
3357.00,0.0095
3356.00,0.0095
3355.00,0.0095
3354.00,0.0095
3353.00,0.0094
3352.00,0.0094
3351.00,0.0094
3350.00,0.0093
3349.00,0.0093
3348.00,0.0093
3347.00,0.0094
3346.00,0.0094
3345.00,0.0094
3344.00,0.0094
3343.00,0.0094
3342.00,0.0094
3341.00,0.0094
3340.00,0.0094
3339.00,0.0094
3338.00,0.0094
3337.00,0.0094
3336.00,0.0094
3335.00,0.0094
3334.00,0.0094
3333.00,0.0094
3332.00,0.0094
3331.00,0.0094
3330.00,0.0093
3329.00,0.0093
3328.00,0.0093
3327.00,0.0093
3326.00,0.0093
3325.00,0.0093
3324.00,0.0093
3323.00,0.0093
3322.00,0.0092
3321.00,0.0092
3320.00,0.0092
3319.00,0.0092
3318.00,0.0092
3317.00,0.0092
3316.00,0.0092
3315.00,0.0092
3314.00,0.0092
3313.00,0.0092
3312.00,0.0092
3311.00,0.0092
3310.00,0.0092
3309.00,0.0092
3308.00,0.0092
3307.00,0.0092
3306.00,0.0091
3305.00,0.0091
3304.00,0.0091
3303.00,0.0090
3302.00,0.0090
3301.00,0.0090
3300.00,0.0090
3299.00,0.0089
3298.00,0.0089
3297.00,0.0088
3296.00,0.0088
3295.00,0.0088
3294.00,0.0088
3293.00,0.0088
3292.00,0.0088
3291.00,0.0088
3290.00,0.0087
3289.00,0.0087
3288.00,0.0086
3287.00,0.0086
3286.00,0.0086
3285.00,0.0085
3284.00,0.0085
3283.00,0.0085
3282.00,0.0084
3281.00,0.0084
3280.00,0.0084
3279.00,0.0084
3278.00,0.0084
3277.00,0.0083
3276.00,0.0083
3275.00,0.0083
3274.00,0.0084
3273.00,0.0084
3272.00,0.0083
3271.00,0.0082
3270.00,0.0082
3269.00,0.0081
3268.00,0.0081
3267.00,0.0081
3266.00,0.0081
3265.00,0.0081
3264.00,0.0080
3263.00,0.0080
3262.00,0.0080
3261.00,0.0079
3260.00,0.0079
3259.00,0.0079
3258.00,0.0079
3257.00,0.0079
3256.00,0.0079
3255.00,0.0078
3254.00,0.0078
3253.00,0.0077
3252.00,0.0076
3251.00,0.0076
3250.00,0.0075
3249.00,0.0075
3248.00,0.0075
3247.00,0.0075
3246.00,0.0075
3245.00,0.0075
3244.00,0.0075
3243.00,0.0075
3242.00,0.0074
3241.00,0.0074
3240.00,0.0073
3239.00,0.0073
3238.00,0.0072
3237.00,0.0072
3236.00,0.0072
3235.00,0.0072
3234.00,0.0072
3233.00,0.0072
3232.00,0.0072
3231.00,0.0072
3230.00,0.0072
3229.00,0.0073
3228.00,0.0073
3227.00,0.0073
3226.00,0.0073
3225.00,0.0073
3224.00,0.0073
3223.00,0.0073
3222.00,0.0073
3221.00,0.0073
3220.00,0.0073
3219.00,0.0074
3218.00,0.0074
3217.00,0.0075
3216.00,0.0075
3215.00,0.0075
3214.00,0.0075
3213.00,0.0074
3212.00,0.0074
3211.00,0.0074
3210.00,0.0075
3209.00,0.0075
3208.00,0.0075
3207.00,0.0075
3206.00,0.0076
3205.00,0.0076
3204.00,0.0075
3203.00,0.0075
3202.00,0.0076
3201.00,0.0076
3200.00,0.0076
3199.00,0.0076
3198.00,0.0075
3197.00,0.0075
3196.00,0.0075
3195.00,0.0075
3194.00,0.0075
3193.00,0.0075
3192.00,0.0074
3191.00,0.0074
3190.00,0.0073
3189.00,0.0073
3188.00,0.0073
3187.00,0.0073
3186.00,0.0073
3185.00,0.0073
3184.00,0.0073
3183.00,0.0072
3182.00,0.0072
3181.00,0.0071
3180.00,0.0071
3179.00,0.0070
3178.00,0.0070
3177.00,0.0069
3176.00,0.0069
3175.00,0.0068
3174.00,0.0068
3173.00,0.0068
3172.00,0.0067
3171.00,0.0067
3170.00,0.0066
3169.00,0.0065
3168.00,0.0065
3167.00,0.0065
3166.00,0.0065
3165.00,0.0064
3164.00,0.0064
3163.00,0.0063
3162.00,0.0063
3161.00,0.0063
3160.00,0.0063
3159.00,0.0063
3158.00,0.0063
3157.00,0.0062
3156.00,0.0062
3155.00,0.0061
3154.00,0.0061
3153.00,0.0061
3152.00,0.0061
3151.00,0.0061
3150.00,0.0061
3149.00,0.0061
3148.00,0.0061
3147.00,0.0060
3146.00,0.0060
3145.00,0.0059
3144.00,0.0059
3143.00,0.0059
3142.00,0.0059
3141.00,0.0058
3140.00,0.0058
3139.00,0.0058
3138.00,0.0057
3137.00,0.0057
3136.00,0.0056
3135.00,0.0056
3134.00,0.0056
3133.00,0.0056
3132.00,0.0056
3131.00,0.0056
3130.00,0.0055
3129.00,0.0055
3128.00,0.0055
3127.00,0.0054
3126.00,0.0054
3125.00,0.0054
3124.00,0.0053
3123.00,0.0053
3122.00,0.0052
3121.00,0.0051
3120.00,0.0051
3119.00,0.0051
3118.00,0.0051
3117.00,0.0051
3116.00,0.0051
3115.00,0.0051
3114.00,0.0051
3113.00,0.0050
3112.00,0.0050
3111.00,0.0049
3110.00,0.0049
3109.00,0.0048
3108.00,0.0048
3107.00,0.0048
3106.00,0.0048
3105.00,0.0048
3104.00,0.0048
3103.00,0.0048
3102.00,0.0048
3101.00,0.0047
3100.00,0.0047
3099.00,0.0047
3098.00,0.0046
3097.00,0.0046
3096.00,0.0046
3095.00,0.0046
3094.00,0.0046
3093.00,0.0046
3092.00,0.0046
3091.00,0.0045
3090.00,0.0045
3089.00,0.0045
3088.00,0.0045
3087.00,0.0045
3086.00,0.0045
3085.00,0.0044
3084.00,0.0044
3083.00,0.0044
3082.00,0.0044
3081.00,0.0044
3080.00,0.0044
3079.00,0.0043
3078.00,0.0043
3077.00,0.0043
3076.00,0.0043
3075.00,0.0043
3074.00,0.0043
3073.00,0.0043
3072.00,0.0043
3071.00,0.0043
3070.00,0.0043
3069.00,0.0044
3068.00,0.0044
3067.00,0.0044
3066.00,0.0045
3065.00,0.0045
3064.00,0.0046
3063.00,0.0046
3062.00,0.0046
3061.00,0.0046
3060.00,0.0046
3059.00,0.0046
3058.00,0.0046
3057.00,0.0045
3056.00,0.0045
3055.00,0.0045
3054.00,0.0045
3053.00,0.0045
3052.00,0.0045
3051.00,0.0046
3050.00,0.0046
3049.00,0.0046
3048.00,0.0047
3047.00,0.0047
3046.00,0.0047
3045.00,0.0047
3044.00,0.0047
3043.00,0.0047
3042.00,0.0047
3041.00,0.0048
3040.00,0.0048
3039.00,0.0049
3038.00,0.0049
3037.00,0.0049
3036.00,0.0049
3035.00,0.0049
3034.00,0.0049
3033.00,0.0050
3032.00,0.0050
3031.00,0.0050
3030.00,0.0051
3029.00,0.0051
3028.00,0.0052
3027.00,0.0052
3026.00,0.0053
3025.00,0.0053
3024.00,0.0054
3023.00,0.0054
3022.00,0.0055
3021.00,0.0056
3020.00,0.0057
3019.00,0.0058
3018.00,0.0059
3017.00,0.0060
3016.00,0.0061
3015.00,0.0062
3014.00,0.0063
3013.00,0.0064
3012.00,0.0065
3011.00,0.0066
3010.00,0.0068
3009.00,0.0069
3008.00,0.0071
3007.00,0.0073
3006.00,0.0075
3005.00,0.0076
3004.00,0.0078
3003.00,0.0081
3002.00,0.0083
3001.00,0.0086
3000.00,0.0089
2999.00,0.0092
2998.00,0.0095
2997.00,0.0098
2996.00,0.0102
2995.00,0.0106
2994.00,0.0111
2993.00,0.0117
2992.00,0.0123
2991.00,0.0129
2990.00,0.0136
2989.00,0.0143
2988.00,0.0152
2987.00,0.0161
2986.00,0.0171
2985.00,0.0183
2984.00,0.0196
2983.00,0.0211
2982.00,0.0228
2981.00,0.0246
2980.00,0.0267
2979.00,0.0290
2978.00,0.0317
2977.00,0.0347
2976.00,0.0381
2975.00,0.0420
2974.00,0.0465
2973.00,0.0516
2972.00,0.0574
2971.00,0.0639
2970.00,0.0712
2969.00,0.0793
2968.00,0.0882
2967.00,0.0980
2966.00,0.1086
2965.00,0.1197
2964.00,0.1311
2963.00,0.1424
2962.00,0.1530
2961.00,0.1624
2960.00,0.1702
2959.00,0.1761
2958.00,0.1803
2957.00,0.1832
2956.00,0.1855
2955.00,0.1876
2954.00,0.1900
2953.00,0.1925
2952.00,0.1948
2951.00,0.1958
2950.00,0.1950
2949.00,0.1914
2948.00,0.1847
2947.00,0.1752
2946.00,0.1636
2945.00,0.1510
2944.00,0.1387
2943.00,0.1277
2942.00,0.1188
2941.00,0.1123
2940.00,0.1083
2939.00,0.1065
2938.00,0.1067
2937.00,0.1087
2936.00,0.1122
2935.00,0.1172
2934.00,0.1235
2933.00,0.1308
2932.00,0.1391
2931.00,0.1481
2930.00,0.1575
2929.00,0.1671
2928.00,0.1765
2927.00,0.1855
2926.00,0.1940
2925.00,0.2019
2924.00,0.2093
2923.00,0.2163
2922.00,0.2230
2921.00,0.2293
2920.00,0.2347
2919.00,0.2386
2918.00,0.2406
2917.00,0.2401
2916.00,0.2372
2915.00,0.2320
2914.00,0.2253
2913.00,0.2180
2912.00,0.2106
2911.00,0.2036
2910.00,0.1973
2909.00,0.1916
2908.00,0.1862
2907.00,0.1809
2906.00,0.1754
2905.00,0.1696
2904.00,0.1634
2903.00,0.1569
2902.00,0.1502
2901.00,0.1436
2900.00,0.1370
2899.00,0.1308
2898.00,0.1250
2897.00,0.1197
2896.00,0.1150
2895.00,0.1111
2894.00,0.1078
2893.00,0.1051
2892.00,0.1032
2891.00,0.1018
2890.00,0.1010
2889.00,0.1006
2888.00,0.1006
2887.00,0.1010
2886.00,0.1017
2885.00,0.1027
2884.00,0.1042
2883.00,0.1060
2882.00,0.1081
2881.00,0.1105
2880.00,0.1128
2879.00,0.1147
2878.00,0.1159
2877.00,0.1163
2876.00,0.1159
2875.00,0.1152
2874.00,0.1145
2873.00,0.1142
2872.00,0.1146
2871.00,0.1157
2870.00,0.1173
2869.00,0.1190
2868.00,0.1201
2867.00,0.1198
2866.00,0.1176
2865.00,0.1131
2864.00,0.1067
2863.00,0.0989
2862.00,0.0908
2861.00,0.0832
2860.00,0.0767
2859.00,0.0715
2858.00,0.0675
2857.00,0.0648
2856.00,0.0629
2855.00,0.0619
2854.00,0.0615
2853.00,0.0616
2852.00,0.0623
2851.00,0.0636
2850.00,0.0654
2849.00,0.0677
2848.00,0.0708
2847.00,0.0746
2846.00,0.0793
2845.00,0.0849
2844.00,0.0913
2843.00,0.0984
2842.00,0.1058
2841.00,0.1129
2840.00,0.1189
2839.00,0.1229
2838.00,0.1239
2837.00,0.1216
2836.00,0.1157
2835.00,0.1070
2834.00,0.0964
2833.00,0.0853
2832.00,0.0747
2831.00,0.0652
2830.00,0.0571
2829.00,0.0505
2828.00,0.0452
2827.00,0.0409
2826.00,0.0374
2825.00,0.0345
2824.00,0.0321
2823.00,0.0300
2822.00,0.0282
2821.00,0.0267
2820.00,0.0253
2819.00,0.0241
2818.00,0.0231
2817.00,0.0222
2816.00,0.0215
2815.00,0.0208
2814.00,0.0202
2813.00,0.0196
2812.00,0.0190
2811.00,0.0185
2810.00,0.0181
2809.00,0.0176
2808.00,0.0171
2807.00,0.0165
2806.00,0.0158
2805.00,0.0152
2804.00,0.0145
2803.00,0.0139
2802.00,0.0134
2801.00,0.0129
2800.00,0.0125
2799.00,0.0122
2798.00,0.0119
2797.00,0.0117
2796.00,0.0115
2795.00,0.0113
2794.00,0.0111
2793.00,0.0108
2792.00,0.0104
2791.00,0.0101
2790.00,0.0097
2789.00,0.0093
2788.00,0.0090
2787.00,0.0087
2786.00,0.0084
2785.00,0.0082
2784.00,0.0079
2783.00,0.0077
2782.00,0.0075
2781.00,0.0072
2780.00,0.0070
2779.00,0.0069
2778.00,0.0067
2777.00,0.0066
2776.00,0.0065
2775.00,0.0063
2774.00,0.0062
2773.00,0.0061
2772.00,0.0061
2771.00,0.0060
2770.00,0.0060
2769.00,0.0059
2768.00,0.0059
2767.00,0.0058
2766.00,0.0058
2765.00,0.0058
2764.00,0.0058
2763.00,0.0058
2762.00,0.0058
2761.00,0.0057
2760.00,0.0057
2759.00,0.0057
2758.00,0.0056
2757.00,0.0056
2756.00,0.0056
2755.00,0.0056
2754.00,0.0056
2753.00,0.0056
2752.00,0.0056
2751.00,0.0055
2750.00,0.0055
2749.00,0.0055
2748.00,0.0055
2747.00,0.0055
2746.00,0.0056
2745.00,0.0056
2744.00,0.0057
2743.00,0.0057
2742.00,0.0058
2741.00,0.0060
2740.00,0.0062
2739.00,0.0063
2738.00,0.0064
2737.00,0.0065
2736.00,0.0067
2735.00,0.0068
2734.00,0.0069
2733.00,0.0071
2732.00,0.0072
2731.00,0.0074
2730.00,0.0076
2729.00,0.0078
2728.00,0.0080
2727.00,0.0083
2726.00,0.0086
2725.00,0.0088
2724.00,0.0090
2723.00,0.0090
2722.00,0.0089
2721.00,0.0087
2720.00,0.0084
2719.00,0.0081
2718.00,0.0078
2717.00,0.0075
2716.00,0.0072
2715.00,0.0070
2714.00,0.0067
2713.00,0.0065
2712.00,0.0063
2711.00,0.0061
2710.00,0.0060
2709.00,0.0058
2708.00,0.0057
2707.00,0.0056
2706.00,0.0055
2705.00,0.0054
2704.00,0.0053
2703.00,0.0052
2702.00,0.0051
2701.00,0.0051
2700.00,0.0050
2699.00,0.0050
2698.00,0.0049
2697.00,0.0049
2696.00,0.0048
2695.00,0.0048
2694.00,0.0048
2693.00,0.0048
2692.00,0.0048
2691.00,0.0048
2690.00,0.0048
2689.00,0.0048
2688.00,0.0048
2687.00,0.0048
2686.00,0.0048
2685.00,0.0048
2684.00,0.0048
2683.00,0.0048
2682.00,0.0048
2681.00,0.0048
2680.00,0.0048
2679.00,0.0048
2678.00,0.0048
2677.00,0.0048
2676.00,0.0048
2675.00,0.0048
2674.00,0.0047
2673.00,0.0047
2672.00,0.0047
2671.00,0.0046
2670.00,0.0046
2669.00,0.0047
2668.00,0.0047
2667.00,0.0047
2666.00,0.0047
2665.00,0.0047
2664.00,0.0047
2663.00,0.0048
2662.00,0.0048
2661.00,0.0049
2660.00,0.0049
2659.00,0.0049
2658.00,0.0049
2657.00,0.0049
2656.00,0.0048
2655.00,0.0048
2654.00,0.0047
2653.00,0.0047
2652.00,0.0046
2651.00,0.0046
2650.00,0.0045
2649.00,0.0045
2648.00,0.0045
2647.00,0.0044
2646.00,0.0044
2645.00,0.0044
2644.00,0.0044
2643.00,0.0043
2642.00,0.0043
2641.00,0.0042
2640.00,0.0042
2639.00,0.0041
2638.00,0.0041
2637.00,0.0040
2636.00,0.0039
2635.00,0.0039
2634.00,0.0039
2633.00,0.0040
2632.00,0.0040
2631.00,0.0041
2630.00,0.0041
2629.00,0.0041
2628.00,0.0041
2627.00,0.0041
2626.00,0.0041
2625.00,0.0041
2624.00,0.0041
2623.00,0.0041
2622.00,0.0042
2621.00,0.0042
2620.00,0.0042
2619.00,0.0043
2618.00,0.0043
2617.00,0.0042
2616.00,0.0042
2615.00,0.0041
2614.00,0.0041
2613.00,0.0041
2612.00,0.0040
2611.00,0.0040
2610.00,0.0039
2609.00,0.0038
2608.00,0.0038
2607.00,0.0037
2606.00,0.0036
2605.00,0.0034
2604.00,0.0033
2603.00,0.0033
2602.00,0.0033
2601.00,0.0033
2600.00,0.0033
2599.00,0.0032
2598.00,0.0032
2597.00,0.0032
2596.00,0.0032
2595.00,0.0032
2594.00,0.0033
2593.00,0.0034
2592.00,0.0034
2591.00,0.0035
2590.00,0.0035
2589.00,0.0036
2588.00,0.0036
2587.00,0.0037
2586.00,0.0038
2585.00,0.0039
2584.00,0.0040
2583.00,0.0040
2582.00,0.0039
2581.00,0.0039
2580.00,0.0038
2579.00,0.0038
2578.00,0.0037
2577.00,0.0037
2576.00,0.0037
2575.00,0.0036
2574.00,0.0035
2573.00,0.0034
2572.00,0.0033
2571.00,0.0032
2570.00,0.0031
2569.00,0.0029
2568.00,0.0029
2567.00,0.0028
2566.00,0.0027
2565.00,0.0026
2564.00,0.0025
2563.00,0.0025
2562.00,0.0025
2561.00,0.0025
2560.00,0.0025
2559.00,0.0024
2558.00,0.0024
2557.00,0.0023
2556.00,0.0023
2555.00,0.0023
2554.00,0.0023
2553.00,0.0023
2552.00,0.0023
2551.00,0.0023
2550.00,0.0023
2549.00,0.0023
2548.00,0.0022
2547.00,0.0021
2546.00,0.0020
2545.00,0.0020
2544.00,0.0019
2543.00,0.0018
2542.00,0.0017
2541.00,0.0017
2540.00,0.0017
2539.00,0.0017
2538.00,0.0018
2537.00,0.0019
2536.00,0.0019
2535.00,0.0019
2534.00,0.0019
2533.00,0.0019
2532.00,0.0019
2531.00,0.0019
2530.00,0.0019
2529.00,0.0018
2528.00,0.0017
2527.00,0.0016
2526.00,0.0016
2525.00,0.0015
2524.00,0.0016
2523.00,0.0016
2522.00,0.0016
2521.00,0.0015
2520.00,0.0014
2519.00,0.0013
2518.00,0.0013
2517.00,0.0013
2516.00,0.0013
2515.00,0.0013
2514.00,0.0013
2513.00,0.0012
2512.00,0.0012
2511.00,0.0012
2510.00,0.0012
2509.00,0.0012
2508.00,0.0013
2507.00,0.0013
2506.00,0.0012
2505.00,0.0012
2504.00,0.0012
2503.00,0.0012
2502.00,0.0012
2501.00,0.0012
2500.00,0.0013
2499.00,0.0013
2498.00,0.0013
2497.00,0.0013
2496.00,0.0013
2495.00,0.0013
2494.00,0.0012
2493.00,0.0012
2492.00,0.0012
2491.00,0.0011
2490.00,0.0011
2489.00,0.0011
2488.00,0.0011
2487.00,0.0012
2486.00,0.0012
2485.00,0.0012
2484.00,0.0012
2483.00,0.0012
2482.00,0.0012
2481.00,0.0011
2480.00,0.0011
2479.00,0.0010
2478.00,0.0010
2477.00,0.0010
2476.00,0.0010
2475.00,0.0011
2474.00,0.0011
2473.00,0.0011
2472.00,0.0011
2471.00,0.0010
2470.00,0.0010
2469.00,0.0010
2468.00,0.0010
2467.00,0.0010
2466.00,0.0009
2465.00,0.0009
2464.00,0.0010
2463.00,0.0010
2462.00,0.0011
2461.00,0.0012
2460.00,0.0012
2459.00,0.0012
2458.00,0.0012
2457.00,0.0012
2456.00,0.0012
2455.00,0.0012
2454.00,0.0012
2453.00,0.0012
2452.00,0.0013
2451.00,0.0013
2450.00,0.0013
2449.00,0.0013
2448.00,0.0013
2447.00,0.0013
2446.00,0.0013
2445.00,0.0013
2444.00,0.0013
2443.00,0.0013
2442.00,0.0013
2441.00,0.0013
2440.00,0.0013
2439.00,0.0013
2438.00,0.0013
2437.00,0.0013
2436.00,0.0013
2435.00,0.0014
2434.00,0.0014
2433.00,0.0014
2432.00,0.0013
2431.00,0.0013
2430.00,0.0013
2429.00,0.0012
2428.00,0.0012
2427.00,0.0013
2426.00,0.0013
2425.00,0.0014
2424.00,0.0014
2423.00,0.0014
2422.00,0.0014
2421.00,0.0013
2420.00,0.0013
2419.00,0.0013
2418.00,0.0012
2417.00,0.0012
2416.00,0.0012
2415.00,0.0011
2414.00,0.0010
2413.00,0.0010
2412.00,0.0010
2411.00,0.0011
2410.00,0.0011
2409.00,0.0011
2408.00,0.0011
2407.00,0.0010
2406.00,0.0010
2405.00,0.0009
2404.00,0.0009
2403.00,0.0009
2402.00,0.0009
2401.00,0.0009
2400.00,0.0009
2399.00,0.0010
2398.00,0.0010
2397.00,0.0010
2396.00,0.0010
2395.00,0.0010
2394.00,0.0010
2393.00,0.0010
2392.00,0.0010
2391.00,0.0010
2390.00,0.0010
2389.00,0.0010
2388.00,0.0010
2387.00,0.0009
2386.00,0.0009
2385.00,0.0008
2384.00,0.0008
2383.00,0.0007
2382.00,0.0006
2381.00,0.0005
2380.00,0.0005
2379.00,0.0004
2378.00,0.0004
2377.00,0.0005
2376.00,0.0005
2375.00,0.0005
2374.00,0.0005
2373.00,0.0005
2372.00,0.0004
2371.00,0.0004
2370.00,0.0004
2369.00,0.0004
2368.00,0.0004
2367.00,0.0004
2366.00,0.0004
2365.00,0.0003
2364.00,0.0003
2363.00,0.0003
2362.00,0.0003
2361.00,0.0003
2360.00,0.0003
2359.00,0.0004
2358.00,0.0004
2357.00,0.0004
2356.00,0.0004
2355.00,0.0004
2354.00,0.0003
2353.00,0.0003
2352.00,0.0003
2351.00,0.0003
2350.00,0.0003
2349.00,0.0003
2348.00,0.0004
2347.00,0.0005
2346.00,0.0006
2345.00,0.0006
2344.00,0.0005
2343.00,0.0003
2342.00,0.0003
2341.00,0.0003
2340.00,0.0003
2339.00,0.0004
2338.00,0.0006
2337.00,0.0006
2336.00,0.0006
2335.00,0.0006
2334.00,0.0006
2333.00,0.0006
2332.00,0.0006
2331.00,0.0006
2330.00,0.0006
2329.00,0.0006
2328.00,0.0007
2327.00,0.0009
2326.00,0.0013
2325.00,0.0016
2324.00,0.0018
2323.00,0.0017
2322.00,0.0015
2321.00,0.0014
2320.00,0.0013
2319.00,0.0012
2318.00,0.0011
2317.00,0.0010
2316.00,0.0010
2315.00,0.0009
2314.00,0.0009
2313.00,0.0008
2312.00,0.0008
2311.00,0.0007
2310.00,0.0007
2309.00,0.0006
2308.00,0.0006
2307.00,0.0005
2306.00,0.0005
2305.00,0.0005
2304.00,0.0006
2303.00,0.0007
2302.00,0.0007
2301.00,0.0007
2300.00,0.0008
2299.00,0.0008
2298.00,0.0009
2297.00,0.0010
2296.00,0.0010
2295.00,0.0010
2294.00,0.0011
2293.00,0.0011
2292.00,0.0012
2291.00,0.0014
2290.00,0.0015
2289.00,0.0016
2288.00,0.0017
2287.00,0.0017
2286.00,0.0017
2285.00,0.0017
2284.00,0.0016
2283.00,0.0015
2282.00,0.0014
2281.00,0.0014
2280.00,0.0014
2279.00,0.0014
2278.00,0.0014
2277.00,0.0014
2276.00,0.0014
2275.00,0.0014
2274.00,0.0014
2273.00,0.0015
2272.00,0.0015
2271.00,0.0015
2270.00,0.0014
2269.00,0.0013
2268.00,0.0013
2267.00,0.0013
2266.00,0.0013
2265.00,0.0012
2264.00,0.0012
2263.00,0.0012
2262.00,0.0013
2261.00,0.0013
2260.00,0.0013
2259.00,0.0012
2258.00,0.0012
2257.00,0.0011
2256.00,0.0011
2255.00,0.0011
2254.00,0.0011
2253.00,0.0011
2252.00,0.0011
2251.00,0.0011
2250.00,0.0011
2249.00,0.0011
2248.00,0.0011
2247.00,0.0010
2246.00,0.0009
2245.00,0.0009
2244.00,0.0009
2243.00,0.0009
2242.00,0.0009
2241.00,0.0009
2240.00,0.0009
2239.00,0.0008
2238.00,0.0008
2237.00,0.0007
2236.00,0.0006
2235.00,0.0006
2234.00,0.0006
2233.00,0.0007
2232.00,0.0008
2231.00,0.0009
2230.00,0.0008
2229.00,0.0008
2228.00,0.0009
2227.00,0.0009
2226.00,0.0008
2225.00,0.0008
2224.00,0.0008
2223.00,0.0009
2222.00,0.0009
2221.00,0.0009
2220.00,0.0008
2219.00,0.0006
2218.00,0.0005
2217.00,0.0005
2216.00,0.0006
2215.00,0.0007
2214.00,0.0007
2213.00,0.0007
2212.00,0.0006
2211.00,0.0006
2210.00,0.0007
2209.00,0.0008
2208.00,0.0008
2207.00,0.0007
2206.00,0.0007
2205.00,0.0007
2204.00,0.0008
2203.00,0.0010
2202.00,0.0011
2201.00,0.0012
2200.00,0.0012
2199.00,0.0011
2198.00,0.0010
2197.00,0.0010
2196.00,0.0011
2195.00,0.0013
2194.00,0.0015
2193.00,0.0015
2192.00,0.0014
2191.00,0.0012
2190.00,0.0011
2189.00,0.0011
2188.00,0.0013
2187.00,0.0015
2186.00,0.0017
2185.00,0.0017
2184.00,0.0015
2183.00,0.0013
2182.00,0.0011
2181.00,0.0010
2180.00,0.0009
2179.00,0.0008
2178.00,0.0007
2177.00,0.0004
2176.00,0.0002
2175.00,0.0002
2174.00,0.0004
2173.00,0.0008
2172.00,0.0012
2171.00,0.0015
2170.00,0.0016
2169.00,0.0016
2168.00,0.0016
2167.00,0.0016
2166.00,0.0015
2165.00,0.0014
2164.00,0.0013
2163.00,0.0013
2162.00,0.0010
2161.00,0.0005
2160.00,-0.0005
2159.00,-0.0016
2158.00,-0.0025
2157.00,-0.0029
2156.00,-0.0027
2155.00,-0.0024
2154.00,-0.0020
2153.00,-0.0017
2152.00,-0.0014
2151.00,-0.0011
2150.00,-0.0009
2149.00,-0.0007
2148.00,-0.0006
2147.00,-0.0006
2146.00,-0.0006
2145.00,-0.0006
2144.00,-0.0007
2143.00,-0.0007
2142.00,-0.0007
2141.00,-0.0007
2140.00,-0.0008
2139.00,-0.0009
2138.00,-0.0009
2137.00,-0.0008
2136.00,-0.0008
2135.00,-0.0009
2134.00,-0.0011
2133.00,-0.0013
2132.00,-0.0013
2131.00,-0.0011
2130.00,-0.0008
2129.00,-0.0005
2128.00,-0.0003
2127.00,-0.0002
2126.00,-0.0002
2125.00,-0.0003
2124.00,-0.0003
2123.00,-0.0003
2122.00,-0.0002
2121.00,-0.0001
2120.00,-0.0000
2119.00,-0.0000
2118.00,0.0001
2117.00,0.0003
2116.00,0.0005
2115.00,0.0007
2114.00,0.0007
2113.00,0.0006
2112.00,0.0005
2111.00,0.0004
2110.00,0.0003
2109.00,0.0004
2108.00,0.0006
2107.00,0.0007
2106.00,0.0006
2105.00,0.0006
2104.00,0.0005
2103.00,0.0003
2102.00,0.0003
2101.00,0.0003
2100.00,0.0003
2099.00,0.0004
2098.00,0.0004
2097.00,0.0003
2096.00,0.0001
2095.00,0.0000
2094.00,0.0000
2093.00,0.0001
2092.00,0.0001
2091.00,0.0001
2090.00,0.0002
2089.00,0.0002
2088.00,0.0003
2087.00,0.0004
2086.00,0.0005
2085.00,0.0006
2084.00,0.0008
2083.00,0.0009
2082.00,0.0009
2081.00,0.0008
2080.00,0.0008
2079.00,0.0008
2078.00,0.0007
2077.00,0.0007
2076.00,0.0007
2075.00,0.0007
2074.00,0.0007
2073.00,0.0007
2072.00,0.0007
2071.00,0.0006
2070.00,0.0006
2069.00,0.0005
2068.00,0.0006
2067.00,0.0006
2066.00,0.0006
2065.00,0.0005
2064.00,0.0004
2063.00,0.0003
2062.00,0.0002
2061.00,0.0001
2060.00,0.0001
2059.00,0.0000
2058.00,0.0001
2057.00,0.0001
2056.00,0.0002
2055.00,0.0002
2054.00,0.0004
2053.00,0.0007
2052.00,0.0010
2051.00,0.0012
2050.00,0.0012
2049.00,0.0010
2048.00,0.0009
2047.00,0.0007
2046.00,0.0005
2045.00,0.0004
2044.00,0.0003
2043.00,0.0001
2042.00,-0.0002
2041.00,-0.0004
2040.00,-0.0005
2039.00,-0.0003
2038.00,0.0000
2037.00,0.0004
2036.00,0.0006
2035.00,0.0006
2034.00,0.0005
2033.00,0.0003
2032.00,0.0001
2031.00,-0.0001
2030.00,-0.0004
2029.00,-0.0004
2028.00,-0.0003
2027.00,-0.0001
2026.00,0.0001
2025.00,0.0001
2024.00,-0.0001
2023.00,-0.0004
2022.00,-0.0007
2021.00,-0.0010
2020.00,-0.0013
2019.00,-0.0014
2018.00,-0.0014
2017.00,-0.0012
2016.00,-0.0009
2015.00,-0.0007
2014.00,-0.0005
2013.00,-0.0004
2012.00,-0.0005
2011.00,-0.0006
2010.00,-0.0007
2009.00,-0.0007
2008.00,-0.0008
2007.00,-0.0009
2006.00,-0.0010
2005.00,-0.0010
2004.00,-0.0010
2003.00,-0.0010
2002.00,-0.0009
2001.00,-0.0008
2000.00,-0.0007
1999.00,-0.0008
1998.00,-0.0010
1997.00,-0.0012
1996.00,-0.0012
1995.00,-0.0011
1994.00,-0.0009
1993.00,-0.0007
1992.00,-0.0005
1991.00,-0.0004
1990.00,-0.0005
1989.00,-0.0006
1988.00,-0.0006
1987.00,-0.0005
1986.00,-0.0004
1985.00,-0.0001
1984.00,0.0003
1983.00,0.0007
1982.00,0.0011
1981.00,0.0014
1980.00,0.0014
1979.00,0.0007
1978.00,-0.0004
1977.00,-0.0013
1976.00,-0.0016
1975.00,-0.0016
1974.00,-0.0014
1973.00,-0.0012
1972.00,-0.0011
1971.00,-0.0012
1970.00,-0.0014
1969.00,-0.0016
1968.00,-0.0018
1967.00,-0.0017
1966.00,-0.0015
1965.00,-0.0011
1964.00,-0.0008
1963.00,-0.0008
1962.00,-0.0010
1961.00,-0.0012
1960.00,-0.0013
1959.00,-0.0014
1958.00,-0.0015
1957.00,-0.0015
1956.00,-0.0014
1955.00,-0.0014
1954.00,-0.0014
1953.00,-0.0014
1952.00,-0.0014
1951.00,-0.0015
1950.00,-0.0016
1949.00,-0.0015
1948.00,-0.0014
1947.00,-0.0012
1946.00,-0.0011
1945.00,-0.0011
1944.00,-0.0012
1943.00,-0.0014
1942.00,-0.0015
1941.00,-0.0014
1940.00,-0.0013
1939.00,-0.0011
1938.00,-0.0009
1937.00,-0.0009
1936.00,-0.0008
1935.00,-0.0008
1934.00,-0.0009
1933.00,-0.0009
1932.00,-0.0009
1931.00,-0.0010
1930.00,-0.0010
1929.00,-0.0010
1928.00,-0.0009
1927.00,-0.0009
1926.00,-0.0008
1925.00,-0.0007
1924.00,-0.0006
1923.00,-0.0004
1922.00,-0.0003
1921.00,-0.0001
1920.00,0.0000
1919.00,0.0000
1918.00,-0.0001
1917.00,-0.0002
1916.00,-0.0002
1915.00,-0.0003
1914.00,-0.0004
1913.00,-0.0005
1912.00,-0.0004
1911.00,-0.0002
1910.00,-0.0001
1909.00,-0.0001
1908.00,-0.0001
1907.00,-0.0002
1906.00,-0.0002
1905.00,-0.0003
1904.00,-0.0003
1903.00,-0.0003
1902.00,-0.0002
1901.00,-0.0002
1900.00,-0.0000
1899.00,0.0001
1898.00,0.0001
1897.00,0.0002
1896.00,0.0002
1895.00,0.0002
1894.00,0.0001
1893.00,0.0001
1892.00,0.0002
1891.00,0.0003
1890.00,0.0003
1889.00,0.0004
1888.00,0.0003
1887.00,0.0002
1886.00,0.0001
1885.00,0.0001
1884.00,0.0000
1883.00,0.0000
1882.00,-0.0000
1881.00,-0.0000
1880.00,-0.0001
1879.00,-0.0001
1878.00,-0.0000
1877.00,0.0000
1876.00,0.0000
1875.00,0.0000
1874.00,-0.0000
1873.00,-0.0000
1872.00,-0.0001
1871.00,-0.0000
1870.00,0.0000
1869.00,0.0001
1868.00,0.0003
1867.00,0.0004
1866.00,0.0004
1865.00,0.0005
1864.00,0.0004
1863.00,0.0004
1862.00,0.0003
1861.00,0.0002
1860.00,0.0001
1859.00,0.0001
1858.00,0.0001
1857.00,0.0002
1856.00,0.0003
1855.00,0.0003
1854.00,0.0003
1853.00,0.0003
1852.00,0.0003
1851.00,0.0003
1850.00,0.0003
1849.00,0.0003
1848.00,0.0003
1847.00,0.0002
1846.00,0.0002
1845.00,0.0001
1844.00,0.0002
1843.00,0.0003
1842.00,0.0003
1841.00,0.0003
1840.00,0.0003
1839.00,0.0004
1838.00,0.0003
1837.00,0.0003
1836.00,0.0003
1835.00,0.0003
1834.00,0.0004
1833.00,0.0004
1832.00,0.0005
1831.00,0.0006
1830.00,0.0006
1829.00,0.0006
1828.00,0.0006
1827.00,0.0006
1826.00,0.0007
1825.00,0.0007
1824.00,0.0007
1823.00,0.0006
1822.00,0.0005
1821.00,0.0005
1820.00,0.0004
1819.00,0.0002
1818.00,0.0001
1817.00,0.0001
1816.00,0.0001
1815.00,0.0002
1814.00,0.0003
1813.00,0.0004
1812.00,0.0003
1811.00,0.0003
1810.00,0.0003
1809.00,0.0004
1808.00,0.0004
1807.00,0.0005
1806.00,0.0006
1805.00,0.0006
1804.00,0.0006
1803.00,0.0006
1802.00,0.0006
1801.00,0.0006
1800.00,0.0006
1799.00,0.0006
1798.00,0.0007
1797.00,0.0007
1796.00,0.0007
1795.00,0.0007
1794.00,0.0007
1793.00,0.0007
1792.00,0.0008
1791.00,0.0009
1790.00,0.0009
1789.00,0.0010
1788.00,0.0010
1787.00,0.0010
1786.00,0.0010
1785.00,0.0010
1784.00,0.0010
1783.00,0.0010
1782.00,0.0010
1781.00,0.0010
1780.00,0.0010
1779.00,0.0010
1778.00,0.0009
1777.00,0.0009
1776.00,0.0009
1775.00,0.0009
1774.00,0.0009
1773.00,0.0010
1772.00,0.0010
1771.00,0.0011
1770.00,0.0012
1769.00,0.0012
1768.00,0.0013
1767.00,0.0013
1766.00,0.0013
1765.00,0.0013
1764.00,0.0013
1763.00,0.0014
1762.00,0.0015
1761.00,0.0015
1760.00,0.0016
1759.00,0.0016
1758.00,0.0016
1757.00,0.0016
1756.00,0.0016
1755.00,0.0017
1754.00,0.0017
1753.00,0.0018
1752.00,0.0018
1751.00,0.0019
1750.00,0.0019
1749.00,0.0020
1748.00,0.0021
1747.00,0.0022
1746.00,0.0022
1745.00,0.0023
1744.00,0.0023
1743.00,0.0024
1742.00,0.0024
1741.00,0.0026
1740.00,0.0027
1739.00,0.0027
1738.00,0.0027
1737.00,0.0027
1736.00,0.0027
1735.00,0.0027
1734.00,0.0027
1733.00,0.0027
1732.00,0.0028
1731.00,0.0027
1730.00,0.0027
1729.00,0.0027
1728.00,0.0027
1727.00,0.0027
1726.00,0.0027
1725.00,0.0027
1724.00,0.0027
1723.00,0.0027
1722.00,0.0027
1721.00,0.0027
1720.00,0.0026
1719.00,0.0026
1718.00,0.0026
1717.00,0.0027
1716.00,0.0027
1715.00,0.0028
1714.00,0.0027
1713.00,0.0028
1712.00,0.0028
1711.00,0.0029
1710.00,0.0030
1709.00,0.0030
1708.00,0.0031
1707.00,0.0031
1706.00,0.0031
1705.00,0.0032
1704.00,0.0032
1703.00,0.0032
1702.00,0.0033
1701.00,0.0034
1700.00,0.0036
1699.00,0.0037
1698.00,0.0037
1697.00,0.0038
1696.00,0.0039
1695.00,0.0040
1694.00,0.0041
1693.00,0.0042
1692.00,0.0043
1691.00,0.0044
1690.00,0.0045
1689.00,0.0046
1688.00,0.0047
1687.00,0.0047
1686.00,0.0048
1685.00,0.0049
1684.00,0.0051
1683.00,0.0055
1682.00,0.0057
1681.00,0.0059
1680.00,0.0060
1679.00,0.0061
1678.00,0.0062
1677.00,0.0064
1676.00,0.0067
1675.00,0.0069
1674.00,0.0070
1673.00,0.0071
1672.00,0.0072
1671.00,0.0073
1670.00,0.0075
1669.00,0.0076
1668.00,0.0077
1667.00,0.0077
1666.00,0.0078
1665.00,0.0079
1664.00,0.0080
1663.00,0.0082
1662.00,0.0083
1661.00,0.0084
1660.00,0.0085
1659.00,0.0086
1658.00,0.0087
1657.00,0.0088
1656.00,0.0090
1655.00,0.0091
1654.00,0.0093
1653.00,0.0096
1652.00,0.0099
1651.00,0.0100
1650.00,0.0100
1649.00,0.0101
1648.00,0.0102
1647.00,0.0103
1646.00,0.0104
1645.00,0.0105
1644.00,0.0105
1643.00,0.0105
1642.00,0.0104
1641.00,0.0104
1640.00,0.0104
1639.00,0.0104
1638.00,0.0103
1637.00,0.0103
1636.00,0.0103
1635.00,0.0103
1634.00,0.0102
1633.00,0.0102
1632.00,0.0102
1631.00,0.0101
1630.00,0.0100
1629.00,0.0099
1628.00,0.0099
1627.00,0.0098
1626.00,0.0097
1625.00,0.0097
1624.00,0.0096
1623.00,0.0095
1622.00,0.0094
1621.00,0.0093
1620.00,0.0093
1619.00,0.0092
1618.00,0.0092
1617.00,0.0091
1616.00,0.0091
1615.00,0.0091
1614.00,0.0090
1613.00,0.0090
1612.00,0.0090
1611.00,0.0090
1610.00,0.0090
1609.00,0.0090
1608.00,0.0090
1607.00,0.0091
1606.00,0.0090
1605.00,0.0090
1604.00,0.0089
1603.00,0.0089
1602.00,0.0088
1601.00,0.0088
1600.00,0.0087
1599.00,0.0086
1598.00,0.0085
1597.00,0.0085
1596.00,0.0085
1595.00,0.0085
1594.00,0.0085
1593.00,0.0085
1592.00,0.0085
1591.00,0.0085
1590.00,0.0084
1589.00,0.0084
1588.00,0.0085
1587.00,0.0086
1586.00,0.0087
1585.00,0.0089
1584.00,0.0090
1583.00,0.0091
1582.00,0.0093
1581.00,0.0094
1580.00,0.0095
1579.00,0.0096
1578.00,0.0096
1577.00,0.0096
1576.00,0.0096
1575.00,0.0096
1574.00,0.0095
1573.00,0.0094
1572.00,0.0093
1571.00,0.0092
1570.00,0.0090
1569.00,0.0090
1568.00,0.0089
1567.00,0.0089
1566.00,0.0089
1565.00,0.0089
1564.00,0.0090
1563.00,0.0091
1562.00,0.0091
1561.00,0.0093
1560.00,0.0094
1559.00,0.0094
1558.00,0.0094
1557.00,0.0094
1556.00,0.0095
1555.00,0.0095
1554.00,0.0096
1553.00,0.0097
1552.00,0.0099
1551.00,0.0100
1550.00,0.0101
1549.00,0.0103
1548.00,0.0105
1547.00,0.0107
1546.00,0.0109
1545.00,0.0110
1544.00,0.0112
1543.00,0.0114
1542.00,0.0114
1541.00,0.0114
1540.00,0.0113
1539.00,0.0111
1538.00,0.0110
1537.00,0.0109
1536.00,0.0107
1535.00,0.0105
1534.00,0.0101
1533.00,0.0097
1532.00,0.0094
1531.00,0.0092
1530.00,0.0090
1529.00,0.0088
1528.00,0.0086
1527.00,0.0085
1526.00,0.0083
1525.00,0.0082
1524.00,0.0081
1523.00,0.0079
1522.00,0.0078
1521.00,0.0077
1520.00,0.0077
1519.00,0.0077
1518.00,0.0076
1517.00,0.0076
1516.00,0.0076
1515.00,0.0075
1514.00,0.0075
1513.00,0.0076
1512.00,0.0077
1511.00,0.0078
1510.00,0.0078
1509.00,0.0079
1508.00,0.0080
1507.00,0.0079
1506.00,0.0079
1505.00,0.0080
1504.00,0.0082
1503.00,0.0082
1502.00,0.0083
1501.00,0.0086
1500.00,0.0089
1499.00,0.0093
1498.00,0.0097
1497.00,0.0102
1496.00,0.0108
1495.00,0.0112
1494.00,0.0116
1493.00,0.0119
1492.00,0.0123
1491.00,0.0126
1490.00,0.0129
1489.00,0.0133
1488.00,0.0138
1487.00,0.0142
1486.00,0.0147
1485.00,0.0153
1484.00,0.0160
1483.00,0.0167
1482.00,0.0175
1481.00,0.0186
1480.00,0.0198
1479.00,0.0209
1478.00,0.0224
1477.00,0.0242
1476.00,0.0265
1475.00,0.0289
1474.00,0.0323
1473.00,0.0373
1472.00,0.0435
1471.00,0.0497
1470.00,0.0556
1469.00,0.0618
1468.00,0.0684
1467.00,0.0757
1466.00,0.0840
1465.00,0.0932
1464.00,0.1014
1463.00,0.1075
1462.00,0.1117
1461.00,0.1148
1460.00,0.1174
1459.00,0.1194
1458.00,0.1216
1457.00,0.1238
1456.00,0.1252
1455.00,0.1254
1454.00,0.1252
1453.00,0.1244
1452.00,0.1226
1451.00,0.1195
1450.00,0.1145
1449.00,0.1073
1448.00,0.0976
1447.00,0.0873
1446.00,0.0779
1445.00,0.0698
1444.00,0.0630
1443.00,0.0574
1442.00,0.0532
1441.00,0.0503
1440.00,0.0485
1439.00,0.0475
1438.00,0.0472
1437.00,0.0468
1436.00,0.0452
1435.00,0.0423
1434.00,0.0385
1433.00,0.0340
1432.00,0.0294
1431.00,0.0254
1430.00,0.0224
1429.00,0.0202
1428.00,0.0187
1427.00,0.0178
1426.00,0.0173
1425.00,0.0168
1424.00,0.0164
1423.00,0.0161
1422.00,0.0160
1421.00,0.0158
1420.00,0.0156
1419.00,0.0154
1418.00,0.0152
1417.00,0.0150
1416.00,0.0147
1415.00,0.0146
1414.00,0.0144
1413.00,0.0142
1412.00,0.0140
1411.00,0.0138
1410.00,0.0137
1409.00,0.0136
1408.00,0.0135
1407.00,0.0135
1406.00,0.0136
1405.00,0.0136
1404.00,0.0135
1403.00,0.0136
1402.00,0.0138
1401.00,0.0139
1400.00,0.0140
1399.00,0.0142
1398.00,0.0144
1397.00,0.0146
1396.00,0.0148
1395.00,0.0152
1394.00,0.0157
1393.00,0.0162
1392.00,0.0169
1391.00,0.0177
1390.00,0.0189
1389.00,0.0206
1388.00,0.0232
1387.00,0.0271
1386.00,0.0323
1385.00,0.0387
1384.00,0.0471
1383.00,0.0581
1382.00,0.0724
1381.00,0.0902
1380.00,0.1116
1379.00,0.1356
1378.00,0.1584
1377.00,0.1750
1376.00,0.1806
1375.00,0.1723
1374.00,0.1519
1373.00,0.1270
1372.00,0.1039
1371.00,0.0845
1370.00,0.0687
1369.00,0.0566
1368.00,0.0481
1367.00,0.0428
1366.00,0.0399
1365.00,0.0387
1364.00,0.0389
1363.00,0.0401
1362.00,0.0421
1361.00,0.0442
1360.00,0.0457
1359.00,0.0461
1358.00,0.0450
1357.00,0.0425
1356.00,0.0389
1355.00,0.0348
1354.00,0.0309
1353.00,0.0276
1352.00,0.0249
1351.00,0.0228
1350.00,0.0210
1349.00,0.0196
1348.00,0.0185
1347.00,0.0176
1346.00,0.0169
1345.00,0.0162
1344.00,0.0157
1343.00,0.0153
1342.00,0.0149
1341.00,0.0146
1340.00,0.0143
1339.00,0.0140
1338.00,0.0138
1337.00,0.0137
1336.00,0.0138
1335.00,0.0139
1334.00,0.0142
1333.00,0.0146
1332.00,0.0150
1331.00,0.0153
1330.00,0.0154
1329.00,0.0153
1328.00,0.0149
1327.00,0.0144
1326.00,0.0138
1325.00,0.0132
1324.00,0.0126
1323.00,0.0121
1322.00,0.0117
1321.00,0.0114
1320.00,0.0111
1319.00,0.0109
1318.00,0.0107
1317.00,0.0105
1316.00,0.0103
1315.00,0.0102
1314.00,0.0102
1313.00,0.0103
1312.00,0.0105
1311.00,0.0109
1310.00,0.0114
1309.00,0.0123
1308.00,0.0135
1307.00,0.0149
1306.00,0.0164
1305.00,0.0173
1304.00,0.0177
1303.00,0.0173
1302.00,0.0166
1301.00,0.0159
1300.00,0.0153
1299.00,0.0150
1298.00,0.0149
1297.00,0.0148
1296.00,0.0146
1295.00,0.0143
1294.00,0.0139
1293.00,0.0133
1292.00,0.0128
1291.00,0.0123
1290.00,0.0118
1289.00,0.0114
1288.00,0.0111
1287.00,0.0107
1286.00,0.0105
1285.00,0.0103
1284.00,0.0101
1283.00,0.0100
1282.00,0.0098
1281.00,0.0097
1280.00,0.0096
1279.00,0.0095
1278.00,0.0094
1277.00,0.0094
1276.00,0.0094
1275.00,0.0094
1274.00,0.0094
1273.00,0.0095
1272.00,0.0095
1271.00,0.0096
1270.00,0.0098
1269.00,0.0099
1268.00,0.0102
1267.00,0.0105
1266.00,0.0108
1265.00,0.0111
1264.00,0.0115
1263.00,0.0119
1262.00,0.0124
1261.00,0.0129
1260.00,0.0137
1259.00,0.0146
1258.00,0.0155
1257.00,0.0163
1256.00,0.0166
1255.00,0.0165
1254.00,0.0158
1253.00,0.0147
1252.00,0.0137
1251.00,0.0128
1250.00,0.0122
1249.00,0.0117
1248.00,0.0114
1247.00,0.0112
1246.00,0.0111
1245.00,0.0110
1244.00,0.0109
1243.00,0.0108
1242.00,0.0107
1241.00,0.0105
1240.00,0.0104
1239.00,0.0103
1238.00,0.0102
1237.00,0.0101
1236.00,0.0101
1235.00,0.0100
1234.00,0.0099
1233.00,0.0098
1232.00,0.0098
1231.00,0.0097
1230.00,0.0097
1229.00,0.0098
1228.00,0.0098
1227.00,0.0099
1226.00,0.0101
1225.00,0.0103
1224.00,0.0106
1223.00,0.0109
1222.00,0.0112
1221.00,0.0115
1220.00,0.0116
1219.00,0.0117
1218.00,0.0116
1217.00,0.0114
1216.00,0.0112
1215.00,0.0110
1214.00,0.0107
1213.00,0.0104
1212.00,0.0101
1211.00,0.0098
1210.00,0.0095
1209.00,0.0094
1208.00,0.0093
1207.00,0.0092
1206.00,0.0091
1205.00,0.0090
1204.00,0.0089
1203.00,0.0088
1202.00,0.0089
1201.00,0.0089
1200.00,0.0088
1199.00,0.0088
1198.00,0.0088
1197.00,0.0088
1196.00,0.0088
1195.00,0.0088
1194.00,0.0088
1193.00,0.0089
1192.00,0.0089
1191.00,0.0090
1190.00,0.0091
1189.00,0.0091
1188.00,0.0091
1187.00,0.0092
1186.00,0.0092
1185.00,0.0093
1184.00,0.0094
1183.00,0.0096
1182.00,0.0098
1181.00,0.0102
1180.00,0.0107
1179.00,0.0114
1178.00,0.0122
1177.00,0.0134
1176.00,0.0148
1175.00,0.0168
1174.00,0.0194
1173.00,0.0227
1172.00,0.0265
1171.00,0.0308
1170.00,0.0348
1169.00,0.0381
1168.00,0.0401
1167.00,0.0405
1166.00,0.0394
1165.00,0.0375
1164.00,0.0351
1163.00,0.0327
1162.00,0.0305
1161.00,0.0286
1160.00,0.0271
1159.00,0.0259
1158.00,0.0250
1157.00,0.0243
1156.00,0.0238
1155.00,0.0234
1154.00,0.0230
1153.00,0.0227
1152.00,0.0222
1151.00,0.0215
1150.00,0.0206
1149.00,0.0197
1148.00,0.0187
1147.00,0.0178
1146.00,0.0170
1145.00,0.0162
1144.00,0.0155
1143.00,0.0148
1142.00,0.0141
1141.00,0.0135
1140.00,0.0129
1139.00,0.0124
1138.00,0.0121
1137.00,0.0119
1136.00,0.0117
1135.00,0.0115
1134.00,0.0114
1133.00,0.0112
1132.00,0.0112
1131.00,0.0112
1130.00,0.0113
1129.00,0.0114
1128.00,0.0116
1127.00,0.0118
1126.00,0.0119
1125.00,0.0121
1124.00,0.0122
1123.00,0.0123
1122.00,0.0124
1121.00,0.0125
1120.00,0.0126
1119.00,0.0127
1118.00,0.0129
1117.00,0.0130
1116.00,0.0132
1115.00,0.0133
1114.00,0.0134
1113.00,0.0136
1112.00,0.0138
1111.00,0.0140
1110.00,0.0143
1109.00,0.0147
1108.00,0.0153
1107.00,0.0159
1106.00,0.0164
1105.00,0.0169
1104.00,0.0173
1103.00,0.0176
1102.00,0.0177
1101.00,0.0176
1100.00,0.0172
1099.00,0.0166
1098.00,0.0160
1097.00,0.0154
1096.00,0.0148
1095.00,0.0144
1094.00,0.0140
1093.00,0.0137
1092.00,0.0134
1091.00,0.0131
1090.00,0.0128
1089.00,0.0126
1088.00,0.0125
1087.00,0.0124
1086.00,0.0123
1085.00,0.0122
1084.00,0.0122
1083.00,0.0121
1082.00,0.0121
1081.00,0.0120
1080.00,0.0119
1079.00,0.0117
1078.00,0.0114
1077.00,0.0112
1076.00,0.0111
1075.00,0.0111
1074.00,0.0111
1073.00,0.0111
1072.00,0.0111
1071.00,0.0110
1070.00,0.0110
1069.00,0.0110
1068.00,0.0109
1067.00,0.0109
1066.00,0.0109
1065.00,0.0109
1064.00,0.0110
1063.00,0.0111
1062.00,0.0112
1061.00,0.0111
1060.00,0.0111
1059.00,0.0110
1058.00,0.0110
1057.00,0.0110
1056.00,0.0110
1055.00,0.0111
1054.00,0.0113
1053.00,0.0114
1052.00,0.0116
1051.00,0.0118
1050.00,0.0121
1049.00,0.0125
1048.00,0.0129
1047.00,0.0133
1046.00,0.0136
1045.00,0.0138
1044.00,0.0137
1043.00,0.0135
1042.00,0.0131
1041.00,0.0128
1040.00,0.0125
1039.00,0.0124
1038.00,0.0125
1037.00,0.0125
1036.00,0.0126
1035.00,0.0126
1034.00,0.0125
1033.00,0.0123
1032.00,0.0122
1031.00,0.0120
1030.00,0.0120
1029.00,0.0119
1028.00,0.0118
1027.00,0.0118
1026.00,0.0117
1025.00,0.0116
1024.00,0.0115
1023.00,0.0115
1022.00,0.0115
1021.00,0.0116
1020.00,0.0117
1019.00,0.0118
1018.00,0.0120
1017.00,0.0122
1016.00,0.0124
1015.00,0.0127
1014.00,0.0131
1013.00,0.0135
1012.00,0.0139
1011.00,0.0143
1010.00,0.0147
1009.00,0.0151
1008.00,0.0156
1007.00,0.0163
1006.00,0.0174
1005.00,0.0189
1004.00,0.0209
1003.00,0.0236
1002.00,0.0272
1001.00,0.0316
1000.00,0.0365
999.00,0.0408
998.00,0.0432
997.00,0.0428
996.00,0.0398
995.00,0.0350
994.00,0.0298
993.00,0.0251
992.00,0.0214
991.00,0.0187
990.00,0.0167
989.00,0.0154
988.00,0.0145
987.00,0.0139
986.00,0.0138
985.00,0.0139
984.00,0.0144
983.00,0.0152
982.00,0.0165
981.00,0.0183
980.00,0.0208
979.00,0.0241
978.00,0.0282
977.00,0.0333
976.00,0.0389
975.00,0.0446
974.00,0.0491
973.00,0.0513
972.00,0.0502
971.00,0.0462
970.00,0.0401
969.00,0.0336
968.00,0.0277
967.00,0.0231
966.00,0.0197
965.00,0.0173
964.00,0.0156
963.00,0.0142
962.00,0.0132
961.00,0.0124
960.00,0.0118
959.00,0.0113
958.00,0.0109
957.00,0.0104
956.00,0.0101
955.00,0.0099
954.00,0.0097
953.00,0.0096
952.00,0.0096
951.00,0.0095
950.00,0.0095
949.00,0.0094
948.00,0.0094
947.00,0.0094
946.00,0.0096
945.00,0.0098
944.00,0.0101
943.00,0.0104
942.00,0.0106
941.00,0.0107
940.00,0.0106
939.00,0.0104
938.00,0.0100
937.00,0.0096
936.00,0.0092
935.00,0.0089
934.00,0.0086
933.00,0.0084
932.00,0.0081
931.00,0.0079
930.00,0.0078
929.00,0.0078
928.00,0.0077
927.00,0.0077
926.00,0.0077
925.00,0.0076
924.00,0.0076
923.00,0.0076
922.00,0.0076
921.00,0.0077
920.00,0.0078
919.00,0.0079
918.00,0.0080
917.00,0.0081
916.00,0.0083
915.00,0.0085
914.00,0.0086
913.00,0.0087
912.00,0.0087
911.00,0.0087
910.00,0.0088
909.00,0.0089
908.00,0.0092
907.00,0.0095
906.00,0.0101
905.00,0.0111
904.00,0.0124
903.00,0.0141
902.00,0.0160
901.00,0.0178
900.00,0.0191
899.00,0.0195
898.00,0.0189
897.00,0.0175
896.00,0.0157
895.00,0.0139
894.00,0.0124
893.00,0.0112
892.00,0.0103
891.00,0.0097
890.00,0.0093
889.00,0.0090
888.00,0.0088
887.00,0.0088
886.00,0.0087
885.00,0.0086
884.00,0.0084
883.00,0.0083
882.00,0.0082
881.00,0.0081
880.00,0.0082
879.00,0.0083
878.00,0.0084
877.00,0.0086
876.00,0.0087
875.00,0.0087
874.00,0.0086
873.00,0.0084
872.00,0.0084
871.00,0.0085
870.00,0.0086
869.00,0.0086
868.00,0.0086
867.00,0.0086
866.00,0.0087
865.00,0.0087
864.00,0.0088
863.00,0.0089
862.00,0.0091
861.00,0.0093
860.00,0.0095
859.00,0.0098
858.00,0.0100
857.00,0.0101
856.00,0.0101
855.00,0.0103
854.00,0.0105
853.00,0.0109
852.00,0.0113
851.00,0.0119
850.00,0.0127
849.00,0.0137
848.00,0.0151
847.00,0.0171
846.00,0.0200
845.00,0.0243
844.00,0.0301
843.00,0.0365
842.00,0.0416
841.00,0.0431
840.00,0.0404
839.00,0.0347
838.00,0.0284
837.00,0.0233
836.00,0.0199
835.00,0.0179
834.00,0.0167
833.00,0.0158
832.00,0.0152
831.00,0.0146
830.00,0.0141
829.00,0.0137
828.00,0.0134
827.00,0.0131
826.00,0.0131
825.00,0.0131
824.00,0.0130
823.00,0.0129
822.00,0.0127
821.00,0.0127
820.00,0.0127
819.00,0.0130
818.00,0.0134
817.00,0.0139
816.00,0.0146
815.00,0.0154
814.00,0.0167
813.00,0.0182
812.00,0.0199
811.00,0.0214
810.00,0.0225
809.00,0.0229
808.00,0.0227
807.00,0.0218
806.00,0.0206
805.00,0.0192
804.00,0.0178
803.00,0.0165
802.00,0.0154
801.00,0.0146
800.00,0.0138
799.00,0.0132
798.00,0.0127
797.00,0.0122
796.00,0.0117
795.00,0.0114
794.00,0.0111
793.00,0.0108
792.00,0.0106
791.00,0.0104
790.00,0.0102
789.00,0.0100
788.00,0.0098
787.00,0.0095
786.00,0.0092
785.00,0.0089
784.00,0.0086
783.00,0.0084
782.00,0.0083
781.00,0.0083
780.00,0.0083
779.00,0.0082
778.00,0.0082
777.00,0.0081
776.00,0.0081
775.00,0.0082
774.00,0.0084
773.00,0.0087
772.00,0.0090
771.00,0.0094
770.00,0.0096
769.00,0.0098
768.00,0.0098
767.00,0.0097
766.00,0.0096
765.00,0.0094
764.00,0.0092
763.00,0.0089
762.00,0.0087
761.00,0.0085
760.00,0.0083
759.00,0.0081
758.00,0.0079
757.00,0.0077
756.00,0.0076
755.00,0.0075
754.00,0.0075
753.00,0.0074
752.00,0.0074
751.00,0.0074
750.00,0.0075
749.00,0.0076
748.00,0.0077
747.00,0.0077
746.00,0.0078
745.00,0.0078
744.00,0.0078
743.00,0.0078
742.00,0.0078
741.00,0.0078
740.00,0.0079
739.00,0.0082
738.00,0.0086
737.00,0.0090
736.00,0.0093
735.00,0.0094
734.00,0.0096
733.00,0.0097
732.00,0.0097
731.00,0.0097
730.00,0.0096
729.00,0.0096
728.00,0.0095
727.00,0.0094
726.00,0.0094
725.00,0.0096
724.00,0.0097
723.00,0.0097
722.00,0.0096
721.00,0.0093
720.00,0.0089
719.00,0.0087
718.00,0.0085
717.00,0.0085
716.00,0.0084
715.00,0.0083
714.00,0.0082
713.00,0.0082
712.00,0.0082
711.00,0.0083
710.00,0.0083
709.00,0.0083
708.00,0.0084
707.00,0.0086
706.00,0.0088
705.00,0.0088
704.00,0.0088
703.00,0.0085
702.00,0.0082
701.00,0.0079
700.00,0.0076
699.00,0.0075
698.00,0.0075
697.00,0.0075
696.00,0.0075
695.00,0.0075
694.00,0.0075
693.00,0.0075
692.00,0.0073
691.00,0.0071
690.00,0.0071
689.00,0.0072
688.00,0.0073
687.00,0.0074
686.00,0.0075
685.00,0.0074
684.00,0.0073
683.00,0.0071
682.00,0.0070
681.00,0.0070
680.00,0.0072
679.00,0.0074
678.00,0.0075
677.00,0.0077
676.00,0.0078
675.00,0.0078
674.00,0.0078
673.00,0.0077
672.00,0.0077
671.00,0.0078
670.00,0.0080
669.00,0.0081
668.00,0.0081
667.00,0.0084
666.00,0.0085
665.00,0.0085
664.00,0.0083
663.00,0.0082
662.00,0.0082
661.00,0.0083
660.00,0.0084
659.00,0.0084
658.00,0.0083
657.00,0.0080
656.00,0.0077
655.00,0.0075
654.00,0.0075
653.00,0.0076
652.00,0.0078
651.00,0.0080
650.00,0.0080
649.00,0.0080
648.00,0.0079
647.00,0.0079
646.00,0.0079
645.00,0.0078
644.00,0.0077
643.00,0.0076
642.00,0.0075
641.00,0.0074
640.00,0.0073
639.00,0.0074
638.00,0.0075
637.00,0.0077
636.00,0.0078
635.00,0.0078
634.00,0.0077
633.00,0.0077
632.00,0.0076
631.00,0.0075
630.00,0.0075
629.00,0.0077
628.00,0.0079
627.00,0.0083
626.00,0.0085
625.00,0.0086
624.00,0.0084
623.00,0.0081
622.00,0.0078
621.00,0.0077
620.00,0.0076
619.00,0.0076
618.00,0.0078
617.00,0.0080
616.00,0.0082
615.00,0.0084
614.00,0.0084
613.00,0.0082
612.00,0.0079
611.00,0.0077
610.00,0.0077
609.00,0.0079
608.00,0.0079
607.00,0.0078
606.00,0.0077
605.00,0.0076
604.00,0.0075
603.00,0.0077
602.00,0.0078
601.00,0.0079
600.00,0.0079
599.00,0.0079
598.00,0.0080
597.00,0.0080
596.00,0.0081
595.00,0.0080
594.00,0.0080
593.00,0.0079
592.00,0.0078
591.00,0.0077
590.00,0.0076
589.00,0.0076
588.00,0.0076
587.00,0.0077
586.00,0.0079
585.00,0.0082
584.00,0.0085
583.00,0.0087
582.00,0.0088
581.00,0.0088
580.00,0.0087
579.00,0.0087
578.00,0.0088
577.00,0.0089
576.00,0.0089
575.00,0.0087
574.00,0.0085
573.00,0.0084
572.00,0.0084
571.00,0.0083
570.00,0.0081
569.00,0.0080
568.00,0.0081
567.00,0.0082
566.00,0.0082
565.00,0.0083
564.00,0.0085
563.00,0.0087
562.00,0.0088
561.00,0.0085
560.00,0.0081
559.00,0.0078
558.00,0.0077
557.00,0.0078
556.00,0.0081
555.00,0.0084
554.00,0.0087
553.00,0.0088
552.00,0.0089
551.00,0.0088
550.00,0.0088
549.00,0.0086
548.00,0.0085
547.00,0.0084
546.00,0.0084
545.00,0.0085
544.00,0.0086
543.00,0.0086
542.00,0.0087
541.00,0.0089
540.00,0.0092
539.00,0.0094
538.00,0.0095
537.00,0.0095
536.00,0.0094
535.00,0.0094
534.00,0.0094
533.00,0.0096
532.00,0.0098
531.00,0.0103
530.00,0.0107
529.00,0.0109
528.00,0.0108
527.00,0.0107
526.00,0.0107
525.00,0.0109
524.00,0.0109
523.00,0.0107
522.00,0.0104
521.00,0.0103
520.00,0.0104
519.00,0.0106
518.00,0.0105
517.00,0.0100
516.00,0.0092
515.00,0.0087
514.00,0.0084
513.00,0.0082
512.00,0.0079
511.00,0.0075
510.00,0.0072
509.00,0.0071
508.00,0.0071
507.00,0.0074
506.00,0.0078
505.00,0.0082
504.00,0.0085
503.00,0.0088
502.00,0.0089
501.00,0.0086
500.00,0.0080
499.00,0.0076
498.00,0.0076
497.00,0.0079
496.00,0.0084
495.00,0.0089
494.00,0.0094
493.00,0.0096
492.00,0.0096
491.00,0.0095
490.00,0.0096
489.00,0.0096
488.00,0.0093
487.00,0.0086
486.00,0.0079
485.00,0.0074
484.00,0.0071
483.00,0.0069
482.00,0.0071
481.00,0.0074
480.00,0.0077
479.00,0.0077
478.00,0.0078
477.00,0.0079
476.00,0.0079
475.00,0.0080
474.00,0.0085
473.00,0.0093
472.00,0.0098
471.00,0.0096
470.00,0.0091
469.00,0.0088
468.00,0.0089
467.00,0.0090
466.00,0.0092
465.00,0.0098
464.00,0.0111
463.00,0.0130
462.00,0.0151
461.00,0.0170
460.00,0.0184
459.00,0.0193
458.00,0.0196
457.00,0.0190
456.00,0.0178
455.00,0.0165
454.00,0.0155
453.00,0.0150
452.00,0.0146
451.00,0.0142
450.00,0.0137
