Created as New Dataset,Sample 002 By Administrator Date Tuesday, September 09 2025
cm-1,A
4000.00,0.0014
3999.00,0.0014
3998.00,0.0015
3997.00,0.0015
3996.00,0.0016
3995.00,0.0016
3994.00,0.0015
3993.00,0.0015
3992.00,0.0015
3991.00,0.0015
3990.00,0.0015
3989.00,0.0014
3988.00,0.0014
3987.00,0.0014
3986.00,0.0014
3985.00,0.0014
3984.00,0.0014
3983.00,0.0013
3982.00,0.0013
3981.00,0.0013
3980.00,0.0013
3979.00,0.0013
3978.00,0.0013
3977.00,0.0013
3976.00,0.0013
3975.00,0.0013
3974.00,0.0013
3973.00,0.0013
3972.00,0.0013
3971.00,0.0013
3970.00,0.0013
3969.00,0.0013
3968.00,0.0013
3967.00,0.0013
3966.00,0.0013
3965.00,0.0013
3964.00,0.0014
3963.00,0.0014
3962.00,0.0013
3961.00,0.0013
3960.00,0.0013
3959.00,0.0013
3958.00,0.0012
3957.00,0.0012
3956.00,0.0012
3955.00,0.0012
3954.00,0.0012
3953.00,0.0012
3952.00,0.0012
3951.00,0.0012
3950.00,0.0013
3949.00,0.0013
3948.00,0.0013
3947.00,0.0013
3946.00,0.0013
3945.00,0.0013
3944.00,0.0013
3943.00,0.0013
3942.00,0.0013
3941.00,0.0013
3940.00,0.0013
3939.00,0.0013
3938.00,0.0013
3937.00,0.0013
3936.00,0.0013
3935.00,0.0013
3934.00,0.0013
3933.00,0.0014
3932.00,0.0014
3931.00,0.0014
3930.00,0.0014
3929.00,0.0014
3928.00,0.0014
3927.00,0.0014
3926.00,0.0013
3925.00,0.0013
3924.00,0.0014
3923.00,0.0014
3922.00,0.0014
3921.00,0.0014
3920.00,0.0014
3919.00,0.0014
3918.00,0.0014
3917.00,0.0013
3916.00,0.0013
3915.00,0.0013
3914.00,0.0013
3913.00,0.0013
3912.00,0.0013
3911.00,0.0012
3910.00,0.0012
3909.00,0.0012
3908.00,0.0013
3907.00,0.0013
3906.00,0.0013
3905.00,0.0013
3904.00,0.0014
3903.00,0.0015
3902.00,0.0015
3901.00,0.0015
3900.00,0.0014
3899.00,0.0013
3898.00,0.0013
3897.00,0.0013
3896.00,0.0013
3895.00,0.0013
3894.00,0.0013
3893.00,0.0014
3892.00,0.0014
3891.00,0.0014
3890.00,0.0014
3889.00,0.0014
3888.00,0.0014
3887.00,0.0014
3886.00,0.0014
3885.00,0.0014
3884.00,0.0014
3883.00,0.0014
3882.00,0.0013
3881.00,0.0013
3880.00,0.0013
3879.00,0.0013
3878.00,0.0013
3877.00,0.0013
3876.00,0.0013
3875.00,0.0013
3874.00,0.0013
3873.00,0.0013
3872.00,0.0014
3871.00,0.0014
3870.00,0.0014
3869.00,0.0014
3868.00,0.0014
3867.00,0.0014
3866.00,0.0014
3865.00,0.0014
3864.00,0.0014
3863.00,0.0014
3862.00,0.0014
3861.00,0.0014
3860.00,0.0014
3859.00,0.0014
3858.00,0.0014
3857.00,0.0014
3856.00,0.0014
3855.00,0.0013
3854.00,0.0013
3853.00,0.0014
3852.00,0.0014
3851.00,0.0013
3850.00,0.0013
3849.00,0.0013
3848.00,0.0013
3847.00,0.0013
3846.00,0.0013
3845.00,0.0013
3844.00,0.0012
3843.00,0.0013
3842.00,0.0013
3841.00,0.0014
3840.00,0.0015
3839.00,0.0015
3838.00,0.0014
3837.00,0.0014
3836.00,0.0013
3835.00,0.0013
3834.00,0.0013
3833.00,0.0013
3832.00,0.0013
3831.00,0.0013
3830.00,0.0014
3829.00,0.0014
3828.00,0.0014
3827.00,0.0014
3826.00,0.0014
3825.00,0.0014
3824.00,0.0014
3823.00,0.0014
3822.00,0.0014
3821.00,0.0014
3820.00,0.0015
3819.00,0.0015
3818.00,0.0015
3817.00,0.0014
3816.00,0.0014
3815.00,0.0013
3814.00,0.0013
3813.00,0.0013
3812.00,0.0013
3811.00,0.0013
3810.00,0.0013
3809.00,0.0013
3808.00,0.0013
3807.00,0.0014
3806.00,0.0014
3805.00,0.0014
3804.00,0.0014
3803.00,0.0013
3802.00,0.0013
3801.00,0.0013
3800.00,0.0014
3799.00,0.0014
3798.00,0.0014
3797.00,0.0013
3796.00,0.0013
3795.00,0.0012
3794.00,0.0012
3793.00,0.0012
3792.00,0.0012
3791.00,0.0013
3790.00,0.0012
3789.00,0.0012
3788.00,0.0012
3787.00,0.0012
3786.00,0.0012
3785.00,0.0012
3784.00,0.0013
3783.00,0.0013
3782.00,0.0013
3781.00,0.0012
3780.00,0.0012
3779.00,0.0012
3778.00,0.0013
3777.00,0.0013
3776.00,0.0013
3775.00,0.0013
3774.00,0.0013
3773.00,0.0013
3772.00,0.0013
3771.00,0.0014
3770.00,0.0014
3769.00,0.0015
3768.00,0.0015
3767.00,0.0015
3766.00,0.0015
3765.00,0.0014
3764.00,0.0014
3763.00,0.0015
3762.00,0.0015
3761.00,0.0015
3760.00,0.0015
3759.00,0.0015
3758.00,0.0014
3757.00,0.0014
3756.00,0.0015
3755.00,0.0015
3754.00,0.0015
3753.00,0.0016
3752.00,0.0017
3751.00,0.0017
3750.00,0.0017
3749.00,0.0017
3748.00,0.0016
3747.00,0.0016
3746.00,0.0015
3745.00,0.0015
3744.00,0.0014
3743.00,0.0014
3742.00,0.0014
3741.00,0.0014
3740.00,0.0014
3739.00,0.0015
3738.00,0.0015
3737.00,0.0015
3736.00,0.0015
3735.00,0.0014
3734.00,0.0014
3733.00,0.0013
3732.00,0.0013
3731.00,0.0013
3730.00,0.0014
3729.00,0.0014
3728.00,0.0014
3727.00,0.0014
3726.00,0.0014
3725.00,0.0014
3724.00,0.0014
3723.00,0.0013
3722.00,0.0013
3721.00,0.0012
3720.00,0.0012
3719.00,0.0012
3718.00,0.0012
3717.00,0.0012
3716.00,0.0012
3715.00,0.0012
3714.00,0.0012
3713.00,0.0011
3712.00,0.0012
3711.00,0.0012
3710.00,0.0013
3709.00,0.0012
3708.00,0.0012
3707.00,0.0011
3706.00,0.0011
3705.00,0.0011
3704.00,0.0011
3703.00,0.0011
3702.00,0.0011
3701.00,0.0011
3700.00,0.0011
3699.00,0.0011
3698.00,0.0011
3697.00,0.0011
3696.00,0.0011
3695.00,0.0011
3694.00,0.0012
3693.00,0.0012
3692.00,0.0012
3691.00,0.0013
3690.00,0.0013
3689.00,0.0013
3688.00,0.0013
3687.00,0.0013
3686.00,0.0013
3685.00,0.0013
3684.00,0.0013
3683.00,0.0013
3682.00,0.0012
3681.00,0.0012
3680.00,0.0013
3679.00,0.0014
3678.00,0.0015
3677.00,0.0016
3676.00,0.0016
3675.00,0.0016
3674.00,0.0016
3673.00,0.0015
3672.00,0.0014
3671.00,0.0014
3670.00,0.0014
3669.00,0.0014
3668.00,0.0014
3667.00,0.0014
3666.00,0.0014
3665.00,0.0014
3664.00,0.0014
3663.00,0.0014
3662.00,0.0014
3661.00,0.0014
3660.00,0.0015
3659.00,0.0015
3658.00,0.0015
3657.00,0.0016
3656.00,0.0016
3655.00,0.0016
3654.00,0.0016
3653.00,0.0016
3652.00,0.0016
3651.00,0.0016
3650.00,0.0016
3649.00,0.0016
3648.00,0.0016
3647.00,0.0015
3646.00,0.0015
3645.00,0.0015
3644.00,0.0015
3643.00,0.0015
3642.00,0.0015
3641.00,0.0014
3640.00,0.0014
3639.00,0.0014
3638.00,0.0014
3637.00,0.0015
3636.00,0.0015
3635.00,0.0015
3634.00,0.0015
3633.00,0.0015
3632.00,0.0015
3631.00,0.0015
3630.00,0.0015
3629.00,0.0015
3628.00,0.0014
3627.00,0.0014
3626.00,0.0014
3625.00,0.0014
3624.00,0.0014
3623.00,0.0014
3622.00,0.0014
3621.00,0.0014
3620.00,0.0014
3619.00,0.0014
3618.00,0.0014
3617.00,0.0015
3616.00,0.0015
3615.00,0.0015
3614.00,0.0016
3613.00,0.0016
3612.00,0.0016
3611.00,0.0016
3610.00,0.0016
3609.00,0.0016
3608.00,0.0016
3607.00,0.0015
3606.00,0.0015
3605.00,0.0015
3604.00,0.0015
3603.00,0.0015
3602.00,0.0015
3601.00,0.0016
3600.00,0.0016
3599.00,0.0016
3598.00,0.0016
3597.00,0.0016
3596.00,0.0017
3595.00,0.0017
3594.00,0.0017
3593.00,0.0017
3592.00,0.0018
3591.00,0.0018
3590.00,0.0018
3589.00,0.0018
3588.00,0.0018
3587.00,0.0018
3586.00,0.0018
3585.00,0.0019
3584.00,0.0019
3583.00,0.0019
3582.00,0.0019
3581.00,0.0019
3580.00,0.0019
3579.00,0.0019
3578.00,0.0018
3577.00,0.0018
3576.00,0.0019
3575.00,0.0019
3574.00,0.0019
3573.00,0.0020
3572.00,0.0020
3571.00,0.0021
3570.00,0.0021
3569.00,0.0021
3568.00,0.0022
3567.00,0.0022
3566.00,0.0022
3565.00,0.0022
3564.00,0.0022
3563.00,0.0022
3562.00,0.0022
3561.00,0.0022
3560.00,0.0022
3559.00,0.0022
3558.00,0.0022
3557.00,0.0022
3556.00,0.0023
3555.00,0.0023
3554.00,0.0024
3553.00,0.0025
3552.00,0.0025
3551.00,0.0026
3550.00,0.0026
3549.00,0.0026
3548.00,0.0026
3547.00,0.0026
3546.00,0.0026
3545.00,0.0025
3544.00,0.0025
3543.00,0.0025
3542.00,0.0025
3541.00,0.0025
3540.00,0.0026
3539.00,0.0026
3538.00,0.0026
3537.00,0.0026
3536.00,0.0026
3535.00,0.0027
3534.00,0.0027
3533.00,0.0027
3532.00,0.0027
3531.00,0.0028
3530.00,0.0028
3529.00,0.0029
3528.00,0.0029
3527.00,0.0030
3526.00,0.0030
3525.00,0.0030
3524.00,0.0030
3523.00,0.0030
3522.00,0.0030
3521.00,0.0030
3520.00,0.0030
3519.00,0.0030
3518.00,0.0030
3517.00,0.0030
3516.00,0.0030
3515.00,0.0031
3514.00,0.0031
3513.00,0.0031
3512.00,0.0031
3511.00,0.0031
3510.00,0.0031
3509.00,0.0032
3508.00,0.0032
3507.00,0.0033
3506.00,0.0033
3505.00,0.0033
3504.00,0.0033
3503.00,0.0033
3502.00,0.0033
3501.00,0.0033
3500.00,0.0033
3499.00,0.0034
3498.00,0.0034
3497.00,0.0034
3496.00,0.0034
3495.00,0.0035
3494.00,0.0035
3493.00,0.0035
3492.00,0.0035
3491.00,0.0035
3490.00,0.0035
3489.00,0.0035
3488.00,0.0036
3487.00,0.0036
3486.00,0.0036
3485.00,0.0037
3484.00,0.0037
3483.00,0.0037
3482.00,0.0037
3481.00,0.0038
3480.00,0.0038
3479.00,0.0038
3478.00,0.0038
3477.00,0.0038
3476.00,0.0039
3475.00,0.0039
3474.00,0.0039
3473.00,0.0040
3472.00,0.0040
3471.00,0.0040
3470.00,0.0040
3469.00,0.0040
3468.00,0.0040
3467.00,0.0040
3466.00,0.0041
3465.00,0.0041
3464.00,0.0041
3463.00,0.0041
3462.00,0.0041
3461.00,0.0041
3460.00,0.0042
3459.00,0.0042
3458.00,0.0042
3457.00,0.0042
3456.00,0.0043
3455.00,0.0043
3454.00,0.0043
3453.00,0.0043
3452.00,0.0044
3451.00,0.0044
3450.00,0.0044
3449.00,0.0044
3448.00,0.0045
3447.00,0.0045
3446.00,0.0045
3445.00,0.0045
3444.00,0.0045
3443.00,0.0045
3442.00,0.0045
3441.00,0.0045
3440.00,0.0045
3439.00,0.0046
3438.00,0.0046
3437.00,0.0046
3436.00,0.0047
3435.00,0.0047
3434.00,0.0047
3433.00,0.0048
3432.00,0.0048
3431.00,0.0048
3430.00,0.0048
3429.00,0.0048
3428.00,0.0048
3427.00,0.0048
3426.00,0.0048
3425.00,0.0049
3424.00,0.0049
3423.00,0.0050
3422.00,0.0050
3421.00,0.0050
3420.00,0.0049
3419.00,0.0049
3418.00,0.0049
3417.00,0.0050
3416.00,0.0050
3415.00,0.0051
3414.00,0.0052
3413.00,0.0052
3412.00,0.0053
3411.00,0.0053
3410.00,0.0053
3409.00,0.0053
3408.00,0.0053
3407.00,0.0054
3406.00,0.0054
3405.00,0.0054
3404.00,0.0054
3403.00,0.0055
3402.00,0.0055
3401.00,0.0055
3400.00,0.0056
3399.00,0.0056
3398.00,0.0056
3397.00,0.0057
3396.00,0.0057
3395.00,0.0056
3394.00,0.0056
3393.00,0.0056
3392.00,0.0056
3391.00,0.0056
3390.00,0.0056
3389.00,0.0056
3388.00,0.0056
3387.00,0.0056
3386.00,0.0055
3385.00,0.0055
3384.00,0.0055
3383.00,0.0055
3382.00,0.0055
3381.00,0.0055
3380.00,0.0055
3379.00,0.0055
3378.00,0.0055
3377.00,0.0055
3376.00,0.0055
3375.00,0.0055
3374.00,0.0055
3373.00,0.0055
3372.00,0.0054
3371.00,0.0054
3370.00,0.0054
3369.00,0.0054
3368.00,0.0055
3367.00,0.0055
3366.00,0.0056
3365.00,0.0056
3364.00,0.0056
3363.00,0.0056
3362.00,0.0056
3361.00,0.0056
3360.00,0.0056
3359.00,0.0056
3358.00,0.0056
3357.00,0.0056
3356.00,0.0056
3355.00,0.0056
3354.00,0.0056
3353.00,0.0056
3352.00,0.0056
3351.00,0.0056
3350.00,0.0056
3349.00,0.0056
3348.00,0.0056
3347.00,0.0056
3346.00,0.0055
3345.00,0.0055
3344.00,0.0055
3343.00,0.0055
3342.00,0.0055
3341.00,0.0055
3340.00,0.0055
3339.00,0.0055
3338.00,0.0055
3337.00,0.0055
3336.00,0.0055
3335.00,0.0055
3334.00,0.0055
3333.00,0.0055
3332.00,0.0055
3331.00,0.0055
3330.00,0.0055
3329.00,0.0055
3328.00,0.0055
3327.00,0.0054
3326.00,0.0054
3325.00,0.0054
3324.00,0.0054
3323.00,0.0054
3322.00,0.0054
3321.00,0.0054
3320.00,0.0054
3319.00,0.0054
3318.00,0.0054
3317.00,0.0054
3316.00,0.0054
3315.00,0.0054
3314.00,0.0054
3313.00,0.0054
3312.00,0.0054
3311.00,0.0054
3310.00,0.0054
3309.00,0.0053
3308.00,0.0053
3307.00,0.0053
3306.00,0.0053
3305.00,0.0053
3304.00,0.0053
3303.00,0.0053
3302.00,0.0053
3301.00,0.0053
3300.00,0.0053
3299.00,0.0053
3298.00,0.0053
3297.00,0.0053
3296.00,0.0053
3295.00,0.0053
3294.00,0.0052
3293.00,0.0052
3292.00,0.0052
3291.00,0.0052
3290.00,0.0053
3289.00,0.0053
3288.00,0.0053
3287.00,0.0053
3286.00,0.0053
3285.00,0.0052
3284.00,0.0051
3283.00,0.0051
3282.00,0.0051
3281.00,0.0051
3280.00,0.0051
3279.00,0.0051
3278.00,0.0051
3277.00,0.0051
3276.00,0.0051
3275.00,0.0050
3274.00,0.0050
3273.00,0.0050
3272.00,0.0049
3271.00,0.0049
3270.00,0.0049
3269.00,0.0049
3268.00,0.0049
3267.00,0.0049
3266.00,0.0049
3265.00,0.0049
3264.00,0.0049
3263.00,0.0049
3262.00,0.0049
3261.00,0.0049
3260.00,0.0049
3259.00,0.0049
3258.00,0.0049
3257.00,0.0049
3256.00,0.0049
3255.00,0.0048
3254.00,0.0048
3253.00,0.0048
3252.00,0.0047
3251.00,0.0047
3250.00,0.0047
3249.00,0.0047
3248.00,0.0047
3247.00,0.0047
3246.00,0.0047
3245.00,0.0048
3244.00,0.0048
3243.00,0.0048
3242.00,0.0048
3241.00,0.0048
3240.00,0.0048
3239.00,0.0048
3238.00,0.0048
3237.00,0.0048
3236.00,0.0048
3235.00,0.0048
3234.00,0.0047
3233.00,0.0048
3232.00,0.0048
3231.00,0.0048
3230.00,0.0049
3229.00,0.0049
3228.00,0.0049
3227.00,0.0049
3226.00,0.0049
3225.00,0.0049
3224.00,0.0049
3223.00,0.0049
3222.00,0.0049
3221.00,0.0049
3220.00,0.0049
3219.00,0.0049
3218.00,0.0050
3217.00,0.0050
3216.00,0.0050
3215.00,0.0050
3214.00,0.0051
3213.00,0.0051
3212.00,0.0051
3211.00,0.0052
3210.00,0.0052
3209.00,0.0052
3208.00,0.0052
3207.00,0.0053
3206.00,0.0053
3205.00,0.0054
3204.00,0.0054
3203.00,0.0054
3202.00,0.0054
3201.00,0.0054
3200.00,0.0054
3199.00,0.0054
3198.00,0.0054
3197.00,0.0054
3196.00,0.0054
3195.00,0.0054
3194.00,0.0054
3193.00,0.0054
3192.00,0.0054
3191.00,0.0054
3190.00,0.0054
3189.00,0.0053
3188.00,0.0053
3187.00,0.0053
3186.00,0.0053
3185.00,0.0053
3184.00,0.0053
3183.00,0.0052
3182.00,0.0052
3181.00,0.0052
3180.00,0.0052
3179.00,0.0052
3178.00,0.0051
3177.00,0.0051
3176.00,0.0050
3175.00,0.0050
3174.00,0.0050
3173.00,0.0050
3172.00,0.0049
3171.00,0.0049
3170.00,0.0049
3169.00,0.0049
3168.00,0.0049
3167.00,0.0048
3166.00,0.0047
3165.00,0.0047
3164.00,0.0047
3163.00,0.0047
3162.00,0.0047
3161.00,0.0047
3160.00,0.0047
3159.00,0.0047
3158.00,0.0047
3157.00,0.0047
3156.00,0.0046
3155.00,0.0046
3154.00,0.0046
3153.00,0.0046
3152.00,0.0046
3151.00,0.0046
3150.00,0.0046
3149.00,0.0046
3148.00,0.0046
3147.00,0.0045
3146.00,0.0045
3145.00,0.0044
3144.00,0.0044
3143.00,0.0044
3142.00,0.0045
3141.00,0.0045
3140.00,0.0045
3139.00,0.0045
3138.00,0.0045
3137.00,0.0044
3136.00,0.0044
3135.00,0.0044
3134.00,0.0043
3133.00,0.0043
3132.00,0.0043
3131.00,0.0042
3130.00,0.0042
3129.00,0.0042
3128.00,0.0041
3127.00,0.0041
3126.00,0.0041
3125.00,0.0040
3124.00,0.0040
3123.00,0.0040
3122.00,0.0040
3121.00,0.0040
3120.00,0.0040
3119.00,0.0039
3118.00,0.0039
3117.00,0.0040
3116.00,0.0040
3115.00,0.0040
3114.00,0.0039
3113.00,0.0039
3112.00,0.0039
3111.00,0.0039
3110.00,0.0038
3109.00,0.0038
3108.00,0.0037
3107.00,0.0037
3106.00,0.0036
3105.00,0.0036
3104.00,0.0037
3103.00,0.0037
3102.00,0.0037
3101.00,0.0037
3100.00,0.0038
3099.00,0.0038
3098.00,0.0037
3097.00,0.0037
3096.00,0.0037
3095.00,0.0037
3094.00,0.0036
3093.00,0.0036
3092.00,0.0035
3091.00,0.0035
3090.00,0.0035
3089.00,0.0035
3088.00,0.0036
3087.00,0.0036
3086.00,0.0035
3085.00,0.0035
3084.00,0.0035
3083.00,0.0035
3082.00,0.0035
3081.00,0.0035
3080.00,0.0035
3079.00,0.0035
3078.00,0.0035
3077.00,0.0036
3076.00,0.0036
3075.00,0.0036
3074.00,0.0036
3073.00,0.0036
3072.00,0.0036
3071.00,0.0036
3070.00,0.0036
3069.00,0.0036
3068.00,0.0036
3067.00,0.0036
3066.00,0.0036
3065.00,0.0037
3064.00,0.0037
3063.00,0.0037
3062.00,0.0037
3061.00,0.0037
3060.00,0.0037
3059.00,0.0037
3058.00,0.0037
3057.00,0.0036
3056.00,0.0036
3055.00,0.0037
3054.00,0.0037
3053.00,0.0037
3052.00,0.0038
3051.00,0.0038
3050.00,0.0038
3049.00,0.0039
3048.00,0.0039
3047.00,0.0039
3046.00,0.0039
3045.00,0.0039
3044.00,0.0039
3043.00,0.0039
3042.00,0.0039
3041.00,0.0039
3040.00,0.0039
3039.00,0.0039
3038.00,0.0040
3037.00,0.0040
3036.00,0.0041
3035.00,0.0041
3034.00,0.0042
3033.00,0.0043
3032.00,0.0043
3031.00,0.0043
3030.00,0.0044
3029.00,0.0044
3028.00,0.0045
3027.00,0.0045
3026.00,0.0046
3025.00,0.0046
3024.00,0.0047
3023.00,0.0048
3022.00,0.0048
3021.00,0.0049
3020.00,0.0050
3019.00,0.0051
3018.00,0.0052
3017.00,0.0053
3016.00,0.0055
3015.00,0.0056
3014.00,0.0058
3013.00,0.0059
3012.00,0.0061
3011.00,0.0063
3010.00,0.0065
3009.00,0.0067
3008.00,0.0070
3007.00,0.0072
3006.00,0.0075
3005.00,0.0078
3004.00,0.0080
3003.00,0.0083
3002.00,0.0086
3001.00,0.0089
3000.00,0.0092
2999.00,0.0096
2998.00,0.0099
2997.00,0.0103
2996.00,0.0108
2995.00,0.0113
2994.00,0.0118
2993.00,0.0124
2992.00,0.0130
2991.00,0.0136
2990.00,0.0144
2989.00,0.0152
2988.00,0.0161
2987.00,0.0172
2986.00,0.0184
2985.00,0.0198
2984.00,0.0214
2983.00,0.0231
2982.00,0.0249
2981.00,0.0268
2980.00,0.0289
2979.00,0.0312
2978.00,0.0339
2977.00,0.0369
2976.00,0.0405
2975.00,0.0446
2974.00,0.0493
2973.00,0.0546
2972.00,0.0606
2971.00,0.0674
2970.00,0.0749
2969.00,0.0833
2968.00,0.0925
2967.00,0.1025
2966.00,0.1133
2965.00,0.1248
2964.00,0.1365
2963.00,0.1481
2962.00,0.1590
2961.00,0.1686
2960.00,0.1766
2959.00,0.1827
2958.00,0.1871
2957.00,0.1902
2956.00,0.1926
2955.00,0.1949
2954.00,0.1972
2953.00,0.1996
2952.00,0.2015
2951.00,0.2023
2950.00,0.2010
2949.00,0.1968
2948.00,0.1895
2947.00,0.1793
2946.00,0.1669
2945.00,0.1535
2944.00,0.1405
2943.00,0.1289
2942.00,0.1195
2941.00,0.1126
2940.00,0.1082
2939.00,0.1061
2938.00,0.1060
2937.00,0.1078
2936.00,0.1112
2935.00,0.1161
2934.00,0.1223
2933.00,0.1296
2932.00,0.1379
2931.00,0.1470
2930.00,0.1565
2929.00,0.1662
2928.00,0.1756
2927.00,0.1846
2926.00,0.1931
2925.00,0.2012
2924.00,0.2088
2923.00,0.2162
2922.00,0.2234
2921.00,0.2301
2920.00,0.2361
2919.00,0.2406
2918.00,0.2431
2917.00,0.2432
2916.00,0.2406
2915.00,0.2358
2914.00,0.2293
2913.00,0.2220
2912.00,0.2147
2911.00,0.2077
2910.00,0.2014
2909.00,0.1956
2908.00,0.1901
2907.00,0.1848
2906.00,0.1792
2905.00,0.1733
2904.00,0.1670
2903.00,0.1604
2902.00,0.1536
2901.00,0.1468
2900.00,0.1401
2899.00,0.1336
2898.00,0.1276
2897.00,0.1221
2896.00,0.1173
2895.00,0.1131
2894.00,0.1097
2893.00,0.1070
2892.00,0.1050
2891.00,0.1036
2890.00,0.1028
2889.00,0.1024
2888.00,0.1025
2887.00,0.1030
2886.00,0.1038
2885.00,0.1049
2884.00,0.1064
2883.00,0.1083
2882.00,0.1105
2881.00,0.1129
2880.00,0.1152
2879.00,0.1170
2878.00,0.1182
2877.00,0.1185
2876.00,0.1180
2875.00,0.1172
2874.00,0.1165
2873.00,0.1162
2872.00,0.1165
2871.00,0.1176
2870.00,0.1192
2869.00,0.1207
2868.00,0.1216
2867.00,0.1210
2866.00,0.1183
2865.00,0.1133
2864.00,0.1062
2863.00,0.0977
2862.00,0.0890
2861.00,0.0807
2860.00,0.0736
2859.00,0.0679
2858.00,0.0636
2857.00,0.0605
2856.00,0.0585
2855.00,0.0575
2854.00,0.0574
2853.00,0.0579
2852.00,0.0592
2851.00,0.0610
2850.00,0.0635
2849.00,0.0665
2848.00,0.0702
2847.00,0.0745
2846.00,0.0796
2845.00,0.0856
2844.00,0.0925
2843.00,0.1001
2842.00,0.1080
2841.00,0.1155
2840.00,0.1219
2839.00,0.1260
2838.00,0.1272
2837.00,0.1249
2836.00,0.1190
2835.00,0.1101
2834.00,0.0992
2833.00,0.0878
2832.00,0.0768
2831.00,0.0669
2830.00,0.0586
2829.00,0.0518
2828.00,0.0463
2827.00,0.0419
2826.00,0.0383
2825.00,0.0353
2824.00,0.0328
2823.00,0.0306
2822.00,0.0288
2821.00,0.0272
2820.00,0.0259
2819.00,0.0247
2818.00,0.0237
2817.00,0.0228
2816.00,0.0220
2815.00,0.0213
2814.00,0.0206
2813.00,0.0200
2812.00,0.0195
2811.00,0.0190
2810.00,0.0185
2809.00,0.0179
2808.00,0.0174
2807.00,0.0168
2806.00,0.0161
2805.00,0.0155
2804.00,0.0149
2803.00,0.0143
2802.00,0.0137
2801.00,0.0133
2800.00,0.0129
2799.00,0.0126
2798.00,0.0124
2797.00,0.0121
2796.00,0.0119
2795.00,0.0116
2794.00,0.0113
2793.00,0.0110
2792.00,0.0107
2791.00,0.0104
2790.00,0.0100
2789.00,0.0097
2788.00,0.0093
2787.00,0.0090
2786.00,0.0087
2785.00,0.0084
2784.00,0.0082
2783.00,0.0079
2782.00,0.0077
2781.00,0.0075
2780.00,0.0073
2779.00,0.0071
2778.00,0.0070
2777.00,0.0069
2776.00,0.0067
2775.00,0.0066
2774.00,0.0065
2773.00,0.0065
2772.00,0.0064
2771.00,0.0064
2770.00,0.0063
2769.00,0.0063
2768.00,0.0063
2767.00,0.0062
2766.00,0.0062
2765.00,0.0062
2764.00,0.0061
2763.00,0.0061
2762.00,0.0060
2761.00,0.0059
2760.00,0.0058
2759.00,0.0058
2758.00,0.0058
2757.00,0.0058
2756.00,0.0058
2755.00,0.0058
2754.00,0.0058
2753.00,0.0058
2752.00,0.0058
2751.00,0.0058
2750.00,0.0057
2749.00,0.0057
2748.00,0.0058
2747.00,0.0058
2746.00,0.0058
2745.00,0.0059
2744.00,0.0060
2743.00,0.0060
2742.00,0.0061
2741.00,0.0062
2740.00,0.0064
2739.00,0.0065
2738.00,0.0066
2737.00,0.0068
2736.00,0.0069
2735.00,0.0071
2734.00,0.0073
2733.00,0.0074
2732.00,0.0076
2731.00,0.0078
2730.00,0.0080
2729.00,0.0082
2728.00,0.0085
2727.00,0.0087
2726.00,0.0090
2725.00,0.0093
2724.00,0.0095
2723.00,0.0095
2722.00,0.0094
2721.00,0.0092
2720.00,0.0089
2719.00,0.0085
2718.00,0.0082
2717.00,0.0079
2716.00,0.0076
2715.00,0.0073
2714.00,0.0071
2713.00,0.0069
2712.00,0.0067
2711.00,0.0065
2710.00,0.0064
2709.00,0.0062
2708.00,0.0061
2707.00,0.0060
2706.00,0.0058
2705.00,0.0057
2704.00,0.0056
2703.00,0.0055
2702.00,0.0054
2701.00,0.0054
2700.00,0.0053
2699.00,0.0053
2698.00,0.0052
2697.00,0.0052
2696.00,0.0051
2695.00,0.0051
2694.00,0.0051
2693.00,0.0051
2692.00,0.0051
2691.00,0.0051
2690.00,0.0051
2689.00,0.0051
2688.00,0.0051
2687.00,0.0051
2686.00,0.0051
2685.00,0.0051
2684.00,0.0051
2683.00,0.0051
2682.00,0.0051
2681.00,0.0052
2680.00,0.0052
2679.00,0.0052
2678.00,0.0052
2677.00,0.0052
2676.00,0.0052
2675.00,0.0051
2674.00,0.0051
2673.00,0.0051
2672.00,0.0051
2671.00,0.0051
2670.00,0.0050
2669.00,0.0050
2668.00,0.0050
2667.00,0.0050
2666.00,0.0051
2665.00,0.0051
2664.00,0.0052
2663.00,0.0052
2662.00,0.0053
2661.00,0.0053
2660.00,0.0053
2659.00,0.0053
2658.00,0.0053
2657.00,0.0053
2656.00,0.0052
2655.00,0.0052
2654.00,0.0051
2653.00,0.0051
2652.00,0.0050
2651.00,0.0049
2650.00,0.0049
2649.00,0.0049
2648.00,0.0048
2647.00,0.0048
2646.00,0.0048
2645.00,0.0047
2644.00,0.0047
2643.00,0.0046
2642.00,0.0046
2641.00,0.0045
2640.00,0.0045
2639.00,0.0044
2638.00,0.0044
2637.00,0.0044
2636.00,0.0044
2635.00,0.0044
2634.00,0.0044
2633.00,0.0044
2632.00,0.0044
2631.00,0.0044
2630.00,0.0044
2629.00,0.0045
2628.00,0.0045
2627.00,0.0045
2626.00,0.0046
2625.00,0.0046
2624.00,0.0046
2623.00,0.0046
2622.00,0.0046
2621.00,0.0046
2620.00,0.0046
2619.00,0.0046
2618.00,0.0046
2617.00,0.0046
2616.00,0.0045
2615.00,0.0045
2614.00,0.0044
2613.00,0.0044
2612.00,0.0043
2611.00,0.0043
2610.00,0.0043
2609.00,0.0042
2608.00,0.0042
2607.00,0.0041
2606.00,0.0040
2605.00,0.0040
2604.00,0.0039
2603.00,0.0039
2602.00,0.0039
2601.00,0.0038
2600.00,0.0038
2599.00,0.0038
2598.00,0.0038
2597.00,0.0038
2596.00,0.0038
2595.00,0.0039
2594.00,0.0039
2593.00,0.0039
2592.00,0.0038
2591.00,0.0038
2590.00,0.0039
2589.00,0.0039
2588.00,0.0040
2587.00,0.0041
2586.00,0.0042
2585.00,0.0043
2584.00,0.0043
2583.00,0.0043
2582.00,0.0043
2581.00,0.0043
2580.00,0.0043
2579.00,0.0043
2578.00,0.0043
2577.00,0.0042
2576.00,0.0041
2575.00,0.0040
2574.00,0.0038
2573.00,0.0037
2572.00,0.0035
2571.00,0.0034
2570.00,0.0033
2569.00,0.0033
2568.00,0.0032
2567.00,0.0032
2566.00,0.0031
2565.00,0.0031
2564.00,0.0031
2563.00,0.0031
2562.00,0.0031
2561.00,0.0030
2560.00,0.0030
2559.00,0.0029
2558.00,0.0029
2557.00,0.0029
2556.00,0.0029
2555.00,0.0029
2554.00,0.0029
2553.00,0.0028
2552.00,0.0028
2551.00,0.0027
2550.00,0.0027
2549.00,0.0026
2548.00,0.0026
2547.00,0.0026
2546.00,0.0025
2545.00,0.0025
2544.00,0.0024
2543.00,0.0023
2542.00,0.0022
2541.00,0.0022
2540.00,0.0022
2539.00,0.0022
2538.00,0.0022
2537.00,0.0022
2536.00,0.0022
2535.00,0.0022
2534.00,0.0022
2533.00,0.0022
2532.00,0.0022
2531.00,0.0021
2530.00,0.0021
2529.00,0.0021
2528.00,0.0020
2527.00,0.0020
2526.00,0.0020
2525.00,0.0020
2524.00,0.0019
2523.00,0.0019
2522.00,0.0019
2521.00,0.0019
2520.00,0.0019
2519.00,0.0018
2518.00,0.0018
2517.00,0.0018
2516.00,0.0017
2515.00,0.0017
2514.00,0.0017
2513.00,0.0017
2512.00,0.0017
2511.00,0.0017
2510.00,0.0017
2509.00,0.0017
2508.00,0.0016
2507.00,0.0016
2506.00,0.0016
2505.00,0.0016
2504.00,0.0016
2503.00,0.0016
2502.00,0.0016
2501.00,0.0016
2500.00,0.0016
2499.00,0.0016
2498.00,0.0016
2497.00,0.0016
2496.00,0.0016
2495.00,0.0016
2494.00,0.0016
2493.00,0.0016
2492.00,0.0017
2491.00,0.0017
2490.00,0.0017
2489.00,0.0017
2488.00,0.0017
2487.00,0.0017
2486.00,0.0017
2485.00,0.0017
2484.00,0.0016
2483.00,0.0016
2482.00,0.0016
2481.00,0.0016
2480.00,0.0016
2479.00,0.0016
2478.00,0.0016
2477.00,0.0015
2476.00,0.0015
2475.00,0.0015
2474.00,0.0014
2473.00,0.0014
2472.00,0.0014
2471.00,0.0014
2470.00,0.0015
2469.00,0.0015
2468.00,0.0014
2467.00,0.0014
2466.00,0.0014
2465.00,0.0014
2464.00,0.0014
2463.00,0.0015
2462.00,0.0015
2461.00,0.0015
2460.00,0.0015
2459.00,0.0015
2458.00,0.0015
2457.00,0.0015
2456.00,0.0016
2455.00,0.0017
2454.00,0.0018
2453.00,0.0018
2452.00,0.0018
2451.00,0.0018
2450.00,0.0017
2449.00,0.0018
2448.00,0.0018
2447.00,0.0018
2446.00,0.0018
2445.00,0.0018
2444.00,0.0017
2443.00,0.0017
2442.00,0.0017
2441.00,0.0017
2440.00,0.0016
2439.00,0.0016
2438.00,0.0017
2437.00,0.0017
2436.00,0.0016
2435.00,0.0016
2434.00,0.0016
2433.00,0.0016
2432.00,0.0016
2431.00,0.0017
2430.00,0.0017
2429.00,0.0018
2428.00,0.0018
2427.00,0.0018
2426.00,0.0018
2425.00,0.0018
2424.00,0.0018
2423.00,0.0017
2422.00,0.0017
2421.00,0.0017
2420.00,0.0017
2419.00,0.0016
2418.00,0.0016
2417.00,0.0016
2416.00,0.0016
2415.00,0.0016
2414.00,0.0016
2413.00,0.0016
2412.00,0.0016
2411.00,0.0015
2410.00,0.0015
2409.00,0.0015
2408.00,0.0015
2407.00,0.0014
2406.00,0.0014
2405.00,0.0013
2404.00,0.0014
2403.00,0.0014
2402.00,0.0014
2401.00,0.0014
2400.00,0.0014
2399.00,0.0014
2398.00,0.0014
2397.00,0.0014
2396.00,0.0014
2395.00,0.0014
2394.00,0.0014
2393.00,0.0014
2392.00,0.0014
2391.00,0.0014
2390.00,0.0014
2389.00,0.0014
2388.00,0.0013
2387.00,0.0011
2386.00,0.0011
2385.00,0.0010
2384.00,0.0011
2383.00,0.0011
2382.00,0.0011
2381.00,0.0010
2380.00,0.0010
2379.00,0.0010
2378.00,0.0010
2377.00,0.0010
2376.00,0.0010
2375.00,0.0010
2374.00,0.0009
2373.00,0.0009
2372.00,0.0008
2371.00,0.0008
2370.00,0.0007
2369.00,0.0007
2368.00,0.0007
2367.00,0.0007
2366.00,0.0007
2365.00,0.0008
2364.00,0.0008
2363.00,0.0008
2362.00,0.0008
2361.00,0.0008
2360.00,0.0008
2359.00,0.0008
2358.00,0.0009
2357.00,0.0009
2356.00,0.0009
2355.00,0.0009
2354.00,0.0009
2353.00,0.0008
2352.00,0.0008
2351.00,0.0008
2350.00,0.0009
2349.00,0.0009
2348.00,0.0009
2347.00,0.0009
2346.00,0.0010
2345.00,0.0010
2344.00,0.0010
2343.00,0.0010
2342.00,0.0011
2341.00,0.0012
2340.00,0.0012
2339.00,0.0012
2338.00,0.0012
2337.00,0.0011
2336.00,0.0010
2335.00,0.0010
2334.00,0.0011
2333.00,0.0011
2332.00,0.0010
2331.00,0.0010
2330.00,0.0010
2329.00,0.0010
2328.00,0.0012
2327.00,0.0016
2326.00,0.0020
2325.00,0.0024
2324.00,0.0025
2323.00,0.0024
2322.00,0.0022
2321.00,0.0020
2320.00,0.0019
2319.00,0.0019
2318.00,0.0018
2317.00,0.0018
2316.00,0.0018
2315.00,0.0016
2314.00,0.0015
2313.00,0.0014
2312.00,0.0013
2311.00,0.0012
2310.00,0.0012
2309.00,0.0012
2308.00,0.0012
2307.00,0.0013
2306.00,0.0013
2305.00,0.0014
2304.00,0.0015
2303.00,0.0015
2302.00,0.0015
2301.00,0.0015
2300.00,0.0016
2299.00,0.0017
2298.00,0.0017
2297.00,0.0018
2296.00,0.0018
2295.00,0.0019
2294.00,0.0020
2293.00,0.0021
2292.00,0.0021
2291.00,0.0022
2290.00,0.0022
2289.00,0.0023
2288.00,0.0024
2287.00,0.0024
2286.00,0.0025
2285.00,0.0025
2284.00,0.0025
2283.00,0.0024
2282.00,0.0023
2281.00,0.0023
2280.00,0.0022
2279.00,0.0022
2278.00,0.0020
2277.00,0.0019
2276.00,0.0018
2275.00,0.0018
2274.00,0.0018
2273.00,0.0018
2272.00,0.0018
2271.00,0.0019
2270.00,0.0019
2269.00,0.0019
2268.00,0.0018
2267.00,0.0017
2266.00,0.0016
2265.00,0.0017
2264.00,0.0017
2263.00,0.0018
2262.00,0.0018
2261.00,0.0018
2260.00,0.0018
2259.00,0.0019
2258.00,0.0019
2257.00,0.0019
2256.00,0.0018
2255.00,0.0017
2254.00,0.0017
2253.00,0.0017
2252.00,0.0017
2251.00,0.0017
2250.00,0.0016
2249.00,0.0016
2248.00,0.0015
2247.00,0.0014
2246.00,0.0015
2245.00,0.0016
2244.00,0.0017
2243.00,0.0017
2242.00,0.0018
2241.00,0.0017
2240.00,0.0017
2239.00,0.0017
2238.00,0.0017
2237.00,0.0017
2236.00,0.0017
2235.00,0.0017
2234.00,0.0016
2233.00,0.0016
2232.00,0.0016
2231.00,0.0015
2230.00,0.0014
2229.00,0.0014
2228.00,0.0015
2227.00,0.0015
2226.00,0.0015
2225.00,0.0013
2224.00,0.0011
2223.00,0.0010
2222.00,0.0009
2221.00,0.0010
2220.00,0.0011
2219.00,0.0012
2218.00,0.0012
2217.00,0.0010
2216.00,0.0009
2215.00,0.0009
2214.00,0.0009
2213.00,0.0009
2212.00,0.0010
2211.00,0.0010
2210.00,0.0009
2209.00,0.0009
2208.00,0.0010
2207.00,0.0011
2206.00,0.0013
2205.00,0.0015
2204.00,0.0016
2203.00,0.0016
2202.00,0.0015
2201.00,0.0014
2200.00,0.0013
2199.00,0.0013
2198.00,0.0014
2197.00,0.0015
2196.00,0.0015
2195.00,0.0013
2194.00,0.0013
2193.00,0.0014
2192.00,0.0015
2191.00,0.0016
2190.00,0.0015
2189.00,0.0014
2188.00,0.0013
2187.00,0.0012
2186.00,0.0013
2185.00,0.0014
2184.00,0.0013
2183.00,0.0012
2182.00,0.0009
2181.00,0.0008
2180.00,0.0007
2179.00,0.0008
2178.00,0.0009
2177.00,0.0011
2176.00,0.0012
2175.00,0.0011
2174.00,0.0010
2173.00,0.0010
2172.00,0.0011
2171.00,0.0012
2170.00,0.0013
2169.00,0.0016
2168.00,0.0020
2167.00,0.0023
2166.00,0.0022
2165.00,0.0020
2164.00,0.0019
2163.00,0.0019
2162.00,0.0019
2161.00,0.0015
2160.00,0.0006
2159.00,-0.0006
2158.00,-0.0016
2157.00,-0.0021
2156.00,-0.0020
2155.00,-0.0016
2154.00,-0.0013
2153.00,-0.0011
2152.00,-0.0011
2151.00,-0.0011
2150.00,-0.0012
2149.00,-0.0012
2148.00,-0.0012
2147.00,-0.0014
2146.00,-0.0016
2145.00,-0.0016
2144.00,-0.0014
2143.00,-0.0011
2142.00,-0.0008
2141.00,-0.0006
2140.00,-0.0004
2139.00,-0.0003
2138.00,-0.0003
2137.00,-0.0003
2136.00,-0.0005
2135.00,-0.0007
2134.00,-0.0008
2133.00,-0.0008
2132.00,-0.0007
2131.00,-0.0006
2130.00,-0.0005
2129.00,-0.0003
2128.00,-0.0002
2127.00,-0.0002
2126.00,-0.0003
2125.00,-0.0003
2124.00,-0.0002
2123.00,-0.0001
2122.00,-0.0001
2121.00,-0.0001
2120.00,-0.0000
2119.00,0.0001
2118.00,0.0002
2117.00,0.0003
2116.00,0.0004
2115.00,0.0005
2114.00,0.0007
2113.00,0.0008
2112.00,0.0009
2111.00,0.0008
2110.00,0.0007
2109.00,0.0006
2108.00,0.0006
2107.00,0.0006
2106.00,0.0007
2105.00,0.0008
2104.00,0.0008
2103.00,0.0007
2102.00,0.0007
2101.00,0.0007
2100.00,0.0008
2099.00,0.0007
2098.00,0.0005
2097.00,0.0002
2096.00,0.0000
2095.00,-0.0000
2094.00,0.0000
2093.00,0.0002
2092.00,0.0003
2091.00,0.0003
2090.00,0.0004
2089.00,0.0005
2088.00,0.0006
2087.00,0.0007
2086.00,0.0008
2085.00,0.0008
2084.00,0.0008
2083.00,0.0008
2082.00,0.0007
2081.00,0.0007
2080.00,0.0008
2079.00,0.0009
2078.00,0.0010
2077.00,0.0010
2076.00,0.0010
2075.00,0.0010
2074.00,0.0010
2073.00,0.0010
2072.00,0.0010
2071.00,0.0010
2070.00,0.0009
2069.00,0.0009
2068.00,0.0007
2067.00,0.0006
2066.00,0.0005
2065.00,0.0006
2064.00,0.0006
2063.00,0.0006
2062.00,0.0006
2061.00,0.0005
2060.00,0.0005
2059.00,0.0005
2058.00,0.0006
2057.00,0.0007
2056.00,0.0006
2055.00,0.0006
2054.00,0.0007
2053.00,0.0010
2052.00,0.0014
2051.00,0.0017
2050.00,0.0017
2049.00,0.0014
2048.00,0.0012
2047.00,0.0011
2046.00,0.0010
2045.00,0.0009
2044.00,0.0009
2043.00,0.0009
2042.00,0.0009
2041.00,0.0009
2040.00,0.0009
2039.00,0.0010
2038.00,0.0010
2037.00,0.0008
2036.00,0.0005
2035.00,0.0000
2034.00,-0.0003
2033.00,-0.0004
2032.00,-0.0002
2031.00,-0.0001
2030.00,-0.0001
2029.00,-0.0001
2028.00,-0.0001
2027.00,-0.0001
2026.00,-0.0002
2025.00,-0.0003
2024.00,-0.0003
2023.00,-0.0003
2022.00,-0.0004
2021.00,-0.0007
2020.00,-0.0010
2019.00,-0.0011
2018.00,-0.0009
2017.00,-0.0006
2016.00,-0.0004
2015.00,-0.0003
2014.00,-0.0002
2013.00,0.0000
2012.00,0.0002
2011.00,0.0001
2010.00,-0.0001
2009.00,-0.0002
2008.00,-0.0003
2007.00,-0.0004
2006.00,-0.0006
2005.00,-0.0008
2004.00,-0.0009
2003.00,-0.0008
2002.00,-0.0007
2001.00,-0.0006
2000.00,-0.0007
1999.00,-0.0010
1998.00,-0.0012
1997.00,-0.0011
1996.00,-0.0008
1995.00,-0.0005
1994.00,-0.0003
1993.00,-0.0001
1992.00,0.0001
1991.00,0.0001
1990.00,0.0001
1989.00,0.0001
1988.00,0.0001
1987.00,0.0002
1986.00,0.0003
1985.00,0.0004
1984.00,0.0006
1983.00,0.0008
1982.00,0.0011
1981.00,0.0015
1980.00,0.0017
1979.00,0.0016
1978.00,0.0011
1977.00,0.0006
1976.00,0.0001
1975.00,-0.0004
1974.00,-0.0008
1973.00,-0.0010
1972.00,-0.0010
1971.00,-0.0009
1970.00,-0.0007
1969.00,-0.0005
1968.00,-0.0002
1967.00,-0.0000
1966.00,-0.0001
1965.00,-0.0003
1964.00,-0.0006
1963.00,-0.0007
1962.00,-0.0008
1961.00,-0.0007
1960.00,-0.0008
1959.00,-0.0010
1958.00,-0.0012
1957.00,-0.0014
1956.00,-0.0013
1955.00,-0.0011
1954.00,-0.0008
1953.00,-0.0006
1952.00,-0.0005
1951.00,-0.0006
1950.00,-0.0007
1949.00,-0.0008
1948.00,-0.0009
1947.00,-0.0011
1946.00,-0.0011
1945.00,-0.0011
1944.00,-0.0009
1943.00,-0.0009
1942.00,-0.0009
1941.00,-0.0010
1940.00,-0.0009
1939.00,-0.0008
1938.00,-0.0007
1937.00,-0.0007
1936.00,-0.0006
1935.00,-0.0006
1934.00,-0.0006
1933.00,-0.0006
1932.00,-0.0005
1931.00,-0.0004
1930.00,-0.0003
1929.00,-0.0003
1928.00,-0.0003
1927.00,-0.0003
1926.00,-0.0002
1925.00,-0.0002
1924.00,-0.0002
1923.00,-0.0001
1922.00,-0.0001
1921.00,-0.0001
1920.00,-0.0000
1919.00,0.0000
1918.00,0.0001
1917.00,0.0001
1916.00,0.0001
1915.00,0.0001
1914.00,0.0002
1913.00,0.0002
1912.00,0.0003
1911.00,0.0003
1910.00,0.0003
1909.00,0.0004
1908.00,0.0004
1907.00,0.0004
1906.00,0.0003
1905.00,0.0003
1904.00,0.0003
1903.00,0.0003
1902.00,0.0004
1901.00,0.0004
1900.00,0.0005
1899.00,0.0005
1898.00,0.0006
1897.00,0.0005
1896.00,0.0004
1895.00,0.0004
1894.00,0.0005
1893.00,0.0006
1892.00,0.0006
1891.00,0.0005
1890.00,0.0004
1889.00,0.0003
1888.00,0.0002
1887.00,0.0001
1886.00,0.0001
1885.00,0.0002
1884.00,0.0003
1883.00,0.0004
1882.00,0.0004
1881.00,0.0005
1880.00,0.0005
1879.00,0.0005
1878.00,0.0005
1877.00,0.0005
1876.00,0.0005
1875.00,0.0005
1874.00,0.0005
1873.00,0.0005
1872.00,0.0006
1871.00,0.0006
1870.00,0.0006
1869.00,0.0006
1868.00,0.0005
1867.00,0.0006
1866.00,0.0006
1865.00,0.0007
1864.00,0.0007
1863.00,0.0007
1862.00,0.0006
1861.00,0.0006
1860.00,0.0007
1859.00,0.0008
1858.00,0.0008
1857.00,0.0008
1856.00,0.0007
1855.00,0.0007
1854.00,0.0007
1853.00,0.0008
1852.00,0.0008
1851.00,0.0009
1850.00,0.0008
1849.00,0.0008
1848.00,0.0008
1847.00,0.0009
1846.00,0.0010
1845.00,0.0010
1844.00,0.0010
1843.00,0.0010
1842.00,0.0010
1841.00,0.0010
1840.00,0.0009
1839.00,0.0008
1838.00,0.0007
1837.00,0.0006
1836.00,0.0006
1835.00,0.0007
1834.00,0.0008
1833.00,0.0009
1832.00,0.0009
1831.00,0.0010
1830.00,0.0009
1829.00,0.0009
1828.00,0.0009
1827.00,0.0008
1826.00,0.0008
1825.00,0.0008
1824.00,0.0008
1823.00,0.0009
1822.00,0.0009
1821.00,0.0009
1820.00,0.0008
1819.00,0.0007
1818.00,0.0006
1817.00,0.0006
1816.00,0.0006
1815.00,0.0006
1814.00,0.0007
1813.00,0.0008
1812.00,0.0009
1811.00,0.0009
1810.00,0.0009
1809.00,0.0009
1808.00,0.0009
1807.00,0.0010
1806.00,0.0010
1805.00,0.0009
1804.00,0.0009
1803.00,0.0009
1802.00,0.0009
1801.00,0.0010
1800.00,0.0011
1799.00,0.0012
1798.00,0.0013
1797.00,0.0013
1796.00,0.0013
1795.00,0.0013
1794.00,0.0012
1793.00,0.0012
1792.00,0.0012
1791.00,0.0011
1790.00,0.0011
1789.00,0.0011
1788.00,0.0012
1787.00,0.0012
1786.00,0.0013
1785.00,0.0013
1784.00,0.0013
1783.00,0.0013
1782.00,0.0012
1781.00,0.0013
1780.00,0.0013
1779.00,0.0014
1778.00,0.0014
1777.00,0.0015
1776.00,0.0015
1775.00,0.0014
1774.00,0.0014
1773.00,0.0015
1772.00,0.0016
1771.00,0.0016
1770.00,0.0016
1769.00,0.0016
1768.00,0.0015
1767.00,0.0015
1766.00,0.0015
1765.00,0.0016
1764.00,0.0016
1763.00,0.0016
1762.00,0.0016
1761.00,0.0016
1760.00,0.0017
1759.00,0.0018
1758.00,0.0019
1757.00,0.0019
1756.00,0.0020
1755.00,0.0020
1754.00,0.0020
1753.00,0.0021
1752.00,0.0022
1751.00,0.0023
1750.00,0.0023
1749.00,0.0023
1748.00,0.0023
1747.00,0.0024
1746.00,0.0024
1745.00,0.0024
1744.00,0.0024
1743.00,0.0024
1742.00,0.0024
1741.00,0.0024
1740.00,0.0025
1739.00,0.0025
1738.00,0.0025
1737.00,0.0025
1736.00,0.0025
1735.00,0.0026
1734.00,0.0026
1733.00,0.0026
1732.00,0.0026
1731.00,0.0026
1730.00,0.0026
1729.00,0.0026
1728.00,0.0026
1727.00,0.0026
1726.00,0.0026
1725.00,0.0026
1724.00,0.0026
1723.00,0.0026
1722.00,0.0026
1721.00,0.0026
1720.00,0.0026
1719.00,0.0026
1718.00,0.0027
1717.00,0.0028
1716.00,0.0028
1715.00,0.0029
1714.00,0.0028
1713.00,0.0028
1712.00,0.0027
1711.00,0.0027
1710.00,0.0027
1709.00,0.0028
1708.00,0.0029
1707.00,0.0029
1706.00,0.0030
1705.00,0.0030
1704.00,0.0031
1703.00,0.0032
1702.00,0.0032
1701.00,0.0033
1700.00,0.0033
1699.00,0.0033
1698.00,0.0034
1697.00,0.0035
1696.00,0.0035
1695.00,0.0035
1694.00,0.0036
1693.00,0.0036
1692.00,0.0037
1691.00,0.0037
1690.00,0.0038
1689.00,0.0039
1688.00,0.0039
1687.00,0.0039
1686.00,0.0039
1685.00,0.0039
1684.00,0.0040
1683.00,0.0041
1682.00,0.0043
1681.00,0.0044
1680.00,0.0045
1679.00,0.0046
1678.00,0.0047
1677.00,0.0048
1676.00,0.0049
1675.00,0.0049
1674.00,0.0050
1673.00,0.0051
1672.00,0.0052
1671.00,0.0053
1670.00,0.0053
1669.00,0.0053
1668.00,0.0053
1667.00,0.0054
1666.00,0.0054
1665.00,0.0055
1664.00,0.0056
1663.00,0.0057
1662.00,0.0057
1661.00,0.0058
1660.00,0.0059
1659.00,0.0059
1658.00,0.0060
1657.00,0.0061
1656.00,0.0061
1655.00,0.0062
1654.00,0.0063
1653.00,0.0065
1652.00,0.0067
1651.00,0.0069
1650.00,0.0071
1649.00,0.0072
1648.00,0.0074
1647.00,0.0076
1646.00,0.0077
1645.00,0.0078
1644.00,0.0077
1643.00,0.0076
1642.00,0.0075
1641.00,0.0074
1640.00,0.0074
1639.00,0.0074
1638.00,0.0073
1637.00,0.0073
1636.00,0.0072
1635.00,0.0071
1634.00,0.0070
1633.00,0.0071
1632.00,0.0071
1631.00,0.0071
1630.00,0.0071
1629.00,0.0070
1628.00,0.0069
1627.00,0.0069
1626.00,0.0068
1625.00,0.0068
1624.00,0.0067
1623.00,0.0066
1622.00,0.0066
1621.00,0.0065
1620.00,0.0065
1619.00,0.0064
1618.00,0.0064
1617.00,0.0063
1616.00,0.0063
1615.00,0.0064
1614.00,0.0064
1613.00,0.0064
1612.00,0.0064
1611.00,0.0064
1610.00,0.0063
1609.00,0.0063
1608.00,0.0063
1607.00,0.0063
1606.00,0.0063
1605.00,0.0064
1604.00,0.0064
1603.00,0.0064
1602.00,0.0063
1601.00,0.0062
1600.00,0.0062
1599.00,0.0063
1598.00,0.0063
1597.00,0.0063
1596.00,0.0063
1595.00,0.0063
1594.00,0.0063
1593.00,0.0063
1592.00,0.0063
1591.00,0.0063
1590.00,0.0063
1589.00,0.0064
1588.00,0.0064
1587.00,0.0066
1586.00,0.0067
1585.00,0.0069
1584.00,0.0071
1583.00,0.0073
1582.00,0.0075
1581.00,0.0077
1580.00,0.0078
1579.00,0.0079
1578.00,0.0079
1577.00,0.0079
1576.00,0.0079
1575.00,0.0078
1574.00,0.0077
1573.00,0.0076
1572.00,0.0075
1571.00,0.0074
1570.00,0.0072
1569.00,0.0070
1568.00,0.0069
1567.00,0.0069
1566.00,0.0068
1565.00,0.0067
1564.00,0.0067
1563.00,0.0067
1562.00,0.0067
1561.00,0.0067
1560.00,0.0068
1559.00,0.0068
1558.00,0.0068
1557.00,0.0070
1556.00,0.0071
1555.00,0.0072
1554.00,0.0073
1553.00,0.0073
1552.00,0.0074
1551.00,0.0075
1550.00,0.0076
1549.00,0.0078
1548.00,0.0080
1547.00,0.0082
1546.00,0.0084
1545.00,0.0087
1544.00,0.0090
1543.00,0.0093
1542.00,0.0094
1541.00,0.0094
1540.00,0.0092
1539.00,0.0089
1538.00,0.0086
1537.00,0.0085
1536.00,0.0083
1535.00,0.0080
1534.00,0.0077
1533.00,0.0074
1532.00,0.0071
1531.00,0.0070
1530.00,0.0068
1529.00,0.0068
1528.00,0.0067
1527.00,0.0066
1526.00,0.0065
1525.00,0.0064
1524.00,0.0063
1523.00,0.0063
1522.00,0.0062
1521.00,0.0062
1520.00,0.0062
1519.00,0.0062
1518.00,0.0062
1517.00,0.0062
1516.00,0.0064
1515.00,0.0064
1514.00,0.0065
1513.00,0.0065
1512.00,0.0066
1511.00,0.0066
1510.00,0.0066
1509.00,0.0067
1508.00,0.0069
1507.00,0.0070
1506.00,0.0070
1505.00,0.0071
1504.00,0.0073
1503.00,0.0074
1502.00,0.0075
1501.00,0.0076
1500.00,0.0078
1499.00,0.0080
1498.00,0.0082
1497.00,0.0086
1496.00,0.0091
1495.00,0.0094
1494.00,0.0097
1493.00,0.0100
1492.00,0.0103
1491.00,0.0106
1490.00,0.0109
1489.00,0.0113
1488.00,0.0118
1487.00,0.0123
1486.00,0.0129
1485.00,0.0135
1484.00,0.0142
1483.00,0.0150
1482.00,0.0158
1481.00,0.0170
1480.00,0.0182
1479.00,0.0195
1478.00,0.0210
1477.00,0.0229
1476.00,0.0252
1475.00,0.0277
1474.00,0.0312
1473.00,0.0364
1472.00,0.0426
1471.00,0.0487
1470.00,0.0547
1469.00,0.0609
1468.00,0.0676
1467.00,0.0750
1466.00,0.0835
1465.00,0.0928
1464.00,0.1012
1463.00,0.1073
1462.00,0.1116
1461.00,0.1148
1460.00,0.1172
1459.00,0.1193
1458.00,0.1215
1457.00,0.1238
1456.00,0.1252
1455.00,0.1255
1454.00,0.1253
1453.00,0.1245
1452.00,0.1227
1451.00,0.1195
1450.00,0.1146
1449.00,0.1073
1448.00,0.0976
1447.00,0.0871
1446.00,0.0776
1445.00,0.0694
1444.00,0.0624
1443.00,0.0567
1442.00,0.0524
1441.00,0.0494
1440.00,0.0476
1439.00,0.0467
1438.00,0.0465
1437.00,0.0462
1436.00,0.0447
1435.00,0.0419
1434.00,0.0380
1433.00,0.0335
1432.00,0.0289
1431.00,0.0248
1430.00,0.0217
1429.00,0.0194
1428.00,0.0179
1427.00,0.0170
1426.00,0.0164
1425.00,0.0159
1424.00,0.0155
1423.00,0.0152
1422.00,0.0150
1421.00,0.0148
1420.00,0.0144
1419.00,0.0142
1418.00,0.0140
1417.00,0.0137
1416.00,0.0134
1415.00,0.0133
1414.00,0.0132
1413.00,0.0130
1412.00,0.0129
1411.00,0.0128
1410.00,0.0127
1409.00,0.0127
1408.00,0.0126
1407.00,0.0126
1406.00,0.0127
1405.00,0.0128
1404.00,0.0128
1403.00,0.0129
1402.00,0.0130
1401.00,0.0131
1400.00,0.0133
1399.00,0.0135
1398.00,0.0138
1397.00,0.0140
1396.00,0.0143
1395.00,0.0148
1394.00,0.0154
1393.00,0.0160
1392.00,0.0166
1391.00,0.0174
1390.00,0.0187
1389.00,0.0204
1388.00,0.0231
1387.00,0.0271
1386.00,0.0323
1385.00,0.0388
1384.00,0.0474
1383.00,0.0587
1382.00,0.0734
1381.00,0.0917
1380.00,0.1135
1379.00,0.1378
1378.00,0.1607
1377.00,0.1772
1376.00,0.1826
1375.00,0.1739
1374.00,0.1533
1373.00,0.1282
1372.00,0.1047
1371.00,0.0851
1370.00,0.0691
1369.00,0.0568
1368.00,0.0481
1367.00,0.0427
1366.00,0.0397
1365.00,0.0384
1364.00,0.0386
1363.00,0.0398
1362.00,0.0418
1361.00,0.0440
1360.00,0.0455
1359.00,0.0459
1358.00,0.0448
1357.00,0.0423
1356.00,0.0386
1355.00,0.0345
1354.00,0.0305
1353.00,0.0270
1352.00,0.0242
1351.00,0.0220
1350.00,0.0202
1349.00,0.0187
1348.00,0.0176
1347.00,0.0166
1346.00,0.0159
1345.00,0.0153
1344.00,0.0148
1343.00,0.0144
1342.00,0.0141
1341.00,0.0138
1340.00,0.0136
1339.00,0.0134
1338.00,0.0133
1337.00,0.0132
1336.00,0.0132
1335.00,0.0133
1334.00,0.0136
1333.00,0.0140
1332.00,0.0144
1331.00,0.0148
1330.00,0.0149
1329.00,0.0148
1328.00,0.0145
1327.00,0.0140
1326.00,0.0134
1325.00,0.0128
1324.00,0.0122
1323.00,0.0116
1322.00,0.0112
1321.00,0.0108
1320.00,0.0105
1319.00,0.0102
1318.00,0.0100
1317.00,0.0098
1316.00,0.0097
1315.00,0.0096
1314.00,0.0096
1313.00,0.0096
1312.00,0.0097
1311.00,0.0100
1310.00,0.0105
1309.00,0.0114
1308.00,0.0127
1307.00,0.0141
1306.00,0.0156
1305.00,0.0166
1304.00,0.0169
1303.00,0.0165
1302.00,0.0158
1301.00,0.0150
1300.00,0.0145
1299.00,0.0143
1298.00,0.0141
1297.00,0.0140
1296.00,0.0138
1295.00,0.0135
1294.00,0.0131
1293.00,0.0126
1292.00,0.0120
1291.00,0.0115
1290.00,0.0110
1289.00,0.0106
1288.00,0.0103
1287.00,0.0099
1286.00,0.0096
1285.00,0.0094
1284.00,0.0092
1283.00,0.0091
1282.00,0.0090
1281.00,0.0089
1280.00,0.0089
1279.00,0.0088
1278.00,0.0087
1277.00,0.0087
1276.00,0.0086
1275.00,0.0087
1274.00,0.0087
1273.00,0.0088
1272.00,0.0088
1271.00,0.0089
1270.00,0.0090
1269.00,0.0091
1268.00,0.0093
1267.00,0.0096
1266.00,0.0098
1265.00,0.0102
1264.00,0.0105
1263.00,0.0110
1262.00,0.0115
1261.00,0.0122
1260.00,0.0129
1259.00,0.0139
1258.00,0.0148
1257.00,0.0157
1256.00,0.0161
1255.00,0.0159
1254.00,0.0151
1253.00,0.0141
1252.00,0.0131
1251.00,0.0122
1250.00,0.0116
1249.00,0.0111
1248.00,0.0107
1247.00,0.0105
1246.00,0.0103
1245.00,0.0101
1244.00,0.0100
1243.00,0.0100
1242.00,0.0099
1241.00,0.0099
1240.00,0.0098
1239.00,0.0097
1238.00,0.0097
1237.00,0.0096
1236.00,0.0095
1235.00,0.0095
1234.00,0.0094
1233.00,0.0093
1232.00,0.0093
1231.00,0.0092
1230.00,0.0092
1229.00,0.0092
1228.00,0.0093
1227.00,0.0093
1226.00,0.0095
1225.00,0.0098
1224.00,0.0101
1223.00,0.0104
1222.00,0.0106
1221.00,0.0108
1220.00,0.0108
1219.00,0.0109
1218.00,0.0109
1217.00,0.0107
1216.00,0.0105
1215.00,0.0103
1214.00,0.0100
1213.00,0.0097
1212.00,0.0094
1211.00,0.0092
1210.00,0.0090
1209.00,0.0088
1208.00,0.0087
1207.00,0.0086
1206.00,0.0085
1205.00,0.0085
1204.00,0.0084
1203.00,0.0084
1202.00,0.0083
1201.00,0.0083
1200.00,0.0083
1199.00,0.0084
1198.00,0.0085
1197.00,0.0085
1196.00,0.0085
1195.00,0.0085
1194.00,0.0085
1193.00,0.0084
1192.00,0.0085
1191.00,0.0085
1190.00,0.0087
1189.00,0.0088
1188.00,0.0088
1187.00,0.0089
1186.00,0.0090
1185.00,0.0091
1184.00,0.0093
1183.00,0.0095
1182.00,0.0098
1181.00,0.0102
1180.00,0.0106
1179.00,0.0112
1178.00,0.0120
1177.00,0.0131
1176.00,0.0147
1175.00,0.0167
1174.00,0.0192
1173.00,0.0225
1172.00,0.0264
1171.00,0.0306
1170.00,0.0348
1169.00,0.0383
1168.00,0.0404
1167.00,0.0410
1166.00,0.0402
1165.00,0.0382
1164.00,0.0358
1163.00,0.0333
1162.00,0.0310
1161.00,0.0291
1160.00,0.0276
1159.00,0.0264
1158.00,0.0254
1157.00,0.0246
1156.00,0.0239
1155.00,0.0234
1154.00,0.0230
1153.00,0.0225
1152.00,0.0220
1151.00,0.0212
1150.00,0.0203
1149.00,0.0193
1148.00,0.0182
1147.00,0.0172
1146.00,0.0164
1145.00,0.0155
1144.00,0.0147
1143.00,0.0141
1142.00,0.0134
1141.00,0.0128
1140.00,0.0122
1139.00,0.0117
1138.00,0.0113
1137.00,0.0110
1136.00,0.0107
1135.00,0.0105
1134.00,0.0103
1133.00,0.0101
1132.00,0.0099
1131.00,0.0099
1130.00,0.0099
1129.00,0.0100
1128.00,0.0101
1127.00,0.0102
1126.00,0.0103
1125.00,0.0103
1124.00,0.0102
1123.00,0.0101
1122.00,0.0100
1121.00,0.0100
1120.00,0.0101
1119.00,0.0103
1118.00,0.0104
1117.00,0.0105
1116.00,0.0106
1115.00,0.0108
1114.00,0.0110
1113.00,0.0112
1112.00,0.0113
1111.00,0.0116
1110.00,0.0120
1109.00,0.0124
1108.00,0.0130
1107.00,0.0136
1106.00,0.0143
1105.00,0.0149
1104.00,0.0154
1103.00,0.0158
1102.00,0.0159
1101.00,0.0157
1100.00,0.0152
1099.00,0.0146
1098.00,0.0140
1097.00,0.0134
1096.00,0.0129
1095.00,0.0125
1094.00,0.0122
1093.00,0.0119
1092.00,0.0117
1091.00,0.0114
1090.00,0.0111
1089.00,0.0109
1088.00,0.0107
1087.00,0.0106
1086.00,0.0106
1085.00,0.0106
1084.00,0.0106
1083.00,0.0106
1082.00,0.0106
1081.00,0.0104
1080.00,0.0101
1079.00,0.0099
1078.00,0.0099
1077.00,0.0098
1076.00,0.0097
1075.00,0.0096
1074.00,0.0097
1073.00,0.0098
1072.00,0.0098
1071.00,0.0098
1070.00,0.0098
1069.00,0.0097
1068.00,0.0097
1067.00,0.0097
1066.00,0.0097
1065.00,0.0097
1064.00,0.0097
1063.00,0.0098
1062.00,0.0098
1061.00,0.0098
1060.00,0.0098
1059.00,0.0099
1058.00,0.0099
1057.00,0.0099
1056.00,0.0099
1055.00,0.0099
1054.00,0.0100
1053.00,0.0101
1052.00,0.0103
1051.00,0.0105
1050.00,0.0108
1049.00,0.0111
1048.00,0.0115
1047.00,0.0119
1046.00,0.0122
1045.00,0.0124
1044.00,0.0124
1043.00,0.0123
1042.00,0.0121
1041.00,0.0118
1040.00,0.0115
1039.00,0.0114
1038.00,0.0112
1037.00,0.0111
1036.00,0.0111
1035.00,0.0110
1034.00,0.0109
1033.00,0.0109
1032.00,0.0108
1031.00,0.0108
1030.00,0.0108
1029.00,0.0107
1028.00,0.0105
1027.00,0.0104
1026.00,0.0103
1025.00,0.0103
1024.00,0.0104
1023.00,0.0104
1022.00,0.0105
1021.00,0.0106
1020.00,0.0108
1019.00,0.0109
1018.00,0.0111
1017.00,0.0113
1016.00,0.0116
1015.00,0.0119
1014.00,0.0123
1013.00,0.0128
1012.00,0.0132
1011.00,0.0135
1010.00,0.0140
1009.00,0.0145
1008.00,0.0151
1007.00,0.0158
1006.00,0.0169
1005.00,0.0184
1004.00,0.0205
1003.00,0.0233
1002.00,0.0270
1001.00,0.0315
1000.00,0.0363
999.00,0.0406
998.00,0.0429
997.00,0.0425
996.00,0.0395
995.00,0.0347
994.00,0.0295
993.00,0.0248
992.00,0.0210
991.00,0.0182
990.00,0.0162
989.00,0.0148
988.00,0.0140
987.00,0.0135
986.00,0.0133
985.00,0.0134
984.00,0.0138
983.00,0.0146
982.00,0.0159
981.00,0.0178
980.00,0.0204
979.00,0.0237
978.00,0.0280
977.00,0.0332
976.00,0.0390
975.00,0.0449
974.00,0.0496
973.00,0.0520
972.00,0.0510
971.00,0.0469
970.00,0.0408
969.00,0.0342
968.00,0.0282
967.00,0.0235
966.00,0.0199
965.00,0.0174
964.00,0.0155
963.00,0.0141
962.00,0.0131
961.00,0.0124
960.00,0.0118
959.00,0.0113
958.00,0.0109
957.00,0.0106
956.00,0.0102
955.00,0.0100
954.00,0.0098
953.00,0.0096
952.00,0.0095
951.00,0.0094
950.00,0.0094
949.00,0.0094
948.00,0.0093
947.00,0.0094
946.00,0.0094
945.00,0.0096
944.00,0.0099
943.00,0.0103
942.00,0.0106
941.00,0.0107
940.00,0.0106
939.00,0.0102
938.00,0.0098
937.00,0.0092
936.00,0.0087
935.00,0.0083
934.00,0.0079
933.00,0.0076
932.00,0.0073
931.00,0.0070
930.00,0.0069
929.00,0.0068
928.00,0.0068
927.00,0.0068
926.00,0.0068
925.00,0.0069
924.00,0.0069
923.00,0.0070
922.00,0.0070
921.00,0.0071
920.00,0.0071
919.00,0.0072
918.00,0.0074
917.00,0.0075
916.00,0.0076
915.00,0.0076
914.00,0.0076
913.00,0.0076
912.00,0.0076
911.00,0.0076
910.00,0.0077
909.00,0.0079
908.00,0.0082
907.00,0.0087
906.00,0.0094
905.00,0.0104
904.00,0.0118
903.00,0.0135
902.00,0.0154
901.00,0.0172
900.00,0.0184
899.00,0.0187
898.00,0.0180
897.00,0.0165
896.00,0.0147
895.00,0.0130
894.00,0.0116
893.00,0.0105
892.00,0.0097
891.00,0.0090
890.00,0.0086
889.00,0.0082
888.00,0.0080
887.00,0.0078
886.00,0.0077
885.00,0.0077
884.00,0.0077
883.00,0.0078
882.00,0.0078
881.00,0.0078
880.00,0.0078
879.00,0.0078
878.00,0.0077
877.00,0.0076
876.00,0.0076
875.00,0.0076
874.00,0.0077
873.00,0.0078
872.00,0.0078
871.00,0.0077
870.00,0.0077
869.00,0.0078
868.00,0.0080
867.00,0.0082
866.00,0.0083
865.00,0.0083
864.00,0.0083
863.00,0.0084
862.00,0.0085
861.00,0.0087
860.00,0.0090
859.00,0.0092
858.00,0.0093
857.00,0.0095
856.00,0.0096
855.00,0.0099
854.00,0.0101
853.00,0.0103
852.00,0.0106
851.00,0.0112
850.00,0.0120
849.00,0.0130
848.00,0.0144
847.00,0.0164
846.00,0.0194
845.00,0.0237
844.00,0.0296
843.00,0.0362
842.00,0.0415
841.00,0.0433
840.00,0.0408
839.00,0.0352
838.00,0.0290
837.00,0.0239
836.00,0.0204
835.00,0.0182
834.00,0.0167
833.00,0.0157
832.00,0.0149
831.00,0.0142
830.00,0.0137
829.00,0.0132
828.00,0.0129
827.00,0.0127
826.00,0.0127
825.00,0.0126
824.00,0.0125
823.00,0.0123
822.00,0.0122
821.00,0.0122
820.00,0.0123
819.00,0.0124
818.00,0.0126
817.00,0.0130
816.00,0.0137
815.00,0.0146
814.00,0.0159
813.00,0.0175
812.00,0.0191
811.00,0.0205
810.00,0.0215
809.00,0.0220
808.00,0.0219
807.00,0.0212
806.00,0.0198
805.00,0.0182
804.00,0.0167
803.00,0.0153
802.00,0.0142
801.00,0.0133
800.00,0.0126
799.00,0.0120
798.00,0.0116
797.00,0.0111
796.00,0.0106
795.00,0.0102
794.00,0.0098
793.00,0.0096
792.00,0.0094
791.00,0.0092
790.00,0.0091
789.00,0.0090
788.00,0.0089
787.00,0.0087
786.00,0.0083
785.00,0.0080
784.00,0.0076
783.00,0.0073
782.00,0.0070
781.00,0.0068
780.00,0.0067
779.00,0.0067
778.00,0.0067
777.00,0.0068
776.00,0.0070
775.00,0.0072
774.00,0.0075
773.00,0.0079
772.00,0.0082
771.00,0.0086
770.00,0.0089
769.00,0.0091
768.00,0.0091
767.00,0.0090
766.00,0.0088
765.00,0.0086
764.00,0.0084
763.00,0.0081
762.00,0.0077
761.00,0.0074
760.00,0.0070
759.00,0.0066
758.00,0.0063
757.00,0.0061
756.00,0.0060
755.00,0.0059
754.00,0.0059
753.00,0.0060
752.00,0.0061
751.00,0.0062
750.00,0.0062
749.00,0.0062
748.00,0.0062
747.00,0.0061
746.00,0.0061
745.00,0.0060
744.00,0.0060
743.00,0.0061
742.00,0.0063
741.00,0.0065
740.00,0.0066
739.00,0.0067
738.00,0.0069
737.00,0.0072
736.00,0.0073
735.00,0.0074
734.00,0.0073
733.00,0.0073
732.00,0.0073
731.00,0.0073
730.00,0.0073
729.00,0.0072
728.00,0.0071
727.00,0.0071
726.00,0.0071
725.00,0.0071
724.00,0.0070
723.00,0.0069
722.00,0.0068
721.00,0.0067
720.00,0.0067
719.00,0.0067
718.00,0.0067
717.00,0.0067
716.00,0.0067
715.00,0.0067
714.00,0.0066
713.00,0.0064
712.00,0.0062
711.00,0.0061
710.00,0.0060
709.00,0.0059
708.00,0.0059
707.00,0.0060
706.00,0.0061
705.00,0.0062
704.00,0.0063
703.00,0.0064
702.00,0.0064
701.00,0.0063
700.00,0.0062
699.00,0.0060
698.00,0.0059
697.00,0.0059
696.00,0.0059
695.00,0.0059
694.00,0.0059
693.00,0.0058
692.00,0.0058
691.00,0.0059
690.00,0.0061
689.00,0.0064
688.00,0.0064
687.00,0.0064
686.00,0.0062
685.00,0.0060
684.00,0.0059
683.00,0.0059
682.00,0.0059
681.00,0.0060
680.00,0.0061
679.00,0.0063
678.00,0.0064
677.00,0.0063
676.00,0.0060
675.00,0.0058
674.00,0.0056
673.00,0.0057
672.00,0.0059
671.00,0.0062
670.00,0.0064
669.00,0.0065
668.00,0.0066
667.00,0.0066
666.00,0.0065
665.00,0.0064
664.00,0.0062
663.00,0.0062
662.00,0.0063
661.00,0.0064
660.00,0.0065
659.00,0.0064
658.00,0.0062
657.00,0.0061
656.00,0.0062
655.00,0.0062
654.00,0.0061
653.00,0.0059
652.00,0.0057
651.00,0.0057
650.00,0.0056
649.00,0.0056
648.00,0.0056
647.00,0.0058
646.00,0.0060
645.00,0.0061
644.00,0.0061
643.00,0.0059
642.00,0.0058
641.00,0.0058
640.00,0.0060
639.00,0.0062
638.00,0.0065
637.00,0.0066
636.00,0.0065
635.00,0.0063
634.00,0.0062
633.00,0.0063
632.00,0.0065
631.00,0.0067
630.00,0.0068
629.00,0.0068
628.00,0.0067
627.00,0.0065
626.00,0.0063
625.00,0.0063
624.00,0.0063
623.00,0.0064
622.00,0.0064
621.00,0.0063
620.00,0.0061
619.00,0.0059
618.00,0.0058
617.00,0.0060
616.00,0.0061
615.00,0.0063
614.00,0.0063
613.00,0.0064
612.00,0.0065
611.00,0.0066
610.00,0.0067
609.00,0.0068
608.00,0.0067
607.00,0.0065
606.00,0.0063
605.00,0.0061
604.00,0.0061
603.00,0.0062
602.00,0.0064
601.00,0.0066
600.00,0.0067
599.00,0.0067
598.00,0.0066
597.00,0.0066
596.00,0.0067
595.00,0.0068
594.00,0.0068
593.00,0.0067
592.00,0.0066
591.00,0.0067
590.00,0.0069
589.00,0.0070
588.00,0.0068
587.00,0.0065
586.00,0.0062
585.00,0.0061
584.00,0.0062
583.00,0.0065
582.00,0.0068
581.00,0.0068
580.00,0.0067
579.00,0.0065
578.00,0.0065
577.00,0.0065
576.00,0.0066
575.00,0.0065
574.00,0.0065
573.00,0.0064
572.00,0.0064
571.00,0.0064
570.00,0.0064
569.00,0.0065
568.00,0.0066
567.00,0.0067
566.00,0.0068
565.00,0.0069
564.00,0.0069
563.00,0.0068
562.00,0.0068
561.00,0.0068
560.00,0.0069
559.00,0.0070
558.00,0.0070
557.00,0.0070
556.00,0.0068
555.00,0.0066
554.00,0.0066
553.00,0.0067
552.00,0.0070
551.00,0.0072
550.00,0.0072
549.00,0.0071
548.00,0.0068
547.00,0.0065
546.00,0.0063
545.00,0.0063
544.00,0.0065
543.00,0.0070
542.00,0.0073
541.00,0.0075
540.00,0.0075
539.00,0.0076
538.00,0.0077
537.00,0.0078
536.00,0.0078
535.00,0.0080
534.00,0.0083
533.00,0.0086
532.00,0.0087
531.00,0.0087
530.00,0.0086
529.00,0.0085
528.00,0.0084
527.00,0.0085
526.00,0.0087
525.00,0.0090
524.00,0.0093
523.00,0.0095
522.00,0.0094
521.00,0.0091
520.00,0.0085
519.00,0.0079
518.00,0.0074
517.00,0.0070
516.00,0.0069
515.00,0.0070
514.00,0.0074
513.00,0.0076
512.00,0.0072
511.00,0.0065
510.00,0.0059
509.00,0.0059
508.00,0.0063
507.00,0.0066
506.00,0.0067
505.00,0.0068
504.00,0.0069
503.00,0.0070
502.00,0.0067
501.00,0.0061
500.00,0.0054
499.00,0.0050
498.00,0.0051
497.00,0.0054
496.00,0.0056
495.00,0.0058
494.00,0.0060
493.00,0.0062
492.00,0.0063
491.00,0.0062
490.00,0.0058
489.00,0.0055
488.00,0.0052
487.00,0.0050
486.00,0.0046
485.00,0.0043
484.00,0.0044
483.00,0.0051
482.00,0.0060
481.00,0.0065
480.00,0.0067
479.00,0.0070
478.00,0.0078
477.00,0.0084
476.00,0.0085
475.00,0.0080
474.00,0.0076
473.00,0.0077
472.00,0.0083
471.00,0.0089
470.00,0.0092
469.00,0.0090
468.00,0.0090
467.00,0.0095
466.00,0.0107
465.00,0.0120
464.00,0.0130
463.00,0.0140
462.00,0.0151
461.00,0.0162
460.00,0.0168
459.00,0.0165
458.00,0.0153
457.00,0.0141
456.00,0.0136
455.00,0.0138
454.00,0.0142
453.00,0.0144
452.00,0.0145
451.00,0.0137
450.00,0.0127
