Created as New Dataset,Sample 112 By Administrator Date Tuesday, September 09 2025
cm-1,A
4000.00,0.0007
3999.00,0.0007
3998.00,0.0006
3997.00,0.0006
3996.00,0.0006
3995.00,0.0006
3994.00,0.0006
3993.00,0.0006
3992.00,0.0006
3991.00,0.0006
3990.00,0.0006
3989.00,0.0006
3988.00,0.0006
3987.00,0.0006
3986.00,0.0006
3985.00,0.0006
3984.00,0.0006
3983.00,0.0006
3982.00,0.0006
3981.00,0.0006
3980.00,0.0006
3979.00,0.0006
3978.00,0.0006
3977.00,0.0006
3976.00,0.0005
3975.00,0.0005
3974.00,0.0005
3973.00,0.0005
3972.00,0.0005
3971.00,0.0005
3970.00,0.0005
3969.00,0.0005
3968.00,0.0005
3967.00,0.0004
3966.00,0.0004
3965.00,0.0004
3964.00,0.0003
3963.00,0.0004
3962.00,0.0004
3961.00,0.0004
3960.00,0.0005
3959.00,0.0005
3958.00,0.0005
3957.00,0.0004
3956.00,0.0004
3955.00,0.0004
3954.00,0.0004
3953.00,0.0004
3952.00,0.0004
3951.00,0.0004
3950.00,0.0004
3949.00,0.0004
3948.00,0.0004
3947.00,0.0004
3946.00,0.0004
3945.00,0.0004
3944.00,0.0004
3943.00,0.0005
3942.00,0.0005
3941.00,0.0005
3940.00,0.0005
3939.00,0.0005
3938.00,0.0005
3937.00,0.0005
3936.00,0.0005
3935.00,0.0005
3934.00,0.0005
3933.00,0.0005
3932.00,0.0006
3931.00,0.0006
3930.00,0.0005
3929.00,0.0005
3928.00,0.0005
3927.00,0.0005
3926.00,0.0005
3925.00,0.0005
3924.00,0.0005
3923.00,0.0005
3922.00,0.0005
3921.00,0.0005
3920.00,0.0005
3919.00,0.0005
3918.00,0.0004
3917.00,0.0004
3916.00,0.0004
3915.00,0.0004
3914.00,0.0004
3913.00,0.0004
3912.00,0.0004
3911.00,0.0005
3910.00,0.0005
3909.00,0.0005
3908.00,0.0005
3907.00,0.0005
3906.00,0.0005
3905.00,0.0005
3904.00,0.0005
3903.00,0.0005
3902.00,0.0005
3901.00,0.0005
3900.00,0.0005
3899.00,0.0005
3898.00,0.0006
3897.00,0.0005
3896.00,0.0005
3895.00,0.0005
3894.00,0.0005
3893.00,0.0005
3892.00,0.0005
3891.00,0.0005
3890.00,0.0005
3889.00,0.0004
3888.00,0.0004
3887.00,0.0004
3886.00,0.0004
3885.00,0.0004
3884.00,0.0003
3883.00,0.0003
3882.00,0.0003
3881.00,0.0004
3880.00,0.0004
3879.00,0.0005
3878.00,0.0005
3877.00,0.0004
3876.00,0.0005
3875.00,0.0005
3874.00,0.0005
3873.00,0.0005
3872.00,0.0004
3871.00,0.0004
3870.00,0.0004
3869.00,0.0004
3868.00,0.0004
3867.00,0.0003
3866.00,0.0003
3865.00,0.0004
3864.00,0.0004
3863.00,0.0004
3862.00,0.0004
3861.00,0.0004
3860.00,0.0004
3859.00,0.0005
3858.00,0.0005
3857.00,0.0005
3856.00,0.0005
3855.00,0.0004
3854.00,0.0005
3853.00,0.0004
3852.00,0.0004
3851.00,0.0004
3850.00,0.0004
3849.00,0.0004
3848.00,0.0004
3847.00,0.0004
3846.00,0.0004
3845.00,0.0004
3844.00,0.0005
3843.00,0.0005
3842.00,0.0005
3841.00,0.0004
3840.00,0.0005
3839.00,0.0005
3838.00,0.0005
3837.00,0.0005
3836.00,0.0005
3835.00,0.0004
3834.00,0.0004
3833.00,0.0004
3832.00,0.0004
3831.00,0.0004
3830.00,0.0004
3829.00,0.0004
3828.00,0.0004
3827.00,0.0004
3826.00,0.0004
3825.00,0.0004
3824.00,0.0004
3823.00,0.0004
3822.00,0.0004
3821.00,0.0005
3820.00,0.0005
3819.00,0.0004
3818.00,0.0004
3817.00,0.0004
3816.00,0.0005
3815.00,0.0005
3814.00,0.0005
3813.00,0.0005
3812.00,0.0005
3811.00,0.0006
3810.00,0.0006
3809.00,0.0006
3808.00,0.0006
3807.00,0.0006
3806.00,0.0005
3805.00,0.0005
3804.00,0.0004
3803.00,0.0003
3802.00,0.0004
3801.00,0.0004
3800.00,0.0003
3799.00,0.0003
3798.00,0.0003
3797.00,0.0003
3796.00,0.0003
3795.00,0.0004
3794.00,0.0004
3793.00,0.0004
3792.00,0.0004
3791.00,0.0005
3790.00,0.0005
3789.00,0.0005
3788.00,0.0005
3787.00,0.0004
3786.00,0.0004
3785.00,0.0004
3784.00,0.0004
3783.00,0.0004
3782.00,0.0003
3781.00,0.0003
3780.00,0.0003
3779.00,0.0003
3778.00,0.0003
3777.00,0.0004
3776.00,0.0004
3775.00,0.0004
3774.00,0.0005
3773.00,0.0005
3772.00,0.0005
3771.00,0.0005
3770.00,0.0005
3769.00,0.0004
3768.00,0.0004
3767.00,0.0004
3766.00,0.0005
3765.00,0.0005
3764.00,0.0006
3763.00,0.0006
3762.00,0.0006
3761.00,0.0006
3760.00,0.0006
3759.00,0.0005
3758.00,0.0005
3757.00,0.0005
3756.00,0.0005
3755.00,0.0005
3754.00,0.0005
3753.00,0.0005
3752.00,0.0005
3751.00,0.0004
3750.00,0.0004
3749.00,0.0005
3748.00,0.0005
3747.00,0.0004
3746.00,0.0004
3745.00,0.0004
3744.00,0.0005
3743.00,0.0005
3742.00,0.0004
3741.00,0.0005
3740.00,0.0005
3739.00,0.0005
3738.00,0.0004
3737.00,0.0004
3736.00,0.0004
3735.00,0.0004
3734.00,0.0004
3733.00,0.0004
3732.00,0.0004
3731.00,0.0005
3730.00,0.0005
3729.00,0.0004
3728.00,0.0004
3727.00,0.0004
3726.00,0.0004
3725.00,0.0003
3724.00,0.0004
3723.00,0.0004
3722.00,0.0005
3721.00,0.0005
3720.00,0.0005
3719.00,0.0005
3718.00,0.0004
3717.00,0.0004
3716.00,0.0004
3715.00,0.0004
3714.00,0.0003
3713.00,0.0003
3712.00,0.0003
3711.00,0.0003
3710.00,0.0003
3709.00,0.0002
3708.00,0.0002
3707.00,0.0002
3706.00,0.0002
3705.00,0.0002
3704.00,0.0002
3703.00,0.0002
3702.00,0.0002
3701.00,0.0002
3700.00,0.0002
3699.00,0.0002
3698.00,0.0003
3697.00,0.0003
3696.00,0.0003
3695.00,0.0003
3694.00,0.0003
3693.00,0.0003
3692.00,0.0003
3691.00,0.0003
3690.00,0.0003
3689.00,0.0003
3688.00,0.0003
3687.00,0.0003
3686.00,0.0003
3685.00,0.0003
3684.00,0.0003
3683.00,0.0003
3682.00,0.0003
3681.00,0.0003
3680.00,0.0003
3679.00,0.0004
3678.00,0.0004
3677.00,0.0004
3676.00,0.0004
3675.00,0.0004
3674.00,0.0004
3673.00,0.0003
3672.00,0.0003
3671.00,0.0004
3670.00,0.0004
3669.00,0.0004
3668.00,0.0004
3667.00,0.0003
3666.00,0.0003
3665.00,0.0003
3664.00,0.0003
3663.00,0.0003
3662.00,0.0003
3661.00,0.0003
3660.00,0.0003
3659.00,0.0003
3658.00,0.0003
3657.00,0.0003
3656.00,0.0003
3655.00,0.0003
3654.00,0.0003
3653.00,0.0003
3652.00,0.0003
3651.00,0.0003
3650.00,0.0003
3649.00,0.0002
3648.00,0.0002
3647.00,0.0002
3646.00,0.0002
3645.00,0.0002
3644.00,0.0002
3643.00,0.0002
3642.00,0.0002
3641.00,0.0002
3640.00,0.0002
3639.00,0.0003
3638.00,0.0003
3637.00,0.0003
3636.00,0.0004
3635.00,0.0004
3634.00,0.0004
3633.00,0.0003
3632.00,0.0003
3631.00,0.0003
3630.00,0.0003
3629.00,0.0004
3628.00,0.0004
3627.00,0.0003
3626.00,0.0003
3625.00,0.0003
3624.00,0.0003
3623.00,0.0003
3622.00,0.0004
3621.00,0.0005
3620.00,0.0005
3619.00,0.0005
3618.00,0.0004
3617.00,0.0003
3616.00,0.0003
3615.00,0.0002
3614.00,0.0003
3613.00,0.0004
3612.00,0.0004
3611.00,0.0005
3610.00,0.0005
3609.00,0.0006
3608.00,0.0006
3607.00,0.0005
3606.00,0.0005
3605.00,0.0004
3604.00,0.0004
3603.00,0.0004
3602.00,0.0004
3601.00,0.0005
3600.00,0.0005
3599.00,0.0006
3598.00,0.0006
3597.00,0.0006
3596.00,0.0005
3595.00,0.0005
3594.00,0.0005
3593.00,0.0005
3592.00,0.0005
3591.00,0.0005
3590.00,0.0006
3589.00,0.0006
3588.00,0.0007
3587.00,0.0007
3586.00,0.0007
3585.00,0.0007
3584.00,0.0007
3583.00,0.0007
3582.00,0.0007
3581.00,0.0007
3580.00,0.0007
3579.00,0.0007
3578.00,0.0007
3577.00,0.0007
3576.00,0.0007
3575.00,0.0007
3574.00,0.0008
3573.00,0.0008
3572.00,0.0009
3571.00,0.0009
3570.00,0.0009
3569.00,0.0010
3568.00,0.0010
3567.00,0.0010
3566.00,0.0010
3565.00,0.0010
3564.00,0.0010
3563.00,0.0010
3562.00,0.0011
3561.00,0.0011
3560.00,0.0011
3559.00,0.0011
3558.00,0.0010
3557.00,0.0010
3556.00,0.0011
3555.00,0.0011
3554.00,0.0012
3553.00,0.0012
3552.00,0.0013
3551.00,0.0013
3550.00,0.0013
3549.00,0.0013
3548.00,0.0013
3547.00,0.0013
3546.00,0.0014
3545.00,0.0014
3544.00,0.0014
3543.00,0.0013
3542.00,0.0013
3541.00,0.0013
3540.00,0.0014
3539.00,0.0014
3538.00,0.0014
3537.00,0.0014
3536.00,0.0015
3535.00,0.0015
3534.00,0.0015
3533.00,0.0015
3532.00,0.0015
3531.00,0.0015
3530.00,0.0016
3529.00,0.0016
3528.00,0.0016
3527.00,0.0016
3526.00,0.0016
3525.00,0.0016
3524.00,0.0016
3523.00,0.0016
3522.00,0.0016
3521.00,0.0015
3520.00,0.0015
3519.00,0.0015
3518.00,0.0016
3517.00,0.0016
3516.00,0.0016
3515.00,0.0017
3514.00,0.0017
3513.00,0.0018
3512.00,0.0018
3511.00,0.0018
3510.00,0.0019
3509.00,0.0019
3508.00,0.0019
3507.00,0.0019
3506.00,0.0019
3505.00,0.0019
3504.00,0.0019
3503.00,0.0020
3502.00,0.0020
3501.00,0.0020
3500.00,0.0021
3499.00,0.0020
3498.00,0.0020
3497.00,0.0020
3496.00,0.0020
3495.00,0.0020
3494.00,0.0021
3493.00,0.0022
3492.00,0.0022
3491.00,0.0022
3490.00,0.0022
3489.00,0.0022
3488.00,0.0022
3487.00,0.0022
3486.00,0.0022
3485.00,0.0022
3484.00,0.0022
3483.00,0.0023
3482.00,0.0023
3481.00,0.0023
3480.00,0.0023
3479.00,0.0023
3478.00,0.0023
3477.00,0.0024
3476.00,0.0024
3475.00,0.0024
3474.00,0.0024
3473.00,0.0024
3472.00,0.0024
3471.00,0.0024
3470.00,0.0025
3469.00,0.0025
3468.00,0.0025
3467.00,0.0025
3466.00,0.0025
3465.00,0.0025
3464.00,0.0025
3463.00,0.0026
3462.00,0.0026
3461.00,0.0027
3460.00,0.0027
3459.00,0.0028
3458.00,0.0028
3457.00,0.0028
3456.00,0.0028
3455.00,0.0027
3454.00,0.0028
3453.00,0.0028
3452.00,0.0028
3451.00,0.0028
3450.00,0.0028
3449.00,0.0027
3448.00,0.0028
3447.00,0.0028
3446.00,0.0029
3445.00,0.0029
3444.00,0.0030
3443.00,0.0030
3442.00,0.0030
3441.00,0.0030
3440.00,0.0030
3439.00,0.0030
3438.00,0.0030
3437.00,0.0030
3436.00,0.0030
3435.00,0.0031
3434.00,0.0031
3433.00,0.0031
3432.00,0.0032
3431.00,0.0032
3430.00,0.0033
3429.00,0.0033
3428.00,0.0033
3427.00,0.0033
3426.00,0.0033
3425.00,0.0033
3424.00,0.0033
3423.00,0.0033
3422.00,0.0033
3421.00,0.0033
3420.00,0.0033
3419.00,0.0033
3418.00,0.0033
3417.00,0.0034
3416.00,0.0034
3415.00,0.0035
3414.00,0.0035
3413.00,0.0035
3412.00,0.0035
3411.00,0.0036
3410.00,0.0036
3409.00,0.0036
3408.00,0.0036
3407.00,0.0036
3406.00,0.0037
3405.00,0.0037
3404.00,0.0037
3403.00,0.0037
3402.00,0.0037
3401.00,0.0037
3400.00,0.0037
3399.00,0.0038
3398.00,0.0038
3397.00,0.0039
3396.00,0.0039
3395.00,0.0039
3394.00,0.0039
3393.00,0.0039
3392.00,0.0039
3391.00,0.0039
3390.00,0.0039
3389.00,0.0039
3388.00,0.0039
3387.00,0.0039
3386.00,0.0038
3385.00,0.0038
3384.00,0.0038
3383.00,0.0038
3382.00,0.0038
3381.00,0.0038
3380.00,0.0038
3379.00,0.0038
3378.00,0.0038
3377.00,0.0038
3376.00,0.0038
3375.00,0.0038
3374.00,0.0038
3373.00,0.0038
3372.00,0.0038
3371.00,0.0039
3370.00,0.0040
3369.00,0.0040
3368.00,0.0040
3367.00,0.0040
3366.00,0.0040
3365.00,0.0039
3364.00,0.0039
3363.00,0.0039
3362.00,0.0039
3361.00,0.0039
3360.00,0.0040
3359.00,0.0040
3358.00,0.0040
3357.00,0.0040
3356.00,0.0040
3355.00,0.0040
3354.00,0.0040
3353.00,0.0040
3352.00,0.0040
3351.00,0.0040
3350.00,0.0040
3349.00,0.0041
3348.00,0.0041
3347.00,0.0041
3346.00,0.0041
3345.00,0.0041
3344.00,0.0041
3343.00,0.0041
3342.00,0.0040
3341.00,0.0040
3340.00,0.0040
3339.00,0.0039
3338.00,0.0039
3337.00,0.0039
3336.00,0.0039
3335.00,0.0039
3334.00,0.0040
3333.00,0.0040
3332.00,0.0040
3331.00,0.0040
3330.00,0.0040
3329.00,0.0040
3328.00,0.0040
3327.00,0.0040
3326.00,0.0040
3325.00,0.0040
3324.00,0.0040
3323.00,0.0040
3322.00,0.0040
3321.00,0.0039
3320.00,0.0039
3319.00,0.0039
3318.00,0.0039
3317.00,0.0039
3316.00,0.0039
3315.00,0.0039
3314.00,0.0040
3313.00,0.0040
3312.00,0.0040
3311.00,0.0040
3310.00,0.0040
3309.00,0.0040
3308.00,0.0039
3307.00,0.0039
3306.00,0.0039
3305.00,0.0039
3304.00,0.0039
3303.00,0.0040
3302.00,0.0040
3301.00,0.0040
3300.00,0.0040
3299.00,0.0040
3298.00,0.0040
3297.00,0.0040
3296.00,0.0040
3295.00,0.0040
3294.00,0.0040
3293.00,0.0040
3292.00,0.0040
3291.00,0.0040
3290.00,0.0041
3289.00,0.0041
3288.00,0.0040
3287.00,0.0040
3286.00,0.0039
3285.00,0.0039
3284.00,0.0039
3283.00,0.0039
3282.00,0.0039
3281.00,0.0038
3280.00,0.0038
3279.00,0.0038
3278.00,0.0038
3277.00,0.0038
3276.00,0.0038
3275.00,0.0038
3274.00,0.0038
3273.00,0.0037
3272.00,0.0037
3271.00,0.0037
3270.00,0.0037
3269.00,0.0037
3268.00,0.0038
3267.00,0.0037
3266.00,0.0037
3265.00,0.0037
3264.00,0.0036
3263.00,0.0035
3262.00,0.0035
3261.00,0.0035
3260.00,0.0035
3259.00,0.0035
3258.00,0.0035
3257.00,0.0035
3256.00,0.0035
3255.00,0.0035
3254.00,0.0035
3253.00,0.0035
3252.00,0.0035
3251.00,0.0034
3250.00,0.0034
3249.00,0.0034
3248.00,0.0034
3247.00,0.0034
3246.00,0.0033
3245.00,0.0033
3244.00,0.0034
3243.00,0.0034
3242.00,0.0034
3241.00,0.0034
3240.00,0.0034
3239.00,0.0033
3238.00,0.0033
3237.00,0.0033
3236.00,0.0033
3235.00,0.0034
3234.00,0.0034
3233.00,0.0034
3232.00,0.0034
3231.00,0.0034
3230.00,0.0034
3229.00,0.0034
3228.00,0.0035
3227.00,0.0035
3226.00,0.0035
3225.00,0.0035
3224.00,0.0035
3223.00,0.0035
3222.00,0.0036
3221.00,0.0036
3220.00,0.0036
3219.00,0.0036
3218.00,0.0036
3217.00,0.0037
3216.00,0.0037
3215.00,0.0037
3214.00,0.0037
3213.00,0.0037
3212.00,0.0038
3211.00,0.0038
3210.00,0.0038
3209.00,0.0038
3208.00,0.0038
3207.00,0.0039
3206.00,0.0039
3205.00,0.0039
3204.00,0.0039
3203.00,0.0040
3202.00,0.0040
3201.00,0.0040
3200.00,0.0040
3199.00,0.0040
3198.00,0.0040
3197.00,0.0040
3196.00,0.0040
3195.00,0.0040
3194.00,0.0040
3193.00,0.0040
3192.00,0.0039
3191.00,0.0039
3190.00,0.0039
3189.00,0.0039
3188.00,0.0039
3187.00,0.0039
3186.00,0.0039
3185.00,0.0039
3184.00,0.0039
3183.00,0.0039
3182.00,0.0039
3181.00,0.0039
3180.00,0.0038
3179.00,0.0038
3178.00,0.0037
3177.00,0.0037
3176.00,0.0036
3175.00,0.0036
3174.00,0.0035
3173.00,0.0035
3172.00,0.0035
3171.00,0.0035
3170.00,0.0035
3169.00,0.0034
3168.00,0.0034
3167.00,0.0034
3166.00,0.0034
3165.00,0.0034
3164.00,0.0034
3163.00,0.0034
3162.00,0.0033
3161.00,0.0033
3160.00,0.0033
3159.00,0.0033
3158.00,0.0033
3157.00,0.0033
3156.00,0.0033
3155.00,0.0033
3154.00,0.0033
3153.00,0.0033
3152.00,0.0032
3151.00,0.0032
3150.00,0.0032
3149.00,0.0032
3148.00,0.0032
3147.00,0.0033
3146.00,0.0033
3145.00,0.0033
3144.00,0.0033
3143.00,0.0032
3142.00,0.0032
3141.00,0.0032
3140.00,0.0032
3139.00,0.0032
3138.00,0.0031
3137.00,0.0031
3136.00,0.0031
3135.00,0.0031
3134.00,0.0030
3133.00,0.0030
3132.00,0.0030
3131.00,0.0030
3130.00,0.0029
3129.00,0.0030
3128.00,0.0030
3127.00,0.0030
3126.00,0.0029
3125.00,0.0029
3124.00,0.0029
3123.00,0.0029
3122.00,0.0028
3121.00,0.0028
3120.00,0.0027
3119.00,0.0027
3118.00,0.0027
3117.00,0.0027
3116.00,0.0026
3115.00,0.0026
3114.00,0.0027
3113.00,0.0027
3112.00,0.0026
3111.00,0.0026
3110.00,0.0026
3109.00,0.0026
3108.00,0.0025
3107.00,0.0025
3106.00,0.0025
3105.00,0.0025
3104.00,0.0025
3103.00,0.0025
3102.00,0.0025
3101.00,0.0025
3100.00,0.0025
3099.00,0.0024
3098.00,0.0024
3097.00,0.0024
3096.00,0.0023
3095.00,0.0024
3094.00,0.0024
3093.00,0.0024
3092.00,0.0024
3091.00,0.0024
3090.00,0.0024
3089.00,0.0024
3088.00,0.0024
3087.00,0.0024
3086.00,0.0024
3085.00,0.0024
3084.00,0.0025
3083.00,0.0024
3082.00,0.0024
3081.00,0.0024
3080.00,0.0024
3079.00,0.0025
3078.00,0.0025
3077.00,0.0025
3076.00,0.0025
3075.00,0.0025
3074.00,0.0024
3073.00,0.0024
3072.00,0.0024
3071.00,0.0024
3070.00,0.0023
3069.00,0.0023
3068.00,0.0024
3067.00,0.0024
3066.00,0.0025
3065.00,0.0025
3064.00,0.0026
3063.00,0.0026
3062.00,0.0026
3061.00,0.0026
3060.00,0.0026
3059.00,0.0027
3058.00,0.0027
3057.00,0.0027
3056.00,0.0027
3055.00,0.0027
3054.00,0.0027
3053.00,0.0027
3052.00,0.0028
3051.00,0.0028
3050.00,0.0028
3049.00,0.0028
3048.00,0.0028
3047.00,0.0028
3046.00,0.0028
3045.00,0.0028
3044.00,0.0029
3043.00,0.0029
3042.00,0.0029
3041.00,0.0029
3040.00,0.0029
3039.00,0.0029
3038.00,0.0030
3037.00,0.0030
3036.00,0.0030
3035.00,0.0031
3034.00,0.0031
3033.00,0.0032
3032.00,0.0032
3031.00,0.0033
3030.00,0.0033
3029.00,0.0034
3028.00,0.0034
3027.00,0.0034
3026.00,0.0035
3025.00,0.0036
3024.00,0.0037
3023.00,0.0037
3022.00,0.0038
3021.00,0.0039
3020.00,0.0040
3019.00,0.0040
3018.00,0.0041
3017.00,0.0041
3016.00,0.0042
3015.00,0.0043
3014.00,0.0045
3013.00,0.0046
3012.00,0.0048
3011.00,0.0049
3010.00,0.0050
3009.00,0.0052
3008.00,0.0053
3007.00,0.0054
3006.00,0.0056
3005.00,0.0058
3004.00,0.0061
3003.00,0.0063
3002.00,0.0065
3001.00,0.0068
3000.00,0.0071
2999.00,0.0073
2998.00,0.0076
2997.00,0.0080
2996.00,0.0083
2995.00,0.0087
2994.00,0.0092
2993.00,0.0097
2992.00,0.0102
2991.00,0.0109
2990.00,0.0115
2989.00,0.0123
2988.00,0.0131
2987.00,0.0140
2986.00,0.0150
2985.00,0.0161
2984.00,0.0174
2983.00,0.0188
2982.00,0.0203
2981.00,0.0221
2980.00,0.0240
2979.00,0.0263
2978.00,0.0288
2977.00,0.0318
2976.00,0.0351
2975.00,0.0388
2974.00,0.0431
2973.00,0.0479
2972.00,0.0534
2971.00,0.0594
2970.00,0.0661
2969.00,0.0734
2968.00,0.0814
2967.00,0.0898
2966.00,0.0987
2965.00,0.1076
2964.00,0.1163
2963.00,0.1243
2962.00,0.1314
2961.00,0.1374
2960.00,0.1424
2959.00,0.1466
2958.00,0.1507
2957.00,0.1551
2956.00,0.1603
2955.00,0.1666
2954.00,0.1739
2953.00,0.1817
2952.00,0.1889
2951.00,0.1947
2950.00,0.1978
2949.00,0.1972
2948.00,0.1925
2947.00,0.1837
2946.00,0.1717
2945.00,0.1581
2944.00,0.1443
2943.00,0.1318
2942.00,0.1216
2941.00,0.1140
2940.00,0.1091
2939.00,0.1067
2938.00,0.1066
2937.00,0.1084
2936.00,0.1121
2935.00,0.1173
2934.00,0.1241
2933.00,0.1322
2932.00,0.1415
2931.00,0.1518
2930.00,0.1628
2929.00,0.1740
2928.00,0.1852
2927.00,0.1961
2926.00,0.2064
2925.00,0.2163
2924.00,0.2258
2923.00,0.2351
2922.00,0.2441
2921.00,0.2526
2920.00,0.2603
2919.00,0.2662
2918.00,0.2695
2917.00,0.2696
2916.00,0.2663
2915.00,0.2601
2914.00,0.2517
2913.00,0.2421
2912.00,0.2321
2911.00,0.2224
2910.00,0.2133
2909.00,0.2049
2908.00,0.1970
2907.00,0.1894
2906.00,0.1820
2905.00,0.1746
2904.00,0.1672
2903.00,0.1598
2902.00,0.1526
2901.00,0.1455
2900.00,0.1388
2899.00,0.1324
2898.00,0.1265
2897.00,0.1212
2896.00,0.1165
2895.00,0.1126
2894.00,0.1094
2893.00,0.1070
2892.00,0.1052
2891.00,0.1041
2890.00,0.1035
2889.00,0.1035
2888.00,0.1038
2887.00,0.1046
2886.00,0.1057
2885.00,0.1072
2884.00,0.1091
2883.00,0.1116
2882.00,0.1146
2881.00,0.1178
2880.00,0.1211
2879.00,0.1239
2878.00,0.1259
2877.00,0.1268
2876.00,0.1266
2875.00,0.1258
2874.00,0.1250
2873.00,0.1245
2872.00,0.1249
2871.00,0.1261
2870.00,0.1280
2869.00,0.1300
2868.00,0.1314
2867.00,0.1312
2866.00,0.1285
2865.00,0.1230
2864.00,0.1150
2863.00,0.1054
2862.00,0.0953
2861.00,0.0857
2860.00,0.0773
2859.00,0.0705
2858.00,0.0652
2857.00,0.0614
2856.00,0.0586
2855.00,0.0569
2854.00,0.0559
2853.00,0.0556
2852.00,0.0559
2851.00,0.0569
2850.00,0.0588
2849.00,0.0615
2848.00,0.0653
2847.00,0.0700
2846.00,0.0757
2845.00,0.0823
2844.00,0.0895
2843.00,0.0971
2842.00,0.1049
2841.00,0.1122
2840.00,0.1183
2839.00,0.1224
2838.00,0.1236
2837.00,0.1213
2836.00,0.1155
2835.00,0.1067
2834.00,0.0961
2833.00,0.0848
2832.00,0.0739
2831.00,0.0642
2830.00,0.0560
2829.00,0.0492
2828.00,0.0438
2827.00,0.0394
2826.00,0.0358
2825.00,0.0330
2824.00,0.0306
2823.00,0.0285
2822.00,0.0268
2821.00,0.0254
2820.00,0.0241
2819.00,0.0230
2818.00,0.0221
2817.00,0.0212
2816.00,0.0205
2815.00,0.0198
2814.00,0.0192
2813.00,0.0187
2812.00,0.0181
2811.00,0.0176
2810.00,0.0170
2809.00,0.0164
2808.00,0.0158
2807.00,0.0152
2806.00,0.0145
2805.00,0.0138
2804.00,0.0132
2803.00,0.0126
2802.00,0.0120
2801.00,0.0116
2800.00,0.0112
2799.00,0.0108
2798.00,0.0105
2797.00,0.0103
2796.00,0.0101
2795.00,0.0099
2794.00,0.0097
2793.00,0.0094
2792.00,0.0091
2791.00,0.0088
2790.00,0.0084
2789.00,0.0081
2788.00,0.0078
2787.00,0.0076
2786.00,0.0073
2785.00,0.0071
2784.00,0.0069
2783.00,0.0067
2782.00,0.0065
2781.00,0.0064
2780.00,0.0062
2779.00,0.0060
2778.00,0.0058
2777.00,0.0057
2776.00,0.0056
2775.00,0.0055
2774.00,0.0054
2773.00,0.0053
2772.00,0.0053
2771.00,0.0052
2770.00,0.0052
2769.00,0.0052
2768.00,0.0051
2767.00,0.0051
2766.00,0.0050
2765.00,0.0050
2764.00,0.0049
2763.00,0.0049
2762.00,0.0049
2761.00,0.0049
2760.00,0.0048
2759.00,0.0048
2758.00,0.0048
2757.00,0.0048
2756.00,0.0047
2755.00,0.0047
2754.00,0.0047
2753.00,0.0047
2752.00,0.0047
2751.00,0.0047
2750.00,0.0047
2749.00,0.0047
2748.00,0.0047
2747.00,0.0048
2746.00,0.0048
2745.00,0.0049
2744.00,0.0050
2743.00,0.0051
2742.00,0.0052
2741.00,0.0053
2740.00,0.0054
2739.00,0.0055
2738.00,0.0057
2737.00,0.0059
2736.00,0.0060
2735.00,0.0062
2734.00,0.0064
2733.00,0.0066
2732.00,0.0067
2731.00,0.0069
2730.00,0.0071
2729.00,0.0074
2728.00,0.0077
2727.00,0.0080
2726.00,0.0083
2725.00,0.0086
2724.00,0.0087
2723.00,0.0088
2722.00,0.0087
2721.00,0.0085
2720.00,0.0082
2719.00,0.0078
2718.00,0.0075
2717.00,0.0071
2716.00,0.0068
2715.00,0.0065
2714.00,0.0063
2713.00,0.0060
2712.00,0.0058
2711.00,0.0056
2710.00,0.0054
2709.00,0.0052
2708.00,0.0051
2707.00,0.0049
2706.00,0.0048
2705.00,0.0047
2704.00,0.0046
2703.00,0.0045
2702.00,0.0044
2701.00,0.0043
2700.00,0.0043
2699.00,0.0042
2698.00,0.0042
2697.00,0.0041
2696.00,0.0041
2695.00,0.0041
2694.00,0.0041
2693.00,0.0041
2692.00,0.0041
2691.00,0.0041
2690.00,0.0041
2689.00,0.0041
2688.00,0.0041
2687.00,0.0041
2686.00,0.0041
2685.00,0.0041
2684.00,0.0040
2683.00,0.0040
2682.00,0.0041
2681.00,0.0041
2680.00,0.0041
2679.00,0.0041
2678.00,0.0041
2677.00,0.0041
2676.00,0.0041
2675.00,0.0041
2674.00,0.0041
2673.00,0.0041
2672.00,0.0040
2671.00,0.0040
2670.00,0.0040
2669.00,0.0040
2668.00,0.0040
2667.00,0.0040
2666.00,0.0041
2665.00,0.0042
2664.00,0.0042
2663.00,0.0043
2662.00,0.0044
2661.00,0.0044
2660.00,0.0044
2659.00,0.0044
2658.00,0.0044
2657.00,0.0044
2656.00,0.0043
2655.00,0.0043
2654.00,0.0042
2653.00,0.0041
2652.00,0.0041
2651.00,0.0040
2650.00,0.0039
2649.00,0.0039
2648.00,0.0038
2647.00,0.0038
2646.00,0.0037
2645.00,0.0037
2644.00,0.0038
2643.00,0.0037
2642.00,0.0037
2641.00,0.0036
2640.00,0.0035
2639.00,0.0035
2638.00,0.0034
2637.00,0.0034
2636.00,0.0033
2635.00,0.0033
2634.00,0.0034
2633.00,0.0034
2632.00,0.0034
2631.00,0.0034
2630.00,0.0035
2629.00,0.0035
2628.00,0.0035
2627.00,0.0035
2626.00,0.0035
2625.00,0.0036
2624.00,0.0036
2623.00,0.0036
2622.00,0.0036
2621.00,0.0036
2620.00,0.0036
2619.00,0.0036
2618.00,0.0036
2617.00,0.0036
2616.00,0.0036
2615.00,0.0036
2614.00,0.0036
2613.00,0.0036
2612.00,0.0036
2611.00,0.0035
2610.00,0.0035
2609.00,0.0034
2608.00,0.0033
2607.00,0.0032
2606.00,0.0032
2605.00,0.0031
2604.00,0.0031
2603.00,0.0031
2602.00,0.0030
2601.00,0.0029
2600.00,0.0029
2599.00,0.0029
2598.00,0.0030
2597.00,0.0030
2596.00,0.0030
2595.00,0.0030
2594.00,0.0030
2593.00,0.0030
2592.00,0.0031
2591.00,0.0031
2590.00,0.0031
2589.00,0.0032
2588.00,0.0033
2587.00,0.0034
2586.00,0.0035
2585.00,0.0035
2584.00,0.0036
2583.00,0.0036
2582.00,0.0037
2581.00,0.0037
2580.00,0.0037
2579.00,0.0036
2578.00,0.0035
2577.00,0.0034
2576.00,0.0032
2575.00,0.0031
2574.00,0.0030
2573.00,0.0029
2572.00,0.0028
2571.00,0.0027
2570.00,0.0026
2569.00,0.0025
2568.00,0.0024
2567.00,0.0024
2566.00,0.0023
2565.00,0.0023
2564.00,0.0022
2563.00,0.0022
2562.00,0.0022
2561.00,0.0021
2560.00,0.0021
2559.00,0.0020
2558.00,0.0020
2557.00,0.0019
2556.00,0.0019
2555.00,0.0019
2554.00,0.0019
2553.00,0.0019
2552.00,0.0019
2551.00,0.0018
2550.00,0.0018
2549.00,0.0018
2548.00,0.0017
2547.00,0.0017
2546.00,0.0016
2545.00,0.0015
2544.00,0.0015
2543.00,0.0015
2542.00,0.0015
2541.00,0.0014
2540.00,0.0014
2539.00,0.0014
2538.00,0.0014
2537.00,0.0014
2536.00,0.0014
2535.00,0.0013
2534.00,0.0013
2533.00,0.0012
2532.00,0.0012
2531.00,0.0012
2530.00,0.0012
2529.00,0.0012
2528.00,0.0012
2527.00,0.0011
2526.00,0.0011
2525.00,0.0011
2524.00,0.0011
2523.00,0.0010
2522.00,0.0010
2521.00,0.0010
2520.00,0.0010
2519.00,0.0009
2518.00,0.0009
2517.00,0.0008
2516.00,0.0008
2515.00,0.0008
2514.00,0.0008
2513.00,0.0008
2512.00,0.0008
2511.00,0.0008
2510.00,0.0008
2509.00,0.0008
2508.00,0.0008
2507.00,0.0008
2506.00,0.0007
2505.00,0.0006
2504.00,0.0006
2503.00,0.0006
2502.00,0.0006
2501.00,0.0006
2500.00,0.0006
2499.00,0.0006
2498.00,0.0006
2497.00,0.0006
2496.00,0.0007
2495.00,0.0007
2494.00,0.0008
2493.00,0.0008
2492.00,0.0008
2491.00,0.0008
2490.00,0.0008
2489.00,0.0008
2488.00,0.0008
2487.00,0.0008
2486.00,0.0008
2485.00,0.0008
2484.00,0.0008
2483.00,0.0008
2482.00,0.0007
2481.00,0.0007
2480.00,0.0006
2479.00,0.0005
2478.00,0.0005
2477.00,0.0005
2476.00,0.0006
2475.00,0.0006
2474.00,0.0007
2473.00,0.0007
2472.00,0.0007
2471.00,0.0007
2470.00,0.0007
2469.00,0.0007
2468.00,0.0007
2467.00,0.0007
2466.00,0.0006
2465.00,0.0007
2464.00,0.0007
2463.00,0.0007
2462.00,0.0007
2461.00,0.0007
2460.00,0.0007
2459.00,0.0008
2458.00,0.0008
2457.00,0.0008
2456.00,0.0008
2455.00,0.0008
2454.00,0.0008
2453.00,0.0008
2452.00,0.0009
2451.00,0.0009
2450.00,0.0009
2449.00,0.0009
2448.00,0.0009
2447.00,0.0009
2446.00,0.0008
2445.00,0.0008
2444.00,0.0008
2443.00,0.0007
2442.00,0.0007
2441.00,0.0008
2440.00,0.0009
2439.00,0.0010
2438.00,0.0010
2437.00,0.0010
2436.00,0.0010
2435.00,0.0010
2434.00,0.0010
2433.00,0.0009
2432.00,0.0009
2431.00,0.0008
2430.00,0.0009
2429.00,0.0009
2428.00,0.0010
2427.00,0.0010
2426.00,0.0010
2425.00,0.0009
2424.00,0.0009
2423.00,0.0009
2422.00,0.0009
2421.00,0.0008
2420.00,0.0008
2419.00,0.0007
2418.00,0.0007
2417.00,0.0007
2416.00,0.0008
2415.00,0.0008
2414.00,0.0008
2413.00,0.0008
2412.00,0.0007
2411.00,0.0007
2410.00,0.0007
2409.00,0.0007
2408.00,0.0007
2407.00,0.0007
2406.00,0.0007
2405.00,0.0008
2404.00,0.0008
2403.00,0.0008
2402.00,0.0007
2401.00,0.0007
2400.00,0.0007
2399.00,0.0007
2398.00,0.0006
2397.00,0.0006
2396.00,0.0006
2395.00,0.0006
2394.00,0.0006
2393.00,0.0007
2392.00,0.0007
2391.00,0.0007
2390.00,0.0006
2389.00,0.0006
2388.00,0.0005
2387.00,0.0005
2386.00,0.0005
2385.00,0.0005
2384.00,0.0005
2383.00,0.0004
2382.00,0.0004
2381.00,0.0003
2380.00,0.0003
2379.00,0.0003
2378.00,0.0003
2377.00,0.0003
2376.00,0.0003
2375.00,0.0003
2374.00,0.0003
2373.00,0.0004
2372.00,0.0004
2371.00,0.0004
2370.00,0.0003
2369.00,0.0002
2368.00,0.0000
2367.00,-0.0000
2366.00,0.0000
2365.00,0.0001
2364.00,0.0001
2363.00,0.0002
2362.00,0.0003
2361.00,0.0003
2360.00,0.0003
2359.00,0.0003
2358.00,0.0003
2357.00,0.0003
2356.00,0.0003
2355.00,0.0004
2354.00,0.0004
2353.00,0.0004
2352.00,0.0004
2351.00,0.0003
2350.00,0.0003
2349.00,0.0004
2348.00,0.0004
2347.00,0.0004
2346.00,0.0005
2345.00,0.0004
2344.00,0.0004
2343.00,0.0003
2342.00,0.0004
2341.00,0.0004
2340.00,0.0005
2339.00,0.0006
2338.00,0.0006
2337.00,0.0006
2336.00,0.0007
2335.00,0.0007
2334.00,0.0007
2333.00,0.0006
2332.00,0.0005
2331.00,0.0005
2330.00,0.0005
2329.00,0.0006
2328.00,0.0008
2327.00,0.0012
2326.00,0.0016
2325.00,0.0019
2324.00,0.0021
2323.00,0.0020
2322.00,0.0018
2321.00,0.0015
2320.00,0.0013
2319.00,0.0011
2318.00,0.0010
2317.00,0.0010
2316.00,0.0009
2315.00,0.0009
2314.00,0.0008
2313.00,0.0008
2312.00,0.0009
2311.00,0.0009
2310.00,0.0010
2309.00,0.0010
2308.00,0.0010
2307.00,0.0009
2306.00,0.0009
2305.00,0.0009
2304.00,0.0008
2303.00,0.0008
2302.00,0.0008
2301.00,0.0009
2300.00,0.0010
2299.00,0.0011
2298.00,0.0012
2297.00,0.0013
2296.00,0.0013
2295.00,0.0013
2294.00,0.0013
2293.00,0.0013
2292.00,0.0013
2291.00,0.0014
2290.00,0.0014
2289.00,0.0015
2288.00,0.0016
2287.00,0.0017
2286.00,0.0017
2285.00,0.0016
2284.00,0.0016
2283.00,0.0017
2282.00,0.0016
2281.00,0.0016
2280.00,0.0015
2279.00,0.0013
2278.00,0.0012
2277.00,0.0012
2276.00,0.0012
2275.00,0.0012
2274.00,0.0013
2273.00,0.0013
2272.00,0.0013
2271.00,0.0013
2270.00,0.0013
2269.00,0.0012
2268.00,0.0011
2267.00,0.0010
2266.00,0.0009
2265.00,0.0009
2264.00,0.0009
2263.00,0.0008
2262.00,0.0008
2261.00,0.0009
2260.00,0.0010
2259.00,0.0011
2258.00,0.0010
2257.00,0.0009
2256.00,0.0008
2255.00,0.0007
2254.00,0.0007
2253.00,0.0007
2252.00,0.0007
2251.00,0.0007
2250.00,0.0008
2249.00,0.0009
2248.00,0.0010
2247.00,0.0010
2246.00,0.0010
2245.00,0.0009
2244.00,0.0008
2243.00,0.0007
2242.00,0.0007
2241.00,0.0007
2240.00,0.0006
2239.00,0.0006
2238.00,0.0007
2237.00,0.0007
2236.00,0.0007
2235.00,0.0007
2234.00,0.0007
2233.00,0.0007
2232.00,0.0006
2231.00,0.0005
2230.00,0.0005
2229.00,0.0006
2228.00,0.0009
2227.00,0.0010
2226.00,0.0010
2225.00,0.0010
2224.00,0.0008
2223.00,0.0007
2222.00,0.0007
2221.00,0.0007
2220.00,0.0007
2219.00,0.0008
2218.00,0.0008
2217.00,0.0007
2216.00,0.0008
2215.00,0.0007
2214.00,0.0007
2213.00,0.0007
2212.00,0.0006
2211.00,0.0005
2210.00,0.0004
2209.00,0.0004
2208.00,0.0005
2207.00,0.0005
2206.00,0.0006
2205.00,0.0006
2204.00,0.0007
2203.00,0.0008
2202.00,0.0008
2201.00,0.0009
2200.00,0.0009
2199.00,0.0008
2198.00,0.0008
2197.00,0.0008
2196.00,0.0008
2195.00,0.0008
2194.00,0.0007
2193.00,0.0006
2192.00,0.0007
2191.00,0.0007
2190.00,0.0007
2189.00,0.0006
2188.00,0.0007
2187.00,0.0009
2186.00,0.0012
2185.00,0.0013
2184.00,0.0012
2183.00,0.0010
2182.00,0.0009
2181.00,0.0008
2180.00,0.0009
2179.00,0.0010
2178.00,0.0011
2177.00,0.0011
2176.00,0.0010
2175.00,0.0008
2174.00,0.0008
2173.00,0.0008
2172.00,0.0008
2171.00,0.0008
2170.00,0.0010
2169.00,0.0013
2168.00,0.0017
2167.00,0.0018
2166.00,0.0017
2165.00,0.0015
2164.00,0.0015
2163.00,0.0015
2162.00,0.0017
2161.00,0.0014
2160.00,0.0005
2159.00,-0.0010
2158.00,-0.0024
2157.00,-0.0031
2156.00,-0.0030
2155.00,-0.0025
2154.00,-0.0020
2153.00,-0.0016
2152.00,-0.0013
2151.00,-0.0012
2150.00,-0.0012
2149.00,-0.0012
2148.00,-0.0013
2147.00,-0.0015
2146.00,-0.0016
2145.00,-0.0017
2144.00,-0.0016
2143.00,-0.0015
2142.00,-0.0013
2141.00,-0.0012
2140.00,-0.0009
2139.00,-0.0008
2138.00,-0.0008
2137.00,-0.0010
2136.00,-0.0014
2135.00,-0.0018
2134.00,-0.0020
2133.00,-0.0020
2132.00,-0.0018
2131.00,-0.0015
2130.00,-0.0014
2129.00,-0.0013
2128.00,-0.0012
2127.00,-0.0011
2126.00,-0.0009
2125.00,-0.0009
2124.00,-0.0009
2123.00,-0.0009
2122.00,-0.0009
2121.00,-0.0008
2120.00,-0.0006
2119.00,-0.0005
2118.00,-0.0004
2117.00,-0.0003
2116.00,-0.0002
2115.00,-0.0001
2114.00,-0.0000
2113.00,0.0001
2112.00,0.0001
2111.00,0.0000
2110.00,0.0000
2109.00,0.0000
2108.00,0.0000
2107.00,0.0001
2106.00,0.0001
2105.00,0.0000
2104.00,0.0000
2103.00,-0.0000
2102.00,-0.0001
2101.00,-0.0000
2100.00,-0.0000
2099.00,-0.0000
2098.00,-0.0000
2097.00,-0.0001
2096.00,-0.0003
2095.00,-0.0005
2094.00,-0.0005
2093.00,-0.0004
2092.00,-0.0003
2091.00,-0.0001
2090.00,-0.0001
2089.00,-0.0001
2088.00,-0.0001
2087.00,-0.0002
2086.00,-0.0003
2085.00,-0.0002
2084.00,0.0001
2083.00,0.0003
2082.00,0.0004
2081.00,0.0004
2080.00,0.0003
2079.00,0.0002
2078.00,0.0001
2077.00,0.0000
2076.00,0.0001
2075.00,0.0001
2074.00,0.0001
2073.00,0.0001
2072.00,0.0000
2071.00,0.0001
2070.00,0.0001
2069.00,0.0003
2068.00,0.0003
2067.00,0.0003
2066.00,0.0002
2065.00,0.0001
2064.00,-0.0001
2063.00,-0.0003
2062.00,-0.0004
2061.00,-0.0004
2060.00,-0.0004
2059.00,-0.0004
2058.00,-0.0003
2057.00,-0.0003
2056.00,-0.0003
2055.00,-0.0004
2054.00,-0.0004
2053.00,-0.0002
2052.00,0.0002
2051.00,0.0005
2050.00,0.0004
2049.00,0.0001
2048.00,-0.0001
2047.00,-0.0001
2046.00,-0.0001
2045.00,-0.0001
2044.00,-0.0001
2043.00,-0.0001
2042.00,0.0000
2041.00,0.0002
2040.00,0.0004
2039.00,0.0005
2038.00,0.0005
2037.00,0.0006
2036.00,0.0007
2035.00,0.0008
2034.00,0.0008
2033.00,0.0006
2032.00,0.0002
2031.00,-0.0004
2030.00,-0.0009
2029.00,-0.0014
2028.00,-0.0015
2027.00,-0.0014
2026.00,-0.0012
2025.00,-0.0009
2024.00,-0.0008
2023.00,-0.0008
2022.00,-0.0010
2021.00,-0.0011
2020.00,-0.0012
2019.00,-0.0011
2018.00,-0.0010
2017.00,-0.0011
2016.00,-0.0012
2015.00,-0.0014
2014.00,-0.0016
2013.00,-0.0017
2012.00,-0.0017
2011.00,-0.0016
2010.00,-0.0014
2009.00,-0.0012
2008.00,-0.0012
2007.00,-0.0014
2006.00,-0.0017
2005.00,-0.0018
2004.00,-0.0018
2003.00,-0.0016
2002.00,-0.0014
2001.00,-0.0011
2000.00,-0.0011
1999.00,-0.0011
1998.00,-0.0013
1997.00,-0.0013
1996.00,-0.0011
1995.00,-0.0009
1994.00,-0.0007
1993.00,-0.0004
1992.00,-0.0003
1991.00,-0.0003
1990.00,-0.0003
1989.00,-0.0004
1988.00,-0.0005
1987.00,-0.0006
1986.00,-0.0007
1985.00,-0.0007
1984.00,-0.0007
1983.00,-0.0005
1982.00,-0.0001
1981.00,0.0004
1980.00,0.0008
1979.00,0.0007
1978.00,0.0002
1977.00,-0.0005
1976.00,-0.0009
1975.00,-0.0012
1974.00,-0.0015
1973.00,-0.0018
1972.00,-0.0019
1971.00,-0.0019
1970.00,-0.0019
1969.00,-0.0018
1968.00,-0.0018
1967.00,-0.0019
1966.00,-0.0018
1965.00,-0.0017
1964.00,-0.0015
1963.00,-0.0013
1962.00,-0.0012
1961.00,-0.0012
1960.00,-0.0014
1959.00,-0.0017
1958.00,-0.0019
1957.00,-0.0018
1956.00,-0.0017
1955.00,-0.0014
1954.00,-0.0012
1953.00,-0.0011
1952.00,-0.0012
1951.00,-0.0014
1950.00,-0.0014
1949.00,-0.0014
1948.00,-0.0012
1947.00,-0.0011
1946.00,-0.0011
1945.00,-0.0013
1944.00,-0.0014
1943.00,-0.0016
1942.00,-0.0016
1941.00,-0.0014
1940.00,-0.0012
1939.00,-0.0012
1938.00,-0.0013
1937.00,-0.0014
1936.00,-0.0015
1935.00,-0.0014
1934.00,-0.0013
1933.00,-0.0012
1932.00,-0.0012
1931.00,-0.0012
1930.00,-0.0012
1929.00,-0.0011
1928.00,-0.0009
1927.00,-0.0007
1926.00,-0.0007
1925.00,-0.0007
1924.00,-0.0007
1923.00,-0.0007
1922.00,-0.0006
1921.00,-0.0005
1920.00,-0.0005
1919.00,-0.0007
1918.00,-0.0007
1917.00,-0.0007
1916.00,-0.0006
1915.00,-0.0005
1914.00,-0.0004
1913.00,-0.0004
1912.00,-0.0004
1911.00,-0.0004
1910.00,-0.0004
1909.00,-0.0004
1908.00,-0.0004
1907.00,-0.0004
1906.00,-0.0004
1905.00,-0.0004
1904.00,-0.0004
1903.00,-0.0005
1902.00,-0.0004
1901.00,-0.0003
1900.00,-0.0003
1899.00,-0.0002
1898.00,-0.0003
1897.00,-0.0003
1896.00,-0.0003
1895.00,-0.0003
1894.00,-0.0003
1893.00,-0.0003
1892.00,-0.0003
1891.00,-0.0004
1890.00,-0.0004
1889.00,-0.0004
1888.00,-0.0003
1887.00,-0.0003
1886.00,-0.0003
1885.00,-0.0003
1884.00,-0.0003
1883.00,-0.0003
1882.00,-0.0004
1881.00,-0.0004
1880.00,-0.0003
1879.00,-0.0004
1878.00,-0.0004
1877.00,-0.0004
1876.00,-0.0004
1875.00,-0.0003
1874.00,-0.0003
1873.00,-0.0004
1872.00,-0.0004
1871.00,-0.0004
1870.00,-0.0004
1869.00,-0.0004
1868.00,-0.0003
1867.00,-0.0003
1866.00,-0.0003
1865.00,-0.0002
1864.00,-0.0001
1863.00,-0.0001
1862.00,-0.0000
1861.00,-0.0001
1860.00,-0.0001
1859.00,-0.0002
1858.00,-0.0002
1857.00,-0.0002
1856.00,-0.0002
1855.00,-0.0001
1854.00,-0.0001
1853.00,-0.0000
1852.00,-0.0001
1851.00,-0.0001
1850.00,-0.0001
1849.00,-0.0001
1848.00,-0.0001
1847.00,-0.0000
1846.00,-0.0001
1845.00,-0.0000
1844.00,0.0000
1843.00,0.0001
1842.00,0.0001
1841.00,0.0001
1840.00,0.0001
1839.00,0.0001
1838.00,0.0001
1837.00,0.0001
1836.00,0.0001
1835.00,0.0001
1834.00,0.0001
1833.00,0.0001
1832.00,0.0002
1831.00,0.0002
1830.00,0.0002
1829.00,0.0002
1828.00,0.0002
1827.00,0.0002
1826.00,0.0001
1825.00,0.0001
1824.00,0.0001
1823.00,0.0001
1822.00,0.0002
1821.00,0.0002
1820.00,0.0002
1819.00,0.0000
1818.00,-0.0002
1817.00,-0.0003
1816.00,-0.0003
1815.00,-0.0003
1814.00,-0.0003
1813.00,-0.0001
1812.00,0.0000
1811.00,0.0001
1810.00,0.0002
1809.00,0.0002
1808.00,0.0002
1807.00,0.0002
1806.00,0.0002
1805.00,0.0002
1804.00,0.0002
1803.00,0.0003
1802.00,0.0002
1801.00,0.0002
1800.00,0.0003
1799.00,0.0003
1798.00,0.0003
1797.00,0.0003
1796.00,0.0003
1795.00,0.0003
1794.00,0.0002
1793.00,0.0002
1792.00,0.0002
1791.00,0.0003
1790.00,0.0003
1789.00,0.0003
1788.00,0.0003
1787.00,0.0003
1786.00,0.0003
1785.00,0.0003
1784.00,0.0003
1783.00,0.0003
1782.00,0.0003
1781.00,0.0002
1780.00,0.0001
1779.00,0.0000
1778.00,-0.0000
1777.00,-0.0001
1776.00,-0.0001
1775.00,-0.0001
1774.00,-0.0002
1773.00,-0.0002
1772.00,-0.0002
1771.00,-0.0001
1770.00,-0.0000
1769.00,0.0001
1768.00,0.0001
1767.00,0.0001
1766.00,0.0000
1765.00,0.0001
1764.00,0.0002
1763.00,0.0002
1762.00,0.0003
1761.00,0.0003
1760.00,0.0004
1759.00,0.0005
1758.00,0.0005
1757.00,0.0005
1756.00,0.0005
1755.00,0.0004
1754.00,0.0003
1753.00,0.0003
1752.00,0.0003
1751.00,0.0003
1750.00,0.0002
1749.00,0.0002
1748.00,0.0002
1747.00,0.0002
1746.00,0.0002
1745.00,0.0002
1744.00,0.0002
1743.00,0.0002
1742.00,0.0002
1741.00,0.0003
1740.00,0.0003
1739.00,0.0002
1738.00,0.0002
1737.00,0.0001
1736.00,0.0001
1735.00,0.0001
1734.00,0.0001
1733.00,0.0001
1732.00,0.0001
1731.00,0.0002
1730.00,0.0002
1729.00,0.0003
1728.00,0.0003
1727.00,0.0003
1726.00,0.0003
1725.00,0.0003
1724.00,0.0003
1723.00,0.0003
1722.00,0.0004
1721.00,0.0005
1720.00,0.0006
1719.00,0.0007
1718.00,0.0007
1717.00,0.0007
1716.00,0.0007
1715.00,0.0008
1714.00,0.0008
1713.00,0.0008
1712.00,0.0009
1711.00,0.0009
1710.00,0.0009
1709.00,0.0010
1708.00,0.0011
1707.00,0.0011
1706.00,0.0012
1705.00,0.0012
1704.00,0.0013
1703.00,0.0013
1702.00,0.0015
1701.00,0.0017
1700.00,0.0018
1699.00,0.0019
1698.00,0.0019
1697.00,0.0020
1696.00,0.0022
1695.00,0.0025
1694.00,0.0026
1693.00,0.0028
1692.00,0.0029
1691.00,0.0029
1690.00,0.0030
1689.00,0.0031
1688.00,0.0031
1687.00,0.0031
1686.00,0.0032
1685.00,0.0034
1684.00,0.0037
1683.00,0.0039
1682.00,0.0040
1681.00,0.0041
1680.00,0.0043
1679.00,0.0044
1678.00,0.0045
1677.00,0.0046
1676.00,0.0048
1675.00,0.0048
1674.00,0.0049
1673.00,0.0049
1672.00,0.0051
1671.00,0.0052
1670.00,0.0054
1669.00,0.0055
1668.00,0.0056
1667.00,0.0056
1666.00,0.0056
1665.00,0.0057
1664.00,0.0058
1663.00,0.0059
1662.00,0.0059
1661.00,0.0060
1660.00,0.0060
1659.00,0.0061
1658.00,0.0061
1657.00,0.0062
1656.00,0.0062
1655.00,0.0063
1654.00,0.0063
1653.00,0.0064
1652.00,0.0064
1651.00,0.0064
1650.00,0.0065
1649.00,0.0066
1648.00,0.0068
1647.00,0.0069
1646.00,0.0069
1645.00,0.0069
1644.00,0.0068
1643.00,0.0068
1642.00,0.0067
1641.00,0.0066
1640.00,0.0065
1639.00,0.0063
1638.00,0.0062
1637.00,0.0062
1636.00,0.0062
1635.00,0.0062
1634.00,0.0062
1633.00,0.0062
1632.00,0.0061
1631.00,0.0061
1630.00,0.0061
1629.00,0.0060
1628.00,0.0060
1627.00,0.0059
1626.00,0.0059
1625.00,0.0058
1624.00,0.0058
1623.00,0.0057
1622.00,0.0056
1621.00,0.0055
1620.00,0.0054
1619.00,0.0053
1618.00,0.0052
1617.00,0.0052
1616.00,0.0052
1615.00,0.0051
1614.00,0.0051
1613.00,0.0051
1612.00,0.0050
1611.00,0.0049
1610.00,0.0048
1609.00,0.0047
1608.00,0.0047
1607.00,0.0047
1606.00,0.0047
1605.00,0.0048
1604.00,0.0048
1603.00,0.0048
1602.00,0.0048
1601.00,0.0048
1600.00,0.0047
1599.00,0.0047
1598.00,0.0047
1597.00,0.0047
1596.00,0.0047
1595.00,0.0047
1594.00,0.0047
1593.00,0.0047
1592.00,0.0047
1591.00,0.0048
1590.00,0.0048
1589.00,0.0049
1588.00,0.0050
1587.00,0.0050
1586.00,0.0051
1585.00,0.0052
1584.00,0.0054
1583.00,0.0055
1582.00,0.0056
1581.00,0.0057
1580.00,0.0058
1579.00,0.0058
1578.00,0.0058
1577.00,0.0058
1576.00,0.0058
1575.00,0.0058
1574.00,0.0058
1573.00,0.0058
1572.00,0.0058
1571.00,0.0057
1570.00,0.0057
1569.00,0.0056
1568.00,0.0056
1567.00,0.0056
1566.00,0.0055
1565.00,0.0055
1564.00,0.0055
1563.00,0.0055
1562.00,0.0055
1561.00,0.0055
1560.00,0.0056
1559.00,0.0057
1558.00,0.0058
1557.00,0.0060
1556.00,0.0061
1555.00,0.0061
1554.00,0.0062
1553.00,0.0063
1552.00,0.0063
1551.00,0.0064
1550.00,0.0065
1549.00,0.0066
1548.00,0.0068
1547.00,0.0068
1546.00,0.0069
1545.00,0.0069
1544.00,0.0070
1543.00,0.0070
1542.00,0.0070
1541.00,0.0070
1540.00,0.0070
1539.00,0.0069
1538.00,0.0068
1537.00,0.0067
1536.00,0.0066
1535.00,0.0065
1534.00,0.0063
1533.00,0.0061
1532.00,0.0060
1531.00,0.0059
1530.00,0.0058
1529.00,0.0058
1528.00,0.0058
1527.00,0.0057
1526.00,0.0056
1525.00,0.0055
1524.00,0.0055
1523.00,0.0056
1522.00,0.0056
1521.00,0.0056
1520.00,0.0057
1519.00,0.0056
1518.00,0.0056
1517.00,0.0057
1516.00,0.0058
1515.00,0.0058
1514.00,0.0058
1513.00,0.0059
1512.00,0.0060
1511.00,0.0060
1510.00,0.0060
1509.00,0.0060
1508.00,0.0060
1507.00,0.0060
1506.00,0.0061
1505.00,0.0062
1504.00,0.0064
1503.00,0.0065
1502.00,0.0066
1501.00,0.0068
1500.00,0.0070
1499.00,0.0071
1498.00,0.0073
1497.00,0.0076
1496.00,0.0079
1495.00,0.0082
1494.00,0.0084
1493.00,0.0087
1492.00,0.0091
1491.00,0.0094
1490.00,0.0097
1489.00,0.0101
1488.00,0.0106
1487.00,0.0111
1486.00,0.0116
1485.00,0.0122
1484.00,0.0129
1483.00,0.0136
1482.00,0.0145
1481.00,0.0156
1480.00,0.0168
1479.00,0.0180
1478.00,0.0194
1477.00,0.0213
1476.00,0.0235
1475.00,0.0260
1474.00,0.0294
1473.00,0.0346
1472.00,0.0412
1471.00,0.0477
1470.00,0.0540
1469.00,0.0607
1468.00,0.0678
1467.00,0.0758
1466.00,0.0849
1465.00,0.0948
1464.00,0.1038
1463.00,0.1103
1462.00,0.1148
1461.00,0.1182
1460.00,0.1207
1459.00,0.1225
1458.00,0.1240
1457.00,0.1250
1456.00,0.1250
1455.00,0.1244
1454.00,0.1233
1453.00,0.1217
1452.00,0.1189
1451.00,0.1147
1450.00,0.1089
1449.00,0.1011
1448.00,0.0913
1447.00,0.0811
1446.00,0.0721
1445.00,0.0645
1444.00,0.0582
1443.00,0.0531
1442.00,0.0494
1441.00,0.0469
1440.00,0.0456
1439.00,0.0452
1438.00,0.0455
1437.00,0.0458
1436.00,0.0447
1435.00,0.0419
1434.00,0.0377
1433.00,0.0329
1432.00,0.0279
1431.00,0.0236
1430.00,0.0204
1429.00,0.0181
1428.00,0.0166
1427.00,0.0156
1426.00,0.0150
1425.00,0.0144
1424.00,0.0139
1423.00,0.0135
1422.00,0.0133
1421.00,0.0131
1420.00,0.0127
1419.00,0.0124
1418.00,0.0122
1417.00,0.0119
1416.00,0.0116
1415.00,0.0114
1414.00,0.0114
1413.00,0.0112
1412.00,0.0111
1411.00,0.0110
1410.00,0.0110
1409.00,0.0109
1408.00,0.0108
1407.00,0.0108
1406.00,0.0108
1405.00,0.0109
1404.00,0.0109
1403.00,0.0110
1402.00,0.0112
1401.00,0.0113
1400.00,0.0114
1399.00,0.0116
1398.00,0.0119
1397.00,0.0121
1396.00,0.0123
1395.00,0.0127
1394.00,0.0133
1393.00,0.0139
1392.00,0.0145
1391.00,0.0154
1390.00,0.0167
1389.00,0.0185
1388.00,0.0211
1387.00,0.0251
1386.00,0.0303
1385.00,0.0370
1384.00,0.0457
1383.00,0.0574
1382.00,0.0729
1381.00,0.0928
1380.00,0.1178
1379.00,0.1467
1378.00,0.1755
1377.00,0.1978
1376.00,0.2070
1375.00,0.1987
1374.00,0.1750
1373.00,0.1448
1372.00,0.1166
1371.00,0.0930
1370.00,0.0741
1369.00,0.0598
1368.00,0.0499
1367.00,0.0439
1366.00,0.0406
1365.00,0.0394
1364.00,0.0397
1363.00,0.0412
1362.00,0.0435
1361.00,0.0460
1360.00,0.0478
1359.00,0.0483
1358.00,0.0470
1357.00,0.0441
1356.00,0.0399
1355.00,0.0352
1354.00,0.0308
1353.00,0.0270
1352.00,0.0240
1351.00,0.0216
1350.00,0.0196
1349.00,0.0179
1348.00,0.0167
1347.00,0.0157
1346.00,0.0149
1345.00,0.0142
1344.00,0.0137
1343.00,0.0133
1342.00,0.0130
1341.00,0.0126
1340.00,0.0124
1339.00,0.0122
1338.00,0.0121
1337.00,0.0120
1336.00,0.0121
1335.00,0.0123
1334.00,0.0125
1333.00,0.0130
1332.00,0.0134
1331.00,0.0138
1330.00,0.0140
1329.00,0.0139
1328.00,0.0135
1327.00,0.0129
1326.00,0.0122
1325.00,0.0115
1324.00,0.0109
1323.00,0.0103
1322.00,0.0098
1321.00,0.0094
1320.00,0.0092
1319.00,0.0089
1318.00,0.0087
1317.00,0.0085
1316.00,0.0083
1315.00,0.0081
1314.00,0.0080
1313.00,0.0080
1312.00,0.0081
1311.00,0.0084
1310.00,0.0087
1309.00,0.0092
1308.00,0.0100
1307.00,0.0109
1306.00,0.0118
1305.00,0.0125
1304.00,0.0128
1303.00,0.0128
1302.00,0.0125
1301.00,0.0122
1300.00,0.0121
1299.00,0.0121
1298.00,0.0122
1297.00,0.0123
1296.00,0.0123
1295.00,0.0121
1294.00,0.0117
1293.00,0.0111
1292.00,0.0105
1291.00,0.0100
1290.00,0.0095
1289.00,0.0090
1288.00,0.0087
1287.00,0.0083
1286.00,0.0080
1285.00,0.0077
1284.00,0.0075
1283.00,0.0073
1282.00,0.0071
1281.00,0.0070
1280.00,0.0068
1279.00,0.0067
1278.00,0.0067
1277.00,0.0066
1276.00,0.0065
1275.00,0.0065
1274.00,0.0066
1273.00,0.0066
1272.00,0.0066
1271.00,0.0067
1270.00,0.0067
1269.00,0.0068
1268.00,0.0069
1267.00,0.0070
1266.00,0.0072
1265.00,0.0073
1264.00,0.0076
1263.00,0.0079
1262.00,0.0082
1261.00,0.0085
1260.00,0.0090
1259.00,0.0096
1258.00,0.0103
1257.00,0.0109
1256.00,0.0111
1255.00,0.0110
1254.00,0.0106
1253.00,0.0099
1252.00,0.0092
1251.00,0.0086
1250.00,0.0082
1249.00,0.0079
1248.00,0.0076
1247.00,0.0075
1246.00,0.0074
1245.00,0.0074
1244.00,0.0073
1243.00,0.0072
1242.00,0.0071
1241.00,0.0071
1240.00,0.0070
1239.00,0.0070
1238.00,0.0069
1237.00,0.0068
1236.00,0.0067
1235.00,0.0067
1234.00,0.0067
1233.00,0.0067
1232.00,0.0067
1231.00,0.0067
1230.00,0.0067
1229.00,0.0067
1228.00,0.0068
1227.00,0.0069
1226.00,0.0071
1225.00,0.0074
1224.00,0.0078
1223.00,0.0082
1222.00,0.0086
1221.00,0.0089
1220.00,0.0091
1219.00,0.0092
1218.00,0.0091
1217.00,0.0090
1216.00,0.0087
1215.00,0.0083
1214.00,0.0080
1213.00,0.0075
1212.00,0.0072
1211.00,0.0068
1210.00,0.0066
1209.00,0.0064
1208.00,0.0063
1207.00,0.0061
1206.00,0.0059
1205.00,0.0056
1204.00,0.0055
1203.00,0.0054
1202.00,0.0053
1201.00,0.0053
1200.00,0.0052
1199.00,0.0052
1198.00,0.0052
1197.00,0.0051
1196.00,0.0051
1195.00,0.0051
1194.00,0.0051
1193.00,0.0051
1192.00,0.0051
1191.00,0.0052
1190.00,0.0052
1189.00,0.0053
1188.00,0.0054
1187.00,0.0055
1186.00,0.0056
1185.00,0.0058
1184.00,0.0060
1183.00,0.0062
1182.00,0.0065
1181.00,0.0068
1180.00,0.0071
1179.00,0.0076
1178.00,0.0082
1177.00,0.0090
1176.00,0.0101
1175.00,0.0116
1174.00,0.0134
1173.00,0.0157
1172.00,0.0185
1171.00,0.0214
1170.00,0.0243
1169.00,0.0265
1168.00,0.0279
1167.00,0.0283
1166.00,0.0278
1165.00,0.0267
1164.00,0.0253
1163.00,0.0238
1162.00,0.0225
1161.00,0.0214
1160.00,0.0206
1159.00,0.0199
1158.00,0.0194
1157.00,0.0190
1156.00,0.0188
1155.00,0.0187
1154.00,0.0186
1153.00,0.0184
1152.00,0.0181
1151.00,0.0176
1150.00,0.0169
1149.00,0.0159
1148.00,0.0149
1147.00,0.0139
1146.00,0.0130
1145.00,0.0123
1144.00,0.0115
1143.00,0.0109
1142.00,0.0102
1141.00,0.0096
1140.00,0.0091
1139.00,0.0086
1138.00,0.0082
1137.00,0.0079
1136.00,0.0076
1135.00,0.0073
1134.00,0.0071
1133.00,0.0070
1132.00,0.0069
1131.00,0.0069
1130.00,0.0069
1129.00,0.0070
1128.00,0.0071
1127.00,0.0073
1126.00,0.0075
1125.00,0.0076
1124.00,0.0077
1123.00,0.0077
1122.00,0.0076
1121.00,0.0075
1120.00,0.0074
1119.00,0.0074
1118.00,0.0076
1117.00,0.0078
1116.00,0.0080
1115.00,0.0082
1114.00,0.0084
1113.00,0.0086
1112.00,0.0088
1111.00,0.0091
1110.00,0.0095
1109.00,0.0101
1108.00,0.0106
1107.00,0.0113
1106.00,0.0120
1105.00,0.0127
1104.00,0.0134
1103.00,0.0138
1102.00,0.0138
1101.00,0.0135
1100.00,0.0130
1099.00,0.0124
1098.00,0.0116
1097.00,0.0110
1096.00,0.0104
1095.00,0.0098
1094.00,0.0094
1093.00,0.0091
1092.00,0.0088
1091.00,0.0086
1090.00,0.0083
1089.00,0.0081
1088.00,0.0079
1087.00,0.0078
1086.00,0.0077
1085.00,0.0076
1084.00,0.0076
1083.00,0.0075
1082.00,0.0074
1081.00,0.0073
1080.00,0.0071
1079.00,0.0070
1078.00,0.0068
1077.00,0.0067
1076.00,0.0067
1075.00,0.0066
1074.00,0.0066
1073.00,0.0066
1072.00,0.0068
1071.00,0.0069
1070.00,0.0070
1069.00,0.0071
1068.00,0.0071
1067.00,0.0072
1066.00,0.0072
1065.00,0.0073
1064.00,0.0073
1063.00,0.0073
1062.00,0.0072
1061.00,0.0072
1060.00,0.0073
1059.00,0.0074
1058.00,0.0075
1057.00,0.0076
1056.00,0.0076
1055.00,0.0076
1054.00,0.0076
1053.00,0.0075
1052.00,0.0074
1051.00,0.0075
1050.00,0.0077
1049.00,0.0079
1048.00,0.0081
1047.00,0.0083
1046.00,0.0085
1045.00,0.0086
1044.00,0.0087
1043.00,0.0087
1042.00,0.0085
1041.00,0.0083
1040.00,0.0082
1039.00,0.0082
1038.00,0.0083
1037.00,0.0084
1036.00,0.0086
1035.00,0.0086
1034.00,0.0086
1033.00,0.0085
1032.00,0.0084
1031.00,0.0084
1030.00,0.0084
1029.00,0.0084
1028.00,0.0084
1027.00,0.0083
1026.00,0.0082
1025.00,0.0081
1024.00,0.0081
1023.00,0.0081
1022.00,0.0081
1021.00,0.0082
1020.00,0.0083
1019.00,0.0084
1018.00,0.0084
1017.00,0.0085
1016.00,0.0086
1015.00,0.0088
1014.00,0.0091
1013.00,0.0094
1012.00,0.0098
1011.00,0.0102
1010.00,0.0106
1009.00,0.0110
1008.00,0.0115
1007.00,0.0120
1006.00,0.0128
1005.00,0.0138
1004.00,0.0152
1003.00,0.0171
1002.00,0.0196
1001.00,0.0226
1000.00,0.0257
999.00,0.0281
998.00,0.0292
997.00,0.0286
996.00,0.0263
995.00,0.0230
994.00,0.0196
993.00,0.0167
992.00,0.0144
991.00,0.0127
990.00,0.0116
989.00,0.0109
988.00,0.0105
987.00,0.0103
986.00,0.0103
985.00,0.0105
984.00,0.0110
983.00,0.0117
982.00,0.0128
981.00,0.0143
980.00,0.0163
979.00,0.0191
978.00,0.0225
977.00,0.0264
976.00,0.0305
975.00,0.0341
974.00,0.0367
973.00,0.0374
972.00,0.0360
971.00,0.0328
970.00,0.0284
969.00,0.0240
968.00,0.0201
967.00,0.0171
966.00,0.0149
965.00,0.0132
964.00,0.0120
963.00,0.0111
962.00,0.0104
961.00,0.0098
960.00,0.0093
959.00,0.0088
958.00,0.0085
957.00,0.0083
956.00,0.0081
955.00,0.0079
954.00,0.0078
953.00,0.0078
952.00,0.0078
951.00,0.0077
950.00,0.0076
949.00,0.0076
948.00,0.0077
947.00,0.0080
946.00,0.0083
945.00,0.0086
944.00,0.0089
943.00,0.0091
942.00,0.0093
941.00,0.0094
940.00,0.0093
939.00,0.0090
938.00,0.0086
937.00,0.0081
936.00,0.0076
935.00,0.0072
934.00,0.0069
933.00,0.0066
932.00,0.0064
931.00,0.0062
930.00,0.0061
929.00,0.0060
928.00,0.0060
927.00,0.0059
926.00,0.0058
925.00,0.0058
924.00,0.0059
923.00,0.0060
922.00,0.0061
921.00,0.0062
920.00,0.0063
919.00,0.0065
918.00,0.0066
917.00,0.0067
916.00,0.0067
915.00,0.0068
914.00,0.0068
913.00,0.0069
912.00,0.0070
911.00,0.0071
910.00,0.0073
909.00,0.0075
908.00,0.0078
907.00,0.0083
906.00,0.0089
905.00,0.0100
904.00,0.0115
903.00,0.0135
902.00,0.0157
901.00,0.0178
900.00,0.0192
899.00,0.0196
898.00,0.0188
897.00,0.0172
896.00,0.0152
895.00,0.0133
894.00,0.0116
893.00,0.0102
892.00,0.0092
891.00,0.0084
890.00,0.0079
889.00,0.0075
888.00,0.0074
887.00,0.0073
886.00,0.0072
885.00,0.0070
884.00,0.0069
883.00,0.0068
882.00,0.0068
881.00,0.0068
880.00,0.0069
879.00,0.0069
878.00,0.0070
877.00,0.0070
876.00,0.0071
875.00,0.0072
874.00,0.0073
873.00,0.0071
872.00,0.0070
871.00,0.0068
870.00,0.0068
869.00,0.0068
868.00,0.0069
867.00,0.0071
866.00,0.0072
865.00,0.0072
864.00,0.0073
863.00,0.0074
862.00,0.0075
861.00,0.0077
860.00,0.0078
859.00,0.0080
858.00,0.0082
857.00,0.0083
856.00,0.0084
855.00,0.0085
854.00,0.0087
853.00,0.0090
852.00,0.0093
851.00,0.0096
850.00,0.0101
849.00,0.0106
848.00,0.0115
847.00,0.0128
846.00,0.0147
845.00,0.0175
844.00,0.0211
843.00,0.0249
842.00,0.0276
841.00,0.0280
840.00,0.0260
839.00,0.0225
838.00,0.0188
837.00,0.0159
836.00,0.0140
835.00,0.0129
834.00,0.0121
833.00,0.0116
832.00,0.0112
831.00,0.0109
830.00,0.0107
829.00,0.0106
828.00,0.0106
827.00,0.0106
826.00,0.0105
825.00,0.0102
824.00,0.0100
823.00,0.0100
822.00,0.0103
821.00,0.0105
820.00,0.0107
819.00,0.0109
818.00,0.0113
817.00,0.0119
816.00,0.0128
815.00,0.0140
814.00,0.0154
813.00,0.0170
812.00,0.0187
811.00,0.0203
810.00,0.0215
809.00,0.0222
808.00,0.0221
807.00,0.0212
806.00,0.0198
805.00,0.0181
804.00,0.0165
803.00,0.0151
802.00,0.0139
801.00,0.0129
800.00,0.0121
799.00,0.0114
798.00,0.0108
797.00,0.0103
796.00,0.0098
795.00,0.0093
794.00,0.0090
793.00,0.0088
792.00,0.0086
791.00,0.0085
790.00,0.0084
789.00,0.0081
788.00,0.0078
787.00,0.0075
786.00,0.0072
785.00,0.0069
784.00,0.0066
783.00,0.0064
782.00,0.0062
781.00,0.0060
780.00,0.0058
779.00,0.0056
778.00,0.0056
777.00,0.0056
776.00,0.0057
775.00,0.0059
774.00,0.0062
773.00,0.0066
772.00,0.0070
771.00,0.0073
770.00,0.0075
769.00,0.0076
768.00,0.0076
767.00,0.0076
766.00,0.0075
765.00,0.0074
764.00,0.0071
763.00,0.0067
762.00,0.0064
761.00,0.0061
760.00,0.0060
759.00,0.0058
758.00,0.0057
757.00,0.0055
756.00,0.0053
755.00,0.0051
754.00,0.0050
753.00,0.0049
752.00,0.0050
751.00,0.0051
750.00,0.0052
749.00,0.0051
748.00,0.0050
747.00,0.0049
746.00,0.0050
745.00,0.0052
744.00,0.0053
743.00,0.0054
742.00,0.0055
741.00,0.0056
740.00,0.0058
739.00,0.0059
738.00,0.0060
737.00,0.0060
736.00,0.0062
735.00,0.0065
734.00,0.0069
733.00,0.0071
732.00,0.0071
731.00,0.0070
730.00,0.0068
729.00,0.0067
728.00,0.0066
727.00,0.0064
726.00,0.0063
725.00,0.0062
724.00,0.0063
723.00,0.0064
722.00,0.0065
721.00,0.0064
720.00,0.0062
719.00,0.0061
718.00,0.0059
717.00,0.0058
716.00,0.0058
715.00,0.0058
714.00,0.0058
713.00,0.0057
712.00,0.0055
711.00,0.0054
710.00,0.0052
709.00,0.0052
708.00,0.0052
707.00,0.0053
706.00,0.0054
705.00,0.0055
704.00,0.0055
703.00,0.0056
702.00,0.0057
701.00,0.0057
700.00,0.0057
699.00,0.0056
698.00,0.0056
697.00,0.0055
696.00,0.0055
695.00,0.0055
694.00,0.0055
693.00,0.0055
692.00,0.0054
691.00,0.0053
690.00,0.0052
689.00,0.0051
688.00,0.0049
687.00,0.0048
686.00,0.0048
685.00,0.0051
684.00,0.0055
683.00,0.0056
682.00,0.0055
681.00,0.0053
680.00,0.0052
679.00,0.0051
678.00,0.0051
677.00,0.0051
676.00,0.0051
675.00,0.0052
674.00,0.0052
673.00,0.0052
672.00,0.0050
671.00,0.0050
670.00,0.0053
669.00,0.0057
668.00,0.0063
667.00,0.0066
666.00,0.0065
665.00,0.0063
664.00,0.0061
663.00,0.0059
662.00,0.0056
661.00,0.0054
660.00,0.0053
659.00,0.0053
658.00,0.0054
657.00,0.0056
656.00,0.0057
655.00,0.0057
654.00,0.0057
653.00,0.0057
652.00,0.0056
651.00,0.0056
650.00,0.0055
649.00,0.0054
648.00,0.0054
647.00,0.0055
646.00,0.0055
645.00,0.0056
644.00,0.0056
643.00,0.0056
642.00,0.0056
641.00,0.0056
640.00,0.0056
639.00,0.0056
638.00,0.0056
637.00,0.0056
636.00,0.0056
635.00,0.0056
634.00,0.0056
633.00,0.0056
632.00,0.0056
631.00,0.0058
630.00,0.0060
629.00,0.0061
628.00,0.0061
627.00,0.0061
626.00,0.0061
625.00,0.0062
624.00,0.0062
623.00,0.0060
622.00,0.0058
621.00,0.0056
620.00,0.0054
619.00,0.0053
618.00,0.0052
617.00,0.0050
616.00,0.0051
615.00,0.0054
614.00,0.0056
613.00,0.0057
612.00,0.0055
611.00,0.0053
610.00,0.0054
609.00,0.0056
608.00,0.0057
607.00,0.0058
606.00,0.0056
605.00,0.0054
604.00,0.0052
603.00,0.0052
602.00,0.0054
601.00,0.0058
600.00,0.0060
599.00,0.0060
598.00,0.0058
597.00,0.0056
596.00,0.0055
595.00,0.0056
594.00,0.0057
593.00,0.0056
592.00,0.0054
591.00,0.0051
590.00,0.0048
589.00,0.0046
588.00,0.0045
587.00,0.0046
586.00,0.0049
585.00,0.0052
584.00,0.0054
583.00,0.0056
582.00,0.0058
581.00,0.0059
580.00,0.0059
579.00,0.0058
578.00,0.0059
577.00,0.0060
576.00,0.0062
575.00,0.0064
574.00,0.0064
573.00,0.0063
572.00,0.0059
571.00,0.0055
570.00,0.0052
569.00,0.0051
568.00,0.0052
567.00,0.0054
566.00,0.0057
565.00,0.0057
564.00,0.0057
563.00,0.0058
562.00,0.0059
561.00,0.0061
560.00,0.0063
559.00,0.0063
558.00,0.0061
557.00,0.0060
556.00,0.0060
555.00,0.0063
554.00,0.0065
553.00,0.0065
552.00,0.0062
551.00,0.0060
550.00,0.0058
549.00,0.0058
548.00,0.0058
547.00,0.0058
546.00,0.0057
545.00,0.0058
544.00,0.0059
543.00,0.0061
542.00,0.0063
541.00,0.0064
540.00,0.0063
539.00,0.0062
538.00,0.0061
537.00,0.0064
536.00,0.0069
535.00,0.0074
534.00,0.0077
533.00,0.0077
532.00,0.0075
531.00,0.0071
530.00,0.0069
529.00,0.0070
528.00,0.0074
527.00,0.0078
526.00,0.0082
525.00,0.0082
524.00,0.0079
523.00,0.0077
522.00,0.0075
521.00,0.0073
520.00,0.0072
519.00,0.0070
518.00,0.0070
517.00,0.0072
516.00,0.0073
515.00,0.0073
514.00,0.0072
513.00,0.0070
512.00,0.0069
511.00,0.0069
510.00,0.0066
509.00,0.0061
508.00,0.0055
507.00,0.0053
506.00,0.0056
505.00,0.0060
504.00,0.0062
503.00,0.0060
502.00,0.0058
501.00,0.0058
500.00,0.0058
499.00,0.0056
498.00,0.0053
497.00,0.0051
496.00,0.0049
495.00,0.0047
494.00,0.0043
493.00,0.0041
492.00,0.0041
491.00,0.0044
490.00,0.0045
489.00,0.0046
488.00,0.0049
487.00,0.0053
486.00,0.0057
485.00,0.0057
484.00,0.0055
483.00,0.0052
482.00,0.0051
481.00,0.0052
480.00,0.0057
479.00,0.0063
478.00,0.0066
477.00,0.0063
476.00,0.0058
475.00,0.0057
474.00,0.0064
473.00,0.0075
472.00,0.0085
471.00,0.0089
470.00,0.0088
469.00,0.0086
468.00,0.0089
467.00,0.0098
466.00,0.0111
465.00,0.0122
464.00,0.0130
463.00,0.0137
462.00,0.0144
461.00,0.0151
460.00,0.0158
459.00,0.0167
458.00,0.0175
457.00,0.0175
456.00,0.0165
455.00,0.0148
454.00,0.0131
453.00,0.0116
452.00,0.0102
451.00,0.0089
450.00,0.0078
