Created as New Dataset,Sample 093 By Administrator Date Tuesday, September 09 2025
cm-1,A
4000.00,0.0010
3999.00,0.0010
3998.00,0.0010
3997.00,0.0010
3996.00,0.0010
3995.00,0.0011
3994.00,0.0011
3993.00,0.0011
3992.00,0.0011
3991.00,0.0010
3990.00,0.0010
3989.00,0.0010
3988.00,0.0010
3987.00,0.0010
3986.00,0.0010
3985.00,0.0010
3984.00,0.0010
3983.00,0.0009
3982.00,0.0009
3981.00,0.0009
3980.00,0.0008
3979.00,0.0008
3978.00,0.0008
3977.00,0.0009
3976.00,0.0009
3975.00,0.0009
3974.00,0.0009
3973.00,0.0010
3972.00,0.0009
3971.00,0.0009
3970.00,0.0009
3969.00,0.0009
3968.00,0.0009
3967.00,0.0009
3966.00,0.0009
3965.00,0.0009
3964.00,0.0009
3963.00,0.0009
3962.00,0.0008
3961.00,0.0008
3960.00,0.0008
3959.00,0.0008
3958.00,0.0008
3957.00,0.0008
3956.00,0.0008
3955.00,0.0008
3954.00,0.0008
3953.00,0.0008
3952.00,0.0008
3951.00,0.0008
3950.00,0.0008
3949.00,0.0009
3948.00,0.0009
3947.00,0.0008
3946.00,0.0008
3945.00,0.0008
3944.00,0.0008
3943.00,0.0008
3942.00,0.0009
3941.00,0.0009
3940.00,0.0009
3939.00,0.0009
3938.00,0.0008
3937.00,0.0008
3936.00,0.0008
3935.00,0.0008
3934.00,0.0009
3933.00,0.0009
3932.00,0.0009
3931.00,0.0009
3930.00,0.0009
3929.00,0.0009
3928.00,0.0008
3927.00,0.0008
3926.00,0.0008
3925.00,0.0008
3924.00,0.0009
3923.00,0.0009
3922.00,0.0009
3921.00,0.0009
3920.00,0.0009
3919.00,0.0009
3918.00,0.0008
3917.00,0.0008
3916.00,0.0008
3915.00,0.0008
3914.00,0.0008
3913.00,0.0008
3912.00,0.0008
3911.00,0.0009
3910.00,0.0009
3909.00,0.0009
3908.00,0.0009
3907.00,0.0009
3906.00,0.0009
3905.00,0.0009
3904.00,0.0009
3903.00,0.0009
3902.00,0.0009
3901.00,0.0009
3900.00,0.0009
3899.00,0.0009
3898.00,0.0009
3897.00,0.0009
3896.00,0.0009
3895.00,0.0010
3894.00,0.0010
3893.00,0.0009
3892.00,0.0009
3891.00,0.0009
3890.00,0.0009
3889.00,0.0009
3888.00,0.0009
3887.00,0.0009
3886.00,0.0009
3885.00,0.0009
3884.00,0.0009
3883.00,0.0009
3882.00,0.0008
3881.00,0.0008
3880.00,0.0008
3879.00,0.0008
3878.00,0.0008
3877.00,0.0008
3876.00,0.0008
3875.00,0.0008
3874.00,0.0008
3873.00,0.0008
3872.00,0.0008
3871.00,0.0008
3870.00,0.0009
3869.00,0.0010
3868.00,0.0010
3867.00,0.0009
3866.00,0.0008
3865.00,0.0008
3864.00,0.0007
3863.00,0.0007
3862.00,0.0007
3861.00,0.0007
3860.00,0.0008
3859.00,0.0008
3858.00,0.0009
3857.00,0.0009
3856.00,0.0009
3855.00,0.0008
3854.00,0.0008
3853.00,0.0008
3852.00,0.0008
3851.00,0.0008
3850.00,0.0008
3849.00,0.0008
3848.00,0.0008
3847.00,0.0009
3846.00,0.0009
3845.00,0.0009
3844.00,0.0009
3843.00,0.0008
3842.00,0.0008
3841.00,0.0008
3840.00,0.0008
3839.00,0.0008
3838.00,0.0008
3837.00,0.0009
3836.00,0.0009
3835.00,0.0009
3834.00,0.0009
3833.00,0.0009
3832.00,0.0009
3831.00,0.0009
3830.00,0.0009
3829.00,0.0009
3828.00,0.0009
3827.00,0.0010
3826.00,0.0010
3825.00,0.0010
3824.00,0.0010
3823.00,0.0010
3822.00,0.0010
3821.00,0.0010
3820.00,0.0010
3819.00,0.0009
3818.00,0.0009
3817.00,0.0009
3816.00,0.0009
3815.00,0.0009
3814.00,0.0009
3813.00,0.0009
3812.00,0.0009
3811.00,0.0009
3810.00,0.0009
3809.00,0.0008
3808.00,0.0008
3807.00,0.0008
3806.00,0.0009
3805.00,0.0009
3804.00,0.0009
3803.00,0.0009
3802.00,0.0009
3801.00,0.0009
3800.00,0.0008
3799.00,0.0008
3798.00,0.0008
3797.00,0.0007
3796.00,0.0007
3795.00,0.0007
3794.00,0.0007
3793.00,0.0007
3792.00,0.0007
3791.00,0.0007
3790.00,0.0007
3789.00,0.0007
3788.00,0.0007
3787.00,0.0007
3786.00,0.0007
3785.00,0.0007
3784.00,0.0007
3783.00,0.0008
3782.00,0.0008
3781.00,0.0008
3780.00,0.0007
3779.00,0.0008
3778.00,0.0008
3777.00,0.0008
3776.00,0.0008
3775.00,0.0007
3774.00,0.0007
3773.00,0.0008
3772.00,0.0008
3771.00,0.0009
3770.00,0.0010
3769.00,0.0010
3768.00,0.0010
3767.00,0.0010
3766.00,0.0009
3765.00,0.0009
3764.00,0.0008
3763.00,0.0008
3762.00,0.0008
3761.00,0.0008
3760.00,0.0008
3759.00,0.0009
3758.00,0.0009
3757.00,0.0009
3756.00,0.0009
3755.00,0.0010
3754.00,0.0010
3753.00,0.0010
3752.00,0.0010
3751.00,0.0010
3750.00,0.0010
3749.00,0.0010
3748.00,0.0010
3747.00,0.0010
3746.00,0.0010
3745.00,0.0010
3744.00,0.0010
3743.00,0.0010
3742.00,0.0010
3741.00,0.0009
3740.00,0.0009
3739.00,0.0009
3738.00,0.0009
3737.00,0.0008
3736.00,0.0008
3735.00,0.0008
3734.00,0.0008
3733.00,0.0007
3732.00,0.0007
3731.00,0.0007
3730.00,0.0007
3729.00,0.0007
3728.00,0.0007
3727.00,0.0006
3726.00,0.0006
3725.00,0.0006
3724.00,0.0006
3723.00,0.0007
3722.00,0.0007
3721.00,0.0007
3720.00,0.0007
3719.00,0.0007
3718.00,0.0007
3717.00,0.0007
3716.00,0.0007
3715.00,0.0007
3714.00,0.0008
3713.00,0.0008
3712.00,0.0008
3711.00,0.0007
3710.00,0.0007
3709.00,0.0007
3708.00,0.0007
3707.00,0.0007
3706.00,0.0007
3705.00,0.0007
3704.00,0.0007
3703.00,0.0007
3702.00,0.0007
3701.00,0.0007
3700.00,0.0006
3699.00,0.0006
3698.00,0.0006
3697.00,0.0006
3696.00,0.0007
3695.00,0.0007
3694.00,0.0007
3693.00,0.0007
3692.00,0.0007
3691.00,0.0007
3690.00,0.0007
3689.00,0.0007
3688.00,0.0007
3687.00,0.0007
3686.00,0.0006
3685.00,0.0005
3684.00,0.0005
3683.00,0.0006
3682.00,0.0007
3681.00,0.0008
3680.00,0.0008
3679.00,0.0008
3678.00,0.0008
3677.00,0.0008
3676.00,0.0008
3675.00,0.0009
3674.00,0.0009
3673.00,0.0008
3672.00,0.0007
3671.00,0.0006
3670.00,0.0006
3669.00,0.0007
3668.00,0.0007
3667.00,0.0007
3666.00,0.0006
3665.00,0.0006
3664.00,0.0006
3663.00,0.0006
3662.00,0.0007
3661.00,0.0007
3660.00,0.0007
3659.00,0.0007
3658.00,0.0007
3657.00,0.0007
3656.00,0.0007
3655.00,0.0007
3654.00,0.0007
3653.00,0.0007
3652.00,0.0007
3651.00,0.0008
3650.00,0.0008
3649.00,0.0008
3648.00,0.0008
3647.00,0.0008
3646.00,0.0008
3645.00,0.0007
3644.00,0.0007
3643.00,0.0006
3642.00,0.0006
3641.00,0.0006
3640.00,0.0006
3639.00,0.0006
3638.00,0.0007
3637.00,0.0007
3636.00,0.0007
3635.00,0.0008
3634.00,0.0008
3633.00,0.0009
3632.00,0.0008
3631.00,0.0008
3630.00,0.0008
3629.00,0.0008
3628.00,0.0008
3627.00,0.0007
3626.00,0.0007
3625.00,0.0008
3624.00,0.0009
3623.00,0.0009
3622.00,0.0010
3621.00,0.0010
3620.00,0.0009
3619.00,0.0009
3618.00,0.0009
3617.00,0.0009
3616.00,0.0009
3615.00,0.0009
3614.00,0.0009
3613.00,0.0009
3612.00,0.0010
3611.00,0.0010
3610.00,0.0010
3609.00,0.0011
3608.00,0.0011
3607.00,0.0011
3606.00,0.0011
3605.00,0.0011
3604.00,0.0011
3603.00,0.0010
3602.00,0.0010
3601.00,0.0010
3600.00,0.0010
3599.00,0.0011
3598.00,0.0011
3597.00,0.0012
3596.00,0.0012
3595.00,0.0012
3594.00,0.0012
3593.00,0.0012
3592.00,0.0012
3591.00,0.0012
3590.00,0.0012
3589.00,0.0013
3588.00,0.0013
3587.00,0.0014
3586.00,0.0014
3585.00,0.0014
3584.00,0.0014
3583.00,0.0013
3582.00,0.0013
3581.00,0.0013
3580.00,0.0014
3579.00,0.0014
3578.00,0.0014
3577.00,0.0014
3576.00,0.0015
3575.00,0.0015
3574.00,0.0015
3573.00,0.0015
3572.00,0.0016
3571.00,0.0016
3570.00,0.0017
3569.00,0.0017
3568.00,0.0017
3567.00,0.0016
3566.00,0.0016
3565.00,0.0016
3564.00,0.0016
3563.00,0.0016
3562.00,0.0016
3561.00,0.0017
3560.00,0.0017
3559.00,0.0018
3558.00,0.0018
3557.00,0.0018
3556.00,0.0018
3555.00,0.0018
3554.00,0.0019
3553.00,0.0019
3552.00,0.0019
3551.00,0.0020
3550.00,0.0020
3549.00,0.0020
3548.00,0.0021
3547.00,0.0021
3546.00,0.0021
3545.00,0.0021
3544.00,0.0021
3543.00,0.0021
3542.00,0.0021
3541.00,0.0021
3540.00,0.0022
3539.00,0.0022
3538.00,0.0022
3537.00,0.0022
3536.00,0.0022
3535.00,0.0023
3534.00,0.0023
3533.00,0.0023
3532.00,0.0023
3531.00,0.0023
3530.00,0.0024
3529.00,0.0024
3528.00,0.0024
3527.00,0.0024
3526.00,0.0024
3525.00,0.0025
3524.00,0.0025
3523.00,0.0026
3522.00,0.0026
3521.00,0.0026
3520.00,0.0026
3519.00,0.0026
3518.00,0.0026
3517.00,0.0026
3516.00,0.0026
3515.00,0.0027
3514.00,0.0027
3513.00,0.0027
3512.00,0.0027
3511.00,0.0028
3510.00,0.0028
3509.00,0.0028
3508.00,0.0028
3507.00,0.0028
3506.00,0.0028
3505.00,0.0028
3504.00,0.0029
3503.00,0.0029
3502.00,0.0029
3501.00,0.0029
3500.00,0.0030
3499.00,0.0030
3498.00,0.0030
3497.00,0.0030
3496.00,0.0031
3495.00,0.0031
3494.00,0.0031
3493.00,0.0031
3492.00,0.0032
3491.00,0.0032
3490.00,0.0032
3489.00,0.0033
3488.00,0.0033
3487.00,0.0033
3486.00,0.0033
3485.00,0.0033
3484.00,0.0033
3483.00,0.0033
3482.00,0.0033
3481.00,0.0033
3480.00,0.0033
3479.00,0.0034
3478.00,0.0034
3477.00,0.0035
3476.00,0.0035
3475.00,0.0036
3474.00,0.0036
3473.00,0.0036
3472.00,0.0036
3471.00,0.0036
3470.00,0.0036
3469.00,0.0036
3468.00,0.0037
3467.00,0.0037
3466.00,0.0037
3465.00,0.0037
3464.00,0.0037
3463.00,0.0037
3462.00,0.0037
3461.00,0.0038
3460.00,0.0038
3459.00,0.0039
3458.00,0.0039
3457.00,0.0039
3456.00,0.0040
3455.00,0.0040
3454.00,0.0040
3453.00,0.0040
3452.00,0.0040
3451.00,0.0040
3450.00,0.0040
3449.00,0.0040
3448.00,0.0040
3447.00,0.0041
3446.00,0.0041
3445.00,0.0041
3444.00,0.0041
3443.00,0.0041
3442.00,0.0041
3441.00,0.0041
3440.00,0.0041
3439.00,0.0041
3438.00,0.0042
3437.00,0.0042
3436.00,0.0042
3435.00,0.0042
3434.00,0.0043
3433.00,0.0043
3432.00,0.0043
3431.00,0.0043
3430.00,0.0044
3429.00,0.0044
3428.00,0.0045
3427.00,0.0045
3426.00,0.0045
3425.00,0.0045
3424.00,0.0045
3423.00,0.0046
3422.00,0.0046
3421.00,0.0046
3420.00,0.0046
3419.00,0.0046
3418.00,0.0047
3417.00,0.0047
3416.00,0.0047
3415.00,0.0047
3414.00,0.0047
3413.00,0.0047
3412.00,0.0047
3411.00,0.0047
3410.00,0.0047
3409.00,0.0047
3408.00,0.0047
3407.00,0.0048
3406.00,0.0048
3405.00,0.0048
3404.00,0.0049
3403.00,0.0050
3402.00,0.0050
3401.00,0.0051
3400.00,0.0051
3399.00,0.0051
3398.00,0.0050
3397.00,0.0050
3396.00,0.0050
3395.00,0.0050
3394.00,0.0050
3393.00,0.0050
3392.00,0.0050
3391.00,0.0050
3390.00,0.0050
3389.00,0.0050
3388.00,0.0050
3387.00,0.0050
3386.00,0.0050
3385.00,0.0050
3384.00,0.0050
3383.00,0.0051
3382.00,0.0051
3381.00,0.0051
3380.00,0.0051
3379.00,0.0051
3378.00,0.0051
3377.00,0.0051
3376.00,0.0051
3375.00,0.0051
3374.00,0.0051
3373.00,0.0051
3372.00,0.0051
3371.00,0.0051
3370.00,0.0051
3369.00,0.0051
3368.00,0.0051
3367.00,0.0051
3366.00,0.0051
3365.00,0.0052
3364.00,0.0052
3363.00,0.0052
3362.00,0.0053
3361.00,0.0053
3360.00,0.0053
3359.00,0.0053
3358.00,0.0052
3357.00,0.0052
3356.00,0.0052
3355.00,0.0052
3354.00,0.0052
3353.00,0.0052
3352.00,0.0052
3351.00,0.0052
3350.00,0.0052
3349.00,0.0052
3348.00,0.0052
3347.00,0.0052
3346.00,0.0052
3345.00,0.0052
3344.00,0.0052
3343.00,0.0052
3342.00,0.0052
3341.00,0.0052
3340.00,0.0052
3339.00,0.0051
3338.00,0.0051
3337.00,0.0051
3336.00,0.0051
3335.00,0.0051
3334.00,0.0051
3333.00,0.0051
3332.00,0.0051
3331.00,0.0051
3330.00,0.0051
3329.00,0.0051
3328.00,0.0051
3327.00,0.0051
3326.00,0.0051
3325.00,0.0051
3324.00,0.0051
3323.00,0.0050
3322.00,0.0050
3321.00,0.0050
3320.00,0.0049
3319.00,0.0049
3318.00,0.0049
3317.00,0.0049
3316.00,0.0049
3315.00,0.0049
3314.00,0.0049
3313.00,0.0049
3312.00,0.0049
3311.00,0.0049
3310.00,0.0049
3309.00,0.0049
3308.00,0.0049
3307.00,0.0049
3306.00,0.0049
3305.00,0.0050
3304.00,0.0050
3303.00,0.0050
3302.00,0.0050
3301.00,0.0050
3300.00,0.0051
3299.00,0.0051
3298.00,0.0051
3297.00,0.0050
3296.00,0.0050
3295.00,0.0050
3294.00,0.0049
3293.00,0.0049
3292.00,0.0049
3291.00,0.0049
3290.00,0.0048
3289.00,0.0048
3288.00,0.0048
3287.00,0.0048
3286.00,0.0048
3285.00,0.0048
3284.00,0.0048
3283.00,0.0048
3282.00,0.0048
3281.00,0.0048
3280.00,0.0048
3279.00,0.0048
3278.00,0.0048
3277.00,0.0047
3276.00,0.0047
3275.00,0.0047
3274.00,0.0047
3273.00,0.0047
3272.00,0.0047
3271.00,0.0047
3270.00,0.0046
3269.00,0.0046
3268.00,0.0046
3267.00,0.0046
3266.00,0.0046
3265.00,0.0046
3264.00,0.0046
3263.00,0.0045
3262.00,0.0045
3261.00,0.0045
3260.00,0.0045
3259.00,0.0045
3258.00,0.0045
3257.00,0.0045
3256.00,0.0045
3255.00,0.0045
3254.00,0.0045
3253.00,0.0045
3252.00,0.0044
3251.00,0.0044
3250.00,0.0044
3249.00,0.0044
3248.00,0.0044
3247.00,0.0044
3246.00,0.0044
3245.00,0.0044
3244.00,0.0044
3243.00,0.0044
3242.00,0.0043
3241.00,0.0043
3240.00,0.0043
3239.00,0.0043
3238.00,0.0043
3237.00,0.0043
3236.00,0.0044
3235.00,0.0044
3234.00,0.0044
3233.00,0.0044
3232.00,0.0044
3231.00,0.0044
3230.00,0.0044
3229.00,0.0044
3228.00,0.0045
3227.00,0.0045
3226.00,0.0045
3225.00,0.0045
3224.00,0.0045
3223.00,0.0045
3222.00,0.0045
3221.00,0.0046
3220.00,0.0046
3219.00,0.0047
3218.00,0.0047
3217.00,0.0047
3216.00,0.0047
3215.00,0.0047
3214.00,0.0047
3213.00,0.0048
3212.00,0.0048
3211.00,0.0049
3210.00,0.0049
3209.00,0.0049
3208.00,0.0049
3207.00,0.0049
3206.00,0.0049
3205.00,0.0049
3204.00,0.0049
3203.00,0.0050
3202.00,0.0050
3201.00,0.0050
3200.00,0.0050
3199.00,0.0050
3198.00,0.0050
3197.00,0.0050
3196.00,0.0051
3195.00,0.0051
3194.00,0.0051
3193.00,0.0051
3192.00,0.0051
3191.00,0.0050
3190.00,0.0050
3189.00,0.0050
3188.00,0.0050
3187.00,0.0050
3186.00,0.0049
3185.00,0.0049
3184.00,0.0048
3183.00,0.0048
3182.00,0.0048
3181.00,0.0048
3180.00,0.0048
3179.00,0.0048
3178.00,0.0048
3177.00,0.0048
3176.00,0.0048
3175.00,0.0048
3174.00,0.0047
3173.00,0.0047
3172.00,0.0047
3171.00,0.0046
3170.00,0.0046
3169.00,0.0046
3168.00,0.0046
3167.00,0.0045
3166.00,0.0045
3165.00,0.0045
3164.00,0.0045
3163.00,0.0045
3162.00,0.0044
3161.00,0.0044
3160.00,0.0044
3159.00,0.0044
3158.00,0.0044
3157.00,0.0044
3156.00,0.0044
3155.00,0.0043
3154.00,0.0043
3153.00,0.0043
3152.00,0.0043
3151.00,0.0043
3150.00,0.0043
3149.00,0.0043
3148.00,0.0043
3147.00,0.0043
3146.00,0.0042
3145.00,0.0042
3144.00,0.0042
3143.00,0.0042
3142.00,0.0041
3141.00,0.0041
3140.00,0.0041
3139.00,0.0041
3138.00,0.0041
3137.00,0.0040
3136.00,0.0040
3135.00,0.0040
3134.00,0.0040
3133.00,0.0040
3132.00,0.0040
3131.00,0.0039
3130.00,0.0039
3129.00,0.0039
3128.00,0.0039
3127.00,0.0039
3126.00,0.0038
3125.00,0.0038
3124.00,0.0038
3123.00,0.0037
3122.00,0.0037
3121.00,0.0036
3120.00,0.0036
3119.00,0.0036
3118.00,0.0036
3117.00,0.0036
3116.00,0.0036
3115.00,0.0036
3114.00,0.0036
3113.00,0.0036
3112.00,0.0035
3111.00,0.0035
3110.00,0.0035
3109.00,0.0035
3108.00,0.0035
3107.00,0.0035
3106.00,0.0035
3105.00,0.0034
3104.00,0.0034
3103.00,0.0034
3102.00,0.0034
3101.00,0.0034
3100.00,0.0034
3099.00,0.0034
3098.00,0.0034
3097.00,0.0033
3096.00,0.0033
3095.00,0.0033
3094.00,0.0033
3093.00,0.0033
3092.00,0.0033
3091.00,0.0033
3090.00,0.0033
3089.00,0.0033
3088.00,0.0033
3087.00,0.0033
3086.00,0.0033
3085.00,0.0033
3084.00,0.0033
3083.00,0.0033
3082.00,0.0033
3081.00,0.0032
3080.00,0.0032
3079.00,0.0032
3078.00,0.0032
3077.00,0.0032
3076.00,0.0032
3075.00,0.0032
3074.00,0.0032
3073.00,0.0032
3072.00,0.0032
3071.00,0.0032
3070.00,0.0032
3069.00,0.0032
3068.00,0.0032
3067.00,0.0033
3066.00,0.0033
3065.00,0.0033
3064.00,0.0033
3063.00,0.0034
3062.00,0.0034
3061.00,0.0034
3060.00,0.0035
3059.00,0.0035
3058.00,0.0034
3057.00,0.0034
3056.00,0.0034
3055.00,0.0034
3054.00,0.0035
3053.00,0.0035
3052.00,0.0035
3051.00,0.0035
3050.00,0.0035
3049.00,0.0035
3048.00,0.0036
3047.00,0.0036
3046.00,0.0036
3045.00,0.0037
3044.00,0.0037
3043.00,0.0037
3042.00,0.0037
3041.00,0.0037
3040.00,0.0038
3039.00,0.0038
3038.00,0.0038
3037.00,0.0039
3036.00,0.0039
3035.00,0.0039
3034.00,0.0039
3033.00,0.0039
3032.00,0.0040
3031.00,0.0040
3030.00,0.0041
3029.00,0.0041
3028.00,0.0042
3027.00,0.0043
3026.00,0.0043
3025.00,0.0044
3024.00,0.0044
3023.00,0.0045
3022.00,0.0046
3021.00,0.0047
3020.00,0.0048
3019.00,0.0049
3018.00,0.0050
3017.00,0.0050
3016.00,0.0051
3015.00,0.0052
3014.00,0.0053
3013.00,0.0054
3012.00,0.0055
3011.00,0.0056
3010.00,0.0057
3009.00,0.0058
3008.00,0.0060
3007.00,0.0062
3006.00,0.0064
3005.00,0.0066
3004.00,0.0068
3003.00,0.0070
3002.00,0.0073
3001.00,0.0076
3000.00,0.0079
2999.00,0.0082
2998.00,0.0085
2997.00,0.0089
2996.00,0.0093
2995.00,0.0097
2994.00,0.0101
2993.00,0.0107
2992.00,0.0112
2991.00,0.0118
2990.00,0.0125
2989.00,0.0134
2988.00,0.0143
2987.00,0.0152
2986.00,0.0163
2985.00,0.0175
2984.00,0.0188
2983.00,0.0203
2982.00,0.0220
2981.00,0.0240
2980.00,0.0262
2979.00,0.0287
2978.00,0.0315
2977.00,0.0348
2976.00,0.0385
2975.00,0.0427
2974.00,0.0475
2973.00,0.0529
2972.00,0.0590
2971.00,0.0659
2970.00,0.0737
2969.00,0.0823
2968.00,0.0918
2967.00,0.1022
2966.00,0.1134
2965.00,0.1253
2964.00,0.1375
2963.00,0.1496
2962.00,0.1610
2961.00,0.1711
2960.00,0.1793
2959.00,0.1857
2958.00,0.1902
2957.00,0.1933
2956.00,0.1955
2955.00,0.1976
2954.00,0.1998
2953.00,0.2021
2952.00,0.2040
2951.00,0.2047
2950.00,0.2033
2949.00,0.1991
2948.00,0.1916
2947.00,0.1811
2946.00,0.1685
2945.00,0.1550
2944.00,0.1418
2943.00,0.1300
2942.00,0.1205
2941.00,0.1134
2940.00,0.1089
2939.00,0.1067
2938.00,0.1067
2937.00,0.1085
2936.00,0.1120
2935.00,0.1169
2934.00,0.1232
2933.00,0.1306
2932.00,0.1390
2931.00,0.1482
2930.00,0.1578
2929.00,0.1675
2928.00,0.1769
2927.00,0.1860
2926.00,0.1945
2925.00,0.2026
2924.00,0.2102
2923.00,0.2175
2922.00,0.2246
2921.00,0.2313
2920.00,0.2372
2919.00,0.2417
2918.00,0.2441
2917.00,0.2441
2916.00,0.2415
2915.00,0.2366
2914.00,0.2302
2913.00,0.2229
2912.00,0.2156
2911.00,0.2086
2910.00,0.2023
2909.00,0.1966
2908.00,0.1911
2907.00,0.1857
2906.00,0.1802
2905.00,0.1742
2904.00,0.1678
2903.00,0.1611
2902.00,0.1542
2901.00,0.1472
2900.00,0.1403
2899.00,0.1338
2898.00,0.1277
2897.00,0.1221
2896.00,0.1173
2895.00,0.1131
2894.00,0.1097
2893.00,0.1069
2892.00,0.1049
2891.00,0.1035
2890.00,0.1027
2889.00,0.1024
2888.00,0.1025
2887.00,0.1029
2886.00,0.1037
2885.00,0.1049
2884.00,0.1065
2883.00,0.1085
2882.00,0.1108
2881.00,0.1132
2880.00,0.1156
2879.00,0.1175
2878.00,0.1187
2877.00,0.1190
2876.00,0.1185
2875.00,0.1176
2874.00,0.1168
2873.00,0.1164
2872.00,0.1168
2871.00,0.1179
2870.00,0.1196
2869.00,0.1212
2868.00,0.1222
2867.00,0.1217
2866.00,0.1191
2865.00,0.1141
2864.00,0.1069
2863.00,0.0984
2862.00,0.0895
2861.00,0.0812
2860.00,0.0740
2859.00,0.0682
2858.00,0.0638
2857.00,0.0607
2856.00,0.0587
2855.00,0.0577
2854.00,0.0574
2853.00,0.0578
2852.00,0.0589
2851.00,0.0606
2850.00,0.0629
2849.00,0.0659
2848.00,0.0696
2847.00,0.0742
2846.00,0.0796
2845.00,0.0859
2844.00,0.0932
2843.00,0.1010
2842.00,0.1091
2841.00,0.1169
2840.00,0.1234
2839.00,0.1277
2838.00,0.1289
2837.00,0.1265
2836.00,0.1203
2835.00,0.1112
2834.00,0.1001
2833.00,0.0884
2832.00,0.0772
2831.00,0.0672
2830.00,0.0587
2829.00,0.0518
2828.00,0.0462
2827.00,0.0417
2826.00,0.0381
2825.00,0.0350
2824.00,0.0325
2823.00,0.0304
2822.00,0.0286
2821.00,0.0270
2820.00,0.0256
2819.00,0.0244
2818.00,0.0234
2817.00,0.0225
2816.00,0.0217
2815.00,0.0210
2814.00,0.0203
2813.00,0.0197
2812.00,0.0192
2811.00,0.0187
2810.00,0.0182
2809.00,0.0177
2808.00,0.0171
2807.00,0.0165
2806.00,0.0159
2805.00,0.0152
2804.00,0.0145
2803.00,0.0139
2802.00,0.0133
2801.00,0.0129
2800.00,0.0125
2799.00,0.0122
2798.00,0.0119
2797.00,0.0117
2796.00,0.0115
2795.00,0.0113
2794.00,0.0110
2793.00,0.0107
2792.00,0.0104
2791.00,0.0100
2790.00,0.0096
2789.00,0.0092
2788.00,0.0088
2787.00,0.0085
2786.00,0.0082
2785.00,0.0079
2784.00,0.0077
2783.00,0.0075
2782.00,0.0073
2781.00,0.0071
2780.00,0.0069
2779.00,0.0068
2778.00,0.0066
2777.00,0.0064
2776.00,0.0063
2775.00,0.0061
2774.00,0.0061
2773.00,0.0060
2772.00,0.0059
2771.00,0.0059
2770.00,0.0059
2769.00,0.0058
2768.00,0.0058
2767.00,0.0057
2766.00,0.0057
2765.00,0.0057
2764.00,0.0057
2763.00,0.0057
2762.00,0.0056
2761.00,0.0056
2760.00,0.0055
2759.00,0.0055
2758.00,0.0054
2757.00,0.0054
2756.00,0.0054
2755.00,0.0054
2754.00,0.0054
2753.00,0.0053
2752.00,0.0053
2751.00,0.0053
2750.00,0.0053
2749.00,0.0053
2748.00,0.0053
2747.00,0.0054
2746.00,0.0054
2745.00,0.0055
2744.00,0.0055
2743.00,0.0056
2742.00,0.0058
2741.00,0.0059
2740.00,0.0060
2739.00,0.0061
2738.00,0.0062
2737.00,0.0064
2736.00,0.0065
2735.00,0.0067
2734.00,0.0068
2733.00,0.0070
2732.00,0.0072
2731.00,0.0074
2730.00,0.0076
2729.00,0.0079
2728.00,0.0081
2727.00,0.0084
2726.00,0.0087
2725.00,0.0089
2724.00,0.0091
2723.00,0.0091
2722.00,0.0090
2721.00,0.0088
2720.00,0.0085
2719.00,0.0082
2718.00,0.0078
2717.00,0.0074
2716.00,0.0072
2715.00,0.0069
2714.00,0.0067
2713.00,0.0065
2712.00,0.0063
2711.00,0.0061
2710.00,0.0060
2709.00,0.0058
2708.00,0.0057
2707.00,0.0056
2706.00,0.0055
2705.00,0.0054
2704.00,0.0052
2703.00,0.0051
2702.00,0.0050
2701.00,0.0049
2700.00,0.0049
2699.00,0.0048
2698.00,0.0048
2697.00,0.0048
2696.00,0.0048
2695.00,0.0048
2694.00,0.0048
2693.00,0.0048
2692.00,0.0047
2691.00,0.0047
2690.00,0.0047
2689.00,0.0047
2688.00,0.0047
2687.00,0.0047
2686.00,0.0047
2685.00,0.0047
2684.00,0.0047
2683.00,0.0047
2682.00,0.0047
2681.00,0.0048
2680.00,0.0048
2679.00,0.0048
2678.00,0.0048
2677.00,0.0047
2676.00,0.0047
2675.00,0.0047
2674.00,0.0047
2673.00,0.0047
2672.00,0.0047
2671.00,0.0047
2670.00,0.0047
2669.00,0.0047
2668.00,0.0047
2667.00,0.0047
2666.00,0.0048
2665.00,0.0048
2664.00,0.0048
2663.00,0.0049
2662.00,0.0049
2661.00,0.0049
2660.00,0.0049
2659.00,0.0049
2658.00,0.0049
2657.00,0.0048
2656.00,0.0048
2655.00,0.0048
2654.00,0.0047
2653.00,0.0047
2652.00,0.0046
2651.00,0.0045
2650.00,0.0045
2649.00,0.0044
2648.00,0.0043
2647.00,0.0043
2646.00,0.0042
2645.00,0.0042
2644.00,0.0042
2643.00,0.0042
2642.00,0.0042
2641.00,0.0041
2640.00,0.0041
2639.00,0.0040
2638.00,0.0040
2637.00,0.0039
2636.00,0.0039
2635.00,0.0039
2634.00,0.0039
2633.00,0.0039
2632.00,0.0039
2631.00,0.0040
2630.00,0.0040
2629.00,0.0040
2628.00,0.0040
2627.00,0.0040
2626.00,0.0041
2625.00,0.0041
2624.00,0.0041
2623.00,0.0041
2622.00,0.0040
2621.00,0.0040
2620.00,0.0041
2619.00,0.0041
2618.00,0.0041
2617.00,0.0041
2616.00,0.0041
2615.00,0.0041
2614.00,0.0041
2613.00,0.0041
2612.00,0.0041
2611.00,0.0040
2610.00,0.0040
2609.00,0.0039
2608.00,0.0038
2607.00,0.0037
2606.00,0.0036
2605.00,0.0035
2604.00,0.0035
2603.00,0.0034
2602.00,0.0034
2601.00,0.0034
2600.00,0.0034
2599.00,0.0034
2598.00,0.0033
2597.00,0.0033
2596.00,0.0033
2595.00,0.0034
2594.00,0.0034
2593.00,0.0034
2592.00,0.0034
2591.00,0.0034
2590.00,0.0034
2589.00,0.0034
2588.00,0.0035
2587.00,0.0036
2586.00,0.0038
2585.00,0.0039
2584.00,0.0039
2583.00,0.0040
2582.00,0.0040
2581.00,0.0040
2580.00,0.0039
2579.00,0.0038
2578.00,0.0037
2577.00,0.0036
2576.00,0.0035
2575.00,0.0034
2574.00,0.0034
2573.00,0.0033
2572.00,0.0032
2571.00,0.0032
2570.00,0.0031
2569.00,0.0030
2568.00,0.0029
2567.00,0.0028
2566.00,0.0027
2565.00,0.0027
2564.00,0.0027
2563.00,0.0027
2562.00,0.0026
2561.00,0.0025
2560.00,0.0025
2559.00,0.0024
2558.00,0.0024
2557.00,0.0024
2556.00,0.0023
2555.00,0.0023
2554.00,0.0023
2553.00,0.0023
2552.00,0.0023
2551.00,0.0022
2550.00,0.0023
2549.00,0.0023
2548.00,0.0023
2547.00,0.0022
2546.00,0.0021
2545.00,0.0020
2544.00,0.0020
2543.00,0.0020
2542.00,0.0020
2541.00,0.0020
2540.00,0.0020
2539.00,0.0019
2538.00,0.0019
2537.00,0.0019
2536.00,0.0018
2535.00,0.0018
2534.00,0.0018
2533.00,0.0018
2532.00,0.0018
2531.00,0.0019
2530.00,0.0018
2529.00,0.0018
2528.00,0.0018
2527.00,0.0017
2526.00,0.0017
2525.00,0.0016
2524.00,0.0015
2523.00,0.0014
2522.00,0.0014
2521.00,0.0013
2520.00,0.0013
2519.00,0.0013
2518.00,0.0013
2517.00,0.0014
2516.00,0.0014
2515.00,0.0014
2514.00,0.0014
2513.00,0.0013
2512.00,0.0013
2511.00,0.0012
2510.00,0.0012
2509.00,0.0012
2508.00,0.0012
2507.00,0.0012
2506.00,0.0012
2505.00,0.0012
2504.00,0.0012
2503.00,0.0011
2502.00,0.0011
2501.00,0.0012
2500.00,0.0013
2499.00,0.0013
2498.00,0.0013
2497.00,0.0013
2496.00,0.0013
2495.00,0.0013
2494.00,0.0013
2493.00,0.0013
2492.00,0.0012
2491.00,0.0012
2490.00,0.0011
2489.00,0.0011
2488.00,0.0011
2487.00,0.0011
2486.00,0.0012
2485.00,0.0012
2484.00,0.0012
2483.00,0.0012
2482.00,0.0013
2481.00,0.0012
2480.00,0.0012
2479.00,0.0012
2478.00,0.0011
2477.00,0.0010
2476.00,0.0010
2475.00,0.0010
2474.00,0.0010
2473.00,0.0010
2472.00,0.0010
2471.00,0.0009
2470.00,0.0009
2469.00,0.0010
2468.00,0.0010
2467.00,0.0010
2466.00,0.0011
2465.00,0.0012
2464.00,0.0012
2463.00,0.0012
2462.00,0.0012
2461.00,0.0012
2460.00,0.0012
2459.00,0.0012
2458.00,0.0012
2457.00,0.0013
2456.00,0.0013
2455.00,0.0013
2454.00,0.0013
2453.00,0.0013
2452.00,0.0012
2451.00,0.0012
2450.00,0.0012
2449.00,0.0012
2448.00,0.0012
2447.00,0.0012
2446.00,0.0012
2445.00,0.0012
2444.00,0.0012
2443.00,0.0012
2442.00,0.0011
2441.00,0.0012
2440.00,0.0013
2439.00,0.0014
2438.00,0.0014
2437.00,0.0014
2436.00,0.0014
2435.00,0.0013
2434.00,0.0013
2433.00,0.0013
2432.00,0.0013
2431.00,0.0014
2430.00,0.0013
2429.00,0.0013
2428.00,0.0013
2427.00,0.0013
2426.00,0.0012
2425.00,0.0012
2424.00,0.0012
2423.00,0.0012
2422.00,0.0011
2421.00,0.0011
2420.00,0.0011
2419.00,0.0011
2418.00,0.0011
2417.00,0.0011
2416.00,0.0011
2415.00,0.0011
2414.00,0.0011
2413.00,0.0012
2412.00,0.0012
2411.00,0.0012
2410.00,0.0012
2409.00,0.0012
2408.00,0.0012
2407.00,0.0011
2406.00,0.0011
2405.00,0.0010
2404.00,0.0010
2403.00,0.0010
2402.00,0.0010
2401.00,0.0011
2400.00,0.0011
2399.00,0.0011
2398.00,0.0011
2397.00,0.0011
2396.00,0.0011
2395.00,0.0011
2394.00,0.0011
2393.00,0.0011
2392.00,0.0011
2391.00,0.0011
2390.00,0.0011
2389.00,0.0011
2388.00,0.0010
2387.00,0.0009
2386.00,0.0008
2385.00,0.0007
2384.00,0.0007
2383.00,0.0006
2382.00,0.0006
2381.00,0.0006
2380.00,0.0006
2379.00,0.0005
2378.00,0.0005
2377.00,0.0004
2376.00,0.0004
2375.00,0.0004
2374.00,0.0005
2373.00,0.0005
2372.00,0.0005
2371.00,0.0004
2370.00,0.0004
2369.00,0.0003
2368.00,0.0003
2367.00,0.0002
2366.00,0.0002
2365.00,0.0002
2364.00,0.0003
2363.00,0.0003
2362.00,0.0004
2361.00,0.0004
2360.00,0.0004
2359.00,0.0004
2358.00,0.0003
2357.00,0.0003
2356.00,0.0003
2355.00,0.0004
2354.00,0.0004
2353.00,0.0004
2352.00,0.0004
2351.00,0.0004
2350.00,0.0004
2349.00,0.0004
2348.00,0.0004
2347.00,0.0004
2346.00,0.0004
2345.00,0.0005
2344.00,0.0005
2343.00,0.0006
2342.00,0.0007
2341.00,0.0007
2340.00,0.0006
2339.00,0.0007
2338.00,0.0007
2337.00,0.0007
2336.00,0.0006
2335.00,0.0006
2334.00,0.0006
2333.00,0.0006
2332.00,0.0006
2331.00,0.0006
2330.00,0.0006
2329.00,0.0007
2328.00,0.0009
2327.00,0.0013
2326.00,0.0017
2325.00,0.0020
2324.00,0.0021
2323.00,0.0020
2322.00,0.0018
2321.00,0.0015
2320.00,0.0014
2319.00,0.0013
2318.00,0.0012
2317.00,0.0012
2316.00,0.0012
2315.00,0.0012
2314.00,0.0011
2313.00,0.0011
2312.00,0.0011
2311.00,0.0011
2310.00,0.0011
2309.00,0.0011
2308.00,0.0011
2307.00,0.0012
2306.00,0.0013
2305.00,0.0013
2304.00,0.0013
2303.00,0.0013
2302.00,0.0012
2301.00,0.0013
2300.00,0.0013
2299.00,0.0014
2298.00,0.0015
2297.00,0.0015
2296.00,0.0015
2295.00,0.0016
2294.00,0.0016
2293.00,0.0016
2292.00,0.0016
2291.00,0.0017
2290.00,0.0018
2289.00,0.0018
2288.00,0.0019
2287.00,0.0020
2286.00,0.0020
2285.00,0.0020
2284.00,0.0019
2283.00,0.0018
2282.00,0.0016
2281.00,0.0015
2280.00,0.0015
2279.00,0.0015
2278.00,0.0014
2277.00,0.0014
2276.00,0.0013
2275.00,0.0013
2274.00,0.0013
2273.00,0.0013
2272.00,0.0012
2271.00,0.0012
2270.00,0.0012
2269.00,0.0013
2268.00,0.0014
2267.00,0.0014
2266.00,0.0014
2265.00,0.0013
2264.00,0.0013
2263.00,0.0012
2262.00,0.0013
2261.00,0.0013
2260.00,0.0014
2259.00,0.0014
2258.00,0.0014
2257.00,0.0013
2256.00,0.0012
2255.00,0.0011
2254.00,0.0010
2253.00,0.0009
2252.00,0.0009
2251.00,0.0009
2250.00,0.0009
2249.00,0.0009
2248.00,0.0009
2247.00,0.0009
2246.00,0.0009
2245.00,0.0009
2244.00,0.0009
2243.00,0.0008
2242.00,0.0006
2241.00,0.0005
2240.00,0.0005
2239.00,0.0006
2238.00,0.0008
2237.00,0.0009
2236.00,0.0010
2235.00,0.0009
2234.00,0.0008
2233.00,0.0006
2232.00,0.0006
2231.00,0.0006
2230.00,0.0008
2229.00,0.0009
2228.00,0.0010
2227.00,0.0010
2226.00,0.0009
2225.00,0.0008
2224.00,0.0009
2223.00,0.0009
2222.00,0.0009
2221.00,0.0009
2220.00,0.0008
2219.00,0.0007
2218.00,0.0007
2217.00,0.0007
2216.00,0.0007
2215.00,0.0007
2214.00,0.0006
2213.00,0.0006
2212.00,0.0005
2211.00,0.0005
2210.00,0.0006
2209.00,0.0007
2208.00,0.0009
2207.00,0.0011
2206.00,0.0012
2205.00,0.0011
2204.00,0.0010
2203.00,0.0008
2202.00,0.0007
2201.00,0.0006
2200.00,0.0005
2199.00,0.0004
2198.00,0.0003
2197.00,0.0004
2196.00,0.0005
2195.00,0.0007
2194.00,0.0007
2193.00,0.0008
2192.00,0.0010
2191.00,0.0010
2190.00,0.0010
2189.00,0.0010
2188.00,0.0009
2187.00,0.0009
2186.00,0.0010
2185.00,0.0011
2184.00,0.0011
2183.00,0.0009
2182.00,0.0006
2181.00,0.0004
2180.00,0.0005
2179.00,0.0006
2178.00,0.0007
2177.00,0.0005
2176.00,0.0003
2175.00,0.0002
2174.00,0.0003
2173.00,0.0005
2172.00,0.0007
2171.00,0.0009
2170.00,0.0011
2169.00,0.0013
2168.00,0.0014
2167.00,0.0015
2166.00,0.0015
2165.00,0.0016
2164.00,0.0018
2163.00,0.0021
2162.00,0.0023
2161.00,0.0018
2160.00,0.0006
2159.00,-0.0010
2158.00,-0.0022
2157.00,-0.0026
2156.00,-0.0024
2155.00,-0.0022
2154.00,-0.0019
2153.00,-0.0018
2152.00,-0.0017
2151.00,-0.0015
2150.00,-0.0012
2149.00,-0.0009
2148.00,-0.0006
2147.00,-0.0007
2146.00,-0.0010
2145.00,-0.0013
2144.00,-0.0015
2143.00,-0.0014
2142.00,-0.0013
2141.00,-0.0011
2140.00,-0.0010
2139.00,-0.0010
2138.00,-0.0010
2137.00,-0.0011
2136.00,-0.0012
2135.00,-0.0013
2134.00,-0.0014
2133.00,-0.0014
2132.00,-0.0012
2131.00,-0.0010
2130.00,-0.0008
2129.00,-0.0007
2128.00,-0.0007
2127.00,-0.0007
2126.00,-0.0007
2125.00,-0.0007
2124.00,-0.0005
2123.00,-0.0003
2122.00,-0.0001
2121.00,0.0001
2120.00,0.0001
2119.00,0.0001
2118.00,0.0002
2117.00,0.0004
2116.00,0.0007
2115.00,0.0008
2114.00,0.0007
2113.00,0.0006
2112.00,0.0005
2111.00,0.0004
2110.00,0.0004
2109.00,0.0003
2108.00,0.0002
2107.00,0.0001
2106.00,0.0002
2105.00,0.0003
2104.00,0.0004
2103.00,0.0006
2102.00,0.0007
2101.00,0.0008
2100.00,0.0008
2099.00,0.0006
2098.00,0.0004
2097.00,0.0002
2096.00,-0.0000
2095.00,-0.0002
2094.00,-0.0003
2093.00,-0.0002
2092.00,-0.0001
2091.00,0.0001
2090.00,0.0003
2089.00,0.0004
2088.00,0.0006
2087.00,0.0007
2086.00,0.0007
2085.00,0.0007
2084.00,0.0006
2083.00,0.0005
2082.00,0.0004
2081.00,0.0004
2080.00,0.0004
2079.00,0.0004
2078.00,0.0004
2077.00,0.0004
2076.00,0.0003
2075.00,0.0002
2074.00,0.0001
2073.00,0.0000
2072.00,-0.0000
2071.00,0.0000
2070.00,0.0001
2069.00,0.0002
2068.00,0.0002
2067.00,0.0002
2066.00,0.0002
2065.00,0.0001
2064.00,-0.0001
2063.00,-0.0003
2062.00,-0.0003
2061.00,-0.0001
2060.00,0.0002
2059.00,0.0004
2058.00,0.0005
2057.00,0.0004
2056.00,0.0002
2055.00,0.0001
2054.00,0.0001
2053.00,0.0005
2052.00,0.0010
2051.00,0.0013
2050.00,0.0014
2049.00,0.0011
2048.00,0.0007
2047.00,0.0003
2046.00,0.0000
2045.00,-0.0002
2044.00,-0.0002
2043.00,-0.0002
2042.00,0.0000
2041.00,0.0003
2040.00,0.0005
2039.00,0.0006
2038.00,0.0005
2037.00,0.0003
2036.00,-0.0002
2035.00,-0.0007
2034.00,-0.0010
2033.00,-0.0010
2032.00,-0.0009
2031.00,-0.0007
2030.00,-0.0006
2029.00,-0.0005
2028.00,-0.0004
2027.00,-0.0003
2026.00,-0.0003
2025.00,-0.0005
2024.00,-0.0008
2023.00,-0.0013
2022.00,-0.0016
2021.00,-0.0018
2020.00,-0.0018
2019.00,-0.0018
2018.00,-0.0017
2017.00,-0.0014
2016.00,-0.0010
2015.00,-0.0006
2014.00,-0.0002
2013.00,-0.0001
2012.00,-0.0001
2011.00,-0.0003
2010.00,-0.0005
2009.00,-0.0006
2008.00,-0.0007
2007.00,-0.0009
2006.00,-0.0011
2005.00,-0.0013
2004.00,-0.0014
2003.00,-0.0015
2002.00,-0.0014
2001.00,-0.0011
2000.00,-0.0009
1999.00,-0.0008
1998.00,-0.0007
1997.00,-0.0008
1996.00,-0.0009
1995.00,-0.0010
1994.00,-0.0011
1993.00,-0.0012
1992.00,-0.0011
1991.00,-0.0008
1990.00,-0.0005
1989.00,-0.0003
1988.00,-0.0002
1987.00,-0.0002
1986.00,-0.0002
1985.00,-0.0000
1984.00,0.0003
1983.00,0.0006
1982.00,0.0009
1981.00,0.0012
1980.00,0.0012
1979.00,0.0008
1978.00,0.0001
1977.00,-0.0005
1976.00,-0.0008
1975.00,-0.0010
1974.00,-0.0010
1973.00,-0.0009
1972.00,-0.0007
1971.00,-0.0006
1970.00,-0.0006
1969.00,-0.0006
1968.00,-0.0006
1967.00,-0.0006
1966.00,-0.0007
1965.00,-0.0009
1964.00,-0.0011
1963.00,-0.0013
1962.00,-0.0014
1961.00,-0.0014
1960.00,-0.0016
1959.00,-0.0018
1958.00,-0.0020
1957.00,-0.0020
1956.00,-0.0018
1955.00,-0.0016
1954.00,-0.0014
1953.00,-0.0013
1952.00,-0.0012
1951.00,-0.0012
1950.00,-0.0013
1949.00,-0.0014
1948.00,-0.0015
1947.00,-0.0016
1946.00,-0.0017
1945.00,-0.0018
1944.00,-0.0018
1943.00,-0.0017
1942.00,-0.0014
1941.00,-0.0010
1940.00,-0.0007
1939.00,-0.0007
1938.00,-0.0008
1937.00,-0.0008
1936.00,-0.0007
1935.00,-0.0006
1934.00,-0.0005
1933.00,-0.0005
1932.00,-0.0005
1931.00,-0.0006
1930.00,-0.0008
1929.00,-0.0009
1928.00,-0.0009
1927.00,-0.0009
1926.00,-0.0007
1925.00,-0.0005
1924.00,-0.0003
1923.00,-0.0001
1922.00,0.0001
1921.00,0.0001
1920.00,0.0001
1919.00,0.0001
1918.00,0.0001
1917.00,0.0001
1916.00,0.0001
1915.00,0.0000
1914.00,-0.0000
1913.00,-0.0001
1912.00,-0.0001
1911.00,-0.0001
1910.00,-0.0001
1909.00,-0.0001
1908.00,-0.0001
1907.00,-0.0001
1906.00,-0.0000
1905.00,0.0001
1904.00,0.0003
1903.00,0.0003
1902.00,0.0002
1901.00,0.0001
1900.00,0.0000
1899.00,0.0000
1898.00,0.0001
1897.00,0.0002
1896.00,0.0002
1895.00,0.0003
1894.00,0.0003
1893.00,0.0004
1892.00,0.0004
1891.00,0.0004
1890.00,0.0004
1889.00,0.0004
1888.00,0.0004
1887.00,0.0004
1886.00,0.0003
1885.00,0.0002
1884.00,0.0001
1883.00,0.0001
1882.00,0.0001
1881.00,0.0001
1880.00,0.0002
1879.00,0.0002
1878.00,0.0002
1877.00,0.0002
1876.00,0.0002
1875.00,0.0002
1874.00,0.0002
1873.00,0.0003
1872.00,0.0003
1871.00,0.0003
1870.00,0.0002
1869.00,0.0002
1868.00,0.0001
1867.00,0.0000
1866.00,-0.0000
1865.00,-0.0001
1864.00,-0.0000
1863.00,0.0001
1862.00,0.0002
1861.00,0.0003
1860.00,0.0004
1859.00,0.0004
1858.00,0.0004
1857.00,0.0004
1856.00,0.0004
1855.00,0.0005
1854.00,0.0005
1853.00,0.0004
1852.00,0.0003
1851.00,0.0002
1850.00,0.0002
1849.00,0.0002
1848.00,0.0002
1847.00,0.0002
1846.00,0.0003
1845.00,0.0003
1844.00,0.0004
1843.00,0.0005
1842.00,0.0005
1841.00,0.0005
1840.00,0.0005
1839.00,0.0005
1838.00,0.0004
1837.00,0.0004
1836.00,0.0004
1835.00,0.0004
1834.00,0.0005
1833.00,0.0005
1832.00,0.0006
1831.00,0.0006
1830.00,0.0006
1829.00,0.0007
1828.00,0.0007
1827.00,0.0006
1826.00,0.0006
1825.00,0.0005
1824.00,0.0005
1823.00,0.0005
1822.00,0.0005
1821.00,0.0005
1820.00,0.0004
1819.00,0.0003
1818.00,0.0003
1817.00,0.0003
1816.00,0.0003
1815.00,0.0004
1814.00,0.0005
1813.00,0.0005
1812.00,0.0006
1811.00,0.0006
1810.00,0.0006
1809.00,0.0005
1808.00,0.0005
1807.00,0.0005
1806.00,0.0005
1805.00,0.0005
1804.00,0.0005
1803.00,0.0006
1802.00,0.0006
1801.00,0.0007
1800.00,0.0007
1799.00,0.0007
1798.00,0.0007
1797.00,0.0007
1796.00,0.0007
1795.00,0.0007
1794.00,0.0007
1793.00,0.0008
1792.00,0.0008
1791.00,0.0008
1790.00,0.0008
1789.00,0.0008
1788.00,0.0009
1787.00,0.0009
1786.00,0.0009
1785.00,0.0009
1784.00,0.0009
1783.00,0.0010
1782.00,0.0010
1781.00,0.0010
1780.00,0.0010
1779.00,0.0010
1778.00,0.0009
1777.00,0.0009
1776.00,0.0010
1775.00,0.0010
1774.00,0.0010
1773.00,0.0011
1772.00,0.0011
1771.00,0.0012
1770.00,0.0012
1769.00,0.0012
1768.00,0.0012
1767.00,0.0012
1766.00,0.0012
1765.00,0.0012
1764.00,0.0012
1763.00,0.0013
1762.00,0.0013
1761.00,0.0013
1760.00,0.0013
1759.00,0.0014
1758.00,0.0014
1757.00,0.0016
1756.00,0.0017
1755.00,0.0017
1754.00,0.0017
1753.00,0.0018
1752.00,0.0018
1751.00,0.0019
1750.00,0.0019
1749.00,0.0020
1748.00,0.0020
1747.00,0.0020
1746.00,0.0019
1745.00,0.0020
1744.00,0.0020
1743.00,0.0021
1742.00,0.0022
1741.00,0.0022
1740.00,0.0022
1739.00,0.0022
1738.00,0.0022
1737.00,0.0022
1736.00,0.0023
1735.00,0.0023
1734.00,0.0023
1733.00,0.0023
1732.00,0.0023
1731.00,0.0023
1730.00,0.0023
1729.00,0.0023
1728.00,0.0023
1727.00,0.0023
1726.00,0.0022
1725.00,0.0022
1724.00,0.0022
1723.00,0.0022
1722.00,0.0022
1721.00,0.0023
1720.00,0.0023
1719.00,0.0023
1718.00,0.0023
1717.00,0.0023
1716.00,0.0023
1715.00,0.0023
1714.00,0.0024
1713.00,0.0024
1712.00,0.0025
1711.00,0.0025
1710.00,0.0026
1709.00,0.0027
1708.00,0.0027
1707.00,0.0027
1706.00,0.0026
1705.00,0.0026
1704.00,0.0027
1703.00,0.0028
1702.00,0.0029
1701.00,0.0030
1700.00,0.0030
1699.00,0.0031
1698.00,0.0031
1697.00,0.0032
1696.00,0.0032
1695.00,0.0032
1694.00,0.0033
1693.00,0.0033
1692.00,0.0033
1691.00,0.0034
1690.00,0.0035
1689.00,0.0036
1688.00,0.0037
1687.00,0.0038
1686.00,0.0038
1685.00,0.0038
1684.00,0.0038
1683.00,0.0039
1682.00,0.0041
1681.00,0.0042
1680.00,0.0044
1679.00,0.0045
1678.00,0.0045
1677.00,0.0046
1676.00,0.0047
1675.00,0.0047
1674.00,0.0048
1673.00,0.0048
1672.00,0.0049
1671.00,0.0049
1670.00,0.0050
1669.00,0.0051
1668.00,0.0052
1667.00,0.0052
1666.00,0.0053
1665.00,0.0053
1664.00,0.0054
1663.00,0.0055
1662.00,0.0055
1661.00,0.0056
1660.00,0.0056
1659.00,0.0057
1658.00,0.0057
1657.00,0.0058
1656.00,0.0060
1655.00,0.0061
1654.00,0.0062
1653.00,0.0062
1652.00,0.0063
1651.00,0.0063
1650.00,0.0064
1649.00,0.0065
1648.00,0.0067
1647.00,0.0069
1646.00,0.0070
1645.00,0.0070
1644.00,0.0070
1643.00,0.0069
1642.00,0.0069
1641.00,0.0068
1640.00,0.0068
1639.00,0.0068
1638.00,0.0068
1637.00,0.0068
1636.00,0.0068
1635.00,0.0068
1634.00,0.0068
1633.00,0.0068
1632.00,0.0068
1631.00,0.0068
1630.00,0.0068
1629.00,0.0068
1628.00,0.0068
1627.00,0.0068
1626.00,0.0068
1625.00,0.0069
1624.00,0.0069
1623.00,0.0069
1622.00,0.0068
1621.00,0.0068
1620.00,0.0068
1619.00,0.0067
1618.00,0.0067
1617.00,0.0067
1616.00,0.0067
1615.00,0.0067
1614.00,0.0068
1613.00,0.0068
1612.00,0.0068
1611.00,0.0068
1610.00,0.0068
1609.00,0.0068
1608.00,0.0068
1607.00,0.0068
1606.00,0.0068
1605.00,0.0068
1604.00,0.0069
1603.00,0.0069
1602.00,0.0069
1601.00,0.0069
1600.00,0.0070
1599.00,0.0070
1598.00,0.0070
1597.00,0.0070
1596.00,0.0069
1595.00,0.0069
1594.00,0.0068
1593.00,0.0068
1592.00,0.0069
1591.00,0.0069
1590.00,0.0069
1589.00,0.0070
1588.00,0.0070
1587.00,0.0070
1586.00,0.0071
1585.00,0.0071
1584.00,0.0072
1583.00,0.0073
1582.00,0.0074
1581.00,0.0075
1580.00,0.0077
1579.00,0.0078
1578.00,0.0078
1577.00,0.0078
1576.00,0.0077
1575.00,0.0075
1574.00,0.0074
1573.00,0.0073
1572.00,0.0073
1571.00,0.0072
1570.00,0.0070
1569.00,0.0068
1568.00,0.0067
1567.00,0.0066
1566.00,0.0065
1565.00,0.0065
1564.00,0.0065
1563.00,0.0065
1562.00,0.0065
1561.00,0.0066
1560.00,0.0066
1559.00,0.0066
1558.00,0.0067
1557.00,0.0068
1556.00,0.0069
1555.00,0.0069
1554.00,0.0070
1553.00,0.0070
1552.00,0.0070
1551.00,0.0071
1550.00,0.0071
1549.00,0.0072
1548.00,0.0073
1547.00,0.0075
1546.00,0.0076
1545.00,0.0078
1544.00,0.0079
1543.00,0.0079
1542.00,0.0077
1541.00,0.0075
1540.00,0.0074
1539.00,0.0072
1538.00,0.0070
1537.00,0.0069
1536.00,0.0068
1535.00,0.0066
1534.00,0.0063
1533.00,0.0061
1532.00,0.0060
1531.00,0.0059
1530.00,0.0059
1529.00,0.0058
1528.00,0.0058
1527.00,0.0057
1526.00,0.0056
1525.00,0.0055
1524.00,0.0055
1523.00,0.0056
1522.00,0.0055
1521.00,0.0055
1520.00,0.0056
1519.00,0.0056
1518.00,0.0056
1517.00,0.0057
1516.00,0.0057
1515.00,0.0057
1514.00,0.0056
1513.00,0.0057
1512.00,0.0058
1511.00,0.0059
1510.00,0.0060
1509.00,0.0061
1508.00,0.0063
1507.00,0.0063
1506.00,0.0063
1505.00,0.0064
1504.00,0.0065
1503.00,0.0066
1502.00,0.0068
1501.00,0.0070
1500.00,0.0072
1499.00,0.0074
1498.00,0.0076
1497.00,0.0080
1496.00,0.0083
1495.00,0.0085
1494.00,0.0087
1493.00,0.0090
1492.00,0.0094
1491.00,0.0098
1490.00,0.0103
1489.00,0.0108
1488.00,0.0113
1487.00,0.0117
1486.00,0.0122
1485.00,0.0128
1484.00,0.0135
1483.00,0.0142
1482.00,0.0151
1481.00,0.0162
1480.00,0.0174
1479.00,0.0186
1478.00,0.0201
1477.00,0.0219
1476.00,0.0242
1475.00,0.0266
1474.00,0.0300
1473.00,0.0352
1472.00,0.0415
1471.00,0.0478
1470.00,0.0539
1469.00,0.0603
1468.00,0.0671
1467.00,0.0746
1466.00,0.0832
1465.00,0.0926
1464.00,0.1011
1463.00,0.1072
1462.00,0.1116
1461.00,0.1149
1460.00,0.1175
1459.00,0.1196
1458.00,0.1218
1457.00,0.1241
1456.00,0.1256
1455.00,0.1260
1454.00,0.1259
1453.00,0.1251
1452.00,0.1233
1451.00,0.1201
1450.00,0.1152
1449.00,0.1078
1448.00,0.0980
1447.00,0.0874
1446.00,0.0777
1445.00,0.0694
1444.00,0.0622
1443.00,0.0564
1442.00,0.0521
1441.00,0.0491
1440.00,0.0472
1439.00,0.0462
1438.00,0.0459
1437.00,0.0454
1436.00,0.0439
1435.00,0.0410
1434.00,0.0371
1433.00,0.0326
1432.00,0.0279
1431.00,0.0239
1430.00,0.0208
1429.00,0.0186
1428.00,0.0171
1427.00,0.0162
1426.00,0.0156
1425.00,0.0151
1424.00,0.0145
1423.00,0.0142
1422.00,0.0141
1421.00,0.0139
1420.00,0.0136
1419.00,0.0134
1418.00,0.0132
1417.00,0.0129
1416.00,0.0126
1415.00,0.0124
1414.00,0.0123
1413.00,0.0122
1412.00,0.0120
1411.00,0.0120
1410.00,0.0120
1409.00,0.0119
1408.00,0.0118
1407.00,0.0119
1406.00,0.0120
1405.00,0.0120
1404.00,0.0120
1403.00,0.0120
1402.00,0.0122
1401.00,0.0122
1400.00,0.0123
1399.00,0.0125
1398.00,0.0127
1397.00,0.0130
1396.00,0.0132
1395.00,0.0137
1394.00,0.0142
1393.00,0.0148
1392.00,0.0154
1391.00,0.0163
1390.00,0.0176
1389.00,0.0194
1388.00,0.0221
1387.00,0.0260
1386.00,0.0313
1385.00,0.0379
1384.00,0.0465
1383.00,0.0580
1382.00,0.0727
1381.00,0.0910
1380.00,0.1130
1379.00,0.1373
1378.00,0.1605
1377.00,0.1773
1376.00,0.1828
1375.00,0.1743
1374.00,0.1537
1373.00,0.1283
1372.00,0.1046
1371.00,0.0847
1370.00,0.0686
1369.00,0.0562
1368.00,0.0476
1367.00,0.0422
1366.00,0.0393
1365.00,0.0381
1364.00,0.0384
1363.00,0.0397
1362.00,0.0417
1361.00,0.0439
1360.00,0.0455
1359.00,0.0459
1358.00,0.0447
1357.00,0.0421
1356.00,0.0384
1355.00,0.0342
1354.00,0.0302
1353.00,0.0267
1352.00,0.0239
1351.00,0.0217
1350.00,0.0199
1349.00,0.0184
1348.00,0.0172
1347.00,0.0162
1346.00,0.0155
1345.00,0.0149
1344.00,0.0144
1343.00,0.0140
1342.00,0.0137
1341.00,0.0135
1340.00,0.0133
1339.00,0.0131
1338.00,0.0129
1337.00,0.0128
1336.00,0.0128
1335.00,0.0130
1334.00,0.0133
1333.00,0.0137
1332.00,0.0142
1331.00,0.0145
1330.00,0.0146
1329.00,0.0145
1328.00,0.0142
1327.00,0.0137
1326.00,0.0131
1325.00,0.0124
1324.00,0.0118
1323.00,0.0113
1322.00,0.0108
1321.00,0.0105
1320.00,0.0102
1319.00,0.0100
1318.00,0.0098
1317.00,0.0096
1316.00,0.0095
1315.00,0.0094
1314.00,0.0093
1313.00,0.0093
1312.00,0.0095
1311.00,0.0098
1310.00,0.0104
1309.00,0.0113
1308.00,0.0125
1307.00,0.0140
1306.00,0.0155
1305.00,0.0165
1304.00,0.0168
1303.00,0.0164
1302.00,0.0156
1301.00,0.0148
1300.00,0.0142
1299.00,0.0139
1298.00,0.0137
1297.00,0.0136
1296.00,0.0134
1295.00,0.0131
1294.00,0.0127
1293.00,0.0121
1292.00,0.0115
1291.00,0.0110
1290.00,0.0106
1289.00,0.0102
1288.00,0.0098
1287.00,0.0095
1286.00,0.0092
1285.00,0.0090
1284.00,0.0088
1283.00,0.0087
1282.00,0.0086
1281.00,0.0085
1280.00,0.0084
1279.00,0.0083
1278.00,0.0083
1277.00,0.0082
1276.00,0.0081
1275.00,0.0081
1274.00,0.0081
1273.00,0.0082
1272.00,0.0083
1271.00,0.0083
1270.00,0.0084
1269.00,0.0085
1268.00,0.0086
1267.00,0.0088
1266.00,0.0090
1265.00,0.0092
1264.00,0.0095
1263.00,0.0098
1262.00,0.0103
1261.00,0.0109
1260.00,0.0116
1259.00,0.0126
1258.00,0.0136
1257.00,0.0145
1256.00,0.0151
1255.00,0.0150
1254.00,0.0143
1253.00,0.0132
1252.00,0.0121
1251.00,0.0112
1250.00,0.0105
1249.00,0.0100
1248.00,0.0097
1247.00,0.0095
1246.00,0.0094
1245.00,0.0093
1244.00,0.0092
1243.00,0.0091
1242.00,0.0091
1241.00,0.0090
1240.00,0.0088
1239.00,0.0087
1238.00,0.0087
1237.00,0.0086
1236.00,0.0085
1235.00,0.0085
1234.00,0.0084
1233.00,0.0084
1232.00,0.0084
1231.00,0.0084
1230.00,0.0084
1229.00,0.0085
1228.00,0.0086
1227.00,0.0087
1226.00,0.0089
1225.00,0.0090
1224.00,0.0093
1223.00,0.0096
1222.00,0.0099
1221.00,0.0102
1220.00,0.0103
1219.00,0.0104
1218.00,0.0104
1217.00,0.0103
1216.00,0.0101
1215.00,0.0098
1214.00,0.0095
1213.00,0.0092
1212.00,0.0089
1211.00,0.0086
1210.00,0.0085
1209.00,0.0084
1208.00,0.0083
1207.00,0.0081
1206.00,0.0080
1205.00,0.0079
1204.00,0.0079
1203.00,0.0079
1202.00,0.0079
1201.00,0.0079
1200.00,0.0079
1199.00,0.0078
1198.00,0.0079
1197.00,0.0079
1196.00,0.0079
1195.00,0.0079
1194.00,0.0080
1193.00,0.0080
1192.00,0.0080
1191.00,0.0080
1190.00,0.0080
1189.00,0.0080
1188.00,0.0080
1187.00,0.0081
1186.00,0.0081
1185.00,0.0082
1184.00,0.0084
1183.00,0.0086
1182.00,0.0089
1181.00,0.0093
1180.00,0.0098
1179.00,0.0105
1178.00,0.0113
1177.00,0.0124
1176.00,0.0139
1175.00,0.0159
1174.00,0.0185
1173.00,0.0217
1172.00,0.0257
1171.00,0.0300
1170.00,0.0343
1169.00,0.0378
1168.00,0.0399
1167.00,0.0404
1166.00,0.0394
1165.00,0.0374
1164.00,0.0348
1163.00,0.0322
1162.00,0.0299
1161.00,0.0279
1160.00,0.0264
1159.00,0.0251
1158.00,0.0240
1157.00,0.0231
1156.00,0.0224
1155.00,0.0218
1154.00,0.0215
1153.00,0.0211
1152.00,0.0205
1151.00,0.0198
1150.00,0.0188
1149.00,0.0177
1148.00,0.0167
1147.00,0.0157
1146.00,0.0148
1145.00,0.0140
1144.00,0.0132
1143.00,0.0124
1142.00,0.0118
1141.00,0.0113
1140.00,0.0108
1139.00,0.0103
1138.00,0.0099
1137.00,0.0095
1136.00,0.0093
1135.00,0.0091
1134.00,0.0090
1133.00,0.0089
1132.00,0.0088
1131.00,0.0087
1130.00,0.0087
1129.00,0.0087
1128.00,0.0089
1127.00,0.0090
1126.00,0.0092
1125.00,0.0092
1124.00,0.0093
1123.00,0.0093
1122.00,0.0093
1121.00,0.0093
1120.00,0.0093
1119.00,0.0094
1118.00,0.0095
1117.00,0.0096
1116.00,0.0097
1115.00,0.0097
1114.00,0.0098
1113.00,0.0098
1112.00,0.0100
1111.00,0.0102
1110.00,0.0105
1109.00,0.0110
1108.00,0.0116
1107.00,0.0123
1106.00,0.0130
1105.00,0.0136
1104.00,0.0141
1103.00,0.0143
1102.00,0.0142
1101.00,0.0139
1100.00,0.0135
1099.00,0.0130
1098.00,0.0124
1097.00,0.0117
1096.00,0.0112
1095.00,0.0107
1094.00,0.0104
1093.00,0.0101
1092.00,0.0100
1091.00,0.0098
1090.00,0.0095
1089.00,0.0092
1088.00,0.0090
1087.00,0.0088
1086.00,0.0087
1085.00,0.0086
1084.00,0.0087
1083.00,0.0087
1082.00,0.0087
1081.00,0.0086
1080.00,0.0085
1079.00,0.0083
1078.00,0.0082
1077.00,0.0081
1076.00,0.0079
1075.00,0.0078
1074.00,0.0076
1073.00,0.0075
1072.00,0.0075
1071.00,0.0075
1070.00,0.0076
1069.00,0.0076
1068.00,0.0076
1067.00,0.0076
1066.00,0.0077
1065.00,0.0077
1064.00,0.0077
1063.00,0.0078
1062.00,0.0079
1061.00,0.0080
1060.00,0.0081
1059.00,0.0081
1058.00,0.0081
1057.00,0.0082
1056.00,0.0083
1055.00,0.0084
1054.00,0.0086
1053.00,0.0088
1052.00,0.0091
1051.00,0.0094
1050.00,0.0097
1049.00,0.0100
1048.00,0.0104
1047.00,0.0107
1046.00,0.0110
1045.00,0.0111
1044.00,0.0111
1043.00,0.0110
1042.00,0.0108
1041.00,0.0105
1040.00,0.0103
1039.00,0.0101
1038.00,0.0100
1037.00,0.0100
1036.00,0.0100
1035.00,0.0100
1034.00,0.0099
1033.00,0.0097
1032.00,0.0096
1031.00,0.0095
1030.00,0.0095
1029.00,0.0094
1028.00,0.0094
1027.00,0.0094
1026.00,0.0094
1025.00,0.0094
1024.00,0.0094
1023.00,0.0095
1022.00,0.0095
1021.00,0.0096
1020.00,0.0097
1019.00,0.0098
1018.00,0.0099
1017.00,0.0101
1016.00,0.0103
1015.00,0.0106
1014.00,0.0111
1013.00,0.0116
1012.00,0.0122
1011.00,0.0127
1010.00,0.0133
1009.00,0.0139
1008.00,0.0145
1007.00,0.0154
1006.00,0.0166
1005.00,0.0181
1004.00,0.0201
1003.00,0.0230
1002.00,0.0267
1001.00,0.0314
1000.00,0.0364
999.00,0.0408
998.00,0.0433
997.00,0.0429
996.00,0.0398
995.00,0.0349
994.00,0.0295
993.00,0.0247
992.00,0.0208
991.00,0.0179
990.00,0.0159
989.00,0.0145
988.00,0.0136
987.00,0.0131
986.00,0.0130
985.00,0.0132
984.00,0.0137
983.00,0.0145
982.00,0.0158
981.00,0.0176
980.00,0.0202
979.00,0.0236
978.00,0.0279
977.00,0.0331
976.00,0.0389
975.00,0.0448
974.00,0.0495
973.00,0.0517
972.00,0.0507
971.00,0.0464
970.00,0.0400
969.00,0.0332
968.00,0.0272
967.00,0.0225
966.00,0.0190
965.00,0.0164
964.00,0.0146
963.00,0.0132
962.00,0.0121
961.00,0.0112
960.00,0.0105
959.00,0.0100
958.00,0.0097
957.00,0.0093
956.00,0.0090
955.00,0.0088
954.00,0.0085
953.00,0.0084
952.00,0.0083
951.00,0.0082
950.00,0.0081
949.00,0.0082
948.00,0.0083
947.00,0.0084
946.00,0.0086
945.00,0.0089
944.00,0.0091
943.00,0.0092
942.00,0.0094
941.00,0.0094
940.00,0.0093
939.00,0.0091
938.00,0.0087
937.00,0.0082
936.00,0.0078
935.00,0.0075
934.00,0.0073
933.00,0.0071
932.00,0.0070
931.00,0.0069
930.00,0.0067
929.00,0.0066
928.00,0.0065
927.00,0.0065
926.00,0.0064
925.00,0.0064
924.00,0.0064
923.00,0.0065
922.00,0.0067
921.00,0.0069
920.00,0.0071
919.00,0.0072
918.00,0.0073
917.00,0.0074
916.00,0.0074
915.00,0.0075
914.00,0.0076
913.00,0.0076
912.00,0.0077
911.00,0.0078
910.00,0.0079
909.00,0.0081
908.00,0.0083
907.00,0.0087
906.00,0.0093
905.00,0.0103
904.00,0.0116
903.00,0.0133
902.00,0.0152
901.00,0.0170
900.00,0.0182
899.00,0.0186
898.00,0.0179
897.00,0.0164
896.00,0.0146
895.00,0.0128
894.00,0.0113
893.00,0.0101
892.00,0.0093
891.00,0.0087
890.00,0.0083
889.00,0.0080
888.00,0.0077
887.00,0.0075
886.00,0.0074
885.00,0.0073
884.00,0.0072
883.00,0.0072
882.00,0.0073
881.00,0.0074
880.00,0.0074
879.00,0.0074
878.00,0.0074
877.00,0.0074
876.00,0.0074
875.00,0.0074
874.00,0.0075
873.00,0.0075
872.00,0.0076
871.00,0.0077
870.00,0.0078
869.00,0.0078
868.00,0.0078
867.00,0.0078
866.00,0.0078
865.00,0.0079
864.00,0.0080
863.00,0.0083
862.00,0.0085
861.00,0.0087
860.00,0.0088
859.00,0.0090
858.00,0.0091
857.00,0.0094
856.00,0.0097
855.00,0.0100
854.00,0.0102
853.00,0.0105
852.00,0.0108
851.00,0.0112
850.00,0.0118
849.00,0.0128
848.00,0.0141
847.00,0.0162
846.00,0.0193
845.00,0.0238
844.00,0.0298
843.00,0.0364
842.00,0.0416
841.00,0.0432
840.00,0.0405
839.00,0.0347
838.00,0.0282
837.00,0.0230
836.00,0.0196
835.00,0.0174
834.00,0.0161
833.00,0.0151
832.00,0.0143
831.00,0.0137
830.00,0.0131
829.00,0.0125
828.00,0.0122
827.00,0.0119
826.00,0.0118
825.00,0.0118
824.00,0.0118
823.00,0.0118
822.00,0.0118
821.00,0.0119
820.00,0.0119
819.00,0.0120
818.00,0.0121
817.00,0.0125
816.00,0.0131
815.00,0.0139
814.00,0.0151
813.00,0.0167
812.00,0.0184
811.00,0.0201
810.00,0.0213
809.00,0.0219
808.00,0.0216
807.00,0.0206
806.00,0.0192
805.00,0.0176
804.00,0.0161
803.00,0.0147
802.00,0.0136
801.00,0.0127
800.00,0.0122
799.00,0.0118
798.00,0.0113
797.00,0.0108
796.00,0.0103
795.00,0.0098
794.00,0.0095
793.00,0.0092
792.00,0.0089
791.00,0.0086
790.00,0.0084
789.00,0.0082
788.00,0.0079
787.00,0.0077
786.00,0.0075
785.00,0.0074
784.00,0.0072
783.00,0.0071
782.00,0.0070
781.00,0.0070
780.00,0.0069
779.00,0.0068
778.00,0.0068
777.00,0.0068
776.00,0.0069
775.00,0.0070
774.00,0.0072
773.00,0.0075
772.00,0.0079
771.00,0.0083
770.00,0.0087
769.00,0.0090
768.00,0.0092
767.00,0.0090
766.00,0.0087
765.00,0.0084
764.00,0.0080
763.00,0.0076
762.00,0.0073
761.00,0.0071
760.00,0.0069
759.00,0.0066
758.00,0.0064
757.00,0.0061
756.00,0.0059
755.00,0.0059
754.00,0.0058
753.00,0.0057
752.00,0.0055
751.00,0.0054
750.00,0.0055
749.00,0.0056
748.00,0.0058
747.00,0.0059
746.00,0.0058
745.00,0.0057
744.00,0.0056
743.00,0.0057
742.00,0.0059
741.00,0.0061
740.00,0.0063
739.00,0.0065
738.00,0.0066
737.00,0.0067
736.00,0.0068
735.00,0.0068
734.00,0.0068
733.00,0.0069
732.00,0.0069
731.00,0.0069
730.00,0.0069
729.00,0.0070
728.00,0.0071
727.00,0.0070
726.00,0.0069
725.00,0.0066
724.00,0.0065
723.00,0.0065
722.00,0.0066
721.00,0.0067
720.00,0.0065
719.00,0.0063
718.00,0.0060
717.00,0.0058
716.00,0.0058
715.00,0.0059
714.00,0.0061
713.00,0.0062
712.00,0.0061
711.00,0.0060
710.00,0.0059
709.00,0.0059
708.00,0.0059
707.00,0.0060
706.00,0.0062
705.00,0.0062
704.00,0.0062
703.00,0.0061
702.00,0.0059
701.00,0.0057
700.00,0.0055
699.00,0.0054
698.00,0.0053
697.00,0.0053
696.00,0.0053
695.00,0.0055
694.00,0.0057
693.00,0.0059
692.00,0.0059
691.00,0.0059
690.00,0.0058
689.00,0.0059
688.00,0.0060
687.00,0.0062
686.00,0.0063
685.00,0.0063
684.00,0.0061
683.00,0.0059
682.00,0.0057
681.00,0.0054
680.00,0.0053
679.00,0.0053
678.00,0.0053
677.00,0.0053
676.00,0.0055
675.00,0.0057
674.00,0.0059
673.00,0.0060
672.00,0.0058
671.00,0.0056
670.00,0.0054
669.00,0.0054
668.00,0.0056
667.00,0.0058
666.00,0.0059
665.00,0.0057
664.00,0.0056
663.00,0.0056
662.00,0.0058
661.00,0.0059
660.00,0.0059
659.00,0.0058
658.00,0.0057
657.00,0.0057
656.00,0.0057
655.00,0.0058
654.00,0.0058
653.00,0.0056
652.00,0.0055
651.00,0.0057
650.00,0.0059
649.00,0.0061
648.00,0.0060
647.00,0.0058
646.00,0.0058
645.00,0.0058
644.00,0.0059
643.00,0.0059
642.00,0.0060
641.00,0.0060
640.00,0.0060
639.00,0.0060
638.00,0.0060
637.00,0.0060
636.00,0.0059
635.00,0.0057
634.00,0.0057
633.00,0.0058
632.00,0.0059
631.00,0.0059
630.00,0.0058
629.00,0.0058
628.00,0.0059
627.00,0.0062
626.00,0.0064
625.00,0.0063
624.00,0.0061
623.00,0.0057
622.00,0.0056
621.00,0.0058
620.00,0.0061
619.00,0.0063
618.00,0.0063
617.00,0.0063
616.00,0.0063
615.00,0.0063
614.00,0.0064
613.00,0.0065
612.00,0.0066
611.00,0.0065
610.00,0.0063
609.00,0.0060
608.00,0.0058
607.00,0.0057
606.00,0.0059
605.00,0.0060
604.00,0.0059
603.00,0.0057
602.00,0.0057
601.00,0.0060
600.00,0.0065
599.00,0.0069
598.00,0.0070
597.00,0.0068
596.00,0.0063
595.00,0.0059
594.00,0.0056
593.00,0.0056
592.00,0.0056
591.00,0.0058
590.00,0.0061
589.00,0.0062
588.00,0.0063
587.00,0.0062
586.00,0.0062
585.00,0.0062
584.00,0.0063
583.00,0.0063
582.00,0.0064
581.00,0.0065
580.00,0.0068
579.00,0.0069
578.00,0.0070
577.00,0.0068
576.00,0.0067
575.00,0.0066
574.00,0.0065
573.00,0.0066
572.00,0.0066
571.00,0.0067
570.00,0.0067
569.00,0.0067
568.00,0.0066
567.00,0.0065
566.00,0.0066
565.00,0.0067
564.00,0.0067
563.00,0.0066
562.00,0.0063
561.00,0.0060
560.00,0.0058
559.00,0.0060
558.00,0.0064
557.00,0.0068
556.00,0.0069
555.00,0.0068
554.00,0.0066
553.00,0.0065
552.00,0.0065
551.00,0.0065
550.00,0.0066
549.00,0.0067
548.00,0.0070
547.00,0.0071
546.00,0.0070
545.00,0.0067
544.00,0.0063
543.00,0.0060
542.00,0.0058
541.00,0.0058
540.00,0.0058
539.00,0.0060
538.00,0.0061
537.00,0.0063
536.00,0.0067
535.00,0.0074
534.00,0.0081
533.00,0.0085
532.00,0.0088
531.00,0.0089
530.00,0.0090
529.00,0.0089
528.00,0.0085
527.00,0.0080
526.00,0.0077
525.00,0.0079
524.00,0.0082
523.00,0.0084
522.00,0.0083
521.00,0.0080
520.00,0.0076
519.00,0.0074
518.00,0.0076
517.00,0.0080
516.00,0.0080
515.00,0.0077
514.00,0.0071
513.00,0.0066
512.00,0.0065
511.00,0.0067
510.00,0.0071
509.00,0.0074
508.00,0.0074
507.00,0.0071
506.00,0.0067
505.00,0.0066
504.00,0.0067
503.00,0.0068
502.00,0.0068
501.00,0.0068
500.00,0.0069
499.00,0.0070
498.00,0.0073
497.00,0.0077
496.00,0.0080
495.00,0.0080
494.00,0.0075
493.00,0.0068
492.00,0.0064
491.00,0.0061
490.00,0.0059
489.00,0.0060
488.00,0.0065
487.00,0.0072
486.00,0.0077
485.00,0.0078
484.00,0.0076
483.00,0.0076
482.00,0.0079
481.00,0.0083
480.00,0.0085
479.00,0.0084
478.00,0.0082
477.00,0.0079
476.00,0.0071
475.00,0.0059
474.00,0.0050
473.00,0.0052
472.00,0.0067
471.00,0.0083
470.00,0.0090
469.00,0.0088
468.00,0.0085
467.00,0.0088
466.00,0.0098
465.00,0.0111
464.00,0.0126
463.00,0.0142
462.00,0.0158
461.00,0.0169
460.00,0.0172
459.00,0.0165
458.00,0.0153
457.00,0.0146
456.00,0.0148
455.00,0.0153
454.00,0.0154
453.00,0.0144
452.00,0.0128
451.00,0.0109
450.00,0.0093
