Created as New Dataset,Sample 023 By Administrator Date Wednesday, September 10 2025
cm-1,A
4000.00,0.0009
3999.00,0.0009
3998.00,0.0009
3997.00,0.0009
3996.00,0.0009
3995.00,0.0009
3994.00,0.0009
3993.00,0.0010
3992.00,0.0010
3991.00,0.0009
3990.00,0.0009
3989.00,0.0009
3988.00,0.0009
3987.00,0.0009
3986.00,0.0009
3985.00,0.0009
3984.00,0.0009
3983.00,0.0009
3982.00,0.0009
3981.00,0.0009
3980.00,0.0009
3979.00,0.0008
3978.00,0.0008
3977.00,0.0008
3976.00,0.0008
3975.00,0.0008
3974.00,0.0008
3973.00,0.0008
3972.00,0.0008
3971.00,0.0008
3970.00,0.0008
3969.00,0.0008
3968.00,0.0008
3967.00,0.0008
3966.00,0.0008
3965.00,0.0008
3964.00,0.0008
3963.00,0.0008
3962.00,0.0008
3961.00,0.0008
3960.00,0.0008
3959.00,0.0007
3958.00,0.0007
3957.00,0.0007
3956.00,0.0007
3955.00,0.0007
3954.00,0.0007
3953.00,0.0007
3952.00,0.0008
3951.00,0.0008
3950.00,0.0008
3949.00,0.0008
3948.00,0.0008
3947.00,0.0007
3946.00,0.0007
3945.00,0.0007
3944.00,0.0007
3943.00,0.0007
3942.00,0.0007
3941.00,0.0007
3940.00,0.0007
3939.00,0.0008
3938.00,0.0008
3937.00,0.0008
3936.00,0.0008
3935.00,0.0008
3934.00,0.0008
3933.00,0.0008
3932.00,0.0008
3931.00,0.0008
3930.00,0.0007
3929.00,0.0007
3928.00,0.0007
3927.00,0.0007
3926.00,0.0007
3925.00,0.0007
3924.00,0.0007
3923.00,0.0007
3922.00,0.0008
3921.00,0.0008
3920.00,0.0008
3919.00,0.0008
3918.00,0.0007
3917.00,0.0007
3916.00,0.0007
3915.00,0.0007
3914.00,0.0007
3913.00,0.0007
3912.00,0.0007
3911.00,0.0007
3910.00,0.0007
3909.00,0.0007
3908.00,0.0007
3907.00,0.0007
3906.00,0.0007
3905.00,0.0007
3904.00,0.0007
3903.00,0.0007
3902.00,0.0007
3901.00,0.0007
3900.00,0.0007
3899.00,0.0007
3898.00,0.0007
3897.00,0.0007
3896.00,0.0007
3895.00,0.0007
3894.00,0.0007
3893.00,0.0007
3892.00,0.0007
3891.00,0.0007
3890.00,0.0007
3889.00,0.0007
3888.00,0.0007
3887.00,0.0007
3886.00,0.0006
3885.00,0.0006
3884.00,0.0006
3883.00,0.0006
3882.00,0.0006
3881.00,0.0006
3880.00,0.0007
3879.00,0.0007
3878.00,0.0007
3877.00,0.0007
3876.00,0.0007
3875.00,0.0007
3874.00,0.0007
3873.00,0.0006
3872.00,0.0006
3871.00,0.0006
3870.00,0.0006
3869.00,0.0006
3868.00,0.0006
3867.00,0.0006
3866.00,0.0006
3865.00,0.0006
3864.00,0.0005
3863.00,0.0005
3862.00,0.0004
3861.00,0.0004
3860.00,0.0004
3859.00,0.0005
3858.00,0.0005
3857.00,0.0005
3856.00,0.0006
3855.00,0.0006
3854.00,0.0005
3853.00,0.0004
3852.00,0.0004
3851.00,0.0004
3850.00,0.0005
3849.00,0.0006
3848.00,0.0006
3847.00,0.0007
3846.00,0.0007
3845.00,0.0006
3844.00,0.0006
3843.00,0.0005
3842.00,0.0005
3841.00,0.0004
3840.00,0.0004
3839.00,0.0005
3838.00,0.0005
3837.00,0.0005
3836.00,0.0005
3835.00,0.0005
3834.00,0.0005
3833.00,0.0006
3832.00,0.0006
3831.00,0.0006
3830.00,0.0006
3829.00,0.0006
3828.00,0.0006
3827.00,0.0006
3826.00,0.0006
3825.00,0.0006
3824.00,0.0005
3823.00,0.0005
3822.00,0.0006
3821.00,0.0006
3820.00,0.0005
3819.00,0.0005
3818.00,0.0004
3817.00,0.0004
3816.00,0.0005
3815.00,0.0005
3814.00,0.0006
3813.00,0.0006
3812.00,0.0007
3811.00,0.0007
3810.00,0.0007
3809.00,0.0007
3808.00,0.0006
3807.00,0.0006
3806.00,0.0006
3805.00,0.0006
3804.00,0.0006
3803.00,0.0006
3802.00,0.0006
3801.00,0.0006
3800.00,0.0006
3799.00,0.0006
3798.00,0.0006
3797.00,0.0006
3796.00,0.0006
3795.00,0.0006
3794.00,0.0006
3793.00,0.0006
3792.00,0.0006
3791.00,0.0007
3790.00,0.0007
3789.00,0.0007
3788.00,0.0006
3787.00,0.0006
3786.00,0.0006
3785.00,0.0006
3784.00,0.0006
3783.00,0.0006
3782.00,0.0006
3781.00,0.0006
3780.00,0.0006
3779.00,0.0007
3778.00,0.0007
3777.00,0.0007
3776.00,0.0008
3775.00,0.0008
3774.00,0.0008
3773.00,0.0008
3772.00,0.0008
3771.00,0.0008
3770.00,0.0008
3769.00,0.0008
3768.00,0.0008
3767.00,0.0008
3766.00,0.0008
3765.00,0.0007
3764.00,0.0007
3763.00,0.0007
3762.00,0.0007
3761.00,0.0007
3760.00,0.0007
3759.00,0.0007
3758.00,0.0006
3757.00,0.0006
3756.00,0.0006
3755.00,0.0006
3754.00,0.0006
3753.00,0.0006
3752.00,0.0006
3751.00,0.0006
3750.00,0.0006
3749.00,0.0006
3748.00,0.0006
3747.00,0.0006
3746.00,0.0006
3745.00,0.0006
3744.00,0.0006
3743.00,0.0005
3742.00,0.0005
3741.00,0.0005
3740.00,0.0005
3739.00,0.0005
3738.00,0.0005
3737.00,0.0005
3736.00,0.0005
3735.00,0.0005
3734.00,0.0004
3733.00,0.0003
3732.00,0.0003
3731.00,0.0003
3730.00,0.0004
3729.00,0.0004
3728.00,0.0004
3727.00,0.0005
3726.00,0.0005
3725.00,0.0005
3724.00,0.0005
3723.00,0.0005
3722.00,0.0005
3721.00,0.0005
3720.00,0.0006
3719.00,0.0006
3718.00,0.0006
3717.00,0.0006
3716.00,0.0006
3715.00,0.0005
3714.00,0.0005
3713.00,0.0004
3712.00,0.0003
3711.00,0.0003
3710.00,0.0003
3709.00,0.0003
3708.00,0.0004
3707.00,0.0005
3706.00,0.0005
3705.00,0.0005
3704.00,0.0005
3703.00,0.0005
3702.00,0.0005
3701.00,0.0005
3700.00,0.0005
3699.00,0.0005
3698.00,0.0005
3697.00,0.0006
3696.00,0.0006
3695.00,0.0005
3694.00,0.0005
3693.00,0.0005
3692.00,0.0004
3691.00,0.0004
3690.00,0.0005
3689.00,0.0005
3688.00,0.0005
3687.00,0.0005
3686.00,0.0005
3685.00,0.0006
3684.00,0.0007
3683.00,0.0007
3682.00,0.0008
3681.00,0.0007
3680.00,0.0007
3679.00,0.0006
3678.00,0.0006
3677.00,0.0005
3676.00,0.0005
3675.00,0.0005
3674.00,0.0005
3673.00,0.0005
3672.00,0.0006
3671.00,0.0007
3670.00,0.0007
3669.00,0.0007
3668.00,0.0007
3667.00,0.0007
3666.00,0.0007
3665.00,0.0007
3664.00,0.0008
3663.00,0.0008
3662.00,0.0009
3661.00,0.0009
3660.00,0.0009
3659.00,0.0009
3658.00,0.0009
3657.00,0.0009
3656.00,0.0009
3655.00,0.0010
3654.00,0.0010
3653.00,0.0010
3652.00,0.0010
3651.00,0.0010
3650.00,0.0009
3649.00,0.0009
3648.00,0.0010
3647.00,0.0010
3646.00,0.0010
3645.00,0.0010
3644.00,0.0010
3643.00,0.0011
3642.00,0.0011
3641.00,0.0011
3640.00,0.0011
3639.00,0.0011
3638.00,0.0011
3637.00,0.0011
3636.00,0.0012
3635.00,0.0012
3634.00,0.0012
3633.00,0.0011
3632.00,0.0011
3631.00,0.0011
3630.00,0.0011
3629.00,0.0012
3628.00,0.0012
3627.00,0.0012
3626.00,0.0012
3625.00,0.0012
3624.00,0.0012
3623.00,0.0013
3622.00,0.0013
3621.00,0.0013
3620.00,0.0014
3619.00,0.0014
3618.00,0.0015
3617.00,0.0015
3616.00,0.0015
3615.00,0.0015
3614.00,0.0015
3613.00,0.0016
3612.00,0.0016
3611.00,0.0015
3610.00,0.0015
3609.00,0.0015
3608.00,0.0015
3607.00,0.0016
3606.00,0.0016
3605.00,0.0016
3604.00,0.0016
3603.00,0.0016
3602.00,0.0017
3601.00,0.0017
3600.00,0.0017
3599.00,0.0017
3598.00,0.0018
3597.00,0.0018
3596.00,0.0019
3595.00,0.0019
3594.00,0.0020
3593.00,0.0020
3592.00,0.0020
3591.00,0.0020
3590.00,0.0020
3589.00,0.0020
3588.00,0.0021
3587.00,0.0021
3586.00,0.0022
3585.00,0.0022
3584.00,0.0023
3583.00,0.0023
3582.00,0.0024
3581.00,0.0024
3580.00,0.0025
3579.00,0.0025
3578.00,0.0026
3577.00,0.0027
3576.00,0.0027
3575.00,0.0027
3574.00,0.0027
3573.00,0.0027
3572.00,0.0027
3571.00,0.0028
3570.00,0.0028
3569.00,0.0029
3568.00,0.0030
3567.00,0.0030
3566.00,0.0030
3565.00,0.0030
3564.00,0.0030
3563.00,0.0031
3562.00,0.0032
3561.00,0.0032
3560.00,0.0032
3559.00,0.0032
3558.00,0.0032
3557.00,0.0032
3556.00,0.0033
3555.00,0.0033
3554.00,0.0034
3553.00,0.0034
3552.00,0.0035
3551.00,0.0035
3550.00,0.0035
3549.00,0.0036
3548.00,0.0037
3547.00,0.0038
3546.00,0.0039
3545.00,0.0039
3544.00,0.0039
3543.00,0.0039
3542.00,0.0039
3541.00,0.0040
3540.00,0.0040
3539.00,0.0040
3538.00,0.0041
3537.00,0.0042
3536.00,0.0043
3535.00,0.0044
3534.00,0.0044
3533.00,0.0044
3532.00,0.0044
3531.00,0.0044
3530.00,0.0045
3529.00,0.0046
3528.00,0.0046
3527.00,0.0047
3526.00,0.0047
3525.00,0.0048
3524.00,0.0048
3523.00,0.0049
3522.00,0.0049
3521.00,0.0049
3520.00,0.0049
3519.00,0.0049
3518.00,0.0049
3517.00,0.0050
3516.00,0.0050
3515.00,0.0051
3514.00,0.0051
3513.00,0.0052
3512.00,0.0052
3511.00,0.0052
3510.00,0.0053
3509.00,0.0053
3508.00,0.0054
3507.00,0.0055
3506.00,0.0055
3505.00,0.0056
3504.00,0.0056
3503.00,0.0057
3502.00,0.0057
3501.00,0.0057
3500.00,0.0057
3499.00,0.0057
3498.00,0.0057
3497.00,0.0058
3496.00,0.0058
3495.00,0.0059
3494.00,0.0060
3493.00,0.0061
3492.00,0.0061
3491.00,0.0061
3490.00,0.0061
3489.00,0.0062
3488.00,0.0062
3487.00,0.0062
3486.00,0.0063
3485.00,0.0063
3484.00,0.0064
3483.00,0.0064
3482.00,0.0065
3481.00,0.0065
3480.00,0.0066
3479.00,0.0066
3478.00,0.0067
3477.00,0.0067
3476.00,0.0068
3475.00,0.0068
3474.00,0.0068
3473.00,0.0068
3472.00,0.0069
3471.00,0.0069
3470.00,0.0069
3469.00,0.0069
3468.00,0.0070
3467.00,0.0070
3466.00,0.0071
3465.00,0.0071
3464.00,0.0072
3463.00,0.0072
3462.00,0.0073
3461.00,0.0073
3460.00,0.0073
3459.00,0.0074
3458.00,0.0074
3457.00,0.0075
3456.00,0.0075
3455.00,0.0075
3454.00,0.0075
3453.00,0.0075
3452.00,0.0075
3451.00,0.0076
3450.00,0.0077
3449.00,0.0077
3448.00,0.0077
3447.00,0.0077
3446.00,0.0077
3445.00,0.0077
3444.00,0.0077
3443.00,0.0077
3442.00,0.0078
3441.00,0.0079
3440.00,0.0079
3439.00,0.0080
3438.00,0.0081
3437.00,0.0081
3436.00,0.0082
3435.00,0.0082
3434.00,0.0083
3433.00,0.0083
3432.00,0.0083
3431.00,0.0083
3430.00,0.0083
3429.00,0.0083
3428.00,0.0084
3427.00,0.0084
3426.00,0.0085
3425.00,0.0085
3424.00,0.0085
3423.00,0.0085
3422.00,0.0085
3421.00,0.0085
3420.00,0.0086
3419.00,0.0086
3418.00,0.0086
3417.00,0.0087
3416.00,0.0087
3415.00,0.0087
3414.00,0.0088
3413.00,0.0088
3412.00,0.0088
3411.00,0.0088
3410.00,0.0088
3409.00,0.0088
3408.00,0.0089
3407.00,0.0089
3406.00,0.0090
3405.00,0.0089
3404.00,0.0089
3403.00,0.0089
3402.00,0.0090
3401.00,0.0090
3400.00,0.0090
3399.00,0.0090
3398.00,0.0090
3397.00,0.0090
3396.00,0.0090
3395.00,0.0090
3394.00,0.0090
3393.00,0.0090
3392.00,0.0090
3391.00,0.0090
3390.00,0.0090
3389.00,0.0090
3388.00,0.0091
3387.00,0.0091
3386.00,0.0092
3385.00,0.0092
3384.00,0.0092
3383.00,0.0092
3382.00,0.0091
3381.00,0.0091
3380.00,0.0091
3379.00,0.0091
3378.00,0.0091
3377.00,0.0091
3376.00,0.0091
3375.00,0.0092
3374.00,0.0091
3373.00,0.0092
3372.00,0.0092
3371.00,0.0092
3370.00,0.0092
3369.00,0.0092
3368.00,0.0092
3367.00,0.0092
3366.00,0.0092
3365.00,0.0093
3364.00,0.0093
3363.00,0.0093
3362.00,0.0093
3361.00,0.0093
3360.00,0.0093
3359.00,0.0093
3358.00,0.0093
3357.00,0.0092
3356.00,0.0092
3355.00,0.0092
3354.00,0.0092
3353.00,0.0092
3352.00,0.0092
3351.00,0.0091
3350.00,0.0091
3349.00,0.0091
3348.00,0.0091
3347.00,0.0091
3346.00,0.0092
3345.00,0.0092
3344.00,0.0092
3343.00,0.0092
3342.00,0.0092
3341.00,0.0091
3340.00,0.0091
3339.00,0.0091
3338.00,0.0091
3337.00,0.0091
3336.00,0.0091
3335.00,0.0091
3334.00,0.0091
3333.00,0.0091
3332.00,0.0091
3331.00,0.0090
3330.00,0.0090
3329.00,0.0089
3328.00,0.0090
3327.00,0.0090
3326.00,0.0090
3325.00,0.0090
3324.00,0.0090
3323.00,0.0090
3322.00,0.0089
3321.00,0.0089
3320.00,0.0088
3319.00,0.0088
3318.00,0.0089
3317.00,0.0089
3316.00,0.0089
3315.00,0.0089
3314.00,0.0089
3313.00,0.0089
3312.00,0.0089
3311.00,0.0089
3310.00,0.0088
3309.00,0.0088
3308.00,0.0088
3307.00,0.0088
3306.00,0.0088
3305.00,0.0087
3304.00,0.0087
3303.00,0.0086
3302.00,0.0086
3301.00,0.0086
3300.00,0.0086
3299.00,0.0086
3298.00,0.0085
3297.00,0.0085
3296.00,0.0085
3295.00,0.0085
3294.00,0.0085
3293.00,0.0085
3292.00,0.0085
3291.00,0.0084
3290.00,0.0084
3289.00,0.0083
3288.00,0.0083
3287.00,0.0082
3286.00,0.0082
3285.00,0.0082
3284.00,0.0082
3283.00,0.0081
3282.00,0.0081
3281.00,0.0081
3280.00,0.0081
3279.00,0.0081
3278.00,0.0081
3277.00,0.0081
3276.00,0.0081
3275.00,0.0080
3274.00,0.0080
3273.00,0.0080
3272.00,0.0079
3271.00,0.0079
3270.00,0.0078
3269.00,0.0077
3268.00,0.0077
3267.00,0.0077
3266.00,0.0077
3265.00,0.0077
3264.00,0.0077
3263.00,0.0076
3262.00,0.0076
3261.00,0.0076
3260.00,0.0076
3259.00,0.0076
3258.00,0.0076
3257.00,0.0076
3256.00,0.0075
3255.00,0.0074
3254.00,0.0074
3253.00,0.0073
3252.00,0.0072
3251.00,0.0072
3250.00,0.0072
3249.00,0.0072
3248.00,0.0072
3247.00,0.0071
3246.00,0.0071
3245.00,0.0071
3244.00,0.0071
3243.00,0.0071
3242.00,0.0071
3241.00,0.0070
3240.00,0.0070
3239.00,0.0070
3238.00,0.0070
3237.00,0.0069
3236.00,0.0069
3235.00,0.0069
3234.00,0.0070
3233.00,0.0070
3232.00,0.0070
3231.00,0.0070
3230.00,0.0070
3229.00,0.0070
3228.00,0.0070
3227.00,0.0070
3226.00,0.0070
3225.00,0.0070
3224.00,0.0070
3223.00,0.0070
3222.00,0.0070
3221.00,0.0070
3220.00,0.0069
3219.00,0.0069
3218.00,0.0069
3217.00,0.0069
3216.00,0.0069
3215.00,0.0069
3214.00,0.0069
3213.00,0.0069
3212.00,0.0069
3211.00,0.0070
3210.00,0.0070
3209.00,0.0070
3208.00,0.0070
3207.00,0.0070
3206.00,0.0071
3205.00,0.0071
3204.00,0.0071
3203.00,0.0071
3202.00,0.0071
3201.00,0.0071
3200.00,0.0071
3199.00,0.0071
3198.00,0.0070
3197.00,0.0070
3196.00,0.0070
3195.00,0.0070
3194.00,0.0069
3193.00,0.0069
3192.00,0.0069
3191.00,0.0069
3190.00,0.0068
3189.00,0.0068
3188.00,0.0068
3187.00,0.0068
3186.00,0.0067
3185.00,0.0067
3184.00,0.0067
3183.00,0.0066
3182.00,0.0066
3181.00,0.0066
3180.00,0.0066
3179.00,0.0065
3178.00,0.0064
3177.00,0.0064
3176.00,0.0064
3175.00,0.0064
3174.00,0.0063
3173.00,0.0063
3172.00,0.0062
3171.00,0.0061
3170.00,0.0061
3169.00,0.0061
3168.00,0.0060
3167.00,0.0060
3166.00,0.0060
3165.00,0.0060
3164.00,0.0060
3163.00,0.0059
3162.00,0.0059
3161.00,0.0059
3160.00,0.0059
3159.00,0.0058
3158.00,0.0058
3157.00,0.0057
3156.00,0.0057
3155.00,0.0057
3154.00,0.0057
3153.00,0.0057
3152.00,0.0057
3151.00,0.0057
3150.00,0.0057
3149.00,0.0057
3148.00,0.0057
3147.00,0.0057
3146.00,0.0056
3145.00,0.0056
3144.00,0.0055
3143.00,0.0055
3142.00,0.0054
3141.00,0.0054
3140.00,0.0054
3139.00,0.0053
3138.00,0.0053
3137.00,0.0052
3136.00,0.0052
3135.00,0.0052
3134.00,0.0052
3133.00,0.0052
3132.00,0.0052
3131.00,0.0052
3130.00,0.0052
3129.00,0.0051
3128.00,0.0051
3127.00,0.0051
3126.00,0.0050
3125.00,0.0050
3124.00,0.0050
3123.00,0.0050
3122.00,0.0049
3121.00,0.0049
3120.00,0.0048
3119.00,0.0047
3118.00,0.0047
3117.00,0.0047
3116.00,0.0047
3115.00,0.0047
3114.00,0.0047
3113.00,0.0047
3112.00,0.0047
3111.00,0.0047
3110.00,0.0046
3109.00,0.0046
3108.00,0.0045
3107.00,0.0045
3106.00,0.0045
3105.00,0.0044
3104.00,0.0044
3103.00,0.0044
3102.00,0.0044
3101.00,0.0044
3100.00,0.0044
3099.00,0.0044
3098.00,0.0043
3097.00,0.0043
3096.00,0.0043
3095.00,0.0043
3094.00,0.0043
3093.00,0.0043
3092.00,0.0043
3091.00,0.0043
3090.00,0.0042
3089.00,0.0042
3088.00,0.0042
3087.00,0.0041
3086.00,0.0041
3085.00,0.0041
3084.00,0.0041
3083.00,0.0041
3082.00,0.0040
3081.00,0.0040
3080.00,0.0040
3079.00,0.0040
3078.00,0.0040
3077.00,0.0039
3076.00,0.0039
3075.00,0.0040
3074.00,0.0040
3073.00,0.0040
3072.00,0.0040
3071.00,0.0041
3070.00,0.0041
3069.00,0.0041
3068.00,0.0041
3067.00,0.0041
3066.00,0.0041
3065.00,0.0041
3064.00,0.0042
3063.00,0.0042
3062.00,0.0042
3061.00,0.0042
3060.00,0.0042
3059.00,0.0042
3058.00,0.0043
3057.00,0.0043
3056.00,0.0042
3055.00,0.0042
3054.00,0.0042
3053.00,0.0043
3052.00,0.0043
3051.00,0.0043
3050.00,0.0043
3049.00,0.0044
3048.00,0.0044
3047.00,0.0045
3046.00,0.0045
3045.00,0.0045
3044.00,0.0044
3043.00,0.0044
3042.00,0.0045
3041.00,0.0045
3040.00,0.0046
3039.00,0.0046
3038.00,0.0046
3037.00,0.0047
3036.00,0.0047
3035.00,0.0047
3034.00,0.0047
3033.00,0.0047
3032.00,0.0048
3031.00,0.0048
3030.00,0.0048
3029.00,0.0049
3028.00,0.0049
3027.00,0.0050
3026.00,0.0050
3025.00,0.0051
3024.00,0.0051
3023.00,0.0051
3022.00,0.0052
3021.00,0.0052
3020.00,0.0053
3019.00,0.0054
3018.00,0.0055
3017.00,0.0056
3016.00,0.0057
3015.00,0.0058
3014.00,0.0060
3013.00,0.0061
3012.00,0.0062
3011.00,0.0063
3010.00,0.0065
3009.00,0.0066
3008.00,0.0068
3007.00,0.0069
3006.00,0.0071
3005.00,0.0073
3004.00,0.0076
3003.00,0.0078
3002.00,0.0080
3001.00,0.0083
3000.00,0.0085
2999.00,0.0088
2998.00,0.0091
2997.00,0.0094
2996.00,0.0098
2995.00,0.0102
2994.00,0.0107
2993.00,0.0112
2992.00,0.0118
2991.00,0.0123
2990.00,0.0130
2989.00,0.0137
2988.00,0.0144
2987.00,0.0153
2986.00,0.0162
2985.00,0.0173
2984.00,0.0186
2983.00,0.0200
2982.00,0.0215
2981.00,0.0232
2980.00,0.0251
2979.00,0.0272
2978.00,0.0296
2977.00,0.0324
2976.00,0.0355
2975.00,0.0390
2974.00,0.0431
2973.00,0.0477
2972.00,0.0528
2971.00,0.0586
2970.00,0.0649
2969.00,0.0719
2968.00,0.0794
2967.00,0.0874
2966.00,0.0957
2965.00,0.1040
2964.00,0.1120
2963.00,0.1195
2962.00,0.1259
2961.00,0.1314
2960.00,0.1359
2959.00,0.1398
2958.00,0.1437
2957.00,0.1482
2956.00,0.1537
2955.00,0.1604
2954.00,0.1682
2953.00,0.1765
2952.00,0.1844
2951.00,0.1910
2950.00,0.1948
2949.00,0.1950
2948.00,0.1909
2947.00,0.1827
2946.00,0.1713
2945.00,0.1582
2944.00,0.1450
2943.00,0.1330
2942.00,0.1232
2941.00,0.1160
2940.00,0.1115
2939.00,0.1094
2938.00,0.1096
2937.00,0.1118
2936.00,0.1157
2935.00,0.1212
2934.00,0.1282
2933.00,0.1365
2932.00,0.1459
2931.00,0.1564
2930.00,0.1675
2929.00,0.1791
2928.00,0.1907
2927.00,0.2020
2926.00,0.2128
2925.00,0.2231
2924.00,0.2331
2923.00,0.2429
2922.00,0.2526
2921.00,0.2618
2920.00,0.2702
2919.00,0.2766
2918.00,0.2803
2917.00,0.2804
2916.00,0.2766
2915.00,0.2693
2914.00,0.2596
2913.00,0.2485
2912.00,0.2371
2911.00,0.2262
2910.00,0.2161
2909.00,0.2069
2908.00,0.1983
2907.00,0.1903
2906.00,0.1825
2905.00,0.1748
2904.00,0.1672
2903.00,0.1597
2902.00,0.1524
2901.00,0.1453
2900.00,0.1386
2899.00,0.1323
2898.00,0.1265
2897.00,0.1213
2896.00,0.1168
2895.00,0.1130
2894.00,0.1099
2893.00,0.1075
2892.00,0.1058
2891.00,0.1047
2890.00,0.1042
2889.00,0.1041
2888.00,0.1045
2887.00,0.1053
2886.00,0.1064
2885.00,0.1079
2884.00,0.1099
2883.00,0.1124
2882.00,0.1154
2881.00,0.1187
2880.00,0.1221
2879.00,0.1250
2878.00,0.1271
2877.00,0.1281
2876.00,0.1281
2875.00,0.1274
2874.00,0.1266
2873.00,0.1263
2872.00,0.1267
2871.00,0.1281
2870.00,0.1301
2869.00,0.1323
2868.00,0.1340
2867.00,0.1342
2866.00,0.1321
2865.00,0.1272
2864.00,0.1198
2863.00,0.1107
2862.00,0.1010
2861.00,0.0917
2860.00,0.0837
2859.00,0.0771
2858.00,0.0721
2857.00,0.0684
2856.00,0.0659
2855.00,0.0643
2854.00,0.0634
2853.00,0.0632
2852.00,0.0635
2851.00,0.0645
2850.00,0.0660
2849.00,0.0681
2848.00,0.0710
2847.00,0.0746
2846.00,0.0791
2845.00,0.0845
2844.00,0.0907
2843.00,0.0976
2842.00,0.1047
2841.00,0.1114
2840.00,0.1172
2839.00,0.1209
2838.00,0.1219
2837.00,0.1196
2836.00,0.1139
2835.00,0.1054
2834.00,0.0951
2833.00,0.0842
2832.00,0.0736
2831.00,0.0642
2830.00,0.0562
2829.00,0.0497
2828.00,0.0444
2827.00,0.0401
2826.00,0.0367
2825.00,0.0338
2824.00,0.0315
2823.00,0.0295
2822.00,0.0278
2821.00,0.0264
2820.00,0.0251
2819.00,0.0239
2818.00,0.0230
2817.00,0.0221
2816.00,0.0214
2815.00,0.0207
2814.00,0.0201
2813.00,0.0196
2812.00,0.0190
2811.00,0.0184
2810.00,0.0178
2809.00,0.0173
2808.00,0.0167
2807.00,0.0160
2806.00,0.0154
2805.00,0.0147
2804.00,0.0141
2803.00,0.0134
2802.00,0.0129
2801.00,0.0124
2800.00,0.0120
2799.00,0.0117
2798.00,0.0114
2797.00,0.0112
2796.00,0.0109
2795.00,0.0107
2794.00,0.0104
2793.00,0.0101
2792.00,0.0098
2791.00,0.0095
2790.00,0.0092
2789.00,0.0090
2788.00,0.0087
2787.00,0.0084
2786.00,0.0082
2785.00,0.0079
2784.00,0.0077
2783.00,0.0075
2782.00,0.0072
2781.00,0.0070
2780.00,0.0069
2779.00,0.0067
2778.00,0.0066
2777.00,0.0065
2776.00,0.0064
2775.00,0.0062
2774.00,0.0061
2773.00,0.0060
2772.00,0.0060
2771.00,0.0059
2770.00,0.0059
2769.00,0.0059
2768.00,0.0058
2767.00,0.0058
2766.00,0.0058
2765.00,0.0058
2764.00,0.0057
2763.00,0.0057
2762.00,0.0057
2761.00,0.0057
2760.00,0.0056
2759.00,0.0056
2758.00,0.0056
2757.00,0.0055
2756.00,0.0055
2755.00,0.0054
2754.00,0.0054
2753.00,0.0054
2752.00,0.0055
2751.00,0.0055
2750.00,0.0054
2749.00,0.0054
2748.00,0.0054
2747.00,0.0054
2746.00,0.0055
2745.00,0.0056
2744.00,0.0056
2743.00,0.0057
2742.00,0.0058
2741.00,0.0060
2740.00,0.0061
2739.00,0.0063
2738.00,0.0064
2737.00,0.0066
2736.00,0.0067
2735.00,0.0068
2734.00,0.0070
2733.00,0.0072
2732.00,0.0074
2731.00,0.0076
2730.00,0.0078
2729.00,0.0080
2728.00,0.0083
2727.00,0.0086
2726.00,0.0088
2725.00,0.0091
2724.00,0.0092
2723.00,0.0093
2722.00,0.0092
2721.00,0.0090
2720.00,0.0087
2719.00,0.0084
2718.00,0.0080
2717.00,0.0077
2716.00,0.0074
2715.00,0.0071
2714.00,0.0068
2713.00,0.0065
2712.00,0.0063
2711.00,0.0061
2710.00,0.0060
2709.00,0.0059
2708.00,0.0057
2707.00,0.0055
2706.00,0.0054
2705.00,0.0052
2704.00,0.0051
2703.00,0.0050
2702.00,0.0050
2701.00,0.0049
2700.00,0.0048
2699.00,0.0048
2698.00,0.0047
2697.00,0.0047
2696.00,0.0047
2695.00,0.0047
2694.00,0.0046
2693.00,0.0046
2692.00,0.0046
2691.00,0.0046
2690.00,0.0046
2689.00,0.0046
2688.00,0.0046
2687.00,0.0046
2686.00,0.0046
2685.00,0.0046
2684.00,0.0046
2683.00,0.0046
2682.00,0.0046
2681.00,0.0046
2680.00,0.0047
2679.00,0.0047
2678.00,0.0047
2677.00,0.0047
2676.00,0.0047
2675.00,0.0047
2674.00,0.0047
2673.00,0.0046
2672.00,0.0046
2671.00,0.0046
2670.00,0.0046
2669.00,0.0046
2668.00,0.0046
2667.00,0.0046
2666.00,0.0046
2665.00,0.0047
2664.00,0.0047
2663.00,0.0048
2662.00,0.0048
2661.00,0.0049
2660.00,0.0049
2659.00,0.0049
2658.00,0.0049
2657.00,0.0049
2656.00,0.0049
2655.00,0.0048
2654.00,0.0048
2653.00,0.0047
2652.00,0.0046
2651.00,0.0046
2650.00,0.0045
2649.00,0.0044
2648.00,0.0044
2647.00,0.0044
2646.00,0.0044
2645.00,0.0043
2644.00,0.0043
2643.00,0.0042
2642.00,0.0042
2641.00,0.0041
2640.00,0.0040
2639.00,0.0040
2638.00,0.0039
2637.00,0.0039
2636.00,0.0039
2635.00,0.0039
2634.00,0.0039
2633.00,0.0039
2632.00,0.0039
2631.00,0.0040
2630.00,0.0040
2629.00,0.0040
2628.00,0.0040
2627.00,0.0041
2626.00,0.0041
2625.00,0.0041
2624.00,0.0041
2623.00,0.0041
2622.00,0.0041
2621.00,0.0041
2620.00,0.0042
2619.00,0.0042
2618.00,0.0043
2617.00,0.0043
2616.00,0.0042
2615.00,0.0042
2614.00,0.0042
2613.00,0.0041
2612.00,0.0041
2611.00,0.0040
2610.00,0.0039
2609.00,0.0038
2608.00,0.0037
2607.00,0.0037
2606.00,0.0036
2605.00,0.0035
2604.00,0.0035
2603.00,0.0034
2602.00,0.0034
2601.00,0.0034
2600.00,0.0034
2599.00,0.0034
2598.00,0.0034
2597.00,0.0033
2596.00,0.0033
2595.00,0.0034
2594.00,0.0034
2593.00,0.0035
2592.00,0.0035
2591.00,0.0036
2590.00,0.0036
2589.00,0.0037
2588.00,0.0038
2587.00,0.0039
2586.00,0.0041
2585.00,0.0042
2584.00,0.0042
2583.00,0.0043
2582.00,0.0042
2581.00,0.0042
2580.00,0.0041
2579.00,0.0040
2578.00,0.0039
2577.00,0.0037
2576.00,0.0036
2575.00,0.0036
2574.00,0.0035
2573.00,0.0034
2572.00,0.0033
2571.00,0.0032
2570.00,0.0031
2569.00,0.0030
2568.00,0.0029
2567.00,0.0028
2566.00,0.0026
2565.00,0.0025
2564.00,0.0024
2563.00,0.0024
2562.00,0.0023
2561.00,0.0023
2560.00,0.0023
2559.00,0.0023
2558.00,0.0023
2557.00,0.0023
2556.00,0.0023
2555.00,0.0023
2554.00,0.0023
2553.00,0.0023
2552.00,0.0023
2551.00,0.0023
2550.00,0.0023
2549.00,0.0023
2548.00,0.0022
2547.00,0.0021
2546.00,0.0020
2545.00,0.0019
2544.00,0.0018
2543.00,0.0017
2542.00,0.0017
2541.00,0.0017
2540.00,0.0017
2539.00,0.0018
2538.00,0.0018
2537.00,0.0018
2536.00,0.0018
2535.00,0.0017
2534.00,0.0017
2533.00,0.0017
2532.00,0.0017
2531.00,0.0017
2530.00,0.0017
2529.00,0.0016
2528.00,0.0016
2527.00,0.0015
2526.00,0.0015
2525.00,0.0015
2524.00,0.0016
2523.00,0.0016
2522.00,0.0016
2521.00,0.0015
2520.00,0.0014
2519.00,0.0014
2518.00,0.0013
2517.00,0.0013
2516.00,0.0013
2515.00,0.0013
2514.00,0.0013
2513.00,0.0012
2512.00,0.0012
2511.00,0.0011
2510.00,0.0011
2509.00,0.0011
2508.00,0.0011
2507.00,0.0011
2506.00,0.0011
2505.00,0.0011
2504.00,0.0010
2503.00,0.0011
2502.00,0.0011
2501.00,0.0012
2500.00,0.0012
2499.00,0.0013
2498.00,0.0013
2497.00,0.0012
2496.00,0.0012
2495.00,0.0011
2494.00,0.0011
2493.00,0.0011
2492.00,0.0011
2491.00,0.0011
2490.00,0.0011
2489.00,0.0011
2488.00,0.0011
2487.00,0.0011
2486.00,0.0011
2485.00,0.0011
2484.00,0.0011
2483.00,0.0010
2482.00,0.0010
2481.00,0.0010
2480.00,0.0010
2479.00,0.0010
2478.00,0.0011
2477.00,0.0011
2476.00,0.0011
2475.00,0.0011
2474.00,0.0011
2473.00,0.0010
2472.00,0.0010
2471.00,0.0010
2470.00,0.0010
2469.00,0.0010
2468.00,0.0010
2467.00,0.0010
2466.00,0.0010
2465.00,0.0010
2464.00,0.0010
2463.00,0.0010
2462.00,0.0011
2461.00,0.0011
2460.00,0.0011
2459.00,0.0011
2458.00,0.0011
2457.00,0.0012
2456.00,0.0012
2455.00,0.0012
2454.00,0.0012
2453.00,0.0012
2452.00,0.0012
2451.00,0.0011
2450.00,0.0011
2449.00,0.0011
2448.00,0.0011
2447.00,0.0011
2446.00,0.0011
2445.00,0.0011
2444.00,0.0011
2443.00,0.0011
2442.00,0.0011
2441.00,0.0012
2440.00,0.0012
2439.00,0.0013
2438.00,0.0013
2437.00,0.0014
2436.00,0.0014
2435.00,0.0014
2434.00,0.0013
2433.00,0.0013
2432.00,0.0013
2431.00,0.0013
2430.00,0.0012
2429.00,0.0012
2428.00,0.0011
2427.00,0.0011
2426.00,0.0012
2425.00,0.0012
2424.00,0.0013
2423.00,0.0013
2422.00,0.0013
2421.00,0.0012
2420.00,0.0012
2419.00,0.0012
2418.00,0.0011
2417.00,0.0011
2416.00,0.0011
2415.00,0.0010
2414.00,0.0010
2413.00,0.0010
2412.00,0.0010
2411.00,0.0010
2410.00,0.0011
2409.00,0.0011
2408.00,0.0010
2407.00,0.0009
2406.00,0.0007
2405.00,0.0007
2404.00,0.0007
2403.00,0.0007
2402.00,0.0008
2401.00,0.0008
2400.00,0.0008
2399.00,0.0009
2398.00,0.0009
2397.00,0.0010
2396.00,0.0010
2395.00,0.0010
2394.00,0.0009
2393.00,0.0009
2392.00,0.0009
2391.00,0.0009
2390.00,0.0009
2389.00,0.0009
2388.00,0.0009
2387.00,0.0008
2386.00,0.0006
2385.00,0.0005
2384.00,0.0003
2383.00,0.0002
2382.00,0.0000
2381.00,-0.0001
2380.00,-0.0001
2379.00,-0.0001
2378.00,-0.0000
2377.00,0.0001
2376.00,0.0002
2375.00,0.0002
2374.00,0.0002
2373.00,0.0002
2372.00,0.0001
2371.00,0.0000
2370.00,0.0000
2369.00,0.0000
2368.00,-0.0000
2367.00,-0.0001
2366.00,-0.0001
2365.00,-0.0002
2364.00,-0.0002
2363.00,-0.0001
2362.00,-0.0000
2361.00,0.0000
2360.00,0.0001
2359.00,0.0001
2358.00,0.0002
2357.00,0.0002
2356.00,0.0002
2355.00,0.0002
2354.00,0.0001
2353.00,0.0001
2352.00,0.0001
2351.00,0.0001
2350.00,0.0001
2349.00,0.0001
2348.00,0.0001
2347.00,0.0001
2346.00,0.0001
2345.00,0.0002
2344.00,0.0002
2343.00,0.0002
2342.00,0.0002
2341.00,0.0002
2340.00,0.0003
2339.00,0.0003
2338.00,0.0004
2337.00,0.0004
2336.00,0.0005
2335.00,0.0005
2334.00,0.0004
2333.00,0.0004
2332.00,0.0004
2331.00,0.0004
2330.00,0.0003
2329.00,0.0003
2328.00,0.0005
2327.00,0.0007
2326.00,0.0011
2325.00,0.0015
2324.00,0.0017
2323.00,0.0016
2322.00,0.0014
2321.00,0.0012
2320.00,0.0011
2319.00,0.0010
2318.00,0.0009
2317.00,0.0009
2316.00,0.0009
2315.00,0.0008
2314.00,0.0007
2313.00,0.0006
2312.00,0.0006
2311.00,0.0006
2310.00,0.0006
2309.00,0.0006
2308.00,0.0006
2307.00,0.0006
2306.00,0.0006
2305.00,0.0007
2304.00,0.0007
2303.00,0.0008
2302.00,0.0008
2301.00,0.0008
2300.00,0.0009
2299.00,0.0009
2298.00,0.0010
2297.00,0.0011
2296.00,0.0011
2295.00,0.0011
2294.00,0.0012
2293.00,0.0013
2292.00,0.0014
2291.00,0.0015
2290.00,0.0016
2289.00,0.0017
2288.00,0.0017
2287.00,0.0018
2286.00,0.0019
2285.00,0.0019
2284.00,0.0019
2283.00,0.0018
2282.00,0.0017
2281.00,0.0016
2280.00,0.0015
2279.00,0.0015
2278.00,0.0015
2277.00,0.0016
2276.00,0.0015
2275.00,0.0015
2274.00,0.0014
2273.00,0.0013
2272.00,0.0013
2271.00,0.0014
2270.00,0.0014
2269.00,0.0014
2268.00,0.0014
2267.00,0.0014
2266.00,0.0014
2265.00,0.0013
2264.00,0.0012
2263.00,0.0011
2262.00,0.0011
2261.00,0.0012
2260.00,0.0012
2259.00,0.0012
2258.00,0.0012
2257.00,0.0011
2256.00,0.0011
2255.00,0.0010
2254.00,0.0010
2253.00,0.0010
2252.00,0.0009
2251.00,0.0009
2250.00,0.0008
2249.00,0.0008
2248.00,0.0009
2247.00,0.0010
2246.00,0.0010
2245.00,0.0010
2244.00,0.0010
2243.00,0.0010
2242.00,0.0010
2241.00,0.0010
2240.00,0.0010
2239.00,0.0010
2238.00,0.0009
2237.00,0.0009
2236.00,0.0008
2235.00,0.0007
2234.00,0.0007
2233.00,0.0007
2232.00,0.0006
2231.00,0.0006
2230.00,0.0006
2229.00,0.0007
2228.00,0.0008
2227.00,0.0008
2226.00,0.0008
2225.00,0.0008
2224.00,0.0009
2223.00,0.0010
2222.00,0.0010
2221.00,0.0009
2220.00,0.0008
2219.00,0.0007
2218.00,0.0007
2217.00,0.0007
2216.00,0.0008
2215.00,0.0008
2214.00,0.0007
2213.00,0.0007
2212.00,0.0007
2211.00,0.0008
2210.00,0.0010
2209.00,0.0012
2208.00,0.0012
2207.00,0.0012
2206.00,0.0012
2205.00,0.0012
2204.00,0.0011
2203.00,0.0011
2202.00,0.0011
2201.00,0.0011
2200.00,0.0010
2199.00,0.0008
2198.00,0.0007
2197.00,0.0006
2196.00,0.0007
2195.00,0.0010
2194.00,0.0012
2193.00,0.0014
2192.00,0.0014
2191.00,0.0014
2190.00,0.0013
2189.00,0.0013
2188.00,0.0015
2187.00,0.0017
2186.00,0.0019
2185.00,0.0020
2184.00,0.0020
2183.00,0.0018
2182.00,0.0014
2181.00,0.0010
2180.00,0.0007
2179.00,0.0005
2178.00,0.0004
2177.00,0.0005
2176.00,0.0006
2175.00,0.0007
2174.00,0.0008
2173.00,0.0010
2172.00,0.0011
2171.00,0.0011
2170.00,0.0011
2169.00,0.0012
2168.00,0.0013
2167.00,0.0013
2166.00,0.0013
2165.00,0.0015
2164.00,0.0017
2163.00,0.0017
2162.00,0.0015
2161.00,0.0008
2160.00,-0.0004
2159.00,-0.0018
2158.00,-0.0028
2157.00,-0.0032
2156.00,-0.0028
2155.00,-0.0023
2154.00,-0.0018
2153.00,-0.0015
2152.00,-0.0013
2151.00,-0.0011
2150.00,-0.0009
2149.00,-0.0008
2148.00,-0.0009
2147.00,-0.0011
2146.00,-0.0012
2145.00,-0.0012
2144.00,-0.0011
2143.00,-0.0010
2142.00,-0.0011
2141.00,-0.0012
2140.00,-0.0012
2139.00,-0.0012
2138.00,-0.0011
2137.00,-0.0009
2136.00,-0.0008
2135.00,-0.0009
2134.00,-0.0011
2133.00,-0.0013
2132.00,-0.0013
2131.00,-0.0012
2130.00,-0.0010
2129.00,-0.0009
2128.00,-0.0007
2127.00,-0.0006
2126.00,-0.0006
2125.00,-0.0006
2124.00,-0.0006
2123.00,-0.0006
2122.00,-0.0005
2121.00,-0.0004
2120.00,-0.0002
2119.00,-0.0002
2118.00,-0.0001
2117.00,0.0000
2116.00,0.0002
2115.00,0.0004
2114.00,0.0005
2113.00,0.0006
2112.00,0.0006
2111.00,0.0006
2110.00,0.0005
2109.00,0.0005
2108.00,0.0005
2107.00,0.0005
2106.00,0.0004
2105.00,0.0004
2104.00,0.0003
2103.00,0.0002
2102.00,0.0002
2101.00,0.0001
2100.00,0.0000
2099.00,0.0000
2098.00,-0.0000
2097.00,-0.0001
2096.00,-0.0001
2095.00,-0.0001
2094.00,-0.0000
2093.00,0.0001
2092.00,0.0001
2091.00,0.0002
2090.00,0.0002
2089.00,0.0002
2088.00,0.0003
2087.00,0.0003
2086.00,0.0004
2085.00,0.0005
2084.00,0.0006
2083.00,0.0006
2082.00,0.0006
2081.00,0.0006
2080.00,0.0007
2079.00,0.0007
2078.00,0.0005
2077.00,0.0004
2076.00,0.0004
2075.00,0.0004
2074.00,0.0005
2073.00,0.0006
2072.00,0.0005
2071.00,0.0004
2070.00,0.0003
2069.00,0.0003
2068.00,0.0003
2067.00,0.0002
2066.00,0.0002
2065.00,0.0002
2064.00,0.0002
2063.00,0.0003
2062.00,0.0003
2061.00,0.0003
2060.00,0.0002
2059.00,0.0000
2058.00,-0.0001
2057.00,-0.0000
2056.00,0.0002
2055.00,0.0004
2054.00,0.0007
2053.00,0.0011
2052.00,0.0015
2051.00,0.0017
2050.00,0.0016
2049.00,0.0013
2048.00,0.0010
2047.00,0.0007
2046.00,0.0005
2045.00,0.0004
2044.00,0.0001
2043.00,-0.0002
2042.00,-0.0004
2041.00,-0.0004
2040.00,-0.0003
2039.00,-0.0003
2038.00,-0.0002
2037.00,-0.0001
2036.00,-0.0000
2035.00,0.0001
2034.00,0.0002
2033.00,0.0001
2032.00,-0.0000
2031.00,-0.0005
2030.00,-0.0009
2029.00,-0.0012
2028.00,-0.0012
2027.00,-0.0010
2026.00,-0.0008
2025.00,-0.0005
2024.00,-0.0004
2023.00,-0.0003
2022.00,-0.0004
2021.00,-0.0005
2020.00,-0.0007
2019.00,-0.0009
2018.00,-0.0009
2017.00,-0.0008
2016.00,-0.0006
2015.00,-0.0004
2014.00,-0.0002
2013.00,-0.0001
2012.00,-0.0001
2011.00,-0.0002
2010.00,-0.0003
2009.00,-0.0004
2008.00,-0.0006
2007.00,-0.0009
2006.00,-0.0013
2005.00,-0.0014
2004.00,-0.0013
2003.00,-0.0012
2002.00,-0.0011
2001.00,-0.0010
2000.00,-0.0010
1999.00,-0.0011
1998.00,-0.0012
1997.00,-0.0012
1996.00,-0.0010
1995.00,-0.0008
1994.00,-0.0006
1993.00,-0.0003
1992.00,-0.0001
1991.00,-0.0002
1990.00,-0.0004
1989.00,-0.0005
1988.00,-0.0005
1987.00,-0.0002
1986.00,0.0000
1985.00,0.0002
1984.00,0.0003
1983.00,0.0004
1982.00,0.0006
1981.00,0.0009
1980.00,0.0011
1979.00,0.0007
1978.00,-0.0001
1977.00,-0.0008
1976.00,-0.0013
1975.00,-0.0014
1974.00,-0.0014
1973.00,-0.0012
1972.00,-0.0010
1971.00,-0.0010
1970.00,-0.0013
1969.00,-0.0014
1968.00,-0.0015
1967.00,-0.0014
1966.00,-0.0012
1965.00,-0.0009
1964.00,-0.0008
1963.00,-0.0008
1962.00,-0.0009
1961.00,-0.0011
1960.00,-0.0013
1959.00,-0.0016
1958.00,-0.0018
1957.00,-0.0019
1956.00,-0.0018
1955.00,-0.0016
1954.00,-0.0016
1953.00,-0.0016
1952.00,-0.0016
1951.00,-0.0016
1950.00,-0.0016
1949.00,-0.0016
1948.00,-0.0015
1947.00,-0.0014
1946.00,-0.0013
1945.00,-0.0013
1944.00,-0.0014
1943.00,-0.0015
1942.00,-0.0015
1941.00,-0.0015
1940.00,-0.0014
1939.00,-0.0013
1938.00,-0.0012
1937.00,-0.0010
1936.00,-0.0008
1935.00,-0.0007
1934.00,-0.0008
1933.00,-0.0008
1932.00,-0.0009
1931.00,-0.0009
1930.00,-0.0009
1929.00,-0.0007
1928.00,-0.0006
1927.00,-0.0006
1926.00,-0.0006
1925.00,-0.0007
1924.00,-0.0007
1923.00,-0.0006
1922.00,-0.0003
1921.00,-0.0001
1920.00,0.0001
1919.00,0.0002
1918.00,0.0001
1917.00,-0.0000
1916.00,-0.0002
1915.00,-0.0003
1914.00,-0.0004
1913.00,-0.0004
1912.00,-0.0003
1911.00,-0.0003
1910.00,-0.0002
1909.00,-0.0002
1908.00,-0.0001
1907.00,-0.0001
1906.00,-0.0001
1905.00,-0.0001
1904.00,-0.0002
1903.00,-0.0002
1902.00,-0.0002
1901.00,-0.0002
1900.00,-0.0001
1899.00,-0.0000
1898.00,-0.0000
1897.00,-0.0000
1896.00,-0.0000
1895.00,-0.0001
1894.00,-0.0002
1893.00,-0.0002
1892.00,-0.0001
1891.00,-0.0000
1890.00,0.0001
1889.00,0.0002
1888.00,0.0002
1887.00,0.0001
1886.00,0.0001
1885.00,0.0000
1884.00,-0.0001
1883.00,-0.0002
1882.00,-0.0003
1881.00,-0.0003
1880.00,-0.0003
1879.00,-0.0003
1878.00,-0.0002
1877.00,-0.0002
1876.00,-0.0002
1875.00,-0.0001
1874.00,-0.0001
1873.00,-0.0001
1872.00,-0.0001
1871.00,-0.0001
1870.00,-0.0001
1869.00,0.0000
1868.00,0.0001
1867.00,0.0002
1866.00,0.0002
1865.00,0.0002
1864.00,0.0003
1863.00,0.0003
1862.00,0.0002
1861.00,0.0001
1860.00,0.0000
1859.00,-0.0000
1858.00,-0.0000
1857.00,0.0001
1856.00,0.0001
1855.00,0.0002
1854.00,0.0002
1853.00,0.0002
1852.00,0.0002
1851.00,0.0001
1850.00,0.0001
1849.00,0.0001
1848.00,0.0001
1847.00,0.0001
1846.00,0.0001
1845.00,0.0002
1844.00,0.0003
1843.00,0.0003
1842.00,0.0003
1841.00,0.0002
1840.00,0.0002
1839.00,0.0001
1838.00,0.0001
1837.00,0.0001
1836.00,0.0002
1835.00,0.0002
1834.00,0.0002
1833.00,0.0003
1832.00,0.0004
1831.00,0.0004
1830.00,0.0005
1829.00,0.0005
1828.00,0.0005
1827.00,0.0005
1826.00,0.0005
1825.00,0.0005
1824.00,0.0005
1823.00,0.0005
1822.00,0.0004
1821.00,0.0004
1820.00,0.0003
1819.00,0.0002
1818.00,0.0000
1817.00,-0.0000
1816.00,-0.0000
1815.00,0.0000
1814.00,0.0001
1813.00,0.0002
1812.00,0.0003
1811.00,0.0003
1810.00,0.0004
1809.00,0.0005
1808.00,0.0005
1807.00,0.0006
1806.00,0.0006
1805.00,0.0006
1804.00,0.0006
1803.00,0.0006
1802.00,0.0006
1801.00,0.0005
1800.00,0.0005
1799.00,0.0005
1798.00,0.0005
1797.00,0.0005
1796.00,0.0006
1795.00,0.0006
1794.00,0.0006
1793.00,0.0006
1792.00,0.0007
1791.00,0.0008
1790.00,0.0008
1789.00,0.0008
1788.00,0.0008
1787.00,0.0009
1786.00,0.0009
1785.00,0.0009
1784.00,0.0009
1783.00,0.0009
1782.00,0.0008
1781.00,0.0009
1780.00,0.0009
1779.00,0.0009
1778.00,0.0009
1777.00,0.0009
1776.00,0.0009
1775.00,0.0009
1774.00,0.0009
1773.00,0.0009
1772.00,0.0009
1771.00,0.0009
1770.00,0.0010
1769.00,0.0011
1768.00,0.0011
1767.00,0.0011
1766.00,0.0011
1765.00,0.0011
1764.00,0.0011
1763.00,0.0011
1762.00,0.0013
1761.00,0.0014
1760.00,0.0014
1759.00,0.0014
1758.00,0.0014
1757.00,0.0015
1756.00,0.0015
1755.00,0.0015
1754.00,0.0016
1753.00,0.0016
1752.00,0.0017
1751.00,0.0018
1750.00,0.0018
1749.00,0.0019
1748.00,0.0019
1747.00,0.0020
1746.00,0.0020
1745.00,0.0021
1744.00,0.0021
1743.00,0.0022
1742.00,0.0023
1741.00,0.0025
1740.00,0.0026
1739.00,0.0027
1738.00,0.0027
1737.00,0.0027
1736.00,0.0027
1735.00,0.0026
1734.00,0.0026
1733.00,0.0026
1732.00,0.0027
1731.00,0.0027
1730.00,0.0027
1729.00,0.0027
1728.00,0.0027
1727.00,0.0027
1726.00,0.0027
1725.00,0.0027
1724.00,0.0027
1723.00,0.0027
1722.00,0.0026
1721.00,0.0026
1720.00,0.0025
1719.00,0.0024
1718.00,0.0024
1717.00,0.0025
1716.00,0.0026
1715.00,0.0026
1714.00,0.0027
1713.00,0.0027
1712.00,0.0027
1711.00,0.0027
1710.00,0.0028
1709.00,0.0028
1708.00,0.0028
1707.00,0.0028
1706.00,0.0028
1705.00,0.0029
1704.00,0.0029
1703.00,0.0029
1702.00,0.0030
1701.00,0.0030
1700.00,0.0031
1699.00,0.0031
1698.00,0.0031
1697.00,0.0033
1696.00,0.0035
1695.00,0.0037
1694.00,0.0037
1693.00,0.0038
1692.00,0.0039
1691.00,0.0039
1690.00,0.0040
1689.00,0.0041
1688.00,0.0042
1687.00,0.0042
1686.00,0.0042
1685.00,0.0043
1684.00,0.0045
1683.00,0.0047
1682.00,0.0049
1681.00,0.0051
1680.00,0.0052
1679.00,0.0054
1678.00,0.0055
1677.00,0.0056
1676.00,0.0057
1675.00,0.0058
1674.00,0.0059
1673.00,0.0060
1672.00,0.0061
1671.00,0.0062
1670.00,0.0063
1669.00,0.0065
1668.00,0.0066
1667.00,0.0066
1666.00,0.0067
1665.00,0.0067
1664.00,0.0068
1663.00,0.0069
1662.00,0.0070
1661.00,0.0072
1660.00,0.0073
1659.00,0.0074
1658.00,0.0075
1657.00,0.0076
1656.00,0.0077
1655.00,0.0078
1654.00,0.0079
1653.00,0.0081
1652.00,0.0083
1651.00,0.0084
1650.00,0.0084
1649.00,0.0084
1648.00,0.0086
1647.00,0.0087
1646.00,0.0089
1645.00,0.0090
1644.00,0.0090
1643.00,0.0090
1642.00,0.0090
1641.00,0.0090
1640.00,0.0090
1639.00,0.0090
1638.00,0.0090
1637.00,0.0090
1636.00,0.0090
1635.00,0.0090
1634.00,0.0090
1633.00,0.0090
1632.00,0.0090
1631.00,0.0089
1630.00,0.0089
1629.00,0.0088
1628.00,0.0088
1627.00,0.0087
1626.00,0.0087
1625.00,0.0086
1624.00,0.0085
1623.00,0.0084
1622.00,0.0084
1621.00,0.0083
1620.00,0.0083
1619.00,0.0083
1618.00,0.0083
1617.00,0.0082
1616.00,0.0082
1615.00,0.0082
1614.00,0.0082
1613.00,0.0082
1612.00,0.0082
1611.00,0.0082
1610.00,0.0081
1609.00,0.0081
1608.00,0.0082
1607.00,0.0082
1606.00,0.0082
1605.00,0.0082
1604.00,0.0081
1603.00,0.0081
1602.00,0.0080
1601.00,0.0080
1600.00,0.0079
1599.00,0.0079
1598.00,0.0078
1597.00,0.0078
1596.00,0.0078
1595.00,0.0078
1594.00,0.0078
1593.00,0.0077
1592.00,0.0077
1591.00,0.0077
1590.00,0.0077
1589.00,0.0078
1588.00,0.0079
1587.00,0.0079
1586.00,0.0080
1585.00,0.0081
1584.00,0.0082
1583.00,0.0083
1582.00,0.0084
1581.00,0.0085
1580.00,0.0085
1579.00,0.0086
1578.00,0.0086
1577.00,0.0086
1576.00,0.0086
1575.00,0.0086
1574.00,0.0086
1573.00,0.0085
1572.00,0.0085
1571.00,0.0083
1570.00,0.0082
1569.00,0.0081
1568.00,0.0081
1567.00,0.0081
1566.00,0.0081
1565.00,0.0081
1564.00,0.0082
1563.00,0.0082
1562.00,0.0083
1561.00,0.0083
1560.00,0.0083
1559.00,0.0083
1558.00,0.0084
1557.00,0.0085
1556.00,0.0086
1555.00,0.0088
1554.00,0.0089
1553.00,0.0090
1552.00,0.0092
1551.00,0.0093
1550.00,0.0094
1549.00,0.0095
1548.00,0.0096
1547.00,0.0097
1546.00,0.0098
1545.00,0.0099
1544.00,0.0101
1543.00,0.0102
1542.00,0.0102
1541.00,0.0101
1540.00,0.0100
1539.00,0.0098
1538.00,0.0097
1537.00,0.0097
1536.00,0.0095
1535.00,0.0093
1534.00,0.0090
1533.00,0.0087
1532.00,0.0085
1531.00,0.0083
1530.00,0.0082
1529.00,0.0080
1528.00,0.0079
1527.00,0.0077
1526.00,0.0075
1525.00,0.0074
1524.00,0.0072
1523.00,0.0070
1522.00,0.0069
1521.00,0.0068
1520.00,0.0068
1519.00,0.0068
1518.00,0.0068
1517.00,0.0068
1516.00,0.0069
1515.00,0.0069
1514.00,0.0069
1513.00,0.0070
1512.00,0.0070
1511.00,0.0071
1510.00,0.0071
1509.00,0.0072
1508.00,0.0073
1507.00,0.0073
1506.00,0.0072
1505.00,0.0073
1504.00,0.0075
1503.00,0.0077
1502.00,0.0078
1501.00,0.0081
1500.00,0.0084
1499.00,0.0087
1498.00,0.0091
1497.00,0.0097
1496.00,0.0103
1495.00,0.0108
1494.00,0.0112
1493.00,0.0115
1492.00,0.0119
1491.00,0.0121
1490.00,0.0124
1489.00,0.0128
1488.00,0.0133
1487.00,0.0138
1486.00,0.0143
1485.00,0.0149
1484.00,0.0156
1483.00,0.0162
1482.00,0.0171
1481.00,0.0182
1480.00,0.0194
1479.00,0.0206
1478.00,0.0220
1477.00,0.0239
1476.00,0.0261
1475.00,0.0286
1474.00,0.0321
1473.00,0.0374
1472.00,0.0440
1471.00,0.0505
1470.00,0.0569
1469.00,0.0635
1468.00,0.0707
1467.00,0.0786
1466.00,0.0878
1465.00,0.0979
1464.00,0.1069
1463.00,0.1132
1462.00,0.1174
1461.00,0.1204
1460.00,0.1226
1459.00,0.1241
1458.00,0.1253
1457.00,0.1262
1456.00,0.1263
1455.00,0.1256
1454.00,0.1245
1453.00,0.1228
1452.00,0.1201
1451.00,0.1160
1450.00,0.1104
1449.00,0.1027
1448.00,0.0930
1447.00,0.0828
1446.00,0.0738
1445.00,0.0663
1444.00,0.0599
1443.00,0.0548
1442.00,0.0510
1441.00,0.0486
1440.00,0.0472
1439.00,0.0468
1438.00,0.0473
1437.00,0.0476
1436.00,0.0467
1435.00,0.0440
1434.00,0.0399
1433.00,0.0351
1432.00,0.0301
1431.00,0.0258
1430.00,0.0224
1429.00,0.0200
1428.00,0.0185
1427.00,0.0175
1426.00,0.0169
1425.00,0.0163
1424.00,0.0158
1423.00,0.0155
1422.00,0.0154
1421.00,0.0153
1420.00,0.0150
1419.00,0.0149
1418.00,0.0148
1417.00,0.0145
1416.00,0.0143
1415.00,0.0141
1414.00,0.0140
1413.00,0.0138
1412.00,0.0136
1411.00,0.0135
1410.00,0.0135
1409.00,0.0134
1408.00,0.0133
1407.00,0.0133
1406.00,0.0134
1405.00,0.0134
1404.00,0.0133
1403.00,0.0134
1402.00,0.0136
1401.00,0.0137
1400.00,0.0138
1399.00,0.0140
1398.00,0.0142
1397.00,0.0144
1396.00,0.0147
1395.00,0.0151
1394.00,0.0157
1393.00,0.0162
1392.00,0.0168
1391.00,0.0177
1390.00,0.0190
1389.00,0.0207
1388.00,0.0233
1387.00,0.0272
1386.00,0.0324
1385.00,0.0388
1384.00,0.0472
1383.00,0.0586
1382.00,0.0738
1381.00,0.0934
1380.00,0.1182
1379.00,0.1474
1378.00,0.1769
1377.00,0.2004
1376.00,0.2110
1375.00,0.2036
1374.00,0.1801
1373.00,0.1496
1372.00,0.1209
1371.00,0.0968
1370.00,0.0774
1369.00,0.0627
1368.00,0.0525
1367.00,0.0463
1366.00,0.0430
1365.00,0.0416
1364.00,0.0419
1363.00,0.0435
1362.00,0.0460
1361.00,0.0487
1360.00,0.0506
1359.00,0.0512
1358.00,0.0499
1357.00,0.0468
1356.00,0.0426
1355.00,0.0378
1354.00,0.0332
1353.00,0.0293
1352.00,0.0261
1351.00,0.0237
1350.00,0.0217
1349.00,0.0201
1348.00,0.0188
1347.00,0.0179
1346.00,0.0171
1345.00,0.0165
1344.00,0.0159
1343.00,0.0155
1342.00,0.0150
1341.00,0.0146
1340.00,0.0143
1339.00,0.0140
1338.00,0.0138
1337.00,0.0137
1336.00,0.0138
1335.00,0.0140
1334.00,0.0143
1333.00,0.0148
1332.00,0.0152
1331.00,0.0156
1330.00,0.0157
1329.00,0.0155
1328.00,0.0151
1327.00,0.0145
1326.00,0.0138
1325.00,0.0131
1324.00,0.0125
1323.00,0.0119
1322.00,0.0115
1321.00,0.0112
1320.00,0.0109
1319.00,0.0106
1318.00,0.0103
1317.00,0.0101
1316.00,0.0099
1315.00,0.0098
1314.00,0.0097
1313.00,0.0097
1312.00,0.0098
1311.00,0.0101
1310.00,0.0105
1309.00,0.0111
1308.00,0.0119
1307.00,0.0128
1306.00,0.0137
1305.00,0.0144
1304.00,0.0147
1303.00,0.0146
1302.00,0.0144
1301.00,0.0142
1300.00,0.0142
1299.00,0.0142
1298.00,0.0144
1297.00,0.0145
1296.00,0.0144
1295.00,0.0142
1294.00,0.0137
1293.00,0.0132
1292.00,0.0126
1291.00,0.0120
1290.00,0.0116
1289.00,0.0112
1288.00,0.0108
1287.00,0.0105
1286.00,0.0102
1285.00,0.0100
1284.00,0.0098
1283.00,0.0097
1282.00,0.0095
1281.00,0.0094
1280.00,0.0093
1279.00,0.0091
1278.00,0.0091
1277.00,0.0090
1276.00,0.0089
1275.00,0.0089
1274.00,0.0089
1273.00,0.0089
1272.00,0.0090
1271.00,0.0090
1270.00,0.0091
1269.00,0.0092
1268.00,0.0093
1267.00,0.0095
1266.00,0.0097
1265.00,0.0100
1264.00,0.0103
1263.00,0.0106
1262.00,0.0110
1261.00,0.0114
1260.00,0.0119
1259.00,0.0124
1258.00,0.0130
1257.00,0.0134
1256.00,0.0136
1255.00,0.0135
1254.00,0.0131
1253.00,0.0125
1252.00,0.0119
1251.00,0.0114
1250.00,0.0110
1249.00,0.0108
1248.00,0.0106
1247.00,0.0104
1246.00,0.0104
1245.00,0.0103
1244.00,0.0103
1243.00,0.0102
1242.00,0.0101
1241.00,0.0100
1240.00,0.0099
1239.00,0.0097
1238.00,0.0096
1237.00,0.0096
1236.00,0.0095
1235.00,0.0094
1234.00,0.0094
1233.00,0.0094
1232.00,0.0093
1231.00,0.0094
1230.00,0.0094
1229.00,0.0094
1228.00,0.0094
1227.00,0.0096
1226.00,0.0098
1225.00,0.0100
1224.00,0.0104
1223.00,0.0107
1222.00,0.0111
1221.00,0.0114
1220.00,0.0115
1219.00,0.0116
1218.00,0.0115
1217.00,0.0114
1216.00,0.0111
1215.00,0.0108
1214.00,0.0104
1213.00,0.0100
1212.00,0.0097
1211.00,0.0094
1210.00,0.0091
1209.00,0.0090
1208.00,0.0088
1207.00,0.0087
1206.00,0.0085
1205.00,0.0084
1204.00,0.0083
1203.00,0.0083
1202.00,0.0083
1201.00,0.0083
1200.00,0.0082
1199.00,0.0082
1198.00,0.0082
1197.00,0.0081
1196.00,0.0081
1195.00,0.0081
1194.00,0.0081
1193.00,0.0081
1192.00,0.0081
1191.00,0.0082
1190.00,0.0082
1189.00,0.0083
1188.00,0.0083
1187.00,0.0084
1186.00,0.0084
1185.00,0.0084
1184.00,0.0085
1183.00,0.0086
1182.00,0.0088
1181.00,0.0091
1180.00,0.0094
1179.00,0.0099
1178.00,0.0104
1177.00,0.0112
1176.00,0.0122
1175.00,0.0135
1174.00,0.0152
1173.00,0.0174
1172.00,0.0199
1171.00,0.0227
1170.00,0.0253
1169.00,0.0274
1168.00,0.0287
1167.00,0.0290
1166.00,0.0285
1165.00,0.0275
1164.00,0.0263
1163.00,0.0251
1162.00,0.0240
1161.00,0.0231
1160.00,0.0225
1159.00,0.0220
1158.00,0.0216
1157.00,0.0213
1156.00,0.0211
1155.00,0.0211
1154.00,0.0211
1153.00,0.0210
1152.00,0.0207
1151.00,0.0202
1150.00,0.0195
1149.00,0.0186
1148.00,0.0177
1147.00,0.0168
1146.00,0.0161
1145.00,0.0154
1144.00,0.0147
1143.00,0.0141
1142.00,0.0135
1141.00,0.0129
1140.00,0.0125
1139.00,0.0121
1138.00,0.0118
1137.00,0.0115
1136.00,0.0113
1135.00,0.0112
1134.00,0.0111
1133.00,0.0110
1132.00,0.0110
1131.00,0.0110
1130.00,0.0111
1129.00,0.0111
1128.00,0.0112
1127.00,0.0114
1126.00,0.0116
1125.00,0.0119
1124.00,0.0121
1123.00,0.0123
1122.00,0.0125
1121.00,0.0126
1120.00,0.0128
1119.00,0.0129
1118.00,0.0131
1117.00,0.0131
1116.00,0.0132
1115.00,0.0132
1114.00,0.0133
1113.00,0.0134
1112.00,0.0136
1111.00,0.0138
1110.00,0.0141
1109.00,0.0145
1108.00,0.0151
1107.00,0.0159
1106.00,0.0166
1105.00,0.0173
1104.00,0.0179
1103.00,0.0182
1102.00,0.0183
1101.00,0.0180
1100.00,0.0175
1099.00,0.0168
1098.00,0.0160
1097.00,0.0152
1096.00,0.0145
1095.00,0.0140
1094.00,0.0136
1093.00,0.0132
1092.00,0.0129
1091.00,0.0126
1090.00,0.0124
1089.00,0.0123
1088.00,0.0121
1087.00,0.0120
1086.00,0.0119
1085.00,0.0117
1084.00,0.0116
1083.00,0.0116
1082.00,0.0115
1081.00,0.0114
1080.00,0.0113
1079.00,0.0111
1078.00,0.0110
1077.00,0.0108
1076.00,0.0107
1075.00,0.0106
1074.00,0.0106
1073.00,0.0106
1072.00,0.0106
1071.00,0.0106
1070.00,0.0106
1069.00,0.0105
1068.00,0.0104
1067.00,0.0104
1066.00,0.0104
1065.00,0.0104
1064.00,0.0104
1063.00,0.0104
1062.00,0.0105
1061.00,0.0105
1060.00,0.0105
1059.00,0.0104
1058.00,0.0104
1057.00,0.0104
1056.00,0.0105
1055.00,0.0105
1054.00,0.0106
1053.00,0.0106
1052.00,0.0107
1051.00,0.0108
1050.00,0.0110
1049.00,0.0111
1048.00,0.0113
1047.00,0.0116
1046.00,0.0118
1045.00,0.0119
1044.00,0.0119
1043.00,0.0118
1042.00,0.0117
1041.00,0.0115
1040.00,0.0114
1039.00,0.0114
1038.00,0.0115
1037.00,0.0116
1036.00,0.0117
1035.00,0.0117
1034.00,0.0116
1033.00,0.0114
1032.00,0.0111
1031.00,0.0110
1030.00,0.0109
1029.00,0.0109
1028.00,0.0109
1027.00,0.0108
1026.00,0.0108
1025.00,0.0108
1024.00,0.0107
1023.00,0.0107
1022.00,0.0106
1021.00,0.0105
1020.00,0.0105
1019.00,0.0106
1018.00,0.0107
1017.00,0.0109
1016.00,0.0111
1015.00,0.0113
1014.00,0.0115
1013.00,0.0117
1012.00,0.0119
1011.00,0.0121
1010.00,0.0123
1009.00,0.0126
1008.00,0.0130
1007.00,0.0135
1006.00,0.0142
1005.00,0.0152
1004.00,0.0166
1003.00,0.0184
1002.00,0.0207
1001.00,0.0234
1000.00,0.0263
999.00,0.0286
998.00,0.0297
997.00,0.0291
996.00,0.0269
995.00,0.0239
994.00,0.0207
993.00,0.0179
992.00,0.0157
991.00,0.0141
990.00,0.0129
989.00,0.0120
988.00,0.0115
987.00,0.0112
986.00,0.0112
985.00,0.0114
984.00,0.0118
983.00,0.0125
982.00,0.0135
981.00,0.0150
980.00,0.0170
979.00,0.0196
978.00,0.0228
977.00,0.0265
976.00,0.0304
975.00,0.0339
974.00,0.0363
973.00,0.0370
972.00,0.0356
971.00,0.0324
970.00,0.0282
969.00,0.0240
968.00,0.0203
967.00,0.0175
966.00,0.0155
965.00,0.0140
964.00,0.0130
963.00,0.0121
962.00,0.0115
961.00,0.0110
960.00,0.0106
959.00,0.0102
958.00,0.0099
957.00,0.0096
956.00,0.0094
955.00,0.0093
954.00,0.0092
953.00,0.0092
952.00,0.0091
951.00,0.0091
950.00,0.0091
949.00,0.0091
948.00,0.0091
947.00,0.0092
946.00,0.0094
945.00,0.0096
944.00,0.0100
943.00,0.0104
942.00,0.0108
941.00,0.0110
940.00,0.0109
939.00,0.0105
938.00,0.0100
937.00,0.0094
936.00,0.0089
935.00,0.0085
934.00,0.0083
933.00,0.0081
932.00,0.0079
931.00,0.0077
930.00,0.0077
929.00,0.0076
928.00,0.0076
927.00,0.0075
926.00,0.0074
925.00,0.0073
924.00,0.0072
923.00,0.0071
922.00,0.0072
921.00,0.0073
920.00,0.0075
919.00,0.0077
918.00,0.0079
917.00,0.0081
916.00,0.0083
915.00,0.0084
914.00,0.0085
913.00,0.0085
912.00,0.0085
911.00,0.0086
910.00,0.0087
909.00,0.0089
908.00,0.0092
907.00,0.0097
906.00,0.0105
905.00,0.0117
904.00,0.0133
903.00,0.0153
902.00,0.0175
901.00,0.0196
900.00,0.0210
899.00,0.0213
898.00,0.0205
897.00,0.0189
896.00,0.0167
895.00,0.0146
894.00,0.0129
893.00,0.0115
892.00,0.0105
891.00,0.0097
890.00,0.0092
889.00,0.0089
888.00,0.0087
887.00,0.0086
886.00,0.0086
885.00,0.0084
884.00,0.0082
883.00,0.0081
882.00,0.0081
881.00,0.0082
880.00,0.0083
879.00,0.0084
878.00,0.0084
877.00,0.0084
876.00,0.0084
875.00,0.0083
874.00,0.0082
873.00,0.0081
872.00,0.0081
871.00,0.0082
870.00,0.0083
869.00,0.0083
868.00,0.0083
867.00,0.0083
866.00,0.0084
865.00,0.0085
864.00,0.0085
863.00,0.0086
862.00,0.0087
861.00,0.0088
860.00,0.0089
859.00,0.0090
858.00,0.0091
857.00,0.0092
856.00,0.0093
855.00,0.0094
854.00,0.0095
853.00,0.0097
852.00,0.0099
851.00,0.0103
850.00,0.0108
849.00,0.0115
848.00,0.0124
847.00,0.0136
846.00,0.0154
845.00,0.0180
844.00,0.0214
843.00,0.0249
842.00,0.0275
841.00,0.0279
840.00,0.0259
839.00,0.0225
838.00,0.0191
837.00,0.0164
836.00,0.0147
835.00,0.0137
834.00,0.0131
833.00,0.0127
832.00,0.0124
831.00,0.0121
830.00,0.0119
829.00,0.0117
828.00,0.0117
827.00,0.0116
826.00,0.0115
825.00,0.0114
824.00,0.0113
823.00,0.0112
822.00,0.0113
821.00,0.0115
820.00,0.0119
819.00,0.0122
818.00,0.0127
817.00,0.0132
816.00,0.0138
815.00,0.0149
814.00,0.0164
813.00,0.0183
812.00,0.0204
811.00,0.0223
810.00,0.0238
809.00,0.0245
808.00,0.0242
807.00,0.0230
806.00,0.0213
805.00,0.0195
804.00,0.0179
803.00,0.0165
802.00,0.0153
801.00,0.0142
800.00,0.0133
799.00,0.0125
798.00,0.0119
797.00,0.0115
796.00,0.0112
795.00,0.0109
794.00,0.0107
793.00,0.0105
792.00,0.0102
791.00,0.0100
790.00,0.0098
789.00,0.0096
788.00,0.0094
787.00,0.0092
786.00,0.0089
785.00,0.0087
784.00,0.0084
783.00,0.0082
782.00,0.0081
781.00,0.0080
780.00,0.0079
779.00,0.0078
778.00,0.0077
777.00,0.0076
776.00,0.0077
775.00,0.0078
774.00,0.0080
773.00,0.0083
772.00,0.0086
771.00,0.0089
770.00,0.0090
769.00,0.0091
768.00,0.0091
767.00,0.0090
766.00,0.0088
765.00,0.0086
764.00,0.0084
763.00,0.0082
762.00,0.0081
761.00,0.0080
760.00,0.0078
759.00,0.0077
758.00,0.0076
757.00,0.0075
756.00,0.0074
755.00,0.0073
754.00,0.0071
753.00,0.0071
752.00,0.0070
751.00,0.0070
750.00,0.0070
749.00,0.0069
748.00,0.0069
747.00,0.0069
746.00,0.0071
745.00,0.0072
744.00,0.0074
743.00,0.0075
742.00,0.0075
741.00,0.0075
740.00,0.0076
739.00,0.0078
738.00,0.0081
737.00,0.0083
736.00,0.0086
735.00,0.0089
734.00,0.0092
733.00,0.0094
732.00,0.0096
731.00,0.0096
730.00,0.0095
729.00,0.0093
728.00,0.0092
727.00,0.0091
726.00,0.0090
725.00,0.0091
724.00,0.0092
723.00,0.0091
722.00,0.0089
721.00,0.0086
720.00,0.0085
719.00,0.0086
718.00,0.0087
717.00,0.0087
716.00,0.0086
715.00,0.0085
714.00,0.0084
713.00,0.0082
712.00,0.0081
711.00,0.0079
710.00,0.0077
709.00,0.0077
708.00,0.0078
707.00,0.0081
706.00,0.0084
705.00,0.0085
704.00,0.0085
703.00,0.0082
702.00,0.0079
701.00,0.0075
700.00,0.0072
699.00,0.0070
698.00,0.0070
697.00,0.0071
696.00,0.0071
695.00,0.0071
694.00,0.0071
693.00,0.0071
692.00,0.0071
691.00,0.0070
690.00,0.0070
689.00,0.0070
688.00,0.0070
687.00,0.0069
686.00,0.0069
685.00,0.0069
684.00,0.0070
683.00,0.0070
682.00,0.0070
681.00,0.0069
680.00,0.0069
679.00,0.0071
678.00,0.0073
677.00,0.0074
676.00,0.0074
675.00,0.0073
674.00,0.0072
673.00,0.0071
672.00,0.0071
671.00,0.0073
670.00,0.0076
669.00,0.0078
668.00,0.0081
667.00,0.0081
666.00,0.0079
665.00,0.0076
664.00,0.0074
663.00,0.0072
662.00,0.0071
661.00,0.0072
660.00,0.0074
659.00,0.0076
658.00,0.0077
657.00,0.0075
656.00,0.0073
655.00,0.0071
654.00,0.0071
653.00,0.0074
652.00,0.0075
651.00,0.0075
650.00,0.0074
649.00,0.0074
648.00,0.0077
647.00,0.0081
646.00,0.0082
645.00,0.0081
644.00,0.0079
643.00,0.0077
642.00,0.0075
641.00,0.0073
640.00,0.0070
639.00,0.0070
638.00,0.0072
637.00,0.0074
636.00,0.0074
635.00,0.0074
634.00,0.0074
633.00,0.0075
632.00,0.0074
631.00,0.0073
630.00,0.0071
629.00,0.0071
628.00,0.0073
627.00,0.0075
626.00,0.0078
625.00,0.0081
624.00,0.0081
623.00,0.0079
622.00,0.0075
621.00,0.0073
620.00,0.0074
619.00,0.0077
618.00,0.0079
617.00,0.0079
616.00,0.0077
615.00,0.0075
614.00,0.0073
613.00,0.0073
612.00,0.0074
611.00,0.0075
610.00,0.0075
609.00,0.0073
608.00,0.0073
607.00,0.0075
606.00,0.0078
605.00,0.0080
604.00,0.0080
603.00,0.0078
602.00,0.0076
601.00,0.0075
600.00,0.0075
599.00,0.0077
598.00,0.0080
597.00,0.0082
596.00,0.0084
595.00,0.0086
594.00,0.0086
593.00,0.0083
592.00,0.0077
591.00,0.0072
590.00,0.0071
589.00,0.0073
588.00,0.0076
587.00,0.0079
586.00,0.0082
585.00,0.0084
584.00,0.0086
583.00,0.0087
582.00,0.0087
581.00,0.0087
580.00,0.0086
579.00,0.0085
578.00,0.0084
577.00,0.0083
576.00,0.0081
575.00,0.0079
574.00,0.0079
573.00,0.0080
572.00,0.0083
571.00,0.0086
570.00,0.0086
569.00,0.0084
568.00,0.0081
567.00,0.0079
566.00,0.0079
565.00,0.0080
564.00,0.0083
563.00,0.0086
562.00,0.0087
561.00,0.0086
560.00,0.0086
559.00,0.0088
558.00,0.0090
557.00,0.0090
556.00,0.0085
555.00,0.0079
554.00,0.0075
553.00,0.0075
552.00,0.0078
551.00,0.0080
550.00,0.0080
549.00,0.0079
548.00,0.0080
547.00,0.0084
546.00,0.0088
545.00,0.0090
544.00,0.0090
543.00,0.0089
542.00,0.0089
541.00,0.0088
540.00,0.0086
539.00,0.0083
538.00,0.0082
537.00,0.0085
536.00,0.0089
535.00,0.0091
534.00,0.0093
533.00,0.0095
532.00,0.0100
531.00,0.0107
530.00,0.0114
529.00,0.0118
528.00,0.0117
527.00,0.0112
526.00,0.0106
525.00,0.0106
524.00,0.0110
523.00,0.0116
522.00,0.0119
521.00,0.0118
520.00,0.0116
519.00,0.0113
518.00,0.0111
517.00,0.0106
516.00,0.0100
515.00,0.0093
514.00,0.0087
513.00,0.0082
512.00,0.0079
511.00,0.0077
510.00,0.0078
509.00,0.0080
508.00,0.0082
507.00,0.0083
506.00,0.0083
505.00,0.0083
504.00,0.0082
503.00,0.0082
502.00,0.0079
501.00,0.0076
500.00,0.0073
499.00,0.0070
498.00,0.0068
497.00,0.0070
496.00,0.0076
495.00,0.0085
494.00,0.0092
493.00,0.0094
492.00,0.0089
491.00,0.0081
490.00,0.0075
489.00,0.0074
488.00,0.0078
487.00,0.0086
486.00,0.0092
485.00,0.0092
484.00,0.0087
483.00,0.0081
482.00,0.0080
481.00,0.0083
480.00,0.0086
479.00,0.0085
478.00,0.0083
477.00,0.0080
476.00,0.0081
475.00,0.0085
474.00,0.0092
473.00,0.0098
472.00,0.0101
471.00,0.0101
470.00,0.0098
469.00,0.0093
468.00,0.0088
467.00,0.0087
466.00,0.0096
465.00,0.0115
464.00,0.0142
463.00,0.0168
462.00,0.0187
461.00,0.0197
460.00,0.0199
459.00,0.0192
458.00,0.0181
457.00,0.0172
456.00,0.0167
455.00,0.0161
454.00,0.0152
453.00,0.0142
452.00,0.0133
451.00,0.0127
450.00,0.0122
