Created as New Dataset,Sample 025 By Administrator Date Wednesday, September 10 2025
cm-1,A
4000.00,0.0019
3999.00,0.0019
3998.00,0.0018
3997.00,0.0018
3996.00,0.0018
3995.00,0.0018
3994.00,0.0019
3993.00,0.0019
3992.00,0.0019
3991.00,0.0019
3990.00,0.0018
3989.00,0.0018
3988.00,0.0018
3987.00,0.0018
3986.00,0.0018
3985.00,0.0018
3984.00,0.0018
3983.00,0.0018
3982.00,0.0018
3981.00,0.0018
3980.00,0.0018
3979.00,0.0018
3978.00,0.0017
3977.00,0.0017
3976.00,0.0017
3975.00,0.0017
3974.00,0.0017
3973.00,0.0017
3972.00,0.0017
3971.00,0.0017
3970.00,0.0017
3969.00,0.0017
3968.00,0.0017
3967.00,0.0017
3966.00,0.0017
3965.00,0.0018
3964.00,0.0017
3963.00,0.0017
3962.00,0.0017
3961.00,0.0017
3960.00,0.0017
3959.00,0.0017
3958.00,0.0017
3957.00,0.0016
3956.00,0.0016
3955.00,0.0016
3954.00,0.0016
3953.00,0.0016
3952.00,0.0016
3951.00,0.0016
3950.00,0.0016
3949.00,0.0016
3948.00,0.0016
3947.00,0.0016
3946.00,0.0016
3945.00,0.0016
3944.00,0.0016
3943.00,0.0016
3942.00,0.0016
3941.00,0.0017
3940.00,0.0017
3939.00,0.0017
3938.00,0.0017
3937.00,0.0017
3936.00,0.0017
3935.00,0.0017
3934.00,0.0017
3933.00,0.0017
3932.00,0.0017
3931.00,0.0017
3930.00,0.0017
3929.00,0.0017
3928.00,0.0016
3927.00,0.0016
3926.00,0.0016
3925.00,0.0017
3924.00,0.0017
3923.00,0.0017
3922.00,0.0017
3921.00,0.0017
3920.00,0.0017
3919.00,0.0017
3918.00,0.0017
3917.00,0.0017
3916.00,0.0017
3915.00,0.0017
3914.00,0.0017
3913.00,0.0017
3912.00,0.0017
3911.00,0.0017
3910.00,0.0017
3909.00,0.0017
3908.00,0.0017
3907.00,0.0016
3906.00,0.0016
3905.00,0.0017
3904.00,0.0017
3903.00,0.0018
3902.00,0.0018
3901.00,0.0017
3900.00,0.0017
3899.00,0.0017
3898.00,0.0017
3897.00,0.0017
3896.00,0.0017
3895.00,0.0017
3894.00,0.0017
3893.00,0.0017
3892.00,0.0018
3891.00,0.0018
3890.00,0.0019
3889.00,0.0018
3888.00,0.0018
3887.00,0.0017
3886.00,0.0018
3885.00,0.0017
3884.00,0.0017
3883.00,0.0017
3882.00,0.0017
3881.00,0.0017
3880.00,0.0017
3879.00,0.0017
3878.00,0.0017
3877.00,0.0017
3876.00,0.0016
3875.00,0.0016
3874.00,0.0017
3873.00,0.0017
3872.00,0.0016
3871.00,0.0016
3870.00,0.0016
3869.00,0.0017
3868.00,0.0017
3867.00,0.0016
3866.00,0.0015
3865.00,0.0015
3864.00,0.0015
3863.00,0.0015
3862.00,0.0015
3861.00,0.0015
3860.00,0.0016
3859.00,0.0017
3858.00,0.0018
3857.00,0.0019
3856.00,0.0019
3855.00,0.0019
3854.00,0.0018
3853.00,0.0018
3852.00,0.0018
3851.00,0.0017
3850.00,0.0017
3849.00,0.0016
3848.00,0.0016
3847.00,0.0016
3846.00,0.0016
3845.00,0.0016
3844.00,0.0016
3843.00,0.0017
3842.00,0.0017
3841.00,0.0017
3840.00,0.0017
3839.00,0.0017
3838.00,0.0017
3837.00,0.0017
3836.00,0.0017
3835.00,0.0017
3834.00,0.0017
3833.00,0.0017
3832.00,0.0017
3831.00,0.0016
3830.00,0.0016
3829.00,0.0016
3828.00,0.0016
3827.00,0.0016
3826.00,0.0017
3825.00,0.0017
3824.00,0.0016
3823.00,0.0016
3822.00,0.0016
3821.00,0.0017
3820.00,0.0017
3819.00,0.0016
3818.00,0.0016
3817.00,0.0016
3816.00,0.0017
3815.00,0.0018
3814.00,0.0018
3813.00,0.0018
3812.00,0.0018
3811.00,0.0018
3810.00,0.0018
3809.00,0.0017
3808.00,0.0017
3807.00,0.0018
3806.00,0.0018
3805.00,0.0018
3804.00,0.0018
3803.00,0.0018
3802.00,0.0018
3801.00,0.0018
3800.00,0.0018
3799.00,0.0017
3798.00,0.0017
3797.00,0.0017
3796.00,0.0017
3795.00,0.0017
3794.00,0.0016
3793.00,0.0016
3792.00,0.0016
3791.00,0.0016
3790.00,0.0016
3789.00,0.0016
3788.00,0.0016
3787.00,0.0016
3786.00,0.0016
3785.00,0.0017
3784.00,0.0017
3783.00,0.0017
3782.00,0.0017
3781.00,0.0017
3780.00,0.0017
3779.00,0.0018
3778.00,0.0018
3777.00,0.0018
3776.00,0.0018
3775.00,0.0018
3774.00,0.0018
3773.00,0.0018
3772.00,0.0018
3771.00,0.0018
3770.00,0.0018
3769.00,0.0018
3768.00,0.0018
3767.00,0.0018
3766.00,0.0018
3765.00,0.0018
3764.00,0.0018
3763.00,0.0018
3762.00,0.0018
3761.00,0.0017
3760.00,0.0017
3759.00,0.0017
3758.00,0.0017
3757.00,0.0017
3756.00,0.0018
3755.00,0.0019
3754.00,0.0019
3753.00,0.0019
3752.00,0.0020
3751.00,0.0020
3750.00,0.0020
3749.00,0.0020
3748.00,0.0020
3747.00,0.0020
3746.00,0.0019
3745.00,0.0019
3744.00,0.0019
3743.00,0.0018
3742.00,0.0017
3741.00,0.0016
3740.00,0.0016
3739.00,0.0016
3738.00,0.0016
3737.00,0.0016
3736.00,0.0016
3735.00,0.0016
3734.00,0.0016
3733.00,0.0015
3732.00,0.0015
3731.00,0.0015
3730.00,0.0015
3729.00,0.0014
3728.00,0.0014
3727.00,0.0015
3726.00,0.0015
3725.00,0.0015
3724.00,0.0015
3723.00,0.0015
3722.00,0.0015
3721.00,0.0015
3720.00,0.0016
3719.00,0.0016
3718.00,0.0016
3717.00,0.0017
3716.00,0.0017
3715.00,0.0017
3714.00,0.0017
3713.00,0.0017
3712.00,0.0016
3711.00,0.0015
3710.00,0.0015
3709.00,0.0015
3708.00,0.0015
3707.00,0.0016
3706.00,0.0016
3705.00,0.0016
3704.00,0.0015
3703.00,0.0015
3702.00,0.0015
3701.00,0.0016
3700.00,0.0016
3699.00,0.0016
3698.00,0.0016
3697.00,0.0016
3696.00,0.0016
3695.00,0.0016
3694.00,0.0016
3693.00,0.0016
3692.00,0.0016
3691.00,0.0016
3690.00,0.0016
3689.00,0.0016
3688.00,0.0017
3687.00,0.0017
3686.00,0.0017
3685.00,0.0017
3684.00,0.0017
3683.00,0.0017
3682.00,0.0017
3681.00,0.0017
3680.00,0.0017
3679.00,0.0017
3678.00,0.0017
3677.00,0.0018
3676.00,0.0018
3675.00,0.0018
3674.00,0.0018
3673.00,0.0017
3672.00,0.0016
3671.00,0.0016
3670.00,0.0016
3669.00,0.0016
3668.00,0.0017
3667.00,0.0016
3666.00,0.0016
3665.00,0.0016
3664.00,0.0017
3663.00,0.0017
3662.00,0.0017
3661.00,0.0017
3660.00,0.0017
3659.00,0.0017
3658.00,0.0017
3657.00,0.0017
3656.00,0.0018
3655.00,0.0019
3654.00,0.0019
3653.00,0.0019
3652.00,0.0019
3651.00,0.0019
3650.00,0.0018
3649.00,0.0018
3648.00,0.0018
3647.00,0.0018
3646.00,0.0019
3645.00,0.0019
3644.00,0.0020
3643.00,0.0020
3642.00,0.0020
3641.00,0.0019
3640.00,0.0019
3639.00,0.0019
3638.00,0.0018
3637.00,0.0018
3636.00,0.0018
3635.00,0.0018
3634.00,0.0018
3633.00,0.0019
3632.00,0.0019
3631.00,0.0018
3630.00,0.0018
3629.00,0.0019
3628.00,0.0020
3627.00,0.0020
3626.00,0.0019
3625.00,0.0019
3624.00,0.0019
3623.00,0.0019
3622.00,0.0019
3621.00,0.0019
3620.00,0.0020
3619.00,0.0021
3618.00,0.0021
3617.00,0.0022
3616.00,0.0022
3615.00,0.0021
3614.00,0.0021
3613.00,0.0021
3612.00,0.0021
3611.00,0.0021
3610.00,0.0020
3609.00,0.0020
3608.00,0.0021
3607.00,0.0022
3606.00,0.0022
3605.00,0.0022
3604.00,0.0022
3603.00,0.0022
3602.00,0.0021
3601.00,0.0021
3600.00,0.0021
3599.00,0.0021
3598.00,0.0021
3597.00,0.0022
3596.00,0.0022
3595.00,0.0023
3594.00,0.0023
3593.00,0.0024
3592.00,0.0023
3591.00,0.0023
3590.00,0.0023
3589.00,0.0023
3588.00,0.0023
3587.00,0.0024
3586.00,0.0024
3585.00,0.0025
3584.00,0.0025
3583.00,0.0025
3582.00,0.0025
3581.00,0.0026
3580.00,0.0026
3579.00,0.0026
3578.00,0.0026
3577.00,0.0027
3576.00,0.0027
3575.00,0.0027
3574.00,0.0027
3573.00,0.0027
3572.00,0.0027
3571.00,0.0027
3570.00,0.0027
3569.00,0.0028
3568.00,0.0028
3567.00,0.0029
3566.00,0.0029
3565.00,0.0030
3564.00,0.0030
3563.00,0.0030
3562.00,0.0030
3561.00,0.0031
3560.00,0.0031
3559.00,0.0031
3558.00,0.0031
3557.00,0.0031
3556.00,0.0032
3555.00,0.0032
3554.00,0.0033
3553.00,0.0033
3552.00,0.0033
3551.00,0.0033
3550.00,0.0033
3549.00,0.0033
3548.00,0.0034
3547.00,0.0035
3546.00,0.0035
3545.00,0.0035
3544.00,0.0036
3543.00,0.0036
3542.00,0.0036
3541.00,0.0036
3540.00,0.0036
3539.00,0.0036
3538.00,0.0036
3537.00,0.0037
3536.00,0.0038
3535.00,0.0038
3534.00,0.0038
3533.00,0.0038
3532.00,0.0038
3531.00,0.0038
3530.00,0.0038
3529.00,0.0039
3528.00,0.0039
3527.00,0.0040
3526.00,0.0040
3525.00,0.0041
3524.00,0.0041
3523.00,0.0041
3522.00,0.0041
3521.00,0.0042
3520.00,0.0042
3519.00,0.0042
3518.00,0.0042
3517.00,0.0042
3516.00,0.0042
3515.00,0.0043
3514.00,0.0043
3513.00,0.0043
3512.00,0.0043
3511.00,0.0043
3510.00,0.0044
3509.00,0.0044
3508.00,0.0044
3507.00,0.0045
3506.00,0.0045
3505.00,0.0045
3504.00,0.0046
3503.00,0.0046
3502.00,0.0047
3501.00,0.0047
3500.00,0.0047
3499.00,0.0047
3498.00,0.0047
3497.00,0.0048
3496.00,0.0048
3495.00,0.0048
3494.00,0.0049
3493.00,0.0050
3492.00,0.0050
3491.00,0.0050
3490.00,0.0050
3489.00,0.0049
3488.00,0.0050
3487.00,0.0050
3486.00,0.0051
3485.00,0.0051
3484.00,0.0052
3483.00,0.0052
3482.00,0.0053
3481.00,0.0053
3480.00,0.0054
3479.00,0.0054
3478.00,0.0054
3477.00,0.0054
3476.00,0.0054
3475.00,0.0054
3474.00,0.0054
3473.00,0.0054
3472.00,0.0055
3471.00,0.0055
3470.00,0.0055
3469.00,0.0055
3468.00,0.0056
3467.00,0.0057
3466.00,0.0057
3465.00,0.0057
3464.00,0.0057
3463.00,0.0057
3462.00,0.0058
3461.00,0.0058
3460.00,0.0058
3459.00,0.0058
3458.00,0.0059
3457.00,0.0059
3456.00,0.0059
3455.00,0.0058
3454.00,0.0058
3453.00,0.0059
3452.00,0.0059
3451.00,0.0060
3450.00,0.0060
3449.00,0.0061
3448.00,0.0061
3447.00,0.0061
3446.00,0.0061
3445.00,0.0061
3444.00,0.0061
3443.00,0.0062
3442.00,0.0062
3441.00,0.0063
3440.00,0.0063
3439.00,0.0064
3438.00,0.0064
3437.00,0.0064
3436.00,0.0064
3435.00,0.0065
3434.00,0.0065
3433.00,0.0065
3432.00,0.0065
3431.00,0.0065
3430.00,0.0065
3429.00,0.0065
3428.00,0.0065
3427.00,0.0066
3426.00,0.0066
3425.00,0.0066
3424.00,0.0067
3423.00,0.0067
3422.00,0.0067
3421.00,0.0068
3420.00,0.0068
3419.00,0.0068
3418.00,0.0069
3417.00,0.0069
3416.00,0.0069
3415.00,0.0070
3414.00,0.0070
3413.00,0.0070
3412.00,0.0070
3411.00,0.0071
3410.00,0.0071
3409.00,0.0071
3408.00,0.0071
3407.00,0.0071
3406.00,0.0071
3405.00,0.0071
3404.00,0.0071
3403.00,0.0071
3402.00,0.0071
3401.00,0.0072
3400.00,0.0072
3399.00,0.0072
3398.00,0.0072
3397.00,0.0072
3396.00,0.0072
3395.00,0.0072
3394.00,0.0072
3393.00,0.0073
3392.00,0.0073
3391.00,0.0073
3390.00,0.0073
3389.00,0.0073
3388.00,0.0073
3387.00,0.0073
3386.00,0.0073
3385.00,0.0073
3384.00,0.0073
3383.00,0.0073
3382.00,0.0073
3381.00,0.0073
3380.00,0.0073
3379.00,0.0073
3378.00,0.0073
3377.00,0.0074
3376.00,0.0074
3375.00,0.0074
3374.00,0.0074
3373.00,0.0074
3372.00,0.0074
3371.00,0.0074
3370.00,0.0074
3369.00,0.0074
3368.00,0.0074
3367.00,0.0074
3366.00,0.0075
3365.00,0.0075
3364.00,0.0075
3363.00,0.0075
3362.00,0.0075
3361.00,0.0075
3360.00,0.0075
3359.00,0.0075
3358.00,0.0075
3357.00,0.0076
3356.00,0.0076
3355.00,0.0076
3354.00,0.0076
3353.00,0.0076
3352.00,0.0076
3351.00,0.0075
3350.00,0.0075
3349.00,0.0075
3348.00,0.0075
3347.00,0.0075
3346.00,0.0075
3345.00,0.0076
3344.00,0.0076
3343.00,0.0076
3342.00,0.0076
3341.00,0.0076
3340.00,0.0075
3339.00,0.0075
3338.00,0.0075
3337.00,0.0076
3336.00,0.0076
3335.00,0.0076
3334.00,0.0076
3333.00,0.0076
3332.00,0.0076
3331.00,0.0076
3330.00,0.0076
3329.00,0.0076
3328.00,0.0076
3327.00,0.0076
3326.00,0.0076
3325.00,0.0076
3324.00,0.0076
3323.00,0.0076
3322.00,0.0075
3321.00,0.0075
3320.00,0.0075
3319.00,0.0075
3318.00,0.0075
3317.00,0.0076
3316.00,0.0076
3315.00,0.0076
3314.00,0.0076
3313.00,0.0076
3312.00,0.0075
3311.00,0.0075
3310.00,0.0075
3309.00,0.0075
3308.00,0.0075
3307.00,0.0075
3306.00,0.0075
3305.00,0.0075
3304.00,0.0075
3303.00,0.0075
3302.00,0.0075
3301.00,0.0075
3300.00,0.0075
3299.00,0.0074
3298.00,0.0074
3297.00,0.0074
3296.00,0.0073
3295.00,0.0073
3294.00,0.0073
3293.00,0.0073
3292.00,0.0073
3291.00,0.0073
3290.00,0.0072
3289.00,0.0072
3288.00,0.0072
3287.00,0.0072
3286.00,0.0072
3285.00,0.0072
3284.00,0.0072
3283.00,0.0072
3282.00,0.0071
3281.00,0.0071
3280.00,0.0071
3279.00,0.0071
3278.00,0.0071
3277.00,0.0071
3276.00,0.0071
3275.00,0.0071
3274.00,0.0071
3273.00,0.0071
3272.00,0.0070
3271.00,0.0070
3270.00,0.0070
3269.00,0.0070
3268.00,0.0070
3267.00,0.0070
3266.00,0.0069
3265.00,0.0069
3264.00,0.0068
3263.00,0.0068
3262.00,0.0068
3261.00,0.0067
3260.00,0.0067
3259.00,0.0067
3258.00,0.0067
3257.00,0.0067
3256.00,0.0067
3255.00,0.0067
3254.00,0.0067
3253.00,0.0066
3252.00,0.0065
3251.00,0.0065
3250.00,0.0065
3249.00,0.0065
3248.00,0.0065
3247.00,0.0065
3246.00,0.0065
3245.00,0.0065
3244.00,0.0065
3243.00,0.0065
3242.00,0.0064
3241.00,0.0064
3240.00,0.0064
3239.00,0.0064
3238.00,0.0064
3237.00,0.0064
3236.00,0.0064
3235.00,0.0064
3234.00,0.0064
3233.00,0.0064
3232.00,0.0064
3231.00,0.0063
3230.00,0.0063
3229.00,0.0063
3228.00,0.0063
3227.00,0.0064
3226.00,0.0064
3225.00,0.0064
3224.00,0.0065
3223.00,0.0065
3222.00,0.0064
3221.00,0.0064
3220.00,0.0064
3219.00,0.0064
3218.00,0.0064
3217.00,0.0065
3216.00,0.0065
3215.00,0.0065
3214.00,0.0066
3213.00,0.0066
3212.00,0.0066
3211.00,0.0066
3210.00,0.0066
3209.00,0.0066
3208.00,0.0065
3207.00,0.0065
3206.00,0.0065
3205.00,0.0065
3204.00,0.0065
3203.00,0.0065
3202.00,0.0065
3201.00,0.0065
3200.00,0.0065
3199.00,0.0065
3198.00,0.0065
3197.00,0.0065
3196.00,0.0065
3195.00,0.0065
3194.00,0.0065
3193.00,0.0064
3192.00,0.0064
3191.00,0.0064
3190.00,0.0063
3189.00,0.0063
3188.00,0.0063
3187.00,0.0063
3186.00,0.0063
3185.00,0.0063
3184.00,0.0063
3183.00,0.0063
3182.00,0.0062
3181.00,0.0062
3180.00,0.0062
3179.00,0.0061
3178.00,0.0061
3177.00,0.0061
3176.00,0.0060
3175.00,0.0060
3174.00,0.0060
3173.00,0.0059
3172.00,0.0059
3171.00,0.0058
3170.00,0.0058
3169.00,0.0058
3168.00,0.0058
3167.00,0.0058
3166.00,0.0058
3165.00,0.0058
3164.00,0.0057
3163.00,0.0057
3162.00,0.0057
3161.00,0.0057
3160.00,0.0057
3159.00,0.0056
3158.00,0.0056
3157.00,0.0055
3156.00,0.0055
3155.00,0.0055
3154.00,0.0055
3153.00,0.0055
3152.00,0.0056
3151.00,0.0056
3150.00,0.0056
3149.00,0.0056
3148.00,0.0056
3147.00,0.0056
3146.00,0.0056
3145.00,0.0055
3144.00,0.0055
3143.00,0.0055
3142.00,0.0054
3141.00,0.0053
3140.00,0.0053
3139.00,0.0053
3138.00,0.0052
3137.00,0.0052
3136.00,0.0052
3135.00,0.0052
3134.00,0.0052
3133.00,0.0052
3132.00,0.0052
3131.00,0.0052
3130.00,0.0051
3129.00,0.0051
3128.00,0.0051
3127.00,0.0051
3126.00,0.0051
3125.00,0.0051
3124.00,0.0050
3123.00,0.0050
3122.00,0.0050
3121.00,0.0049
3120.00,0.0049
3119.00,0.0048
3118.00,0.0048
3117.00,0.0048
3116.00,0.0048
3115.00,0.0048
3114.00,0.0048
3113.00,0.0048
3112.00,0.0048
3111.00,0.0047
3110.00,0.0047
3109.00,0.0046
3108.00,0.0046
3107.00,0.0046
3106.00,0.0046
3105.00,0.0047
3104.00,0.0047
3103.00,0.0047
3102.00,0.0046
3101.00,0.0046
3100.00,0.0046
3099.00,0.0045
3098.00,0.0045
3097.00,0.0045
3096.00,0.0045
3095.00,0.0046
3094.00,0.0046
3093.00,0.0046
3092.00,0.0045
3091.00,0.0045
3090.00,0.0044
3089.00,0.0044
3088.00,0.0044
3087.00,0.0044
3086.00,0.0044
3085.00,0.0043
3084.00,0.0043
3083.00,0.0042
3082.00,0.0042
3081.00,0.0042
3080.00,0.0042
3079.00,0.0042
3078.00,0.0043
3077.00,0.0043
3076.00,0.0043
3075.00,0.0043
3074.00,0.0043
3073.00,0.0042
3072.00,0.0042
3071.00,0.0042
3070.00,0.0042
3069.00,0.0043
3068.00,0.0043
3067.00,0.0043
3066.00,0.0043
3065.00,0.0044
3064.00,0.0044
3063.00,0.0044
3062.00,0.0044
3061.00,0.0044
3060.00,0.0044
3059.00,0.0044
3058.00,0.0044
3057.00,0.0044
3056.00,0.0043
3055.00,0.0043
3054.00,0.0043
3053.00,0.0043
3052.00,0.0043
3051.00,0.0043
3050.00,0.0043
3049.00,0.0043
3048.00,0.0044
3047.00,0.0045
3046.00,0.0045
3045.00,0.0045
3044.00,0.0045
3043.00,0.0045
3042.00,0.0045
3041.00,0.0045
3040.00,0.0046
3039.00,0.0046
3038.00,0.0046
3037.00,0.0046
3036.00,0.0046
3035.00,0.0046
3034.00,0.0046
3033.00,0.0046
3032.00,0.0046
3031.00,0.0047
3030.00,0.0047
3029.00,0.0047
3028.00,0.0048
3027.00,0.0048
3026.00,0.0048
3025.00,0.0049
3024.00,0.0049
3023.00,0.0050
3022.00,0.0050
3021.00,0.0050
3020.00,0.0051
3019.00,0.0052
3018.00,0.0053
3017.00,0.0054
3016.00,0.0054
3015.00,0.0055
3014.00,0.0056
3013.00,0.0057
3012.00,0.0058
3011.00,0.0059
3010.00,0.0060
3009.00,0.0062
3008.00,0.0063
3007.00,0.0065
3006.00,0.0066
3005.00,0.0067
3004.00,0.0069
3003.00,0.0071
3002.00,0.0073
3001.00,0.0075
3000.00,0.0077
2999.00,0.0079
2998.00,0.0082
2997.00,0.0084
2996.00,0.0088
2995.00,0.0091
2994.00,0.0095
2993.00,0.0099
2992.00,0.0104
2991.00,0.0109
2990.00,0.0114
2989.00,0.0120
2988.00,0.0127
2987.00,0.0135
2986.00,0.0143
2985.00,0.0153
2984.00,0.0164
2983.00,0.0176
2982.00,0.0189
2981.00,0.0204
2980.00,0.0220
2979.00,0.0239
2978.00,0.0259
2977.00,0.0283
2976.00,0.0309
2975.00,0.0338
2974.00,0.0371
2973.00,0.0409
2972.00,0.0450
2971.00,0.0496
2970.00,0.0546
2969.00,0.0600
2968.00,0.0657
2967.00,0.0716
2966.00,0.0777
2965.00,0.0837
2964.00,0.0895
2963.00,0.0947
2962.00,0.0992
2961.00,0.1029
2960.00,0.1058
2959.00,0.1083
2958.00,0.1107
2957.00,0.1134
2956.00,0.1166
2955.00,0.1204
2954.00,0.1247
2953.00,0.1290
2952.00,0.1328
2951.00,0.1353
2950.00,0.1360
2949.00,0.1342
2948.00,0.1300
2947.00,0.1236
2946.00,0.1157
2945.00,0.1072
2944.00,0.0990
2943.00,0.0917
2942.00,0.0860
2941.00,0.0819
2940.00,0.0795
2939.00,0.0787
2938.00,0.0793
2937.00,0.0812
2936.00,0.0842
2935.00,0.0881
2934.00,0.0929
2933.00,0.0984
2932.00,0.1046
2931.00,0.1113
2930.00,0.1183
2929.00,0.1253
2928.00,0.1323
2927.00,0.1390
2926.00,0.1453
2925.00,0.1514
2924.00,0.1571
2923.00,0.1626
2922.00,0.1679
2921.00,0.1728
2920.00,0.1770
2919.00,0.1801
2918.00,0.1815
2917.00,0.1809
2916.00,0.1785
2915.00,0.1743
2914.00,0.1691
2913.00,0.1633
2912.00,0.1574
2911.00,0.1519
2910.00,0.1468
2909.00,0.1420
2908.00,0.1375
2907.00,0.1331
2906.00,0.1286
2905.00,0.1242
2904.00,0.1196
2903.00,0.1150
2902.00,0.1105
2901.00,0.1061
2900.00,0.1018
2899.00,0.0977
2898.00,0.0938
2897.00,0.0903
2896.00,0.0872
2895.00,0.0845
2894.00,0.0823
2893.00,0.0806
2892.00,0.0793
2891.00,0.0784
2890.00,0.0778
2889.00,0.0776
2888.00,0.0776
2887.00,0.0779
2886.00,0.0784
2885.00,0.0792
2884.00,0.0803
2883.00,0.0816
2882.00,0.0832
2881.00,0.0849
2880.00,0.0864
2879.00,0.0877
2878.00,0.0884
2877.00,0.0886
2876.00,0.0884
2875.00,0.0880
2874.00,0.0877
2873.00,0.0878
2872.00,0.0883
2871.00,0.0893
2870.00,0.0906
2869.00,0.0917
2868.00,0.0922
2867.00,0.0916
2866.00,0.0895
2865.00,0.0858
2864.00,0.0806
2863.00,0.0747
2862.00,0.0686
2861.00,0.0629
2860.00,0.0581
2859.00,0.0543
2858.00,0.0514
2857.00,0.0494
2856.00,0.0481
2855.00,0.0474
2854.00,0.0472
2853.00,0.0474
2852.00,0.0480
2851.00,0.0490
2850.00,0.0504
2849.00,0.0522
2848.00,0.0545
2847.00,0.0574
2846.00,0.0608
2845.00,0.0647
2844.00,0.0690
2843.00,0.0735
2842.00,0.0780
2841.00,0.0820
2840.00,0.0850
2839.00,0.0866
2838.00,0.0863
2837.00,0.0840
2836.00,0.0797
2835.00,0.0738
2834.00,0.0669
2833.00,0.0597
2832.00,0.0529
2831.00,0.0468
2830.00,0.0416
2829.00,0.0373
2828.00,0.0338
2827.00,0.0310
2826.00,0.0287
2825.00,0.0268
2824.00,0.0252
2823.00,0.0238
2822.00,0.0226
2821.00,0.0215
2820.00,0.0205
2819.00,0.0197
2818.00,0.0190
2817.00,0.0184
2816.00,0.0178
2815.00,0.0173
2814.00,0.0168
2813.00,0.0164
2812.00,0.0160
2811.00,0.0155
2810.00,0.0151
2809.00,0.0147
2808.00,0.0143
2807.00,0.0138
2806.00,0.0133
2805.00,0.0128
2804.00,0.0123
2803.00,0.0119
2802.00,0.0115
2801.00,0.0112
2800.00,0.0109
2799.00,0.0106
2798.00,0.0104
2797.00,0.0102
2796.00,0.0101
2795.00,0.0099
2794.00,0.0097
2793.00,0.0095
2792.00,0.0093
2791.00,0.0090
2790.00,0.0087
2789.00,0.0085
2788.00,0.0082
2787.00,0.0080
2786.00,0.0079
2785.00,0.0077
2784.00,0.0075
2783.00,0.0074
2782.00,0.0072
2781.00,0.0070
2780.00,0.0068
2779.00,0.0067
2778.00,0.0066
2777.00,0.0065
2776.00,0.0064
2775.00,0.0063
2774.00,0.0062
2773.00,0.0062
2772.00,0.0061
2771.00,0.0061
2770.00,0.0061
2769.00,0.0060
2768.00,0.0060
2767.00,0.0060
2766.00,0.0059
2765.00,0.0059
2764.00,0.0059
2763.00,0.0059
2762.00,0.0059
2761.00,0.0059
2760.00,0.0059
2759.00,0.0058
2758.00,0.0058
2757.00,0.0058
2756.00,0.0057
2755.00,0.0057
2754.00,0.0057
2753.00,0.0057
2752.00,0.0057
2751.00,0.0057
2750.00,0.0057
2749.00,0.0057
2748.00,0.0057
2747.00,0.0058
2746.00,0.0058
2745.00,0.0058
2744.00,0.0059
2743.00,0.0059
2742.00,0.0060
2741.00,0.0061
2740.00,0.0062
2739.00,0.0063
2738.00,0.0064
2737.00,0.0065
2736.00,0.0066
2735.00,0.0067
2734.00,0.0067
2733.00,0.0068
2732.00,0.0069
2731.00,0.0071
2730.00,0.0072
2729.00,0.0074
2728.00,0.0076
2727.00,0.0078
2726.00,0.0079
2725.00,0.0081
2724.00,0.0082
2723.00,0.0082
2722.00,0.0081
2721.00,0.0080
2720.00,0.0078
2719.00,0.0076
2718.00,0.0074
2717.00,0.0071
2716.00,0.0069
2715.00,0.0067
2714.00,0.0066
2713.00,0.0064
2712.00,0.0062
2711.00,0.0061
2710.00,0.0060
2709.00,0.0059
2708.00,0.0058
2707.00,0.0057
2706.00,0.0056
2705.00,0.0055
2704.00,0.0054
2703.00,0.0053
2702.00,0.0053
2701.00,0.0053
2700.00,0.0052
2699.00,0.0052
2698.00,0.0051
2697.00,0.0051
2696.00,0.0051
2695.00,0.0051
2694.00,0.0050
2693.00,0.0050
2692.00,0.0050
2691.00,0.0050
2690.00,0.0050
2689.00,0.0050
2688.00,0.0051
2687.00,0.0051
2686.00,0.0051
2685.00,0.0051
2684.00,0.0051
2683.00,0.0050
2682.00,0.0050
2681.00,0.0051
2680.00,0.0051
2679.00,0.0051
2678.00,0.0051
2677.00,0.0050
2676.00,0.0050
2675.00,0.0050
2674.00,0.0050
2673.00,0.0050
2672.00,0.0050
2671.00,0.0050
2670.00,0.0050
2669.00,0.0050
2668.00,0.0050
2667.00,0.0050
2666.00,0.0050
2665.00,0.0051
2664.00,0.0051
2663.00,0.0052
2662.00,0.0052
2661.00,0.0053
2660.00,0.0053
2659.00,0.0053
2658.00,0.0054
2657.00,0.0054
2656.00,0.0054
2655.00,0.0053
2654.00,0.0052
2653.00,0.0052
2652.00,0.0052
2651.00,0.0051
2650.00,0.0051
2649.00,0.0051
2648.00,0.0051
2647.00,0.0051
2646.00,0.0051
2645.00,0.0051
2644.00,0.0051
2643.00,0.0050
2642.00,0.0050
2641.00,0.0049
2640.00,0.0049
2639.00,0.0048
2638.00,0.0048
2637.00,0.0047
2636.00,0.0047
2635.00,0.0046
2634.00,0.0046
2633.00,0.0046
2632.00,0.0046
2631.00,0.0047
2630.00,0.0047
2629.00,0.0047
2628.00,0.0047
2627.00,0.0047
2626.00,0.0047
2625.00,0.0047
2624.00,0.0048
2623.00,0.0048
2622.00,0.0048
2621.00,0.0048
2620.00,0.0049
2619.00,0.0049
2618.00,0.0049
2617.00,0.0049
2616.00,0.0048
2615.00,0.0047
2614.00,0.0047
2613.00,0.0047
2612.00,0.0047
2611.00,0.0046
2610.00,0.0045
2609.00,0.0045
2608.00,0.0044
2607.00,0.0044
2606.00,0.0044
2605.00,0.0044
2604.00,0.0043
2603.00,0.0043
2602.00,0.0043
2601.00,0.0042
2600.00,0.0042
2599.00,0.0041
2598.00,0.0041
2597.00,0.0041
2596.00,0.0041
2595.00,0.0042
2594.00,0.0042
2593.00,0.0042
2592.00,0.0043
2591.00,0.0043
2590.00,0.0043
2589.00,0.0043
2588.00,0.0044
2587.00,0.0044
2586.00,0.0045
2585.00,0.0046
2584.00,0.0047
2583.00,0.0047
2582.00,0.0046
2581.00,0.0045
2580.00,0.0045
2579.00,0.0044
2578.00,0.0044
2577.00,0.0043
2576.00,0.0043
2575.00,0.0042
2574.00,0.0042
2573.00,0.0042
2572.00,0.0041
2571.00,0.0040
2570.00,0.0039
2569.00,0.0038
2568.00,0.0037
2567.00,0.0036
2566.00,0.0035
2565.00,0.0035
2564.00,0.0034
2563.00,0.0034
2562.00,0.0034
2561.00,0.0033
2560.00,0.0033
2559.00,0.0033
2558.00,0.0033
2557.00,0.0033
2556.00,0.0033
2555.00,0.0033
2554.00,0.0032
2553.00,0.0032
2552.00,0.0032
2551.00,0.0032
2550.00,0.0032
2549.00,0.0031
2548.00,0.0031
2547.00,0.0031
2546.00,0.0030
2545.00,0.0029
2544.00,0.0028
2543.00,0.0028
2542.00,0.0027
2541.00,0.0027
2540.00,0.0027
2539.00,0.0028
2538.00,0.0028
2537.00,0.0029
2536.00,0.0029
2535.00,0.0028
2534.00,0.0028
2533.00,0.0028
2532.00,0.0028
2531.00,0.0028
2530.00,0.0028
2529.00,0.0028
2528.00,0.0028
2527.00,0.0027
2526.00,0.0027
2525.00,0.0027
2524.00,0.0028
2523.00,0.0029
2522.00,0.0029
2521.00,0.0028
2520.00,0.0027
2519.00,0.0026
2518.00,0.0025
2517.00,0.0025
2516.00,0.0025
2515.00,0.0025
2514.00,0.0024
2513.00,0.0023
2512.00,0.0023
2511.00,0.0023
2510.00,0.0024
2509.00,0.0025
2508.00,0.0025
2507.00,0.0024
2506.00,0.0024
2505.00,0.0023
2504.00,0.0023
2503.00,0.0023
2502.00,0.0024
2501.00,0.0024
2500.00,0.0024
2499.00,0.0024
2498.00,0.0024
2497.00,0.0024
2496.00,0.0023
2495.00,0.0023
2494.00,0.0023
2493.00,0.0023
2492.00,0.0023
2491.00,0.0023
2490.00,0.0022
2489.00,0.0022
2488.00,0.0022
2487.00,0.0023
2486.00,0.0023
2485.00,0.0023
2484.00,0.0023
2483.00,0.0023
2482.00,0.0022
2481.00,0.0022
2480.00,0.0022
2479.00,0.0022
2478.00,0.0022
2477.00,0.0022
2476.00,0.0022
2475.00,0.0023
2474.00,0.0023
2473.00,0.0023
2472.00,0.0023
2471.00,0.0022
2470.00,0.0022
2469.00,0.0021
2468.00,0.0021
2467.00,0.0021
2466.00,0.0021
2465.00,0.0021
2464.00,0.0021
2463.00,0.0021
2462.00,0.0022
2461.00,0.0022
2460.00,0.0022
2459.00,0.0023
2458.00,0.0023
2457.00,0.0024
2456.00,0.0024
2455.00,0.0024
2454.00,0.0024
2453.00,0.0024
2452.00,0.0025
2451.00,0.0025
2450.00,0.0025
2449.00,0.0025
2448.00,0.0025
2447.00,0.0025
2446.00,0.0024
2445.00,0.0024
2444.00,0.0023
2443.00,0.0023
2442.00,0.0022
2441.00,0.0023
2440.00,0.0023
2439.00,0.0024
2438.00,0.0024
2437.00,0.0024
2436.00,0.0024
2435.00,0.0024
2434.00,0.0024
2433.00,0.0024
2432.00,0.0024
2431.00,0.0023
2430.00,0.0022
2429.00,0.0022
2428.00,0.0021
2427.00,0.0021
2426.00,0.0022
2425.00,0.0022
2424.00,0.0023
2423.00,0.0023
2422.00,0.0022
2421.00,0.0022
2420.00,0.0022
2419.00,0.0021
2418.00,0.0021
2417.00,0.0021
2416.00,0.0021
2415.00,0.0021
2414.00,0.0021
2413.00,0.0021
2412.00,0.0021
2411.00,0.0021
2410.00,0.0021
2409.00,0.0021
2408.00,0.0020
2407.00,0.0020
2406.00,0.0019
2405.00,0.0019
2404.00,0.0019
2403.00,0.0019
2402.00,0.0019
2401.00,0.0019
2400.00,0.0019
2399.00,0.0019
2398.00,0.0019
2397.00,0.0019
2396.00,0.0020
2395.00,0.0020
2394.00,0.0019
2393.00,0.0019
2392.00,0.0019
2391.00,0.0019
2390.00,0.0020
2389.00,0.0020
2388.00,0.0019
2387.00,0.0018
2386.00,0.0017
2385.00,0.0016
2384.00,0.0016
2383.00,0.0015
2382.00,0.0014
2381.00,0.0013
2380.00,0.0013
2379.00,0.0013
2378.00,0.0013
2377.00,0.0014
2376.00,0.0014
2375.00,0.0014
2374.00,0.0014
2373.00,0.0014
2372.00,0.0014
2371.00,0.0014
2370.00,0.0014
2369.00,0.0014
2368.00,0.0013
2367.00,0.0013
2366.00,0.0013
2365.00,0.0012
2364.00,0.0012
2363.00,0.0013
2362.00,0.0013
2361.00,0.0014
2360.00,0.0014
2359.00,0.0015
2358.00,0.0015
2357.00,0.0016
2356.00,0.0016
2355.00,0.0015
2354.00,0.0014
2353.00,0.0013
2352.00,0.0013
2351.00,0.0014
2350.00,0.0014
2349.00,0.0015
2348.00,0.0015
2347.00,0.0015
2346.00,0.0016
2345.00,0.0016
2344.00,0.0017
2343.00,0.0017
2342.00,0.0017
2341.00,0.0017
2340.00,0.0018
2339.00,0.0018
2338.00,0.0018
2337.00,0.0018
2336.00,0.0018
2335.00,0.0018
2334.00,0.0018
2333.00,0.0017
2332.00,0.0017
2331.00,0.0017
2330.00,0.0017
2329.00,0.0018
2328.00,0.0021
2327.00,0.0025
2326.00,0.0029
2325.00,0.0033
2324.00,0.0034
2323.00,0.0033
2322.00,0.0031
2321.00,0.0029
2320.00,0.0028
2319.00,0.0028
2318.00,0.0027
2317.00,0.0026
2316.00,0.0025
2315.00,0.0024
2314.00,0.0024
2313.00,0.0024
2312.00,0.0024
2311.00,0.0025
2310.00,0.0025
2309.00,0.0025
2308.00,0.0024
2307.00,0.0024
2306.00,0.0024
2305.00,0.0024
2304.00,0.0024
2303.00,0.0024
2302.00,0.0024
2301.00,0.0025
2300.00,0.0025
2299.00,0.0026
2298.00,0.0027
2297.00,0.0028
2296.00,0.0028
2295.00,0.0027
2294.00,0.0028
2293.00,0.0029
2292.00,0.0030
2291.00,0.0031
2290.00,0.0031
2289.00,0.0032
2288.00,0.0033
2287.00,0.0034
2286.00,0.0035
2285.00,0.0034
2284.00,0.0034
2283.00,0.0033
2282.00,0.0032
2281.00,0.0031
2280.00,0.0030
2279.00,0.0029
2278.00,0.0029
2277.00,0.0028
2276.00,0.0028
2275.00,0.0028
2274.00,0.0028
2273.00,0.0028
2272.00,0.0028
2271.00,0.0028
2270.00,0.0027
2269.00,0.0027
2268.00,0.0027
2267.00,0.0027
2266.00,0.0027
2265.00,0.0026
2264.00,0.0025
2263.00,0.0024
2262.00,0.0025
2261.00,0.0026
2260.00,0.0027
2259.00,0.0028
2258.00,0.0028
2257.00,0.0028
2256.00,0.0026
2255.00,0.0024
2254.00,0.0023
2253.00,0.0022
2252.00,0.0023
2251.00,0.0023
2250.00,0.0022
2249.00,0.0022
2248.00,0.0022
2247.00,0.0021
2246.00,0.0021
2245.00,0.0021
2244.00,0.0021
2243.00,0.0022
2242.00,0.0023
2241.00,0.0023
2240.00,0.0023
2239.00,0.0023
2238.00,0.0024
2237.00,0.0024
2236.00,0.0023
2235.00,0.0022
2234.00,0.0021
2233.00,0.0021
2232.00,0.0020
2231.00,0.0020
2230.00,0.0020
2229.00,0.0020
2228.00,0.0022
2227.00,0.0023
2226.00,0.0024
2225.00,0.0025
2224.00,0.0025
2223.00,0.0025
2222.00,0.0025
2221.00,0.0024
2220.00,0.0023
2219.00,0.0021
2218.00,0.0021
2217.00,0.0022
2216.00,0.0023
2215.00,0.0023
2214.00,0.0022
2213.00,0.0020
2212.00,0.0019
2211.00,0.0019
2210.00,0.0021
2209.00,0.0023
2208.00,0.0023
2207.00,0.0021
2206.00,0.0019
2205.00,0.0019
2204.00,0.0020
2203.00,0.0022
2202.00,0.0023
2201.00,0.0023
2200.00,0.0023
2199.00,0.0023
2198.00,0.0023
2197.00,0.0023
2196.00,0.0025
2195.00,0.0026
2194.00,0.0027
2193.00,0.0027
2192.00,0.0026
2191.00,0.0026
2190.00,0.0026
2189.00,0.0027
2188.00,0.0028
2187.00,0.0029
2186.00,0.0030
2185.00,0.0031
2184.00,0.0029
2183.00,0.0025
2182.00,0.0021
2181.00,0.0018
2180.00,0.0018
2179.00,0.0020
2178.00,0.0021
2177.00,0.0022
2176.00,0.0021
2175.00,0.0020
2174.00,0.0020
2173.00,0.0021
2172.00,0.0022
2171.00,0.0023
2170.00,0.0024
2169.00,0.0026
2168.00,0.0029
2167.00,0.0032
2166.00,0.0036
2165.00,0.0040
2164.00,0.0043
2163.00,0.0044
2162.00,0.0040
2161.00,0.0030
2160.00,0.0015
2159.00,-0.0001
2158.00,-0.0014
2157.00,-0.0019
2156.00,-0.0018
2155.00,-0.0016
2154.00,-0.0013
2153.00,-0.0011
2152.00,-0.0008
2151.00,-0.0005
2150.00,-0.0001
2149.00,0.0001
2148.00,0.0001
2147.00,-0.0001
2146.00,-0.0002
2145.00,-0.0002
2144.00,0.0000
2143.00,0.0001
2142.00,0.0001
2141.00,0.0001
2140.00,0.0001
2139.00,0.0001
2138.00,0.0002
2137.00,0.0002
2136.00,0.0002
2135.00,0.0001
2134.00,-0.0001
2133.00,-0.0002
2132.00,-0.0002
2131.00,-0.0001
2130.00,-0.0000
2129.00,0.0001
2128.00,0.0001
2127.00,0.0002
2126.00,0.0002
2125.00,0.0002
2124.00,0.0004
2123.00,0.0006
2122.00,0.0008
2121.00,0.0009
2120.00,0.0010
2119.00,0.0010
2118.00,0.0011
2117.00,0.0014
2116.00,0.0017
2115.00,0.0019
2114.00,0.0019
2113.00,0.0018
2112.00,0.0017
2111.00,0.0017
2110.00,0.0018
2109.00,0.0019
2108.00,0.0019
2107.00,0.0019
2106.00,0.0018
2105.00,0.0017
2104.00,0.0017
2103.00,0.0016
2102.00,0.0016
2101.00,0.0016
2100.00,0.0016
2099.00,0.0016
2098.00,0.0015
2097.00,0.0014
2096.00,0.0012
2095.00,0.0010
2094.00,0.0010
2093.00,0.0011
2092.00,0.0012
2091.00,0.0013
2090.00,0.0014
2089.00,0.0016
2088.00,0.0017
2087.00,0.0018
2086.00,0.0018
2085.00,0.0019
2084.00,0.0021
2083.00,0.0022
2082.00,0.0023
2081.00,0.0023
2080.00,0.0023
2079.00,0.0022
2078.00,0.0021
2077.00,0.0021
2076.00,0.0021
2075.00,0.0021
2074.00,0.0021
2073.00,0.0021
2072.00,0.0020
2071.00,0.0020
2070.00,0.0020
2069.00,0.0019
2068.00,0.0019
2067.00,0.0018
2066.00,0.0016
2065.00,0.0015
2064.00,0.0015
2063.00,0.0015
2062.00,0.0016
2061.00,0.0017
2060.00,0.0017
2059.00,0.0016
2058.00,0.0016
2057.00,0.0017
2056.00,0.0018
2055.00,0.0018
2054.00,0.0020
2053.00,0.0024
2052.00,0.0029
2051.00,0.0032
2050.00,0.0031
2049.00,0.0027
2048.00,0.0023
2047.00,0.0019
2046.00,0.0017
2045.00,0.0017
2044.00,0.0016
2043.00,0.0014
2042.00,0.0013
2041.00,0.0012
2040.00,0.0013
2039.00,0.0015
2038.00,0.0016
2037.00,0.0017
2036.00,0.0017
2035.00,0.0015
2034.00,0.0014
2033.00,0.0013
2032.00,0.0012
2031.00,0.0010
2030.00,0.0008
2029.00,0.0007
2028.00,0.0007
2027.00,0.0008
2026.00,0.0010
2025.00,0.0011
2024.00,0.0012
2023.00,0.0012
2022.00,0.0011
2021.00,0.0010
2020.00,0.0009
2019.00,0.0008
2018.00,0.0007
2017.00,0.0007
2016.00,0.0008
2015.00,0.0009
2014.00,0.0011
2013.00,0.0011
2012.00,0.0011
2011.00,0.0010
2010.00,0.0009
2009.00,0.0008
2008.00,0.0006
2007.00,0.0002
2006.00,-0.0000
2005.00,-0.0001
2004.00,0.0001
2003.00,0.0003
2002.00,0.0006
2001.00,0.0009
2000.00,0.0010
1999.00,0.0009
1998.00,0.0006
1997.00,0.0004
1996.00,0.0004
1995.00,0.0006
1994.00,0.0009
1993.00,0.0013
1992.00,0.0015
1991.00,0.0015
1990.00,0.0013
1989.00,0.0011
1988.00,0.0011
1987.00,0.0012
1986.00,0.0015
1985.00,0.0018
1984.00,0.0021
1983.00,0.0023
1982.00,0.0027
1981.00,0.0032
1980.00,0.0033
1979.00,0.0029
1978.00,0.0020
1977.00,0.0012
1976.00,0.0007
1975.00,0.0006
1974.00,0.0005
1973.00,0.0005
1972.00,0.0005
1971.00,0.0004
1970.00,0.0001
1969.00,-0.0001
1968.00,-0.0002
1967.00,-0.0003
1966.00,-0.0003
1965.00,-0.0003
1964.00,-0.0003
1963.00,-0.0002
1962.00,-0.0003
1961.00,-0.0003
1960.00,-0.0004
1959.00,-0.0005
1958.00,-0.0005
1957.00,-0.0005
1956.00,-0.0003
1955.00,-0.0002
1954.00,-0.0001
1953.00,0.0000
1952.00,0.0001
1951.00,0.0001
1950.00,-0.0000
1949.00,-0.0000
1948.00,0.0001
1947.00,0.0003
1946.00,0.0003
1945.00,0.0002
1944.00,-0.0001
1943.00,-0.0003
1942.00,-0.0004
1941.00,-0.0003
1940.00,-0.0001
1939.00,0.0000
1938.00,0.0002
1937.00,0.0004
1936.00,0.0005
1935.00,0.0006
1934.00,0.0006
1933.00,0.0005
1932.00,0.0005
1931.00,0.0005
1930.00,0.0005
1929.00,0.0004
1928.00,0.0004
1927.00,0.0004
1926.00,0.0004
1925.00,0.0005
1924.00,0.0006
1923.00,0.0008
1922.00,0.0009
1921.00,0.0011
1920.00,0.0011
1919.00,0.0011
1918.00,0.0010
1917.00,0.0010
1916.00,0.0010
1915.00,0.0010
1914.00,0.0010
1913.00,0.0010
1912.00,0.0010
1911.00,0.0010
1910.00,0.0009
1909.00,0.0010
1908.00,0.0010
1907.00,0.0010
1906.00,0.0010
1905.00,0.0010
1904.00,0.0009
1903.00,0.0009
1902.00,0.0009
1901.00,0.0011
1900.00,0.0012
1899.00,0.0013
1898.00,0.0013
1897.00,0.0013
1896.00,0.0013
1895.00,0.0012
1894.00,0.0012
1893.00,0.0013
1892.00,0.0013
1891.00,0.0014
1890.00,0.0014
1889.00,0.0014
1888.00,0.0014
1887.00,0.0014
1886.00,0.0014
1885.00,0.0014
1884.00,0.0013
1883.00,0.0012
1882.00,0.0012
1881.00,0.0012
1880.00,0.0012
1879.00,0.0012
1878.00,0.0012
1877.00,0.0012
1876.00,0.0012
1875.00,0.0012
1874.00,0.0012
1873.00,0.0013
1872.00,0.0013
1871.00,0.0013
1870.00,0.0013
1869.00,0.0014
1868.00,0.0015
1867.00,0.0015
1866.00,0.0015
1865.00,0.0015
1864.00,0.0016
1863.00,0.0016
1862.00,0.0015
1861.00,0.0015
1860.00,0.0014
1859.00,0.0013
1858.00,0.0013
1857.00,0.0014
1856.00,0.0014
1855.00,0.0014
1854.00,0.0013
1853.00,0.0013
1852.00,0.0013
1851.00,0.0013
1850.00,0.0013
1849.00,0.0014
1848.00,0.0014
1847.00,0.0015
1846.00,0.0015
1845.00,0.0015
1844.00,0.0016
1843.00,0.0016
1842.00,0.0016
1841.00,0.0016
1840.00,0.0016
1839.00,0.0015
1838.00,0.0014
1837.00,0.0014
1836.00,0.0014
1835.00,0.0014
1834.00,0.0015
1833.00,0.0015
1832.00,0.0016
1831.00,0.0016
1830.00,0.0016
1829.00,0.0016
1828.00,0.0016
1827.00,0.0016
1826.00,0.0017
1825.00,0.0018
1824.00,0.0019
1823.00,0.0019
1822.00,0.0019
1821.00,0.0018
1820.00,0.0017
1819.00,0.0015
1818.00,0.0013
1817.00,0.0013
1816.00,0.0013
1815.00,0.0014
1814.00,0.0015
1813.00,0.0016
1812.00,0.0016
1811.00,0.0016
1810.00,0.0017
1809.00,0.0017
1808.00,0.0018
1807.00,0.0018
1806.00,0.0019
1805.00,0.0019
1804.00,0.0020
1803.00,0.0020
1802.00,0.0020
1801.00,0.0020
1800.00,0.0021
1799.00,0.0021
1798.00,0.0022
1797.00,0.0022
1796.00,0.0022
1795.00,0.0022
1794.00,0.0022
1793.00,0.0022
1792.00,0.0023
1791.00,0.0023
1790.00,0.0023
1789.00,0.0022
1788.00,0.0022
1787.00,0.0023
1786.00,0.0023
1785.00,0.0023
1784.00,0.0023
1783.00,0.0022
1782.00,0.0022
1781.00,0.0022
1780.00,0.0022
1779.00,0.0022
1778.00,0.0022
1777.00,0.0022
1776.00,0.0021
1775.00,0.0021
1774.00,0.0021
1773.00,0.0021
1772.00,0.0021
1771.00,0.0022
1770.00,0.0022
1769.00,0.0023
1768.00,0.0023
1767.00,0.0023
1766.00,0.0023
1765.00,0.0023
1764.00,0.0024
1763.00,0.0024
1762.00,0.0025
1761.00,0.0025
1760.00,0.0026
1759.00,0.0026
1758.00,0.0026
1757.00,0.0027
1756.00,0.0027
1755.00,0.0027
1754.00,0.0027
1753.00,0.0027
1752.00,0.0027
1751.00,0.0028
1750.00,0.0028
1749.00,0.0029
1748.00,0.0030
1747.00,0.0030
1746.00,0.0030
1745.00,0.0030
1744.00,0.0031
1743.00,0.0031
1742.00,0.0031
1741.00,0.0032
1740.00,0.0033
1739.00,0.0033
1738.00,0.0034
1737.00,0.0034
1736.00,0.0034
1735.00,0.0034
1734.00,0.0034
1733.00,0.0033
1732.00,0.0033
1731.00,0.0033
1730.00,0.0033
1729.00,0.0033
1728.00,0.0033
1727.00,0.0034
1726.00,0.0034
1725.00,0.0035
1724.00,0.0035
1723.00,0.0036
1722.00,0.0036
1721.00,0.0035
1720.00,0.0035
1719.00,0.0035
1718.00,0.0034
1717.00,0.0034
1716.00,0.0035
1715.00,0.0035
1714.00,0.0035
1713.00,0.0035
1712.00,0.0036
1711.00,0.0036
1710.00,0.0037
1709.00,0.0037
1708.00,0.0037
1707.00,0.0037
1706.00,0.0036
1705.00,0.0037
1704.00,0.0037
1703.00,0.0038
1702.00,0.0038
1701.00,0.0039
1700.00,0.0040
1699.00,0.0040
1698.00,0.0041
1697.00,0.0042
1696.00,0.0043
1695.00,0.0044
1694.00,0.0044
1693.00,0.0045
1692.00,0.0046
1691.00,0.0046
1690.00,0.0047
1689.00,0.0048
1688.00,0.0048
1687.00,0.0048
1686.00,0.0048
1685.00,0.0050
1684.00,0.0052
1683.00,0.0053
1682.00,0.0054
1681.00,0.0056
1680.00,0.0057
1679.00,0.0058
1678.00,0.0058
1677.00,0.0059
1676.00,0.0061
1675.00,0.0062
1674.00,0.0063
1673.00,0.0063
1672.00,0.0064
1671.00,0.0066
1670.00,0.0067
1669.00,0.0068
1668.00,0.0069
1667.00,0.0069
1666.00,0.0069
1665.00,0.0069
1664.00,0.0070
1663.00,0.0071
1662.00,0.0072
1661.00,0.0073
1660.00,0.0074
1659.00,0.0075
1658.00,0.0075
1657.00,0.0076
1656.00,0.0076
1655.00,0.0077
1654.00,0.0078
1653.00,0.0081
1652.00,0.0083
1651.00,0.0084
1650.00,0.0084
1649.00,0.0085
1648.00,0.0086
1647.00,0.0087
1646.00,0.0088
1645.00,0.0088
1644.00,0.0088
1643.00,0.0088
1642.00,0.0088
1641.00,0.0088
1640.00,0.0088
1639.00,0.0087
1638.00,0.0087
1637.00,0.0087
1636.00,0.0087
1635.00,0.0087
1634.00,0.0087
1633.00,0.0087
1632.00,0.0087
1631.00,0.0087
1630.00,0.0087
1629.00,0.0087
1628.00,0.0087
1627.00,0.0086
1626.00,0.0086
1625.00,0.0085
1624.00,0.0085
1623.00,0.0084
1622.00,0.0083
1621.00,0.0083
1620.00,0.0083
1619.00,0.0083
1618.00,0.0083
1617.00,0.0083
1616.00,0.0083
1615.00,0.0083
1614.00,0.0083
1613.00,0.0083
1612.00,0.0083
1611.00,0.0083
1610.00,0.0083
1609.00,0.0083
1608.00,0.0084
1607.00,0.0084
1606.00,0.0084
1605.00,0.0083
1604.00,0.0083
1603.00,0.0083
1602.00,0.0082
1601.00,0.0082
1600.00,0.0082
1599.00,0.0082
1598.00,0.0081
1597.00,0.0081
1596.00,0.0082
1595.00,0.0082
1594.00,0.0082
1593.00,0.0082
1592.00,0.0082
1591.00,0.0082
1590.00,0.0082
1589.00,0.0082
1588.00,0.0082
1587.00,0.0083
1586.00,0.0083
1585.00,0.0083
1584.00,0.0084
1583.00,0.0084
1582.00,0.0085
1581.00,0.0085
1580.00,0.0086
1579.00,0.0086
1578.00,0.0086
1577.00,0.0086
1576.00,0.0086
1575.00,0.0086
1574.00,0.0085
1573.00,0.0085
1572.00,0.0084
1571.00,0.0084
1570.00,0.0083
1569.00,0.0083
1568.00,0.0083
1567.00,0.0083
1566.00,0.0084
1565.00,0.0084
1564.00,0.0085
1563.00,0.0085
1562.00,0.0086
1561.00,0.0086
1560.00,0.0086
1559.00,0.0087
1558.00,0.0087
1557.00,0.0088
1556.00,0.0089
1555.00,0.0090
1554.00,0.0091
1553.00,0.0093
1552.00,0.0094
1551.00,0.0096
1550.00,0.0097
1549.00,0.0099
1548.00,0.0100
1547.00,0.0101
1546.00,0.0102
1545.00,0.0103
1544.00,0.0105
1543.00,0.0105
1542.00,0.0105
1541.00,0.0105
1540.00,0.0105
1539.00,0.0106
1538.00,0.0106
1537.00,0.0105
1536.00,0.0104
1535.00,0.0103
1534.00,0.0101
1533.00,0.0100
1532.00,0.0100
1531.00,0.0099
1530.00,0.0098
1529.00,0.0097
1528.00,0.0097
1527.00,0.0097
1526.00,0.0096
1525.00,0.0096
1524.00,0.0095
1523.00,0.0095
1522.00,0.0094
1521.00,0.0095
1520.00,0.0096
1519.00,0.0096
1518.00,0.0096
1517.00,0.0097
1516.00,0.0099
1515.00,0.0100
1514.00,0.0100
1513.00,0.0101
1512.00,0.0103
1511.00,0.0104
1510.00,0.0104
1509.00,0.0105
1508.00,0.0107
1507.00,0.0109
1506.00,0.0111
1505.00,0.0113
1504.00,0.0115
1503.00,0.0116
1502.00,0.0118
1501.00,0.0120
1500.00,0.0123
1499.00,0.0126
1498.00,0.0131
1497.00,0.0137
1496.00,0.0143
1495.00,0.0148
1494.00,0.0151
1493.00,0.0154
1492.00,0.0158
1491.00,0.0161
1490.00,0.0164
1489.00,0.0169
1488.00,0.0174
1487.00,0.0178
1486.00,0.0182
1485.00,0.0188
1484.00,0.0193
1483.00,0.0199
1482.00,0.0206
1481.00,0.0216
1480.00,0.0226
1479.00,0.0236
1478.00,0.0246
1477.00,0.0261
1476.00,0.0278
1475.00,0.0298
1474.00,0.0325
1473.00,0.0368
1472.00,0.0420
1471.00,0.0469
1470.00,0.0514
1469.00,0.0558
1468.00,0.0606
1467.00,0.0658
1466.00,0.0721
1465.00,0.0791
1464.00,0.0854
1463.00,0.0897
1462.00,0.0922
1461.00,0.0939
1460.00,0.0950
1459.00,0.0961
1458.00,0.0980
1457.00,0.1006
1456.00,0.1021
1455.00,0.1018
1454.00,0.1008
1453.00,0.0994
1452.00,0.0975
1451.00,0.0949
1450.00,0.0913
1449.00,0.0865
1448.00,0.0805
1447.00,0.0742
1446.00,0.0684
1445.00,0.0634
1444.00,0.0590
1443.00,0.0554
1442.00,0.0527
1441.00,0.0509
1440.00,0.0497
1439.00,0.0491
1438.00,0.0491
1437.00,0.0494
1436.00,0.0489
1435.00,0.0471
1434.00,0.0443
1433.00,0.0408
1432.00,0.0373
1431.00,0.0343
1430.00,0.0320
1429.00,0.0303
1428.00,0.0291
1427.00,0.0282
1426.00,0.0276
1425.00,0.0270
1424.00,0.0265
1423.00,0.0261
1422.00,0.0258
1421.00,0.0254
1420.00,0.0251
1419.00,0.0248
1418.00,0.0245
1417.00,0.0241
1416.00,0.0236
1415.00,0.0232
1414.00,0.0228
1413.00,0.0224
1412.00,0.0219
1411.00,0.0215
1410.00,0.0211
1409.00,0.0207
1408.00,0.0203
1407.00,0.0200
1406.00,0.0198
1405.00,0.0196
1404.00,0.0193
1403.00,0.0192
1402.00,0.0191
1401.00,0.0191
1400.00,0.0190
1399.00,0.0189
1398.00,0.0190
1397.00,0.0189
1396.00,0.0188
1395.00,0.0189
1394.00,0.0190
1393.00,0.0192
1392.00,0.0195
1391.00,0.0199
1390.00,0.0206
1389.00,0.0217
1388.00,0.0235
1387.00,0.0263
1386.00,0.0300
1385.00,0.0346
1384.00,0.0407
1383.00,0.0489
1382.00,0.0595
1381.00,0.0727
1380.00,0.0889
1379.00,0.1070
1378.00,0.1244
1377.00,0.1372
1376.00,0.1421
1375.00,0.1368
1374.00,0.1226
1373.00,0.1042
1372.00,0.0863
1371.00,0.0709
1370.00,0.0583
1369.00,0.0486
1368.00,0.0418
1367.00,0.0376
1366.00,0.0352
1365.00,0.0342
1364.00,0.0342
1363.00,0.0353
1362.00,0.0368
1361.00,0.0384
1360.00,0.0394
1359.00,0.0395
1358.00,0.0383
1357.00,0.0360
1356.00,0.0330
1355.00,0.0298
1354.00,0.0267
1353.00,0.0242
1352.00,0.0222
1351.00,0.0206
1350.00,0.0192
1349.00,0.0181
1348.00,0.0172
1347.00,0.0165
1346.00,0.0159
1345.00,0.0155
1344.00,0.0151
1343.00,0.0147
1342.00,0.0143
1341.00,0.0140
1340.00,0.0137
1339.00,0.0135
1338.00,0.0134
1337.00,0.0133
1336.00,0.0134
1335.00,0.0135
1334.00,0.0137
1333.00,0.0139
1332.00,0.0141
1331.00,0.0143
1330.00,0.0144
1329.00,0.0142
1328.00,0.0139
1327.00,0.0135
1326.00,0.0130
1325.00,0.0125
1324.00,0.0120
1323.00,0.0116
1322.00,0.0113
1321.00,0.0111
1320.00,0.0109
1319.00,0.0108
1318.00,0.0106
1317.00,0.0104
1316.00,0.0102
1315.00,0.0101
1314.00,0.0101
1313.00,0.0101
1312.00,0.0102
1311.00,0.0105
1310.00,0.0108
1309.00,0.0112
1308.00,0.0119
1307.00,0.0127
1306.00,0.0135
1305.00,0.0140
1304.00,0.0142
1303.00,0.0140
1302.00,0.0137
1301.00,0.0134
1300.00,0.0132
1299.00,0.0131
1298.00,0.0131
1297.00,0.0131
1296.00,0.0130
1295.00,0.0128
1294.00,0.0125
1293.00,0.0121
1292.00,0.0118
1291.00,0.0114
1290.00,0.0111
1289.00,0.0108
1288.00,0.0105
1287.00,0.0103
1286.00,0.0101
1285.00,0.0099
1284.00,0.0098
1283.00,0.0097
1282.00,0.0097
1281.00,0.0096
1280.00,0.0095
1279.00,0.0094
1278.00,0.0093
1277.00,0.0092
1276.00,0.0092
1275.00,0.0091
1274.00,0.0091
1273.00,0.0091
1272.00,0.0092
1271.00,0.0093
1270.00,0.0094
1269.00,0.0095
1268.00,0.0096
1267.00,0.0097
1266.00,0.0099
1265.00,0.0101
1264.00,0.0103
1263.00,0.0106
1262.00,0.0108
1261.00,0.0112
1260.00,0.0116
1259.00,0.0121
1258.00,0.0127
1257.00,0.0131
1256.00,0.0132
1255.00,0.0131
1254.00,0.0127
1253.00,0.0121
1252.00,0.0116
1251.00,0.0112
1250.00,0.0109
1249.00,0.0106
1248.00,0.0104
1247.00,0.0103
1246.00,0.0102
1245.00,0.0102
1244.00,0.0101
1243.00,0.0101
1242.00,0.0100
1241.00,0.0099
1240.00,0.0098
1239.00,0.0097
1238.00,0.0097
1237.00,0.0096
1236.00,0.0095
1235.00,0.0095
1234.00,0.0095
1233.00,0.0094
1232.00,0.0094
1231.00,0.0094
1230.00,0.0094
1229.00,0.0094
1228.00,0.0094
1227.00,0.0095
1226.00,0.0097
1225.00,0.0099
1224.00,0.0101
1223.00,0.0103
1222.00,0.0105
1221.00,0.0106
1220.00,0.0107
1219.00,0.0107
1218.00,0.0106
1217.00,0.0105
1216.00,0.0104
1215.00,0.0102
1214.00,0.0100
1213.00,0.0098
1212.00,0.0095
1211.00,0.0093
1210.00,0.0091
1209.00,0.0090
1208.00,0.0089
1207.00,0.0088
1206.00,0.0087
1205.00,0.0086
1204.00,0.0085
1203.00,0.0085
1202.00,0.0085
1201.00,0.0085
1200.00,0.0085
1199.00,0.0085
1198.00,0.0084
1197.00,0.0084
1196.00,0.0083
1195.00,0.0083
1194.00,0.0083
1193.00,0.0084
1192.00,0.0084
1191.00,0.0085
1190.00,0.0086
1189.00,0.0086
1188.00,0.0086
1187.00,0.0086
1186.00,0.0086
1185.00,0.0087
1184.00,0.0088
1183.00,0.0088
1182.00,0.0090
1181.00,0.0092
1180.00,0.0095
1179.00,0.0100
1178.00,0.0105
1177.00,0.0113
1176.00,0.0122
1175.00,0.0134
1174.00,0.0150
1173.00,0.0169
1172.00,0.0191
1171.00,0.0215
1170.00,0.0237
1169.00,0.0255
1168.00,0.0266
1167.00,0.0269
1166.00,0.0265
1165.00,0.0256
1164.00,0.0245
1163.00,0.0234
1162.00,0.0225
1161.00,0.0217
1160.00,0.0210
1159.00,0.0205
1158.00,0.0201
1157.00,0.0198
1156.00,0.0195
1155.00,0.0193
1154.00,0.0192
1153.00,0.0191
1152.00,0.0189
1151.00,0.0184
1150.00,0.0178
1149.00,0.0172
1148.00,0.0165
1147.00,0.0159
1146.00,0.0153
1145.00,0.0148
1144.00,0.0142
1143.00,0.0136
1142.00,0.0131
1141.00,0.0126
1140.00,0.0123
1139.00,0.0120
1138.00,0.0117
1137.00,0.0115
1136.00,0.0113
1135.00,0.0112
1134.00,0.0112
1133.00,0.0111
1132.00,0.0111
1131.00,0.0111
1130.00,0.0111
1129.00,0.0111
1128.00,0.0112
1127.00,0.0114
1126.00,0.0116
1125.00,0.0117
1124.00,0.0118
1123.00,0.0119
1122.00,0.0121
1121.00,0.0122
1120.00,0.0123
1119.00,0.0125
1118.00,0.0126
1117.00,0.0127
1116.00,0.0128
1115.00,0.0129
1114.00,0.0131
1113.00,0.0132
1112.00,0.0133
1111.00,0.0135
1110.00,0.0137
1109.00,0.0140
1108.00,0.0144
1107.00,0.0149
1106.00,0.0153
1105.00,0.0157
1104.00,0.0160
1103.00,0.0162
1102.00,0.0163
1101.00,0.0161
1100.00,0.0158
1099.00,0.0153
1098.00,0.0148
1097.00,0.0143
1096.00,0.0139
1095.00,0.0136
1094.00,0.0134
1093.00,0.0132
1092.00,0.0130
1091.00,0.0128
1090.00,0.0126
1089.00,0.0125
1088.00,0.0124
1087.00,0.0124
1086.00,0.0123
1085.00,0.0122
1084.00,0.0121
1083.00,0.0121
1082.00,0.0121
1081.00,0.0120
1080.00,0.0119
1079.00,0.0118
1078.00,0.0117
1077.00,0.0116
1076.00,0.0114
1075.00,0.0114
1074.00,0.0113
1073.00,0.0113
1072.00,0.0113
1071.00,0.0113
1070.00,0.0113
1069.00,0.0113
1068.00,0.0113
1067.00,0.0113
1066.00,0.0113
1065.00,0.0113
1064.00,0.0114
1063.00,0.0114
1062.00,0.0115
1061.00,0.0115
1060.00,0.0115
1059.00,0.0114
1058.00,0.0114
1057.00,0.0114
1056.00,0.0114
1055.00,0.0114
1054.00,0.0114
1053.00,0.0114
1052.00,0.0114
1051.00,0.0115
1050.00,0.0117
1049.00,0.0119
1048.00,0.0122
1047.00,0.0124
1046.00,0.0126
1045.00,0.0126
1044.00,0.0126
1043.00,0.0124
1042.00,0.0123
1041.00,0.0120
1040.00,0.0119
1039.00,0.0118
1038.00,0.0119
1037.00,0.0119
1036.00,0.0119
1035.00,0.0119
1034.00,0.0119
1033.00,0.0119
1032.00,0.0118
1031.00,0.0117
1030.00,0.0117
1029.00,0.0116
1028.00,0.0116
1027.00,0.0115
1026.00,0.0114
1025.00,0.0113
1024.00,0.0113
1023.00,0.0113
1022.00,0.0113
1021.00,0.0114
1020.00,0.0115
1019.00,0.0116
1018.00,0.0117
1017.00,0.0118
1016.00,0.0118
1015.00,0.0119
1014.00,0.0120
1013.00,0.0121
1012.00,0.0122
1011.00,0.0124
1010.00,0.0127
1009.00,0.0129
1008.00,0.0132
1007.00,0.0136
1006.00,0.0142
1005.00,0.0151
1004.00,0.0163
1003.00,0.0179
1002.00,0.0200
1001.00,0.0225
1000.00,0.0250
999.00,0.0271
998.00,0.0280
997.00,0.0274
996.00,0.0254
995.00,0.0226
994.00,0.0197
993.00,0.0173
992.00,0.0154
991.00,0.0140
990.00,0.0130
989.00,0.0123
988.00,0.0118
987.00,0.0115
986.00,0.0114
985.00,0.0116
984.00,0.0120
983.00,0.0127
982.00,0.0136
981.00,0.0148
980.00,0.0165
979.00,0.0187
978.00,0.0214
977.00,0.0245
976.00,0.0278
975.00,0.0308
974.00,0.0330
973.00,0.0335
972.00,0.0323
971.00,0.0296
970.00,0.0261
969.00,0.0225
968.00,0.0193
967.00,0.0169
966.00,0.0152
965.00,0.0139
964.00,0.0130
963.00,0.0123
962.00,0.0117
961.00,0.0112
960.00,0.0107
959.00,0.0104
958.00,0.0100
957.00,0.0098
956.00,0.0097
955.00,0.0095
954.00,0.0093
953.00,0.0092
952.00,0.0092
951.00,0.0092
950.00,0.0093
949.00,0.0094
948.00,0.0094
947.00,0.0094
946.00,0.0095
945.00,0.0097
944.00,0.0098
943.00,0.0100
942.00,0.0101
941.00,0.0101
940.00,0.0100
939.00,0.0097
938.00,0.0094
937.00,0.0091
936.00,0.0088
935.00,0.0086
934.00,0.0085
933.00,0.0083
932.00,0.0082
931.00,0.0081
930.00,0.0080
929.00,0.0079
928.00,0.0078
927.00,0.0077
926.00,0.0077
925.00,0.0076
924.00,0.0076
923.00,0.0075
922.00,0.0076
921.00,0.0077
920.00,0.0077
919.00,0.0079
918.00,0.0080
917.00,0.0082
916.00,0.0083
915.00,0.0084
914.00,0.0085
913.00,0.0086
912.00,0.0087
911.00,0.0087
910.00,0.0087
909.00,0.0087
908.00,0.0089
907.00,0.0092
906.00,0.0098
905.00,0.0106
904.00,0.0118
903.00,0.0133
902.00,0.0148
901.00,0.0162
900.00,0.0172
899.00,0.0175
898.00,0.0170
897.00,0.0159
896.00,0.0145
895.00,0.0130
894.00,0.0117
893.00,0.0106
892.00,0.0099
891.00,0.0094
890.00,0.0091
889.00,0.0089
888.00,0.0088
887.00,0.0088
886.00,0.0089
885.00,0.0090
884.00,0.0091
883.00,0.0093
882.00,0.0096
881.00,0.0101
880.00,0.0106
879.00,0.0113
878.00,0.0120
877.00,0.0128
876.00,0.0136
875.00,0.0140
874.00,0.0140
873.00,0.0136
872.00,0.0129
871.00,0.0119
870.00,0.0109
869.00,0.0101
868.00,0.0095
867.00,0.0092
866.00,0.0090
865.00,0.0089
864.00,0.0090
863.00,0.0091
862.00,0.0093
861.00,0.0094
860.00,0.0094
859.00,0.0094
858.00,0.0094
857.00,0.0094
856.00,0.0095
855.00,0.0096
854.00,0.0098
853.00,0.0099
852.00,0.0101
851.00,0.0105
850.00,0.0110
849.00,0.0116
848.00,0.0124
847.00,0.0136
846.00,0.0152
845.00,0.0175
844.00,0.0205
843.00,0.0236
842.00,0.0257
841.00,0.0260
840.00,0.0242
839.00,0.0212
838.00,0.0181
837.00,0.0158
836.00,0.0142
835.00,0.0133
834.00,0.0128
833.00,0.0125
832.00,0.0121
831.00,0.0119
830.00,0.0117
829.00,0.0116
828.00,0.0115
827.00,0.0114
826.00,0.0114
825.00,0.0113
824.00,0.0113
823.00,0.0113
822.00,0.0114
821.00,0.0115
820.00,0.0117
819.00,0.0119
818.00,0.0121
817.00,0.0125
816.00,0.0130
815.00,0.0137
814.00,0.0148
813.00,0.0161
812.00,0.0174
811.00,0.0186
810.00,0.0192
809.00,0.0194
808.00,0.0191
807.00,0.0184
806.00,0.0175
805.00,0.0166
804.00,0.0157
803.00,0.0148
802.00,0.0140
801.00,0.0133
800.00,0.0127
799.00,0.0121
798.00,0.0115
797.00,0.0111
796.00,0.0107
795.00,0.0105
794.00,0.0103
793.00,0.0102
792.00,0.0101
791.00,0.0100
790.00,0.0099
789.00,0.0097
788.00,0.0095
787.00,0.0092
786.00,0.0089
785.00,0.0087
784.00,0.0084
783.00,0.0083
782.00,0.0083
781.00,0.0083
780.00,0.0083
779.00,0.0083
778.00,0.0082
777.00,0.0081
776.00,0.0081
775.00,0.0083
774.00,0.0085
773.00,0.0088
772.00,0.0090
771.00,0.0092
770.00,0.0093
769.00,0.0092
768.00,0.0091
767.00,0.0090
766.00,0.0089
765.00,0.0088
764.00,0.0088
763.00,0.0087
762.00,0.0085
761.00,0.0082
760.00,0.0080
759.00,0.0079
758.00,0.0079
757.00,0.0079
756.00,0.0079
755.00,0.0079
754.00,0.0078
753.00,0.0076
752.00,0.0074
751.00,0.0073
750.00,0.0073
749.00,0.0074
748.00,0.0074
747.00,0.0074
746.00,0.0075
745.00,0.0077
744.00,0.0079
743.00,0.0081
742.00,0.0081
741.00,0.0081
740.00,0.0081
739.00,0.0082
738.00,0.0085
737.00,0.0087
736.00,0.0090
735.00,0.0091
734.00,0.0092
733.00,0.0092
732.00,0.0092
731.00,0.0092
730.00,0.0092
729.00,0.0091
728.00,0.0090
727.00,0.0090
726.00,0.0091
725.00,0.0092
724.00,0.0092
723.00,0.0092
722.00,0.0092
721.00,0.0091
720.00,0.0091
719.00,0.0091
718.00,0.0091
717.00,0.0091
716.00,0.0092
715.00,0.0093
714.00,0.0095
713.00,0.0095
712.00,0.0095
711.00,0.0093
710.00,0.0090
709.00,0.0089
708.00,0.0089
707.00,0.0090
706.00,0.0090
705.00,0.0090
704.00,0.0088
703.00,0.0086
702.00,0.0083
701.00,0.0080
700.00,0.0079
699.00,0.0078
698.00,0.0078
697.00,0.0078
696.00,0.0078
695.00,0.0077
694.00,0.0077
693.00,0.0077
692.00,0.0077
691.00,0.0076
690.00,0.0076
689.00,0.0076
688.00,0.0077
687.00,0.0077
686.00,0.0077
685.00,0.0077
684.00,0.0076
683.00,0.0075
682.00,0.0075
681.00,0.0075
680.00,0.0076
679.00,0.0077
678.00,0.0078
677.00,0.0078
676.00,0.0079
675.00,0.0079
674.00,0.0078
673.00,0.0078
672.00,0.0078
671.00,0.0080
670.00,0.0083
669.00,0.0085
668.00,0.0085
667.00,0.0083
666.00,0.0080
665.00,0.0078
664.00,0.0077
663.00,0.0076
662.00,0.0077
661.00,0.0078
660.00,0.0079
659.00,0.0081
658.00,0.0081
657.00,0.0079
656.00,0.0077
655.00,0.0076
654.00,0.0078
653.00,0.0082
652.00,0.0084
651.00,0.0085
650.00,0.0083
649.00,0.0082
648.00,0.0083
647.00,0.0086
646.00,0.0088
645.00,0.0088
644.00,0.0085
643.00,0.0083
642.00,0.0081
641.00,0.0079
640.00,0.0078
639.00,0.0079
638.00,0.0081
637.00,0.0082
636.00,0.0081
635.00,0.0081
634.00,0.0080
633.00,0.0080
632.00,0.0079
631.00,0.0078
630.00,0.0079
629.00,0.0081
628.00,0.0083
627.00,0.0085
626.00,0.0088
625.00,0.0089
624.00,0.0090
623.00,0.0088
622.00,0.0086
621.00,0.0085
620.00,0.0085
619.00,0.0084
618.00,0.0084
617.00,0.0084
616.00,0.0086
615.00,0.0088
614.00,0.0089
613.00,0.0087
612.00,0.0085
611.00,0.0084
610.00,0.0084
609.00,0.0084
608.00,0.0083
607.00,0.0082
606.00,0.0082
605.00,0.0081
604.00,0.0081
603.00,0.0083
602.00,0.0084
601.00,0.0084
600.00,0.0083
599.00,0.0082
598.00,0.0082
597.00,0.0083
596.00,0.0085
595.00,0.0086
594.00,0.0087
593.00,0.0087
592.00,0.0086
591.00,0.0085
590.00,0.0085
589.00,0.0084
588.00,0.0082
587.00,0.0081
586.00,0.0081
585.00,0.0082
584.00,0.0084
583.00,0.0087
582.00,0.0090
581.00,0.0093
580.00,0.0094
579.00,0.0094
578.00,0.0093
577.00,0.0092
576.00,0.0091
575.00,0.0090
574.00,0.0089
573.00,0.0087
572.00,0.0085
571.00,0.0083
570.00,0.0082
569.00,0.0083
568.00,0.0086
567.00,0.0088
566.00,0.0088
565.00,0.0088
564.00,0.0087
563.00,0.0087
562.00,0.0086
561.00,0.0083
560.00,0.0079
559.00,0.0077
558.00,0.0078
557.00,0.0082
556.00,0.0085
555.00,0.0087
554.00,0.0087
553.00,0.0087
552.00,0.0089
551.00,0.0091
550.00,0.0092
549.00,0.0089
548.00,0.0085
547.00,0.0081
546.00,0.0080
545.00,0.0081
544.00,0.0084
543.00,0.0087
542.00,0.0091
541.00,0.0095
540.00,0.0097
539.00,0.0096
538.00,0.0095
537.00,0.0095
536.00,0.0095
535.00,0.0095
534.00,0.0097
533.00,0.0100
532.00,0.0106
531.00,0.0110
530.00,0.0110
529.00,0.0105
528.00,0.0099
527.00,0.0096
526.00,0.0097
525.00,0.0100
524.00,0.0101
523.00,0.0100
522.00,0.0100
521.00,0.0100
520.00,0.0100
519.00,0.0099
518.00,0.0095
517.00,0.0090
516.00,0.0086
515.00,0.0084
514.00,0.0081
513.00,0.0078
512.00,0.0076
511.00,0.0076
510.00,0.0077
509.00,0.0081
508.00,0.0087
507.00,0.0095
506.00,0.0100
505.00,0.0102
504.00,0.0102
503.00,0.0103
502.00,0.0105
501.00,0.0105
500.00,0.0101
499.00,0.0099
498.00,0.0097
497.00,0.0095
496.00,0.0092
495.00,0.0091
494.00,0.0094
493.00,0.0096
492.00,0.0094
491.00,0.0091
490.00,0.0092
489.00,0.0096
488.00,0.0097
487.00,0.0091
486.00,0.0083
485.00,0.0076
484.00,0.0073
483.00,0.0071
482.00,0.0072
481.00,0.0078
480.00,0.0085
479.00,0.0091
478.00,0.0091
477.00,0.0088
476.00,0.0083
475.00,0.0081
474.00,0.0081
473.00,0.0086
472.00,0.0093
471.00,0.0099
470.00,0.0100
469.00,0.0097
468.00,0.0095
467.00,0.0096
466.00,0.0102
465.00,0.0109
464.00,0.0116
463.00,0.0122
462.00,0.0129
461.00,0.0138
460.00,0.0146
459.00,0.0151
458.00,0.0155
457.00,0.0158
456.00,0.0161
455.00,0.0160
454.00,0.0156
453.00,0.0147
452.00,0.0138
451.00,0.0131
450.00,0.0126
