Created as New Dataset,Sample 163 By Administrator Date Tuesday, September 09 2025
cm-1,A
4000.00,0.0011
3999.00,0.0011
3998.00,0.0011
3997.00,0.0011
3996.00,0.0011
3995.00,0.0010
3994.00,0.0010
3993.00,0.0010
3992.00,0.0009
3991.00,0.0009
3990.00,0.0009
3989.00,0.0010
3988.00,0.0010
3987.00,0.0010
3986.00,0.0009
3985.00,0.0009
3984.00,0.0009
3983.00,0.0009
3982.00,0.0009
3981.00,0.0009
3980.00,0.0008
3979.00,0.0008
3978.00,0.0008
3977.00,0.0008
3976.00,0.0008
3975.00,0.0008
3974.00,0.0008
3973.00,0.0008
3972.00,0.0008
3971.00,0.0009
3970.00,0.0009
3969.00,0.0009
3968.00,0.0009
3967.00,0.0009
3966.00,0.0009
3965.00,0.0009
3964.00,0.0009
3963.00,0.0009
3962.00,0.0009
3961.00,0.0009
3960.00,0.0009
3959.00,0.0009
3958.00,0.0009
3957.00,0.0009
3956.00,0.0009
3955.00,0.0009
3954.00,0.0009
3953.00,0.0009
3952.00,0.0008
3951.00,0.0008
3950.00,0.0008
3949.00,0.0008
3948.00,0.0007
3947.00,0.0007
3946.00,0.0007
3945.00,0.0007
3944.00,0.0007
3943.00,0.0007
3942.00,0.0007
3941.00,0.0008
3940.00,0.0008
3939.00,0.0008
3938.00,0.0008
3937.00,0.0008
3936.00,0.0008
3935.00,0.0007
3934.00,0.0007
3933.00,0.0008
3932.00,0.0008
3931.00,0.0008
3930.00,0.0008
3929.00,0.0008
3928.00,0.0008
3927.00,0.0008
3926.00,0.0008
3925.00,0.0009
3924.00,0.0009
3923.00,0.0009
3922.00,0.0009
3921.00,0.0009
3920.00,0.0008
3919.00,0.0008
3918.00,0.0008
3917.00,0.0008
3916.00,0.0008
3915.00,0.0008
3914.00,0.0008
3913.00,0.0008
3912.00,0.0008
3911.00,0.0008
3910.00,0.0008
3909.00,0.0008
3908.00,0.0008
3907.00,0.0008
3906.00,0.0008
3905.00,0.0008
3904.00,0.0008
3903.00,0.0008
3902.00,0.0008
3901.00,0.0008
3900.00,0.0008
3899.00,0.0008
3898.00,0.0008
3897.00,0.0008
3896.00,0.0008
3895.00,0.0008
3894.00,0.0008
3893.00,0.0008
3892.00,0.0008
3891.00,0.0008
3890.00,0.0008
3889.00,0.0008
3888.00,0.0008
3887.00,0.0008
3886.00,0.0008
3885.00,0.0008
3884.00,0.0008
3883.00,0.0008
3882.00,0.0008
3881.00,0.0009
3880.00,0.0009
3879.00,0.0008
3878.00,0.0008
3877.00,0.0008
3876.00,0.0008
3875.00,0.0008
3874.00,0.0008
3873.00,0.0008
3872.00,0.0008
3871.00,0.0008
3870.00,0.0008
3869.00,0.0007
3868.00,0.0007
3867.00,0.0007
3866.00,0.0007
3865.00,0.0008
3864.00,0.0008
3863.00,0.0008
3862.00,0.0008
3861.00,0.0008
3860.00,0.0008
3859.00,0.0007
3858.00,0.0007
3857.00,0.0006
3856.00,0.0006
3855.00,0.0006
3854.00,0.0006
3853.00,0.0005
3852.00,0.0005
3851.00,0.0005
3850.00,0.0006
3849.00,0.0006
3848.00,0.0007
3847.00,0.0007
3846.00,0.0007
3845.00,0.0007
3844.00,0.0007
3843.00,0.0007
3842.00,0.0007
3841.00,0.0007
3840.00,0.0007
3839.00,0.0007
3838.00,0.0007
3837.00,0.0007
3836.00,0.0007
3835.00,0.0007
3834.00,0.0007
3833.00,0.0007
3832.00,0.0007
3831.00,0.0006
3830.00,0.0006
3829.00,0.0007
3828.00,0.0007
3827.00,0.0008
3826.00,0.0008
3825.00,0.0008
3824.00,0.0008
3823.00,0.0008
3822.00,0.0008
3821.00,0.0007
3820.00,0.0007
3819.00,0.0007
3818.00,0.0007
3817.00,0.0007
3816.00,0.0008
3815.00,0.0008
3814.00,0.0007
3813.00,0.0007
3812.00,0.0007
3811.00,0.0007
3810.00,0.0008
3809.00,0.0008
3808.00,0.0008
3807.00,0.0008
3806.00,0.0008
3805.00,0.0007
3804.00,0.0007
3803.00,0.0007
3802.00,0.0008
3801.00,0.0008
3800.00,0.0008
3799.00,0.0008
3798.00,0.0008
3797.00,0.0008
3796.00,0.0008
3795.00,0.0008
3794.00,0.0007
3793.00,0.0007
3792.00,0.0007
3791.00,0.0008
3790.00,0.0008
3789.00,0.0008
3788.00,0.0008
3787.00,0.0008
3786.00,0.0008
3785.00,0.0008
3784.00,0.0008
3783.00,0.0008
3782.00,0.0009
3781.00,0.0009
3780.00,0.0009
3779.00,0.0009
3778.00,0.0009
3777.00,0.0009
3776.00,0.0008
3775.00,0.0009
3774.00,0.0009
3773.00,0.0009
3772.00,0.0009
3771.00,0.0009
3770.00,0.0009
3769.00,0.0008
3768.00,0.0009
3767.00,0.0009
3766.00,0.0009
3765.00,0.0009
3764.00,0.0009
3763.00,0.0009
3762.00,0.0009
3761.00,0.0009
3760.00,0.0010
3759.00,0.0010
3758.00,0.0010
3757.00,0.0010
3756.00,0.0009
3755.00,0.0009
3754.00,0.0008
3753.00,0.0008
3752.00,0.0008
3751.00,0.0008
3750.00,0.0007
3749.00,0.0007
3748.00,0.0007
3747.00,0.0007
3746.00,0.0007
3745.00,0.0007
3744.00,0.0007
3743.00,0.0007
3742.00,0.0007
3741.00,0.0007
3740.00,0.0007
3739.00,0.0007
3738.00,0.0007
3737.00,0.0007
3736.00,0.0007
3735.00,0.0007
3734.00,0.0007
3733.00,0.0007
3732.00,0.0006
3731.00,0.0006
3730.00,0.0006
3729.00,0.0006
3728.00,0.0006
3727.00,0.0007
3726.00,0.0007
3725.00,0.0007
3724.00,0.0007
3723.00,0.0007
3722.00,0.0007
3721.00,0.0007
3720.00,0.0007
3719.00,0.0008
3718.00,0.0008
3717.00,0.0008
3716.00,0.0008
3715.00,0.0008
3714.00,0.0007
3713.00,0.0007
3712.00,0.0006
3711.00,0.0006
3710.00,0.0005
3709.00,0.0005
3708.00,0.0005
3707.00,0.0006
3706.00,0.0006
3705.00,0.0006
3704.00,0.0006
3703.00,0.0006
3702.00,0.0007
3701.00,0.0007
3700.00,0.0007
3699.00,0.0007
3698.00,0.0007
3697.00,0.0007
3696.00,0.0007
3695.00,0.0007
3694.00,0.0007
3693.00,0.0007
3692.00,0.0007
3691.00,0.0007
3690.00,0.0007
3689.00,0.0007
3688.00,0.0007
3687.00,0.0006
3686.00,0.0006
3685.00,0.0007
3684.00,0.0007
3683.00,0.0008
3682.00,0.0008
3681.00,0.0008
3680.00,0.0008
3679.00,0.0008
3678.00,0.0008
3677.00,0.0008
3676.00,0.0008
3675.00,0.0008
3674.00,0.0007
3673.00,0.0007
3672.00,0.0007
3671.00,0.0007
3670.00,0.0008
3669.00,0.0008
3668.00,0.0008
3667.00,0.0008
3666.00,0.0009
3665.00,0.0009
3664.00,0.0010
3663.00,0.0010
3662.00,0.0010
3661.00,0.0010
3660.00,0.0009
3659.00,0.0009
3658.00,0.0009
3657.00,0.0009
3656.00,0.0008
3655.00,0.0008
3654.00,0.0008
3653.00,0.0008
3652.00,0.0009
3651.00,0.0010
3650.00,0.0011
3649.00,0.0011
3648.00,0.0010
3647.00,0.0009
3646.00,0.0009
3645.00,0.0009
3644.00,0.0010
3643.00,0.0010
3642.00,0.0011
3641.00,0.0011
3640.00,0.0011
3639.00,0.0011
3638.00,0.0011
3637.00,0.0012
3636.00,0.0012
3635.00,0.0013
3634.00,0.0013
3633.00,0.0012
3632.00,0.0011
3631.00,0.0011
3630.00,0.0011
3629.00,0.0011
3628.00,0.0011
3627.00,0.0011
3626.00,0.0012
3625.00,0.0012
3624.00,0.0012
3623.00,0.0012
3622.00,0.0012
3621.00,0.0012
3620.00,0.0012
3619.00,0.0013
3618.00,0.0013
3617.00,0.0014
3616.00,0.0014
3615.00,0.0014
3614.00,0.0015
3613.00,0.0014
3612.00,0.0014
3611.00,0.0014
3610.00,0.0014
3609.00,0.0015
3608.00,0.0015
3607.00,0.0016
3606.00,0.0016
3605.00,0.0016
3604.00,0.0016
3603.00,0.0017
3602.00,0.0017
3601.00,0.0017
3600.00,0.0017
3599.00,0.0017
3598.00,0.0018
3597.00,0.0019
3596.00,0.0019
3595.00,0.0019
3594.00,0.0019
3593.00,0.0019
3592.00,0.0019
3591.00,0.0020
3590.00,0.0020
3589.00,0.0021
3588.00,0.0021
3587.00,0.0021
3586.00,0.0021
3585.00,0.0022
3584.00,0.0022
3583.00,0.0023
3582.00,0.0023
3581.00,0.0023
3580.00,0.0023
3579.00,0.0024
3578.00,0.0024
3577.00,0.0024
3576.00,0.0025
3575.00,0.0025
3574.00,0.0025
3573.00,0.0026
3572.00,0.0026
3571.00,0.0026
3570.00,0.0027
3569.00,0.0028
3568.00,0.0028
3567.00,0.0029
3566.00,0.0029
3565.00,0.0029
3564.00,0.0030
3563.00,0.0030
3562.00,0.0031
3561.00,0.0032
3560.00,0.0032
3559.00,0.0032
3558.00,0.0032
3557.00,0.0032
3556.00,0.0032
3555.00,0.0032
3554.00,0.0033
3553.00,0.0034
3552.00,0.0035
3551.00,0.0035
3550.00,0.0036
3549.00,0.0036
3548.00,0.0037
3547.00,0.0037
3546.00,0.0037
3545.00,0.0037
3544.00,0.0037
3543.00,0.0038
3542.00,0.0038
3541.00,0.0039
3540.00,0.0040
3539.00,0.0041
3538.00,0.0041
3537.00,0.0042
3536.00,0.0042
3535.00,0.0042
3534.00,0.0042
3533.00,0.0043
3532.00,0.0043
3531.00,0.0044
3530.00,0.0044
3529.00,0.0044
3528.00,0.0045
3527.00,0.0045
3526.00,0.0046
3525.00,0.0047
3524.00,0.0047
3523.00,0.0047
3522.00,0.0048
3521.00,0.0048
3520.00,0.0048
3519.00,0.0049
3518.00,0.0050
3517.00,0.0050
3516.00,0.0051
3515.00,0.0052
3514.00,0.0052
3513.00,0.0053
3512.00,0.0054
3511.00,0.0055
3510.00,0.0055
3509.00,0.0056
3508.00,0.0056
3507.00,0.0056
3506.00,0.0057
3505.00,0.0057
3504.00,0.0058
3503.00,0.0058
3502.00,0.0058
3501.00,0.0058
3500.00,0.0058
3499.00,0.0058
3498.00,0.0058
3497.00,0.0059
3496.00,0.0060
3495.00,0.0061
3494.00,0.0061
3493.00,0.0062
3492.00,0.0062
3491.00,0.0062
3490.00,0.0062
3489.00,0.0063
3488.00,0.0063
3487.00,0.0063
3486.00,0.0064
3485.00,0.0064
3484.00,0.0064
3483.00,0.0064
3482.00,0.0065
3481.00,0.0065
3480.00,0.0066
3479.00,0.0067
3478.00,0.0068
3477.00,0.0068
3476.00,0.0069
3475.00,0.0069
3474.00,0.0069
3473.00,0.0070
3472.00,0.0071
3471.00,0.0071
3470.00,0.0071
3469.00,0.0072
3468.00,0.0072
3467.00,0.0072
3466.00,0.0073
3465.00,0.0073
3464.00,0.0074
3463.00,0.0074
3462.00,0.0074
3461.00,0.0075
3460.00,0.0075
3459.00,0.0075
3458.00,0.0076
3457.00,0.0076
3456.00,0.0077
3455.00,0.0078
3454.00,0.0078
3453.00,0.0079
3452.00,0.0079
3451.00,0.0080
3450.00,0.0080
3449.00,0.0081
3448.00,0.0081
3447.00,0.0082
3446.00,0.0082
3445.00,0.0083
3444.00,0.0083
3443.00,0.0083
3442.00,0.0084
3441.00,0.0085
3440.00,0.0086
3439.00,0.0086
3438.00,0.0087
3437.00,0.0088
3436.00,0.0088
3435.00,0.0088
3434.00,0.0088
3433.00,0.0089
3432.00,0.0089
3431.00,0.0090
3430.00,0.0091
3429.00,0.0091
3428.00,0.0092
3427.00,0.0093
3426.00,0.0094
3425.00,0.0095
3424.00,0.0095
3423.00,0.0096
3422.00,0.0096
3421.00,0.0096
3420.00,0.0097
3419.00,0.0097
3418.00,0.0098
3417.00,0.0099
3416.00,0.0099
3415.00,0.0100
3414.00,0.0100
3413.00,0.0101
3412.00,0.0101
3411.00,0.0102
3410.00,0.0102
3409.00,0.0102
3408.00,0.0102
3407.00,0.0102
3406.00,0.0103
3405.00,0.0103
3404.00,0.0104
3403.00,0.0104
3402.00,0.0105
3401.00,0.0106
3400.00,0.0107
3399.00,0.0108
3398.00,0.0108
3397.00,0.0108
3396.00,0.0108
3395.00,0.0108
3394.00,0.0108
3393.00,0.0108
3392.00,0.0108
3391.00,0.0108
3390.00,0.0108
3389.00,0.0108
3388.00,0.0108
3387.00,0.0108
3386.00,0.0109
3385.00,0.0109
3384.00,0.0109
3383.00,0.0109
3382.00,0.0109
3381.00,0.0109
3380.00,0.0109
3379.00,0.0109
3378.00,0.0110
3377.00,0.0110
3376.00,0.0110
3375.00,0.0110
3374.00,0.0111
3373.00,0.0111
3372.00,0.0111
3371.00,0.0111
3370.00,0.0111
3369.00,0.0111
3368.00,0.0111
3367.00,0.0111
3366.00,0.0111
3365.00,0.0112
3364.00,0.0112
3363.00,0.0112
3362.00,0.0113
3361.00,0.0113
3360.00,0.0114
3359.00,0.0114
3358.00,0.0114
3357.00,0.0114
3356.00,0.0115
3355.00,0.0115
3354.00,0.0115
3353.00,0.0115
3352.00,0.0115
3351.00,0.0115
3350.00,0.0115
3349.00,0.0115
3348.00,0.0115
3347.00,0.0116
3346.00,0.0116
3345.00,0.0117
3344.00,0.0117
3343.00,0.0118
3342.00,0.0118
3341.00,0.0119
3340.00,0.0119
3339.00,0.0119
3338.00,0.0120
3337.00,0.0120
3336.00,0.0120
3335.00,0.0121
3334.00,0.0121
3333.00,0.0121
3332.00,0.0122
3331.00,0.0122
3330.00,0.0123
3329.00,0.0123
3328.00,0.0123
3327.00,0.0124
3326.00,0.0125
3325.00,0.0125
3324.00,0.0126
3323.00,0.0126
3322.00,0.0127
3321.00,0.0127
3320.00,0.0128
3319.00,0.0128
3318.00,0.0129
3317.00,0.0129
3316.00,0.0129
3315.00,0.0129
3314.00,0.0130
3313.00,0.0130
3312.00,0.0130
3311.00,0.0129
3310.00,0.0129
3309.00,0.0129
3308.00,0.0128
3307.00,0.0128
3306.00,0.0128
3305.00,0.0128
3304.00,0.0128
3303.00,0.0128
3302.00,0.0127
3301.00,0.0127
3300.00,0.0127
3299.00,0.0127
3298.00,0.0126
3297.00,0.0126
3296.00,0.0125
3295.00,0.0125
3294.00,0.0124
3293.00,0.0124
3292.00,0.0123
3291.00,0.0122
3290.00,0.0122
3289.00,0.0121
3288.00,0.0120
3287.00,0.0120
3286.00,0.0120
3285.00,0.0120
3284.00,0.0119
3283.00,0.0119
3282.00,0.0119
3281.00,0.0119
3280.00,0.0118
3279.00,0.0118
3278.00,0.0118
3277.00,0.0117
3276.00,0.0116
3275.00,0.0116
3274.00,0.0115
3273.00,0.0114
3272.00,0.0114
3271.00,0.0114
3270.00,0.0113
3269.00,0.0112
3268.00,0.0112
3267.00,0.0111
3266.00,0.0110
3265.00,0.0110
3264.00,0.0110
3263.00,0.0109
3262.00,0.0109
3261.00,0.0109
3260.00,0.0108
3259.00,0.0108
3258.00,0.0108
3257.00,0.0107
3256.00,0.0107
3255.00,0.0106
3254.00,0.0106
3253.00,0.0105
3252.00,0.0105
3251.00,0.0104
3250.00,0.0104
3249.00,0.0103
3248.00,0.0103
3247.00,0.0103
3246.00,0.0103
3245.00,0.0102
3244.00,0.0102
3243.00,0.0101
3242.00,0.0101
3241.00,0.0100
3240.00,0.0100
3239.00,0.0100
3238.00,0.0100
3237.00,0.0100
3236.00,0.0100
3235.00,0.0100
3234.00,0.0100
3233.00,0.0100
3232.00,0.0100
3231.00,0.0100
3230.00,0.0100
3229.00,0.0100
3228.00,0.0101
3227.00,0.0101
3226.00,0.0102
3225.00,0.0102
3224.00,0.0103
3223.00,0.0103
3222.00,0.0103
3221.00,0.0103
3220.00,0.0103
3219.00,0.0104
3218.00,0.0104
3217.00,0.0104
3216.00,0.0105
3215.00,0.0106
3214.00,0.0106
3213.00,0.0107
3212.00,0.0107
3211.00,0.0108
3210.00,0.0108
3209.00,0.0109
3208.00,0.0110
3207.00,0.0111
3206.00,0.0111
3205.00,0.0111
3204.00,0.0110
3203.00,0.0110
3202.00,0.0110
3201.00,0.0109
3200.00,0.0110
3199.00,0.0110
3198.00,0.0110
3197.00,0.0110
3196.00,0.0110
3195.00,0.0109
3194.00,0.0109
3193.00,0.0108
3192.00,0.0108
3191.00,0.0107
3190.00,0.0107
3189.00,0.0106
3188.00,0.0106
3187.00,0.0105
3186.00,0.0104
3185.00,0.0104
3184.00,0.0103
3183.00,0.0103
3182.00,0.0102
3181.00,0.0101
3180.00,0.0100
3179.00,0.0099
3178.00,0.0099
3177.00,0.0098
3176.00,0.0098
3175.00,0.0097
3174.00,0.0097
3173.00,0.0096
3172.00,0.0095
3171.00,0.0094
3170.00,0.0093
3169.00,0.0093
3168.00,0.0092
3167.00,0.0091
3166.00,0.0091
3165.00,0.0090
3164.00,0.0090
3163.00,0.0089
3162.00,0.0089
3161.00,0.0089
3160.00,0.0089
3159.00,0.0089
3158.00,0.0089
3157.00,0.0088
3156.00,0.0088
3155.00,0.0087
3154.00,0.0087
3153.00,0.0086
3152.00,0.0086
3151.00,0.0086
3150.00,0.0085
3149.00,0.0085
3148.00,0.0085
3147.00,0.0085
3146.00,0.0084
3145.00,0.0084
3144.00,0.0084
3143.00,0.0084
3142.00,0.0083
3141.00,0.0083
3140.00,0.0083
3139.00,0.0083
3138.00,0.0082
3137.00,0.0082
3136.00,0.0081
3135.00,0.0081
3134.00,0.0081
3133.00,0.0081
3132.00,0.0081
3131.00,0.0081
3130.00,0.0080
3129.00,0.0080
3128.00,0.0080
3127.00,0.0080
3126.00,0.0080
3125.00,0.0080
3124.00,0.0079
3123.00,0.0079
3122.00,0.0078
3121.00,0.0078
3120.00,0.0077
3119.00,0.0076
3118.00,0.0076
3117.00,0.0075
3116.00,0.0075
3115.00,0.0074
3114.00,0.0074
3113.00,0.0073
3112.00,0.0073
3111.00,0.0072
3110.00,0.0071
3109.00,0.0070
3108.00,0.0070
3107.00,0.0069
3106.00,0.0069
3105.00,0.0068
3104.00,0.0068
3103.00,0.0067
3102.00,0.0067
3101.00,0.0066
3100.00,0.0066
3099.00,0.0065
3098.00,0.0065
3097.00,0.0064
3096.00,0.0064
3095.00,0.0064
3094.00,0.0063
3093.00,0.0063
3092.00,0.0063
3091.00,0.0063
3090.00,0.0062
3089.00,0.0062
3088.00,0.0061
3087.00,0.0061
3086.00,0.0060
3085.00,0.0060
3084.00,0.0060
3083.00,0.0060
3082.00,0.0060
3081.00,0.0060
3080.00,0.0059
3079.00,0.0059
3078.00,0.0059
3077.00,0.0059
3076.00,0.0059
3075.00,0.0060
3074.00,0.0060
3073.00,0.0060
3072.00,0.0059
3071.00,0.0059
3070.00,0.0059
3069.00,0.0058
3068.00,0.0058
3067.00,0.0058
3066.00,0.0059
3065.00,0.0059
3064.00,0.0059
3063.00,0.0059
3062.00,0.0059
3061.00,0.0059
3060.00,0.0058
3059.00,0.0059
3058.00,0.0059
3057.00,0.0058
3056.00,0.0058
3055.00,0.0058
3054.00,0.0058
3053.00,0.0058
3052.00,0.0058
3051.00,0.0058
3050.00,0.0058
3049.00,0.0058
3048.00,0.0058
3047.00,0.0058
3046.00,0.0058
3045.00,0.0058
3044.00,0.0058
3043.00,0.0058
3042.00,0.0058
3041.00,0.0058
3040.00,0.0059
3039.00,0.0059
3038.00,0.0060
3037.00,0.0060
3036.00,0.0060
3035.00,0.0060
3034.00,0.0060
3033.00,0.0060
3032.00,0.0061
3031.00,0.0061
3030.00,0.0062
3029.00,0.0063
3028.00,0.0063
3027.00,0.0063
3026.00,0.0063
3025.00,0.0064
3024.00,0.0064
3023.00,0.0065
3022.00,0.0065
3021.00,0.0066
3020.00,0.0067
3019.00,0.0068
3018.00,0.0068
3017.00,0.0069
3016.00,0.0069
3015.00,0.0070
3014.00,0.0071
3013.00,0.0073
3012.00,0.0074
3011.00,0.0076
3010.00,0.0078
3009.00,0.0079
3008.00,0.0081
3007.00,0.0083
3006.00,0.0085
3005.00,0.0087
3004.00,0.0089
3003.00,0.0091
3002.00,0.0094
3001.00,0.0096
3000.00,0.0098
2999.00,0.0101
2998.00,0.0104
2997.00,0.0108
2996.00,0.0111
2995.00,0.0115
2994.00,0.0119
2993.00,0.0123
2992.00,0.0129
2991.00,0.0135
2990.00,0.0142
2989.00,0.0149
2988.00,0.0157
2987.00,0.0166
2986.00,0.0176
2985.00,0.0188
2984.00,0.0200
2983.00,0.0214
2982.00,0.0230
2981.00,0.0248
2980.00,0.0267
2979.00,0.0289
2978.00,0.0314
2977.00,0.0343
2976.00,0.0375
2975.00,0.0412
2974.00,0.0454
2973.00,0.0501
2972.00,0.0555
2971.00,0.0616
2970.00,0.0683
2969.00,0.0757
2968.00,0.0838
2967.00,0.0925
2966.00,0.1016
2965.00,0.1109
2964.00,0.1201
2963.00,0.1287
2962.00,0.1363
2961.00,0.1426
2960.00,0.1477
2959.00,0.1518
2958.00,0.1554
2957.00,0.1591
2956.00,0.1634
2955.00,0.1688
2954.00,0.1750
2953.00,0.1818
2952.00,0.1882
2951.00,0.1932
2950.00,0.1957
2949.00,0.1946
2948.00,0.1897
2947.00,0.1810
2946.00,0.1694
2945.00,0.1563
2944.00,0.1432
2943.00,0.1315
2942.00,0.1219
2941.00,0.1148
2940.00,0.1104
2939.00,0.1083
2938.00,0.1084
2937.00,0.1104
2936.00,0.1141
2935.00,0.1194
2934.00,0.1262
2933.00,0.1342
2932.00,0.1432
2931.00,0.1532
2930.00,0.1639
2929.00,0.1748
2928.00,0.1857
2927.00,0.1963
2926.00,0.2063
2925.00,0.2159
2924.00,0.2251
2923.00,0.2340
2922.00,0.2428
2921.00,0.2512
2920.00,0.2585
2919.00,0.2642
2918.00,0.2672
2917.00,0.2669
2916.00,0.2633
2915.00,0.2566
2914.00,0.2478
2913.00,0.2379
2912.00,0.2278
2911.00,0.2183
2910.00,0.2095
2909.00,0.2015
2908.00,0.1941
2907.00,0.1871
2906.00,0.1801
2905.00,0.1731
2904.00,0.1660
2903.00,0.1588
2902.00,0.1517
2901.00,0.1447
2900.00,0.1381
2899.00,0.1318
2898.00,0.1259
2897.00,0.1207
2896.00,0.1160
2895.00,0.1121
2894.00,0.1089
2893.00,0.1064
2892.00,0.1046
2891.00,0.1035
2890.00,0.1029
2889.00,0.1028
2888.00,0.1030
2887.00,0.1037
2886.00,0.1047
2885.00,0.1060
2884.00,0.1078
2883.00,0.1101
2882.00,0.1128
2881.00,0.1158
2880.00,0.1188
2879.00,0.1213
2878.00,0.1231
2877.00,0.1239
2876.00,0.1237
2875.00,0.1229
2874.00,0.1222
2873.00,0.1218
2872.00,0.1223
2871.00,0.1235
2870.00,0.1255
2869.00,0.1275
2868.00,0.1289
2867.00,0.1289
2866.00,0.1266
2865.00,0.1218
2864.00,0.1146
2863.00,0.1058
2862.00,0.0965
2861.00,0.0877
2860.00,0.0801
2859.00,0.0739
2858.00,0.0692
2857.00,0.0658
2856.00,0.0635
2855.00,0.0621
2854.00,0.0615
2853.00,0.0615
2852.00,0.0622
2851.00,0.0634
2850.00,0.0652
2849.00,0.0676
2848.00,0.0707
2847.00,0.0744
2846.00,0.0790
2845.00,0.0845
2844.00,0.0908
2843.00,0.0978
2842.00,0.1050
2841.00,0.1120
2840.00,0.1178
2839.00,0.1216
2838.00,0.1225
2837.00,0.1202
2836.00,0.1144
2835.00,0.1059
2834.00,0.0956
2833.00,0.0847
2832.00,0.0742
2831.00,0.0648
2830.00,0.0568
2829.00,0.0503
2828.00,0.0450
2827.00,0.0407
2826.00,0.0373
2825.00,0.0344
2824.00,0.0320
2823.00,0.0300
2822.00,0.0283
2821.00,0.0268
2820.00,0.0255
2819.00,0.0244
2818.00,0.0234
2817.00,0.0226
2816.00,0.0218
2815.00,0.0211
2814.00,0.0205
2813.00,0.0200
2812.00,0.0194
2811.00,0.0189
2810.00,0.0183
2809.00,0.0178
2808.00,0.0172
2807.00,0.0166
2806.00,0.0159
2805.00,0.0153
2804.00,0.0146
2803.00,0.0140
2802.00,0.0135
2801.00,0.0130
2800.00,0.0126
2799.00,0.0123
2798.00,0.0120
2797.00,0.0118
2796.00,0.0116
2795.00,0.0113
2794.00,0.0111
2793.00,0.0108
2792.00,0.0105
2791.00,0.0102
2790.00,0.0099
2789.00,0.0095
2788.00,0.0092
2787.00,0.0090
2786.00,0.0087
2785.00,0.0084
2784.00,0.0082
2783.00,0.0080
2782.00,0.0078
2781.00,0.0076
2780.00,0.0074
2779.00,0.0072
2778.00,0.0071
2777.00,0.0069
2776.00,0.0068
2775.00,0.0067
2774.00,0.0066
2773.00,0.0065
2772.00,0.0065
2771.00,0.0065
2770.00,0.0064
2769.00,0.0064
2768.00,0.0064
2767.00,0.0064
2766.00,0.0063
2765.00,0.0063
2764.00,0.0062
2763.00,0.0062
2762.00,0.0061
2761.00,0.0061
2760.00,0.0061
2759.00,0.0060
2758.00,0.0060
2757.00,0.0060
2756.00,0.0059
2755.00,0.0059
2754.00,0.0059
2753.00,0.0059
2752.00,0.0059
2751.00,0.0059
2750.00,0.0059
2749.00,0.0059
2748.00,0.0059
2747.00,0.0059
2746.00,0.0059
2745.00,0.0060
2744.00,0.0061
2743.00,0.0062
2742.00,0.0063
2741.00,0.0065
2740.00,0.0066
2739.00,0.0067
2738.00,0.0069
2737.00,0.0070
2736.00,0.0072
2735.00,0.0073
2734.00,0.0074
2733.00,0.0076
2732.00,0.0078
2731.00,0.0080
2730.00,0.0082
2729.00,0.0084
2728.00,0.0086
2727.00,0.0089
2726.00,0.0092
2725.00,0.0094
2724.00,0.0095
2723.00,0.0096
2722.00,0.0095
2721.00,0.0093
2720.00,0.0090
2719.00,0.0087
2718.00,0.0083
2717.00,0.0080
2716.00,0.0077
2715.00,0.0074
2714.00,0.0072
2713.00,0.0070
2712.00,0.0068
2711.00,0.0066
2710.00,0.0064
2709.00,0.0063
2708.00,0.0062
2707.00,0.0060
2706.00,0.0059
2705.00,0.0057
2704.00,0.0056
2703.00,0.0055
2702.00,0.0054
2701.00,0.0053
2700.00,0.0052
2699.00,0.0052
2698.00,0.0051
2697.00,0.0051
2696.00,0.0051
2695.00,0.0051
2694.00,0.0051
2693.00,0.0050
2692.00,0.0050
2691.00,0.0051
2690.00,0.0051
2689.00,0.0051
2688.00,0.0051
2687.00,0.0051
2686.00,0.0051
2685.00,0.0051
2684.00,0.0051
2683.00,0.0050
2682.00,0.0050
2681.00,0.0050
2680.00,0.0051
2679.00,0.0051
2678.00,0.0051
2677.00,0.0051
2676.00,0.0051
2675.00,0.0051
2674.00,0.0051
2673.00,0.0051
2672.00,0.0050
2671.00,0.0050
2670.00,0.0049
2669.00,0.0049
2668.00,0.0049
2667.00,0.0050
2666.00,0.0050
2665.00,0.0050
2664.00,0.0051
2663.00,0.0052
2662.00,0.0053
2661.00,0.0053
2660.00,0.0054
2659.00,0.0054
2658.00,0.0053
2657.00,0.0053
2656.00,0.0052
2655.00,0.0052
2654.00,0.0051
2653.00,0.0051
2652.00,0.0050
2651.00,0.0050
2650.00,0.0049
2649.00,0.0048
2648.00,0.0048
2647.00,0.0047
2646.00,0.0047
2645.00,0.0046
2644.00,0.0046
2643.00,0.0045
2642.00,0.0044
2641.00,0.0044
2640.00,0.0044
2639.00,0.0043
2638.00,0.0043
2637.00,0.0043
2636.00,0.0043
2635.00,0.0043
2634.00,0.0043
2633.00,0.0043
2632.00,0.0043
2631.00,0.0043
2630.00,0.0043
2629.00,0.0043
2628.00,0.0043
2627.00,0.0043
2626.00,0.0044
2625.00,0.0044
2624.00,0.0044
2623.00,0.0044
2622.00,0.0044
2621.00,0.0044
2620.00,0.0044
2619.00,0.0044
2618.00,0.0044
2617.00,0.0044
2616.00,0.0044
2615.00,0.0044
2614.00,0.0043
2613.00,0.0043
2612.00,0.0043
2611.00,0.0042
2610.00,0.0042
2609.00,0.0042
2608.00,0.0041
2607.00,0.0040
2606.00,0.0040
2605.00,0.0039
2604.00,0.0038
2603.00,0.0038
2602.00,0.0037
2601.00,0.0037
2600.00,0.0036
2599.00,0.0036
2598.00,0.0036
2597.00,0.0036
2596.00,0.0036
2595.00,0.0036
2594.00,0.0036
2593.00,0.0037
2592.00,0.0037
2591.00,0.0038
2590.00,0.0038
2589.00,0.0039
2588.00,0.0040
2587.00,0.0041
2586.00,0.0042
2585.00,0.0042
2584.00,0.0043
2583.00,0.0043
2582.00,0.0044
2581.00,0.0043
2580.00,0.0043
2579.00,0.0042
2578.00,0.0041
2577.00,0.0040
2576.00,0.0039
2575.00,0.0037
2574.00,0.0036
2573.00,0.0035
2572.00,0.0034
2571.00,0.0033
2570.00,0.0032
2569.00,0.0032
2568.00,0.0031
2567.00,0.0030
2566.00,0.0029
2565.00,0.0029
2564.00,0.0028
2563.00,0.0028
2562.00,0.0028
2561.00,0.0028
2560.00,0.0029
2559.00,0.0029
2558.00,0.0029
2557.00,0.0028
2556.00,0.0028
2555.00,0.0027
2554.00,0.0027
2553.00,0.0027
2552.00,0.0027
2551.00,0.0027
2550.00,0.0026
2549.00,0.0025
2548.00,0.0024
2547.00,0.0023
2546.00,0.0023
2545.00,0.0022
2544.00,0.0022
2543.00,0.0021
2542.00,0.0021
2541.00,0.0021
2540.00,0.0021
2539.00,0.0021
2538.00,0.0021
2537.00,0.0021
2536.00,0.0020
2535.00,0.0020
2534.00,0.0019
2533.00,0.0018
2532.00,0.0018
2531.00,0.0018
2530.00,0.0018
2529.00,0.0018
2528.00,0.0019
2527.00,0.0018
2526.00,0.0018
2525.00,0.0017
2524.00,0.0016
2523.00,0.0016
2522.00,0.0015
2521.00,0.0015
2520.00,0.0015
2519.00,0.0014
2518.00,0.0014
2517.00,0.0015
2516.00,0.0015
2515.00,0.0015
2514.00,0.0015
2513.00,0.0015
2512.00,0.0015
2511.00,0.0015
2510.00,0.0015
2509.00,0.0015
2508.00,0.0014
2507.00,0.0014
2506.00,0.0013
2505.00,0.0013
2504.00,0.0013
2503.00,0.0014
2502.00,0.0014
2501.00,0.0015
2500.00,0.0015
2499.00,0.0014
2498.00,0.0014
2497.00,0.0014
2496.00,0.0014
2495.00,0.0013
2494.00,0.0013
2493.00,0.0013
2492.00,0.0013
2491.00,0.0013
2490.00,0.0013
2489.00,0.0013
2488.00,0.0013
2487.00,0.0014
2486.00,0.0014
2485.00,0.0014
2484.00,0.0015
2483.00,0.0015
2482.00,0.0014
2481.00,0.0013
2480.00,0.0012
2479.00,0.0012
2478.00,0.0011
2477.00,0.0011
2476.00,0.0012
2475.00,0.0012
2474.00,0.0012
2473.00,0.0013
2472.00,0.0012
2471.00,0.0012
2470.00,0.0012
2469.00,0.0012
2468.00,0.0012
2467.00,0.0011
2466.00,0.0011
2465.00,0.0010
2464.00,0.0009
2463.00,0.0009
2462.00,0.0010
2461.00,0.0012
2460.00,0.0013
2459.00,0.0014
2458.00,0.0015
2457.00,0.0014
2456.00,0.0014
2455.00,0.0013
2454.00,0.0013
2453.00,0.0013
2452.00,0.0013
2451.00,0.0014
2450.00,0.0014
2449.00,0.0014
2448.00,0.0013
2447.00,0.0013
2446.00,0.0012
2445.00,0.0012
2444.00,0.0011
2443.00,0.0010
2442.00,0.0010
2441.00,0.0011
2440.00,0.0012
2439.00,0.0012
2438.00,0.0013
2437.00,0.0013
2436.00,0.0014
2435.00,0.0014
2434.00,0.0014
2433.00,0.0014
2432.00,0.0014
2431.00,0.0014
2430.00,0.0013
2429.00,0.0013
2428.00,0.0013
2427.00,0.0013
2426.00,0.0013
2425.00,0.0013
2424.00,0.0013
2423.00,0.0014
2422.00,0.0014
2421.00,0.0014
2420.00,0.0013
2419.00,0.0013
2418.00,0.0012
2417.00,0.0012
2416.00,0.0012
2415.00,0.0012
2414.00,0.0012
2413.00,0.0012
2412.00,0.0012
2411.00,0.0013
2410.00,0.0013
2409.00,0.0013
2408.00,0.0013
2407.00,0.0013
2406.00,0.0012
2405.00,0.0012
2404.00,0.0012
2403.00,0.0011
2402.00,0.0011
2401.00,0.0011
2400.00,0.0011
2399.00,0.0012
2398.00,0.0012
2397.00,0.0012
2396.00,0.0012
2395.00,0.0012
2394.00,0.0011
2393.00,0.0011
2392.00,0.0011
2391.00,0.0011
2390.00,0.0011
2389.00,0.0011
2388.00,0.0010
2387.00,0.0010
2386.00,0.0009
2385.00,0.0007
2384.00,0.0006
2383.00,0.0005
2382.00,0.0004
2381.00,0.0003
2380.00,0.0002
2379.00,0.0002
2378.00,0.0002
2377.00,0.0003
2376.00,0.0004
2375.00,0.0005
2374.00,0.0006
2373.00,0.0006
2372.00,0.0005
2371.00,0.0005
2370.00,0.0004
2369.00,0.0004
2368.00,0.0004
2367.00,0.0004
2366.00,0.0004
2365.00,0.0004
2364.00,0.0005
2363.00,0.0005
2362.00,0.0005
2361.00,0.0005
2360.00,0.0006
2359.00,0.0006
2358.00,0.0007
2357.00,0.0007
2356.00,0.0007
2355.00,0.0006
2354.00,0.0005
2353.00,0.0004
2352.00,0.0004
2351.00,0.0005
2350.00,0.0007
2349.00,0.0007
2348.00,0.0007
2347.00,0.0007
2346.00,0.0007
2345.00,0.0008
2344.00,0.0009
2343.00,0.0010
2342.00,0.0010
2341.00,0.0010
2340.00,0.0010
2339.00,0.0010
2338.00,0.0009
2337.00,0.0009
2336.00,0.0010
2335.00,0.0010
2334.00,0.0010
2333.00,0.0009
2332.00,0.0008
2331.00,0.0008
2330.00,0.0008
2329.00,0.0008
2328.00,0.0011
2327.00,0.0014
2326.00,0.0018
2325.00,0.0021
2324.00,0.0022
2323.00,0.0021
2322.00,0.0019
2321.00,0.0016
2320.00,0.0015
2319.00,0.0015
2318.00,0.0014
2317.00,0.0014
2316.00,0.0014
2315.00,0.0013
2314.00,0.0012
2313.00,0.0011
2312.00,0.0009
2311.00,0.0008
2310.00,0.0008
2309.00,0.0008
2308.00,0.0009
2307.00,0.0010
2306.00,0.0010
2305.00,0.0010
2304.00,0.0011
2303.00,0.0011
2302.00,0.0011
2301.00,0.0011
2300.00,0.0011
2299.00,0.0011
2298.00,0.0012
2297.00,0.0012
2296.00,0.0013
2295.00,0.0013
2294.00,0.0014
2293.00,0.0014
2292.00,0.0015
2291.00,0.0017
2290.00,0.0018
2289.00,0.0019
2288.00,0.0020
2287.00,0.0020
2286.00,0.0019
2285.00,0.0019
2284.00,0.0018
2283.00,0.0017
2282.00,0.0017
2281.00,0.0017
2280.00,0.0017
2279.00,0.0018
2278.00,0.0018
2277.00,0.0018
2276.00,0.0017
2275.00,0.0016
2274.00,0.0016
2273.00,0.0016
2272.00,0.0016
2271.00,0.0016
2270.00,0.0017
2269.00,0.0017
2268.00,0.0016
2267.00,0.0014
2266.00,0.0012
2265.00,0.0011
2264.00,0.0012
2263.00,0.0013
2262.00,0.0014
2261.00,0.0015
2260.00,0.0016
2259.00,0.0016
2258.00,0.0015
2257.00,0.0014
2256.00,0.0014
2255.00,0.0014
2254.00,0.0014
2253.00,0.0014
2252.00,0.0013
2251.00,0.0012
2250.00,0.0011
2249.00,0.0011
2248.00,0.0010
2247.00,0.0011
2246.00,0.0011
2245.00,0.0012
2244.00,0.0012
2243.00,0.0012
2242.00,0.0012
2241.00,0.0012
2240.00,0.0012
2239.00,0.0012
2238.00,0.0012
2237.00,0.0012
2236.00,0.0013
2235.00,0.0014
2234.00,0.0014
2233.00,0.0014
2232.00,0.0012
2231.00,0.0011
2230.00,0.0011
2229.00,0.0010
2228.00,0.0009
2227.00,0.0007
2226.00,0.0006
2225.00,0.0007
2224.00,0.0008
2223.00,0.0009
2222.00,0.0010
2221.00,0.0011
2220.00,0.0010
2219.00,0.0009
2218.00,0.0007
2217.00,0.0005
2216.00,0.0005
2215.00,0.0005
2214.00,0.0005
2213.00,0.0006
2212.00,0.0006
2211.00,0.0006
2210.00,0.0005
2209.00,0.0004
2208.00,0.0003
2207.00,0.0002
2206.00,0.0002
2205.00,0.0003
2204.00,0.0005
2203.00,0.0007
2202.00,0.0009
2201.00,0.0011
2200.00,0.0012
2199.00,0.0011
2198.00,0.0010
2197.00,0.0009
2196.00,0.0008
2195.00,0.0007
2194.00,0.0007
2193.00,0.0007
2192.00,0.0007
2191.00,0.0007
2190.00,0.0007
2189.00,0.0007
2188.00,0.0007
2187.00,0.0007
2186.00,0.0008
2185.00,0.0009
2184.00,0.0010
2183.00,0.0009
2182.00,0.0007
2181.00,0.0005
2180.00,0.0003
2179.00,0.0003
2178.00,0.0004
2177.00,0.0005
2176.00,0.0004
2175.00,0.0003
2174.00,0.0004
2173.00,0.0006
2172.00,0.0009
2171.00,0.0011
2170.00,0.0014
2169.00,0.0017
2168.00,0.0018
2167.00,0.0017
2166.00,0.0015
2165.00,0.0015
2164.00,0.0017
2163.00,0.0020
2162.00,0.0022
2161.00,0.0020
2160.00,0.0010
2159.00,-0.0007
2158.00,-0.0022
2157.00,-0.0030
2156.00,-0.0031
2155.00,-0.0029
2154.00,-0.0028
2153.00,-0.0027
2152.00,-0.0027
2151.00,-0.0024
2150.00,-0.0020
2149.00,-0.0015
2148.00,-0.0011
2147.00,-0.0008
2146.00,-0.0008
2145.00,-0.0009
2144.00,-0.0011
2143.00,-0.0012
2142.00,-0.0012
2141.00,-0.0012
2140.00,-0.0011
2139.00,-0.0011
2138.00,-0.0011
2137.00,-0.0011
2136.00,-0.0013
2135.00,-0.0014
2134.00,-0.0016
2133.00,-0.0015
2132.00,-0.0014
2131.00,-0.0012
2130.00,-0.0011
2129.00,-0.0010
2128.00,-0.0009
2127.00,-0.0008
2126.00,-0.0007
2125.00,-0.0006
2124.00,-0.0005
2123.00,-0.0004
2122.00,-0.0003
2121.00,-0.0003
2120.00,-0.0002
2119.00,-0.0001
2118.00,0.0000
2117.00,0.0001
2116.00,0.0001
2115.00,0.0002
2114.00,0.0002
2113.00,0.0004
2112.00,0.0005
2111.00,0.0005
2110.00,0.0006
2109.00,0.0006
2108.00,0.0006
2107.00,0.0004
2106.00,0.0003
2105.00,0.0003
2104.00,0.0003
2103.00,0.0004
2102.00,0.0003
2101.00,0.0003
2100.00,0.0002
2099.00,0.0001
2098.00,0.0001
2097.00,0.0001
2096.00,-0.0001
2095.00,-0.0003
2094.00,-0.0004
2093.00,-0.0003
2092.00,-0.0000
2091.00,0.0002
2090.00,0.0003
2089.00,0.0004
2088.00,0.0004
2087.00,0.0005
2086.00,0.0005
2085.00,0.0005
2084.00,0.0005
2083.00,0.0005
2082.00,0.0006
2081.00,0.0007
2080.00,0.0007
2079.00,0.0006
2078.00,0.0005
2077.00,0.0004
2076.00,0.0004
2075.00,0.0004
2074.00,0.0004
2073.00,0.0004
2072.00,0.0004
2071.00,0.0003
2070.00,0.0004
2069.00,0.0003
2068.00,0.0002
2067.00,0.0000
2066.00,-0.0002
2065.00,-0.0004
2064.00,-0.0003
2063.00,-0.0001
2062.00,0.0000
2061.00,0.0001
2060.00,0.0001
2059.00,0.0001
2058.00,0.0001
2057.00,0.0002
2056.00,0.0002
2055.00,0.0002
2054.00,0.0003
2053.00,0.0008
2052.00,0.0015
2051.00,0.0019
2050.00,0.0018
2049.00,0.0013
2048.00,0.0008
2047.00,0.0003
2046.00,0.0001
2045.00,0.0001
2044.00,0.0001
2043.00,0.0002
2042.00,0.0003
2041.00,0.0003
2040.00,0.0002
2039.00,0.0001
2038.00,-0.0000
2037.00,-0.0001
2036.00,-0.0001
2035.00,-0.0003
2034.00,-0.0005
2033.00,-0.0005
2032.00,-0.0004
2031.00,-0.0003
2030.00,-0.0002
2029.00,-0.0001
2028.00,-0.0001
2027.00,-0.0002
2026.00,-0.0004
2025.00,-0.0006
2024.00,-0.0008
2023.00,-0.0011
2022.00,-0.0012
2021.00,-0.0011
2020.00,-0.0009
2019.00,-0.0007
2018.00,-0.0004
2017.00,-0.0000
2016.00,0.0001
2015.00,0.0001
2014.00,-0.0002
2013.00,-0.0005
2012.00,-0.0007
2011.00,-0.0009
2010.00,-0.0011
2009.00,-0.0014
2008.00,-0.0018
2007.00,-0.0021
2006.00,-0.0022
2005.00,-0.0018
2004.00,-0.0014
2003.00,-0.0013
2002.00,-0.0014
2001.00,-0.0015
2000.00,-0.0016
1999.00,-0.0016
1998.00,-0.0016
1997.00,-0.0014
1996.00,-0.0013
1995.00,-0.0013
1994.00,-0.0012
1993.00,-0.0011
1992.00,-0.0009
1991.00,-0.0007
1990.00,-0.0005
1989.00,-0.0003
1988.00,-0.0002
1987.00,-0.0001
1986.00,-0.0001
1985.00,0.0001
1984.00,0.0004
1983.00,0.0008
1982.00,0.0011
1981.00,0.0013
1980.00,0.0012
1979.00,0.0009
1978.00,0.0003
1977.00,-0.0002
1976.00,-0.0006
1975.00,-0.0010
1974.00,-0.0014
1973.00,-0.0015
1972.00,-0.0014
1971.00,-0.0013
1970.00,-0.0014
1969.00,-0.0015
1968.00,-0.0015
1967.00,-0.0015
1966.00,-0.0015
1965.00,-0.0014
1964.00,-0.0013
1963.00,-0.0013
1962.00,-0.0014
1961.00,-0.0016
1960.00,-0.0018
1959.00,-0.0020
1958.00,-0.0021
1957.00,-0.0019
1956.00,-0.0017
1955.00,-0.0016
1954.00,-0.0015
1953.00,-0.0015
1952.00,-0.0016
1951.00,-0.0017
1950.00,-0.0017
1949.00,-0.0017
1948.00,-0.0016
1947.00,-0.0016
1946.00,-0.0016
1945.00,-0.0015
1944.00,-0.0013
1943.00,-0.0011
1942.00,-0.0009
1941.00,-0.0009
1940.00,-0.0010
1939.00,-0.0011
1938.00,-0.0012
1937.00,-0.0011
1936.00,-0.0010
1935.00,-0.0009
1934.00,-0.0008
1933.00,-0.0008
1932.00,-0.0008
1931.00,-0.0009
1930.00,-0.0009
1929.00,-0.0009
1928.00,-0.0009
1927.00,-0.0009
1926.00,-0.0008
1925.00,-0.0006
1924.00,-0.0005
1923.00,-0.0005
1922.00,-0.0005
1921.00,-0.0004
1920.00,-0.0004
1919.00,-0.0004
1918.00,-0.0003
1917.00,-0.0003
1916.00,-0.0003
1915.00,-0.0004
1914.00,-0.0004
1913.00,-0.0004
1912.00,-0.0003
1911.00,-0.0003
1910.00,-0.0003
1909.00,-0.0003
1908.00,-0.0003
1907.00,-0.0002
1906.00,-0.0002
1905.00,-0.0001
1904.00,0.0001
1903.00,0.0001
1902.00,0.0001
1901.00,0.0000
1900.00,-0.0000
1899.00,-0.0001
1898.00,-0.0002
1897.00,-0.0002
1896.00,-0.0002
1895.00,-0.0001
1894.00,-0.0000
1893.00,0.0000
1892.00,0.0000
1891.00,0.0000
1890.00,0.0001
1889.00,0.0002
1888.00,0.0002
1887.00,0.0002
1886.00,0.0001
1885.00,0.0001
1884.00,0.0000
1883.00,-0.0001
1882.00,-0.0002
1881.00,-0.0003
1880.00,-0.0003
1879.00,-0.0002
1878.00,-0.0002
1877.00,-0.0001
1876.00,0.0000
1875.00,0.0001
1874.00,0.0001
1873.00,0.0002
1872.00,0.0001
1871.00,0.0000
1870.00,-0.0001
1869.00,-0.0001
1868.00,-0.0000
1867.00,0.0000
1866.00,0.0001
1865.00,0.0002
1864.00,0.0002
1863.00,0.0002
1862.00,0.0002
1861.00,0.0003
1860.00,0.0003
1859.00,0.0003
1858.00,0.0003
1857.00,0.0002
1856.00,0.0002
1855.00,0.0002
1854.00,0.0002
1853.00,0.0002
1852.00,0.0003
1851.00,0.0003
1850.00,0.0003
1849.00,0.0003
1848.00,0.0003
1847.00,0.0003
1846.00,0.0003
1845.00,0.0004
1844.00,0.0004
1843.00,0.0005
1842.00,0.0004
1841.00,0.0004
1840.00,0.0004
1839.00,0.0004
1838.00,0.0003
1837.00,0.0003
1836.00,0.0003
1835.00,0.0003
1834.00,0.0003
1833.00,0.0003
1832.00,0.0003
1831.00,0.0003
1830.00,0.0003
1829.00,0.0004
1828.00,0.0004
1827.00,0.0004
1826.00,0.0004
1825.00,0.0004
1824.00,0.0004
1823.00,0.0004
1822.00,0.0004
1821.00,0.0004
1820.00,0.0004
1819.00,0.0003
1818.00,0.0002
1817.00,0.0001
1816.00,0.0001
1815.00,0.0002
1814.00,0.0002
1813.00,0.0003
1812.00,0.0003
1811.00,0.0004
1810.00,0.0004
1809.00,0.0005
1808.00,0.0005
1807.00,0.0005
1806.00,0.0005
1805.00,0.0006
1804.00,0.0006
1803.00,0.0006
1802.00,0.0006
1801.00,0.0006
1800.00,0.0006
1799.00,0.0007
1798.00,0.0007
1797.00,0.0007
1796.00,0.0008
1795.00,0.0008
1794.00,0.0008
1793.00,0.0009
1792.00,0.0009
1791.00,0.0010
1790.00,0.0010
1789.00,0.0011
1788.00,0.0011
1787.00,0.0010
1786.00,0.0010
1785.00,0.0010
1784.00,0.0010
1783.00,0.0010
1782.00,0.0010
1781.00,0.0010
1780.00,0.0009
1779.00,0.0009
1778.00,0.0010
1777.00,0.0010
1776.00,0.0010
1775.00,0.0010
1774.00,0.0010
1773.00,0.0010
1772.00,0.0010
1771.00,0.0010
1770.00,0.0010
1769.00,0.0011
1768.00,0.0011
1767.00,0.0012
1766.00,0.0012
1765.00,0.0012
1764.00,0.0012
1763.00,0.0013
1762.00,0.0013
1761.00,0.0015
1760.00,0.0016
1759.00,0.0016
1758.00,0.0016
1757.00,0.0016
1756.00,0.0017
1755.00,0.0017
1754.00,0.0017
1753.00,0.0017
1752.00,0.0018
1751.00,0.0017
1750.00,0.0017
1749.00,0.0017
1748.00,0.0018
1747.00,0.0018
1746.00,0.0019
1745.00,0.0019
1744.00,0.0019
1743.00,0.0019
1742.00,0.0020
1741.00,0.0021
1740.00,0.0021
1739.00,0.0022
1738.00,0.0022
1737.00,0.0022
1736.00,0.0022
1735.00,0.0022
1734.00,0.0022
1733.00,0.0022
1732.00,0.0021
1731.00,0.0021
1730.00,0.0020
1729.00,0.0021
1728.00,0.0021
1727.00,0.0022
1726.00,0.0022
1725.00,0.0022
1724.00,0.0022
1723.00,0.0022
1722.00,0.0023
1721.00,0.0024
1720.00,0.0025
1719.00,0.0026
1718.00,0.0027
1717.00,0.0028
1716.00,0.0028
1715.00,0.0028
1714.00,0.0028
1713.00,0.0028
1712.00,0.0028
1711.00,0.0029
1710.00,0.0029
1709.00,0.0030
1708.00,0.0031
1707.00,0.0031
1706.00,0.0032
1705.00,0.0034
1704.00,0.0035
1703.00,0.0036
1702.00,0.0037
1701.00,0.0038
1700.00,0.0041
1699.00,0.0042
1698.00,0.0043
1697.00,0.0044
1696.00,0.0045
1695.00,0.0047
1694.00,0.0047
1693.00,0.0048
1692.00,0.0048
1691.00,0.0049
1690.00,0.0051
1689.00,0.0053
1688.00,0.0055
1687.00,0.0056
1686.00,0.0057
1685.00,0.0059
1684.00,0.0062
1683.00,0.0064
1682.00,0.0065
1681.00,0.0066
1680.00,0.0068
1679.00,0.0070
1678.00,0.0071
1677.00,0.0073
1676.00,0.0075
1675.00,0.0076
1674.00,0.0078
1673.00,0.0080
1672.00,0.0081
1671.00,0.0083
1670.00,0.0085
1669.00,0.0088
1668.00,0.0091
1667.00,0.0093
1666.00,0.0094
1665.00,0.0095
1664.00,0.0098
1663.00,0.0101
1662.00,0.0104
1661.00,0.0107
1660.00,0.0111
1659.00,0.0114
1658.00,0.0117
1657.00,0.0120
1656.00,0.0122
1655.00,0.0126
1654.00,0.0131
1653.00,0.0139
1652.00,0.0145
1651.00,0.0146
1650.00,0.0146
1649.00,0.0148
1648.00,0.0152
1647.00,0.0158
1646.00,0.0164
1645.00,0.0168
1644.00,0.0171
1643.00,0.0173
1642.00,0.0175
1641.00,0.0177
1640.00,0.0179
1639.00,0.0179
1638.00,0.0180
1637.00,0.0179
1636.00,0.0179
1635.00,0.0179
1634.00,0.0177
1633.00,0.0174
1632.00,0.0171
1631.00,0.0169
1630.00,0.0166
1629.00,0.0164
1628.00,0.0162
1627.00,0.0161
1626.00,0.0159
1625.00,0.0157
1624.00,0.0155
1623.00,0.0153
1622.00,0.0151
1621.00,0.0150
1620.00,0.0149
1619.00,0.0149
1618.00,0.0149
1617.00,0.0149
1616.00,0.0150
1615.00,0.0150
1614.00,0.0150
1613.00,0.0150
1612.00,0.0150
1611.00,0.0151
1610.00,0.0151
1609.00,0.0150
1608.00,0.0150
1607.00,0.0150
1606.00,0.0150
1605.00,0.0149
1604.00,0.0148
1603.00,0.0146
1602.00,0.0144
1601.00,0.0143
1600.00,0.0141
1599.00,0.0139
1598.00,0.0137
1597.00,0.0135
1596.00,0.0132
1595.00,0.0130
1594.00,0.0128
1593.00,0.0127
1592.00,0.0125
1591.00,0.0125
1590.00,0.0125
1589.00,0.0125
1588.00,0.0126
1587.00,0.0127
1586.00,0.0129
1585.00,0.0131
1584.00,0.0134
1583.00,0.0136
1582.00,0.0137
1581.00,0.0138
1580.00,0.0138
1579.00,0.0136
1578.00,0.0135
1577.00,0.0133
1576.00,0.0131
1575.00,0.0129
1574.00,0.0126
1573.00,0.0124
1572.00,0.0123
1571.00,0.0121
1570.00,0.0120
1569.00,0.0119
1568.00,0.0119
1567.00,0.0119
1566.00,0.0118
1565.00,0.0118
1564.00,0.0118
1563.00,0.0118
1562.00,0.0118
1561.00,0.0119
1560.00,0.0119
1559.00,0.0120
1558.00,0.0120
1557.00,0.0120
1556.00,0.0121
1555.00,0.0122
1554.00,0.0124
1553.00,0.0126
1552.00,0.0129
1551.00,0.0132
1550.00,0.0136
1549.00,0.0141
1548.00,0.0146
1547.00,0.0150
1546.00,0.0155
1545.00,0.0161
1544.00,0.0168
1543.00,0.0174
1542.00,0.0180
1541.00,0.0187
1540.00,0.0194
1539.00,0.0199
1538.00,0.0201
1537.00,0.0201
1536.00,0.0201
1535.00,0.0199
1534.00,0.0197
1533.00,0.0193
1532.00,0.0190
1531.00,0.0185
1530.00,0.0180
1529.00,0.0175
1528.00,0.0170
1527.00,0.0164
1526.00,0.0157
1525.00,0.0152
1524.00,0.0147
1523.00,0.0142
1522.00,0.0137
1521.00,0.0132
1520.00,0.0128
1519.00,0.0124
1518.00,0.0120
1517.00,0.0117
1516.00,0.0115
1515.00,0.0113
1514.00,0.0112
1513.00,0.0111
1512.00,0.0110
1511.00,0.0108
1510.00,0.0106
1509.00,0.0105
1508.00,0.0106
1507.00,0.0105
1506.00,0.0105
1505.00,0.0106
1504.00,0.0107
1503.00,0.0108
1502.00,0.0110
1501.00,0.0113
1500.00,0.0119
1499.00,0.0126
1498.00,0.0137
1497.00,0.0152
1496.00,0.0166
1495.00,0.0176
1494.00,0.0181
1493.00,0.0183
1492.00,0.0182
1491.00,0.0178
1490.00,0.0172
1489.00,0.0168
1488.00,0.0167
1487.00,0.0168
1486.00,0.0170
1485.00,0.0175
1484.00,0.0180
1483.00,0.0186
1482.00,0.0193
1481.00,0.0203
1480.00,0.0213
1479.00,0.0225
1478.00,0.0239
1477.00,0.0257
1476.00,0.0280
1475.00,0.0305
1474.00,0.0340
1473.00,0.0392
1472.00,0.0456
1471.00,0.0519
1470.00,0.0580
1469.00,0.0645
1468.00,0.0715
1467.00,0.0792
1466.00,0.0881
1465.00,0.0977
1464.00,0.1063
1463.00,0.1125
1462.00,0.1168
1461.00,0.1198
1460.00,0.1221
1459.00,0.1238
1458.00,0.1254
1457.00,0.1268
1456.00,0.1274
1455.00,0.1271
1454.00,0.1262
1453.00,0.1248
1452.00,0.1224
1451.00,0.1187
1450.00,0.1134
1449.00,0.1059
1448.00,0.0963
1447.00,0.0862
1446.00,0.0771
1445.00,0.0694
1444.00,0.0629
1443.00,0.0576
1442.00,0.0537
1441.00,0.0512
1440.00,0.0497
1439.00,0.0492
1438.00,0.0494
1437.00,0.0497
1436.00,0.0487
1435.00,0.0461
1434.00,0.0421
1433.00,0.0374
1432.00,0.0326
1431.00,0.0284
1430.00,0.0253
1429.00,0.0230
1428.00,0.0216
1427.00,0.0208
1426.00,0.0203
1425.00,0.0199
1424.00,0.0196
1423.00,0.0195
1422.00,0.0196
1421.00,0.0196
1420.00,0.0196
1419.00,0.0196
1418.00,0.0196
1417.00,0.0195
1416.00,0.0192
1415.00,0.0190
1414.00,0.0187
1413.00,0.0183
1412.00,0.0179
1411.00,0.0175
1410.00,0.0173
1409.00,0.0171
1408.00,0.0168
1407.00,0.0166
1406.00,0.0165
1405.00,0.0164
1404.00,0.0163
1403.00,0.0163
1402.00,0.0164
1401.00,0.0164
1400.00,0.0164
1399.00,0.0166
1398.00,0.0168
1397.00,0.0169
1396.00,0.0171
1395.00,0.0175
1394.00,0.0180
1393.00,0.0186
1392.00,0.0192
1391.00,0.0200
1390.00,0.0212
1389.00,0.0229
1388.00,0.0255
1387.00,0.0294
1386.00,0.0346
1385.00,0.0411
1384.00,0.0495
1383.00,0.0608
1382.00,0.0757
1381.00,0.0947
1380.00,0.1184
1379.00,0.1459
1378.00,0.1733
1377.00,0.1945
1376.00,0.2033
1375.00,0.1956
1374.00,0.1732
1373.00,0.1446
1372.00,0.1177
1371.00,0.0950
1370.00,0.0768
1369.00,0.0628
1368.00,0.0531
1367.00,0.0471
1366.00,0.0438
1365.00,0.0425
1364.00,0.0427
1363.00,0.0442
1362.00,0.0466
1361.00,0.0492
1360.00,0.0511
1359.00,0.0518
1358.00,0.0507
1357.00,0.0478
1356.00,0.0438
1355.00,0.0392
1354.00,0.0347
1353.00,0.0308
1352.00,0.0277
1351.00,0.0252
1350.00,0.0232
1349.00,0.0217
1348.00,0.0204
1347.00,0.0195
1346.00,0.0187
1345.00,0.0181
1344.00,0.0176
1343.00,0.0172
1342.00,0.0169
1341.00,0.0165
1340.00,0.0162
1339.00,0.0159
1338.00,0.0157
1337.00,0.0156
1336.00,0.0155
1335.00,0.0157
1334.00,0.0159
1333.00,0.0163
1332.00,0.0167
1331.00,0.0171
1330.00,0.0172
1329.00,0.0170
1328.00,0.0166
1327.00,0.0160
1326.00,0.0153
1325.00,0.0145
1324.00,0.0139
1323.00,0.0134
1322.00,0.0129
1321.00,0.0126
1320.00,0.0124
1319.00,0.0122
1318.00,0.0120
1317.00,0.0118
1316.00,0.0116
1315.00,0.0115
1314.00,0.0114
1313.00,0.0113
1312.00,0.0114
1311.00,0.0116
1310.00,0.0120
1309.00,0.0127
1308.00,0.0136
1307.00,0.0148
1306.00,0.0159
1305.00,0.0167
1304.00,0.0171
1303.00,0.0169
1302.00,0.0165
1301.00,0.0161
1300.00,0.0158
1299.00,0.0158
1298.00,0.0158
1297.00,0.0158
1296.00,0.0157
1295.00,0.0154
1294.00,0.0150
1293.00,0.0144
1292.00,0.0138
1291.00,0.0133
1290.00,0.0128
1289.00,0.0123
1288.00,0.0119
1287.00,0.0116
1286.00,0.0113
1285.00,0.0110
1284.00,0.0109
1283.00,0.0107
1282.00,0.0106
1281.00,0.0104
1280.00,0.0102
1279.00,0.0101
1278.00,0.0100
1277.00,0.0099
1276.00,0.0099
1275.00,0.0098
1274.00,0.0098
1273.00,0.0098
1272.00,0.0099
1271.00,0.0099
1270.00,0.0100
1269.00,0.0102
1268.00,0.0104
1267.00,0.0106
1266.00,0.0108
1265.00,0.0110
1264.00,0.0113
1263.00,0.0116
1262.00,0.0120
1261.00,0.0125
1260.00,0.0130
1259.00,0.0138
1258.00,0.0146
1257.00,0.0153
1256.00,0.0158
1255.00,0.0157
1254.00,0.0153
1253.00,0.0146
1252.00,0.0138
1251.00,0.0132
1250.00,0.0127
1249.00,0.0124
1248.00,0.0122
1247.00,0.0120
1246.00,0.0119
1245.00,0.0118
1244.00,0.0117
1243.00,0.0116
1242.00,0.0116
1241.00,0.0115
1240.00,0.0113
1239.00,0.0112
1238.00,0.0110
1237.00,0.0108
1236.00,0.0107
1235.00,0.0107
1234.00,0.0106
1233.00,0.0106
1232.00,0.0105
1231.00,0.0105
1230.00,0.0105
1229.00,0.0106
1228.00,0.0108
1227.00,0.0110
1226.00,0.0112
1225.00,0.0114
1224.00,0.0118
1223.00,0.0121
1222.00,0.0125
1221.00,0.0129
1220.00,0.0131
1219.00,0.0132
1218.00,0.0131
1217.00,0.0129
1216.00,0.0125
1215.00,0.0122
1214.00,0.0118
1213.00,0.0115
1212.00,0.0112
1211.00,0.0109
1210.00,0.0107
1209.00,0.0104
1208.00,0.0101
1207.00,0.0099
1206.00,0.0098
1205.00,0.0097
1204.00,0.0097
1203.00,0.0096
1202.00,0.0096
1201.00,0.0095
1200.00,0.0095
1199.00,0.0095
1198.00,0.0094
1197.00,0.0094
1196.00,0.0094
1195.00,0.0094
1194.00,0.0094
1193.00,0.0094
1192.00,0.0094
1191.00,0.0094
1190.00,0.0095
1189.00,0.0095
1188.00,0.0095
1187.00,0.0095
1186.00,0.0095
1185.00,0.0096
1184.00,0.0098
1183.00,0.0099
1182.00,0.0101
1181.00,0.0104
1180.00,0.0107
1179.00,0.0112
1178.00,0.0119
1177.00,0.0128
1176.00,0.0140
1175.00,0.0155
1174.00,0.0175
1173.00,0.0200
1172.00,0.0229
1171.00,0.0261
1170.00,0.0292
1169.00,0.0317
1168.00,0.0333
1167.00,0.0338
1166.00,0.0333
1165.00,0.0320
1164.00,0.0304
1163.00,0.0287
1162.00,0.0273
1161.00,0.0260
1160.00,0.0249
1159.00,0.0241
1158.00,0.0234
1157.00,0.0229
1156.00,0.0226
1155.00,0.0225
1154.00,0.0224
1153.00,0.0222
1152.00,0.0218
1151.00,0.0212
1150.00,0.0204
1149.00,0.0195
1148.00,0.0186
1147.00,0.0177
1146.00,0.0169
1145.00,0.0162
1144.00,0.0156
1143.00,0.0150
1142.00,0.0145
1141.00,0.0139
1140.00,0.0134
1139.00,0.0129
1138.00,0.0126
1137.00,0.0123
1136.00,0.0120
1135.00,0.0118
1134.00,0.0116
1133.00,0.0115
1132.00,0.0114
1131.00,0.0114
1130.00,0.0115
1129.00,0.0117
1128.00,0.0119
1127.00,0.0122
1126.00,0.0123
1125.00,0.0123
1124.00,0.0123
1123.00,0.0122
1122.00,0.0123
1121.00,0.0124
1120.00,0.0125
1119.00,0.0127
1118.00,0.0129
1117.00,0.0131
1116.00,0.0133
1115.00,0.0135
1114.00,0.0137
1113.00,0.0138
1112.00,0.0141
1111.00,0.0144
1110.00,0.0148
1109.00,0.0153
1108.00,0.0159
1107.00,0.0166
1106.00,0.0174
1105.00,0.0181
1104.00,0.0188
1103.00,0.0192
1102.00,0.0193
1101.00,0.0191
1100.00,0.0187
1099.00,0.0181
1098.00,0.0174
1097.00,0.0169
1096.00,0.0164
1095.00,0.0161
1094.00,0.0159
1093.00,0.0156
1092.00,0.0153
1091.00,0.0150
1090.00,0.0147
1089.00,0.0145
1088.00,0.0143
1087.00,0.0142
1086.00,0.0142
1085.00,0.0142
1084.00,0.0142
1083.00,0.0143
1082.00,0.0143
1081.00,0.0141
1080.00,0.0138
1079.00,0.0134
1078.00,0.0130
1077.00,0.0127
1076.00,0.0124
1075.00,0.0123
1074.00,0.0123
1073.00,0.0122
1072.00,0.0122
1071.00,0.0122
1070.00,0.0122
1069.00,0.0122
1068.00,0.0121
1067.00,0.0121
1066.00,0.0121
1065.00,0.0121
1064.00,0.0121
1063.00,0.0121
1062.00,0.0120
1061.00,0.0120
1060.00,0.0119
1059.00,0.0120
1058.00,0.0121
1057.00,0.0122
1056.00,0.0123
1055.00,0.0124
1054.00,0.0124
1053.00,0.0125
1052.00,0.0125
1051.00,0.0126
1050.00,0.0128
1049.00,0.0131
1048.00,0.0133
1047.00,0.0136
1046.00,0.0138
1045.00,0.0139
1044.00,0.0139
1043.00,0.0138
1042.00,0.0135
1041.00,0.0132
1040.00,0.0130
1039.00,0.0128
1038.00,0.0128
1037.00,0.0129
1036.00,0.0130
1035.00,0.0130
1034.00,0.0130
1033.00,0.0128
1032.00,0.0127
1031.00,0.0125
1030.00,0.0125
1029.00,0.0124
1028.00,0.0123
1027.00,0.0121
1026.00,0.0120
1025.00,0.0118
1024.00,0.0118
1023.00,0.0117
1022.00,0.0117
1021.00,0.0117
1020.00,0.0118
1019.00,0.0120
1018.00,0.0122
1017.00,0.0124
1016.00,0.0127
1015.00,0.0130
1014.00,0.0133
1013.00,0.0137
1012.00,0.0140
1011.00,0.0142
1010.00,0.0144
1009.00,0.0146
1008.00,0.0150
1007.00,0.0155
1006.00,0.0163
1005.00,0.0174
1004.00,0.0189
1003.00,0.0209
1002.00,0.0237
1001.00,0.0271
1000.00,0.0307
999.00,0.0337
998.00,0.0351
997.00,0.0345
996.00,0.0320
995.00,0.0284
994.00,0.0246
993.00,0.0213
992.00,0.0185
991.00,0.0164
990.00,0.0148
989.00,0.0138
988.00,0.0131
987.00,0.0128
986.00,0.0128
985.00,0.0130
984.00,0.0134
983.00,0.0141
982.00,0.0152
981.00,0.0168
980.00,0.0189
979.00,0.0218
978.00,0.0254
977.00,0.0295
976.00,0.0339
975.00,0.0380
974.00,0.0412
973.00,0.0424
972.00,0.0411
971.00,0.0377
970.00,0.0329
969.00,0.0279
968.00,0.0235
967.00,0.0201
966.00,0.0175
965.00,0.0156
964.00,0.0142
963.00,0.0133
962.00,0.0125
961.00,0.0119
960.00,0.0113
959.00,0.0108
958.00,0.0104
957.00,0.0102
956.00,0.0101
955.00,0.0100
954.00,0.0099
953.00,0.0097
952.00,0.0096
951.00,0.0095
950.00,0.0094
949.00,0.0094
948.00,0.0094
947.00,0.0095
946.00,0.0097
945.00,0.0101
944.00,0.0106
943.00,0.0110
942.00,0.0114
941.00,0.0116
940.00,0.0114
939.00,0.0111
938.00,0.0106
937.00,0.0101
936.00,0.0096
935.00,0.0092
934.00,0.0089
933.00,0.0087
932.00,0.0085
931.00,0.0083
930.00,0.0082
929.00,0.0080
928.00,0.0079
927.00,0.0079
926.00,0.0078
925.00,0.0078
924.00,0.0078
923.00,0.0078
922.00,0.0078
921.00,0.0078
920.00,0.0079
919.00,0.0081
918.00,0.0083
917.00,0.0084
916.00,0.0085
915.00,0.0085
914.00,0.0086
913.00,0.0086
912.00,0.0086
911.00,0.0087
910.00,0.0088
909.00,0.0090
908.00,0.0093
907.00,0.0097
906.00,0.0105
905.00,0.0116
904.00,0.0131
903.00,0.0151
902.00,0.0173
901.00,0.0194
900.00,0.0207
899.00,0.0211
898.00,0.0202
897.00,0.0186
896.00,0.0166
895.00,0.0147
894.00,0.0131
893.00,0.0118
892.00,0.0109
891.00,0.0101
890.00,0.0096
889.00,0.0092
888.00,0.0089
887.00,0.0089
886.00,0.0089
885.00,0.0088
884.00,0.0087
883.00,0.0086
882.00,0.0086
881.00,0.0086
880.00,0.0086
879.00,0.0087
878.00,0.0087
877.00,0.0088
876.00,0.0089
875.00,0.0089
874.00,0.0088
873.00,0.0087
872.00,0.0087
871.00,0.0086
870.00,0.0086
869.00,0.0086
868.00,0.0086
867.00,0.0086
866.00,0.0088
865.00,0.0089
864.00,0.0090
863.00,0.0091
862.00,0.0093
861.00,0.0096
860.00,0.0098
859.00,0.0101
858.00,0.0101
857.00,0.0101
856.00,0.0101
855.00,0.0103
854.00,0.0106
853.00,0.0108
852.00,0.0111
851.00,0.0114
850.00,0.0119
849.00,0.0127
848.00,0.0137
847.00,0.0152
846.00,0.0174
845.00,0.0206
844.00,0.0248
843.00,0.0293
842.00,0.0326
841.00,0.0334
840.00,0.0313
839.00,0.0274
838.00,0.0232
837.00,0.0200
836.00,0.0179
835.00,0.0166
834.00,0.0157
833.00,0.0151
832.00,0.0147
831.00,0.0144
830.00,0.0143
829.00,0.0142
828.00,0.0141
827.00,0.0140
826.00,0.0140
825.00,0.0140
824.00,0.0139
823.00,0.0138
822.00,0.0135
821.00,0.0132
820.00,0.0131
819.00,0.0132
818.00,0.0136
817.00,0.0144
816.00,0.0154
815.00,0.0165
814.00,0.0179
813.00,0.0194
812.00,0.0211
811.00,0.0227
810.00,0.0240
809.00,0.0246
808.00,0.0243
807.00,0.0233
806.00,0.0216
805.00,0.0198
804.00,0.0182
803.00,0.0168
802.00,0.0157
801.00,0.0149
800.00,0.0142
799.00,0.0137
798.00,0.0131
797.00,0.0126
796.00,0.0121
795.00,0.0117
794.00,0.0112
793.00,0.0108
792.00,0.0105
791.00,0.0104
790.00,0.0103
789.00,0.0102
788.00,0.0100
787.00,0.0099
786.00,0.0097
785.00,0.0095
784.00,0.0093
783.00,0.0091
782.00,0.0088
781.00,0.0085
780.00,0.0083
779.00,0.0082
778.00,0.0081
777.00,0.0082
776.00,0.0084
775.00,0.0086
774.00,0.0089
773.00,0.0091
772.00,0.0094
771.00,0.0097
770.00,0.0100
769.00,0.0102
768.00,0.0104
767.00,0.0105
766.00,0.0105
765.00,0.0104
764.00,0.0103
763.00,0.0100
762.00,0.0097
761.00,0.0094
760.00,0.0092
759.00,0.0091
758.00,0.0091
757.00,0.0091
756.00,0.0090
755.00,0.0089
754.00,0.0088
753.00,0.0087
752.00,0.0087
751.00,0.0088
750.00,0.0088
749.00,0.0089
748.00,0.0089
747.00,0.0089
746.00,0.0089
745.00,0.0089
744.00,0.0091
743.00,0.0092
742.00,0.0093
741.00,0.0094
740.00,0.0095
739.00,0.0096
738.00,0.0098
737.00,0.0100
736.00,0.0102
735.00,0.0104
734.00,0.0106
733.00,0.0108
732.00,0.0110
731.00,0.0111
730.00,0.0112
729.00,0.0113
728.00,0.0113
727.00,0.0114
726.00,0.0114
725.00,0.0114
724.00,0.0113
723.00,0.0113
722.00,0.0112
721.00,0.0110
720.00,0.0109
719.00,0.0106
718.00,0.0104
717.00,0.0101
716.00,0.0099
715.00,0.0097
714.00,0.0095
713.00,0.0094
712.00,0.0094
711.00,0.0093
710.00,0.0093
709.00,0.0094
708.00,0.0095
707.00,0.0095
706.00,0.0095
705.00,0.0096
704.00,0.0097
703.00,0.0098
702.00,0.0096
701.00,0.0093
700.00,0.0089
699.00,0.0086
698.00,0.0085
697.00,0.0085
696.00,0.0086
695.00,0.0086
694.00,0.0085
693.00,0.0083
692.00,0.0083
691.00,0.0083
690.00,0.0085
689.00,0.0087
688.00,0.0087
687.00,0.0087
686.00,0.0087
685.00,0.0086
684.00,0.0086
683.00,0.0087
682.00,0.0088
681.00,0.0087
680.00,0.0087
679.00,0.0088
678.00,0.0089
677.00,0.0089
676.00,0.0087
675.00,0.0085
674.00,0.0085
673.00,0.0086
672.00,0.0087
671.00,0.0087
670.00,0.0086
669.00,0.0086
668.00,0.0088
667.00,0.0090
666.00,0.0090
665.00,0.0088
664.00,0.0086
663.00,0.0083
662.00,0.0082
661.00,0.0083
660.00,0.0084
659.00,0.0085
658.00,0.0085
657.00,0.0085
656.00,0.0084
655.00,0.0083
654.00,0.0082
653.00,0.0080
652.00,0.0080
651.00,0.0081
650.00,0.0083
649.00,0.0086
648.00,0.0087
647.00,0.0088
646.00,0.0089
645.00,0.0091
644.00,0.0092
643.00,0.0094
642.00,0.0093
641.00,0.0091
640.00,0.0089
639.00,0.0088
638.00,0.0088
637.00,0.0087
636.00,0.0087
635.00,0.0086
634.00,0.0087
633.00,0.0087
632.00,0.0088
631.00,0.0088
630.00,0.0087
629.00,0.0085
628.00,0.0082
627.00,0.0079
626.00,0.0078
625.00,0.0080
624.00,0.0083
623.00,0.0086
622.00,0.0088
621.00,0.0091
620.00,0.0094
619.00,0.0096
618.00,0.0097
617.00,0.0096
616.00,0.0093
615.00,0.0092
614.00,0.0091
613.00,0.0092
612.00,0.0092
611.00,0.0092
610.00,0.0091
609.00,0.0091
608.00,0.0090
607.00,0.0090
606.00,0.0089
605.00,0.0088
604.00,0.0087
603.00,0.0089
602.00,0.0091
601.00,0.0091
600.00,0.0090
599.00,0.0087
598.00,0.0086
597.00,0.0088
596.00,0.0090
595.00,0.0092
594.00,0.0093
593.00,0.0093
592.00,0.0095
591.00,0.0096
590.00,0.0097
589.00,0.0096
588.00,0.0096
587.00,0.0098
586.00,0.0100
585.00,0.0102
584.00,0.0101
583.00,0.0099
582.00,0.0097
581.00,0.0095
580.00,0.0095
579.00,0.0095
578.00,0.0096
577.00,0.0096
576.00,0.0097
575.00,0.0098
574.00,0.0098
573.00,0.0098
572.00,0.0097
571.00,0.0096
570.00,0.0097
569.00,0.0098
568.00,0.0098
567.00,0.0096
566.00,0.0095
565.00,0.0094
564.00,0.0095
563.00,0.0096
562.00,0.0097
561.00,0.0098
560.00,0.0096
559.00,0.0095
558.00,0.0094
557.00,0.0095
556.00,0.0097
555.00,0.0097
554.00,0.0096
553.00,0.0095
552.00,0.0096
551.00,0.0097
550.00,0.0098
549.00,0.0097
548.00,0.0096
547.00,0.0095
546.00,0.0095
545.00,0.0094
544.00,0.0097
543.00,0.0103
542.00,0.0110
541.00,0.0116
540.00,0.0117
539.00,0.0114
538.00,0.0109
537.00,0.0104
536.00,0.0102
535.00,0.0103
534.00,0.0105
533.00,0.0107
532.00,0.0108
531.00,0.0109
530.00,0.0113
529.00,0.0119
528.00,0.0124
527.00,0.0128
526.00,0.0129
525.00,0.0125
524.00,0.0119
523.00,0.0114
522.00,0.0109
521.00,0.0104
520.00,0.0099
519.00,0.0096
518.00,0.0097
517.00,0.0101
516.00,0.0106
515.00,0.0109
514.00,0.0111
513.00,0.0111
512.00,0.0109
511.00,0.0105
510.00,0.0101
509.00,0.0098
508.00,0.0098
507.00,0.0099
506.00,0.0102
505.00,0.0103
504.00,0.0105
503.00,0.0105
502.00,0.0102
501.00,0.0094
500.00,0.0085
499.00,0.0082
498.00,0.0086
497.00,0.0094
496.00,0.0098
495.00,0.0099
494.00,0.0098
493.00,0.0098
492.00,0.0095
491.00,0.0089
490.00,0.0078
489.00,0.0066
488.00,0.0058
487.00,0.0055
486.00,0.0058
485.00,0.0064
484.00,0.0070
483.00,0.0077
482.00,0.0085
481.00,0.0094
480.00,0.0100
479.00,0.0102
478.00,0.0103
477.00,0.0108
476.00,0.0113
475.00,0.0117
474.00,0.0118
473.00,0.0118
472.00,0.0118
471.00,0.0121
470.00,0.0125
469.00,0.0131
468.00,0.0134
467.00,0.0134
466.00,0.0131
465.00,0.0127
464.00,0.0128
463.00,0.0137
462.00,0.0159
461.00,0.0187
460.00,0.0212
459.00,0.0223
458.00,0.0218
457.00,0.0206
456.00,0.0194
455.00,0.0183
454.00,0.0172
453.00,0.0161
452.00,0.0150
451.00,0.0138
450.00,0.0124
