Created as New Dataset,Sample 007 By Administrator Date Tuesday, September 09 2025
cm-1,A
4000.00,0.0012
3999.00,0.0012
3998.00,0.0013
3997.00,0.0013
3996.00,0.0012
3995.00,0.0013
3994.00,0.0012
3993.00,0.0012
3992.00,0.0012
3991.00,0.0011
3990.00,0.0011
3989.00,0.0011
3988.00,0.0011
3987.00,0.0012
3986.00,0.0011
3985.00,0.0011
3984.00,0.0011
3983.00,0.0011
3982.00,0.0010
3981.00,0.0010
3980.00,0.0010
3979.00,0.0010
3978.00,0.0010
3977.00,0.0010
3976.00,0.0010
3975.00,0.0010
3974.00,0.0011
3973.00,0.0011
3972.00,0.0011
3971.00,0.0011
3970.00,0.0011
3969.00,0.0011
3968.00,0.0010
3967.00,0.0010
3966.00,0.0010
3965.00,0.0010
3964.00,0.0010
3963.00,0.0010
3962.00,0.0010
3961.00,0.0010
3960.00,0.0010
3959.00,0.0010
3958.00,0.0010
3957.00,0.0010
3956.00,0.0010
3955.00,0.0010
3954.00,0.0010
3953.00,0.0009
3952.00,0.0009
3951.00,0.0009
3950.00,0.0010
3949.00,0.0010
3948.00,0.0010
3947.00,0.0010
3946.00,0.0010
3945.00,0.0010
3944.00,0.0010
3943.00,0.0010
3942.00,0.0010
3941.00,0.0010
3940.00,0.0010
3939.00,0.0010
3938.00,0.0010
3937.00,0.0010
3936.00,0.0010
3935.00,0.0011
3934.00,0.0011
3933.00,0.0011
3932.00,0.0012
3931.00,0.0012
3930.00,0.0012
3929.00,0.0011
3928.00,0.0011
3927.00,0.0011
3926.00,0.0010
3925.00,0.0010
3924.00,0.0010
3923.00,0.0011
3922.00,0.0011
3921.00,0.0011
3920.00,0.0011
3919.00,0.0011
3918.00,0.0011
3917.00,0.0010
3916.00,0.0010
3915.00,0.0010
3914.00,0.0010
3913.00,0.0010
3912.00,0.0010
3911.00,0.0010
3910.00,0.0010
3909.00,0.0010
3908.00,0.0010
3907.00,0.0010
3906.00,0.0010
3905.00,0.0010
3904.00,0.0011
3903.00,0.0011
3902.00,0.0011
3901.00,0.0011
3900.00,0.0010
3899.00,0.0010
3898.00,0.0010
3897.00,0.0010
3896.00,0.0011
3895.00,0.0011
3894.00,0.0011
3893.00,0.0011
3892.00,0.0011
3891.00,0.0011
3890.00,0.0011
3889.00,0.0011
3888.00,0.0011
3887.00,0.0011
3886.00,0.0011
3885.00,0.0011
3884.00,0.0010
3883.00,0.0010
3882.00,0.0010
3881.00,0.0010
3880.00,0.0010
3879.00,0.0010
3878.00,0.0010
3877.00,0.0011
3876.00,0.0011
3875.00,0.0010
3874.00,0.0010
3873.00,0.0010
3872.00,0.0010
3871.00,0.0011
3870.00,0.0011
3869.00,0.0010
3868.00,0.0010
3867.00,0.0010
3866.00,0.0010
3865.00,0.0011
3864.00,0.0011
3863.00,0.0011
3862.00,0.0011
3861.00,0.0011
3860.00,0.0011
3859.00,0.0011
3858.00,0.0011
3857.00,0.0011
3856.00,0.0010
3855.00,0.0010
3854.00,0.0010
3853.00,0.0010
3852.00,0.0010
3851.00,0.0010
3850.00,0.0010
3849.00,0.0010
3848.00,0.0010
3847.00,0.0010
3846.00,0.0010
3845.00,0.0010
3844.00,0.0010
3843.00,0.0010
3842.00,0.0011
3841.00,0.0012
3840.00,0.0012
3839.00,0.0012
3838.00,0.0012
3837.00,0.0012
3836.00,0.0011
3835.00,0.0011
3834.00,0.0010
3833.00,0.0010
3832.00,0.0010
3831.00,0.0011
3830.00,0.0011
3829.00,0.0011
3828.00,0.0011
3827.00,0.0011
3826.00,0.0011
3825.00,0.0011
3824.00,0.0011
3823.00,0.0011
3822.00,0.0011
3821.00,0.0012
3820.00,0.0012
3819.00,0.0012
3818.00,0.0011
3817.00,0.0011
3816.00,0.0010
3815.00,0.0009
3814.00,0.0009
3813.00,0.0009
3812.00,0.0010
3811.00,0.0010
3810.00,0.0010
3809.00,0.0011
3808.00,0.0011
3807.00,0.0011
3806.00,0.0011
3805.00,0.0011
3804.00,0.0011
3803.00,0.0011
3802.00,0.0011
3801.00,0.0011
3800.00,0.0010
3799.00,0.0010
3798.00,0.0010
3797.00,0.0010
3796.00,0.0010
3795.00,0.0009
3794.00,0.0009
3793.00,0.0009
3792.00,0.0009
3791.00,0.0009
3790.00,0.0009
3789.00,0.0009
3788.00,0.0009
3787.00,0.0009
3786.00,0.0009
3785.00,0.0009
3784.00,0.0010
3783.00,0.0010
3782.00,0.0010
3781.00,0.0010
3780.00,0.0010
3779.00,0.0010
3778.00,0.0010
3777.00,0.0010
3776.00,0.0011
3775.00,0.0011
3774.00,0.0011
3773.00,0.0011
3772.00,0.0011
3771.00,0.0011
3770.00,0.0012
3769.00,0.0012
3768.00,0.0012
3767.00,0.0012
3766.00,0.0012
3765.00,0.0012
3764.00,0.0011
3763.00,0.0011
3762.00,0.0011
3761.00,0.0011
3760.00,0.0011
3759.00,0.0011
3758.00,0.0011
3757.00,0.0011
3756.00,0.0011
3755.00,0.0012
3754.00,0.0012
3753.00,0.0013
3752.00,0.0014
3751.00,0.0014
3750.00,0.0014
3749.00,0.0013
3748.00,0.0012
3747.00,0.0012
3746.00,0.0011
3745.00,0.0011
3744.00,0.0011
3743.00,0.0010
3742.00,0.0010
3741.00,0.0011
3740.00,0.0011
3739.00,0.0011
3738.00,0.0011
3737.00,0.0011
3736.00,0.0011
3735.00,0.0011
3734.00,0.0011
3733.00,0.0011
3732.00,0.0011
3731.00,0.0011
3730.00,0.0010
3729.00,0.0010
3728.00,0.0010
3727.00,0.0010
3726.00,0.0010
3725.00,0.0010
3724.00,0.0009
3723.00,0.0009
3722.00,0.0009
3721.00,0.0009
3720.00,0.0009
3719.00,0.0009
3718.00,0.0009
3717.00,0.0010
3716.00,0.0010
3715.00,0.0010
3714.00,0.0010
3713.00,0.0010
3712.00,0.0010
3711.00,0.0010
3710.00,0.0010
3709.00,0.0010
3708.00,0.0010
3707.00,0.0009
3706.00,0.0009
3705.00,0.0009
3704.00,0.0008
3703.00,0.0008
3702.00,0.0008
3701.00,0.0008
3700.00,0.0008
3699.00,0.0008
3698.00,0.0008
3697.00,0.0009
3696.00,0.0009
3695.00,0.0009
3694.00,0.0010
3693.00,0.0010
3692.00,0.0010
3691.00,0.0010
3690.00,0.0010
3689.00,0.0010
3688.00,0.0010
3687.00,0.0010
3686.00,0.0010
3685.00,0.0010
3684.00,0.0011
3683.00,0.0011
3682.00,0.0011
3681.00,0.0010
3680.00,0.0011
3679.00,0.0011
3678.00,0.0012
3677.00,0.0012
3676.00,0.0012
3675.00,0.0012
3674.00,0.0012
3673.00,0.0013
3672.00,0.0013
3671.00,0.0012
3670.00,0.0011
3669.00,0.0011
3668.00,0.0011
3667.00,0.0011
3666.00,0.0012
3665.00,0.0012
3664.00,0.0011
3663.00,0.0011
3662.00,0.0010
3661.00,0.0010
3660.00,0.0011
3659.00,0.0012
3658.00,0.0012
3657.00,0.0013
3656.00,0.0013
3655.00,0.0013
3654.00,0.0013
3653.00,0.0013
3652.00,0.0013
3651.00,0.0013
3650.00,0.0013
3649.00,0.0013
3648.00,0.0013
3647.00,0.0013
3646.00,0.0013
3645.00,0.0013
3644.00,0.0013
3643.00,0.0013
3642.00,0.0013
3641.00,0.0013
3640.00,0.0013
3639.00,0.0013
3638.00,0.0013
3637.00,0.0013
3636.00,0.0013
3635.00,0.0012
3634.00,0.0013
3633.00,0.0013
3632.00,0.0014
3631.00,0.0014
3630.00,0.0014
3629.00,0.0013
3628.00,0.0013
3627.00,0.0013
3626.00,0.0013
3625.00,0.0014
3624.00,0.0014
3623.00,0.0014
3622.00,0.0014
3621.00,0.0014
3620.00,0.0014
3619.00,0.0014
3618.00,0.0015
3617.00,0.0015
3616.00,0.0016
3615.00,0.0016
3614.00,0.0017
3613.00,0.0017
3612.00,0.0017
3611.00,0.0017
3610.00,0.0017
3609.00,0.0017
3608.00,0.0016
3607.00,0.0016
3606.00,0.0016
3605.00,0.0016
3604.00,0.0016
3603.00,0.0017
3602.00,0.0017
3601.00,0.0017
3600.00,0.0017
3599.00,0.0017
3598.00,0.0017
3597.00,0.0017
3596.00,0.0018
3595.00,0.0018
3594.00,0.0018
3593.00,0.0019
3592.00,0.0019
3591.00,0.0020
3590.00,0.0020
3589.00,0.0020
3588.00,0.0019
3587.00,0.0019
3586.00,0.0018
3585.00,0.0019
3584.00,0.0019
3583.00,0.0020
3582.00,0.0021
3581.00,0.0021
3580.00,0.0022
3579.00,0.0021
3578.00,0.0021
3577.00,0.0022
3576.00,0.0022
3575.00,0.0022
3574.00,0.0023
3573.00,0.0023
3572.00,0.0024
3571.00,0.0024
3570.00,0.0025
3569.00,0.0025
3568.00,0.0026
3567.00,0.0026
3566.00,0.0026
3565.00,0.0025
3564.00,0.0025
3563.00,0.0025
3562.00,0.0026
3561.00,0.0026
3560.00,0.0026
3559.00,0.0026
3558.00,0.0026
3557.00,0.0026
3556.00,0.0026
3555.00,0.0026
3554.00,0.0027
3553.00,0.0027
3552.00,0.0028
3551.00,0.0028
3550.00,0.0029
3549.00,0.0029
3548.00,0.0029
3547.00,0.0029
3546.00,0.0029
3545.00,0.0029
3544.00,0.0028
3543.00,0.0028
3542.00,0.0028
3541.00,0.0029
3540.00,0.0029
3539.00,0.0029
3538.00,0.0029
3537.00,0.0029
3536.00,0.0030
3535.00,0.0030
3534.00,0.0031
3533.00,0.0031
3532.00,0.0032
3531.00,0.0032
3530.00,0.0032
3529.00,0.0032
3528.00,0.0032
3527.00,0.0033
3526.00,0.0033
3525.00,0.0033
3524.00,0.0033
3523.00,0.0034
3522.00,0.0034
3521.00,0.0034
3520.00,0.0034
3519.00,0.0034
3518.00,0.0034
3517.00,0.0034
3516.00,0.0034
3515.00,0.0034
3514.00,0.0035
3513.00,0.0035
3512.00,0.0035
3511.00,0.0035
3510.00,0.0035
3509.00,0.0036
3508.00,0.0036
3507.00,0.0037
3506.00,0.0037
3505.00,0.0037
3504.00,0.0037
3503.00,0.0037
3502.00,0.0037
3501.00,0.0037
3500.00,0.0037
3499.00,0.0037
3498.00,0.0038
3497.00,0.0038
3496.00,0.0039
3495.00,0.0039
3494.00,0.0040
3493.00,0.0040
3492.00,0.0040
3491.00,0.0040
3490.00,0.0040
3489.00,0.0041
3488.00,0.0041
3487.00,0.0041
3486.00,0.0042
3485.00,0.0042
3484.00,0.0043
3483.00,0.0043
3482.00,0.0043
3481.00,0.0043
3480.00,0.0043
3479.00,0.0043
3478.00,0.0043
3477.00,0.0042
3476.00,0.0042
3475.00,0.0042
3474.00,0.0043
3473.00,0.0043
3472.00,0.0044
3471.00,0.0044
3470.00,0.0044
3469.00,0.0044
3468.00,0.0044
3467.00,0.0045
3466.00,0.0045
3465.00,0.0046
3464.00,0.0046
3463.00,0.0047
3462.00,0.0047
3461.00,0.0047
3460.00,0.0047
3459.00,0.0048
3458.00,0.0048
3457.00,0.0048
3456.00,0.0048
3455.00,0.0048
3454.00,0.0049
3453.00,0.0049
3452.00,0.0049
3451.00,0.0050
3450.00,0.0050
3449.00,0.0050
3448.00,0.0050
3447.00,0.0051
3446.00,0.0051
3445.00,0.0051
3444.00,0.0051
3443.00,0.0051
3442.00,0.0051
3441.00,0.0051
3440.00,0.0052
3439.00,0.0052
3438.00,0.0052
3437.00,0.0052
3436.00,0.0053
3435.00,0.0053
3434.00,0.0054
3433.00,0.0054
3432.00,0.0054
3431.00,0.0054
3430.00,0.0054
3429.00,0.0054
3428.00,0.0053
3427.00,0.0053
3426.00,0.0054
3425.00,0.0054
3424.00,0.0055
3423.00,0.0055
3422.00,0.0055
3421.00,0.0055
3420.00,0.0055
3419.00,0.0055
3418.00,0.0056
3417.00,0.0056
3416.00,0.0056
3415.00,0.0056
3414.00,0.0057
3413.00,0.0057
3412.00,0.0057
3411.00,0.0057
3410.00,0.0057
3409.00,0.0057
3408.00,0.0057
3407.00,0.0057
3406.00,0.0057
3405.00,0.0057
3404.00,0.0057
3403.00,0.0057
3402.00,0.0058
3401.00,0.0057
3400.00,0.0057
3399.00,0.0057
3398.00,0.0058
3397.00,0.0058
3396.00,0.0058
3395.00,0.0058
3394.00,0.0058
3393.00,0.0058
3392.00,0.0058
3391.00,0.0058
3390.00,0.0058
3389.00,0.0058
3388.00,0.0058
3387.00,0.0059
3386.00,0.0059
3385.00,0.0059
3384.00,0.0059
3383.00,0.0059
3382.00,0.0059
3381.00,0.0060
3380.00,0.0060
3379.00,0.0060
3378.00,0.0060
3377.00,0.0060
3376.00,0.0060
3375.00,0.0060
3374.00,0.0060
3373.00,0.0060
3372.00,0.0060
3371.00,0.0060
3370.00,0.0060
3369.00,0.0060
3368.00,0.0061
3367.00,0.0061
3366.00,0.0061
3365.00,0.0061
3364.00,0.0061
3363.00,0.0062
3362.00,0.0062
3361.00,0.0062
3360.00,0.0062
3359.00,0.0062
3358.00,0.0062
3357.00,0.0062
3356.00,0.0062
3355.00,0.0062
3354.00,0.0062
3353.00,0.0062
3352.00,0.0062
3351.00,0.0062
3350.00,0.0062
3349.00,0.0062
3348.00,0.0062
3347.00,0.0062
3346.00,0.0061
3345.00,0.0061
3344.00,0.0061
3343.00,0.0061
3342.00,0.0062
3341.00,0.0062
3340.00,0.0062
3339.00,0.0062
3338.00,0.0062
3337.00,0.0062
3336.00,0.0061
3335.00,0.0061
3334.00,0.0061
3333.00,0.0061
3332.00,0.0061
3331.00,0.0061
3330.00,0.0061
3329.00,0.0061
3328.00,0.0060
3327.00,0.0060
3326.00,0.0060
3325.00,0.0061
3324.00,0.0061
3323.00,0.0062
3322.00,0.0062
3321.00,0.0061
3320.00,0.0061
3319.00,0.0061
3318.00,0.0061
3317.00,0.0061
3316.00,0.0061
3315.00,0.0061
3314.00,0.0060
3313.00,0.0060
3312.00,0.0060
3311.00,0.0060
3310.00,0.0060
3309.00,0.0059
3308.00,0.0059
3307.00,0.0059
3306.00,0.0059
3305.00,0.0059
3304.00,0.0059
3303.00,0.0060
3302.00,0.0060
3301.00,0.0060
3300.00,0.0060
3299.00,0.0060
3298.00,0.0059
3297.00,0.0059
3296.00,0.0059
3295.00,0.0059
3294.00,0.0059
3293.00,0.0059
3292.00,0.0058
3291.00,0.0058
3290.00,0.0058
3289.00,0.0058
3288.00,0.0058
3287.00,0.0059
3286.00,0.0058
3285.00,0.0057
3284.00,0.0057
3283.00,0.0057
3282.00,0.0057
3281.00,0.0057
3280.00,0.0057
3279.00,0.0057
3278.00,0.0057
3277.00,0.0057
3276.00,0.0057
3275.00,0.0056
3274.00,0.0056
3273.00,0.0056
3272.00,0.0056
3271.00,0.0056
3270.00,0.0056
3269.00,0.0056
3268.00,0.0056
3267.00,0.0056
3266.00,0.0056
3265.00,0.0055
3264.00,0.0055
3263.00,0.0055
3262.00,0.0055
3261.00,0.0055
3260.00,0.0054
3259.00,0.0054
3258.00,0.0054
3257.00,0.0054
3256.00,0.0054
3255.00,0.0053
3254.00,0.0053
3253.00,0.0053
3252.00,0.0053
3251.00,0.0052
3250.00,0.0052
3249.00,0.0053
3248.00,0.0053
3247.00,0.0053
3246.00,0.0053
3245.00,0.0053
3244.00,0.0053
3243.00,0.0053
3242.00,0.0053
3241.00,0.0053
3240.00,0.0053
3239.00,0.0052
3238.00,0.0052
3237.00,0.0052
3236.00,0.0052
3235.00,0.0052
3234.00,0.0052
3233.00,0.0052
3232.00,0.0052
3231.00,0.0053
3230.00,0.0053
3229.00,0.0053
3228.00,0.0054
3227.00,0.0054
3226.00,0.0054
3225.00,0.0054
3224.00,0.0054
3223.00,0.0054
3222.00,0.0054
3221.00,0.0054
3220.00,0.0054
3219.00,0.0053
3218.00,0.0053
3217.00,0.0053
3216.00,0.0053
3215.00,0.0054
3214.00,0.0054
3213.00,0.0055
3212.00,0.0055
3211.00,0.0055
3210.00,0.0056
3209.00,0.0056
3208.00,0.0056
3207.00,0.0056
3206.00,0.0056
3205.00,0.0056
3204.00,0.0056
3203.00,0.0056
3202.00,0.0056
3201.00,0.0056
3200.00,0.0056
3199.00,0.0056
3198.00,0.0056
3197.00,0.0056
3196.00,0.0056
3195.00,0.0056
3194.00,0.0056
3193.00,0.0056
3192.00,0.0056
3191.00,0.0055
3190.00,0.0055
3189.00,0.0055
3188.00,0.0055
3187.00,0.0055
3186.00,0.0055
3185.00,0.0055
3184.00,0.0054
3183.00,0.0054
3182.00,0.0054
3181.00,0.0054
3180.00,0.0054
3179.00,0.0053
3178.00,0.0053
3177.00,0.0053
3176.00,0.0052
3175.00,0.0052
3174.00,0.0052
3173.00,0.0052
3172.00,0.0052
3171.00,0.0052
3170.00,0.0052
3169.00,0.0051
3168.00,0.0051
3167.00,0.0051
3166.00,0.0050
3165.00,0.0050
3164.00,0.0050
3163.00,0.0050
3162.00,0.0050
3161.00,0.0050
3160.00,0.0050
3159.00,0.0049
3158.00,0.0049
3157.00,0.0049
3156.00,0.0049
3155.00,0.0049
3154.00,0.0049
3153.00,0.0049
3152.00,0.0049
3151.00,0.0049
3150.00,0.0049
3149.00,0.0049
3148.00,0.0048
3147.00,0.0048
3146.00,0.0048
3145.00,0.0047
3144.00,0.0047
3143.00,0.0048
3142.00,0.0048
3141.00,0.0048
3140.00,0.0048
3139.00,0.0048
3138.00,0.0047
3137.00,0.0047
3136.00,0.0047
3135.00,0.0047
3134.00,0.0046
3133.00,0.0046
3132.00,0.0045
3131.00,0.0045
3130.00,0.0044
3129.00,0.0044
3128.00,0.0044
3127.00,0.0043
3126.00,0.0043
3125.00,0.0043
3124.00,0.0043
3123.00,0.0043
3122.00,0.0043
3121.00,0.0042
3120.00,0.0042
3119.00,0.0041
3118.00,0.0041
3117.00,0.0041
3116.00,0.0041
3115.00,0.0041
3114.00,0.0041
3113.00,0.0041
3112.00,0.0041
3111.00,0.0041
3110.00,0.0041
3109.00,0.0040
3108.00,0.0040
3107.00,0.0040
3106.00,0.0039
3105.00,0.0039
3104.00,0.0039
3103.00,0.0038
3102.00,0.0038
3101.00,0.0038
3100.00,0.0039
3099.00,0.0039
3098.00,0.0039
3097.00,0.0039
3096.00,0.0039
3095.00,0.0039
3094.00,0.0039
3093.00,0.0038
3092.00,0.0038
3091.00,0.0038
3090.00,0.0038
3089.00,0.0038
3088.00,0.0038
3087.00,0.0037
3086.00,0.0037
3085.00,0.0037
3084.00,0.0037
3083.00,0.0037
3082.00,0.0038
3081.00,0.0038
3080.00,0.0038
3079.00,0.0038
3078.00,0.0038
3077.00,0.0038
3076.00,0.0038
3075.00,0.0038
3074.00,0.0039
3073.00,0.0039
3072.00,0.0039
3071.00,0.0038
3070.00,0.0038
3069.00,0.0038
3068.00,0.0038
3067.00,0.0038
3066.00,0.0038
3065.00,0.0039
3064.00,0.0039
3063.00,0.0039
3062.00,0.0038
3061.00,0.0038
3060.00,0.0038
3059.00,0.0038
3058.00,0.0038
3057.00,0.0039
3056.00,0.0039
3055.00,0.0039
3054.00,0.0039
3053.00,0.0039
3052.00,0.0039
3051.00,0.0039
3050.00,0.0040
3049.00,0.0040
3048.00,0.0040
3047.00,0.0041
3046.00,0.0041
3045.00,0.0041
3044.00,0.0041
3043.00,0.0041
3042.00,0.0041
3041.00,0.0041
3040.00,0.0040
3039.00,0.0040
3038.00,0.0041
3037.00,0.0041
3036.00,0.0041
3035.00,0.0041
3034.00,0.0042
3033.00,0.0042
3032.00,0.0043
3031.00,0.0043
3030.00,0.0044
3029.00,0.0045
3028.00,0.0045
3027.00,0.0046
3026.00,0.0046
3025.00,0.0047
3024.00,0.0048
3023.00,0.0048
3022.00,0.0049
3021.00,0.0050
3020.00,0.0052
3019.00,0.0053
3018.00,0.0054
3017.00,0.0055
3016.00,0.0056
3015.00,0.0057
3014.00,0.0058
3013.00,0.0060
3012.00,0.0061
3011.00,0.0063
3010.00,0.0065
3009.00,0.0067
3008.00,0.0069
3007.00,0.0072
3006.00,0.0074
3005.00,0.0077
3004.00,0.0080
3003.00,0.0083
3002.00,0.0086
3001.00,0.0089
3000.00,0.0092
2999.00,0.0096
2998.00,0.0099
2997.00,0.0103
2996.00,0.0107
2995.00,0.0112
2994.00,0.0117
2993.00,0.0123
2992.00,0.0129
2991.00,0.0136
2990.00,0.0143
2989.00,0.0151
2988.00,0.0160
2987.00,0.0170
2986.00,0.0182
2985.00,0.0196
2984.00,0.0212
2983.00,0.0229
2982.00,0.0247
2981.00,0.0267
2980.00,0.0288
2979.00,0.0311
2978.00,0.0338
2977.00,0.0369
2976.00,0.0404
2975.00,0.0445
2974.00,0.0491
2973.00,0.0544
2972.00,0.0603
2971.00,0.0670
2970.00,0.0744
2969.00,0.0827
2968.00,0.0918
2967.00,0.1018
2966.00,0.1126
2965.00,0.1240
2964.00,0.1359
2963.00,0.1478
2962.00,0.1592
2961.00,0.1694
2960.00,0.1780
2959.00,0.1848
2958.00,0.1897
2957.00,0.1929
2956.00,0.1950
2955.00,0.1965
2954.00,0.1978
2953.00,0.1989
2952.00,0.1995
2951.00,0.1991
2950.00,0.1969
2949.00,0.1923
2948.00,0.1848
2947.00,0.1748
2946.00,0.1628
2945.00,0.1501
2944.00,0.1377
2943.00,0.1267
2942.00,0.1178
2941.00,0.1113
2940.00,0.1072
2939.00,0.1054
2938.00,0.1055
2937.00,0.1074
2936.00,0.1109
2935.00,0.1158
2934.00,0.1220
2933.00,0.1292
2932.00,0.1374
2931.00,0.1463
2930.00,0.1556
2929.00,0.1650
2928.00,0.1742
2927.00,0.1831
2926.00,0.1915
2925.00,0.1995
2924.00,0.2073
2923.00,0.2149
2922.00,0.2223
2921.00,0.2293
2920.00,0.2355
2919.00,0.2403
2918.00,0.2431
2917.00,0.2432
2916.00,0.2406
2915.00,0.2355
2914.00,0.2287
2913.00,0.2210
2912.00,0.2132
2911.00,0.2060
2910.00,0.1995
2909.00,0.1936
2908.00,0.1882
2907.00,0.1829
2906.00,0.1775
2905.00,0.1719
2904.00,0.1658
2903.00,0.1593
2902.00,0.1527
2901.00,0.1459
2900.00,0.1393
2899.00,0.1330
2898.00,0.1271
2897.00,0.1216
2896.00,0.1168
2895.00,0.1127
2894.00,0.1092
2893.00,0.1065
2892.00,0.1044
2891.00,0.1029
2890.00,0.1020
2889.00,0.1016
2888.00,0.1016
2887.00,0.1019
2886.00,0.1025
2885.00,0.1035
2884.00,0.1048
2883.00,0.1066
2882.00,0.1086
2881.00,0.1108
2880.00,0.1129
2879.00,0.1147
2878.00,0.1158
2877.00,0.1160
2876.00,0.1156
2875.00,0.1148
2874.00,0.1140
2873.00,0.1137
2872.00,0.1140
2871.00,0.1150
2870.00,0.1164
2869.00,0.1178
2868.00,0.1186
2867.00,0.1180
2866.00,0.1155
2865.00,0.1107
2864.00,0.1041
2863.00,0.0961
2862.00,0.0880
2861.00,0.0803
2860.00,0.0738
2859.00,0.0686
2858.00,0.0648
2857.00,0.0623
2856.00,0.0609
2855.00,0.0605
2854.00,0.0611
2853.00,0.0624
2852.00,0.0643
2851.00,0.0667
2850.00,0.0692
2849.00,0.0719
2848.00,0.0749
2847.00,0.0783
2846.00,0.0824
2845.00,0.0875
2844.00,0.0936
2843.00,0.1005
2842.00,0.1077
2841.00,0.1148
2840.00,0.1207
2839.00,0.1247
2838.00,0.1258
2837.00,0.1235
2836.00,0.1176
2835.00,0.1087
2834.00,0.0980
2833.00,0.0867
2832.00,0.0758
2831.00,0.0662
2830.00,0.0580
2829.00,0.0513
2828.00,0.0458
2827.00,0.0414
2826.00,0.0379
2825.00,0.0349
2824.00,0.0324
2823.00,0.0303
2822.00,0.0285
2821.00,0.0269
2820.00,0.0256
2819.00,0.0244
2818.00,0.0233
2817.00,0.0224
2816.00,0.0216
2815.00,0.0209
2814.00,0.0203
2813.00,0.0198
2812.00,0.0192
2811.00,0.0187
2810.00,0.0182
2809.00,0.0176
2808.00,0.0171
2807.00,0.0165
2806.00,0.0159
2805.00,0.0152
2804.00,0.0146
2803.00,0.0140
2802.00,0.0135
2801.00,0.0130
2800.00,0.0127
2799.00,0.0124
2798.00,0.0121
2797.00,0.0118
2796.00,0.0116
2795.00,0.0113
2794.00,0.0111
2793.00,0.0108
2792.00,0.0105
2791.00,0.0101
2790.00,0.0098
2789.00,0.0095
2788.00,0.0091
2787.00,0.0087
2786.00,0.0084
2785.00,0.0082
2784.00,0.0079
2783.00,0.0077
2782.00,0.0075
2781.00,0.0073
2780.00,0.0071
2779.00,0.0070
2778.00,0.0068
2777.00,0.0066
2776.00,0.0065
2775.00,0.0063
2774.00,0.0062
2773.00,0.0062
2772.00,0.0061
2771.00,0.0061
2770.00,0.0061
2769.00,0.0060
2768.00,0.0060
2767.00,0.0060
2766.00,0.0060
2765.00,0.0059
2764.00,0.0059
2763.00,0.0059
2762.00,0.0058
2761.00,0.0057
2760.00,0.0056
2759.00,0.0056
2758.00,0.0056
2757.00,0.0056
2756.00,0.0056
2755.00,0.0056
2754.00,0.0056
2753.00,0.0055
2752.00,0.0055
2751.00,0.0055
2750.00,0.0055
2749.00,0.0055
2748.00,0.0056
2747.00,0.0056
2746.00,0.0056
2745.00,0.0057
2744.00,0.0057
2743.00,0.0058
2742.00,0.0059
2741.00,0.0061
2740.00,0.0062
2739.00,0.0063
2738.00,0.0065
2737.00,0.0066
2736.00,0.0067
2735.00,0.0069
2734.00,0.0070
2733.00,0.0072
2732.00,0.0073
2731.00,0.0075
2730.00,0.0077
2729.00,0.0079
2728.00,0.0081
2727.00,0.0084
2726.00,0.0087
2725.00,0.0089
2724.00,0.0090
2723.00,0.0091
2722.00,0.0090
2721.00,0.0088
2720.00,0.0085
2719.00,0.0082
2718.00,0.0078
2717.00,0.0075
2716.00,0.0073
2715.00,0.0070
2714.00,0.0068
2713.00,0.0066
2712.00,0.0064
2711.00,0.0063
2710.00,0.0061
2709.00,0.0060
2708.00,0.0059
2707.00,0.0057
2706.00,0.0056
2705.00,0.0055
2704.00,0.0054
2703.00,0.0053
2702.00,0.0052
2701.00,0.0051
2700.00,0.0051
2699.00,0.0050
2698.00,0.0049
2697.00,0.0049
2696.00,0.0049
2695.00,0.0049
2694.00,0.0049
2693.00,0.0049
2692.00,0.0049
2691.00,0.0049
2690.00,0.0049
2689.00,0.0049
2688.00,0.0049
2687.00,0.0049
2686.00,0.0048
2685.00,0.0048
2684.00,0.0048
2683.00,0.0049
2682.00,0.0049
2681.00,0.0049
2680.00,0.0049
2679.00,0.0049
2678.00,0.0049
2677.00,0.0049
2676.00,0.0049
2675.00,0.0049
2674.00,0.0049
2673.00,0.0049
2672.00,0.0049
2671.00,0.0049
2670.00,0.0049
2669.00,0.0048
2668.00,0.0048
2667.00,0.0048
2666.00,0.0048
2665.00,0.0049
2664.00,0.0049
2663.00,0.0050
2662.00,0.0050
2661.00,0.0051
2660.00,0.0051
2659.00,0.0051
2658.00,0.0051
2657.00,0.0051
2656.00,0.0050
2655.00,0.0049
2654.00,0.0049
2653.00,0.0048
2652.00,0.0047
2651.00,0.0047
2650.00,0.0047
2649.00,0.0047
2648.00,0.0046
2647.00,0.0046
2646.00,0.0046
2645.00,0.0045
2644.00,0.0045
2643.00,0.0044
2642.00,0.0044
2641.00,0.0043
2640.00,0.0042
2639.00,0.0042
2638.00,0.0042
2637.00,0.0042
2636.00,0.0042
2635.00,0.0042
2634.00,0.0042
2633.00,0.0042
2632.00,0.0042
2631.00,0.0042
2630.00,0.0042
2629.00,0.0042
2628.00,0.0043
2627.00,0.0043
2626.00,0.0043
2625.00,0.0043
2624.00,0.0043
2623.00,0.0043
2622.00,0.0043
2621.00,0.0043
2620.00,0.0043
2619.00,0.0043
2618.00,0.0043
2617.00,0.0042
2616.00,0.0042
2615.00,0.0042
2614.00,0.0041
2613.00,0.0041
2612.00,0.0041
2611.00,0.0041
2610.00,0.0040
2609.00,0.0040
2608.00,0.0039
2607.00,0.0038
2606.00,0.0037
2605.00,0.0037
2604.00,0.0036
2603.00,0.0036
2602.00,0.0035
2601.00,0.0035
2600.00,0.0035
2599.00,0.0034
2598.00,0.0034
2597.00,0.0033
2596.00,0.0033
2595.00,0.0034
2594.00,0.0034
2593.00,0.0035
2592.00,0.0035
2591.00,0.0035
2590.00,0.0035
2589.00,0.0036
2588.00,0.0037
2587.00,0.0038
2586.00,0.0039
2585.00,0.0040
2584.00,0.0040
2583.00,0.0040
2582.00,0.0040
2581.00,0.0040
2580.00,0.0040
2579.00,0.0039
2578.00,0.0039
2577.00,0.0038
2576.00,0.0038
2575.00,0.0037
2574.00,0.0036
2573.00,0.0035
2572.00,0.0033
2571.00,0.0032
2570.00,0.0031
2569.00,0.0031
2568.00,0.0030
2567.00,0.0029
2566.00,0.0029
2565.00,0.0029
2564.00,0.0029
2563.00,0.0029
2562.00,0.0028
2561.00,0.0028
2560.00,0.0027
2559.00,0.0026
2558.00,0.0025
2557.00,0.0024
2556.00,0.0024
2555.00,0.0024
2554.00,0.0024
2553.00,0.0024
2552.00,0.0024
2551.00,0.0024
2550.00,0.0024
2549.00,0.0024
2548.00,0.0023
2547.00,0.0023
2546.00,0.0023
2545.00,0.0023
2544.00,0.0022
2543.00,0.0022
2542.00,0.0021
2541.00,0.0020
2540.00,0.0020
2539.00,0.0020
2538.00,0.0019
2537.00,0.0020
2536.00,0.0020
2535.00,0.0020
2534.00,0.0020
2533.00,0.0019
2532.00,0.0018
2531.00,0.0017
2530.00,0.0016
2529.00,0.0016
2528.00,0.0016
2527.00,0.0017
2526.00,0.0017
2525.00,0.0017
2524.00,0.0017
2523.00,0.0017
2522.00,0.0016
2521.00,0.0016
2520.00,0.0015
2519.00,0.0015
2518.00,0.0014
2517.00,0.0014
2516.00,0.0014
2515.00,0.0014
2514.00,0.0014
2513.00,0.0015
2512.00,0.0015
2511.00,0.0015
2510.00,0.0014
2509.00,0.0014
2508.00,0.0014
2507.00,0.0013
2506.00,0.0014
2505.00,0.0014
2504.00,0.0014
2503.00,0.0014
2502.00,0.0014
2501.00,0.0014
2500.00,0.0014
2499.00,0.0014
2498.00,0.0014
2497.00,0.0014
2496.00,0.0014
2495.00,0.0014
2494.00,0.0013
2493.00,0.0013
2492.00,0.0014
2491.00,0.0014
2490.00,0.0014
2489.00,0.0014
2488.00,0.0014
2487.00,0.0014
2486.00,0.0013
2485.00,0.0013
2484.00,0.0012
2483.00,0.0011
2482.00,0.0011
2481.00,0.0011
2480.00,0.0012
2479.00,0.0012
2478.00,0.0012
2477.00,0.0012
2476.00,0.0012
2475.00,0.0012
2474.00,0.0012
2473.00,0.0013
2472.00,0.0013
2471.00,0.0012
2470.00,0.0012
2469.00,0.0012
2468.00,0.0011
2467.00,0.0010
2466.00,0.0010
2465.00,0.0010
2464.00,0.0010
2463.00,0.0010
2462.00,0.0011
2461.00,0.0011
2460.00,0.0012
2459.00,0.0012
2458.00,0.0012
2457.00,0.0013
2456.00,0.0014
2455.00,0.0015
2454.00,0.0015
2453.00,0.0015
2452.00,0.0015
2451.00,0.0014
2450.00,0.0014
2449.00,0.0014
2448.00,0.0014
2447.00,0.0014
2446.00,0.0014
2445.00,0.0014
2444.00,0.0014
2443.00,0.0014
2442.00,0.0014
2441.00,0.0013
2440.00,0.0013
2439.00,0.0013
2438.00,0.0013
2437.00,0.0012
2436.00,0.0013
2435.00,0.0013
2434.00,0.0013
2433.00,0.0014
2432.00,0.0014
2431.00,0.0014
2430.00,0.0014
2429.00,0.0014
2428.00,0.0015
2427.00,0.0015
2426.00,0.0015
2425.00,0.0015
2424.00,0.0015
2423.00,0.0015
2422.00,0.0014
2421.00,0.0014
2420.00,0.0013
2419.00,0.0013
2418.00,0.0012
2417.00,0.0012
2416.00,0.0012
2415.00,0.0012
2414.00,0.0012
2413.00,0.0012
2412.00,0.0012
2411.00,0.0012
2410.00,0.0012
2409.00,0.0012
2408.00,0.0012
2407.00,0.0011
2406.00,0.0011
2405.00,0.0011
2404.00,0.0011
2403.00,0.0011
2402.00,0.0011
2401.00,0.0011
2400.00,0.0011
2399.00,0.0011
2398.00,0.0011
2397.00,0.0011
2396.00,0.0011
2395.00,0.0011
2394.00,0.0012
2393.00,0.0012
2392.00,0.0012
2391.00,0.0012
2390.00,0.0012
2389.00,0.0011
2388.00,0.0011
2387.00,0.0010
2386.00,0.0009
2385.00,0.0009
2384.00,0.0009
2383.00,0.0009
2382.00,0.0008
2381.00,0.0007
2380.00,0.0007
2379.00,0.0006
2378.00,0.0006
2377.00,0.0006
2376.00,0.0007
2375.00,0.0007
2374.00,0.0008
2373.00,0.0007
2372.00,0.0007
2371.00,0.0006
2370.00,0.0005
2369.00,0.0005
2368.00,0.0005
2367.00,0.0005
2366.00,0.0005
2365.00,0.0006
2364.00,0.0007
2363.00,0.0007
2362.00,0.0007
2361.00,0.0007
2360.00,0.0007
2359.00,0.0006
2358.00,0.0006
2357.00,0.0006
2356.00,0.0007
2355.00,0.0007
2354.00,0.0006
2353.00,0.0006
2352.00,0.0006
2351.00,0.0006
2350.00,0.0006
2349.00,0.0007
2348.00,0.0008
2347.00,0.0008
2346.00,0.0008
2345.00,0.0008
2344.00,0.0008
2343.00,0.0008
2342.00,0.0009
2341.00,0.0009
2340.00,0.0010
2339.00,0.0010
2338.00,0.0009
2337.00,0.0009
2336.00,0.0009
2335.00,0.0009
2334.00,0.0009
2333.00,0.0008
2332.00,0.0008
2331.00,0.0007
2330.00,0.0007
2329.00,0.0008
2328.00,0.0009
2327.00,0.0012
2326.00,0.0016
2325.00,0.0020
2324.00,0.0022
2323.00,0.0022
2322.00,0.0021
2321.00,0.0019
2320.00,0.0018
2319.00,0.0017
2318.00,0.0017
2317.00,0.0016
2316.00,0.0015
2315.00,0.0014
2314.00,0.0013
2313.00,0.0012
2312.00,0.0010
2311.00,0.0009
2310.00,0.0009
2309.00,0.0009
2308.00,0.0009
2307.00,0.0010
2306.00,0.0011
2305.00,0.0012
2304.00,0.0012
2303.00,0.0013
2302.00,0.0013
2301.00,0.0013
2300.00,0.0013
2299.00,0.0014
2298.00,0.0014
2297.00,0.0014
2296.00,0.0014
2295.00,0.0014
2294.00,0.0015
2293.00,0.0016
2292.00,0.0017
2291.00,0.0018
2290.00,0.0019
2289.00,0.0020
2288.00,0.0020
2287.00,0.0021
2286.00,0.0021
2285.00,0.0020
2284.00,0.0019
2283.00,0.0018
2282.00,0.0018
2281.00,0.0018
2280.00,0.0018
2279.00,0.0018
2278.00,0.0017
2277.00,0.0017
2276.00,0.0017
2275.00,0.0017
2274.00,0.0017
2273.00,0.0016
2272.00,0.0015
2271.00,0.0014
2270.00,0.0014
2269.00,0.0014
2268.00,0.0014
2267.00,0.0014
2266.00,0.0014
2265.00,0.0014
2264.00,0.0014
2263.00,0.0014
2262.00,0.0014
2261.00,0.0014
2260.00,0.0014
2259.00,0.0015
2258.00,0.0016
2257.00,0.0016
2256.00,0.0015
2255.00,0.0014
2254.00,0.0013
2253.00,0.0012
2252.00,0.0012
2251.00,0.0012
2250.00,0.0011
2249.00,0.0011
2248.00,0.0010
2247.00,0.0011
2246.00,0.0011
2245.00,0.0012
2244.00,0.0013
2243.00,0.0012
2242.00,0.0012
2241.00,0.0012
2240.00,0.0011
2239.00,0.0011
2238.00,0.0010
2237.00,0.0011
2236.00,0.0011
2235.00,0.0013
2234.00,0.0013
2233.00,0.0013
2232.00,0.0011
2231.00,0.0010
2230.00,0.0009
2229.00,0.0009
2228.00,0.0010
2227.00,0.0012
2226.00,0.0012
2225.00,0.0011
2224.00,0.0010
2223.00,0.0010
2222.00,0.0010
2221.00,0.0010
2220.00,0.0009
2219.00,0.0007
2218.00,0.0006
2217.00,0.0005
2216.00,0.0006
2215.00,0.0006
2214.00,0.0007
2213.00,0.0008
2212.00,0.0009
2211.00,0.0010
2210.00,0.0011
2209.00,0.0010
2208.00,0.0009
2207.00,0.0008
2206.00,0.0007
2205.00,0.0008
2204.00,0.0009
2203.00,0.0010
2202.00,0.0011
2201.00,0.0011
2200.00,0.0010
2199.00,0.0010
2198.00,0.0010
2197.00,0.0010
2196.00,0.0009
2195.00,0.0008
2194.00,0.0007
2193.00,0.0008
2192.00,0.0009
2191.00,0.0011
2190.00,0.0013
2189.00,0.0013
2188.00,0.0013
2187.00,0.0012
2186.00,0.0012
2185.00,0.0012
2184.00,0.0012
2183.00,0.0012
2182.00,0.0010
2181.00,0.0008
2180.00,0.0007
2179.00,0.0007
2178.00,0.0008
2177.00,0.0009
2176.00,0.0009
2175.00,0.0009
2174.00,0.0009
2173.00,0.0008
2172.00,0.0007
2171.00,0.0006
2170.00,0.0008
2169.00,0.0011
2168.00,0.0016
2167.00,0.0018
2166.00,0.0017
2165.00,0.0015
2164.00,0.0015
2163.00,0.0019
2162.00,0.0022
2161.00,0.0022
2160.00,0.0014
2159.00,-0.0000
2158.00,-0.0014
2157.00,-0.0020
2156.00,-0.0021
2155.00,-0.0020
2154.00,-0.0020
2153.00,-0.0021
2152.00,-0.0021
2151.00,-0.0020
2150.00,-0.0017
2149.00,-0.0015
2148.00,-0.0014
2147.00,-0.0014
2146.00,-0.0015
2145.00,-0.0014
2144.00,-0.0012
2143.00,-0.0010
2142.00,-0.0009
2141.00,-0.0008
2140.00,-0.0007
2139.00,-0.0006
2138.00,-0.0005
2137.00,-0.0007
2136.00,-0.0009
2135.00,-0.0012
2134.00,-0.0013
2133.00,-0.0013
2132.00,-0.0011
2131.00,-0.0009
2130.00,-0.0007
2129.00,-0.0005
2128.00,-0.0003
2127.00,-0.0002
2126.00,-0.0002
2125.00,-0.0003
2124.00,-0.0004
2123.00,-0.0004
2122.00,-0.0003
2121.00,-0.0003
2120.00,-0.0002
2119.00,-0.0002
2118.00,-0.0001
2117.00,0.0001
2116.00,0.0002
2115.00,0.0003
2114.00,0.0005
2113.00,0.0005
2112.00,0.0004
2111.00,0.0004
2110.00,0.0003
2109.00,0.0003
2108.00,0.0004
2107.00,0.0004
2106.00,0.0005
2105.00,0.0005
2104.00,0.0004
2103.00,0.0003
2102.00,0.0003
2101.00,0.0003
2100.00,0.0003
2099.00,0.0003
2098.00,0.0002
2097.00,0.0001
2096.00,-0.0000
2095.00,-0.0001
2094.00,-0.0001
2093.00,-0.0001
2092.00,-0.0001
2091.00,-0.0001
2090.00,0.0000
2089.00,0.0001
2088.00,0.0002
2087.00,0.0003
2086.00,0.0003
2085.00,0.0004
2084.00,0.0004
2083.00,0.0004
2082.00,0.0004
2081.00,0.0004
2080.00,0.0004
2079.00,0.0004
2078.00,0.0005
2077.00,0.0006
2076.00,0.0007
2075.00,0.0008
2074.00,0.0008
2073.00,0.0007
2072.00,0.0006
2071.00,0.0005
2070.00,0.0004
2069.00,0.0002
2068.00,0.0000
2067.00,-0.0002
2066.00,-0.0003
2065.00,-0.0003
2064.00,-0.0002
2063.00,-0.0001
2062.00,-0.0001
2061.00,-0.0001
2060.00,-0.0001
2059.00,-0.0001
2058.00,0.0001
2057.00,0.0002
2056.00,0.0003
2055.00,0.0005
2054.00,0.0008
2053.00,0.0011
2052.00,0.0014
2051.00,0.0015
2050.00,0.0012
2049.00,0.0008
2048.00,0.0005
2047.00,0.0003
2046.00,0.0003
2045.00,0.0003
2044.00,0.0003
2043.00,0.0004
2042.00,0.0004
2041.00,0.0005
2040.00,0.0006
2039.00,0.0007
2038.00,0.0007
2037.00,0.0005
2036.00,0.0002
2035.00,-0.0001
2034.00,-0.0003
2033.00,-0.0002
2032.00,-0.0001
2031.00,0.0000
2030.00,-0.0000
2029.00,-0.0002
2028.00,-0.0004
2027.00,-0.0006
2026.00,-0.0007
2025.00,-0.0008
2024.00,-0.0008
2023.00,-0.0008
2022.00,-0.0009
2021.00,-0.0010
2020.00,-0.0011
2019.00,-0.0011
2018.00,-0.0011
2017.00,-0.0011
2016.00,-0.0012
2015.00,-0.0013
2014.00,-0.0011
2013.00,-0.0008
2012.00,-0.0006
2011.00,-0.0006
2010.00,-0.0006
2009.00,-0.0007
2008.00,-0.0009
2007.00,-0.0012
2006.00,-0.0015
2005.00,-0.0017
2004.00,-0.0016
2003.00,-0.0013
2002.00,-0.0011
2001.00,-0.0010
2000.00,-0.0012
1999.00,-0.0015
1998.00,-0.0016
1997.00,-0.0015
1996.00,-0.0012
1995.00,-0.0008
1994.00,-0.0005
1993.00,-0.0003
1992.00,-0.0002
1991.00,-0.0002
1990.00,-0.0003
1989.00,-0.0003
1988.00,-0.0003
1987.00,-0.0002
1986.00,-0.0001
1985.00,0.0000
1984.00,0.0003
1983.00,0.0007
1982.00,0.0013
1981.00,0.0018
1980.00,0.0020
1979.00,0.0015
1978.00,0.0007
1977.00,-0.0000
1976.00,-0.0004
1975.00,-0.0007
1974.00,-0.0010
1973.00,-0.0013
1972.00,-0.0015
1971.00,-0.0016
1970.00,-0.0016
1969.00,-0.0014
1968.00,-0.0010
1967.00,-0.0007
1966.00,-0.0006
1965.00,-0.0006
1964.00,-0.0007
1963.00,-0.0009
1962.00,-0.0011
1961.00,-0.0011
1960.00,-0.0012
1959.00,-0.0015
1958.00,-0.0018
1957.00,-0.0021
1956.00,-0.0022
1955.00,-0.0022
1954.00,-0.0020
1953.00,-0.0017
1952.00,-0.0015
1951.00,-0.0013
1950.00,-0.0012
1949.00,-0.0012
1948.00,-0.0013
1947.00,-0.0013
1946.00,-0.0013
1945.00,-0.0011
1944.00,-0.0010
1943.00,-0.0010
1942.00,-0.0010
1941.00,-0.0010
1940.00,-0.0009
1939.00,-0.0008
1938.00,-0.0008
1937.00,-0.0009
1936.00,-0.0010
1935.00,-0.0011
1934.00,-0.0012
1933.00,-0.0011
1932.00,-0.0009
1931.00,-0.0007
1930.00,-0.0006
1929.00,-0.0006
1928.00,-0.0006
1927.00,-0.0006
1926.00,-0.0006
1925.00,-0.0005
1924.00,-0.0005
1923.00,-0.0005
1922.00,-0.0005
1921.00,-0.0004
1920.00,-0.0003
1919.00,-0.0003
1918.00,-0.0002
1917.00,-0.0002
1916.00,-0.0002
1915.00,-0.0002
1914.00,-0.0002
1913.00,-0.0001
1912.00,-0.0001
1911.00,-0.0001
1910.00,-0.0000
1909.00,0.0001
1908.00,0.0001
1907.00,0.0001
1906.00,0.0001
1905.00,0.0000
1904.00,-0.0000
1903.00,-0.0000
1902.00,0.0000
1901.00,0.0001
1900.00,0.0001
1899.00,0.0002
1898.00,0.0002
1897.00,0.0002
1896.00,0.0002
1895.00,0.0002
1894.00,0.0003
1893.00,0.0003
1892.00,0.0003
1891.00,0.0003
1890.00,0.0002
1889.00,0.0001
1888.00,0.0000
1887.00,-0.0000
1886.00,-0.0000
1885.00,-0.0000
1884.00,0.0000
1883.00,0.0001
1882.00,0.0001
1881.00,0.0001
1880.00,0.0002
1879.00,0.0002
1878.00,0.0001
1877.00,0.0001
1876.00,0.0001
1875.00,0.0001
1874.00,0.0001
1873.00,0.0001
1872.00,0.0002
1871.00,0.0002
1870.00,0.0001
1869.00,0.0001
1868.00,0.0002
1867.00,0.0002
1866.00,0.0003
1865.00,0.0003
1864.00,0.0004
1863.00,0.0004
1862.00,0.0004
1861.00,0.0004
1860.00,0.0004
1859.00,0.0004
1858.00,0.0003
1857.00,0.0003
1856.00,0.0003
1855.00,0.0003
1854.00,0.0003
1853.00,0.0004
1852.00,0.0004
1851.00,0.0004
1850.00,0.0004
1849.00,0.0004
1848.00,0.0005
1847.00,0.0005
1846.00,0.0006
1845.00,0.0006
1844.00,0.0007
1843.00,0.0007
1842.00,0.0007
1841.00,0.0006
1840.00,0.0005
1839.00,0.0003
1838.00,0.0002
1837.00,0.0002
1836.00,0.0003
1835.00,0.0004
1834.00,0.0005
1833.00,0.0006
1832.00,0.0007
1831.00,0.0007
1830.00,0.0007
1829.00,0.0007
1828.00,0.0007
1827.00,0.0007
1826.00,0.0006
1825.00,0.0006
1824.00,0.0006
1823.00,0.0006
1822.00,0.0006
1821.00,0.0006
1820.00,0.0006
1819.00,0.0005
1818.00,0.0003
1817.00,0.0003
1816.00,0.0002
1815.00,0.0003
1814.00,0.0004
1813.00,0.0004
1812.00,0.0005
1811.00,0.0006
1810.00,0.0006
1809.00,0.0007
1808.00,0.0007
1807.00,0.0007
1806.00,0.0007
1805.00,0.0007
1804.00,0.0007
1803.00,0.0007
1802.00,0.0007
1801.00,0.0008
1800.00,0.0009
1799.00,0.0009
1798.00,0.0010
1797.00,0.0010
1796.00,0.0010
1795.00,0.0010
1794.00,0.0010
1793.00,0.0010
1792.00,0.0010
1791.00,0.0010
1790.00,0.0010
1789.00,0.0010
1788.00,0.0010
1787.00,0.0010
1786.00,0.0010
1785.00,0.0009
1784.00,0.0009
1783.00,0.0009
1782.00,0.0009
1781.00,0.0010
1780.00,0.0011
1779.00,0.0012
1778.00,0.0012
1777.00,0.0013
1776.00,0.0013
1775.00,0.0013
1774.00,0.0012
1773.00,0.0012
1772.00,0.0013
1771.00,0.0014
1770.00,0.0014
1769.00,0.0014
1768.00,0.0014
1767.00,0.0014
1766.00,0.0014
1765.00,0.0015
1764.00,0.0015
1763.00,0.0015
1762.00,0.0016
1761.00,0.0016
1760.00,0.0017
1759.00,0.0018
1758.00,0.0019
1757.00,0.0020
1756.00,0.0022
1755.00,0.0023
1754.00,0.0024
1753.00,0.0025
1752.00,0.0026
1751.00,0.0027
1750.00,0.0027
1749.00,0.0027
1748.00,0.0027
1747.00,0.0028
1746.00,0.0029
1745.00,0.0029
1744.00,0.0030
1743.00,0.0030
1742.00,0.0031
1741.00,0.0032
1740.00,0.0032
1739.00,0.0032
1738.00,0.0031
1737.00,0.0031
1736.00,0.0032
1735.00,0.0032
1734.00,0.0032
1733.00,0.0031
1732.00,0.0030
1731.00,0.0029
1730.00,0.0029
1729.00,0.0029
1728.00,0.0029
1727.00,0.0028
1726.00,0.0027
1725.00,0.0027
1724.00,0.0026
1723.00,0.0026
1722.00,0.0026
1721.00,0.0026
1720.00,0.0026
1719.00,0.0026
1718.00,0.0026
1717.00,0.0027
1716.00,0.0027
1715.00,0.0027
1714.00,0.0027
1713.00,0.0027
1712.00,0.0027
1711.00,0.0027
1710.00,0.0027
1709.00,0.0028
1708.00,0.0028
1707.00,0.0029
1706.00,0.0030
1705.00,0.0030
1704.00,0.0031
1703.00,0.0032
1702.00,0.0033
1701.00,0.0033
1700.00,0.0034
1699.00,0.0034
1698.00,0.0035
1697.00,0.0035
1696.00,0.0036
1695.00,0.0037
1694.00,0.0037
1693.00,0.0038
1692.00,0.0038
1691.00,0.0038
1690.00,0.0039
1689.00,0.0040
1688.00,0.0041
1687.00,0.0042
1686.00,0.0042
1685.00,0.0042
1684.00,0.0043
1683.00,0.0044
1682.00,0.0045
1681.00,0.0046
1680.00,0.0047
1679.00,0.0048
1678.00,0.0049
1677.00,0.0050
1676.00,0.0052
1675.00,0.0053
1674.00,0.0053
1673.00,0.0054
1672.00,0.0054
1671.00,0.0055
1670.00,0.0055
1669.00,0.0056
1668.00,0.0056
1667.00,0.0057
1666.00,0.0057
1665.00,0.0058
1664.00,0.0059
1663.00,0.0060
1662.00,0.0060
1661.00,0.0061
1660.00,0.0062
1659.00,0.0063
1658.00,0.0064
1657.00,0.0065
1656.00,0.0066
1655.00,0.0067
1654.00,0.0067
1653.00,0.0068
1652.00,0.0069
1651.00,0.0070
1650.00,0.0070
1649.00,0.0070
1648.00,0.0072
1647.00,0.0073
1646.00,0.0075
1645.00,0.0075
1644.00,0.0075
1643.00,0.0076
1642.00,0.0076
1641.00,0.0076
1640.00,0.0077
1639.00,0.0077
1638.00,0.0077
1637.00,0.0077
1636.00,0.0078
1635.00,0.0078
1634.00,0.0078
1633.00,0.0079
1632.00,0.0079
1631.00,0.0079
1630.00,0.0079
1629.00,0.0079
1628.00,0.0079
1627.00,0.0079
1626.00,0.0078
1625.00,0.0078
1624.00,0.0078
1623.00,0.0078
1622.00,0.0077
1621.00,0.0077
1620.00,0.0077
1619.00,0.0077
1618.00,0.0076
1617.00,0.0076
1616.00,0.0076
1615.00,0.0076
1614.00,0.0075
1613.00,0.0075
1612.00,0.0076
1611.00,0.0076
1610.00,0.0076
1609.00,0.0075
1608.00,0.0075
1607.00,0.0075
1606.00,0.0075
1605.00,0.0076
1604.00,0.0077
1603.00,0.0077
1602.00,0.0077
1601.00,0.0077
1600.00,0.0078
1599.00,0.0078
1598.00,0.0078
1597.00,0.0079
1596.00,0.0080
1595.00,0.0081
1594.00,0.0082
1593.00,0.0084
1592.00,0.0085
1591.00,0.0087
1590.00,0.0090
1589.00,0.0092
1588.00,0.0096
1587.00,0.0101
1586.00,0.0106
1585.00,0.0112
1584.00,0.0119
1583.00,0.0125
1582.00,0.0132
1581.00,0.0138
1580.00,0.0143
1579.00,0.0147
1578.00,0.0148
1577.00,0.0147
1576.00,0.0144
1575.00,0.0140
1574.00,0.0136
1573.00,0.0132
1572.00,0.0128
1571.00,0.0122
1570.00,0.0116
1569.00,0.0110
1568.00,0.0106
1567.00,0.0103
1566.00,0.0101
1565.00,0.0099
1564.00,0.0098
1563.00,0.0098
1562.00,0.0097
1561.00,0.0098
1560.00,0.0098
1559.00,0.0099
1558.00,0.0098
1557.00,0.0099
1556.00,0.0100
1555.00,0.0101
1554.00,0.0103
1553.00,0.0105
1552.00,0.0108
1551.00,0.0112
1550.00,0.0117
1549.00,0.0123
1548.00,0.0130
1547.00,0.0136
1546.00,0.0144
1545.00,0.0153
1544.00,0.0162
1543.00,0.0169
1542.00,0.0174
1541.00,0.0174
1540.00,0.0168
1539.00,0.0159
1538.00,0.0151
1537.00,0.0144
1536.00,0.0137
1535.00,0.0129
1534.00,0.0119
1533.00,0.0110
1532.00,0.0104
1531.00,0.0099
1530.00,0.0096
1529.00,0.0093
1528.00,0.0091
1527.00,0.0088
1526.00,0.0086
1525.00,0.0084
1524.00,0.0083
1523.00,0.0081
1522.00,0.0080
1521.00,0.0079
1520.00,0.0079
1519.00,0.0078
1518.00,0.0078
1517.00,0.0079
1516.00,0.0080
1515.00,0.0081
1514.00,0.0081
1513.00,0.0081
1512.00,0.0081
1511.00,0.0081
1510.00,0.0081
1509.00,0.0082
1508.00,0.0084
1507.00,0.0085
1506.00,0.0085
1505.00,0.0085
1504.00,0.0086
1503.00,0.0087
1502.00,0.0088
1501.00,0.0091
1500.00,0.0094
1499.00,0.0097
1498.00,0.0099
1497.00,0.0103
1496.00,0.0107
1495.00,0.0109
1494.00,0.0111
1493.00,0.0114
1492.00,0.0118
1491.00,0.0121
1490.00,0.0126
1489.00,0.0132
1488.00,0.0138
1487.00,0.0145
1486.00,0.0152
1485.00,0.0161
1484.00,0.0171
1483.00,0.0182
1482.00,0.0194
1481.00,0.0210
1480.00,0.0226
1479.00,0.0242
1478.00,0.0260
1477.00,0.0281
1476.00,0.0306
1475.00,0.0334
1474.00,0.0369
1473.00,0.0420
1472.00,0.0479
1471.00,0.0537
1470.00,0.0593
1469.00,0.0652
1468.00,0.0716
1467.00,0.0788
1466.00,0.0870
1465.00,0.0960
1464.00,0.1040
1463.00,0.1098
1462.00,0.1137
1461.00,0.1167
1460.00,0.1190
1459.00,0.1209
1458.00,0.1230
1457.00,0.1253
1456.00,0.1268
1455.00,0.1272
1454.00,0.1270
1453.00,0.1262
1452.00,0.1245
1451.00,0.1213
1450.00,0.1164
1449.00,0.1091
1448.00,0.0996
1447.00,0.0892
1446.00,0.0798
1445.00,0.0717
1444.00,0.0647
1443.00,0.0590
1442.00,0.0548
1441.00,0.0519
1440.00,0.0502
1439.00,0.0493
1438.00,0.0491
1437.00,0.0488
1436.00,0.0474
1435.00,0.0446
1434.00,0.0408
1433.00,0.0364
1432.00,0.0318
1431.00,0.0278
1430.00,0.0247
1429.00,0.0225
1428.00,0.0210
1427.00,0.0201
1426.00,0.0196
1425.00,0.0191
1424.00,0.0186
1423.00,0.0184
1422.00,0.0182
1421.00,0.0180
1420.00,0.0177
1419.00,0.0174
1418.00,0.0171
1417.00,0.0167
1416.00,0.0164
1415.00,0.0161
1414.00,0.0159
1413.00,0.0157
1412.00,0.0155
1411.00,0.0153
1410.00,0.0152
1409.00,0.0150
1408.00,0.0148
1407.00,0.0147
1406.00,0.0146
1405.00,0.0146
1404.00,0.0145
1403.00,0.0145
1402.00,0.0146
1401.00,0.0147
1400.00,0.0148
1399.00,0.0149
1398.00,0.0152
1397.00,0.0154
1396.00,0.0156
1395.00,0.0160
1394.00,0.0165
1393.00,0.0170
1392.00,0.0176
1391.00,0.0185
1390.00,0.0197
1389.00,0.0214
1388.00,0.0241
1387.00,0.0280
1386.00,0.0332
1385.00,0.0397
1384.00,0.0482
1383.00,0.0595
1382.00,0.0739
1381.00,0.0916
1380.00,0.1126
1379.00,0.1357
1378.00,0.1573
1377.00,0.1727
1376.00,0.1774
1375.00,0.1689
1374.00,0.1491
1373.00,0.1250
1372.00,0.1026
1371.00,0.0838
1370.00,0.0684
1369.00,0.0565
1368.00,0.0482
1367.00,0.0430
1366.00,0.0401
1365.00,0.0389
1364.00,0.0390
1363.00,0.0401
1362.00,0.0420
1361.00,0.0441
1360.00,0.0456
1359.00,0.0459
1358.00,0.0448
1357.00,0.0423
1356.00,0.0388
1355.00,0.0348
1354.00,0.0310
1353.00,0.0276
1352.00,0.0249
1351.00,0.0227
1350.00,0.0209
1349.00,0.0194
1348.00,0.0183
1347.00,0.0174
1346.00,0.0167
1345.00,0.0160
1344.00,0.0155
1343.00,0.0152
1342.00,0.0149
1341.00,0.0147
1340.00,0.0145
1339.00,0.0143
1338.00,0.0142
1337.00,0.0141
1336.00,0.0141
1335.00,0.0142
1334.00,0.0145
1333.00,0.0148
1332.00,0.0151
1331.00,0.0154
1330.00,0.0155
1329.00,0.0154
1328.00,0.0150
1327.00,0.0146
1326.00,0.0140
1325.00,0.0135
1324.00,0.0130
1323.00,0.0125
1322.00,0.0122
1321.00,0.0119
1320.00,0.0116
1319.00,0.0113
1318.00,0.0110
1317.00,0.0108
1316.00,0.0106
1315.00,0.0105
1314.00,0.0105
1313.00,0.0105
1312.00,0.0107
1311.00,0.0111
1310.00,0.0116
1309.00,0.0124
1308.00,0.0136
1307.00,0.0151
1306.00,0.0166
1305.00,0.0177
1304.00,0.0180
1303.00,0.0177
1302.00,0.0169
1301.00,0.0160
1300.00,0.0155
1299.00,0.0151
1298.00,0.0150
1297.00,0.0148
1296.00,0.0146
1295.00,0.0142
1294.00,0.0138
1293.00,0.0132
1292.00,0.0127
1291.00,0.0122
1290.00,0.0117
1289.00,0.0113
1288.00,0.0110
1287.00,0.0107
1286.00,0.0104
1285.00,0.0102
1284.00,0.0100
1283.00,0.0098
1282.00,0.0098
1281.00,0.0097
1280.00,0.0097
1279.00,0.0097
1278.00,0.0097
1277.00,0.0096
1276.00,0.0096
1275.00,0.0096
1274.00,0.0096
1273.00,0.0096
1272.00,0.0096
1271.00,0.0096
1270.00,0.0097
1269.00,0.0099
1268.00,0.0101
1267.00,0.0104
1266.00,0.0107
1265.00,0.0110
1264.00,0.0114
1263.00,0.0119
1262.00,0.0125
1261.00,0.0132
1260.00,0.0140
1259.00,0.0150
1258.00,0.0159
1257.00,0.0167
1256.00,0.0171
1255.00,0.0168
1254.00,0.0161
1253.00,0.0150
1252.00,0.0140
1251.00,0.0131
1250.00,0.0124
1249.00,0.0119
1248.00,0.0115
1247.00,0.0113
1246.00,0.0111
1245.00,0.0110
1244.00,0.0110
1243.00,0.0109
1242.00,0.0109
1241.00,0.0108
1240.00,0.0108
1239.00,0.0107
1238.00,0.0107
1237.00,0.0107
1236.00,0.0106
1235.00,0.0106
1234.00,0.0106
1233.00,0.0106
1232.00,0.0106
1231.00,0.0106
1230.00,0.0106
1229.00,0.0107
1228.00,0.0108
1227.00,0.0109
1226.00,0.0111
1225.00,0.0113
1224.00,0.0115
1223.00,0.0118
1222.00,0.0120
1221.00,0.0122
1220.00,0.0123
1219.00,0.0123
1218.00,0.0123
1217.00,0.0121
1216.00,0.0120
1215.00,0.0117
1214.00,0.0114
1213.00,0.0112
1212.00,0.0109
1211.00,0.0107
1210.00,0.0105
1209.00,0.0103
1208.00,0.0102
1207.00,0.0101
1206.00,0.0101
1205.00,0.0100
1204.00,0.0100
1203.00,0.0099
1202.00,0.0099
1201.00,0.0100
1200.00,0.0101
1199.00,0.0102
1198.00,0.0102
1197.00,0.0102
1196.00,0.0103
1195.00,0.0103
1194.00,0.0103
1193.00,0.0104
1192.00,0.0104
1191.00,0.0104
1190.00,0.0104
1189.00,0.0105
1188.00,0.0105
1187.00,0.0106
1186.00,0.0107
1185.00,0.0109
1184.00,0.0110
1183.00,0.0112
1182.00,0.0115
1181.00,0.0118
1180.00,0.0123
1179.00,0.0130
1178.00,0.0139
1177.00,0.0150
1176.00,0.0166
1175.00,0.0186
1174.00,0.0213
1173.00,0.0246
1172.00,0.0286
1171.00,0.0329
1170.00,0.0372
1169.00,0.0407
1168.00,0.0429
1167.00,0.0434
1166.00,0.0425
1165.00,0.0405
1164.00,0.0380
1163.00,0.0354
1162.00,0.0330
1161.00,0.0310
1160.00,0.0293
1159.00,0.0280
1158.00,0.0269
1157.00,0.0260
1156.00,0.0253
1155.00,0.0248
1154.00,0.0243
1153.00,0.0237
1152.00,0.0230
1151.00,0.0222
1150.00,0.0214
1149.00,0.0204
1148.00,0.0194
1147.00,0.0184
1146.00,0.0175
1145.00,0.0166
1144.00,0.0158
1143.00,0.0151
1142.00,0.0145
1141.00,0.0139
1140.00,0.0133
1139.00,0.0129
1138.00,0.0125
1137.00,0.0122
1136.00,0.0120
1135.00,0.0118
1134.00,0.0116
1133.00,0.0115
1132.00,0.0115
1131.00,0.0115
1130.00,0.0116
1129.00,0.0117
1128.00,0.0119
1127.00,0.0121
1126.00,0.0122
1125.00,0.0122
1124.00,0.0121
1123.00,0.0120
1122.00,0.0119
1121.00,0.0118
1120.00,0.0118
1119.00,0.0119
1118.00,0.0121
1117.00,0.0123
1116.00,0.0125
1115.00,0.0128
1114.00,0.0130
1113.00,0.0132
1112.00,0.0134
1111.00,0.0137
1110.00,0.0141
1109.00,0.0145
1108.00,0.0150
1107.00,0.0156
1106.00,0.0162
1105.00,0.0168
1104.00,0.0172
1103.00,0.0175
1102.00,0.0175
1101.00,0.0173
1100.00,0.0168
1099.00,0.0162
1098.00,0.0156
1097.00,0.0149
1096.00,0.0144
1095.00,0.0140
1094.00,0.0138
1093.00,0.0135
1092.00,0.0133
1091.00,0.0130
1090.00,0.0129
1089.00,0.0127
1088.00,0.0126
1087.00,0.0125
1086.00,0.0125
1085.00,0.0124
1084.00,0.0123
1083.00,0.0122
1082.00,0.0120
1081.00,0.0119
1080.00,0.0117
1079.00,0.0116
1078.00,0.0116
1077.00,0.0115
1076.00,0.0115
1075.00,0.0114
1074.00,0.0114
1073.00,0.0114
1072.00,0.0115
1071.00,0.0115
1070.00,0.0115
1069.00,0.0115
1068.00,0.0114
1067.00,0.0114
1066.00,0.0114
1065.00,0.0114
1064.00,0.0114
1063.00,0.0114
1062.00,0.0115
1061.00,0.0116
1060.00,0.0116
1059.00,0.0116
1058.00,0.0117
1057.00,0.0118
1056.00,0.0119
1055.00,0.0121
1054.00,0.0122
1053.00,0.0124
1052.00,0.0126
1051.00,0.0129
1050.00,0.0131
1049.00,0.0134
1048.00,0.0138
1047.00,0.0142
1046.00,0.0146
1045.00,0.0148
1044.00,0.0148
1043.00,0.0146
1042.00,0.0143
1041.00,0.0140
1040.00,0.0138
1039.00,0.0137
1038.00,0.0138
1037.00,0.0138
1036.00,0.0138
1035.00,0.0138
1034.00,0.0136
1033.00,0.0134
1032.00,0.0131
1031.00,0.0129
1030.00,0.0128
1029.00,0.0126
1028.00,0.0125
1027.00,0.0124
1026.00,0.0123
1025.00,0.0123
1024.00,0.0123
1023.00,0.0124
1022.00,0.0126
1021.00,0.0129
1020.00,0.0131
1019.00,0.0132
1018.00,0.0134
1017.00,0.0136
1016.00,0.0139
1015.00,0.0144
1014.00,0.0150
1013.00,0.0156
1012.00,0.0161
1011.00,0.0166
1010.00,0.0170
1009.00,0.0173
1008.00,0.0178
1007.00,0.0184
1006.00,0.0194
1005.00,0.0208
1004.00,0.0228
1003.00,0.0256
1002.00,0.0294
1001.00,0.0340
1000.00,0.0390
999.00,0.0434
998.00,0.0460
997.00,0.0457
996.00,0.0425
995.00,0.0375
994.00,0.0320
993.00,0.0270
992.00,0.0230
991.00,0.0201
990.00,0.0181
989.00,0.0168
988.00,0.0159
987.00,0.0154
986.00,0.0151
985.00,0.0151
984.00,0.0155
983.00,0.0163
982.00,0.0176
981.00,0.0195
980.00,0.0220
979.00,0.0254
978.00,0.0298
977.00,0.0351
976.00,0.0411
975.00,0.0470
974.00,0.0519
973.00,0.0543
972.00,0.0533
971.00,0.0491
970.00,0.0427
969.00,0.0358
968.00,0.0296
967.00,0.0248
966.00,0.0212
965.00,0.0185
964.00,0.0166
963.00,0.0151
962.00,0.0140
961.00,0.0132
960.00,0.0126
959.00,0.0122
958.00,0.0118
957.00,0.0114
956.00,0.0110
955.00,0.0107
954.00,0.0105
953.00,0.0104
952.00,0.0102
951.00,0.0101
950.00,0.0099
949.00,0.0098
948.00,0.0098
947.00,0.0099
946.00,0.0100
945.00,0.0103
944.00,0.0105
943.00,0.0107
942.00,0.0108
941.00,0.0109
940.00,0.0108
939.00,0.0105
938.00,0.0101
937.00,0.0096
936.00,0.0092
935.00,0.0088
934.00,0.0085
933.00,0.0082
932.00,0.0079
931.00,0.0077
930.00,0.0075
929.00,0.0074
928.00,0.0073
927.00,0.0073
926.00,0.0072
925.00,0.0072
924.00,0.0073
923.00,0.0073
922.00,0.0074
921.00,0.0074
920.00,0.0075
919.00,0.0076
918.00,0.0078
917.00,0.0079
916.00,0.0080
915.00,0.0080
914.00,0.0080
913.00,0.0080
912.00,0.0080
911.00,0.0080
910.00,0.0081
909.00,0.0082
908.00,0.0085
907.00,0.0090
906.00,0.0097
905.00,0.0107
904.00,0.0121
903.00,0.0138
902.00,0.0157
901.00,0.0173
900.00,0.0184
899.00,0.0187
898.00,0.0180
897.00,0.0166
896.00,0.0150
895.00,0.0134
894.00,0.0120
893.00,0.0110
892.00,0.0102
891.00,0.0096
890.00,0.0092
889.00,0.0088
888.00,0.0085
887.00,0.0082
886.00,0.0081
885.00,0.0080
884.00,0.0081
883.00,0.0082
882.00,0.0083
881.00,0.0085
880.00,0.0085
879.00,0.0086
878.00,0.0086
877.00,0.0085
876.00,0.0083
875.00,0.0082
874.00,0.0082
873.00,0.0082
872.00,0.0083
871.00,0.0083
870.00,0.0083
869.00,0.0084
868.00,0.0085
867.00,0.0086
866.00,0.0087
865.00,0.0087
864.00,0.0087
863.00,0.0088
862.00,0.0090
861.00,0.0092
860.00,0.0093
859.00,0.0096
858.00,0.0098
857.00,0.0100
856.00,0.0103
855.00,0.0105
854.00,0.0107
853.00,0.0109
852.00,0.0113
851.00,0.0119
850.00,0.0127
849.00,0.0138
848.00,0.0152
847.00,0.0172
846.00,0.0202
845.00,0.0247
844.00,0.0308
843.00,0.0376
842.00,0.0431
841.00,0.0448
840.00,0.0422
839.00,0.0363
838.00,0.0299
837.00,0.0246
836.00,0.0211
835.00,0.0190
834.00,0.0175
833.00,0.0165
832.00,0.0156
831.00,0.0149
830.00,0.0142
829.00,0.0137
828.00,0.0133
827.00,0.0131
826.00,0.0131
825.00,0.0130
824.00,0.0129
823.00,0.0127
822.00,0.0126
821.00,0.0126
820.00,0.0127
819.00,0.0129
818.00,0.0132
817.00,0.0136
816.00,0.0143
815.00,0.0152
814.00,0.0164
813.00,0.0179
812.00,0.0193
811.00,0.0205
810.00,0.0215
809.00,0.0221
808.00,0.0220
807.00,0.0213
806.00,0.0201
805.00,0.0186
804.00,0.0170
803.00,0.0157
802.00,0.0146
801.00,0.0137
800.00,0.0131
799.00,0.0125
798.00,0.0120
797.00,0.0115
796.00,0.0111
795.00,0.0106
794.00,0.0103
793.00,0.0101
792.00,0.0100
791.00,0.0098
790.00,0.0097
789.00,0.0095
788.00,0.0092
787.00,0.0090
786.00,0.0087
785.00,0.0085
784.00,0.0083
783.00,0.0081
782.00,0.0079
781.00,0.0077
780.00,0.0075
779.00,0.0074
778.00,0.0074
777.00,0.0075
776.00,0.0077
775.00,0.0079
774.00,0.0082
773.00,0.0085
772.00,0.0089
771.00,0.0093
770.00,0.0097
769.00,0.0099
768.00,0.0099
767.00,0.0099
766.00,0.0097
765.00,0.0095
764.00,0.0092
763.00,0.0088
762.00,0.0085
761.00,0.0081
760.00,0.0078
759.00,0.0074
758.00,0.0072
757.00,0.0071
756.00,0.0070
755.00,0.0069
754.00,0.0069
753.00,0.0069
752.00,0.0069
751.00,0.0069
750.00,0.0069
749.00,0.0068
748.00,0.0067
747.00,0.0066
746.00,0.0067
745.00,0.0068
744.00,0.0070
743.00,0.0073
742.00,0.0075
741.00,0.0077
740.00,0.0077
739.00,0.0078
738.00,0.0079
737.00,0.0081
736.00,0.0082
735.00,0.0083
734.00,0.0082
733.00,0.0082
732.00,0.0084
731.00,0.0088
730.00,0.0091
729.00,0.0093
728.00,0.0093
727.00,0.0092
726.00,0.0091
725.00,0.0090
724.00,0.0089
723.00,0.0088
722.00,0.0088
721.00,0.0088
720.00,0.0088
719.00,0.0088
718.00,0.0086
717.00,0.0083
716.00,0.0080
715.00,0.0079
714.00,0.0078
713.00,0.0078
712.00,0.0077
711.00,0.0075
710.00,0.0072
709.00,0.0070
708.00,0.0069
707.00,0.0070
706.00,0.0073
705.00,0.0075
704.00,0.0076
703.00,0.0076
702.00,0.0076
701.00,0.0075
700.00,0.0074
699.00,0.0075
698.00,0.0076
697.00,0.0078
696.00,0.0079
695.00,0.0078
694.00,0.0078
693.00,0.0077
692.00,0.0076
691.00,0.0076
690.00,0.0077
689.00,0.0078
688.00,0.0079
687.00,0.0079
686.00,0.0080
685.00,0.0080
684.00,0.0080
683.00,0.0080
682.00,0.0080
681.00,0.0080
680.00,0.0082
679.00,0.0084
678.00,0.0086
677.00,0.0085
676.00,0.0083
675.00,0.0080
674.00,0.0079
673.00,0.0079
672.00,0.0081
671.00,0.0082
670.00,0.0083
669.00,0.0084
668.00,0.0084
667.00,0.0084
666.00,0.0085
665.00,0.0085
664.00,0.0085
663.00,0.0084
662.00,0.0082
661.00,0.0081
660.00,0.0080
659.00,0.0078
658.00,0.0075
657.00,0.0072
656.00,0.0072
655.00,0.0073
654.00,0.0076
653.00,0.0077
652.00,0.0077
651.00,0.0077
650.00,0.0076
649.00,0.0075
648.00,0.0075
647.00,0.0075
646.00,0.0077
645.00,0.0077
644.00,0.0075
643.00,0.0073
642.00,0.0071
641.00,0.0070
640.00,0.0071
639.00,0.0073
638.00,0.0076
637.00,0.0077
636.00,0.0077
635.00,0.0077
634.00,0.0077
633.00,0.0078
632.00,0.0080
631.00,0.0082
630.00,0.0083
629.00,0.0084
628.00,0.0083
627.00,0.0082
626.00,0.0082
625.00,0.0083
624.00,0.0085
623.00,0.0085
622.00,0.0085
621.00,0.0083
620.00,0.0081
619.00,0.0078
618.00,0.0076
617.00,0.0076
616.00,0.0077
615.00,0.0079
614.00,0.0081
613.00,0.0084
612.00,0.0085
611.00,0.0086
610.00,0.0087
609.00,0.0087
608.00,0.0087
607.00,0.0087
606.00,0.0086
605.00,0.0084
604.00,0.0083
603.00,0.0082
602.00,0.0081
601.00,0.0080
600.00,0.0079
599.00,0.0080
598.00,0.0082
597.00,0.0084
596.00,0.0086
595.00,0.0087
594.00,0.0087
593.00,0.0087
592.00,0.0088
591.00,0.0089
590.00,0.0089
589.00,0.0088
588.00,0.0085
587.00,0.0084
586.00,0.0083
585.00,0.0083
584.00,0.0085
583.00,0.0087
582.00,0.0091
581.00,0.0092
580.00,0.0092
579.00,0.0090
578.00,0.0089
577.00,0.0088
576.00,0.0087
575.00,0.0086
574.00,0.0084
573.00,0.0084
572.00,0.0084
571.00,0.0084
570.00,0.0083
569.00,0.0080
568.00,0.0078
567.00,0.0078
566.00,0.0081
565.00,0.0084
564.00,0.0086
563.00,0.0085
562.00,0.0084
561.00,0.0086
560.00,0.0089
559.00,0.0092
558.00,0.0091
557.00,0.0088
556.00,0.0084
555.00,0.0082
554.00,0.0082
553.00,0.0082
552.00,0.0080
551.00,0.0077
550.00,0.0075
549.00,0.0075
548.00,0.0077
547.00,0.0079
546.00,0.0079
545.00,0.0078
544.00,0.0077
543.00,0.0080
542.00,0.0084
541.00,0.0088
540.00,0.0090
539.00,0.0090
538.00,0.0089
537.00,0.0089
536.00,0.0090
535.00,0.0093
534.00,0.0097
533.00,0.0100
532.00,0.0101
531.00,0.0102
530.00,0.0103
529.00,0.0104
528.00,0.0105
527.00,0.0103
526.00,0.0102
525.00,0.0101
524.00,0.0102
523.00,0.0102
522.00,0.0099
521.00,0.0096
520.00,0.0094
519.00,0.0095
518.00,0.0096
517.00,0.0096
516.00,0.0094
515.00,0.0094
514.00,0.0098
513.00,0.0100
512.00,0.0097
511.00,0.0090
510.00,0.0082
509.00,0.0077
508.00,0.0075
507.00,0.0074
506.00,0.0074
505.00,0.0073
504.00,0.0070
503.00,0.0069
502.00,0.0070
501.00,0.0070
500.00,0.0068
499.00,0.0062
498.00,0.0059
497.00,0.0058
496.00,0.0061
495.00,0.0066
494.00,0.0073
493.00,0.0081
492.00,0.0088
491.00,0.0090
490.00,0.0089
489.00,0.0087
488.00,0.0085
487.00,0.0084
486.00,0.0084
485.00,0.0084
484.00,0.0086
483.00,0.0088
482.00,0.0088
481.00,0.0086
480.00,0.0082
479.00,0.0079
478.00,0.0079
477.00,0.0082
476.00,0.0085
475.00,0.0085
474.00,0.0082
473.00,0.0080
472.00,0.0083
471.00,0.0092
470.00,0.0104
469.00,0.0113
468.00,0.0119
467.00,0.0125
466.00,0.0136
465.00,0.0150
464.00,0.0165
463.00,0.0176
462.00,0.0186
461.00,0.0193
460.00,0.0197
459.00,0.0191
458.00,0.0176
457.00,0.0157
456.00,0.0144
455.00,0.0140
454.00,0.0141
453.00,0.0143
452.00,0.0134
451.00,0.0121
450.00,0.0111
