Created as New Dataset,Sample 116 By Administrator Date Tuesday, September 09 2025
cm-1,A
4000.00,0.0006
3999.00,0.0006
3998.00,0.0006
3997.00,0.0006
3996.00,0.0006
3995.00,0.0006
3994.00,0.0006
3993.00,0.0006
3992.00,0.0007
3991.00,0.0007
3990.00,0.0007
3989.00,0.0007
3988.00,0.0007
3987.00,0.0007
3986.00,0.0007
3985.00,0.0007
3984.00,0.0007
3983.00,0.0006
3982.00,0.0006
3981.00,0.0006
3980.00,0.0006
3979.00,0.0006
3978.00,0.0006
3977.00,0.0006
3976.00,0.0006
3975.00,0.0005
3974.00,0.0005
3973.00,0.0005
3972.00,0.0005
3971.00,0.0005
3970.00,0.0005
3969.00,0.0005
3968.00,0.0004
3967.00,0.0004
3966.00,0.0004
3965.00,0.0004
3964.00,0.0004
3963.00,0.0004
3962.00,0.0005
3961.00,0.0005
3960.00,0.0005
3959.00,0.0005
3958.00,0.0005
3957.00,0.0005
3956.00,0.0004
3955.00,0.0004
3954.00,0.0004
3953.00,0.0004
3952.00,0.0004
3951.00,0.0004
3950.00,0.0004
3949.00,0.0005
3948.00,0.0005
3947.00,0.0005
3946.00,0.0005
3945.00,0.0005
3944.00,0.0005
3943.00,0.0005
3942.00,0.0005
3941.00,0.0005
3940.00,0.0005
3939.00,0.0005
3938.00,0.0005
3937.00,0.0005
3936.00,0.0005
3935.00,0.0005
3934.00,0.0006
3933.00,0.0006
3932.00,0.0006
3931.00,0.0006
3930.00,0.0005
3929.00,0.0005
3928.00,0.0005
3927.00,0.0005
3926.00,0.0004
3925.00,0.0004
3924.00,0.0004
3923.00,0.0005
3922.00,0.0005
3921.00,0.0005
3920.00,0.0005
3919.00,0.0005
3918.00,0.0005
3917.00,0.0005
3916.00,0.0005
3915.00,0.0005
3914.00,0.0005
3913.00,0.0004
3912.00,0.0005
3911.00,0.0005
3910.00,0.0005
3909.00,0.0005
3908.00,0.0005
3907.00,0.0005
3906.00,0.0005
3905.00,0.0005
3904.00,0.0005
3903.00,0.0005
3902.00,0.0005
3901.00,0.0005
3900.00,0.0006
3899.00,0.0006
3898.00,0.0006
3897.00,0.0005
3896.00,0.0005
3895.00,0.0005
3894.00,0.0005
3893.00,0.0004
3892.00,0.0004
3891.00,0.0004
3890.00,0.0004
3889.00,0.0004
3888.00,0.0004
3887.00,0.0004
3886.00,0.0004
3885.00,0.0004
3884.00,0.0004
3883.00,0.0004
3882.00,0.0004
3881.00,0.0004
3880.00,0.0004
3879.00,0.0004
3878.00,0.0004
3877.00,0.0004
3876.00,0.0004
3875.00,0.0004
3874.00,0.0004
3873.00,0.0004
3872.00,0.0004
3871.00,0.0004
3870.00,0.0004
3869.00,0.0004
3868.00,0.0004
3867.00,0.0004
3866.00,0.0004
3865.00,0.0004
3864.00,0.0004
3863.00,0.0004
3862.00,0.0004
3861.00,0.0004
3860.00,0.0004
3859.00,0.0004
3858.00,0.0005
3857.00,0.0005
3856.00,0.0005
3855.00,0.0005
3854.00,0.0005
3853.00,0.0005
3852.00,0.0005
3851.00,0.0005
3850.00,0.0004
3849.00,0.0004
3848.00,0.0004
3847.00,0.0004
3846.00,0.0004
3845.00,0.0004
3844.00,0.0004
3843.00,0.0004
3842.00,0.0004
3841.00,0.0004
3840.00,0.0004
3839.00,0.0004
3838.00,0.0004
3837.00,0.0004
3836.00,0.0003
3835.00,0.0003
3834.00,0.0003
3833.00,0.0003
3832.00,0.0003
3831.00,0.0004
3830.00,0.0003
3829.00,0.0003
3828.00,0.0003
3827.00,0.0003
3826.00,0.0004
3825.00,0.0004
3824.00,0.0003
3823.00,0.0003
3822.00,0.0002
3821.00,0.0003
3820.00,0.0003
3819.00,0.0003
3818.00,0.0003
3817.00,0.0003
3816.00,0.0003
3815.00,0.0004
3814.00,0.0004
3813.00,0.0004
3812.00,0.0004
3811.00,0.0004
3810.00,0.0004
3809.00,0.0004
3808.00,0.0004
3807.00,0.0004
3806.00,0.0004
3805.00,0.0003
3804.00,0.0003
3803.00,0.0003
3802.00,0.0002
3801.00,0.0003
3800.00,0.0003
3799.00,0.0003
3798.00,0.0003
3797.00,0.0003
3796.00,0.0003
3795.00,0.0004
3794.00,0.0005
3793.00,0.0005
3792.00,0.0005
3791.00,0.0005
3790.00,0.0005
3789.00,0.0005
3788.00,0.0004
3787.00,0.0004
3786.00,0.0004
3785.00,0.0004
3784.00,0.0004
3783.00,0.0003
3782.00,0.0003
3781.00,0.0002
3780.00,0.0002
3779.00,0.0003
3778.00,0.0003
3777.00,0.0004
3776.00,0.0004
3775.00,0.0004
3774.00,0.0005
3773.00,0.0005
3772.00,0.0005
3771.00,0.0004
3770.00,0.0004
3769.00,0.0004
3768.00,0.0004
3767.00,0.0004
3766.00,0.0004
3765.00,0.0005
3764.00,0.0005
3763.00,0.0005
3762.00,0.0005
3761.00,0.0005
3760.00,0.0005
3759.00,0.0005
3758.00,0.0004
3757.00,0.0004
3756.00,0.0004
3755.00,0.0004
3754.00,0.0004
3753.00,0.0004
3752.00,0.0004
3751.00,0.0004
3750.00,0.0004
3749.00,0.0004
3748.00,0.0004
3747.00,0.0004
3746.00,0.0004
3745.00,0.0004
3744.00,0.0005
3743.00,0.0005
3742.00,0.0005
3741.00,0.0005
3740.00,0.0004
3739.00,0.0004
3738.00,0.0004
3737.00,0.0004
3736.00,0.0004
3735.00,0.0004
3734.00,0.0004
3733.00,0.0004
3732.00,0.0004
3731.00,0.0004
3730.00,0.0004
3729.00,0.0004
3728.00,0.0004
3727.00,0.0004
3726.00,0.0004
3725.00,0.0004
3724.00,0.0004
3723.00,0.0004
3722.00,0.0004
3721.00,0.0004
3720.00,0.0004
3719.00,0.0004
3718.00,0.0004
3717.00,0.0004
3716.00,0.0004
3715.00,0.0003
3714.00,0.0003
3713.00,0.0003
3712.00,0.0003
3711.00,0.0002
3710.00,0.0002
3709.00,0.0002
3708.00,0.0002
3707.00,0.0003
3706.00,0.0003
3705.00,0.0003
3704.00,0.0003
3703.00,0.0002
3702.00,0.0002
3701.00,0.0003
3700.00,0.0003
3699.00,0.0003
3698.00,0.0004
3697.00,0.0004
3696.00,0.0004
3695.00,0.0004
3694.00,0.0003
3693.00,0.0003
3692.00,0.0003
3691.00,0.0003
3690.00,0.0002
3689.00,0.0002
3688.00,0.0003
3687.00,0.0003
3686.00,0.0003
3685.00,0.0003
3684.00,0.0003
3683.00,0.0003
3682.00,0.0003
3681.00,0.0003
3680.00,0.0003
3679.00,0.0004
3678.00,0.0003
3677.00,0.0003
3676.00,0.0003
3675.00,0.0003
3674.00,0.0003
3673.00,0.0003
3672.00,0.0002
3671.00,0.0003
3670.00,0.0003
3669.00,0.0003
3668.00,0.0003
3667.00,0.0003
3666.00,0.0003
3665.00,0.0003
3664.00,0.0003
3663.00,0.0003
3662.00,0.0003
3661.00,0.0003
3660.00,0.0003
3659.00,0.0003
3658.00,0.0003
3657.00,0.0003
3656.00,0.0002
3655.00,0.0002
3654.00,0.0001
3653.00,0.0001
3652.00,0.0001
3651.00,0.0001
3650.00,0.0001
3649.00,0.0001
3648.00,0.0001
3647.00,0.0001
3646.00,0.0002
3645.00,0.0003
3644.00,0.0003
3643.00,0.0004
3642.00,0.0004
3641.00,0.0003
3640.00,0.0003
3639.00,0.0003
3638.00,0.0004
3637.00,0.0004
3636.00,0.0004
3635.00,0.0004
3634.00,0.0003
3633.00,0.0003
3632.00,0.0003
3631.00,0.0002
3630.00,0.0003
3629.00,0.0004
3628.00,0.0005
3627.00,0.0005
3626.00,0.0004
3625.00,0.0004
3624.00,0.0004
3623.00,0.0004
3622.00,0.0004
3621.00,0.0005
3620.00,0.0005
3619.00,0.0004
3618.00,0.0004
3617.00,0.0004
3616.00,0.0004
3615.00,0.0005
3614.00,0.0005
3613.00,0.0006
3612.00,0.0007
3611.00,0.0007
3610.00,0.0008
3609.00,0.0008
3608.00,0.0008
3607.00,0.0008
3606.00,0.0007
3605.00,0.0007
3604.00,0.0006
3603.00,0.0006
3602.00,0.0006
3601.00,0.0007
3600.00,0.0007
3599.00,0.0007
3598.00,0.0007
3597.00,0.0007
3596.00,0.0007
3595.00,0.0007
3594.00,0.0007
3593.00,0.0007
3592.00,0.0007
3591.00,0.0008
3590.00,0.0008
3589.00,0.0008
3588.00,0.0008
3587.00,0.0008
3586.00,0.0009
3585.00,0.0009
3584.00,0.0009
3583.00,0.0010
3582.00,0.0010
3581.00,0.0010
3580.00,0.0010
3579.00,0.0010
3578.00,0.0010
3577.00,0.0010
3576.00,0.0010
3575.00,0.0010
3574.00,0.0010
3573.00,0.0011
3572.00,0.0011
3571.00,0.0011
3570.00,0.0012
3569.00,0.0012
3568.00,0.0012
3567.00,0.0012
3566.00,0.0012
3565.00,0.0011
3564.00,0.0011
3563.00,0.0012
3562.00,0.0012
3561.00,0.0013
3560.00,0.0013
3559.00,0.0013
3558.00,0.0013
3557.00,0.0013
3556.00,0.0013
3555.00,0.0014
3554.00,0.0014
3553.00,0.0015
3552.00,0.0016
3551.00,0.0016
3550.00,0.0016
3549.00,0.0016
3548.00,0.0016
3547.00,0.0016
3546.00,0.0016
3545.00,0.0016
3544.00,0.0016
3543.00,0.0016
3542.00,0.0016
3541.00,0.0016
3540.00,0.0016
3539.00,0.0017
3538.00,0.0017
3537.00,0.0017
3536.00,0.0017
3535.00,0.0017
3534.00,0.0017
3533.00,0.0017
3532.00,0.0017
3531.00,0.0018
3530.00,0.0018
3529.00,0.0018
3528.00,0.0018
3527.00,0.0018
3526.00,0.0019
3525.00,0.0019
3524.00,0.0019
3523.00,0.0019
3522.00,0.0019
3521.00,0.0019
3520.00,0.0019
3519.00,0.0019
3518.00,0.0019
3517.00,0.0019
3516.00,0.0019
3515.00,0.0019
3514.00,0.0020
3513.00,0.0021
3512.00,0.0021
3511.00,0.0021
3510.00,0.0021
3509.00,0.0022
3508.00,0.0022
3507.00,0.0022
3506.00,0.0022
3505.00,0.0022
3504.00,0.0022
3503.00,0.0023
3502.00,0.0023
3501.00,0.0022
3500.00,0.0023
3499.00,0.0023
3498.00,0.0023
3497.00,0.0023
3496.00,0.0024
3495.00,0.0024
3494.00,0.0025
3493.00,0.0025
3492.00,0.0025
3491.00,0.0025
3490.00,0.0025
3489.00,0.0025
3488.00,0.0024
3487.00,0.0024
3486.00,0.0024
3485.00,0.0024
3484.00,0.0025
3483.00,0.0025
3482.00,0.0026
3481.00,0.0026
3480.00,0.0026
3479.00,0.0026
3478.00,0.0026
3477.00,0.0026
3476.00,0.0026
3475.00,0.0026
3474.00,0.0026
3473.00,0.0026
3472.00,0.0026
3471.00,0.0026
3470.00,0.0026
3469.00,0.0027
3468.00,0.0027
3467.00,0.0027
3466.00,0.0027
3465.00,0.0027
3464.00,0.0028
3463.00,0.0028
3462.00,0.0028
3461.00,0.0029
3460.00,0.0030
3459.00,0.0030
3458.00,0.0030
3457.00,0.0030
3456.00,0.0030
3455.00,0.0030
3454.00,0.0030
3453.00,0.0031
3452.00,0.0031
3451.00,0.0031
3450.00,0.0031
3449.00,0.0031
3448.00,0.0031
3447.00,0.0031
3446.00,0.0031
3445.00,0.0031
3444.00,0.0031
3443.00,0.0031
3442.00,0.0032
3441.00,0.0032
3440.00,0.0032
3439.00,0.0032
3438.00,0.0032
3437.00,0.0032
3436.00,0.0033
3435.00,0.0033
3434.00,0.0033
3433.00,0.0033
3432.00,0.0034
3431.00,0.0034
3430.00,0.0034
3429.00,0.0035
3428.00,0.0035
3427.00,0.0035
3426.00,0.0035
3425.00,0.0035
3424.00,0.0034
3423.00,0.0034
3422.00,0.0034
3421.00,0.0035
3420.00,0.0035
3419.00,0.0036
3418.00,0.0036
3417.00,0.0036
3416.00,0.0036
3415.00,0.0036
3414.00,0.0037
3413.00,0.0037
3412.00,0.0037
3411.00,0.0037
3410.00,0.0038
3409.00,0.0038
3408.00,0.0038
3407.00,0.0038
3406.00,0.0038
3405.00,0.0038
3404.00,0.0037
3403.00,0.0037
3402.00,0.0037
3401.00,0.0038
3400.00,0.0038
3399.00,0.0038
3398.00,0.0038
3397.00,0.0039
3396.00,0.0039
3395.00,0.0039
3394.00,0.0039
3393.00,0.0039
3392.00,0.0039
3391.00,0.0039
3390.00,0.0039
3389.00,0.0039
3388.00,0.0039
3387.00,0.0039
3386.00,0.0039
3385.00,0.0040
3384.00,0.0040
3383.00,0.0040
3382.00,0.0040
3381.00,0.0040
3380.00,0.0040
3379.00,0.0040
3378.00,0.0040
3377.00,0.0041
3376.00,0.0040
3375.00,0.0040
3374.00,0.0040
3373.00,0.0040
3372.00,0.0040
3371.00,0.0040
3370.00,0.0040
3369.00,0.0041
3368.00,0.0041
3367.00,0.0041
3366.00,0.0041
3365.00,0.0041
3364.00,0.0041
3363.00,0.0041
3362.00,0.0041
3361.00,0.0041
3360.00,0.0041
3359.00,0.0042
3358.00,0.0042
3357.00,0.0042
3356.00,0.0042
3355.00,0.0041
3354.00,0.0041
3353.00,0.0042
3352.00,0.0042
3351.00,0.0042
3350.00,0.0042
3349.00,0.0042
3348.00,0.0042
3347.00,0.0042
3346.00,0.0042
3345.00,0.0042
3344.00,0.0042
3343.00,0.0043
3342.00,0.0043
3341.00,0.0043
3340.00,0.0043
3339.00,0.0042
3338.00,0.0042
3337.00,0.0042
3336.00,0.0042
3335.00,0.0042
3334.00,0.0043
3333.00,0.0043
3332.00,0.0043
3331.00,0.0043
3330.00,0.0042
3329.00,0.0042
3328.00,0.0042
3327.00,0.0042
3326.00,0.0041
3325.00,0.0041
3324.00,0.0041
3323.00,0.0041
3322.00,0.0041
3321.00,0.0042
3320.00,0.0042
3319.00,0.0042
3318.00,0.0042
3317.00,0.0041
3316.00,0.0041
3315.00,0.0042
3314.00,0.0042
3313.00,0.0042
3312.00,0.0042
3311.00,0.0042
3310.00,0.0042
3309.00,0.0042
3308.00,0.0042
3307.00,0.0041
3306.00,0.0041
3305.00,0.0041
3304.00,0.0041
3303.00,0.0041
3302.00,0.0042
3301.00,0.0042
3300.00,0.0042
3299.00,0.0042
3298.00,0.0042
3297.00,0.0041
3296.00,0.0041
3295.00,0.0041
3294.00,0.0041
3293.00,0.0041
3292.00,0.0041
3291.00,0.0041
3290.00,0.0041
3289.00,0.0041
3288.00,0.0041
3287.00,0.0041
3286.00,0.0041
3285.00,0.0041
3284.00,0.0041
3283.00,0.0040
3282.00,0.0040
3281.00,0.0040
3280.00,0.0040
3279.00,0.0040
3278.00,0.0039
3277.00,0.0039
3276.00,0.0039
3275.00,0.0039
3274.00,0.0039
3273.00,0.0039
3272.00,0.0039
3271.00,0.0039
3270.00,0.0039
3269.00,0.0039
3268.00,0.0038
3267.00,0.0038
3266.00,0.0038
3265.00,0.0037
3264.00,0.0037
3263.00,0.0037
3262.00,0.0037
3261.00,0.0037
3260.00,0.0037
3259.00,0.0036
3258.00,0.0036
3257.00,0.0036
3256.00,0.0036
3255.00,0.0036
3254.00,0.0036
3253.00,0.0037
3252.00,0.0037
3251.00,0.0037
3250.00,0.0036
3249.00,0.0036
3248.00,0.0036
3247.00,0.0035
3246.00,0.0035
3245.00,0.0036
3244.00,0.0036
3243.00,0.0036
3242.00,0.0036
3241.00,0.0036
3240.00,0.0036
3239.00,0.0036
3238.00,0.0035
3237.00,0.0035
3236.00,0.0035
3235.00,0.0035
3234.00,0.0035
3233.00,0.0035
3232.00,0.0035
3231.00,0.0035
3230.00,0.0035
3229.00,0.0035
3228.00,0.0035
3227.00,0.0036
3226.00,0.0036
3225.00,0.0036
3224.00,0.0036
3223.00,0.0036
3222.00,0.0036
3221.00,0.0036
3220.00,0.0037
3219.00,0.0037
3218.00,0.0037
3217.00,0.0037
3216.00,0.0037
3215.00,0.0037
3214.00,0.0038
3213.00,0.0038
3212.00,0.0039
3211.00,0.0039
3210.00,0.0038
3209.00,0.0038
3208.00,0.0038
3207.00,0.0038
3206.00,0.0038
3205.00,0.0039
3204.00,0.0039
3203.00,0.0040
3202.00,0.0040
3201.00,0.0040
3200.00,0.0040
3199.00,0.0040
3198.00,0.0040
3197.00,0.0039
3196.00,0.0039
3195.00,0.0039
3194.00,0.0039
3193.00,0.0039
3192.00,0.0039
3191.00,0.0039
3190.00,0.0039
3189.00,0.0039
3188.00,0.0039
3187.00,0.0039
3186.00,0.0038
3185.00,0.0038
3184.00,0.0039
3183.00,0.0039
3182.00,0.0039
3181.00,0.0038
3180.00,0.0038
3179.00,0.0037
3178.00,0.0037
3177.00,0.0037
3176.00,0.0036
3175.00,0.0036
3174.00,0.0035
3173.00,0.0035
3172.00,0.0035
3171.00,0.0035
3170.00,0.0035
3169.00,0.0035
3168.00,0.0034
3167.00,0.0034
3166.00,0.0034
3165.00,0.0034
3164.00,0.0034
3163.00,0.0034
3162.00,0.0034
3161.00,0.0033
3160.00,0.0033
3159.00,0.0033
3158.00,0.0033
3157.00,0.0034
3156.00,0.0034
3155.00,0.0034
3154.00,0.0034
3153.00,0.0033
3152.00,0.0033
3151.00,0.0033
3150.00,0.0032
3149.00,0.0032
3148.00,0.0033
3147.00,0.0033
3146.00,0.0033
3145.00,0.0033
3144.00,0.0033
3143.00,0.0033
3142.00,0.0032
3141.00,0.0032
3140.00,0.0032
3139.00,0.0032
3138.00,0.0032
3137.00,0.0032
3136.00,0.0032
3135.00,0.0031
3134.00,0.0031
3133.00,0.0031
3132.00,0.0030
3131.00,0.0030
3130.00,0.0030
3129.00,0.0030
3128.00,0.0030
3127.00,0.0030
3126.00,0.0030
3125.00,0.0030
3124.00,0.0029
3123.00,0.0028
3122.00,0.0028
3121.00,0.0027
3120.00,0.0027
3119.00,0.0027
3118.00,0.0027
3117.00,0.0027
3116.00,0.0027
3115.00,0.0027
3114.00,0.0028
3113.00,0.0028
3112.00,0.0028
3111.00,0.0027
3110.00,0.0027
3109.00,0.0027
3108.00,0.0027
3107.00,0.0027
3106.00,0.0027
3105.00,0.0027
3104.00,0.0026
3103.00,0.0026
3102.00,0.0026
3101.00,0.0026
3100.00,0.0026
3099.00,0.0026
3098.00,0.0026
3097.00,0.0025
3096.00,0.0025
3095.00,0.0025
3094.00,0.0025
3093.00,0.0025
3092.00,0.0025
3091.00,0.0025
3090.00,0.0025
3089.00,0.0025
3088.00,0.0025
3087.00,0.0024
3086.00,0.0024
3085.00,0.0024
3084.00,0.0024
3083.00,0.0024
3082.00,0.0024
3081.00,0.0024
3080.00,0.0024
3079.00,0.0025
3078.00,0.0025
3077.00,0.0026
3076.00,0.0026
3075.00,0.0025
3074.00,0.0025
3073.00,0.0025
3072.00,0.0025
3071.00,0.0024
3070.00,0.0024
3069.00,0.0024
3068.00,0.0024
3067.00,0.0024
3066.00,0.0025
3065.00,0.0025
3064.00,0.0026
3063.00,0.0027
3062.00,0.0027
3061.00,0.0027
3060.00,0.0027
3059.00,0.0027
3058.00,0.0027
3057.00,0.0028
3056.00,0.0027
3055.00,0.0027
3054.00,0.0027
3053.00,0.0027
3052.00,0.0027
3051.00,0.0028
3050.00,0.0029
3049.00,0.0029
3048.00,0.0029
3047.00,0.0029
3046.00,0.0029
3045.00,0.0029
3044.00,0.0029
3043.00,0.0030
3042.00,0.0030
3041.00,0.0030
3040.00,0.0030
3039.00,0.0030
3038.00,0.0030
3037.00,0.0031
3036.00,0.0031
3035.00,0.0032
3034.00,0.0032
3033.00,0.0033
3032.00,0.0033
3031.00,0.0033
3030.00,0.0033
3029.00,0.0034
3028.00,0.0034
3027.00,0.0035
3026.00,0.0035
3025.00,0.0036
3024.00,0.0036
3023.00,0.0037
3022.00,0.0038
3021.00,0.0039
3020.00,0.0039
3019.00,0.0040
3018.00,0.0040
3017.00,0.0040
3016.00,0.0041
3015.00,0.0042
3014.00,0.0043
3013.00,0.0045
3012.00,0.0047
3011.00,0.0048
3010.00,0.0050
3009.00,0.0051
3008.00,0.0052
3007.00,0.0054
3006.00,0.0055
3005.00,0.0057
3004.00,0.0059
3003.00,0.0062
3002.00,0.0064
3001.00,0.0067
3000.00,0.0069
2999.00,0.0072
2998.00,0.0075
2997.00,0.0079
2996.00,0.0083
2995.00,0.0087
2994.00,0.0091
2993.00,0.0096
2992.00,0.0101
2991.00,0.0107
2990.00,0.0113
2989.00,0.0121
2988.00,0.0129
2987.00,0.0138
2986.00,0.0148
2985.00,0.0159
2984.00,0.0172
2983.00,0.0186
2982.00,0.0201
2981.00,0.0219
2980.00,0.0238
2979.00,0.0260
2978.00,0.0284
2977.00,0.0313
2976.00,0.0345
2975.00,0.0382
2974.00,0.0425
2973.00,0.0473
2972.00,0.0526
2971.00,0.0585
2970.00,0.0651
2969.00,0.0723
2968.00,0.0802
2967.00,0.0885
2966.00,0.0972
2965.00,0.1060
2964.00,0.1145
2963.00,0.1224
2962.00,0.1293
2961.00,0.1351
2960.00,0.1400
2959.00,0.1442
2958.00,0.1482
2957.00,0.1526
2956.00,0.1578
2955.00,0.1640
2954.00,0.1712
2953.00,0.1789
2952.00,0.1862
2951.00,0.1919
2950.00,0.1951
2949.00,0.1946
2948.00,0.1900
2947.00,0.1814
2946.00,0.1697
2945.00,0.1563
2944.00,0.1427
2943.00,0.1304
2942.00,0.1203
2941.00,0.1128
2940.00,0.1079
2939.00,0.1056
2938.00,0.1055
2937.00,0.1074
2936.00,0.1110
2935.00,0.1163
2934.00,0.1231
2933.00,0.1312
2932.00,0.1405
2931.00,0.1507
2930.00,0.1615
2929.00,0.1726
2928.00,0.1837
2927.00,0.1945
2926.00,0.2049
2925.00,0.2147
2924.00,0.2243
2923.00,0.2335
2922.00,0.2426
2921.00,0.2514
2920.00,0.2592
2919.00,0.2654
2918.00,0.2690
2917.00,0.2693
2916.00,0.2662
2915.00,0.2600
2914.00,0.2515
2913.00,0.2417
2912.00,0.2315
2911.00,0.2216
2910.00,0.2123
2909.00,0.2038
2908.00,0.1958
2907.00,0.1882
2906.00,0.1807
2905.00,0.1732
2904.00,0.1658
2903.00,0.1584
2902.00,0.1512
2901.00,0.1442
2900.00,0.1375
2899.00,0.1312
2898.00,0.1254
2897.00,0.1202
2896.00,0.1156
2895.00,0.1117
2894.00,0.1085
2893.00,0.1060
2892.00,0.1042
2891.00,0.1031
2890.00,0.1025
2889.00,0.1025
2888.00,0.1029
2887.00,0.1036
2886.00,0.1047
2885.00,0.1062
2884.00,0.1081
2883.00,0.1106
2882.00,0.1135
2881.00,0.1168
2880.00,0.1201
2879.00,0.1230
2878.00,0.1250
2877.00,0.1258
2876.00,0.1257
2875.00,0.1249
2874.00,0.1241
2873.00,0.1236
2872.00,0.1239
2871.00,0.1251
2870.00,0.1270
2869.00,0.1290
2868.00,0.1304
2867.00,0.1302
2866.00,0.1275
2865.00,0.1221
2864.00,0.1143
2863.00,0.1048
2862.00,0.0948
2861.00,0.0853
2860.00,0.0770
2859.00,0.0703
2858.00,0.0651
2857.00,0.0613
2856.00,0.0587
2855.00,0.0571
2854.00,0.0563
2853.00,0.0562
2852.00,0.0567
2851.00,0.0579
2850.00,0.0598
2849.00,0.0624
2848.00,0.0660
2847.00,0.0705
2846.00,0.0758
2845.00,0.0820
2844.00,0.0889
2843.00,0.0963
2842.00,0.1039
2841.00,0.1110
2840.00,0.1170
2839.00,0.1210
2838.00,0.1221
2837.00,0.1199
2836.00,0.1141
2835.00,0.1055
2834.00,0.0949
2833.00,0.0838
2832.00,0.0730
2831.00,0.0634
2830.00,0.0553
2829.00,0.0486
2828.00,0.0433
2827.00,0.0389
2826.00,0.0354
2825.00,0.0326
2824.00,0.0302
2823.00,0.0282
2822.00,0.0265
2821.00,0.0251
2820.00,0.0238
2819.00,0.0228
2818.00,0.0218
2817.00,0.0210
2816.00,0.0203
2815.00,0.0196
2814.00,0.0190
2813.00,0.0184
2812.00,0.0179
2811.00,0.0174
2810.00,0.0168
2809.00,0.0162
2808.00,0.0156
2807.00,0.0150
2806.00,0.0143
2805.00,0.0137
2804.00,0.0130
2803.00,0.0124
2802.00,0.0119
2801.00,0.0114
2800.00,0.0111
2799.00,0.0107
2798.00,0.0104
2797.00,0.0102
2796.00,0.0100
2795.00,0.0097
2794.00,0.0095
2793.00,0.0092
2792.00,0.0089
2791.00,0.0086
2790.00,0.0083
2789.00,0.0080
2788.00,0.0077
2787.00,0.0075
2786.00,0.0072
2785.00,0.0070
2784.00,0.0068
2783.00,0.0066
2782.00,0.0065
2781.00,0.0063
2780.00,0.0061
2779.00,0.0059
2778.00,0.0058
2777.00,0.0056
2776.00,0.0055
2775.00,0.0054
2774.00,0.0054
2773.00,0.0053
2772.00,0.0052
2771.00,0.0052
2770.00,0.0052
2769.00,0.0051
2768.00,0.0051
2767.00,0.0051
2766.00,0.0050
2765.00,0.0050
2764.00,0.0050
2763.00,0.0049
2762.00,0.0049
2761.00,0.0049
2760.00,0.0049
2759.00,0.0048
2758.00,0.0048
2757.00,0.0048
2756.00,0.0047
2755.00,0.0047
2754.00,0.0047
2753.00,0.0047
2752.00,0.0047
2751.00,0.0047
2750.00,0.0047
2749.00,0.0047
2748.00,0.0047
2747.00,0.0048
2746.00,0.0049
2745.00,0.0049
2744.00,0.0050
2743.00,0.0051
2742.00,0.0052
2741.00,0.0053
2740.00,0.0054
2739.00,0.0055
2738.00,0.0057
2737.00,0.0058
2736.00,0.0060
2735.00,0.0062
2734.00,0.0064
2733.00,0.0065
2732.00,0.0067
2731.00,0.0069
2730.00,0.0071
2729.00,0.0073
2728.00,0.0076
2727.00,0.0079
2726.00,0.0082
2725.00,0.0085
2724.00,0.0087
2723.00,0.0087
2722.00,0.0086
2721.00,0.0084
2720.00,0.0081
2719.00,0.0077
2718.00,0.0074
2717.00,0.0070
2716.00,0.0067
2715.00,0.0064
2714.00,0.0062
2713.00,0.0060
2712.00,0.0058
2711.00,0.0055
2710.00,0.0053
2709.00,0.0052
2708.00,0.0050
2707.00,0.0049
2706.00,0.0048
2705.00,0.0046
2704.00,0.0045
2703.00,0.0044
2702.00,0.0043
2701.00,0.0043
2700.00,0.0042
2699.00,0.0042
2698.00,0.0042
2697.00,0.0042
2696.00,0.0041
2695.00,0.0041
2694.00,0.0040
2693.00,0.0041
2692.00,0.0041
2691.00,0.0041
2690.00,0.0041
2689.00,0.0041
2688.00,0.0041
2687.00,0.0040
2686.00,0.0040
2685.00,0.0040
2684.00,0.0040
2683.00,0.0040
2682.00,0.0040
2681.00,0.0040
2680.00,0.0040
2679.00,0.0041
2678.00,0.0041
2677.00,0.0041
2676.00,0.0041
2675.00,0.0041
2674.00,0.0041
2673.00,0.0041
2672.00,0.0041
2671.00,0.0041
2670.00,0.0041
2669.00,0.0041
2668.00,0.0041
2667.00,0.0041
2666.00,0.0041
2665.00,0.0041
2664.00,0.0042
2663.00,0.0042
2662.00,0.0042
2661.00,0.0042
2660.00,0.0042
2659.00,0.0042
2658.00,0.0043
2657.00,0.0043
2656.00,0.0042
2655.00,0.0042
2654.00,0.0042
2653.00,0.0041
2652.00,0.0040
2651.00,0.0040
2650.00,0.0039
2649.00,0.0039
2648.00,0.0038
2647.00,0.0038
2646.00,0.0037
2645.00,0.0037
2644.00,0.0037
2643.00,0.0037
2642.00,0.0036
2641.00,0.0035
2640.00,0.0035
2639.00,0.0034
2638.00,0.0034
2637.00,0.0034
2636.00,0.0034
2635.00,0.0034
2634.00,0.0034
2633.00,0.0034
2632.00,0.0035
2631.00,0.0035
2630.00,0.0035
2629.00,0.0035
2628.00,0.0035
2627.00,0.0035
2626.00,0.0035
2625.00,0.0035
2624.00,0.0035
2623.00,0.0035
2622.00,0.0035
2621.00,0.0036
2620.00,0.0036
2619.00,0.0036
2618.00,0.0036
2617.00,0.0036
2616.00,0.0036
2615.00,0.0036
2614.00,0.0035
2613.00,0.0035
2612.00,0.0035
2611.00,0.0034
2610.00,0.0033
2609.00,0.0033
2608.00,0.0032
2607.00,0.0031
2606.00,0.0031
2605.00,0.0031
2604.00,0.0030
2603.00,0.0030
2602.00,0.0029
2601.00,0.0029
2600.00,0.0029
2599.00,0.0029
2598.00,0.0029
2597.00,0.0029
2596.00,0.0030
2595.00,0.0030
2594.00,0.0031
2593.00,0.0031
2592.00,0.0031
2591.00,0.0031
2590.00,0.0031
2589.00,0.0031
2588.00,0.0032
2587.00,0.0033
2586.00,0.0033
2585.00,0.0034
2584.00,0.0035
2583.00,0.0035
2582.00,0.0036
2581.00,0.0036
2580.00,0.0036
2579.00,0.0036
2578.00,0.0035
2577.00,0.0033
2576.00,0.0032
2575.00,0.0031
2574.00,0.0030
2573.00,0.0029
2572.00,0.0028
2571.00,0.0027
2570.00,0.0026
2569.00,0.0025
2568.00,0.0025
2567.00,0.0025
2566.00,0.0024
2565.00,0.0023
2564.00,0.0022
2563.00,0.0022
2562.00,0.0021
2561.00,0.0021
2560.00,0.0021
2559.00,0.0020
2558.00,0.0020
2557.00,0.0019
2556.00,0.0019
2555.00,0.0018
2554.00,0.0018
2553.00,0.0018
2552.00,0.0018
2551.00,0.0018
2550.00,0.0018
2549.00,0.0018
2548.00,0.0018
2547.00,0.0018
2546.00,0.0017
2545.00,0.0016
2544.00,0.0015
2543.00,0.0015
2542.00,0.0014
2541.00,0.0014
2540.00,0.0014
2539.00,0.0014
2538.00,0.0014
2537.00,0.0014
2536.00,0.0014
2535.00,0.0014
2534.00,0.0014
2533.00,0.0014
2532.00,0.0013
2531.00,0.0013
2530.00,0.0013
2529.00,0.0012
2528.00,0.0012
2527.00,0.0011
2526.00,0.0011
2525.00,0.0011
2524.00,0.0011
2523.00,0.0011
2522.00,0.0010
2521.00,0.0010
2520.00,0.0010
2519.00,0.0010
2518.00,0.0010
2517.00,0.0010
2516.00,0.0010
2515.00,0.0009
2514.00,0.0009
2513.00,0.0009
2512.00,0.0009
2511.00,0.0009
2510.00,0.0009
2509.00,0.0008
2508.00,0.0007
2507.00,0.0006
2506.00,0.0006
2505.00,0.0006
2504.00,0.0006
2503.00,0.0006
2502.00,0.0007
2501.00,0.0007
2500.00,0.0007
2499.00,0.0007
2498.00,0.0007
2497.00,0.0007
2496.00,0.0007
2495.00,0.0007
2494.00,0.0008
2493.00,0.0008
2492.00,0.0009
2491.00,0.0009
2490.00,0.0009
2489.00,0.0009
2488.00,0.0009
2487.00,0.0009
2486.00,0.0009
2485.00,0.0008
2484.00,0.0008
2483.00,0.0007
2482.00,0.0007
2481.00,0.0007
2480.00,0.0006
2479.00,0.0006
2478.00,0.0006
2477.00,0.0006
2476.00,0.0007
2475.00,0.0007
2474.00,0.0007
2473.00,0.0007
2472.00,0.0007
2471.00,0.0007
2470.00,0.0006
2469.00,0.0005
2468.00,0.0005
2467.00,0.0005
2466.00,0.0005
2465.00,0.0005
2464.00,0.0006
2463.00,0.0007
2462.00,0.0007
2461.00,0.0007
2460.00,0.0008
2459.00,0.0008
2458.00,0.0009
2457.00,0.0010
2456.00,0.0010
2455.00,0.0010
2454.00,0.0009
2453.00,0.0009
2452.00,0.0009
2451.00,0.0010
2450.00,0.0010
2449.00,0.0010
2448.00,0.0010
2447.00,0.0009
2446.00,0.0009
2445.00,0.0008
2444.00,0.0008
2443.00,0.0008
2442.00,0.0009
2441.00,0.0009
2440.00,0.0008
2439.00,0.0008
2438.00,0.0008
2437.00,0.0008
2436.00,0.0009
2435.00,0.0009
2434.00,0.0009
2433.00,0.0009
2432.00,0.0009
2431.00,0.0009
2430.00,0.0009
2429.00,0.0009
2428.00,0.0009
2427.00,0.0010
2426.00,0.0010
2425.00,0.0010
2424.00,0.0009
2423.00,0.0009
2422.00,0.0009
2421.00,0.0008
2420.00,0.0008
2419.00,0.0008
2418.00,0.0008
2417.00,0.0008
2416.00,0.0008
2415.00,0.0008
2414.00,0.0008
2413.00,0.0008
2412.00,0.0008
2411.00,0.0008
2410.00,0.0008
2409.00,0.0008
2408.00,0.0007
2407.00,0.0007
2406.00,0.0007
2405.00,0.0007
2404.00,0.0007
2403.00,0.0007
2402.00,0.0006
2401.00,0.0006
2400.00,0.0006
2399.00,0.0006
2398.00,0.0006
2397.00,0.0007
2396.00,0.0007
2395.00,0.0007
2394.00,0.0007
2393.00,0.0006
2392.00,0.0006
2391.00,0.0006
2390.00,0.0006
2389.00,0.0006
2388.00,0.0006
2387.00,0.0006
2386.00,0.0006
2385.00,0.0006
2384.00,0.0007
2383.00,0.0007
2382.00,0.0006
2381.00,0.0006
2380.00,0.0005
2379.00,0.0006
2378.00,0.0006
2377.00,0.0007
2376.00,0.0007
2375.00,0.0007
2374.00,0.0006
2373.00,0.0006
2372.00,0.0005
2371.00,0.0005
2370.00,0.0005
2369.00,0.0004
2368.00,0.0004
2367.00,0.0004
2366.00,0.0005
2365.00,0.0005
2364.00,0.0006
2363.00,0.0006
2362.00,0.0007
2361.00,0.0008
2360.00,0.0008
2359.00,0.0008
2358.00,0.0007
2357.00,0.0006
2356.00,0.0006
2355.00,0.0006
2354.00,0.0006
2353.00,0.0006
2352.00,0.0006
2351.00,0.0006
2350.00,0.0006
2349.00,0.0007
2348.00,0.0007
2347.00,0.0008
2346.00,0.0008
2345.00,0.0008
2344.00,0.0007
2343.00,0.0006
2342.00,0.0006
2341.00,0.0006
2340.00,0.0007
2339.00,0.0008
2338.00,0.0009
2337.00,0.0009
2336.00,0.0008
2335.00,0.0008
2334.00,0.0008
2333.00,0.0008
2332.00,0.0007
2331.00,0.0007
2330.00,0.0007
2329.00,0.0009
2328.00,0.0011
2327.00,0.0014
2326.00,0.0018
2325.00,0.0022
2324.00,0.0024
2323.00,0.0023
2322.00,0.0021
2321.00,0.0019
2320.00,0.0017
2319.00,0.0015
2318.00,0.0013
2317.00,0.0013
2316.00,0.0012
2315.00,0.0012
2314.00,0.0012
2313.00,0.0011
2312.00,0.0012
2311.00,0.0012
2310.00,0.0013
2309.00,0.0013
2308.00,0.0013
2307.00,0.0012
2306.00,0.0012
2305.00,0.0011
2304.00,0.0011
2303.00,0.0011
2302.00,0.0011
2301.00,0.0011
2300.00,0.0011
2299.00,0.0012
2298.00,0.0012
2297.00,0.0013
2296.00,0.0013
2295.00,0.0013
2294.00,0.0014
2293.00,0.0015
2292.00,0.0015
2291.00,0.0016
2290.00,0.0015
2289.00,0.0015
2288.00,0.0015
2287.00,0.0016
2286.00,0.0016
2285.00,0.0016
2284.00,0.0015
2283.00,0.0015
2282.00,0.0015
2281.00,0.0014
2280.00,0.0014
2279.00,0.0013
2278.00,0.0012
2277.00,0.0011
2276.00,0.0011
2275.00,0.0011
2274.00,0.0011
2273.00,0.0012
2272.00,0.0012
2271.00,0.0011
2270.00,0.0011
2269.00,0.0011
2268.00,0.0010
2267.00,0.0010
2266.00,0.0010
2265.00,0.0010
2264.00,0.0010
2263.00,0.0008
2262.00,0.0007
2261.00,0.0007
2260.00,0.0007
2259.00,0.0008
2258.00,0.0009
2257.00,0.0008
2256.00,0.0008
2255.00,0.0007
2254.00,0.0007
2253.00,0.0008
2252.00,0.0008
2251.00,0.0008
2250.00,0.0008
2249.00,0.0008
2248.00,0.0008
2247.00,0.0009
2246.00,0.0009
2245.00,0.0009
2244.00,0.0009
2243.00,0.0009
2242.00,0.0008
2241.00,0.0009
2240.00,0.0009
2239.00,0.0009
2238.00,0.0008
2237.00,0.0006
2236.00,0.0006
2235.00,0.0005
2234.00,0.0006
2233.00,0.0005
2232.00,0.0004
2231.00,0.0002
2230.00,0.0001
2229.00,0.0002
2228.00,0.0005
2227.00,0.0007
2226.00,0.0009
2225.00,0.0009
2224.00,0.0009
2223.00,0.0008
2222.00,0.0007
2221.00,0.0007
2220.00,0.0007
2219.00,0.0007
2218.00,0.0006
2217.00,0.0006
2216.00,0.0006
2215.00,0.0005
2214.00,0.0005
2213.00,0.0005
2212.00,0.0006
2211.00,0.0007
2210.00,0.0008
2209.00,0.0009
2208.00,0.0009
2207.00,0.0009
2206.00,0.0007
2205.00,0.0006
2204.00,0.0005
2203.00,0.0005
2202.00,0.0005
2201.00,0.0006
2200.00,0.0008
2199.00,0.0008
2198.00,0.0007
2197.00,0.0006
2196.00,0.0004
2195.00,0.0004
2194.00,0.0005
2193.00,0.0007
2192.00,0.0009
2191.00,0.0011
2190.00,0.0010
2189.00,0.0009
2188.00,0.0007
2187.00,0.0006
2186.00,0.0005
2185.00,0.0004
2184.00,0.0004
2183.00,0.0004
2182.00,0.0005
2181.00,0.0006
2180.00,0.0007
2179.00,0.0007
2178.00,0.0007
2177.00,0.0007
2176.00,0.0007
2175.00,0.0006
2174.00,0.0005
2173.00,0.0004
2172.00,0.0004
2171.00,0.0005
2170.00,0.0006
2169.00,0.0007
2168.00,0.0009
2167.00,0.0010
2166.00,0.0011
2165.00,0.0009
2164.00,0.0007
2163.00,0.0006
2162.00,0.0005
2161.00,0.0002
2160.00,-0.0006
2159.00,-0.0018
2158.00,-0.0028
2157.00,-0.0031
2156.00,-0.0029
2155.00,-0.0024
2154.00,-0.0019
2153.00,-0.0017
2152.00,-0.0016
2151.00,-0.0015
2150.00,-0.0015
2149.00,-0.0014
2148.00,-0.0014
2147.00,-0.0016
2146.00,-0.0019
2145.00,-0.0020
2144.00,-0.0020
2143.00,-0.0019
2142.00,-0.0016
2141.00,-0.0011
2140.00,-0.0008
2139.00,-0.0006
2138.00,-0.0006
2137.00,-0.0008
2136.00,-0.0011
2135.00,-0.0015
2134.00,-0.0017
2133.00,-0.0018
2132.00,-0.0017
2131.00,-0.0016
2130.00,-0.0015
2129.00,-0.0013
2128.00,-0.0011
2127.00,-0.0009
2126.00,-0.0007
2125.00,-0.0006
2124.00,-0.0007
2123.00,-0.0008
2122.00,-0.0009
2121.00,-0.0009
2120.00,-0.0008
2119.00,-0.0006
2118.00,-0.0003
2117.00,-0.0000
2116.00,0.0002
2115.00,0.0004
2114.00,0.0004
2113.00,0.0004
2112.00,0.0002
2111.00,0.0001
2110.00,-0.0000
2109.00,-0.0000
2108.00,-0.0001
2107.00,-0.0001
2106.00,-0.0001
2105.00,-0.0001
2104.00,-0.0001
2103.00,-0.0001
2102.00,-0.0001
2101.00,-0.0001
2100.00,-0.0001
2099.00,-0.0002
2098.00,-0.0002
2097.00,-0.0004
2096.00,-0.0006
2095.00,-0.0007
2094.00,-0.0007
2093.00,-0.0005
2092.00,-0.0002
2091.00,0.0000
2090.00,0.0001
2089.00,0.0001
2088.00,0.0001
2087.00,0.0001
2086.00,0.0002
2085.00,0.0004
2084.00,0.0005
2083.00,0.0006
2082.00,0.0005
2081.00,0.0003
2080.00,0.0001
2079.00,-0.0000
2078.00,-0.0001
2077.00,-0.0001
2076.00,0.0000
2075.00,0.0001
2074.00,0.0001
2073.00,0.0001
2072.00,0.0001
2071.00,0.0002
2070.00,0.0002
2069.00,0.0002
2068.00,0.0002
2067.00,0.0003
2066.00,0.0002
2065.00,0.0000
2064.00,-0.0003
2063.00,-0.0006
2062.00,-0.0008
2061.00,-0.0008
2060.00,-0.0007
2059.00,-0.0005
2058.00,-0.0003
2057.00,-0.0002
2056.00,-0.0002
2055.00,-0.0003
2054.00,-0.0003
2053.00,-0.0000
2052.00,0.0005
2051.00,0.0009
2050.00,0.0010
2049.00,0.0007
2048.00,0.0005
2047.00,0.0003
2046.00,0.0002
2045.00,0.0001
2044.00,0.0001
2043.00,0.0001
2042.00,0.0001
2041.00,-0.0001
2040.00,-0.0001
2039.00,-0.0001
2038.00,0.0000
2037.00,0.0002
2036.00,0.0003
2035.00,0.0002
2034.00,-0.0000
2033.00,-0.0003
2032.00,-0.0006
2031.00,-0.0009
2030.00,-0.0011
2029.00,-0.0012
2028.00,-0.0012
2027.00,-0.0012
2026.00,-0.0013
2025.00,-0.0014
2024.00,-0.0015
2023.00,-0.0016
2022.00,-0.0016
2021.00,-0.0015
2020.00,-0.0013
2019.00,-0.0010
2018.00,-0.0006
2017.00,-0.0005
2016.00,-0.0005
2015.00,-0.0007
2014.00,-0.0009
2013.00,-0.0012
2012.00,-0.0014
2011.00,-0.0015
2010.00,-0.0015
2009.00,-0.0015
2008.00,-0.0016
2007.00,-0.0018
2006.00,-0.0022
2005.00,-0.0024
2004.00,-0.0023
2003.00,-0.0020
2002.00,-0.0017
2001.00,-0.0014
2000.00,-0.0013
1999.00,-0.0012
1998.00,-0.0012
1997.00,-0.0012
1996.00,-0.0011
1995.00,-0.0010
1994.00,-0.0008
1993.00,-0.0006
1992.00,-0.0005
1991.00,-0.0004
1990.00,-0.0005
1989.00,-0.0005
1988.00,-0.0005
1987.00,-0.0005
1986.00,-0.0005
1985.00,-0.0004
1984.00,-0.0003
1983.00,-0.0001
1982.00,0.0002
1981.00,0.0007
1980.00,0.0009
1979.00,0.0007
1978.00,0.0000
1977.00,-0.0006
1976.00,-0.0011
1975.00,-0.0013
1974.00,-0.0015
1973.00,-0.0016
1972.00,-0.0016
1971.00,-0.0016
1970.00,-0.0014
1969.00,-0.0013
1968.00,-0.0012
1967.00,-0.0011
1966.00,-0.0012
1965.00,-0.0012
1964.00,-0.0010
1963.00,-0.0009
1962.00,-0.0008
1961.00,-0.0009
1960.00,-0.0012
1959.00,-0.0016
1958.00,-0.0019
1957.00,-0.0020
1956.00,-0.0017
1955.00,-0.0013
1954.00,-0.0010
1953.00,-0.0010
1952.00,-0.0011
1951.00,-0.0012
1950.00,-0.0014
1949.00,-0.0015
1948.00,-0.0015
1947.00,-0.0014
1946.00,-0.0013
1945.00,-0.0014
1944.00,-0.0016
1943.00,-0.0016
1942.00,-0.0016
1941.00,-0.0014
1940.00,-0.0013
1939.00,-0.0012
1938.00,-0.0013
1937.00,-0.0014
1936.00,-0.0014
1935.00,-0.0013
1934.00,-0.0012
1933.00,-0.0012
1932.00,-0.0013
1931.00,-0.0013
1930.00,-0.0011
1929.00,-0.0009
1928.00,-0.0007
1927.00,-0.0005
1926.00,-0.0004
1925.00,-0.0004
1924.00,-0.0003
1923.00,-0.0003
1922.00,-0.0003
1921.00,-0.0003
1920.00,-0.0004
1919.00,-0.0005
1918.00,-0.0006
1917.00,-0.0006
1916.00,-0.0005
1915.00,-0.0003
1914.00,-0.0002
1913.00,-0.0002
1912.00,-0.0002
1911.00,-0.0002
1910.00,-0.0002
1909.00,-0.0002
1908.00,-0.0002
1907.00,-0.0002
1906.00,-0.0002
1905.00,-0.0003
1904.00,-0.0003
1903.00,-0.0004
1902.00,-0.0004
1901.00,-0.0003
1900.00,-0.0002
1899.00,-0.0002
1898.00,-0.0002
1897.00,-0.0003
1896.00,-0.0004
1895.00,-0.0004
1894.00,-0.0004
1893.00,-0.0004
1892.00,-0.0003
1891.00,-0.0003
1890.00,-0.0003
1889.00,-0.0002
1888.00,-0.0001
1887.00,-0.0002
1886.00,-0.0002
1885.00,-0.0003
1884.00,-0.0003
1883.00,-0.0003
1882.00,-0.0003
1881.00,-0.0002
1880.00,-0.0003
1879.00,-0.0003
1878.00,-0.0003
1877.00,-0.0003
1876.00,-0.0002
1875.00,-0.0001
1874.00,-0.0000
1873.00,0.0000
1872.00,0.0000
1871.00,-0.0000
1870.00,-0.0001
1869.00,-0.0001
1868.00,-0.0002
1867.00,-0.0002
1866.00,-0.0002
1865.00,-0.0001
1864.00,-0.0001
1863.00,0.0000
1862.00,0.0001
1861.00,0.0001
1860.00,0.0001
1859.00,0.0001
1858.00,0.0000
1857.00,-0.0000
1856.00,0.0000
1855.00,0.0000
1854.00,0.0000
1853.00,-0.0000
1852.00,-0.0000
1851.00,-0.0000
1850.00,0.0000
1849.00,0.0001
1848.00,0.0001
1847.00,0.0001
1846.00,0.0000
1845.00,0.0000
1844.00,0.0001
1843.00,0.0001
1842.00,0.0001
1841.00,0.0002
1840.00,0.0002
1839.00,0.0002
1838.00,0.0001
1837.00,0.0001
1836.00,0.0001
1835.00,0.0001
1834.00,0.0002
1833.00,0.0003
1832.00,0.0003
1831.00,0.0003
1830.00,0.0002
1829.00,0.0002
1828.00,0.0002
1827.00,0.0002
1826.00,0.0002
1825.00,0.0002
1824.00,0.0002
1823.00,0.0002
1822.00,0.0002
1821.00,0.0002
1820.00,0.0002
1819.00,0.0001
1818.00,-0.0001
1817.00,-0.0002
1816.00,-0.0002
1815.00,-0.0002
1814.00,-0.0001
1813.00,-0.0000
1812.00,0.0001
1811.00,0.0001
1810.00,0.0002
1809.00,0.0002
1808.00,0.0002
1807.00,0.0002
1806.00,0.0002
1805.00,0.0003
1804.00,0.0003
1803.00,0.0003
1802.00,0.0003
1801.00,0.0003
1800.00,0.0004
1799.00,0.0004
1798.00,0.0005
1797.00,0.0005
1796.00,0.0005
1795.00,0.0005
1794.00,0.0005
1793.00,0.0005
1792.00,0.0005
1791.00,0.0005
1790.00,0.0005
1789.00,0.0004
1788.00,0.0004
1787.00,0.0004
1786.00,0.0004
1785.00,0.0003
1784.00,0.0003
1783.00,0.0002
1782.00,0.0002
1781.00,0.0003
1780.00,0.0002
1779.00,0.0002
1778.00,0.0001
1777.00,-0.0000
1776.00,-0.0001
1775.00,-0.0001
1774.00,-0.0002
1773.00,-0.0003
1772.00,-0.0002
1771.00,-0.0001
1770.00,-0.0000
1769.00,0.0001
1768.00,0.0001
1767.00,0.0002
1766.00,0.0002
1765.00,0.0002
1764.00,0.0002
1763.00,0.0003
1762.00,0.0004
1761.00,0.0004
1760.00,0.0004
1759.00,0.0004
1758.00,0.0005
1757.00,0.0005
1756.00,0.0004
1755.00,0.0004
1754.00,0.0003
1753.00,0.0004
1752.00,0.0004
1751.00,0.0005
1750.00,0.0004
1749.00,0.0004
1748.00,0.0004
1747.00,0.0003
1746.00,0.0003
1745.00,0.0003
1744.00,0.0003
1743.00,0.0003
1742.00,0.0003
1741.00,0.0003
1740.00,0.0003
1739.00,0.0003
1738.00,0.0003
1737.00,0.0003
1736.00,0.0003
1735.00,0.0003
1734.00,0.0002
1733.00,0.0002
1732.00,0.0002
1731.00,0.0002
1730.00,0.0002
1729.00,0.0003
1728.00,0.0003
1727.00,0.0003
1726.00,0.0004
1725.00,0.0004
1724.00,0.0004
1723.00,0.0004
1722.00,0.0004
1721.00,0.0005
1720.00,0.0005
1719.00,0.0005
1718.00,0.0006
1717.00,0.0007
1716.00,0.0008
1715.00,0.0009
1714.00,0.0009
1713.00,0.0010
1712.00,0.0010
1711.00,0.0010
1710.00,0.0011
1709.00,0.0011
1708.00,0.0012
1707.00,0.0012
1706.00,0.0013
1705.00,0.0013
1704.00,0.0014
1703.00,0.0015
1702.00,0.0015
1701.00,0.0017
1700.00,0.0019
1699.00,0.0019
1698.00,0.0020
1697.00,0.0021
1696.00,0.0023
1695.00,0.0025
1694.00,0.0027
1693.00,0.0028
1692.00,0.0029
1691.00,0.0030
1690.00,0.0031
1689.00,0.0032
1688.00,0.0033
1687.00,0.0033
1686.00,0.0034
1685.00,0.0035
1684.00,0.0038
1683.00,0.0040
1682.00,0.0042
1681.00,0.0043
1680.00,0.0045
1679.00,0.0046
1678.00,0.0048
1677.00,0.0049
1676.00,0.0050
1675.00,0.0051
1674.00,0.0052
1673.00,0.0052
1672.00,0.0053
1671.00,0.0054
1670.00,0.0055
1669.00,0.0056
1668.00,0.0056
1667.00,0.0056
1666.00,0.0057
1665.00,0.0057
1664.00,0.0059
1663.00,0.0060
1662.00,0.0060
1661.00,0.0061
1660.00,0.0061
1659.00,0.0061
1658.00,0.0062
1657.00,0.0062
1656.00,0.0063
1655.00,0.0063
1654.00,0.0063
1653.00,0.0063
1652.00,0.0063
1651.00,0.0064
1650.00,0.0064
1649.00,0.0064
1648.00,0.0064
1647.00,0.0064
1646.00,0.0064
1645.00,0.0064
1644.00,0.0065
1643.00,0.0065
1642.00,0.0064
1641.00,0.0064
1640.00,0.0064
1639.00,0.0063
1638.00,0.0062
1637.00,0.0062
1636.00,0.0062
1635.00,0.0062
1634.00,0.0062
1633.00,0.0062
1632.00,0.0061
1631.00,0.0061
1630.00,0.0061
1629.00,0.0061
1628.00,0.0061
1627.00,0.0060
1626.00,0.0060
1625.00,0.0059
1624.00,0.0059
1623.00,0.0058
1622.00,0.0057
1621.00,0.0056
1620.00,0.0056
1619.00,0.0055
1618.00,0.0054
1617.00,0.0053
1616.00,0.0053
1615.00,0.0053
1614.00,0.0053
1613.00,0.0053
1612.00,0.0052
1611.00,0.0051
1610.00,0.0050
1609.00,0.0049
1608.00,0.0049
1607.00,0.0049
1606.00,0.0049
1605.00,0.0050
1604.00,0.0050
1603.00,0.0051
1602.00,0.0051
1601.00,0.0051
1600.00,0.0051
1599.00,0.0051
1598.00,0.0051
1597.00,0.0051
1596.00,0.0051
1595.00,0.0052
1594.00,0.0052
1593.00,0.0053
1592.00,0.0053
1591.00,0.0054
1590.00,0.0054
1589.00,0.0055
1588.00,0.0057
1587.00,0.0058
1586.00,0.0060
1585.00,0.0062
1584.00,0.0065
1583.00,0.0068
1582.00,0.0071
1581.00,0.0073
1580.00,0.0076
1579.00,0.0077
1578.00,0.0078
1577.00,0.0079
1576.00,0.0079
1575.00,0.0078
1574.00,0.0078
1573.00,0.0077
1572.00,0.0076
1571.00,0.0074
1570.00,0.0071
1569.00,0.0069
1568.00,0.0068
1567.00,0.0066
1566.00,0.0065
1565.00,0.0064
1564.00,0.0063
1563.00,0.0063
1562.00,0.0063
1561.00,0.0064
1560.00,0.0064
1559.00,0.0065
1558.00,0.0066
1557.00,0.0067
1556.00,0.0069
1555.00,0.0069
1554.00,0.0070
1553.00,0.0071
1552.00,0.0072
1551.00,0.0073
1550.00,0.0075
1549.00,0.0078
1548.00,0.0080
1547.00,0.0083
1546.00,0.0085
1545.00,0.0088
1544.00,0.0091
1543.00,0.0094
1542.00,0.0095
1541.00,0.0094
1540.00,0.0093
1539.00,0.0091
1538.00,0.0089
1537.00,0.0087
1536.00,0.0085
1535.00,0.0081
1534.00,0.0077
1533.00,0.0073
1532.00,0.0070
1531.00,0.0068
1530.00,0.0067
1529.00,0.0066
1528.00,0.0066
1527.00,0.0064
1526.00,0.0063
1525.00,0.0062
1524.00,0.0062
1523.00,0.0062
1522.00,0.0062
1521.00,0.0063
1520.00,0.0063
1519.00,0.0063
1518.00,0.0063
1517.00,0.0064
1516.00,0.0065
1515.00,0.0065
1514.00,0.0065
1513.00,0.0065
1512.00,0.0065
1511.00,0.0066
1510.00,0.0066
1509.00,0.0067
1508.00,0.0068
1507.00,0.0068
1506.00,0.0069
1505.00,0.0070
1504.00,0.0071
1503.00,0.0072
1502.00,0.0073
1501.00,0.0075
1500.00,0.0077
1499.00,0.0078
1498.00,0.0079
1497.00,0.0082
1496.00,0.0086
1495.00,0.0089
1494.00,0.0091
1493.00,0.0095
1492.00,0.0099
1491.00,0.0102
1490.00,0.0106
1489.00,0.0110
1488.00,0.0116
1487.00,0.0121
1486.00,0.0127
1485.00,0.0134
1484.00,0.0142
1483.00,0.0151
1482.00,0.0161
1481.00,0.0174
1480.00,0.0187
1479.00,0.0200
1478.00,0.0215
1477.00,0.0234
1476.00,0.0256
1475.00,0.0281
1474.00,0.0315
1473.00,0.0367
1472.00,0.0431
1471.00,0.0494
1470.00,0.0556
1469.00,0.0621
1468.00,0.0692
1467.00,0.0771
1466.00,0.0861
1465.00,0.0960
1464.00,0.1048
1463.00,0.1113
1462.00,0.1157
1461.00,0.1189
1460.00,0.1214
1459.00,0.1230
1458.00,0.1242
1457.00,0.1251
1456.00,0.1252
1455.00,0.1246
1454.00,0.1236
1453.00,0.1219
1452.00,0.1191
1451.00,0.1149
1450.00,0.1092
1449.00,0.1013
1448.00,0.0916
1447.00,0.0815
1446.00,0.0725
1445.00,0.0651
1444.00,0.0588
1443.00,0.0538
1442.00,0.0502
1441.00,0.0479
1440.00,0.0466
1439.00,0.0463
1438.00,0.0467
1437.00,0.0470
1436.00,0.0460
1435.00,0.0433
1434.00,0.0392
1433.00,0.0344
1432.00,0.0295
1431.00,0.0251
1430.00,0.0219
1429.00,0.0195
1428.00,0.0180
1427.00,0.0171
1426.00,0.0164
1425.00,0.0159
1424.00,0.0153
1423.00,0.0150
1422.00,0.0148
1421.00,0.0146
1420.00,0.0142
1419.00,0.0139
1418.00,0.0136
1417.00,0.0132
1416.00,0.0129
1415.00,0.0126
1414.00,0.0125
1413.00,0.0124
1412.00,0.0122
1411.00,0.0121
1410.00,0.0120
1409.00,0.0119
1408.00,0.0117
1407.00,0.0117
1406.00,0.0117
1405.00,0.0117
1404.00,0.0117
1403.00,0.0118
1402.00,0.0119
1401.00,0.0121
1400.00,0.0122
1399.00,0.0124
1398.00,0.0126
1397.00,0.0128
1396.00,0.0129
1395.00,0.0133
1394.00,0.0139
1393.00,0.0145
1392.00,0.0151
1391.00,0.0160
1390.00,0.0172
1389.00,0.0189
1388.00,0.0215
1387.00,0.0255
1386.00,0.0307
1385.00,0.0372
1384.00,0.0458
1383.00,0.0575
1382.00,0.0729
1381.00,0.0929
1380.00,0.1178
1379.00,0.1467
1378.00,0.1755
1377.00,0.1977
1376.00,0.2069
1375.00,0.1987
1374.00,0.1750
1373.00,0.1449
1372.00,0.1167
1371.00,0.0931
1370.00,0.0742
1369.00,0.0599
1368.00,0.0500
1367.00,0.0440
1366.00,0.0408
1365.00,0.0396
1364.00,0.0400
1363.00,0.0415
1362.00,0.0438
1361.00,0.0462
1360.00,0.0480
1359.00,0.0485
1358.00,0.0472
1357.00,0.0443
1356.00,0.0401
1355.00,0.0355
1354.00,0.0311
1353.00,0.0273
1352.00,0.0242
1351.00,0.0218
1350.00,0.0198
1349.00,0.0182
1348.00,0.0169
1347.00,0.0159
1346.00,0.0151
1345.00,0.0145
1344.00,0.0139
1343.00,0.0135
1342.00,0.0132
1341.00,0.0129
1340.00,0.0127
1339.00,0.0126
1338.00,0.0125
1337.00,0.0124
1336.00,0.0125
1335.00,0.0127
1334.00,0.0130
1333.00,0.0134
1332.00,0.0138
1331.00,0.0142
1330.00,0.0143
1329.00,0.0142
1328.00,0.0137
1327.00,0.0131
1326.00,0.0125
1325.00,0.0118
1324.00,0.0112
1323.00,0.0107
1322.00,0.0102
1321.00,0.0098
1320.00,0.0095
1319.00,0.0092
1318.00,0.0089
1317.00,0.0087
1316.00,0.0085
1315.00,0.0084
1314.00,0.0083
1313.00,0.0083
1312.00,0.0084
1311.00,0.0086
1310.00,0.0089
1309.00,0.0094
1308.00,0.0102
1307.00,0.0110
1306.00,0.0119
1305.00,0.0126
1304.00,0.0129
1303.00,0.0129
1302.00,0.0126
1301.00,0.0124
1300.00,0.0122
1299.00,0.0123
1298.00,0.0124
1297.00,0.0125
1296.00,0.0125
1295.00,0.0123
1294.00,0.0118
1293.00,0.0113
1292.00,0.0107
1291.00,0.0101
1290.00,0.0096
1289.00,0.0092
1288.00,0.0088
1287.00,0.0085
1286.00,0.0082
1285.00,0.0080
1284.00,0.0077
1283.00,0.0075
1282.00,0.0073
1281.00,0.0071
1280.00,0.0070
1279.00,0.0069
1278.00,0.0068
1277.00,0.0067
1276.00,0.0067
1275.00,0.0067
1274.00,0.0067
1273.00,0.0067
1272.00,0.0067
1271.00,0.0068
1270.00,0.0068
1269.00,0.0069
1268.00,0.0070
1267.00,0.0072
1266.00,0.0075
1265.00,0.0077
1264.00,0.0080
1263.00,0.0082
1262.00,0.0085
1261.00,0.0088
1260.00,0.0093
1259.00,0.0099
1258.00,0.0105
1257.00,0.0111
1256.00,0.0113
1255.00,0.0111
1254.00,0.0106
1253.00,0.0099
1252.00,0.0093
1251.00,0.0087
1250.00,0.0083
1249.00,0.0080
1248.00,0.0078
1247.00,0.0076
1246.00,0.0075
1245.00,0.0075
1244.00,0.0074
1243.00,0.0074
1242.00,0.0073
1241.00,0.0072
1240.00,0.0072
1239.00,0.0071
1238.00,0.0071
1237.00,0.0070
1236.00,0.0070
1235.00,0.0069
1234.00,0.0069
1233.00,0.0069
1232.00,0.0069
1231.00,0.0069
1230.00,0.0069
1229.00,0.0069
1228.00,0.0070
1227.00,0.0072
1226.00,0.0075
1225.00,0.0079
1224.00,0.0082
1223.00,0.0086
1222.00,0.0090
1221.00,0.0093
1220.00,0.0095
1219.00,0.0096
1218.00,0.0095
1217.00,0.0093
1216.00,0.0090
1215.00,0.0087
1214.00,0.0084
1213.00,0.0080
1212.00,0.0077
1211.00,0.0074
1210.00,0.0072
1209.00,0.0070
1208.00,0.0068
1207.00,0.0065
1206.00,0.0063
1205.00,0.0061
1204.00,0.0060
1203.00,0.0059
1202.00,0.0058
1201.00,0.0057
1200.00,0.0056
1199.00,0.0055
1198.00,0.0055
1197.00,0.0055
1196.00,0.0055
1195.00,0.0055
1194.00,0.0055
1193.00,0.0055
1192.00,0.0056
1191.00,0.0056
1190.00,0.0057
1189.00,0.0057
1188.00,0.0058
1187.00,0.0059
1186.00,0.0060
1185.00,0.0062
1184.00,0.0063
1183.00,0.0065
1182.00,0.0067
1181.00,0.0070
1180.00,0.0074
1179.00,0.0079
1178.00,0.0085
1177.00,0.0093
1176.00,0.0103
1175.00,0.0117
1174.00,0.0134
1173.00,0.0156
1172.00,0.0182
1171.00,0.0211
1170.00,0.0239
1169.00,0.0260
1168.00,0.0274
1167.00,0.0277
1166.00,0.0272
1165.00,0.0262
1164.00,0.0248
1163.00,0.0235
1162.00,0.0223
1161.00,0.0212
1160.00,0.0203
1159.00,0.0197
1158.00,0.0192
1157.00,0.0190
1156.00,0.0188
1155.00,0.0187
1154.00,0.0186
1153.00,0.0184
1152.00,0.0180
1151.00,0.0174
1150.00,0.0166
1149.00,0.0157
1148.00,0.0147
1147.00,0.0139
1146.00,0.0131
1145.00,0.0123
1144.00,0.0116
1143.00,0.0110
1142.00,0.0104
1141.00,0.0097
1140.00,0.0092
1139.00,0.0087
1138.00,0.0083
1137.00,0.0080
1136.00,0.0077
1135.00,0.0075
1134.00,0.0073
1133.00,0.0072
1132.00,0.0071
1131.00,0.0071
1130.00,0.0072
1129.00,0.0073
1128.00,0.0075
1127.00,0.0077
1126.00,0.0079
1125.00,0.0080
1124.00,0.0080
1123.00,0.0080
1122.00,0.0080
1121.00,0.0079
1120.00,0.0079
1119.00,0.0080
1118.00,0.0081
1117.00,0.0083
1116.00,0.0085
1115.00,0.0087
1114.00,0.0089
1113.00,0.0091
1112.00,0.0093
1111.00,0.0096
1110.00,0.0100
1109.00,0.0104
1108.00,0.0110
1107.00,0.0118
1106.00,0.0126
1105.00,0.0133
1104.00,0.0139
1103.00,0.0142
1102.00,0.0142
1101.00,0.0139
1100.00,0.0133
1099.00,0.0126
1098.00,0.0119
1097.00,0.0113
1096.00,0.0108
1095.00,0.0104
1094.00,0.0100
1093.00,0.0096
1092.00,0.0093
1091.00,0.0091
1090.00,0.0088
1089.00,0.0086
1088.00,0.0084
1087.00,0.0082
1086.00,0.0080
1085.00,0.0079
1084.00,0.0079
1083.00,0.0079
1082.00,0.0079
1081.00,0.0078
1080.00,0.0075
1079.00,0.0073
1078.00,0.0072
1077.00,0.0071
1076.00,0.0071
1075.00,0.0070
1074.00,0.0070
1073.00,0.0070
1072.00,0.0070
1071.00,0.0072
1070.00,0.0073
1069.00,0.0074
1068.00,0.0074
1067.00,0.0074
1066.00,0.0074
1065.00,0.0074
1064.00,0.0075
1063.00,0.0075
1062.00,0.0075
1061.00,0.0075
1060.00,0.0076
1059.00,0.0077
1058.00,0.0078
1057.00,0.0079
1056.00,0.0080
1055.00,0.0080
1054.00,0.0080
1053.00,0.0080
1052.00,0.0080
1051.00,0.0080
1050.00,0.0082
1049.00,0.0084
1048.00,0.0086
1047.00,0.0087
1046.00,0.0088
1045.00,0.0089
1044.00,0.0090
1043.00,0.0090
1042.00,0.0089
1041.00,0.0088
1040.00,0.0087
1039.00,0.0087
1038.00,0.0089
1037.00,0.0091
1036.00,0.0092
1035.00,0.0093
1034.00,0.0092
1033.00,0.0091
1032.00,0.0090
1031.00,0.0089
1030.00,0.0088
1029.00,0.0088
1028.00,0.0088
1027.00,0.0087
1026.00,0.0086
1025.00,0.0085
1024.00,0.0085
1023.00,0.0084
1022.00,0.0085
1021.00,0.0085
1020.00,0.0086
1019.00,0.0087
1018.00,0.0089
1017.00,0.0090
1016.00,0.0092
1015.00,0.0094
1014.00,0.0097
1013.00,0.0101
1012.00,0.0104
1011.00,0.0108
1010.00,0.0111
1009.00,0.0114
1008.00,0.0118
1007.00,0.0123
1006.00,0.0130
1005.00,0.0140
1004.00,0.0153
1003.00,0.0171
1002.00,0.0195
1001.00,0.0224
1000.00,0.0254
999.00,0.0278
998.00,0.0290
997.00,0.0284
996.00,0.0261
995.00,0.0229
994.00,0.0195
993.00,0.0166
992.00,0.0144
991.00,0.0128
990.00,0.0118
989.00,0.0111
988.00,0.0106
987.00,0.0104
986.00,0.0103
985.00,0.0105
984.00,0.0110
983.00,0.0117
982.00,0.0129
981.00,0.0144
980.00,0.0165
979.00,0.0192
978.00,0.0225
977.00,0.0263
976.00,0.0302
975.00,0.0338
974.00,0.0362
973.00,0.0369
972.00,0.0355
971.00,0.0322
970.00,0.0279
969.00,0.0236
968.00,0.0199
967.00,0.0170
966.00,0.0149
965.00,0.0133
964.00,0.0120
963.00,0.0111
962.00,0.0104
961.00,0.0099
960.00,0.0094
959.00,0.0091
958.00,0.0087
957.00,0.0084
956.00,0.0081
955.00,0.0079
954.00,0.0078
953.00,0.0077
952.00,0.0077
951.00,0.0076
950.00,0.0075
949.00,0.0075
948.00,0.0076
947.00,0.0078
946.00,0.0081
945.00,0.0084
944.00,0.0087
943.00,0.0090
942.00,0.0091
941.00,0.0092
940.00,0.0092
939.00,0.0090
938.00,0.0087
937.00,0.0083
936.00,0.0078
935.00,0.0074
934.00,0.0070
933.00,0.0067
932.00,0.0065
931.00,0.0064
930.00,0.0063
929.00,0.0063
928.00,0.0062
927.00,0.0061
926.00,0.0060
925.00,0.0059
924.00,0.0059
923.00,0.0060
922.00,0.0062
921.00,0.0064
920.00,0.0065
919.00,0.0067
918.00,0.0069
917.00,0.0069
916.00,0.0069
915.00,0.0070
914.00,0.0070
913.00,0.0071
912.00,0.0072
911.00,0.0073
910.00,0.0074
909.00,0.0075
908.00,0.0078
907.00,0.0082
906.00,0.0090
905.00,0.0101
904.00,0.0116
903.00,0.0136
902.00,0.0159
901.00,0.0179
900.00,0.0194
899.00,0.0199
898.00,0.0192
897.00,0.0176
896.00,0.0155
895.00,0.0135
894.00,0.0118
893.00,0.0104
892.00,0.0093
891.00,0.0085
890.00,0.0080
889.00,0.0078
888.00,0.0076
887.00,0.0075
886.00,0.0074
885.00,0.0073
884.00,0.0072
883.00,0.0072
882.00,0.0071
881.00,0.0071
880.00,0.0072
879.00,0.0074
878.00,0.0075
877.00,0.0075
876.00,0.0075
875.00,0.0075
874.00,0.0075
873.00,0.0074
872.00,0.0073
871.00,0.0072
870.00,0.0071
869.00,0.0071
868.00,0.0072
867.00,0.0073
866.00,0.0074
865.00,0.0075
864.00,0.0076
863.00,0.0077
862.00,0.0078
861.00,0.0079
860.00,0.0080
859.00,0.0082
858.00,0.0083
857.00,0.0084
856.00,0.0085
855.00,0.0086
854.00,0.0088
853.00,0.0090
852.00,0.0093
851.00,0.0096
850.00,0.0101
849.00,0.0108
848.00,0.0116
847.00,0.0128
846.00,0.0147
845.00,0.0174
844.00,0.0209
843.00,0.0245
842.00,0.0271
841.00,0.0275
840.00,0.0256
839.00,0.0222
838.00,0.0187
837.00,0.0159
836.00,0.0140
835.00,0.0128
834.00,0.0121
833.00,0.0115
832.00,0.0111
831.00,0.0109
830.00,0.0109
829.00,0.0109
828.00,0.0109
827.00,0.0108
826.00,0.0106
825.00,0.0105
824.00,0.0105
823.00,0.0105
822.00,0.0106
821.00,0.0107
820.00,0.0108
819.00,0.0110
818.00,0.0114
817.00,0.0121
816.00,0.0130
815.00,0.0142
814.00,0.0155
813.00,0.0171
812.00,0.0188
811.00,0.0204
810.00,0.0216
809.00,0.0222
808.00,0.0221
807.00,0.0212
806.00,0.0197
805.00,0.0181
804.00,0.0165
803.00,0.0151
802.00,0.0139
801.00,0.0130
800.00,0.0122
799.00,0.0116
798.00,0.0109
797.00,0.0104
796.00,0.0101
795.00,0.0098
794.00,0.0095
793.00,0.0092
792.00,0.0089
791.00,0.0087
790.00,0.0084
789.00,0.0082
788.00,0.0079
787.00,0.0075
786.00,0.0071
785.00,0.0068
784.00,0.0066
783.00,0.0065
782.00,0.0064
781.00,0.0063
780.00,0.0062
779.00,0.0060
778.00,0.0058
777.00,0.0057
776.00,0.0057
775.00,0.0059
774.00,0.0062
773.00,0.0067
772.00,0.0071
771.00,0.0074
770.00,0.0077
769.00,0.0078
768.00,0.0079
767.00,0.0080
766.00,0.0081
765.00,0.0080
764.00,0.0078
763.00,0.0074
762.00,0.0069
761.00,0.0065
760.00,0.0063
759.00,0.0061
758.00,0.0060
757.00,0.0058
756.00,0.0055
755.00,0.0052
754.00,0.0050
753.00,0.0049
752.00,0.0049
751.00,0.0050
750.00,0.0051
749.00,0.0053
748.00,0.0053
747.00,0.0054
746.00,0.0054
745.00,0.0054
744.00,0.0054
743.00,0.0055
742.00,0.0056
741.00,0.0058
740.00,0.0060
739.00,0.0062
738.00,0.0063
737.00,0.0064
736.00,0.0065
735.00,0.0068
734.00,0.0071
733.00,0.0073
732.00,0.0074
731.00,0.0073
730.00,0.0072
729.00,0.0071
728.00,0.0070
727.00,0.0069
726.00,0.0068
725.00,0.0068
724.00,0.0068
723.00,0.0068
722.00,0.0068
721.00,0.0067
720.00,0.0066
719.00,0.0065
718.00,0.0064
717.00,0.0062
716.00,0.0061
715.00,0.0061
714.00,0.0061
713.00,0.0062
712.00,0.0061
711.00,0.0059
710.00,0.0057
709.00,0.0055
708.00,0.0055
707.00,0.0056
706.00,0.0058
705.00,0.0060
704.00,0.0060
703.00,0.0061
702.00,0.0061
701.00,0.0060
700.00,0.0058
699.00,0.0057
698.00,0.0057
697.00,0.0057
696.00,0.0056
695.00,0.0056
694.00,0.0056
693.00,0.0056
692.00,0.0055
691.00,0.0055
690.00,0.0056
689.00,0.0057
688.00,0.0057
687.00,0.0056
686.00,0.0055
685.00,0.0055
684.00,0.0056
683.00,0.0056
682.00,0.0056
681.00,0.0056
680.00,0.0056
679.00,0.0057
678.00,0.0057
677.00,0.0057
676.00,0.0056
675.00,0.0054
674.00,0.0053
673.00,0.0053
672.00,0.0054
671.00,0.0056
670.00,0.0059
669.00,0.0064
668.00,0.0068
667.00,0.0070
666.00,0.0069
665.00,0.0068
664.00,0.0067
663.00,0.0065
662.00,0.0063
661.00,0.0061
660.00,0.0060
659.00,0.0060
658.00,0.0060
657.00,0.0061
656.00,0.0060
655.00,0.0059
654.00,0.0058
653.00,0.0058
652.00,0.0059
651.00,0.0060
650.00,0.0060
649.00,0.0060
648.00,0.0060
647.00,0.0060
646.00,0.0060
645.00,0.0059
644.00,0.0058
643.00,0.0057
642.00,0.0056
641.00,0.0055
640.00,0.0055
639.00,0.0056
638.00,0.0058
637.00,0.0060
636.00,0.0061
635.00,0.0063
634.00,0.0063
633.00,0.0062
632.00,0.0061
631.00,0.0062
630.00,0.0064
629.00,0.0064
628.00,0.0064
627.00,0.0062
626.00,0.0062
625.00,0.0063
624.00,0.0063
623.00,0.0061
622.00,0.0058
621.00,0.0057
620.00,0.0058
619.00,0.0060
618.00,0.0062
617.00,0.0063
616.00,0.0065
615.00,0.0067
614.00,0.0067
613.00,0.0064
612.00,0.0058
611.00,0.0054
610.00,0.0055
609.00,0.0059
608.00,0.0063
607.00,0.0066
606.00,0.0066
605.00,0.0063
604.00,0.0059
603.00,0.0056
602.00,0.0055
601.00,0.0056
600.00,0.0058
599.00,0.0060
598.00,0.0061
597.00,0.0060
596.00,0.0060
595.00,0.0060
594.00,0.0061
593.00,0.0063
592.00,0.0065
591.00,0.0064
590.00,0.0060
589.00,0.0056
588.00,0.0053
587.00,0.0051
586.00,0.0052
585.00,0.0053
584.00,0.0053
583.00,0.0053
582.00,0.0055
581.00,0.0058
580.00,0.0063
579.00,0.0067
578.00,0.0070
577.00,0.0069
576.00,0.0068
575.00,0.0067
574.00,0.0068
573.00,0.0070
572.00,0.0071
571.00,0.0071
570.00,0.0069
569.00,0.0067
568.00,0.0065
567.00,0.0063
566.00,0.0062
565.00,0.0061
564.00,0.0061
563.00,0.0061
562.00,0.0061
561.00,0.0061
560.00,0.0062
559.00,0.0063
558.00,0.0063
557.00,0.0062
556.00,0.0063
555.00,0.0067
554.00,0.0070
553.00,0.0071
552.00,0.0070
551.00,0.0069
550.00,0.0069
549.00,0.0068
548.00,0.0067
547.00,0.0064
546.00,0.0061
545.00,0.0058
544.00,0.0056
543.00,0.0056
542.00,0.0057
541.00,0.0059
540.00,0.0062
539.00,0.0064
538.00,0.0067
537.00,0.0070
536.00,0.0075
535.00,0.0080
534.00,0.0086
533.00,0.0090
532.00,0.0092
531.00,0.0093
530.00,0.0093
529.00,0.0093
528.00,0.0094
527.00,0.0096
526.00,0.0097
525.00,0.0095
524.00,0.0089
523.00,0.0083
522.00,0.0078
521.00,0.0075
520.00,0.0074
519.00,0.0073
518.00,0.0072
517.00,0.0068
516.00,0.0064
515.00,0.0060
514.00,0.0060
513.00,0.0062
512.00,0.0067
511.00,0.0073
510.00,0.0076
509.00,0.0075
508.00,0.0072
507.00,0.0068
506.00,0.0066
505.00,0.0066
504.00,0.0066
503.00,0.0066
502.00,0.0063
501.00,0.0060
500.00,0.0055
499.00,0.0052
498.00,0.0051
497.00,0.0054
496.00,0.0060
495.00,0.0063
494.00,0.0060
493.00,0.0054
492.00,0.0052
491.00,0.0057
490.00,0.0065
489.00,0.0069
488.00,0.0071
487.00,0.0072
486.00,0.0074
485.00,0.0075
484.00,0.0074
483.00,0.0074
482.00,0.0078
481.00,0.0085
480.00,0.0092
479.00,0.0095
478.00,0.0088
477.00,0.0074
476.00,0.0059
475.00,0.0049
474.00,0.0046
473.00,0.0046
472.00,0.0046
471.00,0.0049
470.00,0.0056
469.00,0.0066
468.00,0.0075
467.00,0.0083
466.00,0.0092
465.00,0.0103
464.00,0.0117
463.00,0.0131
462.00,0.0140
461.00,0.0143
460.00,0.0145
459.00,0.0151
458.00,0.0160
457.00,0.0163
456.00,0.0153
455.00,0.0136
454.00,0.0118
453.00,0.0104
452.00,0.0095
451.00,0.0091
450.00,0.0087
