Created as New Dataset,Sample 179 By Administrator Date Tuesday, September 09 2025
cm-1,A
4000.00,0.0002
3999.00,0.0002
3998.00,0.0002
3997.00,0.0002
3996.00,0.0002
3995.00,0.0002
3994.00,0.0002
3993.00,0.0002
3992.00,0.0002
3991.00,0.0002
3990.00,0.0002
3989.00,0.0002
3988.00,0.0002
3987.00,0.0001
3986.00,0.0001
3985.00,0.0001
3984.00,0.0001
3983.00,0.0002
3982.00,0.0002
3981.00,0.0001
3980.00,0.0001
3979.00,0.0001
3978.00,0.0001
3977.00,0.0001
3976.00,0.0001
3975.00,0.0001
3974.00,0.0001
3973.00,0.0001
3972.00,0.0001
3971.00,0.0001
3970.00,0.0001
3969.00,0.0001
3968.00,0.0001
3967.00,0.0001
3966.00,0.0001
3965.00,0.0001
3964.00,0.0001
3963.00,0.0000
3962.00,0.0000
3961.00,0.0000
3960.00,0.0000
3959.00,0.0000
3958.00,0.0001
3957.00,0.0001
3956.00,0.0000
3955.00,0.0000
3954.00,0.0000
3953.00,0.0000
3952.00,0.0000
3951.00,0.0000
3950.00,0.0000
3949.00,0.0000
3948.00,0.0000
3947.00,0.0000
3946.00,0.0000
3945.00,-0.0000
3944.00,-0.0000
3943.00,-0.0000
3942.00,0.0000
3941.00,0.0000
3940.00,0.0001
3939.00,0.0001
3938.00,0.0000
3937.00,0.0000
3936.00,-0.0000
3935.00,-0.0000
3934.00,-0.0000
3933.00,0.0000
3932.00,0.0000
3931.00,0.0001
3930.00,0.0001
3929.00,0.0001
3928.00,0.0002
3927.00,0.0002
3926.00,0.0001
3925.00,0.0001
3924.00,0.0001
3923.00,0.0001
3922.00,0.0000
3921.00,0.0000
3920.00,0.0000
3919.00,0.0000
3918.00,0.0000
3917.00,-0.0000
3916.00,-0.0000
3915.00,-0.0000
3914.00,0.0000
3913.00,0.0001
3912.00,0.0001
3911.00,0.0001
3910.00,0.0001
3909.00,0.0001
3908.00,0.0001
3907.00,0.0001
3906.00,0.0001
3905.00,0.0001
3904.00,0.0001
3903.00,0.0001
3902.00,0.0001
3901.00,0.0001
3900.00,0.0000
3899.00,0.0000
3898.00,0.0000
3897.00,0.0000
3896.00,0.0000
3895.00,-0.0000
3894.00,0.0000
3893.00,0.0000
3892.00,0.0001
3891.00,0.0001
3890.00,0.0001
3889.00,0.0001
3888.00,0.0002
3887.00,0.0002
3886.00,0.0002
3885.00,0.0002
3884.00,0.0002
3883.00,0.0002
3882.00,0.0001
3881.00,0.0001
3880.00,0.0001
3879.00,0.0001
3878.00,0.0001
3877.00,0.0001
3876.00,0.0001
3875.00,0.0001
3874.00,0.0001
3873.00,0.0002
3872.00,0.0003
3871.00,0.0003
3870.00,0.0003
3869.00,0.0002
3868.00,0.0002
3867.00,0.0002
3866.00,0.0001
3865.00,0.0001
3864.00,0.0002
3863.00,0.0002
3862.00,0.0002
3861.00,0.0002
3860.00,0.0002
3859.00,0.0002
3858.00,0.0002
3857.00,0.0002
3856.00,0.0003
3855.00,0.0003
3854.00,0.0002
3853.00,0.0002
3852.00,0.0002
3851.00,0.0002
3850.00,0.0002
3849.00,0.0002
3848.00,0.0002
3847.00,0.0002
3846.00,0.0002
3845.00,0.0002
3844.00,0.0002
3843.00,0.0002
3842.00,0.0002
3841.00,0.0002
3840.00,0.0002
3839.00,0.0002
3838.00,0.0002
3837.00,0.0003
3836.00,0.0003
3835.00,0.0003
3834.00,0.0003
3833.00,0.0003
3832.00,0.0002
3831.00,0.0002
3830.00,0.0002
3829.00,0.0002
3828.00,0.0002
3827.00,0.0002
3826.00,0.0002
3825.00,0.0002
3824.00,0.0002
3823.00,0.0002
3822.00,0.0002
3821.00,0.0002
3820.00,0.0002
3819.00,0.0002
3818.00,0.0003
3817.00,0.0003
3816.00,0.0003
3815.00,0.0003
3814.00,0.0002
3813.00,0.0002
3812.00,0.0002
3811.00,0.0002
3810.00,0.0001
3809.00,0.0001
3808.00,0.0001
3807.00,0.0001
3806.00,0.0002
3805.00,0.0002
3804.00,0.0002
3803.00,0.0003
3802.00,0.0003
3801.00,0.0003
3800.00,0.0004
3799.00,0.0004
3798.00,0.0003
3797.00,0.0003
3796.00,0.0002
3795.00,0.0001
3794.00,0.0001
3793.00,0.0001
3792.00,0.0001
3791.00,0.0001
3790.00,0.0001
3789.00,0.0001
3788.00,0.0001
3787.00,0.0001
3786.00,0.0001
3785.00,0.0001
3784.00,0.0001
3783.00,0.0001
3782.00,0.0001
3781.00,0.0001
3780.00,0.0001
3779.00,0.0001
3778.00,0.0001
3777.00,0.0001
3776.00,0.0001
3775.00,0.0001
3774.00,0.0001
3773.00,0.0001
3772.00,0.0001
3771.00,0.0001
3770.00,0.0001
3769.00,0.0001
3768.00,0.0002
3767.00,0.0002
3766.00,0.0002
3765.00,0.0002
3764.00,0.0002
3763.00,0.0002
3762.00,0.0002
3761.00,0.0002
3760.00,0.0002
3759.00,0.0002
3758.00,0.0002
3757.00,0.0002
3756.00,0.0003
3755.00,0.0004
3754.00,0.0005
3753.00,0.0005
3752.00,0.0005
3751.00,0.0005
3750.00,0.0004
3749.00,0.0004
3748.00,0.0004
3747.00,0.0003
3746.00,0.0003
3745.00,0.0003
3744.00,0.0003
3743.00,0.0003
3742.00,0.0002
3741.00,0.0002
3740.00,0.0002
3739.00,0.0002
3738.00,0.0002
3737.00,0.0002
3736.00,0.0002
3735.00,0.0002
3734.00,0.0002
3733.00,0.0002
3732.00,0.0002
3731.00,0.0002
3730.00,0.0002
3729.00,0.0002
3728.00,0.0002
3727.00,0.0001
3726.00,0.0001
3725.00,0.0001
3724.00,0.0002
3723.00,0.0002
3722.00,0.0002
3721.00,0.0002
3720.00,0.0001
3719.00,0.0000
3718.00,0.0000
3717.00,0.0000
3716.00,0.0000
3715.00,0.0001
3714.00,0.0001
3713.00,0.0001
3712.00,0.0001
3711.00,0.0001
3710.00,0.0001
3709.00,0.0001
3708.00,0.0001
3707.00,0.0001
3706.00,0.0001
3705.00,0.0001
3704.00,0.0001
3703.00,0.0000
3702.00,0.0000
3701.00,0.0000
3700.00,-0.0000
3699.00,-0.0000
3698.00,0.0000
3697.00,0.0000
3696.00,0.0001
3695.00,0.0001
3694.00,0.0001
3693.00,0.0002
3692.00,0.0002
3691.00,0.0002
3690.00,0.0002
3689.00,0.0002
3688.00,0.0002
3687.00,0.0001
3686.00,0.0001
3685.00,0.0000
3684.00,0.0000
3683.00,-0.0000
3682.00,-0.0000
3681.00,-0.0000
3680.00,-0.0000
3679.00,-0.0000
3678.00,-0.0000
3677.00,0.0000
3676.00,0.0001
3675.00,0.0001
3674.00,0.0001
3673.00,0.0001
3672.00,0.0001
3671.00,0.0001
3670.00,0.0001
3669.00,0.0001
3668.00,0.0000
3667.00,-0.0001
3666.00,-0.0001
3665.00,-0.0001
3664.00,-0.0001
3663.00,-0.0002
3662.00,-0.0001
3661.00,-0.0001
3660.00,-0.0001
3659.00,-0.0001
3658.00,-0.0001
3657.00,-0.0001
3656.00,-0.0002
3655.00,-0.0002
3654.00,-0.0001
3653.00,-0.0001
3652.00,0.0000
3651.00,0.0001
3650.00,0.0001
3649.00,0.0002
3648.00,0.0002
3647.00,0.0002
3646.00,0.0001
3645.00,0.0001
3644.00,-0.0000
3643.00,-0.0000
3642.00,-0.0000
3641.00,0.0000
3640.00,0.0001
3639.00,0.0001
3638.00,0.0001
3637.00,0.0000
3636.00,-0.0000
3635.00,-0.0000
3634.00,-0.0000
3633.00,-0.0000
3632.00,0.0000
3631.00,0.0001
3630.00,0.0001
3629.00,0.0001
3628.00,0.0001
3627.00,0.0000
3626.00,-0.0000
3625.00,-0.0001
3624.00,-0.0001
3623.00,-0.0001
3622.00,-0.0001
3621.00,-0.0000
3620.00,0.0000
3619.00,0.0001
3618.00,0.0001
3617.00,0.0001
3616.00,0.0001
3615.00,0.0000
3614.00,0.0000
3613.00,-0.0000
3612.00,-0.0000
3611.00,-0.0000
3610.00,-0.0000
3609.00,-0.0001
3608.00,-0.0001
3607.00,-0.0001
3606.00,-0.0001
3605.00,-0.0000
3604.00,-0.0000
3603.00,-0.0000
3602.00,-0.0000
3601.00,-0.0000
3600.00,-0.0000
3599.00,-0.0001
3598.00,-0.0001
3597.00,-0.0000
3596.00,0.0000
3595.00,0.0000
3594.00,0.0001
3593.00,0.0001
3592.00,0.0001
3591.00,0.0001
3590.00,0.0001
3589.00,0.0001
3588.00,0.0000
3587.00,-0.0000
3586.00,-0.0001
3585.00,-0.0000
3584.00,-0.0000
3583.00,0.0000
3582.00,0.0001
3581.00,0.0001
3580.00,0.0002
3579.00,0.0002
3578.00,0.0002
3577.00,0.0002
3576.00,0.0001
3575.00,0.0001
3574.00,0.0001
3573.00,0.0001
3572.00,0.0001
3571.00,0.0002
3570.00,0.0002
3569.00,0.0002
3568.00,0.0002
3567.00,0.0001
3566.00,0.0001
3565.00,0.0002
3564.00,0.0002
3563.00,0.0002
3562.00,0.0002
3561.00,0.0003
3560.00,0.0003
3559.00,0.0003
3558.00,0.0003
3557.00,0.0003
3556.00,0.0004
3555.00,0.0004
3554.00,0.0004
3553.00,0.0004
3552.00,0.0004
3551.00,0.0004
3550.00,0.0004
3549.00,0.0004
3548.00,0.0004
3547.00,0.0004
3546.00,0.0004
3545.00,0.0004
3544.00,0.0004
3543.00,0.0005
3542.00,0.0005
3541.00,0.0005
3540.00,0.0005
3539.00,0.0005
3538.00,0.0005
3537.00,0.0006
3536.00,0.0006
3535.00,0.0006
3534.00,0.0007
3533.00,0.0007
3532.00,0.0007
3531.00,0.0007
3530.00,0.0007
3529.00,0.0007
3528.00,0.0007
3527.00,0.0006
3526.00,0.0006
3525.00,0.0006
3524.00,0.0006
3523.00,0.0006
3522.00,0.0007
3521.00,0.0007
3520.00,0.0007
3519.00,0.0007
3518.00,0.0007
3517.00,0.0008
3516.00,0.0008
3515.00,0.0008
3514.00,0.0008
3513.00,0.0008
3512.00,0.0008
3511.00,0.0009
3510.00,0.0009
3509.00,0.0009
3508.00,0.0009
3507.00,0.0010
3506.00,0.0010
3505.00,0.0010
3504.00,0.0010
3503.00,0.0010
3502.00,0.0010
3501.00,0.0010
3500.00,0.0010
3499.00,0.0010
3498.00,0.0010
3497.00,0.0010
3496.00,0.0011
3495.00,0.0011
3494.00,0.0011
3493.00,0.0011
3492.00,0.0011
3491.00,0.0011
3490.00,0.0010
3489.00,0.0010
3488.00,0.0010
3487.00,0.0011
3486.00,0.0011
3485.00,0.0012
3484.00,0.0012
3483.00,0.0012
3482.00,0.0013
3481.00,0.0013
3480.00,0.0013
3479.00,0.0013
3478.00,0.0013
3477.00,0.0013
3476.00,0.0013
3475.00,0.0013
3474.00,0.0014
3473.00,0.0014
3472.00,0.0014
3471.00,0.0014
3470.00,0.0014
3469.00,0.0013
3468.00,0.0013
3467.00,0.0013
3466.00,0.0013
3465.00,0.0013
3464.00,0.0013
3463.00,0.0014
3462.00,0.0014
3461.00,0.0015
3460.00,0.0015
3459.00,0.0015
3458.00,0.0014
3457.00,0.0014
3456.00,0.0015
3455.00,0.0015
3454.00,0.0015
3453.00,0.0015
3452.00,0.0016
3451.00,0.0016
3450.00,0.0016
3449.00,0.0016
3448.00,0.0016
3447.00,0.0016
3446.00,0.0016
3445.00,0.0016
3444.00,0.0016
3443.00,0.0017
3442.00,0.0018
3441.00,0.0018
3440.00,0.0018
3439.00,0.0018
3438.00,0.0018
3437.00,0.0017
3436.00,0.0017
3435.00,0.0017
3434.00,0.0018
3433.00,0.0018
3432.00,0.0018
3431.00,0.0018
3430.00,0.0018
3429.00,0.0019
3428.00,0.0019
3427.00,0.0019
3426.00,0.0019
3425.00,0.0019
3424.00,0.0019
3423.00,0.0020
3422.00,0.0020
3421.00,0.0020
3420.00,0.0020
3419.00,0.0020
3418.00,0.0021
3417.00,0.0021
3416.00,0.0021
3415.00,0.0021
3414.00,0.0021
3413.00,0.0021
3412.00,0.0021
3411.00,0.0021
3410.00,0.0021
3409.00,0.0021
3408.00,0.0021
3407.00,0.0021
3406.00,0.0021
3405.00,0.0021
3404.00,0.0022
3403.00,0.0022
3402.00,0.0022
3401.00,0.0022
3400.00,0.0022
3399.00,0.0022
3398.00,0.0022
3397.00,0.0022
3396.00,0.0022
3395.00,0.0021
3394.00,0.0021
3393.00,0.0021
3392.00,0.0022
3391.00,0.0022
3390.00,0.0022
3389.00,0.0022
3388.00,0.0022
3387.00,0.0022
3386.00,0.0022
3385.00,0.0022
3384.00,0.0022
3383.00,0.0022
3382.00,0.0022
3381.00,0.0023
3380.00,0.0023
3379.00,0.0024
3378.00,0.0023
3377.00,0.0023
3376.00,0.0023
3375.00,0.0023
3374.00,0.0023
3373.00,0.0023
3372.00,0.0023
3371.00,0.0023
3370.00,0.0023
3369.00,0.0023
3368.00,0.0023
3367.00,0.0023
3366.00,0.0024
3365.00,0.0024
3364.00,0.0024
3363.00,0.0024
3362.00,0.0023
3361.00,0.0023
3360.00,0.0023
3359.00,0.0023
3358.00,0.0023
3357.00,0.0023
3356.00,0.0024
3355.00,0.0024
3354.00,0.0025
3353.00,0.0025
3352.00,0.0025
3351.00,0.0025
3350.00,0.0025
3349.00,0.0025
3348.00,0.0024
3347.00,0.0024
3346.00,0.0025
3345.00,0.0025
3344.00,0.0025
3343.00,0.0025
3342.00,0.0025
3341.00,0.0025
3340.00,0.0025
3339.00,0.0025
3338.00,0.0024
3337.00,0.0024
3336.00,0.0024
3335.00,0.0023
3334.00,0.0023
3333.00,0.0023
3332.00,0.0023
3331.00,0.0023
3330.00,0.0023
3329.00,0.0023
3328.00,0.0023
3327.00,0.0023
3326.00,0.0023
3325.00,0.0023
3324.00,0.0022
3323.00,0.0022
3322.00,0.0022
3321.00,0.0022
3320.00,0.0022
3319.00,0.0022
3318.00,0.0023
3317.00,0.0023
3316.00,0.0023
3315.00,0.0023
3314.00,0.0023
3313.00,0.0023
3312.00,0.0022
3311.00,0.0022
3310.00,0.0022
3309.00,0.0022
3308.00,0.0023
3307.00,0.0023
3306.00,0.0023
3305.00,0.0023
3304.00,0.0023
3303.00,0.0023
3302.00,0.0023
3301.00,0.0023
3300.00,0.0023
3299.00,0.0023
3298.00,0.0023
3297.00,0.0023
3296.00,0.0023
3295.00,0.0023
3294.00,0.0023
3293.00,0.0023
3292.00,0.0023
3291.00,0.0023
3290.00,0.0023
3289.00,0.0023
3288.00,0.0023
3287.00,0.0023
3286.00,0.0023
3285.00,0.0022
3284.00,0.0022
3283.00,0.0022
3282.00,0.0022
3281.00,0.0022
3280.00,0.0022
3279.00,0.0022
3278.00,0.0022
3277.00,0.0022
3276.00,0.0022
3275.00,0.0022
3274.00,0.0022
3273.00,0.0022
3272.00,0.0022
3271.00,0.0022
3270.00,0.0022
3269.00,0.0022
3268.00,0.0022
3267.00,0.0022
3266.00,0.0022
3265.00,0.0022
3264.00,0.0021
3263.00,0.0021
3262.00,0.0021
3261.00,0.0021
3260.00,0.0021
3259.00,0.0021
3258.00,0.0021
3257.00,0.0021
3256.00,0.0021
3255.00,0.0021
3254.00,0.0021
3253.00,0.0021
3252.00,0.0021
3251.00,0.0021
3250.00,0.0021
3249.00,0.0021
3248.00,0.0021
3247.00,0.0021
3246.00,0.0020
3245.00,0.0020
3244.00,0.0020
3243.00,0.0020
3242.00,0.0021
3241.00,0.0021
3240.00,0.0021
3239.00,0.0020
3238.00,0.0021
3237.00,0.0021
3236.00,0.0021
3235.00,0.0022
3234.00,0.0022
3233.00,0.0022
3232.00,0.0022
3231.00,0.0022
3230.00,0.0022
3229.00,0.0022
3228.00,0.0023
3227.00,0.0023
3226.00,0.0023
3225.00,0.0023
3224.00,0.0023
3223.00,0.0023
3222.00,0.0023
3221.00,0.0023
3220.00,0.0023
3219.00,0.0024
3218.00,0.0024
3217.00,0.0024
3216.00,0.0025
3215.00,0.0025
3214.00,0.0025
3213.00,0.0025
3212.00,0.0025
3211.00,0.0025
3210.00,0.0026
3209.00,0.0026
3208.00,0.0026
3207.00,0.0026
3206.00,0.0026
3205.00,0.0026
3204.00,0.0026
3203.00,0.0027
3202.00,0.0027
3201.00,0.0027
3200.00,0.0027
3199.00,0.0027
3198.00,0.0027
3197.00,0.0027
3196.00,0.0027
3195.00,0.0026
3194.00,0.0026
3193.00,0.0026
3192.00,0.0026
3191.00,0.0026
3190.00,0.0026
3189.00,0.0026
3188.00,0.0025
3187.00,0.0025
3186.00,0.0025
3185.00,0.0025
3184.00,0.0025
3183.00,0.0025
3182.00,0.0025
3181.00,0.0025
3180.00,0.0025
3179.00,0.0024
3178.00,0.0024
3177.00,0.0024
3176.00,0.0023
3175.00,0.0023
3174.00,0.0023
3173.00,0.0023
3172.00,0.0023
3171.00,0.0023
3170.00,0.0023
3169.00,0.0023
3168.00,0.0023
3167.00,0.0023
3166.00,0.0023
3165.00,0.0023
3164.00,0.0023
3163.00,0.0023
3162.00,0.0022
3161.00,0.0022
3160.00,0.0022
3159.00,0.0023
3158.00,0.0023
3157.00,0.0023
3156.00,0.0023
3155.00,0.0023
3154.00,0.0023
3153.00,0.0023
3152.00,0.0023
3151.00,0.0023
3150.00,0.0023
3149.00,0.0024
3148.00,0.0023
3147.00,0.0023
3146.00,0.0023
3145.00,0.0023
3144.00,0.0023
3143.00,0.0023
3142.00,0.0023
3141.00,0.0023
3140.00,0.0023
3139.00,0.0023
3138.00,0.0023
3137.00,0.0023
3136.00,0.0022
3135.00,0.0022
3134.00,0.0022
3133.00,0.0022
3132.00,0.0022
3131.00,0.0022
3130.00,0.0022
3129.00,0.0022
3128.00,0.0022
3127.00,0.0022
3126.00,0.0021
3125.00,0.0021
3124.00,0.0021
3123.00,0.0020
3122.00,0.0020
3121.00,0.0020
3120.00,0.0019
3119.00,0.0019
3118.00,0.0019
3117.00,0.0019
3116.00,0.0019
3115.00,0.0019
3114.00,0.0019
3113.00,0.0019
3112.00,0.0018
3111.00,0.0018
3110.00,0.0018
3109.00,0.0018
3108.00,0.0018
3107.00,0.0018
3106.00,0.0018
3105.00,0.0017
3104.00,0.0017
3103.00,0.0017
3102.00,0.0017
3101.00,0.0018
3100.00,0.0018
3099.00,0.0018
3098.00,0.0018
3097.00,0.0018
3096.00,0.0019
3095.00,0.0019
3094.00,0.0018
3093.00,0.0018
3092.00,0.0017
3091.00,0.0017
3090.00,0.0017
3089.00,0.0017
3088.00,0.0016
3087.00,0.0016
3086.00,0.0016
3085.00,0.0016
3084.00,0.0017
3083.00,0.0017
3082.00,0.0017
3081.00,0.0017
3080.00,0.0017
3079.00,0.0017
3078.00,0.0017
3077.00,0.0017
3076.00,0.0017
3075.00,0.0017
3074.00,0.0017
3073.00,0.0017
3072.00,0.0017
3071.00,0.0018
3070.00,0.0018
3069.00,0.0018
3068.00,0.0018
3067.00,0.0018
3066.00,0.0018
3065.00,0.0019
3064.00,0.0019
3063.00,0.0020
3062.00,0.0020
3061.00,0.0020
3060.00,0.0020
3059.00,0.0020
3058.00,0.0020
3057.00,0.0020
3056.00,0.0020
3055.00,0.0021
3054.00,0.0021
3053.00,0.0021
3052.00,0.0021
3051.00,0.0022
3050.00,0.0022
3049.00,0.0022
3048.00,0.0022
3047.00,0.0021
3046.00,0.0021
3045.00,0.0021
3044.00,0.0022
3043.00,0.0022
3042.00,0.0023
3041.00,0.0023
3040.00,0.0024
3039.00,0.0024
3038.00,0.0024
3037.00,0.0025
3036.00,0.0025
3035.00,0.0025
3034.00,0.0025
3033.00,0.0026
3032.00,0.0026
3031.00,0.0027
3030.00,0.0028
3029.00,0.0028
3028.00,0.0028
3027.00,0.0029
3026.00,0.0029
3025.00,0.0029
3024.00,0.0030
3023.00,0.0031
3022.00,0.0031
3021.00,0.0032
3020.00,0.0033
3019.00,0.0034
3018.00,0.0035
3017.00,0.0036
3016.00,0.0037
3015.00,0.0039
3014.00,0.0040
3013.00,0.0041
3012.00,0.0042
3011.00,0.0044
3010.00,0.0045
3009.00,0.0047
3008.00,0.0048
3007.00,0.0050
3006.00,0.0051
3005.00,0.0053
3004.00,0.0055
3003.00,0.0057
3002.00,0.0060
3001.00,0.0062
3000.00,0.0065
2999.00,0.0068
2998.00,0.0072
2997.00,0.0075
2996.00,0.0079
2995.00,0.0083
2994.00,0.0088
2993.00,0.0093
2992.00,0.0099
2991.00,0.0105
2990.00,0.0111
2989.00,0.0118
2988.00,0.0126
2987.00,0.0135
2986.00,0.0145
2985.00,0.0156
2984.00,0.0169
2983.00,0.0184
2982.00,0.0200
2981.00,0.0218
2980.00,0.0238
2979.00,0.0260
2978.00,0.0286
2977.00,0.0315
2976.00,0.0349
2975.00,0.0388
2974.00,0.0433
2973.00,0.0483
2972.00,0.0540
2971.00,0.0603
2970.00,0.0674
2969.00,0.0752
2968.00,0.0837
2967.00,0.0929
2966.00,0.1025
2965.00,0.1123
2964.00,0.1219
2963.00,0.1307
2962.00,0.1384
2961.00,0.1446
2960.00,0.1494
2959.00,0.1531
2958.00,0.1564
2957.00,0.1602
2956.00,0.1650
2955.00,0.1714
2954.00,0.1792
2953.00,0.1877
2952.00,0.1960
2951.00,0.2027
2950.00,0.2063
2949.00,0.2056
2948.00,0.2001
2947.00,0.1902
2946.00,0.1770
2945.00,0.1620
2944.00,0.1471
2943.00,0.1336
2942.00,0.1226
2941.00,0.1144
2940.00,0.1089
2939.00,0.1061
2938.00,0.1056
2937.00,0.1072
2936.00,0.1106
2935.00,0.1157
2934.00,0.1223
2933.00,0.1303
2932.00,0.1397
2931.00,0.1501
2930.00,0.1612
2929.00,0.1728
2928.00,0.1844
2927.00,0.1957
2926.00,0.2066
2925.00,0.2169
2924.00,0.2269
2923.00,0.2367
2922.00,0.2465
2921.00,0.2559
2920.00,0.2643
2919.00,0.2709
2918.00,0.2746
2917.00,0.2748
2916.00,0.2712
2915.00,0.2643
2914.00,0.2551
2913.00,0.2448
2912.00,0.2343
2911.00,0.2242
2910.00,0.2151
2909.00,0.2067
2908.00,0.1989
2907.00,0.1915
2906.00,0.1841
2905.00,0.1766
2904.00,0.1690
2903.00,0.1614
2902.00,0.1538
2901.00,0.1465
2900.00,0.1395
2899.00,0.1328
2898.00,0.1267
2897.00,0.1212
2896.00,0.1164
2895.00,0.1124
2894.00,0.1092
2893.00,0.1068
2892.00,0.1051
2891.00,0.1040
2890.00,0.1036
2889.00,0.1037
2888.00,0.1042
2887.00,0.1051
2886.00,0.1063
2885.00,0.1080
2884.00,0.1100
2883.00,0.1125
2882.00,0.1154
2881.00,0.1184
2880.00,0.1214
2879.00,0.1239
2878.00,0.1255
2877.00,0.1259
2876.00,0.1255
2875.00,0.1245
2874.00,0.1237
2873.00,0.1234
2872.00,0.1240
2871.00,0.1255
2870.00,0.1278
2869.00,0.1303
2868.00,0.1321
2867.00,0.1322
2866.00,0.1297
2865.00,0.1242
2864.00,0.1160
2863.00,0.1060
2862.00,0.0953
2861.00,0.0852
2860.00,0.0764
2859.00,0.0692
2858.00,0.0636
2857.00,0.0595
2856.00,0.0565
2855.00,0.0545
2854.00,0.0534
2853.00,0.0529
2852.00,0.0532
2851.00,0.0542
2850.00,0.0563
2849.00,0.0594
2848.00,0.0636
2847.00,0.0691
2846.00,0.0756
2845.00,0.0830
2844.00,0.0911
2843.00,0.0996
2842.00,0.1081
2841.00,0.1159
2840.00,0.1222
2839.00,0.1262
2838.00,0.1270
2837.00,0.1241
2836.00,0.1175
2835.00,0.1081
2834.00,0.0970
2833.00,0.0854
2832.00,0.0743
2831.00,0.0646
2830.00,0.0564
2829.00,0.0497
2828.00,0.0442
2827.00,0.0399
2826.00,0.0363
2825.00,0.0334
2824.00,0.0310
2823.00,0.0289
2822.00,0.0272
2821.00,0.0257
2820.00,0.0243
2819.00,0.0232
2818.00,0.0222
2817.00,0.0214
2816.00,0.0206
2815.00,0.0200
2814.00,0.0194
2813.00,0.0188
2812.00,0.0183
2811.00,0.0177
2810.00,0.0171
2809.00,0.0165
2808.00,0.0159
2807.00,0.0153
2806.00,0.0146
2805.00,0.0139
2804.00,0.0133
2803.00,0.0127
2802.00,0.0121
2801.00,0.0117
2800.00,0.0113
2799.00,0.0110
2798.00,0.0108
2797.00,0.0105
2796.00,0.0102
2795.00,0.0099
2794.00,0.0096
2793.00,0.0093
2792.00,0.0090
2791.00,0.0087
2790.00,0.0084
2789.00,0.0081
2788.00,0.0078
2787.00,0.0075
2786.00,0.0073
2785.00,0.0070
2784.00,0.0068
2783.00,0.0065
2782.00,0.0063
2781.00,0.0061
2780.00,0.0059
2779.00,0.0058
2778.00,0.0056
2777.00,0.0055
2776.00,0.0054
2775.00,0.0053
2774.00,0.0052
2773.00,0.0051
2772.00,0.0051
2771.00,0.0050
2770.00,0.0050
2769.00,0.0050
2768.00,0.0050
2767.00,0.0050
2766.00,0.0049
2765.00,0.0049
2764.00,0.0048
2763.00,0.0048
2762.00,0.0047
2761.00,0.0047
2760.00,0.0047
2759.00,0.0046
2758.00,0.0046
2757.00,0.0046
2756.00,0.0046
2755.00,0.0046
2754.00,0.0045
2753.00,0.0045
2752.00,0.0045
2751.00,0.0045
2750.00,0.0045
2749.00,0.0045
2748.00,0.0046
2747.00,0.0046
2746.00,0.0047
2745.00,0.0047
2744.00,0.0048
2743.00,0.0049
2742.00,0.0050
2741.00,0.0051
2740.00,0.0053
2739.00,0.0054
2738.00,0.0056
2737.00,0.0058
2736.00,0.0059
2735.00,0.0061
2734.00,0.0062
2733.00,0.0064
2732.00,0.0066
2731.00,0.0068
2730.00,0.0070
2729.00,0.0073
2728.00,0.0076
2727.00,0.0079
2726.00,0.0082
2725.00,0.0085
2724.00,0.0087
2723.00,0.0087
2722.00,0.0086
2721.00,0.0084
2720.00,0.0082
2719.00,0.0078
2718.00,0.0074
2717.00,0.0071
2716.00,0.0067
2715.00,0.0064
2714.00,0.0062
2713.00,0.0059
2712.00,0.0057
2711.00,0.0055
2710.00,0.0053
2709.00,0.0051
2708.00,0.0050
2707.00,0.0049
2706.00,0.0047
2705.00,0.0046
2704.00,0.0045
2703.00,0.0044
2702.00,0.0043
2701.00,0.0042
2700.00,0.0041
2699.00,0.0040
2698.00,0.0040
2697.00,0.0039
2696.00,0.0039
2695.00,0.0039
2694.00,0.0039
2693.00,0.0040
2692.00,0.0040
2691.00,0.0040
2690.00,0.0040
2689.00,0.0040
2688.00,0.0039
2687.00,0.0039
2686.00,0.0039
2685.00,0.0040
2684.00,0.0040
2683.00,0.0040
2682.00,0.0041
2681.00,0.0041
2680.00,0.0041
2679.00,0.0041
2678.00,0.0041
2677.00,0.0041
2676.00,0.0041
2675.00,0.0041
2674.00,0.0041
2673.00,0.0041
2672.00,0.0040
2671.00,0.0040
2670.00,0.0040
2669.00,0.0040
2668.00,0.0040
2667.00,0.0040
2666.00,0.0041
2665.00,0.0041
2664.00,0.0041
2663.00,0.0042
2662.00,0.0042
2661.00,0.0043
2660.00,0.0044
2659.00,0.0044
2658.00,0.0044
2657.00,0.0043
2656.00,0.0042
2655.00,0.0042
2654.00,0.0041
2653.00,0.0041
2652.00,0.0040
2651.00,0.0040
2650.00,0.0039
2649.00,0.0039
2648.00,0.0038
2647.00,0.0038
2646.00,0.0038
2645.00,0.0038
2644.00,0.0037
2643.00,0.0036
2642.00,0.0035
2641.00,0.0034
2640.00,0.0034
2639.00,0.0033
2638.00,0.0033
2637.00,0.0033
2636.00,0.0033
2635.00,0.0033
2634.00,0.0033
2633.00,0.0033
2632.00,0.0034
2631.00,0.0034
2630.00,0.0034
2629.00,0.0034
2628.00,0.0035
2627.00,0.0035
2626.00,0.0035
2625.00,0.0035
2624.00,0.0035
2623.00,0.0035
2622.00,0.0035
2621.00,0.0036
2620.00,0.0036
2619.00,0.0037
2618.00,0.0037
2617.00,0.0037
2616.00,0.0037
2615.00,0.0037
2614.00,0.0036
2613.00,0.0036
2612.00,0.0035
2611.00,0.0035
2610.00,0.0034
2609.00,0.0033
2608.00,0.0032
2607.00,0.0031
2606.00,0.0030
2605.00,0.0030
2604.00,0.0029
2603.00,0.0029
2602.00,0.0028
2601.00,0.0027
2600.00,0.0027
2599.00,0.0027
2598.00,0.0027
2597.00,0.0027
2596.00,0.0027
2595.00,0.0027
2594.00,0.0028
2593.00,0.0029
2592.00,0.0029
2591.00,0.0030
2590.00,0.0031
2589.00,0.0031
2588.00,0.0032
2587.00,0.0033
2586.00,0.0035
2585.00,0.0036
2584.00,0.0037
2583.00,0.0037
2582.00,0.0038
2581.00,0.0038
2580.00,0.0037
2579.00,0.0037
2578.00,0.0036
2577.00,0.0035
2576.00,0.0033
2575.00,0.0031
2574.00,0.0030
2573.00,0.0029
2572.00,0.0028
2571.00,0.0027
2570.00,0.0026
2569.00,0.0025
2568.00,0.0024
2567.00,0.0023
2566.00,0.0022
2565.00,0.0022
2564.00,0.0021
2563.00,0.0020
2562.00,0.0020
2561.00,0.0020
2560.00,0.0019
2559.00,0.0019
2558.00,0.0019
2557.00,0.0019
2556.00,0.0019
2555.00,0.0018
2554.00,0.0018
2553.00,0.0017
2552.00,0.0017
2551.00,0.0017
2550.00,0.0016
2549.00,0.0016
2548.00,0.0015
2547.00,0.0015
2546.00,0.0015
2545.00,0.0014
2544.00,0.0014
2543.00,0.0014
2542.00,0.0014
2541.00,0.0014
2540.00,0.0013
2539.00,0.0013
2538.00,0.0013
2537.00,0.0013
2536.00,0.0013
2535.00,0.0013
2534.00,0.0012
2533.00,0.0012
2532.00,0.0011
2531.00,0.0010
2530.00,0.0009
2529.00,0.0009
2528.00,0.0010
2527.00,0.0011
2526.00,0.0011
2525.00,0.0011
2524.00,0.0011
2523.00,0.0010
2522.00,0.0009
2521.00,0.0009
2520.00,0.0009
2519.00,0.0009
2518.00,0.0009
2517.00,0.0009
2516.00,0.0009
2515.00,0.0008
2514.00,0.0008
2513.00,0.0007
2512.00,0.0007
2511.00,0.0006
2510.00,0.0006
2509.00,0.0006
2508.00,0.0006
2507.00,0.0006
2506.00,0.0005
2505.00,0.0005
2504.00,0.0005
2503.00,0.0005
2502.00,0.0005
2501.00,0.0006
2500.00,0.0006
2499.00,0.0006
2498.00,0.0006
2497.00,0.0007
2496.00,0.0007
2495.00,0.0007
2494.00,0.0007
2493.00,0.0007
2492.00,0.0008
2491.00,0.0008
2490.00,0.0008
2489.00,0.0009
2488.00,0.0009
2487.00,0.0008
2486.00,0.0008
2485.00,0.0007
2484.00,0.0007
2483.00,0.0006
2482.00,0.0006
2481.00,0.0005
2480.00,0.0005
2479.00,0.0006
2478.00,0.0006
2477.00,0.0006
2476.00,0.0006
2475.00,0.0006
2474.00,0.0006
2473.00,0.0006
2472.00,0.0006
2471.00,0.0005
2470.00,0.0005
2469.00,0.0005
2468.00,0.0005
2467.00,0.0005
2466.00,0.0005
2465.00,0.0006
2464.00,0.0007
2463.00,0.0008
2462.00,0.0008
2461.00,0.0008
2460.00,0.0008
2459.00,0.0007
2458.00,0.0007
2457.00,0.0007
2456.00,0.0007
2455.00,0.0008
2454.00,0.0008
2453.00,0.0008
2452.00,0.0008
2451.00,0.0008
2450.00,0.0008
2449.00,0.0008
2448.00,0.0008
2447.00,0.0008
2446.00,0.0008
2445.00,0.0008
2444.00,0.0008
2443.00,0.0007
2442.00,0.0007
2441.00,0.0008
2440.00,0.0008
2439.00,0.0009
2438.00,0.0009
2437.00,0.0009
2436.00,0.0009
2435.00,0.0009
2434.00,0.0009
2433.00,0.0009
2432.00,0.0010
2431.00,0.0010
2430.00,0.0010
2429.00,0.0009
2428.00,0.0009
2427.00,0.0009
2426.00,0.0008
2425.00,0.0007
2424.00,0.0007
2423.00,0.0007
2422.00,0.0007
2421.00,0.0007
2420.00,0.0008
2419.00,0.0008
2418.00,0.0008
2417.00,0.0007
2416.00,0.0007
2415.00,0.0007
2414.00,0.0007
2413.00,0.0006
2412.00,0.0006
2411.00,0.0006
2410.00,0.0006
2409.00,0.0006
2408.00,0.0005
2407.00,0.0005
2406.00,0.0005
2405.00,0.0006
2404.00,0.0006
2403.00,0.0006
2402.00,0.0006
2401.00,0.0007
2400.00,0.0007
2399.00,0.0007
2398.00,0.0007
2397.00,0.0006
2396.00,0.0006
2395.00,0.0005
2394.00,0.0005
2393.00,0.0005
2392.00,0.0005
2391.00,0.0006
2390.00,0.0006
2389.00,0.0007
2388.00,0.0007
2387.00,0.0007
2386.00,0.0007
2385.00,0.0006
2384.00,0.0006
2383.00,0.0005
2382.00,0.0004
2381.00,0.0004
2380.00,0.0004
2379.00,0.0004
2378.00,0.0004
2377.00,0.0004
2376.00,0.0005
2375.00,0.0005
2374.00,0.0004
2373.00,0.0004
2372.00,0.0003
2371.00,0.0002
2370.00,0.0001
2369.00,0.0001
2368.00,0.0001
2367.00,0.0001
2366.00,0.0002
2365.00,0.0003
2364.00,0.0004
2363.00,0.0005
2362.00,0.0005
2361.00,0.0005
2360.00,0.0004
2359.00,0.0004
2358.00,0.0004
2357.00,0.0004
2356.00,0.0005
2355.00,0.0006
2354.00,0.0007
2353.00,0.0007
2352.00,0.0006
2351.00,0.0006
2350.00,0.0005
2349.00,0.0005
2348.00,0.0005
2347.00,0.0005
2346.00,0.0005
2345.00,0.0005
2344.00,0.0005
2343.00,0.0004
2342.00,0.0004
2341.00,0.0004
2340.00,0.0005
2339.00,0.0006
2338.00,0.0007
2337.00,0.0007
2336.00,0.0007
2335.00,0.0007
2334.00,0.0006
2333.00,0.0006
2332.00,0.0006
2331.00,0.0006
2330.00,0.0007
2329.00,0.0008
2328.00,0.0010
2327.00,0.0013
2326.00,0.0017
2325.00,0.0021
2324.00,0.0023
2323.00,0.0023
2322.00,0.0021
2321.00,0.0019
2320.00,0.0017
2319.00,0.0014
2318.00,0.0013
2317.00,0.0012
2316.00,0.0013
2315.00,0.0013
2314.00,0.0013
2313.00,0.0012
2312.00,0.0011
2311.00,0.0011
2310.00,0.0011
2309.00,0.0011
2308.00,0.0010
2307.00,0.0010
2306.00,0.0010
2305.00,0.0010
2304.00,0.0011
2303.00,0.0011
2302.00,0.0011
2301.00,0.0011
2300.00,0.0011
2299.00,0.0011
2298.00,0.0011
2297.00,0.0012
2296.00,0.0012
2295.00,0.0013
2294.00,0.0013
2293.00,0.0013
2292.00,0.0012
2291.00,0.0012
2290.00,0.0012
2289.00,0.0013
2288.00,0.0014
2287.00,0.0015
2286.00,0.0016
2285.00,0.0015
2284.00,0.0015
2283.00,0.0014
2282.00,0.0013
2281.00,0.0013
2280.00,0.0012
2279.00,0.0012
2278.00,0.0011
2277.00,0.0011
2276.00,0.0010
2275.00,0.0009
2274.00,0.0009
2273.00,0.0008
2272.00,0.0009
2271.00,0.0010
2270.00,0.0011
2269.00,0.0012
2268.00,0.0011
2267.00,0.0010
2266.00,0.0009
2265.00,0.0009
2264.00,0.0010
2263.00,0.0010
2262.00,0.0011
2261.00,0.0011
2260.00,0.0011
2259.00,0.0011
2258.00,0.0010
2257.00,0.0009
2256.00,0.0007
2255.00,0.0006
2254.00,0.0004
2253.00,0.0004
2252.00,0.0003
2251.00,0.0003
2250.00,0.0003
2249.00,0.0004
2248.00,0.0005
2247.00,0.0006
2246.00,0.0006
2245.00,0.0005
2244.00,0.0004
2243.00,0.0005
2242.00,0.0005
2241.00,0.0006
2240.00,0.0007
2239.00,0.0007
2238.00,0.0007
2237.00,0.0006
2236.00,0.0005
2235.00,0.0004
2234.00,0.0004
2233.00,0.0004
2232.00,0.0004
2231.00,0.0005
2230.00,0.0006
2229.00,0.0006
2228.00,0.0005
2227.00,0.0004
2226.00,0.0003
2225.00,0.0004
2224.00,0.0005
2223.00,0.0007
2222.00,0.0007
2221.00,0.0008
2220.00,0.0007
2219.00,0.0007
2218.00,0.0006
2217.00,0.0006
2216.00,0.0006
2215.00,0.0006
2214.00,0.0006
2213.00,0.0005
2212.00,0.0004
2211.00,0.0002
2210.00,0.0001
2209.00,0.0001
2208.00,0.0001
2207.00,0.0002
2206.00,0.0003
2205.00,0.0004
2204.00,0.0006
2203.00,0.0008
2202.00,0.0009
2201.00,0.0009
2200.00,0.0008
2199.00,0.0007
2198.00,0.0005
2197.00,0.0005
2196.00,0.0005
2195.00,0.0006
2194.00,0.0007
2193.00,0.0008
2192.00,0.0008
2191.00,0.0009
2190.00,0.0010
2189.00,0.0011
2188.00,0.0012
2187.00,0.0011
2186.00,0.0009
2185.00,0.0004
2184.00,-0.0001
2183.00,-0.0005
2182.00,-0.0007
2181.00,-0.0005
2180.00,-0.0002
2179.00,0.0002
2178.00,0.0005
2177.00,0.0006
2176.00,0.0005
2175.00,0.0002
2174.00,-0.0002
2173.00,-0.0004
2172.00,-0.0003
2171.00,0.0000
2170.00,0.0005
2169.00,0.0009
2168.00,0.0011
2167.00,0.0011
2166.00,0.0010
2165.00,0.0011
2164.00,0.0013
2163.00,0.0016
2162.00,0.0015
2161.00,0.0007
2160.00,-0.0006
2159.00,-0.0020
2158.00,-0.0029
2157.00,-0.0032
2156.00,-0.0032
2155.00,-0.0031
2154.00,-0.0031
2153.00,-0.0028
2152.00,-0.0024
2151.00,-0.0020
2150.00,-0.0019
2149.00,-0.0018
2148.00,-0.0017
2147.00,-0.0017
2146.00,-0.0017
2145.00,-0.0016
2144.00,-0.0017
2143.00,-0.0017
2142.00,-0.0018
2141.00,-0.0019
2140.00,-0.0019
2139.00,-0.0018
2138.00,-0.0018
2137.00,-0.0018
2136.00,-0.0018
2135.00,-0.0018
2134.00,-0.0018
2133.00,-0.0017
2132.00,-0.0016
2131.00,-0.0014
2130.00,-0.0013
2129.00,-0.0011
2128.00,-0.0010
2127.00,-0.0010
2126.00,-0.0010
2125.00,-0.0009
2124.00,-0.0009
2123.00,-0.0008
2122.00,-0.0007
2121.00,-0.0006
2120.00,-0.0004
2119.00,-0.0004
2118.00,-0.0004
2117.00,-0.0004
2116.00,-0.0003
2115.00,-0.0003
2114.00,-0.0002
2113.00,-0.0002
2112.00,-0.0002
2111.00,-0.0002
2110.00,-0.0003
2109.00,-0.0003
2108.00,-0.0002
2107.00,-0.0001
2106.00,-0.0001
2105.00,-0.0001
2104.00,-0.0001
2103.00,-0.0002
2102.00,-0.0003
2101.00,-0.0003
2100.00,-0.0003
2099.00,-0.0004
2098.00,-0.0005
2097.00,-0.0006
2096.00,-0.0008
2095.00,-0.0009
2094.00,-0.0009
2093.00,-0.0008
2092.00,-0.0006
2091.00,-0.0004
2090.00,-0.0004
2089.00,-0.0003
2088.00,-0.0003
2087.00,-0.0002
2086.00,-0.0000
2085.00,0.0002
2084.00,0.0003
2083.00,0.0003
2082.00,0.0002
2081.00,0.0001
2080.00,-0.0001
2079.00,-0.0002
2078.00,-0.0003
2077.00,-0.0003
2076.00,-0.0002
2075.00,-0.0001
2074.00,-0.0001
2073.00,0.0000
2072.00,0.0001
2071.00,0.0002
2070.00,0.0003
2069.00,0.0003
2068.00,0.0002
2067.00,-0.0000
2066.00,-0.0003
2065.00,-0.0004
2064.00,-0.0004
2063.00,-0.0003
2062.00,-0.0002
2061.00,-0.0001
2060.00,0.0000
2059.00,0.0001
2058.00,0.0001
2057.00,0.0000
2056.00,-0.0001
2055.00,-0.0002
2054.00,-0.0002
2053.00,0.0002
2052.00,0.0007
2051.00,0.0011
2050.00,0.0010
2049.00,0.0006
2048.00,0.0000
2047.00,-0.0005
2046.00,-0.0008
2045.00,-0.0010
2044.00,-0.0010
2043.00,-0.0008
2042.00,-0.0005
2041.00,-0.0002
2040.00,-0.0001
2039.00,-0.0000
2038.00,-0.0000
2037.00,0.0000
2036.00,0.0000
2035.00,-0.0002
2034.00,-0.0004
2033.00,-0.0006
2032.00,-0.0005
2031.00,-0.0004
2030.00,-0.0003
2029.00,-0.0003
2028.00,-0.0003
2027.00,-0.0004
2026.00,-0.0006
2025.00,-0.0009
2024.00,-0.0012
2023.00,-0.0015
2022.00,-0.0018
2021.00,-0.0021
2020.00,-0.0023
2019.00,-0.0024
2018.00,-0.0023
2017.00,-0.0021
2016.00,-0.0019
2015.00,-0.0017
2014.00,-0.0017
2013.00,-0.0018
2012.00,-0.0018
2011.00,-0.0017
2010.00,-0.0015
2009.00,-0.0014
2008.00,-0.0014
2007.00,-0.0015
2006.00,-0.0017
2005.00,-0.0017
2004.00,-0.0017
2003.00,-0.0019
2002.00,-0.0020
2001.00,-0.0019
2000.00,-0.0016
1999.00,-0.0013
1998.00,-0.0011
1997.00,-0.0010
1996.00,-0.0011
1995.00,-0.0012
1994.00,-0.0011
1993.00,-0.0009
1992.00,-0.0007
1991.00,-0.0007
1990.00,-0.0006
1989.00,-0.0005
1988.00,-0.0003
1987.00,-0.0002
1986.00,-0.0001
1985.00,-0.0001
1984.00,0.0001
1983.00,0.0003
1982.00,0.0007
1981.00,0.0009
1980.00,0.0008
1979.00,0.0002
1978.00,-0.0008
1977.00,-0.0017
1976.00,-0.0023
1975.00,-0.0025
1974.00,-0.0024
1973.00,-0.0021
1972.00,-0.0018
1971.00,-0.0015
1970.00,-0.0013
1969.00,-0.0010
1968.00,-0.0009
1967.00,-0.0009
1966.00,-0.0012
1965.00,-0.0015
1964.00,-0.0017
1963.00,-0.0019
1962.00,-0.0020
1961.00,-0.0020
1960.00,-0.0021
1959.00,-0.0021
1958.00,-0.0021
1957.00,-0.0020
1956.00,-0.0018
1955.00,-0.0017
1954.00,-0.0016
1953.00,-0.0015
1952.00,-0.0014
1951.00,-0.0015
1950.00,-0.0017
1949.00,-0.0020
1948.00,-0.0022
1947.00,-0.0023
1946.00,-0.0023
1945.00,-0.0022
1944.00,-0.0021
1943.00,-0.0018
1942.00,-0.0015
1941.00,-0.0013
1940.00,-0.0012
1939.00,-0.0013
1938.00,-0.0014
1937.00,-0.0014
1936.00,-0.0013
1935.00,-0.0012
1934.00,-0.0011
1933.00,-0.0010
1932.00,-0.0010
1931.00,-0.0010
1930.00,-0.0010
1929.00,-0.0010
1928.00,-0.0010
1927.00,-0.0011
1926.00,-0.0010
1925.00,-0.0010
1924.00,-0.0010
1923.00,-0.0009
1922.00,-0.0007
1921.00,-0.0005
1920.00,-0.0004
1919.00,-0.0004
1918.00,-0.0005
1917.00,-0.0006
1916.00,-0.0006
1915.00,-0.0006
1914.00,-0.0006
1913.00,-0.0006
1912.00,-0.0005
1911.00,-0.0005
1910.00,-0.0005
1909.00,-0.0006
1908.00,-0.0006
1907.00,-0.0006
1906.00,-0.0006
1905.00,-0.0006
1904.00,-0.0005
1903.00,-0.0004
1902.00,-0.0003
1901.00,-0.0002
1900.00,-0.0001
1899.00,-0.0000
1898.00,-0.0001
1897.00,-0.0002
1896.00,-0.0002
1895.00,-0.0003
1894.00,-0.0003
1893.00,-0.0003
1892.00,-0.0003
1891.00,-0.0004
1890.00,-0.0004
1889.00,-0.0003
1888.00,-0.0003
1887.00,-0.0002
1886.00,-0.0001
1885.00,-0.0001
1884.00,-0.0001
1883.00,-0.0002
1882.00,-0.0003
1881.00,-0.0004
1880.00,-0.0005
1879.00,-0.0004
1878.00,-0.0004
1877.00,-0.0003
1876.00,-0.0002
1875.00,-0.0002
1874.00,-0.0003
1873.00,-0.0003
1872.00,-0.0004
1871.00,-0.0005
1870.00,-0.0005
1869.00,-0.0005
1868.00,-0.0004
1867.00,-0.0003
1866.00,-0.0001
1865.00,0.0000
1864.00,0.0001
1863.00,0.0000
1862.00,-0.0000
1861.00,-0.0001
1860.00,-0.0000
1859.00,-0.0000
1858.00,0.0000
1857.00,0.0000
1856.00,0.0000
1855.00,0.0000
1854.00,0.0000
1853.00,-0.0000
1852.00,-0.0000
1851.00,-0.0001
1850.00,-0.0001
1849.00,-0.0001
1848.00,-0.0001
1847.00,-0.0001
1846.00,-0.0002
1845.00,-0.0002
1844.00,-0.0002
1843.00,-0.0002
1842.00,-0.0001
1841.00,0.0000
1840.00,0.0001
1839.00,0.0002
1838.00,0.0001
1837.00,0.0001
1836.00,0.0001
1835.00,0.0001
1834.00,0.0001
1833.00,0.0002
1832.00,0.0002
1831.00,0.0002
1830.00,0.0003
1829.00,0.0003
1828.00,0.0003
1827.00,0.0002
1826.00,0.0001
1825.00,0.0000
1824.00,0.0001
1823.00,0.0001
1822.00,0.0001
1821.00,0.0001
1820.00,0.0001
1819.00,-0.0000
1818.00,-0.0001
1817.00,-0.0001
1816.00,-0.0000
1815.00,0.0000
1814.00,0.0001
1813.00,0.0001
1812.00,0.0002
1811.00,0.0002
1810.00,0.0002
1809.00,0.0002
1808.00,0.0002
1807.00,0.0002
1806.00,0.0002
1805.00,0.0002
1804.00,0.0002
1803.00,0.0001
1802.00,0.0001
1801.00,0.0002
1800.00,0.0002
1799.00,0.0002
1798.00,0.0003
1797.00,0.0003
1796.00,0.0003
1795.00,0.0004
1794.00,0.0004
1793.00,0.0005
1792.00,0.0005
1791.00,0.0005
1790.00,0.0005
1789.00,0.0005
1788.00,0.0005
1787.00,0.0005
1786.00,0.0005
1785.00,0.0005
1784.00,0.0005
1783.00,0.0005
1782.00,0.0005
1781.00,0.0005
1780.00,0.0005
1779.00,0.0004
1778.00,0.0004
1777.00,0.0005
1776.00,0.0005
1775.00,0.0006
1774.00,0.0006
1773.00,0.0007
1772.00,0.0007
1771.00,0.0007
1770.00,0.0007
1769.00,0.0006
1768.00,0.0006
1767.00,0.0005
1766.00,0.0005
1765.00,0.0006
1764.00,0.0006
1763.00,0.0006
1762.00,0.0007
1761.00,0.0007
1760.00,0.0007
1759.00,0.0007
1758.00,0.0007
1757.00,0.0008
1756.00,0.0008
1755.00,0.0009
1754.00,0.0009
1753.00,0.0009
1752.00,0.0009
1751.00,0.0009
1750.00,0.0009
1749.00,0.0009
1748.00,0.0009
1747.00,0.0009
1746.00,0.0010
1745.00,0.0010
1744.00,0.0010
1743.00,0.0010
1742.00,0.0009
1741.00,0.0008
1740.00,0.0008
1739.00,0.0008
1738.00,0.0007
1737.00,0.0007
1736.00,0.0006
1735.00,0.0006
1734.00,0.0005
1733.00,0.0005
1732.00,0.0005
1731.00,0.0005
1730.00,0.0005
1729.00,0.0005
1728.00,0.0006
1727.00,0.0006
1726.00,0.0007
1725.00,0.0008
1724.00,0.0008
1723.00,0.0009
1722.00,0.0009
1721.00,0.0009
1720.00,0.0009
1719.00,0.0010
1718.00,0.0011
1717.00,0.0013
1716.00,0.0014
1715.00,0.0015
1714.00,0.0015
1713.00,0.0016
1712.00,0.0016
1711.00,0.0017
1710.00,0.0017
1709.00,0.0018
1708.00,0.0018
1707.00,0.0018
1706.00,0.0017
1705.00,0.0017
1704.00,0.0018
1703.00,0.0018
1702.00,0.0018
1701.00,0.0019
1700.00,0.0019
1699.00,0.0019
1698.00,0.0019
1697.00,0.0019
1696.00,0.0019
1695.00,0.0020
1694.00,0.0021
1693.00,0.0021
1692.00,0.0021
1691.00,0.0021
1690.00,0.0022
1689.00,0.0022
1688.00,0.0022
1687.00,0.0023
1686.00,0.0023
1685.00,0.0023
1684.00,0.0024
1683.00,0.0024
1682.00,0.0024
1681.00,0.0024
1680.00,0.0025
1679.00,0.0025
1678.00,0.0025
1677.00,0.0025
1676.00,0.0024
1675.00,0.0024
1674.00,0.0024
1673.00,0.0024
1672.00,0.0025
1671.00,0.0025
1670.00,0.0025
1669.00,0.0026
1668.00,0.0026
1667.00,0.0026
1666.00,0.0026
1665.00,0.0026
1664.00,0.0027
1663.00,0.0027
1662.00,0.0028
1661.00,0.0028
1660.00,0.0029
1659.00,0.0029
1658.00,0.0029
1657.00,0.0029
1656.00,0.0030
1655.00,0.0030
1654.00,0.0031
1653.00,0.0031
1652.00,0.0032
1651.00,0.0032
1650.00,0.0032
1649.00,0.0033
1648.00,0.0034
1647.00,0.0034
1646.00,0.0034
1645.00,0.0035
1644.00,0.0035
1643.00,0.0035
1642.00,0.0035
1641.00,0.0035
1640.00,0.0036
1639.00,0.0036
1638.00,0.0036
1637.00,0.0036
1636.00,0.0037
1635.00,0.0036
1634.00,0.0036
1633.00,0.0036
1632.00,0.0036
1631.00,0.0036
1630.00,0.0036
1629.00,0.0035
1628.00,0.0035
1627.00,0.0034
1626.00,0.0034
1625.00,0.0033
1624.00,0.0033
1623.00,0.0033
1622.00,0.0033
1621.00,0.0034
1620.00,0.0034
1619.00,0.0034
1618.00,0.0033
1617.00,0.0033
1616.00,0.0034
1615.00,0.0034
1614.00,0.0033
1613.00,0.0034
1612.00,0.0034
1611.00,0.0034
1610.00,0.0034
1609.00,0.0034
1608.00,0.0034
1607.00,0.0033
1606.00,0.0032
1605.00,0.0032
1604.00,0.0032
1603.00,0.0032
1602.00,0.0032
1601.00,0.0032
1600.00,0.0032
1599.00,0.0032
1598.00,0.0031
1597.00,0.0031
1596.00,0.0031
1595.00,0.0031
1594.00,0.0031
1593.00,0.0031
1592.00,0.0031
1591.00,0.0030
1590.00,0.0030
1589.00,0.0029
1588.00,0.0029
1587.00,0.0029
1586.00,0.0029
1585.00,0.0029
1584.00,0.0029
1583.00,0.0029
1582.00,0.0029
1581.00,0.0029
1580.00,0.0029
1579.00,0.0029
1578.00,0.0029
1577.00,0.0029
1576.00,0.0029
1575.00,0.0029
1574.00,0.0029
1573.00,0.0029
1572.00,0.0030
1571.00,0.0030
1570.00,0.0030
1569.00,0.0031
1568.00,0.0031
1567.00,0.0032
1566.00,0.0033
1565.00,0.0033
1564.00,0.0034
1563.00,0.0034
1562.00,0.0034
1561.00,0.0035
1560.00,0.0036
1559.00,0.0036
1558.00,0.0036
1557.00,0.0036
1556.00,0.0037
1555.00,0.0037
1554.00,0.0037
1553.00,0.0037
1552.00,0.0037
1551.00,0.0037
1550.00,0.0036
1549.00,0.0036
1548.00,0.0036
1547.00,0.0036
1546.00,0.0036
1545.00,0.0036
1544.00,0.0037
1543.00,0.0037
1542.00,0.0037
1541.00,0.0037
1540.00,0.0037
1539.00,0.0037
1538.00,0.0037
1537.00,0.0037
1536.00,0.0037
1535.00,0.0037
1534.00,0.0037
1533.00,0.0037
1532.00,0.0038
1531.00,0.0038
1530.00,0.0038
1529.00,0.0038
1528.00,0.0038
1527.00,0.0038
1526.00,0.0037
1525.00,0.0038
1524.00,0.0039
1523.00,0.0039
1522.00,0.0039
1521.00,0.0040
1520.00,0.0041
1519.00,0.0041
1518.00,0.0040
1517.00,0.0041
1516.00,0.0041
1515.00,0.0041
1514.00,0.0041
1513.00,0.0042
1512.00,0.0043
1511.00,0.0043
1510.00,0.0043
1509.00,0.0045
1508.00,0.0047
1507.00,0.0048
1506.00,0.0049
1505.00,0.0050
1504.00,0.0051
1503.00,0.0052
1502.00,0.0053
1501.00,0.0055
1500.00,0.0058
1499.00,0.0060
1498.00,0.0062
1497.00,0.0065
1496.00,0.0069
1495.00,0.0072
1494.00,0.0074
1493.00,0.0076
1492.00,0.0078
1491.00,0.0081
1490.00,0.0084
1489.00,0.0089
1488.00,0.0094
1487.00,0.0098
1486.00,0.0102
1485.00,0.0107
1484.00,0.0113
1483.00,0.0120
1482.00,0.0127
1481.00,0.0137
1480.00,0.0149
1479.00,0.0160
1478.00,0.0174
1477.00,0.0193
1476.00,0.0215
1475.00,0.0240
1474.00,0.0274
1473.00,0.0327
1472.00,0.0392
1471.00,0.0457
1470.00,0.0521
1469.00,0.0587
1468.00,0.0660
1467.00,0.0740
1466.00,0.0832
1465.00,0.0933
1464.00,0.1023
1463.00,0.1089
1462.00,0.1135
1461.00,0.1168
1460.00,0.1193
1459.00,0.1211
1458.00,0.1226
1457.00,0.1239
1456.00,0.1245
1455.00,0.1242
1454.00,0.1236
1453.00,0.1224
1452.00,0.1202
1451.00,0.1166
1450.00,0.1112
1449.00,0.1035
1448.00,0.0936
1447.00,0.0830
1446.00,0.0735
1445.00,0.0654
1444.00,0.0584
1443.00,0.0528
1442.00,0.0486
1441.00,0.0459
1440.00,0.0442
1439.00,0.0436
1438.00,0.0439
1437.00,0.0441
1436.00,0.0432
1435.00,0.0405
1434.00,0.0365
1433.00,0.0316
1432.00,0.0265
1431.00,0.0221
1430.00,0.0188
1429.00,0.0165
1428.00,0.0149
1427.00,0.0140
1426.00,0.0133
1425.00,0.0127
1424.00,0.0121
1423.00,0.0118
1422.00,0.0116
1421.00,0.0113
1420.00,0.0110
1419.00,0.0107
1418.00,0.0106
1417.00,0.0104
1416.00,0.0103
1415.00,0.0102
1414.00,0.0102
1413.00,0.0101
1412.00,0.0099
1411.00,0.0099
1410.00,0.0099
1409.00,0.0099
1408.00,0.0098
1407.00,0.0099
1406.00,0.0100
1405.00,0.0100
1404.00,0.0100
1403.00,0.0101
1402.00,0.0102
1401.00,0.0104
1400.00,0.0106
1399.00,0.0109
1398.00,0.0112
1397.00,0.0114
1396.00,0.0117
1395.00,0.0121
1394.00,0.0126
1393.00,0.0132
1392.00,0.0139
1391.00,0.0148
1390.00,0.0160
1389.00,0.0178
1388.00,0.0205
1387.00,0.0244
1386.00,0.0297
1385.00,0.0362
1384.00,0.0447
1383.00,0.0560
1382.00,0.0711
1381.00,0.0904
1380.00,0.1148
1379.00,0.1436
1378.00,0.1730
1377.00,0.1967
1376.00,0.2077
1375.00,0.2008
1374.00,0.1777
1373.00,0.1475
1372.00,0.1187
1371.00,0.0945
1370.00,0.0750
1369.00,0.0602
1368.00,0.0500
1367.00,0.0437
1366.00,0.0404
1365.00,0.0391
1364.00,0.0395
1363.00,0.0412
1362.00,0.0437
1361.00,0.0464
1360.00,0.0484
1359.00,0.0490
1358.00,0.0478
1357.00,0.0448
1356.00,0.0405
1355.00,0.0356
1354.00,0.0309
1353.00,0.0268
1352.00,0.0236
1351.00,0.0210
1350.00,0.0190
1349.00,0.0173
1348.00,0.0160
1347.00,0.0150
1346.00,0.0142
1345.00,0.0135
1344.00,0.0131
1343.00,0.0127
1342.00,0.0123
1341.00,0.0120
1340.00,0.0118
1339.00,0.0115
1338.00,0.0114
1337.00,0.0113
1336.00,0.0115
1335.00,0.0117
1334.00,0.0121
1333.00,0.0126
1332.00,0.0131
1331.00,0.0135
1330.00,0.0137
1329.00,0.0135
1328.00,0.0131
1327.00,0.0125
1326.00,0.0118
1325.00,0.0111
1324.00,0.0104
1323.00,0.0098
1322.00,0.0093
1321.00,0.0089
1320.00,0.0086
1319.00,0.0084
1318.00,0.0081
1317.00,0.0079
1316.00,0.0078
1315.00,0.0077
1314.00,0.0077
1313.00,0.0077
1312.00,0.0078
1311.00,0.0080
1310.00,0.0084
1309.00,0.0091
1308.00,0.0100
1307.00,0.0111
1306.00,0.0122
1305.00,0.0130
1304.00,0.0132
1303.00,0.0130
1302.00,0.0125
1301.00,0.0121
1300.00,0.0118
1299.00,0.0118
1298.00,0.0119
1297.00,0.0119
1296.00,0.0119
1295.00,0.0116
1294.00,0.0111
1293.00,0.0105
1292.00,0.0099
1291.00,0.0092
1290.00,0.0086
1289.00,0.0081
1288.00,0.0077
1287.00,0.0074
1286.00,0.0072
1285.00,0.0070
1284.00,0.0068
1283.00,0.0066
1282.00,0.0065
1281.00,0.0064
1280.00,0.0063
1279.00,0.0062
1278.00,0.0061
1277.00,0.0060
1276.00,0.0060
1275.00,0.0060
1274.00,0.0060
1273.00,0.0059
1272.00,0.0059
1271.00,0.0059
1270.00,0.0059
1269.00,0.0060
1268.00,0.0061
1267.00,0.0062
1266.00,0.0064
1265.00,0.0066
1264.00,0.0068
1263.00,0.0070
1262.00,0.0075
1261.00,0.0080
1260.00,0.0087
1259.00,0.0095
1258.00,0.0102
1257.00,0.0108
1256.00,0.0112
1255.00,0.0111
1254.00,0.0106
1253.00,0.0099
1252.00,0.0091
1251.00,0.0085
1250.00,0.0080
1249.00,0.0077
1248.00,0.0075
1247.00,0.0074
1246.00,0.0073
1245.00,0.0073
1244.00,0.0073
1243.00,0.0072
1242.00,0.0072
1241.00,0.0071
1240.00,0.0070
1239.00,0.0069
1238.00,0.0068
1237.00,0.0068
1236.00,0.0068
1235.00,0.0067
1234.00,0.0067
1233.00,0.0066
1232.00,0.0066
1231.00,0.0066
1230.00,0.0066
1229.00,0.0067
1228.00,0.0068
1227.00,0.0070
1226.00,0.0073
1225.00,0.0075
1224.00,0.0078
1223.00,0.0082
1222.00,0.0086
1221.00,0.0089
1220.00,0.0091
1219.00,0.0092
1218.00,0.0091
1217.00,0.0089
1216.00,0.0087
1215.00,0.0084
1214.00,0.0081
1213.00,0.0077
1212.00,0.0074
1211.00,0.0072
1210.00,0.0069
1209.00,0.0067
1208.00,0.0066
1207.00,0.0064
1206.00,0.0064
1205.00,0.0063
1204.00,0.0063
1203.00,0.0062
1202.00,0.0062
1201.00,0.0062
1200.00,0.0062
1199.00,0.0061
1198.00,0.0061
1197.00,0.0061
1196.00,0.0061
1195.00,0.0061
1194.00,0.0061
1193.00,0.0061
1192.00,0.0061
1191.00,0.0061
1190.00,0.0061
1189.00,0.0060
1188.00,0.0060
1187.00,0.0061
1186.00,0.0063
1185.00,0.0064
1184.00,0.0066
1183.00,0.0068
1182.00,0.0069
1181.00,0.0071
1180.00,0.0074
1179.00,0.0079
1178.00,0.0085
1177.00,0.0093
1176.00,0.0104
1175.00,0.0119
1174.00,0.0139
1173.00,0.0164
1172.00,0.0194
1171.00,0.0228
1170.00,0.0261
1169.00,0.0289
1168.00,0.0306
1167.00,0.0311
1166.00,0.0305
1165.00,0.0291
1164.00,0.0273
1163.00,0.0255
1162.00,0.0238
1161.00,0.0224
1160.00,0.0213
1159.00,0.0204
1158.00,0.0198
1157.00,0.0194
1156.00,0.0190
1155.00,0.0188
1154.00,0.0185
1153.00,0.0182
1152.00,0.0178
1151.00,0.0171
1150.00,0.0163
1149.00,0.0153
1148.00,0.0143
1147.00,0.0133
1146.00,0.0124
1145.00,0.0115
1144.00,0.0107
1143.00,0.0099
1142.00,0.0093
1141.00,0.0088
1140.00,0.0083
1139.00,0.0080
1138.00,0.0076
1137.00,0.0073
1136.00,0.0070
1135.00,0.0067
1134.00,0.0065
1133.00,0.0063
1132.00,0.0061
1131.00,0.0061
1130.00,0.0061
1129.00,0.0061
1128.00,0.0061
1127.00,0.0061
1126.00,0.0061
1125.00,0.0061
1124.00,0.0060
1123.00,0.0059
1122.00,0.0059
1121.00,0.0059
1120.00,0.0059
1119.00,0.0060
1118.00,0.0061
1117.00,0.0062
1116.00,0.0063
1115.00,0.0065
1114.00,0.0067
1113.00,0.0070
1112.00,0.0072
1111.00,0.0075
1110.00,0.0078
1109.00,0.0083
1108.00,0.0089
1107.00,0.0097
1106.00,0.0105
1105.00,0.0114
1104.00,0.0120
1103.00,0.0124
1102.00,0.0124
1101.00,0.0121
1100.00,0.0116
1099.00,0.0110
1098.00,0.0103
1097.00,0.0097
1096.00,0.0091
1095.00,0.0086
1094.00,0.0082
1093.00,0.0078
1092.00,0.0076
1091.00,0.0073
1090.00,0.0071
1089.00,0.0070
1088.00,0.0069
1087.00,0.0068
1086.00,0.0068
1085.00,0.0068
1084.00,0.0067
1083.00,0.0066
1082.00,0.0065
1081.00,0.0064
1080.00,0.0063
1079.00,0.0062
1078.00,0.0060
1077.00,0.0058
1076.00,0.0056
1075.00,0.0055
1074.00,0.0055
1073.00,0.0055
1072.00,0.0055
1071.00,0.0055
1070.00,0.0055
1069.00,0.0056
1068.00,0.0057
1067.00,0.0059
1066.00,0.0060
1065.00,0.0061
1064.00,0.0062
1063.00,0.0062
1062.00,0.0062
1061.00,0.0062
1060.00,0.0063
1059.00,0.0064
1058.00,0.0064
1057.00,0.0065
1056.00,0.0064
1055.00,0.0065
1054.00,0.0065
1053.00,0.0066
1052.00,0.0067
1051.00,0.0069
1050.00,0.0070
1049.00,0.0072
1048.00,0.0075
1047.00,0.0079
1046.00,0.0082
1045.00,0.0084
1044.00,0.0084
1043.00,0.0082
1042.00,0.0080
1041.00,0.0078
1040.00,0.0076
1039.00,0.0074
1038.00,0.0074
1037.00,0.0075
1036.00,0.0075
1035.00,0.0076
1034.00,0.0076
1033.00,0.0075
1032.00,0.0075
1031.00,0.0075
1030.00,0.0075
1029.00,0.0075
1028.00,0.0075
1027.00,0.0075
1026.00,0.0074
1025.00,0.0074
1024.00,0.0074
1023.00,0.0074
1022.00,0.0075
1021.00,0.0076
1020.00,0.0076
1019.00,0.0078
1018.00,0.0079
1017.00,0.0081
1016.00,0.0082
1015.00,0.0084
1014.00,0.0087
1013.00,0.0091
1012.00,0.0095
1011.00,0.0099
1010.00,0.0104
1009.00,0.0108
1008.00,0.0113
1007.00,0.0120
1006.00,0.0129
1005.00,0.0141
1004.00,0.0158
1003.00,0.0179
1002.00,0.0207
1001.00,0.0240
1000.00,0.0277
999.00,0.0308
998.00,0.0323
997.00,0.0318
996.00,0.0293
995.00,0.0256
994.00,0.0217
993.00,0.0182
992.00,0.0155
991.00,0.0135
990.00,0.0121
989.00,0.0112
988.00,0.0106
987.00,0.0104
986.00,0.0104
985.00,0.0106
984.00,0.0111
983.00,0.0118
982.00,0.0129
981.00,0.0145
980.00,0.0167
979.00,0.0196
978.00,0.0233
977.00,0.0275
976.00,0.0320
975.00,0.0362
974.00,0.0395
973.00,0.0408
972.00,0.0396
971.00,0.0360
970.00,0.0311
969.00,0.0259
968.00,0.0214
967.00,0.0178
966.00,0.0153
965.00,0.0134
964.00,0.0120
963.00,0.0109
962.00,0.0101
961.00,0.0094
960.00,0.0089
959.00,0.0085
958.00,0.0082
957.00,0.0080
956.00,0.0078
955.00,0.0076
954.00,0.0075
953.00,0.0074
952.00,0.0072
951.00,0.0070
950.00,0.0070
949.00,0.0070
948.00,0.0072
947.00,0.0075
946.00,0.0078
945.00,0.0081
944.00,0.0084
943.00,0.0087
942.00,0.0091
941.00,0.0093
940.00,0.0092
939.00,0.0089
938.00,0.0083
937.00,0.0078
936.00,0.0073
935.00,0.0069
934.00,0.0066
933.00,0.0064
932.00,0.0062
931.00,0.0060
930.00,0.0058
929.00,0.0057
928.00,0.0057
927.00,0.0056
926.00,0.0057
925.00,0.0057
924.00,0.0057
923.00,0.0058
922.00,0.0060
921.00,0.0062
920.00,0.0063
919.00,0.0064
918.00,0.0066
917.00,0.0067
916.00,0.0067
915.00,0.0067
914.00,0.0067
913.00,0.0067
912.00,0.0068
911.00,0.0070
910.00,0.0072
909.00,0.0075
908.00,0.0078
907.00,0.0082
906.00,0.0088
905.00,0.0099
904.00,0.0114
903.00,0.0134
902.00,0.0157
901.00,0.0178
900.00,0.0192
899.00,0.0195
898.00,0.0187
897.00,0.0170
896.00,0.0149
895.00,0.0130
894.00,0.0113
893.00,0.0100
892.00,0.0090
891.00,0.0083
890.00,0.0078
889.00,0.0075
888.00,0.0073
887.00,0.0071
886.00,0.0069
885.00,0.0068
884.00,0.0067
883.00,0.0066
882.00,0.0066
881.00,0.0065
880.00,0.0064
879.00,0.0064
878.00,0.0063
877.00,0.0063
876.00,0.0063
875.00,0.0064
874.00,0.0065
873.00,0.0066
872.00,0.0066
871.00,0.0067
870.00,0.0067
869.00,0.0067
868.00,0.0067
867.00,0.0067
866.00,0.0068
865.00,0.0069
864.00,0.0070
863.00,0.0071
862.00,0.0072
861.00,0.0073
860.00,0.0074
859.00,0.0076
858.00,0.0079
857.00,0.0081
856.00,0.0084
855.00,0.0086
854.00,0.0088
853.00,0.0090
852.00,0.0091
851.00,0.0095
850.00,0.0100
849.00,0.0107
848.00,0.0117
847.00,0.0131
846.00,0.0152
845.00,0.0184
844.00,0.0226
843.00,0.0273
842.00,0.0310
841.00,0.0320
840.00,0.0299
839.00,0.0258
838.00,0.0213
837.00,0.0178
836.00,0.0154
835.00,0.0138
834.00,0.0127
833.00,0.0119
832.00,0.0112
831.00,0.0108
830.00,0.0105
829.00,0.0104
828.00,0.0104
827.00,0.0104
826.00,0.0104
825.00,0.0104
824.00,0.0103
823.00,0.0101
822.00,0.0099
821.00,0.0098
820.00,0.0099
819.00,0.0102
818.00,0.0107
817.00,0.0114
816.00,0.0124
815.00,0.0137
814.00,0.0153
813.00,0.0171
812.00,0.0189
811.00,0.0205
810.00,0.0217
809.00,0.0222
808.00,0.0219
807.00,0.0207
806.00,0.0190
805.00,0.0172
804.00,0.0154
803.00,0.0139
802.00,0.0127
801.00,0.0117
800.00,0.0109
799.00,0.0102
798.00,0.0096
797.00,0.0092
796.00,0.0088
795.00,0.0084
794.00,0.0081
793.00,0.0079
792.00,0.0077
791.00,0.0077
790.00,0.0076
789.00,0.0075
788.00,0.0072
787.00,0.0069
786.00,0.0065
785.00,0.0062
784.00,0.0060
783.00,0.0058
782.00,0.0057
781.00,0.0056
780.00,0.0056
779.00,0.0056
778.00,0.0056
777.00,0.0056
776.00,0.0057
775.00,0.0059
774.00,0.0061
773.00,0.0062
772.00,0.0064
771.00,0.0066
770.00,0.0069
769.00,0.0071
768.00,0.0073
767.00,0.0073
766.00,0.0073
765.00,0.0072
764.00,0.0071
763.00,0.0070
762.00,0.0068
761.00,0.0065
760.00,0.0060
759.00,0.0056
758.00,0.0052
757.00,0.0049
756.00,0.0047
755.00,0.0046
754.00,0.0046
753.00,0.0047
752.00,0.0046
751.00,0.0046
750.00,0.0045
749.00,0.0045
748.00,0.0045
747.00,0.0045
746.00,0.0045
745.00,0.0045
744.00,0.0045
743.00,0.0045
742.00,0.0045
741.00,0.0046
740.00,0.0048
739.00,0.0050
738.00,0.0052
737.00,0.0055
736.00,0.0056
735.00,0.0057
734.00,0.0056
733.00,0.0055
732.00,0.0053
731.00,0.0052
730.00,0.0052
729.00,0.0052
728.00,0.0053
727.00,0.0054
726.00,0.0054
725.00,0.0053
724.00,0.0052
723.00,0.0051
722.00,0.0050
721.00,0.0049
720.00,0.0049
719.00,0.0049
718.00,0.0050
717.00,0.0050
716.00,0.0049
715.00,0.0048
714.00,0.0046
713.00,0.0045
712.00,0.0044
711.00,0.0044
710.00,0.0046
709.00,0.0048
708.00,0.0049
707.00,0.0049
706.00,0.0048
705.00,0.0047
704.00,0.0046
703.00,0.0045
702.00,0.0045
701.00,0.0046
700.00,0.0048
699.00,0.0048
698.00,0.0047
697.00,0.0046
696.00,0.0044
695.00,0.0043
694.00,0.0043
693.00,0.0043
692.00,0.0042
691.00,0.0042
690.00,0.0041
689.00,0.0041
688.00,0.0042
687.00,0.0043
686.00,0.0044
685.00,0.0044
684.00,0.0044
683.00,0.0043
682.00,0.0043
681.00,0.0044
680.00,0.0044
679.00,0.0044
678.00,0.0043
677.00,0.0043
676.00,0.0042
675.00,0.0043
674.00,0.0044
673.00,0.0044
672.00,0.0043
671.00,0.0043
670.00,0.0046
669.00,0.0050
668.00,0.0053
667.00,0.0053
666.00,0.0050
665.00,0.0047
664.00,0.0046
663.00,0.0047
662.00,0.0048
661.00,0.0049
660.00,0.0049
659.00,0.0047
658.00,0.0045
657.00,0.0044
656.00,0.0044
655.00,0.0044
654.00,0.0045
653.00,0.0045
652.00,0.0044
651.00,0.0043
650.00,0.0042
649.00,0.0043
648.00,0.0044
647.00,0.0047
646.00,0.0048
645.00,0.0049
644.00,0.0049
643.00,0.0047
642.00,0.0045
641.00,0.0044
640.00,0.0044
639.00,0.0044
638.00,0.0042
637.00,0.0041
636.00,0.0042
635.00,0.0044
634.00,0.0047
633.00,0.0049
632.00,0.0051
631.00,0.0052
630.00,0.0052
629.00,0.0052
628.00,0.0050
627.00,0.0048
626.00,0.0046
625.00,0.0045
624.00,0.0044
623.00,0.0043
622.00,0.0042
621.00,0.0041
620.00,0.0043
619.00,0.0045
618.00,0.0045
617.00,0.0045
616.00,0.0044
615.00,0.0045
614.00,0.0048
613.00,0.0051
612.00,0.0052
611.00,0.0052
610.00,0.0051
609.00,0.0050
608.00,0.0048
607.00,0.0045
606.00,0.0044
605.00,0.0043
604.00,0.0044
603.00,0.0045
602.00,0.0046
601.00,0.0048
600.00,0.0049
599.00,0.0050
598.00,0.0052
597.00,0.0052
596.00,0.0052
595.00,0.0051
594.00,0.0050
593.00,0.0048
592.00,0.0047
591.00,0.0045
590.00,0.0045
589.00,0.0047
588.00,0.0049
587.00,0.0051
586.00,0.0051
585.00,0.0050
584.00,0.0049
583.00,0.0050
582.00,0.0051
581.00,0.0051
580.00,0.0052
579.00,0.0054
578.00,0.0057
577.00,0.0058
576.00,0.0057
575.00,0.0054
574.00,0.0051
573.00,0.0050
572.00,0.0051
571.00,0.0053
570.00,0.0054
569.00,0.0053
568.00,0.0052
567.00,0.0051
566.00,0.0052
565.00,0.0052
564.00,0.0052
563.00,0.0051
562.00,0.0049
561.00,0.0048
560.00,0.0047
559.00,0.0047
558.00,0.0048
557.00,0.0050
556.00,0.0051
555.00,0.0052
554.00,0.0052
553.00,0.0050
552.00,0.0046
551.00,0.0044
550.00,0.0044
549.00,0.0046
548.00,0.0049
547.00,0.0051
546.00,0.0052
545.00,0.0052
544.00,0.0053
543.00,0.0053
542.00,0.0053
541.00,0.0054
540.00,0.0055
539.00,0.0059
538.00,0.0064
537.00,0.0067
536.00,0.0068
535.00,0.0069
534.00,0.0071
533.00,0.0072
532.00,0.0070
531.00,0.0067
530.00,0.0064
529.00,0.0065
528.00,0.0071
527.00,0.0077
526.00,0.0079
525.00,0.0075
524.00,0.0069
523.00,0.0064
522.00,0.0062
521.00,0.0061
520.00,0.0061
519.00,0.0061
518.00,0.0059
517.00,0.0055
516.00,0.0048
515.00,0.0044
514.00,0.0045
513.00,0.0049
512.00,0.0054
511.00,0.0058
510.00,0.0060
509.00,0.0062
508.00,0.0061
507.00,0.0059
506.00,0.0056
505.00,0.0055
504.00,0.0055
503.00,0.0056
502.00,0.0058
501.00,0.0060
500.00,0.0062
499.00,0.0063
498.00,0.0063
497.00,0.0063
496.00,0.0062
495.00,0.0061
494.00,0.0064
493.00,0.0070
492.00,0.0074
491.00,0.0071
490.00,0.0063
489.00,0.0054
488.00,0.0049
487.00,0.0048
486.00,0.0049
485.00,0.0049
484.00,0.0049
483.00,0.0047
482.00,0.0043
481.00,0.0040
480.00,0.0040
479.00,0.0045
478.00,0.0053
477.00,0.0061
476.00,0.0065
475.00,0.0062
474.00,0.0056
473.00,0.0053
472.00,0.0061
471.00,0.0080
470.00,0.0099
469.00,0.0112
468.00,0.0116
467.00,0.0117
466.00,0.0119
465.00,0.0123
464.00,0.0129
463.00,0.0136
462.00,0.0145
461.00,0.0155
460.00,0.0165
459.00,0.0170
458.00,0.0169
457.00,0.0160
456.00,0.0148
455.00,0.0134
454.00,0.0119
453.00,0.0102
452.00,0.0085
451.00,0.0072
450.00,0.0062
