Created as New Dataset,Sample 006 By Administrator Date Tuesday, September 09 2025
cm-1,A
4000.00,0.0011
3999.00,0.0012
3998.00,0.0012
3997.00,0.0012
3996.00,0.0012
3995.00,0.0011
3994.00,0.0011
3993.00,0.0011
3992.00,0.0011
3991.00,0.0011
3990.00,0.0011
3989.00,0.0011
3988.00,0.0011
3987.00,0.0011
3986.00,0.0011
3985.00,0.0011
3984.00,0.0011
3983.00,0.0010
3982.00,0.0010
3981.00,0.0010
3980.00,0.0010
3979.00,0.0011
3978.00,0.0011
3977.00,0.0010
3976.00,0.0010
3975.00,0.0010
3974.00,0.0010
3973.00,0.0009
3972.00,0.0009
3971.00,0.0009
3970.00,0.0009
3969.00,0.0009
3968.00,0.0009
3967.00,0.0010
3966.00,0.0010
3965.00,0.0010
3964.00,0.0010
3963.00,0.0010
3962.00,0.0010
3961.00,0.0010
3960.00,0.0010
3959.00,0.0010
3958.00,0.0009
3957.00,0.0009
3956.00,0.0009
3955.00,0.0009
3954.00,0.0009
3953.00,0.0009
3952.00,0.0009
3951.00,0.0009
3950.00,0.0009
3949.00,0.0009
3948.00,0.0009
3947.00,0.0009
3946.00,0.0009
3945.00,0.0009
3944.00,0.0009
3943.00,0.0009
3942.00,0.0009
3941.00,0.0009
3940.00,0.0009
3939.00,0.0009
3938.00,0.0009
3937.00,0.0009
3936.00,0.0009
3935.00,0.0010
3934.00,0.0010
3933.00,0.0011
3932.00,0.0011
3931.00,0.0011
3930.00,0.0011
3929.00,0.0010
3928.00,0.0010
3927.00,0.0009
3926.00,0.0009
3925.00,0.0010
3924.00,0.0010
3923.00,0.0010
3922.00,0.0010
3921.00,0.0010
3920.00,0.0010
3919.00,0.0010
3918.00,0.0010
3917.00,0.0010
3916.00,0.0009
3915.00,0.0009
3914.00,0.0010
3913.00,0.0010
3912.00,0.0010
3911.00,0.0009
3910.00,0.0009
3909.00,0.0009
3908.00,0.0009
3907.00,0.0010
3906.00,0.0010
3905.00,0.0010
3904.00,0.0011
3903.00,0.0011
3902.00,0.0011
3901.00,0.0011
3900.00,0.0011
3899.00,0.0010
3898.00,0.0010
3897.00,0.0010
3896.00,0.0010
3895.00,0.0010
3894.00,0.0010
3893.00,0.0011
3892.00,0.0011
3891.00,0.0011
3890.00,0.0010
3889.00,0.0010
3888.00,0.0010
3887.00,0.0010
3886.00,0.0010
3885.00,0.0009
3884.00,0.0009
3883.00,0.0009
3882.00,0.0009
3881.00,0.0009
3880.00,0.0009
3879.00,0.0009
3878.00,0.0010
3877.00,0.0010
3876.00,0.0009
3875.00,0.0009
3874.00,0.0009
3873.00,0.0010
3872.00,0.0010
3871.00,0.0011
3870.00,0.0011
3869.00,0.0011
3868.00,0.0011
3867.00,0.0011
3866.00,0.0011
3865.00,0.0011
3864.00,0.0011
3863.00,0.0010
3862.00,0.0010
3861.00,0.0010
3860.00,0.0010
3859.00,0.0010
3858.00,0.0010
3857.00,0.0010
3856.00,0.0010
3855.00,0.0009
3854.00,0.0010
3853.00,0.0010
3852.00,0.0010
3851.00,0.0010
3850.00,0.0010
3849.00,0.0010
3848.00,0.0010
3847.00,0.0010
3846.00,0.0010
3845.00,0.0009
3844.00,0.0009
3843.00,0.0009
3842.00,0.0010
3841.00,0.0010
3840.00,0.0010
3839.00,0.0010
3838.00,0.0010
3837.00,0.0010
3836.00,0.0009
3835.00,0.0009
3834.00,0.0010
3833.00,0.0010
3832.00,0.0010
3831.00,0.0010
3830.00,0.0010
3829.00,0.0010
3828.00,0.0010
3827.00,0.0010
3826.00,0.0010
3825.00,0.0010
3824.00,0.0011
3823.00,0.0011
3822.00,0.0011
3821.00,0.0011
3820.00,0.0011
3819.00,0.0011
3818.00,0.0011
3817.00,0.0010
3816.00,0.0010
3815.00,0.0010
3814.00,0.0010
3813.00,0.0010
3812.00,0.0010
3811.00,0.0010
3810.00,0.0010
3809.00,0.0010
3808.00,0.0010
3807.00,0.0010
3806.00,0.0010
3805.00,0.0010
3804.00,0.0011
3803.00,0.0011
3802.00,0.0010
3801.00,0.0010
3800.00,0.0010
3799.00,0.0010
3798.00,0.0010
3797.00,0.0010
3796.00,0.0010
3795.00,0.0010
3794.00,0.0009
3793.00,0.0009
3792.00,0.0009
3791.00,0.0009
3790.00,0.0009
3789.00,0.0008
3788.00,0.0008
3787.00,0.0008
3786.00,0.0008
3785.00,0.0009
3784.00,0.0009
3783.00,0.0010
3782.00,0.0010
3781.00,0.0009
3780.00,0.0009
3779.00,0.0009
3778.00,0.0010
3777.00,0.0010
3776.00,0.0010
3775.00,0.0009
3774.00,0.0009
3773.00,0.0009
3772.00,0.0009
3771.00,0.0009
3770.00,0.0009
3769.00,0.0010
3768.00,0.0010
3767.00,0.0010
3766.00,0.0010
3765.00,0.0010
3764.00,0.0010
3763.00,0.0011
3762.00,0.0011
3761.00,0.0010
3760.00,0.0010
3759.00,0.0010
3758.00,0.0010
3757.00,0.0010
3756.00,0.0011
3755.00,0.0011
3754.00,0.0011
3753.00,0.0012
3752.00,0.0013
3751.00,0.0013
3750.00,0.0013
3749.00,0.0013
3748.00,0.0012
3747.00,0.0012
3746.00,0.0012
3745.00,0.0011
3744.00,0.0011
3743.00,0.0011
3742.00,0.0010
3741.00,0.0010
3740.00,0.0010
3739.00,0.0010
3738.00,0.0010
3737.00,0.0010
3736.00,0.0011
3735.00,0.0010
3734.00,0.0010
3733.00,0.0010
3732.00,0.0010
3731.00,0.0010
3730.00,0.0010
3729.00,0.0010
3728.00,0.0009
3727.00,0.0009
3726.00,0.0010
3725.00,0.0010
3724.00,0.0009
3723.00,0.0009
3722.00,0.0009
3721.00,0.0008
3720.00,0.0008
3719.00,0.0008
3718.00,0.0009
3717.00,0.0009
3716.00,0.0009
3715.00,0.0009
3714.00,0.0009
3713.00,0.0008
3712.00,0.0008
3711.00,0.0008
3710.00,0.0009
3709.00,0.0009
3708.00,0.0008
3707.00,0.0008
3706.00,0.0008
3705.00,0.0008
3704.00,0.0008
3703.00,0.0008
3702.00,0.0008
3701.00,0.0008
3700.00,0.0007
3699.00,0.0008
3698.00,0.0008
3697.00,0.0008
3696.00,0.0009
3695.00,0.0009
3694.00,0.0009
3693.00,0.0009
3692.00,0.0009
3691.00,0.0009
3690.00,0.0009
3689.00,0.0009
3688.00,0.0010
3687.00,0.0010
3686.00,0.0010
3685.00,0.0010
3684.00,0.0010
3683.00,0.0010
3682.00,0.0009
3681.00,0.0009
3680.00,0.0010
3679.00,0.0010
3678.00,0.0011
3677.00,0.0011
3676.00,0.0011
3675.00,0.0011
3674.00,0.0011
3673.00,0.0011
3672.00,0.0011
3671.00,0.0011
3670.00,0.0011
3669.00,0.0011
3668.00,0.0011
3667.00,0.0011
3666.00,0.0011
3665.00,0.0011
3664.00,0.0011
3663.00,0.0011
3662.00,0.0011
3661.00,0.0011
3660.00,0.0011
3659.00,0.0012
3658.00,0.0012
3657.00,0.0012
3656.00,0.0013
3655.00,0.0013
3654.00,0.0013
3653.00,0.0012
3652.00,0.0012
3651.00,0.0012
3650.00,0.0012
3649.00,0.0012
3648.00,0.0012
3647.00,0.0012
3646.00,0.0012
3645.00,0.0012
3644.00,0.0012
3643.00,0.0012
3642.00,0.0012
3641.00,0.0012
3640.00,0.0012
3639.00,0.0012
3638.00,0.0013
3637.00,0.0013
3636.00,0.0013
3635.00,0.0013
3634.00,0.0013
3633.00,0.0013
3632.00,0.0013
3631.00,0.0013
3630.00,0.0013
3629.00,0.0013
3628.00,0.0013
3627.00,0.0013
3626.00,0.0013
3625.00,0.0013
3624.00,0.0013
3623.00,0.0013
3622.00,0.0013
3621.00,0.0012
3620.00,0.0012
3619.00,0.0012
3618.00,0.0012
3617.00,0.0013
3616.00,0.0014
3615.00,0.0014
3614.00,0.0014
3613.00,0.0015
3612.00,0.0015
3611.00,0.0015
3610.00,0.0016
3609.00,0.0016
3608.00,0.0015
3607.00,0.0015
3606.00,0.0015
3605.00,0.0015
3604.00,0.0015
3603.00,0.0015
3602.00,0.0015
3601.00,0.0015
3600.00,0.0016
3599.00,0.0016
3598.00,0.0017
3597.00,0.0017
3596.00,0.0018
3595.00,0.0018
3594.00,0.0018
3593.00,0.0018
3592.00,0.0018
3591.00,0.0018
3590.00,0.0018
3589.00,0.0018
3588.00,0.0017
3587.00,0.0018
3586.00,0.0018
3585.00,0.0019
3584.00,0.0019
3583.00,0.0019
3582.00,0.0020
3581.00,0.0020
3580.00,0.0020
3579.00,0.0020
3578.00,0.0020
3577.00,0.0020
3576.00,0.0020
3575.00,0.0020
3574.00,0.0020
3573.00,0.0021
3572.00,0.0021
3571.00,0.0022
3570.00,0.0022
3569.00,0.0022
3568.00,0.0023
3567.00,0.0023
3566.00,0.0023
3565.00,0.0023
3564.00,0.0023
3563.00,0.0023
3562.00,0.0023
3561.00,0.0023
3560.00,0.0024
3559.00,0.0024
3558.00,0.0024
3557.00,0.0025
3556.00,0.0025
3555.00,0.0026
3554.00,0.0026
3553.00,0.0027
3552.00,0.0027
3551.00,0.0027
3550.00,0.0028
3549.00,0.0028
3548.00,0.0028
3547.00,0.0028
3546.00,0.0027
3545.00,0.0027
3544.00,0.0027
3543.00,0.0027
3542.00,0.0028
3541.00,0.0028
3540.00,0.0028
3539.00,0.0028
3538.00,0.0029
3537.00,0.0029
3536.00,0.0029
3535.00,0.0029
3534.00,0.0029
3533.00,0.0030
3532.00,0.0030
3531.00,0.0030
3530.00,0.0031
3529.00,0.0031
3528.00,0.0031
3527.00,0.0032
3526.00,0.0032
3525.00,0.0032
3524.00,0.0032
3523.00,0.0032
3522.00,0.0033
3521.00,0.0033
3520.00,0.0033
3519.00,0.0033
3518.00,0.0033
3517.00,0.0033
3516.00,0.0033
3515.00,0.0034
3514.00,0.0034
3513.00,0.0034
3512.00,0.0034
3511.00,0.0035
3510.00,0.0035
3509.00,0.0035
3508.00,0.0035
3507.00,0.0036
3506.00,0.0036
3505.00,0.0036
3504.00,0.0036
3503.00,0.0036
3502.00,0.0036
3501.00,0.0036
3500.00,0.0037
3499.00,0.0037
3498.00,0.0038
3497.00,0.0038
3496.00,0.0039
3495.00,0.0039
3494.00,0.0039
3493.00,0.0039
3492.00,0.0039
3491.00,0.0039
3490.00,0.0040
3489.00,0.0040
3488.00,0.0040
3487.00,0.0041
3486.00,0.0042
3485.00,0.0042
3484.00,0.0042
3483.00,0.0042
3482.00,0.0042
3481.00,0.0042
3480.00,0.0042
3479.00,0.0042
3478.00,0.0042
3477.00,0.0042
3476.00,0.0043
3475.00,0.0043
3474.00,0.0044
3473.00,0.0044
3472.00,0.0044
3471.00,0.0044
3470.00,0.0044
3469.00,0.0044
3468.00,0.0044
3467.00,0.0045
3466.00,0.0045
3465.00,0.0046
3464.00,0.0046
3463.00,0.0046
3462.00,0.0046
3461.00,0.0047
3460.00,0.0047
3459.00,0.0047
3458.00,0.0048
3457.00,0.0048
3456.00,0.0049
3455.00,0.0049
3454.00,0.0048
3453.00,0.0049
3452.00,0.0049
3451.00,0.0050
3450.00,0.0050
3449.00,0.0051
3448.00,0.0051
3447.00,0.0051
3446.00,0.0051
3445.00,0.0051
3444.00,0.0051
3443.00,0.0051
3442.00,0.0051
3441.00,0.0051
3440.00,0.0051
3439.00,0.0052
3438.00,0.0052
3437.00,0.0052
3436.00,0.0053
3435.00,0.0053
3434.00,0.0053
3433.00,0.0054
3432.00,0.0054
3431.00,0.0054
3430.00,0.0054
3429.00,0.0054
3428.00,0.0054
3427.00,0.0054
3426.00,0.0054
3425.00,0.0054
3424.00,0.0054
3423.00,0.0054
3422.00,0.0054
3421.00,0.0055
3420.00,0.0055
3419.00,0.0055
3418.00,0.0056
3417.00,0.0056
3416.00,0.0056
3415.00,0.0057
3414.00,0.0057
3413.00,0.0058
3412.00,0.0058
3411.00,0.0058
3410.00,0.0058
3409.00,0.0058
3408.00,0.0058
3407.00,0.0058
3406.00,0.0058
3405.00,0.0058
3404.00,0.0057
3403.00,0.0058
3402.00,0.0058
3401.00,0.0057
3400.00,0.0057
3399.00,0.0057
3398.00,0.0058
3397.00,0.0058
3396.00,0.0058
3395.00,0.0058
3394.00,0.0058
3393.00,0.0058
3392.00,0.0058
3391.00,0.0059
3390.00,0.0059
3389.00,0.0059
3388.00,0.0059
3387.00,0.0059
3386.00,0.0059
3385.00,0.0060
3384.00,0.0060
3383.00,0.0060
3382.00,0.0060
3381.00,0.0060
3380.00,0.0059
3379.00,0.0059
3378.00,0.0059
3377.00,0.0059
3376.00,0.0059
3375.00,0.0059
3374.00,0.0060
3373.00,0.0060
3372.00,0.0060
3371.00,0.0060
3370.00,0.0060
3369.00,0.0061
3368.00,0.0061
3367.00,0.0061
3366.00,0.0061
3365.00,0.0061
3364.00,0.0061
3363.00,0.0061
3362.00,0.0062
3361.00,0.0062
3360.00,0.0062
3359.00,0.0062
3358.00,0.0062
3357.00,0.0062
3356.00,0.0062
3355.00,0.0062
3354.00,0.0062
3353.00,0.0063
3352.00,0.0063
3351.00,0.0063
3350.00,0.0062
3349.00,0.0062
3348.00,0.0062
3347.00,0.0061
3346.00,0.0061
3345.00,0.0061
3344.00,0.0062
3343.00,0.0062
3342.00,0.0062
3341.00,0.0062
3340.00,0.0062
3339.00,0.0062
3338.00,0.0062
3337.00,0.0062
3336.00,0.0062
3335.00,0.0062
3334.00,0.0062
3333.00,0.0062
3332.00,0.0062
3331.00,0.0062
3330.00,0.0062
3329.00,0.0062
3328.00,0.0061
3327.00,0.0061
3326.00,0.0061
3325.00,0.0061
3324.00,0.0061
3323.00,0.0061
3322.00,0.0061
3321.00,0.0061
3320.00,0.0061
3319.00,0.0061
3318.00,0.0060
3317.00,0.0060
3316.00,0.0060
3315.00,0.0061
3314.00,0.0061
3313.00,0.0061
3312.00,0.0061
3311.00,0.0060
3310.00,0.0060
3309.00,0.0060
3308.00,0.0060
3307.00,0.0060
3306.00,0.0060
3305.00,0.0060
3304.00,0.0060
3303.00,0.0061
3302.00,0.0061
3301.00,0.0061
3300.00,0.0061
3299.00,0.0061
3298.00,0.0060
3297.00,0.0060
3296.00,0.0060
3295.00,0.0059
3294.00,0.0059
3293.00,0.0059
3292.00,0.0059
3291.00,0.0059
3290.00,0.0059
3289.00,0.0059
3288.00,0.0059
3287.00,0.0059
3286.00,0.0059
3285.00,0.0058
3284.00,0.0058
3283.00,0.0058
3282.00,0.0058
3281.00,0.0058
3280.00,0.0058
3279.00,0.0058
3278.00,0.0058
3277.00,0.0058
3276.00,0.0057
3275.00,0.0057
3274.00,0.0056
3273.00,0.0056
3272.00,0.0056
3271.00,0.0056
3270.00,0.0056
3269.00,0.0056
3268.00,0.0056
3267.00,0.0056
3266.00,0.0055
3265.00,0.0055
3264.00,0.0055
3263.00,0.0055
3262.00,0.0056
3261.00,0.0056
3260.00,0.0056
3259.00,0.0055
3258.00,0.0055
3257.00,0.0054
3256.00,0.0054
3255.00,0.0053
3254.00,0.0053
3253.00,0.0053
3252.00,0.0053
3251.00,0.0053
3250.00,0.0053
3249.00,0.0053
3248.00,0.0053
3247.00,0.0053
3246.00,0.0053
3245.00,0.0053
3244.00,0.0053
3243.00,0.0053
3242.00,0.0052
3241.00,0.0052
3240.00,0.0052
3239.00,0.0052
3238.00,0.0052
3237.00,0.0052
3236.00,0.0052
3235.00,0.0052
3234.00,0.0052
3233.00,0.0052
3232.00,0.0052
3231.00,0.0053
3230.00,0.0053
3229.00,0.0053
3228.00,0.0053
3227.00,0.0054
3226.00,0.0054
3225.00,0.0054
3224.00,0.0054
3223.00,0.0054
3222.00,0.0054
3221.00,0.0054
3220.00,0.0054
3219.00,0.0054
3218.00,0.0054
3217.00,0.0054
3216.00,0.0054
3215.00,0.0055
3214.00,0.0055
3213.00,0.0056
3212.00,0.0056
3211.00,0.0056
3210.00,0.0056
3209.00,0.0056
3208.00,0.0056
3207.00,0.0056
3206.00,0.0056
3205.00,0.0057
3204.00,0.0057
3203.00,0.0057
3202.00,0.0057
3201.00,0.0057
3200.00,0.0057
3199.00,0.0057
3198.00,0.0057
3197.00,0.0056
3196.00,0.0056
3195.00,0.0056
3194.00,0.0056
3193.00,0.0056
3192.00,0.0056
3191.00,0.0055
3190.00,0.0055
3189.00,0.0055
3188.00,0.0055
3187.00,0.0055
3186.00,0.0055
3185.00,0.0055
3184.00,0.0055
3183.00,0.0054
3182.00,0.0054
3181.00,0.0054
3180.00,0.0054
3179.00,0.0053
3178.00,0.0053
3177.00,0.0053
3176.00,0.0052
3175.00,0.0052
3174.00,0.0052
3173.00,0.0051
3172.00,0.0051
3171.00,0.0050
3170.00,0.0050
3169.00,0.0050
3168.00,0.0050
3167.00,0.0050
3166.00,0.0050
3165.00,0.0050
3164.00,0.0050
3163.00,0.0050
3162.00,0.0050
3161.00,0.0050
3160.00,0.0050
3159.00,0.0050
3158.00,0.0050
3157.00,0.0050
3156.00,0.0050
3155.00,0.0049
3154.00,0.0049
3153.00,0.0049
3152.00,0.0049
3151.00,0.0049
3150.00,0.0048
3149.00,0.0048
3148.00,0.0048
3147.00,0.0047
3146.00,0.0047
3145.00,0.0047
3144.00,0.0047
3143.00,0.0047
3142.00,0.0047
3141.00,0.0047
3140.00,0.0047
3139.00,0.0047
3138.00,0.0047
3137.00,0.0047
3136.00,0.0046
3135.00,0.0046
3134.00,0.0046
3133.00,0.0046
3132.00,0.0045
3131.00,0.0045
3130.00,0.0045
3129.00,0.0044
3128.00,0.0044
3127.00,0.0043
3126.00,0.0043
3125.00,0.0043
3124.00,0.0043
3123.00,0.0043
3122.00,0.0043
3121.00,0.0042
3120.00,0.0042
3119.00,0.0042
3118.00,0.0041
3117.00,0.0041
3116.00,0.0041
3115.00,0.0040
3114.00,0.0041
3113.00,0.0041
3112.00,0.0041
3111.00,0.0041
3110.00,0.0040
3109.00,0.0040
3108.00,0.0039
3107.00,0.0039
3106.00,0.0039
3105.00,0.0039
3104.00,0.0039
3103.00,0.0038
3102.00,0.0038
3101.00,0.0038
3100.00,0.0038
3099.00,0.0038
3098.00,0.0038
3097.00,0.0038
3096.00,0.0038
3095.00,0.0038
3094.00,0.0038
3093.00,0.0038
3092.00,0.0037
3091.00,0.0037
3090.00,0.0037
3089.00,0.0037
3088.00,0.0037
3087.00,0.0037
3086.00,0.0036
3085.00,0.0036
3084.00,0.0037
3083.00,0.0037
3082.00,0.0037
3081.00,0.0037
3080.00,0.0037
3079.00,0.0037
3078.00,0.0037
3077.00,0.0038
3076.00,0.0038
3075.00,0.0038
3074.00,0.0038
3073.00,0.0038
3072.00,0.0038
3071.00,0.0038
3070.00,0.0037
3069.00,0.0037
3068.00,0.0037
3067.00,0.0038
3066.00,0.0038
3065.00,0.0038
3064.00,0.0039
3063.00,0.0039
3062.00,0.0039
3061.00,0.0039
3060.00,0.0038
3059.00,0.0038
3058.00,0.0038
3057.00,0.0038
3056.00,0.0038
3055.00,0.0038
3054.00,0.0038
3053.00,0.0039
3052.00,0.0039
3051.00,0.0040
3050.00,0.0040
3049.00,0.0040
3048.00,0.0040
3047.00,0.0040
3046.00,0.0040
3045.00,0.0040
3044.00,0.0040
3043.00,0.0040
3042.00,0.0040
3041.00,0.0040
3040.00,0.0040
3039.00,0.0040
3038.00,0.0041
3037.00,0.0041
3036.00,0.0041
3035.00,0.0041
3034.00,0.0042
3033.00,0.0043
3032.00,0.0043
3031.00,0.0044
3030.00,0.0045
3029.00,0.0045
3028.00,0.0046
3027.00,0.0046
3026.00,0.0046
3025.00,0.0047
3024.00,0.0047
3023.00,0.0048
3022.00,0.0049
3021.00,0.0049
3020.00,0.0050
3019.00,0.0051
3018.00,0.0053
3017.00,0.0054
3016.00,0.0055
3015.00,0.0057
3014.00,0.0058
3013.00,0.0059
3012.00,0.0061
3011.00,0.0063
3010.00,0.0065
3009.00,0.0068
3008.00,0.0070
3007.00,0.0072
3006.00,0.0075
3005.00,0.0077
3004.00,0.0080
3003.00,0.0083
3002.00,0.0086
3001.00,0.0088
3000.00,0.0091
2999.00,0.0094
2998.00,0.0098
2997.00,0.0102
2996.00,0.0106
2995.00,0.0111
2994.00,0.0117
2993.00,0.0122
2992.00,0.0129
2991.00,0.0135
2990.00,0.0142
2989.00,0.0151
2988.00,0.0159
2987.00,0.0170
2986.00,0.0182
2985.00,0.0195
2984.00,0.0211
2983.00,0.0227
2982.00,0.0245
2981.00,0.0264
2980.00,0.0285
2979.00,0.0308
2978.00,0.0334
2977.00,0.0365
2976.00,0.0400
2975.00,0.0440
2974.00,0.0486
2973.00,0.0538
2972.00,0.0598
2971.00,0.0664
2970.00,0.0737
2969.00,0.0819
2968.00,0.0909
2967.00,0.1007
2966.00,0.1112
2965.00,0.1223
2964.00,0.1335
2963.00,0.1446
2962.00,0.1550
2961.00,0.1641
2960.00,0.1715
2959.00,0.1771
2958.00,0.1812
2957.00,0.1842
2956.00,0.1867
2955.00,0.1892
2954.00,0.1921
2953.00,0.1951
2952.00,0.1978
2951.00,0.1993
2950.00,0.1987
2949.00,0.1952
2948.00,0.1884
2947.00,0.1785
2946.00,0.1664
2945.00,0.1533
2944.00,0.1404
2943.00,0.1290
2942.00,0.1197
2941.00,0.1130
2940.00,0.1086
2939.00,0.1067
2938.00,0.1067
2937.00,0.1087
2936.00,0.1122
2935.00,0.1172
2934.00,0.1236
2933.00,0.1311
2932.00,0.1396
2931.00,0.1489
2930.00,0.1588
2929.00,0.1688
2928.00,0.1787
2927.00,0.1882
2926.00,0.1973
2925.00,0.2060
2924.00,0.2143
2923.00,0.2224
2922.00,0.2304
2921.00,0.2379
2920.00,0.2446
2919.00,0.2498
2918.00,0.2527
2917.00,0.2527
2916.00,0.2497
2915.00,0.2440
2914.00,0.2364
2913.00,0.2279
2912.00,0.2193
2911.00,0.2113
2910.00,0.2040
2909.00,0.1975
2908.00,0.1914
2907.00,0.1856
2906.00,0.1797
2905.00,0.1736
2904.00,0.1671
2903.00,0.1604
2902.00,0.1535
2901.00,0.1466
2900.00,0.1399
2899.00,0.1335
2898.00,0.1275
2897.00,0.1221
2896.00,0.1173
2895.00,0.1132
2894.00,0.1098
2893.00,0.1072
2892.00,0.1052
2891.00,0.1038
2890.00,0.1029
2889.00,0.1026
2888.00,0.1026
2887.00,0.1031
2886.00,0.1039
2885.00,0.1051
2884.00,0.1067
2883.00,0.1087
2882.00,0.1109
2881.00,0.1134
2880.00,0.1158
2879.00,0.1178
2878.00,0.1190
2877.00,0.1194
2876.00,0.1191
2875.00,0.1183
2874.00,0.1175
2873.00,0.1171
2872.00,0.1174
2871.00,0.1184
2870.00,0.1199
2869.00,0.1216
2868.00,0.1226
2867.00,0.1221
2866.00,0.1196
2865.00,0.1147
2864.00,0.1076
2863.00,0.0993
2862.00,0.0905
2861.00,0.0823
2860.00,0.0753
2859.00,0.0696
2858.00,0.0655
2857.00,0.0626
2856.00,0.0609
2855.00,0.0603
2854.00,0.0605
2853.00,0.0616
2852.00,0.0633
2851.00,0.0655
2850.00,0.0681
2849.00,0.0710
2848.00,0.0741
2847.00,0.0777
2846.00,0.0820
2845.00,0.0873
2844.00,0.0935
2843.00,0.1006
2842.00,0.1079
2841.00,0.1151
2840.00,0.1211
2839.00,0.1251
2838.00,0.1261
2837.00,0.1237
2836.00,0.1178
2835.00,0.1090
2834.00,0.0982
2833.00,0.0869
2832.00,0.0759
2831.00,0.0662
2830.00,0.0579
2829.00,0.0512
2828.00,0.0457
2827.00,0.0413
2826.00,0.0377
2825.00,0.0347
2824.00,0.0323
2823.00,0.0302
2822.00,0.0284
2821.00,0.0268
2820.00,0.0255
2819.00,0.0243
2818.00,0.0233
2817.00,0.0225
2816.00,0.0217
2815.00,0.0210
2814.00,0.0203
2813.00,0.0197
2812.00,0.0192
2811.00,0.0187
2810.00,0.0182
2809.00,0.0177
2808.00,0.0171
2807.00,0.0165
2806.00,0.0158
2805.00,0.0151
2804.00,0.0145
2803.00,0.0139
2802.00,0.0133
2801.00,0.0129
2800.00,0.0125
2799.00,0.0122
2798.00,0.0120
2797.00,0.0118
2796.00,0.0115
2795.00,0.0113
2794.00,0.0110
2793.00,0.0107
2792.00,0.0104
2791.00,0.0101
2790.00,0.0097
2789.00,0.0094
2788.00,0.0090
2787.00,0.0087
2786.00,0.0084
2785.00,0.0081
2784.00,0.0079
2783.00,0.0076
2782.00,0.0074
2781.00,0.0072
2780.00,0.0070
2779.00,0.0069
2778.00,0.0067
2777.00,0.0066
2776.00,0.0064
2775.00,0.0063
2774.00,0.0062
2773.00,0.0062
2772.00,0.0062
2771.00,0.0061
2770.00,0.0061
2769.00,0.0060
2768.00,0.0060
2767.00,0.0059
2766.00,0.0059
2765.00,0.0059
2764.00,0.0059
2763.00,0.0058
2762.00,0.0058
2761.00,0.0057
2760.00,0.0056
2759.00,0.0056
2758.00,0.0055
2757.00,0.0055
2756.00,0.0055
2755.00,0.0055
2754.00,0.0055
2753.00,0.0055
2752.00,0.0055
2751.00,0.0055
2750.00,0.0055
2749.00,0.0055
2748.00,0.0056
2747.00,0.0056
2746.00,0.0056
2745.00,0.0057
2744.00,0.0057
2743.00,0.0058
2742.00,0.0059
2741.00,0.0060
2740.00,0.0061
2739.00,0.0062
2738.00,0.0064
2737.00,0.0065
2736.00,0.0067
2735.00,0.0069
2734.00,0.0070
2733.00,0.0072
2732.00,0.0074
2731.00,0.0075
2730.00,0.0077
2729.00,0.0079
2728.00,0.0082
2727.00,0.0084
2726.00,0.0087
2725.00,0.0090
2724.00,0.0091
2723.00,0.0092
2722.00,0.0091
2721.00,0.0089
2720.00,0.0086
2719.00,0.0082
2718.00,0.0079
2717.00,0.0076
2716.00,0.0073
2715.00,0.0070
2714.00,0.0068
2713.00,0.0066
2712.00,0.0064
2711.00,0.0062
2710.00,0.0060
2709.00,0.0059
2708.00,0.0058
2707.00,0.0057
2706.00,0.0056
2705.00,0.0055
2704.00,0.0054
2703.00,0.0053
2702.00,0.0052
2701.00,0.0051
2700.00,0.0051
2699.00,0.0050
2698.00,0.0050
2697.00,0.0049
2696.00,0.0049
2695.00,0.0048
2694.00,0.0048
2693.00,0.0048
2692.00,0.0048
2691.00,0.0048
2690.00,0.0048
2689.00,0.0049
2688.00,0.0049
2687.00,0.0048
2686.00,0.0048
2685.00,0.0048
2684.00,0.0048
2683.00,0.0048
2682.00,0.0048
2681.00,0.0048
2680.00,0.0049
2679.00,0.0049
2678.00,0.0049
2677.00,0.0049
2676.00,0.0048
2675.00,0.0048
2674.00,0.0048
2673.00,0.0048
2672.00,0.0048
2671.00,0.0048
2670.00,0.0048
2669.00,0.0048
2668.00,0.0047
2667.00,0.0048
2666.00,0.0048
2665.00,0.0049
2664.00,0.0049
2663.00,0.0050
2662.00,0.0050
2661.00,0.0050
2660.00,0.0050
2659.00,0.0050
2658.00,0.0050
2657.00,0.0050
2656.00,0.0050
2655.00,0.0049
2654.00,0.0049
2653.00,0.0048
2652.00,0.0047
2651.00,0.0047
2650.00,0.0047
2649.00,0.0046
2648.00,0.0046
2647.00,0.0046
2646.00,0.0046
2645.00,0.0046
2644.00,0.0045
2643.00,0.0045
2642.00,0.0044
2641.00,0.0043
2640.00,0.0042
2639.00,0.0041
2638.00,0.0041
2637.00,0.0041
2636.00,0.0041
2635.00,0.0041
2634.00,0.0041
2633.00,0.0041
2632.00,0.0042
2631.00,0.0042
2630.00,0.0042
2629.00,0.0042
2628.00,0.0042
2627.00,0.0042
2626.00,0.0043
2625.00,0.0043
2624.00,0.0043
2623.00,0.0043
2622.00,0.0043
2621.00,0.0044
2620.00,0.0044
2619.00,0.0044
2618.00,0.0043
2617.00,0.0043
2616.00,0.0042
2615.00,0.0042
2614.00,0.0041
2613.00,0.0041
2612.00,0.0041
2611.00,0.0041
2610.00,0.0041
2609.00,0.0041
2608.00,0.0040
2607.00,0.0038
2606.00,0.0037
2605.00,0.0036
2604.00,0.0036
2603.00,0.0035
2602.00,0.0035
2601.00,0.0035
2600.00,0.0035
2599.00,0.0035
2598.00,0.0034
2597.00,0.0034
2596.00,0.0034
2595.00,0.0033
2594.00,0.0034
2593.00,0.0034
2592.00,0.0034
2591.00,0.0035
2590.00,0.0035
2589.00,0.0036
2588.00,0.0037
2587.00,0.0039
2586.00,0.0040
2585.00,0.0041
2584.00,0.0041
2583.00,0.0041
2582.00,0.0041
2581.00,0.0041
2580.00,0.0040
2579.00,0.0040
2578.00,0.0039
2577.00,0.0039
2576.00,0.0038
2575.00,0.0037
2574.00,0.0035
2573.00,0.0033
2572.00,0.0032
2571.00,0.0030
2570.00,0.0029
2569.00,0.0029
2568.00,0.0028
2567.00,0.0028
2566.00,0.0028
2565.00,0.0028
2564.00,0.0028
2563.00,0.0027
2562.00,0.0027
2561.00,0.0027
2560.00,0.0026
2559.00,0.0026
2558.00,0.0025
2557.00,0.0025
2556.00,0.0025
2555.00,0.0025
2554.00,0.0025
2553.00,0.0025
2552.00,0.0025
2551.00,0.0024
2550.00,0.0023
2549.00,0.0022
2548.00,0.0022
2547.00,0.0021
2546.00,0.0021
2545.00,0.0021
2544.00,0.0020
2543.00,0.0020
2542.00,0.0019
2541.00,0.0019
2540.00,0.0020
2539.00,0.0020
2538.00,0.0021
2537.00,0.0021
2536.00,0.0021
2535.00,0.0020
2534.00,0.0020
2533.00,0.0019
2532.00,0.0018
2531.00,0.0017
2530.00,0.0017
2529.00,0.0017
2528.00,0.0017
2527.00,0.0017
2526.00,0.0016
2525.00,0.0016
2524.00,0.0015
2523.00,0.0014
2522.00,0.0014
2521.00,0.0014
2520.00,0.0014
2519.00,0.0014
2518.00,0.0014
2517.00,0.0013
2516.00,0.0013
2515.00,0.0013
2514.00,0.0013
2513.00,0.0013
2512.00,0.0013
2511.00,0.0013
2510.00,0.0013
2509.00,0.0013
2508.00,0.0013
2507.00,0.0013
2506.00,0.0013
2505.00,0.0013
2504.00,0.0013
2503.00,0.0013
2502.00,0.0013
2501.00,0.0014
2500.00,0.0014
2499.00,0.0014
2498.00,0.0013
2497.00,0.0013
2496.00,0.0013
2495.00,0.0013
2494.00,0.0014
2493.00,0.0014
2492.00,0.0013
2491.00,0.0013
2490.00,0.0013
2489.00,0.0012
2488.00,0.0012
2487.00,0.0012
2486.00,0.0012
2485.00,0.0012
2484.00,0.0012
2483.00,0.0012
2482.00,0.0012
2481.00,0.0012
2480.00,0.0012
2479.00,0.0012
2478.00,0.0011
2477.00,0.0010
2476.00,0.0010
2475.00,0.0010
2474.00,0.0011
2473.00,0.0011
2472.00,0.0011
2471.00,0.0011
2470.00,0.0011
2469.00,0.0011
2468.00,0.0011
2467.00,0.0011
2466.00,0.0011
2465.00,0.0011
2464.00,0.0011
2463.00,0.0011
2462.00,0.0012
2461.00,0.0012
2460.00,0.0012
2459.00,0.0012
2458.00,0.0012
2457.00,0.0012
2456.00,0.0013
2455.00,0.0014
2454.00,0.0014
2453.00,0.0014
2452.00,0.0014
2451.00,0.0014
2450.00,0.0013
2449.00,0.0013
2448.00,0.0013
2447.00,0.0013
2446.00,0.0013
2445.00,0.0013
2444.00,0.0013
2443.00,0.0013
2442.00,0.0013
2441.00,0.0013
2440.00,0.0013
2439.00,0.0012
2438.00,0.0012
2437.00,0.0012
2436.00,0.0012
2435.00,0.0012
2434.00,0.0012
2433.00,0.0013
2432.00,0.0013
2431.00,0.0013
2430.00,0.0014
2429.00,0.0015
2428.00,0.0015
2427.00,0.0015
2426.00,0.0015
2425.00,0.0015
2424.00,0.0014
2423.00,0.0014
2422.00,0.0013
2421.00,0.0013
2420.00,0.0013
2419.00,0.0013
2418.00,0.0012
2417.00,0.0012
2416.00,0.0012
2415.00,0.0012
2414.00,0.0012
2413.00,0.0012
2412.00,0.0012
2411.00,0.0012
2410.00,0.0012
2409.00,0.0012
2408.00,0.0012
2407.00,0.0011
2406.00,0.0010
2405.00,0.0010
2404.00,0.0009
2403.00,0.0010
2402.00,0.0010
2401.00,0.0010
2400.00,0.0011
2399.00,0.0011
2398.00,0.0011
2397.00,0.0011
2396.00,0.0011
2395.00,0.0011
2394.00,0.0011
2393.00,0.0011
2392.00,0.0011
2391.00,0.0010
2390.00,0.0010
2389.00,0.0009
2388.00,0.0008
2387.00,0.0007
2386.00,0.0007
2385.00,0.0007
2384.00,0.0007
2383.00,0.0007
2382.00,0.0007
2381.00,0.0006
2380.00,0.0005
2379.00,0.0005
2378.00,0.0005
2377.00,0.0005
2376.00,0.0005
2375.00,0.0006
2374.00,0.0006
2373.00,0.0006
2372.00,0.0006
2371.00,0.0005
2370.00,0.0005
2369.00,0.0004
2368.00,0.0004
2367.00,0.0004
2366.00,0.0004
2365.00,0.0005
2364.00,0.0005
2363.00,0.0005
2362.00,0.0005
2361.00,0.0005
2360.00,0.0005
2359.00,0.0005
2358.00,0.0006
2357.00,0.0006
2356.00,0.0006
2355.00,0.0006
2354.00,0.0006
2353.00,0.0005
2352.00,0.0005
2351.00,0.0005
2350.00,0.0005
2349.00,0.0006
2348.00,0.0006
2347.00,0.0006
2346.00,0.0006
2345.00,0.0006
2344.00,0.0006
2343.00,0.0007
2342.00,0.0007
2341.00,0.0008
2340.00,0.0009
2339.00,0.0009
2338.00,0.0009
2337.00,0.0008
2336.00,0.0008
2335.00,0.0007
2334.00,0.0006
2333.00,0.0005
2332.00,0.0004
2331.00,0.0004
2330.00,0.0005
2329.00,0.0006
2328.00,0.0009
2327.00,0.0013
2326.00,0.0017
2325.00,0.0020
2324.00,0.0022
2323.00,0.0022
2322.00,0.0020
2321.00,0.0019
2320.00,0.0017
2319.00,0.0016
2318.00,0.0015
2317.00,0.0015
2316.00,0.0014
2315.00,0.0014
2314.00,0.0013
2313.00,0.0011
2312.00,0.0010
2311.00,0.0010
2310.00,0.0009
2309.00,0.0009
2308.00,0.0009
2307.00,0.0010
2306.00,0.0010
2305.00,0.0011
2304.00,0.0012
2303.00,0.0012
2302.00,0.0012
2301.00,0.0011
2300.00,0.0011
2299.00,0.0011
2298.00,0.0013
2297.00,0.0013
2296.00,0.0014
2295.00,0.0015
2294.00,0.0016
2293.00,0.0018
2292.00,0.0019
2291.00,0.0019
2290.00,0.0020
2289.00,0.0020
2288.00,0.0020
2287.00,0.0020
2286.00,0.0020
2285.00,0.0020
2284.00,0.0019
2283.00,0.0019
2282.00,0.0018
2281.00,0.0018
2280.00,0.0017
2279.00,0.0016
2278.00,0.0014
2277.00,0.0014
2276.00,0.0014
2275.00,0.0015
2274.00,0.0015
2273.00,0.0016
2272.00,0.0016
2271.00,0.0015
2270.00,0.0014
2269.00,0.0014
2268.00,0.0013
2267.00,0.0013
2266.00,0.0013
2265.00,0.0014
2264.00,0.0014
2263.00,0.0014
2262.00,0.0013
2261.00,0.0013
2260.00,0.0013
2259.00,0.0014
2258.00,0.0015
2257.00,0.0014
2256.00,0.0013
2255.00,0.0012
2254.00,0.0010
2253.00,0.0009
2252.00,0.0008
2251.00,0.0009
2250.00,0.0010
2249.00,0.0011
2248.00,0.0012
2247.00,0.0012
2246.00,0.0011
2245.00,0.0012
2244.00,0.0012
2243.00,0.0011
2242.00,0.0011
2241.00,0.0010
2240.00,0.0011
2239.00,0.0011
2238.00,0.0012
2237.00,0.0013
2236.00,0.0014
2235.00,0.0013
2234.00,0.0012
2233.00,0.0011
2232.00,0.0010
2231.00,0.0010
2230.00,0.0009
2229.00,0.0010
2228.00,0.0011
2227.00,0.0012
2226.00,0.0011
2225.00,0.0010
2224.00,0.0009
2223.00,0.0007
2222.00,0.0007
2221.00,0.0007
2220.00,0.0008
2219.00,0.0009
2218.00,0.0009
2217.00,0.0009
2216.00,0.0009
2215.00,0.0007
2214.00,0.0006
2213.00,0.0005
2212.00,0.0005
2211.00,0.0006
2210.00,0.0007
2209.00,0.0008
2208.00,0.0010
2207.00,0.0011
2206.00,0.0012
2205.00,0.0012
2204.00,0.0011
2203.00,0.0011
2202.00,0.0009
2201.00,0.0008
2200.00,0.0007
2199.00,0.0008
2198.00,0.0009
2197.00,0.0009
2196.00,0.0008
2195.00,0.0006
2194.00,0.0005
2193.00,0.0005
2192.00,0.0008
2191.00,0.0012
2190.00,0.0014
2189.00,0.0015
2188.00,0.0014
2187.00,0.0013
2186.00,0.0012
2185.00,0.0011
2184.00,0.0010
2183.00,0.0009
2182.00,0.0006
2181.00,0.0004
2180.00,0.0003
2179.00,0.0003
2178.00,0.0005
2177.00,0.0006
2176.00,0.0005
2175.00,0.0004
2174.00,0.0004
2173.00,0.0005
2172.00,0.0006
2171.00,0.0006
2170.00,0.0007
2169.00,0.0010
2168.00,0.0014
2167.00,0.0018
2166.00,0.0020
2165.00,0.0020
2164.00,0.0020
2163.00,0.0019
2162.00,0.0018
2161.00,0.0013
2160.00,0.0004
2159.00,-0.0008
2158.00,-0.0019
2157.00,-0.0025
2156.00,-0.0026
2155.00,-0.0024
2154.00,-0.0023
2153.00,-0.0022
2152.00,-0.0021
2151.00,-0.0019
2150.00,-0.0018
2149.00,-0.0016
2148.00,-0.0016
2147.00,-0.0017
2146.00,-0.0017
2145.00,-0.0017
2144.00,-0.0017
2143.00,-0.0016
2142.00,-0.0015
2141.00,-0.0013
2140.00,-0.0011
2139.00,-0.0010
2138.00,-0.0009
2137.00,-0.0009
2136.00,-0.0011
2135.00,-0.0013
2134.00,-0.0014
2133.00,-0.0015
2132.00,-0.0014
2131.00,-0.0012
2130.00,-0.0010
2129.00,-0.0008
2128.00,-0.0007
2127.00,-0.0006
2126.00,-0.0007
2125.00,-0.0007
2124.00,-0.0006
2123.00,-0.0005
2122.00,-0.0005
2121.00,-0.0004
2120.00,-0.0004
2119.00,-0.0004
2118.00,-0.0004
2117.00,-0.0003
2116.00,-0.0001
2115.00,-0.0000
2114.00,0.0001
2113.00,0.0002
2112.00,0.0003
2111.00,0.0003
2110.00,0.0003
2109.00,0.0002
2108.00,0.0002
2107.00,0.0001
2106.00,0.0002
2105.00,0.0003
2104.00,0.0004
2103.00,0.0004
2102.00,0.0004
2101.00,0.0004
2100.00,0.0003
2099.00,0.0003
2098.00,0.0001
2097.00,-0.0001
2096.00,-0.0003
2095.00,-0.0005
2094.00,-0.0005
2093.00,-0.0003
2092.00,-0.0002
2091.00,-0.0002
2090.00,-0.0001
2089.00,0.0000
2088.00,0.0001
2087.00,0.0002
2086.00,0.0003
2085.00,0.0004
2084.00,0.0005
2083.00,0.0005
2082.00,0.0005
2081.00,0.0005
2080.00,0.0005
2079.00,0.0006
2078.00,0.0006
2077.00,0.0005
2076.00,0.0004
2075.00,0.0004
2074.00,0.0003
2073.00,0.0004
2072.00,0.0004
2071.00,0.0005
2070.00,0.0004
2069.00,0.0002
2068.00,0.0000
2067.00,-0.0002
2066.00,-0.0003
2065.00,-0.0002
2064.00,0.0000
2063.00,0.0001
2062.00,0.0001
2061.00,-0.0000
2060.00,-0.0001
2059.00,-0.0001
2058.00,-0.0001
2057.00,0.0000
2056.00,0.0002
2055.00,0.0004
2054.00,0.0007
2053.00,0.0010
2052.00,0.0013
2051.00,0.0014
2050.00,0.0014
2049.00,0.0011
2048.00,0.0009
2047.00,0.0006
2046.00,0.0003
2045.00,0.0001
2044.00,0.0001
2043.00,0.0002
2042.00,0.0003
2041.00,0.0004
2040.00,0.0004
2039.00,0.0005
2038.00,0.0005
2037.00,0.0004
2036.00,0.0002
2035.00,-0.0004
2034.00,-0.0009
2033.00,-0.0012
2032.00,-0.0011
2031.00,-0.0009
2030.00,-0.0006
2029.00,-0.0003
2028.00,-0.0001
2027.00,-0.0001
2026.00,-0.0003
2025.00,-0.0005
2024.00,-0.0007
2023.00,-0.0009
2022.00,-0.0010
2021.00,-0.0009
2020.00,-0.0009
2019.00,-0.0009
2018.00,-0.0011
2017.00,-0.0013
2016.00,-0.0016
2015.00,-0.0017
2014.00,-0.0016
2013.00,-0.0014
2012.00,-0.0011
2011.00,-0.0010
2010.00,-0.0009
2009.00,-0.0009
2008.00,-0.0008
2007.00,-0.0009
2006.00,-0.0012
2005.00,-0.0015
2004.00,-0.0016
2003.00,-0.0015
2002.00,-0.0013
2001.00,-0.0012
2000.00,-0.0012
1999.00,-0.0012
1998.00,-0.0012
1997.00,-0.0011
1996.00,-0.0010
1995.00,-0.0009
1994.00,-0.0008
1993.00,-0.0006
1992.00,-0.0004
1991.00,-0.0002
1990.00,-0.0001
1989.00,-0.0001
1988.00,-0.0000
1987.00,-0.0000
1986.00,0.0000
1985.00,0.0000
1984.00,0.0001
1983.00,0.0003
1982.00,0.0007
1981.00,0.0010
1980.00,0.0011
1979.00,0.0006
1978.00,-0.0003
1977.00,-0.0010
1976.00,-0.0014
1975.00,-0.0016
1974.00,-0.0016
1973.00,-0.0016
1972.00,-0.0015
1971.00,-0.0014
1970.00,-0.0013
1969.00,-0.0012
1968.00,-0.0009
1967.00,-0.0006
1966.00,-0.0004
1965.00,-0.0004
1964.00,-0.0006
1963.00,-0.0009
1962.00,-0.0012
1961.00,-0.0013
1960.00,-0.0015
1959.00,-0.0017
1958.00,-0.0019
1957.00,-0.0019
1956.00,-0.0019
1955.00,-0.0018
1954.00,-0.0016
1953.00,-0.0013
1952.00,-0.0011
1951.00,-0.0010
1950.00,-0.0011
1949.00,-0.0014
1948.00,-0.0016
1947.00,-0.0017
1946.00,-0.0017
1945.00,-0.0016
1944.00,-0.0014
1943.00,-0.0012
1942.00,-0.0011
1941.00,-0.0010
1940.00,-0.0009
1939.00,-0.0008
1938.00,-0.0007
1937.00,-0.0007
1936.00,-0.0008
1935.00,-0.0010
1934.00,-0.0011
1933.00,-0.0010
1932.00,-0.0008
1931.00,-0.0006
1930.00,-0.0004
1929.00,-0.0005
1928.00,-0.0006
1927.00,-0.0007
1926.00,-0.0008
1925.00,-0.0007
1924.00,-0.0006
1923.00,-0.0005
1922.00,-0.0004
1921.00,-0.0004
1920.00,-0.0005
1919.00,-0.0005
1918.00,-0.0004
1917.00,-0.0003
1916.00,-0.0003
1915.00,-0.0003
1914.00,-0.0004
1913.00,-0.0003
1912.00,-0.0002
1911.00,-0.0000
1910.00,0.0001
1909.00,0.0001
1908.00,0.0002
1907.00,0.0001
1906.00,0.0000
1905.00,-0.0001
1904.00,-0.0002
1903.00,-0.0002
1902.00,-0.0002
1901.00,-0.0001
1900.00,-0.0001
1899.00,-0.0001
1898.00,-0.0000
1897.00,-0.0000
1896.00,0.0001
1895.00,0.0002
1894.00,0.0003
1893.00,0.0003
1892.00,0.0003
1891.00,0.0002
1890.00,0.0002
1889.00,0.0001
1888.00,-0.0000
1887.00,-0.0001
1886.00,-0.0002
1885.00,-0.0002
1884.00,-0.0002
1883.00,-0.0002
1882.00,-0.0001
1881.00,0.0000
1880.00,0.0002
1879.00,0.0003
1878.00,0.0003
1877.00,0.0002
1876.00,0.0001
1875.00,0.0001
1874.00,0.0000
1873.00,0.0000
1872.00,0.0001
1871.00,0.0002
1870.00,0.0002
1869.00,0.0002
1868.00,0.0002
1867.00,0.0002
1866.00,0.0002
1865.00,0.0003
1864.00,0.0003
1863.00,0.0003
1862.00,0.0003
1861.00,0.0003
1860.00,0.0003
1859.00,0.0004
1858.00,0.0003
1857.00,0.0003
1856.00,0.0003
1855.00,0.0003
1854.00,0.0003
1853.00,0.0004
1852.00,0.0004
1851.00,0.0005
1850.00,0.0004
1849.00,0.0004
1848.00,0.0004
1847.00,0.0005
1846.00,0.0006
1845.00,0.0007
1844.00,0.0007
1843.00,0.0007
1842.00,0.0007
1841.00,0.0005
1840.00,0.0004
1839.00,0.0002
1838.00,0.0001
1837.00,0.0001
1836.00,0.0002
1835.00,0.0003
1834.00,0.0005
1833.00,0.0006
1832.00,0.0007
1831.00,0.0007
1830.00,0.0007
1829.00,0.0007
1828.00,0.0006
1827.00,0.0005
1826.00,0.0004
1825.00,0.0003
1824.00,0.0003
1823.00,0.0004
1822.00,0.0004
1821.00,0.0004
1820.00,0.0003
1819.00,0.0003
1818.00,0.0002
1817.00,0.0002
1816.00,0.0002
1815.00,0.0003
1814.00,0.0004
1813.00,0.0004
1812.00,0.0005
1811.00,0.0005
1810.00,0.0006
1809.00,0.0006
1808.00,0.0005
1807.00,0.0005
1806.00,0.0005
1805.00,0.0005
1804.00,0.0005
1803.00,0.0005
1802.00,0.0006
1801.00,0.0007
1800.00,0.0008
1799.00,0.0008
1798.00,0.0008
1797.00,0.0008
1796.00,0.0008
1795.00,0.0009
1794.00,0.0010
1793.00,0.0010
1792.00,0.0010
1791.00,0.0009
1790.00,0.0009
1789.00,0.0009
1788.00,0.0009
1787.00,0.0010
1786.00,0.0010
1785.00,0.0010
1784.00,0.0010
1783.00,0.0009
1782.00,0.0009
1781.00,0.0009
1780.00,0.0009
1779.00,0.0010
1778.00,0.0011
1777.00,0.0011
1776.00,0.0011
1775.00,0.0011
1774.00,0.0011
1773.00,0.0011
1772.00,0.0012
1771.00,0.0013
1770.00,0.0013
1769.00,0.0013
1768.00,0.0012
1767.00,0.0012
1766.00,0.0013
1765.00,0.0013
1764.00,0.0013
1763.00,0.0013
1762.00,0.0013
1761.00,0.0013
1760.00,0.0014
1759.00,0.0015
1758.00,0.0016
1757.00,0.0018
1756.00,0.0019
1755.00,0.0019
1754.00,0.0020
1753.00,0.0021
1752.00,0.0022
1751.00,0.0022
1750.00,0.0023
1749.00,0.0024
1748.00,0.0024
1747.00,0.0025
1746.00,0.0025
1745.00,0.0025
1744.00,0.0025
1743.00,0.0026
1742.00,0.0026
1741.00,0.0027
1740.00,0.0027
1739.00,0.0027
1738.00,0.0027
1737.00,0.0028
1736.00,0.0029
1735.00,0.0029
1734.00,0.0029
1733.00,0.0028
1732.00,0.0027
1731.00,0.0026
1730.00,0.0025
1729.00,0.0026
1728.00,0.0026
1727.00,0.0026
1726.00,0.0026
1725.00,0.0026
1724.00,0.0026
1723.00,0.0025
1722.00,0.0025
1721.00,0.0024
1720.00,0.0024
1719.00,0.0024
1718.00,0.0025
1717.00,0.0026
1716.00,0.0026
1715.00,0.0025
1714.00,0.0025
1713.00,0.0025
1712.00,0.0025
1711.00,0.0026
1710.00,0.0026
1709.00,0.0027
1708.00,0.0028
1707.00,0.0028
1706.00,0.0029
1705.00,0.0029
1704.00,0.0030
1703.00,0.0030
1702.00,0.0032
1701.00,0.0033
1700.00,0.0034
1699.00,0.0035
1698.00,0.0035
1697.00,0.0035
1696.00,0.0036
1695.00,0.0037
1694.00,0.0037
1693.00,0.0037
1692.00,0.0037
1691.00,0.0038
1690.00,0.0038
1689.00,0.0039
1688.00,0.0040
1687.00,0.0041
1686.00,0.0041
1685.00,0.0041
1684.00,0.0042
1683.00,0.0043
1682.00,0.0045
1681.00,0.0046
1680.00,0.0048
1679.00,0.0049
1678.00,0.0050
1677.00,0.0050
1676.00,0.0051
1675.00,0.0052
1674.00,0.0052
1673.00,0.0053
1672.00,0.0054
1671.00,0.0054
1670.00,0.0055
1669.00,0.0055
1668.00,0.0056
1667.00,0.0056
1666.00,0.0057
1665.00,0.0058
1664.00,0.0060
1663.00,0.0060
1662.00,0.0061
1661.00,0.0061
1660.00,0.0062
1659.00,0.0063
1658.00,0.0063
1657.00,0.0064
1656.00,0.0065
1655.00,0.0066
1654.00,0.0066
1653.00,0.0067
1652.00,0.0068
1651.00,0.0069
1650.00,0.0069
1649.00,0.0070
1648.00,0.0072
1647.00,0.0074
1646.00,0.0075
1645.00,0.0075
1644.00,0.0075
1643.00,0.0075
1642.00,0.0075
1641.00,0.0075
1640.00,0.0076
1639.00,0.0076
1638.00,0.0076
1637.00,0.0077
1636.00,0.0077
1635.00,0.0077
1634.00,0.0077
1633.00,0.0078
1632.00,0.0078
1631.00,0.0079
1630.00,0.0078
1629.00,0.0078
1628.00,0.0078
1627.00,0.0077
1626.00,0.0077
1625.00,0.0077
1624.00,0.0077
1623.00,0.0077
1622.00,0.0076
1621.00,0.0076
1620.00,0.0076
1619.00,0.0076
1618.00,0.0076
1617.00,0.0076
1616.00,0.0076
1615.00,0.0076
1614.00,0.0075
1613.00,0.0075
1612.00,0.0075
1611.00,0.0075
1610.00,0.0074
1609.00,0.0074
1608.00,0.0073
1607.00,0.0073
1606.00,0.0073
1605.00,0.0074
1604.00,0.0075
1603.00,0.0075
1602.00,0.0075
1601.00,0.0075
1600.00,0.0075
1599.00,0.0076
1598.00,0.0076
1597.00,0.0076
1596.00,0.0077
1595.00,0.0078
1594.00,0.0078
1593.00,0.0079
1592.00,0.0081
1591.00,0.0083
1590.00,0.0085
1589.00,0.0088
1588.00,0.0091
1587.00,0.0094
1586.00,0.0098
1585.00,0.0103
1584.00,0.0109
1583.00,0.0114
1582.00,0.0120
1581.00,0.0125
1580.00,0.0130
1579.00,0.0133
1578.00,0.0135
1577.00,0.0134
1576.00,0.0132
1575.00,0.0128
1574.00,0.0124
1573.00,0.0121
1572.00,0.0118
1571.00,0.0114
1570.00,0.0108
1569.00,0.0103
1568.00,0.0100
1567.00,0.0097
1566.00,0.0095
1565.00,0.0093
1564.00,0.0092
1563.00,0.0091
1562.00,0.0091
1561.00,0.0091
1560.00,0.0091
1559.00,0.0092
1558.00,0.0092
1557.00,0.0093
1556.00,0.0094
1555.00,0.0095
1554.00,0.0096
1553.00,0.0098
1552.00,0.0100
1551.00,0.0103
1550.00,0.0107
1549.00,0.0113
1548.00,0.0119
1547.00,0.0125
1546.00,0.0131
1545.00,0.0138
1544.00,0.0146
1543.00,0.0153
1542.00,0.0158
1541.00,0.0159
1540.00,0.0154
1539.00,0.0145
1538.00,0.0138
1537.00,0.0132
1536.00,0.0127
1535.00,0.0120
1534.00,0.0111
1533.00,0.0103
1532.00,0.0097
1531.00,0.0093
1530.00,0.0090
1529.00,0.0087
1528.00,0.0084
1527.00,0.0082
1526.00,0.0080
1525.00,0.0079
1524.00,0.0078
1523.00,0.0077
1522.00,0.0076
1521.00,0.0075
1520.00,0.0075
1519.00,0.0074
1518.00,0.0074
1517.00,0.0074
1516.00,0.0075
1515.00,0.0075
1514.00,0.0075
1513.00,0.0076
1512.00,0.0076
1511.00,0.0076
1510.00,0.0076
1509.00,0.0078
1508.00,0.0080
1507.00,0.0081
1506.00,0.0081
1505.00,0.0082
1504.00,0.0083
1503.00,0.0083
1502.00,0.0084
1501.00,0.0086
1500.00,0.0089
1499.00,0.0091
1498.00,0.0094
1497.00,0.0098
1496.00,0.0103
1495.00,0.0105
1494.00,0.0108
1493.00,0.0110
1492.00,0.0113
1491.00,0.0116
1490.00,0.0120
1489.00,0.0125
1488.00,0.0132
1487.00,0.0138
1486.00,0.0145
1485.00,0.0154
1484.00,0.0164
1483.00,0.0174
1482.00,0.0186
1481.00,0.0200
1480.00,0.0215
1479.00,0.0231
1478.00,0.0248
1477.00,0.0269
1476.00,0.0294
1475.00,0.0322
1474.00,0.0358
1473.00,0.0410
1472.00,0.0471
1471.00,0.0530
1470.00,0.0587
1469.00,0.0648
1468.00,0.0714
1467.00,0.0788
1466.00,0.0873
1465.00,0.0965
1464.00,0.1047
1463.00,0.1106
1462.00,0.1147
1461.00,0.1176
1460.00,0.1198
1459.00,0.1216
1458.00,0.1235
1457.00,0.1255
1456.00,0.1266
1455.00,0.1268
1454.00,0.1266
1453.00,0.1257
1452.00,0.1238
1451.00,0.1205
1450.00,0.1154
1449.00,0.1080
1448.00,0.0983
1447.00,0.0879
1446.00,0.0785
1445.00,0.0704
1444.00,0.0636
1443.00,0.0579
1442.00,0.0538
1441.00,0.0510
1440.00,0.0492
1439.00,0.0485
1438.00,0.0484
1437.00,0.0482
1436.00,0.0470
1435.00,0.0442
1434.00,0.0404
1433.00,0.0359
1432.00,0.0313
1431.00,0.0272
1430.00,0.0240
1429.00,0.0218
1428.00,0.0202
1427.00,0.0193
1426.00,0.0187
1425.00,0.0182
1424.00,0.0178
1423.00,0.0175
1422.00,0.0174
1421.00,0.0172
1420.00,0.0168
1419.00,0.0165
1418.00,0.0162
1417.00,0.0159
1416.00,0.0156
1415.00,0.0154
1414.00,0.0153
1413.00,0.0151
1412.00,0.0148
1411.00,0.0147
1410.00,0.0146
1409.00,0.0145
1408.00,0.0143
1407.00,0.0142
1406.00,0.0142
1405.00,0.0141
1404.00,0.0140
1403.00,0.0141
1402.00,0.0143
1401.00,0.0144
1400.00,0.0146
1399.00,0.0147
1398.00,0.0149
1397.00,0.0151
1396.00,0.0153
1395.00,0.0157
1394.00,0.0163
1393.00,0.0169
1392.00,0.0175
1391.00,0.0184
1390.00,0.0196
1389.00,0.0213
1388.00,0.0240
1387.00,0.0279
1386.00,0.0331
1385.00,0.0396
1384.00,0.0481
1383.00,0.0595
1382.00,0.0742
1381.00,0.0925
1380.00,0.1146
1379.00,0.1393
1378.00,0.1629
1377.00,0.1801
1376.00,0.1859
1375.00,0.1773
1374.00,0.1565
1373.00,0.1308
1372.00,0.1068
1371.00,0.0868
1370.00,0.0705
1369.00,0.0580
1368.00,0.0492
1367.00,0.0438
1366.00,0.0408
1365.00,0.0395
1364.00,0.0396
1363.00,0.0408
1362.00,0.0428
1361.00,0.0450
1360.00,0.0466
1359.00,0.0470
1358.00,0.0459
1357.00,0.0433
1356.00,0.0397
1355.00,0.0355
1354.00,0.0315
1353.00,0.0280
1352.00,0.0251
1351.00,0.0229
1350.00,0.0210
1349.00,0.0196
1348.00,0.0184
1347.00,0.0174
1346.00,0.0167
1345.00,0.0160
1344.00,0.0155
1343.00,0.0151
1342.00,0.0148
1341.00,0.0145
1340.00,0.0143
1339.00,0.0141
1338.00,0.0140
1337.00,0.0139
1336.00,0.0139
1335.00,0.0141
1334.00,0.0144
1333.00,0.0147
1332.00,0.0152
1331.00,0.0155
1330.00,0.0156
1329.00,0.0155
1328.00,0.0151
1327.00,0.0146
1326.00,0.0140
1325.00,0.0134
1324.00,0.0128
1323.00,0.0123
1322.00,0.0119
1321.00,0.0116
1320.00,0.0114
1319.00,0.0111
1318.00,0.0109
1317.00,0.0107
1316.00,0.0105
1315.00,0.0104
1314.00,0.0103
1313.00,0.0104
1312.00,0.0105
1311.00,0.0108
1310.00,0.0113
1309.00,0.0121
1308.00,0.0132
1307.00,0.0146
1306.00,0.0160
1305.00,0.0170
1304.00,0.0174
1303.00,0.0170
1302.00,0.0163
1301.00,0.0156
1300.00,0.0152
1299.00,0.0149
1298.00,0.0148
1297.00,0.0147
1296.00,0.0145
1295.00,0.0142
1294.00,0.0137
1293.00,0.0132
1292.00,0.0126
1291.00,0.0120
1290.00,0.0115
1289.00,0.0111
1288.00,0.0108
1287.00,0.0105
1286.00,0.0102
1285.00,0.0099
1284.00,0.0097
1283.00,0.0096
1282.00,0.0095
1281.00,0.0095
1280.00,0.0095
1279.00,0.0094
1278.00,0.0094
1277.00,0.0093
1276.00,0.0093
1275.00,0.0093
1274.00,0.0093
1273.00,0.0094
1272.00,0.0094
1271.00,0.0095
1270.00,0.0095
1269.00,0.0097
1268.00,0.0099
1267.00,0.0101
1266.00,0.0104
1265.00,0.0107
1264.00,0.0111
1263.00,0.0115
1262.00,0.0121
1261.00,0.0127
1260.00,0.0135
1259.00,0.0144
1258.00,0.0153
1257.00,0.0160
1256.00,0.0164
1255.00,0.0161
1254.00,0.0154
1253.00,0.0144
1252.00,0.0134
1251.00,0.0126
1250.00,0.0120
1249.00,0.0116
1248.00,0.0112
1247.00,0.0110
1246.00,0.0109
1245.00,0.0108
1244.00,0.0107
1243.00,0.0106
1242.00,0.0106
1241.00,0.0105
1240.00,0.0105
1239.00,0.0105
1238.00,0.0104
1237.00,0.0104
1236.00,0.0104
1235.00,0.0104
1234.00,0.0104
1233.00,0.0103
1232.00,0.0103
1231.00,0.0103
1230.00,0.0103
1229.00,0.0103
1228.00,0.0104
1227.00,0.0105
1226.00,0.0107
1225.00,0.0109
1224.00,0.0112
1223.00,0.0115
1222.00,0.0118
1221.00,0.0120
1220.00,0.0121
1219.00,0.0122
1218.00,0.0121
1217.00,0.0120
1216.00,0.0117
1215.00,0.0115
1214.00,0.0112
1213.00,0.0109
1212.00,0.0106
1211.00,0.0104
1210.00,0.0102
1209.00,0.0100
1208.00,0.0099
1207.00,0.0098
1206.00,0.0097
1205.00,0.0097
1204.00,0.0096
1203.00,0.0095
1202.00,0.0095
1201.00,0.0095
1200.00,0.0096
1199.00,0.0097
1198.00,0.0098
1197.00,0.0098
1196.00,0.0098
1195.00,0.0098
1194.00,0.0098
1193.00,0.0099
1192.00,0.0099
1191.00,0.0100
1190.00,0.0100
1189.00,0.0100
1188.00,0.0101
1187.00,0.0101
1186.00,0.0102
1185.00,0.0103
1184.00,0.0104
1183.00,0.0106
1182.00,0.0108
1181.00,0.0112
1180.00,0.0116
1179.00,0.0123
1178.00,0.0131
1177.00,0.0142
1176.00,0.0156
1175.00,0.0175
1174.00,0.0200
1173.00,0.0232
1172.00,0.0269
1171.00,0.0310
1170.00,0.0350
1169.00,0.0382
1168.00,0.0402
1167.00,0.0407
1166.00,0.0398
1165.00,0.0380
1164.00,0.0356
1163.00,0.0332
1162.00,0.0310
1161.00,0.0292
1160.00,0.0277
1159.00,0.0266
1158.00,0.0257
1157.00,0.0249
1156.00,0.0244
1155.00,0.0239
1154.00,0.0235
1153.00,0.0231
1152.00,0.0225
1151.00,0.0217
1150.00,0.0208
1149.00,0.0198
1148.00,0.0188
1147.00,0.0178
1146.00,0.0170
1145.00,0.0162
1144.00,0.0155
1143.00,0.0148
1142.00,0.0142
1141.00,0.0136
1140.00,0.0131
1139.00,0.0126
1138.00,0.0123
1137.00,0.0121
1136.00,0.0119
1135.00,0.0117
1134.00,0.0115
1133.00,0.0114
1132.00,0.0112
1131.00,0.0112
1130.00,0.0113
1129.00,0.0114
1128.00,0.0116
1127.00,0.0118
1126.00,0.0119
1125.00,0.0119
1124.00,0.0118
1123.00,0.0117
1122.00,0.0117
1121.00,0.0117
1120.00,0.0118
1119.00,0.0119
1118.00,0.0120
1117.00,0.0122
1116.00,0.0124
1115.00,0.0125
1114.00,0.0127
1113.00,0.0128
1112.00,0.0130
1111.00,0.0133
1110.00,0.0137
1109.00,0.0141
1108.00,0.0147
1107.00,0.0153
1106.00,0.0160
1105.00,0.0167
1104.00,0.0172
1103.00,0.0175
1102.00,0.0176
1101.00,0.0173
1100.00,0.0169
1099.00,0.0163
1098.00,0.0156
1097.00,0.0150
1096.00,0.0144
1095.00,0.0139
1094.00,0.0135
1093.00,0.0132
1092.00,0.0129
1091.00,0.0127
1090.00,0.0125
1089.00,0.0124
1088.00,0.0123
1087.00,0.0122
1086.00,0.0121
1085.00,0.0120
1084.00,0.0119
1083.00,0.0119
1082.00,0.0118
1081.00,0.0116
1080.00,0.0115
1079.00,0.0114
1078.00,0.0114
1077.00,0.0113
1076.00,0.0113
1075.00,0.0112
1074.00,0.0112
1073.00,0.0112
1072.00,0.0112
1071.00,0.0112
1070.00,0.0113
1069.00,0.0112
1068.00,0.0112
1067.00,0.0113
1066.00,0.0113
1065.00,0.0114
1064.00,0.0114
1063.00,0.0114
1062.00,0.0113
1061.00,0.0114
1060.00,0.0114
1059.00,0.0115
1058.00,0.0116
1057.00,0.0117
1056.00,0.0119
1055.00,0.0119
1054.00,0.0120
1053.00,0.0121
1052.00,0.0123
1051.00,0.0125
1050.00,0.0128
1049.00,0.0131
1048.00,0.0134
1047.00,0.0137
1046.00,0.0140
1045.00,0.0141
1044.00,0.0141
1043.00,0.0139
1042.00,0.0138
1041.00,0.0135
1040.00,0.0134
1039.00,0.0133
1038.00,0.0133
1037.00,0.0134
1036.00,0.0134
1035.00,0.0133
1034.00,0.0131
1033.00,0.0130
1032.00,0.0128
1031.00,0.0127
1030.00,0.0126
1029.00,0.0124
1028.00,0.0123
1027.00,0.0122
1026.00,0.0121
1025.00,0.0121
1024.00,0.0122
1023.00,0.0123
1022.00,0.0125
1021.00,0.0126
1020.00,0.0127
1019.00,0.0129
1018.00,0.0131
1017.00,0.0132
1016.00,0.0134
1015.00,0.0138
1014.00,0.0142
1013.00,0.0147
1012.00,0.0152
1011.00,0.0157
1010.00,0.0162
1009.00,0.0165
1008.00,0.0170
1007.00,0.0175
1006.00,0.0184
1005.00,0.0198
1004.00,0.0218
1003.00,0.0245
1002.00,0.0281
1001.00,0.0324
1000.00,0.0370
999.00,0.0411
998.00,0.0433
997.00,0.0428
996.00,0.0397
995.00,0.0350
994.00,0.0298
993.00,0.0252
992.00,0.0215
991.00,0.0188
990.00,0.0169
989.00,0.0157
988.00,0.0150
987.00,0.0145
986.00,0.0143
985.00,0.0144
984.00,0.0148
983.00,0.0155
982.00,0.0168
981.00,0.0186
980.00,0.0211
979.00,0.0244
978.00,0.0286
977.00,0.0336
976.00,0.0392
975.00,0.0447
974.00,0.0491
973.00,0.0511
972.00,0.0500
971.00,0.0458
970.00,0.0398
969.00,0.0334
968.00,0.0277
967.00,0.0232
966.00,0.0199
965.00,0.0175
964.00,0.0158
963.00,0.0145
962.00,0.0135
961.00,0.0127
960.00,0.0122
959.00,0.0118
958.00,0.0114
957.00,0.0111
956.00,0.0108
955.00,0.0105
954.00,0.0103
953.00,0.0101
952.00,0.0100
951.00,0.0098
950.00,0.0097
949.00,0.0096
948.00,0.0096
947.00,0.0097
946.00,0.0099
945.00,0.0101
944.00,0.0104
943.00,0.0107
942.00,0.0109
941.00,0.0111
940.00,0.0110
939.00,0.0107
938.00,0.0102
937.00,0.0097
936.00,0.0092
935.00,0.0088
934.00,0.0085
933.00,0.0082
932.00,0.0078
931.00,0.0075
930.00,0.0073
929.00,0.0073
928.00,0.0073
927.00,0.0073
926.00,0.0072
925.00,0.0072
924.00,0.0072
923.00,0.0072
922.00,0.0072
921.00,0.0073
920.00,0.0074
919.00,0.0075
918.00,0.0076
917.00,0.0078
916.00,0.0079
915.00,0.0080
914.00,0.0081
913.00,0.0081
912.00,0.0080
911.00,0.0080
910.00,0.0080
909.00,0.0082
908.00,0.0086
907.00,0.0092
906.00,0.0100
905.00,0.0111
904.00,0.0125
903.00,0.0142
902.00,0.0160
901.00,0.0177
900.00,0.0188
899.00,0.0191
898.00,0.0185
897.00,0.0171
896.00,0.0154
895.00,0.0136
894.00,0.0122
893.00,0.0111
892.00,0.0102
891.00,0.0095
890.00,0.0091
889.00,0.0088
888.00,0.0085
887.00,0.0083
886.00,0.0082
885.00,0.0081
884.00,0.0081
883.00,0.0082
882.00,0.0084
881.00,0.0085
880.00,0.0085
879.00,0.0085
878.00,0.0084
877.00,0.0084
876.00,0.0083
875.00,0.0083
874.00,0.0083
873.00,0.0082
872.00,0.0082
871.00,0.0081
870.00,0.0080
869.00,0.0080
868.00,0.0081
867.00,0.0083
866.00,0.0085
865.00,0.0086
864.00,0.0087
863.00,0.0088
862.00,0.0089
861.00,0.0091
860.00,0.0093
859.00,0.0095
858.00,0.0097
857.00,0.0099
856.00,0.0101
855.00,0.0102
854.00,0.0104
853.00,0.0106
852.00,0.0110
851.00,0.0116
850.00,0.0124
849.00,0.0133
848.00,0.0146
847.00,0.0165
846.00,0.0193
845.00,0.0235
844.00,0.0290
843.00,0.0351
842.00,0.0399
841.00,0.0415
840.00,0.0390
839.00,0.0338
838.00,0.0279
837.00,0.0232
836.00,0.0200
835.00,0.0180
834.00,0.0166
833.00,0.0156
832.00,0.0148
831.00,0.0141
830.00,0.0135
829.00,0.0131
828.00,0.0129
827.00,0.0128
826.00,0.0129
825.00,0.0128
824.00,0.0126
823.00,0.0124
822.00,0.0123
821.00,0.0124
820.00,0.0126
819.00,0.0128
818.00,0.0130
817.00,0.0133
816.00,0.0140
815.00,0.0151
814.00,0.0164
813.00,0.0180
812.00,0.0196
811.00,0.0211
810.00,0.0222
809.00,0.0228
808.00,0.0227
807.00,0.0219
806.00,0.0206
805.00,0.0190
804.00,0.0174
803.00,0.0159
802.00,0.0146
801.00,0.0136
800.00,0.0129
799.00,0.0123
798.00,0.0117
797.00,0.0113
796.00,0.0109
795.00,0.0105
794.00,0.0102
793.00,0.0100
792.00,0.0099
791.00,0.0098
790.00,0.0097
789.00,0.0096
788.00,0.0094
787.00,0.0092
786.00,0.0089
785.00,0.0086
784.00,0.0084
783.00,0.0081
782.00,0.0079
781.00,0.0078
780.00,0.0076
779.00,0.0076
778.00,0.0076
777.00,0.0076
776.00,0.0077
775.00,0.0078
774.00,0.0081
773.00,0.0084
772.00,0.0089
771.00,0.0093
770.00,0.0097
769.00,0.0099
768.00,0.0099
767.00,0.0097
766.00,0.0095
765.00,0.0094
764.00,0.0091
763.00,0.0088
762.00,0.0085
761.00,0.0082
760.00,0.0078
759.00,0.0075
758.00,0.0073
757.00,0.0072
756.00,0.0071
755.00,0.0070
754.00,0.0070
753.00,0.0069
752.00,0.0069
751.00,0.0069
750.00,0.0069
749.00,0.0069
748.00,0.0068
747.00,0.0068
746.00,0.0069
745.00,0.0070
744.00,0.0070
743.00,0.0071
742.00,0.0072
741.00,0.0074
740.00,0.0076
739.00,0.0078
738.00,0.0080
737.00,0.0082
736.00,0.0083
735.00,0.0082
734.00,0.0081
733.00,0.0081
732.00,0.0082
731.00,0.0083
730.00,0.0084
729.00,0.0085
728.00,0.0085
727.00,0.0086
726.00,0.0087
725.00,0.0087
724.00,0.0086
723.00,0.0084
722.00,0.0083
721.00,0.0082
720.00,0.0083
719.00,0.0084
718.00,0.0083
717.00,0.0081
716.00,0.0078
715.00,0.0075
714.00,0.0074
713.00,0.0073
712.00,0.0072
711.00,0.0071
710.00,0.0070
709.00,0.0069
708.00,0.0069
707.00,0.0071
706.00,0.0073
705.00,0.0075
704.00,0.0077
703.00,0.0079
702.00,0.0079
701.00,0.0077
700.00,0.0076
699.00,0.0075
698.00,0.0075
697.00,0.0076
696.00,0.0076
695.00,0.0076
694.00,0.0076
693.00,0.0076
692.00,0.0075
691.00,0.0075
690.00,0.0075
689.00,0.0076
688.00,0.0076
687.00,0.0076
686.00,0.0075
685.00,0.0076
684.00,0.0076
683.00,0.0077
682.00,0.0078
681.00,0.0079
680.00,0.0081
679.00,0.0084
678.00,0.0085
677.00,0.0085
676.00,0.0082
675.00,0.0079
674.00,0.0078
673.00,0.0079
672.00,0.0081
671.00,0.0083
670.00,0.0083
669.00,0.0082
668.00,0.0081
667.00,0.0081
666.00,0.0081
665.00,0.0081
664.00,0.0081
663.00,0.0080
662.00,0.0080
661.00,0.0080
660.00,0.0080
659.00,0.0079
658.00,0.0077
657.00,0.0074
656.00,0.0072
655.00,0.0070
654.00,0.0069
653.00,0.0069
652.00,0.0071
651.00,0.0072
650.00,0.0073
649.00,0.0073
648.00,0.0071
647.00,0.0071
646.00,0.0073
645.00,0.0074
644.00,0.0075
643.00,0.0074
642.00,0.0074
641.00,0.0075
640.00,0.0077
639.00,0.0079
638.00,0.0081
637.00,0.0081
636.00,0.0079
635.00,0.0078
634.00,0.0078
633.00,0.0079
632.00,0.0081
631.00,0.0081
630.00,0.0080
629.00,0.0079
628.00,0.0078
627.00,0.0077
626.00,0.0077
625.00,0.0078
624.00,0.0081
623.00,0.0082
622.00,0.0083
621.00,0.0082
620.00,0.0080
619.00,0.0078
618.00,0.0078
617.00,0.0080
616.00,0.0080
615.00,0.0080
614.00,0.0079
613.00,0.0079
612.00,0.0080
611.00,0.0083
610.00,0.0085
609.00,0.0086
608.00,0.0086
607.00,0.0085
606.00,0.0085
605.00,0.0084
604.00,0.0083
603.00,0.0082
602.00,0.0080
601.00,0.0080
600.00,0.0081
599.00,0.0082
598.00,0.0085
597.00,0.0086
596.00,0.0087
595.00,0.0087
594.00,0.0087
593.00,0.0086
592.00,0.0086
591.00,0.0085
590.00,0.0085
589.00,0.0084
588.00,0.0081
587.00,0.0079
586.00,0.0077
585.00,0.0078
584.00,0.0081
583.00,0.0087
582.00,0.0092
581.00,0.0096
580.00,0.0098
579.00,0.0097
578.00,0.0095
577.00,0.0092
576.00,0.0088
575.00,0.0084
574.00,0.0081
573.00,0.0081
572.00,0.0081
571.00,0.0080
570.00,0.0078
569.00,0.0077
568.00,0.0079
567.00,0.0082
566.00,0.0086
565.00,0.0088
564.00,0.0087
563.00,0.0084
562.00,0.0082
561.00,0.0081
560.00,0.0082
559.00,0.0084
558.00,0.0085
557.00,0.0085
556.00,0.0085
555.00,0.0086
554.00,0.0087
553.00,0.0088
552.00,0.0089
551.00,0.0089
550.00,0.0088
549.00,0.0089
548.00,0.0090
547.00,0.0090
546.00,0.0089
545.00,0.0088
544.00,0.0088
543.00,0.0089
542.00,0.0090
541.00,0.0092
540.00,0.0093
539.00,0.0094
538.00,0.0096
537.00,0.0098
536.00,0.0103
535.00,0.0106
534.00,0.0106
533.00,0.0102
532.00,0.0098
531.00,0.0096
530.00,0.0097
529.00,0.0101
528.00,0.0106
527.00,0.0111
526.00,0.0113
525.00,0.0113
524.00,0.0113
523.00,0.0113
522.00,0.0112
521.00,0.0109
520.00,0.0104
519.00,0.0099
518.00,0.0097
517.00,0.0097
516.00,0.0096
515.00,0.0096
514.00,0.0097
513.00,0.0096
512.00,0.0090
511.00,0.0081
510.00,0.0075
509.00,0.0074
508.00,0.0079
507.00,0.0082
506.00,0.0082
505.00,0.0080
504.00,0.0080
503.00,0.0081
502.00,0.0080
501.00,0.0077
500.00,0.0074
499.00,0.0073
498.00,0.0074
497.00,0.0075
496.00,0.0076
495.00,0.0077
494.00,0.0077
493.00,0.0076
492.00,0.0076
491.00,0.0077
490.00,0.0078
489.00,0.0081
488.00,0.0084
487.00,0.0090
486.00,0.0095
485.00,0.0097
484.00,0.0100
483.00,0.0101
482.00,0.0101
481.00,0.0098
480.00,0.0094
479.00,0.0092
478.00,0.0091
477.00,0.0090
476.00,0.0091
475.00,0.0096
474.00,0.0102
473.00,0.0102
472.00,0.0097
471.00,0.0094
470.00,0.0099
469.00,0.0108
468.00,0.0115
467.00,0.0116
466.00,0.0114
465.00,0.0115
464.00,0.0124
463.00,0.0143
462.00,0.0169
461.00,0.0192
460.00,0.0202
459.00,0.0194
458.00,0.0174
457.00,0.0150
456.00,0.0132
455.00,0.0125
454.00,0.0131
453.00,0.0137
452.00,0.0138
451.00,0.0132
450.00,0.0123
