Created as New Dataset,Sample 064 By Administrator Date Friday, September 05 2025
cm-1,A
4000.00,0.0021
3999.00,0.0021
3998.00,0.0021
3997.00,0.0021
3996.00,0.0021
3995.00,0.0021
3994.00,0.0020
3993.00,0.0020
3992.00,0.0020
3991.00,0.0020
3990.00,0.0020
3989.00,0.0021
3988.00,0.0021
3987.00,0.0021
3986.00,0.0021
3985.00,0.0021
3984.00,0.0021
3983.00,0.0020
3982.00,0.0020
3981.00,0.0019
3980.00,0.0019
3979.00,0.0019
3978.00,0.0019
3977.00,0.0020
3976.00,0.0020
3975.00,0.0019
3974.00,0.0019
3973.00,0.0019
3972.00,0.0019
3971.00,0.0019
3970.00,0.0019
3969.00,0.0019
3968.00,0.0019
3967.00,0.0019
3966.00,0.0019
3965.00,0.0019
3964.00,0.0019
3963.00,0.0019
3962.00,0.0019
3961.00,0.0019
3960.00,0.0019
3959.00,0.0020
3958.00,0.0020
3957.00,0.0019
3956.00,0.0019
3955.00,0.0019
3954.00,0.0019
3953.00,0.0019
3952.00,0.0019
3951.00,0.0019
3950.00,0.0019
3949.00,0.0019
3948.00,0.0019
3947.00,0.0019
3946.00,0.0019
3945.00,0.0019
3944.00,0.0019
3943.00,0.0019
3942.00,0.0019
3941.00,0.0019
3940.00,0.0019
3939.00,0.0019
3938.00,0.0019
3937.00,0.0019
3936.00,0.0019
3935.00,0.0019
3934.00,0.0019
3933.00,0.0019
3932.00,0.0019
3931.00,0.0019
3930.00,0.0019
3929.00,0.0019
3928.00,0.0019
3927.00,0.0019
3926.00,0.0019
3925.00,0.0019
3924.00,0.0019
3923.00,0.0019
3922.00,0.0019
3921.00,0.0019
3920.00,0.0019
3919.00,0.0019
3918.00,0.0019
3917.00,0.0019
3916.00,0.0019
3915.00,0.0018
3914.00,0.0019
3913.00,0.0019
3912.00,0.0019
3911.00,0.0019
3910.00,0.0019
3909.00,0.0019
3908.00,0.0019
3907.00,0.0019
3906.00,0.0018
3905.00,0.0018
3904.00,0.0018
3903.00,0.0018
3902.00,0.0018
3901.00,0.0018
3900.00,0.0017
3899.00,0.0017
3898.00,0.0017
3897.00,0.0018
3896.00,0.0018
3895.00,0.0018
3894.00,0.0019
3893.00,0.0019
3892.00,0.0019
3891.00,0.0019
3890.00,0.0019
3889.00,0.0018
3888.00,0.0018
3887.00,0.0018
3886.00,0.0017
3885.00,0.0017
3884.00,0.0018
3883.00,0.0018
3882.00,0.0018
3881.00,0.0018
3880.00,0.0018
3879.00,0.0018
3878.00,0.0018
3877.00,0.0018
3876.00,0.0018
3875.00,0.0018
3874.00,0.0018
3873.00,0.0019
3872.00,0.0019
3871.00,0.0019
3870.00,0.0019
3869.00,0.0019
3868.00,0.0018
3867.00,0.0018
3866.00,0.0017
3865.00,0.0017
3864.00,0.0016
3863.00,0.0016
3862.00,0.0017
3861.00,0.0017
3860.00,0.0017
3859.00,0.0017
3858.00,0.0018
3857.00,0.0018
3856.00,0.0018
3855.00,0.0018
3854.00,0.0017
3853.00,0.0017
3852.00,0.0017
3851.00,0.0017
3850.00,0.0017
3849.00,0.0017
3848.00,0.0016
3847.00,0.0016
3846.00,0.0016
3845.00,0.0016
3844.00,0.0016
3843.00,0.0017
3842.00,0.0017
3841.00,0.0017
3840.00,0.0017
3839.00,0.0017
3838.00,0.0017
3837.00,0.0017
3836.00,0.0017
3835.00,0.0017
3834.00,0.0017
3833.00,0.0017
3832.00,0.0017
3831.00,0.0017
3830.00,0.0017
3829.00,0.0017
3828.00,0.0017
3827.00,0.0018
3826.00,0.0018
3825.00,0.0018
3824.00,0.0019
3823.00,0.0019
3822.00,0.0018
3821.00,0.0018
3820.00,0.0018
3819.00,0.0018
3818.00,0.0017
3817.00,0.0017
3816.00,0.0017
3815.00,0.0017
3814.00,0.0018
3813.00,0.0018
3812.00,0.0018
3811.00,0.0018
3810.00,0.0018
3809.00,0.0018
3808.00,0.0017
3807.00,0.0017
3806.00,0.0017
3805.00,0.0017
3804.00,0.0018
3803.00,0.0018
3802.00,0.0017
3801.00,0.0017
3800.00,0.0017
3799.00,0.0017
3798.00,0.0018
3797.00,0.0018
3796.00,0.0018
3795.00,0.0018
3794.00,0.0018
3793.00,0.0018
3792.00,0.0018
3791.00,0.0018
3790.00,0.0018
3789.00,0.0018
3788.00,0.0018
3787.00,0.0018
3786.00,0.0018
3785.00,0.0018
3784.00,0.0018
3783.00,0.0018
3782.00,0.0017
3781.00,0.0017
3780.00,0.0017
3779.00,0.0017
3778.00,0.0017
3777.00,0.0017
3776.00,0.0018
3775.00,0.0018
3774.00,0.0018
3773.00,0.0018
3772.00,0.0018
3771.00,0.0018
3770.00,0.0018
3769.00,0.0018
3768.00,0.0017
3767.00,0.0017
3766.00,0.0017
3765.00,0.0018
3764.00,0.0018
3763.00,0.0018
3762.00,0.0018
3761.00,0.0018
3760.00,0.0019
3759.00,0.0019
3758.00,0.0019
3757.00,0.0018
3756.00,0.0018
3755.00,0.0018
3754.00,0.0018
3753.00,0.0018
3752.00,0.0018
3751.00,0.0018
3750.00,0.0018
3749.00,0.0018
3748.00,0.0018
3747.00,0.0017
3746.00,0.0017
3745.00,0.0017
3744.00,0.0017
3743.00,0.0016
3742.00,0.0016
3741.00,0.0016
3740.00,0.0016
3739.00,0.0016
3738.00,0.0017
3737.00,0.0017
3736.00,0.0017
3735.00,0.0017
3734.00,0.0016
3733.00,0.0016
3732.00,0.0016
3731.00,0.0016
3730.00,0.0016
3729.00,0.0016
3728.00,0.0016
3727.00,0.0015
3726.00,0.0014
3725.00,0.0014
3724.00,0.0015
3723.00,0.0015
3722.00,0.0016
3721.00,0.0016
3720.00,0.0017
3719.00,0.0017
3718.00,0.0017
3717.00,0.0017
3716.00,0.0017
3715.00,0.0017
3714.00,0.0016
3713.00,0.0016
3712.00,0.0016
3711.00,0.0015
3710.00,0.0015
3709.00,0.0015
3708.00,0.0015
3707.00,0.0015
3706.00,0.0015
3705.00,0.0015
3704.00,0.0015
3703.00,0.0016
3702.00,0.0017
3701.00,0.0017
3700.00,0.0017
3699.00,0.0017
3698.00,0.0017
3697.00,0.0017
3696.00,0.0017
3695.00,0.0017
3694.00,0.0017
3693.00,0.0017
3692.00,0.0018
3691.00,0.0018
3690.00,0.0018
3689.00,0.0018
3688.00,0.0017
3687.00,0.0017
3686.00,0.0017
3685.00,0.0017
3684.00,0.0018
3683.00,0.0018
3682.00,0.0018
3681.00,0.0018
3680.00,0.0019
3679.00,0.0019
3678.00,0.0019
3677.00,0.0019
3676.00,0.0018
3675.00,0.0018
3674.00,0.0018
3673.00,0.0018
3672.00,0.0018
3671.00,0.0019
3670.00,0.0018
3669.00,0.0018
3668.00,0.0019
3667.00,0.0019
3666.00,0.0019
3665.00,0.0020
3664.00,0.0020
3663.00,0.0020
3662.00,0.0020
3661.00,0.0020
3660.00,0.0020
3659.00,0.0020
3658.00,0.0020
3657.00,0.0021
3656.00,0.0021
3655.00,0.0022
3654.00,0.0022
3653.00,0.0022
3652.00,0.0022
3651.00,0.0022
3650.00,0.0022
3649.00,0.0023
3648.00,0.0023
3647.00,0.0024
3646.00,0.0024
3645.00,0.0024
3644.00,0.0025
3643.00,0.0025
3642.00,0.0026
3641.00,0.0026
3640.00,0.0027
3639.00,0.0027
3638.00,0.0028
3637.00,0.0028
3636.00,0.0028
3635.00,0.0029
3634.00,0.0029
3633.00,0.0030
3632.00,0.0030
3631.00,0.0031
3630.00,0.0032
3629.00,0.0032
3628.00,0.0032
3627.00,0.0032
3626.00,0.0033
3625.00,0.0033
3624.00,0.0033
3623.00,0.0033
3622.00,0.0033
3621.00,0.0034
3620.00,0.0034
3619.00,0.0035
3618.00,0.0036
3617.00,0.0037
3616.00,0.0037
3615.00,0.0038
3614.00,0.0038
3613.00,0.0039
3612.00,0.0039
3611.00,0.0040
3610.00,0.0041
3609.00,0.0041
3608.00,0.0042
3607.00,0.0042
3606.00,0.0042
3605.00,0.0043
3604.00,0.0044
3603.00,0.0044
3602.00,0.0045
3601.00,0.0045
3600.00,0.0045
3599.00,0.0045
3598.00,0.0046
3597.00,0.0046
3596.00,0.0047
3595.00,0.0049
3594.00,0.0050
3593.00,0.0050
3592.00,0.0051
3591.00,0.0051
3590.00,0.0051
3589.00,0.0051
3588.00,0.0052
3587.00,0.0053
3586.00,0.0054
3585.00,0.0055
3584.00,0.0056
3583.00,0.0056
3582.00,0.0057
3581.00,0.0057
3580.00,0.0057
3579.00,0.0058
3578.00,0.0059
3577.00,0.0059
3576.00,0.0059
3575.00,0.0060
3574.00,0.0061
3573.00,0.0061
3572.00,0.0062
3571.00,0.0063
3570.00,0.0063
3569.00,0.0064
3568.00,0.0065
3567.00,0.0066
3566.00,0.0068
3565.00,0.0068
3564.00,0.0069
3563.00,0.0069
3562.00,0.0069
3561.00,0.0069
3560.00,0.0070
3559.00,0.0071
3558.00,0.0071
3557.00,0.0072
3556.00,0.0073
3555.00,0.0074
3554.00,0.0074
3553.00,0.0076
3552.00,0.0077
3551.00,0.0078
3550.00,0.0078
3549.00,0.0079
3548.00,0.0079
3547.00,0.0080
3546.00,0.0081
3545.00,0.0082
3544.00,0.0083
3543.00,0.0083
3542.00,0.0084
3541.00,0.0084
3540.00,0.0085
3539.00,0.0085
3538.00,0.0086
3537.00,0.0087
3536.00,0.0088
3535.00,0.0089
3534.00,0.0089
3533.00,0.0090
3532.00,0.0091
3531.00,0.0092
3530.00,0.0093
3529.00,0.0094
3528.00,0.0095
3527.00,0.0096
3526.00,0.0097
3525.00,0.0098
3524.00,0.0098
3523.00,0.0099
3522.00,0.0099
3521.00,0.0100
3520.00,0.0101
3519.00,0.0103
3518.00,0.0104
3517.00,0.0105
3516.00,0.0106
3515.00,0.0106
3514.00,0.0108
3513.00,0.0109
3512.00,0.0109
3511.00,0.0110
3510.00,0.0111
3509.00,0.0111
3508.00,0.0112
3507.00,0.0113
3506.00,0.0113
3505.00,0.0114
3504.00,0.0115
3503.00,0.0116
3502.00,0.0117
3501.00,0.0118
3500.00,0.0119
3499.00,0.0120
3498.00,0.0121
3497.00,0.0123
3496.00,0.0124
3495.00,0.0125
3494.00,0.0126
3493.00,0.0127
3492.00,0.0128
3491.00,0.0129
3490.00,0.0130
3489.00,0.0130
3488.00,0.0131
3487.00,0.0132
3486.00,0.0133
3485.00,0.0134
3484.00,0.0134
3483.00,0.0135
3482.00,0.0136
3481.00,0.0137
3480.00,0.0137
3479.00,0.0138
3478.00,0.0138
3477.00,0.0139
3476.00,0.0140
3475.00,0.0141
3474.00,0.0142
3473.00,0.0143
3472.00,0.0143
3471.00,0.0144
3470.00,0.0145
3469.00,0.0145
3468.00,0.0146
3467.00,0.0146
3466.00,0.0146
3465.00,0.0147
3464.00,0.0147
3463.00,0.0148
3462.00,0.0148
3461.00,0.0149
3460.00,0.0150
3459.00,0.0150
3458.00,0.0151
3457.00,0.0151
3456.00,0.0151
3455.00,0.0152
3454.00,0.0152
3453.00,0.0153
3452.00,0.0153
3451.00,0.0154
3450.00,0.0154
3449.00,0.0154
3448.00,0.0155
3447.00,0.0155
3446.00,0.0155
3445.00,0.0155
3444.00,0.0155
3443.00,0.0155
3442.00,0.0156
3441.00,0.0156
3440.00,0.0156
3439.00,0.0157
3438.00,0.0157
3437.00,0.0157
3436.00,0.0157
3435.00,0.0157
3434.00,0.0157
3433.00,0.0158
3432.00,0.0158
3431.00,0.0158
3430.00,0.0158
3429.00,0.0158
3428.00,0.0158
3427.00,0.0158
3426.00,0.0158
3425.00,0.0158
3424.00,0.0158
3423.00,0.0158
3422.00,0.0158
3421.00,0.0158
3420.00,0.0158
3419.00,0.0158
3418.00,0.0158
3417.00,0.0158
3416.00,0.0158
3415.00,0.0158
3414.00,0.0158
3413.00,0.0158
3412.00,0.0158
3411.00,0.0158
3410.00,0.0158
3409.00,0.0158
3408.00,0.0159
3407.00,0.0159
3406.00,0.0159
3405.00,0.0160
3404.00,0.0160
3403.00,0.0160
3402.00,0.0161
3401.00,0.0161
3400.00,0.0161
3399.00,0.0161
3398.00,0.0161
3397.00,0.0161
3396.00,0.0161
3395.00,0.0161
3394.00,0.0161
3393.00,0.0160
3392.00,0.0160
3391.00,0.0160
3390.00,0.0160
3389.00,0.0159
3388.00,0.0159
3387.00,0.0158
3386.00,0.0158
3385.00,0.0157
3384.00,0.0157
3383.00,0.0156
3382.00,0.0156
3381.00,0.0156
3380.00,0.0156
3379.00,0.0155
3378.00,0.0155
3377.00,0.0155
3376.00,0.0155
3375.00,0.0155
3374.00,0.0155
3373.00,0.0155
3372.00,0.0154
3371.00,0.0154
3370.00,0.0154
3369.00,0.0154
3368.00,0.0153
3367.00,0.0153
3366.00,0.0153
3365.00,0.0153
3364.00,0.0153
3363.00,0.0153
3362.00,0.0152
3361.00,0.0152
3360.00,0.0151
3359.00,0.0151
3358.00,0.0151
3357.00,0.0151
3356.00,0.0151
3355.00,0.0150
3354.00,0.0150
3353.00,0.0149
3352.00,0.0149
3351.00,0.0148
3350.00,0.0148
3349.00,0.0148
3348.00,0.0147
3347.00,0.0147
3346.00,0.0146
3345.00,0.0146
3344.00,0.0145
3343.00,0.0145
3342.00,0.0145
3341.00,0.0145
3340.00,0.0145
3339.00,0.0145
3338.00,0.0144
3337.00,0.0144
3336.00,0.0143
3335.00,0.0142
3334.00,0.0142
3333.00,0.0141
3332.00,0.0141
3331.00,0.0141
3330.00,0.0141
3329.00,0.0140
3328.00,0.0140
3327.00,0.0140
3326.00,0.0139
3325.00,0.0139
3324.00,0.0139
3323.00,0.0139
3322.00,0.0139
3321.00,0.0139
3320.00,0.0138
3319.00,0.0138
3318.00,0.0137
3317.00,0.0136
3316.00,0.0136
3315.00,0.0136
3314.00,0.0135
3313.00,0.0135
3312.00,0.0134
3311.00,0.0133
3310.00,0.0133
3309.00,0.0133
3308.00,0.0132
3307.00,0.0132
3306.00,0.0132
3305.00,0.0132
3304.00,0.0132
3303.00,0.0132
3302.00,0.0132
3301.00,0.0131
3300.00,0.0131
3299.00,0.0130
3298.00,0.0130
3297.00,0.0130
3296.00,0.0129
3295.00,0.0129
3294.00,0.0129
3293.00,0.0128
3292.00,0.0128
3291.00,0.0127
3290.00,0.0127
3289.00,0.0127
3288.00,0.0127
3287.00,0.0126
3286.00,0.0126
3285.00,0.0126
3284.00,0.0126
3283.00,0.0125
3282.00,0.0125
3281.00,0.0124
3280.00,0.0124
3279.00,0.0123
3278.00,0.0123
3277.00,0.0123
3276.00,0.0123
3275.00,0.0122
3274.00,0.0122
3273.00,0.0122
3272.00,0.0121
3271.00,0.0120
3270.00,0.0120
3269.00,0.0120
3268.00,0.0119
3267.00,0.0119
3266.00,0.0119
3265.00,0.0119
3264.00,0.0118
3263.00,0.0118
3262.00,0.0117
3261.00,0.0117
3260.00,0.0117
3259.00,0.0116
3258.00,0.0116
3257.00,0.0115
3256.00,0.0115
3255.00,0.0115
3254.00,0.0114
3253.00,0.0114
3252.00,0.0113
3251.00,0.0113
3250.00,0.0112
3249.00,0.0112
3248.00,0.0112
3247.00,0.0111
3246.00,0.0111
3245.00,0.0111
3244.00,0.0111
3243.00,0.0111
3242.00,0.0111
3241.00,0.0110
3240.00,0.0110
3239.00,0.0109
3238.00,0.0109
3237.00,0.0109
3236.00,0.0109
3235.00,0.0109
3234.00,0.0108
3233.00,0.0108
3232.00,0.0108
3231.00,0.0108
3230.00,0.0108
3229.00,0.0108
3228.00,0.0107
3227.00,0.0107
3226.00,0.0106
3225.00,0.0106
3224.00,0.0106
3223.00,0.0106
3222.00,0.0106
3221.00,0.0106
3220.00,0.0106
3219.00,0.0106
3218.00,0.0106
3217.00,0.0106
3216.00,0.0106
3215.00,0.0105
3214.00,0.0105
3213.00,0.0105
3212.00,0.0105
3211.00,0.0105
3210.00,0.0105
3209.00,0.0105
3208.00,0.0104
3207.00,0.0104
3206.00,0.0104
3205.00,0.0104
3204.00,0.0104
3203.00,0.0103
3202.00,0.0103
3201.00,0.0103
3200.00,0.0102
3199.00,0.0102
3198.00,0.0102
3197.00,0.0102
3196.00,0.0102
3195.00,0.0101
3194.00,0.0101
3193.00,0.0100
3192.00,0.0099
3191.00,0.0099
3190.00,0.0099
3189.00,0.0099
3188.00,0.0099
3187.00,0.0099
3186.00,0.0098
3185.00,0.0097
3184.00,0.0096
3183.00,0.0096
3182.00,0.0095
3181.00,0.0094
3180.00,0.0094
3179.00,0.0093
3178.00,0.0093
3177.00,0.0093
3176.00,0.0092
3175.00,0.0092
3174.00,0.0091
3173.00,0.0091
3172.00,0.0090
3171.00,0.0089
3170.00,0.0089
3169.00,0.0088
3168.00,0.0088
3167.00,0.0087
3166.00,0.0087
3165.00,0.0087
3164.00,0.0086
3163.00,0.0086
3162.00,0.0085
3161.00,0.0085
3160.00,0.0085
3159.00,0.0084
3158.00,0.0084
3157.00,0.0083
3156.00,0.0082
3155.00,0.0082
3154.00,0.0081
3153.00,0.0081
3152.00,0.0081
3151.00,0.0081
3150.00,0.0080
3149.00,0.0080
3148.00,0.0080
3147.00,0.0080
3146.00,0.0080
3145.00,0.0080
3144.00,0.0079
3143.00,0.0079
3142.00,0.0079
3141.00,0.0078
3140.00,0.0078
3139.00,0.0077
3138.00,0.0077
3137.00,0.0076
3136.00,0.0076
3135.00,0.0075
3134.00,0.0075
3133.00,0.0074
3132.00,0.0073
3131.00,0.0073
3130.00,0.0072
3129.00,0.0072
3128.00,0.0071
3127.00,0.0071
3126.00,0.0071
3125.00,0.0070
3124.00,0.0070
3123.00,0.0069
3122.00,0.0069
3121.00,0.0068
3120.00,0.0068
3119.00,0.0068
3118.00,0.0068
3117.00,0.0067
3116.00,0.0067
3115.00,0.0067
3114.00,0.0066
3113.00,0.0066
3112.00,0.0066
3111.00,0.0065
3110.00,0.0065
3109.00,0.0064
3108.00,0.0064
3107.00,0.0064
3106.00,0.0063
3105.00,0.0063
3104.00,0.0063
3103.00,0.0063
3102.00,0.0063
3101.00,0.0062
3100.00,0.0062
3099.00,0.0062
3098.00,0.0062
3097.00,0.0062
3096.00,0.0062
3095.00,0.0062
3094.00,0.0062
3093.00,0.0061
3092.00,0.0061
3091.00,0.0061
3090.00,0.0060
3089.00,0.0060
3088.00,0.0060
3087.00,0.0060
3086.00,0.0059
3085.00,0.0059
3084.00,0.0059
3083.00,0.0059
3082.00,0.0058
3081.00,0.0058
3080.00,0.0058
3079.00,0.0058
3078.00,0.0058
3077.00,0.0058
3076.00,0.0059
3075.00,0.0059
3074.00,0.0059
3073.00,0.0059
3072.00,0.0059
3071.00,0.0059
3070.00,0.0059
3069.00,0.0059
3068.00,0.0059
3067.00,0.0060
3066.00,0.0060
3065.00,0.0060
3064.00,0.0060
3063.00,0.0060
3062.00,0.0060
3061.00,0.0060
3060.00,0.0059
3059.00,0.0060
3058.00,0.0060
3057.00,0.0060
3056.00,0.0061
3055.00,0.0061
3054.00,0.0061
3053.00,0.0061
3052.00,0.0061
3051.00,0.0061
3050.00,0.0061
3049.00,0.0061
3048.00,0.0062
3047.00,0.0062
3046.00,0.0062
3045.00,0.0062
3044.00,0.0062
3043.00,0.0062
3042.00,0.0062
3041.00,0.0063
3040.00,0.0064
3039.00,0.0064
3038.00,0.0065
3037.00,0.0065
3036.00,0.0065
3035.00,0.0064
3034.00,0.0065
3033.00,0.0065
3032.00,0.0066
3031.00,0.0066
3030.00,0.0067
3029.00,0.0067
3028.00,0.0068
3027.00,0.0069
3026.00,0.0069
3025.00,0.0070
3024.00,0.0071
3023.00,0.0071
3022.00,0.0071
3021.00,0.0072
3020.00,0.0073
3019.00,0.0073
3018.00,0.0074
3017.00,0.0075
3016.00,0.0076
3015.00,0.0077
3014.00,0.0079
3013.00,0.0081
3012.00,0.0083
3011.00,0.0084
3010.00,0.0086
3009.00,0.0087
3008.00,0.0089
3007.00,0.0090
3006.00,0.0092
3005.00,0.0094
3004.00,0.0096
3003.00,0.0099
3002.00,0.0102
3001.00,0.0104
3000.00,0.0108
2999.00,0.0111
2998.00,0.0115
2997.00,0.0119
2996.00,0.0123
2995.00,0.0127
2994.00,0.0132
2993.00,0.0137
2992.00,0.0143
2991.00,0.0149
2990.00,0.0155
2989.00,0.0162
2988.00,0.0170
2987.00,0.0178
2986.00,0.0187
2985.00,0.0197
2984.00,0.0207
2983.00,0.0218
2982.00,0.0231
2981.00,0.0246
2980.00,0.0262
2979.00,0.0281
2978.00,0.0302
2977.00,0.0326
2976.00,0.0353
2975.00,0.0384
2974.00,0.0419
2973.00,0.0458
2972.00,0.0503
2971.00,0.0553
2970.00,0.0608
2969.00,0.0668
2968.00,0.0734
2967.00,0.0803
2966.00,0.0874
2965.00,0.0946
2964.00,0.1014
2963.00,0.1076
2962.00,0.1129
2961.00,0.1171
2960.00,0.1204
2959.00,0.1232
2958.00,0.1260
2957.00,0.1293
2956.00,0.1335
2955.00,0.1388
2954.00,0.1450
2953.00,0.1516
2952.00,0.1577
2951.00,0.1623
2950.00,0.1643
2949.00,0.1631
2948.00,0.1585
2947.00,0.1510
2946.00,0.1416
2945.00,0.1314
2944.00,0.1217
2943.00,0.1133
2942.00,0.1067
2941.00,0.1021
2940.00,0.0994
2939.00,0.0987
2938.00,0.0995
2937.00,0.1019
2936.00,0.1056
2935.00,0.1105
2934.00,0.1166
2933.00,0.1237
2932.00,0.1317
2931.00,0.1404
2930.00,0.1497
2929.00,0.1593
2928.00,0.1690
2927.00,0.1786
2926.00,0.1880
2925.00,0.1971
2924.00,0.2063
2923.00,0.2154
2922.00,0.2245
2921.00,0.2333
2920.00,0.2412
2919.00,0.2473
2918.00,0.2507
2917.00,0.2504
2916.00,0.2465
2915.00,0.2393
2914.00,0.2301
2913.00,0.2198
2912.00,0.2098
2911.00,0.2005
2910.00,0.1922
2909.00,0.1850
2908.00,0.1785
2907.00,0.1725
2906.00,0.1667
2905.00,0.1609
2904.00,0.1552
2903.00,0.1494
2902.00,0.1437
2901.00,0.1382
2900.00,0.1328
2899.00,0.1277
2898.00,0.1229
2897.00,0.1185
2896.00,0.1145
2895.00,0.1110
2894.00,0.1080
2893.00,0.1055
2892.00,0.1037
2891.00,0.1023
2890.00,0.1013
2889.00,0.1007
2888.00,0.1005
2887.00,0.1005
2886.00,0.1007
2885.00,0.1012
2884.00,0.1021
2883.00,0.1033
2882.00,0.1049
2881.00,0.1067
2880.00,0.1085
2879.00,0.1100
2878.00,0.1109
2877.00,0.1110
2876.00,0.1105
2875.00,0.1098
2874.00,0.1092
2873.00,0.1091
2872.00,0.1096
2871.00,0.1107
2870.00,0.1122
2869.00,0.1137
2868.00,0.1146
2867.00,0.1144
2866.00,0.1125
2865.00,0.1086
2864.00,0.1031
2863.00,0.0967
2862.00,0.0902
2861.00,0.0844
2860.00,0.0797
2859.00,0.0764
2858.00,0.0744
2857.00,0.0736
2856.00,0.0738
2855.00,0.0749
2854.00,0.0766
2853.00,0.0787
2852.00,0.0809
2851.00,0.0830
2850.00,0.0845
2849.00,0.0855
2848.00,0.0861
2847.00,0.0868
2846.00,0.0880
2845.00,0.0901
2844.00,0.0932
2843.00,0.0971
2842.00,0.1013
2841.00,0.1054
2840.00,0.1085
2839.00,0.1100
2838.00,0.1095
2837.00,0.1066
2836.00,0.1014
2835.00,0.0942
2834.00,0.0858
2833.00,0.0770
2832.00,0.0686
2831.00,0.0611
2830.00,0.0546
2829.00,0.0493
2828.00,0.0449
2827.00,0.0413
2826.00,0.0383
2825.00,0.0358
2824.00,0.0337
2823.00,0.0319
2822.00,0.0304
2821.00,0.0291
2820.00,0.0279
2819.00,0.0269
2818.00,0.0259
2817.00,0.0251
2816.00,0.0243
2815.00,0.0236
2814.00,0.0230
2813.00,0.0223
2812.00,0.0217
2811.00,0.0211
2810.00,0.0204
2809.00,0.0197
2808.00,0.0190
2807.00,0.0183
2806.00,0.0176
2805.00,0.0169
2804.00,0.0162
2803.00,0.0155
2802.00,0.0149
2801.00,0.0144
2800.00,0.0139
2799.00,0.0135
2798.00,0.0132
2797.00,0.0129
2796.00,0.0126
2795.00,0.0124
2794.00,0.0121
2793.00,0.0119
2792.00,0.0116
2791.00,0.0113
2790.00,0.0109
2789.00,0.0106
2788.00,0.0104
2787.00,0.0101
2786.00,0.0099
2785.00,0.0096
2784.00,0.0094
2783.00,0.0092
2782.00,0.0090
2781.00,0.0088
2780.00,0.0087
2779.00,0.0085
2778.00,0.0084
2777.00,0.0083
2776.00,0.0082
2775.00,0.0081
2774.00,0.0079
2773.00,0.0078
2772.00,0.0077
2771.00,0.0077
2770.00,0.0076
2769.00,0.0076
2768.00,0.0076
2767.00,0.0075
2766.00,0.0074
2765.00,0.0074
2764.00,0.0074
2763.00,0.0074
2762.00,0.0074
2761.00,0.0073
2760.00,0.0073
2759.00,0.0073
2758.00,0.0073
2757.00,0.0073
2756.00,0.0072
2755.00,0.0072
2754.00,0.0072
2753.00,0.0071
2752.00,0.0071
2751.00,0.0071
2750.00,0.0070
2749.00,0.0070
2748.00,0.0070
2747.00,0.0070
2746.00,0.0071
2745.00,0.0071
2744.00,0.0072
2743.00,0.0072
2742.00,0.0073
2741.00,0.0074
2740.00,0.0074
2739.00,0.0075
2738.00,0.0076
2737.00,0.0077
2736.00,0.0078
2735.00,0.0079
2734.00,0.0080
2733.00,0.0081
2732.00,0.0082
2731.00,0.0084
2730.00,0.0086
2729.00,0.0088
2728.00,0.0090
2727.00,0.0092
2726.00,0.0095
2725.00,0.0096
2724.00,0.0097
2723.00,0.0098
2722.00,0.0097
2721.00,0.0096
2720.00,0.0094
2719.00,0.0092
2718.00,0.0089
2717.00,0.0086
2716.00,0.0083
2715.00,0.0081
2714.00,0.0079
2713.00,0.0076
2712.00,0.0074
2711.00,0.0072
2710.00,0.0071
2709.00,0.0069
2708.00,0.0068
2707.00,0.0067
2706.00,0.0066
2705.00,0.0065
2704.00,0.0065
2703.00,0.0064
2702.00,0.0063
2701.00,0.0063
2700.00,0.0062
2699.00,0.0061
2698.00,0.0061
2697.00,0.0060
2696.00,0.0060
2695.00,0.0059
2694.00,0.0059
2693.00,0.0060
2692.00,0.0060
2691.00,0.0060
2690.00,0.0060
2689.00,0.0060
2688.00,0.0060
2687.00,0.0060
2686.00,0.0060
2685.00,0.0060
2684.00,0.0059
2683.00,0.0060
2682.00,0.0060
2681.00,0.0060
2680.00,0.0060
2679.00,0.0060
2678.00,0.0060
2677.00,0.0061
2676.00,0.0061
2675.00,0.0061
2674.00,0.0061
2673.00,0.0060
2672.00,0.0060
2671.00,0.0060
2670.00,0.0060
2669.00,0.0060
2668.00,0.0060
2667.00,0.0060
2666.00,0.0060
2665.00,0.0060
2664.00,0.0061
2663.00,0.0061
2662.00,0.0062
2661.00,0.0062
2660.00,0.0063
2659.00,0.0063
2658.00,0.0063
2657.00,0.0062
2656.00,0.0062
2655.00,0.0062
2654.00,0.0061
2653.00,0.0061
2652.00,0.0061
2651.00,0.0060
2650.00,0.0060
2649.00,0.0059
2648.00,0.0059
2647.00,0.0058
2646.00,0.0058
2645.00,0.0057
2644.00,0.0057
2643.00,0.0056
2642.00,0.0056
2641.00,0.0056
2640.00,0.0055
2639.00,0.0055
2638.00,0.0054
2637.00,0.0054
2636.00,0.0054
2635.00,0.0054
2634.00,0.0054
2633.00,0.0054
2632.00,0.0054
2631.00,0.0054
2630.00,0.0054
2629.00,0.0054
2628.00,0.0054
2627.00,0.0054
2626.00,0.0054
2625.00,0.0054
2624.00,0.0054
2623.00,0.0054
2622.00,0.0054
2621.00,0.0054
2620.00,0.0054
2619.00,0.0054
2618.00,0.0054
2617.00,0.0054
2616.00,0.0054
2615.00,0.0054
2614.00,0.0053
2613.00,0.0053
2612.00,0.0053
2611.00,0.0053
2610.00,0.0052
2609.00,0.0051
2608.00,0.0050
2607.00,0.0049
2606.00,0.0048
2605.00,0.0047
2604.00,0.0047
2603.00,0.0047
2602.00,0.0047
2601.00,0.0047
2600.00,0.0047
2599.00,0.0047
2598.00,0.0047
2597.00,0.0047
2596.00,0.0047
2595.00,0.0047
2594.00,0.0048
2593.00,0.0048
2592.00,0.0048
2591.00,0.0048
2590.00,0.0048
2589.00,0.0048
2588.00,0.0048
2587.00,0.0049
2586.00,0.0050
2585.00,0.0051
2584.00,0.0051
2583.00,0.0051
2582.00,0.0051
2581.00,0.0051
2580.00,0.0051
2579.00,0.0050
2578.00,0.0049
2577.00,0.0048
2576.00,0.0047
2575.00,0.0045
2574.00,0.0044
2573.00,0.0043
2572.00,0.0042
2571.00,0.0042
2570.00,0.0041
2569.00,0.0041
2568.00,0.0040
2567.00,0.0039
2566.00,0.0038
2565.00,0.0038
2564.00,0.0037
2563.00,0.0037
2562.00,0.0037
2561.00,0.0037
2560.00,0.0037
2559.00,0.0037
2558.00,0.0038
2557.00,0.0038
2556.00,0.0037
2555.00,0.0036
2554.00,0.0035
2553.00,0.0034
2552.00,0.0033
2551.00,0.0033
2550.00,0.0032
2549.00,0.0032
2548.00,0.0032
2547.00,0.0032
2546.00,0.0033
2545.00,0.0033
2544.00,0.0033
2543.00,0.0033
2542.00,0.0033
2541.00,0.0033
2540.00,0.0032
2539.00,0.0031
2538.00,0.0030
2537.00,0.0029
2536.00,0.0029
2535.00,0.0030
2534.00,0.0030
2533.00,0.0030
2532.00,0.0029
2531.00,0.0028
2530.00,0.0028
2529.00,0.0028
2528.00,0.0028
2527.00,0.0028
2526.00,0.0028
2525.00,0.0028
2524.00,0.0028
2523.00,0.0028
2522.00,0.0029
2521.00,0.0029
2520.00,0.0029
2519.00,0.0028
2518.00,0.0028
2517.00,0.0027
2516.00,0.0027
2515.00,0.0026
2514.00,0.0026
2513.00,0.0026
2512.00,0.0026
2511.00,0.0026
2510.00,0.0026
2509.00,0.0026
2508.00,0.0025
2507.00,0.0025
2506.00,0.0025
2505.00,0.0025
2504.00,0.0026
2503.00,0.0026
2502.00,0.0026
2501.00,0.0026
2500.00,0.0026
2499.00,0.0026
2498.00,0.0025
2497.00,0.0025
2496.00,0.0025
2495.00,0.0025
2494.00,0.0025
2493.00,0.0025
2492.00,0.0025
2491.00,0.0025
2490.00,0.0025
2489.00,0.0024
2488.00,0.0024
2487.00,0.0023
2486.00,0.0024
2485.00,0.0024
2484.00,0.0024
2483.00,0.0024
2482.00,0.0024
2481.00,0.0024
2480.00,0.0023
2479.00,0.0023
2478.00,0.0023
2477.00,0.0023
2476.00,0.0023
2475.00,0.0022
2474.00,0.0022
2473.00,0.0023
2472.00,0.0023
2471.00,0.0023
2470.00,0.0023
2469.00,0.0022
2468.00,0.0021
2467.00,0.0021
2466.00,0.0021
2465.00,0.0021
2464.00,0.0022
2463.00,0.0022
2462.00,0.0022
2461.00,0.0022
2460.00,0.0022
2459.00,0.0023
2458.00,0.0023
2457.00,0.0024
2456.00,0.0025
2455.00,0.0026
2454.00,0.0026
2453.00,0.0026
2452.00,0.0025
2451.00,0.0025
2450.00,0.0025
2449.00,0.0024
2448.00,0.0024
2447.00,0.0024
2446.00,0.0023
2445.00,0.0023
2444.00,0.0023
2443.00,0.0022
2442.00,0.0022
2441.00,0.0023
2440.00,0.0023
2439.00,0.0023
2438.00,0.0023
2437.00,0.0023
2436.00,0.0023
2435.00,0.0023
2434.00,0.0024
2433.00,0.0024
2432.00,0.0024
2431.00,0.0024
2430.00,0.0024
2429.00,0.0024
2428.00,0.0024
2427.00,0.0024
2426.00,0.0025
2425.00,0.0025
2424.00,0.0025
2423.00,0.0024
2422.00,0.0024
2421.00,0.0024
2420.00,0.0024
2419.00,0.0023
2418.00,0.0023
2417.00,0.0023
2416.00,0.0023
2415.00,0.0023
2414.00,0.0023
2413.00,0.0023
2412.00,0.0023
2411.00,0.0023
2410.00,0.0023
2409.00,0.0022
2408.00,0.0022
2407.00,0.0021
2406.00,0.0021
2405.00,0.0021
2404.00,0.0022
2403.00,0.0022
2402.00,0.0022
2401.00,0.0022
2400.00,0.0021
2399.00,0.0021
2398.00,0.0021
2397.00,0.0021
2396.00,0.0021
2395.00,0.0021
2394.00,0.0020
2393.00,0.0019
2392.00,0.0019
2391.00,0.0018
2390.00,0.0018
2389.00,0.0019
2388.00,0.0020
2387.00,0.0020
2386.00,0.0021
2385.00,0.0021
2384.00,0.0020
2383.00,0.0019
2382.00,0.0018
2381.00,0.0016
2380.00,0.0015
2379.00,0.0014
2378.00,0.0014
2377.00,0.0014
2376.00,0.0014
2375.00,0.0014
2374.00,0.0014
2373.00,0.0014
2372.00,0.0014
2371.00,0.0014
2370.00,0.0013
2369.00,0.0012
2368.00,0.0011
2367.00,0.0010
2366.00,0.0010
2365.00,0.0010
2364.00,0.0010
2363.00,0.0011
2362.00,0.0012
2361.00,0.0012
2360.00,0.0013
2359.00,0.0013
2358.00,0.0013
2357.00,0.0013
2356.00,0.0012
2355.00,0.0012
2354.00,0.0012
2353.00,0.0013
2352.00,0.0013
2351.00,0.0013
2350.00,0.0013
2349.00,0.0013
2348.00,0.0014
2347.00,0.0014
2346.00,0.0014
2345.00,0.0014
2344.00,0.0014
2343.00,0.0014
2342.00,0.0014
2341.00,0.0015
2340.00,0.0015
2339.00,0.0015
2338.00,0.0016
2337.00,0.0017
2336.00,0.0017
2335.00,0.0017
2334.00,0.0016
2333.00,0.0016
2332.00,0.0016
2331.00,0.0016
2330.00,0.0017
2329.00,0.0018
2328.00,0.0020
2327.00,0.0023
2326.00,0.0027
2325.00,0.0030
2324.00,0.0030
2323.00,0.0029
2322.00,0.0027
2321.00,0.0026
2320.00,0.0025
2319.00,0.0024
2318.00,0.0023
2317.00,0.0022
2316.00,0.0021
2315.00,0.0020
2314.00,0.0020
2313.00,0.0020
2312.00,0.0021
2311.00,0.0022
2310.00,0.0022
2309.00,0.0021
2308.00,0.0021
2307.00,0.0021
2306.00,0.0021
2305.00,0.0021
2304.00,0.0021
2303.00,0.0021
2302.00,0.0021
2301.00,0.0021
2300.00,0.0022
2299.00,0.0022
2298.00,0.0022
2297.00,0.0023
2296.00,0.0023
2295.00,0.0023
2294.00,0.0024
2293.00,0.0025
2292.00,0.0026
2291.00,0.0027
2290.00,0.0029
2289.00,0.0030
2288.00,0.0032
2287.00,0.0033
2286.00,0.0034
2285.00,0.0033
2284.00,0.0032
2283.00,0.0030
2282.00,0.0028
2281.00,0.0027
2280.00,0.0025
2279.00,0.0024
2278.00,0.0023
2277.00,0.0023
2276.00,0.0023
2275.00,0.0023
2274.00,0.0023
2273.00,0.0023
2272.00,0.0022
2271.00,0.0022
2270.00,0.0021
2269.00,0.0021
2268.00,0.0021
2267.00,0.0022
2266.00,0.0022
2265.00,0.0022
2264.00,0.0022
2263.00,0.0023
2262.00,0.0023
2261.00,0.0023
2260.00,0.0023
2259.00,0.0023
2258.00,0.0022
2257.00,0.0021
2256.00,0.0020
2255.00,0.0020
2254.00,0.0020
2253.00,0.0021
2252.00,0.0021
2251.00,0.0021
2250.00,0.0019
2249.00,0.0018
2248.00,0.0017
2247.00,0.0018
2246.00,0.0018
2245.00,0.0020
2244.00,0.0021
2243.00,0.0022
2242.00,0.0022
2241.00,0.0022
2240.00,0.0022
2239.00,0.0021
2238.00,0.0020
2237.00,0.0020
2236.00,0.0021
2235.00,0.0020
2234.00,0.0019
2233.00,0.0018
2232.00,0.0018
2231.00,0.0018
2230.00,0.0018
2229.00,0.0017
2228.00,0.0016
2227.00,0.0016
2226.00,0.0017
2225.00,0.0017
2224.00,0.0017
2223.00,0.0019
2222.00,0.0020
2221.00,0.0021
2220.00,0.0021
2219.00,0.0020
2218.00,0.0019
2217.00,0.0019
2216.00,0.0019
2215.00,0.0018
2214.00,0.0017
2213.00,0.0015
2212.00,0.0015
2211.00,0.0014
2210.00,0.0014
2209.00,0.0014
2208.00,0.0013
2207.00,0.0013
2206.00,0.0012
2205.00,0.0011
2204.00,0.0012
2203.00,0.0014
2202.00,0.0017
2201.00,0.0019
2200.00,0.0018
2199.00,0.0016
2198.00,0.0013
2197.00,0.0010
2196.00,0.0011
2195.00,0.0013
2194.00,0.0015
2193.00,0.0016
2192.00,0.0016
2191.00,0.0017
2190.00,0.0018
2189.00,0.0018
2188.00,0.0017
2187.00,0.0016
2186.00,0.0015
2185.00,0.0016
2184.00,0.0017
2183.00,0.0016
2182.00,0.0013
2181.00,0.0009
2180.00,0.0007
2179.00,0.0007
2178.00,0.0008
2177.00,0.0010
2176.00,0.0009
2175.00,0.0007
2174.00,0.0006
2173.00,0.0007
2172.00,0.0010
2171.00,0.0014
2170.00,0.0018
2169.00,0.0021
2168.00,0.0023
2167.00,0.0021
2166.00,0.0018
2165.00,0.0015
2164.00,0.0015
2163.00,0.0016
2162.00,0.0017
2161.00,0.0013
2160.00,0.0003
2159.00,-0.0011
2158.00,-0.0022
2157.00,-0.0025
2156.00,-0.0023
2155.00,-0.0019
2154.00,-0.0014
2153.00,-0.0009
2152.00,-0.0005
2151.00,-0.0003
2150.00,-0.0003
2149.00,-0.0005
2148.00,-0.0007
2147.00,-0.0008
2146.00,-0.0008
2145.00,-0.0007
2144.00,-0.0006
2143.00,-0.0006
2142.00,-0.0005
2141.00,-0.0004
2140.00,-0.0003
2139.00,-0.0002
2138.00,-0.0002
2137.00,-0.0002
2136.00,-0.0003
2135.00,-0.0005
2134.00,-0.0007
2133.00,-0.0008
2132.00,-0.0007
2131.00,-0.0006
2130.00,-0.0005
2129.00,-0.0003
2128.00,-0.0000
2127.00,0.0002
2126.00,0.0005
2125.00,0.0007
2124.00,0.0008
2123.00,0.0008
2122.00,0.0008
2121.00,0.0008
2120.00,0.0008
2119.00,0.0008
2118.00,0.0010
2117.00,0.0012
2116.00,0.0013
2115.00,0.0014
2114.00,0.0012
2113.00,0.0011
2112.00,0.0012
2111.00,0.0013
2110.00,0.0014
2109.00,0.0015
2108.00,0.0015
2107.00,0.0014
2106.00,0.0013
2105.00,0.0012
2104.00,0.0012
2103.00,0.0012
2102.00,0.0012
2101.00,0.0013
2100.00,0.0013
2099.00,0.0012
2098.00,0.0012
2097.00,0.0011
2096.00,0.0010
2095.00,0.0008
2094.00,0.0007
2093.00,0.0006
2092.00,0.0006
2091.00,0.0006
2090.00,0.0007
2089.00,0.0008
2088.00,0.0009
2087.00,0.0009
2086.00,0.0009
2085.00,0.0010
2084.00,0.0011
2083.00,0.0012
2082.00,0.0012
2081.00,0.0012
2080.00,0.0012
2079.00,0.0013
2078.00,0.0013
2077.00,0.0013
2076.00,0.0013
2075.00,0.0013
2074.00,0.0013
2073.00,0.0012
2072.00,0.0012
2071.00,0.0010
2070.00,0.0009
2069.00,0.0008
2068.00,0.0008
2067.00,0.0009
2066.00,0.0010
2065.00,0.0012
2064.00,0.0013
2063.00,0.0014
2062.00,0.0013
2061.00,0.0011
2060.00,0.0009
2059.00,0.0008
2058.00,0.0008
2057.00,0.0009
2056.00,0.0011
2055.00,0.0013
2054.00,0.0015
2053.00,0.0019
2052.00,0.0024
2051.00,0.0027
2050.00,0.0026
2049.00,0.0020
2048.00,0.0014
2047.00,0.0009
2046.00,0.0006
2045.00,0.0006
2044.00,0.0007
2043.00,0.0007
2042.00,0.0006
2041.00,0.0004
2040.00,0.0003
2039.00,0.0002
2038.00,0.0004
2037.00,0.0006
2036.00,0.0008
2035.00,0.0009
2034.00,0.0009
2033.00,0.0008
2032.00,0.0006
2031.00,0.0004
2030.00,0.0002
2029.00,0.0001
2028.00,-0.0000
2027.00,0.0000
2026.00,0.0000
2025.00,-0.0000
2024.00,-0.0003
2023.00,-0.0005
2022.00,-0.0006
2021.00,-0.0003
2020.00,-0.0001
2019.00,0.0000
2018.00,-0.0001
2017.00,-0.0003
2016.00,-0.0004
2015.00,-0.0004
2014.00,-0.0005
2013.00,-0.0006
2012.00,-0.0006
2011.00,-0.0005
2010.00,-0.0003
2009.00,-0.0002
2008.00,-0.0003
2007.00,-0.0005
2006.00,-0.0007
2005.00,-0.0007
2004.00,-0.0006
2003.00,-0.0006
2002.00,-0.0005
2001.00,-0.0005
2000.00,-0.0006
1999.00,-0.0007
1998.00,-0.0007
1997.00,-0.0006
1996.00,-0.0005
1995.00,-0.0004
1994.00,-0.0003
1993.00,0.0000
1992.00,0.0004
1991.00,0.0005
1990.00,0.0005
1989.00,0.0005
1988.00,0.0006
1987.00,0.0007
1986.00,0.0009
1985.00,0.0013
1984.00,0.0016
1983.00,0.0019
1982.00,0.0020
1981.00,0.0019
1980.00,0.0016
1979.00,0.0010
1978.00,0.0004
1977.00,-0.0000
1976.00,-0.0001
1975.00,-0.0000
1974.00,0.0000
1973.00,-0.0000
1972.00,-0.0001
1971.00,-0.0003
1970.00,-0.0006
1969.00,-0.0008
1968.00,-0.0009
1967.00,-0.0009
1966.00,-0.0007
1965.00,-0.0005
1964.00,-0.0004
1963.00,-0.0005
1962.00,-0.0008
1961.00,-0.0010
1960.00,-0.0010
1959.00,-0.0007
1958.00,-0.0003
1957.00,0.0000
1956.00,0.0001
1955.00,-0.0001
1954.00,-0.0003
1953.00,-0.0004
1952.00,-0.0004
1951.00,-0.0004
1950.00,-0.0005
1949.00,-0.0005
1948.00,-0.0006
1947.00,-0.0006
1946.00,-0.0006
1945.00,-0.0005
1944.00,-0.0002
1943.00,-0.0000
1942.00,0.0000
1941.00,0.0000
1940.00,0.0000
1939.00,0.0000
1938.00,0.0000
1937.00,0.0000
1936.00,0.0000
1935.00,-0.0000
1934.00,-0.0001
1933.00,-0.0001
1932.00,-0.0001
1931.00,-0.0002
1930.00,-0.0001
1929.00,-0.0000
1928.00,0.0001
1927.00,0.0002
1926.00,0.0002
1925.00,0.0003
1924.00,0.0004
1923.00,0.0005
1922.00,0.0005
1921.00,0.0005
1920.00,0.0005
1919.00,0.0004
1918.00,0.0003
1917.00,0.0003
1916.00,0.0004
1915.00,0.0006
1914.00,0.0006
1913.00,0.0006
1912.00,0.0005
1911.00,0.0003
1910.00,0.0002
1909.00,0.0003
1908.00,0.0005
1907.00,0.0006
1906.00,0.0007
1905.00,0.0007
1904.00,0.0008
1903.00,0.0008
1902.00,0.0008
1901.00,0.0008
1900.00,0.0007
1899.00,0.0007
1898.00,0.0006
1897.00,0.0007
1896.00,0.0008
1895.00,0.0008
1894.00,0.0009
1893.00,0.0009
1892.00,0.0008
1891.00,0.0007
1890.00,0.0007
1889.00,0.0007
1888.00,0.0007
1887.00,0.0007
1886.00,0.0006
1885.00,0.0006
1884.00,0.0007
1883.00,0.0008
1882.00,0.0009
1881.00,0.0010
1880.00,0.0011
1879.00,0.0011
1878.00,0.0011
1877.00,0.0010
1876.00,0.0010
1875.00,0.0010
1874.00,0.0010
1873.00,0.0009
1872.00,0.0009
1871.00,0.0009
1870.00,0.0009
1869.00,0.0009
1868.00,0.0009
1867.00,0.0010
1866.00,0.0010
1865.00,0.0010
1864.00,0.0010
1863.00,0.0009
1862.00,0.0009
1861.00,0.0009
1860.00,0.0009
1859.00,0.0009
1858.00,0.0009
1857.00,0.0008
1856.00,0.0008
1855.00,0.0009
1854.00,0.0009
1853.00,0.0010
1852.00,0.0011
1851.00,0.0012
1850.00,0.0012
1849.00,0.0012
1848.00,0.0012
1847.00,0.0011
1846.00,0.0010
1845.00,0.0009
1844.00,0.0009
1843.00,0.0009
1842.00,0.0009
1841.00,0.0010
1840.00,0.0011
1839.00,0.0011
1838.00,0.0012
1837.00,0.0013
1836.00,0.0014
1835.00,0.0014
1834.00,0.0015
1833.00,0.0015
1832.00,0.0015
1831.00,0.0015
1830.00,0.0015
1829.00,0.0015
1828.00,0.0016
1827.00,0.0016
1826.00,0.0015
1825.00,0.0014
1824.00,0.0014
1823.00,0.0014
1822.00,0.0013
1821.00,0.0013
1820.00,0.0012
1819.00,0.0011
1818.00,0.0010
1817.00,0.0009
1816.00,0.0010
1815.00,0.0011
1814.00,0.0012
1813.00,0.0013
1812.00,0.0013
1811.00,0.0013
1810.00,0.0013
1809.00,0.0013
1808.00,0.0014
1807.00,0.0014
1806.00,0.0015
1805.00,0.0015
1804.00,0.0016
1803.00,0.0017
1802.00,0.0017
1801.00,0.0017
1800.00,0.0017
1799.00,0.0017
1798.00,0.0017
1797.00,0.0017
1796.00,0.0017
1795.00,0.0017
1794.00,0.0017
1793.00,0.0018
1792.00,0.0018
1791.00,0.0019
1790.00,0.0019
1789.00,0.0018
1788.00,0.0018
1787.00,0.0019
1786.00,0.0020
1785.00,0.0020
1784.00,0.0020
1783.00,0.0020
1782.00,0.0020
1781.00,0.0020
1780.00,0.0021
1779.00,0.0021
1778.00,0.0020
1777.00,0.0020
1776.00,0.0019
1775.00,0.0019
1774.00,0.0020
1773.00,0.0020
1772.00,0.0021
1771.00,0.0022
1770.00,0.0022
1769.00,0.0023
1768.00,0.0023
1767.00,0.0023
1766.00,0.0023
1765.00,0.0024
1764.00,0.0024
1763.00,0.0024
1762.00,0.0024
1761.00,0.0025
1760.00,0.0025
1759.00,0.0026
1758.00,0.0026
1757.00,0.0027
1756.00,0.0027
1755.00,0.0028
1754.00,0.0029
1753.00,0.0029
1752.00,0.0030
1751.00,0.0031
1750.00,0.0032
1749.00,0.0032
1748.00,0.0033
1747.00,0.0033
1746.00,0.0034
1745.00,0.0034
1744.00,0.0036
1743.00,0.0037
1742.00,0.0038
1741.00,0.0038
1740.00,0.0038
1739.00,0.0038
1738.00,0.0038
1737.00,0.0038
1736.00,0.0038
1735.00,0.0038
1734.00,0.0038
1733.00,0.0038
1732.00,0.0038
1731.00,0.0038
1730.00,0.0037
1729.00,0.0037
1728.00,0.0037
1727.00,0.0038
1726.00,0.0038
1725.00,0.0039
1724.00,0.0039
1723.00,0.0039
1722.00,0.0039
1721.00,0.0039
1720.00,0.0039
1719.00,0.0039
1718.00,0.0039
1717.00,0.0039
1716.00,0.0039
1715.00,0.0040
1714.00,0.0040
1713.00,0.0041
1712.00,0.0041
1711.00,0.0042
1710.00,0.0043
1709.00,0.0044
1708.00,0.0045
1707.00,0.0046
1706.00,0.0047
1705.00,0.0049
1704.00,0.0050
1703.00,0.0051
1702.00,0.0052
1701.00,0.0054
1700.00,0.0057
1699.00,0.0059
1698.00,0.0060
1697.00,0.0062
1696.00,0.0064
1695.00,0.0067
1694.00,0.0069
1693.00,0.0070
1692.00,0.0072
1691.00,0.0073
1690.00,0.0075
1689.00,0.0076
1688.00,0.0078
1687.00,0.0079
1686.00,0.0079
1685.00,0.0080
1684.00,0.0080
1683.00,0.0081
1682.00,0.0081
1681.00,0.0082
1680.00,0.0083
1679.00,0.0083
1678.00,0.0084
1677.00,0.0085
1676.00,0.0086
1675.00,0.0087
1674.00,0.0088
1673.00,0.0088
1672.00,0.0089
1671.00,0.0089
1670.00,0.0089
1669.00,0.0090
1668.00,0.0091
1667.00,0.0091
1666.00,0.0091
1665.00,0.0092
1664.00,0.0093
1663.00,0.0094
1662.00,0.0094
1661.00,0.0095
1660.00,0.0095
1659.00,0.0095
1658.00,0.0096
1657.00,0.0096
1656.00,0.0097
1655.00,0.0098
1654.00,0.0100
1653.00,0.0103
1652.00,0.0105
1651.00,0.0106
1650.00,0.0106
1649.00,0.0107
1648.00,0.0109
1647.00,0.0111
1646.00,0.0112
1645.00,0.0112
1644.00,0.0111
1643.00,0.0110
1642.00,0.0109
1641.00,0.0108
1640.00,0.0108
1639.00,0.0107
1638.00,0.0107
1637.00,0.0106
1636.00,0.0106
1635.00,0.0106
1634.00,0.0107
1633.00,0.0106
1632.00,0.0106
1631.00,0.0106
1630.00,0.0105
1629.00,0.0105
1628.00,0.0104
1627.00,0.0103
1626.00,0.0102
1625.00,0.0100
1624.00,0.0099
1623.00,0.0098
1622.00,0.0098
1621.00,0.0097
1620.00,0.0097
1619.00,0.0096
1618.00,0.0095
1617.00,0.0093
1616.00,0.0092
1615.00,0.0092
1614.00,0.0091
1613.00,0.0091
1612.00,0.0091
1611.00,0.0090
1610.00,0.0090
1609.00,0.0090
1608.00,0.0090
1607.00,0.0090
1606.00,0.0090
1605.00,0.0090
1604.00,0.0089
1603.00,0.0089
1602.00,0.0088
1601.00,0.0088
1600.00,0.0088
1599.00,0.0088
1598.00,0.0088
1597.00,0.0088
1596.00,0.0088
1595.00,0.0088
1594.00,0.0088
1593.00,0.0089
1592.00,0.0090
1591.00,0.0091
1590.00,0.0092
1589.00,0.0094
1588.00,0.0096
1587.00,0.0098
1586.00,0.0101
1585.00,0.0105
1584.00,0.0109
1583.00,0.0114
1582.00,0.0119
1581.00,0.0124
1580.00,0.0128
1579.00,0.0131
1578.00,0.0133
1577.00,0.0133
1576.00,0.0131
1575.00,0.0129
1574.00,0.0126
1573.00,0.0124
1572.00,0.0120
1571.00,0.0116
1570.00,0.0111
1569.00,0.0107
1568.00,0.0104
1567.00,0.0102
1566.00,0.0100
1565.00,0.0099
1564.00,0.0098
1563.00,0.0098
1562.00,0.0098
1561.00,0.0098
1560.00,0.0097
1559.00,0.0097
1558.00,0.0099
1557.00,0.0101
1556.00,0.0102
1555.00,0.0104
1554.00,0.0105
1553.00,0.0107
1552.00,0.0109
1551.00,0.0112
1550.00,0.0116
1549.00,0.0120
1548.00,0.0124
1547.00,0.0128
1546.00,0.0133
1545.00,0.0139
1544.00,0.0146
1543.00,0.0152
1542.00,0.0155
1541.00,0.0157
1540.00,0.0154
1539.00,0.0148
1538.00,0.0142
1537.00,0.0138
1536.00,0.0133
1535.00,0.0128
1534.00,0.0120
1533.00,0.0113
1532.00,0.0108
1531.00,0.0104
1530.00,0.0101
1529.00,0.0099
1528.00,0.0098
1527.00,0.0095
1526.00,0.0093
1525.00,0.0091
1524.00,0.0090
1523.00,0.0089
1522.00,0.0088
1521.00,0.0088
1520.00,0.0089
1519.00,0.0089
1518.00,0.0089
1517.00,0.0090
1516.00,0.0090
1515.00,0.0090
1514.00,0.0090
1513.00,0.0091
1512.00,0.0092
1511.00,0.0093
1510.00,0.0093
1509.00,0.0094
1508.00,0.0096
1507.00,0.0096
1506.00,0.0096
1505.00,0.0097
1504.00,0.0099
1503.00,0.0100
1502.00,0.0102
1501.00,0.0105
1500.00,0.0108
1499.00,0.0111
1498.00,0.0113
1497.00,0.0117
1496.00,0.0122
1495.00,0.0125
1494.00,0.0128
1493.00,0.0132
1492.00,0.0137
1491.00,0.0142
1490.00,0.0148
1489.00,0.0156
1488.00,0.0164
1487.00,0.0172
1486.00,0.0180
1485.00,0.0189
1484.00,0.0200
1483.00,0.0212
1482.00,0.0226
1481.00,0.0243
1480.00,0.0261
1479.00,0.0277
1478.00,0.0295
1477.00,0.0317
1476.00,0.0343
1475.00,0.0372
1474.00,0.0409
1473.00,0.0462
1472.00,0.0522
1471.00,0.0578
1470.00,0.0630
1469.00,0.0685
1468.00,0.0744
1467.00,0.0809
1466.00,0.0884
1465.00,0.0966
1464.00,0.1038
1463.00,0.1086
1462.00,0.1116
1461.00,0.1136
1460.00,0.1149
1459.00,0.1156
1458.00,0.1162
1457.00,0.1166
1456.00,0.1164
1455.00,0.1157
1454.00,0.1146
1453.00,0.1129
1452.00,0.1104
1451.00,0.1070
1450.00,0.1025
1449.00,0.0965
1448.00,0.0888
1447.00,0.0807
1446.00,0.0734
1445.00,0.0672
1444.00,0.0617
1443.00,0.0572
1442.00,0.0537
1441.00,0.0512
1440.00,0.0498
1439.00,0.0491
1438.00,0.0492
1437.00,0.0493
1436.00,0.0486
1435.00,0.0464
1434.00,0.0432
1433.00,0.0394
1432.00,0.0354
1431.00,0.0319
1430.00,0.0291
1429.00,0.0270
1428.00,0.0257
1427.00,0.0248
1426.00,0.0244
1425.00,0.0239
1424.00,0.0235
1423.00,0.0233
1422.00,0.0231
1421.00,0.0229
1420.00,0.0227
1419.00,0.0226
1418.00,0.0225
1417.00,0.0222
1416.00,0.0218
1415.00,0.0215
1414.00,0.0213
1413.00,0.0210
1412.00,0.0207
1411.00,0.0205
1410.00,0.0203
1409.00,0.0201
1408.00,0.0199
1407.00,0.0197
1406.00,0.0195
1405.00,0.0193
1404.00,0.0191
1403.00,0.0190
1402.00,0.0190
1401.00,0.0190
1400.00,0.0189
1399.00,0.0190
1398.00,0.0192
1397.00,0.0193
1396.00,0.0195
1395.00,0.0198
1394.00,0.0202
1393.00,0.0205
1392.00,0.0209
1391.00,0.0215
1390.00,0.0225
1389.00,0.0238
1388.00,0.0257
1387.00,0.0286
1386.00,0.0325
1385.00,0.0374
1384.00,0.0443
1383.00,0.0538
1382.00,0.0667
1381.00,0.0833
1380.00,0.1040
1379.00,0.1278
1378.00,0.1512
1377.00,0.1691
1376.00,0.1763
1375.00,0.1695
1374.00,0.1506
1373.00,0.1268
1372.00,0.1046
1371.00,0.0860
1370.00,0.0710
1369.00,0.0595
1368.00,0.0515
1367.00,0.0464
1366.00,0.0435
1365.00,0.0422
1364.00,0.0421
1363.00,0.0430
1362.00,0.0446
1361.00,0.0464
1360.00,0.0477
1359.00,0.0479
1358.00,0.0469
1357.00,0.0446
1356.00,0.0415
1355.00,0.0379
1354.00,0.0344
1353.00,0.0315
1352.00,0.0291
1351.00,0.0273
1350.00,0.0258
1349.00,0.0246
1348.00,0.0236
1347.00,0.0227
1346.00,0.0219
1345.00,0.0213
1344.00,0.0209
1343.00,0.0205
1342.00,0.0202
1341.00,0.0200
1340.00,0.0199
1339.00,0.0199
1338.00,0.0198
1337.00,0.0198
1336.00,0.0198
1335.00,0.0199
1334.00,0.0201
1333.00,0.0205
1332.00,0.0208
1331.00,0.0211
1330.00,0.0212
1329.00,0.0210
1328.00,0.0207
1327.00,0.0203
1326.00,0.0199
1325.00,0.0195
1324.00,0.0191
1323.00,0.0188
1322.00,0.0185
1321.00,0.0184
1320.00,0.0183
1319.00,0.0182
1318.00,0.0181
1317.00,0.0180
1316.00,0.0179
1315.00,0.0179
1314.00,0.0178
1313.00,0.0178
1312.00,0.0178
1311.00,0.0179
1310.00,0.0181
1309.00,0.0185
1308.00,0.0191
1307.00,0.0198
1306.00,0.0206
1305.00,0.0210
1304.00,0.0211
1303.00,0.0209
1302.00,0.0205
1301.00,0.0201
1300.00,0.0199
1299.00,0.0198
1298.00,0.0198
1297.00,0.0198
1296.00,0.0197
1295.00,0.0195
1294.00,0.0191
1293.00,0.0187
1292.00,0.0183
1291.00,0.0178
1290.00,0.0174
1289.00,0.0171
1288.00,0.0167
1287.00,0.0165
1286.00,0.0163
1285.00,0.0161
1284.00,0.0159
1283.00,0.0157
1282.00,0.0155
1281.00,0.0153
1280.00,0.0152
1279.00,0.0151
1278.00,0.0150
1277.00,0.0149
1276.00,0.0149
1275.00,0.0149
1274.00,0.0149
1273.00,0.0149
1272.00,0.0151
1271.00,0.0152
1270.00,0.0155
1269.00,0.0158
1268.00,0.0161
1267.00,0.0165
1266.00,0.0168
1265.00,0.0171
1264.00,0.0174
1263.00,0.0176
1262.00,0.0178
1261.00,0.0180
1260.00,0.0182
1259.00,0.0185
1258.00,0.0187
1257.00,0.0189
1256.00,0.0189
1255.00,0.0185
1254.00,0.0179
1253.00,0.0171
1252.00,0.0163
1251.00,0.0157
1250.00,0.0153
1249.00,0.0150
1248.00,0.0147
1247.00,0.0145
1246.00,0.0143
1245.00,0.0142
1244.00,0.0141
1243.00,0.0140
1242.00,0.0140
1241.00,0.0139
1240.00,0.0138
1239.00,0.0138
1238.00,0.0137
1237.00,0.0137
1236.00,0.0138
1235.00,0.0138
1234.00,0.0138
1233.00,0.0138
1232.00,0.0139
1231.00,0.0139
1230.00,0.0140
1229.00,0.0141
1228.00,0.0143
1227.00,0.0145
1226.00,0.0148
1225.00,0.0151
1224.00,0.0156
1223.00,0.0161
1222.00,0.0166
1221.00,0.0171
1220.00,0.0175
1219.00,0.0179
1218.00,0.0181
1217.00,0.0183
1216.00,0.0183
1215.00,0.0183
1214.00,0.0182
1213.00,0.0181
1212.00,0.0180
1211.00,0.0179
1210.00,0.0178
1209.00,0.0178
1208.00,0.0177
1207.00,0.0177
1206.00,0.0178
1205.00,0.0178
1204.00,0.0179
1203.00,0.0181
1202.00,0.0182
1201.00,0.0183
1200.00,0.0184
1199.00,0.0185
1198.00,0.0186
1197.00,0.0188
1196.00,0.0189
1195.00,0.0190
1194.00,0.0191
1193.00,0.0191
1192.00,0.0191
1191.00,0.0191
1190.00,0.0191
1189.00,0.0191
1188.00,0.0192
1187.00,0.0192
1186.00,0.0192
1185.00,0.0192
1184.00,0.0193
1183.00,0.0194
1182.00,0.0196
1181.00,0.0199
1180.00,0.0204
1179.00,0.0209
1178.00,0.0215
1177.00,0.0223
1176.00,0.0233
1175.00,0.0246
1174.00,0.0264
1173.00,0.0286
1172.00,0.0312
1171.00,0.0341
1170.00,0.0369
1169.00,0.0393
1168.00,0.0409
1167.00,0.0416
1166.00,0.0416
1165.00,0.0410
1164.00,0.0403
1163.00,0.0397
1162.00,0.0392
1161.00,0.0389
1160.00,0.0388
1159.00,0.0388
1158.00,0.0390
1157.00,0.0394
1156.00,0.0398
1155.00,0.0402
1154.00,0.0406
1153.00,0.0409
1152.00,0.0409
1151.00,0.0407
1150.00,0.0403
1149.00,0.0398
1148.00,0.0392
1147.00,0.0386
1146.00,0.0380
1145.00,0.0375
1144.00,0.0371
1143.00,0.0368
1142.00,0.0365
1141.00,0.0364
1140.00,0.0364
1139.00,0.0365
1138.00,0.0367
1137.00,0.0370
1136.00,0.0374
1135.00,0.0380
1134.00,0.0387
1133.00,0.0394
1132.00,0.0402
1131.00,0.0410
1130.00,0.0418
1129.00,0.0427
1128.00,0.0435
1127.00,0.0443
1126.00,0.0451
1125.00,0.0458
1124.00,0.0464
1123.00,0.0469
1122.00,0.0474
1121.00,0.0479
1120.00,0.0483
1119.00,0.0487
1118.00,0.0491
1117.00,0.0495
1116.00,0.0499
1115.00,0.0502
1114.00,0.0504
1113.00,0.0506
1112.00,0.0508
1111.00,0.0510
1110.00,0.0513
1109.00,0.0516
1108.00,0.0520
1107.00,0.0524
1106.00,0.0528
1105.00,0.0533
1104.00,0.0538
1103.00,0.0540
1102.00,0.0540
1101.00,0.0538
1100.00,0.0534
1099.00,0.0529
1098.00,0.0523
1097.00,0.0517
1096.00,0.0512
1095.00,0.0510
1094.00,0.0508
1093.00,0.0507
1092.00,0.0506
1091.00,0.0507
1090.00,0.0508
1089.00,0.0510
1088.00,0.0514
1087.00,0.0518
1086.00,0.0523
1085.00,0.0528
1084.00,0.0534
1083.00,0.0539
1082.00,0.0543
1081.00,0.0547
1080.00,0.0550
1079.00,0.0553
1078.00,0.0556
1077.00,0.0559
1076.00,0.0562
1075.00,0.0565
1074.00,0.0566
1073.00,0.0567
1072.00,0.0569
1071.00,0.0571
1070.00,0.0573
1069.00,0.0576
1068.00,0.0578
1067.00,0.0579
1066.00,0.0580
1065.00,0.0581
1064.00,0.0583
1063.00,0.0583
1062.00,0.0583
1061.00,0.0582
1060.00,0.0582
1059.00,0.0581
1058.00,0.0579
1057.00,0.0576
1056.00,0.0573
1055.00,0.0569
1054.00,0.0565
1053.00,0.0561
1052.00,0.0557
1051.00,0.0553
1050.00,0.0549
1049.00,0.0545
1048.00,0.0540
1047.00,0.0536
1046.00,0.0532
1045.00,0.0526
1044.00,0.0520
1043.00,0.0513
1042.00,0.0505
1041.00,0.0498
1040.00,0.0492
1039.00,0.0487
1038.00,0.0482
1037.00,0.0478
1036.00,0.0473
1035.00,0.0467
1034.00,0.0461
1033.00,0.0453
1032.00,0.0444
1031.00,0.0437
1030.00,0.0430
1029.00,0.0424
1028.00,0.0419
1027.00,0.0414
1026.00,0.0408
1025.00,0.0402
1024.00,0.0396
1023.00,0.0390
1022.00,0.0384
1021.00,0.0378
1020.00,0.0372
1019.00,0.0368
1018.00,0.0364
1017.00,0.0360
1016.00,0.0356
1015.00,0.0353
1014.00,0.0349
1013.00,0.0346
1012.00,0.0343
1011.00,0.0339
1010.00,0.0335
1009.00,0.0330
1008.00,0.0325
1007.00,0.0322
1006.00,0.0321
1005.00,0.0324
1004.00,0.0330
1003.00,0.0342
1002.00,0.0360
1001.00,0.0385
1000.00,0.0412
999.00,0.0434
998.00,0.0442
997.00,0.0432
996.00,0.0405
995.00,0.0368
994.00,0.0331
993.00,0.0298
992.00,0.0271
991.00,0.0251
990.00,0.0235
989.00,0.0224
988.00,0.0217
987.00,0.0211
986.00,0.0208
985.00,0.0207
984.00,0.0208
983.00,0.0212
982.00,0.0220
981.00,0.0232
980.00,0.0250
979.00,0.0274
978.00,0.0304
977.00,0.0339
976.00,0.0377
975.00,0.0411
974.00,0.0436
973.00,0.0443
972.00,0.0429
971.00,0.0397
970.00,0.0355
969.00,0.0314
968.00,0.0280
967.00,0.0256
966.00,0.0239
965.00,0.0229
964.00,0.0222
963.00,0.0218
962.00,0.0216
961.00,0.0215
960.00,0.0216
959.00,0.0217
958.00,0.0219
957.00,0.0220
956.00,0.0222
955.00,0.0223
954.00,0.0224
953.00,0.0225
952.00,0.0227
951.00,0.0229
950.00,0.0230
949.00,0.0230
948.00,0.0230
947.00,0.0230
946.00,0.0230
945.00,0.0229
944.00,0.0229
943.00,0.0229
942.00,0.0229
941.00,0.0226
940.00,0.0222
939.00,0.0215
938.00,0.0207
937.00,0.0199
936.00,0.0190
935.00,0.0183
934.00,0.0177
933.00,0.0173
932.00,0.0169
931.00,0.0167
930.00,0.0165
929.00,0.0163
928.00,0.0161
927.00,0.0159
926.00,0.0157
925.00,0.0155
924.00,0.0152
923.00,0.0149
922.00,0.0147
921.00,0.0145
920.00,0.0143
919.00,0.0142
918.00,0.0142
917.00,0.0143
916.00,0.0142
915.00,0.0141
914.00,0.0140
913.00,0.0140
912.00,0.0140
911.00,0.0141
910.00,0.0142
909.00,0.0144
908.00,0.0145
907.00,0.0149
906.00,0.0155
905.00,0.0164
904.00,0.0176
903.00,0.0192
902.00,0.0209
901.00,0.0225
900.00,0.0235
899.00,0.0236
898.00,0.0229
897.00,0.0216
896.00,0.0200
895.00,0.0183
894.00,0.0169
893.00,0.0159
892.00,0.0151
891.00,0.0146
890.00,0.0142
889.00,0.0139
888.00,0.0136
887.00,0.0134
886.00,0.0132
885.00,0.0129
884.00,0.0127
883.00,0.0125
882.00,0.0124
881.00,0.0124
880.00,0.0126
879.00,0.0128
878.00,0.0131
877.00,0.0132
876.00,0.0132
875.00,0.0131
874.00,0.0130
873.00,0.0128
872.00,0.0126
871.00,0.0123
870.00,0.0120
869.00,0.0119
868.00,0.0118
867.00,0.0118
866.00,0.0119
865.00,0.0120
864.00,0.0121
863.00,0.0122
862.00,0.0123
861.00,0.0124
860.00,0.0125
859.00,0.0126
858.00,0.0129
857.00,0.0133
856.00,0.0135
855.00,0.0136
854.00,0.0137
853.00,0.0137
852.00,0.0139
851.00,0.0142
850.00,0.0146
849.00,0.0152
848.00,0.0160
847.00,0.0171
846.00,0.0188
845.00,0.0212
844.00,0.0247
843.00,0.0287
842.00,0.0320
841.00,0.0329
840.00,0.0310
839.00,0.0272
838.00,0.0232
837.00,0.0200
836.00,0.0179
835.00,0.0166
834.00,0.0159
833.00,0.0155
832.00,0.0151
831.00,0.0148
830.00,0.0145
829.00,0.0144
828.00,0.0144
827.00,0.0145
826.00,0.0146
825.00,0.0147
824.00,0.0148
823.00,0.0149
822.00,0.0149
821.00,0.0150
820.00,0.0151
819.00,0.0155
818.00,0.0159
817.00,0.0165
816.00,0.0174
815.00,0.0185
814.00,0.0200
813.00,0.0218
812.00,0.0237
811.00,0.0254
810.00,0.0267
809.00,0.0272
808.00,0.0269
807.00,0.0257
806.00,0.0241
805.00,0.0224
804.00,0.0208
803.00,0.0196
802.00,0.0187
801.00,0.0180
800.00,0.0174
799.00,0.0169
798.00,0.0164
797.00,0.0160
796.00,0.0156
795.00,0.0152
794.00,0.0147
793.00,0.0143
792.00,0.0140
791.00,0.0139
790.00,0.0137
789.00,0.0135
788.00,0.0132
787.00,0.0129
786.00,0.0127
785.00,0.0125
784.00,0.0123
783.00,0.0123
782.00,0.0123
781.00,0.0124
780.00,0.0124
779.00,0.0124
778.00,0.0123
777.00,0.0123
776.00,0.0122
775.00,0.0122
774.00,0.0123
773.00,0.0123
772.00,0.0123
771.00,0.0124
770.00,0.0124
769.00,0.0124
768.00,0.0122
767.00,0.0119
766.00,0.0117
765.00,0.0116
764.00,0.0115
763.00,0.0116
762.00,0.0116
761.00,0.0116
760.00,0.0117
759.00,0.0117
758.00,0.0118
757.00,0.0118
756.00,0.0118
755.00,0.0118
754.00,0.0118
753.00,0.0118
752.00,0.0119
751.00,0.0120
750.00,0.0121
749.00,0.0123
748.00,0.0123
747.00,0.0124
746.00,0.0125
745.00,0.0128
744.00,0.0130
743.00,0.0132
742.00,0.0134
741.00,0.0137
740.00,0.0140
739.00,0.0144
738.00,0.0147
737.00,0.0152
736.00,0.0156
735.00,0.0161
734.00,0.0165
733.00,0.0171
732.00,0.0178
731.00,0.0186
730.00,0.0193
729.00,0.0197
728.00,0.0199
727.00,0.0199
726.00,0.0200
725.00,0.0202
724.00,0.0206
723.00,0.0213
722.00,0.0220
721.00,0.0225
720.00,0.0224
719.00,0.0216
718.00,0.0203
717.00,0.0192
716.00,0.0183
715.00,0.0178
714.00,0.0174
713.00,0.0172
712.00,0.0169
711.00,0.0166
710.00,0.0163
709.00,0.0161
708.00,0.0159
707.00,0.0158
706.00,0.0157
705.00,0.0156
704.00,0.0155
703.00,0.0154
702.00,0.0151
701.00,0.0149
700.00,0.0149
699.00,0.0148
698.00,0.0148
697.00,0.0146
696.00,0.0145
695.00,0.0144
694.00,0.0144
693.00,0.0144
692.00,0.0144
691.00,0.0145
690.00,0.0145
689.00,0.0146
688.00,0.0147
687.00,0.0149
686.00,0.0150
685.00,0.0150
684.00,0.0150
683.00,0.0152
682.00,0.0154
681.00,0.0155
680.00,0.0155
679.00,0.0156
678.00,0.0159
677.00,0.0162
676.00,0.0165
675.00,0.0169
674.00,0.0174
673.00,0.0178
672.00,0.0181
671.00,0.0182
670.00,0.0182
669.00,0.0181
668.00,0.0182
667.00,0.0185
666.00,0.0185
665.00,0.0183
664.00,0.0181
663.00,0.0180
662.00,0.0181
661.00,0.0182
660.00,0.0182
659.00,0.0181
658.00,0.0179
657.00,0.0177
656.00,0.0176
655.00,0.0175
654.00,0.0176
653.00,0.0177
652.00,0.0180
651.00,0.0182
650.00,0.0183
649.00,0.0182
648.00,0.0180
647.00,0.0177
646.00,0.0177
645.00,0.0179
644.00,0.0181
643.00,0.0183
642.00,0.0184
641.00,0.0185
640.00,0.0186
639.00,0.0186
638.00,0.0185
637.00,0.0185
636.00,0.0186
635.00,0.0188
634.00,0.0190
633.00,0.0190
632.00,0.0190
631.00,0.0190
630.00,0.0190
629.00,0.0190
628.00,0.0191
627.00,0.0191
626.00,0.0192
625.00,0.0192
624.00,0.0193
623.00,0.0193
622.00,0.0195
621.00,0.0195
620.00,0.0196
619.00,0.0197
618.00,0.0198
617.00,0.0198
616.00,0.0197
615.00,0.0198
614.00,0.0201
613.00,0.0205
612.00,0.0208
611.00,0.0207
610.00,0.0204
609.00,0.0201
608.00,0.0200
607.00,0.0201
606.00,0.0203
605.00,0.0203
604.00,0.0201
603.00,0.0199
602.00,0.0198
601.00,0.0199
600.00,0.0201
599.00,0.0204
598.00,0.0206
597.00,0.0208
596.00,0.0210
595.00,0.0212
594.00,0.0214
593.00,0.0215
592.00,0.0214
591.00,0.0214
590.00,0.0214
589.00,0.0215
588.00,0.0214
587.00,0.0213
586.00,0.0212
585.00,0.0213
584.00,0.0215
583.00,0.0216
582.00,0.0214
581.00,0.0212
580.00,0.0211
579.00,0.0214
578.00,0.0219
577.00,0.0222
576.00,0.0222
575.00,0.0220
574.00,0.0219
573.00,0.0218
572.00,0.0218
571.00,0.0217
570.00,0.0215
569.00,0.0212
568.00,0.0210
567.00,0.0210
566.00,0.0211
565.00,0.0213
564.00,0.0214
563.00,0.0212
562.00,0.0209
561.00,0.0207
560.00,0.0207
559.00,0.0209
558.00,0.0210
557.00,0.0207
556.00,0.0203
555.00,0.0199
554.00,0.0198
553.00,0.0199
552.00,0.0200
551.00,0.0202
550.00,0.0204
549.00,0.0207
548.00,0.0209
547.00,0.0211
546.00,0.0211
545.00,0.0213
544.00,0.0215
543.00,0.0216
542.00,0.0214
541.00,0.0210
540.00,0.0207
539.00,0.0208
538.00,0.0212
537.00,0.0216
536.00,0.0216
535.00,0.0213
534.00,0.0212
533.00,0.0213
532.00,0.0217
531.00,0.0220
530.00,0.0219
529.00,0.0216
528.00,0.0211
527.00,0.0208
526.00,0.0207
525.00,0.0208
524.00,0.0209
523.00,0.0211
522.00,0.0211
521.00,0.0209
520.00,0.0205
519.00,0.0200
518.00,0.0197
517.00,0.0197
516.00,0.0199
515.00,0.0203
514.00,0.0204
513.00,0.0203
512.00,0.0201
511.00,0.0200
510.00,0.0199
509.00,0.0197
508.00,0.0193
507.00,0.0191
506.00,0.0190
505.00,0.0190
504.00,0.0191
503.00,0.0190
502.00,0.0189
501.00,0.0185
500.00,0.0183
499.00,0.0185
498.00,0.0189
497.00,0.0191
496.00,0.0189
495.00,0.0186
494.00,0.0187
493.00,0.0189
492.00,0.0187
491.00,0.0182
490.00,0.0178
489.00,0.0179
488.00,0.0184
487.00,0.0190
486.00,0.0195
485.00,0.0200
484.00,0.0202
483.00,0.0199
482.00,0.0194
481.00,0.0193
480.00,0.0196
479.00,0.0200
478.00,0.0201
477.00,0.0199
476.00,0.0198
475.00,0.0199
474.00,0.0202
473.00,0.0204
472.00,0.0202
471.00,0.0198
470.00,0.0194
469.00,0.0197
468.00,0.0205
467.00,0.0213
466.00,0.0215
465.00,0.0212
464.00,0.0212
463.00,0.0217
462.00,0.0225
461.00,0.0230
460.00,0.0231
459.00,0.0230
458.00,0.0229
457.00,0.0233
456.00,0.0236
455.00,0.0235
454.00,0.0227
453.00,0.0218
452.00,0.0213
451.00,0.0215
450.00,0.0216
