Created as New Dataset,Sample 063 By Administrator Date Friday, September 05 2025
cm-1,A
4000.00,0.0020
3999.00,0.0020
3998.00,0.0020
3997.00,0.0020
3996.00,0.0020
3995.00,0.0020
3994.00,0.0020
3993.00,0.0020
3992.00,0.0020
3991.00,0.0020
3990.00,0.0020
3989.00,0.0020
3988.00,0.0020
3987.00,0.0020
3986.00,0.0020
3985.00,0.0020
3984.00,0.0020
3983.00,0.0019
3982.00,0.0019
3981.00,0.0018
3980.00,0.0018
3979.00,0.0018
3978.00,0.0019
3977.00,0.0019
3976.00,0.0019
3975.00,0.0019
3974.00,0.0019
3973.00,0.0019
3972.00,0.0019
3971.00,0.0018
3970.00,0.0018
3969.00,0.0018
3968.00,0.0018
3967.00,0.0018
3966.00,0.0018
3965.00,0.0018
3964.00,0.0018
3963.00,0.0018
3962.00,0.0018
3961.00,0.0018
3960.00,0.0018
3959.00,0.0018
3958.00,0.0018
3957.00,0.0018
3956.00,0.0017
3955.00,0.0017
3954.00,0.0017
3953.00,0.0018
3952.00,0.0018
3951.00,0.0018
3950.00,0.0018
3949.00,0.0019
3948.00,0.0019
3947.00,0.0019
3946.00,0.0019
3945.00,0.0019
3944.00,0.0018
3943.00,0.0018
3942.00,0.0018
3941.00,0.0018
3940.00,0.0018
3939.00,0.0018
3938.00,0.0018
3937.00,0.0017
3936.00,0.0017
3935.00,0.0018
3934.00,0.0018
3933.00,0.0018
3932.00,0.0018
3931.00,0.0019
3930.00,0.0019
3929.00,0.0019
3928.00,0.0019
3927.00,0.0018
3926.00,0.0018
3925.00,0.0018
3924.00,0.0018
3923.00,0.0018
3922.00,0.0018
3921.00,0.0018
3920.00,0.0017
3919.00,0.0017
3918.00,0.0017
3917.00,0.0017
3916.00,0.0018
3915.00,0.0018
3914.00,0.0018
3913.00,0.0018
3912.00,0.0018
3911.00,0.0018
3910.00,0.0018
3909.00,0.0018
3908.00,0.0018
3907.00,0.0017
3906.00,0.0017
3905.00,0.0017
3904.00,0.0017
3903.00,0.0017
3902.00,0.0017
3901.00,0.0017
3900.00,0.0016
3899.00,0.0016
3898.00,0.0017
3897.00,0.0017
3896.00,0.0017
3895.00,0.0017
3894.00,0.0018
3893.00,0.0018
3892.00,0.0018
3891.00,0.0018
3890.00,0.0017
3889.00,0.0017
3888.00,0.0016
3887.00,0.0016
3886.00,0.0016
3885.00,0.0016
3884.00,0.0016
3883.00,0.0017
3882.00,0.0017
3881.00,0.0017
3880.00,0.0017
3879.00,0.0017
3878.00,0.0017
3877.00,0.0017
3876.00,0.0017
3875.00,0.0017
3874.00,0.0017
3873.00,0.0018
3872.00,0.0018
3871.00,0.0018
3870.00,0.0018
3869.00,0.0018
3868.00,0.0018
3867.00,0.0018
3866.00,0.0017
3865.00,0.0017
3864.00,0.0017
3863.00,0.0017
3862.00,0.0017
3861.00,0.0017
3860.00,0.0017
3859.00,0.0017
3858.00,0.0017
3857.00,0.0018
3856.00,0.0018
3855.00,0.0018
3854.00,0.0018
3853.00,0.0018
3852.00,0.0018
3851.00,0.0017
3850.00,0.0017
3849.00,0.0017
3848.00,0.0016
3847.00,0.0016
3846.00,0.0016
3845.00,0.0015
3844.00,0.0015
3843.00,0.0015
3842.00,0.0015
3841.00,0.0015
3840.00,0.0016
3839.00,0.0016
3838.00,0.0017
3837.00,0.0017
3836.00,0.0017
3835.00,0.0017
3834.00,0.0017
3833.00,0.0017
3832.00,0.0016
3831.00,0.0016
3830.00,0.0016
3829.00,0.0016
3828.00,0.0016
3827.00,0.0016
3826.00,0.0016
3825.00,0.0017
3824.00,0.0017
3823.00,0.0017
3822.00,0.0017
3821.00,0.0017
3820.00,0.0016
3819.00,0.0017
3818.00,0.0017
3817.00,0.0017
3816.00,0.0017
3815.00,0.0017
3814.00,0.0017
3813.00,0.0017
3812.00,0.0017
3811.00,0.0017
3810.00,0.0017
3809.00,0.0017
3808.00,0.0017
3807.00,0.0016
3806.00,0.0016
3805.00,0.0016
3804.00,0.0017
3803.00,0.0016
3802.00,0.0016
3801.00,0.0016
3800.00,0.0016
3799.00,0.0016
3798.00,0.0016
3797.00,0.0016
3796.00,0.0016
3795.00,0.0016
3794.00,0.0017
3793.00,0.0017
3792.00,0.0017
3791.00,0.0017
3790.00,0.0017
3789.00,0.0017
3788.00,0.0017
3787.00,0.0017
3786.00,0.0017
3785.00,0.0017
3784.00,0.0017
3783.00,0.0017
3782.00,0.0017
3781.00,0.0017
3780.00,0.0017
3779.00,0.0017
3778.00,0.0017
3777.00,0.0017
3776.00,0.0017
3775.00,0.0017
3774.00,0.0017
3773.00,0.0017
3772.00,0.0017
3771.00,0.0017
3770.00,0.0017
3769.00,0.0017
3768.00,0.0017
3767.00,0.0017
3766.00,0.0017
3765.00,0.0017
3764.00,0.0017
3763.00,0.0017
3762.00,0.0017
3761.00,0.0017
3760.00,0.0017
3759.00,0.0016
3758.00,0.0016
3757.00,0.0016
3756.00,0.0016
3755.00,0.0015
3754.00,0.0015
3753.00,0.0016
3752.00,0.0016
3751.00,0.0017
3750.00,0.0017
3749.00,0.0017
3748.00,0.0017
3747.00,0.0016
3746.00,0.0016
3745.00,0.0016
3744.00,0.0016
3743.00,0.0016
3742.00,0.0015
3741.00,0.0015
3740.00,0.0015
3739.00,0.0015
3738.00,0.0015
3737.00,0.0015
3736.00,0.0015
3735.00,0.0014
3734.00,0.0015
3733.00,0.0015
3732.00,0.0015
3731.00,0.0015
3730.00,0.0015
3729.00,0.0015
3728.00,0.0015
3727.00,0.0014
3726.00,0.0014
3725.00,0.0014
3724.00,0.0014
3723.00,0.0014
3722.00,0.0014
3721.00,0.0014
3720.00,0.0015
3719.00,0.0015
3718.00,0.0016
3717.00,0.0016
3716.00,0.0016
3715.00,0.0016
3714.00,0.0016
3713.00,0.0015
3712.00,0.0014
3711.00,0.0013
3710.00,0.0013
3709.00,0.0013
3708.00,0.0014
3707.00,0.0014
3706.00,0.0015
3705.00,0.0015
3704.00,0.0015
3703.00,0.0015
3702.00,0.0016
3701.00,0.0016
3700.00,0.0016
3699.00,0.0016
3698.00,0.0016
3697.00,0.0016
3696.00,0.0016
3695.00,0.0016
3694.00,0.0016
3693.00,0.0016
3692.00,0.0017
3691.00,0.0017
3690.00,0.0017
3689.00,0.0016
3688.00,0.0016
3687.00,0.0016
3686.00,0.0016
3685.00,0.0017
3684.00,0.0017
3683.00,0.0017
3682.00,0.0017
3681.00,0.0017
3680.00,0.0018
3679.00,0.0018
3678.00,0.0018
3677.00,0.0018
3676.00,0.0018
3675.00,0.0018
3674.00,0.0019
3673.00,0.0019
3672.00,0.0019
3671.00,0.0019
3670.00,0.0019
3669.00,0.0019
3668.00,0.0020
3667.00,0.0020
3666.00,0.0020
3665.00,0.0020
3664.00,0.0020
3663.00,0.0020
3662.00,0.0020
3661.00,0.0021
3660.00,0.0021
3659.00,0.0022
3658.00,0.0022
3657.00,0.0023
3656.00,0.0023
3655.00,0.0023
3654.00,0.0023
3653.00,0.0023
3652.00,0.0023
3651.00,0.0023
3650.00,0.0023
3649.00,0.0024
3648.00,0.0025
3647.00,0.0025
3646.00,0.0026
3645.00,0.0026
3644.00,0.0026
3643.00,0.0027
3642.00,0.0027
3641.00,0.0028
3640.00,0.0029
3639.00,0.0030
3638.00,0.0031
3637.00,0.0031
3636.00,0.0032
3635.00,0.0032
3634.00,0.0033
3633.00,0.0033
3632.00,0.0034
3631.00,0.0034
3630.00,0.0034
3629.00,0.0035
3628.00,0.0035
3627.00,0.0036
3626.00,0.0036
3625.00,0.0036
3624.00,0.0036
3623.00,0.0036
3622.00,0.0036
3621.00,0.0037
3620.00,0.0037
3619.00,0.0038
3618.00,0.0039
3617.00,0.0040
3616.00,0.0040
3615.00,0.0041
3614.00,0.0043
3613.00,0.0043
3612.00,0.0044
3611.00,0.0045
3610.00,0.0045
3609.00,0.0046
3608.00,0.0046
3607.00,0.0047
3606.00,0.0047
3605.00,0.0048
3604.00,0.0048
3603.00,0.0049
3602.00,0.0050
3601.00,0.0050
3600.00,0.0050
3599.00,0.0050
3598.00,0.0051
3597.00,0.0052
3596.00,0.0054
3595.00,0.0055
3594.00,0.0055
3593.00,0.0056
3592.00,0.0056
3591.00,0.0057
3590.00,0.0058
3589.00,0.0058
3588.00,0.0059
3587.00,0.0060
3586.00,0.0061
3585.00,0.0062
3584.00,0.0063
3583.00,0.0063
3582.00,0.0064
3581.00,0.0064
3580.00,0.0065
3579.00,0.0066
3578.00,0.0067
3577.00,0.0068
3576.00,0.0068
3575.00,0.0069
3574.00,0.0070
3573.00,0.0071
3572.00,0.0072
3571.00,0.0072
3570.00,0.0073
3569.00,0.0074
3568.00,0.0075
3567.00,0.0075
3566.00,0.0076
3565.00,0.0077
3564.00,0.0078
3563.00,0.0078
3562.00,0.0079
3561.00,0.0080
3560.00,0.0081
3559.00,0.0082
3558.00,0.0083
3557.00,0.0083
3556.00,0.0084
3555.00,0.0085
3554.00,0.0086
3553.00,0.0087
3552.00,0.0088
3551.00,0.0089
3550.00,0.0090
3549.00,0.0091
3548.00,0.0092
3547.00,0.0093
3546.00,0.0094
3545.00,0.0094
3544.00,0.0095
3543.00,0.0095
3542.00,0.0096
3541.00,0.0097
3540.00,0.0098
3539.00,0.0099
3538.00,0.0100
3537.00,0.0101
3536.00,0.0102
3535.00,0.0103
3534.00,0.0104
3533.00,0.0105
3532.00,0.0106
3531.00,0.0107
3530.00,0.0108
3529.00,0.0108
3528.00,0.0109
3527.00,0.0110
3526.00,0.0112
3525.00,0.0113
3524.00,0.0114
3523.00,0.0115
3522.00,0.0116
3521.00,0.0117
3520.00,0.0118
3519.00,0.0119
3518.00,0.0120
3517.00,0.0121
3516.00,0.0122
3515.00,0.0124
3514.00,0.0125
3513.00,0.0126
3512.00,0.0126
3511.00,0.0127
3510.00,0.0128
3509.00,0.0129
3508.00,0.0130
3507.00,0.0132
3506.00,0.0133
3505.00,0.0134
3504.00,0.0136
3503.00,0.0137
3502.00,0.0138
3501.00,0.0139
3500.00,0.0140
3499.00,0.0142
3498.00,0.0143
3497.00,0.0145
3496.00,0.0146
3495.00,0.0147
3494.00,0.0148
3493.00,0.0149
3492.00,0.0150
3491.00,0.0151
3490.00,0.0152
3489.00,0.0153
3488.00,0.0154
3487.00,0.0155
3486.00,0.0156
3485.00,0.0156
3484.00,0.0157
3483.00,0.0158
3482.00,0.0159
3481.00,0.0160
3480.00,0.0161
3479.00,0.0162
3478.00,0.0163
3477.00,0.0164
3476.00,0.0165
3475.00,0.0166
3474.00,0.0167
3473.00,0.0168
3472.00,0.0169
3471.00,0.0170
3470.00,0.0171
3469.00,0.0171
3468.00,0.0172
3467.00,0.0173
3466.00,0.0173
3465.00,0.0174
3464.00,0.0174
3463.00,0.0174
3462.00,0.0175
3461.00,0.0176
3460.00,0.0177
3459.00,0.0177
3458.00,0.0178
3457.00,0.0178
3456.00,0.0179
3455.00,0.0179
3454.00,0.0179
3453.00,0.0180
3452.00,0.0181
3451.00,0.0181
3450.00,0.0181
3449.00,0.0182
3448.00,0.0182
3447.00,0.0182
3446.00,0.0182
3445.00,0.0183
3444.00,0.0183
3443.00,0.0184
3442.00,0.0184
3441.00,0.0184
3440.00,0.0184
3439.00,0.0184
3438.00,0.0184
3437.00,0.0185
3436.00,0.0185
3435.00,0.0186
3434.00,0.0186
3433.00,0.0186
3432.00,0.0186
3431.00,0.0186
3430.00,0.0186
3429.00,0.0186
3428.00,0.0186
3427.00,0.0186
3426.00,0.0187
3425.00,0.0187
3424.00,0.0187
3423.00,0.0187
3422.00,0.0187
3421.00,0.0187
3420.00,0.0186
3419.00,0.0186
3418.00,0.0186
3417.00,0.0187
3416.00,0.0187
3415.00,0.0187
3414.00,0.0187
3413.00,0.0187
3412.00,0.0187
3411.00,0.0187
3410.00,0.0187
3409.00,0.0187
3408.00,0.0187
3407.00,0.0188
3406.00,0.0188
3405.00,0.0188
3404.00,0.0189
3403.00,0.0189
3402.00,0.0190
3401.00,0.0190
3400.00,0.0189
3399.00,0.0189
3398.00,0.0188
3397.00,0.0188
3396.00,0.0188
3395.00,0.0188
3394.00,0.0188
3393.00,0.0188
3392.00,0.0188
3391.00,0.0188
3390.00,0.0187
3389.00,0.0186
3388.00,0.0186
3387.00,0.0185
3386.00,0.0185
3385.00,0.0185
3384.00,0.0184
3383.00,0.0184
3382.00,0.0184
3381.00,0.0183
3380.00,0.0183
3379.00,0.0183
3378.00,0.0183
3377.00,0.0183
3376.00,0.0183
3375.00,0.0182
3374.00,0.0182
3373.00,0.0182
3372.00,0.0182
3371.00,0.0182
3370.00,0.0181
3369.00,0.0181
3368.00,0.0180
3367.00,0.0179
3366.00,0.0178
3365.00,0.0178
3364.00,0.0178
3363.00,0.0178
3362.00,0.0178
3361.00,0.0177
3360.00,0.0177
3359.00,0.0176
3358.00,0.0176
3357.00,0.0176
3356.00,0.0175
3355.00,0.0175
3354.00,0.0174
3353.00,0.0174
3352.00,0.0173
3351.00,0.0173
3350.00,0.0173
3349.00,0.0173
3348.00,0.0173
3347.00,0.0172
3346.00,0.0171
3345.00,0.0171
3344.00,0.0170
3343.00,0.0169
3342.00,0.0169
3341.00,0.0169
3340.00,0.0169
3339.00,0.0169
3338.00,0.0168
3337.00,0.0168
3336.00,0.0167
3335.00,0.0166
3334.00,0.0166
3333.00,0.0165
3332.00,0.0165
3331.00,0.0165
3330.00,0.0164
3329.00,0.0163
3328.00,0.0163
3327.00,0.0163
3326.00,0.0162
3325.00,0.0162
3324.00,0.0162
3323.00,0.0161
3322.00,0.0161
3321.00,0.0160
3320.00,0.0160
3319.00,0.0159
3318.00,0.0159
3317.00,0.0158
3316.00,0.0158
3315.00,0.0157
3314.00,0.0157
3313.00,0.0156
3312.00,0.0155
3311.00,0.0155
3310.00,0.0154
3309.00,0.0154
3308.00,0.0154
3307.00,0.0154
3306.00,0.0154
3305.00,0.0154
3304.00,0.0154
3303.00,0.0153
3302.00,0.0153
3301.00,0.0152
3300.00,0.0152
3299.00,0.0151
3298.00,0.0151
3297.00,0.0150
3296.00,0.0150
3295.00,0.0149
3294.00,0.0149
3293.00,0.0148
3292.00,0.0148
3291.00,0.0148
3290.00,0.0147
3289.00,0.0147
3288.00,0.0147
3287.00,0.0146
3286.00,0.0146
3285.00,0.0145
3284.00,0.0145
3283.00,0.0144
3282.00,0.0144
3281.00,0.0144
3280.00,0.0143
3279.00,0.0143
3278.00,0.0143
3277.00,0.0142
3276.00,0.0142
3275.00,0.0142
3274.00,0.0142
3273.00,0.0141
3272.00,0.0141
3271.00,0.0140
3270.00,0.0140
3269.00,0.0139
3268.00,0.0139
3267.00,0.0139
3266.00,0.0138
3265.00,0.0137
3264.00,0.0137
3263.00,0.0136
3262.00,0.0136
3261.00,0.0136
3260.00,0.0135
3259.00,0.0134
3258.00,0.0134
3257.00,0.0134
3256.00,0.0133
3255.00,0.0133
3254.00,0.0132
3253.00,0.0131
3252.00,0.0131
3251.00,0.0131
3250.00,0.0130
3249.00,0.0130
3248.00,0.0130
3247.00,0.0130
3246.00,0.0130
3245.00,0.0130
3244.00,0.0130
3243.00,0.0130
3242.00,0.0129
3241.00,0.0129
3240.00,0.0128
3239.00,0.0127
3238.00,0.0127
3237.00,0.0126
3236.00,0.0126
3235.00,0.0126
3234.00,0.0126
3233.00,0.0126
3232.00,0.0126
3231.00,0.0126
3230.00,0.0125
3229.00,0.0125
3228.00,0.0125
3227.00,0.0124
3226.00,0.0124
3225.00,0.0124
3224.00,0.0124
3223.00,0.0124
3222.00,0.0124
3221.00,0.0123
3220.00,0.0123
3219.00,0.0123
3218.00,0.0123
3217.00,0.0122
3216.00,0.0122
3215.00,0.0122
3214.00,0.0121
3213.00,0.0121
3212.00,0.0121
3211.00,0.0121
3210.00,0.0120
3209.00,0.0120
3208.00,0.0120
3207.00,0.0120
3206.00,0.0120
3205.00,0.0120
3204.00,0.0120
3203.00,0.0119
3202.00,0.0119
3201.00,0.0119
3200.00,0.0118
3199.00,0.0118
3198.00,0.0118
3197.00,0.0117
3196.00,0.0117
3195.00,0.0117
3194.00,0.0116
3193.00,0.0116
3192.00,0.0115
3191.00,0.0115
3190.00,0.0114
3189.00,0.0114
3188.00,0.0114
3187.00,0.0114
3186.00,0.0113
3185.00,0.0112
3184.00,0.0111
3183.00,0.0110
3182.00,0.0109
3181.00,0.0109
3180.00,0.0108
3179.00,0.0108
3178.00,0.0107
3177.00,0.0107
3176.00,0.0106
3175.00,0.0106
3174.00,0.0105
3173.00,0.0104
3172.00,0.0103
3171.00,0.0103
3170.00,0.0102
3169.00,0.0102
3168.00,0.0101
3167.00,0.0101
3166.00,0.0100
3165.00,0.0100
3164.00,0.0099
3163.00,0.0098
3162.00,0.0098
3161.00,0.0097
3160.00,0.0097
3159.00,0.0096
3158.00,0.0096
3157.00,0.0095
3156.00,0.0095
3155.00,0.0094
3154.00,0.0094
3153.00,0.0094
3152.00,0.0094
3151.00,0.0093
3150.00,0.0093
3149.00,0.0092
3148.00,0.0091
3147.00,0.0091
3146.00,0.0091
3145.00,0.0091
3144.00,0.0090
3143.00,0.0089
3142.00,0.0089
3141.00,0.0088
3140.00,0.0088
3139.00,0.0087
3138.00,0.0087
3137.00,0.0087
3136.00,0.0086
3135.00,0.0086
3134.00,0.0086
3133.00,0.0085
3132.00,0.0084
3131.00,0.0084
3130.00,0.0083
3129.00,0.0082
3128.00,0.0081
3127.00,0.0081
3126.00,0.0080
3125.00,0.0080
3124.00,0.0079
3123.00,0.0079
3122.00,0.0078
3121.00,0.0078
3120.00,0.0077
3119.00,0.0077
3118.00,0.0076
3117.00,0.0076
3116.00,0.0075
3115.00,0.0075
3114.00,0.0075
3113.00,0.0074
3112.00,0.0074
3111.00,0.0074
3110.00,0.0073
3109.00,0.0073
3108.00,0.0072
3107.00,0.0072
3106.00,0.0071
3105.00,0.0071
3104.00,0.0071
3103.00,0.0071
3102.00,0.0070
3101.00,0.0070
3100.00,0.0070
3099.00,0.0070
3098.00,0.0069
3097.00,0.0069
3096.00,0.0069
3095.00,0.0069
3094.00,0.0069
3093.00,0.0069
3092.00,0.0068
3091.00,0.0068
3090.00,0.0068
3089.00,0.0068
3088.00,0.0067
3087.00,0.0067
3086.00,0.0067
3085.00,0.0066
3084.00,0.0066
3083.00,0.0066
3082.00,0.0066
3081.00,0.0066
3080.00,0.0066
3079.00,0.0065
3078.00,0.0065
3077.00,0.0065
3076.00,0.0066
3075.00,0.0066
3074.00,0.0067
3073.00,0.0067
3072.00,0.0067
3071.00,0.0067
3070.00,0.0066
3069.00,0.0066
3068.00,0.0066
3067.00,0.0066
3066.00,0.0066
3065.00,0.0066
3064.00,0.0066
3063.00,0.0066
3062.00,0.0066
3061.00,0.0066
3060.00,0.0066
3059.00,0.0067
3058.00,0.0067
3057.00,0.0067
3056.00,0.0068
3055.00,0.0068
3054.00,0.0068
3053.00,0.0068
3052.00,0.0068
3051.00,0.0068
3050.00,0.0069
3049.00,0.0069
3048.00,0.0069
3047.00,0.0069
3046.00,0.0069
3045.00,0.0070
3044.00,0.0070
3043.00,0.0070
3042.00,0.0071
3041.00,0.0071
3040.00,0.0072
3039.00,0.0072
3038.00,0.0073
3037.00,0.0073
3036.00,0.0073
3035.00,0.0073
3034.00,0.0073
3033.00,0.0073
3032.00,0.0074
3031.00,0.0075
3030.00,0.0075
3029.00,0.0076
3028.00,0.0077
3027.00,0.0077
3026.00,0.0077
3025.00,0.0078
3024.00,0.0079
3023.00,0.0080
3022.00,0.0081
3021.00,0.0082
3020.00,0.0083
3019.00,0.0083
3018.00,0.0084
3017.00,0.0085
3016.00,0.0086
3015.00,0.0087
3014.00,0.0089
3013.00,0.0090
3012.00,0.0092
3011.00,0.0094
3010.00,0.0096
3009.00,0.0097
3008.00,0.0099
3007.00,0.0101
3006.00,0.0103
3005.00,0.0105
3004.00,0.0108
3003.00,0.0111
3002.00,0.0114
3001.00,0.0117
3000.00,0.0120
2999.00,0.0123
2998.00,0.0127
2997.00,0.0131
2996.00,0.0135
2995.00,0.0140
2994.00,0.0146
2993.00,0.0151
2992.00,0.0157
2991.00,0.0164
2990.00,0.0170
2989.00,0.0177
2988.00,0.0185
2987.00,0.0193
2986.00,0.0202
2985.00,0.0212
2984.00,0.0223
2983.00,0.0234
2982.00,0.0248
2981.00,0.0263
2980.00,0.0280
2979.00,0.0299
2978.00,0.0321
2977.00,0.0345
2976.00,0.0372
2975.00,0.0403
2974.00,0.0438
2973.00,0.0479
2972.00,0.0524
2971.00,0.0575
2970.00,0.0632
2969.00,0.0694
2968.00,0.0761
2967.00,0.0832
2966.00,0.0906
2965.00,0.0981
2964.00,0.1053
2963.00,0.1119
2962.00,0.1174
2961.00,0.1218
2960.00,0.1250
2959.00,0.1275
2958.00,0.1298
2957.00,0.1323
2956.00,0.1357
2955.00,0.1402
2954.00,0.1456
2953.00,0.1513
2952.00,0.1566
2951.00,0.1603
2950.00,0.1615
2949.00,0.1597
2948.00,0.1547
2947.00,0.1471
2946.00,0.1379
2945.00,0.1281
2944.00,0.1189
2943.00,0.1109
2942.00,0.1047
2941.00,0.1004
2940.00,0.0980
2939.00,0.0973
2938.00,0.0982
2937.00,0.1005
2936.00,0.1040
2935.00,0.1087
2934.00,0.1145
2933.00,0.1213
2932.00,0.1288
2931.00,0.1371
2930.00,0.1459
2929.00,0.1549
2928.00,0.1639
2927.00,0.1728
2926.00,0.1815
2925.00,0.1900
2924.00,0.1983
2923.00,0.2066
2922.00,0.2148
2921.00,0.2226
2920.00,0.2293
2919.00,0.2343
2918.00,0.2366
2917.00,0.2358
2916.00,0.2316
2915.00,0.2248
2914.00,0.2163
2913.00,0.2071
2912.00,0.1983
2911.00,0.1903
2910.00,0.1832
2909.00,0.1771
2908.00,0.1716
2907.00,0.1664
2906.00,0.1614
2905.00,0.1562
2904.00,0.1509
2903.00,0.1456
2902.00,0.1403
2901.00,0.1351
2900.00,0.1300
2899.00,0.1252
2898.00,0.1206
2897.00,0.1164
2896.00,0.1125
2895.00,0.1091
2894.00,0.1062
2893.00,0.1038
2892.00,0.1020
2891.00,0.1007
2890.00,0.0997
2889.00,0.0992
2888.00,0.0988
2887.00,0.0988
2886.00,0.0989
2885.00,0.0994
2884.00,0.1001
2883.00,0.1012
2882.00,0.1027
2881.00,0.1043
2880.00,0.1058
2879.00,0.1070
2878.00,0.1076
2877.00,0.1076
2876.00,0.1070
2875.00,0.1063
2874.00,0.1058
2873.00,0.1057
2872.00,0.1061
2871.00,0.1072
2870.00,0.1086
2869.00,0.1099
2868.00,0.1106
2867.00,0.1102
2866.00,0.1081
2865.00,0.1041
2864.00,0.0987
2863.00,0.0925
2862.00,0.0864
2861.00,0.0809
2860.00,0.0765
2859.00,0.0734
2858.00,0.0715
2857.00,0.0708
2856.00,0.0710
2855.00,0.0719
2854.00,0.0735
2853.00,0.0755
2852.00,0.0776
2851.00,0.0796
2850.00,0.0812
2849.00,0.0823
2848.00,0.0831
2847.00,0.0840
2846.00,0.0856
2845.00,0.0881
2844.00,0.0914
2843.00,0.0955
2842.00,0.0998
2841.00,0.1039
2840.00,0.1070
2839.00,0.1085
2838.00,0.1080
2837.00,0.1052
2836.00,0.1000
2835.00,0.0930
2834.00,0.0848
2833.00,0.0763
2832.00,0.0682
2831.00,0.0609
2830.00,0.0547
2829.00,0.0496
2828.00,0.0453
2827.00,0.0418
2826.00,0.0389
2825.00,0.0365
2824.00,0.0344
2823.00,0.0327
2822.00,0.0311
2821.00,0.0298
2820.00,0.0286
2819.00,0.0276
2818.00,0.0267
2817.00,0.0259
2816.00,0.0251
2815.00,0.0244
2814.00,0.0237
2813.00,0.0231
2812.00,0.0224
2811.00,0.0218
2810.00,0.0211
2809.00,0.0204
2808.00,0.0197
2807.00,0.0189
2806.00,0.0182
2805.00,0.0175
2804.00,0.0168
2803.00,0.0161
2802.00,0.0155
2801.00,0.0149
2800.00,0.0144
2799.00,0.0140
2798.00,0.0137
2797.00,0.0134
2796.00,0.0132
2795.00,0.0129
2794.00,0.0126
2793.00,0.0123
2792.00,0.0120
2791.00,0.0117
2790.00,0.0114
2789.00,0.0111
2788.00,0.0108
2787.00,0.0105
2786.00,0.0103
2785.00,0.0100
2784.00,0.0098
2783.00,0.0096
2782.00,0.0094
2781.00,0.0093
2780.00,0.0091
2779.00,0.0089
2778.00,0.0088
2777.00,0.0087
2776.00,0.0086
2775.00,0.0084
2774.00,0.0083
2773.00,0.0082
2772.00,0.0081
2771.00,0.0081
2770.00,0.0081
2769.00,0.0080
2768.00,0.0080
2767.00,0.0079
2766.00,0.0078
2765.00,0.0078
2764.00,0.0078
2763.00,0.0078
2762.00,0.0078
2761.00,0.0077
2760.00,0.0077
2759.00,0.0076
2758.00,0.0076
2757.00,0.0076
2756.00,0.0076
2755.00,0.0076
2754.00,0.0075
2753.00,0.0075
2752.00,0.0074
2751.00,0.0074
2750.00,0.0073
2749.00,0.0073
2748.00,0.0073
2747.00,0.0073
2746.00,0.0074
2745.00,0.0075
2744.00,0.0076
2743.00,0.0076
2742.00,0.0077
2741.00,0.0077
2740.00,0.0078
2739.00,0.0079
2738.00,0.0079
2737.00,0.0080
2736.00,0.0081
2735.00,0.0082
2734.00,0.0083
2733.00,0.0084
2732.00,0.0085
2731.00,0.0087
2730.00,0.0088
2729.00,0.0090
2728.00,0.0092
2727.00,0.0094
2726.00,0.0096
2725.00,0.0098
2724.00,0.0099
2723.00,0.0099
2722.00,0.0098
2721.00,0.0097
2720.00,0.0095
2719.00,0.0092
2718.00,0.0089
2717.00,0.0087
2716.00,0.0085
2715.00,0.0083
2714.00,0.0081
2713.00,0.0079
2712.00,0.0077
2711.00,0.0075
2710.00,0.0074
2709.00,0.0072
2708.00,0.0071
2707.00,0.0070
2706.00,0.0069
2705.00,0.0068
2704.00,0.0067
2703.00,0.0067
2702.00,0.0066
2701.00,0.0065
2700.00,0.0065
2699.00,0.0064
2698.00,0.0064
2697.00,0.0063
2696.00,0.0063
2695.00,0.0063
2694.00,0.0063
2693.00,0.0063
2692.00,0.0063
2691.00,0.0063
2690.00,0.0063
2689.00,0.0063
2688.00,0.0063
2687.00,0.0063
2686.00,0.0063
2685.00,0.0063
2684.00,0.0063
2683.00,0.0063
2682.00,0.0063
2681.00,0.0063
2680.00,0.0063
2679.00,0.0063
2678.00,0.0063
2677.00,0.0064
2676.00,0.0064
2675.00,0.0064
2674.00,0.0063
2673.00,0.0063
2672.00,0.0063
2671.00,0.0063
2670.00,0.0063
2669.00,0.0063
2668.00,0.0063
2667.00,0.0063
2666.00,0.0063
2665.00,0.0064
2664.00,0.0064
2663.00,0.0065
2662.00,0.0065
2661.00,0.0066
2660.00,0.0066
2659.00,0.0066
2658.00,0.0066
2657.00,0.0066
2656.00,0.0065
2655.00,0.0065
2654.00,0.0065
2653.00,0.0064
2652.00,0.0064
2651.00,0.0063
2650.00,0.0063
2649.00,0.0062
2648.00,0.0061
2647.00,0.0061
2646.00,0.0060
2645.00,0.0060
2644.00,0.0060
2643.00,0.0059
2642.00,0.0059
2641.00,0.0058
2640.00,0.0058
2639.00,0.0057
2638.00,0.0057
2637.00,0.0057
2636.00,0.0056
2635.00,0.0056
2634.00,0.0057
2633.00,0.0057
2632.00,0.0057
2631.00,0.0057
2630.00,0.0057
2629.00,0.0057
2628.00,0.0057
2627.00,0.0056
2626.00,0.0056
2625.00,0.0056
2624.00,0.0056
2623.00,0.0056
2622.00,0.0056
2621.00,0.0056
2620.00,0.0056
2619.00,0.0056
2618.00,0.0057
2617.00,0.0057
2616.00,0.0057
2615.00,0.0057
2614.00,0.0056
2613.00,0.0056
2612.00,0.0055
2611.00,0.0055
2610.00,0.0054
2609.00,0.0053
2608.00,0.0051
2607.00,0.0050
2606.00,0.0049
2605.00,0.0049
2604.00,0.0049
2603.00,0.0049
2602.00,0.0049
2601.00,0.0049
2600.00,0.0049
2599.00,0.0049
2598.00,0.0049
2597.00,0.0049
2596.00,0.0049
2595.00,0.0049
2594.00,0.0050
2593.00,0.0050
2592.00,0.0050
2591.00,0.0049
2590.00,0.0049
2589.00,0.0049
2588.00,0.0050
2587.00,0.0051
2586.00,0.0052
2585.00,0.0053
2584.00,0.0053
2583.00,0.0053
2582.00,0.0053
2581.00,0.0052
2580.00,0.0051
2579.00,0.0050
2578.00,0.0050
2577.00,0.0049
2576.00,0.0048
2575.00,0.0047
2574.00,0.0046
2573.00,0.0045
2572.00,0.0044
2571.00,0.0043
2570.00,0.0043
2569.00,0.0043
2568.00,0.0042
2567.00,0.0041
2566.00,0.0041
2565.00,0.0040
2564.00,0.0039
2563.00,0.0039
2562.00,0.0039
2561.00,0.0039
2560.00,0.0039
2559.00,0.0039
2558.00,0.0039
2557.00,0.0039
2556.00,0.0039
2555.00,0.0038
2554.00,0.0038
2553.00,0.0036
2552.00,0.0036
2551.00,0.0035
2550.00,0.0035
2549.00,0.0035
2548.00,0.0036
2547.00,0.0036
2546.00,0.0036
2545.00,0.0035
2544.00,0.0034
2543.00,0.0034
2542.00,0.0033
2541.00,0.0033
2540.00,0.0033
2539.00,0.0033
2538.00,0.0032
2537.00,0.0032
2536.00,0.0032
2535.00,0.0032
2534.00,0.0032
2533.00,0.0031
2532.00,0.0031
2531.00,0.0031
2530.00,0.0030
2529.00,0.0031
2528.00,0.0031
2527.00,0.0031
2526.00,0.0031
2525.00,0.0031
2524.00,0.0031
2523.00,0.0031
2522.00,0.0031
2521.00,0.0031
2520.00,0.0030
2519.00,0.0030
2518.00,0.0029
2517.00,0.0029
2516.00,0.0028
2515.00,0.0028
2514.00,0.0027
2513.00,0.0027
2512.00,0.0027
2511.00,0.0027
2510.00,0.0027
2509.00,0.0027
2508.00,0.0027
2507.00,0.0027
2506.00,0.0027
2505.00,0.0028
2504.00,0.0028
2503.00,0.0028
2502.00,0.0029
2501.00,0.0029
2500.00,0.0029
2499.00,0.0029
2498.00,0.0028
2497.00,0.0028
2496.00,0.0028
2495.00,0.0028
2494.00,0.0027
2493.00,0.0027
2492.00,0.0027
2491.00,0.0027
2490.00,0.0026
2489.00,0.0026
2488.00,0.0025
2487.00,0.0025
2486.00,0.0025
2485.00,0.0026
2484.00,0.0026
2483.00,0.0026
2482.00,0.0026
2481.00,0.0026
2480.00,0.0025
2479.00,0.0025
2478.00,0.0024
2477.00,0.0024
2476.00,0.0025
2475.00,0.0024
2474.00,0.0025
2473.00,0.0025
2472.00,0.0025
2471.00,0.0025
2470.00,0.0025
2469.00,0.0025
2468.00,0.0025
2467.00,0.0025
2466.00,0.0025
2465.00,0.0024
2464.00,0.0024
2463.00,0.0025
2462.00,0.0025
2461.00,0.0025
2460.00,0.0026
2459.00,0.0026
2458.00,0.0026
2457.00,0.0026
2456.00,0.0027
2455.00,0.0027
2454.00,0.0027
2453.00,0.0026
2452.00,0.0026
2451.00,0.0026
2450.00,0.0026
2449.00,0.0025
2448.00,0.0024
2447.00,0.0024
2446.00,0.0024
2445.00,0.0024
2444.00,0.0024
2443.00,0.0024
2442.00,0.0024
2441.00,0.0024
2440.00,0.0025
2439.00,0.0025
2438.00,0.0025
2437.00,0.0025
2436.00,0.0026
2435.00,0.0025
2434.00,0.0025
2433.00,0.0025
2432.00,0.0025
2431.00,0.0025
2430.00,0.0025
2429.00,0.0025
2428.00,0.0025
2427.00,0.0025
2426.00,0.0025
2425.00,0.0025
2424.00,0.0025
2423.00,0.0024
2422.00,0.0024
2421.00,0.0024
2420.00,0.0024
2419.00,0.0024
2418.00,0.0024
2417.00,0.0024
2416.00,0.0024
2415.00,0.0024
2414.00,0.0024
2413.00,0.0024
2412.00,0.0023
2411.00,0.0023
2410.00,0.0023
2409.00,0.0023
2408.00,0.0022
2407.00,0.0021
2406.00,0.0020
2405.00,0.0020
2404.00,0.0020
2403.00,0.0021
2402.00,0.0021
2401.00,0.0022
2400.00,0.0022
2399.00,0.0021
2398.00,0.0021
2397.00,0.0021
2396.00,0.0020
2395.00,0.0020
2394.00,0.0020
2393.00,0.0020
2392.00,0.0020
2391.00,0.0019
2390.00,0.0019
2389.00,0.0019
2388.00,0.0020
2387.00,0.0020
2386.00,0.0020
2385.00,0.0020
2384.00,0.0019
2383.00,0.0019
2382.00,0.0018
2381.00,0.0017
2380.00,0.0017
2379.00,0.0016
2378.00,0.0015
2377.00,0.0015
2376.00,0.0015
2375.00,0.0015
2374.00,0.0016
2373.00,0.0016
2372.00,0.0015
2371.00,0.0014
2370.00,0.0014
2369.00,0.0013
2368.00,0.0012
2367.00,0.0012
2366.00,0.0011
2365.00,0.0011
2364.00,0.0012
2363.00,0.0013
2362.00,0.0014
2361.00,0.0014
2360.00,0.0014
2359.00,0.0014
2358.00,0.0014
2357.00,0.0015
2356.00,0.0016
2355.00,0.0016
2354.00,0.0015
2353.00,0.0015
2352.00,0.0014
2351.00,0.0014
2350.00,0.0014
2349.00,0.0015
2348.00,0.0015
2347.00,0.0015
2346.00,0.0015
2345.00,0.0015
2344.00,0.0016
2343.00,0.0016
2342.00,0.0017
2341.00,0.0017
2340.00,0.0018
2339.00,0.0018
2338.00,0.0018
2337.00,0.0018
2336.00,0.0018
2335.00,0.0018
2334.00,0.0018
2333.00,0.0017
2332.00,0.0016
2331.00,0.0016
2330.00,0.0017
2329.00,0.0018
2328.00,0.0020
2327.00,0.0023
2326.00,0.0026
2325.00,0.0029
2324.00,0.0030
2323.00,0.0029
2322.00,0.0028
2321.00,0.0026
2320.00,0.0026
2319.00,0.0025
2318.00,0.0024
2317.00,0.0023
2316.00,0.0022
2315.00,0.0020
2314.00,0.0019
2313.00,0.0020
2312.00,0.0020
2311.00,0.0020
2310.00,0.0020
2309.00,0.0020
2308.00,0.0020
2307.00,0.0021
2306.00,0.0022
2305.00,0.0022
2304.00,0.0023
2303.00,0.0022
2302.00,0.0022
2301.00,0.0021
2300.00,0.0021
2299.00,0.0022
2298.00,0.0022
2297.00,0.0022
2296.00,0.0022
2295.00,0.0022
2294.00,0.0023
2293.00,0.0024
2292.00,0.0025
2291.00,0.0027
2290.00,0.0028
2289.00,0.0029
2288.00,0.0030
2287.00,0.0030
2286.00,0.0030
2285.00,0.0030
2284.00,0.0029
2283.00,0.0028
2282.00,0.0027
2281.00,0.0026
2280.00,0.0025
2279.00,0.0024
2278.00,0.0024
2277.00,0.0023
2276.00,0.0022
2275.00,0.0022
2274.00,0.0022
2273.00,0.0022
2272.00,0.0023
2271.00,0.0022
2270.00,0.0022
2269.00,0.0022
2268.00,0.0022
2267.00,0.0022
2266.00,0.0022
2265.00,0.0022
2264.00,0.0022
2263.00,0.0022
2262.00,0.0022
2261.00,0.0022
2260.00,0.0022
2259.00,0.0022
2258.00,0.0022
2257.00,0.0021
2256.00,0.0020
2255.00,0.0019
2254.00,0.0019
2253.00,0.0019
2252.00,0.0019
2251.00,0.0018
2250.00,0.0017
2249.00,0.0015
2248.00,0.0015
2247.00,0.0015
2246.00,0.0016
2245.00,0.0018
2244.00,0.0019
2243.00,0.0020
2242.00,0.0020
2241.00,0.0020
2240.00,0.0020
2239.00,0.0020
2238.00,0.0019
2237.00,0.0019
2236.00,0.0019
2235.00,0.0019
2234.00,0.0019
2233.00,0.0018
2232.00,0.0016
2231.00,0.0014
2230.00,0.0013
2229.00,0.0012
2228.00,0.0013
2227.00,0.0014
2226.00,0.0015
2225.00,0.0016
2224.00,0.0017
2223.00,0.0017
2222.00,0.0018
2221.00,0.0018
2220.00,0.0019
2219.00,0.0019
2218.00,0.0019
2217.00,0.0019
2216.00,0.0018
2215.00,0.0017
2214.00,0.0015
2213.00,0.0013
2212.00,0.0013
2211.00,0.0013
2210.00,0.0013
2209.00,0.0013
2208.00,0.0013
2207.00,0.0013
2206.00,0.0013
2205.00,0.0013
2204.00,0.0013
2203.00,0.0014
2202.00,0.0015
2201.00,0.0018
2200.00,0.0019
2199.00,0.0020
2198.00,0.0018
2197.00,0.0015
2196.00,0.0014
2195.00,0.0014
2194.00,0.0015
2193.00,0.0016
2192.00,0.0016
2191.00,0.0015
2190.00,0.0014
2189.00,0.0012
2188.00,0.0011
2187.00,0.0010
2186.00,0.0011
2185.00,0.0014
2184.00,0.0016
2183.00,0.0015
2182.00,0.0012
2181.00,0.0009
2180.00,0.0007
2179.00,0.0008
2178.00,0.0009
2177.00,0.0009
2176.00,0.0008
2175.00,0.0006
2174.00,0.0005
2173.00,0.0006
2172.00,0.0009
2171.00,0.0012
2170.00,0.0015
2169.00,0.0017
2168.00,0.0018
2167.00,0.0017
2166.00,0.0013
2165.00,0.0011
2164.00,0.0011
2163.00,0.0015
2162.00,0.0017
2161.00,0.0014
2160.00,0.0004
2159.00,-0.0010
2158.00,-0.0021
2157.00,-0.0026
2156.00,-0.0026
2155.00,-0.0024
2154.00,-0.0022
2153.00,-0.0019
2152.00,-0.0014
2151.00,-0.0010
2150.00,-0.0007
2149.00,-0.0006
2148.00,-0.0006
2147.00,-0.0007
2146.00,-0.0008
2145.00,-0.0008
2144.00,-0.0008
2143.00,-0.0007
2142.00,-0.0006
2141.00,-0.0003
2140.00,-0.0002
2139.00,-0.0001
2138.00,-0.0001
2137.00,-0.0002
2136.00,-0.0005
2135.00,-0.0008
2134.00,-0.0010
2133.00,-0.0010
2132.00,-0.0008
2131.00,-0.0006
2130.00,-0.0004
2129.00,-0.0003
2128.00,-0.0001
2127.00,0.0001
2126.00,0.0003
2125.00,0.0006
2124.00,0.0009
2123.00,0.0011
2122.00,0.0012
2121.00,0.0011
2120.00,0.0010
2119.00,0.0009
2118.00,0.0010
2117.00,0.0011
2116.00,0.0013
2115.00,0.0014
2114.00,0.0014
2113.00,0.0014
2112.00,0.0014
2111.00,0.0015
2110.00,0.0015
2109.00,0.0014
2108.00,0.0013
2107.00,0.0011
2106.00,0.0010
2105.00,0.0011
2104.00,0.0013
2103.00,0.0014
2102.00,0.0014
2101.00,0.0014
2100.00,0.0013
2099.00,0.0013
2098.00,0.0013
2097.00,0.0012
2096.00,0.0011
2095.00,0.0009
2094.00,0.0008
2093.00,0.0006
2092.00,0.0006
2091.00,0.0007
2090.00,0.0007
2089.00,0.0008
2088.00,0.0007
2087.00,0.0007
2086.00,0.0008
2085.00,0.0010
2084.00,0.0012
2083.00,0.0013
2082.00,0.0013
2081.00,0.0013
2080.00,0.0013
2079.00,0.0014
2078.00,0.0015
2077.00,0.0016
2076.00,0.0016
2075.00,0.0015
2074.00,0.0014
2073.00,0.0013
2072.00,0.0013
2071.00,0.0012
2070.00,0.0012
2069.00,0.0012
2068.00,0.0011
2067.00,0.0011
2066.00,0.0011
2065.00,0.0012
2064.00,0.0012
2063.00,0.0013
2062.00,0.0013
2061.00,0.0013
2060.00,0.0011
2059.00,0.0009
2058.00,0.0007
2057.00,0.0006
2056.00,0.0007
2055.00,0.0008
2054.00,0.0012
2053.00,0.0017
2052.00,0.0023
2051.00,0.0026
2050.00,0.0025
2049.00,0.0021
2048.00,0.0015
2047.00,0.0011
2046.00,0.0009
2045.00,0.0009
2044.00,0.0010
2043.00,0.0010
2042.00,0.0010
2041.00,0.0010
2040.00,0.0010
2039.00,0.0010
2038.00,0.0009
2037.00,0.0010
2036.00,0.0010
2035.00,0.0010
2034.00,0.0009
2033.00,0.0007
2032.00,0.0004
2031.00,0.0001
2030.00,-0.0000
2029.00,0.0001
2028.00,0.0003
2027.00,0.0005
2026.00,0.0005
2025.00,0.0005
2024.00,0.0004
2023.00,0.0002
2022.00,0.0001
2021.00,-0.0000
2020.00,-0.0001
2019.00,-0.0003
2018.00,-0.0003
2017.00,-0.0002
2016.00,-0.0002
2015.00,-0.0004
2014.00,-0.0008
2013.00,-0.0011
2012.00,-0.0011
2011.00,-0.0009
2010.00,-0.0006
2009.00,-0.0004
2008.00,-0.0005
2007.00,-0.0007
2006.00,-0.0009
2005.00,-0.0011
2004.00,-0.0010
2003.00,-0.0009
2002.00,-0.0006
2001.00,-0.0003
2000.00,-0.0002
1999.00,-0.0002
1998.00,-0.0002
1997.00,-0.0002
1996.00,-0.0002
1995.00,-0.0001
1994.00,-0.0001
1993.00,0.0001
1992.00,0.0003
1991.00,0.0004
1990.00,0.0005
1989.00,0.0006
1988.00,0.0008
1987.00,0.0011
1986.00,0.0013
1985.00,0.0016
1984.00,0.0019
1983.00,0.0021
1982.00,0.0023
1981.00,0.0023
1980.00,0.0019
1979.00,0.0012
1978.00,0.0004
1977.00,-0.0003
1976.00,-0.0006
1975.00,-0.0006
1974.00,-0.0004
1973.00,-0.0002
1972.00,-0.0002
1971.00,-0.0004
1970.00,-0.0006
1969.00,-0.0008
1968.00,-0.0009
1967.00,-0.0010
1966.00,-0.0008
1965.00,-0.0005
1964.00,-0.0003
1963.00,-0.0003
1962.00,-0.0005
1961.00,-0.0007
1960.00,-0.0007
1959.00,-0.0006
1958.00,-0.0004
1957.00,-0.0001
1956.00,-0.0000
1955.00,-0.0002
1954.00,-0.0003
1953.00,-0.0003
1952.00,-0.0003
1951.00,-0.0004
1950.00,-0.0005
1949.00,-0.0007
1948.00,-0.0007
1947.00,-0.0007
1946.00,-0.0007
1945.00,-0.0007
1944.00,-0.0005
1943.00,-0.0004
1942.00,-0.0003
1941.00,-0.0003
1940.00,-0.0002
1939.00,-0.0001
1938.00,-0.0001
1937.00,-0.0000
1936.00,0.0000
1935.00,0.0001
1934.00,0.0001
1933.00,0.0002
1932.00,0.0001
1931.00,-0.0001
1930.00,-0.0001
1929.00,0.0000
1928.00,0.0002
1927.00,0.0003
1926.00,0.0004
1925.00,0.0004
1924.00,0.0004
1923.00,0.0004
1922.00,0.0004
1921.00,0.0005
1920.00,0.0005
1919.00,0.0004
1918.00,0.0003
1917.00,0.0002
1916.00,0.0003
1915.00,0.0004
1914.00,0.0006
1913.00,0.0006
1912.00,0.0006
1911.00,0.0006
1910.00,0.0005
1909.00,0.0006
1908.00,0.0006
1907.00,0.0007
1906.00,0.0008
1905.00,0.0008
1904.00,0.0008
1903.00,0.0007
1902.00,0.0007
1901.00,0.0006
1900.00,0.0006
1899.00,0.0006
1898.00,0.0006
1897.00,0.0007
1896.00,0.0008
1895.00,0.0008
1894.00,0.0008
1893.00,0.0007
1892.00,0.0006
1891.00,0.0006
1890.00,0.0006
1889.00,0.0006
1888.00,0.0007
1887.00,0.0006
1886.00,0.0007
1885.00,0.0007
1884.00,0.0008
1883.00,0.0009
1882.00,0.0009
1881.00,0.0009
1880.00,0.0009
1879.00,0.0010
1878.00,0.0010
1877.00,0.0010
1876.00,0.0010
1875.00,0.0009
1874.00,0.0008
1873.00,0.0008
1872.00,0.0007
1871.00,0.0005
1870.00,0.0005
1869.00,0.0005
1868.00,0.0006
1867.00,0.0007
1866.00,0.0008
1865.00,0.0009
1864.00,0.0010
1863.00,0.0010
1862.00,0.0009
1861.00,0.0009
1860.00,0.0009
1859.00,0.0009
1858.00,0.0009
1857.00,0.0010
1856.00,0.0011
1855.00,0.0011
1854.00,0.0011
1853.00,0.0012
1852.00,0.0012
1851.00,0.0011
1850.00,0.0011
1849.00,0.0011
1848.00,0.0011
1847.00,0.0010
1846.00,0.0009
1845.00,0.0009
1844.00,0.0010
1843.00,0.0011
1842.00,0.0011
1841.00,0.0012
1840.00,0.0012
1839.00,0.0012
1838.00,0.0012
1837.00,0.0012
1836.00,0.0013
1835.00,0.0013
1834.00,0.0013
1833.00,0.0013
1832.00,0.0013
1831.00,0.0013
1830.00,0.0014
1829.00,0.0014
1828.00,0.0015
1827.00,0.0015
1826.00,0.0014
1825.00,0.0014
1824.00,0.0014
1823.00,0.0014
1822.00,0.0013
1821.00,0.0013
1820.00,0.0012
1819.00,0.0011
1818.00,0.0010
1817.00,0.0010
1816.00,0.0010
1815.00,0.0011
1814.00,0.0012
1813.00,0.0012
1812.00,0.0012
1811.00,0.0013
1810.00,0.0013
1809.00,0.0013
1808.00,0.0014
1807.00,0.0014
1806.00,0.0015
1805.00,0.0016
1804.00,0.0017
1803.00,0.0017
1802.00,0.0017
1801.00,0.0016
1800.00,0.0016
1799.00,0.0016
1798.00,0.0016
1797.00,0.0016
1796.00,0.0016
1795.00,0.0016
1794.00,0.0017
1793.00,0.0017
1792.00,0.0019
1791.00,0.0019
1790.00,0.0019
1789.00,0.0019
1788.00,0.0019
1787.00,0.0019
1786.00,0.0019
1785.00,0.0019
1784.00,0.0020
1783.00,0.0020
1782.00,0.0020
1781.00,0.0020
1780.00,0.0020
1779.00,0.0019
1778.00,0.0019
1777.00,0.0018
1776.00,0.0018
1775.00,0.0018
1774.00,0.0018
1773.00,0.0019
1772.00,0.0020
1771.00,0.0021
1770.00,0.0022
1769.00,0.0024
1768.00,0.0024
1767.00,0.0025
1766.00,0.0024
1765.00,0.0023
1764.00,0.0023
1763.00,0.0023
1762.00,0.0024
1761.00,0.0025
1760.00,0.0025
1759.00,0.0025
1758.00,0.0026
1757.00,0.0027
1756.00,0.0028
1755.00,0.0028
1754.00,0.0028
1753.00,0.0028
1752.00,0.0029
1751.00,0.0030
1750.00,0.0031
1749.00,0.0032
1748.00,0.0032
1747.00,0.0033
1746.00,0.0033
1745.00,0.0034
1744.00,0.0035
1743.00,0.0036
1742.00,0.0037
1741.00,0.0037
1740.00,0.0038
1739.00,0.0038
1738.00,0.0037
1737.00,0.0037
1736.00,0.0036
1735.00,0.0037
1734.00,0.0037
1733.00,0.0038
1732.00,0.0038
1731.00,0.0038
1730.00,0.0038
1729.00,0.0037
1728.00,0.0038
1727.00,0.0038
1726.00,0.0038
1725.00,0.0038
1724.00,0.0038
1723.00,0.0039
1722.00,0.0039
1721.00,0.0039
1720.00,0.0040
1719.00,0.0041
1718.00,0.0041
1717.00,0.0041
1716.00,0.0042
1715.00,0.0042
1714.00,0.0043
1713.00,0.0044
1712.00,0.0044
1711.00,0.0045
1710.00,0.0046
1709.00,0.0047
1708.00,0.0049
1707.00,0.0051
1706.00,0.0053
1705.00,0.0055
1704.00,0.0058
1703.00,0.0061
1702.00,0.0064
1701.00,0.0068
1700.00,0.0072
1699.00,0.0074
1698.00,0.0075
1697.00,0.0077
1696.00,0.0081
1695.00,0.0084
1694.00,0.0087
1693.00,0.0090
1692.00,0.0093
1691.00,0.0095
1690.00,0.0097
1689.00,0.0099
1688.00,0.0100
1687.00,0.0102
1686.00,0.0103
1685.00,0.0103
1684.00,0.0102
1683.00,0.0101
1682.00,0.0101
1681.00,0.0102
1680.00,0.0102
1679.00,0.0103
1678.00,0.0104
1677.00,0.0105
1676.00,0.0107
1675.00,0.0107
1674.00,0.0106
1673.00,0.0105
1672.00,0.0105
1671.00,0.0106
1670.00,0.0106
1669.00,0.0106
1668.00,0.0106
1667.00,0.0105
1666.00,0.0105
1665.00,0.0106
1664.00,0.0107
1663.00,0.0108
1662.00,0.0108
1661.00,0.0108
1660.00,0.0108
1659.00,0.0108
1658.00,0.0109
1657.00,0.0109
1656.00,0.0110
1655.00,0.0111
1654.00,0.0111
1653.00,0.0113
1652.00,0.0114
1651.00,0.0115
1650.00,0.0116
1649.00,0.0118
1648.00,0.0120
1647.00,0.0122
1646.00,0.0123
1645.00,0.0124
1644.00,0.0123
1643.00,0.0123
1642.00,0.0121
1641.00,0.0120
1640.00,0.0119
1639.00,0.0118
1638.00,0.0116
1637.00,0.0115
1636.00,0.0115
1635.00,0.0115
1634.00,0.0115
1633.00,0.0115
1632.00,0.0115
1631.00,0.0114
1630.00,0.0114
1629.00,0.0114
1628.00,0.0113
1627.00,0.0112
1626.00,0.0110
1625.00,0.0108
1624.00,0.0107
1623.00,0.0105
1622.00,0.0104
1621.00,0.0103
1620.00,0.0103
1619.00,0.0102
1618.00,0.0100
1617.00,0.0098
1616.00,0.0097
1615.00,0.0096
1614.00,0.0096
1613.00,0.0096
1612.00,0.0096
1611.00,0.0096
1610.00,0.0096
1609.00,0.0095
1608.00,0.0095
1607.00,0.0095
1606.00,0.0094
1605.00,0.0094
1604.00,0.0093
1603.00,0.0092
1602.00,0.0091
1601.00,0.0091
1600.00,0.0091
1599.00,0.0091
1598.00,0.0091
1597.00,0.0091
1596.00,0.0091
1595.00,0.0091
1594.00,0.0091
1593.00,0.0092
1592.00,0.0092
1591.00,0.0093
1590.00,0.0093
1589.00,0.0095
1588.00,0.0096
1587.00,0.0098
1586.00,0.0100
1585.00,0.0103
1584.00,0.0106
1583.00,0.0110
1582.00,0.0114
1581.00,0.0117
1580.00,0.0121
1579.00,0.0122
1578.00,0.0123
1577.00,0.0122
1576.00,0.0121
1575.00,0.0121
1574.00,0.0119
1573.00,0.0118
1572.00,0.0116
1571.00,0.0113
1570.00,0.0109
1569.00,0.0106
1568.00,0.0103
1567.00,0.0102
1566.00,0.0101
1565.00,0.0100
1564.00,0.0100
1563.00,0.0100
1562.00,0.0100
1561.00,0.0101
1560.00,0.0102
1559.00,0.0101
1558.00,0.0102
1557.00,0.0105
1556.00,0.0107
1555.00,0.0108
1554.00,0.0110
1553.00,0.0112
1552.00,0.0115
1551.00,0.0118
1550.00,0.0122
1549.00,0.0125
1548.00,0.0129
1547.00,0.0133
1546.00,0.0138
1545.00,0.0143
1544.00,0.0148
1543.00,0.0152
1542.00,0.0153
1541.00,0.0153
1540.00,0.0151
1539.00,0.0146
1538.00,0.0142
1537.00,0.0139
1536.00,0.0137
1535.00,0.0133
1534.00,0.0126
1533.00,0.0119
1532.00,0.0114
1531.00,0.0111
1530.00,0.0108
1529.00,0.0107
1528.00,0.0106
1527.00,0.0104
1526.00,0.0101
1525.00,0.0098
1524.00,0.0097
1523.00,0.0095
1522.00,0.0094
1521.00,0.0094
1520.00,0.0095
1519.00,0.0095
1518.00,0.0094
1517.00,0.0094
1516.00,0.0094
1515.00,0.0095
1514.00,0.0095
1513.00,0.0096
1512.00,0.0097
1511.00,0.0097
1510.00,0.0097
1509.00,0.0097
1508.00,0.0098
1507.00,0.0098
1506.00,0.0098
1505.00,0.0099
1504.00,0.0100
1503.00,0.0101
1502.00,0.0103
1501.00,0.0106
1500.00,0.0110
1499.00,0.0112
1498.00,0.0115
1497.00,0.0119
1496.00,0.0124
1495.00,0.0128
1494.00,0.0131
1493.00,0.0135
1492.00,0.0140
1491.00,0.0146
1490.00,0.0152
1489.00,0.0160
1488.00,0.0168
1487.00,0.0176
1486.00,0.0184
1485.00,0.0194
1484.00,0.0205
1483.00,0.0217
1482.00,0.0231
1481.00,0.0248
1480.00,0.0266
1479.00,0.0283
1478.00,0.0301
1477.00,0.0324
1476.00,0.0350
1475.00,0.0378
1474.00,0.0414
1473.00,0.0464
1472.00,0.0523
1471.00,0.0577
1470.00,0.0628
1469.00,0.0682
1468.00,0.0739
1467.00,0.0802
1466.00,0.0874
1465.00,0.0952
1464.00,0.1020
1463.00,0.1066
1462.00,0.1095
1461.00,0.1115
1460.00,0.1129
1459.00,0.1139
1458.00,0.1147
1457.00,0.1154
1456.00,0.1154
1455.00,0.1147
1454.00,0.1137
1453.00,0.1123
1452.00,0.1101
1451.00,0.1070
1450.00,0.1028
1449.00,0.0970
1448.00,0.0895
1447.00,0.0816
1446.00,0.0743
1445.00,0.0681
1444.00,0.0627
1443.00,0.0581
1442.00,0.0546
1441.00,0.0521
1440.00,0.0505
1439.00,0.0497
1438.00,0.0496
1437.00,0.0495
1436.00,0.0485
1435.00,0.0462
1434.00,0.0431
1433.00,0.0394
1432.00,0.0356
1431.00,0.0323
1430.00,0.0297
1429.00,0.0277
1428.00,0.0264
1427.00,0.0256
1426.00,0.0251
1425.00,0.0247
1424.00,0.0243
1423.00,0.0241
1422.00,0.0240
1421.00,0.0239
1420.00,0.0237
1419.00,0.0236
1418.00,0.0235
1417.00,0.0232
1416.00,0.0228
1415.00,0.0226
1414.00,0.0224
1413.00,0.0221
1412.00,0.0218
1411.00,0.0216
1410.00,0.0215
1409.00,0.0213
1408.00,0.0211
1407.00,0.0209
1406.00,0.0208
1405.00,0.0206
1404.00,0.0204
1403.00,0.0202
1402.00,0.0202
1401.00,0.0202
1400.00,0.0202
1399.00,0.0203
1398.00,0.0204
1397.00,0.0206
1396.00,0.0208
1395.00,0.0211
1394.00,0.0215
1393.00,0.0219
1392.00,0.0223
1391.00,0.0230
1390.00,0.0239
1389.00,0.0253
1388.00,0.0272
1387.00,0.0300
1386.00,0.0338
1385.00,0.0388
1384.00,0.0455
1383.00,0.0549
1382.00,0.0675
1381.00,0.0837
1380.00,0.1036
1379.00,0.1262
1378.00,0.1481
1377.00,0.1643
1376.00,0.1700
1375.00,0.1626
1374.00,0.1442
1373.00,0.1216
1372.00,0.1008
1371.00,0.0836
1370.00,0.0697
1369.00,0.0591
1368.00,0.0515
1367.00,0.0468
1366.00,0.0440
1365.00,0.0428
1364.00,0.0427
1363.00,0.0435
1362.00,0.0448
1361.00,0.0463
1360.00,0.0473
1359.00,0.0475
1358.00,0.0464
1357.00,0.0442
1356.00,0.0412
1355.00,0.0379
1354.00,0.0346
1353.00,0.0319
1352.00,0.0297
1351.00,0.0280
1350.00,0.0266
1349.00,0.0255
1348.00,0.0245
1347.00,0.0237
1346.00,0.0230
1345.00,0.0225
1344.00,0.0220
1343.00,0.0217
1342.00,0.0215
1341.00,0.0214
1340.00,0.0213
1339.00,0.0212
1338.00,0.0212
1337.00,0.0211
1336.00,0.0212
1335.00,0.0213
1334.00,0.0215
1333.00,0.0218
1332.00,0.0221
1331.00,0.0224
1330.00,0.0224
1329.00,0.0223
1328.00,0.0220
1327.00,0.0217
1326.00,0.0213
1325.00,0.0209
1324.00,0.0205
1323.00,0.0203
1322.00,0.0201
1321.00,0.0200
1320.00,0.0199
1319.00,0.0198
1318.00,0.0198
1317.00,0.0197
1316.00,0.0196
1315.00,0.0196
1314.00,0.0196
1313.00,0.0196
1312.00,0.0196
1311.00,0.0197
1310.00,0.0199
1309.00,0.0203
1308.00,0.0210
1307.00,0.0218
1306.00,0.0226
1305.00,0.0232
1304.00,0.0232
1303.00,0.0229
1302.00,0.0223
1301.00,0.0218
1300.00,0.0215
1299.00,0.0213
1298.00,0.0213
1297.00,0.0213
1296.00,0.0212
1295.00,0.0210
1294.00,0.0206
1293.00,0.0203
1292.00,0.0199
1291.00,0.0195
1290.00,0.0191
1289.00,0.0188
1288.00,0.0185
1287.00,0.0183
1286.00,0.0181
1285.00,0.0179
1284.00,0.0176
1283.00,0.0174
1282.00,0.0172
1281.00,0.0170
1280.00,0.0169
1279.00,0.0168
1278.00,0.0167
1277.00,0.0166
1276.00,0.0166
1275.00,0.0166
1274.00,0.0167
1273.00,0.0169
1272.00,0.0171
1271.00,0.0173
1270.00,0.0176
1269.00,0.0180
1268.00,0.0185
1267.00,0.0190
1266.00,0.0194
1265.00,0.0198
1264.00,0.0201
1263.00,0.0203
1262.00,0.0204
1261.00,0.0206
1260.00,0.0207
1259.00,0.0210
1258.00,0.0212
1257.00,0.0212
1256.00,0.0210
1255.00,0.0205
1254.00,0.0197
1253.00,0.0188
1252.00,0.0179
1251.00,0.0172
1250.00,0.0167
1249.00,0.0163
1248.00,0.0160
1247.00,0.0158
1246.00,0.0157
1245.00,0.0155
1244.00,0.0154
1243.00,0.0153
1242.00,0.0152
1241.00,0.0152
1240.00,0.0151
1239.00,0.0151
1238.00,0.0150
1237.00,0.0149
1236.00,0.0149
1235.00,0.0148
1234.00,0.0148
1233.00,0.0148
1232.00,0.0148
1231.00,0.0148
1230.00,0.0148
1229.00,0.0149
1228.00,0.0150
1227.00,0.0152
1226.00,0.0155
1225.00,0.0159
1224.00,0.0163
1223.00,0.0168
1222.00,0.0173
1221.00,0.0178
1220.00,0.0183
1219.00,0.0187
1218.00,0.0191
1217.00,0.0193
1216.00,0.0195
1215.00,0.0195
1214.00,0.0195
1213.00,0.0195
1212.00,0.0194
1211.00,0.0193
1210.00,0.0193
1209.00,0.0192
1208.00,0.0192
1207.00,0.0193
1206.00,0.0194
1205.00,0.0195
1204.00,0.0197
1203.00,0.0198
1202.00,0.0199
1201.00,0.0200
1200.00,0.0201
1199.00,0.0202
1198.00,0.0204
1197.00,0.0206
1196.00,0.0207
1195.00,0.0208
1194.00,0.0208
1193.00,0.0209
1192.00,0.0210
1191.00,0.0211
1190.00,0.0212
1189.00,0.0213
1188.00,0.0213
1187.00,0.0214
1186.00,0.0214
1185.00,0.0213
1184.00,0.0214
1183.00,0.0216
1182.00,0.0219
1181.00,0.0222
1180.00,0.0227
1179.00,0.0233
1178.00,0.0240
1177.00,0.0248
1176.00,0.0260
1175.00,0.0275
1174.00,0.0295
1173.00,0.0320
1172.00,0.0349
1171.00,0.0381
1170.00,0.0413
1169.00,0.0440
1168.00,0.0458
1167.00,0.0466
1166.00,0.0464
1165.00,0.0458
1164.00,0.0449
1163.00,0.0442
1162.00,0.0437
1161.00,0.0435
1160.00,0.0435
1159.00,0.0436
1158.00,0.0440
1157.00,0.0444
1156.00,0.0450
1155.00,0.0456
1154.00,0.0461
1153.00,0.0464
1152.00,0.0465
1151.00,0.0463
1150.00,0.0459
1149.00,0.0453
1148.00,0.0448
1147.00,0.0444
1146.00,0.0440
1145.00,0.0436
1144.00,0.0433
1143.00,0.0430
1142.00,0.0428
1141.00,0.0427
1140.00,0.0427
1139.00,0.0429
1138.00,0.0432
1137.00,0.0437
1136.00,0.0444
1135.00,0.0451
1134.00,0.0460
1133.00,0.0469
1132.00,0.0479
1131.00,0.0489
1130.00,0.0500
1129.00,0.0511
1128.00,0.0521
1127.00,0.0531
1126.00,0.0540
1125.00,0.0549
1124.00,0.0557
1123.00,0.0565
1122.00,0.0571
1121.00,0.0578
1120.00,0.0584
1119.00,0.0590
1118.00,0.0595
1117.00,0.0600
1116.00,0.0604
1115.00,0.0607
1114.00,0.0609
1113.00,0.0610
1112.00,0.0612
1111.00,0.0614
1110.00,0.0616
1109.00,0.0618
1108.00,0.0621
1107.00,0.0625
1106.00,0.0629
1105.00,0.0634
1104.00,0.0638
1103.00,0.0641
1102.00,0.0641
1101.00,0.0639
1100.00,0.0635
1099.00,0.0631
1098.00,0.0626
1097.00,0.0621
1096.00,0.0618
1095.00,0.0615
1094.00,0.0613
1093.00,0.0612
1092.00,0.0613
1091.00,0.0614
1090.00,0.0616
1089.00,0.0619
1088.00,0.0623
1087.00,0.0628
1086.00,0.0633
1085.00,0.0639
1084.00,0.0646
1083.00,0.0652
1082.00,0.0658
1081.00,0.0664
1080.00,0.0669
1079.00,0.0673
1078.00,0.0677
1077.00,0.0681
1076.00,0.0684
1075.00,0.0687
1074.00,0.0690
1073.00,0.0693
1072.00,0.0695
1071.00,0.0697
1070.00,0.0699
1069.00,0.0702
1068.00,0.0704
1067.00,0.0706
1066.00,0.0708
1065.00,0.0709
1064.00,0.0711
1063.00,0.0712
1062.00,0.0712
1061.00,0.0710
1060.00,0.0708
1059.00,0.0706
1058.00,0.0702
1057.00,0.0697
1056.00,0.0693
1055.00,0.0688
1054.00,0.0683
1053.00,0.0678
1052.00,0.0672
1051.00,0.0666
1050.00,0.0659
1049.00,0.0653
1048.00,0.0648
1047.00,0.0643
1046.00,0.0638
1045.00,0.0632
1044.00,0.0624
1043.00,0.0614
1042.00,0.0604
1041.00,0.0594
1040.00,0.0585
1039.00,0.0577
1038.00,0.0570
1037.00,0.0563
1036.00,0.0556
1035.00,0.0550
1034.00,0.0542
1033.00,0.0535
1032.00,0.0526
1031.00,0.0518
1030.00,0.0510
1029.00,0.0502
1028.00,0.0496
1027.00,0.0489
1026.00,0.0482
1025.00,0.0475
1024.00,0.0469
1023.00,0.0463
1022.00,0.0456
1021.00,0.0449
1020.00,0.0441
1019.00,0.0434
1018.00,0.0427
1017.00,0.0421
1016.00,0.0416
1015.00,0.0411
1014.00,0.0405
1013.00,0.0400
1012.00,0.0395
1011.00,0.0389
1010.00,0.0382
1009.00,0.0376
1008.00,0.0371
1007.00,0.0368
1006.00,0.0366
1005.00,0.0368
1004.00,0.0375
1003.00,0.0388
1002.00,0.0409
1001.00,0.0437
1000.00,0.0467
999.00,0.0491
998.00,0.0499
997.00,0.0486
996.00,0.0455
995.00,0.0414
994.00,0.0371
993.00,0.0334
992.00,0.0304
991.00,0.0281
990.00,0.0263
989.00,0.0250
988.00,0.0241
987.00,0.0235
986.00,0.0231
985.00,0.0229
984.00,0.0229
983.00,0.0233
982.00,0.0242
981.00,0.0256
980.00,0.0275
979.00,0.0300
978.00,0.0331
977.00,0.0369
976.00,0.0411
975.00,0.0450
974.00,0.0478
973.00,0.0488
972.00,0.0473
971.00,0.0437
970.00,0.0391
969.00,0.0346
968.00,0.0309
967.00,0.0282
966.00,0.0265
965.00,0.0254
964.00,0.0248
963.00,0.0244
962.00,0.0242
961.00,0.0241
960.00,0.0241
959.00,0.0242
958.00,0.0244
957.00,0.0246
956.00,0.0248
955.00,0.0250
954.00,0.0252
953.00,0.0254
952.00,0.0256
951.00,0.0257
950.00,0.0259
949.00,0.0260
948.00,0.0261
947.00,0.0261
946.00,0.0260
945.00,0.0258
944.00,0.0257
943.00,0.0256
942.00,0.0254
941.00,0.0249
940.00,0.0243
939.00,0.0235
938.00,0.0227
937.00,0.0218
936.00,0.0209
935.00,0.0201
934.00,0.0195
933.00,0.0190
932.00,0.0187
931.00,0.0184
930.00,0.0183
929.00,0.0181
928.00,0.0179
927.00,0.0177
926.00,0.0175
925.00,0.0172
924.00,0.0169
923.00,0.0166
922.00,0.0163
921.00,0.0160
920.00,0.0158
919.00,0.0157
918.00,0.0156
917.00,0.0155
916.00,0.0154
915.00,0.0153
914.00,0.0151
913.00,0.0151
912.00,0.0151
911.00,0.0152
910.00,0.0153
909.00,0.0154
908.00,0.0156
907.00,0.0160
906.00,0.0165
905.00,0.0173
904.00,0.0184
903.00,0.0198
902.00,0.0214
901.00,0.0228
900.00,0.0239
899.00,0.0241
898.00,0.0235
897.00,0.0222
896.00,0.0207
895.00,0.0191
894.00,0.0179
893.00,0.0169
892.00,0.0162
891.00,0.0157
890.00,0.0152
889.00,0.0149
888.00,0.0146
887.00,0.0145
886.00,0.0142
885.00,0.0139
884.00,0.0136
883.00,0.0133
882.00,0.0131
881.00,0.0131
880.00,0.0132
879.00,0.0134
878.00,0.0137
877.00,0.0139
876.00,0.0138
875.00,0.0137
874.00,0.0136
873.00,0.0134
872.00,0.0132
871.00,0.0130
870.00,0.0129
869.00,0.0128
868.00,0.0127
867.00,0.0127
866.00,0.0126
865.00,0.0126
864.00,0.0127
863.00,0.0129
862.00,0.0130
861.00,0.0131
860.00,0.0132
859.00,0.0133
858.00,0.0135
857.00,0.0138
856.00,0.0140
855.00,0.0142
854.00,0.0143
853.00,0.0145
852.00,0.0147
851.00,0.0150
850.00,0.0155
849.00,0.0162
848.00,0.0171
847.00,0.0184
846.00,0.0203
845.00,0.0232
844.00,0.0272
843.00,0.0319
842.00,0.0356
841.00,0.0366
840.00,0.0343
839.00,0.0298
838.00,0.0252
837.00,0.0216
836.00,0.0194
835.00,0.0180
834.00,0.0171
833.00,0.0165
832.00,0.0161
831.00,0.0158
830.00,0.0156
829.00,0.0156
828.00,0.0157
827.00,0.0158
826.00,0.0159
825.00,0.0161
824.00,0.0162
823.00,0.0163
822.00,0.0164
821.00,0.0166
820.00,0.0167
819.00,0.0170
818.00,0.0174
817.00,0.0179
816.00,0.0187
815.00,0.0198
814.00,0.0212
813.00,0.0230
812.00,0.0249
811.00,0.0266
810.00,0.0279
809.00,0.0284
808.00,0.0281
807.00,0.0271
806.00,0.0256
805.00,0.0240
804.00,0.0226
803.00,0.0214
802.00,0.0205
801.00,0.0197
800.00,0.0191
799.00,0.0187
798.00,0.0182
797.00,0.0178
796.00,0.0174
795.00,0.0169
794.00,0.0165
793.00,0.0162
792.00,0.0159
791.00,0.0157
790.00,0.0155
789.00,0.0153
788.00,0.0150
787.00,0.0148
786.00,0.0146
785.00,0.0143
784.00,0.0141
783.00,0.0140
782.00,0.0139
781.00,0.0139
780.00,0.0139
779.00,0.0139
778.00,0.0139
777.00,0.0140
776.00,0.0141
775.00,0.0141
774.00,0.0140
773.00,0.0138
772.00,0.0137
771.00,0.0137
770.00,0.0138
769.00,0.0138
768.00,0.0138
767.00,0.0136
766.00,0.0134
765.00,0.0132
764.00,0.0131
763.00,0.0129
762.00,0.0128
761.00,0.0127
760.00,0.0127
759.00,0.0127
758.00,0.0126
757.00,0.0126
756.00,0.0126
755.00,0.0127
754.00,0.0128
753.00,0.0129
752.00,0.0130
751.00,0.0130
750.00,0.0130
749.00,0.0130
748.00,0.0131
747.00,0.0132
746.00,0.0135
745.00,0.0138
744.00,0.0141
743.00,0.0143
742.00,0.0145
741.00,0.0149
740.00,0.0152
739.00,0.0156
738.00,0.0160
737.00,0.0164
736.00,0.0169
735.00,0.0174
734.00,0.0178
733.00,0.0183
732.00,0.0189
731.00,0.0196
730.00,0.0202
729.00,0.0205
728.00,0.0206
727.00,0.0206
726.00,0.0209
725.00,0.0213
724.00,0.0219
723.00,0.0225
722.00,0.0231
721.00,0.0234
720.00,0.0234
719.00,0.0227
718.00,0.0217
717.00,0.0207
716.00,0.0199
715.00,0.0195
714.00,0.0192
713.00,0.0190
712.00,0.0188
711.00,0.0185
710.00,0.0182
709.00,0.0179
708.00,0.0177
707.00,0.0176
706.00,0.0176
705.00,0.0176
704.00,0.0175
703.00,0.0174
702.00,0.0171
701.00,0.0169
700.00,0.0166
699.00,0.0164
698.00,0.0163
697.00,0.0163
696.00,0.0162
695.00,0.0161
694.00,0.0160
693.00,0.0159
692.00,0.0160
691.00,0.0161
690.00,0.0161
689.00,0.0162
688.00,0.0163
687.00,0.0164
686.00,0.0164
685.00,0.0163
684.00,0.0164
683.00,0.0166
682.00,0.0169
681.00,0.0171
680.00,0.0174
679.00,0.0177
678.00,0.0181
677.00,0.0183
676.00,0.0184
675.00,0.0185
674.00,0.0187
673.00,0.0189
672.00,0.0193
671.00,0.0197
670.00,0.0202
669.00,0.0207
668.00,0.0212
667.00,0.0213
666.00,0.0212
665.00,0.0209
664.00,0.0207
663.00,0.0205
662.00,0.0204
661.00,0.0205
660.00,0.0206
659.00,0.0206
658.00,0.0205
657.00,0.0203
656.00,0.0201
655.00,0.0200
654.00,0.0200
653.00,0.0201
652.00,0.0202
651.00,0.0203
650.00,0.0205
649.00,0.0205
648.00,0.0204
647.00,0.0203
646.00,0.0203
645.00,0.0203
644.00,0.0203
643.00,0.0203
642.00,0.0204
641.00,0.0205
640.00,0.0206
639.00,0.0207
638.00,0.0208
637.00,0.0209
636.00,0.0210
635.00,0.0212
634.00,0.0214
633.00,0.0215
632.00,0.0214
631.00,0.0213
630.00,0.0212
629.00,0.0212
628.00,0.0214
627.00,0.0217
626.00,0.0219
625.00,0.0221
624.00,0.0224
623.00,0.0227
622.00,0.0230
621.00,0.0231
620.00,0.0231
619.00,0.0229
618.00,0.0226
617.00,0.0224
616.00,0.0224
615.00,0.0226
614.00,0.0230
613.00,0.0233
612.00,0.0235
611.00,0.0236
610.00,0.0236
609.00,0.0235
608.00,0.0233
607.00,0.0233
606.00,0.0232
605.00,0.0230
604.00,0.0228
603.00,0.0228
602.00,0.0230
601.00,0.0231
600.00,0.0231
599.00,0.0229
598.00,0.0229
597.00,0.0230
596.00,0.0233
595.00,0.0235
594.00,0.0236
593.00,0.0236
592.00,0.0235
591.00,0.0236
590.00,0.0239
589.00,0.0241
588.00,0.0242
587.00,0.0241
586.00,0.0238
585.00,0.0235
584.00,0.0233
583.00,0.0232
582.00,0.0232
581.00,0.0233
580.00,0.0236
579.00,0.0240
578.00,0.0242
577.00,0.0243
576.00,0.0243
575.00,0.0242
574.00,0.0240
573.00,0.0236
572.00,0.0233
571.00,0.0233
570.00,0.0235
569.00,0.0237
568.00,0.0238
567.00,0.0239
566.00,0.0240
565.00,0.0243
564.00,0.0245
563.00,0.0245
562.00,0.0244
561.00,0.0241
560.00,0.0239
559.00,0.0238
558.00,0.0236
557.00,0.0234
556.00,0.0232
555.00,0.0232
554.00,0.0233
553.00,0.0234
552.00,0.0235
551.00,0.0235
550.00,0.0236
549.00,0.0239
548.00,0.0241
547.00,0.0240
546.00,0.0236
545.00,0.0234
544.00,0.0233
543.00,0.0232
542.00,0.0231
541.00,0.0231
540.00,0.0233
539.00,0.0238
538.00,0.0243
537.00,0.0247
536.00,0.0248
535.00,0.0247
534.00,0.0246
533.00,0.0246
532.00,0.0246
531.00,0.0245
530.00,0.0240
529.00,0.0234
528.00,0.0231
527.00,0.0233
526.00,0.0238
525.00,0.0242
524.00,0.0244
523.00,0.0244
522.00,0.0241
521.00,0.0235
520.00,0.0227
519.00,0.0221
518.00,0.0215
517.00,0.0211
516.00,0.0211
515.00,0.0216
514.00,0.0222
513.00,0.0225
512.00,0.0223
511.00,0.0218
510.00,0.0216
509.00,0.0217
508.00,0.0220
507.00,0.0220
506.00,0.0221
505.00,0.0223
504.00,0.0224
503.00,0.0222
502.00,0.0217
501.00,0.0211
500.00,0.0211
499.00,0.0215
498.00,0.0218
497.00,0.0218
496.00,0.0215
495.00,0.0212
494.00,0.0213
493.00,0.0214
492.00,0.0212
491.00,0.0206
490.00,0.0203
489.00,0.0204
488.00,0.0211
487.00,0.0216
486.00,0.0217
485.00,0.0212
484.00,0.0208
483.00,0.0207
482.00,0.0210
481.00,0.0215
480.00,0.0220
479.00,0.0224
478.00,0.0226
477.00,0.0226
476.00,0.0225
475.00,0.0223
474.00,0.0221
473.00,0.0219
472.00,0.0220
471.00,0.0225
470.00,0.0231
469.00,0.0235
468.00,0.0238
467.00,0.0241
466.00,0.0243
465.00,0.0241
464.00,0.0233
463.00,0.0227
462.00,0.0229
461.00,0.0241
460.00,0.0258
459.00,0.0272
458.00,0.0276
457.00,0.0272
456.00,0.0268
455.00,0.0266
454.00,0.0264
453.00,0.0258
452.00,0.0250
451.00,0.0243
450.00,0.0237
