Created as New Dataset,Sample 117 By Administrator Date Tuesday, September 09 2025
cm-1,A
4000.00,0.0006
3999.00,0.0007
3998.00,0.0007
3997.00,0.0007
3996.00,0.0007
3995.00,0.0007
3994.00,0.0007
3993.00,0.0007
3992.00,0.0007
3991.00,0.0007
3990.00,0.0007
3989.00,0.0006
3988.00,0.0006
3987.00,0.0006
3986.00,0.0006
3985.00,0.0006
3984.00,0.0006
3983.00,0.0006
3982.00,0.0006
3981.00,0.0006
3980.00,0.0007
3979.00,0.0007
3978.00,0.0006
3977.00,0.0006
3976.00,0.0006
3975.00,0.0006
3974.00,0.0006
3973.00,0.0006
3972.00,0.0006
3971.00,0.0005
3970.00,0.0005
3969.00,0.0005
3968.00,0.0005
3967.00,0.0004
3966.00,0.0004
3965.00,0.0004
3964.00,0.0004
3963.00,0.0004
3962.00,0.0004
3961.00,0.0005
3960.00,0.0005
3959.00,0.0005
3958.00,0.0005
3957.00,0.0005
3956.00,0.0005
3955.00,0.0004
3954.00,0.0004
3953.00,0.0004
3952.00,0.0004
3951.00,0.0004
3950.00,0.0005
3949.00,0.0005
3948.00,0.0005
3947.00,0.0005
3946.00,0.0005
3945.00,0.0004
3944.00,0.0004
3943.00,0.0005
3942.00,0.0005
3941.00,0.0005
3940.00,0.0005
3939.00,0.0005
3938.00,0.0005
3937.00,0.0005
3936.00,0.0005
3935.00,0.0005
3934.00,0.0005
3933.00,0.0006
3932.00,0.0006
3931.00,0.0006
3930.00,0.0005
3929.00,0.0005
3928.00,0.0005
3927.00,0.0004
3926.00,0.0004
3925.00,0.0004
3924.00,0.0005
3923.00,0.0005
3922.00,0.0006
3921.00,0.0006
3920.00,0.0006
3919.00,0.0006
3918.00,0.0005
3917.00,0.0005
3916.00,0.0005
3915.00,0.0004
3914.00,0.0004
3913.00,0.0004
3912.00,0.0004
3911.00,0.0004
3910.00,0.0004
3909.00,0.0005
3908.00,0.0005
3907.00,0.0005
3906.00,0.0005
3905.00,0.0006
3904.00,0.0006
3903.00,0.0006
3902.00,0.0006
3901.00,0.0006
3900.00,0.0006
3899.00,0.0006
3898.00,0.0006
3897.00,0.0006
3896.00,0.0006
3895.00,0.0005
3894.00,0.0005
3893.00,0.0005
3892.00,0.0005
3891.00,0.0005
3890.00,0.0005
3889.00,0.0006
3888.00,0.0006
3887.00,0.0005
3886.00,0.0005
3885.00,0.0005
3884.00,0.0005
3883.00,0.0005
3882.00,0.0005
3881.00,0.0005
3880.00,0.0005
3879.00,0.0005
3878.00,0.0005
3877.00,0.0005
3876.00,0.0005
3875.00,0.0005
3874.00,0.0006
3873.00,0.0006
3872.00,0.0006
3871.00,0.0005
3870.00,0.0005
3869.00,0.0006
3868.00,0.0006
3867.00,0.0005
3866.00,0.0005
3865.00,0.0005
3864.00,0.0005
3863.00,0.0006
3862.00,0.0006
3861.00,0.0005
3860.00,0.0005
3859.00,0.0006
3858.00,0.0006
3857.00,0.0007
3856.00,0.0007
3855.00,0.0007
3854.00,0.0006
3853.00,0.0006
3852.00,0.0006
3851.00,0.0006
3850.00,0.0005
3849.00,0.0005
3848.00,0.0005
3847.00,0.0005
3846.00,0.0005
3845.00,0.0005
3844.00,0.0005
3843.00,0.0005
3842.00,0.0005
3841.00,0.0005
3840.00,0.0005
3839.00,0.0005
3838.00,0.0005
3837.00,0.0005
3836.00,0.0005
3835.00,0.0005
3834.00,0.0005
3833.00,0.0005
3832.00,0.0005
3831.00,0.0005
3830.00,0.0005
3829.00,0.0005
3828.00,0.0004
3827.00,0.0004
3826.00,0.0005
3825.00,0.0005
3824.00,0.0005
3823.00,0.0005
3822.00,0.0005
3821.00,0.0005
3820.00,0.0005
3819.00,0.0005
3818.00,0.0005
3817.00,0.0004
3816.00,0.0005
3815.00,0.0005
3814.00,0.0006
3813.00,0.0006
3812.00,0.0006
3811.00,0.0006
3810.00,0.0007
3809.00,0.0006
3808.00,0.0005
3807.00,0.0005
3806.00,0.0005
3805.00,0.0005
3804.00,0.0005
3803.00,0.0005
3802.00,0.0005
3801.00,0.0005
3800.00,0.0006
3799.00,0.0005
3798.00,0.0005
3797.00,0.0005
3796.00,0.0005
3795.00,0.0005
3794.00,0.0005
3793.00,0.0005
3792.00,0.0005
3791.00,0.0005
3790.00,0.0005
3789.00,0.0005
3788.00,0.0006
3787.00,0.0005
3786.00,0.0005
3785.00,0.0005
3784.00,0.0004
3783.00,0.0004
3782.00,0.0004
3781.00,0.0004
3780.00,0.0004
3779.00,0.0004
3778.00,0.0004
3777.00,0.0004
3776.00,0.0005
3775.00,0.0005
3774.00,0.0005
3773.00,0.0005
3772.00,0.0005
3771.00,0.0005
3770.00,0.0005
3769.00,0.0005
3768.00,0.0005
3767.00,0.0005
3766.00,0.0005
3765.00,0.0005
3764.00,0.0005
3763.00,0.0005
3762.00,0.0005
3761.00,0.0005
3760.00,0.0005
3759.00,0.0006
3758.00,0.0006
3757.00,0.0006
3756.00,0.0006
3755.00,0.0006
3754.00,0.0006
3753.00,0.0006
3752.00,0.0006
3751.00,0.0005
3750.00,0.0005
3749.00,0.0006
3748.00,0.0006
3747.00,0.0006
3746.00,0.0006
3745.00,0.0006
3744.00,0.0006
3743.00,0.0006
3742.00,0.0006
3741.00,0.0005
3740.00,0.0005
3739.00,0.0005
3738.00,0.0005
3737.00,0.0005
3736.00,0.0005
3735.00,0.0005
3734.00,0.0005
3733.00,0.0005
3732.00,0.0005
3731.00,0.0005
3730.00,0.0005
3729.00,0.0005
3728.00,0.0004
3727.00,0.0004
3726.00,0.0004
3725.00,0.0004
3724.00,0.0004
3723.00,0.0004
3722.00,0.0005
3721.00,0.0005
3720.00,0.0005
3719.00,0.0004
3718.00,0.0004
3717.00,0.0004
3716.00,0.0004
3715.00,0.0005
3714.00,0.0005
3713.00,0.0005
3712.00,0.0005
3711.00,0.0005
3710.00,0.0005
3709.00,0.0004
3708.00,0.0004
3707.00,0.0004
3706.00,0.0004
3705.00,0.0004
3704.00,0.0003
3703.00,0.0003
3702.00,0.0003
3701.00,0.0003
3700.00,0.0003
3699.00,0.0003
3698.00,0.0003
3697.00,0.0003
3696.00,0.0003
3695.00,0.0003
3694.00,0.0003
3693.00,0.0003
3692.00,0.0003
3691.00,0.0003
3690.00,0.0003
3689.00,0.0004
3688.00,0.0004
3687.00,0.0004
3686.00,0.0005
3685.00,0.0004
3684.00,0.0004
3683.00,0.0004
3682.00,0.0004
3681.00,0.0004
3680.00,0.0005
3679.00,0.0006
3678.00,0.0006
3677.00,0.0006
3676.00,0.0006
3675.00,0.0005
3674.00,0.0005
3673.00,0.0005
3672.00,0.0004
3671.00,0.0004
3670.00,0.0004
3669.00,0.0004
3668.00,0.0004
3667.00,0.0003
3666.00,0.0003
3665.00,0.0004
3664.00,0.0004
3663.00,0.0004
3662.00,0.0004
3661.00,0.0004
3660.00,0.0004
3659.00,0.0004
3658.00,0.0004
3657.00,0.0004
3656.00,0.0004
3655.00,0.0004
3654.00,0.0004
3653.00,0.0004
3652.00,0.0004
3651.00,0.0004
3650.00,0.0004
3649.00,0.0004
3648.00,0.0004
3647.00,0.0004
3646.00,0.0003
3645.00,0.0003
3644.00,0.0003
3643.00,0.0003
3642.00,0.0003
3641.00,0.0003
3640.00,0.0003
3639.00,0.0004
3638.00,0.0004
3637.00,0.0005
3636.00,0.0005
3635.00,0.0005
3634.00,0.0005
3633.00,0.0005
3632.00,0.0005
3631.00,0.0005
3630.00,0.0006
3629.00,0.0006
3628.00,0.0006
3627.00,0.0006
3626.00,0.0006
3625.00,0.0005
3624.00,0.0005
3623.00,0.0006
3622.00,0.0006
3621.00,0.0006
3620.00,0.0006
3619.00,0.0006
3618.00,0.0007
3617.00,0.0007
3616.00,0.0007
3615.00,0.0007
3614.00,0.0007
3613.00,0.0007
3612.00,0.0007
3611.00,0.0008
3610.00,0.0008
3609.00,0.0008
3608.00,0.0008
3607.00,0.0007
3606.00,0.0007
3605.00,0.0007
3604.00,0.0006
3603.00,0.0006
3602.00,0.0006
3601.00,0.0007
3600.00,0.0007
3599.00,0.0008
3598.00,0.0008
3597.00,0.0008
3596.00,0.0008
3595.00,0.0008
3594.00,0.0009
3593.00,0.0009
3592.00,0.0009
3591.00,0.0009
3590.00,0.0009
3589.00,0.0010
3588.00,0.0010
3587.00,0.0010
3586.00,0.0011
3585.00,0.0011
3584.00,0.0011
3583.00,0.0011
3582.00,0.0011
3581.00,0.0011
3580.00,0.0011
3579.00,0.0011
3578.00,0.0011
3577.00,0.0011
3576.00,0.0012
3575.00,0.0012
3574.00,0.0012
3573.00,0.0013
3572.00,0.0013
3571.00,0.0013
3570.00,0.0013
3569.00,0.0014
3568.00,0.0014
3567.00,0.0014
3566.00,0.0014
3565.00,0.0014
3564.00,0.0013
3563.00,0.0014
3562.00,0.0015
3561.00,0.0015
3560.00,0.0015
3559.00,0.0015
3558.00,0.0015
3557.00,0.0014
3556.00,0.0014
3555.00,0.0015
3554.00,0.0015
3553.00,0.0015
3552.00,0.0016
3551.00,0.0016
3550.00,0.0017
3549.00,0.0017
3548.00,0.0018
3547.00,0.0018
3546.00,0.0019
3545.00,0.0019
3544.00,0.0018
3543.00,0.0018
3542.00,0.0018
3541.00,0.0019
3540.00,0.0019
3539.00,0.0020
3538.00,0.0020
3537.00,0.0020
3536.00,0.0020
3535.00,0.0020
3534.00,0.0020
3533.00,0.0020
3532.00,0.0021
3531.00,0.0021
3530.00,0.0021
3529.00,0.0021
3528.00,0.0022
3527.00,0.0022
3526.00,0.0022
3525.00,0.0022
3524.00,0.0023
3523.00,0.0022
3522.00,0.0022
3521.00,0.0022
3520.00,0.0022
3519.00,0.0022
3518.00,0.0022
3517.00,0.0022
3516.00,0.0022
3515.00,0.0023
3514.00,0.0023
3513.00,0.0024
3512.00,0.0024
3511.00,0.0025
3510.00,0.0025
3509.00,0.0025
3508.00,0.0026
3507.00,0.0026
3506.00,0.0026
3505.00,0.0026
3504.00,0.0026
3503.00,0.0026
3502.00,0.0026
3501.00,0.0027
3500.00,0.0027
3499.00,0.0027
3498.00,0.0027
3497.00,0.0027
3496.00,0.0027
3495.00,0.0027
3494.00,0.0028
3493.00,0.0028
3492.00,0.0028
3491.00,0.0029
3490.00,0.0029
3489.00,0.0029
3488.00,0.0029
3487.00,0.0029
3486.00,0.0029
3485.00,0.0029
3484.00,0.0030
3483.00,0.0031
3482.00,0.0031
3481.00,0.0032
3480.00,0.0032
3479.00,0.0032
3478.00,0.0031
3477.00,0.0031
3476.00,0.0032
3475.00,0.0032
3474.00,0.0032
3473.00,0.0032
3472.00,0.0032
3471.00,0.0032
3470.00,0.0032
3469.00,0.0032
3468.00,0.0032
3467.00,0.0032
3466.00,0.0033
3465.00,0.0033
3464.00,0.0033
3463.00,0.0033
3462.00,0.0033
3461.00,0.0033
3460.00,0.0034
3459.00,0.0035
3458.00,0.0035
3457.00,0.0035
3456.00,0.0035
3455.00,0.0035
3454.00,0.0035
3453.00,0.0035
3452.00,0.0036
3451.00,0.0036
3450.00,0.0037
3449.00,0.0037
3448.00,0.0037
3447.00,0.0037
3446.00,0.0037
3445.00,0.0037
3444.00,0.0038
3443.00,0.0038
3442.00,0.0038
3441.00,0.0038
3440.00,0.0038
3439.00,0.0038
3438.00,0.0038
3437.00,0.0038
3436.00,0.0038
3435.00,0.0038
3434.00,0.0039
3433.00,0.0039
3432.00,0.0039
3431.00,0.0040
3430.00,0.0040
3429.00,0.0041
3428.00,0.0041
3427.00,0.0041
3426.00,0.0042
3425.00,0.0042
3424.00,0.0042
3423.00,0.0042
3422.00,0.0042
3421.00,0.0042
3420.00,0.0042
3419.00,0.0042
3418.00,0.0042
3417.00,0.0042
3416.00,0.0042
3415.00,0.0043
3414.00,0.0043
3413.00,0.0043
3412.00,0.0043
3411.00,0.0044
3410.00,0.0044
3409.00,0.0044
3408.00,0.0045
3407.00,0.0045
3406.00,0.0045
3405.00,0.0045
3404.00,0.0045
3403.00,0.0045
3402.00,0.0045
3401.00,0.0046
3400.00,0.0046
3399.00,0.0046
3398.00,0.0046
3397.00,0.0046
3396.00,0.0046
3395.00,0.0047
3394.00,0.0047
3393.00,0.0046
3392.00,0.0046
3391.00,0.0046
3390.00,0.0046
3389.00,0.0046
3388.00,0.0046
3387.00,0.0046
3386.00,0.0046
3385.00,0.0046
3384.00,0.0046
3383.00,0.0046
3382.00,0.0046
3381.00,0.0046
3380.00,0.0047
3379.00,0.0047
3378.00,0.0047
3377.00,0.0047
3376.00,0.0047
3375.00,0.0047
3374.00,0.0047
3373.00,0.0047
3372.00,0.0047
3371.00,0.0048
3370.00,0.0048
3369.00,0.0048
3368.00,0.0048
3367.00,0.0048
3366.00,0.0048
3365.00,0.0048
3364.00,0.0048
3363.00,0.0048
3362.00,0.0048
3361.00,0.0048
3360.00,0.0049
3359.00,0.0049
3358.00,0.0049
3357.00,0.0049
3356.00,0.0049
3355.00,0.0049
3354.00,0.0049
3353.00,0.0049
3352.00,0.0049
3351.00,0.0049
3350.00,0.0049
3349.00,0.0049
3348.00,0.0049
3347.00,0.0050
3346.00,0.0050
3345.00,0.0050
3344.00,0.0049
3343.00,0.0049
3342.00,0.0049
3341.00,0.0049
3340.00,0.0049
3339.00,0.0048
3338.00,0.0048
3337.00,0.0048
3336.00,0.0048
3335.00,0.0048
3334.00,0.0048
3333.00,0.0048
3332.00,0.0048
3331.00,0.0048
3330.00,0.0048
3329.00,0.0048
3328.00,0.0048
3327.00,0.0048
3326.00,0.0048
3325.00,0.0048
3324.00,0.0047
3323.00,0.0047
3322.00,0.0047
3321.00,0.0047
3320.00,0.0047
3319.00,0.0048
3318.00,0.0048
3317.00,0.0048
3316.00,0.0049
3315.00,0.0049
3314.00,0.0048
3313.00,0.0048
3312.00,0.0048
3311.00,0.0048
3310.00,0.0048
3309.00,0.0048
3308.00,0.0048
3307.00,0.0048
3306.00,0.0048
3305.00,0.0048
3304.00,0.0048
3303.00,0.0048
3302.00,0.0048
3301.00,0.0048
3300.00,0.0047
3299.00,0.0047
3298.00,0.0047
3297.00,0.0048
3296.00,0.0048
3295.00,0.0048
3294.00,0.0048
3293.00,0.0048
3292.00,0.0048
3291.00,0.0047
3290.00,0.0047
3289.00,0.0047
3288.00,0.0047
3287.00,0.0047
3286.00,0.0047
3285.00,0.0047
3284.00,0.0047
3283.00,0.0046
3282.00,0.0046
3281.00,0.0046
3280.00,0.0046
3279.00,0.0046
3278.00,0.0046
3277.00,0.0045
3276.00,0.0045
3275.00,0.0044
3274.00,0.0044
3273.00,0.0044
3272.00,0.0044
3271.00,0.0044
3270.00,0.0044
3269.00,0.0045
3268.00,0.0045
3267.00,0.0045
3266.00,0.0044
3265.00,0.0044
3264.00,0.0044
3263.00,0.0043
3262.00,0.0043
3261.00,0.0043
3260.00,0.0042
3259.00,0.0042
3258.00,0.0042
3257.00,0.0042
3256.00,0.0042
3255.00,0.0042
3254.00,0.0042
3253.00,0.0042
3252.00,0.0042
3251.00,0.0042
3250.00,0.0042
3249.00,0.0042
3248.00,0.0041
3247.00,0.0041
3246.00,0.0041
3245.00,0.0041
3244.00,0.0041
3243.00,0.0041
3242.00,0.0041
3241.00,0.0040
3240.00,0.0040
3239.00,0.0040
3238.00,0.0040
3237.00,0.0040
3236.00,0.0040
3235.00,0.0041
3234.00,0.0041
3233.00,0.0041
3232.00,0.0041
3231.00,0.0040
3230.00,0.0040
3229.00,0.0040
3228.00,0.0040
3227.00,0.0041
3226.00,0.0041
3225.00,0.0041
3224.00,0.0041
3223.00,0.0041
3222.00,0.0041
3221.00,0.0042
3220.00,0.0042
3219.00,0.0042
3218.00,0.0042
3217.00,0.0042
3216.00,0.0042
3215.00,0.0042
3214.00,0.0043
3213.00,0.0043
3212.00,0.0043
3211.00,0.0044
3210.00,0.0043
3209.00,0.0044
3208.00,0.0044
3207.00,0.0044
3206.00,0.0044
3205.00,0.0044
3204.00,0.0044
3203.00,0.0045
3202.00,0.0045
3201.00,0.0045
3200.00,0.0045
3199.00,0.0044
3198.00,0.0044
3197.00,0.0044
3196.00,0.0044
3195.00,0.0044
3194.00,0.0044
3193.00,0.0044
3192.00,0.0044
3191.00,0.0044
3190.00,0.0044
3189.00,0.0044
3188.00,0.0044
3187.00,0.0044
3186.00,0.0043
3185.00,0.0043
3184.00,0.0043
3183.00,0.0043
3182.00,0.0043
3181.00,0.0043
3180.00,0.0043
3179.00,0.0043
3178.00,0.0042
3177.00,0.0042
3176.00,0.0041
3175.00,0.0041
3174.00,0.0041
3173.00,0.0040
3172.00,0.0040
3171.00,0.0039
3170.00,0.0039
3169.00,0.0038
3168.00,0.0038
3167.00,0.0038
3166.00,0.0038
3165.00,0.0038
3164.00,0.0038
3163.00,0.0038
3162.00,0.0038
3161.00,0.0038
3160.00,0.0038
3159.00,0.0038
3158.00,0.0037
3157.00,0.0037
3156.00,0.0037
3155.00,0.0037
3154.00,0.0036
3153.00,0.0036
3152.00,0.0036
3151.00,0.0036
3150.00,0.0036
3149.00,0.0036
3148.00,0.0036
3147.00,0.0036
3146.00,0.0036
3145.00,0.0036
3144.00,0.0036
3143.00,0.0036
3142.00,0.0036
3141.00,0.0036
3140.00,0.0036
3139.00,0.0036
3138.00,0.0036
3137.00,0.0035
3136.00,0.0035
3135.00,0.0034
3134.00,0.0034
3133.00,0.0034
3132.00,0.0034
3131.00,0.0033
3130.00,0.0033
3129.00,0.0033
3128.00,0.0033
3127.00,0.0033
3126.00,0.0033
3125.00,0.0033
3124.00,0.0033
3123.00,0.0032
3122.00,0.0031
3121.00,0.0031
3120.00,0.0030
3119.00,0.0030
3118.00,0.0030
3117.00,0.0030
3116.00,0.0030
3115.00,0.0030
3114.00,0.0031
3113.00,0.0031
3112.00,0.0031
3111.00,0.0031
3110.00,0.0030
3109.00,0.0030
3108.00,0.0030
3107.00,0.0030
3106.00,0.0030
3105.00,0.0030
3104.00,0.0029
3103.00,0.0029
3102.00,0.0029
3101.00,0.0029
3100.00,0.0029
3099.00,0.0028
3098.00,0.0028
3097.00,0.0027
3096.00,0.0027
3095.00,0.0027
3094.00,0.0028
3093.00,0.0028
3092.00,0.0028
3091.00,0.0028
3090.00,0.0028
3089.00,0.0027
3088.00,0.0027
3087.00,0.0027
3086.00,0.0027
3085.00,0.0027
3084.00,0.0027
3083.00,0.0027
3082.00,0.0027
3081.00,0.0027
3080.00,0.0027
3079.00,0.0027
3078.00,0.0027
3077.00,0.0027
3076.00,0.0027
3075.00,0.0028
3074.00,0.0028
3073.00,0.0027
3072.00,0.0027
3071.00,0.0027
3070.00,0.0027
3069.00,0.0027
3068.00,0.0027
3067.00,0.0027
3066.00,0.0027
3065.00,0.0028
3064.00,0.0028
3063.00,0.0029
3062.00,0.0029
3061.00,0.0029
3060.00,0.0030
3059.00,0.0030
3058.00,0.0030
3057.00,0.0030
3056.00,0.0030
3055.00,0.0030
3054.00,0.0030
3053.00,0.0030
3052.00,0.0030
3051.00,0.0031
3050.00,0.0031
3049.00,0.0032
3048.00,0.0032
3047.00,0.0032
3046.00,0.0032
3045.00,0.0032
3044.00,0.0032
3043.00,0.0032
3042.00,0.0032
3041.00,0.0032
3040.00,0.0032
3039.00,0.0032
3038.00,0.0033
3037.00,0.0033
3036.00,0.0033
3035.00,0.0034
3034.00,0.0034
3033.00,0.0035
3032.00,0.0035
3031.00,0.0036
3030.00,0.0036
3029.00,0.0036
3028.00,0.0037
3027.00,0.0037
3026.00,0.0037
3025.00,0.0038
3024.00,0.0039
3023.00,0.0039
3022.00,0.0040
3021.00,0.0041
3020.00,0.0042
3019.00,0.0042
3018.00,0.0042
3017.00,0.0043
3016.00,0.0044
3015.00,0.0045
3014.00,0.0046
3013.00,0.0048
3012.00,0.0049
3011.00,0.0050
3010.00,0.0052
3009.00,0.0053
3008.00,0.0055
3007.00,0.0057
3006.00,0.0058
3005.00,0.0060
3004.00,0.0062
3003.00,0.0064
3002.00,0.0066
3001.00,0.0069
3000.00,0.0071
2999.00,0.0074
2998.00,0.0078
2997.00,0.0081
2996.00,0.0086
2995.00,0.0090
2994.00,0.0094
2993.00,0.0099
2992.00,0.0104
2991.00,0.0110
2990.00,0.0117
2989.00,0.0124
2988.00,0.0132
2987.00,0.0141
2986.00,0.0151
2985.00,0.0163
2984.00,0.0176
2983.00,0.0190
2982.00,0.0206
2981.00,0.0223
2980.00,0.0243
2979.00,0.0266
2978.00,0.0291
2977.00,0.0321
2976.00,0.0354
2975.00,0.0392
2974.00,0.0436
2973.00,0.0485
2972.00,0.0540
2971.00,0.0601
2970.00,0.0670
2969.00,0.0746
2968.00,0.0828
2967.00,0.0916
2966.00,0.1009
2965.00,0.1104
2964.00,0.1197
2963.00,0.1284
2962.00,0.1361
2961.00,0.1427
2960.00,0.1480
2959.00,0.1524
2958.00,0.1563
2957.00,0.1602
2956.00,0.1647
2955.00,0.1700
2954.00,0.1763
2953.00,0.1829
2952.00,0.1891
2951.00,0.1939
2950.00,0.1962
2949.00,0.1950
2948.00,0.1899
2947.00,0.1810
2946.00,0.1691
2945.00,0.1557
2944.00,0.1423
2943.00,0.1302
2942.00,0.1203
2941.00,0.1129
2940.00,0.1082
2939.00,0.1059
2938.00,0.1058
2937.00,0.1077
2936.00,0.1113
2935.00,0.1165
2934.00,0.1231
2933.00,0.1310
2932.00,0.1400
2931.00,0.1499
2930.00,0.1604
2929.00,0.1712
2928.00,0.1819
2927.00,0.1923
2926.00,0.2021
2925.00,0.2114
2924.00,0.2203
2923.00,0.2289
2922.00,0.2372
2921.00,0.2452
2920.00,0.2522
2919.00,0.2576
2918.00,0.2607
2917.00,0.2607
2916.00,0.2577
2915.00,0.2519
2914.00,0.2440
2913.00,0.2351
2912.00,0.2258
2911.00,0.2169
2910.00,0.2086
2909.00,0.2009
2908.00,0.1937
2907.00,0.1868
2906.00,0.1799
2905.00,0.1730
2904.00,0.1659
2903.00,0.1588
2902.00,0.1517
2901.00,0.1448
2900.00,0.1381
2899.00,0.1318
2898.00,0.1259
2897.00,0.1206
2896.00,0.1159
2895.00,0.1119
2894.00,0.1087
2893.00,0.1062
2892.00,0.1043
2891.00,0.1031
2890.00,0.1024
2889.00,0.1023
2888.00,0.1026
2887.00,0.1033
2886.00,0.1043
2885.00,0.1058
2884.00,0.1076
2883.00,0.1099
2882.00,0.1127
2881.00,0.1157
2880.00,0.1187
2879.00,0.1213
2878.00,0.1231
2877.00,0.1238
2876.00,0.1236
2875.00,0.1228
2874.00,0.1220
2873.00,0.1215
2872.00,0.1219
2871.00,0.1231
2870.00,0.1249
2869.00,0.1268
2868.00,0.1281
2867.00,0.1278
2866.00,0.1252
2865.00,0.1199
2864.00,0.1122
2863.00,0.1030
2862.00,0.0933
2861.00,0.0842
2860.00,0.0762
2859.00,0.0698
2858.00,0.0649
2857.00,0.0613
2856.00,0.0588
2855.00,0.0572
2854.00,0.0563
2853.00,0.0562
2852.00,0.0566
2851.00,0.0577
2850.00,0.0596
2849.00,0.0623
2848.00,0.0659
2847.00,0.0705
2846.00,0.0760
2845.00,0.0823
2844.00,0.0894
2843.00,0.0969
2842.00,0.1045
2841.00,0.1118
2840.00,0.1179
2839.00,0.1220
2838.00,0.1232
2837.00,0.1209
2836.00,0.1151
2835.00,0.1064
2834.00,0.0958
2833.00,0.0845
2832.00,0.0737
2831.00,0.0641
2830.00,0.0559
2829.00,0.0492
2828.00,0.0438
2827.00,0.0394
2826.00,0.0359
2825.00,0.0330
2824.00,0.0306
2823.00,0.0286
2822.00,0.0269
2821.00,0.0254
2820.00,0.0241
2819.00,0.0230
2818.00,0.0220
2817.00,0.0212
2816.00,0.0204
2815.00,0.0198
2814.00,0.0192
2813.00,0.0186
2812.00,0.0181
2811.00,0.0176
2810.00,0.0170
2809.00,0.0165
2808.00,0.0159
2807.00,0.0152
2806.00,0.0146
2805.00,0.0139
2804.00,0.0132
2803.00,0.0126
2802.00,0.0121
2801.00,0.0116
2800.00,0.0112
2799.00,0.0109
2798.00,0.0107
2797.00,0.0104
2796.00,0.0102
2795.00,0.0100
2794.00,0.0097
2793.00,0.0094
2792.00,0.0091
2791.00,0.0088
2790.00,0.0084
2789.00,0.0081
2788.00,0.0079
2787.00,0.0076
2786.00,0.0074
2785.00,0.0072
2784.00,0.0070
2783.00,0.0068
2782.00,0.0066
2781.00,0.0064
2780.00,0.0062
2779.00,0.0060
2778.00,0.0059
2777.00,0.0057
2776.00,0.0056
2775.00,0.0056
2774.00,0.0055
2773.00,0.0054
2772.00,0.0054
2771.00,0.0053
2770.00,0.0053
2769.00,0.0053
2768.00,0.0052
2767.00,0.0052
2766.00,0.0052
2765.00,0.0052
2764.00,0.0051
2763.00,0.0051
2762.00,0.0050
2761.00,0.0050
2760.00,0.0049
2759.00,0.0049
2758.00,0.0048
2757.00,0.0048
2756.00,0.0048
2755.00,0.0048
2754.00,0.0048
2753.00,0.0048
2752.00,0.0048
2751.00,0.0048
2750.00,0.0047
2749.00,0.0047
2748.00,0.0047
2747.00,0.0047
2746.00,0.0048
2745.00,0.0049
2744.00,0.0050
2743.00,0.0051
2742.00,0.0052
2741.00,0.0053
2740.00,0.0054
2739.00,0.0056
2738.00,0.0057
2737.00,0.0059
2736.00,0.0060
2735.00,0.0062
2734.00,0.0064
2733.00,0.0066
2732.00,0.0067
2731.00,0.0069
2730.00,0.0071
2729.00,0.0074
2728.00,0.0076
2727.00,0.0079
2726.00,0.0082
2725.00,0.0085
2724.00,0.0086
2723.00,0.0087
2722.00,0.0086
2721.00,0.0084
2720.00,0.0081
2719.00,0.0078
2718.00,0.0074
2717.00,0.0071
2716.00,0.0068
2715.00,0.0065
2714.00,0.0062
2713.00,0.0060
2712.00,0.0058
2711.00,0.0056
2710.00,0.0054
2709.00,0.0053
2708.00,0.0051
2707.00,0.0050
2706.00,0.0049
2705.00,0.0047
2704.00,0.0046
2703.00,0.0045
2702.00,0.0044
2701.00,0.0044
2700.00,0.0043
2699.00,0.0043
2698.00,0.0042
2697.00,0.0042
2696.00,0.0041
2695.00,0.0041
2694.00,0.0041
2693.00,0.0042
2692.00,0.0042
2691.00,0.0042
2690.00,0.0042
2689.00,0.0042
2688.00,0.0041
2687.00,0.0042
2686.00,0.0042
2685.00,0.0042
2684.00,0.0042
2683.00,0.0041
2682.00,0.0041
2681.00,0.0041
2680.00,0.0041
2679.00,0.0042
2678.00,0.0042
2677.00,0.0042
2676.00,0.0042
2675.00,0.0042
2674.00,0.0042
2673.00,0.0041
2672.00,0.0041
2671.00,0.0041
2670.00,0.0041
2669.00,0.0041
2668.00,0.0041
2667.00,0.0041
2666.00,0.0041
2665.00,0.0042
2664.00,0.0042
2663.00,0.0043
2662.00,0.0043
2661.00,0.0043
2660.00,0.0043
2659.00,0.0043
2658.00,0.0043
2657.00,0.0044
2656.00,0.0044
2655.00,0.0043
2654.00,0.0043
2653.00,0.0042
2652.00,0.0041
2651.00,0.0040
2650.00,0.0039
2649.00,0.0039
2648.00,0.0038
2647.00,0.0038
2646.00,0.0038
2645.00,0.0038
2644.00,0.0038
2643.00,0.0037
2642.00,0.0037
2641.00,0.0037
2640.00,0.0036
2639.00,0.0036
2638.00,0.0035
2637.00,0.0035
2636.00,0.0034
2635.00,0.0034
2634.00,0.0034
2633.00,0.0034
2632.00,0.0034
2631.00,0.0034
2630.00,0.0035
2629.00,0.0035
2628.00,0.0035
2627.00,0.0035
2626.00,0.0035
2625.00,0.0035
2624.00,0.0035
2623.00,0.0035
2622.00,0.0036
2621.00,0.0036
2620.00,0.0036
2619.00,0.0036
2618.00,0.0037
2617.00,0.0037
2616.00,0.0037
2615.00,0.0037
2614.00,0.0036
2613.00,0.0036
2612.00,0.0035
2611.00,0.0035
2610.00,0.0034
2609.00,0.0033
2608.00,0.0032
2607.00,0.0031
2606.00,0.0030
2605.00,0.0030
2604.00,0.0030
2603.00,0.0030
2602.00,0.0029
2601.00,0.0029
2600.00,0.0029
2599.00,0.0029
2598.00,0.0029
2597.00,0.0029
2596.00,0.0029
2595.00,0.0029
2594.00,0.0029
2593.00,0.0030
2592.00,0.0030
2591.00,0.0031
2590.00,0.0032
2589.00,0.0032
2588.00,0.0033
2587.00,0.0034
2586.00,0.0035
2585.00,0.0036
2584.00,0.0036
2583.00,0.0037
2582.00,0.0037
2581.00,0.0036
2580.00,0.0036
2579.00,0.0035
2578.00,0.0034
2577.00,0.0033
2576.00,0.0032
2575.00,0.0030
2574.00,0.0029
2573.00,0.0029
2572.00,0.0028
2571.00,0.0027
2570.00,0.0026
2569.00,0.0025
2568.00,0.0025
2567.00,0.0024
2566.00,0.0023
2565.00,0.0022
2564.00,0.0022
2563.00,0.0021
2562.00,0.0021
2561.00,0.0021
2560.00,0.0021
2559.00,0.0021
2558.00,0.0020
2557.00,0.0020
2556.00,0.0019
2555.00,0.0019
2554.00,0.0019
2553.00,0.0019
2552.00,0.0020
2551.00,0.0019
2550.00,0.0019
2549.00,0.0019
2548.00,0.0018
2547.00,0.0017
2546.00,0.0017
2545.00,0.0016
2544.00,0.0015
2543.00,0.0014
2542.00,0.0014
2541.00,0.0015
2540.00,0.0015
2539.00,0.0015
2538.00,0.0015
2537.00,0.0014
2536.00,0.0014
2535.00,0.0014
2534.00,0.0013
2533.00,0.0012
2532.00,0.0011
2531.00,0.0011
2530.00,0.0011
2529.00,0.0012
2528.00,0.0012
2527.00,0.0012
2526.00,0.0012
2525.00,0.0012
2524.00,0.0012
2523.00,0.0011
2522.00,0.0011
2521.00,0.0011
2520.00,0.0011
2519.00,0.0010
2518.00,0.0010
2517.00,0.0010
2516.00,0.0009
2515.00,0.0009
2514.00,0.0009
2513.00,0.0009
2512.00,0.0009
2511.00,0.0009
2510.00,0.0008
2509.00,0.0007
2508.00,0.0007
2507.00,0.0007
2506.00,0.0008
2505.00,0.0008
2504.00,0.0008
2503.00,0.0008
2502.00,0.0007
2501.00,0.0007
2500.00,0.0007
2499.00,0.0006
2498.00,0.0006
2497.00,0.0006
2496.00,0.0007
2495.00,0.0007
2494.00,0.0008
2493.00,0.0008
2492.00,0.0008
2491.00,0.0008
2490.00,0.0008
2489.00,0.0008
2488.00,0.0008
2487.00,0.0008
2486.00,0.0008
2485.00,0.0008
2484.00,0.0008
2483.00,0.0007
2482.00,0.0007
2481.00,0.0007
2480.00,0.0007
2479.00,0.0007
2478.00,0.0007
2477.00,0.0007
2476.00,0.0007
2475.00,0.0007
2474.00,0.0007
2473.00,0.0006
2472.00,0.0006
2471.00,0.0005
2470.00,0.0005
2469.00,0.0005
2468.00,0.0006
2467.00,0.0006
2466.00,0.0007
2465.00,0.0007
2464.00,0.0008
2463.00,0.0008
2462.00,0.0008
2461.00,0.0009
2460.00,0.0009
2459.00,0.0009
2458.00,0.0009
2457.00,0.0010
2456.00,0.0010
2455.00,0.0010
2454.00,0.0010
2453.00,0.0010
2452.00,0.0010
2451.00,0.0010
2450.00,0.0010
2449.00,0.0010
2448.00,0.0009
2447.00,0.0009
2446.00,0.0008
2445.00,0.0008
2444.00,0.0007
2443.00,0.0007
2442.00,0.0007
2441.00,0.0007
2440.00,0.0008
2439.00,0.0008
2438.00,0.0008
2437.00,0.0008
2436.00,0.0008
2435.00,0.0009
2434.00,0.0009
2433.00,0.0010
2432.00,0.0010
2431.00,0.0010
2430.00,0.0010
2429.00,0.0010
2428.00,0.0010
2427.00,0.0011
2426.00,0.0010
2425.00,0.0010
2424.00,0.0009
2423.00,0.0009
2422.00,0.0008
2421.00,0.0008
2420.00,0.0007
2419.00,0.0008
2418.00,0.0008
2417.00,0.0009
2416.00,0.0009
2415.00,0.0009
2414.00,0.0008
2413.00,0.0008
2412.00,0.0007
2411.00,0.0007
2410.00,0.0007
2409.00,0.0007
2408.00,0.0007
2407.00,0.0007
2406.00,0.0007
2405.00,0.0007
2404.00,0.0007
2403.00,0.0007
2402.00,0.0007
2401.00,0.0007
2400.00,0.0007
2399.00,0.0007
2398.00,0.0006
2397.00,0.0006
2396.00,0.0006
2395.00,0.0006
2394.00,0.0006
2393.00,0.0006
2392.00,0.0006
2391.00,0.0006
2390.00,0.0006
2389.00,0.0006
2388.00,0.0006
2387.00,0.0006
2386.00,0.0005
2385.00,0.0005
2384.00,0.0004
2383.00,0.0004
2382.00,0.0003
2381.00,0.0002
2380.00,0.0002
2379.00,0.0001
2378.00,0.0002
2377.00,0.0002
2376.00,0.0002
2375.00,0.0001
2374.00,0.0000
2373.00,-0.0000
2372.00,-0.0001
2371.00,-0.0001
2370.00,-0.0001
2369.00,-0.0002
2368.00,-0.0002
2367.00,-0.0002
2366.00,-0.0002
2365.00,-0.0002
2364.00,-0.0002
2363.00,-0.0001
2362.00,-0.0001
2361.00,-0.0000
2360.00,0.0000
2359.00,0.0000
2358.00,-0.0000
2357.00,-0.0000
2356.00,-0.0001
2355.00,-0.0001
2354.00,-0.0001
2353.00,-0.0000
2352.00,-0.0001
2351.00,-0.0001
2350.00,-0.0001
2349.00,-0.0000
2348.00,0.0001
2347.00,0.0001
2346.00,0.0001
2345.00,0.0001
2344.00,0.0001
2343.00,0.0001
2342.00,0.0001
2341.00,0.0002
2340.00,0.0002
2339.00,0.0003
2338.00,0.0003
2337.00,0.0003
2336.00,0.0003
2335.00,0.0003
2334.00,0.0003
2333.00,0.0002
2332.00,0.0001
2331.00,0.0001
2330.00,0.0001
2329.00,0.0002
2328.00,0.0004
2327.00,0.0008
2326.00,0.0012
2325.00,0.0016
2324.00,0.0018
2323.00,0.0018
2322.00,0.0016
2321.00,0.0014
2320.00,0.0012
2319.00,0.0010
2318.00,0.0009
2317.00,0.0008
2316.00,0.0008
2315.00,0.0007
2314.00,0.0007
2313.00,0.0007
2312.00,0.0007
2311.00,0.0007
2310.00,0.0007
2309.00,0.0007
2308.00,0.0007
2307.00,0.0007
2306.00,0.0007
2305.00,0.0007
2304.00,0.0007
2303.00,0.0008
2302.00,0.0008
2301.00,0.0009
2300.00,0.0010
2299.00,0.0011
2298.00,0.0011
2297.00,0.0012
2296.00,0.0011
2295.00,0.0011
2294.00,0.0011
2293.00,0.0011
2292.00,0.0012
2291.00,0.0013
2290.00,0.0014
2289.00,0.0015
2288.00,0.0016
2287.00,0.0017
2286.00,0.0016
2285.00,0.0016
2284.00,0.0016
2283.00,0.0016
2282.00,0.0016
2281.00,0.0015
2280.00,0.0015
2279.00,0.0014
2278.00,0.0013
2277.00,0.0012
2276.00,0.0012
2275.00,0.0011
2274.00,0.0011
2273.00,0.0011
2272.00,0.0011
2271.00,0.0012
2270.00,0.0013
2269.00,0.0013
2268.00,0.0013
2267.00,0.0012
2266.00,0.0011
2265.00,0.0009
2264.00,0.0009
2263.00,0.0009
2262.00,0.0009
2261.00,0.0010
2260.00,0.0010
2259.00,0.0011
2258.00,0.0010
2257.00,0.0009
2256.00,0.0008
2255.00,0.0006
2254.00,0.0006
2253.00,0.0006
2252.00,0.0006
2251.00,0.0007
2250.00,0.0008
2249.00,0.0009
2248.00,0.0009
2247.00,0.0009
2246.00,0.0008
2245.00,0.0008
2244.00,0.0008
2243.00,0.0008
2242.00,0.0008
2241.00,0.0007
2240.00,0.0008
2239.00,0.0008
2238.00,0.0008
2237.00,0.0007
2236.00,0.0007
2235.00,0.0006
2234.00,0.0007
2233.00,0.0007
2232.00,0.0007
2231.00,0.0007
2230.00,0.0006
2229.00,0.0006
2228.00,0.0007
2227.00,0.0008
2226.00,0.0008
2225.00,0.0008
2224.00,0.0007
2223.00,0.0007
2222.00,0.0007
2221.00,0.0007
2220.00,0.0007
2219.00,0.0008
2218.00,0.0008
2217.00,0.0008
2216.00,0.0008
2215.00,0.0007
2214.00,0.0005
2213.00,0.0005
2212.00,0.0004
2211.00,0.0005
2210.00,0.0006
2209.00,0.0007
2208.00,0.0008
2207.00,0.0008
2206.00,0.0007
2205.00,0.0007
2204.00,0.0007
2203.00,0.0006
2202.00,0.0006
2201.00,0.0007
2200.00,0.0009
2199.00,0.0009
2198.00,0.0009
2197.00,0.0008
2196.00,0.0007
2195.00,0.0006
2194.00,0.0005
2193.00,0.0004
2192.00,0.0005
2191.00,0.0007
2190.00,0.0008
2189.00,0.0008
2188.00,0.0009
2187.00,0.0010
2186.00,0.0011
2185.00,0.0011
2184.00,0.0009
2183.00,0.0007
2182.00,0.0006
2181.00,0.0006
2180.00,0.0008
2179.00,0.0010
2178.00,0.0012
2177.00,0.0013
2176.00,0.0012
2175.00,0.0010
2174.00,0.0009
2173.00,0.0008
2172.00,0.0007
2171.00,0.0006
2170.00,0.0007
2169.00,0.0009
2168.00,0.0011
2167.00,0.0012
2166.00,0.0011
2165.00,0.0010
2164.00,0.0009
2163.00,0.0009
2162.00,0.0009
2161.00,0.0006
2160.00,-0.0003
2159.00,-0.0017
2158.00,-0.0029
2157.00,-0.0034
2156.00,-0.0031
2155.00,-0.0028
2154.00,-0.0024
2153.00,-0.0022
2152.00,-0.0019
2151.00,-0.0017
2150.00,-0.0015
2149.00,-0.0014
2148.00,-0.0014
2147.00,-0.0016
2146.00,-0.0017
2145.00,-0.0018
2144.00,-0.0019
2143.00,-0.0019
2142.00,-0.0018
2141.00,-0.0017
2140.00,-0.0014
2139.00,-0.0012
2138.00,-0.0010
2137.00,-0.0010
2136.00,-0.0012
2135.00,-0.0015
2134.00,-0.0017
2133.00,-0.0017
2132.00,-0.0015
2131.00,-0.0013
2130.00,-0.0012
2129.00,-0.0011
2128.00,-0.0010
2127.00,-0.0009
2126.00,-0.0009
2125.00,-0.0009
2124.00,-0.0008
2123.00,-0.0007
2122.00,-0.0006
2121.00,-0.0005
2120.00,-0.0004
2119.00,-0.0003
2118.00,-0.0002
2117.00,-0.0000
2116.00,0.0001
2115.00,0.0002
2114.00,0.0002
2113.00,0.0002
2112.00,0.0001
2111.00,0.0001
2110.00,0.0001
2109.00,0.0001
2108.00,0.0001
2107.00,0.0001
2106.00,0.0001
2105.00,0.0001
2104.00,0.0001
2103.00,0.0000
2102.00,-0.0001
2101.00,-0.0002
2100.00,-0.0002
2099.00,-0.0001
2098.00,-0.0001
2097.00,-0.0002
2096.00,-0.0004
2095.00,-0.0006
2094.00,-0.0006
2093.00,-0.0004
2092.00,-0.0002
2091.00,-0.0001
2090.00,-0.0001
2089.00,-0.0000
2088.00,0.0000
2087.00,0.0001
2086.00,0.0001
2085.00,0.0003
2084.00,0.0004
2083.00,0.0003
2082.00,0.0002
2081.00,0.0001
2080.00,-0.0000
2079.00,-0.0000
2078.00,0.0001
2077.00,0.0002
2076.00,0.0002
2075.00,0.0002
2074.00,0.0002
2073.00,0.0002
2072.00,0.0002
2071.00,0.0001
2070.00,0.0000
2069.00,-0.0000
2068.00,-0.0001
2067.00,-0.0001
2066.00,-0.0001
2065.00,-0.0002
2064.00,-0.0003
2063.00,-0.0005
2062.00,-0.0007
2061.00,-0.0008
2060.00,-0.0008
2059.00,-0.0007
2058.00,-0.0006
2057.00,-0.0005
2056.00,-0.0004
2055.00,-0.0003
2054.00,-0.0002
2053.00,0.0002
2052.00,0.0006
2051.00,0.0008
2050.00,0.0008
2049.00,0.0005
2048.00,0.0002
2047.00,0.0000
2046.00,-0.0000
2045.00,0.0000
2044.00,0.0001
2043.00,0.0001
2042.00,0.0001
2041.00,0.0002
2040.00,0.0002
2039.00,0.0004
2038.00,0.0005
2037.00,0.0007
2036.00,0.0008
2035.00,0.0007
2034.00,0.0006
2033.00,0.0002
2032.00,-0.0002
2031.00,-0.0005
2030.00,-0.0008
2029.00,-0.0010
2028.00,-0.0011
2027.00,-0.0011
2026.00,-0.0010
2025.00,-0.0008
2024.00,-0.0007
2023.00,-0.0006
2022.00,-0.0007
2021.00,-0.0008
2020.00,-0.0008
2019.00,-0.0008
2018.00,-0.0008
2017.00,-0.0008
2016.00,-0.0010
2015.00,-0.0012
2014.00,-0.0013
2013.00,-0.0014
2012.00,-0.0012
2011.00,-0.0010
2010.00,-0.0010
2009.00,-0.0012
2008.00,-0.0015
2007.00,-0.0020
2006.00,-0.0023
2005.00,-0.0024
2004.00,-0.0023
2003.00,-0.0021
2002.00,-0.0019
2001.00,-0.0015
2000.00,-0.0012
1999.00,-0.0010
1998.00,-0.0009
1997.00,-0.0009
1996.00,-0.0008
1995.00,-0.0008
1994.00,-0.0007
1993.00,-0.0006
1992.00,-0.0006
1991.00,-0.0005
1990.00,-0.0004
1989.00,-0.0003
1988.00,-0.0003
1987.00,-0.0004
1986.00,-0.0005
1985.00,-0.0006
1984.00,-0.0005
1983.00,-0.0002
1982.00,0.0002
1981.00,0.0006
1980.00,0.0008
1979.00,0.0005
1978.00,-0.0001
1977.00,-0.0006
1976.00,-0.0009
1975.00,-0.0011
1974.00,-0.0012
1973.00,-0.0012
1972.00,-0.0011
1971.00,-0.0011
1970.00,-0.0011
1969.00,-0.0013
1968.00,-0.0015
1967.00,-0.0016
1966.00,-0.0016
1965.00,-0.0015
1964.00,-0.0014
1963.00,-0.0013
1962.00,-0.0013
1961.00,-0.0014
1960.00,-0.0016
1959.00,-0.0018
1958.00,-0.0020
1957.00,-0.0019
1956.00,-0.0016
1955.00,-0.0014
1954.00,-0.0012
1953.00,-0.0012
1952.00,-0.0012
1951.00,-0.0012
1950.00,-0.0013
1949.00,-0.0013
1948.00,-0.0013
1947.00,-0.0014
1946.00,-0.0014
1945.00,-0.0014
1944.00,-0.0014
1943.00,-0.0013
1942.00,-0.0013
1941.00,-0.0011
1940.00,-0.0011
1939.00,-0.0011
1938.00,-0.0013
1937.00,-0.0014
1936.00,-0.0014
1935.00,-0.0013
1934.00,-0.0012
1933.00,-0.0011
1932.00,-0.0011
1931.00,-0.0011
1930.00,-0.0010
1929.00,-0.0010
1928.00,-0.0009
1927.00,-0.0009
1926.00,-0.0009
1925.00,-0.0008
1924.00,-0.0007
1923.00,-0.0005
1922.00,-0.0004
1921.00,-0.0003
1920.00,-0.0003
1919.00,-0.0004
1918.00,-0.0004
1917.00,-0.0004
1916.00,-0.0004
1915.00,-0.0003
1914.00,-0.0003
1913.00,-0.0003
1912.00,-0.0003
1911.00,-0.0003
1910.00,-0.0002
1909.00,-0.0002
1908.00,-0.0002
1907.00,-0.0002
1906.00,-0.0003
1905.00,-0.0003
1904.00,-0.0004
1903.00,-0.0004
1902.00,-0.0004
1901.00,-0.0003
1900.00,-0.0002
1899.00,-0.0002
1898.00,-0.0002
1897.00,-0.0002
1896.00,-0.0002
1895.00,-0.0002
1894.00,-0.0001
1893.00,-0.0000
1892.00,-0.0001
1891.00,-0.0001
1890.00,-0.0002
1889.00,-0.0001
1888.00,-0.0001
1887.00,-0.0001
1886.00,-0.0002
1885.00,-0.0003
1884.00,-0.0004
1883.00,-0.0004
1882.00,-0.0005
1881.00,-0.0004
1880.00,-0.0004
1879.00,-0.0003
1878.00,-0.0002
1877.00,-0.0002
1876.00,-0.0001
1875.00,-0.0001
1874.00,-0.0001
1873.00,-0.0001
1872.00,-0.0001
1871.00,-0.0001
1870.00,-0.0001
1869.00,-0.0001
1868.00,-0.0002
1867.00,-0.0002
1866.00,-0.0003
1865.00,-0.0002
1864.00,-0.0001
1863.00,-0.0001
1862.00,0.0000
1861.00,0.0000
1860.00,-0.0000
1859.00,-0.0001
1858.00,-0.0001
1857.00,-0.0001
1856.00,-0.0001
1855.00,-0.0000
1854.00,0.0000
1853.00,0.0001
1852.00,0.0001
1851.00,0.0000
1850.00,-0.0000
1849.00,-0.0001
1848.00,-0.0001
1847.00,-0.0000
1846.00,0.0000
1845.00,0.0001
1844.00,0.0001
1843.00,0.0002
1842.00,0.0001
1841.00,0.0001
1840.00,0.0001
1839.00,0.0002
1838.00,0.0002
1837.00,0.0002
1836.00,0.0002
1835.00,0.0002
1834.00,0.0002
1833.00,0.0003
1832.00,0.0003
1831.00,0.0003
1830.00,0.0003
1829.00,0.0003
1828.00,0.0003
1827.00,0.0003
1826.00,0.0002
1825.00,0.0002
1824.00,0.0002
1823.00,0.0002
1822.00,0.0003
1821.00,0.0003
1820.00,0.0002
1819.00,0.0001
1818.00,-0.0001
1817.00,-0.0002
1816.00,-0.0002
1815.00,-0.0001
1814.00,-0.0001
1813.00,-0.0000
1812.00,0.0000
1811.00,0.0001
1810.00,0.0001
1809.00,0.0002
1808.00,0.0002
1807.00,0.0002
1806.00,0.0002
1805.00,0.0002
1804.00,0.0002
1803.00,0.0003
1802.00,0.0003
1801.00,0.0003
1800.00,0.0003
1799.00,0.0003
1798.00,0.0003
1797.00,0.0004
1796.00,0.0004
1795.00,0.0004
1794.00,0.0004
1793.00,0.0004
1792.00,0.0004
1791.00,0.0004
1790.00,0.0004
1789.00,0.0004
1788.00,0.0004
1787.00,0.0004
1786.00,0.0005
1785.00,0.0005
1784.00,0.0004
1783.00,0.0004
1782.00,0.0004
1781.00,0.0004
1780.00,0.0003
1779.00,0.0003
1778.00,0.0002
1777.00,0.0002
1776.00,0.0001
1775.00,0.0000
1774.00,-0.0001
1773.00,-0.0001
1772.00,-0.0000
1771.00,0.0000
1770.00,0.0001
1769.00,0.0001
1768.00,0.0002
1767.00,0.0002
1766.00,0.0002
1765.00,0.0003
1764.00,0.0004
1763.00,0.0004
1762.00,0.0005
1761.00,0.0005
1760.00,0.0005
1759.00,0.0005
1758.00,0.0006
1757.00,0.0006
1756.00,0.0006
1755.00,0.0005
1754.00,0.0005
1753.00,0.0004
1752.00,0.0005
1751.00,0.0005
1750.00,0.0005
1749.00,0.0004
1748.00,0.0005
1747.00,0.0005
1746.00,0.0005
1745.00,0.0005
1744.00,0.0005
1743.00,0.0005
1742.00,0.0005
1741.00,0.0005
1740.00,0.0005
1739.00,0.0005
1738.00,0.0005
1737.00,0.0005
1736.00,0.0004
1735.00,0.0004
1734.00,0.0004
1733.00,0.0004
1732.00,0.0004
1731.00,0.0004
1730.00,0.0004
1729.00,0.0005
1728.00,0.0005
1727.00,0.0005
1726.00,0.0005
1725.00,0.0005
1724.00,0.0005
1723.00,0.0005
1722.00,0.0006
1721.00,0.0007
1720.00,0.0007
1719.00,0.0007
1718.00,0.0008
1717.00,0.0009
1716.00,0.0010
1715.00,0.0010
1714.00,0.0011
1713.00,0.0011
1712.00,0.0011
1711.00,0.0011
1710.00,0.0012
1709.00,0.0013
1708.00,0.0014
1707.00,0.0014
1706.00,0.0015
1705.00,0.0016
1704.00,0.0017
1703.00,0.0018
1702.00,0.0019
1701.00,0.0021
1700.00,0.0023
1699.00,0.0023
1698.00,0.0024
1697.00,0.0024
1696.00,0.0026
1695.00,0.0028
1694.00,0.0029
1693.00,0.0031
1692.00,0.0032
1691.00,0.0033
1690.00,0.0034
1689.00,0.0036
1688.00,0.0037
1687.00,0.0037
1686.00,0.0037
1685.00,0.0038
1684.00,0.0041
1683.00,0.0044
1682.00,0.0046
1681.00,0.0047
1680.00,0.0049
1679.00,0.0051
1678.00,0.0052
1677.00,0.0054
1676.00,0.0055
1675.00,0.0056
1674.00,0.0057
1673.00,0.0058
1672.00,0.0059
1671.00,0.0060
1670.00,0.0062
1669.00,0.0063
1668.00,0.0064
1667.00,0.0065
1666.00,0.0065
1665.00,0.0066
1664.00,0.0066
1663.00,0.0067
1662.00,0.0068
1661.00,0.0068
1660.00,0.0069
1659.00,0.0069
1658.00,0.0070
1657.00,0.0071
1656.00,0.0072
1655.00,0.0072
1654.00,0.0072
1653.00,0.0072
1652.00,0.0072
1651.00,0.0073
1650.00,0.0073
1649.00,0.0073
1648.00,0.0073
1647.00,0.0074
1646.00,0.0074
1645.00,0.0074
1644.00,0.0074
1643.00,0.0074
1642.00,0.0073
1641.00,0.0072
1640.00,0.0072
1639.00,0.0071
1638.00,0.0070
1637.00,0.0070
1636.00,0.0069
1635.00,0.0069
1634.00,0.0069
1633.00,0.0069
1632.00,0.0069
1631.00,0.0069
1630.00,0.0068
1629.00,0.0068
1628.00,0.0068
1627.00,0.0067
1626.00,0.0067
1625.00,0.0066
1624.00,0.0065
1623.00,0.0063
1622.00,0.0062
1621.00,0.0061
1620.00,0.0060
1619.00,0.0059
1618.00,0.0059
1617.00,0.0058
1616.00,0.0059
1615.00,0.0059
1614.00,0.0058
1613.00,0.0058
1612.00,0.0057
1611.00,0.0056
1610.00,0.0055
1609.00,0.0054
1608.00,0.0054
1607.00,0.0055
1606.00,0.0055
1605.00,0.0055
1604.00,0.0056
1603.00,0.0056
1602.00,0.0056
1601.00,0.0056
1600.00,0.0056
1599.00,0.0055
1598.00,0.0055
1597.00,0.0055
1596.00,0.0056
1595.00,0.0056
1594.00,0.0056
1593.00,0.0056
1592.00,0.0056
1591.00,0.0057
1590.00,0.0057
1589.00,0.0058
1588.00,0.0059
1587.00,0.0060
1586.00,0.0061
1585.00,0.0062
1584.00,0.0064
1583.00,0.0067
1582.00,0.0069
1581.00,0.0071
1580.00,0.0073
1579.00,0.0074
1578.00,0.0074
1577.00,0.0074
1576.00,0.0075
1575.00,0.0075
1574.00,0.0074
1573.00,0.0074
1572.00,0.0073
1571.00,0.0072
1570.00,0.0071
1569.00,0.0069
1568.00,0.0068
1567.00,0.0068
1566.00,0.0067
1565.00,0.0066
1564.00,0.0066
1563.00,0.0066
1562.00,0.0066
1561.00,0.0067
1560.00,0.0067
1559.00,0.0068
1558.00,0.0070
1557.00,0.0070
1556.00,0.0071
1555.00,0.0071
1554.00,0.0072
1553.00,0.0073
1552.00,0.0074
1551.00,0.0075
1550.00,0.0076
1549.00,0.0078
1548.00,0.0080
1547.00,0.0081
1546.00,0.0082
1545.00,0.0084
1544.00,0.0087
1543.00,0.0089
1542.00,0.0090
1541.00,0.0090
1540.00,0.0089
1539.00,0.0087
1538.00,0.0085
1537.00,0.0083
1536.00,0.0081
1535.00,0.0078
1534.00,0.0074
1533.00,0.0072
1532.00,0.0070
1531.00,0.0068
1530.00,0.0067
1529.00,0.0066
1528.00,0.0066
1527.00,0.0065
1526.00,0.0064
1525.00,0.0064
1524.00,0.0064
1523.00,0.0063
1522.00,0.0062
1521.00,0.0062
1520.00,0.0063
1519.00,0.0062
1518.00,0.0062
1517.00,0.0062
1516.00,0.0062
1515.00,0.0063
1514.00,0.0063
1513.00,0.0064
1512.00,0.0064
1511.00,0.0064
1510.00,0.0064
1509.00,0.0065
1508.00,0.0067
1507.00,0.0067
1506.00,0.0067
1505.00,0.0068
1504.00,0.0069
1503.00,0.0070
1502.00,0.0071
1501.00,0.0073
1500.00,0.0075
1499.00,0.0077
1498.00,0.0078
1497.00,0.0081
1496.00,0.0084
1495.00,0.0087
1494.00,0.0090
1493.00,0.0093
1492.00,0.0096
1491.00,0.0099
1490.00,0.0103
1489.00,0.0107
1488.00,0.0113
1487.00,0.0118
1486.00,0.0122
1485.00,0.0128
1484.00,0.0135
1483.00,0.0143
1482.00,0.0153
1481.00,0.0165
1480.00,0.0178
1479.00,0.0190
1478.00,0.0205
1477.00,0.0223
1476.00,0.0245
1475.00,0.0269
1474.00,0.0303
1473.00,0.0355
1472.00,0.0420
1471.00,0.0483
1470.00,0.0545
1469.00,0.0610
1468.00,0.0680
1467.00,0.0758
1466.00,0.0848
1465.00,0.0945
1464.00,0.1032
1463.00,0.1095
1462.00,0.1140
1461.00,0.1173
1460.00,0.1198
1459.00,0.1216
1458.00,0.1230
1457.00,0.1243
1456.00,0.1247
1455.00,0.1243
1454.00,0.1235
1453.00,0.1220
1452.00,0.1194
1451.00,0.1155
1450.00,0.1099
1449.00,0.1021
1448.00,0.0924
1447.00,0.0822
1446.00,0.0731
1445.00,0.0655
1444.00,0.0590
1443.00,0.0539
1442.00,0.0501
1441.00,0.0476
1440.00,0.0462
1439.00,0.0457
1438.00,0.0459
1437.00,0.0460
1436.00,0.0448
1435.00,0.0420
1434.00,0.0380
1433.00,0.0332
1432.00,0.0283
1431.00,0.0240
1430.00,0.0208
1429.00,0.0185
1428.00,0.0169
1427.00,0.0160
1426.00,0.0154
1425.00,0.0148
1424.00,0.0143
1423.00,0.0140
1422.00,0.0139
1421.00,0.0137
1420.00,0.0133
1419.00,0.0130
1418.00,0.0127
1417.00,0.0124
1416.00,0.0121
1415.00,0.0119
1414.00,0.0118
1413.00,0.0117
1412.00,0.0115
1411.00,0.0114
1410.00,0.0114
1409.00,0.0113
1408.00,0.0112
1407.00,0.0112
1406.00,0.0113
1405.00,0.0113
1404.00,0.0113
1403.00,0.0114
1402.00,0.0115
1401.00,0.0116
1400.00,0.0117
1399.00,0.0119
1398.00,0.0122
1397.00,0.0123
1396.00,0.0125
1395.00,0.0130
1394.00,0.0136
1393.00,0.0141
1392.00,0.0148
1391.00,0.0157
1390.00,0.0170
1389.00,0.0187
1388.00,0.0214
1387.00,0.0254
1386.00,0.0306
1385.00,0.0371
1384.00,0.0457
1383.00,0.0573
1382.00,0.0725
1381.00,0.0920
1380.00,0.1162
1379.00,0.1440
1378.00,0.1714
1377.00,0.1923
1376.00,0.2005
1375.00,0.1921
1374.00,0.1691
1373.00,0.1401
1372.00,0.1131
1371.00,0.0905
1370.00,0.0724
1369.00,0.0586
1368.00,0.0491
1367.00,0.0433
1366.00,0.0402
1365.00,0.0390
1364.00,0.0393
1363.00,0.0408
1362.00,0.0430
1361.00,0.0454
1360.00,0.0471
1359.00,0.0476
1358.00,0.0464
1357.00,0.0435
1356.00,0.0395
1355.00,0.0350
1354.00,0.0307
1353.00,0.0270
1352.00,0.0241
1351.00,0.0217
1350.00,0.0197
1349.00,0.0182
1348.00,0.0170
1347.00,0.0160
1346.00,0.0152
1345.00,0.0145
1344.00,0.0140
1343.00,0.0136
1342.00,0.0132
1341.00,0.0129
1340.00,0.0126
1339.00,0.0125
1338.00,0.0125
1337.00,0.0125
1336.00,0.0126
1335.00,0.0128
1334.00,0.0131
1333.00,0.0135
1332.00,0.0139
1331.00,0.0142
1330.00,0.0144
1329.00,0.0142
1328.00,0.0138
1327.00,0.0132
1326.00,0.0125
1325.00,0.0118
1324.00,0.0112
1323.00,0.0107
1322.00,0.0103
1321.00,0.0099
1320.00,0.0096
1319.00,0.0094
1318.00,0.0091
1317.00,0.0089
1316.00,0.0086
1315.00,0.0085
1314.00,0.0084
1313.00,0.0085
1312.00,0.0086
1311.00,0.0089
1310.00,0.0092
1309.00,0.0098
1308.00,0.0106
1307.00,0.0116
1306.00,0.0126
1305.00,0.0134
1304.00,0.0137
1303.00,0.0136
1302.00,0.0133
1301.00,0.0129
1300.00,0.0127
1299.00,0.0126
1298.00,0.0127
1297.00,0.0127
1296.00,0.0126
1295.00,0.0124
1294.00,0.0120
1293.00,0.0114
1292.00,0.0108
1291.00,0.0102
1290.00,0.0098
1289.00,0.0093
1288.00,0.0090
1287.00,0.0086
1286.00,0.0084
1285.00,0.0081
1284.00,0.0079
1283.00,0.0077
1282.00,0.0076
1281.00,0.0074
1280.00,0.0072
1279.00,0.0071
1278.00,0.0070
1277.00,0.0069
1276.00,0.0068
1275.00,0.0068
1274.00,0.0069
1273.00,0.0069
1272.00,0.0070
1271.00,0.0070
1270.00,0.0071
1269.00,0.0072
1268.00,0.0073
1267.00,0.0075
1266.00,0.0076
1265.00,0.0079
1264.00,0.0081
1263.00,0.0084
1262.00,0.0087
1261.00,0.0091
1260.00,0.0097
1259.00,0.0104
1258.00,0.0111
1257.00,0.0117
1256.00,0.0119
1255.00,0.0118
1254.00,0.0113
1253.00,0.0106
1252.00,0.0098
1251.00,0.0092
1250.00,0.0088
1249.00,0.0085
1248.00,0.0082
1247.00,0.0081
1246.00,0.0079
1245.00,0.0078
1244.00,0.0077
1243.00,0.0077
1242.00,0.0076
1241.00,0.0076
1240.00,0.0075
1239.00,0.0075
1238.00,0.0074
1237.00,0.0073
1236.00,0.0073
1235.00,0.0072
1234.00,0.0072
1233.00,0.0071
1232.00,0.0071
1231.00,0.0070
1230.00,0.0070
1229.00,0.0071
1228.00,0.0072
1227.00,0.0074
1226.00,0.0076
1225.00,0.0080
1224.00,0.0083
1223.00,0.0087
1222.00,0.0090
1221.00,0.0093
1220.00,0.0094
1219.00,0.0095
1218.00,0.0095
1217.00,0.0093
1216.00,0.0091
1215.00,0.0088
1214.00,0.0084
1213.00,0.0080
1212.00,0.0077
1211.00,0.0074
1210.00,0.0071
1209.00,0.0069
1208.00,0.0067
1207.00,0.0066
1206.00,0.0064
1205.00,0.0063
1204.00,0.0061
1203.00,0.0059
1202.00,0.0058
1201.00,0.0057
1200.00,0.0057
1199.00,0.0056
1198.00,0.0056
1197.00,0.0055
1196.00,0.0055
1195.00,0.0056
1194.00,0.0056
1193.00,0.0056
1192.00,0.0056
1191.00,0.0056
1190.00,0.0057
1189.00,0.0058
1188.00,0.0059
1187.00,0.0061
1186.00,0.0063
1185.00,0.0065
1184.00,0.0067
1183.00,0.0069
1182.00,0.0071
1181.00,0.0074
1180.00,0.0077
1179.00,0.0082
1178.00,0.0088
1177.00,0.0097
1176.00,0.0109
1175.00,0.0125
1174.00,0.0145
1173.00,0.0170
1172.00,0.0199
1171.00,0.0232
1170.00,0.0263
1169.00,0.0288
1168.00,0.0304
1167.00,0.0308
1166.00,0.0302
1165.00,0.0289
1164.00,0.0272
1163.00,0.0256
1162.00,0.0240
1161.00,0.0227
1160.00,0.0217
1159.00,0.0210
1158.00,0.0204
1157.00,0.0200
1156.00,0.0197
1155.00,0.0195
1154.00,0.0193
1153.00,0.0190
1152.00,0.0186
1151.00,0.0181
1150.00,0.0173
1149.00,0.0163
1148.00,0.0154
1147.00,0.0144
1146.00,0.0136
1145.00,0.0128
1144.00,0.0121
1143.00,0.0114
1142.00,0.0108
1141.00,0.0101
1140.00,0.0095
1139.00,0.0090
1138.00,0.0087
1137.00,0.0084
1136.00,0.0081
1135.00,0.0079
1134.00,0.0077
1133.00,0.0076
1132.00,0.0075
1131.00,0.0075
1130.00,0.0075
1129.00,0.0076
1128.00,0.0078
1127.00,0.0080
1126.00,0.0082
1125.00,0.0083
1124.00,0.0083
1123.00,0.0083
1122.00,0.0082
1121.00,0.0082
1120.00,0.0082
1119.00,0.0083
1118.00,0.0084
1117.00,0.0086
1116.00,0.0087
1115.00,0.0089
1114.00,0.0091
1113.00,0.0093
1112.00,0.0095
1111.00,0.0098
1110.00,0.0102
1109.00,0.0106
1108.00,0.0112
1107.00,0.0119
1106.00,0.0127
1105.00,0.0134
1104.00,0.0139
1103.00,0.0143
1102.00,0.0144
1101.00,0.0142
1100.00,0.0137
1099.00,0.0131
1098.00,0.0123
1097.00,0.0116
1096.00,0.0110
1095.00,0.0105
1094.00,0.0100
1093.00,0.0097
1092.00,0.0094
1091.00,0.0092
1090.00,0.0091
1089.00,0.0089
1088.00,0.0087
1087.00,0.0085
1086.00,0.0084
1085.00,0.0083
1084.00,0.0082
1083.00,0.0081
1082.00,0.0080
1081.00,0.0079
1080.00,0.0078
1079.00,0.0077
1078.00,0.0076
1077.00,0.0075
1076.00,0.0074
1075.00,0.0074
1074.00,0.0074
1073.00,0.0073
1072.00,0.0073
1071.00,0.0074
1070.00,0.0075
1069.00,0.0075
1068.00,0.0076
1067.00,0.0077
1066.00,0.0078
1065.00,0.0079
1064.00,0.0079
1063.00,0.0078
1062.00,0.0078
1061.00,0.0077
1060.00,0.0078
1059.00,0.0078
1058.00,0.0079
1057.00,0.0080
1056.00,0.0081
1055.00,0.0082
1054.00,0.0083
1053.00,0.0083
1052.00,0.0082
1051.00,0.0083
1050.00,0.0085
1049.00,0.0088
1048.00,0.0090
1047.00,0.0092
1046.00,0.0094
1045.00,0.0095
1044.00,0.0096
1043.00,0.0095
1042.00,0.0094
1041.00,0.0091
1040.00,0.0090
1039.00,0.0090
1038.00,0.0091
1037.00,0.0092
1036.00,0.0093
1035.00,0.0093
1034.00,0.0093
1033.00,0.0092
1032.00,0.0091
1031.00,0.0091
1030.00,0.0090
1029.00,0.0090
1028.00,0.0089
1027.00,0.0088
1026.00,0.0087
1025.00,0.0086
1024.00,0.0086
1023.00,0.0086
1022.00,0.0087
1021.00,0.0088
1020.00,0.0089
1019.00,0.0090
1018.00,0.0091
1017.00,0.0092
1016.00,0.0095
1015.00,0.0097
1014.00,0.0100
1013.00,0.0104
1012.00,0.0107
1011.00,0.0111
1010.00,0.0115
1009.00,0.0120
1008.00,0.0125
1007.00,0.0131
1006.00,0.0139
1005.00,0.0150
1004.00,0.0165
1003.00,0.0186
1002.00,0.0214
1001.00,0.0246
1000.00,0.0280
999.00,0.0308
998.00,0.0322
997.00,0.0316
996.00,0.0292
995.00,0.0257
994.00,0.0219
993.00,0.0185
992.00,0.0158
991.00,0.0139
990.00,0.0126
989.00,0.0119
988.00,0.0114
987.00,0.0111
986.00,0.0111
985.00,0.0112
984.00,0.0117
983.00,0.0125
982.00,0.0137
981.00,0.0154
980.00,0.0176
979.00,0.0205
978.00,0.0241
977.00,0.0282
976.00,0.0325
975.00,0.0366
974.00,0.0396
973.00,0.0406
972.00,0.0393
971.00,0.0357
970.00,0.0309
969.00,0.0260
968.00,0.0218
967.00,0.0185
966.00,0.0160
965.00,0.0141
964.00,0.0127
963.00,0.0116
962.00,0.0108
961.00,0.0102
960.00,0.0097
959.00,0.0093
958.00,0.0089
957.00,0.0087
956.00,0.0085
955.00,0.0084
954.00,0.0083
953.00,0.0081
952.00,0.0080
951.00,0.0078
950.00,0.0077
949.00,0.0077
948.00,0.0079
947.00,0.0081
946.00,0.0083
945.00,0.0086
944.00,0.0089
943.00,0.0092
942.00,0.0094
941.00,0.0094
940.00,0.0093
939.00,0.0091
938.00,0.0087
937.00,0.0083
936.00,0.0078
935.00,0.0073
934.00,0.0070
933.00,0.0068
932.00,0.0068
931.00,0.0067
930.00,0.0065
929.00,0.0064
928.00,0.0063
927.00,0.0061
926.00,0.0061
925.00,0.0060
924.00,0.0061
923.00,0.0062
922.00,0.0063
921.00,0.0064
920.00,0.0065
919.00,0.0066
918.00,0.0068
917.00,0.0069
916.00,0.0070
915.00,0.0070
914.00,0.0071
913.00,0.0072
912.00,0.0073
911.00,0.0074
910.00,0.0074
909.00,0.0075
908.00,0.0078
907.00,0.0082
906.00,0.0090
905.00,0.0101
904.00,0.0117
903.00,0.0136
902.00,0.0158
901.00,0.0178
900.00,0.0191
899.00,0.0195
898.00,0.0188
897.00,0.0172
896.00,0.0152
895.00,0.0133
894.00,0.0117
893.00,0.0104
892.00,0.0094
891.00,0.0087
890.00,0.0082
889.00,0.0078
888.00,0.0076
887.00,0.0075
886.00,0.0073
885.00,0.0072
884.00,0.0071
883.00,0.0071
882.00,0.0071
881.00,0.0071
880.00,0.0072
879.00,0.0073
878.00,0.0073
877.00,0.0074
876.00,0.0075
875.00,0.0076
874.00,0.0076
873.00,0.0075
872.00,0.0074
871.00,0.0073
870.00,0.0073
869.00,0.0074
868.00,0.0075
867.00,0.0076
866.00,0.0077
865.00,0.0077
864.00,0.0077
863.00,0.0078
862.00,0.0079
861.00,0.0080
860.00,0.0082
859.00,0.0084
858.00,0.0086
857.00,0.0087
856.00,0.0088
855.00,0.0089
854.00,0.0090
853.00,0.0092
852.00,0.0095
851.00,0.0099
850.00,0.0105
849.00,0.0112
848.00,0.0122
847.00,0.0136
846.00,0.0158
845.00,0.0190
844.00,0.0231
843.00,0.0273
842.00,0.0304
841.00,0.0310
840.00,0.0288
839.00,0.0249
838.00,0.0207
837.00,0.0174
836.00,0.0152
835.00,0.0139
834.00,0.0131
833.00,0.0125
832.00,0.0121
831.00,0.0118
830.00,0.0115
829.00,0.0114
828.00,0.0112
827.00,0.0111
826.00,0.0108
825.00,0.0106
824.00,0.0104
823.00,0.0104
822.00,0.0105
821.00,0.0106
820.00,0.0108
819.00,0.0110
818.00,0.0115
817.00,0.0122
816.00,0.0130
815.00,0.0140
814.00,0.0153
813.00,0.0169
812.00,0.0185
811.00,0.0201
810.00,0.0212
809.00,0.0218
808.00,0.0217
807.00,0.0209
806.00,0.0196
805.00,0.0181
804.00,0.0166
803.00,0.0152
802.00,0.0140
801.00,0.0131
800.00,0.0123
799.00,0.0117
798.00,0.0112
797.00,0.0107
796.00,0.0103
795.00,0.0098
794.00,0.0094
793.00,0.0090
792.00,0.0087
791.00,0.0085
790.00,0.0084
789.00,0.0081
788.00,0.0078
787.00,0.0074
786.00,0.0070
785.00,0.0067
784.00,0.0067
783.00,0.0067
782.00,0.0067
781.00,0.0065
780.00,0.0063
779.00,0.0061
778.00,0.0060
777.00,0.0060
776.00,0.0060
775.00,0.0062
774.00,0.0065
773.00,0.0070
772.00,0.0075
771.00,0.0078
770.00,0.0079
769.00,0.0079
768.00,0.0080
767.00,0.0080
766.00,0.0081
765.00,0.0080
764.00,0.0076
763.00,0.0072
762.00,0.0067
761.00,0.0063
760.00,0.0061
759.00,0.0060
758.00,0.0060
757.00,0.0059
756.00,0.0058
755.00,0.0056
754.00,0.0054
753.00,0.0053
752.00,0.0053
751.00,0.0054
750.00,0.0055
749.00,0.0055
748.00,0.0054
747.00,0.0053
746.00,0.0053
745.00,0.0054
744.00,0.0056
743.00,0.0058
742.00,0.0059
741.00,0.0061
740.00,0.0062
739.00,0.0063
738.00,0.0063
737.00,0.0065
736.00,0.0067
735.00,0.0070
734.00,0.0073
733.00,0.0075
732.00,0.0076
731.00,0.0076
730.00,0.0076
729.00,0.0076
728.00,0.0074
727.00,0.0073
726.00,0.0071
725.00,0.0070
724.00,0.0070
723.00,0.0071
722.00,0.0070
721.00,0.0069
720.00,0.0068
719.00,0.0067
718.00,0.0067
717.00,0.0066
716.00,0.0064
715.00,0.0063
714.00,0.0061
713.00,0.0060
712.00,0.0059
711.00,0.0059
710.00,0.0060
709.00,0.0061
708.00,0.0061
707.00,0.0061
706.00,0.0061
705.00,0.0061
704.00,0.0061
703.00,0.0062
702.00,0.0064
701.00,0.0065
700.00,0.0064
699.00,0.0062
698.00,0.0060
697.00,0.0058
696.00,0.0057
695.00,0.0058
694.00,0.0059
693.00,0.0059
692.00,0.0058
691.00,0.0056
690.00,0.0055
689.00,0.0056
688.00,0.0057
687.00,0.0056
686.00,0.0055
685.00,0.0055
684.00,0.0055
683.00,0.0056
682.00,0.0056
681.00,0.0056
680.00,0.0057
679.00,0.0058
678.00,0.0059
677.00,0.0059
676.00,0.0058
675.00,0.0057
674.00,0.0055
673.00,0.0054
672.00,0.0053
671.00,0.0053
670.00,0.0054
669.00,0.0056
668.00,0.0060
667.00,0.0063
666.00,0.0065
665.00,0.0065
664.00,0.0063
663.00,0.0062
662.00,0.0060
661.00,0.0058
660.00,0.0058
659.00,0.0059
658.00,0.0059
657.00,0.0060
656.00,0.0059
655.00,0.0059
654.00,0.0058
653.00,0.0059
652.00,0.0059
651.00,0.0059
650.00,0.0059
649.00,0.0058
648.00,0.0058
647.00,0.0060
646.00,0.0061
645.00,0.0061
644.00,0.0058
643.00,0.0055
642.00,0.0053
641.00,0.0053
640.00,0.0054
639.00,0.0057
638.00,0.0060
637.00,0.0062
636.00,0.0061
635.00,0.0059
634.00,0.0058
633.00,0.0059
632.00,0.0060
631.00,0.0062
630.00,0.0063
629.00,0.0063
628.00,0.0062
627.00,0.0062
626.00,0.0063
625.00,0.0064
624.00,0.0065
623.00,0.0062
622.00,0.0058
621.00,0.0057
620.00,0.0058
619.00,0.0062
618.00,0.0065
617.00,0.0066
616.00,0.0066
615.00,0.0066
614.00,0.0065
613.00,0.0062
612.00,0.0059
611.00,0.0059
610.00,0.0062
609.00,0.0067
608.00,0.0072
607.00,0.0073
606.00,0.0071
605.00,0.0068
604.00,0.0064
603.00,0.0061
602.00,0.0062
601.00,0.0064
600.00,0.0066
599.00,0.0064
598.00,0.0062
597.00,0.0061
596.00,0.0062
595.00,0.0064
594.00,0.0064
593.00,0.0062
592.00,0.0060
591.00,0.0058
590.00,0.0057
589.00,0.0055
588.00,0.0054
587.00,0.0052
586.00,0.0052
585.00,0.0054
584.00,0.0058
583.00,0.0063
582.00,0.0067
581.00,0.0068
580.00,0.0068
579.00,0.0067
578.00,0.0066
577.00,0.0065
576.00,0.0063
575.00,0.0062
574.00,0.0063
573.00,0.0065
572.00,0.0066
571.00,0.0066
570.00,0.0064
569.00,0.0063
568.00,0.0064
567.00,0.0065
566.00,0.0065
565.00,0.0064
564.00,0.0063
563.00,0.0064
562.00,0.0066
561.00,0.0069
560.00,0.0071
559.00,0.0070
558.00,0.0068
557.00,0.0064
556.00,0.0063
555.00,0.0064
554.00,0.0064
553.00,0.0063
552.00,0.0061
551.00,0.0061
550.00,0.0064
549.00,0.0066
548.00,0.0067
547.00,0.0066
546.00,0.0065
545.00,0.0062
544.00,0.0060
543.00,0.0059
542.00,0.0059
541.00,0.0061
540.00,0.0062
539.00,0.0065
538.00,0.0068
537.00,0.0071
536.00,0.0074
535.00,0.0077
534.00,0.0080
533.00,0.0080
532.00,0.0078
531.00,0.0074
530.00,0.0070
529.00,0.0069
528.00,0.0071
527.00,0.0077
526.00,0.0083
525.00,0.0086
524.00,0.0083
523.00,0.0079
522.00,0.0076
521.00,0.0075
520.00,0.0078
519.00,0.0081
518.00,0.0084
517.00,0.0081
516.00,0.0075
515.00,0.0070
514.00,0.0070
513.00,0.0073
512.00,0.0078
511.00,0.0082
510.00,0.0083
509.00,0.0080
508.00,0.0073
507.00,0.0068
506.00,0.0067
505.00,0.0070
504.00,0.0072
503.00,0.0073
502.00,0.0074
501.00,0.0074
500.00,0.0071
499.00,0.0067
498.00,0.0061
497.00,0.0057
496.00,0.0053
495.00,0.0048
494.00,0.0044
493.00,0.0045
492.00,0.0053
491.00,0.0064
490.00,0.0071
489.00,0.0072
488.00,0.0069
487.00,0.0068
486.00,0.0071
485.00,0.0076
484.00,0.0080
483.00,0.0080
482.00,0.0077
481.00,0.0076
480.00,0.0079
479.00,0.0082
478.00,0.0080
477.00,0.0072
476.00,0.0065
475.00,0.0063
474.00,0.0067
473.00,0.0071
472.00,0.0073
471.00,0.0078
470.00,0.0085
469.00,0.0092
468.00,0.0097
467.00,0.0102
466.00,0.0109
465.00,0.0119
464.00,0.0131
463.00,0.0145
462.00,0.0157
461.00,0.0163
460.00,0.0165
459.00,0.0165
458.00,0.0166
457.00,0.0169
456.00,0.0165
455.00,0.0155
454.00,0.0140
453.00,0.0124
452.00,0.0110
451.00,0.0098
450.00,0.0089
