Created as New Dataset,Sample 101 By Administrator Date Tuesday, September 09 2025
cm-1,A
4000.00,0.0010
3999.00,0.0011
3998.00,0.0011
3997.00,0.0011
3996.00,0.0011
3995.00,0.0011
3994.00,0.0011
3993.00,0.0011
3992.00,0.0011
3991.00,0.0010
3990.00,0.0010
3989.00,0.0010
3988.00,0.0010
3987.00,0.0010
3986.00,0.0010
3985.00,0.0010
3984.00,0.0010
3983.00,0.0010
3982.00,0.0009
3981.00,0.0009
3980.00,0.0009
3979.00,0.0009
3978.00,0.0009
3977.00,0.0009
3976.00,0.0009
3975.00,0.0009
3974.00,0.0009
3973.00,0.0009
3972.00,0.0009
3971.00,0.0009
3970.00,0.0009
3969.00,0.0009
3968.00,0.0009
3967.00,0.0009
3966.00,0.0009
3965.00,0.0009
3964.00,0.0008
3963.00,0.0008
3962.00,0.0008
3961.00,0.0008
3960.00,0.0008
3959.00,0.0008
3958.00,0.0008
3957.00,0.0008
3956.00,0.0008
3955.00,0.0008
3954.00,0.0008
3953.00,0.0008
3952.00,0.0008
3951.00,0.0008
3950.00,0.0009
3949.00,0.0009
3948.00,0.0009
3947.00,0.0009
3946.00,0.0009
3945.00,0.0009
3944.00,0.0009
3943.00,0.0009
3942.00,0.0009
3941.00,0.0010
3940.00,0.0010
3939.00,0.0009
3938.00,0.0009
3937.00,0.0009
3936.00,0.0009
3935.00,0.0009
3934.00,0.0009
3933.00,0.0009
3932.00,0.0009
3931.00,0.0009
3930.00,0.0009
3929.00,0.0009
3928.00,0.0009
3927.00,0.0008
3926.00,0.0008
3925.00,0.0008
3924.00,0.0008
3923.00,0.0008
3922.00,0.0009
3921.00,0.0009
3920.00,0.0009
3919.00,0.0009
3918.00,0.0009
3917.00,0.0009
3916.00,0.0008
3915.00,0.0008
3914.00,0.0008
3913.00,0.0008
3912.00,0.0008
3911.00,0.0008
3910.00,0.0008
3909.00,0.0008
3908.00,0.0008
3907.00,0.0008
3906.00,0.0008
3905.00,0.0009
3904.00,0.0009
3903.00,0.0009
3902.00,0.0009
3901.00,0.0009
3900.00,0.0009
3899.00,0.0008
3898.00,0.0008
3897.00,0.0009
3896.00,0.0009
3895.00,0.0009
3894.00,0.0009
3893.00,0.0009
3892.00,0.0009
3891.00,0.0008
3890.00,0.0008
3889.00,0.0008
3888.00,0.0008
3887.00,0.0008
3886.00,0.0008
3885.00,0.0008
3884.00,0.0008
3883.00,0.0008
3882.00,0.0008
3881.00,0.0008
3880.00,0.0008
3879.00,0.0009
3878.00,0.0009
3877.00,0.0008
3876.00,0.0008
3875.00,0.0008
3874.00,0.0008
3873.00,0.0008
3872.00,0.0008
3871.00,0.0008
3870.00,0.0008
3869.00,0.0008
3868.00,0.0008
3867.00,0.0008
3866.00,0.0007
3865.00,0.0007
3864.00,0.0007
3863.00,0.0007
3862.00,0.0007
3861.00,0.0007
3860.00,0.0007
3859.00,0.0007
3858.00,0.0007
3857.00,0.0007
3856.00,0.0007
3855.00,0.0007
3854.00,0.0007
3853.00,0.0007
3852.00,0.0007
3851.00,0.0007
3850.00,0.0007
3849.00,0.0008
3848.00,0.0008
3847.00,0.0008
3846.00,0.0008
3845.00,0.0008
3844.00,0.0007
3843.00,0.0007
3842.00,0.0006
3841.00,0.0005
3840.00,0.0005
3839.00,0.0006
3838.00,0.0006
3837.00,0.0007
3836.00,0.0007
3835.00,0.0007
3834.00,0.0007
3833.00,0.0007
3832.00,0.0008
3831.00,0.0008
3830.00,0.0008
3829.00,0.0008
3828.00,0.0008
3827.00,0.0009
3826.00,0.0009
3825.00,0.0009
3824.00,0.0008
3823.00,0.0008
3822.00,0.0008
3821.00,0.0007
3820.00,0.0007
3819.00,0.0007
3818.00,0.0007
3817.00,0.0007
3816.00,0.0007
3815.00,0.0007
3814.00,0.0008
3813.00,0.0008
3812.00,0.0008
3811.00,0.0008
3810.00,0.0008
3809.00,0.0008
3808.00,0.0008
3807.00,0.0008
3806.00,0.0008
3805.00,0.0008
3804.00,0.0008
3803.00,0.0008
3802.00,0.0008
3801.00,0.0007
3800.00,0.0007
3799.00,0.0007
3798.00,0.0007
3797.00,0.0007
3796.00,0.0008
3795.00,0.0008
3794.00,0.0008
3793.00,0.0008
3792.00,0.0008
3791.00,0.0008
3790.00,0.0008
3789.00,0.0008
3788.00,0.0007
3787.00,0.0007
3786.00,0.0007
3785.00,0.0007
3784.00,0.0007
3783.00,0.0007
3782.00,0.0008
3781.00,0.0008
3780.00,0.0008
3779.00,0.0008
3778.00,0.0008
3777.00,0.0008
3776.00,0.0008
3775.00,0.0009
3774.00,0.0009
3773.00,0.0009
3772.00,0.0009
3771.00,0.0009
3770.00,0.0009
3769.00,0.0009
3768.00,0.0009
3767.00,0.0009
3766.00,0.0009
3765.00,0.0009
3764.00,0.0008
3763.00,0.0008
3762.00,0.0009
3761.00,0.0009
3760.00,0.0009
3759.00,0.0009
3758.00,0.0009
3757.00,0.0009
3756.00,0.0008
3755.00,0.0008
3754.00,0.0007
3753.00,0.0007
3752.00,0.0007
3751.00,0.0007
3750.00,0.0008
3749.00,0.0008
3748.00,0.0008
3747.00,0.0008
3746.00,0.0008
3745.00,0.0008
3744.00,0.0007
3743.00,0.0007
3742.00,0.0007
3741.00,0.0007
3740.00,0.0008
3739.00,0.0008
3738.00,0.0008
3737.00,0.0008
3736.00,0.0007
3735.00,0.0007
3734.00,0.0007
3733.00,0.0007
3732.00,0.0007
3731.00,0.0007
3730.00,0.0007
3729.00,0.0007
3728.00,0.0007
3727.00,0.0006
3726.00,0.0006
3725.00,0.0006
3724.00,0.0006
3723.00,0.0007
3722.00,0.0007
3721.00,0.0007
3720.00,0.0007
3719.00,0.0007
3718.00,0.0007
3717.00,0.0007
3716.00,0.0007
3715.00,0.0006
3714.00,0.0006
3713.00,0.0007
3712.00,0.0007
3711.00,0.0008
3710.00,0.0008
3709.00,0.0008
3708.00,0.0007
3707.00,0.0007
3706.00,0.0006
3705.00,0.0006
3704.00,0.0007
3703.00,0.0007
3702.00,0.0007
3701.00,0.0007
3700.00,0.0007
3699.00,0.0007
3698.00,0.0008
3697.00,0.0008
3696.00,0.0008
3695.00,0.0008
3694.00,0.0008
3693.00,0.0008
3692.00,0.0007
3691.00,0.0007
3690.00,0.0007
3689.00,0.0007
3688.00,0.0007
3687.00,0.0007
3686.00,0.0007
3685.00,0.0007
3684.00,0.0007
3683.00,0.0007
3682.00,0.0008
3681.00,0.0008
3680.00,0.0007
3679.00,0.0006
3678.00,0.0006
3677.00,0.0005
3676.00,0.0005
3675.00,0.0005
3674.00,0.0005
3673.00,0.0005
3672.00,0.0004
3671.00,0.0004
3670.00,0.0005
3669.00,0.0006
3668.00,0.0006
3667.00,0.0006
3666.00,0.0006
3665.00,0.0007
3664.00,0.0007
3663.00,0.0007
3662.00,0.0007
3661.00,0.0007
3660.00,0.0007
3659.00,0.0007
3658.00,0.0007
3657.00,0.0007
3656.00,0.0007
3655.00,0.0007
3654.00,0.0007
3653.00,0.0007
3652.00,0.0007
3651.00,0.0008
3650.00,0.0008
3649.00,0.0008
3648.00,0.0008
3647.00,0.0008
3646.00,0.0008
3645.00,0.0008
3644.00,0.0008
3643.00,0.0008
3642.00,0.0008
3641.00,0.0008
3640.00,0.0008
3639.00,0.0008
3638.00,0.0009
3637.00,0.0009
3636.00,0.0009
3635.00,0.0009
3634.00,0.0009
3633.00,0.0008
3632.00,0.0007
3631.00,0.0007
3630.00,0.0007
3629.00,0.0008
3628.00,0.0009
3627.00,0.0010
3626.00,0.0010
3625.00,0.0011
3624.00,0.0011
3623.00,0.0012
3622.00,0.0012
3621.00,0.0011
3620.00,0.0011
3619.00,0.0010
3618.00,0.0010
3617.00,0.0010
3616.00,0.0010
3615.00,0.0009
3614.00,0.0010
3613.00,0.0010
3612.00,0.0011
3611.00,0.0011
3610.00,0.0011
3609.00,0.0011
3608.00,0.0011
3607.00,0.0012
3606.00,0.0012
3605.00,0.0012
3604.00,0.0012
3603.00,0.0012
3602.00,0.0012
3601.00,0.0012
3600.00,0.0012
3599.00,0.0012
3598.00,0.0013
3597.00,0.0014
3596.00,0.0014
3595.00,0.0014
3594.00,0.0014
3593.00,0.0014
3592.00,0.0014
3591.00,0.0014
3590.00,0.0014
3589.00,0.0014
3588.00,0.0015
3587.00,0.0015
3586.00,0.0015
3585.00,0.0015
3584.00,0.0016
3583.00,0.0016
3582.00,0.0016
3581.00,0.0016
3580.00,0.0017
3579.00,0.0017
3578.00,0.0017
3577.00,0.0018
3576.00,0.0018
3575.00,0.0018
3574.00,0.0018
3573.00,0.0018
3572.00,0.0018
3571.00,0.0018
3570.00,0.0019
3569.00,0.0019
3568.00,0.0019
3567.00,0.0019
3566.00,0.0019
3565.00,0.0019
3564.00,0.0019
3563.00,0.0019
3562.00,0.0019
3561.00,0.0020
3560.00,0.0020
3559.00,0.0021
3558.00,0.0021
3557.00,0.0021
3556.00,0.0022
3555.00,0.0022
3554.00,0.0022
3553.00,0.0022
3552.00,0.0023
3551.00,0.0023
3550.00,0.0023
3549.00,0.0023
3548.00,0.0023
3547.00,0.0023
3546.00,0.0023
3545.00,0.0023
3544.00,0.0024
3543.00,0.0024
3542.00,0.0024
3541.00,0.0024
3540.00,0.0024
3539.00,0.0024
3538.00,0.0024
3537.00,0.0025
3536.00,0.0025
3535.00,0.0025
3534.00,0.0026
3533.00,0.0026
3532.00,0.0026
3531.00,0.0027
3530.00,0.0027
3529.00,0.0027
3528.00,0.0027
3527.00,0.0027
3526.00,0.0028
3525.00,0.0028
3524.00,0.0028
3523.00,0.0028
3522.00,0.0028
3521.00,0.0028
3520.00,0.0028
3519.00,0.0028
3518.00,0.0028
3517.00,0.0029
3516.00,0.0029
3515.00,0.0029
3514.00,0.0029
3513.00,0.0030
3512.00,0.0030
3511.00,0.0030
3510.00,0.0030
3509.00,0.0030
3508.00,0.0031
3507.00,0.0031
3506.00,0.0031
3505.00,0.0032
3504.00,0.0032
3503.00,0.0032
3502.00,0.0032
3501.00,0.0032
3500.00,0.0032
3499.00,0.0032
3498.00,0.0032
3497.00,0.0032
3496.00,0.0033
3495.00,0.0033
3494.00,0.0033
3493.00,0.0034
3492.00,0.0034
3491.00,0.0034
3490.00,0.0034
3489.00,0.0034
3488.00,0.0034
3487.00,0.0034
3486.00,0.0035
3485.00,0.0035
3484.00,0.0035
3483.00,0.0035
3482.00,0.0036
3481.00,0.0036
3480.00,0.0036
3479.00,0.0036
3478.00,0.0036
3477.00,0.0036
3476.00,0.0036
3475.00,0.0037
3474.00,0.0037
3473.00,0.0037
3472.00,0.0038
3471.00,0.0038
3470.00,0.0038
3469.00,0.0038
3468.00,0.0038
3467.00,0.0038
3466.00,0.0038
3465.00,0.0038
3464.00,0.0038
3463.00,0.0039
3462.00,0.0039
3461.00,0.0039
3460.00,0.0040
3459.00,0.0040
3458.00,0.0041
3457.00,0.0041
3456.00,0.0042
3455.00,0.0042
3454.00,0.0042
3453.00,0.0041
3452.00,0.0041
3451.00,0.0041
3450.00,0.0041
3449.00,0.0042
3448.00,0.0042
3447.00,0.0042
3446.00,0.0043
3445.00,0.0043
3444.00,0.0043
3443.00,0.0043
3442.00,0.0043
3441.00,0.0043
3440.00,0.0043
3439.00,0.0044
3438.00,0.0044
3437.00,0.0044
3436.00,0.0044
3435.00,0.0044
3434.00,0.0045
3433.00,0.0045
3432.00,0.0045
3431.00,0.0045
3430.00,0.0045
3429.00,0.0045
3428.00,0.0046
3427.00,0.0046
3426.00,0.0047
3425.00,0.0047
3424.00,0.0048
3423.00,0.0048
3422.00,0.0048
3421.00,0.0048
3420.00,0.0048
3419.00,0.0048
3418.00,0.0048
3417.00,0.0048
3416.00,0.0048
3415.00,0.0049
3414.00,0.0049
3413.00,0.0049
3412.00,0.0049
3411.00,0.0049
3410.00,0.0049
3409.00,0.0049
3408.00,0.0049
3407.00,0.0049
3406.00,0.0049
3405.00,0.0049
3404.00,0.0049
3403.00,0.0049
3402.00,0.0050
3401.00,0.0050
3400.00,0.0051
3399.00,0.0050
3398.00,0.0050
3397.00,0.0050
3396.00,0.0050
3395.00,0.0050
3394.00,0.0050
3393.00,0.0050
3392.00,0.0050
3391.00,0.0050
3390.00,0.0050
3389.00,0.0051
3388.00,0.0051
3387.00,0.0051
3386.00,0.0051
3385.00,0.0051
3384.00,0.0052
3383.00,0.0052
3382.00,0.0052
3381.00,0.0052
3380.00,0.0052
3379.00,0.0052
3378.00,0.0052
3377.00,0.0052
3376.00,0.0052
3375.00,0.0052
3374.00,0.0052
3373.00,0.0052
3372.00,0.0053
3371.00,0.0053
3370.00,0.0053
3369.00,0.0053
3368.00,0.0053
3367.00,0.0053
3366.00,0.0053
3365.00,0.0054
3364.00,0.0054
3363.00,0.0054
3362.00,0.0054
3361.00,0.0054
3360.00,0.0054
3359.00,0.0054
3358.00,0.0054
3357.00,0.0054
3356.00,0.0054
3355.00,0.0054
3354.00,0.0054
3353.00,0.0054
3352.00,0.0054
3351.00,0.0054
3350.00,0.0054
3349.00,0.0054
3348.00,0.0054
3347.00,0.0054
3346.00,0.0054
3345.00,0.0054
3344.00,0.0054
3343.00,0.0054
3342.00,0.0054
3341.00,0.0054
3340.00,0.0054
3339.00,0.0054
3338.00,0.0054
3337.00,0.0054
3336.00,0.0054
3335.00,0.0055
3334.00,0.0055
3333.00,0.0054
3332.00,0.0054
3331.00,0.0054
3330.00,0.0054
3329.00,0.0054
3328.00,0.0054
3327.00,0.0054
3326.00,0.0054
3325.00,0.0054
3324.00,0.0053
3323.00,0.0053
3322.00,0.0053
3321.00,0.0052
3320.00,0.0052
3319.00,0.0052
3318.00,0.0052
3317.00,0.0052
3316.00,0.0052
3315.00,0.0052
3314.00,0.0052
3313.00,0.0052
3312.00,0.0052
3311.00,0.0052
3310.00,0.0052
3309.00,0.0052
3308.00,0.0052
3307.00,0.0052
3306.00,0.0053
3305.00,0.0053
3304.00,0.0053
3303.00,0.0053
3302.00,0.0053
3301.00,0.0053
3300.00,0.0053
3299.00,0.0053
3298.00,0.0052
3297.00,0.0052
3296.00,0.0052
3295.00,0.0052
3294.00,0.0052
3293.00,0.0052
3292.00,0.0051
3291.00,0.0051
3290.00,0.0050
3289.00,0.0050
3288.00,0.0050
3287.00,0.0051
3286.00,0.0051
3285.00,0.0051
3284.00,0.0051
3283.00,0.0051
3282.00,0.0051
3281.00,0.0051
3280.00,0.0050
3279.00,0.0050
3278.00,0.0050
3277.00,0.0050
3276.00,0.0050
3275.00,0.0050
3274.00,0.0050
3273.00,0.0050
3272.00,0.0049
3271.00,0.0049
3270.00,0.0049
3269.00,0.0048
3268.00,0.0048
3267.00,0.0049
3266.00,0.0049
3265.00,0.0048
3264.00,0.0048
3263.00,0.0048
3262.00,0.0048
3261.00,0.0048
3260.00,0.0048
3259.00,0.0047
3258.00,0.0047
3257.00,0.0047
3256.00,0.0047
3255.00,0.0047
3254.00,0.0047
3253.00,0.0047
3252.00,0.0047
3251.00,0.0046
3250.00,0.0046
3249.00,0.0046
3248.00,0.0046
3247.00,0.0046
3246.00,0.0046
3245.00,0.0046
3244.00,0.0045
3243.00,0.0045
3242.00,0.0045
3241.00,0.0045
3240.00,0.0045
3239.00,0.0045
3238.00,0.0045
3237.00,0.0045
3236.00,0.0045
3235.00,0.0045
3234.00,0.0045
3233.00,0.0045
3232.00,0.0045
3231.00,0.0045
3230.00,0.0046
3229.00,0.0046
3228.00,0.0047
3227.00,0.0047
3226.00,0.0047
3225.00,0.0047
3224.00,0.0047
3223.00,0.0047
3222.00,0.0047
3221.00,0.0047
3220.00,0.0047
3219.00,0.0048
3218.00,0.0048
3217.00,0.0048
3216.00,0.0048
3215.00,0.0048
3214.00,0.0049
3213.00,0.0049
3212.00,0.0049
3211.00,0.0049
3210.00,0.0049
3209.00,0.0049
3208.00,0.0049
3207.00,0.0049
3206.00,0.0049
3205.00,0.0049
3204.00,0.0049
3203.00,0.0050
3202.00,0.0050
3201.00,0.0050
3200.00,0.0050
3199.00,0.0050
3198.00,0.0049
3197.00,0.0049
3196.00,0.0050
3195.00,0.0050
3194.00,0.0050
3193.00,0.0050
3192.00,0.0050
3191.00,0.0049
3190.00,0.0049
3189.00,0.0049
3188.00,0.0048
3187.00,0.0048
3186.00,0.0048
3185.00,0.0047
3184.00,0.0047
3183.00,0.0047
3182.00,0.0047
3181.00,0.0047
3180.00,0.0047
3179.00,0.0047
3178.00,0.0046
3177.00,0.0046
3176.00,0.0046
3175.00,0.0046
3174.00,0.0046
3173.00,0.0046
3172.00,0.0045
3171.00,0.0045
3170.00,0.0045
3169.00,0.0045
3168.00,0.0045
3167.00,0.0045
3166.00,0.0045
3165.00,0.0044
3164.00,0.0044
3163.00,0.0043
3162.00,0.0043
3161.00,0.0043
3160.00,0.0044
3159.00,0.0044
3158.00,0.0044
3157.00,0.0044
3156.00,0.0043
3155.00,0.0043
3154.00,0.0043
3153.00,0.0043
3152.00,0.0043
3151.00,0.0043
3150.00,0.0043
3149.00,0.0044
3148.00,0.0044
3147.00,0.0043
3146.00,0.0043
3145.00,0.0043
3144.00,0.0042
3143.00,0.0042
3142.00,0.0042
3141.00,0.0042
3140.00,0.0042
3139.00,0.0041
3138.00,0.0041
3137.00,0.0041
3136.00,0.0040
3135.00,0.0040
3134.00,0.0040
3133.00,0.0040
3132.00,0.0040
3131.00,0.0040
3130.00,0.0039
3129.00,0.0039
3128.00,0.0039
3127.00,0.0039
3126.00,0.0039
3125.00,0.0038
3124.00,0.0038
3123.00,0.0038
3122.00,0.0037
3121.00,0.0037
3120.00,0.0037
3119.00,0.0036
3118.00,0.0036
3117.00,0.0036
3116.00,0.0036
3115.00,0.0036
3114.00,0.0036
3113.00,0.0036
3112.00,0.0036
3111.00,0.0036
3110.00,0.0036
3109.00,0.0036
3108.00,0.0036
3107.00,0.0035
3106.00,0.0035
3105.00,0.0034
3104.00,0.0034
3103.00,0.0034
3102.00,0.0034
3101.00,0.0034
3100.00,0.0035
3099.00,0.0035
3098.00,0.0034
3097.00,0.0034
3096.00,0.0034
3095.00,0.0033
3094.00,0.0033
3093.00,0.0033
3092.00,0.0033
3091.00,0.0033
3090.00,0.0034
3089.00,0.0034
3088.00,0.0033
3087.00,0.0033
3086.00,0.0033
3085.00,0.0033
3084.00,0.0033
3083.00,0.0033
3082.00,0.0033
3081.00,0.0033
3080.00,0.0033
3079.00,0.0033
3078.00,0.0033
3077.00,0.0033
3076.00,0.0033
3075.00,0.0033
3074.00,0.0033
3073.00,0.0033
3072.00,0.0033
3071.00,0.0034
3070.00,0.0034
3069.00,0.0034
3068.00,0.0034
3067.00,0.0034
3066.00,0.0034
3065.00,0.0034
3064.00,0.0034
3063.00,0.0034
3062.00,0.0035
3061.00,0.0035
3060.00,0.0035
3059.00,0.0035
3058.00,0.0035
3057.00,0.0035
3056.00,0.0035
3055.00,0.0035
3054.00,0.0036
3053.00,0.0036
3052.00,0.0037
3051.00,0.0037
3050.00,0.0037
3049.00,0.0038
3048.00,0.0038
3047.00,0.0038
3046.00,0.0038
3045.00,0.0038
3044.00,0.0038
3043.00,0.0038
3042.00,0.0038
3041.00,0.0038
3040.00,0.0038
3039.00,0.0039
3038.00,0.0039
3037.00,0.0040
3036.00,0.0040
3035.00,0.0040
3034.00,0.0040
3033.00,0.0040
3032.00,0.0041
3031.00,0.0041
3030.00,0.0041
3029.00,0.0042
3028.00,0.0043
3027.00,0.0044
3026.00,0.0044
3025.00,0.0045
3024.00,0.0045
3023.00,0.0046
3022.00,0.0047
3021.00,0.0047
3020.00,0.0048
3019.00,0.0048
3018.00,0.0049
3017.00,0.0049
3016.00,0.0050
3015.00,0.0051
3014.00,0.0052
3013.00,0.0053
3012.00,0.0054
3011.00,0.0056
3010.00,0.0057
3009.00,0.0058
3008.00,0.0059
3007.00,0.0061
3006.00,0.0062
3005.00,0.0064
3004.00,0.0066
3003.00,0.0068
3002.00,0.0069
3001.00,0.0072
3000.00,0.0074
2999.00,0.0077
2998.00,0.0080
2997.00,0.0083
2996.00,0.0087
2995.00,0.0090
2994.00,0.0094
2993.00,0.0099
2992.00,0.0104
2991.00,0.0110
2990.00,0.0116
2989.00,0.0123
2988.00,0.0131
2987.00,0.0140
2986.00,0.0149
2985.00,0.0160
2984.00,0.0171
2983.00,0.0183
2982.00,0.0198
2981.00,0.0215
2980.00,0.0234
2979.00,0.0256
2978.00,0.0281
2977.00,0.0310
2976.00,0.0342
2975.00,0.0378
2974.00,0.0418
2973.00,0.0464
2972.00,0.0515
2971.00,0.0572
2970.00,0.0636
2969.00,0.0705
2968.00,0.0779
2967.00,0.0857
2966.00,0.0937
2965.00,0.1017
2964.00,0.1093
2963.00,0.1164
2962.00,0.1226
2961.00,0.1280
2960.00,0.1326
2959.00,0.1370
2958.00,0.1414
2957.00,0.1466
2956.00,0.1528
2955.00,0.1602
2954.00,0.1687
2953.00,0.1777
2952.00,0.1864
2951.00,0.1935
2950.00,0.1979
2949.00,0.1985
2948.00,0.1945
2947.00,0.1862
2946.00,0.1744
2945.00,0.1608
2944.00,0.1470
2943.00,0.1344
2942.00,0.1241
2941.00,0.1166
2940.00,0.1118
2939.00,0.1095
2938.00,0.1097
2937.00,0.1118
2936.00,0.1159
2935.00,0.1216
2934.00,0.1288
2933.00,0.1373
2932.00,0.1472
2931.00,0.1580
2930.00,0.1696
2929.00,0.1817
2928.00,0.1938
2927.00,0.2058
2926.00,0.2175
2925.00,0.2288
2924.00,0.2399
2923.00,0.2510
2922.00,0.2620
2921.00,0.2728
2920.00,0.2827
2919.00,0.2907
2918.00,0.2956
2917.00,0.2965
2916.00,0.2928
2915.00,0.2849
2914.00,0.2740
2913.00,0.2614
2912.00,0.2485
2911.00,0.2361
2910.00,0.2246
2909.00,0.2141
2908.00,0.2045
2907.00,0.1955
2906.00,0.1869
2905.00,0.1786
2904.00,0.1704
2903.00,0.1625
2902.00,0.1549
2901.00,0.1476
2900.00,0.1407
2899.00,0.1342
2898.00,0.1283
2897.00,0.1229
2896.00,0.1183
2895.00,0.1143
2894.00,0.1110
2893.00,0.1085
2892.00,0.1068
2891.00,0.1057
2890.00,0.1052
2889.00,0.1053
2888.00,0.1058
2887.00,0.1067
2886.00,0.1079
2885.00,0.1096
2884.00,0.1117
2883.00,0.1144
2882.00,0.1177
2881.00,0.1213
2880.00,0.1250
2879.00,0.1282
2878.00,0.1305
2877.00,0.1317
2876.00,0.1317
2875.00,0.1310
2874.00,0.1301
2873.00,0.1297
2872.00,0.1300
2871.00,0.1313
2870.00,0.1333
2869.00,0.1356
2868.00,0.1372
2867.00,0.1373
2866.00,0.1350
2865.00,0.1297
2864.00,0.1218
2863.00,0.1120
2862.00,0.1015
2861.00,0.0916
2860.00,0.0830
2859.00,0.0760
2858.00,0.0707
2857.00,0.0670
2856.00,0.0646
2855.00,0.0634
2854.00,0.0631
2853.00,0.0636
2852.00,0.0648
2851.00,0.0665
2850.00,0.0686
2849.00,0.0710
2848.00,0.0738
2847.00,0.0771
2846.00,0.0812
2845.00,0.0863
2844.00,0.0923
2843.00,0.0990
2842.00,0.1061
2841.00,0.1129
2840.00,0.1187
2839.00,0.1225
2838.00,0.1236
2837.00,0.1213
2836.00,0.1156
2835.00,0.1069
2834.00,0.0964
2833.00,0.0852
2832.00,0.0744
2831.00,0.0648
2830.00,0.0566
2829.00,0.0499
2828.00,0.0445
2827.00,0.0401
2826.00,0.0366
2825.00,0.0338
2824.00,0.0314
2823.00,0.0294
2822.00,0.0277
2821.00,0.0262
2820.00,0.0249
2819.00,0.0238
2818.00,0.0228
2817.00,0.0220
2816.00,0.0213
2815.00,0.0206
2814.00,0.0200
2813.00,0.0195
2812.00,0.0189
2811.00,0.0183
2810.00,0.0178
2809.00,0.0172
2808.00,0.0165
2807.00,0.0159
2806.00,0.0152
2805.00,0.0145
2804.00,0.0139
2803.00,0.0133
2802.00,0.0127
2801.00,0.0122
2800.00,0.0118
2799.00,0.0114
2798.00,0.0112
2797.00,0.0109
2796.00,0.0107
2795.00,0.0104
2794.00,0.0101
2793.00,0.0099
2792.00,0.0096
2791.00,0.0093
2790.00,0.0090
2789.00,0.0087
2788.00,0.0084
2787.00,0.0081
2786.00,0.0079
2785.00,0.0077
2784.00,0.0075
2783.00,0.0074
2782.00,0.0072
2781.00,0.0070
2780.00,0.0068
2779.00,0.0067
2778.00,0.0065
2777.00,0.0064
2776.00,0.0062
2775.00,0.0061
2774.00,0.0060
2773.00,0.0059
2772.00,0.0059
2771.00,0.0059
2770.00,0.0058
2769.00,0.0058
2768.00,0.0058
2767.00,0.0057
2766.00,0.0057
2765.00,0.0057
2764.00,0.0057
2763.00,0.0056
2762.00,0.0056
2761.00,0.0056
2760.00,0.0055
2759.00,0.0055
2758.00,0.0055
2757.00,0.0054
2756.00,0.0054
2755.00,0.0054
2754.00,0.0054
2753.00,0.0054
2752.00,0.0054
2751.00,0.0054
2750.00,0.0054
2749.00,0.0054
2748.00,0.0054
2747.00,0.0054
2746.00,0.0055
2745.00,0.0055
2744.00,0.0056
2743.00,0.0057
2742.00,0.0058
2741.00,0.0059
2740.00,0.0060
2739.00,0.0062
2738.00,0.0063
2737.00,0.0065
2736.00,0.0067
2735.00,0.0069
2734.00,0.0070
2733.00,0.0072
2732.00,0.0074
2731.00,0.0076
2730.00,0.0078
2729.00,0.0081
2728.00,0.0084
2727.00,0.0087
2726.00,0.0090
2725.00,0.0092
2724.00,0.0094
2723.00,0.0094
2722.00,0.0093
2721.00,0.0091
2720.00,0.0088
2719.00,0.0084
2718.00,0.0080
2717.00,0.0077
2716.00,0.0074
2715.00,0.0071
2714.00,0.0069
2713.00,0.0067
2712.00,0.0064
2711.00,0.0062
2710.00,0.0060
2709.00,0.0059
2708.00,0.0057
2707.00,0.0056
2706.00,0.0054
2705.00,0.0053
2704.00,0.0051
2703.00,0.0050
2702.00,0.0049
2701.00,0.0048
2700.00,0.0047
2699.00,0.0047
2698.00,0.0047
2697.00,0.0046
2696.00,0.0046
2695.00,0.0046
2694.00,0.0046
2693.00,0.0046
2692.00,0.0046
2691.00,0.0046
2690.00,0.0046
2689.00,0.0046
2688.00,0.0046
2687.00,0.0046
2686.00,0.0046
2685.00,0.0046
2684.00,0.0046
2683.00,0.0046
2682.00,0.0047
2681.00,0.0047
2680.00,0.0047
2679.00,0.0047
2678.00,0.0047
2677.00,0.0047
2676.00,0.0047
2675.00,0.0047
2674.00,0.0047
2673.00,0.0047
2672.00,0.0047
2671.00,0.0047
2670.00,0.0047
2669.00,0.0047
2668.00,0.0047
2667.00,0.0047
2666.00,0.0048
2665.00,0.0048
2664.00,0.0048
2663.00,0.0049
2662.00,0.0049
2661.00,0.0049
2660.00,0.0049
2659.00,0.0049
2658.00,0.0049
2657.00,0.0049
2656.00,0.0048
2655.00,0.0048
2654.00,0.0047
2653.00,0.0047
2652.00,0.0046
2651.00,0.0045
2650.00,0.0045
2649.00,0.0044
2648.00,0.0043
2647.00,0.0043
2646.00,0.0042
2645.00,0.0042
2644.00,0.0042
2643.00,0.0041
2642.00,0.0041
2641.00,0.0041
2640.00,0.0040
2639.00,0.0040
2638.00,0.0040
2637.00,0.0039
2636.00,0.0039
2635.00,0.0038
2634.00,0.0038
2633.00,0.0038
2632.00,0.0039
2631.00,0.0039
2630.00,0.0039
2629.00,0.0040
2628.00,0.0040
2627.00,0.0041
2626.00,0.0041
2625.00,0.0041
2624.00,0.0041
2623.00,0.0040
2622.00,0.0040
2621.00,0.0040
2620.00,0.0041
2619.00,0.0041
2618.00,0.0041
2617.00,0.0041
2616.00,0.0041
2615.00,0.0041
2614.00,0.0040
2613.00,0.0040
2612.00,0.0040
2611.00,0.0040
2610.00,0.0039
2609.00,0.0038
2608.00,0.0038
2607.00,0.0037
2606.00,0.0036
2605.00,0.0036
2604.00,0.0035
2603.00,0.0035
2602.00,0.0035
2601.00,0.0035
2600.00,0.0034
2599.00,0.0034
2598.00,0.0034
2597.00,0.0034
2596.00,0.0035
2595.00,0.0036
2594.00,0.0036
2593.00,0.0037
2592.00,0.0037
2591.00,0.0037
2590.00,0.0037
2589.00,0.0037
2588.00,0.0037
2587.00,0.0038
2586.00,0.0039
2585.00,0.0040
2584.00,0.0041
2583.00,0.0042
2582.00,0.0043
2581.00,0.0043
2580.00,0.0043
2579.00,0.0042
2578.00,0.0040
2577.00,0.0039
2576.00,0.0037
2575.00,0.0035
2574.00,0.0034
2573.00,0.0033
2572.00,0.0032
2571.00,0.0032
2570.00,0.0031
2569.00,0.0031
2568.00,0.0030
2567.00,0.0029
2566.00,0.0029
2565.00,0.0028
2564.00,0.0028
2563.00,0.0027
2562.00,0.0027
2561.00,0.0026
2560.00,0.0026
2559.00,0.0026
2558.00,0.0026
2557.00,0.0025
2556.00,0.0025
2555.00,0.0024
2554.00,0.0024
2553.00,0.0023
2552.00,0.0023
2551.00,0.0022
2550.00,0.0022
2549.00,0.0022
2548.00,0.0021
2547.00,0.0021
2546.00,0.0021
2545.00,0.0020
2544.00,0.0020
2543.00,0.0020
2542.00,0.0019
2541.00,0.0018
2540.00,0.0018
2539.00,0.0018
2538.00,0.0018
2537.00,0.0018
2536.00,0.0018
2535.00,0.0018
2534.00,0.0018
2533.00,0.0018
2532.00,0.0018
2531.00,0.0018
2530.00,0.0018
2529.00,0.0018
2528.00,0.0017
2527.00,0.0017
2526.00,0.0016
2525.00,0.0016
2524.00,0.0016
2523.00,0.0015
2522.00,0.0014
2521.00,0.0014
2520.00,0.0013
2519.00,0.0012
2518.00,0.0013
2517.00,0.0013
2516.00,0.0014
2515.00,0.0014
2514.00,0.0013
2513.00,0.0013
2512.00,0.0012
2511.00,0.0012
2510.00,0.0012
2509.00,0.0013
2508.00,0.0013
2507.00,0.0013
2506.00,0.0012
2505.00,0.0012
2504.00,0.0012
2503.00,0.0012
2502.00,0.0012
2501.00,0.0012
2500.00,0.0012
2499.00,0.0012
2498.00,0.0012
2497.00,0.0012
2496.00,0.0012
2495.00,0.0012
2494.00,0.0012
2493.00,0.0012
2492.00,0.0012
2491.00,0.0012
2490.00,0.0011
2489.00,0.0011
2488.00,0.0012
2487.00,0.0012
2486.00,0.0013
2485.00,0.0013
2484.00,0.0013
2483.00,0.0013
2482.00,0.0012
2481.00,0.0012
2480.00,0.0012
2479.00,0.0012
2478.00,0.0012
2477.00,0.0012
2476.00,0.0012
2475.00,0.0011
2474.00,0.0011
2473.00,0.0011
2472.00,0.0011
2471.00,0.0011
2470.00,0.0010
2469.00,0.0010
2468.00,0.0010
2467.00,0.0010
2466.00,0.0011
2465.00,0.0011
2464.00,0.0011
2463.00,0.0012
2462.00,0.0012
2461.00,0.0013
2460.00,0.0013
2459.00,0.0013
2458.00,0.0013
2457.00,0.0013
2456.00,0.0013
2455.00,0.0014
2454.00,0.0014
2453.00,0.0014
2452.00,0.0014
2451.00,0.0014
2450.00,0.0013
2449.00,0.0013
2448.00,0.0013
2447.00,0.0013
2446.00,0.0013
2445.00,0.0013
2444.00,0.0013
2443.00,0.0013
2442.00,0.0012
2441.00,0.0013
2440.00,0.0013
2439.00,0.0013
2438.00,0.0013
2437.00,0.0013
2436.00,0.0013
2435.00,0.0012
2434.00,0.0013
2433.00,0.0013
2432.00,0.0014
2431.00,0.0014
2430.00,0.0014
2429.00,0.0013
2428.00,0.0013
2427.00,0.0013
2426.00,0.0013
2425.00,0.0013
2424.00,0.0012
2423.00,0.0012
2422.00,0.0012
2421.00,0.0012
2420.00,0.0013
2419.00,0.0013
2418.00,0.0013
2417.00,0.0012
2416.00,0.0012
2415.00,0.0012
2414.00,0.0012
2413.00,0.0012
2412.00,0.0011
2411.00,0.0011
2410.00,0.0010
2409.00,0.0010
2408.00,0.0010
2407.00,0.0010
2406.00,0.0010
2405.00,0.0010
2404.00,0.0010
2403.00,0.0010
2402.00,0.0010
2401.00,0.0011
2400.00,0.0011
2399.00,0.0011
2398.00,0.0011
2397.00,0.0011
2396.00,0.0011
2395.00,0.0010
2394.00,0.0011
2393.00,0.0011
2392.00,0.0011
2391.00,0.0011
2390.00,0.0011
2389.00,0.0011
2388.00,0.0010
2387.00,0.0010
2386.00,0.0009
2385.00,0.0009
2384.00,0.0009
2383.00,0.0008
2382.00,0.0008
2381.00,0.0007
2380.00,0.0006
2379.00,0.0006
2378.00,0.0006
2377.00,0.0006
2376.00,0.0007
2375.00,0.0007
2374.00,0.0007
2373.00,0.0007
2372.00,0.0006
2371.00,0.0006
2370.00,0.0004
2369.00,0.0004
2368.00,0.0003
2367.00,0.0003
2366.00,0.0004
2365.00,0.0004
2364.00,0.0005
2363.00,0.0005
2362.00,0.0005
2361.00,0.0006
2360.00,0.0006
2359.00,0.0006
2358.00,0.0006
2357.00,0.0006
2356.00,0.0006
2355.00,0.0006
2354.00,0.0006
2353.00,0.0006
2352.00,0.0006
2351.00,0.0006
2350.00,0.0007
2349.00,0.0007
2348.00,0.0008
2347.00,0.0008
2346.00,0.0008
2345.00,0.0008
2344.00,0.0008
2343.00,0.0009
2342.00,0.0009
2341.00,0.0009
2340.00,0.0009
2339.00,0.0009
2338.00,0.0009
2337.00,0.0009
2336.00,0.0008
2335.00,0.0008
2334.00,0.0008
2333.00,0.0008
2332.00,0.0008
2331.00,0.0008
2330.00,0.0009
2329.00,0.0010
2328.00,0.0011
2327.00,0.0015
2326.00,0.0018
2325.00,0.0021
2324.00,0.0022
2323.00,0.0021
2322.00,0.0019
2321.00,0.0017
2320.00,0.0016
2319.00,0.0015
2318.00,0.0015
2317.00,0.0014
2316.00,0.0014
2315.00,0.0014
2314.00,0.0014
2313.00,0.0014
2312.00,0.0014
2311.00,0.0014
2310.00,0.0013
2309.00,0.0014
2308.00,0.0014
2307.00,0.0015
2306.00,0.0015
2305.00,0.0015
2304.00,0.0015
2303.00,0.0015
2302.00,0.0014
2301.00,0.0014
2300.00,0.0014
2299.00,0.0014
2298.00,0.0015
2297.00,0.0016
2296.00,0.0017
2295.00,0.0018
2294.00,0.0018
2293.00,0.0018
2292.00,0.0019
2291.00,0.0019
2290.00,0.0020
2289.00,0.0020
2288.00,0.0021
2287.00,0.0022
2286.00,0.0022
2285.00,0.0021
2284.00,0.0020
2283.00,0.0019
2282.00,0.0017
2281.00,0.0016
2280.00,0.0015
2279.00,0.0015
2278.00,0.0014
2277.00,0.0014
2276.00,0.0014
2275.00,0.0014
2274.00,0.0014
2273.00,0.0013
2272.00,0.0013
2271.00,0.0012
2270.00,0.0012
2269.00,0.0013
2268.00,0.0013
2267.00,0.0013
2266.00,0.0013
2265.00,0.0012
2264.00,0.0012
2263.00,0.0012
2262.00,0.0011
2261.00,0.0011
2260.00,0.0012
2259.00,0.0013
2258.00,0.0013
2257.00,0.0012
2256.00,0.0011
2255.00,0.0009
2254.00,0.0008
2253.00,0.0007
2252.00,0.0007
2251.00,0.0007
2250.00,0.0007
2249.00,0.0008
2248.00,0.0010
2247.00,0.0012
2246.00,0.0013
2245.00,0.0013
2244.00,0.0012
2243.00,0.0010
2242.00,0.0010
2241.00,0.0009
2240.00,0.0009
2239.00,0.0009
2238.00,0.0009
2237.00,0.0009
2236.00,0.0009
2235.00,0.0009
2234.00,0.0009
2233.00,0.0009
2232.00,0.0008
2231.00,0.0008
2230.00,0.0008
2229.00,0.0010
2228.00,0.0011
2227.00,0.0011
2226.00,0.0010
2225.00,0.0009
2224.00,0.0007
2223.00,0.0006
2222.00,0.0005
2221.00,0.0006
2220.00,0.0008
2219.00,0.0010
2218.00,0.0011
2217.00,0.0010
2216.00,0.0009
2215.00,0.0009
2214.00,0.0009
2213.00,0.0008
2212.00,0.0008
2211.00,0.0007
2210.00,0.0007
2209.00,0.0006
2208.00,0.0007
2207.00,0.0007
2206.00,0.0008
2205.00,0.0009
2204.00,0.0009
2203.00,0.0009
2202.00,0.0009
2201.00,0.0008
2200.00,0.0007
2199.00,0.0007
2198.00,0.0007
2197.00,0.0006
2196.00,0.0006
2195.00,0.0005
2194.00,0.0006
2193.00,0.0006
2192.00,0.0008
2191.00,0.0009
2190.00,0.0010
2189.00,0.0010
2188.00,0.0010
2187.00,0.0008
2186.00,0.0007
2185.00,0.0006
2184.00,0.0005
2183.00,0.0004
2182.00,0.0001
2181.00,-0.0000
2180.00,0.0000
2179.00,0.0003
2178.00,0.0006
2177.00,0.0007
2176.00,0.0005
2175.00,0.0001
2174.00,-0.0000
2173.00,0.0001
2172.00,0.0005
2171.00,0.0009
2170.00,0.0013
2169.00,0.0015
2168.00,0.0014
2167.00,0.0012
2166.00,0.0011
2165.00,0.0012
2164.00,0.0017
2163.00,0.0021
2162.00,0.0023
2161.00,0.0018
2160.00,0.0006
2159.00,-0.0009
2158.00,-0.0021
2157.00,-0.0026
2156.00,-0.0026
2155.00,-0.0024
2154.00,-0.0021
2153.00,-0.0017
2152.00,-0.0014
2151.00,-0.0012
2150.00,-0.0010
2149.00,-0.0009
2148.00,-0.0008
2147.00,-0.0009
2146.00,-0.0011
2145.00,-0.0013
2144.00,-0.0013
2143.00,-0.0012
2142.00,-0.0010
2141.00,-0.0009
2140.00,-0.0008
2139.00,-0.0008
2138.00,-0.0010
2137.00,-0.0012
2136.00,-0.0013
2135.00,-0.0015
2134.00,-0.0016
2133.00,-0.0016
2132.00,-0.0015
2131.00,-0.0013
2130.00,-0.0010
2129.00,-0.0007
2128.00,-0.0005
2127.00,-0.0004
2126.00,-0.0005
2125.00,-0.0005
2124.00,-0.0004
2123.00,-0.0002
2122.00,-0.0000
2121.00,0.0000
2120.00,-0.0001
2119.00,-0.0002
2118.00,-0.0001
2117.00,0.0001
2116.00,0.0004
2115.00,0.0006
2114.00,0.0006
2113.00,0.0006
2112.00,0.0004
2111.00,0.0003
2110.00,0.0003
2109.00,0.0003
2108.00,0.0002
2107.00,0.0002
2106.00,0.0003
2105.00,0.0004
2104.00,0.0006
2103.00,0.0007
2102.00,0.0009
2101.00,0.0009
2100.00,0.0009
2099.00,0.0007
2098.00,0.0005
2097.00,0.0002
2096.00,-0.0000
2095.00,-0.0002
2094.00,-0.0002
2093.00,-0.0001
2092.00,0.0001
2091.00,0.0003
2090.00,0.0004
2089.00,0.0005
2088.00,0.0006
2087.00,0.0006
2086.00,0.0006
2085.00,0.0005
2084.00,0.0005
2083.00,0.0005
2082.00,0.0005
2081.00,0.0004
2080.00,0.0003
2079.00,0.0003
2078.00,0.0003
2077.00,0.0004
2076.00,0.0004
2075.00,0.0003
2074.00,0.0003
2073.00,0.0002
2072.00,0.0001
2071.00,-0.0000
2070.00,0.0000
2069.00,0.0001
2068.00,0.0003
2067.00,0.0004
2066.00,0.0004
2065.00,0.0002
2064.00,-0.0000
2063.00,-0.0002
2062.00,-0.0003
2061.00,-0.0000
2060.00,0.0003
2059.00,0.0005
2058.00,0.0006
2057.00,0.0006
2056.00,0.0004
2055.00,0.0003
2054.00,0.0003
2053.00,0.0006
2052.00,0.0011
2051.00,0.0015
2050.00,0.0015
2049.00,0.0013
2048.00,0.0010
2047.00,0.0007
2046.00,0.0004
2045.00,0.0001
2044.00,-0.0000
2043.00,-0.0001
2042.00,0.0000
2041.00,0.0001
2040.00,0.0001
2039.00,0.0001
2038.00,0.0002
2037.00,0.0002
2036.00,0.0001
2035.00,-0.0002
2034.00,-0.0004
2033.00,-0.0005
2032.00,-0.0006
2031.00,-0.0007
2030.00,-0.0008
2029.00,-0.0009
2028.00,-0.0010
2027.00,-0.0011
2026.00,-0.0010
2025.00,-0.0008
2024.00,-0.0006
2023.00,-0.0005
2022.00,-0.0006
2021.00,-0.0008
2020.00,-0.0011
2019.00,-0.0012
2018.00,-0.0012
2017.00,-0.0009
2016.00,-0.0005
2015.00,-0.0002
2014.00,0.0001
2013.00,0.0002
2012.00,0.0002
2011.00,-0.0000
2010.00,-0.0003
2009.00,-0.0005
2008.00,-0.0007
2007.00,-0.0008
2006.00,-0.0008
2005.00,-0.0007
2004.00,-0.0007
2003.00,-0.0010
2002.00,-0.0012
2001.00,-0.0012
2000.00,-0.0009
1999.00,-0.0007
1998.00,-0.0005
1997.00,-0.0005
1996.00,-0.0006
1995.00,-0.0006
1994.00,-0.0007
1993.00,-0.0007
1992.00,-0.0005
1991.00,-0.0003
1990.00,-0.0002
1989.00,-0.0001
1988.00,-0.0001
1987.00,-0.0000
1986.00,0.0002
1985.00,0.0005
1984.00,0.0008
1983.00,0.0011
1982.00,0.0013
1981.00,0.0014
1980.00,0.0014
1979.00,0.0010
1978.00,0.0005
1977.00,0.0000
1976.00,-0.0003
1975.00,-0.0004
1974.00,-0.0005
1973.00,-0.0005
1972.00,-0.0004
1971.00,-0.0004
1970.00,-0.0004
1969.00,-0.0004
1968.00,-0.0005
1967.00,-0.0007
1966.00,-0.0008
1965.00,-0.0007
1964.00,-0.0007
1963.00,-0.0008
1962.00,-0.0010
1961.00,-0.0013
1960.00,-0.0016
1959.00,-0.0019
1958.00,-0.0020
1957.00,-0.0018
1956.00,-0.0014
1955.00,-0.0011
1954.00,-0.0009
1953.00,-0.0009
1952.00,-0.0010
1951.00,-0.0010
1950.00,-0.0011
1949.00,-0.0012
1948.00,-0.0012
1947.00,-0.0014
1946.00,-0.0015
1945.00,-0.0015
1944.00,-0.0014
1943.00,-0.0012
1942.00,-0.0010
1941.00,-0.0008
1940.00,-0.0007
1939.00,-0.0007
1938.00,-0.0008
1937.00,-0.0007
1936.00,-0.0007
1935.00,-0.0007
1934.00,-0.0006
1933.00,-0.0005
1932.00,-0.0004
1931.00,-0.0004
1930.00,-0.0005
1929.00,-0.0005
1928.00,-0.0005
1927.00,-0.0005
1926.00,-0.0004
1925.00,-0.0003
1924.00,-0.0001
1923.00,0.0000
1922.00,0.0001
1921.00,0.0001
1920.00,0.0001
1919.00,0.0001
1918.00,0.0002
1917.00,0.0002
1916.00,0.0003
1915.00,0.0002
1914.00,0.0001
1913.00,0.0001
1912.00,0.0000
1911.00,0.0000
1910.00,0.0000
1909.00,0.0001
1908.00,0.0002
1907.00,0.0002
1906.00,0.0002
1905.00,0.0002
1904.00,0.0002
1903.00,0.0002
1902.00,0.0001
1901.00,0.0001
1900.00,0.0002
1899.00,0.0002
1898.00,0.0003
1897.00,0.0003
1896.00,0.0004
1895.00,0.0004
1894.00,0.0005
1893.00,0.0005
1892.00,0.0005
1891.00,0.0004
1890.00,0.0004
1889.00,0.0004
1888.00,0.0004
1887.00,0.0003
1886.00,0.0003
1885.00,0.0003
1884.00,0.0003
1883.00,0.0003
1882.00,0.0003
1881.00,0.0003
1880.00,0.0003
1879.00,0.0003
1878.00,0.0003
1877.00,0.0002
1876.00,0.0002
1875.00,0.0002
1874.00,0.0003
1873.00,0.0004
1872.00,0.0005
1871.00,0.0005
1870.00,0.0004
1869.00,0.0003
1868.00,0.0002
1867.00,0.0002
1866.00,0.0001
1865.00,0.0000
1864.00,0.0000
1863.00,0.0001
1862.00,0.0003
1861.00,0.0004
1860.00,0.0005
1859.00,0.0006
1858.00,0.0005
1857.00,0.0005
1856.00,0.0004
1855.00,0.0005
1854.00,0.0005
1853.00,0.0005
1852.00,0.0004
1851.00,0.0004
1850.00,0.0003
1849.00,0.0003
1848.00,0.0004
1847.00,0.0004
1846.00,0.0003
1845.00,0.0003
1844.00,0.0003
1843.00,0.0003
1842.00,0.0004
1841.00,0.0004
1840.00,0.0005
1839.00,0.0005
1838.00,0.0004
1837.00,0.0004
1836.00,0.0004
1835.00,0.0005
1834.00,0.0005
1833.00,0.0006
1832.00,0.0006
1831.00,0.0007
1830.00,0.0007
1829.00,0.0008
1828.00,0.0008
1827.00,0.0007
1826.00,0.0007
1825.00,0.0006
1824.00,0.0006
1823.00,0.0006
1822.00,0.0006
1821.00,0.0006
1820.00,0.0005
1819.00,0.0004
1818.00,0.0003
1817.00,0.0003
1816.00,0.0004
1815.00,0.0005
1814.00,0.0005
1813.00,0.0005
1812.00,0.0005
1811.00,0.0005
1810.00,0.0005
1809.00,0.0005
1808.00,0.0005
1807.00,0.0006
1806.00,0.0006
1805.00,0.0006
1804.00,0.0006
1803.00,0.0006
1802.00,0.0007
1801.00,0.0007
1800.00,0.0007
1799.00,0.0007
1798.00,0.0007
1797.00,0.0007
1796.00,0.0007
1795.00,0.0008
1794.00,0.0008
1793.00,0.0008
1792.00,0.0009
1791.00,0.0009
1790.00,0.0009
1789.00,0.0010
1788.00,0.0010
1787.00,0.0011
1786.00,0.0011
1785.00,0.0011
1784.00,0.0011
1783.00,0.0011
1782.00,0.0011
1781.00,0.0011
1780.00,0.0011
1779.00,0.0011
1778.00,0.0010
1777.00,0.0010
1776.00,0.0010
1775.00,0.0010
1774.00,0.0010
1773.00,0.0010
1772.00,0.0011
1771.00,0.0012
1770.00,0.0012
1769.00,0.0013
1768.00,0.0013
1767.00,0.0013
1766.00,0.0013
1765.00,0.0013
1764.00,0.0013
1763.00,0.0013
1762.00,0.0013
1761.00,0.0014
1760.00,0.0014
1759.00,0.0015
1758.00,0.0015
1757.00,0.0016
1756.00,0.0017
1755.00,0.0018
1754.00,0.0018
1753.00,0.0018
1752.00,0.0018
1751.00,0.0019
1750.00,0.0020
1749.00,0.0022
1748.00,0.0022
1747.00,0.0022
1746.00,0.0022
1745.00,0.0022
1744.00,0.0022
1743.00,0.0023
1742.00,0.0024
1741.00,0.0025
1740.00,0.0025
1739.00,0.0026
1738.00,0.0026
1737.00,0.0027
1736.00,0.0026
1735.00,0.0026
1734.00,0.0026
1733.00,0.0026
1732.00,0.0027
1731.00,0.0026
1730.00,0.0026
1729.00,0.0026
1728.00,0.0025
1727.00,0.0025
1726.00,0.0024
1725.00,0.0024
1724.00,0.0024
1723.00,0.0025
1722.00,0.0025
1721.00,0.0025
1720.00,0.0025
1719.00,0.0025
1718.00,0.0025
1717.00,0.0025
1716.00,0.0026
1715.00,0.0026
1714.00,0.0026
1713.00,0.0027
1712.00,0.0027
1711.00,0.0027
1710.00,0.0028
1709.00,0.0029
1708.00,0.0029
1707.00,0.0029
1706.00,0.0029
1705.00,0.0029
1704.00,0.0030
1703.00,0.0030
1702.00,0.0031
1701.00,0.0032
1700.00,0.0033
1699.00,0.0033
1698.00,0.0033
1697.00,0.0034
1696.00,0.0034
1695.00,0.0035
1694.00,0.0035
1693.00,0.0036
1692.00,0.0036
1691.00,0.0037
1690.00,0.0038
1689.00,0.0039
1688.00,0.0039
1687.00,0.0040
1686.00,0.0040
1685.00,0.0040
1684.00,0.0041
1683.00,0.0042
1682.00,0.0043
1681.00,0.0044
1680.00,0.0046
1679.00,0.0047
1678.00,0.0047
1677.00,0.0048
1676.00,0.0049
1675.00,0.0049
1674.00,0.0050
1673.00,0.0051
1672.00,0.0052
1671.00,0.0053
1670.00,0.0054
1669.00,0.0055
1668.00,0.0056
1667.00,0.0056
1666.00,0.0056
1665.00,0.0057
1664.00,0.0058
1663.00,0.0058
1662.00,0.0059
1661.00,0.0060
1660.00,0.0061
1659.00,0.0061
1658.00,0.0062
1657.00,0.0062
1656.00,0.0064
1655.00,0.0065
1654.00,0.0065
1653.00,0.0066
1652.00,0.0066
1651.00,0.0066
1650.00,0.0067
1649.00,0.0067
1648.00,0.0069
1647.00,0.0070
1646.00,0.0070
1645.00,0.0071
1644.00,0.0071
1643.00,0.0071
1642.00,0.0071
1641.00,0.0071
1640.00,0.0072
1639.00,0.0072
1638.00,0.0073
1637.00,0.0073
1636.00,0.0074
1635.00,0.0074
1634.00,0.0074
1633.00,0.0074
1632.00,0.0074
1631.00,0.0074
1630.00,0.0074
1629.00,0.0074
1628.00,0.0074
1627.00,0.0074
1626.00,0.0074
1625.00,0.0074
1624.00,0.0074
1623.00,0.0074
1622.00,0.0074
1621.00,0.0074
1620.00,0.0074
1619.00,0.0075
1618.00,0.0075
1617.00,0.0075
1616.00,0.0075
1615.00,0.0074
1614.00,0.0074
1613.00,0.0074
1612.00,0.0074
1611.00,0.0075
1610.00,0.0075
1609.00,0.0075
1608.00,0.0075
1607.00,0.0075
1606.00,0.0075
1605.00,0.0075
1604.00,0.0076
1603.00,0.0076
1602.00,0.0076
1601.00,0.0077
1600.00,0.0078
1599.00,0.0078
1598.00,0.0078
1597.00,0.0078
1596.00,0.0078
1595.00,0.0078
1594.00,0.0078
1593.00,0.0079
1592.00,0.0080
1591.00,0.0082
1590.00,0.0083
1589.00,0.0085
1588.00,0.0087
1587.00,0.0089
1586.00,0.0091
1585.00,0.0095
1584.00,0.0099
1583.00,0.0103
1582.00,0.0107
1581.00,0.0111
1580.00,0.0115
1579.00,0.0118
1578.00,0.0120
1577.00,0.0119
1576.00,0.0117
1575.00,0.0114
1574.00,0.0110
1573.00,0.0107
1572.00,0.0104
1571.00,0.0101
1570.00,0.0097
1569.00,0.0093
1568.00,0.0091
1567.00,0.0089
1566.00,0.0087
1565.00,0.0086
1564.00,0.0085
1563.00,0.0085
1562.00,0.0085
1561.00,0.0085
1560.00,0.0085
1559.00,0.0085
1558.00,0.0086
1557.00,0.0086
1556.00,0.0087
1555.00,0.0088
1554.00,0.0088
1553.00,0.0090
1552.00,0.0091
1551.00,0.0093
1550.00,0.0096
1549.00,0.0099
1548.00,0.0102
1547.00,0.0106
1546.00,0.0110
1545.00,0.0115
1544.00,0.0121
1543.00,0.0125
1542.00,0.0128
1541.00,0.0128
1540.00,0.0124
1539.00,0.0118
1538.00,0.0111
1537.00,0.0106
1536.00,0.0101
1535.00,0.0096
1534.00,0.0089
1533.00,0.0083
1532.00,0.0079
1531.00,0.0076
1530.00,0.0073
1529.00,0.0072
1528.00,0.0070
1527.00,0.0068
1526.00,0.0067
1525.00,0.0066
1524.00,0.0066
1523.00,0.0065
1522.00,0.0065
1521.00,0.0065
1520.00,0.0065
1519.00,0.0064
1518.00,0.0063
1517.00,0.0063
1516.00,0.0064
1515.00,0.0064
1514.00,0.0064
1513.00,0.0064
1512.00,0.0065
1511.00,0.0066
1510.00,0.0066
1509.00,0.0068
1508.00,0.0070
1507.00,0.0071
1506.00,0.0071
1505.00,0.0072
1504.00,0.0072
1503.00,0.0073
1502.00,0.0074
1501.00,0.0076
1500.00,0.0079
1499.00,0.0082
1498.00,0.0084
1497.00,0.0087
1496.00,0.0091
1495.00,0.0093
1494.00,0.0095
1493.00,0.0098
1492.00,0.0101
1491.00,0.0105
1490.00,0.0110
1489.00,0.0117
1488.00,0.0124
1487.00,0.0130
1486.00,0.0136
1485.00,0.0144
1484.00,0.0153
1483.00,0.0162
1482.00,0.0174
1481.00,0.0187
1480.00,0.0202
1479.00,0.0216
1478.00,0.0232
1477.00,0.0253
1476.00,0.0278
1475.00,0.0305
1474.00,0.0341
1473.00,0.0395
1472.00,0.0460
1471.00,0.0524
1470.00,0.0586
1469.00,0.0653
1468.00,0.0726
1467.00,0.0807
1466.00,0.0901
1465.00,0.1003
1464.00,0.1093
1463.00,0.1157
1462.00,0.1199
1461.00,0.1229
1460.00,0.1249
1459.00,0.1263
1458.00,0.1271
1457.00,0.1275
1456.00,0.1271
1455.00,0.1260
1454.00,0.1246
1453.00,0.1227
1452.00,0.1197
1451.00,0.1155
1450.00,0.1097
1449.00,0.1018
1448.00,0.0920
1447.00,0.0818
1446.00,0.0728
1445.00,0.0653
1444.00,0.0590
1443.00,0.0540
1442.00,0.0504
1441.00,0.0481
1440.00,0.0469
1439.00,0.0467
1438.00,0.0473
1437.00,0.0480
1436.00,0.0472
1435.00,0.0446
1434.00,0.0405
1433.00,0.0355
1432.00,0.0303
1431.00,0.0259
1430.00,0.0225
1429.00,0.0201
1428.00,0.0185
1427.00,0.0176
1426.00,0.0170
1425.00,0.0165
1424.00,0.0160
1423.00,0.0156
1422.00,0.0154
1421.00,0.0152
1420.00,0.0149
1419.00,0.0146
1418.00,0.0144
1417.00,0.0141
1416.00,0.0138
1415.00,0.0136
1414.00,0.0134
1413.00,0.0132
1412.00,0.0130
1411.00,0.0129
1410.00,0.0129
1409.00,0.0128
1408.00,0.0127
1407.00,0.0127
1406.00,0.0127
1405.00,0.0126
1404.00,0.0126
1403.00,0.0126
1402.00,0.0127
1401.00,0.0128
1400.00,0.0128
1399.00,0.0130
1398.00,0.0132
1397.00,0.0133
1396.00,0.0135
1395.00,0.0140
1394.00,0.0146
1393.00,0.0152
1392.00,0.0158
1391.00,0.0167
1390.00,0.0180
1389.00,0.0198
1388.00,0.0224
1387.00,0.0264
1386.00,0.0316
1385.00,0.0382
1384.00,0.0469
1383.00,0.0587
1382.00,0.0744
1381.00,0.0947
1380.00,0.1205
1379.00,0.1510
1378.00,0.1820
1377.00,0.2068
1376.00,0.2182
1375.00,0.2109
1374.00,0.1865
1373.00,0.1547
1372.00,0.1246
1371.00,0.0993
1370.00,0.0791
1369.00,0.0637
1368.00,0.0532
1367.00,0.0467
1366.00,0.0433
1365.00,0.0419
1364.00,0.0422
1363.00,0.0439
1362.00,0.0464
1361.00,0.0492
1360.00,0.0513
1359.00,0.0519
1358.00,0.0507
1357.00,0.0475
1356.00,0.0431
1355.00,0.0381
1354.00,0.0334
1353.00,0.0293
1352.00,0.0260
1351.00,0.0234
1350.00,0.0214
1349.00,0.0197
1348.00,0.0184
1347.00,0.0173
1346.00,0.0165
1345.00,0.0158
1344.00,0.0153
1343.00,0.0149
1342.00,0.0145
1341.00,0.0142
1340.00,0.0139
1339.00,0.0137
1338.00,0.0136
1337.00,0.0135
1336.00,0.0136
1335.00,0.0139
1334.00,0.0143
1333.00,0.0147
1332.00,0.0152
1331.00,0.0156
1330.00,0.0157
1329.00,0.0155
1328.00,0.0151
1327.00,0.0144
1326.00,0.0137
1325.00,0.0130
1324.00,0.0123
1323.00,0.0118
1322.00,0.0113
1321.00,0.0110
1320.00,0.0107
1319.00,0.0105
1318.00,0.0102
1317.00,0.0100
1316.00,0.0097
1315.00,0.0096
1314.00,0.0094
1313.00,0.0094
1312.00,0.0095
1311.00,0.0096
1310.00,0.0099
1309.00,0.0104
1308.00,0.0111
1307.00,0.0119
1306.00,0.0127
1305.00,0.0134
1304.00,0.0137
1303.00,0.0137
1302.00,0.0135
1301.00,0.0134
1300.00,0.0135
1299.00,0.0137
1298.00,0.0139
1297.00,0.0140
1296.00,0.0139
1295.00,0.0136
1294.00,0.0132
1293.00,0.0127
1292.00,0.0121
1291.00,0.0115
1290.00,0.0110
1289.00,0.0106
1288.00,0.0103
1287.00,0.0100
1286.00,0.0097
1285.00,0.0095
1284.00,0.0092
1283.00,0.0090
1282.00,0.0088
1281.00,0.0087
1280.00,0.0086
1279.00,0.0085
1278.00,0.0085
1277.00,0.0084
1276.00,0.0083
1275.00,0.0082
1274.00,0.0082
1273.00,0.0082
1272.00,0.0083
1271.00,0.0084
1270.00,0.0084
1269.00,0.0085
1268.00,0.0086
1267.00,0.0088
1266.00,0.0090
1265.00,0.0092
1264.00,0.0094
1263.00,0.0096
1262.00,0.0099
1261.00,0.0102
1260.00,0.0106
1259.00,0.0110
1258.00,0.0115
1257.00,0.0120
1256.00,0.0122
1255.00,0.0121
1254.00,0.0118
1253.00,0.0112
1252.00,0.0106
1251.00,0.0100
1250.00,0.0096
1249.00,0.0094
1248.00,0.0092
1247.00,0.0091
1246.00,0.0090
1245.00,0.0089
1244.00,0.0088
1243.00,0.0088
1242.00,0.0087
1241.00,0.0086
1240.00,0.0086
1239.00,0.0085
1238.00,0.0085
1237.00,0.0085
1236.00,0.0085
1235.00,0.0086
1234.00,0.0086
1233.00,0.0086
1232.00,0.0085
1231.00,0.0086
1230.00,0.0087
1229.00,0.0088
1228.00,0.0090
1227.00,0.0092
1226.00,0.0094
1225.00,0.0097
1224.00,0.0101
1223.00,0.0104
1222.00,0.0108
1221.00,0.0111
1220.00,0.0113
1219.00,0.0113
1218.00,0.0113
1217.00,0.0111
1216.00,0.0109
1215.00,0.0106
1214.00,0.0103
1213.00,0.0099
1212.00,0.0095
1211.00,0.0092
1210.00,0.0090
1209.00,0.0089
1208.00,0.0087
1207.00,0.0086
1206.00,0.0084
1205.00,0.0083
1204.00,0.0083
1203.00,0.0083
1202.00,0.0082
1201.00,0.0082
1200.00,0.0082
1199.00,0.0082
1198.00,0.0082
1197.00,0.0082
1196.00,0.0082
1195.00,0.0082
1194.00,0.0083
1193.00,0.0082
1192.00,0.0082
1191.00,0.0081
1190.00,0.0081
1189.00,0.0081
1188.00,0.0081
1187.00,0.0081
1186.00,0.0080
1185.00,0.0080
1184.00,0.0081
1183.00,0.0082
1182.00,0.0083
1181.00,0.0085
1180.00,0.0088
1179.00,0.0092
1178.00,0.0097
1177.00,0.0103
1176.00,0.0112
1175.00,0.0123
1174.00,0.0138
1173.00,0.0157
1172.00,0.0179
1171.00,0.0204
1170.00,0.0227
1169.00,0.0246
1168.00,0.0258
1167.00,0.0262
1166.00,0.0258
1165.00,0.0249
1164.00,0.0239
1163.00,0.0228
1162.00,0.0219
1161.00,0.0211
1160.00,0.0205
1159.00,0.0201
1158.00,0.0197
1157.00,0.0194
1156.00,0.0192
1155.00,0.0192
1154.00,0.0192
1153.00,0.0191
1152.00,0.0188
1151.00,0.0182
1150.00,0.0174
1149.00,0.0164
1148.00,0.0154
1147.00,0.0146
1146.00,0.0138
1145.00,0.0132
1144.00,0.0125
1143.00,0.0119
1142.00,0.0114
1141.00,0.0108
1140.00,0.0103
1139.00,0.0099
1138.00,0.0096
1137.00,0.0093
1136.00,0.0091
1135.00,0.0090
1134.00,0.0090
1133.00,0.0089
1132.00,0.0089
1131.00,0.0090
1130.00,0.0091
1129.00,0.0092
1128.00,0.0093
1127.00,0.0094
1126.00,0.0095
1125.00,0.0095
1124.00,0.0095
1123.00,0.0095
1122.00,0.0095
1121.00,0.0096
1120.00,0.0097
1119.00,0.0098
1118.00,0.0100
1117.00,0.0101
1116.00,0.0102
1115.00,0.0103
1114.00,0.0105
1113.00,0.0107
1112.00,0.0109
1111.00,0.0112
1110.00,0.0116
1109.00,0.0120
1108.00,0.0126
1107.00,0.0133
1106.00,0.0141
1105.00,0.0149
1104.00,0.0155
1103.00,0.0158
1102.00,0.0157
1101.00,0.0154
1100.00,0.0149
1099.00,0.0143
1098.00,0.0136
1097.00,0.0128
1096.00,0.0122
1095.00,0.0116
1094.00,0.0112
1093.00,0.0109
1092.00,0.0107
1091.00,0.0104
1090.00,0.0102
1089.00,0.0099
1088.00,0.0096
1087.00,0.0094
1086.00,0.0092
1085.00,0.0091
1084.00,0.0091
1083.00,0.0091
1082.00,0.0091
1081.00,0.0090
1080.00,0.0088
1079.00,0.0086
1078.00,0.0085
1077.00,0.0083
1076.00,0.0082
1075.00,0.0082
1074.00,0.0081
1073.00,0.0080
1072.00,0.0080
1071.00,0.0080
1070.00,0.0080
1069.00,0.0080
1068.00,0.0080
1067.00,0.0081
1066.00,0.0081
1065.00,0.0081
1064.00,0.0081
1063.00,0.0081
1062.00,0.0082
1061.00,0.0082
1060.00,0.0082
1059.00,0.0082
1058.00,0.0082
1057.00,0.0082
1056.00,0.0082
1055.00,0.0083
1054.00,0.0085
1053.00,0.0086
1052.00,0.0087
1051.00,0.0089
1050.00,0.0092
1049.00,0.0093
1048.00,0.0095
1047.00,0.0097
1046.00,0.0099
1045.00,0.0100
1044.00,0.0101
1043.00,0.0101
1042.00,0.0100
1041.00,0.0100
1040.00,0.0099
1039.00,0.0100
1038.00,0.0102
1037.00,0.0103
1036.00,0.0105
1035.00,0.0105
1034.00,0.0103
1033.00,0.0102
1032.00,0.0099
1031.00,0.0097
1030.00,0.0095
1029.00,0.0094
1028.00,0.0094
1027.00,0.0094
1026.00,0.0095
1025.00,0.0095
1024.00,0.0094
1023.00,0.0093
1022.00,0.0092
1021.00,0.0091
1020.00,0.0092
1019.00,0.0093
1018.00,0.0095
1017.00,0.0096
1016.00,0.0097
1015.00,0.0099
1014.00,0.0102
1013.00,0.0106
1012.00,0.0110
1011.00,0.0114
1010.00,0.0117
1009.00,0.0120
1008.00,0.0123
1007.00,0.0127
1006.00,0.0133
1005.00,0.0140
1004.00,0.0151
1003.00,0.0167
1002.00,0.0188
1001.00,0.0212
1000.00,0.0237
999.00,0.0257
998.00,0.0265
997.00,0.0257
996.00,0.0238
995.00,0.0211
994.00,0.0184
993.00,0.0159
992.00,0.0139
991.00,0.0125
990.00,0.0115
989.00,0.0108
988.00,0.0105
987.00,0.0103
986.00,0.0103
985.00,0.0105
984.00,0.0108
983.00,0.0114
982.00,0.0124
981.00,0.0138
980.00,0.0157
979.00,0.0182
978.00,0.0212
977.00,0.0247
976.00,0.0283
975.00,0.0315
974.00,0.0335
973.00,0.0339
972.00,0.0323
971.00,0.0293
970.00,0.0254
969.00,0.0216
968.00,0.0184
967.00,0.0159
966.00,0.0141
965.00,0.0126
964.00,0.0115
963.00,0.0107
962.00,0.0100
961.00,0.0095
960.00,0.0091
959.00,0.0088
958.00,0.0086
957.00,0.0084
956.00,0.0082
955.00,0.0081
954.00,0.0080
953.00,0.0078
952.00,0.0077
951.00,0.0076
950.00,0.0076
949.00,0.0077
948.00,0.0078
947.00,0.0080
946.00,0.0082
945.00,0.0085
944.00,0.0089
943.00,0.0092
942.00,0.0095
941.00,0.0096
940.00,0.0095
939.00,0.0092
938.00,0.0088
937.00,0.0084
936.00,0.0080
935.00,0.0076
934.00,0.0073
933.00,0.0071
932.00,0.0069
931.00,0.0068
930.00,0.0067
929.00,0.0065
928.00,0.0064
927.00,0.0064
926.00,0.0065
925.00,0.0065
924.00,0.0066
923.00,0.0067
922.00,0.0068
921.00,0.0070
920.00,0.0071
919.00,0.0073
918.00,0.0074
917.00,0.0074
916.00,0.0074
915.00,0.0074
914.00,0.0075
913.00,0.0076
912.00,0.0078
911.00,0.0081
910.00,0.0083
909.00,0.0086
908.00,0.0088
907.00,0.0093
906.00,0.0100
905.00,0.0111
904.00,0.0126
903.00,0.0146
902.00,0.0168
901.00,0.0190
900.00,0.0205
899.00,0.0210
898.00,0.0203
897.00,0.0185
896.00,0.0163
895.00,0.0140
894.00,0.0121
893.00,0.0107
892.00,0.0097
891.00,0.0089
890.00,0.0084
889.00,0.0079
888.00,0.0076
887.00,0.0075
886.00,0.0074
885.00,0.0073
884.00,0.0072
883.00,0.0071
882.00,0.0072
881.00,0.0073
880.00,0.0073
879.00,0.0073
878.00,0.0073
877.00,0.0073
876.00,0.0073
875.00,0.0074
874.00,0.0074
873.00,0.0074
872.00,0.0074
871.00,0.0075
870.00,0.0075
869.00,0.0076
868.00,0.0077
867.00,0.0078
866.00,0.0078
865.00,0.0078
864.00,0.0079
863.00,0.0081
862.00,0.0084
861.00,0.0086
860.00,0.0086
859.00,0.0086
858.00,0.0085
857.00,0.0086
856.00,0.0088
855.00,0.0090
854.00,0.0092
853.00,0.0094
852.00,0.0096
851.00,0.0098
850.00,0.0102
849.00,0.0106
848.00,0.0113
847.00,0.0123
846.00,0.0138
845.00,0.0161
844.00,0.0190
843.00,0.0220
842.00,0.0241
841.00,0.0242
840.00,0.0224
839.00,0.0195
838.00,0.0166
837.00,0.0144
836.00,0.0131
835.00,0.0124
834.00,0.0121
833.00,0.0119
832.00,0.0115
831.00,0.0112
830.00,0.0109
829.00,0.0107
828.00,0.0105
827.00,0.0104
826.00,0.0104
825.00,0.0104
824.00,0.0105
823.00,0.0107
822.00,0.0109
821.00,0.0111
820.00,0.0114
819.00,0.0117
818.00,0.0120
817.00,0.0126
816.00,0.0135
815.00,0.0147
814.00,0.0162
813.00,0.0182
812.00,0.0203
811.00,0.0223
810.00,0.0238
809.00,0.0244
808.00,0.0241
807.00,0.0229
806.00,0.0212
805.00,0.0193
804.00,0.0175
803.00,0.0158
802.00,0.0145
801.00,0.0134
800.00,0.0126
799.00,0.0120
798.00,0.0114
797.00,0.0110
796.00,0.0105
795.00,0.0101
794.00,0.0098
793.00,0.0096
792.00,0.0094
791.00,0.0091
790.00,0.0089
789.00,0.0086
788.00,0.0083
787.00,0.0080
786.00,0.0078
785.00,0.0075
784.00,0.0072
783.00,0.0069
782.00,0.0067
781.00,0.0067
780.00,0.0067
779.00,0.0067
778.00,0.0067
777.00,0.0066
776.00,0.0066
775.00,0.0067
774.00,0.0069
773.00,0.0072
772.00,0.0075
771.00,0.0077
770.00,0.0080
769.00,0.0083
768.00,0.0084
767.00,0.0085
766.00,0.0084
765.00,0.0082
764.00,0.0080
763.00,0.0077
762.00,0.0073
761.00,0.0071
760.00,0.0068
759.00,0.0066
758.00,0.0065
757.00,0.0063
756.00,0.0062
755.00,0.0061
754.00,0.0061
753.00,0.0059
752.00,0.0058
751.00,0.0057
750.00,0.0059
749.00,0.0061
748.00,0.0063
747.00,0.0063
746.00,0.0062
745.00,0.0060
744.00,0.0059
743.00,0.0060
742.00,0.0062
741.00,0.0065
740.00,0.0068
739.00,0.0070
738.00,0.0072
737.00,0.0072
736.00,0.0072
735.00,0.0073
734.00,0.0074
733.00,0.0075
732.00,0.0077
731.00,0.0077
730.00,0.0077
729.00,0.0076
728.00,0.0076
727.00,0.0076
726.00,0.0076
725.00,0.0075
724.00,0.0075
723.00,0.0075
722.00,0.0076
721.00,0.0076
720.00,0.0075
719.00,0.0074
718.00,0.0071
717.00,0.0067
716.00,0.0065
715.00,0.0064
714.00,0.0064
713.00,0.0064
712.00,0.0063
711.00,0.0062
710.00,0.0061
709.00,0.0061
708.00,0.0061
707.00,0.0062
706.00,0.0063
705.00,0.0064
704.00,0.0064
703.00,0.0063
702.00,0.0062
701.00,0.0061
700.00,0.0059
699.00,0.0058
698.00,0.0057
697.00,0.0057
696.00,0.0057
695.00,0.0059
694.00,0.0061
693.00,0.0064
692.00,0.0066
691.00,0.0066
690.00,0.0065
689.00,0.0064
688.00,0.0064
687.00,0.0065
686.00,0.0065
685.00,0.0065
684.00,0.0064
683.00,0.0062
682.00,0.0059
681.00,0.0057
680.00,0.0056
679.00,0.0056
678.00,0.0056
677.00,0.0057
676.00,0.0058
675.00,0.0060
674.00,0.0062
673.00,0.0063
672.00,0.0062
671.00,0.0061
670.00,0.0061
669.00,0.0059
668.00,0.0057
667.00,0.0055
666.00,0.0054
665.00,0.0055
664.00,0.0057
663.00,0.0060
662.00,0.0062
661.00,0.0062
660.00,0.0060
659.00,0.0058
658.00,0.0057
657.00,0.0057
656.00,0.0059
655.00,0.0060
654.00,0.0059
653.00,0.0058
652.00,0.0059
651.00,0.0061
650.00,0.0063
649.00,0.0064
648.00,0.0062
647.00,0.0060
646.00,0.0058
645.00,0.0057
644.00,0.0058
643.00,0.0059
642.00,0.0061
641.00,0.0063
640.00,0.0064
639.00,0.0065
638.00,0.0067
637.00,0.0068
636.00,0.0069
635.00,0.0068
634.00,0.0067
633.00,0.0065
632.00,0.0064
631.00,0.0062
630.00,0.0060
629.00,0.0060
628.00,0.0061
627.00,0.0064
626.00,0.0065
625.00,0.0064
624.00,0.0062
623.00,0.0060
622.00,0.0061
621.00,0.0062
620.00,0.0063
619.00,0.0063
618.00,0.0063
617.00,0.0063
616.00,0.0066
615.00,0.0068
614.00,0.0068
613.00,0.0067
612.00,0.0066
611.00,0.0066
610.00,0.0067
609.00,0.0066
608.00,0.0065
607.00,0.0063
606.00,0.0062
605.00,0.0062
604.00,0.0062
603.00,0.0060
602.00,0.0058
601.00,0.0057
600.00,0.0058
599.00,0.0061
598.00,0.0064
597.00,0.0065
596.00,0.0065
595.00,0.0065
594.00,0.0065
593.00,0.0064
592.00,0.0063
591.00,0.0063
590.00,0.0063
589.00,0.0064
588.00,0.0064
587.00,0.0065
586.00,0.0066
585.00,0.0068
584.00,0.0070
583.00,0.0072
582.00,0.0074
581.00,0.0074
580.00,0.0072
579.00,0.0068
578.00,0.0066
577.00,0.0065
576.00,0.0066
575.00,0.0069
574.00,0.0073
573.00,0.0075
572.00,0.0074
571.00,0.0071
570.00,0.0068
569.00,0.0067
568.00,0.0068
567.00,0.0070
566.00,0.0070
565.00,0.0066
564.00,0.0062
563.00,0.0060
562.00,0.0061
561.00,0.0062
560.00,0.0063
559.00,0.0065
558.00,0.0068
557.00,0.0071
556.00,0.0072
555.00,0.0072
554.00,0.0071
553.00,0.0071
552.00,0.0070
551.00,0.0070
550.00,0.0073
549.00,0.0079
548.00,0.0086
547.00,0.0090
546.00,0.0088
545.00,0.0083
544.00,0.0078
543.00,0.0074
542.00,0.0073
541.00,0.0072
540.00,0.0072
539.00,0.0074
538.00,0.0078
537.00,0.0080
536.00,0.0082
535.00,0.0083
534.00,0.0084
533.00,0.0084
532.00,0.0084
531.00,0.0085
530.00,0.0088
529.00,0.0094
528.00,0.0099
527.00,0.0102
526.00,0.0100
525.00,0.0096
524.00,0.0091
523.00,0.0086
522.00,0.0083
521.00,0.0080
520.00,0.0076
519.00,0.0072
518.00,0.0072
517.00,0.0077
516.00,0.0083
515.00,0.0086
514.00,0.0083
513.00,0.0075
512.00,0.0068
511.00,0.0066
510.00,0.0069
509.00,0.0074
508.00,0.0078
507.00,0.0082
506.00,0.0087
505.00,0.0091
504.00,0.0089
503.00,0.0083
502.00,0.0078
501.00,0.0076
500.00,0.0078
499.00,0.0077
498.00,0.0074
497.00,0.0071
496.00,0.0071
495.00,0.0073
494.00,0.0075
493.00,0.0075
492.00,0.0072
491.00,0.0072
490.00,0.0074
489.00,0.0076
488.00,0.0075
487.00,0.0069
486.00,0.0061
485.00,0.0055
484.00,0.0057
483.00,0.0065
482.00,0.0075
481.00,0.0082
480.00,0.0083
479.00,0.0080
478.00,0.0076
477.00,0.0075
476.00,0.0073
475.00,0.0071
474.00,0.0069
473.00,0.0071
472.00,0.0075
471.00,0.0082
470.00,0.0088
469.00,0.0091
468.00,0.0091
467.00,0.0089
466.00,0.0088
465.00,0.0091
464.00,0.0099
463.00,0.0113
462.00,0.0132
461.00,0.0156
460.00,0.0177
459.00,0.0184
458.00,0.0176
457.00,0.0162
456.00,0.0155
455.00,0.0156
454.00,0.0156
453.00,0.0145
452.00,0.0122
451.00,0.0099
450.00,0.0085
