Created as New Dataset,Sample 084 By Administrator Date Tuesday, September 09 2025
cm-1,A
4000.00,0.0010
3999.00,0.0010
3998.00,0.0010
3997.00,0.0010
3996.00,0.0010
3995.00,0.0010
3994.00,0.0010
3993.00,0.0010
3992.00,0.0010
3991.00,0.0009
3990.00,0.0009
3989.00,0.0009
3988.00,0.0009
3987.00,0.0009
3986.00,0.0009
3985.00,0.0009
3984.00,0.0009
3983.00,0.0009
3982.00,0.0009
3981.00,0.0009
3980.00,0.0009
3979.00,0.0009
3978.00,0.0010
3977.00,0.0010
3976.00,0.0010
3975.00,0.0009
3974.00,0.0009
3973.00,0.0008
3972.00,0.0008
3971.00,0.0008
3970.00,0.0008
3969.00,0.0008
3968.00,0.0008
3967.00,0.0008
3966.00,0.0009
3965.00,0.0009
3964.00,0.0009
3963.00,0.0009
3962.00,0.0009
3961.00,0.0009
3960.00,0.0009
3959.00,0.0008
3958.00,0.0008
3957.00,0.0008
3956.00,0.0008
3955.00,0.0008
3954.00,0.0008
3953.00,0.0008
3952.00,0.0008
3951.00,0.0008
3950.00,0.0008
3949.00,0.0007
3948.00,0.0007
3947.00,0.0006
3946.00,0.0007
3945.00,0.0007
3944.00,0.0007
3943.00,0.0008
3942.00,0.0008
3941.00,0.0008
3940.00,0.0008
3939.00,0.0008
3938.00,0.0009
3937.00,0.0009
3936.00,0.0009
3935.00,0.0009
3934.00,0.0009
3933.00,0.0008
3932.00,0.0008
3931.00,0.0008
3930.00,0.0008
3929.00,0.0008
3928.00,0.0008
3927.00,0.0008
3926.00,0.0008
3925.00,0.0008
3924.00,0.0008
3923.00,0.0008
3922.00,0.0007
3921.00,0.0007
3920.00,0.0007
3919.00,0.0007
3918.00,0.0007
3917.00,0.0007
3916.00,0.0007
3915.00,0.0007
3914.00,0.0007
3913.00,0.0007
3912.00,0.0007
3911.00,0.0007
3910.00,0.0007
3909.00,0.0007
3908.00,0.0008
3907.00,0.0008
3906.00,0.0008
3905.00,0.0008
3904.00,0.0008
3903.00,0.0008
3902.00,0.0008
3901.00,0.0008
3900.00,0.0007
3899.00,0.0007
3898.00,0.0007
3897.00,0.0007
3896.00,0.0007
3895.00,0.0008
3894.00,0.0008
3893.00,0.0008
3892.00,0.0008
3891.00,0.0008
3890.00,0.0008
3889.00,0.0007
3888.00,0.0007
3887.00,0.0007
3886.00,0.0007
3885.00,0.0007
3884.00,0.0007
3883.00,0.0007
3882.00,0.0007
3881.00,0.0007
3880.00,0.0008
3879.00,0.0007
3878.00,0.0007
3877.00,0.0006
3876.00,0.0006
3875.00,0.0006
3874.00,0.0006
3873.00,0.0006
3872.00,0.0006
3871.00,0.0006
3870.00,0.0006
3869.00,0.0006
3868.00,0.0006
3867.00,0.0006
3866.00,0.0006
3865.00,0.0006
3864.00,0.0006
3863.00,0.0006
3862.00,0.0006
3861.00,0.0006
3860.00,0.0006
3859.00,0.0006
3858.00,0.0005
3857.00,0.0005
3856.00,0.0004
3855.00,0.0004
3854.00,0.0004
3853.00,0.0005
3852.00,0.0005
3851.00,0.0005
3850.00,0.0005
3849.00,0.0005
3848.00,0.0006
3847.00,0.0006
3846.00,0.0006
3845.00,0.0006
3844.00,0.0005
3843.00,0.0005
3842.00,0.0004
3841.00,0.0004
3840.00,0.0003
3839.00,0.0004
3838.00,0.0004
3837.00,0.0005
3836.00,0.0005
3835.00,0.0006
3834.00,0.0006
3833.00,0.0007
3832.00,0.0007
3831.00,0.0007
3830.00,0.0007
3829.00,0.0007
3828.00,0.0007
3827.00,0.0007
3826.00,0.0007
3825.00,0.0006
3824.00,0.0005
3823.00,0.0004
3822.00,0.0004
3821.00,0.0004
3820.00,0.0004
3819.00,0.0004
3818.00,0.0005
3817.00,0.0006
3816.00,0.0006
3815.00,0.0007
3814.00,0.0007
3813.00,0.0007
3812.00,0.0007
3811.00,0.0007
3810.00,0.0006
3809.00,0.0005
3808.00,0.0005
3807.00,0.0004
3806.00,0.0003
3805.00,0.0003
3804.00,0.0003
3803.00,0.0004
3802.00,0.0004
3801.00,0.0005
3800.00,0.0004
3799.00,0.0004
3798.00,0.0004
3797.00,0.0005
3796.00,0.0005
3795.00,0.0006
3794.00,0.0006
3793.00,0.0007
3792.00,0.0007
3791.00,0.0008
3790.00,0.0008
3789.00,0.0007
3788.00,0.0007
3787.00,0.0007
3786.00,0.0007
3785.00,0.0007
3784.00,0.0006
3783.00,0.0006
3782.00,0.0006
3781.00,0.0006
3780.00,0.0007
3779.00,0.0007
3778.00,0.0007
3777.00,0.0007
3776.00,0.0007
3775.00,0.0007
3774.00,0.0007
3773.00,0.0007
3772.00,0.0007
3771.00,0.0007
3770.00,0.0007
3769.00,0.0007
3768.00,0.0007
3767.00,0.0007
3766.00,0.0008
3765.00,0.0008
3764.00,0.0008
3763.00,0.0007
3762.00,0.0007
3761.00,0.0007
3760.00,0.0007
3759.00,0.0007
3758.00,0.0007
3757.00,0.0007
3756.00,0.0007
3755.00,0.0006
3754.00,0.0006
3753.00,0.0006
3752.00,0.0006
3751.00,0.0006
3750.00,0.0005
3749.00,0.0005
3748.00,0.0005
3747.00,0.0005
3746.00,0.0006
3745.00,0.0006
3744.00,0.0006
3743.00,0.0005
3742.00,0.0005
3741.00,0.0004
3740.00,0.0004
3739.00,0.0004
3738.00,0.0004
3737.00,0.0004
3736.00,0.0004
3735.00,0.0004
3734.00,0.0004
3733.00,0.0004
3732.00,0.0005
3731.00,0.0005
3730.00,0.0005
3729.00,0.0005
3728.00,0.0006
3727.00,0.0006
3726.00,0.0006
3725.00,0.0006
3724.00,0.0006
3723.00,0.0006
3722.00,0.0005
3721.00,0.0005
3720.00,0.0005
3719.00,0.0005
3718.00,0.0005
3717.00,0.0005
3716.00,0.0005
3715.00,0.0005
3714.00,0.0004
3713.00,0.0004
3712.00,0.0004
3711.00,0.0004
3710.00,0.0004
3709.00,0.0004
3708.00,0.0004
3707.00,0.0005
3706.00,0.0005
3705.00,0.0005
3704.00,0.0005
3703.00,0.0005
3702.00,0.0005
3701.00,0.0005
3700.00,0.0005
3699.00,0.0005
3698.00,0.0005
3697.00,0.0005
3696.00,0.0005
3695.00,0.0004
3694.00,0.0003
3693.00,0.0003
3692.00,0.0003
3691.00,0.0004
3690.00,0.0004
3689.00,0.0005
3688.00,0.0005
3687.00,0.0005
3686.00,0.0005
3685.00,0.0005
3684.00,0.0005
3683.00,0.0005
3682.00,0.0005
3681.00,0.0004
3680.00,0.0004
3679.00,0.0003
3678.00,0.0003
3677.00,0.0003
3676.00,0.0004
3675.00,0.0004
3674.00,0.0004
3673.00,0.0004
3672.00,0.0004
3671.00,0.0004
3670.00,0.0005
3669.00,0.0005
3668.00,0.0005
3667.00,0.0006
3666.00,0.0006
3665.00,0.0006
3664.00,0.0006
3663.00,0.0006
3662.00,0.0006
3661.00,0.0006
3660.00,0.0006
3659.00,0.0005
3658.00,0.0005
3657.00,0.0004
3656.00,0.0004
3655.00,0.0004
3654.00,0.0003
3653.00,0.0003
3652.00,0.0003
3651.00,0.0003
3650.00,0.0003
3649.00,0.0003
3648.00,0.0004
3647.00,0.0004
3646.00,0.0005
3645.00,0.0005
3644.00,0.0005
3643.00,0.0006
3642.00,0.0006
3641.00,0.0007
3640.00,0.0007
3639.00,0.0007
3638.00,0.0007
3637.00,0.0007
3636.00,0.0007
3635.00,0.0007
3634.00,0.0007
3633.00,0.0007
3632.00,0.0007
3631.00,0.0007
3630.00,0.0007
3629.00,0.0007
3628.00,0.0007
3627.00,0.0007
3626.00,0.0007
3625.00,0.0008
3624.00,0.0008
3623.00,0.0008
3622.00,0.0008
3621.00,0.0008
3620.00,0.0009
3619.00,0.0009
3618.00,0.0009
3617.00,0.0009
3616.00,0.0009
3615.00,0.0009
3614.00,0.0009
3613.00,0.0009
3612.00,0.0009
3611.00,0.0009
3610.00,0.0009
3609.00,0.0010
3608.00,0.0010
3607.00,0.0010
3606.00,0.0010
3605.00,0.0011
3604.00,0.0011
3603.00,0.0011
3602.00,0.0011
3601.00,0.0011
3600.00,0.0011
3599.00,0.0011
3598.00,0.0011
3597.00,0.0012
3596.00,0.0012
3595.00,0.0013
3594.00,0.0013
3593.00,0.0014
3592.00,0.0014
3591.00,0.0015
3590.00,0.0015
3589.00,0.0015
3588.00,0.0015
3587.00,0.0015
3586.00,0.0015
3585.00,0.0015
3584.00,0.0016
3583.00,0.0016
3582.00,0.0016
3581.00,0.0016
3580.00,0.0016
3579.00,0.0016
3578.00,0.0017
3577.00,0.0017
3576.00,0.0017
3575.00,0.0017
3574.00,0.0017
3573.00,0.0017
3572.00,0.0018
3571.00,0.0018
3570.00,0.0018
3569.00,0.0018
3568.00,0.0018
3567.00,0.0019
3566.00,0.0019
3565.00,0.0019
3564.00,0.0020
3563.00,0.0020
3562.00,0.0020
3561.00,0.0020
3560.00,0.0021
3559.00,0.0022
3558.00,0.0022
3557.00,0.0023
3556.00,0.0023
3555.00,0.0023
3554.00,0.0022
3553.00,0.0022
3552.00,0.0022
3551.00,0.0022
3550.00,0.0022
3549.00,0.0023
3548.00,0.0023
3547.00,0.0023
3546.00,0.0024
3545.00,0.0024
3544.00,0.0024
3543.00,0.0024
3542.00,0.0024
3541.00,0.0025
3540.00,0.0025
3539.00,0.0026
3538.00,0.0026
3537.00,0.0026
3536.00,0.0026
3535.00,0.0026
3534.00,0.0026
3533.00,0.0026
3532.00,0.0026
3531.00,0.0026
3530.00,0.0027
3529.00,0.0028
3528.00,0.0028
3527.00,0.0029
3526.00,0.0029
3525.00,0.0029
3524.00,0.0029
3523.00,0.0029
3522.00,0.0029
3521.00,0.0029
3520.00,0.0030
3519.00,0.0030
3518.00,0.0030
3517.00,0.0030
3516.00,0.0030
3515.00,0.0030
3514.00,0.0030
3513.00,0.0031
3512.00,0.0031
3511.00,0.0032
3510.00,0.0032
3509.00,0.0032
3508.00,0.0032
3507.00,0.0033
3506.00,0.0033
3505.00,0.0033
3504.00,0.0033
3503.00,0.0033
3502.00,0.0034
3501.00,0.0034
3500.00,0.0034
3499.00,0.0034
3498.00,0.0034
3497.00,0.0034
3496.00,0.0034
3495.00,0.0034
3494.00,0.0034
3493.00,0.0034
3492.00,0.0034
3491.00,0.0034
3490.00,0.0034
3489.00,0.0034
3488.00,0.0035
3487.00,0.0035
3486.00,0.0035
3485.00,0.0035
3484.00,0.0035
3483.00,0.0036
3482.00,0.0036
3481.00,0.0037
3480.00,0.0037
3479.00,0.0037
3478.00,0.0037
3477.00,0.0038
3476.00,0.0038
3475.00,0.0038
3474.00,0.0039
3473.00,0.0039
3472.00,0.0039
3471.00,0.0039
3470.00,0.0039
3469.00,0.0039
3468.00,0.0039
3467.00,0.0039
3466.00,0.0039
3465.00,0.0039
3464.00,0.0039
3463.00,0.0040
3462.00,0.0040
3461.00,0.0040
3460.00,0.0040
3459.00,0.0041
3458.00,0.0041
3457.00,0.0041
3456.00,0.0041
3455.00,0.0042
3454.00,0.0042
3453.00,0.0041
3452.00,0.0041
3451.00,0.0041
3450.00,0.0041
3449.00,0.0041
3448.00,0.0042
3447.00,0.0042
3446.00,0.0042
3445.00,0.0042
3444.00,0.0043
3443.00,0.0043
3442.00,0.0043
3441.00,0.0043
3440.00,0.0044
3439.00,0.0044
3438.00,0.0044
3437.00,0.0044
3436.00,0.0044
3435.00,0.0044
3434.00,0.0044
3433.00,0.0045
3432.00,0.0045
3431.00,0.0045
3430.00,0.0045
3429.00,0.0045
3428.00,0.0045
3427.00,0.0045
3426.00,0.0046
3425.00,0.0045
3424.00,0.0045
3423.00,0.0045
3422.00,0.0045
3421.00,0.0046
3420.00,0.0046
3419.00,0.0046
3418.00,0.0046
3417.00,0.0047
3416.00,0.0047
3415.00,0.0047
3414.00,0.0047
3413.00,0.0047
3412.00,0.0047
3411.00,0.0047
3410.00,0.0047
3409.00,0.0047
3408.00,0.0047
3407.00,0.0047
3406.00,0.0048
3405.00,0.0048
3404.00,0.0048
3403.00,0.0048
3402.00,0.0048
3401.00,0.0047
3400.00,0.0047
3399.00,0.0048
3398.00,0.0048
3397.00,0.0048
3396.00,0.0048
3395.00,0.0048
3394.00,0.0048
3393.00,0.0048
3392.00,0.0048
3391.00,0.0048
3390.00,0.0048
3389.00,0.0048
3388.00,0.0048
3387.00,0.0048
3386.00,0.0047
3385.00,0.0047
3384.00,0.0047
3383.00,0.0047
3382.00,0.0047
3381.00,0.0047
3380.00,0.0047
3379.00,0.0047
3378.00,0.0048
3377.00,0.0048
3376.00,0.0048
3375.00,0.0048
3374.00,0.0048
3373.00,0.0048
3372.00,0.0048
3371.00,0.0048
3370.00,0.0048
3369.00,0.0048
3368.00,0.0048
3367.00,0.0048
3366.00,0.0048
3365.00,0.0048
3364.00,0.0048
3363.00,0.0048
3362.00,0.0048
3361.00,0.0048
3360.00,0.0048
3359.00,0.0048
3358.00,0.0048
3357.00,0.0048
3356.00,0.0048
3355.00,0.0048
3354.00,0.0048
3353.00,0.0048
3352.00,0.0049
3351.00,0.0049
3350.00,0.0049
3349.00,0.0049
3348.00,0.0049
3347.00,0.0049
3346.00,0.0048
3345.00,0.0049
3344.00,0.0049
3343.00,0.0049
3342.00,0.0048
3341.00,0.0048
3340.00,0.0048
3339.00,0.0048
3338.00,0.0047
3337.00,0.0047
3336.00,0.0047
3335.00,0.0047
3334.00,0.0047
3333.00,0.0047
3332.00,0.0047
3331.00,0.0046
3330.00,0.0046
3329.00,0.0046
3328.00,0.0046
3327.00,0.0046
3326.00,0.0046
3325.00,0.0046
3324.00,0.0045
3323.00,0.0045
3322.00,0.0045
3321.00,0.0044
3320.00,0.0044
3319.00,0.0044
3318.00,0.0044
3317.00,0.0044
3316.00,0.0045
3315.00,0.0045
3314.00,0.0045
3313.00,0.0045
3312.00,0.0045
3311.00,0.0044
3310.00,0.0044
3309.00,0.0044
3308.00,0.0044
3307.00,0.0044
3306.00,0.0044
3305.00,0.0044
3304.00,0.0044
3303.00,0.0044
3302.00,0.0044
3301.00,0.0044
3300.00,0.0044
3299.00,0.0044
3298.00,0.0044
3297.00,0.0044
3296.00,0.0044
3295.00,0.0044
3294.00,0.0043
3293.00,0.0043
3292.00,0.0043
3291.00,0.0043
3290.00,0.0043
3289.00,0.0043
3288.00,0.0042
3287.00,0.0042
3286.00,0.0042
3285.00,0.0042
3284.00,0.0043
3283.00,0.0043
3282.00,0.0043
3281.00,0.0043
3280.00,0.0043
3279.00,0.0043
3278.00,0.0042
3277.00,0.0042
3276.00,0.0042
3275.00,0.0042
3274.00,0.0042
3273.00,0.0042
3272.00,0.0042
3271.00,0.0041
3270.00,0.0041
3269.00,0.0041
3268.00,0.0041
3267.00,0.0041
3266.00,0.0040
3265.00,0.0040
3264.00,0.0040
3263.00,0.0040
3262.00,0.0040
3261.00,0.0040
3260.00,0.0040
3259.00,0.0040
3258.00,0.0040
3257.00,0.0039
3256.00,0.0039
3255.00,0.0039
3254.00,0.0039
3253.00,0.0039
3252.00,0.0039
3251.00,0.0039
3250.00,0.0038
3249.00,0.0038
3248.00,0.0038
3247.00,0.0038
3246.00,0.0037
3245.00,0.0037
3244.00,0.0037
3243.00,0.0037
3242.00,0.0037
3241.00,0.0037
3240.00,0.0037
3239.00,0.0037
3238.00,0.0037
3237.00,0.0037
3236.00,0.0037
3235.00,0.0037
3234.00,0.0037
3233.00,0.0038
3232.00,0.0038
3231.00,0.0038
3230.00,0.0038
3229.00,0.0038
3228.00,0.0038
3227.00,0.0038
3226.00,0.0039
3225.00,0.0039
3224.00,0.0039
3223.00,0.0039
3222.00,0.0039
3221.00,0.0040
3220.00,0.0040
3219.00,0.0040
3218.00,0.0040
3217.00,0.0040
3216.00,0.0040
3215.00,0.0040
3214.00,0.0040
3213.00,0.0040
3212.00,0.0040
3211.00,0.0040
3210.00,0.0040
3209.00,0.0040
3208.00,0.0041
3207.00,0.0041
3206.00,0.0041
3205.00,0.0041
3204.00,0.0041
3203.00,0.0041
3202.00,0.0041
3201.00,0.0041
3200.00,0.0041
3199.00,0.0041
3198.00,0.0041
3197.00,0.0040
3196.00,0.0040
3195.00,0.0040
3194.00,0.0040
3193.00,0.0040
3192.00,0.0040
3191.00,0.0040
3190.00,0.0040
3189.00,0.0040
3188.00,0.0039
3187.00,0.0039
3186.00,0.0039
3185.00,0.0039
3184.00,0.0039
3183.00,0.0039
3182.00,0.0039
3181.00,0.0038
3180.00,0.0038
3179.00,0.0038
3178.00,0.0037
3177.00,0.0037
3176.00,0.0037
3175.00,0.0036
3174.00,0.0036
3173.00,0.0036
3172.00,0.0037
3171.00,0.0037
3170.00,0.0037
3169.00,0.0037
3168.00,0.0038
3167.00,0.0038
3166.00,0.0037
3165.00,0.0037
3164.00,0.0037
3163.00,0.0036
3162.00,0.0036
3161.00,0.0035
3160.00,0.0035
3159.00,0.0035
3158.00,0.0035
3157.00,0.0036
3156.00,0.0036
3155.00,0.0036
3154.00,0.0037
3153.00,0.0037
3152.00,0.0037
3151.00,0.0036
3150.00,0.0036
3149.00,0.0036
3148.00,0.0036
3147.00,0.0036
3146.00,0.0036
3145.00,0.0036
3144.00,0.0036
3143.00,0.0036
3142.00,0.0036
3141.00,0.0035
3140.00,0.0035
3139.00,0.0035
3138.00,0.0034
3137.00,0.0034
3136.00,0.0034
3135.00,0.0033
3134.00,0.0033
3133.00,0.0033
3132.00,0.0032
3131.00,0.0032
3130.00,0.0032
3129.00,0.0032
3128.00,0.0032
3127.00,0.0032
3126.00,0.0032
3125.00,0.0032
3124.00,0.0031
3123.00,0.0031
3122.00,0.0030
3121.00,0.0030
3120.00,0.0030
3119.00,0.0030
3118.00,0.0030
3117.00,0.0030
3116.00,0.0030
3115.00,0.0029
3114.00,0.0029
3113.00,0.0029
3112.00,0.0030
3111.00,0.0030
3110.00,0.0030
3109.00,0.0030
3108.00,0.0030
3107.00,0.0030
3106.00,0.0029
3105.00,0.0029
3104.00,0.0028
3103.00,0.0028
3102.00,0.0028
3101.00,0.0027
3100.00,0.0028
3099.00,0.0028
3098.00,0.0028
3097.00,0.0028
3096.00,0.0028
3095.00,0.0028
3094.00,0.0028
3093.00,0.0028
3092.00,0.0028
3091.00,0.0027
3090.00,0.0027
3089.00,0.0027
3088.00,0.0027
3087.00,0.0028
3086.00,0.0028
3085.00,0.0028
3084.00,0.0028
3083.00,0.0027
3082.00,0.0027
3081.00,0.0027
3080.00,0.0027
3079.00,0.0028
3078.00,0.0028
3077.00,0.0028
3076.00,0.0029
3075.00,0.0029
3074.00,0.0028
3073.00,0.0028
3072.00,0.0028
3071.00,0.0029
3070.00,0.0029
3069.00,0.0029
3068.00,0.0029
3067.00,0.0029
3066.00,0.0029
3065.00,0.0029
3064.00,0.0029
3063.00,0.0029
3062.00,0.0029
3061.00,0.0029
3060.00,0.0029
3059.00,0.0030
3058.00,0.0030
3057.00,0.0030
3056.00,0.0030
3055.00,0.0030
3054.00,0.0031
3053.00,0.0031
3052.00,0.0031
3051.00,0.0031
3050.00,0.0031
3049.00,0.0032
3048.00,0.0032
3047.00,0.0032
3046.00,0.0032
3045.00,0.0032
3044.00,0.0032
3043.00,0.0033
3042.00,0.0033
3041.00,0.0033
3040.00,0.0034
3039.00,0.0034
3038.00,0.0034
3037.00,0.0034
3036.00,0.0034
3035.00,0.0035
3034.00,0.0035
3033.00,0.0036
3032.00,0.0036
3031.00,0.0036
3030.00,0.0037
3029.00,0.0037
3028.00,0.0038
3027.00,0.0039
3026.00,0.0039
3025.00,0.0040
3024.00,0.0041
3023.00,0.0042
3022.00,0.0042
3021.00,0.0043
3020.00,0.0044
3019.00,0.0044
3018.00,0.0045
3017.00,0.0046
3016.00,0.0047
3015.00,0.0048
3014.00,0.0049
3013.00,0.0050
3012.00,0.0051
3011.00,0.0053
3010.00,0.0054
3009.00,0.0055
3008.00,0.0056
3007.00,0.0058
3006.00,0.0059
3005.00,0.0061
3004.00,0.0063
3003.00,0.0066
3002.00,0.0068
3001.00,0.0070
3000.00,0.0073
2999.00,0.0076
2998.00,0.0080
2997.00,0.0083
2996.00,0.0087
2995.00,0.0091
2994.00,0.0095
2993.00,0.0099
2992.00,0.0104
2991.00,0.0110
2990.00,0.0117
2989.00,0.0124
2988.00,0.0132
2987.00,0.0141
2986.00,0.0151
2985.00,0.0161
2984.00,0.0173
2983.00,0.0186
2982.00,0.0201
2981.00,0.0219
2980.00,0.0240
2979.00,0.0263
2978.00,0.0289
2977.00,0.0318
2976.00,0.0351
2975.00,0.0389
2974.00,0.0431
2973.00,0.0479
2972.00,0.0534
2971.00,0.0595
2970.00,0.0663
2969.00,0.0738
2968.00,0.0820
2967.00,0.0908
2966.00,0.0999
2965.00,0.1092
2964.00,0.1183
2963.00,0.1268
2962.00,0.1343
2961.00,0.1407
2960.00,0.1460
2959.00,0.1504
2958.00,0.1544
2957.00,0.1587
2956.00,0.1637
2955.00,0.1698
2954.00,0.1768
2953.00,0.1843
2952.00,0.1915
2951.00,0.1973
2950.00,0.2004
2949.00,0.1999
2948.00,0.1951
2947.00,0.1861
2946.00,0.1740
2945.00,0.1601
2944.00,0.1462
2943.00,0.1336
2942.00,0.1233
2941.00,0.1158
2940.00,0.1110
2939.00,0.1088
2938.00,0.1088
2937.00,0.1108
2936.00,0.1147
2935.00,0.1202
2934.00,0.1273
2933.00,0.1357
2932.00,0.1453
2931.00,0.1558
2930.00,0.1670
2929.00,0.1785
2928.00,0.1900
2927.00,0.2012
2926.00,0.2119
2925.00,0.2221
2924.00,0.2320
2923.00,0.2417
2922.00,0.2512
2921.00,0.2604
2920.00,0.2687
2919.00,0.2752
2918.00,0.2790
2917.00,0.2793
2916.00,0.2758
2915.00,0.2689
2914.00,0.2595
2913.00,0.2486
2912.00,0.2374
2911.00,0.2267
2910.00,0.2168
2909.00,0.2078
2908.00,0.1995
2907.00,0.1916
2906.00,0.1839
2905.00,0.1763
2904.00,0.1686
2903.00,0.1611
2902.00,0.1537
2901.00,0.1465
2900.00,0.1396
2899.00,0.1331
2898.00,0.1271
2897.00,0.1217
2896.00,0.1170
2895.00,0.1130
2894.00,0.1098
2893.00,0.1073
2892.00,0.1056
2891.00,0.1045
2890.00,0.1040
2889.00,0.1040
2888.00,0.1044
2887.00,0.1053
2886.00,0.1065
2885.00,0.1081
2884.00,0.1102
2883.00,0.1129
2882.00,0.1160
2881.00,0.1195
2880.00,0.1229
2879.00,0.1260
2878.00,0.1281
2877.00,0.1291
2876.00,0.1289
2875.00,0.1281
2874.00,0.1271
2873.00,0.1266
2872.00,0.1268
2871.00,0.1279
2870.00,0.1298
2869.00,0.1319
2868.00,0.1335
2867.00,0.1335
2866.00,0.1311
2865.00,0.1258
2864.00,0.1179
2863.00,0.1083
2862.00,0.0982
2861.00,0.0885
2860.00,0.0802
2859.00,0.0734
2858.00,0.0682
2857.00,0.0644
2856.00,0.0620
2855.00,0.0605
2854.00,0.0600
2853.00,0.0602
2852.00,0.0612
2851.00,0.0627
2850.00,0.0647
2849.00,0.0673
2848.00,0.0705
2847.00,0.0744
2846.00,0.0792
2845.00,0.0850
2844.00,0.0916
2843.00,0.0990
2842.00,0.1067
2841.00,0.1142
2840.00,0.1206
2839.00,0.1249
2838.00,0.1264
2837.00,0.1243
2836.00,0.1185
2835.00,0.1096
2834.00,0.0988
2833.00,0.0872
2832.00,0.0761
2831.00,0.0662
2830.00,0.0577
2829.00,0.0508
2828.00,0.0452
2827.00,0.0407
2826.00,0.0371
2825.00,0.0341
2824.00,0.0316
2823.00,0.0296
2822.00,0.0278
2821.00,0.0263
2820.00,0.0250
2819.00,0.0238
2818.00,0.0228
2817.00,0.0219
2816.00,0.0211
2815.00,0.0205
2814.00,0.0199
2813.00,0.0194
2812.00,0.0188
2811.00,0.0183
2810.00,0.0177
2809.00,0.0171
2808.00,0.0165
2807.00,0.0158
2806.00,0.0152
2805.00,0.0145
2804.00,0.0139
2803.00,0.0133
2802.00,0.0127
2801.00,0.0122
2800.00,0.0117
2799.00,0.0114
2798.00,0.0110
2797.00,0.0108
2796.00,0.0106
2795.00,0.0104
2794.00,0.0102
2793.00,0.0099
2792.00,0.0096
2791.00,0.0093
2790.00,0.0089
2789.00,0.0086
2788.00,0.0083
2787.00,0.0080
2786.00,0.0077
2785.00,0.0075
2784.00,0.0072
2783.00,0.0070
2782.00,0.0068
2781.00,0.0066
2780.00,0.0065
2779.00,0.0063
2778.00,0.0062
2777.00,0.0060
2776.00,0.0059
2775.00,0.0059
2774.00,0.0058
2773.00,0.0057
2772.00,0.0057
2771.00,0.0056
2770.00,0.0056
2769.00,0.0056
2768.00,0.0055
2767.00,0.0055
2766.00,0.0055
2765.00,0.0054
2764.00,0.0054
2763.00,0.0053
2762.00,0.0053
2761.00,0.0053
2760.00,0.0052
2759.00,0.0052
2758.00,0.0052
2757.00,0.0052
2756.00,0.0052
2755.00,0.0052
2754.00,0.0052
2753.00,0.0052
2752.00,0.0052
2751.00,0.0051
2750.00,0.0051
2749.00,0.0050
2748.00,0.0050
2747.00,0.0051
2746.00,0.0051
2745.00,0.0052
2744.00,0.0053
2743.00,0.0054
2742.00,0.0055
2741.00,0.0056
2740.00,0.0058
2739.00,0.0059
2738.00,0.0061
2737.00,0.0062
2736.00,0.0064
2735.00,0.0066
2734.00,0.0068
2733.00,0.0069
2732.00,0.0071
2731.00,0.0073
2730.00,0.0075
2729.00,0.0078
2728.00,0.0081
2727.00,0.0084
2726.00,0.0087
2725.00,0.0089
2724.00,0.0091
2723.00,0.0091
2722.00,0.0091
2721.00,0.0088
2720.00,0.0085
2719.00,0.0082
2718.00,0.0078
2717.00,0.0075
2716.00,0.0072
2715.00,0.0069
2714.00,0.0067
2713.00,0.0064
2712.00,0.0062
2711.00,0.0059
2710.00,0.0057
2709.00,0.0056
2708.00,0.0054
2707.00,0.0053
2706.00,0.0051
2705.00,0.0050
2704.00,0.0049
2703.00,0.0048
2702.00,0.0047
2701.00,0.0046
2700.00,0.0045
2699.00,0.0045
2698.00,0.0044
2697.00,0.0044
2696.00,0.0044
2695.00,0.0044
2694.00,0.0044
2693.00,0.0044
2692.00,0.0044
2691.00,0.0044
2690.00,0.0044
2689.00,0.0044
2688.00,0.0044
2687.00,0.0044
2686.00,0.0044
2685.00,0.0044
2684.00,0.0044
2683.00,0.0045
2682.00,0.0045
2681.00,0.0045
2680.00,0.0045
2679.00,0.0045
2678.00,0.0046
2677.00,0.0046
2676.00,0.0045
2675.00,0.0045
2674.00,0.0045
2673.00,0.0045
2672.00,0.0044
2671.00,0.0044
2670.00,0.0044
2669.00,0.0044
2668.00,0.0044
2667.00,0.0044
2666.00,0.0044
2665.00,0.0045
2664.00,0.0045
2663.00,0.0046
2662.00,0.0047
2661.00,0.0047
2660.00,0.0048
2659.00,0.0048
2658.00,0.0048
2657.00,0.0047
2656.00,0.0047
2655.00,0.0046
2654.00,0.0046
2653.00,0.0045
2652.00,0.0044
2651.00,0.0043
2650.00,0.0043
2649.00,0.0042
2648.00,0.0042
2647.00,0.0042
2646.00,0.0042
2645.00,0.0041
2644.00,0.0041
2643.00,0.0040
2642.00,0.0040
2641.00,0.0039
2640.00,0.0038
2639.00,0.0038
2638.00,0.0038
2637.00,0.0038
2636.00,0.0038
2635.00,0.0038
2634.00,0.0037
2633.00,0.0037
2632.00,0.0038
2631.00,0.0038
2630.00,0.0038
2629.00,0.0038
2628.00,0.0038
2627.00,0.0039
2626.00,0.0039
2625.00,0.0040
2624.00,0.0040
2623.00,0.0040
2622.00,0.0040
2621.00,0.0040
2620.00,0.0040
2619.00,0.0040
2618.00,0.0040
2617.00,0.0040
2616.00,0.0040
2615.00,0.0040
2614.00,0.0040
2613.00,0.0039
2612.00,0.0039
2611.00,0.0038
2610.00,0.0037
2609.00,0.0036
2608.00,0.0036
2607.00,0.0035
2606.00,0.0034
2605.00,0.0034
2604.00,0.0033
2603.00,0.0032
2602.00,0.0032
2601.00,0.0032
2600.00,0.0032
2599.00,0.0032
2598.00,0.0032
2597.00,0.0032
2596.00,0.0033
2595.00,0.0033
2594.00,0.0033
2593.00,0.0033
2592.00,0.0033
2591.00,0.0034
2590.00,0.0035
2589.00,0.0036
2588.00,0.0037
2587.00,0.0039
2586.00,0.0041
2585.00,0.0042
2584.00,0.0043
2583.00,0.0043
2582.00,0.0042
2581.00,0.0041
2580.00,0.0040
2579.00,0.0039
2578.00,0.0038
2577.00,0.0036
2576.00,0.0036
2575.00,0.0035
2574.00,0.0035
2573.00,0.0034
2572.00,0.0033
2571.00,0.0032
2570.00,0.0031
2569.00,0.0030
2568.00,0.0029
2567.00,0.0027
2566.00,0.0026
2565.00,0.0025
2564.00,0.0024
2563.00,0.0024
2562.00,0.0024
2561.00,0.0025
2560.00,0.0025
2559.00,0.0026
2558.00,0.0025
2557.00,0.0025
2556.00,0.0024
2555.00,0.0023
2554.00,0.0023
2553.00,0.0023
2552.00,0.0022
2551.00,0.0022
2550.00,0.0021
2549.00,0.0021
2548.00,0.0020
2547.00,0.0020
2546.00,0.0019
2545.00,0.0019
2544.00,0.0018
2543.00,0.0017
2542.00,0.0017
2541.00,0.0017
2540.00,0.0017
2539.00,0.0017
2538.00,0.0017
2537.00,0.0017
2536.00,0.0017
2535.00,0.0017
2534.00,0.0016
2533.00,0.0016
2532.00,0.0016
2531.00,0.0016
2530.00,0.0015
2529.00,0.0015
2528.00,0.0014
2527.00,0.0014
2526.00,0.0013
2525.00,0.0013
2524.00,0.0013
2523.00,0.0013
2522.00,0.0013
2521.00,0.0014
2520.00,0.0014
2519.00,0.0014
2518.00,0.0014
2517.00,0.0013
2516.00,0.0013
2515.00,0.0012
2514.00,0.0011
2513.00,0.0011
2512.00,0.0010
2511.00,0.0010
2510.00,0.0011
2509.00,0.0011
2508.00,0.0012
2507.00,0.0012
2506.00,0.0012
2505.00,0.0012
2504.00,0.0011
2503.00,0.0011
2502.00,0.0011
2501.00,0.0011
2500.00,0.0012
2499.00,0.0012
2498.00,0.0012
2497.00,0.0011
2496.00,0.0011
2495.00,0.0011
2494.00,0.0011
2493.00,0.0011
2492.00,0.0011
2491.00,0.0010
2490.00,0.0010
2489.00,0.0010
2488.00,0.0011
2487.00,0.0011
2486.00,0.0012
2485.00,0.0012
2484.00,0.0011
2483.00,0.0011
2482.00,0.0010
2481.00,0.0010
2480.00,0.0010
2479.00,0.0010
2478.00,0.0010
2477.00,0.0009
2476.00,0.0009
2475.00,0.0008
2474.00,0.0008
2473.00,0.0008
2472.00,0.0008
2471.00,0.0008
2470.00,0.0008
2469.00,0.0009
2468.00,0.0009
2467.00,0.0010
2466.00,0.0010
2465.00,0.0009
2464.00,0.0009
2463.00,0.0009
2462.00,0.0009
2461.00,0.0010
2460.00,0.0010
2459.00,0.0010
2458.00,0.0010
2457.00,0.0011
2456.00,0.0011
2455.00,0.0012
2454.00,0.0013
2453.00,0.0014
2452.00,0.0013
2451.00,0.0013
2450.00,0.0012
2449.00,0.0012
2448.00,0.0012
2447.00,0.0011
2446.00,0.0011
2445.00,0.0011
2444.00,0.0011
2443.00,0.0011
2442.00,0.0011
2441.00,0.0011
2440.00,0.0011
2439.00,0.0011
2438.00,0.0011
2437.00,0.0011
2436.00,0.0011
2435.00,0.0011
2434.00,0.0011
2433.00,0.0011
2432.00,0.0011
2431.00,0.0011
2430.00,0.0011
2429.00,0.0012
2428.00,0.0012
2427.00,0.0013
2426.00,0.0013
2425.00,0.0012
2424.00,0.0012
2423.00,0.0012
2422.00,0.0011
2421.00,0.0011
2420.00,0.0012
2419.00,0.0012
2418.00,0.0012
2417.00,0.0013
2416.00,0.0012
2415.00,0.0012
2414.00,0.0012
2413.00,0.0011
2412.00,0.0011
2411.00,0.0011
2410.00,0.0011
2409.00,0.0011
2408.00,0.0010
2407.00,0.0010
2406.00,0.0009
2405.00,0.0009
2404.00,0.0009
2403.00,0.0009
2402.00,0.0009
2401.00,0.0009
2400.00,0.0009
2399.00,0.0009
2398.00,0.0009
2397.00,0.0009
2396.00,0.0009
2395.00,0.0009
2394.00,0.0009
2393.00,0.0009
2392.00,0.0008
2391.00,0.0008
2390.00,0.0008
2389.00,0.0008
2388.00,0.0007
2387.00,0.0007
2386.00,0.0007
2385.00,0.0006
2384.00,0.0005
2383.00,0.0003
2382.00,0.0001
2381.00,0.0000
2380.00,-0.0000
2379.00,-0.0001
2378.00,-0.0001
2377.00,-0.0001
2376.00,-0.0001
2375.00,-0.0001
2374.00,0.0000
2373.00,0.0000
2372.00,0.0001
2371.00,0.0000
2370.00,-0.0000
2369.00,-0.0001
2368.00,-0.0002
2367.00,-0.0003
2366.00,-0.0003
2365.00,-0.0003
2364.00,-0.0002
2363.00,-0.0001
2362.00,-0.0001
2361.00,-0.0001
2360.00,-0.0001
2359.00,-0.0001
2358.00,-0.0001
2357.00,-0.0001
2356.00,-0.0001
2355.00,-0.0000
2354.00,-0.0000
2353.00,-0.0000
2352.00,-0.0000
2351.00,-0.0000
2350.00,0.0000
2349.00,0.0001
2348.00,0.0001
2347.00,0.0000
2346.00,0.0000
2345.00,0.0000
2344.00,0.0001
2343.00,0.0003
2342.00,0.0004
2341.00,0.0004
2340.00,0.0004
2339.00,0.0004
2338.00,0.0004
2337.00,0.0004
2336.00,0.0005
2335.00,0.0005
2334.00,0.0004
2333.00,0.0003
2332.00,0.0003
2331.00,0.0003
2330.00,0.0003
2329.00,0.0004
2328.00,0.0007
2327.00,0.0010
2326.00,0.0014
2325.00,0.0018
2324.00,0.0019
2323.00,0.0018
2322.00,0.0017
2321.00,0.0015
2320.00,0.0015
2319.00,0.0014
2318.00,0.0013
2317.00,0.0012
2316.00,0.0010
2315.00,0.0009
2314.00,0.0008
2313.00,0.0008
2312.00,0.0008
2311.00,0.0008
2310.00,0.0008
2309.00,0.0009
2308.00,0.0010
2307.00,0.0011
2306.00,0.0011
2305.00,0.0012
2304.00,0.0012
2303.00,0.0012
2302.00,0.0012
2301.00,0.0013
2300.00,0.0013
2299.00,0.0012
2298.00,0.0012
2297.00,0.0012
2296.00,0.0012
2295.00,0.0013
2294.00,0.0014
2293.00,0.0014
2292.00,0.0015
2291.00,0.0016
2290.00,0.0017
2289.00,0.0018
2288.00,0.0019
2287.00,0.0020
2286.00,0.0020
2285.00,0.0020
2284.00,0.0020
2283.00,0.0019
2282.00,0.0018
2281.00,0.0016
2280.00,0.0015
2279.00,0.0014
2278.00,0.0013
2277.00,0.0014
2276.00,0.0015
2275.00,0.0016
2274.00,0.0016
2273.00,0.0015
2272.00,0.0015
2271.00,0.0014
2270.00,0.0013
2269.00,0.0012
2268.00,0.0011
2267.00,0.0011
2266.00,0.0011
2265.00,0.0012
2264.00,0.0012
2263.00,0.0013
2262.00,0.0013
2261.00,0.0012
2260.00,0.0012
2259.00,0.0012
2258.00,0.0011
2257.00,0.0011
2256.00,0.0010
2255.00,0.0009
2254.00,0.0008
2253.00,0.0008
2252.00,0.0008
2251.00,0.0008
2250.00,0.0008
2249.00,0.0007
2248.00,0.0007
2247.00,0.0007
2246.00,0.0007
2245.00,0.0007
2244.00,0.0008
2243.00,0.0008
2242.00,0.0008
2241.00,0.0008
2240.00,0.0007
2239.00,0.0007
2238.00,0.0008
2237.00,0.0008
2236.00,0.0009
2235.00,0.0009
2234.00,0.0009
2233.00,0.0009
2232.00,0.0008
2231.00,0.0008
2230.00,0.0008
2229.00,0.0009
2228.00,0.0009
2227.00,0.0009
2226.00,0.0009
2225.00,0.0008
2224.00,0.0007
2223.00,0.0005
2222.00,0.0003
2221.00,0.0003
2220.00,0.0005
2219.00,0.0007
2218.00,0.0008
2217.00,0.0007
2216.00,0.0006
2215.00,0.0004
2214.00,0.0004
2213.00,0.0005
2212.00,0.0006
2211.00,0.0007
2210.00,0.0007
2209.00,0.0007
2208.00,0.0007
2207.00,0.0008
2206.00,0.0008
2205.00,0.0008
2204.00,0.0007
2203.00,0.0006
2202.00,0.0006
2201.00,0.0008
2200.00,0.0009
2199.00,0.0010
2198.00,0.0009
2197.00,0.0008
2196.00,0.0008
2195.00,0.0008
2194.00,0.0008
2193.00,0.0008
2192.00,0.0008
2191.00,0.0007
2190.00,0.0006
2189.00,0.0005
2188.00,0.0005
2187.00,0.0006
2186.00,0.0007
2185.00,0.0009
2184.00,0.0009
2183.00,0.0009
2182.00,0.0009
2181.00,0.0010
2180.00,0.0011
2179.00,0.0010
2178.00,0.0008
2177.00,0.0004
2176.00,0.0001
2175.00,0.0001
2174.00,0.0003
2173.00,0.0006
2172.00,0.0011
2171.00,0.0015
2170.00,0.0020
2169.00,0.0024
2168.00,0.0026
2167.00,0.0026
2166.00,0.0023
2165.00,0.0020
2164.00,0.0018
2163.00,0.0017
2162.00,0.0016
2161.00,0.0013
2160.00,0.0004
2159.00,-0.0010
2158.00,-0.0023
2157.00,-0.0028
2156.00,-0.0024
2155.00,-0.0018
2154.00,-0.0013
2153.00,-0.0011
2152.00,-0.0010
2151.00,-0.0011
2150.00,-0.0011
2149.00,-0.0011
2148.00,-0.0010
2147.00,-0.0011
2146.00,-0.0012
2145.00,-0.0012
2144.00,-0.0012
2143.00,-0.0012
2142.00,-0.0011
2141.00,-0.0010
2140.00,-0.0010
2139.00,-0.0010
2138.00,-0.0011
2137.00,-0.0013
2136.00,-0.0015
2135.00,-0.0017
2134.00,-0.0018
2133.00,-0.0017
2132.00,-0.0016
2131.00,-0.0013
2130.00,-0.0011
2129.00,-0.0010
2128.00,-0.0009
2127.00,-0.0008
2126.00,-0.0006
2125.00,-0.0005
2124.00,-0.0004
2123.00,-0.0004
2122.00,-0.0004
2121.00,-0.0003
2120.00,-0.0002
2119.00,-0.0001
2118.00,-0.0000
2117.00,-0.0000
2116.00,-0.0000
2115.00,-0.0000
2114.00,0.0000
2113.00,0.0001
2112.00,0.0003
2111.00,0.0003
2110.00,0.0003
2109.00,0.0003
2108.00,0.0002
2107.00,0.0001
2106.00,0.0001
2105.00,0.0001
2104.00,0.0002
2103.00,0.0003
2102.00,0.0004
2101.00,0.0004
2100.00,0.0003
2099.00,0.0002
2098.00,0.0000
2097.00,-0.0001
2096.00,-0.0003
2095.00,-0.0004
2094.00,-0.0004
2093.00,-0.0003
2092.00,-0.0001
2091.00,-0.0000
2090.00,0.0001
2089.00,0.0003
2088.00,0.0004
2087.00,0.0005
2086.00,0.0005
2085.00,0.0004
2084.00,0.0003
2083.00,0.0002
2082.00,0.0001
2081.00,0.0002
2080.00,0.0002
2079.00,0.0002
2078.00,0.0002
2077.00,0.0002
2076.00,0.0002
2075.00,0.0003
2074.00,0.0003
2073.00,0.0003
2072.00,0.0003
2071.00,0.0002
2070.00,0.0002
2069.00,0.0002
2068.00,0.0001
2067.00,-0.0000
2066.00,-0.0003
2065.00,-0.0004
2064.00,-0.0003
2063.00,-0.0000
2062.00,0.0002
2061.00,0.0003
2060.00,0.0002
2059.00,0.0000
2058.00,-0.0001
2057.00,-0.0001
2056.00,0.0000
2055.00,0.0001
2054.00,0.0002
2053.00,0.0006
2052.00,0.0011
2051.00,0.0015
2050.00,0.0015
2049.00,0.0011
2048.00,0.0006
2047.00,0.0002
2046.00,-0.0001
2045.00,-0.0004
2044.00,-0.0006
2043.00,-0.0006
2042.00,-0.0004
2041.00,-0.0001
2040.00,0.0001
2039.00,0.0001
2038.00,0.0001
2037.00,0.0000
2036.00,-0.0001
2035.00,-0.0004
2034.00,-0.0007
2033.00,-0.0010
2032.00,-0.0014
2031.00,-0.0018
2030.00,-0.0020
2029.00,-0.0020
2028.00,-0.0016
2027.00,-0.0011
2026.00,-0.0006
2025.00,-0.0003
2024.00,-0.0001
2023.00,-0.0001
2022.00,-0.0002
2021.00,-0.0002
2020.00,-0.0001
2019.00,-0.0002
2018.00,-0.0003
2017.00,-0.0004
2016.00,-0.0005
2015.00,-0.0006
2014.00,-0.0008
2013.00,-0.0010
2012.00,-0.0010
2011.00,-0.0009
2010.00,-0.0009
2009.00,-0.0011
2008.00,-0.0014
2007.00,-0.0016
2006.00,-0.0017
2005.00,-0.0016
2004.00,-0.0015
2003.00,-0.0015
2002.00,-0.0015
2001.00,-0.0015
2000.00,-0.0013
1999.00,-0.0012
1998.00,-0.0009
1997.00,-0.0006
1996.00,-0.0005
1995.00,-0.0005
1994.00,-0.0006
1993.00,-0.0006
1992.00,-0.0005
1991.00,-0.0003
1990.00,-0.0001
1989.00,0.0002
1988.00,0.0004
1987.00,0.0004
1986.00,0.0003
1985.00,0.0003
1984.00,0.0003
1983.00,0.0005
1982.00,0.0007
1981.00,0.0010
1980.00,0.0011
1979.00,0.0008
1978.00,0.0003
1977.00,-0.0004
1976.00,-0.0009
1975.00,-0.0013
1974.00,-0.0014
1973.00,-0.0013
1972.00,-0.0012
1971.00,-0.0013
1970.00,-0.0013
1969.00,-0.0013
1968.00,-0.0012
1967.00,-0.0011
1966.00,-0.0011
1965.00,-0.0010
1964.00,-0.0010
1963.00,-0.0010
1962.00,-0.0012
1961.00,-0.0014
1960.00,-0.0014
1959.00,-0.0014
1958.00,-0.0014
1957.00,-0.0014
1956.00,-0.0014
1955.00,-0.0014
1954.00,-0.0013
1953.00,-0.0013
1952.00,-0.0013
1951.00,-0.0014
1950.00,-0.0014
1949.00,-0.0014
1948.00,-0.0012
1947.00,-0.0011
1946.00,-0.0011
1945.00,-0.0011
1944.00,-0.0011
1943.00,-0.0013
1942.00,-0.0015
1941.00,-0.0017
1940.00,-0.0016
1939.00,-0.0014
1938.00,-0.0011
1937.00,-0.0008
1936.00,-0.0007
1935.00,-0.0007
1934.00,-0.0008
1933.00,-0.0009
1932.00,-0.0009
1931.00,-0.0009
1930.00,-0.0009
1929.00,-0.0010
1928.00,-0.0010
1927.00,-0.0010
1926.00,-0.0009
1925.00,-0.0008
1924.00,-0.0007
1923.00,-0.0006
1922.00,-0.0006
1921.00,-0.0005
1920.00,-0.0005
1919.00,-0.0005
1918.00,-0.0005
1917.00,-0.0004
1916.00,-0.0003
1915.00,-0.0003
1914.00,-0.0003
1913.00,-0.0003
1912.00,-0.0004
1911.00,-0.0005
1910.00,-0.0005
1909.00,-0.0005
1908.00,-0.0004
1907.00,-0.0003
1906.00,-0.0001
1905.00,-0.0001
1904.00,-0.0001
1903.00,-0.0002
1902.00,-0.0003
1901.00,-0.0004
1900.00,-0.0004
1899.00,-0.0003
1898.00,-0.0002
1897.00,-0.0000
1896.00,0.0001
1895.00,0.0001
1894.00,0.0001
1893.00,0.0001
1892.00,0.0001
1891.00,0.0001
1890.00,0.0000
1889.00,-0.0001
1888.00,-0.0001
1887.00,-0.0000
1886.00,-0.0000
1885.00,-0.0001
1884.00,-0.0001
1883.00,-0.0001
1882.00,-0.0001
1881.00,-0.0001
1880.00,-0.0001
1879.00,-0.0001
1878.00,-0.0001
1877.00,-0.0001
1876.00,-0.0000
1875.00,-0.0000
1874.00,-0.0001
1873.00,-0.0002
1872.00,-0.0002
1871.00,-0.0001
1870.00,-0.0000
1869.00,0.0001
1868.00,0.0001
1867.00,0.0000
1866.00,-0.0000
1865.00,-0.0000
1864.00,0.0001
1863.00,0.0001
1862.00,0.0002
1861.00,0.0002
1860.00,0.0001
1859.00,0.0000
1858.00,-0.0000
1857.00,-0.0000
1856.00,-0.0000
1855.00,0.0000
1854.00,0.0001
1853.00,0.0002
1852.00,0.0002
1851.00,0.0002
1850.00,0.0002
1849.00,0.0002
1848.00,0.0002
1847.00,0.0002
1846.00,0.0002
1845.00,0.0002
1844.00,0.0002
1843.00,0.0002
1842.00,0.0002
1841.00,0.0002
1840.00,0.0002
1839.00,0.0002
1838.00,0.0002
1837.00,0.0002
1836.00,0.0003
1835.00,0.0003
1834.00,0.0003
1833.00,0.0004
1832.00,0.0005
1831.00,0.0005
1830.00,0.0004
1829.00,0.0005
1828.00,0.0005
1827.00,0.0006
1826.00,0.0005
1825.00,0.0005
1824.00,0.0004
1823.00,0.0004
1822.00,0.0004
1821.00,0.0003
1820.00,0.0002
1819.00,0.0001
1818.00,-0.0000
1817.00,-0.0001
1816.00,-0.0001
1815.00,-0.0000
1814.00,0.0001
1813.00,0.0002
1812.00,0.0003
1811.00,0.0003
1810.00,0.0004
1809.00,0.0004
1808.00,0.0004
1807.00,0.0005
1806.00,0.0005
1805.00,0.0005
1804.00,0.0005
1803.00,0.0005
1802.00,0.0004
1801.00,0.0005
1800.00,0.0005
1799.00,0.0005
1798.00,0.0006
1797.00,0.0006
1796.00,0.0005
1795.00,0.0006
1794.00,0.0006
1793.00,0.0007
1792.00,0.0008
1791.00,0.0008
1790.00,0.0009
1789.00,0.0009
1788.00,0.0009
1787.00,0.0010
1786.00,0.0009
1785.00,0.0009
1784.00,0.0008
1783.00,0.0008
1782.00,0.0009
1781.00,0.0009
1780.00,0.0009
1779.00,0.0009
1778.00,0.0009
1777.00,0.0009
1776.00,0.0009
1775.00,0.0009
1774.00,0.0009
1773.00,0.0009
1772.00,0.0010
1771.00,0.0011
1770.00,0.0011
1769.00,0.0011
1768.00,0.0011
1767.00,0.0011
1766.00,0.0012
1765.00,0.0012
1764.00,0.0013
1763.00,0.0013
1762.00,0.0013
1761.00,0.0013
1760.00,0.0013
1759.00,0.0014
1758.00,0.0014
1757.00,0.0015
1756.00,0.0016
1755.00,0.0016
1754.00,0.0016
1753.00,0.0017
1752.00,0.0017
1751.00,0.0016
1750.00,0.0017
1749.00,0.0018
1748.00,0.0019
1747.00,0.0019
1746.00,0.0019
1745.00,0.0019
1744.00,0.0020
1743.00,0.0020
1742.00,0.0021
1741.00,0.0021
1740.00,0.0022
1739.00,0.0022
1738.00,0.0022
1737.00,0.0022
1736.00,0.0023
1735.00,0.0023
1734.00,0.0023
1733.00,0.0022
1732.00,0.0022
1731.00,0.0022
1730.00,0.0022
1729.00,0.0022
1728.00,0.0022
1727.00,0.0022
1726.00,0.0022
1725.00,0.0022
1724.00,0.0022
1723.00,0.0022
1722.00,0.0022
1721.00,0.0022
1720.00,0.0022
1719.00,0.0022
1718.00,0.0021
1717.00,0.0021
1716.00,0.0022
1715.00,0.0023
1714.00,0.0023
1713.00,0.0023
1712.00,0.0024
1711.00,0.0024
1710.00,0.0025
1709.00,0.0026
1708.00,0.0026
1707.00,0.0027
1706.00,0.0028
1705.00,0.0029
1704.00,0.0030
1703.00,0.0032
1702.00,0.0033
1701.00,0.0035
1700.00,0.0035
1699.00,0.0035
1698.00,0.0036
1697.00,0.0037
1696.00,0.0040
1695.00,0.0042
1694.00,0.0044
1693.00,0.0046
1692.00,0.0048
1691.00,0.0050
1690.00,0.0052
1689.00,0.0055
1688.00,0.0057
1687.00,0.0059
1686.00,0.0060
1685.00,0.0063
1684.00,0.0066
1683.00,0.0070
1682.00,0.0072
1681.00,0.0075
1680.00,0.0077
1679.00,0.0079
1678.00,0.0081
1677.00,0.0083
1676.00,0.0085
1675.00,0.0085
1674.00,0.0086
1673.00,0.0087
1672.00,0.0088
1671.00,0.0089
1670.00,0.0089
1669.00,0.0090
1668.00,0.0090
1667.00,0.0090
1666.00,0.0090
1665.00,0.0090
1664.00,0.0090
1663.00,0.0089
1662.00,0.0089
1661.00,0.0089
1660.00,0.0088
1659.00,0.0088
1658.00,0.0088
1657.00,0.0088
1656.00,0.0087
1655.00,0.0086
1654.00,0.0084
1653.00,0.0081
1652.00,0.0079
1651.00,0.0079
1650.00,0.0078
1649.00,0.0078
1648.00,0.0077
1647.00,0.0076
1646.00,0.0075
1645.00,0.0073
1644.00,0.0072
1643.00,0.0072
1642.00,0.0071
1641.00,0.0071
1640.00,0.0071
1639.00,0.0070
1638.00,0.0070
1637.00,0.0069
1636.00,0.0067
1635.00,0.0065
1634.00,0.0064
1633.00,0.0064
1632.00,0.0063
1631.00,0.0063
1630.00,0.0063
1629.00,0.0062
1628.00,0.0062
1627.00,0.0061
1626.00,0.0060
1625.00,0.0059
1624.00,0.0059
1623.00,0.0058
1622.00,0.0058
1621.00,0.0058
1620.00,0.0058
1619.00,0.0057
1618.00,0.0055
1617.00,0.0054
1616.00,0.0054
1615.00,0.0054
1614.00,0.0054
1613.00,0.0054
1612.00,0.0054
1611.00,0.0054
1610.00,0.0054
1609.00,0.0054
1608.00,0.0054
1607.00,0.0054
1606.00,0.0054
1605.00,0.0053
1604.00,0.0053
1603.00,0.0053
1602.00,0.0053
1601.00,0.0053
1600.00,0.0054
1599.00,0.0054
1598.00,0.0053
1597.00,0.0054
1596.00,0.0053
1595.00,0.0053
1594.00,0.0053
1593.00,0.0053
1592.00,0.0054
1591.00,0.0055
1590.00,0.0057
1589.00,0.0058
1588.00,0.0059
1587.00,0.0061
1586.00,0.0062
1585.00,0.0065
1584.00,0.0067
1583.00,0.0070
1582.00,0.0073
1581.00,0.0075
1580.00,0.0078
1579.00,0.0079
1578.00,0.0080
1577.00,0.0080
1576.00,0.0079
1575.00,0.0077
1574.00,0.0076
1573.00,0.0075
1572.00,0.0073
1571.00,0.0071
1570.00,0.0068
1569.00,0.0065
1568.00,0.0063
1567.00,0.0061
1566.00,0.0060
1565.00,0.0060
1564.00,0.0060
1563.00,0.0060
1562.00,0.0061
1561.00,0.0061
1560.00,0.0061
1559.00,0.0062
1558.00,0.0062
1557.00,0.0063
1556.00,0.0063
1555.00,0.0064
1554.00,0.0065
1553.00,0.0067
1552.00,0.0069
1551.00,0.0070
1550.00,0.0072
1549.00,0.0074
1548.00,0.0076
1547.00,0.0079
1546.00,0.0082
1545.00,0.0085
1544.00,0.0088
1543.00,0.0090
1542.00,0.0090
1541.00,0.0090
1540.00,0.0088
1539.00,0.0084
1538.00,0.0081
1537.00,0.0079
1536.00,0.0077
1535.00,0.0074
1534.00,0.0070
1533.00,0.0067
1532.00,0.0064
1531.00,0.0062
1530.00,0.0061
1529.00,0.0060
1528.00,0.0060
1527.00,0.0059
1526.00,0.0057
1525.00,0.0056
1524.00,0.0056
1523.00,0.0056
1522.00,0.0056
1521.00,0.0056
1520.00,0.0057
1519.00,0.0058
1518.00,0.0058
1517.00,0.0058
1516.00,0.0059
1515.00,0.0059
1514.00,0.0059
1513.00,0.0061
1512.00,0.0062
1511.00,0.0063
1510.00,0.0064
1509.00,0.0065
1508.00,0.0065
1507.00,0.0066
1506.00,0.0066
1505.00,0.0067
1504.00,0.0068
1503.00,0.0070
1502.00,0.0072
1501.00,0.0075
1500.00,0.0078
1499.00,0.0080
1498.00,0.0082
1497.00,0.0085
1496.00,0.0088
1495.00,0.0090
1494.00,0.0093
1493.00,0.0096
1492.00,0.0100
1491.00,0.0104
1490.00,0.0107
1489.00,0.0112
1488.00,0.0118
1487.00,0.0123
1486.00,0.0128
1485.00,0.0135
1484.00,0.0143
1483.00,0.0151
1482.00,0.0161
1481.00,0.0173
1480.00,0.0186
1479.00,0.0199
1478.00,0.0215
1477.00,0.0235
1476.00,0.0258
1475.00,0.0285
1474.00,0.0322
1473.00,0.0375
1472.00,0.0441
1471.00,0.0505
1470.00,0.0568
1469.00,0.0635
1468.00,0.0708
1467.00,0.0790
1466.00,0.0883
1465.00,0.0984
1464.00,0.1073
1463.00,0.1137
1462.00,0.1181
1461.00,0.1212
1460.00,0.1234
1459.00,0.1251
1458.00,0.1265
1457.00,0.1276
1456.00,0.1277
1455.00,0.1270
1454.00,0.1260
1453.00,0.1244
1452.00,0.1218
1451.00,0.1179
1450.00,0.1124
1449.00,0.1047
1448.00,0.0949
1447.00,0.0845
1446.00,0.0752
1445.00,0.0673
1444.00,0.0607
1443.00,0.0554
1442.00,0.0516
1441.00,0.0491
1440.00,0.0477
1439.00,0.0474
1438.00,0.0478
1437.00,0.0482
1436.00,0.0472
1435.00,0.0444
1434.00,0.0403
1433.00,0.0354
1432.00,0.0304
1431.00,0.0260
1430.00,0.0226
1429.00,0.0202
1428.00,0.0187
1427.00,0.0177
1426.00,0.0172
1425.00,0.0166
1424.00,0.0161
1423.00,0.0158
1422.00,0.0157
1421.00,0.0154
1420.00,0.0150
1419.00,0.0145
1418.00,0.0141
1417.00,0.0137
1416.00,0.0133
1415.00,0.0130
1414.00,0.0129
1413.00,0.0126
1412.00,0.0124
1411.00,0.0122
1410.00,0.0122
1409.00,0.0120
1408.00,0.0119
1407.00,0.0119
1406.00,0.0119
1405.00,0.0118
1404.00,0.0117
1403.00,0.0118
1402.00,0.0120
1401.00,0.0121
1400.00,0.0122
1399.00,0.0125
1398.00,0.0127
1397.00,0.0129
1396.00,0.0130
1395.00,0.0134
1394.00,0.0139
1393.00,0.0144
1392.00,0.0150
1391.00,0.0159
1390.00,0.0172
1389.00,0.0190
1388.00,0.0218
1387.00,0.0257
1386.00,0.0309
1385.00,0.0375
1384.00,0.0461
1383.00,0.0578
1382.00,0.0734
1381.00,0.0936
1380.00,0.1188
1379.00,0.1482
1378.00,0.1773
1377.00,0.1998
1376.00,0.2090
1375.00,0.2006
1374.00,0.1768
1373.00,0.1465
1372.00,0.1181
1371.00,0.0943
1370.00,0.0752
1369.00,0.0608
1368.00,0.0508
1367.00,0.0447
1366.00,0.0414
1365.00,0.0401
1364.00,0.0404
1363.00,0.0420
1362.00,0.0444
1361.00,0.0471
1360.00,0.0490
1359.00,0.0496
1358.00,0.0484
1357.00,0.0454
1356.00,0.0411
1355.00,0.0363
1354.00,0.0317
1353.00,0.0278
1352.00,0.0246
1351.00,0.0221
1350.00,0.0201
1349.00,0.0185
1348.00,0.0173
1347.00,0.0162
1346.00,0.0154
1345.00,0.0147
1344.00,0.0142
1343.00,0.0138
1342.00,0.0135
1341.00,0.0132
1340.00,0.0130
1339.00,0.0128
1338.00,0.0126
1337.00,0.0126
1336.00,0.0127
1335.00,0.0129
1334.00,0.0133
1333.00,0.0138
1332.00,0.0143
1331.00,0.0147
1330.00,0.0148
1329.00,0.0147
1328.00,0.0143
1327.00,0.0138
1326.00,0.0131
1325.00,0.0124
1324.00,0.0118
1323.00,0.0113
1322.00,0.0109
1321.00,0.0106
1320.00,0.0103
1319.00,0.0101
1318.00,0.0099
1317.00,0.0097
1316.00,0.0095
1315.00,0.0093
1314.00,0.0091
1313.00,0.0090
1312.00,0.0091
1311.00,0.0093
1310.00,0.0098
1309.00,0.0104
1308.00,0.0114
1307.00,0.0124
1306.00,0.0135
1305.00,0.0143
1304.00,0.0146
1303.00,0.0145
1302.00,0.0142
1301.00,0.0139
1300.00,0.0139
1299.00,0.0141
1298.00,0.0145
1297.00,0.0148
1296.00,0.0150
1295.00,0.0149
1294.00,0.0145
1293.00,0.0140
1292.00,0.0134
1291.00,0.0129
1290.00,0.0123
1289.00,0.0118
1288.00,0.0113
1287.00,0.0109
1286.00,0.0105
1285.00,0.0102
1284.00,0.0099
1283.00,0.0097
1282.00,0.0096
1281.00,0.0094
1280.00,0.0093
1279.00,0.0092
1278.00,0.0091
1277.00,0.0090
1276.00,0.0089
1275.00,0.0088
1274.00,0.0088
1273.00,0.0087
1272.00,0.0087
1271.00,0.0087
1270.00,0.0087
1269.00,0.0087
1268.00,0.0087
1267.00,0.0089
1266.00,0.0090
1265.00,0.0092
1264.00,0.0095
1263.00,0.0097
1262.00,0.0100
1261.00,0.0104
1260.00,0.0110
1259.00,0.0116
1258.00,0.0123
1257.00,0.0128
1256.00,0.0130
1255.00,0.0129
1254.00,0.0123
1253.00,0.0116
1252.00,0.0109
1251.00,0.0102
1250.00,0.0098
1249.00,0.0094
1248.00,0.0091
1247.00,0.0089
1246.00,0.0088
1245.00,0.0087
1244.00,0.0087
1243.00,0.0087
1242.00,0.0087
1241.00,0.0087
1240.00,0.0086
1239.00,0.0086
1238.00,0.0085
1237.00,0.0085
1236.00,0.0085
1235.00,0.0085
1234.00,0.0086
1233.00,0.0086
1232.00,0.0086
1231.00,0.0086
1230.00,0.0086
1229.00,0.0087
1228.00,0.0088
1227.00,0.0090
1226.00,0.0092
1225.00,0.0095
1224.00,0.0098
1223.00,0.0101
1222.00,0.0105
1221.00,0.0108
1220.00,0.0110
1219.00,0.0111
1218.00,0.0111
1217.00,0.0109
1216.00,0.0107
1215.00,0.0103
1214.00,0.0100
1213.00,0.0097
1212.00,0.0093
1211.00,0.0090
1210.00,0.0088
1209.00,0.0085
1208.00,0.0083
1207.00,0.0082
1206.00,0.0081
1205.00,0.0080
1204.00,0.0080
1203.00,0.0080
1202.00,0.0080
1201.00,0.0079
1200.00,0.0079
1199.00,0.0079
1198.00,0.0079
1197.00,0.0079
1196.00,0.0080
1195.00,0.0080
1194.00,0.0080
1193.00,0.0081
1192.00,0.0081
1191.00,0.0082
1190.00,0.0082
1189.00,0.0081
1188.00,0.0081
1187.00,0.0081
1186.00,0.0081
1185.00,0.0081
1184.00,0.0081
1183.00,0.0082
1182.00,0.0084
1181.00,0.0086
1180.00,0.0090
1179.00,0.0095
1178.00,0.0101
1177.00,0.0109
1176.00,0.0120
1175.00,0.0135
1174.00,0.0154
1173.00,0.0178
1172.00,0.0206
1171.00,0.0237
1170.00,0.0267
1169.00,0.0290
1168.00,0.0304
1167.00,0.0307
1166.00,0.0300
1165.00,0.0287
1164.00,0.0271
1163.00,0.0255
1162.00,0.0240
1161.00,0.0227
1160.00,0.0216
1159.00,0.0208
1158.00,0.0203
1157.00,0.0200
1156.00,0.0198
1155.00,0.0196
1154.00,0.0195
1153.00,0.0193
1152.00,0.0190
1151.00,0.0183
1150.00,0.0174
1149.00,0.0164
1148.00,0.0154
1147.00,0.0145
1146.00,0.0137
1145.00,0.0131
1144.00,0.0125
1143.00,0.0119
1142.00,0.0114
1141.00,0.0109
1140.00,0.0104
1139.00,0.0100
1138.00,0.0096
1137.00,0.0093
1136.00,0.0091
1135.00,0.0089
1134.00,0.0087
1133.00,0.0086
1132.00,0.0086
1131.00,0.0086
1130.00,0.0087
1129.00,0.0088
1128.00,0.0088
1127.00,0.0088
1126.00,0.0089
1125.00,0.0090
1124.00,0.0091
1123.00,0.0090
1122.00,0.0090
1121.00,0.0090
1120.00,0.0090
1119.00,0.0092
1118.00,0.0093
1117.00,0.0095
1116.00,0.0096
1115.00,0.0097
1114.00,0.0099
1113.00,0.0102
1112.00,0.0104
1111.00,0.0107
1110.00,0.0110
1109.00,0.0113
1108.00,0.0119
1107.00,0.0125
1106.00,0.0133
1105.00,0.0141
1104.00,0.0148
1103.00,0.0152
1102.00,0.0153
1101.00,0.0150
1100.00,0.0145
1099.00,0.0137
1098.00,0.0129
1097.00,0.0122
1096.00,0.0115
1095.00,0.0110
1094.00,0.0105
1093.00,0.0102
1092.00,0.0099
1091.00,0.0097
1090.00,0.0095
1089.00,0.0094
1088.00,0.0092
1087.00,0.0090
1086.00,0.0088
1085.00,0.0087
1084.00,0.0086
1083.00,0.0085
1082.00,0.0085
1081.00,0.0084
1080.00,0.0082
1079.00,0.0081
1078.00,0.0080
1077.00,0.0079
1076.00,0.0079
1075.00,0.0078
1074.00,0.0077
1073.00,0.0077
1072.00,0.0077
1071.00,0.0078
1070.00,0.0078
1069.00,0.0078
1068.00,0.0078
1067.00,0.0078
1066.00,0.0078
1065.00,0.0078
1064.00,0.0078
1063.00,0.0078
1062.00,0.0078
1061.00,0.0078
1060.00,0.0079
1059.00,0.0080
1058.00,0.0081
1057.00,0.0082
1056.00,0.0082
1055.00,0.0083
1054.00,0.0084
1053.00,0.0085
1052.00,0.0087
1051.00,0.0089
1050.00,0.0090
1049.00,0.0091
1048.00,0.0093
1047.00,0.0095
1046.00,0.0098
1045.00,0.0099
1044.00,0.0100
1043.00,0.0100
1042.00,0.0099
1041.00,0.0098
1040.00,0.0098
1039.00,0.0097
1038.00,0.0097
1037.00,0.0097
1036.00,0.0097
1035.00,0.0096
1034.00,0.0094
1033.00,0.0092
1032.00,0.0091
1031.00,0.0090
1030.00,0.0089
1029.00,0.0089
1028.00,0.0089
1027.00,0.0089
1026.00,0.0089
1025.00,0.0089
1024.00,0.0089
1023.00,0.0090
1022.00,0.0091
1021.00,0.0092
1020.00,0.0093
1019.00,0.0094
1018.00,0.0095
1017.00,0.0096
1016.00,0.0098
1015.00,0.0101
1014.00,0.0104
1013.00,0.0107
1012.00,0.0111
1011.00,0.0114
1010.00,0.0117
1009.00,0.0120
1008.00,0.0124
1007.00,0.0129
1006.00,0.0137
1005.00,0.0148
1004.00,0.0163
1003.00,0.0184
1002.00,0.0211
1001.00,0.0244
1000.00,0.0277
999.00,0.0305
998.00,0.0317
997.00,0.0310
996.00,0.0285
995.00,0.0250
994.00,0.0214
993.00,0.0181
992.00,0.0156
991.00,0.0138
990.00,0.0124
989.00,0.0115
988.00,0.0109
987.00,0.0107
986.00,0.0106
985.00,0.0108
984.00,0.0112
983.00,0.0118
982.00,0.0129
981.00,0.0144
980.00,0.0165
979.00,0.0193
978.00,0.0228
977.00,0.0267
976.00,0.0309
975.00,0.0349
974.00,0.0377
973.00,0.0388
972.00,0.0375
971.00,0.0342
970.00,0.0296
969.00,0.0249
968.00,0.0207
967.00,0.0175
966.00,0.0152
965.00,0.0135
964.00,0.0123
963.00,0.0114
962.00,0.0107
961.00,0.0101
960.00,0.0096
959.00,0.0092
958.00,0.0088
957.00,0.0084
956.00,0.0082
955.00,0.0080
954.00,0.0079
953.00,0.0078
952.00,0.0077
951.00,0.0076
950.00,0.0076
949.00,0.0076
948.00,0.0077
947.00,0.0079
946.00,0.0081
945.00,0.0084
944.00,0.0088
943.00,0.0091
942.00,0.0094
941.00,0.0096
940.00,0.0096
939.00,0.0094
938.00,0.0091
937.00,0.0086
936.00,0.0081
935.00,0.0076
934.00,0.0072
933.00,0.0068
932.00,0.0066
931.00,0.0064
930.00,0.0063
929.00,0.0062
928.00,0.0062
927.00,0.0062
926.00,0.0062
925.00,0.0062
924.00,0.0062
923.00,0.0063
922.00,0.0064
921.00,0.0064
920.00,0.0065
919.00,0.0066
918.00,0.0068
917.00,0.0069
916.00,0.0070
915.00,0.0071
914.00,0.0072
913.00,0.0072
912.00,0.0073
911.00,0.0075
910.00,0.0077
909.00,0.0079
908.00,0.0082
907.00,0.0086
906.00,0.0094
905.00,0.0106
904.00,0.0122
903.00,0.0143
902.00,0.0166
901.00,0.0186
900.00,0.0199
899.00,0.0202
898.00,0.0194
897.00,0.0177
896.00,0.0156
895.00,0.0135
894.00,0.0118
893.00,0.0104
892.00,0.0094
891.00,0.0087
890.00,0.0083
889.00,0.0079
888.00,0.0076
887.00,0.0074
886.00,0.0073
885.00,0.0073
884.00,0.0073
883.00,0.0073
882.00,0.0073
881.00,0.0074
880.00,0.0073
879.00,0.0073
878.00,0.0073
877.00,0.0072
876.00,0.0071
875.00,0.0071
874.00,0.0072
873.00,0.0073
872.00,0.0073
871.00,0.0073
870.00,0.0072
869.00,0.0071
868.00,0.0070
867.00,0.0071
866.00,0.0072
865.00,0.0073
864.00,0.0075
863.00,0.0078
862.00,0.0079
861.00,0.0080
860.00,0.0081
859.00,0.0082
858.00,0.0084
857.00,0.0085
856.00,0.0087
855.00,0.0089
854.00,0.0091
853.00,0.0094
852.00,0.0098
851.00,0.0101
850.00,0.0106
849.00,0.0113
848.00,0.0122
847.00,0.0136
846.00,0.0156
845.00,0.0186
844.00,0.0225
843.00,0.0269
842.00,0.0302
841.00,0.0309
840.00,0.0289
839.00,0.0249
838.00,0.0208
837.00,0.0175
836.00,0.0153
835.00,0.0140
834.00,0.0132
833.00,0.0127
832.00,0.0123
831.00,0.0119
830.00,0.0116
829.00,0.0113
828.00,0.0111
827.00,0.0111
826.00,0.0110
825.00,0.0109
824.00,0.0108
823.00,0.0107
822.00,0.0107
821.00,0.0107
820.00,0.0109
819.00,0.0112
818.00,0.0117
817.00,0.0123
816.00,0.0130
815.00,0.0141
814.00,0.0157
813.00,0.0176
812.00,0.0197
811.00,0.0216
810.00,0.0231
809.00,0.0238
808.00,0.0235
807.00,0.0223
806.00,0.0205
805.00,0.0184
804.00,0.0165
803.00,0.0149
802.00,0.0137
801.00,0.0128
800.00,0.0122
799.00,0.0115
798.00,0.0109
797.00,0.0104
796.00,0.0099
795.00,0.0096
794.00,0.0094
793.00,0.0092
792.00,0.0090
791.00,0.0089
790.00,0.0086
789.00,0.0084
788.00,0.0081
787.00,0.0079
786.00,0.0077
785.00,0.0075
784.00,0.0074
783.00,0.0073
782.00,0.0071
781.00,0.0070
780.00,0.0067
779.00,0.0066
778.00,0.0065
777.00,0.0065
776.00,0.0065
775.00,0.0066
774.00,0.0067
773.00,0.0070
772.00,0.0073
771.00,0.0076
770.00,0.0080
769.00,0.0083
768.00,0.0084
767.00,0.0084
766.00,0.0082
765.00,0.0078
764.00,0.0074
763.00,0.0071
762.00,0.0068
761.00,0.0066
760.00,0.0063
759.00,0.0061
758.00,0.0060
757.00,0.0059
756.00,0.0058
755.00,0.0057
754.00,0.0057
753.00,0.0057
752.00,0.0057
751.00,0.0058
750.00,0.0058
749.00,0.0059
748.00,0.0060
747.00,0.0060
746.00,0.0060
745.00,0.0060
744.00,0.0060
743.00,0.0060
742.00,0.0061
741.00,0.0061
740.00,0.0062
739.00,0.0064
738.00,0.0067
737.00,0.0069
736.00,0.0071
735.00,0.0072
734.00,0.0074
733.00,0.0074
732.00,0.0074
731.00,0.0075
730.00,0.0075
729.00,0.0076
728.00,0.0076
727.00,0.0075
726.00,0.0074
725.00,0.0073
724.00,0.0073
723.00,0.0073
722.00,0.0072
721.00,0.0071
720.00,0.0070
719.00,0.0069
718.00,0.0068
717.00,0.0067
716.00,0.0066
715.00,0.0064
714.00,0.0062
713.00,0.0061
712.00,0.0060
711.00,0.0060
710.00,0.0060
709.00,0.0061
708.00,0.0062
707.00,0.0063
706.00,0.0063
705.00,0.0062
704.00,0.0060
703.00,0.0058
702.00,0.0058
701.00,0.0059
700.00,0.0059
699.00,0.0058
698.00,0.0057
697.00,0.0056
696.00,0.0056
695.00,0.0057
694.00,0.0059
693.00,0.0060
692.00,0.0061
691.00,0.0062
690.00,0.0062
689.00,0.0060
688.00,0.0056
687.00,0.0053
686.00,0.0052
685.00,0.0053
684.00,0.0053
683.00,0.0053
682.00,0.0054
681.00,0.0056
680.00,0.0058
679.00,0.0061
678.00,0.0064
677.00,0.0065
676.00,0.0065
675.00,0.0063
674.00,0.0062
673.00,0.0062
672.00,0.0063
671.00,0.0062
670.00,0.0059
669.00,0.0056
668.00,0.0055
667.00,0.0056
666.00,0.0057
665.00,0.0056
664.00,0.0056
663.00,0.0057
662.00,0.0059
661.00,0.0060
660.00,0.0061
659.00,0.0061
658.00,0.0060
657.00,0.0058
656.00,0.0057
655.00,0.0056
654.00,0.0057
653.00,0.0059
652.00,0.0059
651.00,0.0058
650.00,0.0057
649.00,0.0057
648.00,0.0059
647.00,0.0063
646.00,0.0066
645.00,0.0069
644.00,0.0070
643.00,0.0068
642.00,0.0065
641.00,0.0059
640.00,0.0055
639.00,0.0053
638.00,0.0053
637.00,0.0055
636.00,0.0057
635.00,0.0058
634.00,0.0059
633.00,0.0059
632.00,0.0058
631.00,0.0057
630.00,0.0058
629.00,0.0059
628.00,0.0059
627.00,0.0059
626.00,0.0059
625.00,0.0060
624.00,0.0060
623.00,0.0062
622.00,0.0063
621.00,0.0064
620.00,0.0064
619.00,0.0064
618.00,0.0065
617.00,0.0064
616.00,0.0062
615.00,0.0061
614.00,0.0061
613.00,0.0062
612.00,0.0062
611.00,0.0060
610.00,0.0059
609.00,0.0060
608.00,0.0062
607.00,0.0063
606.00,0.0064
605.00,0.0063
604.00,0.0062
603.00,0.0060
602.00,0.0059
601.00,0.0059
600.00,0.0061
599.00,0.0064
598.00,0.0066
597.00,0.0067
596.00,0.0066
595.00,0.0064
594.00,0.0063
593.00,0.0062
592.00,0.0063
591.00,0.0064
590.00,0.0064
589.00,0.0064
588.00,0.0065
587.00,0.0069
586.00,0.0074
585.00,0.0078
584.00,0.0080
583.00,0.0080
582.00,0.0079
581.00,0.0078
580.00,0.0077
579.00,0.0076
578.00,0.0075
577.00,0.0074
576.00,0.0073
575.00,0.0070
574.00,0.0068
573.00,0.0066
572.00,0.0063
571.00,0.0060
570.00,0.0059
569.00,0.0060
568.00,0.0063
567.00,0.0066
566.00,0.0068
565.00,0.0070
564.00,0.0070
563.00,0.0069
562.00,0.0068
561.00,0.0067
560.00,0.0067
559.00,0.0068
558.00,0.0068
557.00,0.0068
556.00,0.0068
555.00,0.0069
554.00,0.0069
553.00,0.0068
552.00,0.0066
551.00,0.0064
550.00,0.0065
549.00,0.0068
548.00,0.0071
547.00,0.0071
546.00,0.0071
545.00,0.0070
544.00,0.0069
543.00,0.0069
542.00,0.0069
541.00,0.0072
540.00,0.0075
539.00,0.0078
538.00,0.0079
537.00,0.0080
536.00,0.0081
535.00,0.0082
534.00,0.0084
533.00,0.0087
532.00,0.0090
531.00,0.0092
530.00,0.0092
529.00,0.0091
528.00,0.0088
527.00,0.0085
526.00,0.0084
525.00,0.0084
524.00,0.0085
523.00,0.0084
522.00,0.0079
521.00,0.0072
520.00,0.0067
519.00,0.0067
518.00,0.0072
517.00,0.0077
516.00,0.0081
515.00,0.0082
514.00,0.0080
513.00,0.0074
512.00,0.0067
511.00,0.0061
510.00,0.0057
509.00,0.0056
508.00,0.0056
507.00,0.0059
506.00,0.0065
505.00,0.0073
504.00,0.0078
503.00,0.0078
502.00,0.0076
501.00,0.0075
500.00,0.0075
499.00,0.0075
498.00,0.0075
497.00,0.0074
496.00,0.0073
495.00,0.0071
494.00,0.0069
493.00,0.0068
492.00,0.0069
491.00,0.0071
490.00,0.0071
489.00,0.0069
488.00,0.0065
487.00,0.0061
486.00,0.0056
485.00,0.0051
484.00,0.0049
483.00,0.0052
482.00,0.0059
481.00,0.0066
480.00,0.0070
479.00,0.0071
478.00,0.0072
477.00,0.0076
476.00,0.0087
475.00,0.0101
474.00,0.0113
473.00,0.0112
472.00,0.0096
471.00,0.0075
470.00,0.0062
469.00,0.0059
468.00,0.0064
467.00,0.0071
466.00,0.0079
465.00,0.0090
464.00,0.0106
463.00,0.0126
462.00,0.0147
461.00,0.0165
460.00,0.0178
459.00,0.0184
458.00,0.0181
457.00,0.0172
456.00,0.0158
455.00,0.0145
454.00,0.0134
453.00,0.0123
452.00,0.0113
451.00,0.0105
450.00,0.0097
