Created as New Dataset,Sample 185 By Administrator Date Tuesday, September 09 2025
cm-1,A
4000.00,0.0003
3999.00,0.0003
3998.00,0.0003
3997.00,0.0003
3996.00,0.0003
3995.00,0.0003
3994.00,0.0003
3993.00,0.0004
3992.00,0.0004
3991.00,0.0004
3990.00,0.0003
3989.00,0.0003
3988.00,0.0002
3987.00,0.0002
3986.00,0.0002
3985.00,0.0002
3984.00,0.0002
3983.00,0.0002
3982.00,0.0003
3981.00,0.0003
3980.00,0.0003
3979.00,0.0003
3978.00,0.0003
3977.00,0.0003
3976.00,0.0004
3975.00,0.0004
3974.00,0.0004
3973.00,0.0003
3972.00,0.0003
3971.00,0.0002
3970.00,0.0002
3969.00,0.0002
3968.00,0.0002
3967.00,0.0002
3966.00,0.0002
3965.00,0.0002
3964.00,0.0002
3963.00,0.0002
3962.00,0.0002
3961.00,0.0002
3960.00,0.0002
3959.00,0.0002
3958.00,0.0002
3957.00,0.0002
3956.00,0.0002
3955.00,0.0002
3954.00,0.0002
3953.00,0.0002
3952.00,0.0002
3951.00,0.0001
3950.00,0.0001
3949.00,0.0001
3948.00,0.0001
3947.00,0.0001
3946.00,0.0001
3945.00,0.0002
3944.00,0.0002
3943.00,0.0002
3942.00,0.0002
3941.00,0.0002
3940.00,0.0002
3939.00,0.0002
3938.00,0.0002
3937.00,0.0002
3936.00,0.0002
3935.00,0.0002
3934.00,0.0002
3933.00,0.0002
3932.00,0.0002
3931.00,0.0002
3930.00,0.0002
3929.00,0.0002
3928.00,0.0002
3927.00,0.0002
3926.00,0.0003
3925.00,0.0003
3924.00,0.0003
3923.00,0.0002
3922.00,0.0002
3921.00,0.0002
3920.00,0.0002
3919.00,0.0002
3918.00,0.0002
3917.00,0.0002
3916.00,0.0002
3915.00,0.0002
3914.00,0.0002
3913.00,0.0002
3912.00,0.0002
3911.00,0.0002
3910.00,0.0002
3909.00,0.0002
3908.00,0.0002
3907.00,0.0001
3906.00,0.0001
3905.00,0.0002
3904.00,0.0002
3903.00,0.0002
3902.00,0.0002
3901.00,0.0002
3900.00,0.0002
3899.00,0.0001
3898.00,0.0002
3897.00,0.0002
3896.00,0.0002
3895.00,0.0002
3894.00,0.0001
3893.00,0.0001
3892.00,0.0001
3891.00,0.0001
3890.00,0.0001
3889.00,0.0002
3888.00,0.0002
3887.00,0.0003
3886.00,0.0003
3885.00,0.0003
3884.00,0.0003
3883.00,0.0003
3882.00,0.0002
3881.00,0.0001
3880.00,0.0001
3879.00,0.0002
3878.00,0.0002
3877.00,0.0002
3876.00,0.0002
3875.00,0.0002
3874.00,0.0002
3873.00,0.0002
3872.00,0.0003
3871.00,0.0003
3870.00,0.0003
3869.00,0.0003
3868.00,0.0002
3867.00,0.0002
3866.00,0.0001
3865.00,0.0002
3864.00,0.0002
3863.00,0.0002
3862.00,0.0002
3861.00,0.0002
3860.00,0.0002
3859.00,0.0002
3858.00,0.0002
3857.00,0.0002
3856.00,0.0002
3855.00,0.0002
3854.00,0.0001
3853.00,0.0001
3852.00,0.0001
3851.00,0.0001
3850.00,0.0001
3849.00,0.0001
3848.00,0.0001
3847.00,0.0002
3846.00,0.0002
3845.00,0.0002
3844.00,0.0003
3843.00,0.0003
3842.00,0.0003
3841.00,0.0003
3840.00,0.0003
3839.00,0.0002
3838.00,0.0002
3837.00,0.0002
3836.00,0.0002
3835.00,0.0003
3834.00,0.0003
3833.00,0.0003
3832.00,0.0002
3831.00,0.0002
3830.00,0.0002
3829.00,0.0002
3828.00,0.0002
3827.00,0.0002
3826.00,0.0002
3825.00,0.0003
3824.00,0.0003
3823.00,0.0003
3822.00,0.0003
3821.00,0.0002
3820.00,0.0002
3819.00,0.0002
3818.00,0.0002
3817.00,0.0002
3816.00,0.0002
3815.00,0.0002
3814.00,0.0002
3813.00,0.0002
3812.00,0.0002
3811.00,0.0002
3810.00,0.0002
3809.00,0.0002
3808.00,0.0002
3807.00,0.0002
3806.00,0.0002
3805.00,0.0002
3804.00,0.0002
3803.00,0.0002
3802.00,0.0003
3801.00,0.0003
3800.00,0.0003
3799.00,0.0003
3798.00,0.0003
3797.00,0.0002
3796.00,0.0002
3795.00,0.0002
3794.00,0.0002
3793.00,0.0002
3792.00,0.0002
3791.00,0.0002
3790.00,0.0002
3789.00,0.0002
3788.00,0.0002
3787.00,0.0002
3786.00,0.0002
3785.00,0.0002
3784.00,0.0002
3783.00,0.0002
3782.00,0.0002
3781.00,0.0002
3780.00,0.0001
3779.00,0.0002
3778.00,0.0002
3777.00,0.0002
3776.00,0.0002
3775.00,0.0002
3774.00,0.0002
3773.00,0.0002
3772.00,0.0001
3771.00,0.0001
3770.00,0.0001
3769.00,0.0002
3768.00,0.0002
3767.00,0.0002
3766.00,0.0002
3765.00,0.0002
3764.00,0.0003
3763.00,0.0003
3762.00,0.0003
3761.00,0.0003
3760.00,0.0003
3759.00,0.0003
3758.00,0.0003
3757.00,0.0003
3756.00,0.0003
3755.00,0.0004
3754.00,0.0004
3753.00,0.0004
3752.00,0.0004
3751.00,0.0004
3750.00,0.0003
3749.00,0.0003
3748.00,0.0002
3747.00,0.0002
3746.00,0.0001
3745.00,0.0001
3744.00,0.0000
3743.00,0.0001
3742.00,0.0001
3741.00,0.0001
3740.00,0.0001
3739.00,0.0001
3738.00,0.0001
3737.00,0.0001
3736.00,0.0001
3735.00,0.0001
3734.00,0.0001
3733.00,0.0001
3732.00,0.0001
3731.00,0.0002
3730.00,0.0002
3729.00,0.0002
3728.00,0.0001
3727.00,0.0001
3726.00,0.0001
3725.00,0.0001
3724.00,0.0002
3723.00,0.0002
3722.00,0.0003
3721.00,0.0002
3720.00,0.0002
3719.00,0.0001
3718.00,0.0001
3717.00,0.0001
3716.00,0.0001
3715.00,0.0002
3714.00,0.0002
3713.00,0.0002
3712.00,0.0001
3711.00,0.0001
3710.00,0.0001
3709.00,0.0001
3708.00,0.0001
3707.00,0.0001
3706.00,0.0001
3705.00,0.0001
3704.00,0.0001
3703.00,0.0001
3702.00,0.0001
3701.00,0.0001
3700.00,0.0001
3699.00,0.0001
3698.00,0.0001
3697.00,0.0001
3696.00,0.0001
3695.00,0.0001
3694.00,0.0001
3693.00,0.0001
3692.00,0.0001
3691.00,0.0002
3690.00,0.0002
3689.00,0.0002
3688.00,0.0002
3687.00,0.0002
3686.00,0.0002
3685.00,0.0002
3684.00,0.0002
3683.00,0.0001
3682.00,0.0001
3681.00,0.0001
3680.00,0.0001
3679.00,0.0001
3678.00,0.0001
3677.00,0.0001
3676.00,0.0001
3675.00,0.0001
3674.00,0.0001
3673.00,0.0001
3672.00,0.0001
3671.00,0.0001
3670.00,0.0001
3669.00,0.0001
3668.00,0.0001
3667.00,0.0000
3666.00,0.0000
3665.00,0.0000
3664.00,0.0000
3663.00,0.0000
3662.00,0.0000
3661.00,0.0000
3660.00,0.0000
3659.00,0.0000
3658.00,0.0001
3657.00,0.0001
3656.00,0.0001
3655.00,0.0001
3654.00,0.0000
3653.00,-0.0000
3652.00,-0.0000
3651.00,0.0000
3650.00,0.0001
3649.00,0.0002
3648.00,0.0002
3647.00,0.0002
3646.00,0.0001
3645.00,0.0001
3644.00,0.0001
3643.00,0.0001
3642.00,0.0001
3641.00,0.0001
3640.00,0.0002
3639.00,0.0002
3638.00,0.0002
3637.00,0.0002
3636.00,0.0002
3635.00,0.0001
3634.00,0.0002
3633.00,0.0002
3632.00,0.0002
3631.00,0.0003
3630.00,0.0003
3629.00,0.0003
3628.00,0.0002
3627.00,0.0002
3626.00,0.0002
3625.00,0.0001
3624.00,0.0001
3623.00,0.0001
3622.00,0.0002
3621.00,0.0002
3620.00,0.0003
3619.00,0.0003
3618.00,0.0003
3617.00,0.0003
3616.00,0.0003
3615.00,0.0003
3614.00,0.0003
3613.00,0.0002
3612.00,0.0002
3611.00,0.0002
3610.00,0.0002
3609.00,0.0002
3608.00,0.0002
3607.00,0.0003
3606.00,0.0003
3605.00,0.0003
3604.00,0.0004
3603.00,0.0004
3602.00,0.0004
3601.00,0.0004
3600.00,0.0004
3599.00,0.0004
3598.00,0.0004
3597.00,0.0004
3596.00,0.0004
3595.00,0.0005
3594.00,0.0005
3593.00,0.0005
3592.00,0.0005
3591.00,0.0005
3590.00,0.0005
3589.00,0.0005
3588.00,0.0005
3587.00,0.0005
3586.00,0.0005
3585.00,0.0005
3584.00,0.0005
3583.00,0.0005
3582.00,0.0005
3581.00,0.0005
3580.00,0.0006
3579.00,0.0006
3578.00,0.0007
3577.00,0.0007
3576.00,0.0007
3575.00,0.0008
3574.00,0.0008
3573.00,0.0008
3572.00,0.0008
3571.00,0.0008
3570.00,0.0007
3569.00,0.0007
3568.00,0.0007
3567.00,0.0007
3566.00,0.0007
3565.00,0.0008
3564.00,0.0008
3563.00,0.0008
3562.00,0.0009
3561.00,0.0009
3560.00,0.0009
3559.00,0.0010
3558.00,0.0010
3557.00,0.0010
3556.00,0.0010
3555.00,0.0010
3554.00,0.0010
3553.00,0.0011
3552.00,0.0011
3551.00,0.0011
3550.00,0.0011
3549.00,0.0011
3548.00,0.0012
3547.00,0.0012
3546.00,0.0012
3545.00,0.0012
3544.00,0.0012
3543.00,0.0013
3542.00,0.0013
3541.00,0.0013
3540.00,0.0013
3539.00,0.0013
3538.00,0.0014
3537.00,0.0014
3536.00,0.0014
3535.00,0.0014
3534.00,0.0014
3533.00,0.0014
3532.00,0.0015
3531.00,0.0015
3530.00,0.0015
3529.00,0.0015
3528.00,0.0015
3527.00,0.0015
3526.00,0.0015
3525.00,0.0016
3524.00,0.0016
3523.00,0.0016
3522.00,0.0016
3521.00,0.0016
3520.00,0.0015
3519.00,0.0015
3518.00,0.0015
3517.00,0.0016
3516.00,0.0016
3515.00,0.0017
3514.00,0.0017
3513.00,0.0018
3512.00,0.0018
3511.00,0.0019
3510.00,0.0019
3509.00,0.0019
3508.00,0.0019
3507.00,0.0019
3506.00,0.0019
3505.00,0.0019
3504.00,0.0019
3503.00,0.0019
3502.00,0.0019
3501.00,0.0019
3500.00,0.0020
3499.00,0.0020
3498.00,0.0021
3497.00,0.0021
3496.00,0.0021
3495.00,0.0022
3494.00,0.0022
3493.00,0.0022
3492.00,0.0022
3491.00,0.0022
3490.00,0.0022
3489.00,0.0022
3488.00,0.0022
3487.00,0.0022
3486.00,0.0022
3485.00,0.0023
3484.00,0.0023
3483.00,0.0024
3482.00,0.0024
3481.00,0.0024
3480.00,0.0024
3479.00,0.0024
3478.00,0.0024
3477.00,0.0024
3476.00,0.0025
3475.00,0.0025
3474.00,0.0025
3473.00,0.0025
3472.00,0.0026
3471.00,0.0026
3470.00,0.0026
3469.00,0.0026
3468.00,0.0026
3467.00,0.0026
3466.00,0.0026
3465.00,0.0026
3464.00,0.0025
3463.00,0.0026
3462.00,0.0026
3461.00,0.0027
3460.00,0.0027
3459.00,0.0027
3458.00,0.0027
3457.00,0.0027
3456.00,0.0027
3455.00,0.0028
3454.00,0.0028
3453.00,0.0028
3452.00,0.0029
3451.00,0.0029
3450.00,0.0029
3449.00,0.0030
3448.00,0.0030
3447.00,0.0030
3446.00,0.0030
3445.00,0.0030
3444.00,0.0030
3443.00,0.0030
3442.00,0.0031
3441.00,0.0031
3440.00,0.0032
3439.00,0.0032
3438.00,0.0032
3437.00,0.0032
3436.00,0.0032
3435.00,0.0032
3434.00,0.0032
3433.00,0.0032
3432.00,0.0033
3431.00,0.0033
3430.00,0.0033
3429.00,0.0033
3428.00,0.0034
3427.00,0.0034
3426.00,0.0034
3425.00,0.0034
3424.00,0.0034
3423.00,0.0034
3422.00,0.0034
3421.00,0.0035
3420.00,0.0035
3419.00,0.0035
3418.00,0.0035
3417.00,0.0036
3416.00,0.0036
3415.00,0.0036
3414.00,0.0036
3413.00,0.0036
3412.00,0.0037
3411.00,0.0037
3410.00,0.0037
3409.00,0.0037
3408.00,0.0037
3407.00,0.0037
3406.00,0.0037
3405.00,0.0037
3404.00,0.0038
3403.00,0.0038
3402.00,0.0038
3401.00,0.0038
3400.00,0.0038
3399.00,0.0038
3398.00,0.0038
3397.00,0.0038
3396.00,0.0038
3395.00,0.0037
3394.00,0.0037
3393.00,0.0037
3392.00,0.0037
3391.00,0.0038
3390.00,0.0038
3389.00,0.0038
3388.00,0.0038
3387.00,0.0038
3386.00,0.0038
3385.00,0.0038
3384.00,0.0039
3383.00,0.0039
3382.00,0.0039
3381.00,0.0039
3380.00,0.0039
3379.00,0.0039
3378.00,0.0039
3377.00,0.0039
3376.00,0.0039
3375.00,0.0039
3374.00,0.0040
3373.00,0.0040
3372.00,0.0040
3371.00,0.0040
3370.00,0.0040
3369.00,0.0040
3368.00,0.0040
3367.00,0.0040
3366.00,0.0040
3365.00,0.0040
3364.00,0.0040
3363.00,0.0040
3362.00,0.0040
3361.00,0.0040
3360.00,0.0040
3359.00,0.0040
3358.00,0.0041
3357.00,0.0041
3356.00,0.0041
3355.00,0.0042
3354.00,0.0041
3353.00,0.0041
3352.00,0.0041
3351.00,0.0041
3350.00,0.0041
3349.00,0.0041
3348.00,0.0041
3347.00,0.0041
3346.00,0.0041
3345.00,0.0041
3344.00,0.0041
3343.00,0.0041
3342.00,0.0041
3341.00,0.0041
3340.00,0.0041
3339.00,0.0041
3338.00,0.0041
3337.00,0.0041
3336.00,0.0041
3335.00,0.0041
3334.00,0.0041
3333.00,0.0041
3332.00,0.0041
3331.00,0.0041
3330.00,0.0041
3329.00,0.0041
3328.00,0.0041
3327.00,0.0041
3326.00,0.0040
3325.00,0.0040
3324.00,0.0039
3323.00,0.0039
3322.00,0.0039
3321.00,0.0038
3320.00,0.0038
3319.00,0.0038
3318.00,0.0038
3317.00,0.0039
3316.00,0.0039
3315.00,0.0040
3314.00,0.0040
3313.00,0.0040
3312.00,0.0039
3311.00,0.0039
3310.00,0.0039
3309.00,0.0039
3308.00,0.0039
3307.00,0.0039
3306.00,0.0039
3305.00,0.0039
3304.00,0.0038
3303.00,0.0039
3302.00,0.0039
3301.00,0.0039
3300.00,0.0039
3299.00,0.0039
3298.00,0.0039
3297.00,0.0039
3296.00,0.0039
3295.00,0.0039
3294.00,0.0039
3293.00,0.0039
3292.00,0.0039
3291.00,0.0039
3290.00,0.0039
3289.00,0.0039
3288.00,0.0038
3287.00,0.0038
3286.00,0.0038
3285.00,0.0037
3284.00,0.0037
3283.00,0.0038
3282.00,0.0037
3281.00,0.0037
3280.00,0.0037
3279.00,0.0037
3278.00,0.0037
3277.00,0.0037
3276.00,0.0037
3275.00,0.0037
3274.00,0.0037
3273.00,0.0037
3272.00,0.0036
3271.00,0.0036
3270.00,0.0036
3269.00,0.0036
3268.00,0.0037
3267.00,0.0036
3266.00,0.0036
3265.00,0.0036
3264.00,0.0035
3263.00,0.0034
3262.00,0.0034
3261.00,0.0034
3260.00,0.0034
3259.00,0.0035
3258.00,0.0035
3257.00,0.0034
3256.00,0.0034
3255.00,0.0034
3254.00,0.0033
3253.00,0.0033
3252.00,0.0033
3251.00,0.0033
3250.00,0.0033
3249.00,0.0033
3248.00,0.0034
3247.00,0.0034
3246.00,0.0033
3245.00,0.0033
3244.00,0.0033
3243.00,0.0033
3242.00,0.0033
3241.00,0.0033
3240.00,0.0033
3239.00,0.0033
3238.00,0.0033
3237.00,0.0033
3236.00,0.0033
3235.00,0.0033
3234.00,0.0034
3233.00,0.0034
3232.00,0.0034
3231.00,0.0034
3230.00,0.0034
3229.00,0.0035
3228.00,0.0035
3227.00,0.0035
3226.00,0.0036
3225.00,0.0036
3224.00,0.0035
3223.00,0.0035
3222.00,0.0035
3221.00,0.0035
3220.00,0.0036
3219.00,0.0036
3218.00,0.0037
3217.00,0.0037
3216.00,0.0037
3215.00,0.0037
3214.00,0.0037
3213.00,0.0037
3212.00,0.0037
3211.00,0.0037
3210.00,0.0037
3209.00,0.0037
3208.00,0.0038
3207.00,0.0038
3206.00,0.0038
3205.00,0.0039
3204.00,0.0039
3203.00,0.0039
3202.00,0.0039
3201.00,0.0039
3200.00,0.0039
3199.00,0.0039
3198.00,0.0039
3197.00,0.0039
3196.00,0.0038
3195.00,0.0038
3194.00,0.0038
3193.00,0.0038
3192.00,0.0038
3191.00,0.0038
3190.00,0.0038
3189.00,0.0038
3188.00,0.0038
3187.00,0.0038
3186.00,0.0038
3185.00,0.0038
3184.00,0.0037
3183.00,0.0037
3182.00,0.0037
3181.00,0.0037
3180.00,0.0036
3179.00,0.0036
3178.00,0.0036
3177.00,0.0036
3176.00,0.0036
3175.00,0.0035
3174.00,0.0035
3173.00,0.0034
3172.00,0.0034
3171.00,0.0034
3170.00,0.0034
3169.00,0.0034
3168.00,0.0034
3167.00,0.0034
3166.00,0.0034
3165.00,0.0034
3164.00,0.0034
3163.00,0.0034
3162.00,0.0033
3161.00,0.0033
3160.00,0.0033
3159.00,0.0033
3158.00,0.0033
3157.00,0.0033
3156.00,0.0033
3155.00,0.0033
3154.00,0.0033
3153.00,0.0033
3152.00,0.0033
3151.00,0.0033
3150.00,0.0033
3149.00,0.0033
3148.00,0.0033
3147.00,0.0033
3146.00,0.0033
3145.00,0.0033
3144.00,0.0033
3143.00,0.0033
3142.00,0.0033
3141.00,0.0033
3140.00,0.0033
3139.00,0.0032
3138.00,0.0032
3137.00,0.0032
3136.00,0.0032
3135.00,0.0031
3134.00,0.0031
3133.00,0.0030
3132.00,0.0030
3131.00,0.0030
3130.00,0.0030
3129.00,0.0030
3128.00,0.0030
3127.00,0.0030
3126.00,0.0029
3125.00,0.0029
3124.00,0.0029
3123.00,0.0029
3122.00,0.0029
3121.00,0.0029
3120.00,0.0028
3119.00,0.0028
3118.00,0.0028
3117.00,0.0028
3116.00,0.0028
3115.00,0.0027
3114.00,0.0027
3113.00,0.0027
3112.00,0.0027
3111.00,0.0026
3110.00,0.0026
3109.00,0.0026
3108.00,0.0026
3107.00,0.0025
3106.00,0.0025
3105.00,0.0025
3104.00,0.0024
3103.00,0.0024
3102.00,0.0024
3101.00,0.0025
3100.00,0.0025
3099.00,0.0025
3098.00,0.0025
3097.00,0.0025
3096.00,0.0025
3095.00,0.0026
3094.00,0.0025
3093.00,0.0025
3092.00,0.0024
3091.00,0.0023
3090.00,0.0022
3089.00,0.0022
3088.00,0.0022
3087.00,0.0022
3086.00,0.0022
3085.00,0.0023
3084.00,0.0023
3083.00,0.0023
3082.00,0.0023
3081.00,0.0023
3080.00,0.0023
3079.00,0.0023
3078.00,0.0022
3077.00,0.0022
3076.00,0.0023
3075.00,0.0023
3074.00,0.0023
3073.00,0.0023
3072.00,0.0024
3071.00,0.0024
3070.00,0.0024
3069.00,0.0024
3068.00,0.0024
3067.00,0.0024
3066.00,0.0024
3065.00,0.0024
3064.00,0.0025
3063.00,0.0025
3062.00,0.0026
3061.00,0.0026
3060.00,0.0025
3059.00,0.0025
3058.00,0.0025
3057.00,0.0025
3056.00,0.0026
3055.00,0.0026
3054.00,0.0027
3053.00,0.0027
3052.00,0.0027
3051.00,0.0027
3050.00,0.0027
3049.00,0.0028
3048.00,0.0028
3047.00,0.0027
3046.00,0.0027
3045.00,0.0027
3044.00,0.0028
3043.00,0.0028
3042.00,0.0029
3041.00,0.0029
3040.00,0.0029
3039.00,0.0029
3038.00,0.0030
3037.00,0.0030
3036.00,0.0030
3035.00,0.0030
3034.00,0.0030
3033.00,0.0030
3032.00,0.0031
3031.00,0.0032
3030.00,0.0032
3029.00,0.0033
3028.00,0.0033
3027.00,0.0034
3026.00,0.0034
3025.00,0.0035
3024.00,0.0035
3023.00,0.0036
3022.00,0.0037
3021.00,0.0037
3020.00,0.0038
3019.00,0.0039
3018.00,0.0040
3017.00,0.0041
3016.00,0.0042
3015.00,0.0043
3014.00,0.0045
3013.00,0.0046
3012.00,0.0047
3011.00,0.0049
3010.00,0.0050
3009.00,0.0051
3008.00,0.0053
3007.00,0.0054
3006.00,0.0055
3005.00,0.0057
3004.00,0.0059
3003.00,0.0061
3002.00,0.0064
3001.00,0.0067
3000.00,0.0069
2999.00,0.0072
2998.00,0.0075
2997.00,0.0079
2996.00,0.0083
2995.00,0.0087
2994.00,0.0092
2993.00,0.0097
2992.00,0.0102
2991.00,0.0108
2990.00,0.0115
2989.00,0.0122
2988.00,0.0130
2987.00,0.0139
2986.00,0.0149
2985.00,0.0161
2984.00,0.0174
2983.00,0.0189
2982.00,0.0205
2981.00,0.0223
2980.00,0.0244
2979.00,0.0267
2978.00,0.0294
2977.00,0.0325
2976.00,0.0360
2975.00,0.0400
2974.00,0.0446
2973.00,0.0498
2972.00,0.0557
2971.00,0.0624
2970.00,0.0699
2969.00,0.0782
2968.00,0.0874
2967.00,0.0975
2966.00,0.1085
2965.00,0.1201
2964.00,0.1320
2963.00,0.1438
2962.00,0.1549
2961.00,0.1645
2960.00,0.1723
2959.00,0.1780
2958.00,0.1818
2957.00,0.1842
2956.00,0.1858
2955.00,0.1873
2954.00,0.1891
2953.00,0.1910
2952.00,0.1925
2951.00,0.1929
2950.00,0.1911
2949.00,0.1865
2948.00,0.1789
2947.00,0.1685
2946.00,0.1563
2945.00,0.1432
2944.00,0.1307
2943.00,0.1196
2942.00,0.1106
2941.00,0.1039
2940.00,0.0996
2939.00,0.0974
2938.00,0.0972
2937.00,0.0987
2936.00,0.1017
2935.00,0.1060
2934.00,0.1116
2933.00,0.1182
2932.00,0.1258
2931.00,0.1341
2930.00,0.1429
2929.00,0.1518
2928.00,0.1606
2927.00,0.1689
2926.00,0.1767
2925.00,0.1840
2924.00,0.1908
2923.00,0.1974
2922.00,0.2037
2921.00,0.2097
2920.00,0.2150
2919.00,0.2191
2918.00,0.2213
2917.00,0.2215
2916.00,0.2194
2915.00,0.2154
2914.00,0.2100
2913.00,0.2040
2912.00,0.1978
2911.00,0.1920
2910.00,0.1868
2909.00,0.1819
2908.00,0.1773
2907.00,0.1727
2906.00,0.1677
2905.00,0.1623
2904.00,0.1563
2903.00,0.1501
2902.00,0.1436
2901.00,0.1370
2900.00,0.1305
2899.00,0.1243
2898.00,0.1186
2897.00,0.1134
2896.00,0.1088
2895.00,0.1049
2894.00,0.1018
2893.00,0.0993
2892.00,0.0974
2891.00,0.0962
2890.00,0.0955
2889.00,0.0952
2888.00,0.0954
2887.00,0.0958
2886.00,0.0966
2885.00,0.0976
2884.00,0.0990
2883.00,0.1006
2882.00,0.1025
2881.00,0.1045
2880.00,0.1064
2879.00,0.1077
2878.00,0.1084
2877.00,0.1084
2876.00,0.1077
2875.00,0.1068
2874.00,0.1061
2873.00,0.1060
2872.00,0.1066
2871.00,0.1079
2870.00,0.1097
2869.00,0.1114
2868.00,0.1125
2867.00,0.1121
2866.00,0.1096
2865.00,0.1049
2864.00,0.0981
2863.00,0.0901
2862.00,0.0818
2861.00,0.0740
2860.00,0.0672
2859.00,0.0618
2858.00,0.0577
2857.00,0.0547
2856.00,0.0527
2855.00,0.0515
2854.00,0.0510
2853.00,0.0511
2852.00,0.0517
2851.00,0.0530
2850.00,0.0552
2849.00,0.0582
2848.00,0.0622
2847.00,0.0672
2846.00,0.0732
2845.00,0.0801
2844.00,0.0876
2843.00,0.0956
2842.00,0.1036
2841.00,0.1110
2840.00,0.1168
2839.00,0.1204
2838.00,0.1209
2837.00,0.1178
2836.00,0.1115
2835.00,0.1024
2834.00,0.0918
2833.00,0.0809
2832.00,0.0706
2831.00,0.0614
2830.00,0.0538
2829.00,0.0475
2828.00,0.0424
2827.00,0.0383
2826.00,0.0350
2825.00,0.0322
2824.00,0.0299
2823.00,0.0280
2822.00,0.0263
2821.00,0.0249
2820.00,0.0236
2819.00,0.0225
2818.00,0.0215
2817.00,0.0206
2816.00,0.0199
2815.00,0.0192
2814.00,0.0186
2813.00,0.0181
2812.00,0.0176
2811.00,0.0171
2810.00,0.0166
2809.00,0.0161
2808.00,0.0156
2807.00,0.0150
2806.00,0.0144
2805.00,0.0138
2804.00,0.0132
2803.00,0.0126
2802.00,0.0121
2801.00,0.0117
2800.00,0.0114
2799.00,0.0111
2798.00,0.0109
2797.00,0.0107
2796.00,0.0105
2795.00,0.0102
2794.00,0.0100
2793.00,0.0097
2792.00,0.0093
2791.00,0.0090
2790.00,0.0087
2789.00,0.0083
2788.00,0.0080
2787.00,0.0077
2786.00,0.0074
2785.00,0.0071
2784.00,0.0069
2783.00,0.0066
2782.00,0.0064
2781.00,0.0062
2780.00,0.0060
2779.00,0.0058
2778.00,0.0057
2777.00,0.0056
2776.00,0.0055
2775.00,0.0054
2774.00,0.0052
2773.00,0.0052
2772.00,0.0051
2771.00,0.0050
2770.00,0.0050
2769.00,0.0050
2768.00,0.0050
2767.00,0.0050
2766.00,0.0049
2765.00,0.0049
2764.00,0.0048
2763.00,0.0048
2762.00,0.0047
2761.00,0.0047
2760.00,0.0046
2759.00,0.0046
2758.00,0.0046
2757.00,0.0046
2756.00,0.0046
2755.00,0.0046
2754.00,0.0046
2753.00,0.0046
2752.00,0.0046
2751.00,0.0045
2750.00,0.0045
2749.00,0.0045
2748.00,0.0045
2747.00,0.0045
2746.00,0.0046
2745.00,0.0047
2744.00,0.0047
2743.00,0.0048
2742.00,0.0050
2741.00,0.0051
2740.00,0.0052
2739.00,0.0053
2738.00,0.0055
2737.00,0.0056
2736.00,0.0058
2735.00,0.0059
2734.00,0.0060
2733.00,0.0062
2732.00,0.0063
2731.00,0.0065
2730.00,0.0066
2729.00,0.0069
2728.00,0.0071
2727.00,0.0074
2726.00,0.0077
2725.00,0.0079
2724.00,0.0080
2723.00,0.0081
2722.00,0.0080
2721.00,0.0078
2720.00,0.0076
2719.00,0.0073
2718.00,0.0070
2717.00,0.0067
2716.00,0.0064
2715.00,0.0061
2714.00,0.0059
2713.00,0.0057
2712.00,0.0055
2711.00,0.0054
2710.00,0.0052
2709.00,0.0051
2708.00,0.0049
2707.00,0.0048
2706.00,0.0047
2705.00,0.0046
2704.00,0.0045
2703.00,0.0044
2702.00,0.0043
2701.00,0.0043
2700.00,0.0042
2699.00,0.0041
2698.00,0.0041
2697.00,0.0040
2696.00,0.0040
2695.00,0.0040
2694.00,0.0040
2693.00,0.0040
2692.00,0.0040
2691.00,0.0040
2690.00,0.0040
2689.00,0.0040
2688.00,0.0041
2687.00,0.0041
2686.00,0.0041
2685.00,0.0041
2684.00,0.0041
2683.00,0.0041
2682.00,0.0041
2681.00,0.0041
2680.00,0.0041
2679.00,0.0041
2678.00,0.0041
2677.00,0.0041
2676.00,0.0041
2675.00,0.0041
2674.00,0.0041
2673.00,0.0040
2672.00,0.0040
2671.00,0.0040
2670.00,0.0040
2669.00,0.0040
2668.00,0.0040
2667.00,0.0040
2666.00,0.0040
2665.00,0.0040
2664.00,0.0041
2663.00,0.0042
2662.00,0.0042
2661.00,0.0043
2660.00,0.0043
2659.00,0.0043
2658.00,0.0043
2657.00,0.0042
2656.00,0.0042
2655.00,0.0041
2654.00,0.0041
2653.00,0.0041
2652.00,0.0040
2651.00,0.0040
2650.00,0.0039
2649.00,0.0039
2648.00,0.0039
2647.00,0.0039
2646.00,0.0038
2645.00,0.0038
2644.00,0.0038
2643.00,0.0037
2642.00,0.0037
2641.00,0.0036
2640.00,0.0035
2639.00,0.0035
2638.00,0.0034
2637.00,0.0034
2636.00,0.0033
2635.00,0.0033
2634.00,0.0033
2633.00,0.0033
2632.00,0.0034
2631.00,0.0035
2630.00,0.0035
2629.00,0.0035
2628.00,0.0035
2627.00,0.0035
2626.00,0.0035
2625.00,0.0035
2624.00,0.0035
2623.00,0.0035
2622.00,0.0035
2621.00,0.0036
2620.00,0.0036
2619.00,0.0036
2618.00,0.0037
2617.00,0.0037
2616.00,0.0036
2615.00,0.0036
2614.00,0.0035
2613.00,0.0034
2612.00,0.0034
2611.00,0.0034
2610.00,0.0033
2609.00,0.0033
2608.00,0.0032
2607.00,0.0031
2606.00,0.0030
2605.00,0.0030
2604.00,0.0030
2603.00,0.0029
2602.00,0.0028
2601.00,0.0028
2600.00,0.0028
2599.00,0.0028
2598.00,0.0027
2597.00,0.0027
2596.00,0.0027
2595.00,0.0027
2594.00,0.0028
2593.00,0.0029
2592.00,0.0029
2591.00,0.0029
2590.00,0.0029
2589.00,0.0030
2588.00,0.0031
2587.00,0.0032
2586.00,0.0033
2585.00,0.0034
2584.00,0.0034
2583.00,0.0034
2582.00,0.0034
2581.00,0.0034
2580.00,0.0034
2579.00,0.0034
2578.00,0.0033
2577.00,0.0031
2576.00,0.0030
2575.00,0.0029
2574.00,0.0028
2573.00,0.0027
2572.00,0.0026
2571.00,0.0025
2570.00,0.0024
2569.00,0.0023
2568.00,0.0022
2567.00,0.0021
2566.00,0.0021
2565.00,0.0021
2564.00,0.0021
2563.00,0.0021
2562.00,0.0021
2561.00,0.0021
2560.00,0.0021
2559.00,0.0021
2558.00,0.0021
2557.00,0.0021
2556.00,0.0020
2555.00,0.0019
2554.00,0.0018
2553.00,0.0018
2552.00,0.0018
2551.00,0.0018
2550.00,0.0018
2549.00,0.0017
2548.00,0.0017
2547.00,0.0016
2546.00,0.0016
2545.00,0.0016
2544.00,0.0015
2543.00,0.0016
2542.00,0.0016
2541.00,0.0016
2540.00,0.0015
2539.00,0.0015
2538.00,0.0015
2537.00,0.0015
2536.00,0.0015
2535.00,0.0015
2534.00,0.0015
2533.00,0.0014
2532.00,0.0013
2531.00,0.0012
2530.00,0.0011
2529.00,0.0010
2528.00,0.0010
2527.00,0.0010
2526.00,0.0010
2525.00,0.0010
2524.00,0.0009
2523.00,0.0009
2522.00,0.0009
2521.00,0.0008
2520.00,0.0009
2519.00,0.0009
2518.00,0.0009
2517.00,0.0009
2516.00,0.0009
2515.00,0.0008
2514.00,0.0008
2513.00,0.0008
2512.00,0.0008
2511.00,0.0008
2510.00,0.0008
2509.00,0.0007
2508.00,0.0007
2507.00,0.0007
2506.00,0.0006
2505.00,0.0006
2504.00,0.0007
2503.00,0.0007
2502.00,0.0007
2501.00,0.0007
2500.00,0.0007
2499.00,0.0007
2498.00,0.0007
2497.00,0.0008
2496.00,0.0008
2495.00,0.0008
2494.00,0.0009
2493.00,0.0009
2492.00,0.0009
2491.00,0.0009
2490.00,0.0009
2489.00,0.0008
2488.00,0.0008
2487.00,0.0008
2486.00,0.0008
2485.00,0.0008
2484.00,0.0008
2483.00,0.0007
2482.00,0.0007
2481.00,0.0007
2480.00,0.0007
2479.00,0.0007
2478.00,0.0008
2477.00,0.0008
2476.00,0.0008
2475.00,0.0007
2474.00,0.0007
2473.00,0.0007
2472.00,0.0006
2471.00,0.0006
2470.00,0.0006
2469.00,0.0006
2468.00,0.0006
2467.00,0.0006
2466.00,0.0006
2465.00,0.0006
2464.00,0.0006
2463.00,0.0007
2462.00,0.0007
2461.00,0.0007
2460.00,0.0007
2459.00,0.0007
2458.00,0.0008
2457.00,0.0008
2456.00,0.0008
2455.00,0.0008
2454.00,0.0007
2453.00,0.0007
2452.00,0.0008
2451.00,0.0008
2450.00,0.0009
2449.00,0.0009
2448.00,0.0008
2447.00,0.0008
2446.00,0.0008
2445.00,0.0007
2444.00,0.0007
2443.00,0.0007
2442.00,0.0007
2441.00,0.0008
2440.00,0.0009
2439.00,0.0009
2438.00,0.0010
2437.00,0.0009
2436.00,0.0009
2435.00,0.0009
2434.00,0.0009
2433.00,0.0010
2432.00,0.0011
2431.00,0.0011
2430.00,0.0010
2429.00,0.0010
2428.00,0.0009
2427.00,0.0009
2426.00,0.0009
2425.00,0.0009
2424.00,0.0009
2423.00,0.0008
2422.00,0.0008
2421.00,0.0008
2420.00,0.0008
2419.00,0.0008
2418.00,0.0007
2417.00,0.0007
2416.00,0.0007
2415.00,0.0007
2414.00,0.0007
2413.00,0.0008
2412.00,0.0008
2411.00,0.0008
2410.00,0.0008
2409.00,0.0008
2408.00,0.0007
2407.00,0.0006
2406.00,0.0006
2405.00,0.0006
2404.00,0.0006
2403.00,0.0007
2402.00,0.0008
2401.00,0.0008
2400.00,0.0008
2399.00,0.0008
2398.00,0.0008
2397.00,0.0008
2396.00,0.0007
2395.00,0.0007
2394.00,0.0007
2393.00,0.0008
2392.00,0.0008
2391.00,0.0008
2390.00,0.0008
2389.00,0.0008
2388.00,0.0008
2387.00,0.0007
2386.00,0.0006
2385.00,0.0005
2384.00,0.0004
2383.00,0.0004
2382.00,0.0003
2381.00,0.0003
2380.00,0.0002
2379.00,0.0002
2378.00,0.0001
2377.00,0.0001
2376.00,0.0001
2375.00,0.0001
2374.00,0.0002
2373.00,0.0002
2372.00,0.0002
2371.00,0.0001
2370.00,0.0000
2369.00,-0.0000
2368.00,-0.0001
2367.00,-0.0001
2366.00,-0.0001
2365.00,-0.0000
2364.00,0.0001
2363.00,0.0002
2362.00,0.0002
2361.00,0.0001
2360.00,0.0000
2359.00,-0.0000
2358.00,-0.0001
2357.00,-0.0000
2356.00,0.0001
2355.00,0.0002
2354.00,0.0003
2353.00,0.0004
2352.00,0.0004
2351.00,0.0004
2350.00,0.0003
2349.00,0.0002
2348.00,0.0002
2347.00,0.0002
2346.00,0.0002
2345.00,0.0003
2344.00,0.0003
2343.00,0.0003
2342.00,0.0002
2341.00,0.0002
2340.00,0.0003
2339.00,0.0004
2338.00,0.0005
2337.00,0.0005
2336.00,0.0005
2335.00,0.0005
2334.00,0.0005
2333.00,0.0004
2332.00,0.0004
2331.00,0.0004
2330.00,0.0004
2329.00,0.0004
2328.00,0.0006
2327.00,0.0010
2326.00,0.0014
2325.00,0.0018
2324.00,0.0020
2323.00,0.0019
2322.00,0.0016
2321.00,0.0014
2320.00,0.0012
2319.00,0.0011
2318.00,0.0010
2317.00,0.0009
2316.00,0.0009
2315.00,0.0009
2314.00,0.0008
2313.00,0.0008
2312.00,0.0007
2311.00,0.0007
2310.00,0.0007
2309.00,0.0008
2308.00,0.0008
2307.00,0.0008
2306.00,0.0009
2305.00,0.0009
2304.00,0.0009
2303.00,0.0008
2302.00,0.0008
2301.00,0.0007
2300.00,0.0008
2299.00,0.0009
2298.00,0.0010
2297.00,0.0011
2296.00,0.0011
2295.00,0.0012
2294.00,0.0012
2293.00,0.0013
2292.00,0.0013
2291.00,0.0013
2290.00,0.0013
2289.00,0.0013
2288.00,0.0015
2287.00,0.0016
2286.00,0.0016
2285.00,0.0016
2284.00,0.0014
2283.00,0.0013
2282.00,0.0012
2281.00,0.0012
2280.00,0.0012
2279.00,0.0012
2278.00,0.0011
2277.00,0.0012
2276.00,0.0012
2275.00,0.0013
2274.00,0.0013
2273.00,0.0012
2272.00,0.0012
2271.00,0.0011
2270.00,0.0010
2269.00,0.0010
2268.00,0.0010
2267.00,0.0009
2266.00,0.0009
2265.00,0.0009
2264.00,0.0010
2263.00,0.0011
2262.00,0.0011
2261.00,0.0011
2260.00,0.0010
2259.00,0.0010
2258.00,0.0010
2257.00,0.0010
2256.00,0.0009
2255.00,0.0008
2254.00,0.0007
2253.00,0.0006
2252.00,0.0005
2251.00,0.0004
2250.00,0.0003
2249.00,0.0004
2248.00,0.0006
2247.00,0.0008
2246.00,0.0008
2245.00,0.0008
2244.00,0.0008
2243.00,0.0008
2242.00,0.0008
2241.00,0.0008
2240.00,0.0008
2239.00,0.0007
2238.00,0.0007
2237.00,0.0006
2236.00,0.0005
2235.00,0.0004
2234.00,0.0003
2233.00,0.0002
2232.00,0.0002
2231.00,0.0002
2230.00,0.0003
2229.00,0.0004
2228.00,0.0004
2227.00,0.0004
2226.00,0.0004
2225.00,0.0004
2224.00,0.0005
2223.00,0.0006
2222.00,0.0007
2221.00,0.0007
2220.00,0.0007
2219.00,0.0006
2218.00,0.0005
2217.00,0.0005
2216.00,0.0005
2215.00,0.0004
2214.00,0.0004
2213.00,0.0004
2212.00,0.0003
2211.00,0.0003
2210.00,0.0002
2209.00,0.0003
2208.00,0.0004
2207.00,0.0004
2206.00,0.0005
2205.00,0.0006
2204.00,0.0006
2203.00,0.0006
2202.00,0.0006
2201.00,0.0005
2200.00,0.0006
2199.00,0.0006
2198.00,0.0006
2197.00,0.0007
2196.00,0.0008
2195.00,0.0009
2194.00,0.0011
2193.00,0.0013
2192.00,0.0013
2191.00,0.0013
2190.00,0.0011
2189.00,0.0010
2188.00,0.0010
2187.00,0.0009
2186.00,0.0008
2185.00,0.0006
2184.00,0.0003
2183.00,-0.0001
2182.00,-0.0003
2181.00,-0.0004
2180.00,-0.0004
2179.00,-0.0002
2178.00,-0.0000
2177.00,0.0001
2176.00,0.0002
2175.00,0.0002
2174.00,0.0002
2173.00,0.0003
2172.00,0.0003
2171.00,0.0005
2170.00,0.0007
2169.00,0.0010
2168.00,0.0012
2167.00,0.0013
2166.00,0.0012
2165.00,0.0012
2164.00,0.0013
2163.00,0.0016
2162.00,0.0017
2161.00,0.0013
2160.00,0.0002
2159.00,-0.0012
2158.00,-0.0023
2157.00,-0.0025
2156.00,-0.0021
2155.00,-0.0017
2154.00,-0.0015
2153.00,-0.0014
2152.00,-0.0013
2151.00,-0.0013
2150.00,-0.0015
2149.00,-0.0017
2148.00,-0.0019
2147.00,-0.0019
2146.00,-0.0018
2145.00,-0.0016
2144.00,-0.0016
2143.00,-0.0017
2142.00,-0.0017
2141.00,-0.0017
2140.00,-0.0015
2139.00,-0.0013
2138.00,-0.0013
2137.00,-0.0014
2136.00,-0.0016
2135.00,-0.0019
2134.00,-0.0020
2133.00,-0.0019
2132.00,-0.0017
2131.00,-0.0014
2130.00,-0.0011
2129.00,-0.0009
2128.00,-0.0008
2127.00,-0.0008
2126.00,-0.0008
2125.00,-0.0009
2124.00,-0.0008
2123.00,-0.0008
2122.00,-0.0007
2121.00,-0.0007
2120.00,-0.0006
2119.00,-0.0005
2118.00,-0.0003
2117.00,-0.0002
2116.00,-0.0001
2115.00,-0.0000
2114.00,0.0000
2113.00,0.0000
2112.00,0.0000
2111.00,0.0000
2110.00,0.0000
2109.00,0.0000
2108.00,0.0000
2107.00,0.0000
2106.00,0.0001
2105.00,0.0002
2104.00,0.0002
2103.00,0.0001
2102.00,-0.0001
2101.00,-0.0002
2100.00,-0.0003
2099.00,-0.0004
2098.00,-0.0004
2097.00,-0.0006
2096.00,-0.0008
2095.00,-0.0010
2094.00,-0.0010
2093.00,-0.0009
2092.00,-0.0006
2091.00,-0.0003
2090.00,-0.0001
2089.00,0.0000
2088.00,0.0001
2087.00,0.0001
2086.00,0.0001
2085.00,0.0001
2084.00,0.0002
2083.00,0.0003
2082.00,0.0003
2081.00,0.0002
2080.00,0.0002
2079.00,0.0001
2078.00,0.0001
2077.00,-0.0000
2076.00,-0.0001
2075.00,-0.0001
2074.00,-0.0001
2073.00,-0.0001
2072.00,0.0000
2071.00,0.0001
2070.00,0.0003
2069.00,0.0003
2068.00,0.0003
2067.00,0.0002
2066.00,-0.0001
2065.00,-0.0003
2064.00,-0.0004
2063.00,-0.0004
2062.00,-0.0004
2061.00,-0.0004
2060.00,-0.0003
2059.00,-0.0002
2058.00,-0.0000
2057.00,0.0001
2056.00,0.0001
2055.00,0.0001
2054.00,0.0002
2053.00,0.0005
2052.00,0.0010
2051.00,0.0013
2050.00,0.0013
2049.00,0.0009
2048.00,0.0004
2047.00,-0.0000
2046.00,-0.0003
2045.00,-0.0004
2044.00,-0.0004
2043.00,-0.0004
2042.00,-0.0004
2041.00,-0.0004
2040.00,-0.0005
2039.00,-0.0006
2038.00,-0.0006
2037.00,-0.0005
2036.00,-0.0005
2035.00,-0.0005
2034.00,-0.0007
2033.00,-0.0009
2032.00,-0.0011
2031.00,-0.0012
2030.00,-0.0011
2029.00,-0.0010
2028.00,-0.0011
2027.00,-0.0012
2026.00,-0.0014
2025.00,-0.0015
2024.00,-0.0015
2023.00,-0.0014
2022.00,-0.0013
2021.00,-0.0012
2020.00,-0.0012
2019.00,-0.0013
2018.00,-0.0015
2017.00,-0.0016
2016.00,-0.0017
2015.00,-0.0017
2014.00,-0.0017
2013.00,-0.0017
2012.00,-0.0017
2011.00,-0.0015
2010.00,-0.0012
2009.00,-0.0009
2008.00,-0.0010
2007.00,-0.0013
2006.00,-0.0016
2005.00,-0.0019
2004.00,-0.0021
2003.00,-0.0023
2002.00,-0.0023
2001.00,-0.0023
2000.00,-0.0020
1999.00,-0.0018
1998.00,-0.0015
1997.00,-0.0014
1996.00,-0.0013
1995.00,-0.0012
1994.00,-0.0012
1993.00,-0.0010
1992.00,-0.0009
1991.00,-0.0008
1990.00,-0.0006
1989.00,-0.0004
1988.00,-0.0003
1987.00,-0.0003
1986.00,-0.0004
1985.00,-0.0003
1984.00,-0.0000
1983.00,0.0004
1982.00,0.0008
1981.00,0.0011
1980.00,0.0009
1979.00,0.0003
1978.00,-0.0004
1977.00,-0.0011
1976.00,-0.0015
1975.00,-0.0018
1974.00,-0.0021
1973.00,-0.0023
1972.00,-0.0022
1971.00,-0.0019
1970.00,-0.0015
1969.00,-0.0011
1968.00,-0.0009
1967.00,-0.0008
1966.00,-0.0009
1965.00,-0.0010
1964.00,-0.0011
1963.00,-0.0013
1962.00,-0.0016
1961.00,-0.0018
1960.00,-0.0019
1959.00,-0.0020
1958.00,-0.0020
1957.00,-0.0019
1956.00,-0.0019
1955.00,-0.0019
1954.00,-0.0019
1953.00,-0.0018
1952.00,-0.0017
1951.00,-0.0016
1950.00,-0.0017
1949.00,-0.0018
1948.00,-0.0019
1947.00,-0.0019
1946.00,-0.0019
1945.00,-0.0020
1944.00,-0.0020
1943.00,-0.0019
1942.00,-0.0017
1941.00,-0.0015
1940.00,-0.0013
1939.00,-0.0013
1938.00,-0.0013
1937.00,-0.0012
1936.00,-0.0010
1935.00,-0.0009
1934.00,-0.0009
1933.00,-0.0010
1932.00,-0.0010
1931.00,-0.0009
1930.00,-0.0008
1929.00,-0.0008
1928.00,-0.0008
1927.00,-0.0009
1926.00,-0.0009
1925.00,-0.0008
1924.00,-0.0007
1923.00,-0.0007
1922.00,-0.0005
1921.00,-0.0003
1920.00,-0.0002
1919.00,-0.0002
1918.00,-0.0003
1917.00,-0.0004
1916.00,-0.0004
1915.00,-0.0004
1914.00,-0.0005
1913.00,-0.0004
1912.00,-0.0003
1911.00,-0.0003
1910.00,-0.0003
1909.00,-0.0003
1908.00,-0.0003
1907.00,-0.0003
1906.00,-0.0003
1905.00,-0.0002
1904.00,-0.0002
1903.00,-0.0002
1902.00,-0.0002
1901.00,-0.0002
1900.00,-0.0002
1899.00,-0.0001
1898.00,-0.0001
1897.00,-0.0001
1896.00,-0.0001
1895.00,-0.0001
1894.00,-0.0001
1893.00,-0.0001
1892.00,-0.0001
1891.00,-0.0001
1890.00,-0.0002
1889.00,-0.0002
1888.00,-0.0002
1887.00,-0.0002
1886.00,-0.0001
1885.00,-0.0001
1884.00,-0.0002
1883.00,-0.0003
1882.00,-0.0004
1881.00,-0.0004
1880.00,-0.0004
1879.00,-0.0003
1878.00,-0.0003
1877.00,-0.0003
1876.00,-0.0002
1875.00,-0.0002
1874.00,-0.0003
1873.00,-0.0003
1872.00,-0.0004
1871.00,-0.0004
1870.00,-0.0003
1869.00,-0.0003
1868.00,-0.0002
1867.00,-0.0002
1866.00,-0.0001
1865.00,-0.0001
1864.00,-0.0000
1863.00,-0.0001
1862.00,-0.0001
1861.00,-0.0001
1860.00,-0.0002
1859.00,-0.0002
1858.00,-0.0001
1857.00,-0.0001
1856.00,-0.0001
1855.00,-0.0001
1854.00,-0.0001
1853.00,-0.0001
1852.00,-0.0001
1851.00,-0.0001
1850.00,-0.0001
1849.00,-0.0000
1848.00,0.0000
1847.00,0.0001
1846.00,0.0001
1845.00,0.0001
1844.00,0.0000
1843.00,0.0000
1842.00,0.0001
1841.00,0.0001
1840.00,0.0001
1839.00,0.0002
1838.00,0.0002
1837.00,0.0002
1836.00,0.0002
1835.00,0.0003
1834.00,0.0003
1833.00,0.0004
1832.00,0.0004
1831.00,0.0003
1830.00,0.0003
1829.00,0.0003
1828.00,0.0003
1827.00,0.0003
1826.00,0.0002
1825.00,0.0002
1824.00,0.0002
1823.00,0.0002
1822.00,0.0002
1821.00,0.0002
1820.00,0.0002
1819.00,0.0001
1818.00,-0.0001
1817.00,-0.0002
1816.00,-0.0002
1815.00,-0.0001
1814.00,-0.0001
1813.00,0.0000
1812.00,0.0001
1811.00,0.0002
1810.00,0.0002
1809.00,0.0003
1808.00,0.0003
1807.00,0.0004
1806.00,0.0004
1805.00,0.0003
1804.00,0.0003
1803.00,0.0002
1802.00,0.0003
1801.00,0.0003
1800.00,0.0004
1799.00,0.0004
1798.00,0.0004
1797.00,0.0004
1796.00,0.0004
1795.00,0.0004
1794.00,0.0004
1793.00,0.0005
1792.00,0.0005
1791.00,0.0005
1790.00,0.0006
1789.00,0.0006
1788.00,0.0006
1787.00,0.0006
1786.00,0.0005
1785.00,0.0005
1784.00,0.0005
1783.00,0.0006
1782.00,0.0006
1781.00,0.0006
1780.00,0.0006
1779.00,0.0006
1778.00,0.0006
1777.00,0.0006
1776.00,0.0006
1775.00,0.0006
1774.00,0.0006
1773.00,0.0006
1772.00,0.0006
1771.00,0.0007
1770.00,0.0007
1769.00,0.0007
1768.00,0.0007
1767.00,0.0007
1766.00,0.0007
1765.00,0.0007
1764.00,0.0007
1763.00,0.0007
1762.00,0.0007
1761.00,0.0008
1760.00,0.0008
1759.00,0.0008
1758.00,0.0008
1757.00,0.0008
1756.00,0.0008
1755.00,0.0009
1754.00,0.0009
1753.00,0.0008
1752.00,0.0008
1751.00,0.0007
1750.00,0.0007
1749.00,0.0007
1748.00,0.0007
1747.00,0.0008
1746.00,0.0008
1745.00,0.0008
1744.00,0.0007
1743.00,0.0007
1742.00,0.0006
1741.00,0.0005
1740.00,0.0005
1739.00,0.0004
1738.00,0.0003
1737.00,0.0002
1736.00,0.0001
1735.00,-0.0001
1734.00,-0.0002
1733.00,-0.0002
1732.00,-0.0001
1731.00,-0.0001
1730.00,-0.0000
1729.00,-0.0000
1728.00,0.0000
1727.00,0.0001
1726.00,0.0002
1725.00,0.0003
1724.00,0.0004
1723.00,0.0005
1722.00,0.0005
1721.00,0.0006
1720.00,0.0006
1719.00,0.0007
1718.00,0.0008
1717.00,0.0011
1716.00,0.0013
1715.00,0.0014
1714.00,0.0015
1713.00,0.0015
1712.00,0.0016
1711.00,0.0016
1710.00,0.0017
1709.00,0.0017
1708.00,0.0017
1707.00,0.0018
1706.00,0.0018
1705.00,0.0019
1704.00,0.0020
1703.00,0.0020
1702.00,0.0021
1701.00,0.0021
1700.00,0.0021
1699.00,0.0021
1698.00,0.0021
1697.00,0.0022
1696.00,0.0023
1695.00,0.0023
1694.00,0.0023
1693.00,0.0023
1692.00,0.0024
1691.00,0.0024
1690.00,0.0024
1689.00,0.0025
1688.00,0.0025
1687.00,0.0026
1686.00,0.0026
1685.00,0.0027
1684.00,0.0027
1683.00,0.0028
1682.00,0.0028
1681.00,0.0029
1680.00,0.0029
1679.00,0.0030
1678.00,0.0030
1677.00,0.0031
1676.00,0.0032
1675.00,0.0032
1674.00,0.0033
1673.00,0.0033
1672.00,0.0033
1671.00,0.0033
1670.00,0.0033
1669.00,0.0034
1668.00,0.0034
1667.00,0.0035
1666.00,0.0035
1665.00,0.0035
1664.00,0.0036
1663.00,0.0037
1662.00,0.0038
1661.00,0.0039
1660.00,0.0040
1659.00,0.0040
1658.00,0.0040
1657.00,0.0041
1656.00,0.0042
1655.00,0.0042
1654.00,0.0044
1653.00,0.0045
1652.00,0.0046
1651.00,0.0046
1650.00,0.0046
1649.00,0.0047
1648.00,0.0048
1647.00,0.0048
1646.00,0.0049
1645.00,0.0050
1644.00,0.0050
1643.00,0.0050
1642.00,0.0050
1641.00,0.0050
1640.00,0.0051
1639.00,0.0051
1638.00,0.0051
1637.00,0.0051
1636.00,0.0051
1635.00,0.0051
1634.00,0.0051
1633.00,0.0052
1632.00,0.0052
1631.00,0.0052
1630.00,0.0052
1629.00,0.0052
1628.00,0.0051
1627.00,0.0051
1626.00,0.0050
1625.00,0.0049
1624.00,0.0049
1623.00,0.0049
1622.00,0.0050
1621.00,0.0049
1620.00,0.0049
1619.00,0.0049
1618.00,0.0049
1617.00,0.0049
1616.00,0.0049
1615.00,0.0049
1614.00,0.0049
1613.00,0.0049
1612.00,0.0049
1611.00,0.0049
1610.00,0.0049
1609.00,0.0049
1608.00,0.0049
1607.00,0.0049
1606.00,0.0049
1605.00,0.0049
1604.00,0.0049
1603.00,0.0049
1602.00,0.0049
1601.00,0.0048
1600.00,0.0048
1599.00,0.0047
1598.00,0.0047
1597.00,0.0047
1596.00,0.0047
1595.00,0.0047
1594.00,0.0047
1593.00,0.0047
1592.00,0.0047
1591.00,0.0047
1590.00,0.0047
1589.00,0.0048
1588.00,0.0048
1587.00,0.0049
1586.00,0.0049
1585.00,0.0050
1584.00,0.0050
1583.00,0.0050
1582.00,0.0051
1581.00,0.0052
1580.00,0.0053
1579.00,0.0055
1578.00,0.0056
1577.00,0.0056
1576.00,0.0057
1575.00,0.0056
1574.00,0.0056
1573.00,0.0055
1572.00,0.0055
1571.00,0.0054
1570.00,0.0052
1569.00,0.0051
1568.00,0.0051
1567.00,0.0051
1566.00,0.0051
1565.00,0.0052
1564.00,0.0052
1563.00,0.0052
1562.00,0.0052
1561.00,0.0053
1560.00,0.0053
1559.00,0.0054
1558.00,0.0054
1557.00,0.0055
1556.00,0.0055
1555.00,0.0055
1554.00,0.0056
1553.00,0.0057
1552.00,0.0058
1551.00,0.0058
1550.00,0.0058
1549.00,0.0059
1548.00,0.0059
1547.00,0.0060
1546.00,0.0061
1545.00,0.0063
1544.00,0.0065
1543.00,0.0066
1542.00,0.0066
1541.00,0.0066
1540.00,0.0066
1539.00,0.0066
1538.00,0.0064
1537.00,0.0063
1536.00,0.0061
1535.00,0.0060
1534.00,0.0058
1533.00,0.0057
1532.00,0.0056
1531.00,0.0055
1530.00,0.0054
1529.00,0.0053
1528.00,0.0052
1527.00,0.0051
1526.00,0.0050
1525.00,0.0049
1524.00,0.0049
1523.00,0.0049
1522.00,0.0048
1521.00,0.0048
1520.00,0.0049
1519.00,0.0049
1518.00,0.0049
1517.00,0.0049
1516.00,0.0049
1515.00,0.0048
1514.00,0.0048
1513.00,0.0049
1512.00,0.0050
1511.00,0.0050
1510.00,0.0050
1509.00,0.0051
1508.00,0.0051
1507.00,0.0051
1506.00,0.0052
1505.00,0.0054
1504.00,0.0056
1503.00,0.0057
1502.00,0.0059
1501.00,0.0061
1500.00,0.0063
1499.00,0.0065
1498.00,0.0068
1497.00,0.0071
1496.00,0.0076
1495.00,0.0079
1494.00,0.0082
1493.00,0.0084
1492.00,0.0088
1491.00,0.0090
1490.00,0.0093
1489.00,0.0098
1488.00,0.0103
1487.00,0.0107
1486.00,0.0111
1485.00,0.0117
1484.00,0.0123
1483.00,0.0130
1482.00,0.0138
1481.00,0.0149
1480.00,0.0160
1479.00,0.0171
1478.00,0.0184
1477.00,0.0201
1476.00,0.0221
1475.00,0.0245
1474.00,0.0277
1473.00,0.0325
1472.00,0.0385
1471.00,0.0444
1470.00,0.0500
1469.00,0.0559
1468.00,0.0623
1467.00,0.0693
1466.00,0.0774
1465.00,0.0863
1464.00,0.0943
1463.00,0.1002
1462.00,0.1042
1461.00,0.1072
1460.00,0.1097
1459.00,0.1118
1458.00,0.1143
1457.00,0.1170
1456.00,0.1190
1455.00,0.1196
1454.00,0.1196
1453.00,0.1190
1452.00,0.1175
1451.00,0.1147
1450.00,0.1101
1449.00,0.1032
1448.00,0.0939
1447.00,0.0838
1446.00,0.0745
1445.00,0.0663
1444.00,0.0592
1443.00,0.0534
1442.00,0.0491
1441.00,0.0461
1440.00,0.0441
1439.00,0.0431
1438.00,0.0426
1437.00,0.0422
1436.00,0.0408
1435.00,0.0381
1434.00,0.0343
1433.00,0.0299
1432.00,0.0255
1431.00,0.0216
1430.00,0.0187
1429.00,0.0166
1428.00,0.0152
1427.00,0.0144
1426.00,0.0138
1425.00,0.0133
1424.00,0.0128
1423.00,0.0125
1422.00,0.0123
1421.00,0.0120
1420.00,0.0117
1419.00,0.0115
1418.00,0.0114
1417.00,0.0112
1416.00,0.0110
1415.00,0.0109
1414.00,0.0109
1413.00,0.0107
1412.00,0.0105
1411.00,0.0105
1410.00,0.0105
1409.00,0.0104
1408.00,0.0103
1407.00,0.0104
1406.00,0.0104
1405.00,0.0104
1404.00,0.0104
1403.00,0.0104
1402.00,0.0106
1401.00,0.0107
1400.00,0.0109
1399.00,0.0112
1398.00,0.0115
1397.00,0.0117
1396.00,0.0119
1395.00,0.0123
1394.00,0.0128
1393.00,0.0133
1392.00,0.0139
1391.00,0.0147
1390.00,0.0159
1389.00,0.0176
1388.00,0.0201
1387.00,0.0239
1386.00,0.0288
1385.00,0.0350
1384.00,0.0431
1383.00,0.0537
1382.00,0.0674
1381.00,0.0843
1380.00,0.1048
1379.00,0.1277
1378.00,0.1496
1377.00,0.1659
1376.00,0.1717
1375.00,0.1642
1374.00,0.1452
1373.00,0.1214
1372.00,0.0990
1371.00,0.0800
1370.00,0.0646
1369.00,0.0527
1368.00,0.0445
1367.00,0.0393
1366.00,0.0366
1365.00,0.0354
1364.00,0.0356
1363.00,0.0370
1362.00,0.0390
1361.00,0.0412
1360.00,0.0427
1359.00,0.0431
1358.00,0.0420
1357.00,0.0395
1356.00,0.0359
1355.00,0.0319
1354.00,0.0281
1353.00,0.0247
1352.00,0.0220
1351.00,0.0198
1350.00,0.0181
1349.00,0.0167
1348.00,0.0157
1347.00,0.0148
1346.00,0.0140
1345.00,0.0134
1344.00,0.0130
1343.00,0.0127
1342.00,0.0124
1341.00,0.0122
1340.00,0.0120
1339.00,0.0117
1338.00,0.0115
1337.00,0.0114
1336.00,0.0114
1335.00,0.0116
1334.00,0.0119
1333.00,0.0123
1332.00,0.0127
1331.00,0.0131
1330.00,0.0132
1329.00,0.0132
1328.00,0.0129
1327.00,0.0124
1326.00,0.0118
1325.00,0.0112
1324.00,0.0106
1323.00,0.0100
1322.00,0.0095
1321.00,0.0092
1320.00,0.0089
1319.00,0.0087
1318.00,0.0085
1317.00,0.0083
1316.00,0.0082
1315.00,0.0081
1314.00,0.0081
1313.00,0.0082
1312.00,0.0083
1311.00,0.0087
1310.00,0.0093
1309.00,0.0102
1308.00,0.0114
1307.00,0.0129
1306.00,0.0143
1305.00,0.0153
1304.00,0.0155
1303.00,0.0150
1302.00,0.0141
1301.00,0.0132
1300.00,0.0125
1299.00,0.0121
1298.00,0.0119
1297.00,0.0117
1296.00,0.0115
1295.00,0.0111
1294.00,0.0107
1293.00,0.0101
1292.00,0.0095
1291.00,0.0089
1290.00,0.0084
1289.00,0.0080
1288.00,0.0076
1287.00,0.0073
1286.00,0.0071
1285.00,0.0069
1284.00,0.0067
1283.00,0.0066
1282.00,0.0064
1281.00,0.0063
1280.00,0.0062
1279.00,0.0061
1278.00,0.0060
1277.00,0.0059
1276.00,0.0059
1275.00,0.0059
1274.00,0.0059
1273.00,0.0059
1272.00,0.0059
1271.00,0.0059
1270.00,0.0060
1269.00,0.0061
1268.00,0.0063
1267.00,0.0066
1266.00,0.0069
1265.00,0.0071
1264.00,0.0075
1263.00,0.0079
1262.00,0.0084
1261.00,0.0091
1260.00,0.0099
1259.00,0.0109
1258.00,0.0120
1257.00,0.0130
1256.00,0.0135
1255.00,0.0134
1254.00,0.0127
1253.00,0.0117
1252.00,0.0106
1251.00,0.0097
1250.00,0.0091
1249.00,0.0086
1248.00,0.0083
1247.00,0.0082
1246.00,0.0080
1245.00,0.0080
1244.00,0.0079
1243.00,0.0079
1242.00,0.0078
1241.00,0.0078
1240.00,0.0077
1239.00,0.0076
1238.00,0.0075
1237.00,0.0074
1236.00,0.0074
1235.00,0.0073
1234.00,0.0072
1233.00,0.0072
1232.00,0.0072
1231.00,0.0073
1230.00,0.0073
1229.00,0.0073
1228.00,0.0073
1227.00,0.0074
1226.00,0.0075
1225.00,0.0078
1224.00,0.0081
1223.00,0.0084
1222.00,0.0087
1221.00,0.0090
1220.00,0.0091
1219.00,0.0092
1218.00,0.0092
1217.00,0.0090
1216.00,0.0088
1215.00,0.0086
1214.00,0.0083
1213.00,0.0081
1212.00,0.0078
1211.00,0.0076
1210.00,0.0074
1209.00,0.0072
1208.00,0.0070
1207.00,0.0069
1206.00,0.0068
1205.00,0.0068
1204.00,0.0068
1203.00,0.0068
1202.00,0.0068
1201.00,0.0068
1200.00,0.0068
1199.00,0.0069
1198.00,0.0069
1197.00,0.0069
1196.00,0.0069
1195.00,0.0068
1194.00,0.0068
1193.00,0.0068
1192.00,0.0068
1191.00,0.0068
1190.00,0.0069
1189.00,0.0069
1188.00,0.0069
1187.00,0.0070
1186.00,0.0071
1185.00,0.0073
1184.00,0.0076
1183.00,0.0078
1182.00,0.0081
1181.00,0.0084
1180.00,0.0088
1179.00,0.0094
1178.00,0.0102
1177.00,0.0112
1176.00,0.0126
1175.00,0.0145
1174.00,0.0170
1173.00,0.0203
1172.00,0.0243
1171.00,0.0288
1170.00,0.0332
1169.00,0.0370
1168.00,0.0395
1167.00,0.0404
1166.00,0.0396
1165.00,0.0376
1164.00,0.0350
1163.00,0.0322
1162.00,0.0297
1161.00,0.0275
1160.00,0.0257
1159.00,0.0243
1158.00,0.0232
1157.00,0.0223
1156.00,0.0215
1155.00,0.0209
1154.00,0.0204
1153.00,0.0198
1152.00,0.0192
1151.00,0.0184
1150.00,0.0175
1149.00,0.0166
1148.00,0.0156
1147.00,0.0147
1146.00,0.0138
1145.00,0.0129
1144.00,0.0122
1143.00,0.0115
1142.00,0.0109
1141.00,0.0103
1140.00,0.0097
1139.00,0.0092
1138.00,0.0088
1137.00,0.0083
1136.00,0.0080
1135.00,0.0078
1134.00,0.0076
1133.00,0.0074
1132.00,0.0074
1131.00,0.0073
1130.00,0.0073
1129.00,0.0073
1128.00,0.0074
1127.00,0.0074
1126.00,0.0074
1125.00,0.0074
1124.00,0.0074
1123.00,0.0073
1122.00,0.0073
1121.00,0.0073
1120.00,0.0074
1119.00,0.0075
1118.00,0.0077
1117.00,0.0078
1116.00,0.0079
1115.00,0.0081
1114.00,0.0084
1113.00,0.0087
1112.00,0.0089
1111.00,0.0092
1110.00,0.0095
1109.00,0.0098
1108.00,0.0103
1107.00,0.0109
1106.00,0.0116
1105.00,0.0123
1104.00,0.0129
1103.00,0.0132
1102.00,0.0132
1101.00,0.0129
1100.00,0.0124
1099.00,0.0119
1098.00,0.0113
1097.00,0.0108
1096.00,0.0103
1095.00,0.0098
1094.00,0.0095
1093.00,0.0092
1092.00,0.0090
1091.00,0.0088
1090.00,0.0086
1089.00,0.0084
1088.00,0.0083
1087.00,0.0082
1086.00,0.0081
1085.00,0.0080
1084.00,0.0079
1083.00,0.0078
1082.00,0.0077
1081.00,0.0077
1080.00,0.0076
1079.00,0.0074
1078.00,0.0072
1077.00,0.0069
1076.00,0.0067
1075.00,0.0067
1074.00,0.0067
1073.00,0.0067
1072.00,0.0067
1071.00,0.0067
1070.00,0.0067
1069.00,0.0067
1068.00,0.0067
1067.00,0.0068
1066.00,0.0069
1065.00,0.0071
1064.00,0.0072
1063.00,0.0074
1062.00,0.0075
1061.00,0.0075
1060.00,0.0076
1059.00,0.0077
1058.00,0.0078
1057.00,0.0078
1056.00,0.0079
1055.00,0.0079
1054.00,0.0080
1053.00,0.0081
1052.00,0.0083
1051.00,0.0086
1050.00,0.0088
1049.00,0.0091
1048.00,0.0095
1047.00,0.0099
1046.00,0.0104
1045.00,0.0106
1044.00,0.0106
1043.00,0.0105
1042.00,0.0102
1041.00,0.0098
1040.00,0.0095
1039.00,0.0092
1038.00,0.0091
1037.00,0.0090
1036.00,0.0090
1035.00,0.0090
1034.00,0.0090
1033.00,0.0089
1032.00,0.0088
1031.00,0.0088
1030.00,0.0087
1029.00,0.0087
1028.00,0.0087
1027.00,0.0087
1026.00,0.0088
1025.00,0.0088
1024.00,0.0088
1023.00,0.0089
1022.00,0.0089
1021.00,0.0090
1020.00,0.0092
1019.00,0.0093
1018.00,0.0095
1017.00,0.0096
1016.00,0.0099
1015.00,0.0102
1014.00,0.0106
1013.00,0.0110
1012.00,0.0115
1011.00,0.0119
1010.00,0.0124
1009.00,0.0131
1008.00,0.0138
1007.00,0.0147
1006.00,0.0159
1005.00,0.0174
1004.00,0.0195
1003.00,0.0224
1002.00,0.0262
1001.00,0.0310
1000.00,0.0363
999.00,0.0410
998.00,0.0436
997.00,0.0433
996.00,0.0400
995.00,0.0348
994.00,0.0293
993.00,0.0244
992.00,0.0205
991.00,0.0177
990.00,0.0157
989.00,0.0143
988.00,0.0134
987.00,0.0129
986.00,0.0127
985.00,0.0128
984.00,0.0133
983.00,0.0141
982.00,0.0153
981.00,0.0171
980.00,0.0197
979.00,0.0231
978.00,0.0274
977.00,0.0326
976.00,0.0384
975.00,0.0443
974.00,0.0492
973.00,0.0519
972.00,0.0512
971.00,0.0472
970.00,0.0409
969.00,0.0339
968.00,0.0276
967.00,0.0225
966.00,0.0188
965.00,0.0162
964.00,0.0143
963.00,0.0129
962.00,0.0119
961.00,0.0110
960.00,0.0103
959.00,0.0098
958.00,0.0094
957.00,0.0090
956.00,0.0087
955.00,0.0085
954.00,0.0083
953.00,0.0081
952.00,0.0079
951.00,0.0077
950.00,0.0076
949.00,0.0075
948.00,0.0077
947.00,0.0079
946.00,0.0082
945.00,0.0085
944.00,0.0087
943.00,0.0090
942.00,0.0092
941.00,0.0094
940.00,0.0093
939.00,0.0091
938.00,0.0086
937.00,0.0080
936.00,0.0075
935.00,0.0071
934.00,0.0069
933.00,0.0068
932.00,0.0066
931.00,0.0064
930.00,0.0062
929.00,0.0061
928.00,0.0060
927.00,0.0061
926.00,0.0061
925.00,0.0061
924.00,0.0061
923.00,0.0062
922.00,0.0063
921.00,0.0064
920.00,0.0065
919.00,0.0066
918.00,0.0067
917.00,0.0068
916.00,0.0069
915.00,0.0070
914.00,0.0070
913.00,0.0070
912.00,0.0070
911.00,0.0071
910.00,0.0072
909.00,0.0073
908.00,0.0075
907.00,0.0079
906.00,0.0085
905.00,0.0094
904.00,0.0108
903.00,0.0125
902.00,0.0144
901.00,0.0161
900.00,0.0173
899.00,0.0175
898.00,0.0168
897.00,0.0154
896.00,0.0137
895.00,0.0121
894.00,0.0107
893.00,0.0096
892.00,0.0089
891.00,0.0084
890.00,0.0080
889.00,0.0077
888.00,0.0074
887.00,0.0072
886.00,0.0071
885.00,0.0071
884.00,0.0071
883.00,0.0072
882.00,0.0072
881.00,0.0072
880.00,0.0071
879.00,0.0071
878.00,0.0070
877.00,0.0070
876.00,0.0070
875.00,0.0070
874.00,0.0071
873.00,0.0071
872.00,0.0071
871.00,0.0072
870.00,0.0072
869.00,0.0073
868.00,0.0074
867.00,0.0075
866.00,0.0076
865.00,0.0077
864.00,0.0078
863.00,0.0079
862.00,0.0080
861.00,0.0082
860.00,0.0084
859.00,0.0087
858.00,0.0090
857.00,0.0092
856.00,0.0093
855.00,0.0094
854.00,0.0096
853.00,0.0098
852.00,0.0102
851.00,0.0107
850.00,0.0113
849.00,0.0122
848.00,0.0135
847.00,0.0155
846.00,0.0184
845.00,0.0228
844.00,0.0289
843.00,0.0360
842.00,0.0418
841.00,0.0441
840.00,0.0417
839.00,0.0359
838.00,0.0293
837.00,0.0237
836.00,0.0199
835.00,0.0174
834.00,0.0158
833.00,0.0146
832.00,0.0137
831.00,0.0131
830.00,0.0126
829.00,0.0122
828.00,0.0119
827.00,0.0115
826.00,0.0114
825.00,0.0112
824.00,0.0111
823.00,0.0110
822.00,0.0109
821.00,0.0109
820.00,0.0110
819.00,0.0112
818.00,0.0115
817.00,0.0121
816.00,0.0128
815.00,0.0137
814.00,0.0148
813.00,0.0161
812.00,0.0175
811.00,0.0189
810.00,0.0201
809.00,0.0207
808.00,0.0205
807.00,0.0196
806.00,0.0182
805.00,0.0166
804.00,0.0150
803.00,0.0137
802.00,0.0127
801.00,0.0119
800.00,0.0112
799.00,0.0106
798.00,0.0101
797.00,0.0096
796.00,0.0093
795.00,0.0090
794.00,0.0088
793.00,0.0086
792.00,0.0084
791.00,0.0082
790.00,0.0081
789.00,0.0079
788.00,0.0077
787.00,0.0074
786.00,0.0070
785.00,0.0068
784.00,0.0066
783.00,0.0065
782.00,0.0065
781.00,0.0064
780.00,0.0064
779.00,0.0063
778.00,0.0062
777.00,0.0062
776.00,0.0062
775.00,0.0063
774.00,0.0065
773.00,0.0068
772.00,0.0071
771.00,0.0075
770.00,0.0078
769.00,0.0080
768.00,0.0081
767.00,0.0081
766.00,0.0080
765.00,0.0079
764.00,0.0078
763.00,0.0076
762.00,0.0073
761.00,0.0068
760.00,0.0062
759.00,0.0058
758.00,0.0055
757.00,0.0053
756.00,0.0052
755.00,0.0050
754.00,0.0049
753.00,0.0049
752.00,0.0050
751.00,0.0050
750.00,0.0050
749.00,0.0050
748.00,0.0049
747.00,0.0049
746.00,0.0049
745.00,0.0050
744.00,0.0052
743.00,0.0053
742.00,0.0055
741.00,0.0056
740.00,0.0058
739.00,0.0061
738.00,0.0063
737.00,0.0065
736.00,0.0065
735.00,0.0065
734.00,0.0065
733.00,0.0065
732.00,0.0063
731.00,0.0062
730.00,0.0062
729.00,0.0062
728.00,0.0062
727.00,0.0062
726.00,0.0062
725.00,0.0063
724.00,0.0063
723.00,0.0062
722.00,0.0061
721.00,0.0060
720.00,0.0058
719.00,0.0057
718.00,0.0057
717.00,0.0056
716.00,0.0056
715.00,0.0054
714.00,0.0052
713.00,0.0052
712.00,0.0052
711.00,0.0052
710.00,0.0054
709.00,0.0055
708.00,0.0056
707.00,0.0056
706.00,0.0056
705.00,0.0055
704.00,0.0053
703.00,0.0052
702.00,0.0051
701.00,0.0051
700.00,0.0052
699.00,0.0053
698.00,0.0053
697.00,0.0052
696.00,0.0051
695.00,0.0050
694.00,0.0049
693.00,0.0050
692.00,0.0051
691.00,0.0052
690.00,0.0051
689.00,0.0050
688.00,0.0049
687.00,0.0049
686.00,0.0050
685.00,0.0050
684.00,0.0051
683.00,0.0051
682.00,0.0051
681.00,0.0051
680.00,0.0051
679.00,0.0052
678.00,0.0053
677.00,0.0053
676.00,0.0053
675.00,0.0054
674.00,0.0056
673.00,0.0057
672.00,0.0057
671.00,0.0056
670.00,0.0056
669.00,0.0057
668.00,0.0057
667.00,0.0057
666.00,0.0056
665.00,0.0054
664.00,0.0052
663.00,0.0052
662.00,0.0051
661.00,0.0051
660.00,0.0051
659.00,0.0051
658.00,0.0051
657.00,0.0051
656.00,0.0051
655.00,0.0051
654.00,0.0051
653.00,0.0050
652.00,0.0050
651.00,0.0050
650.00,0.0051
649.00,0.0052
648.00,0.0053
647.00,0.0053
646.00,0.0053
645.00,0.0053
644.00,0.0053
643.00,0.0053
642.00,0.0053
641.00,0.0052
640.00,0.0052
639.00,0.0051
638.00,0.0051
637.00,0.0051
636.00,0.0051
635.00,0.0053
634.00,0.0055
633.00,0.0057
632.00,0.0059
631.00,0.0060
630.00,0.0060
629.00,0.0059
628.00,0.0057
627.00,0.0054
626.00,0.0053
625.00,0.0052
624.00,0.0051
623.00,0.0050
622.00,0.0049
621.00,0.0050
620.00,0.0054
619.00,0.0057
618.00,0.0058
617.00,0.0057
616.00,0.0055
615.00,0.0055
614.00,0.0057
613.00,0.0058
612.00,0.0059
611.00,0.0060
610.00,0.0060
609.00,0.0059
608.00,0.0058
607.00,0.0058
606.00,0.0058
605.00,0.0060
604.00,0.0061
603.00,0.0062
602.00,0.0061
601.00,0.0060
600.00,0.0060
599.00,0.0059
598.00,0.0059
597.00,0.0058
596.00,0.0057
595.00,0.0057
594.00,0.0059
593.00,0.0060
592.00,0.0060
591.00,0.0057
590.00,0.0055
589.00,0.0055
588.00,0.0058
587.00,0.0060
586.00,0.0061
585.00,0.0061
584.00,0.0062
583.00,0.0064
582.00,0.0066
581.00,0.0066
580.00,0.0064
579.00,0.0062
578.00,0.0059
577.00,0.0057
576.00,0.0056
575.00,0.0057
574.00,0.0059
573.00,0.0061
572.00,0.0061
571.00,0.0060
570.00,0.0059
569.00,0.0059
568.00,0.0062
567.00,0.0065
566.00,0.0067
565.00,0.0067
564.00,0.0065
563.00,0.0061
562.00,0.0058
561.00,0.0057
560.00,0.0059
559.00,0.0060
558.00,0.0059
557.00,0.0057
556.00,0.0055
555.00,0.0056
554.00,0.0057
553.00,0.0057
552.00,0.0056
551.00,0.0057
550.00,0.0059
549.00,0.0064
548.00,0.0068
547.00,0.0070
546.00,0.0068
545.00,0.0063
544.00,0.0057
543.00,0.0054
542.00,0.0054
541.00,0.0056
540.00,0.0060
539.00,0.0066
538.00,0.0071
537.00,0.0075
536.00,0.0074
535.00,0.0073
534.00,0.0073
533.00,0.0075
532.00,0.0076
531.00,0.0076
530.00,0.0076
529.00,0.0076
528.00,0.0076
527.00,0.0074
526.00,0.0072
525.00,0.0072
524.00,0.0075
523.00,0.0079
522.00,0.0081
521.00,0.0080
520.00,0.0076
519.00,0.0073
518.00,0.0070
517.00,0.0066
516.00,0.0060
515.00,0.0058
514.00,0.0061
513.00,0.0066
512.00,0.0073
511.00,0.0078
510.00,0.0083
509.00,0.0085
508.00,0.0081
507.00,0.0076
506.00,0.0075
505.00,0.0078
504.00,0.0081
503.00,0.0081
502.00,0.0077
501.00,0.0075
500.00,0.0075
499.00,0.0075
498.00,0.0072
497.00,0.0066
496.00,0.0061
495.00,0.0059
494.00,0.0062
493.00,0.0067
492.00,0.0069
491.00,0.0067
490.00,0.0061
489.00,0.0053
488.00,0.0046
487.00,0.0043
486.00,0.0043
485.00,0.0048
484.00,0.0055
483.00,0.0060
482.00,0.0062
481.00,0.0061
480.00,0.0057
479.00,0.0052
478.00,0.0052
477.00,0.0059
476.00,0.0070
475.00,0.0078
474.00,0.0082
473.00,0.0083
472.00,0.0085
471.00,0.0089
470.00,0.0091
469.00,0.0089
468.00,0.0089
467.00,0.0093
466.00,0.0104
465.00,0.0120
464.00,0.0137
463.00,0.0153
462.00,0.0165
461.00,0.0172
460.00,0.0173
459.00,0.0170
458.00,0.0163
457.00,0.0150
456.00,0.0136
455.00,0.0123
454.00,0.0111
453.00,0.0097
452.00,0.0081
451.00,0.0068
450.00,0.0060
