Created as New Dataset,Sample 127 By Administrator Date Tuesday, September 09 2025
cm-1,A
4000.00,0.0007
3999.00,0.0007
3998.00,0.0007
3997.00,0.0008
3996.00,0.0008
3995.00,0.0009
3994.00,0.0008
3993.00,0.0008
3992.00,0.0008
3991.00,0.0008
3990.00,0.0007
3989.00,0.0007
3988.00,0.0007
3987.00,0.0006
3986.00,0.0006
3985.00,0.0006
3984.00,0.0006
3983.00,0.0006
3982.00,0.0006
3981.00,0.0006
3980.00,0.0006
3979.00,0.0006
3978.00,0.0006
3977.00,0.0006
3976.00,0.0006
3975.00,0.0006
3974.00,0.0006
3973.00,0.0006
3972.00,0.0006
3971.00,0.0006
3970.00,0.0006
3969.00,0.0005
3968.00,0.0005
3967.00,0.0005
3966.00,0.0006
3965.00,0.0006
3964.00,0.0006
3963.00,0.0006
3962.00,0.0006
3961.00,0.0006
3960.00,0.0005
3959.00,0.0005
3958.00,0.0005
3957.00,0.0005
3956.00,0.0005
3955.00,0.0005
3954.00,0.0005
3953.00,0.0005
3952.00,0.0005
3951.00,0.0005
3950.00,0.0006
3949.00,0.0006
3948.00,0.0006
3947.00,0.0006
3946.00,0.0005
3945.00,0.0005
3944.00,0.0005
3943.00,0.0005
3942.00,0.0005
3941.00,0.0005
3940.00,0.0005
3939.00,0.0006
3938.00,0.0006
3937.00,0.0006
3936.00,0.0006
3935.00,0.0005
3934.00,0.0005
3933.00,0.0005
3932.00,0.0005
3931.00,0.0005
3930.00,0.0005
3929.00,0.0005
3928.00,0.0005
3927.00,0.0005
3926.00,0.0005
3925.00,0.0005
3924.00,0.0005
3923.00,0.0005
3922.00,0.0005
3921.00,0.0005
3920.00,0.0005
3919.00,0.0005
3918.00,0.0005
3917.00,0.0005
3916.00,0.0006
3915.00,0.0006
3914.00,0.0006
3913.00,0.0006
3912.00,0.0005
3911.00,0.0005
3910.00,0.0005
3909.00,0.0005
3908.00,0.0004
3907.00,0.0004
3906.00,0.0004
3905.00,0.0004
3904.00,0.0004
3903.00,0.0004
3902.00,0.0004
3901.00,0.0004
3900.00,0.0005
3899.00,0.0005
3898.00,0.0005
3897.00,0.0005
3896.00,0.0005
3895.00,0.0005
3894.00,0.0005
3893.00,0.0006
3892.00,0.0006
3891.00,0.0006
3890.00,0.0005
3889.00,0.0005
3888.00,0.0004
3887.00,0.0005
3886.00,0.0005
3885.00,0.0006
3884.00,0.0006
3883.00,0.0005
3882.00,0.0005
3881.00,0.0005
3880.00,0.0005
3879.00,0.0005
3878.00,0.0005
3877.00,0.0005
3876.00,0.0005
3875.00,0.0005
3874.00,0.0005
3873.00,0.0005
3872.00,0.0005
3871.00,0.0005
3870.00,0.0005
3869.00,0.0005
3868.00,0.0004
3867.00,0.0004
3866.00,0.0004
3865.00,0.0004
3864.00,0.0004
3863.00,0.0004
3862.00,0.0003
3861.00,0.0003
3860.00,0.0004
3859.00,0.0004
3858.00,0.0005
3857.00,0.0005
3856.00,0.0005
3855.00,0.0005
3854.00,0.0005
3853.00,0.0005
3852.00,0.0004
3851.00,0.0004
3850.00,0.0004
3849.00,0.0004
3848.00,0.0004
3847.00,0.0004
3846.00,0.0004
3845.00,0.0004
3844.00,0.0004
3843.00,0.0004
3842.00,0.0005
3841.00,0.0005
3840.00,0.0005
3839.00,0.0004
3838.00,0.0004
3837.00,0.0003
3836.00,0.0003
3835.00,0.0003
3834.00,0.0003
3833.00,0.0003
3832.00,0.0003
3831.00,0.0003
3830.00,0.0003
3829.00,0.0002
3828.00,0.0002
3827.00,0.0003
3826.00,0.0003
3825.00,0.0003
3824.00,0.0003
3823.00,0.0003
3822.00,0.0003
3821.00,0.0003
3820.00,0.0004
3819.00,0.0004
3818.00,0.0004
3817.00,0.0004
3816.00,0.0005
3815.00,0.0005
3814.00,0.0005
3813.00,0.0005
3812.00,0.0005
3811.00,0.0005
3810.00,0.0005
3809.00,0.0005
3808.00,0.0005
3807.00,0.0004
3806.00,0.0004
3805.00,0.0003
3804.00,0.0002
3803.00,0.0002
3802.00,0.0003
3801.00,0.0003
3800.00,0.0003
3799.00,0.0004
3798.00,0.0004
3797.00,0.0005
3796.00,0.0005
3795.00,0.0005
3794.00,0.0005
3793.00,0.0005
3792.00,0.0005
3791.00,0.0005
3790.00,0.0005
3789.00,0.0005
3788.00,0.0005
3787.00,0.0005
3786.00,0.0004
3785.00,0.0004
3784.00,0.0004
3783.00,0.0004
3782.00,0.0004
3781.00,0.0005
3780.00,0.0006
3779.00,0.0006
3778.00,0.0006
3777.00,0.0006
3776.00,0.0005
3775.00,0.0005
3774.00,0.0005
3773.00,0.0005
3772.00,0.0005
3771.00,0.0005
3770.00,0.0005
3769.00,0.0006
3768.00,0.0006
3767.00,0.0006
3766.00,0.0006
3765.00,0.0006
3764.00,0.0006
3763.00,0.0006
3762.00,0.0006
3761.00,0.0006
3760.00,0.0006
3759.00,0.0006
3758.00,0.0006
3757.00,0.0007
3756.00,0.0007
3755.00,0.0007
3754.00,0.0007
3753.00,0.0007
3752.00,0.0006
3751.00,0.0006
3750.00,0.0006
3749.00,0.0006
3748.00,0.0005
3747.00,0.0004
3746.00,0.0004
3745.00,0.0004
3744.00,0.0004
3743.00,0.0003
3742.00,0.0003
3741.00,0.0002
3740.00,0.0002
3739.00,0.0002
3738.00,0.0002
3737.00,0.0002
3736.00,0.0003
3735.00,0.0003
3734.00,0.0003
3733.00,0.0003
3732.00,0.0003
3731.00,0.0003
3730.00,0.0003
3729.00,0.0003
3728.00,0.0003
3727.00,0.0003
3726.00,0.0003
3725.00,0.0003
3724.00,0.0003
3723.00,0.0003
3722.00,0.0003
3721.00,0.0003
3720.00,0.0003
3719.00,0.0004
3718.00,0.0004
3717.00,0.0004
3716.00,0.0004
3715.00,0.0003
3714.00,0.0003
3713.00,0.0002
3712.00,0.0002
3711.00,0.0001
3710.00,0.0001
3709.00,0.0001
3708.00,0.0002
3707.00,0.0002
3706.00,0.0002
3705.00,0.0003
3704.00,0.0003
3703.00,0.0003
3702.00,0.0003
3701.00,0.0003
3700.00,0.0002
3699.00,0.0002
3698.00,0.0002
3697.00,0.0002
3696.00,0.0002
3695.00,0.0002
3694.00,0.0002
3693.00,0.0001
3692.00,0.0001
3691.00,0.0002
3690.00,0.0002
3689.00,0.0003
3688.00,0.0003
3687.00,0.0002
3686.00,0.0002
3685.00,0.0002
3684.00,0.0002
3683.00,0.0002
3682.00,0.0002
3681.00,0.0001
3680.00,0.0001
3679.00,0.0001
3678.00,0.0001
3677.00,0.0001
3676.00,0.0001
3675.00,0.0001
3674.00,0.0001
3673.00,0.0001
3672.00,0.0002
3671.00,0.0002
3670.00,0.0003
3669.00,0.0003
3668.00,0.0002
3667.00,0.0002
3666.00,0.0002
3665.00,0.0002
3664.00,0.0002
3663.00,0.0002
3662.00,0.0002
3661.00,0.0002
3660.00,0.0002
3659.00,0.0002
3658.00,0.0002
3657.00,0.0002
3656.00,0.0002
3655.00,0.0002
3654.00,0.0002
3653.00,0.0001
3652.00,0.0001
3651.00,0.0002
3650.00,0.0002
3649.00,0.0002
3648.00,0.0002
3647.00,0.0002
3646.00,0.0001
3645.00,0.0001
3644.00,0.0002
3643.00,0.0002
3642.00,0.0002
3641.00,0.0001
3640.00,0.0001
3639.00,0.0001
3638.00,0.0002
3637.00,0.0002
3636.00,0.0002
3635.00,0.0003
3634.00,0.0003
3633.00,0.0002
3632.00,0.0002
3631.00,0.0001
3630.00,0.0001
3629.00,0.0002
3628.00,0.0002
3627.00,0.0002
3626.00,0.0002
3625.00,0.0002
3624.00,0.0002
3623.00,0.0002
3622.00,0.0002
3621.00,0.0002
3620.00,0.0002
3619.00,0.0001
3618.00,0.0001
3617.00,0.0001
3616.00,0.0001
3615.00,0.0001
3614.00,0.0001
3613.00,0.0002
3612.00,0.0002
3611.00,0.0002
3610.00,0.0002
3609.00,0.0002
3608.00,0.0002
3607.00,0.0002
3606.00,0.0001
3605.00,0.0001
3604.00,0.0001
3603.00,0.0001
3602.00,0.0001
3601.00,0.0001
3600.00,0.0001
3599.00,0.0001
3598.00,0.0002
3597.00,0.0002
3596.00,0.0002
3595.00,0.0002
3594.00,0.0003
3593.00,0.0003
3592.00,0.0003
3591.00,0.0003
3590.00,0.0004
3589.00,0.0004
3588.00,0.0004
3587.00,0.0003
3586.00,0.0003
3585.00,0.0003
3584.00,0.0003
3583.00,0.0003
3582.00,0.0003
3581.00,0.0003
3580.00,0.0003
3579.00,0.0004
3578.00,0.0003
3577.00,0.0003
3576.00,0.0003
3575.00,0.0003
3574.00,0.0004
3573.00,0.0004
3572.00,0.0004
3571.00,0.0005
3570.00,0.0004
3569.00,0.0004
3568.00,0.0004
3567.00,0.0005
3566.00,0.0005
3565.00,0.0004
3564.00,0.0004
3563.00,0.0005
3562.00,0.0005
3561.00,0.0005
3560.00,0.0006
3559.00,0.0006
3558.00,0.0007
3557.00,0.0007
3556.00,0.0007
3555.00,0.0007
3554.00,0.0007
3553.00,0.0007
3552.00,0.0007
3551.00,0.0007
3550.00,0.0007
3549.00,0.0007
3548.00,0.0007
3547.00,0.0007
3546.00,0.0006
3545.00,0.0006
3544.00,0.0006
3543.00,0.0007
3542.00,0.0007
3541.00,0.0008
3540.00,0.0008
3539.00,0.0008
3538.00,0.0008
3537.00,0.0008
3536.00,0.0008
3535.00,0.0009
3534.00,0.0009
3533.00,0.0009
3532.00,0.0009
3531.00,0.0009
3530.00,0.0009
3529.00,0.0009
3528.00,0.0009
3527.00,0.0009
3526.00,0.0009
3525.00,0.0009
3524.00,0.0009
3523.00,0.0009
3522.00,0.0009
3521.00,0.0009
3520.00,0.0010
3519.00,0.0010
3518.00,0.0011
3517.00,0.0011
3516.00,0.0011
3515.00,0.0011
3514.00,0.0011
3513.00,0.0011
3512.00,0.0011
3511.00,0.0011
3510.00,0.0011
3509.00,0.0011
3508.00,0.0011
3507.00,0.0010
3506.00,0.0010
3505.00,0.0010
3504.00,0.0010
3503.00,0.0010
3502.00,0.0011
3501.00,0.0011
3500.00,0.0011
3499.00,0.0011
3498.00,0.0011
3497.00,0.0011
3496.00,0.0012
3495.00,0.0012
3494.00,0.0013
3493.00,0.0013
3492.00,0.0013
3491.00,0.0014
3490.00,0.0013
3489.00,0.0013
3488.00,0.0013
3487.00,0.0012
3486.00,0.0013
3485.00,0.0013
3484.00,0.0013
3483.00,0.0014
3482.00,0.0014
3481.00,0.0014
3480.00,0.0014
3479.00,0.0014
3478.00,0.0014
3477.00,0.0014
3476.00,0.0014
3475.00,0.0014
3474.00,0.0014
3473.00,0.0014
3472.00,0.0014
3471.00,0.0014
3470.00,0.0014
3469.00,0.0014
3468.00,0.0015
3467.00,0.0015
3466.00,0.0015
3465.00,0.0015
3464.00,0.0015
3463.00,0.0015
3462.00,0.0015
3461.00,0.0016
3460.00,0.0016
3459.00,0.0016
3458.00,0.0016
3457.00,0.0016
3456.00,0.0016
3455.00,0.0016
3454.00,0.0016
3453.00,0.0016
3452.00,0.0016
3451.00,0.0016
3450.00,0.0016
3449.00,0.0016
3448.00,0.0016
3447.00,0.0016
3446.00,0.0016
3445.00,0.0017
3444.00,0.0017
3443.00,0.0017
3442.00,0.0018
3441.00,0.0018
3440.00,0.0018
3439.00,0.0018
3438.00,0.0018
3437.00,0.0018
3436.00,0.0018
3435.00,0.0018
3434.00,0.0018
3433.00,0.0018
3432.00,0.0018
3431.00,0.0018
3430.00,0.0018
3429.00,0.0018
3428.00,0.0019
3427.00,0.0019
3426.00,0.0019
3425.00,0.0020
3424.00,0.0020
3423.00,0.0020
3422.00,0.0020
3421.00,0.0020
3420.00,0.0019
3419.00,0.0019
3418.00,0.0019
3417.00,0.0020
3416.00,0.0020
3415.00,0.0020
3414.00,0.0020
3413.00,0.0020
3412.00,0.0020
3411.00,0.0020
3410.00,0.0020
3409.00,0.0020
3408.00,0.0020
3407.00,0.0021
3406.00,0.0021
3405.00,0.0021
3404.00,0.0021
3403.00,0.0021
3402.00,0.0020
3401.00,0.0020
3400.00,0.0019
3399.00,0.0019
3398.00,0.0019
3397.00,0.0019
3396.00,0.0019
3395.00,0.0019
3394.00,0.0019
3393.00,0.0020
3392.00,0.0020
3391.00,0.0020
3390.00,0.0020
3389.00,0.0020
3388.00,0.0020
3387.00,0.0019
3386.00,0.0019
3385.00,0.0020
3384.00,0.0020
3383.00,0.0020
3382.00,0.0020
3381.00,0.0020
3380.00,0.0020
3379.00,0.0020
3378.00,0.0020
3377.00,0.0020
3376.00,0.0020
3375.00,0.0020
3374.00,0.0020
3373.00,0.0020
3372.00,0.0020
3371.00,0.0020
3370.00,0.0020
3369.00,0.0021
3368.00,0.0020
3367.00,0.0020
3366.00,0.0020
3365.00,0.0021
3364.00,0.0021
3363.00,0.0021
3362.00,0.0021
3361.00,0.0021
3360.00,0.0021
3359.00,0.0021
3358.00,0.0021
3357.00,0.0021
3356.00,0.0021
3355.00,0.0021
3354.00,0.0021
3353.00,0.0021
3352.00,0.0020
3351.00,0.0020
3350.00,0.0021
3349.00,0.0021
3348.00,0.0021
3347.00,0.0021
3346.00,0.0021
3345.00,0.0021
3344.00,0.0021
3343.00,0.0021
3342.00,0.0021
3341.00,0.0020
3340.00,0.0020
3339.00,0.0020
3338.00,0.0020
3337.00,0.0020
3336.00,0.0020
3335.00,0.0020
3334.00,0.0020
3333.00,0.0020
3332.00,0.0020
3331.00,0.0020
3330.00,0.0020
3329.00,0.0020
3328.00,0.0021
3327.00,0.0021
3326.00,0.0021
3325.00,0.0020
3324.00,0.0020
3323.00,0.0020
3322.00,0.0020
3321.00,0.0020
3320.00,0.0019
3319.00,0.0019
3318.00,0.0019
3317.00,0.0019
3316.00,0.0019
3315.00,0.0019
3314.00,0.0020
3313.00,0.0020
3312.00,0.0019
3311.00,0.0019
3310.00,0.0019
3309.00,0.0019
3308.00,0.0019
3307.00,0.0019
3306.00,0.0019
3305.00,0.0019
3304.00,0.0019
3303.00,0.0019
3302.00,0.0019
3301.00,0.0019
3300.00,0.0019
3299.00,0.0019
3298.00,0.0019
3297.00,0.0019
3296.00,0.0019
3295.00,0.0019
3294.00,0.0019
3293.00,0.0019
3292.00,0.0019
3291.00,0.0019
3290.00,0.0019
3289.00,0.0020
3288.00,0.0020
3287.00,0.0020
3286.00,0.0020
3285.00,0.0020
3284.00,0.0020
3283.00,0.0020
3282.00,0.0020
3281.00,0.0019
3280.00,0.0019
3279.00,0.0019
3278.00,0.0019
3277.00,0.0019
3276.00,0.0019
3275.00,0.0019
3274.00,0.0019
3273.00,0.0019
3272.00,0.0019
3271.00,0.0019
3270.00,0.0019
3269.00,0.0019
3268.00,0.0019
3267.00,0.0019
3266.00,0.0019
3265.00,0.0019
3264.00,0.0019
3263.00,0.0019
3262.00,0.0019
3261.00,0.0019
3260.00,0.0018
3259.00,0.0018
3258.00,0.0017
3257.00,0.0017
3256.00,0.0017
3255.00,0.0017
3254.00,0.0017
3253.00,0.0017
3252.00,0.0017
3251.00,0.0017
3250.00,0.0017
3249.00,0.0017
3248.00,0.0017
3247.00,0.0017
3246.00,0.0017
3245.00,0.0018
3244.00,0.0018
3243.00,0.0018
3242.00,0.0018
3241.00,0.0018
3240.00,0.0017
3239.00,0.0017
3238.00,0.0017
3237.00,0.0017
3236.00,0.0017
3235.00,0.0017
3234.00,0.0018
3233.00,0.0018
3232.00,0.0019
3231.00,0.0019
3230.00,0.0020
3229.00,0.0020
3228.00,0.0020
3227.00,0.0019
3226.00,0.0020
3225.00,0.0020
3224.00,0.0020
3223.00,0.0021
3222.00,0.0022
3221.00,0.0022
3220.00,0.0022
3219.00,0.0022
3218.00,0.0022
3217.00,0.0022
3216.00,0.0022
3215.00,0.0022
3214.00,0.0023
3213.00,0.0023
3212.00,0.0024
3211.00,0.0024
3210.00,0.0024
3209.00,0.0024
3208.00,0.0024
3207.00,0.0024
3206.00,0.0024
3205.00,0.0023
3204.00,0.0023
3203.00,0.0023
3202.00,0.0023
3201.00,0.0024
3200.00,0.0024
3199.00,0.0024
3198.00,0.0024
3197.00,0.0024
3196.00,0.0024
3195.00,0.0024
3194.00,0.0024
3193.00,0.0024
3192.00,0.0024
3191.00,0.0024
3190.00,0.0023
3189.00,0.0023
3188.00,0.0023
3187.00,0.0024
3186.00,0.0024
3185.00,0.0023
3184.00,0.0023
3183.00,0.0023
3182.00,0.0023
3181.00,0.0023
3180.00,0.0023
3179.00,0.0023
3178.00,0.0022
3177.00,0.0022
3176.00,0.0022
3175.00,0.0022
3174.00,0.0022
3173.00,0.0022
3172.00,0.0022
3171.00,0.0022
3170.00,0.0021
3169.00,0.0021
3168.00,0.0021
3167.00,0.0020
3166.00,0.0020
3165.00,0.0020
3164.00,0.0020
3163.00,0.0021
3162.00,0.0021
3161.00,0.0021
3160.00,0.0021
3159.00,0.0021
3158.00,0.0021
3157.00,0.0021
3156.00,0.0021
3155.00,0.0021
3154.00,0.0021
3153.00,0.0021
3152.00,0.0021
3151.00,0.0022
3150.00,0.0022
3149.00,0.0022
3148.00,0.0023
3147.00,0.0023
3146.00,0.0023
3145.00,0.0022
3144.00,0.0022
3143.00,0.0022
3142.00,0.0022
3141.00,0.0022
3140.00,0.0022
3139.00,0.0022
3138.00,0.0022
3137.00,0.0022
3136.00,0.0022
3135.00,0.0021
3134.00,0.0021
3133.00,0.0021
3132.00,0.0021
3131.00,0.0020
3130.00,0.0020
3129.00,0.0020
3128.00,0.0020
3127.00,0.0019
3126.00,0.0019
3125.00,0.0018
3124.00,0.0018
3123.00,0.0018
3122.00,0.0018
3121.00,0.0018
3120.00,0.0018
3119.00,0.0018
3118.00,0.0018
3117.00,0.0018
3116.00,0.0018
3115.00,0.0018
3114.00,0.0017
3113.00,0.0017
3112.00,0.0017
3111.00,0.0017
3110.00,0.0018
3109.00,0.0017
3108.00,0.0017
3107.00,0.0017
3106.00,0.0017
3105.00,0.0017
3104.00,0.0017
3103.00,0.0017
3102.00,0.0017
3101.00,0.0017
3100.00,0.0017
3099.00,0.0017
3098.00,0.0017
3097.00,0.0017
3096.00,0.0017
3095.00,0.0017
3094.00,0.0017
3093.00,0.0018
3092.00,0.0017
3091.00,0.0017
3090.00,0.0017
3089.00,0.0017
3088.00,0.0017
3087.00,0.0017
3086.00,0.0017
3085.00,0.0017
3084.00,0.0017
3083.00,0.0017
3082.00,0.0017
3081.00,0.0017
3080.00,0.0016
3079.00,0.0016
3078.00,0.0017
3077.00,0.0017
3076.00,0.0018
3075.00,0.0018
3074.00,0.0018
3073.00,0.0019
3072.00,0.0018
3071.00,0.0018
3070.00,0.0018
3069.00,0.0018
3068.00,0.0018
3067.00,0.0019
3066.00,0.0020
3065.00,0.0021
3064.00,0.0021
3063.00,0.0021
3062.00,0.0021
3061.00,0.0021
3060.00,0.0021
3059.00,0.0021
3058.00,0.0021
3057.00,0.0021
3056.00,0.0022
3055.00,0.0022
3054.00,0.0022
3053.00,0.0022
3052.00,0.0022
3051.00,0.0022
3050.00,0.0022
3049.00,0.0022
3048.00,0.0023
3047.00,0.0023
3046.00,0.0023
3045.00,0.0023
3044.00,0.0023
3043.00,0.0023
3042.00,0.0023
3041.00,0.0024
3040.00,0.0024
3039.00,0.0025
3038.00,0.0025
3037.00,0.0025
3036.00,0.0025
3035.00,0.0025
3034.00,0.0026
3033.00,0.0026
3032.00,0.0027
3031.00,0.0027
3030.00,0.0028
3029.00,0.0029
3028.00,0.0030
3027.00,0.0031
3026.00,0.0032
3025.00,0.0032
3024.00,0.0032
3023.00,0.0033
3022.00,0.0033
3021.00,0.0033
3020.00,0.0034
3019.00,0.0035
3018.00,0.0036
3017.00,0.0037
3016.00,0.0037
3015.00,0.0038
3014.00,0.0040
3013.00,0.0041
3012.00,0.0042
3011.00,0.0044
3010.00,0.0046
3009.00,0.0047
3008.00,0.0049
3007.00,0.0051
3006.00,0.0053
3005.00,0.0055
3004.00,0.0057
3003.00,0.0059
3002.00,0.0061
3001.00,0.0064
3000.00,0.0066
2999.00,0.0069
2998.00,0.0072
2997.00,0.0076
2996.00,0.0080
2995.00,0.0085
2994.00,0.0090
2993.00,0.0095
2992.00,0.0100
2991.00,0.0106
2990.00,0.0113
2989.00,0.0120
2988.00,0.0128
2987.00,0.0137
2986.00,0.0147
2985.00,0.0158
2984.00,0.0171
2983.00,0.0185
2982.00,0.0201
2981.00,0.0219
2980.00,0.0239
2979.00,0.0262
2978.00,0.0287
2977.00,0.0316
2976.00,0.0349
2975.00,0.0386
2974.00,0.0428
2973.00,0.0475
2972.00,0.0528
2971.00,0.0587
2970.00,0.0652
2969.00,0.0723
2968.00,0.0797
2967.00,0.0876
2966.00,0.0956
2965.00,0.1035
2964.00,0.1110
2963.00,0.1179
2962.00,0.1240
2961.00,0.1292
2960.00,0.1338
2959.00,0.1383
2958.00,0.1431
2957.00,0.1488
2956.00,0.1557
2955.00,0.1640
2954.00,0.1735
2953.00,0.1835
2952.00,0.1930
2951.00,0.2007
2950.00,0.2054
2949.00,0.2060
2948.00,0.2018
2947.00,0.1930
2946.00,0.1805
2945.00,0.1661
2944.00,0.1513
2943.00,0.1380
2942.00,0.1269
2941.00,0.1188
2940.00,0.1136
2939.00,0.1110
2938.00,0.1109
2937.00,0.1130
2936.00,0.1169
2935.00,0.1226
2934.00,0.1299
2933.00,0.1387
2932.00,0.1488
2931.00,0.1600
2930.00,0.1720
2929.00,0.1843
2928.00,0.1967
2927.00,0.2089
2926.00,0.2206
2925.00,0.2319
2924.00,0.2429
2923.00,0.2538
2922.00,0.2647
2921.00,0.2752
2920.00,0.2847
2919.00,0.2924
2918.00,0.2970
2917.00,0.2978
2916.00,0.2942
2915.00,0.2868
2914.00,0.2766
2913.00,0.2646
2912.00,0.2522
2911.00,0.2402
2910.00,0.2289
2909.00,0.2185
2908.00,0.2088
2907.00,0.1997
2906.00,0.1909
2905.00,0.1824
2904.00,0.1740
2903.00,0.1659
2902.00,0.1581
2901.00,0.1506
2900.00,0.1436
2899.00,0.1371
2898.00,0.1311
2897.00,0.1257
2896.00,0.1209
2895.00,0.1169
2894.00,0.1136
2893.00,0.1111
2892.00,0.1093
2891.00,0.1082
2890.00,0.1078
2889.00,0.1078
2888.00,0.1083
2887.00,0.1092
2886.00,0.1105
2885.00,0.1122
2884.00,0.1145
2883.00,0.1173
2882.00,0.1206
2881.00,0.1244
2880.00,0.1281
2879.00,0.1313
2878.00,0.1336
2877.00,0.1347
2876.00,0.1346
2875.00,0.1338
2874.00,0.1329
2873.00,0.1324
2872.00,0.1328
2871.00,0.1343
2870.00,0.1364
2869.00,0.1388
2868.00,0.1405
2867.00,0.1404
2866.00,0.1377
2865.00,0.1318
2864.00,0.1231
2863.00,0.1125
2862.00,0.1013
2861.00,0.0907
2860.00,0.0814
2859.00,0.0739
2858.00,0.0682
2857.00,0.0640
2856.00,0.0610
2855.00,0.0591
2854.00,0.0581
2853.00,0.0578
2852.00,0.0583
2851.00,0.0596
2850.00,0.0617
2849.00,0.0646
2848.00,0.0684
2847.00,0.0730
2846.00,0.0785
2845.00,0.0849
2844.00,0.0920
2843.00,0.0995
2842.00,0.1072
2841.00,0.1145
2840.00,0.1206
2839.00,0.1247
2838.00,0.1258
2837.00,0.1234
2836.00,0.1174
2835.00,0.1084
2834.00,0.0976
2833.00,0.0860
2832.00,0.0749
2831.00,0.0650
2830.00,0.0566
2829.00,0.0497
2828.00,0.0442
2827.00,0.0397
2826.00,0.0362
2825.00,0.0332
2824.00,0.0308
2823.00,0.0287
2822.00,0.0269
2821.00,0.0255
2820.00,0.0242
2819.00,0.0232
2818.00,0.0222
2817.00,0.0214
2816.00,0.0207
2815.00,0.0200
2814.00,0.0194
2813.00,0.0188
2812.00,0.0182
2811.00,0.0176
2810.00,0.0170
2809.00,0.0164
2808.00,0.0158
2807.00,0.0151
2806.00,0.0145
2805.00,0.0138
2804.00,0.0132
2803.00,0.0126
2802.00,0.0120
2801.00,0.0115
2800.00,0.0111
2799.00,0.0108
2798.00,0.0105
2797.00,0.0102
2796.00,0.0099
2795.00,0.0096
2794.00,0.0094
2793.00,0.0091
2792.00,0.0088
2791.00,0.0085
2790.00,0.0083
2789.00,0.0080
2788.00,0.0077
2787.00,0.0074
2786.00,0.0071
2785.00,0.0069
2784.00,0.0067
2783.00,0.0066
2782.00,0.0064
2781.00,0.0063
2780.00,0.0061
2779.00,0.0059
2778.00,0.0058
2777.00,0.0056
2776.00,0.0055
2775.00,0.0054
2774.00,0.0054
2773.00,0.0053
2772.00,0.0053
2771.00,0.0052
2770.00,0.0051
2769.00,0.0051
2768.00,0.0050
2767.00,0.0050
2766.00,0.0050
2765.00,0.0050
2764.00,0.0050
2763.00,0.0049
2762.00,0.0049
2761.00,0.0049
2760.00,0.0048
2759.00,0.0048
2758.00,0.0047
2757.00,0.0047
2756.00,0.0048
2755.00,0.0048
2754.00,0.0048
2753.00,0.0047
2752.00,0.0047
2751.00,0.0046
2750.00,0.0046
2749.00,0.0046
2748.00,0.0047
2747.00,0.0048
2746.00,0.0049
2745.00,0.0049
2744.00,0.0050
2743.00,0.0050
2742.00,0.0051
2741.00,0.0053
2740.00,0.0054
2739.00,0.0056
2738.00,0.0057
2737.00,0.0059
2736.00,0.0061
2735.00,0.0062
2734.00,0.0064
2733.00,0.0066
2732.00,0.0068
2731.00,0.0070
2730.00,0.0073
2729.00,0.0076
2728.00,0.0079
2727.00,0.0082
2726.00,0.0085
2725.00,0.0088
2724.00,0.0090
2723.00,0.0090
2722.00,0.0089
2721.00,0.0087
2720.00,0.0084
2719.00,0.0081
2718.00,0.0077
2717.00,0.0073
2716.00,0.0070
2715.00,0.0066
2714.00,0.0063
2713.00,0.0061
2712.00,0.0059
2711.00,0.0056
2710.00,0.0054
2709.00,0.0053
2708.00,0.0051
2707.00,0.0049
2706.00,0.0048
2705.00,0.0047
2704.00,0.0046
2703.00,0.0046
2702.00,0.0045
2701.00,0.0044
2700.00,0.0043
2699.00,0.0042
2698.00,0.0041
2697.00,0.0041
2696.00,0.0040
2695.00,0.0040
2694.00,0.0040
2693.00,0.0040
2692.00,0.0040
2691.00,0.0040
2690.00,0.0040
2689.00,0.0040
2688.00,0.0040
2687.00,0.0040
2686.00,0.0040
2685.00,0.0040
2684.00,0.0040
2683.00,0.0040
2682.00,0.0040
2681.00,0.0041
2680.00,0.0041
2679.00,0.0041
2678.00,0.0042
2677.00,0.0042
2676.00,0.0042
2675.00,0.0042
2674.00,0.0042
2673.00,0.0042
2672.00,0.0042
2671.00,0.0042
2670.00,0.0042
2669.00,0.0042
2668.00,0.0042
2667.00,0.0042
2666.00,0.0042
2665.00,0.0042
2664.00,0.0043
2663.00,0.0043
2662.00,0.0044
2661.00,0.0045
2660.00,0.0045
2659.00,0.0045
2658.00,0.0045
2657.00,0.0044
2656.00,0.0044
2655.00,0.0044
2654.00,0.0043
2653.00,0.0042
2652.00,0.0042
2651.00,0.0041
2650.00,0.0041
2649.00,0.0040
2648.00,0.0040
2647.00,0.0039
2646.00,0.0038
2645.00,0.0038
2644.00,0.0037
2643.00,0.0037
2642.00,0.0037
2641.00,0.0036
2640.00,0.0036
2639.00,0.0036
2638.00,0.0036
2637.00,0.0036
2636.00,0.0035
2635.00,0.0035
2634.00,0.0035
2633.00,0.0036
2632.00,0.0036
2631.00,0.0036
2630.00,0.0036
2629.00,0.0036
2628.00,0.0036
2627.00,0.0036
2626.00,0.0036
2625.00,0.0036
2624.00,0.0037
2623.00,0.0037
2622.00,0.0037
2621.00,0.0037
2620.00,0.0038
2619.00,0.0038
2618.00,0.0037
2617.00,0.0037
2616.00,0.0037
2615.00,0.0038
2614.00,0.0038
2613.00,0.0038
2612.00,0.0037
2611.00,0.0036
2610.00,0.0035
2609.00,0.0035
2608.00,0.0035
2607.00,0.0034
2606.00,0.0034
2605.00,0.0033
2604.00,0.0032
2603.00,0.0030
2602.00,0.0029
2601.00,0.0029
2600.00,0.0029
2599.00,0.0029
2598.00,0.0029
2597.00,0.0030
2596.00,0.0030
2595.00,0.0031
2594.00,0.0031
2593.00,0.0032
2592.00,0.0032
2591.00,0.0033
2590.00,0.0034
2589.00,0.0035
2588.00,0.0036
2587.00,0.0037
2586.00,0.0037
2585.00,0.0038
2584.00,0.0038
2583.00,0.0038
2582.00,0.0037
2581.00,0.0037
2580.00,0.0037
2579.00,0.0036
2578.00,0.0035
2577.00,0.0034
2576.00,0.0033
2575.00,0.0032
2574.00,0.0031
2573.00,0.0030
2572.00,0.0029
2571.00,0.0028
2570.00,0.0027
2569.00,0.0026
2568.00,0.0026
2567.00,0.0025
2566.00,0.0024
2565.00,0.0024
2564.00,0.0023
2563.00,0.0022
2562.00,0.0022
2561.00,0.0022
2560.00,0.0022
2559.00,0.0021
2558.00,0.0021
2557.00,0.0020
2556.00,0.0020
2555.00,0.0020
2554.00,0.0020
2553.00,0.0020
2552.00,0.0020
2551.00,0.0019
2550.00,0.0018
2549.00,0.0017
2548.00,0.0017
2547.00,0.0017
2546.00,0.0017
2545.00,0.0017
2544.00,0.0017
2543.00,0.0016
2542.00,0.0015
2541.00,0.0015
2540.00,0.0014
2539.00,0.0014
2538.00,0.0013
2537.00,0.0014
2536.00,0.0013
2535.00,0.0013
2534.00,0.0013
2533.00,0.0013
2532.00,0.0013
2531.00,0.0013
2530.00,0.0013
2529.00,0.0013
2528.00,0.0013
2527.00,0.0013
2526.00,0.0012
2525.00,0.0012
2524.00,0.0011
2523.00,0.0011
2522.00,0.0010
2521.00,0.0010
2520.00,0.0010
2519.00,0.0009
2518.00,0.0008
2517.00,0.0007
2516.00,0.0007
2515.00,0.0007
2514.00,0.0007
2513.00,0.0008
2512.00,0.0008
2511.00,0.0009
2510.00,0.0009
2509.00,0.0008
2508.00,0.0008
2507.00,0.0008
2506.00,0.0008
2505.00,0.0007
2504.00,0.0007
2503.00,0.0007
2502.00,0.0007
2501.00,0.0008
2500.00,0.0008
2499.00,0.0009
2498.00,0.0009
2497.00,0.0009
2496.00,0.0008
2495.00,0.0008
2494.00,0.0008
2493.00,0.0008
2492.00,0.0008
2491.00,0.0008
2490.00,0.0008
2489.00,0.0008
2488.00,0.0008
2487.00,0.0008
2486.00,0.0008
2485.00,0.0008
2484.00,0.0007
2483.00,0.0007
2482.00,0.0007
2481.00,0.0007
2480.00,0.0007
2479.00,0.0007
2478.00,0.0007
2477.00,0.0007
2476.00,0.0007
2475.00,0.0008
2474.00,0.0008
2473.00,0.0008
2472.00,0.0007
2471.00,0.0007
2470.00,0.0007
2469.00,0.0008
2468.00,0.0008
2467.00,0.0007
2466.00,0.0006
2465.00,0.0006
2464.00,0.0006
2463.00,0.0006
2462.00,0.0007
2461.00,0.0007
2460.00,0.0007
2459.00,0.0008
2458.00,0.0008
2457.00,0.0009
2456.00,0.0010
2455.00,0.0011
2454.00,0.0010
2453.00,0.0010
2452.00,0.0009
2451.00,0.0009
2450.00,0.0009
2449.00,0.0009
2448.00,0.0009
2447.00,0.0008
2446.00,0.0008
2445.00,0.0008
2444.00,0.0008
2443.00,0.0008
2442.00,0.0008
2441.00,0.0008
2440.00,0.0008
2439.00,0.0008
2438.00,0.0008
2437.00,0.0007
2436.00,0.0008
2435.00,0.0008
2434.00,0.0009
2433.00,0.0010
2432.00,0.0010
2431.00,0.0010
2430.00,0.0010
2429.00,0.0009
2428.00,0.0009
2427.00,0.0009
2426.00,0.0009
2425.00,0.0009
2424.00,0.0009
2423.00,0.0008
2422.00,0.0008
2421.00,0.0007
2420.00,0.0007
2419.00,0.0007
2418.00,0.0007
2417.00,0.0007
2416.00,0.0007
2415.00,0.0007
2414.00,0.0007
2413.00,0.0006
2412.00,0.0006
2411.00,0.0006
2410.00,0.0006
2409.00,0.0007
2408.00,0.0007
2407.00,0.0007
2406.00,0.0007
2405.00,0.0007
2404.00,0.0006
2403.00,0.0006
2402.00,0.0006
2401.00,0.0006
2400.00,0.0006
2399.00,0.0006
2398.00,0.0006
2397.00,0.0006
2396.00,0.0005
2395.00,0.0005
2394.00,0.0005
2393.00,0.0006
2392.00,0.0006
2391.00,0.0006
2390.00,0.0005
2389.00,0.0005
2388.00,0.0004
2387.00,0.0003
2386.00,0.0003
2385.00,0.0002
2384.00,0.0001
2383.00,0.0001
2382.00,0.0000
2381.00,0.0000
2380.00,-0.0000
2379.00,-0.0001
2378.00,-0.0001
2377.00,-0.0001
2376.00,-0.0001
2375.00,-0.0001
2374.00,-0.0001
2373.00,-0.0001
2372.00,-0.0001
2371.00,-0.0001
2370.00,-0.0002
2369.00,-0.0002
2368.00,-0.0003
2367.00,-0.0003
2366.00,-0.0003
2365.00,-0.0003
2364.00,-0.0002
2363.00,-0.0002
2362.00,-0.0001
2361.00,-0.0001
2360.00,-0.0001
2359.00,-0.0001
2358.00,-0.0001
2357.00,-0.0002
2356.00,-0.0001
2355.00,-0.0001
2354.00,-0.0001
2353.00,-0.0001
2352.00,-0.0001
2351.00,-0.0001
2350.00,-0.0001
2349.00,-0.0001
2348.00,-0.0001
2347.00,-0.0001
2346.00,-0.0000
2345.00,0.0001
2344.00,0.0001
2343.00,0.0002
2342.00,0.0002
2341.00,0.0002
2340.00,0.0003
2339.00,0.0003
2338.00,0.0003
2337.00,0.0003
2336.00,0.0003
2335.00,0.0002
2334.00,0.0002
2333.00,0.0002
2332.00,0.0002
2331.00,0.0003
2330.00,0.0003
2329.00,0.0004
2328.00,0.0005
2327.00,0.0009
2326.00,0.0013
2325.00,0.0016
2324.00,0.0019
2323.00,0.0019
2322.00,0.0017
2321.00,0.0015
2320.00,0.0013
2319.00,0.0011
2318.00,0.0010
2317.00,0.0009
2316.00,0.0007
2315.00,0.0007
2314.00,0.0006
2313.00,0.0006
2312.00,0.0005
2311.00,0.0005
2310.00,0.0005
2309.00,0.0005
2308.00,0.0006
2307.00,0.0006
2306.00,0.0007
2305.00,0.0007
2304.00,0.0007
2303.00,0.0008
2302.00,0.0008
2301.00,0.0008
2300.00,0.0008
2299.00,0.0009
2298.00,0.0009
2297.00,0.0009
2296.00,0.0009
2295.00,0.0010
2294.00,0.0011
2293.00,0.0013
2292.00,0.0014
2291.00,0.0014
2290.00,0.0015
2289.00,0.0016
2288.00,0.0017
2287.00,0.0018
2286.00,0.0017
2285.00,0.0017
2284.00,0.0016
2283.00,0.0014
2282.00,0.0013
2281.00,0.0011
2280.00,0.0010
2279.00,0.0010
2278.00,0.0010
2277.00,0.0010
2276.00,0.0011
2275.00,0.0010
2274.00,0.0009
2273.00,0.0009
2272.00,0.0009
2271.00,0.0009
2270.00,0.0010
2269.00,0.0011
2268.00,0.0011
2267.00,0.0010
2266.00,0.0009
2265.00,0.0009
2264.00,0.0010
2263.00,0.0011
2262.00,0.0011
2261.00,0.0011
2260.00,0.0011
2259.00,0.0010
2258.00,0.0009
2257.00,0.0007
2256.00,0.0004
2255.00,0.0002
2254.00,0.0002
2253.00,0.0003
2252.00,0.0005
2251.00,0.0006
2250.00,0.0007
2249.00,0.0006
2248.00,0.0006
2247.00,0.0006
2246.00,0.0006
2245.00,0.0007
2244.00,0.0007
2243.00,0.0007
2242.00,0.0007
2241.00,0.0007
2240.00,0.0007
2239.00,0.0007
2238.00,0.0008
2237.00,0.0008
2236.00,0.0008
2235.00,0.0008
2234.00,0.0008
2233.00,0.0009
2232.00,0.0009
2231.00,0.0008
2230.00,0.0006
2229.00,0.0005
2228.00,0.0004
2227.00,0.0002
2226.00,0.0001
2225.00,0.0000
2224.00,0.0000
2223.00,0.0001
2222.00,0.0002
2221.00,0.0004
2220.00,0.0006
2219.00,0.0005
2218.00,0.0004
2217.00,0.0003
2216.00,0.0003
2215.00,0.0002
2214.00,0.0000
2213.00,-0.0002
2212.00,-0.0003
2211.00,-0.0003
2210.00,-0.0001
2209.00,0.0000
2208.00,0.0000
2207.00,0.0000
2206.00,0.0001
2205.00,0.0003
2204.00,0.0005
2203.00,0.0006
2202.00,0.0007
2201.00,0.0005
2200.00,0.0003
2199.00,0.0001
2198.00,-0.0000
2197.00,-0.0000
2196.00,0.0001
2195.00,0.0003
2194.00,0.0004
2193.00,0.0003
2192.00,0.0003
2191.00,0.0002
2190.00,0.0003
2189.00,0.0006
2188.00,0.0008
2187.00,0.0009
2186.00,0.0010
2185.00,0.0010
2184.00,0.0008
2183.00,0.0003
2182.00,-0.0001
2181.00,-0.0004
2180.00,-0.0003
2179.00,-0.0000
2178.00,0.0001
2177.00,0.0000
2176.00,-0.0002
2175.00,-0.0004
2174.00,-0.0005
2173.00,-0.0004
2172.00,-0.0003
2171.00,0.0001
2170.00,0.0005
2169.00,0.0009
2168.00,0.0012
2167.00,0.0013
2166.00,0.0011
2165.00,0.0010
2164.00,0.0012
2163.00,0.0016
2162.00,0.0018
2161.00,0.0014
2160.00,0.0000
2159.00,-0.0018
2158.00,-0.0034
2157.00,-0.0039
2156.00,-0.0037
2155.00,-0.0030
2154.00,-0.0023
2153.00,-0.0017
2152.00,-0.0014
2151.00,-0.0012
2150.00,-0.0013
2149.00,-0.0015
2148.00,-0.0018
2147.00,-0.0021
2146.00,-0.0024
2145.00,-0.0024
2144.00,-0.0023
2143.00,-0.0022
2142.00,-0.0020
2141.00,-0.0018
2140.00,-0.0016
2139.00,-0.0015
2138.00,-0.0015
2137.00,-0.0016
2136.00,-0.0017
2135.00,-0.0019
2134.00,-0.0022
2133.00,-0.0023
2132.00,-0.0021
2131.00,-0.0019
2130.00,-0.0017
2129.00,-0.0015
2128.00,-0.0014
2127.00,-0.0013
2126.00,-0.0012
2125.00,-0.0010
2124.00,-0.0009
2123.00,-0.0009
2122.00,-0.0009
2121.00,-0.0008
2120.00,-0.0007
2119.00,-0.0006
2118.00,-0.0004
2117.00,-0.0002
2116.00,0.0001
2115.00,0.0003
2114.00,0.0003
2113.00,0.0003
2112.00,0.0002
2111.00,0.0000
2110.00,-0.0001
2109.00,-0.0002
2108.00,-0.0002
2107.00,-0.0001
2106.00,-0.0001
2105.00,-0.0001
2104.00,0.0000
2103.00,0.0001
2102.00,0.0001
2101.00,0.0000
2100.00,-0.0000
2099.00,-0.0001
2098.00,-0.0002
2097.00,-0.0004
2096.00,-0.0006
2095.00,-0.0008
2094.00,-0.0009
2093.00,-0.0008
2092.00,-0.0007
2091.00,-0.0005
2090.00,-0.0003
2089.00,-0.0002
2088.00,-0.0001
2087.00,-0.0001
2086.00,-0.0000
2085.00,0.0001
2084.00,0.0001
2083.00,0.0001
2082.00,-0.0000
2081.00,-0.0001
2080.00,-0.0001
2079.00,-0.0000
2078.00,0.0001
2077.00,0.0002
2076.00,0.0003
2075.00,0.0003
2074.00,0.0003
2073.00,0.0002
2072.00,-0.0000
2071.00,-0.0001
2070.00,-0.0002
2069.00,-0.0002
2068.00,-0.0002
2067.00,-0.0002
2066.00,-0.0003
2065.00,-0.0004
2064.00,-0.0004
2063.00,-0.0004
2062.00,-0.0003
2061.00,-0.0000
2060.00,0.0002
2059.00,0.0003
2058.00,0.0002
2057.00,0.0002
2056.00,0.0001
2055.00,0.0000
2054.00,0.0002
2053.00,0.0006
2052.00,0.0012
2051.00,0.0017
2050.00,0.0016
2049.00,0.0010
2048.00,0.0005
2047.00,0.0001
2046.00,0.0001
2045.00,0.0001
2044.00,0.0000
2043.00,-0.0001
2042.00,-0.0003
2041.00,-0.0004
2040.00,-0.0005
2039.00,-0.0005
2038.00,-0.0003
2037.00,0.0000
2036.00,0.0003
2035.00,0.0004
2034.00,0.0002
2033.00,-0.0002
2032.00,-0.0007
2031.00,-0.0011
2030.00,-0.0013
2029.00,-0.0015
2028.00,-0.0017
2027.00,-0.0018
2026.00,-0.0018
2025.00,-0.0017
2024.00,-0.0016
2023.00,-0.0016
2022.00,-0.0016
2021.00,-0.0016
2020.00,-0.0015
2019.00,-0.0015
2018.00,-0.0016
2017.00,-0.0016
2016.00,-0.0016
2015.00,-0.0016
2014.00,-0.0016
2013.00,-0.0015
2012.00,-0.0013
2011.00,-0.0011
2010.00,-0.0011
2009.00,-0.0011
2008.00,-0.0013
2007.00,-0.0015
2006.00,-0.0017
2005.00,-0.0016
2004.00,-0.0016
2003.00,-0.0016
2002.00,-0.0016
2001.00,-0.0016
2000.00,-0.0015
1999.00,-0.0014
1998.00,-0.0013
1997.00,-0.0011
1996.00,-0.0009
1995.00,-0.0009
1994.00,-0.0010
1993.00,-0.0011
1992.00,-0.0010
1991.00,-0.0008
1990.00,-0.0006
1989.00,-0.0004
1988.00,-0.0003
1987.00,-0.0002
1986.00,-0.0001
1985.00,0.0002
1984.00,0.0003
1983.00,0.0004
1982.00,0.0004
1981.00,0.0004
1980.00,0.0003
1979.00,-0.0001
1978.00,-0.0008
1977.00,-0.0015
1976.00,-0.0019
1975.00,-0.0019
1974.00,-0.0017
1973.00,-0.0015
1972.00,-0.0013
1971.00,-0.0013
1970.00,-0.0014
1969.00,-0.0015
1968.00,-0.0016
1967.00,-0.0017
1966.00,-0.0018
1965.00,-0.0019
1964.00,-0.0020
1963.00,-0.0019
1962.00,-0.0019
1961.00,-0.0019
1960.00,-0.0019
1959.00,-0.0020
1958.00,-0.0020
1957.00,-0.0018
1956.00,-0.0017
1955.00,-0.0016
1954.00,-0.0016
1953.00,-0.0017
1952.00,-0.0018
1951.00,-0.0019
1950.00,-0.0019
1949.00,-0.0018
1948.00,-0.0019
1947.00,-0.0019
1946.00,-0.0019
1945.00,-0.0018
1944.00,-0.0016
1943.00,-0.0015
1942.00,-0.0014
1941.00,-0.0014
1940.00,-0.0013
1939.00,-0.0012
1938.00,-0.0010
1937.00,-0.0009
1936.00,-0.0009
1935.00,-0.0010
1934.00,-0.0011
1933.00,-0.0011
1932.00,-0.0011
1931.00,-0.0010
1930.00,-0.0010
1929.00,-0.0010
1928.00,-0.0010
1927.00,-0.0011
1926.00,-0.0012
1925.00,-0.0012
1924.00,-0.0011
1923.00,-0.0009
1922.00,-0.0007
1921.00,-0.0006
1920.00,-0.0005
1919.00,-0.0005
1918.00,-0.0005
1917.00,-0.0005
1916.00,-0.0004
1915.00,-0.0005
1914.00,-0.0005
1913.00,-0.0006
1912.00,-0.0007
1911.00,-0.0007
1910.00,-0.0007
1909.00,-0.0006
1908.00,-0.0004
1907.00,-0.0003
1906.00,-0.0003
1905.00,-0.0004
1904.00,-0.0005
1903.00,-0.0006
1902.00,-0.0007
1901.00,-0.0006
1900.00,-0.0005
1899.00,-0.0004
1898.00,-0.0004
1897.00,-0.0004
1896.00,-0.0004
1895.00,-0.0005
1894.00,-0.0005
1893.00,-0.0004
1892.00,-0.0003
1891.00,-0.0002
1890.00,-0.0003
1889.00,-0.0003
1888.00,-0.0004
1887.00,-0.0004
1886.00,-0.0004
1885.00,-0.0003
1884.00,-0.0003
1883.00,-0.0004
1882.00,-0.0005
1881.00,-0.0005
1880.00,-0.0005
1879.00,-0.0005
1878.00,-0.0004
1877.00,-0.0004
1876.00,-0.0005
1875.00,-0.0005
1874.00,-0.0005
1873.00,-0.0005
1872.00,-0.0005
1871.00,-0.0005
1870.00,-0.0005
1869.00,-0.0005
1868.00,-0.0005
1867.00,-0.0004
1866.00,-0.0004
1865.00,-0.0003
1864.00,-0.0003
1863.00,-0.0002
1862.00,-0.0002
1861.00,-0.0002
1860.00,-0.0003
1859.00,-0.0003
1858.00,-0.0004
1857.00,-0.0004
1856.00,-0.0005
1855.00,-0.0005
1854.00,-0.0005
1853.00,-0.0005
1852.00,-0.0004
1851.00,-0.0004
1850.00,-0.0004
1849.00,-0.0004
1848.00,-0.0004
1847.00,-0.0004
1846.00,-0.0004
1845.00,-0.0004
1844.00,-0.0003
1843.00,-0.0002
1842.00,-0.0002
1841.00,-0.0002
1840.00,-0.0002
1839.00,-0.0002
1838.00,-0.0002
1837.00,-0.0001
1836.00,-0.0001
1835.00,-0.0000
1834.00,0.0000
1833.00,0.0001
1832.00,0.0000
1831.00,0.0000
1830.00,-0.0000
1829.00,-0.0001
1828.00,-0.0001
1827.00,-0.0001
1826.00,-0.0001
1825.00,0.0000
1824.00,0.0000
1823.00,0.0000
1822.00,-0.0001
1821.00,-0.0001
1820.00,-0.0001
1819.00,-0.0002
1818.00,-0.0003
1817.00,-0.0003
1816.00,-0.0003
1815.00,-0.0003
1814.00,-0.0003
1813.00,-0.0002
1812.00,-0.0001
1811.00,-0.0001
1810.00,-0.0001
1809.00,-0.0000
1808.00,-0.0000
1807.00,-0.0000
1806.00,0.0000
1805.00,0.0000
1804.00,0.0001
1803.00,0.0001
1802.00,0.0001
1801.00,0.0001
1800.00,0.0001
1799.00,0.0001
1798.00,0.0001
1797.00,0.0001
1796.00,0.0001
1795.00,0.0002
1794.00,0.0003
1793.00,0.0003
1792.00,0.0004
1791.00,0.0003
1790.00,0.0003
1789.00,0.0002
1788.00,0.0002
1787.00,0.0002
1786.00,0.0003
1785.00,0.0005
1784.00,0.0005
1783.00,0.0005
1782.00,0.0005
1781.00,0.0005
1780.00,0.0005
1779.00,0.0005
1778.00,0.0005
1777.00,0.0005
1776.00,0.0005
1775.00,0.0005
1774.00,0.0004
1773.00,0.0004
1772.00,0.0004
1771.00,0.0004
1770.00,0.0004
1769.00,0.0005
1768.00,0.0006
1767.00,0.0006
1766.00,0.0006
1765.00,0.0006
1764.00,0.0006
1763.00,0.0006
1762.00,0.0006
1761.00,0.0006
1760.00,0.0007
1759.00,0.0007
1758.00,0.0007
1757.00,0.0007
1756.00,0.0008
1755.00,0.0008
1754.00,0.0008
1753.00,0.0008
1752.00,0.0008
1751.00,0.0009
1750.00,0.0010
1749.00,0.0011
1748.00,0.0012
1747.00,0.0013
1746.00,0.0013
1745.00,0.0013
1744.00,0.0013
1743.00,0.0013
1742.00,0.0013
1741.00,0.0013
1740.00,0.0012
1739.00,0.0012
1738.00,0.0012
1737.00,0.0012
1736.00,0.0012
1735.00,0.0013
1734.00,0.0013
1733.00,0.0014
1732.00,0.0014
1731.00,0.0014
1730.00,0.0014
1729.00,0.0014
1728.00,0.0014
1727.00,0.0014
1726.00,0.0014
1725.00,0.0014
1724.00,0.0014
1723.00,0.0014
1722.00,0.0014
1721.00,0.0014
1720.00,0.0014
1719.00,0.0014
1718.00,0.0014
1717.00,0.0014
1716.00,0.0014
1715.00,0.0015
1714.00,0.0015
1713.00,0.0016
1712.00,0.0016
1711.00,0.0016
1710.00,0.0016
1709.00,0.0017
1708.00,0.0017
1707.00,0.0018
1706.00,0.0018
1705.00,0.0018
1704.00,0.0018
1703.00,0.0018
1702.00,0.0018
1701.00,0.0018
1700.00,0.0018
1699.00,0.0018
1698.00,0.0018
1697.00,0.0018
1696.00,0.0019
1695.00,0.0020
1694.00,0.0020
1693.00,0.0020
1692.00,0.0020
1691.00,0.0020
1690.00,0.0020
1689.00,0.0021
1688.00,0.0021
1687.00,0.0021
1686.00,0.0021
1685.00,0.0021
1684.00,0.0020
1683.00,0.0020
1682.00,0.0020
1681.00,0.0020
1680.00,0.0021
1679.00,0.0021
1678.00,0.0022
1677.00,0.0022
1676.00,0.0023
1675.00,0.0023
1674.00,0.0023
1673.00,0.0023
1672.00,0.0022
1671.00,0.0022
1670.00,0.0022
1669.00,0.0023
1668.00,0.0023
1667.00,0.0023
1666.00,0.0024
1665.00,0.0024
1664.00,0.0024
1663.00,0.0024
1662.00,0.0024
1661.00,0.0024
1660.00,0.0024
1659.00,0.0024
1658.00,0.0025
1657.00,0.0025
1656.00,0.0025
1655.00,0.0026
1654.00,0.0026
1653.00,0.0027
1652.00,0.0028
1651.00,0.0028
1650.00,0.0028
1649.00,0.0028
1648.00,0.0029
1647.00,0.0029
1646.00,0.0029
1645.00,0.0029
1644.00,0.0029
1643.00,0.0029
1642.00,0.0029
1641.00,0.0029
1640.00,0.0029
1639.00,0.0029
1638.00,0.0029
1637.00,0.0029
1636.00,0.0029
1635.00,0.0028
1634.00,0.0029
1633.00,0.0029
1632.00,0.0029
1631.00,0.0029
1630.00,0.0030
1629.00,0.0030
1628.00,0.0030
1627.00,0.0030
1626.00,0.0030
1625.00,0.0030
1624.00,0.0029
1623.00,0.0029
1622.00,0.0029
1621.00,0.0029
1620.00,0.0029
1619.00,0.0029
1618.00,0.0029
1617.00,0.0029
1616.00,0.0029
1615.00,0.0028
1614.00,0.0027
1613.00,0.0027
1612.00,0.0027
1611.00,0.0027
1610.00,0.0027
1609.00,0.0028
1608.00,0.0028
1607.00,0.0028
1606.00,0.0028
1605.00,0.0028
1604.00,0.0028
1603.00,0.0028
1602.00,0.0028
1601.00,0.0028
1600.00,0.0028
1599.00,0.0028
1598.00,0.0028
1597.00,0.0027
1596.00,0.0027
1595.00,0.0027
1594.00,0.0026
1593.00,0.0026
1592.00,0.0026
1591.00,0.0026
1590.00,0.0027
1589.00,0.0027
1588.00,0.0027
1587.00,0.0027
1586.00,0.0027
1585.00,0.0028
1584.00,0.0028
1583.00,0.0029
1582.00,0.0030
1581.00,0.0030
1580.00,0.0031
1579.00,0.0031
1578.00,0.0031
1577.00,0.0031
1576.00,0.0031
1575.00,0.0030
1574.00,0.0030
1573.00,0.0030
1572.00,0.0030
1571.00,0.0030
1570.00,0.0030
1569.00,0.0030
1568.00,0.0031
1567.00,0.0031
1566.00,0.0031
1565.00,0.0031
1564.00,0.0031
1563.00,0.0031
1562.00,0.0031
1561.00,0.0032
1560.00,0.0032
1559.00,0.0032
1558.00,0.0031
1557.00,0.0031
1556.00,0.0032
1555.00,0.0032
1554.00,0.0032
1553.00,0.0032
1552.00,0.0032
1551.00,0.0033
1550.00,0.0033
1549.00,0.0034
1548.00,0.0035
1547.00,0.0035
1546.00,0.0036
1545.00,0.0037
1544.00,0.0038
1543.00,0.0039
1542.00,0.0038
1541.00,0.0038
1540.00,0.0037
1539.00,0.0036
1538.00,0.0036
1537.00,0.0036
1536.00,0.0036
1535.00,0.0036
1534.00,0.0035
1533.00,0.0034
1532.00,0.0034
1531.00,0.0034
1530.00,0.0034
1529.00,0.0034
1528.00,0.0035
1527.00,0.0035
1526.00,0.0035
1525.00,0.0036
1524.00,0.0036
1523.00,0.0036
1522.00,0.0036
1521.00,0.0037
1520.00,0.0038
1519.00,0.0037
1518.00,0.0037
1517.00,0.0037
1516.00,0.0037
1515.00,0.0038
1514.00,0.0039
1513.00,0.0041
1512.00,0.0042
1511.00,0.0043
1510.00,0.0044
1509.00,0.0045
1508.00,0.0046
1507.00,0.0047
1506.00,0.0049
1505.00,0.0051
1504.00,0.0053
1503.00,0.0053
1502.00,0.0054
1501.00,0.0056
1500.00,0.0058
1499.00,0.0059
1498.00,0.0061
1497.00,0.0064
1496.00,0.0067
1495.00,0.0070
1494.00,0.0071
1493.00,0.0074
1492.00,0.0077
1491.00,0.0080
1490.00,0.0084
1489.00,0.0088
1488.00,0.0093
1487.00,0.0098
1486.00,0.0102
1485.00,0.0109
1484.00,0.0116
1483.00,0.0123
1482.00,0.0131
1481.00,0.0141
1480.00,0.0153
1479.00,0.0165
1478.00,0.0179
1477.00,0.0198
1476.00,0.0220
1475.00,0.0246
1474.00,0.0282
1473.00,0.0337
1472.00,0.0404
1471.00,0.0471
1470.00,0.0537
1469.00,0.0607
1468.00,0.0684
1467.00,0.0769
1466.00,0.0867
1465.00,0.0974
1464.00,0.1069
1463.00,0.1138
1462.00,0.1185
1461.00,0.1217
1460.00,0.1240
1459.00,0.1255
1458.00,0.1263
1457.00,0.1265
1456.00,0.1261
1455.00,0.1250
1454.00,0.1235
1453.00,0.1213
1452.00,0.1180
1451.00,0.1133
1450.00,0.1071
1449.00,0.0990
1448.00,0.0890
1447.00,0.0789
1446.00,0.0700
1445.00,0.0625
1444.00,0.0563
1443.00,0.0513
1442.00,0.0477
1441.00,0.0454
1440.00,0.0442
1439.00,0.0440
1438.00,0.0445
1437.00,0.0450
1436.00,0.0441
1435.00,0.0414
1434.00,0.0372
1433.00,0.0322
1432.00,0.0271
1431.00,0.0226
1430.00,0.0192
1429.00,0.0168
1428.00,0.0151
1427.00,0.0140
1426.00,0.0133
1425.00,0.0127
1424.00,0.0121
1423.00,0.0118
1422.00,0.0115
1421.00,0.0113
1420.00,0.0109
1419.00,0.0106
1418.00,0.0105
1417.00,0.0103
1416.00,0.0102
1415.00,0.0102
1414.00,0.0102
1413.00,0.0101
1412.00,0.0100
1411.00,0.0100
1410.00,0.0100
1409.00,0.0100
1408.00,0.0099
1407.00,0.0099
1406.00,0.0099
1405.00,0.0099
1404.00,0.0099
1403.00,0.0101
1402.00,0.0103
1401.00,0.0105
1400.00,0.0106
1399.00,0.0108
1398.00,0.0111
1397.00,0.0113
1396.00,0.0116
1395.00,0.0121
1394.00,0.0127
1393.00,0.0133
1392.00,0.0140
1391.00,0.0149
1390.00,0.0162
1389.00,0.0180
1388.00,0.0207
1387.00,0.0249
1386.00,0.0303
1385.00,0.0371
1384.00,0.0460
1383.00,0.0581
1382.00,0.0742
1381.00,0.0951
1380.00,0.1215
1379.00,0.1527
1378.00,0.1844
1377.00,0.2097
1376.00,0.2210
1375.00,0.2130
1374.00,0.1876
1373.00,0.1548
1372.00,0.1240
1371.00,0.0983
1370.00,0.0778
1369.00,0.0623
1368.00,0.0517
1367.00,0.0451
1366.00,0.0416
1365.00,0.0403
1364.00,0.0406
1363.00,0.0422
1362.00,0.0448
1361.00,0.0475
1360.00,0.0495
1359.00,0.0501
1358.00,0.0487
1357.00,0.0455
1356.00,0.0411
1355.00,0.0361
1354.00,0.0312
1353.00,0.0271
1352.00,0.0238
1351.00,0.0212
1350.00,0.0191
1349.00,0.0174
1348.00,0.0161
1347.00,0.0151
1346.00,0.0143
1345.00,0.0137
1344.00,0.0132
1343.00,0.0128
1342.00,0.0124
1341.00,0.0120
1340.00,0.0118
1339.00,0.0116
1338.00,0.0114
1337.00,0.0114
1336.00,0.0115
1335.00,0.0118
1334.00,0.0121
1333.00,0.0126
1332.00,0.0131
1331.00,0.0135
1330.00,0.0137
1329.00,0.0135
1328.00,0.0130
1327.00,0.0123
1326.00,0.0115
1325.00,0.0108
1324.00,0.0101
1323.00,0.0095
1322.00,0.0091
1321.00,0.0087
1320.00,0.0084
1319.00,0.0082
1318.00,0.0080
1317.00,0.0078
1316.00,0.0076
1315.00,0.0075
1314.00,0.0074
1313.00,0.0074
1312.00,0.0075
1311.00,0.0077
1310.00,0.0080
1309.00,0.0085
1308.00,0.0091
1307.00,0.0099
1306.00,0.0107
1305.00,0.0113
1304.00,0.0117
1303.00,0.0117
1302.00,0.0116
1301.00,0.0115
1300.00,0.0115
1299.00,0.0117
1298.00,0.0119
1297.00,0.0121
1296.00,0.0121
1295.00,0.0119
1294.00,0.0116
1293.00,0.0111
1292.00,0.0105
1291.00,0.0099
1290.00,0.0093
1289.00,0.0089
1288.00,0.0085
1287.00,0.0082
1286.00,0.0080
1285.00,0.0077
1284.00,0.0075
1283.00,0.0073
1282.00,0.0071
1281.00,0.0070
1280.00,0.0069
1279.00,0.0068
1278.00,0.0068
1277.00,0.0067
1276.00,0.0067
1275.00,0.0066
1274.00,0.0066
1273.00,0.0066
1272.00,0.0066
1271.00,0.0067
1270.00,0.0067
1269.00,0.0066
1268.00,0.0066
1267.00,0.0067
1266.00,0.0067
1265.00,0.0068
1264.00,0.0070
1263.00,0.0072
1262.00,0.0075
1261.00,0.0079
1260.00,0.0083
1259.00,0.0089
1258.00,0.0094
1257.00,0.0098
1256.00,0.0099
1255.00,0.0098
1254.00,0.0094
1253.00,0.0090
1252.00,0.0086
1251.00,0.0082
1250.00,0.0079
1249.00,0.0077
1248.00,0.0075
1247.00,0.0074
1246.00,0.0073
1245.00,0.0072
1244.00,0.0072
1243.00,0.0071
1242.00,0.0070
1241.00,0.0070
1240.00,0.0070
1239.00,0.0069
1238.00,0.0068
1237.00,0.0068
1236.00,0.0067
1235.00,0.0067
1234.00,0.0068
1233.00,0.0068
1232.00,0.0069
1231.00,0.0069
1230.00,0.0069
1229.00,0.0069
1228.00,0.0070
1227.00,0.0071
1226.00,0.0074
1225.00,0.0077
1224.00,0.0080
1223.00,0.0083
1222.00,0.0087
1221.00,0.0090
1220.00,0.0092
1219.00,0.0093
1218.00,0.0093
1217.00,0.0092
1216.00,0.0089
1215.00,0.0086
1214.00,0.0083
1213.00,0.0079
1212.00,0.0076
1211.00,0.0073
1210.00,0.0071
1209.00,0.0069
1208.00,0.0067
1207.00,0.0065
1206.00,0.0064
1205.00,0.0063
1204.00,0.0063
1203.00,0.0063
1202.00,0.0062
1201.00,0.0062
1200.00,0.0062
1199.00,0.0061
1198.00,0.0061
1197.00,0.0061
1196.00,0.0061
1195.00,0.0060
1194.00,0.0060
1193.00,0.0060
1192.00,0.0060
1191.00,0.0060
1190.00,0.0060
1189.00,0.0061
1188.00,0.0061
1187.00,0.0061
1186.00,0.0062
1185.00,0.0062
1184.00,0.0063
1183.00,0.0064
1182.00,0.0065
1181.00,0.0067
1180.00,0.0069
1179.00,0.0072
1178.00,0.0077
1177.00,0.0083
1176.00,0.0091
1175.00,0.0103
1174.00,0.0117
1173.00,0.0136
1172.00,0.0158
1171.00,0.0181
1170.00,0.0203
1169.00,0.0221
1168.00,0.0233
1167.00,0.0237
1166.00,0.0235
1165.00,0.0228
1164.00,0.0219
1163.00,0.0209
1162.00,0.0201
1161.00,0.0193
1160.00,0.0187
1159.00,0.0183
1158.00,0.0180
1157.00,0.0178
1156.00,0.0177
1155.00,0.0176
1154.00,0.0175
1153.00,0.0173
1152.00,0.0169
1151.00,0.0164
1150.00,0.0156
1149.00,0.0147
1148.00,0.0138
1147.00,0.0129
1146.00,0.0120
1145.00,0.0112
1144.00,0.0105
1143.00,0.0099
1142.00,0.0094
1141.00,0.0089
1140.00,0.0084
1139.00,0.0079
1138.00,0.0075
1137.00,0.0071
1136.00,0.0068
1135.00,0.0065
1134.00,0.0064
1133.00,0.0062
1132.00,0.0061
1131.00,0.0060
1130.00,0.0060
1129.00,0.0060
1128.00,0.0061
1127.00,0.0063
1126.00,0.0064
1125.00,0.0064
1124.00,0.0063
1123.00,0.0063
1122.00,0.0063
1121.00,0.0063
1120.00,0.0063
1119.00,0.0064
1118.00,0.0064
1117.00,0.0065
1116.00,0.0066
1115.00,0.0067
1114.00,0.0068
1113.00,0.0070
1112.00,0.0072
1111.00,0.0075
1110.00,0.0079
1109.00,0.0084
1108.00,0.0090
1107.00,0.0098
1106.00,0.0107
1105.00,0.0115
1104.00,0.0122
1103.00,0.0127
1102.00,0.0127
1101.00,0.0124
1100.00,0.0118
1099.00,0.0110
1098.00,0.0103
1097.00,0.0096
1096.00,0.0090
1095.00,0.0084
1094.00,0.0079
1093.00,0.0076
1092.00,0.0073
1091.00,0.0072
1090.00,0.0070
1089.00,0.0069
1088.00,0.0068
1087.00,0.0066
1086.00,0.0065
1085.00,0.0064
1084.00,0.0063
1083.00,0.0062
1082.00,0.0062
1081.00,0.0061
1080.00,0.0060
1079.00,0.0060
1078.00,0.0059
1077.00,0.0059
1076.00,0.0059
1075.00,0.0059
1074.00,0.0058
1073.00,0.0057
1072.00,0.0057
1071.00,0.0057
1070.00,0.0058
1069.00,0.0058
1068.00,0.0058
1067.00,0.0058
1066.00,0.0059
1065.00,0.0059
1064.00,0.0059
1063.00,0.0060
1062.00,0.0061
1061.00,0.0061
1060.00,0.0061
1059.00,0.0061
1058.00,0.0061
1057.00,0.0062
1056.00,0.0063
1055.00,0.0064
1054.00,0.0064
1053.00,0.0064
1052.00,0.0064
1051.00,0.0064
1050.00,0.0064
1049.00,0.0066
1048.00,0.0069
1047.00,0.0071
1046.00,0.0073
1045.00,0.0074
1044.00,0.0073
1043.00,0.0072
1042.00,0.0071
1041.00,0.0070
1040.00,0.0070
1039.00,0.0071
1038.00,0.0071
1037.00,0.0072
1036.00,0.0072
1035.00,0.0072
1034.00,0.0071
1033.00,0.0071
1032.00,0.0070
1031.00,0.0071
1030.00,0.0071
1029.00,0.0072
1028.00,0.0072
1027.00,0.0072
1026.00,0.0072
1025.00,0.0071
1024.00,0.0070
1023.00,0.0070
1022.00,0.0071
1021.00,0.0071
1020.00,0.0071
1019.00,0.0072
1018.00,0.0072
1017.00,0.0074
1016.00,0.0075
1015.00,0.0077
1014.00,0.0079
1013.00,0.0082
1012.00,0.0086
1011.00,0.0090
1010.00,0.0093
1009.00,0.0097
1008.00,0.0100
1007.00,0.0105
1006.00,0.0111
1005.00,0.0119
1004.00,0.0129
1003.00,0.0143
1002.00,0.0161
1001.00,0.0184
1000.00,0.0206
999.00,0.0225
998.00,0.0233
997.00,0.0228
996.00,0.0210
995.00,0.0185
994.00,0.0159
993.00,0.0136
992.00,0.0119
991.00,0.0106
990.00,0.0097
989.00,0.0091
988.00,0.0087
987.00,0.0085
986.00,0.0086
985.00,0.0088
984.00,0.0093
983.00,0.0100
982.00,0.0111
981.00,0.0126
980.00,0.0146
979.00,0.0171
978.00,0.0201
977.00,0.0234
976.00,0.0268
975.00,0.0297
974.00,0.0316
973.00,0.0320
972.00,0.0305
971.00,0.0277
970.00,0.0241
969.00,0.0205
968.00,0.0174
967.00,0.0151
966.00,0.0133
965.00,0.0120
964.00,0.0109
963.00,0.0100
962.00,0.0093
961.00,0.0087
960.00,0.0083
959.00,0.0080
958.00,0.0078
957.00,0.0076
956.00,0.0074
955.00,0.0072
954.00,0.0071
953.00,0.0069
952.00,0.0068
951.00,0.0068
950.00,0.0068
949.00,0.0069
948.00,0.0072
947.00,0.0074
946.00,0.0076
945.00,0.0078
944.00,0.0082
943.00,0.0085
942.00,0.0089
941.00,0.0090
940.00,0.0089
939.00,0.0086
938.00,0.0082
937.00,0.0078
936.00,0.0073
935.00,0.0069
934.00,0.0065
933.00,0.0061
932.00,0.0059
931.00,0.0058
930.00,0.0057
929.00,0.0055
928.00,0.0054
927.00,0.0054
926.00,0.0054
925.00,0.0054
924.00,0.0055
923.00,0.0056
922.00,0.0058
921.00,0.0059
920.00,0.0060
919.00,0.0062
918.00,0.0063
917.00,0.0064
916.00,0.0066
915.00,0.0066
914.00,0.0067
913.00,0.0068
912.00,0.0069
911.00,0.0069
910.00,0.0070
909.00,0.0072
908.00,0.0075
907.00,0.0080
906.00,0.0087
905.00,0.0099
904.00,0.0115
903.00,0.0136
902.00,0.0160
901.00,0.0182
900.00,0.0196
899.00,0.0200
898.00,0.0192
897.00,0.0175
896.00,0.0152
895.00,0.0131
894.00,0.0113
893.00,0.0099
892.00,0.0088
891.00,0.0080
890.00,0.0074
889.00,0.0070
888.00,0.0067
887.00,0.0065
886.00,0.0064
885.00,0.0063
884.00,0.0062
883.00,0.0061
882.00,0.0060
881.00,0.0061
880.00,0.0062
879.00,0.0063
878.00,0.0064
877.00,0.0064
876.00,0.0064
875.00,0.0064
874.00,0.0063
873.00,0.0063
872.00,0.0063
871.00,0.0063
870.00,0.0064
869.00,0.0063
868.00,0.0063
867.00,0.0063
866.00,0.0063
865.00,0.0064
864.00,0.0065
863.00,0.0067
862.00,0.0069
861.00,0.0072
860.00,0.0074
859.00,0.0076
858.00,0.0076
857.00,0.0076
856.00,0.0077
855.00,0.0078
854.00,0.0079
853.00,0.0081
852.00,0.0084
851.00,0.0088
850.00,0.0092
849.00,0.0097
848.00,0.0103
847.00,0.0112
846.00,0.0126
845.00,0.0147
844.00,0.0173
843.00,0.0199
842.00,0.0215
841.00,0.0216
840.00,0.0200
839.00,0.0176
838.00,0.0152
837.00,0.0133
836.00,0.0120
835.00,0.0112
834.00,0.0106
833.00,0.0103
832.00,0.0100
831.00,0.0098
830.00,0.0096
829.00,0.0095
828.00,0.0093
827.00,0.0092
826.00,0.0091
825.00,0.0090
824.00,0.0090
823.00,0.0091
822.00,0.0092
821.00,0.0094
820.00,0.0097
819.00,0.0100
818.00,0.0105
817.00,0.0111
816.00,0.0121
815.00,0.0134
814.00,0.0149
813.00,0.0167
812.00,0.0185
811.00,0.0201
810.00,0.0212
809.00,0.0218
808.00,0.0216
807.00,0.0207
806.00,0.0193
805.00,0.0176
804.00,0.0159
803.00,0.0143
802.00,0.0131
801.00,0.0120
800.00,0.0113
799.00,0.0107
798.00,0.0101
797.00,0.0095
796.00,0.0089
795.00,0.0085
794.00,0.0082
793.00,0.0080
792.00,0.0079
791.00,0.0077
790.00,0.0076
789.00,0.0073
788.00,0.0071
787.00,0.0070
786.00,0.0069
785.00,0.0067
784.00,0.0063
783.00,0.0060
782.00,0.0056
781.00,0.0054
780.00,0.0053
779.00,0.0052
778.00,0.0053
777.00,0.0052
776.00,0.0052
775.00,0.0053
774.00,0.0054
773.00,0.0056
772.00,0.0058
771.00,0.0060
770.00,0.0063
769.00,0.0065
768.00,0.0067
767.00,0.0068
766.00,0.0067
765.00,0.0065
764.00,0.0061
763.00,0.0058
762.00,0.0056
761.00,0.0054
760.00,0.0052
759.00,0.0050
758.00,0.0048
757.00,0.0047
756.00,0.0045
755.00,0.0044
754.00,0.0043
753.00,0.0042
752.00,0.0042
751.00,0.0043
750.00,0.0045
749.00,0.0045
748.00,0.0047
747.00,0.0048
746.00,0.0049
745.00,0.0049
744.00,0.0049
743.00,0.0049
742.00,0.0050
741.00,0.0051
740.00,0.0052
739.00,0.0053
738.00,0.0054
737.00,0.0055
736.00,0.0055
735.00,0.0056
734.00,0.0056
733.00,0.0057
732.00,0.0057
731.00,0.0057
730.00,0.0057
729.00,0.0055
728.00,0.0052
727.00,0.0050
726.00,0.0050
725.00,0.0051
724.00,0.0051
723.00,0.0051
722.00,0.0050
721.00,0.0049
720.00,0.0048
719.00,0.0048
718.00,0.0048
717.00,0.0049
716.00,0.0049
715.00,0.0048
714.00,0.0046
713.00,0.0045
712.00,0.0045
711.00,0.0045
710.00,0.0046
709.00,0.0045
708.00,0.0044
707.00,0.0043
706.00,0.0044
705.00,0.0045
704.00,0.0045
703.00,0.0045
702.00,0.0044
701.00,0.0043
700.00,0.0043
699.00,0.0041
698.00,0.0039
697.00,0.0037
696.00,0.0037
695.00,0.0039
694.00,0.0040
693.00,0.0041
692.00,0.0040
691.00,0.0039
690.00,0.0038
689.00,0.0038
688.00,0.0038
687.00,0.0039
686.00,0.0039
685.00,0.0039
684.00,0.0039
683.00,0.0039
682.00,0.0038
681.00,0.0038
680.00,0.0038
679.00,0.0039
678.00,0.0039
677.00,0.0040
676.00,0.0040
675.00,0.0040
674.00,0.0040
673.00,0.0040
672.00,0.0039
671.00,0.0040
670.00,0.0042
669.00,0.0045
668.00,0.0049
667.00,0.0048
666.00,0.0045
665.00,0.0042
664.00,0.0042
663.00,0.0043
662.00,0.0043
661.00,0.0041
660.00,0.0039
659.00,0.0037
658.00,0.0037
657.00,0.0037
656.00,0.0037
655.00,0.0038
654.00,0.0039
653.00,0.0039
652.00,0.0038
651.00,0.0038
650.00,0.0038
649.00,0.0039
648.00,0.0039
647.00,0.0040
646.00,0.0040
645.00,0.0039
644.00,0.0038
643.00,0.0037
642.00,0.0037
641.00,0.0040
640.00,0.0042
639.00,0.0043
638.00,0.0043
637.00,0.0042
636.00,0.0042
635.00,0.0042
634.00,0.0042
633.00,0.0042
632.00,0.0041
631.00,0.0039
630.00,0.0037
629.00,0.0036
628.00,0.0037
627.00,0.0039
626.00,0.0040
625.00,0.0039
624.00,0.0039
623.00,0.0040
622.00,0.0040
621.00,0.0040
620.00,0.0040
619.00,0.0040
618.00,0.0040
617.00,0.0041
616.00,0.0042
615.00,0.0043
614.00,0.0043
613.00,0.0042
612.00,0.0041
611.00,0.0042
610.00,0.0044
609.00,0.0047
608.00,0.0049
607.00,0.0051
606.00,0.0052
605.00,0.0052
604.00,0.0050
603.00,0.0047
602.00,0.0044
601.00,0.0042
600.00,0.0040
599.00,0.0039
598.00,0.0039
597.00,0.0039
596.00,0.0039
595.00,0.0040
594.00,0.0042
593.00,0.0042
592.00,0.0041
591.00,0.0040
590.00,0.0039
589.00,0.0038
588.00,0.0039
587.00,0.0041
586.00,0.0044
585.00,0.0046
584.00,0.0048
583.00,0.0049
582.00,0.0051
581.00,0.0052
580.00,0.0051
579.00,0.0052
578.00,0.0052
577.00,0.0054
576.00,0.0055
575.00,0.0055
574.00,0.0055
573.00,0.0054
572.00,0.0054
571.00,0.0055
570.00,0.0055
569.00,0.0055
568.00,0.0054
567.00,0.0053
566.00,0.0054
565.00,0.0054
564.00,0.0053
563.00,0.0051
562.00,0.0049
561.00,0.0048
560.00,0.0050
559.00,0.0053
558.00,0.0055
557.00,0.0053
556.00,0.0049
555.00,0.0047
554.00,0.0048
553.00,0.0054
552.00,0.0061
551.00,0.0065
550.00,0.0065
549.00,0.0060
548.00,0.0055
547.00,0.0052
546.00,0.0050
545.00,0.0051
544.00,0.0053
543.00,0.0056
542.00,0.0060
541.00,0.0063
540.00,0.0065
539.00,0.0066
538.00,0.0067
537.00,0.0067
536.00,0.0068
535.00,0.0069
534.00,0.0072
533.00,0.0075
532.00,0.0075
531.00,0.0074
530.00,0.0075
529.00,0.0078
528.00,0.0083
527.00,0.0085
526.00,0.0083
525.00,0.0077
524.00,0.0072
523.00,0.0070
522.00,0.0071
521.00,0.0070
520.00,0.0066
519.00,0.0062
518.00,0.0059
517.00,0.0059
516.00,0.0058
515.00,0.0055
514.00,0.0051
513.00,0.0047
512.00,0.0044
511.00,0.0045
510.00,0.0051
509.00,0.0056
508.00,0.0057
507.00,0.0055
506.00,0.0055
505.00,0.0055
504.00,0.0056
503.00,0.0055
502.00,0.0055
501.00,0.0056
500.00,0.0058
499.00,0.0058
498.00,0.0059
497.00,0.0061
496.00,0.0061
495.00,0.0058
494.00,0.0054
493.00,0.0050
492.00,0.0047
491.00,0.0044
490.00,0.0043
489.00,0.0045
488.00,0.0047
487.00,0.0048
486.00,0.0045
485.00,0.0042
484.00,0.0042
483.00,0.0046
482.00,0.0053
481.00,0.0061
480.00,0.0066
479.00,0.0065
478.00,0.0062
477.00,0.0062
476.00,0.0069
475.00,0.0081
474.00,0.0091
473.00,0.0092
472.00,0.0088
471.00,0.0084
470.00,0.0083
469.00,0.0085
468.00,0.0087
467.00,0.0088
466.00,0.0088
465.00,0.0088
464.00,0.0087
463.00,0.0089
462.00,0.0096
461.00,0.0108
460.00,0.0122
459.00,0.0132
458.00,0.0135
457.00,0.0129
456.00,0.0120
455.00,0.0115
454.00,0.0117
453.00,0.0119
452.00,0.0115
451.00,0.0105
450.00,0.0092
