Created as New Dataset,Sample 079 By Administrator Date Wednesday, September 10 2025
cm-1,A
4000.00,0.0008
3999.00,0.0008
3998.00,0.0008
3997.00,0.0008
3996.00,0.0008
3995.00,0.0008
3994.00,0.0008
3993.00,0.0008
3992.00,0.0009
3991.00,0.0009
3990.00,0.0009
3989.00,0.0009
3988.00,0.0009
3987.00,0.0009
3986.00,0.0009
3985.00,0.0009
3984.00,0.0008
3983.00,0.0008
3982.00,0.0008
3981.00,0.0008
3980.00,0.0008
3979.00,0.0008
3978.00,0.0008
3977.00,0.0008
3976.00,0.0008
3975.00,0.0008
3974.00,0.0007
3973.00,0.0007
3972.00,0.0007
3971.00,0.0007
3970.00,0.0007
3969.00,0.0008
3968.00,0.0008
3967.00,0.0008
3966.00,0.0008
3965.00,0.0008
3964.00,0.0008
3963.00,0.0008
3962.00,0.0007
3961.00,0.0008
3960.00,0.0008
3959.00,0.0008
3958.00,0.0007
3957.00,0.0007
3956.00,0.0007
3955.00,0.0007
3954.00,0.0007
3953.00,0.0008
3952.00,0.0008
3951.00,0.0008
3950.00,0.0008
3949.00,0.0007
3948.00,0.0007
3947.00,0.0007
3946.00,0.0007
3945.00,0.0007
3944.00,0.0007
3943.00,0.0007
3942.00,0.0007
3941.00,0.0008
3940.00,0.0008
3939.00,0.0008
3938.00,0.0007
3937.00,0.0007
3936.00,0.0007
3935.00,0.0007
3934.00,0.0007
3933.00,0.0007
3932.00,0.0007
3931.00,0.0007
3930.00,0.0007
3929.00,0.0007
3928.00,0.0007
3927.00,0.0007
3926.00,0.0007
3925.00,0.0007
3924.00,0.0008
3923.00,0.0008
3922.00,0.0008
3921.00,0.0007
3920.00,0.0007
3919.00,0.0007
3918.00,0.0007
3917.00,0.0007
3916.00,0.0007
3915.00,0.0007
3914.00,0.0007
3913.00,0.0007
3912.00,0.0007
3911.00,0.0007
3910.00,0.0007
3909.00,0.0007
3908.00,0.0006
3907.00,0.0006
3906.00,0.0007
3905.00,0.0007
3904.00,0.0007
3903.00,0.0007
3902.00,0.0007
3901.00,0.0006
3900.00,0.0006
3899.00,0.0006
3898.00,0.0006
3897.00,0.0006
3896.00,0.0006
3895.00,0.0006
3894.00,0.0006
3893.00,0.0006
3892.00,0.0006
3891.00,0.0005
3890.00,0.0005
3889.00,0.0005
3888.00,0.0005
3887.00,0.0005
3886.00,0.0005
3885.00,0.0005
3884.00,0.0006
3883.00,0.0006
3882.00,0.0006
3881.00,0.0006
3880.00,0.0006
3879.00,0.0006
3878.00,0.0006
3877.00,0.0006
3876.00,0.0007
3875.00,0.0007
3874.00,0.0007
3873.00,0.0007
3872.00,0.0007
3871.00,0.0007
3870.00,0.0007
3869.00,0.0006
3868.00,0.0006
3867.00,0.0006
3866.00,0.0006
3865.00,0.0006
3864.00,0.0006
3863.00,0.0006
3862.00,0.0006
3861.00,0.0006
3860.00,0.0006
3859.00,0.0006
3858.00,0.0006
3857.00,0.0005
3856.00,0.0005
3855.00,0.0005
3854.00,0.0005
3853.00,0.0005
3852.00,0.0005
3851.00,0.0006
3850.00,0.0006
3849.00,0.0006
3848.00,0.0006
3847.00,0.0006
3846.00,0.0006
3845.00,0.0006
3844.00,0.0006
3843.00,0.0006
3842.00,0.0006
3841.00,0.0005
3840.00,0.0005
3839.00,0.0005
3838.00,0.0004
3837.00,0.0004
3836.00,0.0004
3835.00,0.0005
3834.00,0.0005
3833.00,0.0005
3832.00,0.0006
3831.00,0.0007
3830.00,0.0007
3829.00,0.0007
3828.00,0.0007
3827.00,0.0007
3826.00,0.0006
3825.00,0.0006
3824.00,0.0006
3823.00,0.0006
3822.00,0.0006
3821.00,0.0005
3820.00,0.0005
3819.00,0.0005
3818.00,0.0005
3817.00,0.0005
3816.00,0.0005
3815.00,0.0006
3814.00,0.0006
3813.00,0.0007
3812.00,0.0007
3811.00,0.0007
3810.00,0.0007
3809.00,0.0006
3808.00,0.0006
3807.00,0.0006
3806.00,0.0005
3805.00,0.0005
3804.00,0.0005
3803.00,0.0005
3802.00,0.0005
3801.00,0.0006
3800.00,0.0006
3799.00,0.0006
3798.00,0.0006
3797.00,0.0006
3796.00,0.0006
3795.00,0.0007
3794.00,0.0007
3793.00,0.0007
3792.00,0.0007
3791.00,0.0007
3790.00,0.0006
3789.00,0.0006
3788.00,0.0006
3787.00,0.0007
3786.00,0.0007
3785.00,0.0007
3784.00,0.0007
3783.00,0.0007
3782.00,0.0007
3781.00,0.0007
3780.00,0.0007
3779.00,0.0007
3778.00,0.0007
3777.00,0.0007
3776.00,0.0007
3775.00,0.0007
3774.00,0.0007
3773.00,0.0007
3772.00,0.0007
3771.00,0.0007
3770.00,0.0008
3769.00,0.0007
3768.00,0.0007
3767.00,0.0007
3766.00,0.0007
3765.00,0.0007
3764.00,0.0007
3763.00,0.0007
3762.00,0.0007
3761.00,0.0007
3760.00,0.0006
3759.00,0.0006
3758.00,0.0005
3757.00,0.0005
3756.00,0.0005
3755.00,0.0005
3754.00,0.0005
3753.00,0.0005
3752.00,0.0005
3751.00,0.0004
3750.00,0.0004
3749.00,0.0004
3748.00,0.0004
3747.00,0.0004
3746.00,0.0003
3745.00,0.0003
3744.00,0.0003
3743.00,0.0004
3742.00,0.0005
3741.00,0.0005
3740.00,0.0005
3739.00,0.0005
3738.00,0.0005
3737.00,0.0005
3736.00,0.0005
3735.00,0.0005
3734.00,0.0005
3733.00,0.0005
3732.00,0.0005
3731.00,0.0005
3730.00,0.0005
3729.00,0.0005
3728.00,0.0005
3727.00,0.0005
3726.00,0.0005
3725.00,0.0004
3724.00,0.0004
3723.00,0.0004
3722.00,0.0005
3721.00,0.0006
3720.00,0.0006
3719.00,0.0006
3718.00,0.0006
3717.00,0.0006
3716.00,0.0006
3715.00,0.0005
3714.00,0.0004
3713.00,0.0004
3712.00,0.0004
3711.00,0.0004
3710.00,0.0005
3709.00,0.0006
3708.00,0.0006
3707.00,0.0006
3706.00,0.0006
3705.00,0.0006
3704.00,0.0006
3703.00,0.0006
3702.00,0.0006
3701.00,0.0006
3700.00,0.0006
3699.00,0.0007
3698.00,0.0007
3697.00,0.0006
3696.00,0.0006
3695.00,0.0006
3694.00,0.0005
3693.00,0.0005
3692.00,0.0004
3691.00,0.0004
3690.00,0.0004
3689.00,0.0005
3688.00,0.0006
3687.00,0.0006
3686.00,0.0006
3685.00,0.0006
3684.00,0.0006
3683.00,0.0006
3682.00,0.0007
3681.00,0.0007
3680.00,0.0007
3679.00,0.0007
3678.00,0.0007
3677.00,0.0007
3676.00,0.0007
3675.00,0.0006
3674.00,0.0005
3673.00,0.0005
3672.00,0.0005
3671.00,0.0006
3670.00,0.0007
3669.00,0.0007
3668.00,0.0006
3667.00,0.0006
3666.00,0.0006
3665.00,0.0006
3664.00,0.0007
3663.00,0.0007
3662.00,0.0008
3661.00,0.0008
3660.00,0.0008
3659.00,0.0008
3658.00,0.0007
3657.00,0.0006
3656.00,0.0006
3655.00,0.0007
3654.00,0.0007
3653.00,0.0007
3652.00,0.0007
3651.00,0.0006
3650.00,0.0005
3649.00,0.0005
3648.00,0.0006
3647.00,0.0006
3646.00,0.0006
3645.00,0.0007
3644.00,0.0007
3643.00,0.0007
3642.00,0.0008
3641.00,0.0008
3640.00,0.0008
3639.00,0.0008
3638.00,0.0008
3637.00,0.0008
3636.00,0.0008
3635.00,0.0008
3634.00,0.0008
3633.00,0.0008
3632.00,0.0008
3631.00,0.0007
3630.00,0.0007
3629.00,0.0007
3628.00,0.0006
3627.00,0.0007
3626.00,0.0007
3625.00,0.0007
3624.00,0.0008
3623.00,0.0008
3622.00,0.0008
3621.00,0.0007
3620.00,0.0007
3619.00,0.0007
3618.00,0.0008
3617.00,0.0008
3616.00,0.0008
3615.00,0.0009
3614.00,0.0009
3613.00,0.0009
3612.00,0.0009
3611.00,0.0009
3610.00,0.0009
3609.00,0.0009
3608.00,0.0009
3607.00,0.0009
3606.00,0.0010
3605.00,0.0010
3604.00,0.0009
3603.00,0.0009
3602.00,0.0009
3601.00,0.0009
3600.00,0.0010
3599.00,0.0010
3598.00,0.0011
3597.00,0.0012
3596.00,0.0012
3595.00,0.0012
3594.00,0.0012
3593.00,0.0011
3592.00,0.0011
3591.00,0.0011
3590.00,0.0011
3589.00,0.0012
3588.00,0.0012
3587.00,0.0013
3586.00,0.0013
3585.00,0.0014
3584.00,0.0014
3583.00,0.0014
3582.00,0.0014
3581.00,0.0014
3580.00,0.0014
3579.00,0.0013
3578.00,0.0013
3577.00,0.0014
3576.00,0.0014
3575.00,0.0014
3574.00,0.0014
3573.00,0.0014
3572.00,0.0015
3571.00,0.0015
3570.00,0.0016
3569.00,0.0016
3568.00,0.0016
3567.00,0.0016
3566.00,0.0016
3565.00,0.0016
3564.00,0.0016
3563.00,0.0016
3562.00,0.0017
3561.00,0.0017
3560.00,0.0017
3559.00,0.0018
3558.00,0.0018
3557.00,0.0019
3556.00,0.0019
3555.00,0.0019
3554.00,0.0020
3553.00,0.0020
3552.00,0.0020
3551.00,0.0020
3550.00,0.0020
3549.00,0.0020
3548.00,0.0020
3547.00,0.0020
3546.00,0.0020
3545.00,0.0021
3544.00,0.0021
3543.00,0.0022
3542.00,0.0022
3541.00,0.0022
3540.00,0.0022
3539.00,0.0022
3538.00,0.0023
3537.00,0.0023
3536.00,0.0024
3535.00,0.0024
3534.00,0.0025
3533.00,0.0025
3532.00,0.0025
3531.00,0.0024
3530.00,0.0024
3529.00,0.0024
3528.00,0.0025
3527.00,0.0025
3526.00,0.0025
3525.00,0.0025
3524.00,0.0025
3523.00,0.0026
3522.00,0.0026
3521.00,0.0027
3520.00,0.0027
3519.00,0.0027
3518.00,0.0027
3517.00,0.0028
3516.00,0.0028
3515.00,0.0028
3514.00,0.0029
3513.00,0.0030
3512.00,0.0030
3511.00,0.0030
3510.00,0.0029
3509.00,0.0029
3508.00,0.0030
3507.00,0.0030
3506.00,0.0030
3505.00,0.0030
3504.00,0.0031
3503.00,0.0031
3502.00,0.0031
3501.00,0.0031
3500.00,0.0031
3499.00,0.0032
3498.00,0.0032
3497.00,0.0032
3496.00,0.0033
3495.00,0.0033
3494.00,0.0033
3493.00,0.0034
3492.00,0.0034
3491.00,0.0034
3490.00,0.0034
3489.00,0.0034
3488.00,0.0035
3487.00,0.0034
3486.00,0.0034
3485.00,0.0034
3484.00,0.0035
3483.00,0.0035
3482.00,0.0035
3481.00,0.0036
3480.00,0.0036
3479.00,0.0036
3478.00,0.0036
3477.00,0.0036
3476.00,0.0037
3475.00,0.0037
3474.00,0.0038
3473.00,0.0038
3472.00,0.0038
3471.00,0.0038
3470.00,0.0038
3469.00,0.0039
3468.00,0.0039
3467.00,0.0039
3466.00,0.0039
3465.00,0.0039
3464.00,0.0039
3463.00,0.0040
3462.00,0.0040
3461.00,0.0040
3460.00,0.0040
3459.00,0.0040
3458.00,0.0041
3457.00,0.0041
3456.00,0.0041
3455.00,0.0042
3454.00,0.0042
3453.00,0.0042
3452.00,0.0042
3451.00,0.0042
3450.00,0.0041
3449.00,0.0041
3448.00,0.0042
3447.00,0.0042
3446.00,0.0042
3445.00,0.0043
3444.00,0.0043
3443.00,0.0043
3442.00,0.0043
3441.00,0.0044
3440.00,0.0044
3439.00,0.0044
3438.00,0.0044
3437.00,0.0044
3436.00,0.0044
3435.00,0.0044
3434.00,0.0045
3433.00,0.0045
3432.00,0.0046
3431.00,0.0046
3430.00,0.0046
3429.00,0.0047
3428.00,0.0047
3427.00,0.0047
3426.00,0.0047
3425.00,0.0047
3424.00,0.0047
3423.00,0.0047
3422.00,0.0048
3421.00,0.0048
3420.00,0.0048
3419.00,0.0048
3418.00,0.0048
3417.00,0.0048
3416.00,0.0048
3415.00,0.0048
3414.00,0.0048
3413.00,0.0049
3412.00,0.0049
3411.00,0.0049
3410.00,0.0049
3409.00,0.0049
3408.00,0.0049
3407.00,0.0049
3406.00,0.0049
3405.00,0.0049
3404.00,0.0049
3403.00,0.0049
3402.00,0.0049
3401.00,0.0049
3400.00,0.0049
3399.00,0.0049
3398.00,0.0050
3397.00,0.0050
3396.00,0.0050
3395.00,0.0050
3394.00,0.0050
3393.00,0.0050
3392.00,0.0050
3391.00,0.0050
3390.00,0.0050
3389.00,0.0050
3388.00,0.0050
3387.00,0.0050
3386.00,0.0050
3385.00,0.0050
3384.00,0.0050
3383.00,0.0050
3382.00,0.0050
3381.00,0.0050
3380.00,0.0050
3379.00,0.0050
3378.00,0.0051
3377.00,0.0051
3376.00,0.0050
3375.00,0.0050
3374.00,0.0050
3373.00,0.0050
3372.00,0.0051
3371.00,0.0051
3370.00,0.0051
3369.00,0.0051
3368.00,0.0050
3367.00,0.0050
3366.00,0.0050
3365.00,0.0050
3364.00,0.0050
3363.00,0.0050
3362.00,0.0050
3361.00,0.0050
3360.00,0.0051
3359.00,0.0051
3358.00,0.0051
3357.00,0.0051
3356.00,0.0051
3355.00,0.0051
3354.00,0.0050
3353.00,0.0050
3352.00,0.0050
3351.00,0.0050
3350.00,0.0050
3349.00,0.0050
3348.00,0.0049
3347.00,0.0049
3346.00,0.0049
3345.00,0.0049
3344.00,0.0049
3343.00,0.0050
3342.00,0.0050
3341.00,0.0050
3340.00,0.0050
3339.00,0.0050
3338.00,0.0050
3337.00,0.0050
3336.00,0.0050
3335.00,0.0050
3334.00,0.0049
3333.00,0.0049
3332.00,0.0049
3331.00,0.0049
3330.00,0.0049
3329.00,0.0049
3328.00,0.0048
3327.00,0.0048
3326.00,0.0048
3325.00,0.0048
3324.00,0.0048
3323.00,0.0048
3322.00,0.0048
3321.00,0.0048
3320.00,0.0048
3319.00,0.0048
3318.00,0.0048
3317.00,0.0048
3316.00,0.0048
3315.00,0.0048
3314.00,0.0048
3313.00,0.0048
3312.00,0.0047
3311.00,0.0047
3310.00,0.0047
3309.00,0.0047
3308.00,0.0047
3307.00,0.0047
3306.00,0.0046
3305.00,0.0046
3304.00,0.0046
3303.00,0.0046
3302.00,0.0046
3301.00,0.0046
3300.00,0.0046
3299.00,0.0045
3298.00,0.0045
3297.00,0.0045
3296.00,0.0045
3295.00,0.0044
3294.00,0.0044
3293.00,0.0044
3292.00,0.0044
3291.00,0.0044
3290.00,0.0045
3289.00,0.0045
3288.00,0.0044
3287.00,0.0044
3286.00,0.0044
3285.00,0.0044
3284.00,0.0044
3283.00,0.0044
3282.00,0.0044
3281.00,0.0044
3280.00,0.0044
3279.00,0.0043
3278.00,0.0043
3277.00,0.0043
3276.00,0.0043
3275.00,0.0042
3274.00,0.0042
3273.00,0.0042
3272.00,0.0042
3271.00,0.0042
3270.00,0.0042
3269.00,0.0042
3268.00,0.0042
3267.00,0.0042
3266.00,0.0042
3265.00,0.0041
3264.00,0.0041
3263.00,0.0041
3262.00,0.0041
3261.00,0.0041
3260.00,0.0040
3259.00,0.0040
3258.00,0.0040
3257.00,0.0040
3256.00,0.0040
3255.00,0.0040
3254.00,0.0040
3253.00,0.0039
3252.00,0.0039
3251.00,0.0039
3250.00,0.0039
3249.00,0.0039
3248.00,0.0039
3247.00,0.0039
3246.00,0.0039
3245.00,0.0039
3244.00,0.0039
3243.00,0.0039
3242.00,0.0039
3241.00,0.0038
3240.00,0.0038
3239.00,0.0038
3238.00,0.0038
3237.00,0.0038
3236.00,0.0038
3235.00,0.0038
3234.00,0.0038
3233.00,0.0038
3232.00,0.0038
3231.00,0.0038
3230.00,0.0038
3229.00,0.0038
3228.00,0.0038
3227.00,0.0038
3226.00,0.0038
3225.00,0.0038
3224.00,0.0038
3223.00,0.0038
3222.00,0.0038
3221.00,0.0038
3220.00,0.0038
3219.00,0.0038
3218.00,0.0038
3217.00,0.0038
3216.00,0.0039
3215.00,0.0039
3214.00,0.0039
3213.00,0.0039
3212.00,0.0039
3211.00,0.0039
3210.00,0.0039
3209.00,0.0039
3208.00,0.0039
3207.00,0.0039
3206.00,0.0039
3205.00,0.0039
3204.00,0.0039
3203.00,0.0039
3202.00,0.0039
3201.00,0.0038
3200.00,0.0038
3199.00,0.0038
3198.00,0.0038
3197.00,0.0039
3196.00,0.0039
3195.00,0.0039
3194.00,0.0039
3193.00,0.0039
3192.00,0.0039
3191.00,0.0039
3190.00,0.0039
3189.00,0.0038
3188.00,0.0038
3187.00,0.0038
3186.00,0.0038
3185.00,0.0038
3184.00,0.0038
3183.00,0.0037
3182.00,0.0037
3181.00,0.0036
3180.00,0.0036
3179.00,0.0035
3178.00,0.0035
3177.00,0.0035
3176.00,0.0035
3175.00,0.0035
3174.00,0.0035
3173.00,0.0035
3172.00,0.0035
3171.00,0.0035
3170.00,0.0035
3169.00,0.0035
3168.00,0.0034
3167.00,0.0034
3166.00,0.0034
3165.00,0.0034
3164.00,0.0033
3163.00,0.0033
3162.00,0.0033
3161.00,0.0033
3160.00,0.0033
3159.00,0.0033
3158.00,0.0033
3157.00,0.0033
3156.00,0.0033
3155.00,0.0033
3154.00,0.0033
3153.00,0.0033
3152.00,0.0033
3151.00,0.0032
3150.00,0.0032
3149.00,0.0032
3148.00,0.0032
3147.00,0.0032
3146.00,0.0032
3145.00,0.0031
3144.00,0.0031
3143.00,0.0031
3142.00,0.0031
3141.00,0.0031
3140.00,0.0031
3139.00,0.0031
3138.00,0.0031
3137.00,0.0031
3136.00,0.0030
3135.00,0.0030
3134.00,0.0030
3133.00,0.0030
3132.00,0.0030
3131.00,0.0030
3130.00,0.0030
3129.00,0.0030
3128.00,0.0030
3127.00,0.0029
3126.00,0.0029
3125.00,0.0028
3124.00,0.0028
3123.00,0.0028
3122.00,0.0028
3121.00,0.0028
3120.00,0.0028
3119.00,0.0028
3118.00,0.0027
3117.00,0.0027
3116.00,0.0027
3115.00,0.0027
3114.00,0.0027
3113.00,0.0027
3112.00,0.0026
3111.00,0.0026
3110.00,0.0026
3109.00,0.0026
3108.00,0.0026
3107.00,0.0026
3106.00,0.0026
3105.00,0.0026
3104.00,0.0026
3103.00,0.0026
3102.00,0.0025
3101.00,0.0025
3100.00,0.0025
3099.00,0.0025
3098.00,0.0025
3097.00,0.0025
3096.00,0.0025
3095.00,0.0025
3094.00,0.0024
3093.00,0.0024
3092.00,0.0024
3091.00,0.0024
3090.00,0.0024
3089.00,0.0024
3088.00,0.0024
3087.00,0.0024
3086.00,0.0024
3085.00,0.0024
3084.00,0.0024
3083.00,0.0023
3082.00,0.0023
3081.00,0.0023
3080.00,0.0023
3079.00,0.0023
3078.00,0.0023
3077.00,0.0023
3076.00,0.0023
3075.00,0.0023
3074.00,0.0023
3073.00,0.0023
3072.00,0.0024
3071.00,0.0024
3070.00,0.0024
3069.00,0.0024
3068.00,0.0024
3067.00,0.0024
3066.00,0.0024
3065.00,0.0024
3064.00,0.0025
3063.00,0.0025
3062.00,0.0025
3061.00,0.0025
3060.00,0.0024
3059.00,0.0025
3058.00,0.0025
3057.00,0.0025
3056.00,0.0025
3055.00,0.0025
3054.00,0.0025
3053.00,0.0025
3052.00,0.0025
3051.00,0.0025
3050.00,0.0025
3049.00,0.0025
3048.00,0.0025
3047.00,0.0026
3046.00,0.0026
3045.00,0.0026
3044.00,0.0026
3043.00,0.0026
3042.00,0.0027
3041.00,0.0027
3040.00,0.0028
3039.00,0.0028
3038.00,0.0028
3037.00,0.0028
3036.00,0.0028
3035.00,0.0028
3034.00,0.0028
3033.00,0.0028
3032.00,0.0028
3031.00,0.0028
3030.00,0.0029
3029.00,0.0029
3028.00,0.0030
3027.00,0.0031
3026.00,0.0031
3025.00,0.0031
3024.00,0.0031
3023.00,0.0031
3022.00,0.0031
3021.00,0.0032
3020.00,0.0033
3019.00,0.0033
3018.00,0.0034
3017.00,0.0035
3016.00,0.0035
3015.00,0.0036
3014.00,0.0037
3013.00,0.0038
3012.00,0.0039
3011.00,0.0040
3010.00,0.0041
3009.00,0.0042
3008.00,0.0043
3007.00,0.0044
3006.00,0.0045
3005.00,0.0047
3004.00,0.0048
3003.00,0.0049
3002.00,0.0051
3001.00,0.0053
3000.00,0.0055
2999.00,0.0057
2998.00,0.0059
2997.00,0.0061
2996.00,0.0064
2995.00,0.0067
2994.00,0.0070
2993.00,0.0073
2992.00,0.0077
2991.00,0.0081
2990.00,0.0085
2989.00,0.0090
2988.00,0.0096
2987.00,0.0102
2986.00,0.0109
2985.00,0.0116
2984.00,0.0125
2983.00,0.0134
2982.00,0.0144
2981.00,0.0156
2980.00,0.0169
2979.00,0.0183
2978.00,0.0200
2977.00,0.0218
2976.00,0.0240
2975.00,0.0264
2974.00,0.0292
2973.00,0.0324
2972.00,0.0360
2971.00,0.0401
2970.00,0.0446
2969.00,0.0496
2968.00,0.0551
2967.00,0.0611
2966.00,0.0674
2965.00,0.0739
2964.00,0.0805
2963.00,0.0869
2962.00,0.0928
2961.00,0.0977
2960.00,0.1016
2959.00,0.1044
2958.00,0.1063
2957.00,0.1076
2956.00,0.1088
2955.00,0.1102
2954.00,0.1119
2953.00,0.1139
2952.00,0.1156
2951.00,0.1167
2950.00,0.1164
2949.00,0.1144
2948.00,0.1105
2947.00,0.1049
2946.00,0.0979
2945.00,0.0904
2944.00,0.0829
2943.00,0.0764
2942.00,0.0710
2941.00,0.0672
2940.00,0.0649
2939.00,0.0639
2938.00,0.0641
2937.00,0.0653
2936.00,0.0675
2935.00,0.0705
2934.00,0.0742
2933.00,0.0786
2932.00,0.0835
2931.00,0.0889
2930.00,0.0944
2929.00,0.0999
2928.00,0.1053
2927.00,0.1104
2926.00,0.1152
2925.00,0.1196
2924.00,0.1237
2923.00,0.1276
2922.00,0.1312
2921.00,0.1346
2920.00,0.1375
2919.00,0.1395
2918.00,0.1404
2917.00,0.1399
2916.00,0.1381
2915.00,0.1351
2914.00,0.1314
2913.00,0.1273
2912.00,0.1232
2911.00,0.1194
2910.00,0.1160
2909.00,0.1129
2908.00,0.1099
2907.00,0.1070
2906.00,0.1039
2905.00,0.1007
2904.00,0.0972
2903.00,0.0935
2902.00,0.0897
2901.00,0.0858
2900.00,0.0821
2899.00,0.0784
2898.00,0.0750
2897.00,0.0719
2896.00,0.0692
2895.00,0.0669
2894.00,0.0650
2893.00,0.0636
2892.00,0.0626
2891.00,0.0619
2890.00,0.0616
2889.00,0.0615
2888.00,0.0616
2887.00,0.0619
2886.00,0.0624
2885.00,0.0631
2884.00,0.0640
2883.00,0.0652
2882.00,0.0666
2881.00,0.0680
2880.00,0.0694
2879.00,0.0705
2878.00,0.0711
2877.00,0.0712
2876.00,0.0708
2875.00,0.0703
2874.00,0.0698
2873.00,0.0696
2872.00,0.0700
2871.00,0.0707
2870.00,0.0718
2869.00,0.0729
2868.00,0.0736
2867.00,0.0734
2866.00,0.0720
2865.00,0.0691
2864.00,0.0650
2863.00,0.0601
2862.00,0.0549
2861.00,0.0501
2860.00,0.0460
2859.00,0.0427
2858.00,0.0402
2857.00,0.0384
2856.00,0.0372
2855.00,0.0365
2854.00,0.0362
2853.00,0.0362
2852.00,0.0366
2851.00,0.0374
2850.00,0.0385
2849.00,0.0401
2848.00,0.0422
2847.00,0.0449
2846.00,0.0481
2845.00,0.0518
2844.00,0.0561
2843.00,0.0607
2842.00,0.0653
2841.00,0.0697
2840.00,0.0733
2839.00,0.0756
2838.00,0.0760
2837.00,0.0744
2836.00,0.0707
2835.00,0.0653
2834.00,0.0589
2833.00,0.0522
2832.00,0.0457
2831.00,0.0400
2830.00,0.0352
2829.00,0.0312
2828.00,0.0281
2827.00,0.0255
2826.00,0.0234
2825.00,0.0217
2824.00,0.0202
2823.00,0.0189
2822.00,0.0178
2821.00,0.0169
2820.00,0.0161
2819.00,0.0153
2818.00,0.0147
2817.00,0.0142
2816.00,0.0137
2815.00,0.0133
2814.00,0.0129
2813.00,0.0125
2812.00,0.0122
2811.00,0.0118
2810.00,0.0115
2809.00,0.0112
2808.00,0.0108
2807.00,0.0105
2806.00,0.0101
2805.00,0.0097
2804.00,0.0093
2803.00,0.0089
2802.00,0.0086
2801.00,0.0083
2800.00,0.0080
2799.00,0.0079
2798.00,0.0077
2797.00,0.0076
2796.00,0.0075
2795.00,0.0074
2794.00,0.0072
2793.00,0.0070
2792.00,0.0068
2791.00,0.0065
2790.00,0.0063
2789.00,0.0061
2788.00,0.0059
2787.00,0.0057
2786.00,0.0055
2785.00,0.0053
2784.00,0.0051
2783.00,0.0050
2782.00,0.0048
2781.00,0.0047
2780.00,0.0046
2779.00,0.0046
2778.00,0.0045
2777.00,0.0044
2776.00,0.0043
2775.00,0.0042
2774.00,0.0041
2773.00,0.0041
2772.00,0.0040
2771.00,0.0040
2770.00,0.0040
2769.00,0.0040
2768.00,0.0039
2767.00,0.0039
2766.00,0.0039
2765.00,0.0039
2764.00,0.0038
2763.00,0.0038
2762.00,0.0038
2761.00,0.0038
2760.00,0.0038
2759.00,0.0037
2758.00,0.0037
2757.00,0.0037
2756.00,0.0036
2755.00,0.0036
2754.00,0.0036
2753.00,0.0037
2752.00,0.0037
2751.00,0.0036
2750.00,0.0036
2749.00,0.0036
2748.00,0.0036
2747.00,0.0036
2746.00,0.0037
2745.00,0.0037
2744.00,0.0037
2743.00,0.0038
2742.00,0.0039
2741.00,0.0040
2740.00,0.0041
2739.00,0.0042
2738.00,0.0042
2737.00,0.0043
2736.00,0.0044
2735.00,0.0045
2734.00,0.0046
2733.00,0.0047
2732.00,0.0048
2731.00,0.0049
2730.00,0.0050
2729.00,0.0052
2728.00,0.0053
2727.00,0.0055
2726.00,0.0057
2725.00,0.0058
2724.00,0.0059
2723.00,0.0059
2722.00,0.0059
2721.00,0.0058
2720.00,0.0056
2719.00,0.0054
2718.00,0.0052
2717.00,0.0050
2716.00,0.0048
2715.00,0.0046
2714.00,0.0045
2713.00,0.0044
2712.00,0.0042
2711.00,0.0041
2710.00,0.0040
2709.00,0.0039
2708.00,0.0038
2707.00,0.0037
2706.00,0.0036
2705.00,0.0036
2704.00,0.0035
2703.00,0.0035
2702.00,0.0034
2701.00,0.0034
2700.00,0.0034
2699.00,0.0033
2698.00,0.0033
2697.00,0.0033
2696.00,0.0033
2695.00,0.0032
2694.00,0.0032
2693.00,0.0032
2692.00,0.0033
2691.00,0.0033
2690.00,0.0033
2689.00,0.0033
2688.00,0.0033
2687.00,0.0033
2686.00,0.0033
2685.00,0.0032
2684.00,0.0032
2683.00,0.0033
2682.00,0.0033
2681.00,0.0033
2680.00,0.0033
2679.00,0.0033
2678.00,0.0033
2677.00,0.0033
2676.00,0.0033
2675.00,0.0032
2674.00,0.0032
2673.00,0.0032
2672.00,0.0032
2671.00,0.0032
2670.00,0.0032
2669.00,0.0032
2668.00,0.0032
2667.00,0.0032
2666.00,0.0032
2665.00,0.0033
2664.00,0.0033
2663.00,0.0034
2662.00,0.0034
2661.00,0.0035
2660.00,0.0035
2659.00,0.0034
2658.00,0.0034
2657.00,0.0034
2656.00,0.0033
2655.00,0.0033
2654.00,0.0033
2653.00,0.0032
2652.00,0.0032
2651.00,0.0031
2650.00,0.0031
2649.00,0.0030
2648.00,0.0030
2647.00,0.0030
2646.00,0.0030
2645.00,0.0030
2644.00,0.0030
2643.00,0.0030
2642.00,0.0030
2641.00,0.0030
2640.00,0.0029
2639.00,0.0029
2638.00,0.0028
2637.00,0.0028
2636.00,0.0027
2635.00,0.0027
2634.00,0.0027
2633.00,0.0028
2632.00,0.0028
2631.00,0.0028
2630.00,0.0028
2629.00,0.0028
2628.00,0.0028
2627.00,0.0028
2626.00,0.0029
2625.00,0.0029
2624.00,0.0029
2623.00,0.0029
2622.00,0.0029
2621.00,0.0029
2620.00,0.0030
2619.00,0.0030
2618.00,0.0030
2617.00,0.0030
2616.00,0.0029
2615.00,0.0029
2614.00,0.0029
2613.00,0.0028
2612.00,0.0028
2611.00,0.0027
2610.00,0.0027
2609.00,0.0026
2608.00,0.0025
2607.00,0.0025
2606.00,0.0025
2605.00,0.0025
2604.00,0.0025
2603.00,0.0024
2602.00,0.0024
2601.00,0.0023
2600.00,0.0023
2599.00,0.0023
2598.00,0.0024
2597.00,0.0024
2596.00,0.0024
2595.00,0.0023
2594.00,0.0023
2593.00,0.0023
2592.00,0.0023
2591.00,0.0023
2590.00,0.0024
2589.00,0.0025
2588.00,0.0026
2587.00,0.0027
2586.00,0.0028
2585.00,0.0028
2584.00,0.0028
2583.00,0.0027
2582.00,0.0027
2581.00,0.0026
2580.00,0.0026
2579.00,0.0026
2578.00,0.0026
2577.00,0.0025
2576.00,0.0025
2575.00,0.0024
2574.00,0.0023
2573.00,0.0023
2572.00,0.0022
2571.00,0.0022
2570.00,0.0021
2569.00,0.0020
2568.00,0.0020
2567.00,0.0019
2566.00,0.0019
2565.00,0.0019
2564.00,0.0019
2563.00,0.0018
2562.00,0.0018
2561.00,0.0018
2560.00,0.0017
2559.00,0.0017
2558.00,0.0017
2557.00,0.0017
2556.00,0.0017
2555.00,0.0017
2554.00,0.0016
2553.00,0.0016
2552.00,0.0016
2551.00,0.0016
2550.00,0.0016
2549.00,0.0015
2548.00,0.0015
2547.00,0.0015
2546.00,0.0015
2545.00,0.0015
2544.00,0.0015
2543.00,0.0014
2542.00,0.0014
2541.00,0.0013
2540.00,0.0013
2539.00,0.0013
2538.00,0.0013
2537.00,0.0013
2536.00,0.0013
2535.00,0.0013
2534.00,0.0013
2533.00,0.0013
2532.00,0.0012
2531.00,0.0012
2530.00,0.0011
2529.00,0.0011
2528.00,0.0011
2527.00,0.0012
2526.00,0.0012
2525.00,0.0013
2524.00,0.0012
2523.00,0.0011
2522.00,0.0011
2521.00,0.0011
2520.00,0.0011
2519.00,0.0010
2518.00,0.0010
2517.00,0.0010
2516.00,0.0009
2515.00,0.0009
2514.00,0.0009
2513.00,0.0008
2512.00,0.0008
2511.00,0.0008
2510.00,0.0008
2509.00,0.0009
2508.00,0.0009
2507.00,0.0010
2506.00,0.0010
2505.00,0.0011
2504.00,0.0010
2503.00,0.0010
2502.00,0.0010
2501.00,0.0010
2500.00,0.0010
2499.00,0.0009
2498.00,0.0009
2497.00,0.0009
2496.00,0.0009
2495.00,0.0009
2494.00,0.0009
2493.00,0.0009
2492.00,0.0010
2491.00,0.0011
2490.00,0.0011
2489.00,0.0011
2488.00,0.0010
2487.00,0.0009
2486.00,0.0008
2485.00,0.0008
2484.00,0.0008
2483.00,0.0008
2482.00,0.0009
2481.00,0.0009
2480.00,0.0009
2479.00,0.0008
2478.00,0.0008
2477.00,0.0008
2476.00,0.0009
2475.00,0.0009
2474.00,0.0009
2473.00,0.0009
2472.00,0.0009
2471.00,0.0008
2470.00,0.0007
2469.00,0.0007
2468.00,0.0007
2467.00,0.0007
2466.00,0.0007
2465.00,0.0008
2464.00,0.0008
2463.00,0.0009
2462.00,0.0009
2461.00,0.0010
2460.00,0.0010
2459.00,0.0010
2458.00,0.0009
2457.00,0.0009
2456.00,0.0009
2455.00,0.0010
2454.00,0.0010
2453.00,0.0010
2452.00,0.0011
2451.00,0.0011
2450.00,0.0011
2449.00,0.0010
2448.00,0.0010
2447.00,0.0010
2446.00,0.0009
2445.00,0.0009
2444.00,0.0009
2443.00,0.0009
2442.00,0.0008
2441.00,0.0008
2440.00,0.0008
2439.00,0.0008
2438.00,0.0008
2437.00,0.0009
2436.00,0.0010
2435.00,0.0010
2434.00,0.0010
2433.00,0.0010
2432.00,0.0010
2431.00,0.0010
2430.00,0.0010
2429.00,0.0009
2428.00,0.0009
2427.00,0.0009
2426.00,0.0010
2425.00,0.0010
2424.00,0.0011
2423.00,0.0010
2422.00,0.0009
2421.00,0.0009
2420.00,0.0008
2419.00,0.0008
2418.00,0.0008
2417.00,0.0008
2416.00,0.0008
2415.00,0.0009
2414.00,0.0009
2413.00,0.0009
2412.00,0.0008
2411.00,0.0008
2410.00,0.0008
2409.00,0.0009
2408.00,0.0009
2407.00,0.0009
2406.00,0.0008
2405.00,0.0008
2404.00,0.0008
2403.00,0.0008
2402.00,0.0008
2401.00,0.0008
2400.00,0.0008
2399.00,0.0008
2398.00,0.0008
2397.00,0.0008
2396.00,0.0009
2395.00,0.0009
2394.00,0.0008
2393.00,0.0008
2392.00,0.0007
2391.00,0.0007
2390.00,0.0007
2389.00,0.0006
2388.00,0.0006
2387.00,0.0005
2386.00,0.0005
2385.00,0.0005
2384.00,0.0004
2383.00,0.0004
2382.00,0.0004
2381.00,0.0003
2380.00,0.0003
2379.00,0.0003
2378.00,0.0002
2377.00,0.0002
2376.00,0.0002
2375.00,0.0002
2374.00,0.0002
2373.00,0.0002
2372.00,0.0003
2371.00,0.0003
2370.00,0.0003
2369.00,0.0003
2368.00,0.0002
2367.00,0.0002
2366.00,0.0003
2365.00,0.0003
2364.00,0.0003
2363.00,0.0003
2362.00,0.0003
2361.00,0.0002
2360.00,0.0002
2359.00,0.0002
2358.00,0.0002
2357.00,0.0002
2356.00,0.0003
2355.00,0.0003
2354.00,0.0003
2353.00,0.0003
2352.00,0.0003
2351.00,0.0003
2350.00,0.0003
2349.00,0.0004
2348.00,0.0004
2347.00,0.0004
2346.00,0.0004
2345.00,0.0004
2344.00,0.0005
2343.00,0.0005
2342.00,0.0005
2341.00,0.0006
2340.00,0.0006
2339.00,0.0005
2338.00,0.0005
2337.00,0.0005
2336.00,0.0006
2335.00,0.0006
2334.00,0.0006
2333.00,0.0005
2332.00,0.0005
2331.00,0.0005
2330.00,0.0005
2329.00,0.0006
2328.00,0.0008
2327.00,0.0011
2326.00,0.0014
2325.00,0.0017
2324.00,0.0018
2323.00,0.0018
2322.00,0.0016
2321.00,0.0014
2320.00,0.0013
2319.00,0.0012
2318.00,0.0011
2317.00,0.0010
2316.00,0.0010
2315.00,0.0009
2314.00,0.0009
2313.00,0.0008
2312.00,0.0008
2311.00,0.0008
2310.00,0.0009
2309.00,0.0009
2308.00,0.0009
2307.00,0.0009
2306.00,0.0009
2305.00,0.0009
2304.00,0.0010
2303.00,0.0010
2302.00,0.0011
2301.00,0.0011
2300.00,0.0011
2299.00,0.0012
2298.00,0.0011
2297.00,0.0011
2296.00,0.0011
2295.00,0.0011
2294.00,0.0011
2293.00,0.0012
2292.00,0.0013
2291.00,0.0014
2290.00,0.0015
2289.00,0.0015
2288.00,0.0015
2287.00,0.0016
2286.00,0.0016
2285.00,0.0016
2284.00,0.0016
2283.00,0.0015
2282.00,0.0015
2281.00,0.0014
2280.00,0.0013
2279.00,0.0013
2278.00,0.0013
2277.00,0.0013
2276.00,0.0014
2275.00,0.0014
2274.00,0.0013
2273.00,0.0012
2272.00,0.0012
2271.00,0.0011
2270.00,0.0011
2269.00,0.0011
2268.00,0.0011
2267.00,0.0010
2266.00,0.0010
2265.00,0.0009
2264.00,0.0008
2263.00,0.0008
2262.00,0.0008
2261.00,0.0009
2260.00,0.0010
2259.00,0.0010
2258.00,0.0011
2257.00,0.0011
2256.00,0.0011
2255.00,0.0010
2254.00,0.0010
2253.00,0.0010
2252.00,0.0010
2251.00,0.0010
2250.00,0.0010
2249.00,0.0009
2248.00,0.0008
2247.00,0.0008
2246.00,0.0009
2245.00,0.0011
2244.00,0.0011
2243.00,0.0011
2242.00,0.0010
2241.00,0.0009
2240.00,0.0008
2239.00,0.0008
2238.00,0.0008
2237.00,0.0009
2236.00,0.0010
2235.00,0.0012
2234.00,0.0013
2233.00,0.0014
2232.00,0.0014
2231.00,0.0014
2230.00,0.0013
2229.00,0.0012
2228.00,0.0011
2227.00,0.0010
2226.00,0.0009
2225.00,0.0009
2224.00,0.0008
2223.00,0.0006
2222.00,0.0006
2221.00,0.0006
2220.00,0.0008
2219.00,0.0009
2218.00,0.0009
2217.00,0.0009
2216.00,0.0008
2215.00,0.0008
2214.00,0.0007
2213.00,0.0007
2212.00,0.0007
2211.00,0.0007
2210.00,0.0005
2209.00,0.0004
2208.00,0.0003
2207.00,0.0003
2206.00,0.0004
2205.00,0.0006
2204.00,0.0008
2203.00,0.0009
2202.00,0.0010
2201.00,0.0010
2200.00,0.0011
2199.00,0.0010
2198.00,0.0010
2197.00,0.0011
2196.00,0.0011
2195.00,0.0012
2194.00,0.0011
2193.00,0.0009
2192.00,0.0007
2191.00,0.0006
2190.00,0.0004
2189.00,0.0004
2188.00,0.0005
2187.00,0.0008
2186.00,0.0010
2185.00,0.0012
2184.00,0.0012
2183.00,0.0010
2182.00,0.0008
2181.00,0.0006
2180.00,0.0006
2179.00,0.0007
2178.00,0.0007
2177.00,0.0007
2176.00,0.0006
2175.00,0.0005
2174.00,0.0003
2173.00,0.0003
2172.00,0.0004
2171.00,0.0005
2170.00,0.0005
2169.00,0.0005
2168.00,0.0007
2167.00,0.0010
2166.00,0.0014
2165.00,0.0018
2164.00,0.0021
2163.00,0.0022
2162.00,0.0021
2161.00,0.0018
2160.00,0.0010
2159.00,0.0001
2158.00,-0.0007
2157.00,-0.0012
2156.00,-0.0014
2155.00,-0.0014
2154.00,-0.0015
2153.00,-0.0015
2152.00,-0.0014
2151.00,-0.0012
2150.00,-0.0010
2149.00,-0.0008
2148.00,-0.0008
2147.00,-0.0009
2146.00,-0.0009
2145.00,-0.0008
2144.00,-0.0008
2143.00,-0.0007
2142.00,-0.0007
2141.00,-0.0006
2140.00,-0.0004
2139.00,-0.0003
2138.00,-0.0004
2137.00,-0.0007
2136.00,-0.0010
2135.00,-0.0012
2134.00,-0.0013
2133.00,-0.0013
2132.00,-0.0012
2131.00,-0.0011
2130.00,-0.0010
2129.00,-0.0008
2128.00,-0.0007
2127.00,-0.0005
2126.00,-0.0004
2125.00,-0.0003
2124.00,-0.0002
2123.00,-0.0002
2122.00,-0.0002
2121.00,-0.0002
2120.00,-0.0003
2119.00,-0.0003
2118.00,-0.0003
2117.00,-0.0002
2116.00,0.0000
2115.00,0.0002
2114.00,0.0003
2113.00,0.0003
2112.00,0.0002
2111.00,0.0002
2110.00,0.0002
2109.00,0.0002
2108.00,0.0002
2107.00,0.0003
2106.00,0.0003
2105.00,0.0003
2104.00,0.0003
2103.00,0.0002
2102.00,0.0002
2101.00,0.0001
2100.00,0.0002
2099.00,0.0003
2098.00,0.0003
2097.00,0.0002
2096.00,-0.0000
2095.00,-0.0003
2094.00,-0.0004
2093.00,-0.0004
2092.00,-0.0002
2091.00,-0.0001
2090.00,-0.0000
2089.00,0.0000
2088.00,0.0001
2087.00,0.0001
2086.00,0.0002
2085.00,0.0003
2084.00,0.0005
2083.00,0.0006
2082.00,0.0007
2081.00,0.0007
2080.00,0.0005
2079.00,0.0004
2078.00,0.0003
2077.00,0.0002
2076.00,0.0002
2075.00,0.0001
2074.00,0.0001
2073.00,-0.0001
2072.00,-0.0001
2071.00,-0.0001
2070.00,-0.0001
2069.00,0.0000
2068.00,0.0001
2067.00,0.0002
2066.00,0.0003
2065.00,0.0003
2064.00,0.0003
2063.00,0.0002
2062.00,0.0001
2061.00,0.0000
2060.00,0.0001
2059.00,0.0003
2058.00,0.0005
2057.00,0.0007
2056.00,0.0007
2055.00,0.0006
2054.00,0.0006
2053.00,0.0008
2052.00,0.0011
2051.00,0.0014
2050.00,0.0015
2049.00,0.0014
2048.00,0.0011
2047.00,0.0008
2046.00,0.0005
2045.00,0.0004
2044.00,0.0004
2043.00,0.0003
2042.00,0.0002
2041.00,-0.0001
2040.00,-0.0003
2039.00,-0.0007
2038.00,-0.0010
2037.00,-0.0012
2036.00,-0.0012
2035.00,-0.0012
2034.00,-0.0010
2033.00,-0.0008
2032.00,-0.0005
2031.00,-0.0005
2030.00,-0.0006
2029.00,-0.0008
2028.00,-0.0010
2027.00,-0.0011
2026.00,-0.0010
2025.00,-0.0008
2024.00,-0.0005
2023.00,-0.0004
2022.00,-0.0004
2021.00,-0.0004
2020.00,-0.0007
2019.00,-0.0010
2018.00,-0.0013
2017.00,-0.0013
2016.00,-0.0010
2015.00,-0.0006
2014.00,-0.0003
2013.00,-0.0003
2012.00,-0.0005
2011.00,-0.0006
2010.00,-0.0007
2009.00,-0.0007
2008.00,-0.0008
2007.00,-0.0009
2006.00,-0.0010
2005.00,-0.0011
2004.00,-0.0011
2003.00,-0.0012
2002.00,-0.0012
2001.00,-0.0012
2000.00,-0.0011
1999.00,-0.0010
1998.00,-0.0010
1997.00,-0.0010
1996.00,-0.0010
1995.00,-0.0010
1994.00,-0.0009
1993.00,-0.0005
1992.00,-0.0001
1991.00,0.0001
1990.00,0.0001
1989.00,-0.0001
1988.00,-0.0002
1987.00,-0.0002
1986.00,-0.0002
1985.00,-0.0000
1984.00,0.0003
1983.00,0.0007
1982.00,0.0012
1981.00,0.0015
1980.00,0.0016
1979.00,0.0013
1978.00,0.0008
1977.00,0.0002
1976.00,-0.0004
1975.00,-0.0006
1974.00,-0.0007
1973.00,-0.0005
1972.00,-0.0003
1971.00,-0.0001
1970.00,0.0001
1969.00,0.0002
1968.00,0.0002
1967.00,0.0001
1966.00,-0.0002
1965.00,-0.0004
1964.00,-0.0005
1963.00,-0.0005
1962.00,-0.0006
1961.00,-0.0008
1960.00,-0.0012
1959.00,-0.0016
1958.00,-0.0019
1957.00,-0.0020
1956.00,-0.0019
1955.00,-0.0018
1954.00,-0.0016
1953.00,-0.0014
1952.00,-0.0013
1951.00,-0.0012
1950.00,-0.0011
1949.00,-0.0011
1948.00,-0.0012
1947.00,-0.0013
1946.00,-0.0015
1945.00,-0.0015
1944.00,-0.0014
1943.00,-0.0013
1942.00,-0.0013
1941.00,-0.0013
1940.00,-0.0013
1939.00,-0.0012
1938.00,-0.0010
1937.00,-0.0008
1936.00,-0.0007
1935.00,-0.0007
1934.00,-0.0008
1933.00,-0.0009
1932.00,-0.0010
1931.00,-0.0010
1930.00,-0.0009
1929.00,-0.0008
1928.00,-0.0006
1927.00,-0.0005
1926.00,-0.0004
1925.00,-0.0004
1924.00,-0.0004
1923.00,-0.0003
1922.00,-0.0003
1921.00,-0.0002
1920.00,-0.0002
1919.00,-0.0001
1918.00,-0.0001
1917.00,-0.0000
1916.00,0.0000
1915.00,0.0001
1914.00,0.0000
1913.00,0.0000
1912.00,-0.0000
1911.00,-0.0001
1910.00,-0.0002
1909.00,-0.0003
1908.00,-0.0002
1907.00,-0.0002
1906.00,-0.0001
1905.00,-0.0002
1904.00,-0.0002
1903.00,-0.0003
1902.00,-0.0002
1901.00,-0.0002
1900.00,-0.0001
1899.00,-0.0001
1898.00,-0.0001
1897.00,-0.0001
1896.00,-0.0001
1895.00,0.0001
1894.00,0.0002
1893.00,0.0002
1892.00,0.0000
1891.00,-0.0002
1890.00,-0.0003
1889.00,-0.0003
1888.00,-0.0002
1887.00,-0.0001
1886.00,-0.0000
1885.00,-0.0000
1884.00,-0.0000
1883.00,-0.0000
1882.00,-0.0000
1881.00,0.0000
1880.00,0.0000
1879.00,-0.0001
1878.00,-0.0001
1877.00,-0.0001
1876.00,-0.0000
1875.00,0.0001
1874.00,0.0002
1873.00,0.0003
1872.00,0.0004
1871.00,0.0004
1870.00,0.0005
1869.00,0.0004
1868.00,0.0002
1867.00,0.0000
1866.00,-0.0001
1865.00,-0.0001
1864.00,-0.0000
1863.00,0.0001
1862.00,0.0001
1861.00,0.0002
1860.00,0.0002
1859.00,0.0002
1858.00,0.0001
1857.00,0.0001
1856.00,0.0001
1855.00,0.0000
1854.00,0.0000
1853.00,0.0001
1852.00,0.0002
1851.00,0.0002
1850.00,0.0003
1849.00,0.0003
1848.00,0.0002
1847.00,0.0002
1846.00,0.0002
1845.00,0.0002
1844.00,0.0002
1843.00,0.0002
1842.00,0.0002
1841.00,0.0002
1840.00,0.0002
1839.00,0.0002
1838.00,0.0003
1837.00,0.0003
1836.00,0.0003
1835.00,0.0004
1834.00,0.0004
1833.00,0.0003
1832.00,0.0003
1831.00,0.0002
1830.00,0.0002
1829.00,0.0002
1828.00,0.0003
1827.00,0.0003
1826.00,0.0003
1825.00,0.0003
1824.00,0.0002
1823.00,0.0002
1822.00,0.0002
1821.00,0.0003
1820.00,0.0003
1819.00,0.0002
1818.00,0.0001
1817.00,0.0001
1816.00,0.0001
1815.00,0.0002
1814.00,0.0002
1813.00,0.0003
1812.00,0.0003
1811.00,0.0003
1810.00,0.0003
1809.00,0.0004
1808.00,0.0004
1807.00,0.0003
1806.00,0.0003
1805.00,0.0003
1804.00,0.0004
1803.00,0.0004
1802.00,0.0005
1801.00,0.0005
1800.00,0.0005
1799.00,0.0005
1798.00,0.0006
1797.00,0.0006
1796.00,0.0006
1795.00,0.0006
1794.00,0.0006
1793.00,0.0006
1792.00,0.0007
1791.00,0.0007
1790.00,0.0007
1789.00,0.0007
1788.00,0.0007
1787.00,0.0008
1786.00,0.0008
1785.00,0.0008
1784.00,0.0008
1783.00,0.0008
1782.00,0.0009
1781.00,0.0009
1780.00,0.0009
1779.00,0.0008
1778.00,0.0008
1777.00,0.0007
1776.00,0.0007
1775.00,0.0008
1774.00,0.0008
1773.00,0.0008
1772.00,0.0008
1771.00,0.0008
1770.00,0.0008
1769.00,0.0009
1768.00,0.0009
1767.00,0.0009
1766.00,0.0009
1765.00,0.0008
1764.00,0.0009
1763.00,0.0009
1762.00,0.0009
1761.00,0.0009
1760.00,0.0010
1759.00,0.0011
1758.00,0.0011
1757.00,0.0012
1756.00,0.0012
1755.00,0.0012
1754.00,0.0012
1753.00,0.0013
1752.00,0.0014
1751.00,0.0015
1750.00,0.0014
1749.00,0.0014
1748.00,0.0013
1747.00,0.0013
1746.00,0.0013
1745.00,0.0014
1744.00,0.0014
1743.00,0.0015
1742.00,0.0015
1741.00,0.0016
1740.00,0.0016
1739.00,0.0016
1738.00,0.0016
1737.00,0.0015
1736.00,0.0015
1735.00,0.0015
1734.00,0.0016
1733.00,0.0017
1732.00,0.0017
1731.00,0.0018
1730.00,0.0018
1729.00,0.0018
1728.00,0.0018
1727.00,0.0018
1726.00,0.0018
1725.00,0.0018
1724.00,0.0017
1723.00,0.0017
1722.00,0.0017
1721.00,0.0017
1720.00,0.0017
1719.00,0.0018
1718.00,0.0018
1717.00,0.0018
1716.00,0.0018
1715.00,0.0018
1714.00,0.0018
1713.00,0.0018
1712.00,0.0018
1711.00,0.0018
1710.00,0.0018
1709.00,0.0018
1708.00,0.0018
1707.00,0.0018
1706.00,0.0018
1705.00,0.0018
1704.00,0.0018
1703.00,0.0019
1702.00,0.0019
1701.00,0.0020
1700.00,0.0021
1699.00,0.0021
1698.00,0.0021
1697.00,0.0021
1696.00,0.0022
1695.00,0.0023
1694.00,0.0023
1693.00,0.0022
1692.00,0.0023
1691.00,0.0023
1690.00,0.0023
1689.00,0.0023
1688.00,0.0023
1687.00,0.0023
1686.00,0.0024
1685.00,0.0024
1684.00,0.0026
1683.00,0.0027
1682.00,0.0027
1681.00,0.0028
1680.00,0.0029
1679.00,0.0029
1678.00,0.0029
1677.00,0.0029
1676.00,0.0029
1675.00,0.0030
1674.00,0.0030
1673.00,0.0031
1672.00,0.0031
1671.00,0.0032
1670.00,0.0032
1669.00,0.0033
1668.00,0.0034
1667.00,0.0034
1666.00,0.0035
1665.00,0.0035
1664.00,0.0036
1663.00,0.0037
1662.00,0.0037
1661.00,0.0036
1660.00,0.0037
1659.00,0.0037
1658.00,0.0038
1657.00,0.0038
1656.00,0.0038
1655.00,0.0038
1654.00,0.0038
1653.00,0.0038
1652.00,0.0040
1651.00,0.0041
1650.00,0.0042
1649.00,0.0043
1648.00,0.0044
1647.00,0.0045
1646.00,0.0045
1645.00,0.0045
1644.00,0.0046
1643.00,0.0046
1642.00,0.0046
1641.00,0.0047
1640.00,0.0047
1639.00,0.0047
1638.00,0.0047
1637.00,0.0046
1636.00,0.0046
1635.00,0.0045
1634.00,0.0045
1633.00,0.0046
1632.00,0.0046
1631.00,0.0046
1630.00,0.0046
1629.00,0.0045
1628.00,0.0045
1627.00,0.0045
1626.00,0.0045
1625.00,0.0045
1624.00,0.0045
1623.00,0.0045
1622.00,0.0045
1621.00,0.0045
1620.00,0.0045
1619.00,0.0044
1618.00,0.0044
1617.00,0.0044
1616.00,0.0044
1615.00,0.0043
1614.00,0.0043
1613.00,0.0043
1612.00,0.0043
1611.00,0.0043
1610.00,0.0043
1609.00,0.0044
1608.00,0.0044
1607.00,0.0044
1606.00,0.0044
1605.00,0.0044
1604.00,0.0044
1603.00,0.0044
1602.00,0.0044
1601.00,0.0044
1600.00,0.0044
1599.00,0.0043
1598.00,0.0043
1597.00,0.0043
1596.00,0.0043
1595.00,0.0042
1594.00,0.0042
1593.00,0.0042
1592.00,0.0042
1591.00,0.0041
1590.00,0.0041
1589.00,0.0041
1588.00,0.0041
1587.00,0.0040
1586.00,0.0040
1585.00,0.0040
1584.00,0.0040
1583.00,0.0040
1582.00,0.0040
1581.00,0.0040
1580.00,0.0040
1579.00,0.0040
1578.00,0.0040
1577.00,0.0040
1576.00,0.0040
1575.00,0.0039
1574.00,0.0039
1573.00,0.0039
1572.00,0.0040
1571.00,0.0040
1570.00,0.0041
1569.00,0.0041
1568.00,0.0041
1567.00,0.0041
1566.00,0.0042
1565.00,0.0043
1564.00,0.0043
1563.00,0.0043
1562.00,0.0043
1561.00,0.0044
1560.00,0.0044
1559.00,0.0044
1558.00,0.0044
1557.00,0.0045
1556.00,0.0046
1555.00,0.0047
1554.00,0.0047
1553.00,0.0047
1552.00,0.0047
1551.00,0.0047
1550.00,0.0048
1549.00,0.0048
1548.00,0.0049
1547.00,0.0049
1546.00,0.0049
1545.00,0.0049
1544.00,0.0049
1543.00,0.0048
1542.00,0.0048
1541.00,0.0048
1540.00,0.0047
1539.00,0.0046
1538.00,0.0045
1537.00,0.0045
1536.00,0.0045
1535.00,0.0044
1534.00,0.0044
1533.00,0.0044
1532.00,0.0044
1531.00,0.0044
1530.00,0.0044
1529.00,0.0044
1528.00,0.0043
1527.00,0.0042
1526.00,0.0042
1525.00,0.0042
1524.00,0.0042
1523.00,0.0042
1522.00,0.0041
1521.00,0.0041
1520.00,0.0041
1519.00,0.0041
1518.00,0.0041
1517.00,0.0041
1516.00,0.0041
1515.00,0.0041
1514.00,0.0041
1513.00,0.0043
1512.00,0.0044
1511.00,0.0045
1510.00,0.0045
1509.00,0.0045
1508.00,0.0046
1507.00,0.0046
1506.00,0.0046
1505.00,0.0047
1504.00,0.0048
1503.00,0.0049
1502.00,0.0050
1501.00,0.0051
1500.00,0.0054
1499.00,0.0056
1498.00,0.0058
1497.00,0.0061
1496.00,0.0064
1495.00,0.0066
1494.00,0.0069
1493.00,0.0071
1492.00,0.0074
1491.00,0.0077
1490.00,0.0079
1489.00,0.0082
1488.00,0.0085
1487.00,0.0088
1486.00,0.0090
1485.00,0.0093
1484.00,0.0097
1483.00,0.0101
1482.00,0.0106
1481.00,0.0113
1480.00,0.0120
1479.00,0.0127
1478.00,0.0136
1477.00,0.0148
1476.00,0.0162
1475.00,0.0179
1474.00,0.0202
1473.00,0.0238
1472.00,0.0282
1471.00,0.0324
1470.00,0.0363
1469.00,0.0404
1468.00,0.0447
1467.00,0.0495
1466.00,0.0551
1465.00,0.0612
1464.00,0.0667
1463.00,0.0705
1462.00,0.0730
1461.00,0.0747
1460.00,0.0760
1459.00,0.0772
1458.00,0.0787
1457.00,0.0807
1456.00,0.0821
1455.00,0.0823
1454.00,0.0820
1453.00,0.0812
1452.00,0.0799
1451.00,0.0779
1450.00,0.0747
1449.00,0.0700
1448.00,0.0640
1447.00,0.0574
1446.00,0.0512
1445.00,0.0459
1444.00,0.0413
1443.00,0.0375
1442.00,0.0348
1441.00,0.0329
1440.00,0.0316
1439.00,0.0310
1438.00,0.0309
1437.00,0.0308
1436.00,0.0299
1435.00,0.0279
1434.00,0.0252
1433.00,0.0221
1432.00,0.0190
1431.00,0.0163
1430.00,0.0142
1429.00,0.0127
1428.00,0.0117
1427.00,0.0112
1426.00,0.0108
1425.00,0.0104
1424.00,0.0101
1423.00,0.0099
1422.00,0.0098
1421.00,0.0097
1420.00,0.0095
1419.00,0.0095
1418.00,0.0094
1417.00,0.0093
1416.00,0.0091
1415.00,0.0090
1414.00,0.0090
1413.00,0.0089
1412.00,0.0088
1411.00,0.0087
1410.00,0.0087
1409.00,0.0086
1408.00,0.0086
1407.00,0.0086
1406.00,0.0086
1405.00,0.0087
1404.00,0.0087
1403.00,0.0088
1402.00,0.0090
1401.00,0.0091
1400.00,0.0091
1399.00,0.0093
1398.00,0.0095
1397.00,0.0097
1396.00,0.0099
1395.00,0.0102
1394.00,0.0106
1393.00,0.0109
1392.00,0.0113
1391.00,0.0119
1390.00,0.0127
1389.00,0.0139
1388.00,0.0157
1387.00,0.0183
1386.00,0.0218
1385.00,0.0262
1384.00,0.0318
1383.00,0.0393
1382.00,0.0489
1381.00,0.0609
1380.00,0.0754
1379.00,0.0914
1378.00,0.1064
1377.00,0.1172
1376.00,0.1207
1375.00,0.1152
1374.00,0.1020
1373.00,0.0857
1372.00,0.0702
1371.00,0.0570
1370.00,0.0462
1369.00,0.0380
1368.00,0.0323
1367.00,0.0287
1366.00,0.0269
1365.00,0.0261
1364.00,0.0263
1363.00,0.0272
1362.00,0.0287
1361.00,0.0302
1360.00,0.0313
1359.00,0.0316
1358.00,0.0307
1357.00,0.0289
1356.00,0.0264
1355.00,0.0236
1354.00,0.0208
1353.00,0.0185
1352.00,0.0167
1351.00,0.0152
1350.00,0.0140
1349.00,0.0131
1348.00,0.0124
1347.00,0.0118
1346.00,0.0112
1345.00,0.0108
1344.00,0.0105
1343.00,0.0102
1342.00,0.0100
1341.00,0.0098
1340.00,0.0097
1339.00,0.0095
1338.00,0.0093
1337.00,0.0093
1336.00,0.0093
1335.00,0.0094
1334.00,0.0096
1333.00,0.0099
1332.00,0.0102
1331.00,0.0104
1330.00,0.0105
1329.00,0.0103
1328.00,0.0101
1327.00,0.0097
1326.00,0.0093
1325.00,0.0090
1324.00,0.0086
1323.00,0.0083
1322.00,0.0080
1321.00,0.0078
1320.00,0.0076
1319.00,0.0074
1318.00,0.0072
1317.00,0.0071
1316.00,0.0070
1315.00,0.0070
1314.00,0.0070
1313.00,0.0071
1312.00,0.0072
1311.00,0.0074
1310.00,0.0078
1309.00,0.0084
1308.00,0.0092
1307.00,0.0101
1306.00,0.0111
1305.00,0.0118
1304.00,0.0120
1303.00,0.0117
1302.00,0.0112
1301.00,0.0107
1300.00,0.0103
1299.00,0.0101
1298.00,0.0100
1297.00,0.0099
1296.00,0.0099
1295.00,0.0097
1294.00,0.0094
1293.00,0.0091
1292.00,0.0087
1291.00,0.0083
1290.00,0.0080
1289.00,0.0077
1288.00,0.0075
1287.00,0.0073
1286.00,0.0071
1285.00,0.0069
1284.00,0.0068
1283.00,0.0067
1282.00,0.0066
1281.00,0.0066
1280.00,0.0065
1279.00,0.0065
1278.00,0.0065
1277.00,0.0065
1276.00,0.0065
1275.00,0.0064
1274.00,0.0064
1273.00,0.0064
1272.00,0.0064
1271.00,0.0064
1270.00,0.0064
1269.00,0.0065
1268.00,0.0065
1267.00,0.0067
1266.00,0.0068
1265.00,0.0070
1264.00,0.0073
1263.00,0.0076
1262.00,0.0079
1261.00,0.0083
1260.00,0.0088
1259.00,0.0095
1258.00,0.0101
1257.00,0.0107
1256.00,0.0111
1255.00,0.0110
1254.00,0.0105
1253.00,0.0099
1252.00,0.0092
1251.00,0.0086
1250.00,0.0082
1249.00,0.0078
1248.00,0.0076
1247.00,0.0075
1246.00,0.0074
1245.00,0.0073
1244.00,0.0072
1243.00,0.0072
1242.00,0.0071
1241.00,0.0070
1240.00,0.0069
1239.00,0.0068
1238.00,0.0068
1237.00,0.0068
1236.00,0.0068
1235.00,0.0067
1234.00,0.0067
1233.00,0.0066
1232.00,0.0065
1231.00,0.0065
1230.00,0.0065
1229.00,0.0065
1228.00,0.0064
1227.00,0.0065
1226.00,0.0066
1225.00,0.0068
1224.00,0.0069
1223.00,0.0072
1222.00,0.0074
1221.00,0.0076
1220.00,0.0077
1219.00,0.0078
1218.00,0.0077
1217.00,0.0076
1216.00,0.0075
1215.00,0.0072
1214.00,0.0070
1213.00,0.0067
1212.00,0.0065
1211.00,0.0064
1210.00,0.0062
1209.00,0.0061
1208.00,0.0060
1207.00,0.0060
1206.00,0.0060
1205.00,0.0060
1204.00,0.0059
1203.00,0.0059
1202.00,0.0058
1201.00,0.0058
1200.00,0.0058
1199.00,0.0059
1198.00,0.0059
1197.00,0.0060
1196.00,0.0060
1195.00,0.0060
1194.00,0.0061
1193.00,0.0061
1192.00,0.0060
1191.00,0.0060
1190.00,0.0060
1189.00,0.0061
1188.00,0.0061
1187.00,0.0062
1186.00,0.0062
1185.00,0.0063
1184.00,0.0064
1183.00,0.0066
1182.00,0.0068
1181.00,0.0070
1180.00,0.0073
1179.00,0.0077
1178.00,0.0084
1177.00,0.0092
1176.00,0.0103
1175.00,0.0116
1174.00,0.0133
1173.00,0.0156
1172.00,0.0183
1171.00,0.0212
1170.00,0.0242
1169.00,0.0266
1168.00,0.0282
1167.00,0.0286
1166.00,0.0280
1165.00,0.0266
1164.00,0.0248
1163.00,0.0230
1162.00,0.0213
1161.00,0.0199
1160.00,0.0188
1159.00,0.0180
1158.00,0.0174
1157.00,0.0169
1156.00,0.0165
1155.00,0.0162
1154.00,0.0160
1153.00,0.0158
1152.00,0.0155
1151.00,0.0151
1150.00,0.0145
1149.00,0.0138
1148.00,0.0130
1147.00,0.0123
1146.00,0.0117
1145.00,0.0111
1144.00,0.0106
1143.00,0.0102
1142.00,0.0098
1141.00,0.0094
1140.00,0.0090
1139.00,0.0086
1138.00,0.0083
1137.00,0.0080
1136.00,0.0078
1135.00,0.0077
1134.00,0.0076
1133.00,0.0075
1132.00,0.0075
1131.00,0.0075
1130.00,0.0075
1129.00,0.0076
1128.00,0.0076
1127.00,0.0076
1126.00,0.0076
1125.00,0.0077
1124.00,0.0078
1123.00,0.0079
1122.00,0.0079
1121.00,0.0079
1120.00,0.0079
1119.00,0.0080
1118.00,0.0081
1117.00,0.0082
1116.00,0.0083
1115.00,0.0084
1114.00,0.0085
1113.00,0.0086
1112.00,0.0087
1111.00,0.0089
1110.00,0.0091
1109.00,0.0094
1108.00,0.0098
1107.00,0.0102
1106.00,0.0108
1105.00,0.0113
1104.00,0.0117
1103.00,0.0119
1102.00,0.0118
1101.00,0.0116
1100.00,0.0114
1099.00,0.0110
1098.00,0.0105
1097.00,0.0101
1096.00,0.0097
1095.00,0.0094
1094.00,0.0091
1093.00,0.0088
1092.00,0.0086
1091.00,0.0085
1090.00,0.0084
1089.00,0.0083
1088.00,0.0083
1087.00,0.0082
1086.00,0.0081
1085.00,0.0080
1084.00,0.0079
1083.00,0.0078
1082.00,0.0078
1081.00,0.0077
1080.00,0.0076
1079.00,0.0075
1078.00,0.0074
1077.00,0.0073
1076.00,0.0073
1075.00,0.0073
1074.00,0.0072
1073.00,0.0072
1072.00,0.0072
1071.00,0.0072
1070.00,0.0073
1069.00,0.0073
1068.00,0.0073
1067.00,0.0072
1066.00,0.0072
1065.00,0.0072
1064.00,0.0072
1063.00,0.0073
1062.00,0.0073
1061.00,0.0073
1060.00,0.0074
1059.00,0.0075
1058.00,0.0076
1057.00,0.0076
1056.00,0.0075
1055.00,0.0075
1054.00,0.0075
1053.00,0.0076
1052.00,0.0077
1051.00,0.0078
1050.00,0.0080
1049.00,0.0083
1048.00,0.0085
1047.00,0.0087
1046.00,0.0089
1045.00,0.0090
1044.00,0.0090
1043.00,0.0089
1042.00,0.0088
1041.00,0.0086
1040.00,0.0084
1039.00,0.0083
1038.00,0.0081
1037.00,0.0080
1036.00,0.0080
1035.00,0.0079
1034.00,0.0079
1033.00,0.0078
1032.00,0.0078
1031.00,0.0077
1030.00,0.0078
1029.00,0.0078
1028.00,0.0078
1027.00,0.0078
1026.00,0.0078
1025.00,0.0078
1024.00,0.0078
1023.00,0.0079
1022.00,0.0080
1021.00,0.0080
1020.00,0.0080
1019.00,0.0080
1018.00,0.0081
1017.00,0.0081
1016.00,0.0083
1015.00,0.0085
1014.00,0.0088
1013.00,0.0091
1012.00,0.0095
1011.00,0.0098
1010.00,0.0101
1009.00,0.0105
1008.00,0.0109
1007.00,0.0115
1006.00,0.0125
1005.00,0.0137
1004.00,0.0152
1003.00,0.0173
1002.00,0.0199
1001.00,0.0232
1000.00,0.0267
999.00,0.0297
998.00,0.0314
997.00,0.0310
996.00,0.0287
995.00,0.0252
994.00,0.0214
993.00,0.0180
992.00,0.0153
991.00,0.0134
990.00,0.0121
989.00,0.0112
988.00,0.0106
987.00,0.0103
986.00,0.0102
985.00,0.0103
984.00,0.0106
983.00,0.0113
982.00,0.0122
981.00,0.0136
980.00,0.0154
979.00,0.0177
978.00,0.0207
977.00,0.0242
976.00,0.0282
975.00,0.0323
974.00,0.0355
973.00,0.0372
972.00,0.0366
971.00,0.0338
970.00,0.0295
969.00,0.0247
968.00,0.0204
967.00,0.0170
966.00,0.0146
965.00,0.0128
964.00,0.0115
963.00,0.0106
962.00,0.0099
961.00,0.0094
960.00,0.0090
959.00,0.0086
958.00,0.0083
957.00,0.0081
956.00,0.0079
955.00,0.0078
954.00,0.0077
953.00,0.0077
952.00,0.0076
951.00,0.0075
950.00,0.0074
949.00,0.0074
948.00,0.0074
947.00,0.0074
946.00,0.0075
945.00,0.0076
944.00,0.0079
943.00,0.0082
942.00,0.0083
941.00,0.0083
940.00,0.0082
939.00,0.0080
938.00,0.0076
937.00,0.0073
936.00,0.0070
935.00,0.0067
934.00,0.0064
933.00,0.0061
932.00,0.0059
931.00,0.0058
930.00,0.0058
929.00,0.0058
928.00,0.0058
927.00,0.0058
926.00,0.0058
925.00,0.0058
924.00,0.0058
923.00,0.0059
922.00,0.0060
921.00,0.0061
920.00,0.0061
919.00,0.0062
918.00,0.0063
917.00,0.0063
916.00,0.0063
915.00,0.0064
914.00,0.0064
913.00,0.0065
912.00,0.0065
911.00,0.0066
910.00,0.0067
909.00,0.0068
908.00,0.0070
907.00,0.0072
906.00,0.0076
905.00,0.0083
904.00,0.0093
903.00,0.0106
902.00,0.0121
901.00,0.0134
900.00,0.0143
899.00,0.0145
898.00,0.0139
897.00,0.0128
896.00,0.0115
895.00,0.0102
894.00,0.0091
893.00,0.0082
892.00,0.0076
891.00,0.0072
890.00,0.0070
889.00,0.0069
888.00,0.0069
887.00,0.0069
886.00,0.0068
885.00,0.0068
884.00,0.0067
883.00,0.0068
882.00,0.0068
881.00,0.0067
880.00,0.0066
879.00,0.0065
878.00,0.0065
877.00,0.0065
876.00,0.0066
875.00,0.0067
874.00,0.0068
873.00,0.0068
872.00,0.0068
871.00,0.0067
870.00,0.0067
869.00,0.0066
868.00,0.0066
867.00,0.0065
866.00,0.0065
865.00,0.0066
864.00,0.0066
863.00,0.0068
862.00,0.0068
861.00,0.0069
860.00,0.0071
859.00,0.0074
858.00,0.0076
857.00,0.0078
856.00,0.0080
855.00,0.0081
854.00,0.0083
853.00,0.0085
852.00,0.0087
851.00,0.0091
850.00,0.0096
849.00,0.0104
848.00,0.0114
847.00,0.0128
846.00,0.0149
845.00,0.0179
844.00,0.0221
843.00,0.0269
842.00,0.0308
841.00,0.0319
840.00,0.0299
839.00,0.0258
838.00,0.0212
837.00,0.0176
836.00,0.0151
835.00,0.0135
834.00,0.0124
833.00,0.0116
832.00,0.0111
831.00,0.0107
830.00,0.0104
829.00,0.0101
828.00,0.0099
827.00,0.0097
826.00,0.0096
825.00,0.0095
824.00,0.0094
823.00,0.0093
822.00,0.0092
821.00,0.0092
820.00,0.0091
819.00,0.0092
818.00,0.0095
817.00,0.0099
816.00,0.0106
815.00,0.0114
814.00,0.0124
813.00,0.0136
812.00,0.0149
811.00,0.0160
810.00,0.0168
809.00,0.0172
808.00,0.0170
807.00,0.0163
806.00,0.0153
805.00,0.0141
804.00,0.0130
803.00,0.0120
802.00,0.0111
801.00,0.0104
800.00,0.0099
799.00,0.0094
798.00,0.0091
797.00,0.0088
796.00,0.0086
795.00,0.0085
794.00,0.0082
793.00,0.0080
792.00,0.0078
791.00,0.0076
790.00,0.0073
789.00,0.0071
788.00,0.0069
787.00,0.0067
786.00,0.0065
785.00,0.0063
784.00,0.0062
783.00,0.0061
782.00,0.0060
781.00,0.0060
780.00,0.0059
779.00,0.0058
778.00,0.0058
777.00,0.0058
776.00,0.0060
775.00,0.0061
774.00,0.0063
773.00,0.0066
772.00,0.0069
771.00,0.0073
770.00,0.0075
769.00,0.0077
768.00,0.0077
767.00,0.0077
766.00,0.0076
765.00,0.0074
764.00,0.0071
763.00,0.0068
762.00,0.0065
761.00,0.0062
760.00,0.0060
759.00,0.0059
758.00,0.0058
757.00,0.0057
756.00,0.0055
755.00,0.0053
754.00,0.0052
753.00,0.0053
752.00,0.0054
751.00,0.0055
750.00,0.0054
749.00,0.0053
748.00,0.0053
747.00,0.0054
746.00,0.0056
745.00,0.0057
744.00,0.0057
743.00,0.0057
742.00,0.0056
741.00,0.0057
740.00,0.0058
739.00,0.0060
738.00,0.0062
737.00,0.0065
736.00,0.0067
735.00,0.0069
734.00,0.0070
733.00,0.0070
732.00,0.0069
731.00,0.0068
730.00,0.0067
729.00,0.0066
728.00,0.0064
727.00,0.0064
726.00,0.0064
725.00,0.0065
724.00,0.0067
723.00,0.0067
722.00,0.0067
721.00,0.0066
720.00,0.0064
719.00,0.0062
718.00,0.0060
717.00,0.0058
716.00,0.0056
715.00,0.0056
714.00,0.0056
713.00,0.0057
712.00,0.0058
711.00,0.0059
710.00,0.0060
709.00,0.0061
708.00,0.0061
707.00,0.0060
706.00,0.0059
705.00,0.0060
704.00,0.0061
703.00,0.0062
702.00,0.0062
701.00,0.0061
700.00,0.0060
699.00,0.0059
698.00,0.0057
697.00,0.0055
696.00,0.0054
695.00,0.0054
694.00,0.0056
693.00,0.0059
692.00,0.0061
691.00,0.0061
690.00,0.0059
689.00,0.0057
688.00,0.0055
687.00,0.0053
686.00,0.0051
685.00,0.0051
684.00,0.0050
683.00,0.0051
682.00,0.0051
681.00,0.0052
680.00,0.0053
679.00,0.0053
678.00,0.0053
677.00,0.0052
676.00,0.0053
675.00,0.0055
674.00,0.0057
673.00,0.0058
672.00,0.0057
671.00,0.0055
670.00,0.0054
669.00,0.0054
668.00,0.0055
667.00,0.0056
666.00,0.0056
665.00,0.0056
664.00,0.0057
663.00,0.0059
662.00,0.0059
661.00,0.0057
660.00,0.0056
659.00,0.0055
658.00,0.0055
657.00,0.0055
656.00,0.0055
655.00,0.0056
654.00,0.0056
653.00,0.0056
652.00,0.0055
651.00,0.0055
650.00,0.0055
649.00,0.0055
648.00,0.0056
647.00,0.0056
646.00,0.0056
645.00,0.0057
644.00,0.0057
643.00,0.0056
642.00,0.0054
641.00,0.0052
640.00,0.0051
639.00,0.0050
638.00,0.0052
637.00,0.0053
636.00,0.0054
635.00,0.0055
634.00,0.0057
633.00,0.0059
632.00,0.0060
631.00,0.0059
630.00,0.0057
629.00,0.0056
628.00,0.0058
627.00,0.0063
626.00,0.0067
625.00,0.0067
624.00,0.0065
623.00,0.0063
622.00,0.0061
621.00,0.0061
620.00,0.0060
619.00,0.0058
618.00,0.0054
617.00,0.0052
616.00,0.0052
615.00,0.0053
614.00,0.0054
613.00,0.0054
612.00,0.0053
611.00,0.0052
610.00,0.0052
609.00,0.0053
608.00,0.0055
607.00,0.0057
606.00,0.0058
605.00,0.0058
604.00,0.0056
603.00,0.0055
602.00,0.0055
601.00,0.0056
600.00,0.0058
599.00,0.0058
598.00,0.0058
597.00,0.0057
596.00,0.0058
595.00,0.0062
594.00,0.0064
593.00,0.0065
592.00,0.0063
591.00,0.0059
590.00,0.0057
589.00,0.0057
588.00,0.0058
587.00,0.0061
586.00,0.0065
585.00,0.0068
584.00,0.0069
583.00,0.0069
582.00,0.0070
581.00,0.0072
580.00,0.0074
579.00,0.0075
578.00,0.0076
577.00,0.0079
576.00,0.0080
575.00,0.0078
574.00,0.0074
573.00,0.0069
572.00,0.0065
571.00,0.0062
570.00,0.0060
569.00,0.0060
568.00,0.0062
567.00,0.0063
566.00,0.0062
565.00,0.0059
564.00,0.0058
563.00,0.0058
562.00,0.0061
561.00,0.0064
560.00,0.0066
559.00,0.0067
558.00,0.0068
557.00,0.0069
556.00,0.0070
555.00,0.0072
554.00,0.0072
553.00,0.0071
552.00,0.0068
551.00,0.0065
550.00,0.0062
549.00,0.0062
548.00,0.0062
547.00,0.0063
546.00,0.0064
545.00,0.0065
544.00,0.0065
543.00,0.0066
542.00,0.0067
541.00,0.0067
540.00,0.0066
539.00,0.0064
538.00,0.0063
537.00,0.0064
536.00,0.0068
535.00,0.0073
534.00,0.0077
533.00,0.0078
532.00,0.0077
531.00,0.0075
530.00,0.0074
529.00,0.0075
528.00,0.0077
527.00,0.0077
526.00,0.0075
525.00,0.0074
524.00,0.0074
523.00,0.0075
522.00,0.0074
521.00,0.0073
520.00,0.0070
519.00,0.0067
518.00,0.0065
517.00,0.0067
516.00,0.0071
515.00,0.0074
514.00,0.0073
513.00,0.0069
512.00,0.0066
511.00,0.0068
510.00,0.0073
509.00,0.0077
508.00,0.0076
507.00,0.0073
506.00,0.0068
505.00,0.0064
504.00,0.0059
503.00,0.0055
502.00,0.0053
501.00,0.0051
500.00,0.0050
499.00,0.0051
498.00,0.0056
497.00,0.0062
496.00,0.0068
495.00,0.0071
494.00,0.0074
493.00,0.0077
492.00,0.0077
491.00,0.0074
490.00,0.0069
489.00,0.0065
488.00,0.0064
487.00,0.0064
486.00,0.0062
485.00,0.0057
484.00,0.0050
483.00,0.0045
482.00,0.0047
481.00,0.0054
480.00,0.0063
479.00,0.0069
478.00,0.0072
477.00,0.0073
476.00,0.0078
475.00,0.0085
474.00,0.0092
473.00,0.0097
472.00,0.0101
471.00,0.0104
470.00,0.0107
469.00,0.0108
468.00,0.0108
467.00,0.0104
466.00,0.0097
465.00,0.0087
464.00,0.0077
463.00,0.0075
462.00,0.0088
461.00,0.0112
460.00,0.0137
459.00,0.0151
458.00,0.0149
457.00,0.0139
456.00,0.0131
455.00,0.0126
454.00,0.0122
453.00,0.0114
452.00,0.0097
451.00,0.0078
450.00,0.0065
