Created as New Dataset,Sample 086 By Administrator Date Tuesday, September 09 2025
cm-1,A
4000.00,0.0010
3999.00,0.0010
3998.00,0.0010
3997.00,0.0010
3996.00,0.0010
3995.00,0.0011
3994.00,0.0011
3993.00,0.0011
3992.00,0.0011
3991.00,0.0011
3990.00,0.0011
3989.00,0.0011
3988.00,0.0010
3987.00,0.0010
3986.00,0.0010
3985.00,0.0010
3984.00,0.0010
3983.00,0.0009
3982.00,0.0009
3981.00,0.0009
3980.00,0.0009
3979.00,0.0008
3978.00,0.0008
3977.00,0.0008
3976.00,0.0008
3975.00,0.0009
3974.00,0.0009
3973.00,0.0009
3972.00,0.0009
3971.00,0.0009
3970.00,0.0009
3969.00,0.0009
3968.00,0.0009
3967.00,0.0009
3966.00,0.0009
3965.00,0.0009
3964.00,0.0009
3963.00,0.0009
3962.00,0.0008
3961.00,0.0008
3960.00,0.0008
3959.00,0.0008
3958.00,0.0008
3957.00,0.0007
3956.00,0.0007
3955.00,0.0007
3954.00,0.0007
3953.00,0.0007
3952.00,0.0008
3951.00,0.0008
3950.00,0.0008
3949.00,0.0008
3948.00,0.0008
3947.00,0.0008
3946.00,0.0008
3945.00,0.0008
3944.00,0.0008
3943.00,0.0009
3942.00,0.0009
3941.00,0.0009
3940.00,0.0009
3939.00,0.0009
3938.00,0.0009
3937.00,0.0009
3936.00,0.0009
3935.00,0.0009
3934.00,0.0009
3933.00,0.0009
3932.00,0.0009
3931.00,0.0009
3930.00,0.0009
3929.00,0.0009
3928.00,0.0009
3927.00,0.0009
3926.00,0.0009
3925.00,0.0009
3924.00,0.0009
3923.00,0.0009
3922.00,0.0009
3921.00,0.0009
3920.00,0.0009
3919.00,0.0009
3918.00,0.0009
3917.00,0.0009
3916.00,0.0009
3915.00,0.0009
3914.00,0.0009
3913.00,0.0009
3912.00,0.0008
3911.00,0.0008
3910.00,0.0008
3909.00,0.0008
3908.00,0.0008
3907.00,0.0009
3906.00,0.0009
3905.00,0.0009
3904.00,0.0010
3903.00,0.0010
3902.00,0.0010
3901.00,0.0010
3900.00,0.0010
3899.00,0.0009
3898.00,0.0009
3897.00,0.0009
3896.00,0.0009
3895.00,0.0008
3894.00,0.0008
3893.00,0.0009
3892.00,0.0009
3891.00,0.0009
3890.00,0.0009
3889.00,0.0010
3888.00,0.0009
3887.00,0.0009
3886.00,0.0009
3885.00,0.0009
3884.00,0.0009
3883.00,0.0009
3882.00,0.0008
3881.00,0.0008
3880.00,0.0008
3879.00,0.0009
3878.00,0.0009
3877.00,0.0008
3876.00,0.0008
3875.00,0.0008
3874.00,0.0009
3873.00,0.0009
3872.00,0.0009
3871.00,0.0009
3870.00,0.0009
3869.00,0.0010
3868.00,0.0010
3867.00,0.0009
3866.00,0.0009
3865.00,0.0008
3864.00,0.0008
3863.00,0.0008
3862.00,0.0008
3861.00,0.0008
3860.00,0.0008
3859.00,0.0008
3858.00,0.0009
3857.00,0.0009
3856.00,0.0009
3855.00,0.0009
3854.00,0.0009
3853.00,0.0009
3852.00,0.0009
3851.00,0.0009
3850.00,0.0009
3849.00,0.0009
3848.00,0.0009
3847.00,0.0009
3846.00,0.0009
3845.00,0.0008
3844.00,0.0008
3843.00,0.0008
3842.00,0.0008
3841.00,0.0008
3840.00,0.0008
3839.00,0.0008
3838.00,0.0009
3837.00,0.0009
3836.00,0.0009
3835.00,0.0008
3834.00,0.0008
3833.00,0.0008
3832.00,0.0009
3831.00,0.0009
3830.00,0.0009
3829.00,0.0009
3828.00,0.0009
3827.00,0.0009
3826.00,0.0009
3825.00,0.0010
3824.00,0.0009
3823.00,0.0009
3822.00,0.0008
3821.00,0.0009
3820.00,0.0009
3819.00,0.0009
3818.00,0.0009
3817.00,0.0008
3816.00,0.0008
3815.00,0.0009
3814.00,0.0008
3813.00,0.0008
3812.00,0.0008
3811.00,0.0009
3810.00,0.0009
3809.00,0.0009
3808.00,0.0009
3807.00,0.0009
3806.00,0.0009
3805.00,0.0009
3804.00,0.0008
3803.00,0.0008
3802.00,0.0008
3801.00,0.0009
3800.00,0.0009
3799.00,0.0009
3798.00,0.0008
3797.00,0.0008
3796.00,0.0008
3795.00,0.0008
3794.00,0.0008
3793.00,0.0008
3792.00,0.0008
3791.00,0.0008
3790.00,0.0008
3789.00,0.0008
3788.00,0.0008
3787.00,0.0007
3786.00,0.0007
3785.00,0.0007
3784.00,0.0008
3783.00,0.0008
3782.00,0.0008
3781.00,0.0007
3780.00,0.0007
3779.00,0.0007
3778.00,0.0008
3777.00,0.0008
3776.00,0.0008
3775.00,0.0008
3774.00,0.0008
3773.00,0.0008
3772.00,0.0009
3771.00,0.0009
3770.00,0.0010
3769.00,0.0010
3768.00,0.0010
3767.00,0.0010
3766.00,0.0009
3765.00,0.0009
3764.00,0.0009
3763.00,0.0009
3762.00,0.0009
3761.00,0.0009
3760.00,0.0009
3759.00,0.0009
3758.00,0.0009
3757.00,0.0009
3756.00,0.0009
3755.00,0.0010
3754.00,0.0010
3753.00,0.0010
3752.00,0.0010
3751.00,0.0010
3750.00,0.0009
3749.00,0.0010
3748.00,0.0010
3747.00,0.0010
3746.00,0.0010
3745.00,0.0010
3744.00,0.0010
3743.00,0.0010
3742.00,0.0010
3741.00,0.0009
3740.00,0.0009
3739.00,0.0009
3738.00,0.0008
3737.00,0.0008
3736.00,0.0007
3735.00,0.0007
3734.00,0.0007
3733.00,0.0007
3732.00,0.0007
3731.00,0.0008
3730.00,0.0008
3729.00,0.0007
3728.00,0.0007
3727.00,0.0007
3726.00,0.0007
3725.00,0.0007
3724.00,0.0007
3723.00,0.0007
3722.00,0.0007
3721.00,0.0007
3720.00,0.0007
3719.00,0.0007
3718.00,0.0008
3717.00,0.0008
3716.00,0.0008
3715.00,0.0008
3714.00,0.0008
3713.00,0.0008
3712.00,0.0008
3711.00,0.0008
3710.00,0.0007
3709.00,0.0007
3708.00,0.0006
3707.00,0.0006
3706.00,0.0006
3705.00,0.0006
3704.00,0.0006
3703.00,0.0006
3702.00,0.0006
3701.00,0.0007
3700.00,0.0007
3699.00,0.0007
3698.00,0.0007
3697.00,0.0007
3696.00,0.0007
3695.00,0.0007
3694.00,0.0007
3693.00,0.0008
3692.00,0.0007
3691.00,0.0007
3690.00,0.0006
3689.00,0.0006
3688.00,0.0007
3687.00,0.0007
3686.00,0.0007
3685.00,0.0007
3684.00,0.0007
3683.00,0.0007
3682.00,0.0008
3681.00,0.0008
3680.00,0.0008
3679.00,0.0008
3678.00,0.0008
3677.00,0.0008
3676.00,0.0008
3675.00,0.0009
3674.00,0.0009
3673.00,0.0009
3672.00,0.0008
3671.00,0.0008
3670.00,0.0008
3669.00,0.0008
3668.00,0.0008
3667.00,0.0008
3666.00,0.0008
3665.00,0.0007
3664.00,0.0007
3663.00,0.0007
3662.00,0.0007
3661.00,0.0008
3660.00,0.0008
3659.00,0.0008
3658.00,0.0008
3657.00,0.0008
3656.00,0.0008
3655.00,0.0008
3654.00,0.0008
3653.00,0.0009
3652.00,0.0009
3651.00,0.0010
3650.00,0.0010
3649.00,0.0010
3648.00,0.0010
3647.00,0.0009
3646.00,0.0009
3645.00,0.0008
3644.00,0.0008
3643.00,0.0007
3642.00,0.0007
3641.00,0.0007
3640.00,0.0007
3639.00,0.0007
3638.00,0.0008
3637.00,0.0008
3636.00,0.0009
3635.00,0.0009
3634.00,0.0010
3633.00,0.0010
3632.00,0.0009
3631.00,0.0009
3630.00,0.0009
3629.00,0.0009
3628.00,0.0010
3627.00,0.0010
3626.00,0.0010
3625.00,0.0010
3624.00,0.0010
3623.00,0.0011
3622.00,0.0011
3621.00,0.0011
3620.00,0.0011
3619.00,0.0011
3618.00,0.0011
3617.00,0.0011
3616.00,0.0010
3615.00,0.0010
3614.00,0.0010
3613.00,0.0011
3612.00,0.0012
3611.00,0.0012
3610.00,0.0013
3609.00,0.0013
3608.00,0.0013
3607.00,0.0013
3606.00,0.0013
3605.00,0.0013
3604.00,0.0012
3603.00,0.0012
3602.00,0.0012
3601.00,0.0012
3600.00,0.0012
3599.00,0.0013
3598.00,0.0013
3597.00,0.0014
3596.00,0.0014
3595.00,0.0014
3594.00,0.0015
3593.00,0.0015
3592.00,0.0015
3591.00,0.0015
3590.00,0.0016
3589.00,0.0016
3588.00,0.0017
3587.00,0.0017
3586.00,0.0017
3585.00,0.0016
3584.00,0.0016
3583.00,0.0016
3582.00,0.0016
3581.00,0.0017
3580.00,0.0017
3579.00,0.0018
3578.00,0.0018
3577.00,0.0018
3576.00,0.0018
3575.00,0.0018
3574.00,0.0018
3573.00,0.0018
3572.00,0.0019
3571.00,0.0019
3570.00,0.0019
3569.00,0.0019
3568.00,0.0019
3567.00,0.0019
3566.00,0.0019
3565.00,0.0020
3564.00,0.0020
3563.00,0.0020
3562.00,0.0021
3561.00,0.0021
3560.00,0.0022
3559.00,0.0022
3558.00,0.0022
3557.00,0.0022
3556.00,0.0022
3555.00,0.0023
3554.00,0.0023
3553.00,0.0024
3552.00,0.0024
3551.00,0.0024
3550.00,0.0024
3549.00,0.0024
3548.00,0.0024
3547.00,0.0025
3546.00,0.0025
3545.00,0.0025
3544.00,0.0025
3543.00,0.0025
3542.00,0.0025
3541.00,0.0025
3540.00,0.0025
3539.00,0.0026
3538.00,0.0026
3537.00,0.0027
3536.00,0.0027
3535.00,0.0027
3534.00,0.0027
3533.00,0.0028
3532.00,0.0028
3531.00,0.0028
3530.00,0.0029
3529.00,0.0029
3528.00,0.0029
3527.00,0.0030
3526.00,0.0030
3525.00,0.0030
3524.00,0.0030
3523.00,0.0030
3522.00,0.0030
3521.00,0.0030
3520.00,0.0030
3519.00,0.0030
3518.00,0.0030
3517.00,0.0030
3516.00,0.0030
3515.00,0.0031
3514.00,0.0031
3513.00,0.0032
3512.00,0.0032
3511.00,0.0033
3510.00,0.0033
3509.00,0.0033
3508.00,0.0033
3507.00,0.0034
3506.00,0.0034
3505.00,0.0034
3504.00,0.0034
3503.00,0.0034
3502.00,0.0034
3501.00,0.0034
3500.00,0.0034
3499.00,0.0035
3498.00,0.0035
3497.00,0.0036
3496.00,0.0037
3495.00,0.0037
3494.00,0.0037
3493.00,0.0038
3492.00,0.0038
3491.00,0.0038
3490.00,0.0038
3489.00,0.0038
3488.00,0.0038
3487.00,0.0038
3486.00,0.0038
3485.00,0.0038
3484.00,0.0039
3483.00,0.0039
3482.00,0.0039
3481.00,0.0039
3480.00,0.0039
3479.00,0.0040
3478.00,0.0040
3477.00,0.0040
3476.00,0.0041
3475.00,0.0041
3474.00,0.0042
3473.00,0.0042
3472.00,0.0042
3471.00,0.0042
3470.00,0.0042
3469.00,0.0042
3468.00,0.0043
3467.00,0.0043
3466.00,0.0043
3465.00,0.0043
3464.00,0.0043
3463.00,0.0043
3462.00,0.0043
3461.00,0.0043
3460.00,0.0044
3459.00,0.0044
3458.00,0.0045
3457.00,0.0045
3456.00,0.0046
3455.00,0.0046
3454.00,0.0046
3453.00,0.0046
3452.00,0.0046
3451.00,0.0046
3450.00,0.0046
3449.00,0.0046
3448.00,0.0046
3447.00,0.0047
3446.00,0.0047
3445.00,0.0047
3444.00,0.0047
3443.00,0.0047
3442.00,0.0047
3441.00,0.0048
3440.00,0.0048
3439.00,0.0048
3438.00,0.0049
3437.00,0.0049
3436.00,0.0049
3435.00,0.0049
3434.00,0.0050
3433.00,0.0050
3432.00,0.0050
3431.00,0.0050
3430.00,0.0050
3429.00,0.0051
3428.00,0.0051
3427.00,0.0052
3426.00,0.0052
3425.00,0.0052
3424.00,0.0052
3423.00,0.0052
3422.00,0.0052
3421.00,0.0052
3420.00,0.0052
3419.00,0.0053
3418.00,0.0053
3417.00,0.0054
3416.00,0.0054
3415.00,0.0054
3414.00,0.0055
3413.00,0.0055
3412.00,0.0054
3411.00,0.0054
3410.00,0.0054
3409.00,0.0054
3408.00,0.0055
3407.00,0.0055
3406.00,0.0056
3405.00,0.0056
3404.00,0.0056
3403.00,0.0056
3402.00,0.0056
3401.00,0.0057
3400.00,0.0057
3399.00,0.0056
3398.00,0.0056
3397.00,0.0056
3396.00,0.0056
3395.00,0.0056
3394.00,0.0057
3393.00,0.0057
3392.00,0.0057
3391.00,0.0057
3390.00,0.0057
3389.00,0.0057
3388.00,0.0057
3387.00,0.0057
3386.00,0.0057
3385.00,0.0057
3384.00,0.0057
3383.00,0.0057
3382.00,0.0057
3381.00,0.0058
3380.00,0.0058
3379.00,0.0058
3378.00,0.0058
3377.00,0.0058
3376.00,0.0058
3375.00,0.0058
3374.00,0.0058
3373.00,0.0058
3372.00,0.0058
3371.00,0.0058
3370.00,0.0058
3369.00,0.0058
3368.00,0.0058
3367.00,0.0059
3366.00,0.0059
3365.00,0.0059
3364.00,0.0059
3363.00,0.0059
3362.00,0.0059
3361.00,0.0058
3360.00,0.0058
3359.00,0.0058
3358.00,0.0058
3357.00,0.0059
3356.00,0.0059
3355.00,0.0059
3354.00,0.0059
3353.00,0.0058
3352.00,0.0058
3351.00,0.0058
3350.00,0.0058
3349.00,0.0059
3348.00,0.0059
3347.00,0.0059
3346.00,0.0059
3345.00,0.0059
3344.00,0.0058
3343.00,0.0058
3342.00,0.0058
3341.00,0.0058
3340.00,0.0058
3339.00,0.0058
3338.00,0.0058
3337.00,0.0058
3336.00,0.0058
3335.00,0.0057
3334.00,0.0057
3333.00,0.0057
3332.00,0.0057
3331.00,0.0057
3330.00,0.0057
3329.00,0.0056
3328.00,0.0056
3327.00,0.0056
3326.00,0.0056
3325.00,0.0056
3324.00,0.0056
3323.00,0.0056
3322.00,0.0055
3321.00,0.0055
3320.00,0.0055
3319.00,0.0056
3318.00,0.0056
3317.00,0.0056
3316.00,0.0056
3315.00,0.0055
3314.00,0.0055
3313.00,0.0055
3312.00,0.0055
3311.00,0.0055
3310.00,0.0055
3309.00,0.0055
3308.00,0.0055
3307.00,0.0055
3306.00,0.0055
3305.00,0.0055
3304.00,0.0056
3303.00,0.0056
3302.00,0.0057
3301.00,0.0057
3300.00,0.0056
3299.00,0.0056
3298.00,0.0055
3297.00,0.0055
3296.00,0.0055
3295.00,0.0055
3294.00,0.0055
3293.00,0.0054
3292.00,0.0054
3291.00,0.0054
3290.00,0.0054
3289.00,0.0053
3288.00,0.0053
3287.00,0.0053
3286.00,0.0053
3285.00,0.0053
3284.00,0.0053
3283.00,0.0053
3282.00,0.0054
3281.00,0.0054
3280.00,0.0054
3279.00,0.0054
3278.00,0.0054
3277.00,0.0054
3276.00,0.0054
3275.00,0.0054
3274.00,0.0054
3273.00,0.0054
3272.00,0.0053
3271.00,0.0052
3270.00,0.0052
3269.00,0.0051
3268.00,0.0051
3267.00,0.0051
3266.00,0.0051
3265.00,0.0052
3264.00,0.0052
3263.00,0.0052
3262.00,0.0052
3261.00,0.0052
3260.00,0.0051
3259.00,0.0051
3258.00,0.0050
3257.00,0.0050
3256.00,0.0050
3255.00,0.0050
3254.00,0.0050
3253.00,0.0050
3252.00,0.0050
3251.00,0.0050
3250.00,0.0050
3249.00,0.0049
3248.00,0.0049
3247.00,0.0049
3246.00,0.0049
3245.00,0.0049
3244.00,0.0049
3243.00,0.0048
3242.00,0.0048
3241.00,0.0048
3240.00,0.0048
3239.00,0.0048
3238.00,0.0049
3237.00,0.0049
3236.00,0.0049
3235.00,0.0049
3234.00,0.0049
3233.00,0.0049
3232.00,0.0049
3231.00,0.0049
3230.00,0.0049
3229.00,0.0049
3228.00,0.0050
3227.00,0.0051
3226.00,0.0051
3225.00,0.0050
3224.00,0.0050
3223.00,0.0050
3222.00,0.0050
3221.00,0.0051
3220.00,0.0051
3219.00,0.0051
3218.00,0.0052
3217.00,0.0052
3216.00,0.0052
3215.00,0.0052
3214.00,0.0052
3213.00,0.0052
3212.00,0.0053
3211.00,0.0053
3210.00,0.0053
3209.00,0.0053
3208.00,0.0053
3207.00,0.0053
3206.00,0.0053
3205.00,0.0053
3204.00,0.0053
3203.00,0.0053
3202.00,0.0053
3201.00,0.0053
3200.00,0.0054
3199.00,0.0054
3198.00,0.0054
3197.00,0.0054
3196.00,0.0055
3195.00,0.0055
3194.00,0.0055
3193.00,0.0055
3192.00,0.0055
3191.00,0.0055
3190.00,0.0055
3189.00,0.0055
3188.00,0.0054
3187.00,0.0054
3186.00,0.0053
3185.00,0.0053
3184.00,0.0052
3183.00,0.0052
3182.00,0.0052
3181.00,0.0052
3180.00,0.0052
3179.00,0.0052
3178.00,0.0051
3177.00,0.0051
3176.00,0.0051
3175.00,0.0050
3174.00,0.0050
3173.00,0.0050
3172.00,0.0050
3171.00,0.0049
3170.00,0.0049
3169.00,0.0049
3168.00,0.0049
3167.00,0.0049
3166.00,0.0048
3165.00,0.0048
3164.00,0.0048
3163.00,0.0048
3162.00,0.0047
3161.00,0.0048
3160.00,0.0048
3159.00,0.0048
3158.00,0.0047
3157.00,0.0047
3156.00,0.0046
3155.00,0.0046
3154.00,0.0046
3153.00,0.0047
3152.00,0.0047
3151.00,0.0046
3150.00,0.0046
3149.00,0.0046
3148.00,0.0046
3147.00,0.0046
3146.00,0.0046
3145.00,0.0045
3144.00,0.0045
3143.00,0.0045
3142.00,0.0045
3141.00,0.0045
3140.00,0.0045
3139.00,0.0045
3138.00,0.0044
3137.00,0.0044
3136.00,0.0044
3135.00,0.0043
3134.00,0.0044
3133.00,0.0044
3132.00,0.0044
3131.00,0.0043
3130.00,0.0043
3129.00,0.0042
3128.00,0.0042
3127.00,0.0041
3126.00,0.0041
3125.00,0.0041
3124.00,0.0041
3123.00,0.0040
3122.00,0.0040
3121.00,0.0039
3120.00,0.0039
3119.00,0.0039
3118.00,0.0039
3117.00,0.0039
3116.00,0.0039
3115.00,0.0039
3114.00,0.0039
3113.00,0.0039
3112.00,0.0038
3111.00,0.0038
3110.00,0.0038
3109.00,0.0038
3108.00,0.0038
3107.00,0.0038
3106.00,0.0038
3105.00,0.0038
3104.00,0.0037
3103.00,0.0037
3102.00,0.0037
3101.00,0.0037
3100.00,0.0037
3099.00,0.0037
3098.00,0.0037
3097.00,0.0036
3096.00,0.0036
3095.00,0.0036
3094.00,0.0036
3093.00,0.0036
3092.00,0.0036
3091.00,0.0036
3090.00,0.0036
3089.00,0.0036
3088.00,0.0036
3087.00,0.0036
3086.00,0.0036
3085.00,0.0035
3084.00,0.0035
3083.00,0.0035
3082.00,0.0035
3081.00,0.0035
3080.00,0.0035
3079.00,0.0035
3078.00,0.0035
3077.00,0.0035
3076.00,0.0035
3075.00,0.0035
3074.00,0.0035
3073.00,0.0035
3072.00,0.0036
3071.00,0.0036
3070.00,0.0036
3069.00,0.0036
3068.00,0.0036
3067.00,0.0036
3066.00,0.0036
3065.00,0.0036
3064.00,0.0036
3063.00,0.0036
3062.00,0.0036
3061.00,0.0037
3060.00,0.0037
3059.00,0.0037
3058.00,0.0037
3057.00,0.0037
3056.00,0.0037
3055.00,0.0037
3054.00,0.0038
3053.00,0.0038
3052.00,0.0038
3051.00,0.0038
3050.00,0.0038
3049.00,0.0038
3048.00,0.0038
3047.00,0.0038
3046.00,0.0039
3045.00,0.0039
3044.00,0.0039
3043.00,0.0039
3042.00,0.0040
3041.00,0.0040
3040.00,0.0040
3039.00,0.0040
3038.00,0.0041
3037.00,0.0041
3036.00,0.0042
3035.00,0.0042
3034.00,0.0042
3033.00,0.0043
3032.00,0.0043
3031.00,0.0043
3030.00,0.0044
3029.00,0.0044
3028.00,0.0045
3027.00,0.0046
3026.00,0.0046
3025.00,0.0047
3024.00,0.0047
3023.00,0.0048
3022.00,0.0049
3021.00,0.0050
3020.00,0.0050
3019.00,0.0051
3018.00,0.0052
3017.00,0.0053
3016.00,0.0053
3015.00,0.0054
3014.00,0.0056
3013.00,0.0057
3012.00,0.0058
3011.00,0.0060
3010.00,0.0061
3009.00,0.0063
3008.00,0.0065
3007.00,0.0067
3006.00,0.0069
3005.00,0.0071
3004.00,0.0073
3003.00,0.0075
3002.00,0.0077
3001.00,0.0080
3000.00,0.0083
2999.00,0.0087
2998.00,0.0090
2997.00,0.0094
2996.00,0.0098
2995.00,0.0102
2994.00,0.0106
2993.00,0.0111
2992.00,0.0117
2991.00,0.0123
2990.00,0.0131
2989.00,0.0139
2988.00,0.0148
2987.00,0.0158
2986.00,0.0169
2985.00,0.0181
2984.00,0.0194
2983.00,0.0210
2982.00,0.0228
2981.00,0.0247
2980.00,0.0269
2979.00,0.0294
2978.00,0.0321
2977.00,0.0353
2976.00,0.0390
2975.00,0.0431
2974.00,0.0479
2973.00,0.0532
2972.00,0.0593
2971.00,0.0661
2970.00,0.0737
2969.00,0.0821
2968.00,0.0915
2967.00,0.1016
2966.00,0.1126
2965.00,0.1241
2964.00,0.1360
2963.00,0.1478
2962.00,0.1589
2961.00,0.1687
2960.00,0.1767
2959.00,0.1829
2958.00,0.1872
2957.00,0.1902
2956.00,0.1924
2955.00,0.1944
2954.00,0.1967
2953.00,0.1991
2952.00,0.2012
2951.00,0.2021
2950.00,0.2010
2949.00,0.1970
2948.00,0.1899
2947.00,0.1798
2946.00,0.1675
2945.00,0.1542
2944.00,0.1412
2943.00,0.1296
2942.00,0.1202
2941.00,0.1133
2940.00,0.1089
2939.00,0.1069
2938.00,0.1069
2937.00,0.1088
2936.00,0.1123
2935.00,0.1173
2934.00,0.1236
2933.00,0.1310
2932.00,0.1395
2931.00,0.1486
2930.00,0.1583
2929.00,0.1680
2928.00,0.1776
2927.00,0.1868
2926.00,0.1955
2925.00,0.2038
2924.00,0.2116
2923.00,0.2192
2922.00,0.2266
2921.00,0.2335
2920.00,0.2396
2919.00,0.2443
2918.00,0.2470
2917.00,0.2471
2916.00,0.2445
2915.00,0.2395
2914.00,0.2326
2913.00,0.2249
2912.00,0.2171
2911.00,0.2097
2910.00,0.2030
2909.00,0.1969
2908.00,0.1913
2907.00,0.1858
2906.00,0.1801
2905.00,0.1741
2904.00,0.1676
2903.00,0.1609
2902.00,0.1540
2901.00,0.1471
2900.00,0.1403
2899.00,0.1338
2898.00,0.1277
2897.00,0.1222
2896.00,0.1173
2895.00,0.1131
2894.00,0.1097
2893.00,0.1070
2892.00,0.1050
2891.00,0.1036
2890.00,0.1028
2889.00,0.1025
2888.00,0.1025
2887.00,0.1029
2886.00,0.1037
2885.00,0.1048
2884.00,0.1063
2883.00,0.1083
2882.00,0.1106
2881.00,0.1131
2880.00,0.1154
2879.00,0.1173
2878.00,0.1184
2877.00,0.1187
2876.00,0.1183
2875.00,0.1175
2874.00,0.1167
2873.00,0.1164
2872.00,0.1167
2871.00,0.1178
2870.00,0.1195
2869.00,0.1211
2868.00,0.1221
2867.00,0.1217
2866.00,0.1191
2865.00,0.1142
2864.00,0.1073
2863.00,0.0989
2862.00,0.0903
2861.00,0.0821
2860.00,0.0750
2859.00,0.0693
2858.00,0.0650
2857.00,0.0620
2856.00,0.0602
2855.00,0.0593
2854.00,0.0592
2853.00,0.0599
2852.00,0.0612
2851.00,0.0630
2850.00,0.0654
2849.00,0.0682
2848.00,0.0717
2847.00,0.0758
2846.00,0.0808
2845.00,0.0867
2844.00,0.0936
2843.00,0.1011
2842.00,0.1089
2841.00,0.1164
2840.00,0.1227
2839.00,0.1268
2838.00,0.1279
2837.00,0.1253
2836.00,0.1192
2835.00,0.1101
2834.00,0.0992
2833.00,0.0876
2832.00,0.0766
2831.00,0.0667
2830.00,0.0584
2829.00,0.0516
2828.00,0.0460
2827.00,0.0416
2826.00,0.0379
2825.00,0.0350
2824.00,0.0325
2823.00,0.0304
2822.00,0.0285
2821.00,0.0270
2820.00,0.0256
2819.00,0.0245
2818.00,0.0234
2817.00,0.0226
2816.00,0.0217
2815.00,0.0210
2814.00,0.0204
2813.00,0.0197
2812.00,0.0192
2811.00,0.0187
2810.00,0.0181
2809.00,0.0176
2808.00,0.0171
2807.00,0.0165
2806.00,0.0159
2805.00,0.0152
2804.00,0.0146
2803.00,0.0140
2802.00,0.0134
2801.00,0.0130
2800.00,0.0126
2799.00,0.0123
2798.00,0.0120
2797.00,0.0118
2796.00,0.0116
2795.00,0.0113
2794.00,0.0111
2793.00,0.0108
2792.00,0.0104
2791.00,0.0100
2790.00,0.0096
2789.00,0.0093
2788.00,0.0089
2787.00,0.0086
2786.00,0.0083
2785.00,0.0081
2784.00,0.0078
2783.00,0.0076
2782.00,0.0074
2781.00,0.0072
2780.00,0.0070
2779.00,0.0068
2778.00,0.0066
2777.00,0.0065
2776.00,0.0063
2775.00,0.0062
2774.00,0.0061
2773.00,0.0061
2772.00,0.0060
2771.00,0.0060
2770.00,0.0059
2769.00,0.0059
2768.00,0.0058
2767.00,0.0058
2766.00,0.0057
2765.00,0.0057
2764.00,0.0057
2763.00,0.0057
2762.00,0.0057
2761.00,0.0056
2760.00,0.0056
2759.00,0.0056
2758.00,0.0056
2757.00,0.0055
2756.00,0.0055
2755.00,0.0055
2754.00,0.0055
2753.00,0.0054
2752.00,0.0054
2751.00,0.0054
2750.00,0.0054
2749.00,0.0054
2748.00,0.0054
2747.00,0.0054
2746.00,0.0055
2745.00,0.0056
2744.00,0.0057
2743.00,0.0058
2742.00,0.0059
2741.00,0.0060
2740.00,0.0061
2739.00,0.0063
2738.00,0.0064
2737.00,0.0065
2736.00,0.0067
2735.00,0.0069
2734.00,0.0070
2733.00,0.0072
2732.00,0.0073
2731.00,0.0075
2730.00,0.0077
2729.00,0.0080
2728.00,0.0082
2727.00,0.0085
2726.00,0.0088
2725.00,0.0090
2724.00,0.0091
2723.00,0.0091
2722.00,0.0091
2721.00,0.0089
2720.00,0.0086
2719.00,0.0083
2718.00,0.0079
2717.00,0.0076
2716.00,0.0073
2715.00,0.0070
2714.00,0.0067
2713.00,0.0065
2712.00,0.0064
2711.00,0.0062
2710.00,0.0061
2709.00,0.0059
2708.00,0.0057
2707.00,0.0056
2706.00,0.0055
2705.00,0.0054
2704.00,0.0053
2703.00,0.0052
2702.00,0.0051
2701.00,0.0050
2700.00,0.0050
2699.00,0.0049
2698.00,0.0049
2697.00,0.0049
2696.00,0.0048
2695.00,0.0048
2694.00,0.0048
2693.00,0.0048
2692.00,0.0048
2691.00,0.0048
2690.00,0.0048
2689.00,0.0048
2688.00,0.0048
2687.00,0.0048
2686.00,0.0048
2685.00,0.0048
2684.00,0.0048
2683.00,0.0048
2682.00,0.0048
2681.00,0.0048
2680.00,0.0049
2679.00,0.0049
2678.00,0.0049
2677.00,0.0048
2676.00,0.0048
2675.00,0.0048
2674.00,0.0048
2673.00,0.0048
2672.00,0.0048
2671.00,0.0048
2670.00,0.0047
2669.00,0.0047
2668.00,0.0047
2667.00,0.0047
2666.00,0.0048
2665.00,0.0049
2664.00,0.0049
2663.00,0.0049
2662.00,0.0050
2661.00,0.0050
2660.00,0.0050
2659.00,0.0050
2658.00,0.0050
2657.00,0.0050
2656.00,0.0049
2655.00,0.0049
2654.00,0.0049
2653.00,0.0048
2652.00,0.0047
2651.00,0.0047
2650.00,0.0046
2649.00,0.0045
2648.00,0.0045
2647.00,0.0045
2646.00,0.0044
2645.00,0.0044
2644.00,0.0044
2643.00,0.0043
2642.00,0.0043
2641.00,0.0042
2640.00,0.0042
2639.00,0.0041
2638.00,0.0041
2637.00,0.0040
2636.00,0.0039
2635.00,0.0039
2634.00,0.0039
2633.00,0.0039
2632.00,0.0040
2631.00,0.0040
2630.00,0.0040
2629.00,0.0041
2628.00,0.0041
2627.00,0.0042
2626.00,0.0042
2625.00,0.0042
2624.00,0.0042
2623.00,0.0042
2622.00,0.0042
2621.00,0.0042
2620.00,0.0042
2619.00,0.0042
2618.00,0.0043
2617.00,0.0043
2616.00,0.0042
2615.00,0.0042
2614.00,0.0042
2613.00,0.0041
2612.00,0.0041
2611.00,0.0040
2610.00,0.0040
2609.00,0.0039
2608.00,0.0038
2607.00,0.0037
2606.00,0.0036
2605.00,0.0035
2604.00,0.0034
2603.00,0.0033
2602.00,0.0033
2601.00,0.0034
2600.00,0.0034
2599.00,0.0034
2598.00,0.0034
2597.00,0.0034
2596.00,0.0034
2595.00,0.0034
2594.00,0.0034
2593.00,0.0035
2592.00,0.0035
2591.00,0.0035
2590.00,0.0035
2589.00,0.0036
2588.00,0.0037
2587.00,0.0039
2586.00,0.0040
2585.00,0.0040
2584.00,0.0041
2583.00,0.0041
2582.00,0.0041
2581.00,0.0040
2580.00,0.0040
2579.00,0.0039
2578.00,0.0037
2577.00,0.0036
2576.00,0.0035
2575.00,0.0034
2574.00,0.0033
2573.00,0.0032
2572.00,0.0031
2571.00,0.0031
2570.00,0.0030
2569.00,0.0029
2568.00,0.0029
2567.00,0.0028
2566.00,0.0028
2565.00,0.0028
2564.00,0.0027
2563.00,0.0027
2562.00,0.0026
2561.00,0.0025
2560.00,0.0025
2559.00,0.0025
2558.00,0.0025
2557.00,0.0025
2556.00,0.0025
2555.00,0.0025
2554.00,0.0025
2553.00,0.0024
2552.00,0.0024
2551.00,0.0023
2550.00,0.0023
2549.00,0.0023
2548.00,0.0022
2547.00,0.0022
2546.00,0.0021
2545.00,0.0021
2544.00,0.0021
2543.00,0.0020
2542.00,0.0020
2541.00,0.0019
2540.00,0.0018
2539.00,0.0018
2538.00,0.0019
2537.00,0.0018
2536.00,0.0018
2535.00,0.0018
2534.00,0.0018
2533.00,0.0019
2532.00,0.0019
2531.00,0.0019
2530.00,0.0019
2529.00,0.0019
2528.00,0.0018
2527.00,0.0018
2526.00,0.0017
2525.00,0.0017
2524.00,0.0017
2523.00,0.0016
2522.00,0.0015
2521.00,0.0015
2520.00,0.0014
2519.00,0.0013
2518.00,0.0013
2517.00,0.0013
2516.00,0.0013
2515.00,0.0013
2514.00,0.0014
2513.00,0.0014
2512.00,0.0013
2511.00,0.0013
2510.00,0.0013
2509.00,0.0012
2508.00,0.0012
2507.00,0.0012
2506.00,0.0012
2505.00,0.0011
2504.00,0.0011
2503.00,0.0011
2502.00,0.0011
2501.00,0.0012
2500.00,0.0012
2499.00,0.0012
2498.00,0.0013
2497.00,0.0013
2496.00,0.0013
2495.00,0.0013
2494.00,0.0013
2493.00,0.0013
2492.00,0.0013
2491.00,0.0013
2490.00,0.0013
2489.00,0.0013
2488.00,0.0012
2487.00,0.0012
2486.00,0.0012
2485.00,0.0012
2484.00,0.0012
2483.00,0.0012
2482.00,0.0012
2481.00,0.0012
2480.00,0.0012
2479.00,0.0012
2478.00,0.0011
2477.00,0.0010
2476.00,0.0010
2475.00,0.0010
2474.00,0.0010
2473.00,0.0010
2472.00,0.0010
2471.00,0.0010
2470.00,0.0010
2469.00,0.0010
2468.00,0.0010
2467.00,0.0010
2466.00,0.0010
2465.00,0.0011
2464.00,0.0011
2463.00,0.0011
2462.00,0.0011
2461.00,0.0012
2460.00,0.0012
2459.00,0.0012
2458.00,0.0013
2457.00,0.0013
2456.00,0.0013
2455.00,0.0014
2454.00,0.0013
2453.00,0.0013
2452.00,0.0013
2451.00,0.0013
2450.00,0.0013
2449.00,0.0013
2448.00,0.0013
2447.00,0.0013
2446.00,0.0013
2445.00,0.0013
2444.00,0.0012
2443.00,0.0012
2442.00,0.0012
2441.00,0.0012
2440.00,0.0013
2439.00,0.0013
2438.00,0.0013
2437.00,0.0014
2436.00,0.0014
2435.00,0.0014
2434.00,0.0014
2433.00,0.0014
2432.00,0.0013
2431.00,0.0013
2430.00,0.0013
2429.00,0.0013
2428.00,0.0014
2427.00,0.0014
2426.00,0.0014
2425.00,0.0013
2424.00,0.0012
2423.00,0.0012
2422.00,0.0011
2421.00,0.0011
2420.00,0.0011
2419.00,0.0012
2418.00,0.0012
2417.00,0.0012
2416.00,0.0012
2415.00,0.0012
2414.00,0.0013
2413.00,0.0012
2412.00,0.0012
2411.00,0.0011
2410.00,0.0011
2409.00,0.0011
2408.00,0.0011
2407.00,0.0011
2406.00,0.0010
2405.00,0.0010
2404.00,0.0010
2403.00,0.0010
2402.00,0.0011
2401.00,0.0011
2400.00,0.0011
2399.00,0.0012
2398.00,0.0012
2397.00,0.0012
2396.00,0.0011
2395.00,0.0011
2394.00,0.0011
2393.00,0.0011
2392.00,0.0012
2391.00,0.0012
2390.00,0.0011
2389.00,0.0010
2388.00,0.0010
2387.00,0.0009
2386.00,0.0009
2385.00,0.0009
2384.00,0.0008
2383.00,0.0008
2382.00,0.0008
2381.00,0.0008
2380.00,0.0007
2379.00,0.0007
2378.00,0.0007
2377.00,0.0007
2376.00,0.0007
2375.00,0.0007
2374.00,0.0007
2373.00,0.0007
2372.00,0.0007
2371.00,0.0007
2370.00,0.0007
2369.00,0.0007
2368.00,0.0006
2367.00,0.0006
2366.00,0.0006
2365.00,0.0007
2364.00,0.0007
2363.00,0.0007
2362.00,0.0007
2361.00,0.0007
2360.00,0.0007
2359.00,0.0006
2358.00,0.0006
2357.00,0.0007
2356.00,0.0007
2355.00,0.0007
2354.00,0.0007
2353.00,0.0007
2352.00,0.0007
2351.00,0.0006
2350.00,0.0007
2349.00,0.0007
2348.00,0.0008
2347.00,0.0008
2346.00,0.0008
2345.00,0.0008
2344.00,0.0008
2343.00,0.0008
2342.00,0.0009
2341.00,0.0009
2340.00,0.0009
2339.00,0.0009
2338.00,0.0009
2337.00,0.0009
2336.00,0.0009
2335.00,0.0009
2334.00,0.0009
2333.00,0.0009
2332.00,0.0009
2331.00,0.0009
2330.00,0.0009
2329.00,0.0010
2328.00,0.0012
2327.00,0.0015
2326.00,0.0019
2325.00,0.0023
2324.00,0.0024
2323.00,0.0024
2322.00,0.0023
2321.00,0.0021
2320.00,0.0019
2319.00,0.0018
2318.00,0.0016
2317.00,0.0015
2316.00,0.0014
2315.00,0.0014
2314.00,0.0014
2313.00,0.0014
2312.00,0.0014
2311.00,0.0014
2310.00,0.0014
2309.00,0.0014
2308.00,0.0014
2307.00,0.0014
2306.00,0.0015
2305.00,0.0015
2304.00,0.0015
2303.00,0.0014
2302.00,0.0014
2301.00,0.0013
2300.00,0.0014
2299.00,0.0014
2298.00,0.0015
2297.00,0.0016
2296.00,0.0017
2295.00,0.0017
2294.00,0.0017
2293.00,0.0018
2292.00,0.0019
2291.00,0.0019
2290.00,0.0019
2289.00,0.0019
2288.00,0.0020
2287.00,0.0020
2286.00,0.0020
2285.00,0.0020
2284.00,0.0019
2283.00,0.0018
2282.00,0.0016
2281.00,0.0016
2280.00,0.0015
2279.00,0.0016
2278.00,0.0016
2277.00,0.0016
2276.00,0.0015
2275.00,0.0014
2274.00,0.0014
2273.00,0.0014
2272.00,0.0014
2271.00,0.0013
2270.00,0.0013
2269.00,0.0013
2268.00,0.0014
2267.00,0.0014
2266.00,0.0013
2265.00,0.0013
2264.00,0.0013
2263.00,0.0013
2262.00,0.0012
2261.00,0.0013
2260.00,0.0014
2259.00,0.0014
2258.00,0.0014
2257.00,0.0013
2256.00,0.0012
2255.00,0.0011
2254.00,0.0010
2253.00,0.0010
2252.00,0.0010
2251.00,0.0010
2250.00,0.0010
2249.00,0.0010
2248.00,0.0010
2247.00,0.0011
2246.00,0.0012
2245.00,0.0011
2244.00,0.0011
2243.00,0.0010
2242.00,0.0010
2241.00,0.0010
2240.00,0.0009
2239.00,0.0009
2238.00,0.0010
2237.00,0.0010
2236.00,0.0010
2235.00,0.0010
2234.00,0.0011
2233.00,0.0011
2232.00,0.0011
2231.00,0.0012
2230.00,0.0013
2229.00,0.0015
2228.00,0.0015
2227.00,0.0014
2226.00,0.0012
2225.00,0.0010
2224.00,0.0008
2223.00,0.0006
2222.00,0.0005
2221.00,0.0005
2220.00,0.0006
2219.00,0.0008
2218.00,0.0009
2217.00,0.0009
2216.00,0.0009
2215.00,0.0010
2214.00,0.0010
2213.00,0.0009
2212.00,0.0008
2211.00,0.0007
2210.00,0.0006
2209.00,0.0007
2208.00,0.0009
2207.00,0.0009
2206.00,0.0009
2205.00,0.0007
2204.00,0.0006
2203.00,0.0005
2202.00,0.0005
2201.00,0.0006
2200.00,0.0007
2199.00,0.0007
2198.00,0.0006
2197.00,0.0005
2196.00,0.0004
2195.00,0.0005
2194.00,0.0006
2193.00,0.0008
2192.00,0.0009
2191.00,0.0009
2190.00,0.0009
2189.00,0.0009
2188.00,0.0010
2187.00,0.0012
2186.00,0.0014
2185.00,0.0014
2184.00,0.0012
2183.00,0.0008
2182.00,0.0004
2181.00,0.0001
2180.00,0.0001
2179.00,0.0004
2178.00,0.0007
2177.00,0.0009
2176.00,0.0008
2175.00,0.0007
2174.00,0.0006
2173.00,0.0007
2172.00,0.0009
2171.00,0.0012
2170.00,0.0015
2169.00,0.0017
2168.00,0.0017
2167.00,0.0015
2166.00,0.0014
2165.00,0.0014
2164.00,0.0017
2163.00,0.0020
2162.00,0.0023
2161.00,0.0021
2160.00,0.0010
2159.00,-0.0006
2158.00,-0.0020
2157.00,-0.0026
2156.00,-0.0025
2155.00,-0.0023
2154.00,-0.0021
2153.00,-0.0019
2152.00,-0.0016
2151.00,-0.0013
2150.00,-0.0012
2149.00,-0.0011
2148.00,-0.0011
2147.00,-0.0012
2146.00,-0.0012
2145.00,-0.0011
2144.00,-0.0010
2143.00,-0.0010
2142.00,-0.0009
2141.00,-0.0008
2140.00,-0.0007
2139.00,-0.0006
2138.00,-0.0007
2137.00,-0.0008
2136.00,-0.0011
2135.00,-0.0013
2134.00,-0.0014
2133.00,-0.0015
2132.00,-0.0015
2131.00,-0.0014
2130.00,-0.0012
2129.00,-0.0009
2128.00,-0.0007
2127.00,-0.0005
2126.00,-0.0005
2125.00,-0.0004
2124.00,-0.0003
2123.00,-0.0001
2122.00,0.0000
2121.00,0.0001
2120.00,0.0001
2119.00,0.0001
2118.00,0.0002
2117.00,0.0004
2116.00,0.0006
2115.00,0.0007
2114.00,0.0007
2113.00,0.0005
2112.00,0.0004
2111.00,0.0003
2110.00,0.0002
2109.00,0.0002
2108.00,0.0001
2107.00,-0.0000
2106.00,-0.0001
2105.00,0.0000
2104.00,0.0002
2103.00,0.0004
2102.00,0.0006
2101.00,0.0007
2100.00,0.0007
2099.00,0.0007
2098.00,0.0006
2097.00,0.0003
2096.00,0.0000
2095.00,-0.0002
2094.00,-0.0002
2093.00,-0.0001
2092.00,0.0000
2091.00,0.0001
2090.00,0.0002
2089.00,0.0003
2088.00,0.0004
2087.00,0.0004
2086.00,0.0005
2085.00,0.0005
2084.00,0.0006
2083.00,0.0006
2082.00,0.0006
2081.00,0.0006
2080.00,0.0006
2079.00,0.0005
2078.00,0.0004
2077.00,0.0001
2076.00,-0.0001
2075.00,-0.0002
2074.00,-0.0002
2073.00,-0.0000
2072.00,0.0002
2071.00,0.0003
2070.00,0.0005
2069.00,0.0006
2068.00,0.0007
2067.00,0.0007
2066.00,0.0007
2065.00,0.0005
2064.00,0.0003
2063.00,0.0001
2062.00,0.0001
2061.00,0.0002
2060.00,0.0004
2059.00,0.0005
2058.00,0.0005
2057.00,0.0004
2056.00,0.0003
2055.00,0.0002
2054.00,0.0002
2053.00,0.0006
2052.00,0.0011
2051.00,0.0015
2050.00,0.0016
2049.00,0.0014
2048.00,0.0012
2047.00,0.0009
2046.00,0.0005
2045.00,0.0001
2044.00,-0.0002
2043.00,-0.0004
2042.00,-0.0002
2041.00,0.0001
2040.00,0.0004
2039.00,0.0005
2038.00,0.0006
2037.00,0.0006
2036.00,0.0003
2035.00,-0.0001
2034.00,-0.0006
2033.00,-0.0009
2032.00,-0.0009
2031.00,-0.0007
2030.00,-0.0004
2029.00,-0.0002
2028.00,-0.0002
2027.00,-0.0003
2026.00,-0.0006
2025.00,-0.0009
2024.00,-0.0010
2023.00,-0.0011
2022.00,-0.0011
2021.00,-0.0012
2020.00,-0.0012
2019.00,-0.0013
2018.00,-0.0014
2017.00,-0.0012
2016.00,-0.0010
2015.00,-0.0006
2014.00,-0.0002
2013.00,0.0001
2012.00,0.0002
2011.00,0.0001
2010.00,-0.0003
2009.00,-0.0008
2008.00,-0.0011
2007.00,-0.0014
2006.00,-0.0014
2005.00,-0.0014
2004.00,-0.0014
2003.00,-0.0015
2002.00,-0.0017
2001.00,-0.0018
2000.00,-0.0017
1999.00,-0.0015
1998.00,-0.0014
1997.00,-0.0012
1996.00,-0.0011
1995.00,-0.0010
1994.00,-0.0010
1993.00,-0.0009
1992.00,-0.0006
1991.00,-0.0004
1990.00,-0.0003
1989.00,-0.0002
1988.00,-0.0002
1987.00,-0.0003
1986.00,-0.0003
1985.00,-0.0002
1984.00,0.0001
1983.00,0.0004
1982.00,0.0009
1981.00,0.0012
1980.00,0.0012
1979.00,0.0010
1978.00,0.0005
1977.00,-0.0001
1976.00,-0.0008
1975.00,-0.0014
1974.00,-0.0019
1973.00,-0.0020
1972.00,-0.0020
1971.00,-0.0018
1970.00,-0.0015
1969.00,-0.0012
1968.00,-0.0008
1967.00,-0.0005
1966.00,-0.0004
1965.00,-0.0004
1964.00,-0.0005
1963.00,-0.0006
1962.00,-0.0008
1961.00,-0.0012
1960.00,-0.0016
1959.00,-0.0019
1958.00,-0.0020
1957.00,-0.0017
1956.00,-0.0014
1955.00,-0.0011
1954.00,-0.0011
1953.00,-0.0013
1952.00,-0.0014
1951.00,-0.0014
1950.00,-0.0014
1949.00,-0.0014
1948.00,-0.0014
1947.00,-0.0015
1946.00,-0.0016
1945.00,-0.0017
1944.00,-0.0017
1943.00,-0.0016
1942.00,-0.0013
1941.00,-0.0010
1940.00,-0.0008
1939.00,-0.0007
1938.00,-0.0008
1937.00,-0.0008
1936.00,-0.0008
1935.00,-0.0007
1934.00,-0.0007
1933.00,-0.0007
1932.00,-0.0007
1931.00,-0.0008
1930.00,-0.0009
1929.00,-0.0010
1928.00,-0.0010
1927.00,-0.0009
1926.00,-0.0008
1925.00,-0.0006
1924.00,-0.0004
1923.00,-0.0003
1922.00,-0.0003
1921.00,-0.0002
1920.00,-0.0002
1919.00,-0.0002
1918.00,-0.0001
1917.00,-0.0000
1916.00,0.0001
1915.00,0.0000
1914.00,-0.0001
1913.00,-0.0002
1912.00,-0.0003
1911.00,-0.0002
1910.00,-0.0002
1909.00,-0.0001
1908.00,-0.0001
1907.00,-0.0001
1906.00,-0.0001
1905.00,0.0000
1904.00,0.0001
1903.00,0.0001
1902.00,0.0001
1901.00,0.0001
1900.00,0.0000
1899.00,0.0000
1898.00,-0.0000
1897.00,-0.0000
1896.00,0.0000
1895.00,0.0001
1894.00,0.0001
1893.00,0.0002
1892.00,0.0003
1891.00,0.0004
1890.00,0.0004
1889.00,0.0004
1888.00,0.0004
1887.00,0.0003
1886.00,0.0002
1885.00,0.0001
1884.00,0.0000
1883.00,-0.0000
1882.00,0.0000
1881.00,0.0001
1880.00,0.0001
1879.00,0.0001
1878.00,0.0001
1877.00,0.0001
1876.00,0.0000
1875.00,0.0000
1874.00,0.0001
1873.00,0.0001
1872.00,0.0002
1871.00,0.0002
1870.00,0.0001
1869.00,0.0001
1868.00,0.0001
1867.00,0.0001
1866.00,0.0001
1865.00,0.0000
1864.00,0.0000
1863.00,0.0000
1862.00,0.0001
1861.00,0.0002
1860.00,0.0003
1859.00,0.0003
1858.00,0.0003
1857.00,0.0003
1856.00,0.0003
1855.00,0.0003
1854.00,0.0004
1853.00,0.0004
1852.00,0.0004
1851.00,0.0003
1850.00,0.0002
1849.00,0.0002
1848.00,0.0002
1847.00,0.0002
1846.00,0.0002
1845.00,0.0002
1844.00,0.0003
1843.00,0.0004
1842.00,0.0004
1841.00,0.0004
1840.00,0.0004
1839.00,0.0004
1838.00,0.0004
1837.00,0.0005
1836.00,0.0005
1835.00,0.0006
1834.00,0.0005
1833.00,0.0005
1832.00,0.0005
1831.00,0.0004
1830.00,0.0004
1829.00,0.0005
1828.00,0.0006
1827.00,0.0006
1826.00,0.0006
1825.00,0.0005
1824.00,0.0005
1823.00,0.0005
1822.00,0.0005
1821.00,0.0005
1820.00,0.0004
1819.00,0.0003
1818.00,0.0002
1817.00,0.0002
1816.00,0.0002
1815.00,0.0002
1814.00,0.0003
1813.00,0.0004
1812.00,0.0004
1811.00,0.0005
1810.00,0.0005
1809.00,0.0006
1808.00,0.0006
1807.00,0.0006
1806.00,0.0006
1805.00,0.0006
1804.00,0.0007
1803.00,0.0007
1802.00,0.0007
1801.00,0.0007
1800.00,0.0008
1799.00,0.0008
1798.00,0.0008
1797.00,0.0008
1796.00,0.0008
1795.00,0.0008
1794.00,0.0008
1793.00,0.0008
1792.00,0.0009
1791.00,0.0009
1790.00,0.0009
1789.00,0.0009
1788.00,0.0009
1787.00,0.0010
1786.00,0.0010
1785.00,0.0010
1784.00,0.0010
1783.00,0.0010
1782.00,0.0010
1781.00,0.0010
1780.00,0.0010
1779.00,0.0010
1778.00,0.0010
1777.00,0.0010
1776.00,0.0010
1775.00,0.0010
1774.00,0.0011
1773.00,0.0012
1772.00,0.0012
1771.00,0.0013
1770.00,0.0013
1769.00,0.0014
1768.00,0.0014
1767.00,0.0014
1766.00,0.0014
1765.00,0.0014
1764.00,0.0015
1763.00,0.0015
1762.00,0.0016
1761.00,0.0017
1760.00,0.0017
1759.00,0.0018
1758.00,0.0019
1757.00,0.0020
1756.00,0.0021
1755.00,0.0022
1754.00,0.0022
1753.00,0.0023
1752.00,0.0024
1751.00,0.0025
1750.00,0.0026
1749.00,0.0027
1748.00,0.0028
1747.00,0.0028
1746.00,0.0028
1745.00,0.0028
1744.00,0.0029
1743.00,0.0029
1742.00,0.0030
1741.00,0.0030
1740.00,0.0030
1739.00,0.0031
1738.00,0.0031
1737.00,0.0031
1736.00,0.0031
1735.00,0.0030
1734.00,0.0029
1733.00,0.0028
1732.00,0.0027
1731.00,0.0027
1730.00,0.0026
1729.00,0.0026
1728.00,0.0026
1727.00,0.0026
1726.00,0.0026
1725.00,0.0025
1724.00,0.0025
1723.00,0.0025
1722.00,0.0025
1721.00,0.0025
1720.00,0.0025
1719.00,0.0025
1718.00,0.0025
1717.00,0.0026
1716.00,0.0026
1715.00,0.0026
1714.00,0.0027
1713.00,0.0027
1712.00,0.0027
1711.00,0.0027
1710.00,0.0028
1709.00,0.0028
1708.00,0.0029
1707.00,0.0029
1706.00,0.0029
1705.00,0.0029
1704.00,0.0030
1703.00,0.0031
1702.00,0.0031
1701.00,0.0032
1700.00,0.0033
1699.00,0.0033
1698.00,0.0033
1697.00,0.0034
1696.00,0.0035
1695.00,0.0036
1694.00,0.0036
1693.00,0.0036
1692.00,0.0037
1691.00,0.0038
1690.00,0.0039
1689.00,0.0041
1688.00,0.0042
1687.00,0.0042
1686.00,0.0042
1685.00,0.0042
1684.00,0.0043
1683.00,0.0045
1682.00,0.0046
1681.00,0.0047
1680.00,0.0048
1679.00,0.0050
1678.00,0.0050
1677.00,0.0051
1676.00,0.0051
1675.00,0.0051
1674.00,0.0052
1673.00,0.0052
1672.00,0.0053
1671.00,0.0054
1670.00,0.0055
1669.00,0.0056
1668.00,0.0057
1667.00,0.0057
1666.00,0.0057
1665.00,0.0057
1664.00,0.0058
1663.00,0.0059
1662.00,0.0060
1661.00,0.0060
1660.00,0.0061
1659.00,0.0062
1658.00,0.0063
1657.00,0.0064
1656.00,0.0065
1655.00,0.0066
1654.00,0.0066
1653.00,0.0067
1652.00,0.0068
1651.00,0.0069
1650.00,0.0069
1649.00,0.0070
1648.00,0.0072
1647.00,0.0074
1646.00,0.0075
1645.00,0.0076
1644.00,0.0076
1643.00,0.0075
1642.00,0.0075
1641.00,0.0075
1640.00,0.0075
1639.00,0.0075
1638.00,0.0075
1637.00,0.0075
1636.00,0.0076
1635.00,0.0076
1634.00,0.0076
1633.00,0.0076
1632.00,0.0077
1631.00,0.0077
1630.00,0.0077
1629.00,0.0077
1628.00,0.0077
1627.00,0.0077
1626.00,0.0077
1625.00,0.0077
1624.00,0.0078
1623.00,0.0078
1622.00,0.0078
1621.00,0.0078
1620.00,0.0078
1619.00,0.0078
1618.00,0.0078
1617.00,0.0078
1616.00,0.0078
1615.00,0.0078
1614.00,0.0078
1613.00,0.0079
1612.00,0.0079
1611.00,0.0079
1610.00,0.0079
1609.00,0.0079
1608.00,0.0080
1607.00,0.0080
1606.00,0.0080
1605.00,0.0080
1604.00,0.0081
1603.00,0.0081
1602.00,0.0082
1601.00,0.0082
1600.00,0.0082
1599.00,0.0082
1598.00,0.0082
1597.00,0.0082
1596.00,0.0082
1595.00,0.0082
1594.00,0.0082
1593.00,0.0082
1592.00,0.0083
1591.00,0.0084
1590.00,0.0085
1589.00,0.0086
1588.00,0.0087
1587.00,0.0088
1586.00,0.0089
1585.00,0.0090
1584.00,0.0092
1583.00,0.0095
1582.00,0.0098
1581.00,0.0101
1580.00,0.0104
1579.00,0.0106
1578.00,0.0108
1577.00,0.0108
1576.00,0.0107
1575.00,0.0104
1574.00,0.0102
1573.00,0.0100
1572.00,0.0098
1571.00,0.0095
1570.00,0.0091
1569.00,0.0088
1568.00,0.0085
1567.00,0.0083
1566.00,0.0082
1565.00,0.0081
1564.00,0.0080
1563.00,0.0080
1562.00,0.0080
1561.00,0.0080
1560.00,0.0080
1559.00,0.0080
1558.00,0.0080
1557.00,0.0081
1556.00,0.0081
1555.00,0.0081
1554.00,0.0082
1553.00,0.0082
1552.00,0.0083
1551.00,0.0084
1550.00,0.0085
1549.00,0.0086
1548.00,0.0088
1547.00,0.0091
1546.00,0.0094
1545.00,0.0098
1544.00,0.0101
1543.00,0.0104
1542.00,0.0105
1541.00,0.0105
1540.00,0.0103
1539.00,0.0100
1538.00,0.0096
1537.00,0.0093
1536.00,0.0090
1535.00,0.0086
1534.00,0.0081
1533.00,0.0076
1532.00,0.0073
1531.00,0.0071
1530.00,0.0069
1529.00,0.0068
1528.00,0.0067
1527.00,0.0067
1526.00,0.0066
1525.00,0.0065
1524.00,0.0064
1523.00,0.0064
1522.00,0.0064
1521.00,0.0065
1520.00,0.0065
1519.00,0.0065
1518.00,0.0064
1517.00,0.0065
1516.00,0.0065
1515.00,0.0065
1514.00,0.0065
1513.00,0.0065
1512.00,0.0066
1511.00,0.0067
1510.00,0.0068
1509.00,0.0070
1508.00,0.0071
1507.00,0.0072
1506.00,0.0073
1505.00,0.0074
1504.00,0.0075
1503.00,0.0075
1502.00,0.0076
1501.00,0.0079
1500.00,0.0081
1499.00,0.0084
1498.00,0.0086
1497.00,0.0090
1496.00,0.0094
1495.00,0.0096
1494.00,0.0098
1493.00,0.0102
1492.00,0.0105
1491.00,0.0109
1490.00,0.0113
1489.00,0.0119
1488.00,0.0125
1487.00,0.0130
1486.00,0.0136
1485.00,0.0143
1484.00,0.0151
1483.00,0.0159
1482.00,0.0169
1481.00,0.0182
1480.00,0.0195
1479.00,0.0208
1478.00,0.0224
1477.00,0.0244
1476.00,0.0267
1475.00,0.0293
1474.00,0.0328
1473.00,0.0379
1472.00,0.0441
1471.00,0.0502
1470.00,0.0562
1469.00,0.0624
1468.00,0.0692
1467.00,0.0767
1466.00,0.0853
1465.00,0.0946
1464.00,0.1029
1463.00,0.1089
1462.00,0.1131
1461.00,0.1163
1460.00,0.1188
1459.00,0.1209
1458.00,0.1230
1457.00,0.1253
1456.00,0.1268
1455.00,0.1272
1454.00,0.1270
1453.00,0.1262
1452.00,0.1243
1451.00,0.1211
1450.00,0.1162
1449.00,0.1088
1448.00,0.0992
1447.00,0.0887
1446.00,0.0791
1445.00,0.0708
1444.00,0.0638
1443.00,0.0580
1442.00,0.0537
1441.00,0.0507
1440.00,0.0488
1439.00,0.0479
1438.00,0.0477
1437.00,0.0474
1436.00,0.0459
1435.00,0.0430
1434.00,0.0391
1433.00,0.0346
1432.00,0.0299
1431.00,0.0259
1430.00,0.0228
1429.00,0.0206
1428.00,0.0191
1427.00,0.0182
1426.00,0.0177
1425.00,0.0172
1424.00,0.0167
1423.00,0.0163
1422.00,0.0161
1421.00,0.0159
1420.00,0.0156
1419.00,0.0154
1418.00,0.0151
1417.00,0.0148
1416.00,0.0144
1415.00,0.0142
1414.00,0.0141
1413.00,0.0140
1412.00,0.0138
1411.00,0.0137
1410.00,0.0136
1409.00,0.0135
1408.00,0.0134
1407.00,0.0134
1406.00,0.0135
1405.00,0.0135
1404.00,0.0135
1403.00,0.0135
1402.00,0.0135
1401.00,0.0136
1400.00,0.0136
1399.00,0.0138
1398.00,0.0140
1397.00,0.0142
1396.00,0.0145
1395.00,0.0149
1394.00,0.0154
1393.00,0.0159
1392.00,0.0166
1391.00,0.0175
1390.00,0.0188
1389.00,0.0206
1388.00,0.0232
1387.00,0.0271
1386.00,0.0323
1385.00,0.0389
1384.00,0.0474
1383.00,0.0588
1382.00,0.0734
1381.00,0.0916
1380.00,0.1135
1379.00,0.1380
1378.00,0.1614
1377.00,0.1784
1376.00,0.1843
1375.00,0.1759
1374.00,0.1553
1373.00,0.1298
1372.00,0.1060
1371.00,0.0860
1370.00,0.0698
1369.00,0.0573
1368.00,0.0486
1367.00,0.0432
1366.00,0.0402
1365.00,0.0390
1364.00,0.0392
1363.00,0.0405
1362.00,0.0426
1361.00,0.0447
1360.00,0.0463
1359.00,0.0467
1358.00,0.0455
1357.00,0.0429
1356.00,0.0392
1355.00,0.0350
1354.00,0.0309
1353.00,0.0275
1352.00,0.0247
1351.00,0.0224
1350.00,0.0206
1349.00,0.0191
1348.00,0.0179
1347.00,0.0169
1346.00,0.0161
1345.00,0.0155
1344.00,0.0150
1343.00,0.0146
1342.00,0.0143
1341.00,0.0140
1340.00,0.0137
1339.00,0.0135
1338.00,0.0134
1337.00,0.0133
1336.00,0.0134
1335.00,0.0136
1334.00,0.0139
1333.00,0.0143
1332.00,0.0147
1331.00,0.0150
1330.00,0.0150
1329.00,0.0149
1328.00,0.0146
1327.00,0.0141
1326.00,0.0135
1325.00,0.0129
1324.00,0.0123
1323.00,0.0118
1322.00,0.0114
1321.00,0.0111
1320.00,0.0108
1319.00,0.0106
1318.00,0.0104
1317.00,0.0102
1316.00,0.0100
1315.00,0.0099
1314.00,0.0098
1313.00,0.0098
1312.00,0.0100
1311.00,0.0104
1310.00,0.0109
1309.00,0.0118
1308.00,0.0130
1307.00,0.0145
1306.00,0.0159
1305.00,0.0169
1304.00,0.0172
1303.00,0.0168
1302.00,0.0160
1301.00,0.0152
1300.00,0.0147
1299.00,0.0143
1298.00,0.0142
1297.00,0.0141
1296.00,0.0139
1295.00,0.0136
1294.00,0.0131
1293.00,0.0126
1292.00,0.0120
1291.00,0.0115
1290.00,0.0110
1289.00,0.0106
1288.00,0.0103
1287.00,0.0100
1286.00,0.0098
1285.00,0.0096
1284.00,0.0094
1283.00,0.0093
1282.00,0.0092
1281.00,0.0091
1280.00,0.0090
1279.00,0.0089
1278.00,0.0088
1277.00,0.0088
1276.00,0.0087
1275.00,0.0087
1274.00,0.0088
1273.00,0.0089
1272.00,0.0089
1271.00,0.0090
1270.00,0.0091
1269.00,0.0092
1268.00,0.0093
1267.00,0.0095
1266.00,0.0098
1265.00,0.0101
1264.00,0.0104
1263.00,0.0107
1262.00,0.0111
1261.00,0.0117
1260.00,0.0124
1259.00,0.0134
1258.00,0.0144
1257.00,0.0153
1256.00,0.0157
1255.00,0.0156
1254.00,0.0149
1253.00,0.0139
1252.00,0.0128
1251.00,0.0119
1250.00,0.0113
1249.00,0.0109
1248.00,0.0106
1247.00,0.0104
1246.00,0.0102
1245.00,0.0101
1244.00,0.0100
1243.00,0.0099
1242.00,0.0098
1241.00,0.0097
1240.00,0.0096
1239.00,0.0095
1238.00,0.0094
1237.00,0.0094
1236.00,0.0094
1235.00,0.0094
1234.00,0.0094
1233.00,0.0093
1232.00,0.0092
1231.00,0.0093
1230.00,0.0093
1229.00,0.0094
1228.00,0.0095
1227.00,0.0096
1226.00,0.0098
1225.00,0.0100
1224.00,0.0102
1223.00,0.0105
1222.00,0.0108
1221.00,0.0110
1220.00,0.0112
1219.00,0.0113
1218.00,0.0113
1217.00,0.0111
1216.00,0.0110
1215.00,0.0107
1214.00,0.0104
1213.00,0.0100
1212.00,0.0097
1211.00,0.0094
1210.00,0.0092
1209.00,0.0091
1208.00,0.0090
1207.00,0.0090
1206.00,0.0089
1205.00,0.0089
1204.00,0.0089
1203.00,0.0089
1202.00,0.0088
1201.00,0.0088
1200.00,0.0087
1199.00,0.0087
1198.00,0.0088
1197.00,0.0088
1196.00,0.0089
1195.00,0.0089
1194.00,0.0089
1193.00,0.0089
1192.00,0.0089
1191.00,0.0089
1190.00,0.0090
1189.00,0.0090
1188.00,0.0090
1187.00,0.0091
1186.00,0.0092
1185.00,0.0093
1184.00,0.0095
1183.00,0.0097
1182.00,0.0100
1181.00,0.0103
1180.00,0.0107
1179.00,0.0114
1178.00,0.0122
1177.00,0.0133
1176.00,0.0148
1175.00,0.0167
1174.00,0.0192
1173.00,0.0225
1172.00,0.0263
1171.00,0.0307
1170.00,0.0349
1169.00,0.0384
1168.00,0.0405
1167.00,0.0410
1166.00,0.0400
1165.00,0.0379
1164.00,0.0353
1163.00,0.0327
1162.00,0.0304
1161.00,0.0285
1160.00,0.0269
1159.00,0.0256
1158.00,0.0245
1157.00,0.0236
1156.00,0.0230
1155.00,0.0225
1154.00,0.0221
1153.00,0.0217
1152.00,0.0212
1151.00,0.0204
1150.00,0.0195
1149.00,0.0184
1148.00,0.0174
1147.00,0.0164
1146.00,0.0155
1145.00,0.0147
1144.00,0.0140
1143.00,0.0133
1142.00,0.0127
1141.00,0.0122
1140.00,0.0117
1139.00,0.0112
1138.00,0.0108
1137.00,0.0105
1136.00,0.0102
1135.00,0.0100
1134.00,0.0099
1133.00,0.0099
1132.00,0.0099
1131.00,0.0100
1130.00,0.0100
1129.00,0.0100
1128.00,0.0101
1127.00,0.0102
1126.00,0.0103
1125.00,0.0104
1124.00,0.0105
1123.00,0.0105
1122.00,0.0104
1121.00,0.0104
1120.00,0.0103
1119.00,0.0104
1118.00,0.0105
1117.00,0.0106
1116.00,0.0108
1115.00,0.0109
1114.00,0.0110
1113.00,0.0111
1112.00,0.0112
1111.00,0.0113
1110.00,0.0116
1109.00,0.0120
1108.00,0.0126
1107.00,0.0133
1106.00,0.0140
1105.00,0.0146
1104.00,0.0150
1103.00,0.0153
1102.00,0.0152
1101.00,0.0149
1100.00,0.0144
1099.00,0.0138
1098.00,0.0133
1097.00,0.0127
1096.00,0.0122
1095.00,0.0117
1094.00,0.0113
1093.00,0.0110
1092.00,0.0107
1091.00,0.0105
1090.00,0.0102
1089.00,0.0100
1088.00,0.0098
1087.00,0.0096
1086.00,0.0096
1085.00,0.0096
1084.00,0.0096
1083.00,0.0096
1082.00,0.0094
1081.00,0.0092
1080.00,0.0091
1079.00,0.0089
1078.00,0.0088
1077.00,0.0087
1076.00,0.0087
1075.00,0.0086
1074.00,0.0085
1073.00,0.0084
1072.00,0.0084
1071.00,0.0084
1070.00,0.0084
1069.00,0.0085
1068.00,0.0085
1067.00,0.0085
1066.00,0.0085
1065.00,0.0085
1064.00,0.0085
1063.00,0.0085
1062.00,0.0086
1061.00,0.0086
1060.00,0.0087
1059.00,0.0088
1058.00,0.0088
1057.00,0.0088
1056.00,0.0088
1055.00,0.0089
1054.00,0.0091
1053.00,0.0094
1052.00,0.0097
1051.00,0.0100
1050.00,0.0103
1049.00,0.0106
1048.00,0.0109
1047.00,0.0112
1046.00,0.0115
1045.00,0.0116
1044.00,0.0116
1043.00,0.0115
1042.00,0.0114
1041.00,0.0111
1040.00,0.0110
1039.00,0.0109
1038.00,0.0109
1037.00,0.0109
1036.00,0.0110
1035.00,0.0110
1034.00,0.0109
1033.00,0.0107
1032.00,0.0105
1031.00,0.0103
1030.00,0.0102
1029.00,0.0101
1028.00,0.0100
1027.00,0.0100
1026.00,0.0099
1025.00,0.0098
1024.00,0.0098
1023.00,0.0099
1022.00,0.0100
1021.00,0.0100
1020.00,0.0101
1019.00,0.0102
1018.00,0.0104
1017.00,0.0106
1016.00,0.0108
1015.00,0.0112
1014.00,0.0116
1013.00,0.0122
1012.00,0.0128
1011.00,0.0134
1010.00,0.0138
1009.00,0.0143
1008.00,0.0150
1007.00,0.0158
1006.00,0.0169
1005.00,0.0183
1004.00,0.0203
1003.00,0.0229
1002.00,0.0266
1001.00,0.0311
1000.00,0.0361
999.00,0.0404
998.00,0.0428
997.00,0.0425
996.00,0.0394
995.00,0.0346
994.00,0.0293
993.00,0.0245
992.00,0.0207
991.00,0.0179
990.00,0.0160
989.00,0.0147
988.00,0.0138
987.00,0.0134
986.00,0.0133
985.00,0.0134
984.00,0.0139
983.00,0.0146
982.00,0.0159
981.00,0.0177
980.00,0.0202
979.00,0.0236
978.00,0.0279
977.00,0.0332
976.00,0.0390
975.00,0.0447
974.00,0.0492
973.00,0.0513
972.00,0.0502
971.00,0.0459
970.00,0.0397
969.00,0.0330
968.00,0.0271
967.00,0.0225
966.00,0.0191
965.00,0.0166
964.00,0.0149
963.00,0.0136
962.00,0.0125
961.00,0.0116
960.00,0.0109
959.00,0.0105
958.00,0.0101
957.00,0.0098
956.00,0.0095
955.00,0.0092
954.00,0.0090
953.00,0.0088
952.00,0.0087
951.00,0.0086
950.00,0.0086
949.00,0.0086
948.00,0.0086
947.00,0.0086
946.00,0.0087
945.00,0.0090
944.00,0.0093
943.00,0.0097
942.00,0.0099
941.00,0.0100
940.00,0.0098
939.00,0.0096
938.00,0.0092
937.00,0.0088
936.00,0.0085
935.00,0.0082
934.00,0.0079
933.00,0.0076
932.00,0.0074
931.00,0.0072
930.00,0.0070
929.00,0.0068
928.00,0.0067
927.00,0.0066
926.00,0.0066
925.00,0.0066
924.00,0.0066
923.00,0.0067
922.00,0.0069
921.00,0.0070
920.00,0.0072
919.00,0.0074
918.00,0.0075
917.00,0.0075
916.00,0.0075
915.00,0.0075
914.00,0.0076
913.00,0.0078
912.00,0.0079
911.00,0.0081
910.00,0.0082
909.00,0.0084
908.00,0.0086
907.00,0.0090
906.00,0.0096
905.00,0.0105
904.00,0.0117
903.00,0.0133
902.00,0.0151
901.00,0.0169
900.00,0.0181
899.00,0.0185
898.00,0.0179
897.00,0.0166
896.00,0.0148
895.00,0.0131
894.00,0.0115
893.00,0.0104
892.00,0.0095
891.00,0.0089
890.00,0.0085
889.00,0.0081
888.00,0.0078
887.00,0.0077
886.00,0.0077
885.00,0.0077
884.00,0.0076
883.00,0.0076
882.00,0.0076
881.00,0.0077
880.00,0.0077
879.00,0.0078
878.00,0.0079
877.00,0.0080
876.00,0.0081
875.00,0.0083
874.00,0.0083
873.00,0.0081
872.00,0.0080
871.00,0.0080
870.00,0.0080
869.00,0.0081
868.00,0.0082
867.00,0.0082
866.00,0.0083
865.00,0.0084
864.00,0.0084
863.00,0.0085
862.00,0.0088
861.00,0.0090
860.00,0.0092
859.00,0.0092
858.00,0.0093
857.00,0.0094
856.00,0.0097
855.00,0.0100
854.00,0.0103
853.00,0.0106
852.00,0.0110
851.00,0.0116
850.00,0.0123
849.00,0.0132
848.00,0.0145
847.00,0.0164
846.00,0.0192
845.00,0.0236
844.00,0.0294
843.00,0.0359
842.00,0.0411
841.00,0.0426
840.00,0.0399
839.00,0.0343
838.00,0.0281
837.00,0.0230
836.00,0.0196
835.00,0.0176
834.00,0.0163
833.00,0.0155
832.00,0.0148
831.00,0.0142
830.00,0.0136
829.00,0.0131
828.00,0.0126
827.00,0.0123
826.00,0.0121
825.00,0.0120
824.00,0.0120
823.00,0.0120
822.00,0.0121
821.00,0.0122
820.00,0.0122
819.00,0.0123
818.00,0.0127
817.00,0.0131
816.00,0.0137
815.00,0.0146
814.00,0.0156
813.00,0.0171
812.00,0.0187
811.00,0.0203
810.00,0.0215
809.00,0.0220
808.00,0.0217
807.00,0.0209
806.00,0.0196
805.00,0.0183
804.00,0.0169
803.00,0.0156
802.00,0.0145
801.00,0.0135
800.00,0.0128
799.00,0.0123
798.00,0.0118
797.00,0.0113
796.00,0.0109
795.00,0.0105
794.00,0.0100
793.00,0.0096
792.00,0.0093
791.00,0.0091
790.00,0.0091
789.00,0.0089
788.00,0.0087
787.00,0.0085
786.00,0.0083
785.00,0.0081
784.00,0.0078
783.00,0.0076
782.00,0.0074
781.00,0.0074
780.00,0.0073
779.00,0.0073
778.00,0.0074
777.00,0.0074
776.00,0.0074
775.00,0.0075
774.00,0.0076
773.00,0.0079
772.00,0.0082
771.00,0.0087
770.00,0.0091
769.00,0.0094
768.00,0.0094
767.00,0.0094
766.00,0.0092
765.00,0.0089
764.00,0.0085
763.00,0.0081
762.00,0.0077
761.00,0.0074
760.00,0.0071
759.00,0.0070
758.00,0.0069
757.00,0.0067
756.00,0.0066
755.00,0.0064
754.00,0.0064
753.00,0.0063
752.00,0.0062
751.00,0.0062
750.00,0.0062
749.00,0.0062
748.00,0.0063
747.00,0.0062
746.00,0.0061
745.00,0.0061
744.00,0.0062
743.00,0.0064
742.00,0.0067
741.00,0.0068
740.00,0.0068
739.00,0.0069
738.00,0.0070
737.00,0.0071
736.00,0.0073
735.00,0.0074
734.00,0.0076
733.00,0.0077
732.00,0.0077
731.00,0.0076
730.00,0.0076
729.00,0.0077
728.00,0.0077
727.00,0.0077
726.00,0.0077
725.00,0.0076
724.00,0.0076
723.00,0.0076
722.00,0.0077
721.00,0.0078
720.00,0.0077
719.00,0.0075
718.00,0.0072
717.00,0.0071
716.00,0.0069
715.00,0.0068
714.00,0.0066
713.00,0.0065
712.00,0.0065
711.00,0.0066
710.00,0.0066
709.00,0.0067
708.00,0.0068
707.00,0.0069
706.00,0.0070
705.00,0.0071
704.00,0.0071
703.00,0.0069
702.00,0.0066
701.00,0.0064
700.00,0.0062
699.00,0.0061
698.00,0.0061
697.00,0.0062
696.00,0.0064
695.00,0.0065
694.00,0.0065
693.00,0.0066
692.00,0.0067
691.00,0.0067
690.00,0.0067
689.00,0.0066
688.00,0.0066
687.00,0.0067
686.00,0.0068
685.00,0.0068
684.00,0.0068
683.00,0.0068
682.00,0.0067
681.00,0.0066
680.00,0.0064
679.00,0.0063
678.00,0.0062
677.00,0.0062
676.00,0.0062
675.00,0.0063
674.00,0.0064
673.00,0.0063
672.00,0.0062
671.00,0.0062
670.00,0.0064
669.00,0.0067
668.00,0.0069
667.00,0.0070
666.00,0.0068
665.00,0.0065
664.00,0.0063
663.00,0.0063
662.00,0.0063
661.00,0.0063
660.00,0.0063
659.00,0.0063
658.00,0.0062
657.00,0.0061
656.00,0.0061
655.00,0.0061
654.00,0.0059
653.00,0.0058
652.00,0.0057
651.00,0.0058
650.00,0.0060
649.00,0.0060
648.00,0.0060
647.00,0.0060
646.00,0.0061
645.00,0.0063
644.00,0.0065
643.00,0.0065
642.00,0.0065
641.00,0.0065
640.00,0.0066
639.00,0.0068
638.00,0.0070
637.00,0.0072
636.00,0.0071
635.00,0.0069
634.00,0.0066
633.00,0.0066
632.00,0.0066
631.00,0.0067
630.00,0.0067
629.00,0.0066
628.00,0.0065
627.00,0.0065
626.00,0.0065
625.00,0.0065
624.00,0.0065
623.00,0.0064
622.00,0.0063
621.00,0.0063
620.00,0.0064
619.00,0.0065
618.00,0.0067
617.00,0.0068
616.00,0.0070
615.00,0.0071
614.00,0.0071
613.00,0.0070
612.00,0.0067
611.00,0.0066
610.00,0.0065
609.00,0.0066
608.00,0.0067
607.00,0.0068
606.00,0.0068
605.00,0.0068
604.00,0.0068
603.00,0.0068
602.00,0.0070
601.00,0.0073
600.00,0.0075
599.00,0.0077
598.00,0.0076
597.00,0.0074
596.00,0.0071
595.00,0.0070
594.00,0.0069
593.00,0.0069
592.00,0.0069
591.00,0.0068
590.00,0.0068
589.00,0.0068
588.00,0.0068
587.00,0.0068
586.00,0.0068
585.00,0.0068
584.00,0.0068
583.00,0.0070
582.00,0.0073
581.00,0.0076
580.00,0.0076
579.00,0.0073
578.00,0.0069
577.00,0.0067
576.00,0.0067
575.00,0.0068
574.00,0.0069
573.00,0.0068
572.00,0.0065
571.00,0.0062
570.00,0.0060
569.00,0.0060
568.00,0.0062
567.00,0.0065
566.00,0.0068
565.00,0.0070
564.00,0.0070
563.00,0.0068
562.00,0.0064
561.00,0.0060
560.00,0.0058
559.00,0.0060
558.00,0.0065
557.00,0.0070
556.00,0.0073
555.00,0.0073
554.00,0.0071
553.00,0.0070
552.00,0.0070
551.00,0.0071
550.00,0.0073
549.00,0.0076
548.00,0.0080
547.00,0.0084
546.00,0.0086
545.00,0.0085
544.00,0.0081
543.00,0.0078
542.00,0.0076
541.00,0.0075
540.00,0.0074
539.00,0.0073
538.00,0.0071
537.00,0.0071
536.00,0.0074
535.00,0.0079
534.00,0.0086
533.00,0.0090
532.00,0.0091
531.00,0.0089
530.00,0.0088
529.00,0.0088
528.00,0.0089
527.00,0.0090
526.00,0.0090
525.00,0.0091
524.00,0.0091
523.00,0.0090
522.00,0.0088
521.00,0.0084
520.00,0.0080
519.00,0.0078
518.00,0.0077
517.00,0.0078
516.00,0.0078
515.00,0.0077
514.00,0.0075
513.00,0.0071
512.00,0.0068
511.00,0.0069
510.00,0.0076
509.00,0.0085
508.00,0.0092
507.00,0.0096
506.00,0.0097
505.00,0.0093
504.00,0.0085
503.00,0.0075
502.00,0.0070
501.00,0.0072
500.00,0.0079
499.00,0.0085
498.00,0.0089
497.00,0.0087
496.00,0.0081
495.00,0.0076
494.00,0.0074
493.00,0.0072
492.00,0.0065
491.00,0.0055
490.00,0.0046
489.00,0.0045
488.00,0.0052
487.00,0.0063
486.00,0.0072
485.00,0.0075
484.00,0.0075
483.00,0.0078
482.00,0.0085
481.00,0.0090
480.00,0.0087
479.00,0.0081
478.00,0.0077
477.00,0.0077
476.00,0.0077
475.00,0.0074
474.00,0.0072
473.00,0.0075
472.00,0.0086
471.00,0.0099
470.00,0.0107
469.00,0.0107
468.00,0.0102
467.00,0.0099
466.00,0.0099
465.00,0.0104
464.00,0.0112
463.00,0.0121
462.00,0.0132
461.00,0.0141
460.00,0.0146
459.00,0.0146
458.00,0.0146
457.00,0.0146
456.00,0.0145
455.00,0.0141
454.00,0.0135
453.00,0.0126
452.00,0.0111
451.00,0.0090
450.00,0.0068
