Created as New Dataset,Sample 088 By Administrator Date Tuesday, September 09 2025
cm-1,A
4000.00,0.0012
3999.00,0.0012
3998.00,0.0011
3997.00,0.0011
3996.00,0.0011
3995.00,0.0011
3994.00,0.0011
3993.00,0.0011
3992.00,0.0011
3991.00,0.0011
3990.00,0.0010
3989.00,0.0010
3988.00,0.0010
3987.00,0.0010
3986.00,0.0010
3985.00,0.0010
3984.00,0.0010
3983.00,0.0010
3982.00,0.0010
3981.00,0.0010
3980.00,0.0010
3979.00,0.0010
3978.00,0.0011
3977.00,0.0011
3976.00,0.0010
3975.00,0.0010
3974.00,0.0010
3973.00,0.0010
3972.00,0.0009
3971.00,0.0009
3970.00,0.0009
3969.00,0.0009
3968.00,0.0009
3967.00,0.0009
3966.00,0.0009
3965.00,0.0009
3964.00,0.0009
3963.00,0.0009
3962.00,0.0009
3961.00,0.0009
3960.00,0.0009
3959.00,0.0009
3958.00,0.0009
3957.00,0.0009
3956.00,0.0009
3955.00,0.0009
3954.00,0.0009
3953.00,0.0009
3952.00,0.0009
3951.00,0.0009
3950.00,0.0008
3949.00,0.0008
3948.00,0.0008
3947.00,0.0008
3946.00,0.0008
3945.00,0.0009
3944.00,0.0009
3943.00,0.0010
3942.00,0.0010
3941.00,0.0010
3940.00,0.0010
3939.00,0.0010
3938.00,0.0010
3937.00,0.0010
3936.00,0.0010
3935.00,0.0010
3934.00,0.0010
3933.00,0.0010
3932.00,0.0010
3931.00,0.0009
3930.00,0.0009
3929.00,0.0009
3928.00,0.0009
3927.00,0.0009
3926.00,0.0009
3925.00,0.0009
3924.00,0.0009
3923.00,0.0009
3922.00,0.0009
3921.00,0.0009
3920.00,0.0009
3919.00,0.0009
3918.00,0.0009
3917.00,0.0009
3916.00,0.0009
3915.00,0.0009
3914.00,0.0009
3913.00,0.0009
3912.00,0.0009
3911.00,0.0009
3910.00,0.0009
3909.00,0.0009
3908.00,0.0009
3907.00,0.0009
3906.00,0.0009
3905.00,0.0009
3904.00,0.0009
3903.00,0.0009
3902.00,0.0010
3901.00,0.0010
3900.00,0.0009
3899.00,0.0009
3898.00,0.0009
3897.00,0.0009
3896.00,0.0009
3895.00,0.0009
3894.00,0.0009
3893.00,0.0009
3892.00,0.0009
3891.00,0.0009
3890.00,0.0009
3889.00,0.0009
3888.00,0.0009
3887.00,0.0009
3886.00,0.0009
3885.00,0.0010
3884.00,0.0010
3883.00,0.0010
3882.00,0.0010
3881.00,0.0010
3880.00,0.0010
3879.00,0.0009
3878.00,0.0009
3877.00,0.0008
3876.00,0.0008
3875.00,0.0009
3874.00,0.0009
3873.00,0.0009
3872.00,0.0009
3871.00,0.0010
3870.00,0.0010
3869.00,0.0010
3868.00,0.0010
3867.00,0.0011
3866.00,0.0011
3865.00,0.0011
3864.00,0.0010
3863.00,0.0009
3862.00,0.0009
3861.00,0.0009
3860.00,0.0009
3859.00,0.0009
3858.00,0.0009
3857.00,0.0009
3856.00,0.0009
3855.00,0.0009
3854.00,0.0010
3853.00,0.0010
3852.00,0.0010
3851.00,0.0010
3850.00,0.0010
3849.00,0.0010
3848.00,0.0010
3847.00,0.0009
3846.00,0.0009
3845.00,0.0009
3844.00,0.0009
3843.00,0.0009
3842.00,0.0009
3841.00,0.0008
3840.00,0.0009
3839.00,0.0009
3838.00,0.0010
3837.00,0.0010
3836.00,0.0010
3835.00,0.0011
3834.00,0.0011
3833.00,0.0011
3832.00,0.0011
3831.00,0.0011
3830.00,0.0010
3829.00,0.0010
3828.00,0.0010
3827.00,0.0009
3826.00,0.0009
3825.00,0.0008
3824.00,0.0008
3823.00,0.0008
3822.00,0.0008
3821.00,0.0008
3820.00,0.0008
3819.00,0.0008
3818.00,0.0008
3817.00,0.0009
3816.00,0.0010
3815.00,0.0010
3814.00,0.0010
3813.00,0.0010
3812.00,0.0009
3811.00,0.0009
3810.00,0.0008
3809.00,0.0008
3808.00,0.0007
3807.00,0.0007
3806.00,0.0007
3805.00,0.0007
3804.00,0.0007
3803.00,0.0008
3802.00,0.0009
3801.00,0.0009
3800.00,0.0009
3799.00,0.0009
3798.00,0.0009
3797.00,0.0009
3796.00,0.0009
3795.00,0.0008
3794.00,0.0008
3793.00,0.0008
3792.00,0.0008
3791.00,0.0008
3790.00,0.0008
3789.00,0.0008
3788.00,0.0008
3787.00,0.0009
3786.00,0.0009
3785.00,0.0009
3784.00,0.0009
3783.00,0.0009
3782.00,0.0009
3781.00,0.0009
3780.00,0.0009
3779.00,0.0009
3778.00,0.0009
3777.00,0.0009
3776.00,0.0008
3775.00,0.0008
3774.00,0.0008
3773.00,0.0008
3772.00,0.0008
3771.00,0.0008
3770.00,0.0009
3769.00,0.0009
3768.00,0.0009
3767.00,0.0009
3766.00,0.0009
3765.00,0.0009
3764.00,0.0009
3763.00,0.0009
3762.00,0.0009
3761.00,0.0009
3760.00,0.0009
3759.00,0.0009
3758.00,0.0009
3757.00,0.0009
3756.00,0.0009
3755.00,0.0010
3754.00,0.0010
3753.00,0.0010
3752.00,0.0010
3751.00,0.0011
3750.00,0.0011
3749.00,0.0011
3748.00,0.0011
3747.00,0.0011
3746.00,0.0011
3745.00,0.0011
3744.00,0.0011
3743.00,0.0011
3742.00,0.0010
3741.00,0.0010
3740.00,0.0010
3739.00,0.0009
3738.00,0.0009
3737.00,0.0009
3736.00,0.0009
3735.00,0.0009
3734.00,0.0009
3733.00,0.0009
3732.00,0.0009
3731.00,0.0009
3730.00,0.0009
3729.00,0.0009
3728.00,0.0009
3727.00,0.0010
3726.00,0.0010
3725.00,0.0010
3724.00,0.0010
3723.00,0.0009
3722.00,0.0009
3721.00,0.0008
3720.00,0.0008
3719.00,0.0007
3718.00,0.0007
3717.00,0.0007
3716.00,0.0008
3715.00,0.0008
3714.00,0.0008
3713.00,0.0008
3712.00,0.0009
3711.00,0.0009
3710.00,0.0009
3709.00,0.0009
3708.00,0.0009
3707.00,0.0008
3706.00,0.0008
3705.00,0.0008
3704.00,0.0007
3703.00,0.0007
3702.00,0.0007
3701.00,0.0007
3700.00,0.0006
3699.00,0.0006
3698.00,0.0006
3697.00,0.0006
3696.00,0.0006
3695.00,0.0006
3694.00,0.0006
3693.00,0.0006
3692.00,0.0007
3691.00,0.0007
3690.00,0.0008
3689.00,0.0008
3688.00,0.0008
3687.00,0.0008
3686.00,0.0008
3685.00,0.0008
3684.00,0.0007
3683.00,0.0007
3682.00,0.0007
3681.00,0.0007
3680.00,0.0007
3679.00,0.0006
3678.00,0.0006
3677.00,0.0007
3676.00,0.0007
3675.00,0.0008
3674.00,0.0009
3673.00,0.0009
3672.00,0.0009
3671.00,0.0009
3670.00,0.0009
3669.00,0.0008
3668.00,0.0008
3667.00,0.0008
3666.00,0.0007
3665.00,0.0007
3664.00,0.0007
3663.00,0.0007
3662.00,0.0007
3661.00,0.0006
3660.00,0.0006
3659.00,0.0006
3658.00,0.0006
3657.00,0.0006
3656.00,0.0007
3655.00,0.0007
3654.00,0.0007
3653.00,0.0007
3652.00,0.0007
3651.00,0.0007
3650.00,0.0007
3649.00,0.0007
3648.00,0.0007
3647.00,0.0008
3646.00,0.0008
3645.00,0.0008
3644.00,0.0008
3643.00,0.0008
3642.00,0.0008
3641.00,0.0008
3640.00,0.0008
3639.00,0.0007
3638.00,0.0007
3637.00,0.0007
3636.00,0.0007
3635.00,0.0007
3634.00,0.0008
3633.00,0.0008
3632.00,0.0009
3631.00,0.0009
3630.00,0.0010
3629.00,0.0010
3628.00,0.0010
3627.00,0.0010
3626.00,0.0010
3625.00,0.0009
3624.00,0.0009
3623.00,0.0009
3622.00,0.0009
3621.00,0.0009
3620.00,0.0009
3619.00,0.0009
3618.00,0.0010
3617.00,0.0011
3616.00,0.0011
3615.00,0.0011
3614.00,0.0011
3613.00,0.0011
3612.00,0.0011
3611.00,0.0011
3610.00,0.0011
3609.00,0.0012
3608.00,0.0012
3607.00,0.0012
3606.00,0.0012
3605.00,0.0012
3604.00,0.0013
3603.00,0.0013
3602.00,0.0013
3601.00,0.0013
3600.00,0.0013
3599.00,0.0013
3598.00,0.0013
3597.00,0.0013
3596.00,0.0013
3595.00,0.0013
3594.00,0.0013
3593.00,0.0013
3592.00,0.0013
3591.00,0.0013
3590.00,0.0013
3589.00,0.0014
3588.00,0.0014
3587.00,0.0014
3586.00,0.0014
3585.00,0.0015
3584.00,0.0015
3583.00,0.0015
3582.00,0.0015
3581.00,0.0015
3580.00,0.0015
3579.00,0.0015
3578.00,0.0016
3577.00,0.0016
3576.00,0.0016
3575.00,0.0015
3574.00,0.0015
3573.00,0.0015
3572.00,0.0015
3571.00,0.0015
3570.00,0.0016
3569.00,0.0017
3568.00,0.0018
3567.00,0.0019
3566.00,0.0019
3565.00,0.0019
3564.00,0.0020
3563.00,0.0020
3562.00,0.0020
3561.00,0.0020
3560.00,0.0020
3559.00,0.0020
3558.00,0.0020
3557.00,0.0020
3556.00,0.0020
3555.00,0.0020
3554.00,0.0021
3553.00,0.0021
3552.00,0.0021
3551.00,0.0021
3550.00,0.0021
3549.00,0.0021
3548.00,0.0022
3547.00,0.0022
3546.00,0.0023
3545.00,0.0023
3544.00,0.0023
3543.00,0.0023
3542.00,0.0023
3541.00,0.0023
3540.00,0.0023
3539.00,0.0023
3538.00,0.0023
3537.00,0.0023
3536.00,0.0023
3535.00,0.0023
3534.00,0.0023
3533.00,0.0023
3532.00,0.0024
3531.00,0.0024
3530.00,0.0025
3529.00,0.0025
3528.00,0.0026
3527.00,0.0027
3526.00,0.0027
3525.00,0.0027
3524.00,0.0027
3523.00,0.0027
3522.00,0.0027
3521.00,0.0028
3520.00,0.0028
3519.00,0.0028
3518.00,0.0027
3517.00,0.0027
3516.00,0.0026
3515.00,0.0026
3514.00,0.0027
3513.00,0.0028
3512.00,0.0028
3511.00,0.0029
3510.00,0.0029
3509.00,0.0030
3508.00,0.0030
3507.00,0.0030
3506.00,0.0030
3505.00,0.0030
3504.00,0.0030
3503.00,0.0031
3502.00,0.0031
3501.00,0.0031
3500.00,0.0031
3499.00,0.0031
3498.00,0.0031
3497.00,0.0031
3496.00,0.0031
3495.00,0.0031
3494.00,0.0032
3493.00,0.0032
3492.00,0.0032
3491.00,0.0032
3490.00,0.0032
3489.00,0.0032
3488.00,0.0032
3487.00,0.0033
3486.00,0.0033
3485.00,0.0033
3484.00,0.0033
3483.00,0.0033
3482.00,0.0033
3481.00,0.0033
3480.00,0.0034
3479.00,0.0034
3478.00,0.0035
3477.00,0.0035
3476.00,0.0035
3475.00,0.0035
3474.00,0.0035
3473.00,0.0035
3472.00,0.0035
3471.00,0.0035
3470.00,0.0035
3469.00,0.0035
3468.00,0.0035
3467.00,0.0035
3466.00,0.0035
3465.00,0.0036
3464.00,0.0036
3463.00,0.0036
3462.00,0.0037
3461.00,0.0037
3460.00,0.0037
3459.00,0.0037
3458.00,0.0037
3457.00,0.0037
3456.00,0.0038
3455.00,0.0038
3454.00,0.0038
3453.00,0.0038
3452.00,0.0038
3451.00,0.0038
3450.00,0.0039
3449.00,0.0039
3448.00,0.0039
3447.00,0.0039
3446.00,0.0039
3445.00,0.0039
3444.00,0.0039
3443.00,0.0039
3442.00,0.0040
3441.00,0.0040
3440.00,0.0040
3439.00,0.0040
3438.00,0.0041
3437.00,0.0041
3436.00,0.0040
3435.00,0.0040
3434.00,0.0041
3433.00,0.0041
3432.00,0.0041
3431.00,0.0041
3430.00,0.0041
3429.00,0.0042
3428.00,0.0042
3427.00,0.0042
3426.00,0.0042
3425.00,0.0042
3424.00,0.0042
3423.00,0.0042
3422.00,0.0043
3421.00,0.0043
3420.00,0.0043
3419.00,0.0043
3418.00,0.0044
3417.00,0.0044
3416.00,0.0044
3415.00,0.0045
3414.00,0.0045
3413.00,0.0044
3412.00,0.0044
3411.00,0.0044
3410.00,0.0044
3409.00,0.0045
3408.00,0.0045
3407.00,0.0045
3406.00,0.0046
3405.00,0.0046
3404.00,0.0047
3403.00,0.0047
3402.00,0.0047
3401.00,0.0047
3400.00,0.0047
3399.00,0.0047
3398.00,0.0047
3397.00,0.0048
3396.00,0.0048
3395.00,0.0048
3394.00,0.0048
3393.00,0.0047
3392.00,0.0047
3391.00,0.0047
3390.00,0.0047
3389.00,0.0047
3388.00,0.0047
3387.00,0.0047
3386.00,0.0046
3385.00,0.0046
3384.00,0.0046
3383.00,0.0046
3382.00,0.0046
3381.00,0.0045
3380.00,0.0045
3379.00,0.0045
3378.00,0.0045
3377.00,0.0045
3376.00,0.0045
3375.00,0.0046
3374.00,0.0046
3373.00,0.0046
3372.00,0.0046
3371.00,0.0046
3370.00,0.0046
3369.00,0.0046
3368.00,0.0045
3367.00,0.0045
3366.00,0.0045
3365.00,0.0046
3364.00,0.0046
3363.00,0.0046
3362.00,0.0046
3361.00,0.0046
3360.00,0.0046
3359.00,0.0045
3358.00,0.0045
3357.00,0.0045
3356.00,0.0045
3355.00,0.0046
3354.00,0.0046
3353.00,0.0047
3352.00,0.0047
3351.00,0.0047
3350.00,0.0047
3349.00,0.0046
3348.00,0.0046
3347.00,0.0046
3346.00,0.0046
3345.00,0.0046
3344.00,0.0046
3343.00,0.0046
3342.00,0.0046
3341.00,0.0045
3340.00,0.0045
3339.00,0.0045
3338.00,0.0044
3337.00,0.0044
3336.00,0.0044
3335.00,0.0044
3334.00,0.0044
3333.00,0.0044
3332.00,0.0044
3331.00,0.0044
3330.00,0.0044
3329.00,0.0043
3328.00,0.0043
3327.00,0.0043
3326.00,0.0043
3325.00,0.0043
3324.00,0.0043
3323.00,0.0043
3322.00,0.0043
3321.00,0.0043
3320.00,0.0043
3319.00,0.0043
3318.00,0.0043
3317.00,0.0042
3316.00,0.0042
3315.00,0.0042
3314.00,0.0042
3313.00,0.0042
3312.00,0.0042
3311.00,0.0042
3310.00,0.0042
3309.00,0.0042
3308.00,0.0042
3307.00,0.0042
3306.00,0.0042
3305.00,0.0042
3304.00,0.0042
3303.00,0.0042
3302.00,0.0042
3301.00,0.0042
3300.00,0.0042
3299.00,0.0042
3298.00,0.0042
3297.00,0.0042
3296.00,0.0042
3295.00,0.0042
3294.00,0.0042
3293.00,0.0041
3292.00,0.0041
3291.00,0.0041
3290.00,0.0041
3289.00,0.0041
3288.00,0.0041
3287.00,0.0041
3286.00,0.0041
3285.00,0.0041
3284.00,0.0041
3283.00,0.0041
3282.00,0.0041
3281.00,0.0041
3280.00,0.0040
3279.00,0.0040
3278.00,0.0039
3277.00,0.0039
3276.00,0.0039
3275.00,0.0039
3274.00,0.0039
3273.00,0.0039
3272.00,0.0039
3271.00,0.0039
3270.00,0.0038
3269.00,0.0038
3268.00,0.0038
3267.00,0.0038
3266.00,0.0039
3265.00,0.0039
3264.00,0.0039
3263.00,0.0038
3262.00,0.0038
3261.00,0.0038
3260.00,0.0038
3259.00,0.0038
3258.00,0.0038
3257.00,0.0037
3256.00,0.0037
3255.00,0.0036
3254.00,0.0036
3253.00,0.0036
3252.00,0.0037
3251.00,0.0037
3250.00,0.0037
3249.00,0.0036
3248.00,0.0036
3247.00,0.0035
3246.00,0.0035
3245.00,0.0035
3244.00,0.0035
3243.00,0.0035
3242.00,0.0036
3241.00,0.0036
3240.00,0.0036
3239.00,0.0036
3238.00,0.0036
3237.00,0.0036
3236.00,0.0036
3235.00,0.0036
3234.00,0.0036
3233.00,0.0037
3232.00,0.0037
3231.00,0.0037
3230.00,0.0037
3229.00,0.0037
3228.00,0.0037
3227.00,0.0037
3226.00,0.0038
3225.00,0.0038
3224.00,0.0038
3223.00,0.0039
3222.00,0.0039
3221.00,0.0039
3220.00,0.0039
3219.00,0.0039
3218.00,0.0039
3217.00,0.0040
3216.00,0.0040
3215.00,0.0040
3214.00,0.0040
3213.00,0.0040
3212.00,0.0041
3211.00,0.0041
3210.00,0.0041
3209.00,0.0041
3208.00,0.0041
3207.00,0.0041
3206.00,0.0041
3205.00,0.0042
3204.00,0.0042
3203.00,0.0042
3202.00,0.0042
3201.00,0.0042
3200.00,0.0042
3199.00,0.0042
3198.00,0.0042
3197.00,0.0042
3196.00,0.0042
3195.00,0.0041
3194.00,0.0041
3193.00,0.0041
3192.00,0.0041
3191.00,0.0042
3190.00,0.0042
3189.00,0.0041
3188.00,0.0041
3187.00,0.0041
3186.00,0.0040
3185.00,0.0040
3184.00,0.0040
3183.00,0.0040
3182.00,0.0040
3181.00,0.0039
3180.00,0.0039
3179.00,0.0039
3178.00,0.0038
3177.00,0.0038
3176.00,0.0038
3175.00,0.0038
3174.00,0.0037
3173.00,0.0037
3172.00,0.0037
3171.00,0.0037
3170.00,0.0037
3169.00,0.0037
3168.00,0.0037
3167.00,0.0037
3166.00,0.0037
3165.00,0.0037
3164.00,0.0037
3163.00,0.0036
3162.00,0.0036
3161.00,0.0036
3160.00,0.0036
3159.00,0.0036
3158.00,0.0036
3157.00,0.0036
3156.00,0.0037
3155.00,0.0037
3154.00,0.0037
3153.00,0.0036
3152.00,0.0036
3151.00,0.0035
3150.00,0.0035
3149.00,0.0035
3148.00,0.0035
3147.00,0.0036
3146.00,0.0036
3145.00,0.0036
3144.00,0.0035
3143.00,0.0035
3142.00,0.0035
3141.00,0.0035
3140.00,0.0035
3139.00,0.0034
3138.00,0.0034
3137.00,0.0034
3136.00,0.0033
3135.00,0.0033
3134.00,0.0033
3133.00,0.0033
3132.00,0.0032
3131.00,0.0032
3130.00,0.0032
3129.00,0.0032
3128.00,0.0032
3127.00,0.0032
3126.00,0.0032
3125.00,0.0031
3124.00,0.0031
3123.00,0.0031
3122.00,0.0032
3121.00,0.0031
3120.00,0.0031
3119.00,0.0031
3118.00,0.0030
3117.00,0.0030
3116.00,0.0030
3115.00,0.0030
3114.00,0.0030
3113.00,0.0030
3112.00,0.0030
3111.00,0.0030
3110.00,0.0029
3109.00,0.0029
3108.00,0.0029
3107.00,0.0029
3106.00,0.0028
3105.00,0.0028
3104.00,0.0028
3103.00,0.0028
3102.00,0.0028
3101.00,0.0028
3100.00,0.0028
3099.00,0.0028
3098.00,0.0028
3097.00,0.0028
3096.00,0.0028
3095.00,0.0028
3094.00,0.0028
3093.00,0.0028
3092.00,0.0028
3091.00,0.0028
3090.00,0.0027
3089.00,0.0028
3088.00,0.0028
3087.00,0.0028
3086.00,0.0028
3085.00,0.0027
3084.00,0.0027
3083.00,0.0027
3082.00,0.0027
3081.00,0.0027
3080.00,0.0027
3079.00,0.0027
3078.00,0.0028
3077.00,0.0028
3076.00,0.0028
3075.00,0.0028
3074.00,0.0028
3073.00,0.0028
3072.00,0.0028
3071.00,0.0028
3070.00,0.0028
3069.00,0.0028
3068.00,0.0028
3067.00,0.0029
3066.00,0.0029
3065.00,0.0029
3064.00,0.0030
3063.00,0.0030
3062.00,0.0030
3061.00,0.0030
3060.00,0.0030
3059.00,0.0030
3058.00,0.0030
3057.00,0.0030
3056.00,0.0030
3055.00,0.0030
3054.00,0.0030
3053.00,0.0031
3052.00,0.0031
3051.00,0.0031
3050.00,0.0031
3049.00,0.0032
3048.00,0.0032
3047.00,0.0032
3046.00,0.0032
3045.00,0.0032
3044.00,0.0032
3043.00,0.0033
3042.00,0.0033
3041.00,0.0033
3040.00,0.0034
3039.00,0.0034
3038.00,0.0035
3037.00,0.0035
3036.00,0.0035
3035.00,0.0035
3034.00,0.0035
3033.00,0.0035
3032.00,0.0036
3031.00,0.0037
3030.00,0.0037
3029.00,0.0037
3028.00,0.0038
3027.00,0.0039
3026.00,0.0039
3025.00,0.0040
3024.00,0.0040
3023.00,0.0041
3022.00,0.0041
3021.00,0.0042
3020.00,0.0043
3019.00,0.0043
3018.00,0.0044
3017.00,0.0045
3016.00,0.0046
3015.00,0.0047
3014.00,0.0048
3013.00,0.0050
3012.00,0.0051
3011.00,0.0052
3010.00,0.0054
3009.00,0.0055
3008.00,0.0056
3007.00,0.0057
3006.00,0.0059
3005.00,0.0060
3004.00,0.0062
3003.00,0.0064
3002.00,0.0066
3001.00,0.0069
3000.00,0.0072
2999.00,0.0074
2998.00,0.0078
2997.00,0.0081
2996.00,0.0085
2995.00,0.0089
2994.00,0.0093
2993.00,0.0098
2992.00,0.0103
2991.00,0.0109
2990.00,0.0116
2989.00,0.0123
2988.00,0.0131
2987.00,0.0140
2986.00,0.0150
2985.00,0.0161
2984.00,0.0173
2983.00,0.0186
2982.00,0.0202
2981.00,0.0221
2980.00,0.0242
2979.00,0.0267
2978.00,0.0294
2977.00,0.0325
2976.00,0.0359
2975.00,0.0399
2974.00,0.0443
2973.00,0.0494
2972.00,0.0552
2971.00,0.0617
2970.00,0.0689
2969.00,0.0769
2968.00,0.0857
2967.00,0.0951
2966.00,0.1052
2965.00,0.1155
2964.00,0.1258
2963.00,0.1357
2962.00,0.1447
2961.00,0.1526
2960.00,0.1589
2959.00,0.1640
2958.00,0.1680
2957.00,0.1716
2956.00,0.1754
2955.00,0.1797
2954.00,0.1847
2953.00,0.1901
2952.00,0.1952
2951.00,0.1989
2950.00,0.2003
2949.00,0.1984
2948.00,0.1927
2947.00,0.1832
2946.00,0.1710
2945.00,0.1573
2944.00,0.1437
2943.00,0.1314
2942.00,0.1214
2941.00,0.1140
2940.00,0.1093
2939.00,0.1072
2938.00,0.1073
2937.00,0.1093
2936.00,0.1131
2935.00,0.1185
2934.00,0.1252
2933.00,0.1332
2932.00,0.1423
2931.00,0.1523
2930.00,0.1628
2929.00,0.1735
2928.00,0.1840
2927.00,0.1941
2926.00,0.2037
2925.00,0.2127
2924.00,0.2213
2923.00,0.2296
2922.00,0.2378
2921.00,0.2455
2920.00,0.2524
2919.00,0.2578
2918.00,0.2610
2917.00,0.2613
2916.00,0.2586
2915.00,0.2531
2914.00,0.2455
2913.00,0.2367
2912.00,0.2275
2911.00,0.2186
2910.00,0.2103
2909.00,0.2026
2908.00,0.1954
2907.00,0.1885
2906.00,0.1816
2905.00,0.1747
2904.00,0.1676
2903.00,0.1604
2902.00,0.1531
2901.00,0.1460
2900.00,0.1391
2899.00,0.1326
2898.00,0.1266
2897.00,0.1212
2896.00,0.1164
2895.00,0.1123
2894.00,0.1089
2893.00,0.1063
2892.00,0.1044
2891.00,0.1032
2890.00,0.1026
2889.00,0.1025
2888.00,0.1028
2887.00,0.1035
2886.00,0.1046
2885.00,0.1060
2884.00,0.1080
2883.00,0.1104
2882.00,0.1134
2881.00,0.1166
2880.00,0.1198
2879.00,0.1225
2878.00,0.1245
2877.00,0.1254
2876.00,0.1252
2875.00,0.1244
2874.00,0.1235
2873.00,0.1230
2872.00,0.1231
2871.00,0.1241
2870.00,0.1258
2869.00,0.1276
2868.00,0.1287
2867.00,0.1283
2866.00,0.1257
2865.00,0.1204
2864.00,0.1127
2863.00,0.1035
2862.00,0.0938
2861.00,0.0847
2860.00,0.0768
2859.00,0.0703
2858.00,0.0654
2857.00,0.0618
2856.00,0.0594
2855.00,0.0580
2854.00,0.0575
2853.00,0.0576
2852.00,0.0585
2851.00,0.0600
2850.00,0.0621
2849.00,0.0649
2848.00,0.0684
2847.00,0.0726
2846.00,0.0778
2845.00,0.0838
2844.00,0.0908
2843.00,0.0985
2842.00,0.1065
2841.00,0.1143
2840.00,0.1211
2839.00,0.1258
2838.00,0.1276
2837.00,0.1258
2836.00,0.1202
2835.00,0.1114
2834.00,0.1005
2833.00,0.0888
2832.00,0.0775
2831.00,0.0673
2830.00,0.0586
2829.00,0.0515
2828.00,0.0458
2827.00,0.0412
2826.00,0.0375
2825.00,0.0344
2824.00,0.0319
2823.00,0.0298
2822.00,0.0280
2821.00,0.0264
2820.00,0.0251
2819.00,0.0239
2818.00,0.0228
2817.00,0.0219
2816.00,0.0212
2815.00,0.0205
2814.00,0.0199
2813.00,0.0194
2812.00,0.0188
2811.00,0.0183
2810.00,0.0177
2809.00,0.0171
2808.00,0.0166
2807.00,0.0159
2806.00,0.0153
2805.00,0.0146
2804.00,0.0140
2803.00,0.0134
2802.00,0.0128
2801.00,0.0123
2800.00,0.0119
2799.00,0.0115
2798.00,0.0113
2797.00,0.0110
2796.00,0.0108
2795.00,0.0106
2794.00,0.0103
2793.00,0.0101
2792.00,0.0098
2791.00,0.0094
2790.00,0.0091
2789.00,0.0087
2788.00,0.0083
2787.00,0.0080
2786.00,0.0077
2785.00,0.0075
2784.00,0.0073
2783.00,0.0071
2782.00,0.0069
2781.00,0.0067
2780.00,0.0065
2779.00,0.0063
2778.00,0.0062
2777.00,0.0061
2776.00,0.0060
2775.00,0.0059
2774.00,0.0058
2773.00,0.0057
2772.00,0.0057
2771.00,0.0056
2770.00,0.0056
2769.00,0.0056
2768.00,0.0056
2767.00,0.0055
2766.00,0.0055
2765.00,0.0055
2764.00,0.0054
2763.00,0.0054
2762.00,0.0053
2761.00,0.0052
2760.00,0.0052
2759.00,0.0052
2758.00,0.0052
2757.00,0.0052
2756.00,0.0052
2755.00,0.0052
2754.00,0.0051
2753.00,0.0052
2752.00,0.0052
2751.00,0.0051
2750.00,0.0051
2749.00,0.0051
2748.00,0.0051
2747.00,0.0051
2746.00,0.0052
2745.00,0.0053
2744.00,0.0054
2743.00,0.0055
2742.00,0.0055
2741.00,0.0056
2740.00,0.0057
2739.00,0.0059
2738.00,0.0061
2737.00,0.0062
2736.00,0.0064
2735.00,0.0065
2734.00,0.0067
2733.00,0.0068
2732.00,0.0070
2731.00,0.0072
2730.00,0.0074
2729.00,0.0077
2728.00,0.0080
2727.00,0.0083
2726.00,0.0086
2725.00,0.0089
2724.00,0.0090
2723.00,0.0090
2722.00,0.0089
2721.00,0.0087
2720.00,0.0084
2719.00,0.0081
2718.00,0.0078
2717.00,0.0075
2716.00,0.0071
2715.00,0.0069
2714.00,0.0066
2713.00,0.0064
2712.00,0.0062
2711.00,0.0060
2710.00,0.0058
2709.00,0.0057
2708.00,0.0055
2707.00,0.0054
2706.00,0.0052
2705.00,0.0051
2704.00,0.0049
2703.00,0.0048
2702.00,0.0048
2701.00,0.0047
2700.00,0.0046
2699.00,0.0045
2698.00,0.0045
2697.00,0.0044
2696.00,0.0044
2695.00,0.0044
2694.00,0.0044
2693.00,0.0045
2692.00,0.0045
2691.00,0.0045
2690.00,0.0045
2689.00,0.0045
2688.00,0.0044
2687.00,0.0044
2686.00,0.0044
2685.00,0.0044
2684.00,0.0044
2683.00,0.0045
2682.00,0.0045
2681.00,0.0045
2680.00,0.0045
2679.00,0.0046
2678.00,0.0046
2677.00,0.0046
2676.00,0.0045
2675.00,0.0045
2674.00,0.0044
2673.00,0.0044
2672.00,0.0044
2671.00,0.0044
2670.00,0.0044
2669.00,0.0044
2668.00,0.0044
2667.00,0.0044
2666.00,0.0044
2665.00,0.0045
2664.00,0.0046
2663.00,0.0046
2662.00,0.0047
2661.00,0.0048
2660.00,0.0048
2659.00,0.0048
2658.00,0.0047
2657.00,0.0047
2656.00,0.0047
2655.00,0.0046
2654.00,0.0046
2653.00,0.0045
2652.00,0.0044
2651.00,0.0043
2650.00,0.0043
2649.00,0.0042
2648.00,0.0042
2647.00,0.0042
2646.00,0.0042
2645.00,0.0042
2644.00,0.0041
2643.00,0.0040
2642.00,0.0039
2641.00,0.0038
2640.00,0.0038
2639.00,0.0038
2638.00,0.0038
2637.00,0.0038
2636.00,0.0038
2635.00,0.0038
2634.00,0.0038
2633.00,0.0037
2632.00,0.0038
2631.00,0.0038
2630.00,0.0038
2629.00,0.0039
2628.00,0.0039
2627.00,0.0039
2626.00,0.0039
2625.00,0.0039
2624.00,0.0039
2623.00,0.0040
2622.00,0.0040
2621.00,0.0040
2620.00,0.0040
2619.00,0.0040
2618.00,0.0040
2617.00,0.0041
2616.00,0.0041
2615.00,0.0040
2614.00,0.0040
2613.00,0.0039
2612.00,0.0039
2611.00,0.0038
2610.00,0.0038
2609.00,0.0037
2608.00,0.0036
2607.00,0.0035
2606.00,0.0035
2605.00,0.0035
2604.00,0.0034
2603.00,0.0033
2602.00,0.0032
2601.00,0.0032
2600.00,0.0031
2599.00,0.0031
2598.00,0.0031
2597.00,0.0031
2596.00,0.0032
2595.00,0.0032
2594.00,0.0032
2593.00,0.0033
2592.00,0.0033
2591.00,0.0034
2590.00,0.0035
2589.00,0.0036
2588.00,0.0037
2587.00,0.0038
2586.00,0.0039
2585.00,0.0040
2584.00,0.0041
2583.00,0.0041
2582.00,0.0041
2581.00,0.0040
2580.00,0.0039
2579.00,0.0038
2578.00,0.0037
2577.00,0.0036
2576.00,0.0035
2575.00,0.0034
2574.00,0.0033
2573.00,0.0033
2572.00,0.0032
2571.00,0.0032
2570.00,0.0031
2569.00,0.0030
2568.00,0.0029
2567.00,0.0028
2566.00,0.0027
2565.00,0.0026
2564.00,0.0025
2563.00,0.0025
2562.00,0.0025
2561.00,0.0025
2560.00,0.0025
2559.00,0.0025
2558.00,0.0025
2557.00,0.0025
2556.00,0.0024
2555.00,0.0024
2554.00,0.0023
2553.00,0.0023
2552.00,0.0023
2551.00,0.0022
2550.00,0.0022
2549.00,0.0021
2548.00,0.0021
2547.00,0.0021
2546.00,0.0021
2545.00,0.0020
2544.00,0.0020
2543.00,0.0019
2542.00,0.0018
2541.00,0.0018
2540.00,0.0018
2539.00,0.0018
2538.00,0.0018
2537.00,0.0019
2536.00,0.0019
2535.00,0.0018
2534.00,0.0017
2533.00,0.0016
2532.00,0.0016
2531.00,0.0016
2530.00,0.0015
2529.00,0.0015
2528.00,0.0014
2527.00,0.0014
2526.00,0.0014
2525.00,0.0014
2524.00,0.0014
2523.00,0.0014
2522.00,0.0014
2521.00,0.0014
2520.00,0.0013
2519.00,0.0013
2518.00,0.0013
2517.00,0.0013
2516.00,0.0013
2515.00,0.0012
2514.00,0.0012
2513.00,0.0012
2512.00,0.0012
2511.00,0.0011
2510.00,0.0011
2509.00,0.0011
2508.00,0.0011
2507.00,0.0011
2506.00,0.0011
2505.00,0.0010
2504.00,0.0010
2503.00,0.0009
2502.00,0.0009
2501.00,0.0010
2500.00,0.0011
2499.00,0.0011
2498.00,0.0011
2497.00,0.0011
2496.00,0.0011
2495.00,0.0011
2494.00,0.0011
2493.00,0.0011
2492.00,0.0011
2491.00,0.0011
2490.00,0.0011
2489.00,0.0011
2488.00,0.0012
2487.00,0.0012
2486.00,0.0013
2485.00,0.0013
2484.00,0.0012
2483.00,0.0012
2482.00,0.0011
2481.00,0.0010
2480.00,0.0009
2479.00,0.0009
2478.00,0.0009
2477.00,0.0009
2476.00,0.0009
2475.00,0.0009
2474.00,0.0009
2473.00,0.0009
2472.00,0.0009
2471.00,0.0009
2470.00,0.0009
2469.00,0.0009
2468.00,0.0009
2467.00,0.0010
2466.00,0.0010
2465.00,0.0010
2464.00,0.0010
2463.00,0.0009
2462.00,0.0009
2461.00,0.0010
2460.00,0.0010
2459.00,0.0010
2458.00,0.0010
2457.00,0.0011
2456.00,0.0011
2455.00,0.0011
2454.00,0.0011
2453.00,0.0012
2452.00,0.0012
2451.00,0.0012
2450.00,0.0012
2449.00,0.0012
2448.00,0.0012
2447.00,0.0011
2446.00,0.0011
2445.00,0.0011
2444.00,0.0011
2443.00,0.0011
2442.00,0.0011
2441.00,0.0012
2440.00,0.0012
2439.00,0.0012
2438.00,0.0011
2437.00,0.0011
2436.00,0.0011
2435.00,0.0011
2434.00,0.0011
2433.00,0.0012
2432.00,0.0012
2431.00,0.0012
2430.00,0.0012
2429.00,0.0012
2428.00,0.0012
2427.00,0.0013
2426.00,0.0012
2425.00,0.0012
2424.00,0.0011
2423.00,0.0011
2422.00,0.0011
2421.00,0.0011
2420.00,0.0011
2419.00,0.0012
2418.00,0.0012
2417.00,0.0013
2416.00,0.0013
2415.00,0.0013
2414.00,0.0012
2413.00,0.0012
2412.00,0.0012
2411.00,0.0011
2410.00,0.0011
2409.00,0.0011
2408.00,0.0011
2407.00,0.0011
2406.00,0.0010
2405.00,0.0010
2404.00,0.0009
2403.00,0.0009
2402.00,0.0009
2401.00,0.0009
2400.00,0.0009
2399.00,0.0009
2398.00,0.0009
2397.00,0.0009
2396.00,0.0009
2395.00,0.0009
2394.00,0.0009
2393.00,0.0009
2392.00,0.0008
2391.00,0.0008
2390.00,0.0008
2389.00,0.0008
2388.00,0.0008
2387.00,0.0009
2386.00,0.0009
2385.00,0.0010
2384.00,0.0009
2383.00,0.0008
2382.00,0.0007
2381.00,0.0006
2380.00,0.0006
2379.00,0.0005
2378.00,0.0005
2377.00,0.0005
2376.00,0.0005
2375.00,0.0005
2374.00,0.0005
2373.00,0.0005
2372.00,0.0004
2371.00,0.0004
2370.00,0.0004
2369.00,0.0004
2368.00,0.0004
2367.00,0.0003
2366.00,0.0003
2365.00,0.0004
2364.00,0.0004
2363.00,0.0003
2362.00,0.0003
2361.00,0.0003
2360.00,0.0003
2359.00,0.0003
2358.00,0.0003
2357.00,0.0002
2356.00,0.0001
2355.00,-0.0000
2354.00,-0.0001
2353.00,-0.0002
2352.00,-0.0003
2351.00,-0.0003
2350.00,-0.0002
2349.00,0.0001
2348.00,0.0004
2347.00,0.0008
2346.00,0.0009
2345.00,0.0009
2344.00,0.0007
2343.00,0.0006
2342.00,0.0006
2341.00,0.0006
2340.00,0.0005
2339.00,0.0005
2338.00,0.0005
2337.00,0.0005
2336.00,0.0006
2335.00,0.0006
2334.00,0.0005
2333.00,0.0005
2332.00,0.0004
2331.00,0.0003
2330.00,0.0003
2329.00,0.0004
2328.00,0.0006
2327.00,0.0009
2326.00,0.0013
2325.00,0.0017
2324.00,0.0018
2323.00,0.0016
2322.00,0.0014
2321.00,0.0012
2320.00,0.0010
2319.00,0.0009
2318.00,0.0009
2317.00,0.0009
2316.00,0.0009
2315.00,0.0009
2314.00,0.0008
2313.00,0.0008
2312.00,0.0007
2311.00,0.0007
2310.00,0.0007
2309.00,0.0007
2308.00,0.0008
2307.00,0.0008
2306.00,0.0009
2305.00,0.0010
2304.00,0.0010
2303.00,0.0011
2302.00,0.0011
2301.00,0.0012
2300.00,0.0012
2299.00,0.0012
2298.00,0.0012
2297.00,0.0013
2296.00,0.0013
2295.00,0.0013
2294.00,0.0013
2293.00,0.0014
2292.00,0.0015
2291.00,0.0016
2290.00,0.0016
2289.00,0.0017
2288.00,0.0019
2287.00,0.0020
2286.00,0.0020
2285.00,0.0021
2284.00,0.0021
2283.00,0.0020
2282.00,0.0018
2281.00,0.0017
2280.00,0.0016
2279.00,0.0015
2278.00,0.0015
2277.00,0.0016
2276.00,0.0017
2275.00,0.0017
2274.00,0.0016
2273.00,0.0015
2272.00,0.0014
2271.00,0.0013
2270.00,0.0012
2269.00,0.0012
2268.00,0.0011
2267.00,0.0011
2266.00,0.0011
2265.00,0.0012
2264.00,0.0013
2263.00,0.0013
2262.00,0.0013
2261.00,0.0013
2260.00,0.0013
2259.00,0.0013
2258.00,0.0012
2257.00,0.0012
2256.00,0.0010
2255.00,0.0009
2254.00,0.0009
2253.00,0.0009
2252.00,0.0009
2251.00,0.0009
2250.00,0.0009
2249.00,0.0009
2248.00,0.0009
2247.00,0.0008
2246.00,0.0008
2245.00,0.0007
2244.00,0.0008
2243.00,0.0009
2242.00,0.0009
2241.00,0.0009
2240.00,0.0009
2239.00,0.0008
2238.00,0.0008
2237.00,0.0008
2236.00,0.0008
2235.00,0.0009
2234.00,0.0010
2233.00,0.0010
2232.00,0.0010
2231.00,0.0009
2230.00,0.0008
2229.00,0.0007
2228.00,0.0008
2227.00,0.0009
2226.00,0.0011
2225.00,0.0012
2224.00,0.0010
2223.00,0.0008
2222.00,0.0005
2221.00,0.0004
2220.00,0.0007
2219.00,0.0010
2218.00,0.0011
2217.00,0.0010
2216.00,0.0007
2215.00,0.0006
2214.00,0.0006
2213.00,0.0008
2212.00,0.0010
2211.00,0.0010
2210.00,0.0010
2209.00,0.0009
2208.00,0.0009
2207.00,0.0009
2206.00,0.0008
2205.00,0.0007
2204.00,0.0006
2203.00,0.0007
2202.00,0.0008
2201.00,0.0011
2200.00,0.0012
2199.00,0.0012
2198.00,0.0011
2197.00,0.0010
2196.00,0.0010
2195.00,0.0010
2194.00,0.0010
2193.00,0.0010
2192.00,0.0009
2191.00,0.0009
2190.00,0.0007
2189.00,0.0006
2188.00,0.0006
2187.00,0.0008
2186.00,0.0009
2185.00,0.0008
2184.00,0.0005
2183.00,0.0002
2182.00,-0.0001
2181.00,-0.0001
2180.00,0.0000
2179.00,0.0001
2178.00,0.0002
2177.00,0.0002
2176.00,0.0001
2175.00,0.0002
2174.00,0.0003
2173.00,0.0006
2172.00,0.0008
2171.00,0.0010
2170.00,0.0012
2169.00,0.0015
2168.00,0.0017
2167.00,0.0018
2166.00,0.0018
2165.00,0.0018
2164.00,0.0019
2163.00,0.0020
2162.00,0.0020
2161.00,0.0013
2160.00,0.0001
2159.00,-0.0013
2158.00,-0.0023
2157.00,-0.0025
2156.00,-0.0022
2155.00,-0.0017
2154.00,-0.0013
2153.00,-0.0011
2152.00,-0.0010
2151.00,-0.0011
2150.00,-0.0013
2149.00,-0.0014
2148.00,-0.0014
2147.00,-0.0014
2146.00,-0.0013
2145.00,-0.0012
2144.00,-0.0012
2143.00,-0.0012
2142.00,-0.0012
2141.00,-0.0012
2140.00,-0.0012
2139.00,-0.0012
2138.00,-0.0013
2137.00,-0.0013
2136.00,-0.0014
2135.00,-0.0015
2134.00,-0.0016
2133.00,-0.0016
2132.00,-0.0015
2131.00,-0.0012
2130.00,-0.0010
2129.00,-0.0008
2128.00,-0.0007
2127.00,-0.0006
2126.00,-0.0004
2125.00,-0.0003
2124.00,-0.0003
2123.00,-0.0003
2122.00,-0.0003
2121.00,-0.0003
2120.00,-0.0002
2119.00,-0.0001
2118.00,-0.0001
2117.00,0.0000
2116.00,0.0001
2115.00,0.0001
2114.00,-0.0000
2113.00,-0.0001
2112.00,-0.0000
2111.00,0.0001
2110.00,0.0003
2109.00,0.0004
2108.00,0.0004
2107.00,0.0004
2106.00,0.0003
2105.00,0.0001
2104.00,-0.0000
2103.00,-0.0001
2102.00,-0.0001
2101.00,-0.0001
2100.00,-0.0001
2099.00,-0.0001
2098.00,-0.0002
2097.00,-0.0003
2096.00,-0.0005
2095.00,-0.0005
2094.00,-0.0005
2093.00,-0.0004
2092.00,-0.0003
2091.00,-0.0002
2090.00,0.0000
2089.00,0.0002
2088.00,0.0004
2087.00,0.0005
2086.00,0.0004
2085.00,0.0003
2084.00,0.0003
2083.00,0.0004
2082.00,0.0004
2081.00,0.0005
2080.00,0.0005
2079.00,0.0005
2078.00,0.0005
2077.00,0.0005
2076.00,0.0005
2075.00,0.0004
2074.00,0.0004
2073.00,0.0003
2072.00,0.0002
2071.00,0.0000
2070.00,-0.0001
2069.00,-0.0002
2068.00,-0.0001
2067.00,-0.0001
2066.00,-0.0002
2065.00,-0.0003
2064.00,-0.0003
2063.00,-0.0002
2062.00,-0.0001
2061.00,-0.0000
2060.00,-0.0001
2059.00,-0.0002
2058.00,-0.0002
2057.00,-0.0001
2056.00,0.0001
2055.00,0.0003
2054.00,0.0004
2053.00,0.0006
2052.00,0.0010
2051.00,0.0013
2050.00,0.0014
2049.00,0.0012
2048.00,0.0008
2047.00,0.0005
2046.00,0.0002
2045.00,-0.0001
2044.00,-0.0005
2043.00,-0.0007
2042.00,-0.0006
2041.00,-0.0003
2040.00,-0.0000
2039.00,0.0000
2038.00,0.0000
2037.00,0.0000
2036.00,-0.0000
2035.00,-0.0001
2034.00,-0.0004
2033.00,-0.0006
2032.00,-0.0009
2031.00,-0.0011
2030.00,-0.0014
2029.00,-0.0015
2028.00,-0.0015
2027.00,-0.0013
2026.00,-0.0010
2025.00,-0.0007
2024.00,-0.0006
2023.00,-0.0007
2022.00,-0.0007
2021.00,-0.0005
2020.00,-0.0003
2019.00,-0.0003
2018.00,-0.0005
2017.00,-0.0009
2016.00,-0.0012
2015.00,-0.0015
2014.00,-0.0015
2013.00,-0.0015
2012.00,-0.0013
2011.00,-0.0011
2010.00,-0.0010
2009.00,-0.0010
2008.00,-0.0011
2007.00,-0.0013
2006.00,-0.0014
2005.00,-0.0015
2004.00,-0.0016
2003.00,-0.0016
2002.00,-0.0017
2001.00,-0.0016
2000.00,-0.0014
1999.00,-0.0013
1998.00,-0.0013
1997.00,-0.0011
1996.00,-0.0010
1995.00,-0.0009
1994.00,-0.0009
1993.00,-0.0009
1992.00,-0.0008
1991.00,-0.0007
1990.00,-0.0005
1989.00,-0.0001
1988.00,0.0002
1987.00,0.0003
1986.00,0.0003
1985.00,0.0003
1984.00,0.0003
1983.00,0.0004
1982.00,0.0007
1981.00,0.0010
1980.00,0.0010
1979.00,0.0007
1978.00,0.0001
1977.00,-0.0004
1976.00,-0.0006
1975.00,-0.0007
1974.00,-0.0009
1973.00,-0.0011
1972.00,-0.0014
1971.00,-0.0017
1970.00,-0.0018
1969.00,-0.0016
1968.00,-0.0013
1967.00,-0.0012
1966.00,-0.0011
1965.00,-0.0010
1964.00,-0.0010
1963.00,-0.0011
1962.00,-0.0012
1961.00,-0.0014
1960.00,-0.0015
1959.00,-0.0017
1958.00,-0.0018
1957.00,-0.0018
1956.00,-0.0017
1955.00,-0.0015
1954.00,-0.0013
1953.00,-0.0011
1952.00,-0.0011
1951.00,-0.0011
1950.00,-0.0012
1949.00,-0.0013
1948.00,-0.0012
1947.00,-0.0012
1946.00,-0.0012
1945.00,-0.0012
1944.00,-0.0012
1943.00,-0.0013
1942.00,-0.0015
1941.00,-0.0016
1940.00,-0.0015
1939.00,-0.0014
1938.00,-0.0012
1937.00,-0.0009
1936.00,-0.0007
1935.00,-0.0007
1934.00,-0.0008
1933.00,-0.0009
1932.00,-0.0010
1931.00,-0.0011
1930.00,-0.0012
1929.00,-0.0012
1928.00,-0.0011
1927.00,-0.0009
1926.00,-0.0008
1925.00,-0.0007
1924.00,-0.0007
1923.00,-0.0006
1922.00,-0.0004
1921.00,-0.0004
1920.00,-0.0004
1919.00,-0.0005
1918.00,-0.0006
1917.00,-0.0005
1916.00,-0.0004
1915.00,-0.0003
1914.00,-0.0003
1913.00,-0.0002
1912.00,-0.0001
1911.00,-0.0002
1910.00,-0.0003
1909.00,-0.0004
1908.00,-0.0004
1907.00,-0.0004
1906.00,-0.0003
1905.00,-0.0003
1904.00,-0.0003
1903.00,-0.0004
1902.00,-0.0004
1901.00,-0.0005
1900.00,-0.0005
1899.00,-0.0004
1898.00,-0.0004
1897.00,-0.0003
1896.00,-0.0002
1895.00,-0.0001
1894.00,-0.0000
1893.00,-0.0000
1892.00,0.0000
1891.00,0.0000
1890.00,-0.0000
1889.00,-0.0001
1888.00,-0.0001
1887.00,-0.0002
1886.00,-0.0002
1885.00,-0.0001
1884.00,-0.0001
1883.00,-0.0002
1882.00,-0.0003
1881.00,-0.0002
1880.00,-0.0001
1879.00,-0.0000
1878.00,0.0001
1877.00,0.0001
1876.00,0.0000
1875.00,-0.0000
1874.00,-0.0001
1873.00,-0.0000
1872.00,0.0000
1871.00,0.0000
1870.00,0.0000
1869.00,0.0000
1868.00,0.0001
1867.00,0.0000
1866.00,0.0000
1865.00,0.0000
1864.00,0.0000
1863.00,0.0000
1862.00,0.0001
1861.00,0.0000
1860.00,0.0000
1859.00,-0.0000
1858.00,-0.0000
1857.00,-0.0000
1856.00,-0.0000
1855.00,-0.0000
1854.00,0.0000
1853.00,0.0001
1852.00,0.0002
1851.00,0.0002
1850.00,0.0002
1849.00,0.0002
1848.00,0.0002
1847.00,0.0001
1846.00,0.0001
1845.00,0.0001
1844.00,0.0002
1843.00,0.0002
1842.00,0.0002
1841.00,0.0002
1840.00,0.0002
1839.00,0.0002
1838.00,0.0003
1837.00,0.0003
1836.00,0.0003
1835.00,0.0003
1834.00,0.0003
1833.00,0.0003
1832.00,0.0003
1831.00,0.0003
1830.00,0.0003
1829.00,0.0004
1828.00,0.0004
1827.00,0.0004
1826.00,0.0003
1825.00,0.0003
1824.00,0.0003
1823.00,0.0004
1822.00,0.0004
1821.00,0.0004
1820.00,0.0003
1819.00,0.0001
1818.00,0.0000
1817.00,-0.0000
1816.00,-0.0000
1815.00,0.0001
1814.00,0.0001
1813.00,0.0002
1812.00,0.0003
1811.00,0.0003
1810.00,0.0004
1809.00,0.0004
1808.00,0.0004
1807.00,0.0004
1806.00,0.0004
1805.00,0.0004
1804.00,0.0005
1803.00,0.0005
1802.00,0.0005
1801.00,0.0005
1800.00,0.0006
1799.00,0.0006
1798.00,0.0006
1797.00,0.0006
1796.00,0.0006
1795.00,0.0005
1794.00,0.0005
1793.00,0.0006
1792.00,0.0007
1791.00,0.0007
1790.00,0.0007
1789.00,0.0007
1788.00,0.0007
1787.00,0.0007
1786.00,0.0008
1785.00,0.0008
1784.00,0.0008
1783.00,0.0008
1782.00,0.0008
1781.00,0.0008
1780.00,0.0008
1779.00,0.0009
1778.00,0.0009
1777.00,0.0009
1776.00,0.0009
1775.00,0.0008
1774.00,0.0009
1773.00,0.0009
1772.00,0.0010
1771.00,0.0010
1770.00,0.0010
1769.00,0.0010
1768.00,0.0010
1767.00,0.0010
1766.00,0.0010
1765.00,0.0011
1764.00,0.0011
1763.00,0.0012
1762.00,0.0012
1761.00,0.0012
1760.00,0.0012
1759.00,0.0012
1758.00,0.0012
1757.00,0.0013
1756.00,0.0013
1755.00,0.0014
1754.00,0.0014
1753.00,0.0015
1752.00,0.0015
1751.00,0.0016
1750.00,0.0015
1749.00,0.0015
1748.00,0.0016
1747.00,0.0016
1746.00,0.0017
1745.00,0.0017
1744.00,0.0017
1743.00,0.0017
1742.00,0.0017
1741.00,0.0018
1740.00,0.0018
1739.00,0.0018
1738.00,0.0018
1737.00,0.0018
1736.00,0.0018
1735.00,0.0019
1734.00,0.0019
1733.00,0.0020
1732.00,0.0020
1731.00,0.0020
1730.00,0.0020
1729.00,0.0020
1728.00,0.0020
1727.00,0.0020
1726.00,0.0020
1725.00,0.0021
1724.00,0.0021
1723.00,0.0021
1722.00,0.0021
1721.00,0.0021
1720.00,0.0021
1719.00,0.0021
1718.00,0.0021
1717.00,0.0021
1716.00,0.0021
1715.00,0.0021
1714.00,0.0021
1713.00,0.0021
1712.00,0.0022
1711.00,0.0023
1710.00,0.0024
1709.00,0.0025
1708.00,0.0026
1707.00,0.0026
1706.00,0.0027
1705.00,0.0027
1704.00,0.0028
1703.00,0.0029
1702.00,0.0029
1701.00,0.0030
1700.00,0.0032
1699.00,0.0033
1698.00,0.0034
1697.00,0.0035
1696.00,0.0036
1695.00,0.0038
1694.00,0.0041
1693.00,0.0043
1692.00,0.0044
1691.00,0.0046
1690.00,0.0048
1689.00,0.0050
1688.00,0.0052
1687.00,0.0054
1686.00,0.0055
1685.00,0.0058
1684.00,0.0062
1683.00,0.0065
1682.00,0.0068
1681.00,0.0069
1680.00,0.0070
1679.00,0.0072
1678.00,0.0073
1677.00,0.0075
1676.00,0.0077
1675.00,0.0078
1674.00,0.0079
1673.00,0.0080
1672.00,0.0081
1671.00,0.0082
1670.00,0.0082
1669.00,0.0082
1668.00,0.0083
1667.00,0.0083
1666.00,0.0083
1665.00,0.0083
1664.00,0.0083
1663.00,0.0083
1662.00,0.0083
1661.00,0.0083
1660.00,0.0083
1659.00,0.0083
1658.00,0.0082
1657.00,0.0082
1656.00,0.0081
1655.00,0.0081
1654.00,0.0078
1653.00,0.0077
1652.00,0.0077
1651.00,0.0078
1650.00,0.0078
1649.00,0.0078
1648.00,0.0078
1647.00,0.0078
1646.00,0.0077
1645.00,0.0076
1644.00,0.0075
1643.00,0.0073
1642.00,0.0071
1641.00,0.0070
1640.00,0.0068
1639.00,0.0067
1638.00,0.0065
1637.00,0.0064
1636.00,0.0062
1635.00,0.0061
1634.00,0.0061
1633.00,0.0061
1632.00,0.0061
1631.00,0.0061
1630.00,0.0060
1629.00,0.0059
1628.00,0.0058
1627.00,0.0058
1626.00,0.0056
1625.00,0.0056
1624.00,0.0055
1623.00,0.0054
1622.00,0.0053
1621.00,0.0053
1620.00,0.0053
1619.00,0.0052
1618.00,0.0052
1617.00,0.0051
1616.00,0.0051
1615.00,0.0051
1614.00,0.0051
1613.00,0.0050
1612.00,0.0050
1611.00,0.0050
1610.00,0.0050
1609.00,0.0050
1608.00,0.0049
1607.00,0.0049
1606.00,0.0048
1605.00,0.0048
1604.00,0.0048
1603.00,0.0048
1602.00,0.0047
1601.00,0.0047
1600.00,0.0048
1599.00,0.0048
1598.00,0.0047
1597.00,0.0047
1596.00,0.0047
1595.00,0.0047
1594.00,0.0046
1593.00,0.0047
1592.00,0.0047
1591.00,0.0048
1590.00,0.0048
1589.00,0.0048
1588.00,0.0048
1587.00,0.0049
1586.00,0.0049
1585.00,0.0050
1584.00,0.0051
1583.00,0.0052
1582.00,0.0053
1581.00,0.0055
1580.00,0.0057
1579.00,0.0058
1578.00,0.0058
1577.00,0.0058
1576.00,0.0058
1575.00,0.0057
1574.00,0.0057
1573.00,0.0056
1572.00,0.0056
1571.00,0.0054
1570.00,0.0053
1569.00,0.0052
1568.00,0.0051
1567.00,0.0051
1566.00,0.0050
1565.00,0.0050
1564.00,0.0050
1563.00,0.0050
1562.00,0.0050
1561.00,0.0051
1560.00,0.0051
1559.00,0.0051
1558.00,0.0051
1557.00,0.0052
1556.00,0.0052
1555.00,0.0053
1554.00,0.0053
1553.00,0.0054
1552.00,0.0055
1551.00,0.0056
1550.00,0.0056
1549.00,0.0056
1548.00,0.0057
1547.00,0.0058
1546.00,0.0060
1545.00,0.0062
1544.00,0.0063
1543.00,0.0064
1542.00,0.0064
1541.00,0.0065
1540.00,0.0063
1539.00,0.0062
1538.00,0.0060
1537.00,0.0060
1536.00,0.0059
1535.00,0.0058
1534.00,0.0056
1533.00,0.0054
1532.00,0.0053
1531.00,0.0052
1530.00,0.0051
1529.00,0.0051
1528.00,0.0051
1527.00,0.0051
1526.00,0.0050
1525.00,0.0049
1524.00,0.0050
1523.00,0.0050
1522.00,0.0050
1521.00,0.0050
1520.00,0.0051
1519.00,0.0051
1518.00,0.0051
1517.00,0.0052
1516.00,0.0053
1515.00,0.0053
1514.00,0.0054
1513.00,0.0055
1512.00,0.0057
1511.00,0.0058
1510.00,0.0058
1509.00,0.0059
1508.00,0.0060
1507.00,0.0060
1506.00,0.0060
1505.00,0.0062
1504.00,0.0065
1503.00,0.0067
1502.00,0.0069
1501.00,0.0072
1500.00,0.0075
1499.00,0.0077
1498.00,0.0079
1497.00,0.0082
1496.00,0.0086
1495.00,0.0089
1494.00,0.0091
1493.00,0.0095
1492.00,0.0099
1491.00,0.0102
1490.00,0.0105
1489.00,0.0109
1488.00,0.0114
1487.00,0.0119
1486.00,0.0124
1485.00,0.0131
1484.00,0.0138
1483.00,0.0146
1482.00,0.0154
1481.00,0.0165
1480.00,0.0177
1479.00,0.0189
1478.00,0.0203
1477.00,0.0222
1476.00,0.0244
1475.00,0.0270
1474.00,0.0305
1473.00,0.0358
1472.00,0.0423
1471.00,0.0487
1470.00,0.0551
1469.00,0.0617
1468.00,0.0689
1467.00,0.0768
1466.00,0.0859
1465.00,0.0958
1464.00,0.1046
1463.00,0.1110
1462.00,0.1153
1461.00,0.1185
1460.00,0.1210
1459.00,0.1229
1458.00,0.1246
1457.00,0.1262
1456.00,0.1268
1455.00,0.1265
1454.00,0.1259
1453.00,0.1246
1452.00,0.1224
1451.00,0.1188
1450.00,0.1135
1449.00,0.1058
1448.00,0.0960
1447.00,0.0855
1446.00,0.0761
1445.00,0.0681
1444.00,0.0614
1443.00,0.0560
1442.00,0.0520
1441.00,0.0493
1440.00,0.0478
1439.00,0.0472
1438.00,0.0473
1437.00,0.0474
1436.00,0.0462
1435.00,0.0434
1434.00,0.0394
1433.00,0.0347
1432.00,0.0299
1431.00,0.0256
1430.00,0.0224
1429.00,0.0201
1428.00,0.0185
1427.00,0.0176
1426.00,0.0171
1425.00,0.0165
1424.00,0.0160
1423.00,0.0156
1422.00,0.0153
1421.00,0.0150
1420.00,0.0146
1419.00,0.0142
1418.00,0.0139
1417.00,0.0135
1416.00,0.0131
1415.00,0.0129
1414.00,0.0128
1413.00,0.0126
1412.00,0.0124
1411.00,0.0122
1410.00,0.0121
1409.00,0.0120
1408.00,0.0119
1407.00,0.0119
1406.00,0.0119
1405.00,0.0118
1404.00,0.0116
1403.00,0.0116
1402.00,0.0118
1401.00,0.0119
1400.00,0.0120
1399.00,0.0122
1398.00,0.0125
1397.00,0.0126
1396.00,0.0128
1395.00,0.0132
1394.00,0.0137
1393.00,0.0142
1392.00,0.0148
1391.00,0.0157
1390.00,0.0170
1389.00,0.0188
1388.00,0.0215
1387.00,0.0255
1386.00,0.0308
1385.00,0.0374
1384.00,0.0461
1383.00,0.0579
1382.00,0.0735
1381.00,0.0933
1380.00,0.1178
1379.00,0.1456
1378.00,0.1724
1377.00,0.1922
1376.00,0.1991
1375.00,0.1897
1374.00,0.1664
1373.00,0.1379
1372.00,0.1114
1371.00,0.0894
1370.00,0.0717
1369.00,0.0582
1368.00,0.0488
1367.00,0.0430
1366.00,0.0398
1365.00,0.0386
1364.00,0.0389
1363.00,0.0404
1362.00,0.0426
1361.00,0.0450
1360.00,0.0468
1359.00,0.0473
1358.00,0.0462
1357.00,0.0434
1356.00,0.0394
1355.00,0.0349
1354.00,0.0305
1353.00,0.0268
1352.00,0.0238
1351.00,0.0214
1350.00,0.0195
1349.00,0.0179
1348.00,0.0167
1347.00,0.0157
1346.00,0.0149
1345.00,0.0143
1344.00,0.0138
1343.00,0.0134
1342.00,0.0130
1341.00,0.0127
1340.00,0.0124
1339.00,0.0122
1338.00,0.0121
1337.00,0.0120
1336.00,0.0122
1335.00,0.0124
1334.00,0.0128
1333.00,0.0133
1332.00,0.0138
1331.00,0.0142
1330.00,0.0144
1329.00,0.0144
1328.00,0.0141
1327.00,0.0135
1326.00,0.0129
1325.00,0.0122
1324.00,0.0115
1323.00,0.0109
1322.00,0.0105
1321.00,0.0102
1320.00,0.0100
1319.00,0.0098
1318.00,0.0096
1317.00,0.0094
1316.00,0.0092
1315.00,0.0091
1314.00,0.0090
1313.00,0.0090
1312.00,0.0091
1311.00,0.0094
1310.00,0.0099
1309.00,0.0106
1308.00,0.0117
1307.00,0.0130
1306.00,0.0142
1305.00,0.0150
1304.00,0.0153
1303.00,0.0151
1302.00,0.0147
1301.00,0.0142
1300.00,0.0140
1299.00,0.0140
1298.00,0.0142
1297.00,0.0144
1296.00,0.0145
1295.00,0.0143
1294.00,0.0140
1293.00,0.0135
1292.00,0.0130
1291.00,0.0124
1290.00,0.0119
1289.00,0.0114
1288.00,0.0109
1287.00,0.0106
1286.00,0.0103
1285.00,0.0100
1284.00,0.0098
1283.00,0.0096
1282.00,0.0094
1281.00,0.0092
1280.00,0.0090
1279.00,0.0088
1278.00,0.0087
1277.00,0.0086
1276.00,0.0086
1275.00,0.0086
1274.00,0.0086
1273.00,0.0085
1272.00,0.0085
1271.00,0.0085
1270.00,0.0085
1269.00,0.0086
1268.00,0.0086
1267.00,0.0087
1266.00,0.0088
1265.00,0.0090
1264.00,0.0092
1263.00,0.0095
1262.00,0.0098
1261.00,0.0103
1260.00,0.0109
1259.00,0.0117
1258.00,0.0125
1257.00,0.0132
1256.00,0.0135
1255.00,0.0133
1254.00,0.0127
1253.00,0.0118
1252.00,0.0109
1251.00,0.0101
1250.00,0.0096
1249.00,0.0092
1248.00,0.0089
1247.00,0.0087
1246.00,0.0086
1245.00,0.0085
1244.00,0.0084
1243.00,0.0084
1242.00,0.0083
1241.00,0.0083
1240.00,0.0083
1239.00,0.0082
1238.00,0.0082
1237.00,0.0081
1236.00,0.0081
1235.00,0.0080
1234.00,0.0080
1233.00,0.0080
1232.00,0.0079
1231.00,0.0080
1230.00,0.0080
1229.00,0.0081
1228.00,0.0082
1227.00,0.0083
1226.00,0.0085
1225.00,0.0087
1224.00,0.0090
1223.00,0.0093
1222.00,0.0097
1221.00,0.0100
1220.00,0.0102
1219.00,0.0104
1218.00,0.0103
1217.00,0.0102
1216.00,0.0099
1215.00,0.0096
1214.00,0.0093
1213.00,0.0089
1212.00,0.0086
1211.00,0.0083
1210.00,0.0081
1209.00,0.0079
1208.00,0.0077
1207.00,0.0076
1206.00,0.0075
1205.00,0.0075
1204.00,0.0075
1203.00,0.0074
1202.00,0.0073
1201.00,0.0072
1200.00,0.0071
1199.00,0.0071
1198.00,0.0072
1197.00,0.0072
1196.00,0.0072
1195.00,0.0072
1194.00,0.0072
1193.00,0.0072
1192.00,0.0073
1191.00,0.0073
1190.00,0.0073
1189.00,0.0073
1188.00,0.0073
1187.00,0.0074
1186.00,0.0074
1185.00,0.0075
1184.00,0.0076
1183.00,0.0077
1182.00,0.0079
1181.00,0.0081
1180.00,0.0085
1179.00,0.0090
1178.00,0.0098
1177.00,0.0107
1176.00,0.0120
1175.00,0.0137
1174.00,0.0159
1173.00,0.0186
1172.00,0.0219
1171.00,0.0255
1170.00,0.0289
1169.00,0.0317
1168.00,0.0334
1167.00,0.0338
1166.00,0.0330
1165.00,0.0315
1164.00,0.0295
1163.00,0.0275
1162.00,0.0256
1161.00,0.0239
1160.00,0.0226
1159.00,0.0216
1158.00,0.0209
1157.00,0.0204
1156.00,0.0201
1155.00,0.0198
1154.00,0.0196
1153.00,0.0193
1152.00,0.0188
1151.00,0.0181
1150.00,0.0172
1149.00,0.0162
1148.00,0.0152
1147.00,0.0143
1146.00,0.0134
1145.00,0.0127
1144.00,0.0120
1143.00,0.0114
1142.00,0.0108
1141.00,0.0103
1140.00,0.0098
1139.00,0.0094
1138.00,0.0091
1137.00,0.0088
1136.00,0.0086
1135.00,0.0083
1134.00,0.0081
1133.00,0.0080
1132.00,0.0079
1131.00,0.0079
1130.00,0.0079
1129.00,0.0079
1128.00,0.0079
1127.00,0.0080
1126.00,0.0081
1125.00,0.0082
1124.00,0.0083
1123.00,0.0083
1122.00,0.0084
1121.00,0.0084
1120.00,0.0085
1119.00,0.0087
1118.00,0.0088
1117.00,0.0089
1116.00,0.0090
1115.00,0.0091
1114.00,0.0093
1113.00,0.0095
1112.00,0.0098
1111.00,0.0100
1110.00,0.0104
1109.00,0.0108
1108.00,0.0113
1107.00,0.0120
1106.00,0.0127
1105.00,0.0134
1104.00,0.0140
1103.00,0.0143
1102.00,0.0144
1101.00,0.0141
1100.00,0.0136
1099.00,0.0129
1098.00,0.0122
1097.00,0.0115
1096.00,0.0109
1095.00,0.0104
1094.00,0.0100
1093.00,0.0096
1092.00,0.0094
1091.00,0.0092
1090.00,0.0091
1089.00,0.0089
1088.00,0.0087
1087.00,0.0085
1086.00,0.0083
1085.00,0.0082
1084.00,0.0081
1083.00,0.0081
1082.00,0.0080
1081.00,0.0079
1080.00,0.0078
1079.00,0.0077
1078.00,0.0075
1077.00,0.0074
1076.00,0.0073
1075.00,0.0073
1074.00,0.0072
1073.00,0.0072
1072.00,0.0073
1071.00,0.0073
1070.00,0.0073
1069.00,0.0073
1068.00,0.0073
1067.00,0.0073
1066.00,0.0074
1065.00,0.0074
1064.00,0.0074
1063.00,0.0075
1062.00,0.0076
1061.00,0.0076
1060.00,0.0077
1059.00,0.0077
1058.00,0.0078
1057.00,0.0078
1056.00,0.0078
1055.00,0.0078
1054.00,0.0079
1053.00,0.0080
1052.00,0.0082
1051.00,0.0084
1050.00,0.0086
1049.00,0.0089
1048.00,0.0092
1047.00,0.0096
1046.00,0.0099
1045.00,0.0101
1044.00,0.0101
1043.00,0.0100
1042.00,0.0099
1041.00,0.0097
1040.00,0.0096
1039.00,0.0095
1038.00,0.0094
1037.00,0.0094
1036.00,0.0093
1035.00,0.0092
1034.00,0.0090
1033.00,0.0089
1032.00,0.0088
1031.00,0.0087
1030.00,0.0087
1029.00,0.0086
1028.00,0.0086
1027.00,0.0086
1026.00,0.0087
1025.00,0.0088
1024.00,0.0089
1023.00,0.0090
1022.00,0.0091
1021.00,0.0092
1020.00,0.0092
1019.00,0.0092
1018.00,0.0093
1017.00,0.0094
1016.00,0.0096
1015.00,0.0098
1014.00,0.0102
1013.00,0.0106
1012.00,0.0110
1011.00,0.0114
1010.00,0.0118
1009.00,0.0122
1008.00,0.0128
1007.00,0.0135
1006.00,0.0145
1005.00,0.0158
1004.00,0.0176
1003.00,0.0201
1002.00,0.0232
1001.00,0.0269
1000.00,0.0309
999.00,0.0342
998.00,0.0359
997.00,0.0353
996.00,0.0325
995.00,0.0284
994.00,0.0240
993.00,0.0202
992.00,0.0172
991.00,0.0149
990.00,0.0134
989.00,0.0123
988.00,0.0116
987.00,0.0113
986.00,0.0113
985.00,0.0115
984.00,0.0119
983.00,0.0126
982.00,0.0136
981.00,0.0152
980.00,0.0175
979.00,0.0205
978.00,0.0243
977.00,0.0288
976.00,0.0336
975.00,0.0383
974.00,0.0418
973.00,0.0433
972.00,0.0420
971.00,0.0383
970.00,0.0330
969.00,0.0276
968.00,0.0228
967.00,0.0190
966.00,0.0163
965.00,0.0143
964.00,0.0128
963.00,0.0117
962.00,0.0109
961.00,0.0102
960.00,0.0097
959.00,0.0092
958.00,0.0088
957.00,0.0084
956.00,0.0082
955.00,0.0081
954.00,0.0080
953.00,0.0079
952.00,0.0078
951.00,0.0077
950.00,0.0076
949.00,0.0076
948.00,0.0076
947.00,0.0076
946.00,0.0078
945.00,0.0081
944.00,0.0084
943.00,0.0087
942.00,0.0090
941.00,0.0091
940.00,0.0091
939.00,0.0089
938.00,0.0086
937.00,0.0082
936.00,0.0077
935.00,0.0072
934.00,0.0067
933.00,0.0064
932.00,0.0063
931.00,0.0062
930.00,0.0062
929.00,0.0061
928.00,0.0061
927.00,0.0061
926.00,0.0060
925.00,0.0060
924.00,0.0061
923.00,0.0062
922.00,0.0063
921.00,0.0064
920.00,0.0065
919.00,0.0067
918.00,0.0068
917.00,0.0069
916.00,0.0070
915.00,0.0069
914.00,0.0069
913.00,0.0069
912.00,0.0070
911.00,0.0072
910.00,0.0075
909.00,0.0077
908.00,0.0081
907.00,0.0086
906.00,0.0093
905.00,0.0103
904.00,0.0118
903.00,0.0138
902.00,0.0159
901.00,0.0178
900.00,0.0192
899.00,0.0196
898.00,0.0189
897.00,0.0173
896.00,0.0152
895.00,0.0132
894.00,0.0114
893.00,0.0101
892.00,0.0092
891.00,0.0085
890.00,0.0080
889.00,0.0077
888.00,0.0075
887.00,0.0074
886.00,0.0073
885.00,0.0072
884.00,0.0072
883.00,0.0072
882.00,0.0073
881.00,0.0073
880.00,0.0074
879.00,0.0074
878.00,0.0074
877.00,0.0074
876.00,0.0074
875.00,0.0075
874.00,0.0075
873.00,0.0075
872.00,0.0074
871.00,0.0073
870.00,0.0071
869.00,0.0070
868.00,0.0069
867.00,0.0070
866.00,0.0072
865.00,0.0073
864.00,0.0075
863.00,0.0076
862.00,0.0078
861.00,0.0080
860.00,0.0083
859.00,0.0085
858.00,0.0086
857.00,0.0087
856.00,0.0088
855.00,0.0090
854.00,0.0093
853.00,0.0096
852.00,0.0099
851.00,0.0102
850.00,0.0107
849.00,0.0115
848.00,0.0126
847.00,0.0143
846.00,0.0168
845.00,0.0205
844.00,0.0254
843.00,0.0306
842.00,0.0345
841.00,0.0355
840.00,0.0331
839.00,0.0285
838.00,0.0235
837.00,0.0194
836.00,0.0166
835.00,0.0150
834.00,0.0141
833.00,0.0135
832.00,0.0129
831.00,0.0124
830.00,0.0120
829.00,0.0117
828.00,0.0116
827.00,0.0114
826.00,0.0113
825.00,0.0111
824.00,0.0109
823.00,0.0108
822.00,0.0108
821.00,0.0110
820.00,0.0113
819.00,0.0116
818.00,0.0120
817.00,0.0125
816.00,0.0131
815.00,0.0141
814.00,0.0154
813.00,0.0172
812.00,0.0191
811.00,0.0209
810.00,0.0223
809.00,0.0229
808.00,0.0225
807.00,0.0213
806.00,0.0196
805.00,0.0178
804.00,0.0161
803.00,0.0148
802.00,0.0137
801.00,0.0128
800.00,0.0122
799.00,0.0116
798.00,0.0111
797.00,0.0106
796.00,0.0102
795.00,0.0098
794.00,0.0095
793.00,0.0092
792.00,0.0089
791.00,0.0086
790.00,0.0084
789.00,0.0081
788.00,0.0079
787.00,0.0077
786.00,0.0075
785.00,0.0074
784.00,0.0072
783.00,0.0070
782.00,0.0069
781.00,0.0067
780.00,0.0066
779.00,0.0065
778.00,0.0064
777.00,0.0063
776.00,0.0063
775.00,0.0064
774.00,0.0066
773.00,0.0069
772.00,0.0072
771.00,0.0074
770.00,0.0077
769.00,0.0080
768.00,0.0082
767.00,0.0083
766.00,0.0081
765.00,0.0077
764.00,0.0072
763.00,0.0068
762.00,0.0065
761.00,0.0063
760.00,0.0062
759.00,0.0060
758.00,0.0058
757.00,0.0057
756.00,0.0055
755.00,0.0053
754.00,0.0052
753.00,0.0051
752.00,0.0051
751.00,0.0052
750.00,0.0053
749.00,0.0054
748.00,0.0054
747.00,0.0055
746.00,0.0055
745.00,0.0057
744.00,0.0058
743.00,0.0060
742.00,0.0061
741.00,0.0062
740.00,0.0062
739.00,0.0063
738.00,0.0063
737.00,0.0065
736.00,0.0066
735.00,0.0068
734.00,0.0068
733.00,0.0069
732.00,0.0069
731.00,0.0070
730.00,0.0071
729.00,0.0072
728.00,0.0072
727.00,0.0070
726.00,0.0069
725.00,0.0068
724.00,0.0068
723.00,0.0069
722.00,0.0069
721.00,0.0068
720.00,0.0066
719.00,0.0064
718.00,0.0062
717.00,0.0061
716.00,0.0059
715.00,0.0059
714.00,0.0060
713.00,0.0060
712.00,0.0060
711.00,0.0059
710.00,0.0058
709.00,0.0058
708.00,0.0059
707.00,0.0060
706.00,0.0061
705.00,0.0061
704.00,0.0060
703.00,0.0059
702.00,0.0058
701.00,0.0058
700.00,0.0059
699.00,0.0060
698.00,0.0060
697.00,0.0058
696.00,0.0057
695.00,0.0056
694.00,0.0055
693.00,0.0054
692.00,0.0055
691.00,0.0056
690.00,0.0057
689.00,0.0056
688.00,0.0055
687.00,0.0053
686.00,0.0053
685.00,0.0053
684.00,0.0053
683.00,0.0051
682.00,0.0049
681.00,0.0048
680.00,0.0049
679.00,0.0052
678.00,0.0056
677.00,0.0059
676.00,0.0059
675.00,0.0056
674.00,0.0054
673.00,0.0053
672.00,0.0054
671.00,0.0054
670.00,0.0053
669.00,0.0048
668.00,0.0043
667.00,0.0042
666.00,0.0047
665.00,0.0051
664.00,0.0054
663.00,0.0056
662.00,0.0057
661.00,0.0058
660.00,0.0057
659.00,0.0057
658.00,0.0057
657.00,0.0057
656.00,0.0056
655.00,0.0056
654.00,0.0057
653.00,0.0057
652.00,0.0057
651.00,0.0056
650.00,0.0055
649.00,0.0057
648.00,0.0061
647.00,0.0066
646.00,0.0070
645.00,0.0070
644.00,0.0068
643.00,0.0065
642.00,0.0063
641.00,0.0062
640.00,0.0062
639.00,0.0062
638.00,0.0062
637.00,0.0062
636.00,0.0062
635.00,0.0061
634.00,0.0061
633.00,0.0060
632.00,0.0058
631.00,0.0056
630.00,0.0054
629.00,0.0055
628.00,0.0056
627.00,0.0058
626.00,0.0059
625.00,0.0058
624.00,0.0057
623.00,0.0056
622.00,0.0055
621.00,0.0055
620.00,0.0055
619.00,0.0056
618.00,0.0057
617.00,0.0059
616.00,0.0059
615.00,0.0058
614.00,0.0057
613.00,0.0057
612.00,0.0058
611.00,0.0059
610.00,0.0060
609.00,0.0060
608.00,0.0061
607.00,0.0061
606.00,0.0061
605.00,0.0060
604.00,0.0058
603.00,0.0056
602.00,0.0057
601.00,0.0059
600.00,0.0062
599.00,0.0064
598.00,0.0064
597.00,0.0062
596.00,0.0059
595.00,0.0058
594.00,0.0057
593.00,0.0057
592.00,0.0057
591.00,0.0057
590.00,0.0057
589.00,0.0059
588.00,0.0061
587.00,0.0066
586.00,0.0071
585.00,0.0074
584.00,0.0074
583.00,0.0071
582.00,0.0068
581.00,0.0065
580.00,0.0062
579.00,0.0060
578.00,0.0060
577.00,0.0061
576.00,0.0061
575.00,0.0060
574.00,0.0060
573.00,0.0059
572.00,0.0058
571.00,0.0058
570.00,0.0059
569.00,0.0063
568.00,0.0068
567.00,0.0071
566.00,0.0072
565.00,0.0072
564.00,0.0072
563.00,0.0072
562.00,0.0071
561.00,0.0068
560.00,0.0064
559.00,0.0059
558.00,0.0056
557.00,0.0054
556.00,0.0055
555.00,0.0059
554.00,0.0063
553.00,0.0064
552.00,0.0062
551.00,0.0059
550.00,0.0058
549.00,0.0059
548.00,0.0062
547.00,0.0063
546.00,0.0063
545.00,0.0061
544.00,0.0060
543.00,0.0060
542.00,0.0063
541.00,0.0067
540.00,0.0071
539.00,0.0073
538.00,0.0072
537.00,0.0070
536.00,0.0068
535.00,0.0068
534.00,0.0070
533.00,0.0074
532.00,0.0078
531.00,0.0082
530.00,0.0084
529.00,0.0085
528.00,0.0086
527.00,0.0086
526.00,0.0083
525.00,0.0080
524.00,0.0078
523.00,0.0076
522.00,0.0072
521.00,0.0067
520.00,0.0066
519.00,0.0070
518.00,0.0076
517.00,0.0079
516.00,0.0077
515.00,0.0072
514.00,0.0065
513.00,0.0059
512.00,0.0054
511.00,0.0052
510.00,0.0055
509.00,0.0060
508.00,0.0065
507.00,0.0069
506.00,0.0071
505.00,0.0071
504.00,0.0067
503.00,0.0062
502.00,0.0059
501.00,0.0058
500.00,0.0061
499.00,0.0066
498.00,0.0072
497.00,0.0078
496.00,0.0080
495.00,0.0076
494.00,0.0070
493.00,0.0064
492.00,0.0064
491.00,0.0068
490.00,0.0072
489.00,0.0072
488.00,0.0068
487.00,0.0063
486.00,0.0058
485.00,0.0054
484.00,0.0051
483.00,0.0051
482.00,0.0058
481.00,0.0068
480.00,0.0077
479.00,0.0083
478.00,0.0085
477.00,0.0089
476.00,0.0094
475.00,0.0100
474.00,0.0103
473.00,0.0101
472.00,0.0092
471.00,0.0081
470.00,0.0072
469.00,0.0070
468.00,0.0079
467.00,0.0093
466.00,0.0104
465.00,0.0107
464.00,0.0109
463.00,0.0114
462.00,0.0123
461.00,0.0134
460.00,0.0145
459.00,0.0156
458.00,0.0166
457.00,0.0167
456.00,0.0159
455.00,0.0143
454.00,0.0123
453.00,0.0104
452.00,0.0091
451.00,0.0086
450.00,0.0087
