Created as New Dataset,Sample 102 By Administrator Date Tuesday, September 09 2025
cm-1,A
4000.00,0.0009
3999.00,0.0009
3998.00,0.0010
3997.00,0.0010
3996.00,0.0010
3995.00,0.0010
3994.00,0.0010
3993.00,0.0010
3992.00,0.0009
3991.00,0.0009
3990.00,0.0009
3989.00,0.0009
3988.00,0.0010
3987.00,0.0010
3986.00,0.0009
3985.00,0.0009
3984.00,0.0009
3983.00,0.0008
3982.00,0.0008
3981.00,0.0008
3980.00,0.0008
3979.00,0.0008
3978.00,0.0008
3977.00,0.0008
3976.00,0.0008
3975.00,0.0008
3974.00,0.0008
3973.00,0.0008
3972.00,0.0008
3971.00,0.0008
3970.00,0.0008
3969.00,0.0008
3968.00,0.0007
3967.00,0.0007
3966.00,0.0008
3965.00,0.0008
3964.00,0.0008
3963.00,0.0008
3962.00,0.0008
3961.00,0.0008
3960.00,0.0008
3959.00,0.0008
3958.00,0.0008
3957.00,0.0008
3956.00,0.0008
3955.00,0.0008
3954.00,0.0007
3953.00,0.0007
3952.00,0.0007
3951.00,0.0007
3950.00,0.0007
3949.00,0.0007
3948.00,0.0007
3947.00,0.0007
3946.00,0.0008
3945.00,0.0008
3944.00,0.0008
3943.00,0.0008
3942.00,0.0008
3941.00,0.0008
3940.00,0.0008
3939.00,0.0007
3938.00,0.0007
3937.00,0.0007
3936.00,0.0007
3935.00,0.0007
3934.00,0.0008
3933.00,0.0008
3932.00,0.0009
3931.00,0.0009
3930.00,0.0009
3929.00,0.0008
3928.00,0.0008
3927.00,0.0008
3926.00,0.0008
3925.00,0.0008
3924.00,0.0008
3923.00,0.0008
3922.00,0.0008
3921.00,0.0008
3920.00,0.0008
3919.00,0.0007
3918.00,0.0007
3917.00,0.0007
3916.00,0.0007
3915.00,0.0007
3914.00,0.0007
3913.00,0.0007
3912.00,0.0007
3911.00,0.0007
3910.00,0.0007
3909.00,0.0008
3908.00,0.0008
3907.00,0.0008
3906.00,0.0008
3905.00,0.0008
3904.00,0.0008
3903.00,0.0008
3902.00,0.0008
3901.00,0.0007
3900.00,0.0007
3899.00,0.0007
3898.00,0.0007
3897.00,0.0007
3896.00,0.0008
3895.00,0.0008
3894.00,0.0008
3893.00,0.0008
3892.00,0.0008
3891.00,0.0008
3890.00,0.0008
3889.00,0.0009
3888.00,0.0008
3887.00,0.0008
3886.00,0.0008
3885.00,0.0009
3884.00,0.0009
3883.00,0.0008
3882.00,0.0008
3881.00,0.0007
3880.00,0.0007
3879.00,0.0007
3878.00,0.0007
3877.00,0.0007
3876.00,0.0007
3875.00,0.0007
3874.00,0.0008
3873.00,0.0008
3872.00,0.0009
3871.00,0.0009
3870.00,0.0009
3869.00,0.0009
3868.00,0.0009
3867.00,0.0008
3866.00,0.0008
3865.00,0.0008
3864.00,0.0008
3863.00,0.0008
3862.00,0.0008
3861.00,0.0008
3860.00,0.0009
3859.00,0.0009
3858.00,0.0010
3857.00,0.0010
3856.00,0.0010
3855.00,0.0010
3854.00,0.0009
3853.00,0.0009
3852.00,0.0009
3851.00,0.0009
3850.00,0.0008
3849.00,0.0007
3848.00,0.0007
3847.00,0.0007
3846.00,0.0007
3845.00,0.0007
3844.00,0.0007
3843.00,0.0008
3842.00,0.0008
3841.00,0.0009
3840.00,0.0009
3839.00,0.0009
3838.00,0.0009
3837.00,0.0009
3836.00,0.0009
3835.00,0.0008
3834.00,0.0008
3833.00,0.0008
3832.00,0.0008
3831.00,0.0008
3830.00,0.0008
3829.00,0.0008
3828.00,0.0008
3827.00,0.0008
3826.00,0.0008
3825.00,0.0008
3824.00,0.0008
3823.00,0.0008
3822.00,0.0009
3821.00,0.0009
3820.00,0.0010
3819.00,0.0009
3818.00,0.0009
3817.00,0.0008
3816.00,0.0008
3815.00,0.0008
3814.00,0.0008
3813.00,0.0008
3812.00,0.0008
3811.00,0.0008
3810.00,0.0008
3809.00,0.0008
3808.00,0.0007
3807.00,0.0007
3806.00,0.0008
3805.00,0.0009
3804.00,0.0009
3803.00,0.0008
3802.00,0.0008
3801.00,0.0008
3800.00,0.0008
3799.00,0.0008
3798.00,0.0007
3797.00,0.0007
3796.00,0.0007
3795.00,0.0007
3794.00,0.0007
3793.00,0.0007
3792.00,0.0007
3791.00,0.0007
3790.00,0.0008
3789.00,0.0007
3788.00,0.0007
3787.00,0.0007
3786.00,0.0007
3785.00,0.0007
3784.00,0.0007
3783.00,0.0008
3782.00,0.0008
3781.00,0.0007
3780.00,0.0007
3779.00,0.0007
3778.00,0.0008
3777.00,0.0008
3776.00,0.0008
3775.00,0.0008
3774.00,0.0008
3773.00,0.0008
3772.00,0.0008
3771.00,0.0008
3770.00,0.0008
3769.00,0.0009
3768.00,0.0009
3767.00,0.0009
3766.00,0.0008
3765.00,0.0008
3764.00,0.0008
3763.00,0.0008
3762.00,0.0008
3761.00,0.0008
3760.00,0.0008
3759.00,0.0008
3758.00,0.0008
3757.00,0.0008
3756.00,0.0009
3755.00,0.0009
3754.00,0.0010
3753.00,0.0010
3752.00,0.0010
3751.00,0.0010
3750.00,0.0010
3749.00,0.0010
3748.00,0.0009
3747.00,0.0009
3746.00,0.0008
3745.00,0.0008
3744.00,0.0008
3743.00,0.0008
3742.00,0.0007
3741.00,0.0007
3740.00,0.0007
3739.00,0.0007
3738.00,0.0007
3737.00,0.0007
3736.00,0.0007
3735.00,0.0007
3734.00,0.0007
3733.00,0.0006
3732.00,0.0006
3731.00,0.0006
3730.00,0.0007
3729.00,0.0007
3728.00,0.0007
3727.00,0.0007
3726.00,0.0007
3725.00,0.0007
3724.00,0.0007
3723.00,0.0007
3722.00,0.0007
3721.00,0.0006
3720.00,0.0006
3719.00,0.0006
3718.00,0.0006
3717.00,0.0006
3716.00,0.0006
3715.00,0.0006
3714.00,0.0006
3713.00,0.0006
3712.00,0.0006
3711.00,0.0006
3710.00,0.0006
3709.00,0.0006
3708.00,0.0005
3707.00,0.0005
3706.00,0.0005
3705.00,0.0005
3704.00,0.0005
3703.00,0.0005
3702.00,0.0005
3701.00,0.0005
3700.00,0.0005
3699.00,0.0005
3698.00,0.0005
3697.00,0.0005
3696.00,0.0005
3695.00,0.0006
3694.00,0.0006
3693.00,0.0007
3692.00,0.0008
3691.00,0.0008
3690.00,0.0008
3689.00,0.0008
3688.00,0.0008
3687.00,0.0007
3686.00,0.0007
3685.00,0.0007
3684.00,0.0007
3683.00,0.0007
3682.00,0.0007
3681.00,0.0007
3680.00,0.0008
3679.00,0.0009
3678.00,0.0010
3677.00,0.0010
3676.00,0.0010
3675.00,0.0010
3674.00,0.0011
3673.00,0.0011
3672.00,0.0010
3671.00,0.0010
3670.00,0.0009
3669.00,0.0009
3668.00,0.0009
3667.00,0.0009
3666.00,0.0009
3665.00,0.0009
3664.00,0.0009
3663.00,0.0009
3662.00,0.0009
3661.00,0.0009
3660.00,0.0010
3659.00,0.0010
3658.00,0.0011
3657.00,0.0011
3656.00,0.0011
3655.00,0.0012
3654.00,0.0011
3653.00,0.0011
3652.00,0.0011
3651.00,0.0010
3650.00,0.0010
3649.00,0.0010
3648.00,0.0009
3647.00,0.0009
3646.00,0.0009
3645.00,0.0009
3644.00,0.0009
3643.00,0.0009
3642.00,0.0009
3641.00,0.0009
3640.00,0.0009
3639.00,0.0008
3638.00,0.0008
3637.00,0.0008
3636.00,0.0008
3635.00,0.0008
3634.00,0.0008
3633.00,0.0008
3632.00,0.0007
3631.00,0.0007
3630.00,0.0006
3629.00,0.0006
3628.00,0.0006
3627.00,0.0006
3626.00,0.0006
3625.00,0.0006
3624.00,0.0006
3623.00,0.0006
3622.00,0.0007
3621.00,0.0006
3620.00,0.0006
3619.00,0.0006
3618.00,0.0006
3617.00,0.0006
3616.00,0.0006
3615.00,0.0006
3614.00,0.0006
3613.00,0.0006
3612.00,0.0006
3611.00,0.0006
3610.00,0.0006
3609.00,0.0005
3608.00,0.0005
3607.00,0.0004
3606.00,0.0004
3605.00,0.0004
3604.00,0.0004
3603.00,0.0004
3602.00,0.0004
3601.00,0.0004
3600.00,0.0004
3599.00,0.0004
3598.00,0.0004
3597.00,0.0005
3596.00,0.0005
3595.00,0.0005
3594.00,0.0006
3593.00,0.0006
3592.00,0.0006
3591.00,0.0006
3590.00,0.0006
3589.00,0.0006
3588.00,0.0006
3587.00,0.0006
3586.00,0.0006
3585.00,0.0006
3584.00,0.0007
3583.00,0.0007
3582.00,0.0007
3581.00,0.0007
3580.00,0.0006
3579.00,0.0006
3578.00,0.0006
3577.00,0.0006
3576.00,0.0007
3575.00,0.0007
3574.00,0.0008
3573.00,0.0008
3572.00,0.0008
3571.00,0.0008
3570.00,0.0008
3569.00,0.0008
3568.00,0.0008
3567.00,0.0008
3566.00,0.0008
3565.00,0.0008
3564.00,0.0008
3563.00,0.0008
3562.00,0.0008
3561.00,0.0008
3560.00,0.0008
3559.00,0.0008
3558.00,0.0008
3557.00,0.0009
3556.00,0.0009
3555.00,0.0010
3554.00,0.0010
3553.00,0.0010
3552.00,0.0010
3551.00,0.0010
3550.00,0.0010
3549.00,0.0010
3548.00,0.0010
3547.00,0.0010
3546.00,0.0009
3545.00,0.0009
3544.00,0.0009
3543.00,0.0009
3542.00,0.0009
3541.00,0.0010
3540.00,0.0010
3539.00,0.0010
3538.00,0.0011
3537.00,0.0011
3536.00,0.0011
3535.00,0.0011
3534.00,0.0011
3533.00,0.0012
3532.00,0.0012
3531.00,0.0012
3530.00,0.0012
3529.00,0.0012
3528.00,0.0013
3527.00,0.0013
3526.00,0.0013
3525.00,0.0014
3524.00,0.0014
3523.00,0.0014
3522.00,0.0013
3521.00,0.0013
3520.00,0.0013
3519.00,0.0013
3518.00,0.0013
3517.00,0.0013
3516.00,0.0013
3515.00,0.0013
3514.00,0.0014
3513.00,0.0014
3512.00,0.0015
3511.00,0.0015
3510.00,0.0015
3509.00,0.0014
3508.00,0.0014
3507.00,0.0014
3506.00,0.0014
3505.00,0.0014
3504.00,0.0014
3503.00,0.0014
3502.00,0.0014
3501.00,0.0014
3500.00,0.0014
3499.00,0.0015
3498.00,0.0015
3497.00,0.0015
3496.00,0.0016
3495.00,0.0016
3494.00,0.0016
3493.00,0.0016
3492.00,0.0016
3491.00,0.0016
3490.00,0.0016
3489.00,0.0016
3488.00,0.0016
3487.00,0.0017
3486.00,0.0017
3485.00,0.0017
3484.00,0.0017
3483.00,0.0018
3482.00,0.0018
3481.00,0.0018
3480.00,0.0018
3479.00,0.0018
3478.00,0.0017
3477.00,0.0017
3476.00,0.0017
3475.00,0.0017
3474.00,0.0018
3473.00,0.0018
3472.00,0.0018
3471.00,0.0019
3470.00,0.0019
3469.00,0.0019
3468.00,0.0019
3467.00,0.0019
3466.00,0.0019
3465.00,0.0019
3464.00,0.0020
3463.00,0.0020
3462.00,0.0020
3461.00,0.0021
3460.00,0.0021
3459.00,0.0021
3458.00,0.0021
3457.00,0.0021
3456.00,0.0021
3455.00,0.0020
3454.00,0.0020
3453.00,0.0021
3452.00,0.0021
3451.00,0.0021
3450.00,0.0022
3449.00,0.0022
3448.00,0.0022
3447.00,0.0022
3446.00,0.0022
3445.00,0.0022
3444.00,0.0022
3443.00,0.0022
3442.00,0.0022
3441.00,0.0022
3440.00,0.0022
3439.00,0.0022
3438.00,0.0023
3437.00,0.0023
3436.00,0.0023
3435.00,0.0024
3434.00,0.0024
3433.00,0.0024
3432.00,0.0024
3431.00,0.0024
3430.00,0.0024
3429.00,0.0024
3428.00,0.0024
3427.00,0.0024
3426.00,0.0024
3425.00,0.0024
3424.00,0.0024
3423.00,0.0024
3422.00,0.0024
3421.00,0.0024
3420.00,0.0024
3419.00,0.0024
3418.00,0.0025
3417.00,0.0025
3416.00,0.0025
3415.00,0.0026
3414.00,0.0026
3413.00,0.0026
3412.00,0.0026
3411.00,0.0026
3410.00,0.0026
3409.00,0.0026
3408.00,0.0027
3407.00,0.0027
3406.00,0.0027
3405.00,0.0026
3404.00,0.0026
3403.00,0.0026
3402.00,0.0026
3401.00,0.0026
3400.00,0.0026
3399.00,0.0026
3398.00,0.0026
3397.00,0.0026
3396.00,0.0026
3395.00,0.0026
3394.00,0.0026
3393.00,0.0026
3392.00,0.0026
3391.00,0.0026
3390.00,0.0026
3389.00,0.0026
3388.00,0.0026
3387.00,0.0026
3386.00,0.0026
3385.00,0.0026
3384.00,0.0026
3383.00,0.0027
3382.00,0.0027
3381.00,0.0027
3380.00,0.0027
3379.00,0.0027
3378.00,0.0027
3377.00,0.0026
3376.00,0.0026
3375.00,0.0026
3374.00,0.0026
3373.00,0.0026
3372.00,0.0027
3371.00,0.0027
3370.00,0.0027
3369.00,0.0027
3368.00,0.0027
3367.00,0.0027
3366.00,0.0027
3365.00,0.0027
3364.00,0.0028
3363.00,0.0028
3362.00,0.0028
3361.00,0.0028
3360.00,0.0029
3359.00,0.0029
3358.00,0.0028
3357.00,0.0028
3356.00,0.0028
3355.00,0.0028
3354.00,0.0028
3353.00,0.0028
3352.00,0.0028
3351.00,0.0028
3350.00,0.0028
3349.00,0.0028
3348.00,0.0028
3347.00,0.0028
3346.00,0.0028
3345.00,0.0027
3344.00,0.0027
3343.00,0.0027
3342.00,0.0028
3341.00,0.0028
3340.00,0.0028
3339.00,0.0027
3338.00,0.0027
3337.00,0.0027
3336.00,0.0027
3335.00,0.0027
3334.00,0.0027
3333.00,0.0027
3332.00,0.0028
3331.00,0.0028
3330.00,0.0028
3329.00,0.0027
3328.00,0.0027
3327.00,0.0026
3326.00,0.0026
3325.00,0.0027
3324.00,0.0027
3323.00,0.0027
3322.00,0.0027
3321.00,0.0027
3320.00,0.0027
3319.00,0.0027
3318.00,0.0027
3317.00,0.0026
3316.00,0.0026
3315.00,0.0026
3314.00,0.0026
3313.00,0.0026
3312.00,0.0026
3311.00,0.0026
3310.00,0.0026
3309.00,0.0026
3308.00,0.0026
3307.00,0.0026
3306.00,0.0026
3305.00,0.0026
3304.00,0.0026
3303.00,0.0026
3302.00,0.0026
3301.00,0.0026
3300.00,0.0026
3299.00,0.0026
3298.00,0.0026
3297.00,0.0026
3296.00,0.0026
3295.00,0.0026
3294.00,0.0026
3293.00,0.0026
3292.00,0.0026
3291.00,0.0026
3290.00,0.0026
3289.00,0.0027
3288.00,0.0027
3287.00,0.0027
3286.00,0.0027
3285.00,0.0026
3284.00,0.0026
3283.00,0.0026
3282.00,0.0026
3281.00,0.0026
3280.00,0.0026
3279.00,0.0026
3278.00,0.0026
3277.00,0.0025
3276.00,0.0025
3275.00,0.0025
3274.00,0.0025
3273.00,0.0025
3272.00,0.0025
3271.00,0.0025
3270.00,0.0025
3269.00,0.0025
3268.00,0.0025
3267.00,0.0025
3266.00,0.0024
3265.00,0.0024
3264.00,0.0025
3263.00,0.0025
3262.00,0.0025
3261.00,0.0025
3260.00,0.0025
3259.00,0.0025
3258.00,0.0025
3257.00,0.0025
3256.00,0.0025
3255.00,0.0024
3254.00,0.0024
3253.00,0.0025
3252.00,0.0025
3251.00,0.0025
3250.00,0.0024
3249.00,0.0024
3248.00,0.0024
3247.00,0.0024
3246.00,0.0024
3245.00,0.0024
3244.00,0.0025
3243.00,0.0025
3242.00,0.0025
3241.00,0.0025
3240.00,0.0025
3239.00,0.0025
3238.00,0.0025
3237.00,0.0025
3236.00,0.0025
3235.00,0.0025
3234.00,0.0025
3233.00,0.0025
3232.00,0.0025
3231.00,0.0026
3230.00,0.0026
3229.00,0.0026
3228.00,0.0026
3227.00,0.0026
3226.00,0.0026
3225.00,0.0026
3224.00,0.0027
3223.00,0.0027
3222.00,0.0027
3221.00,0.0028
3220.00,0.0028
3219.00,0.0027
3218.00,0.0027
3217.00,0.0028
3216.00,0.0028
3215.00,0.0028
3214.00,0.0029
3213.00,0.0029
3212.00,0.0030
3211.00,0.0030
3210.00,0.0030
3209.00,0.0030
3208.00,0.0031
3207.00,0.0031
3206.00,0.0031
3205.00,0.0032
3204.00,0.0032
3203.00,0.0032
3202.00,0.0032
3201.00,0.0032
3200.00,0.0032
3199.00,0.0032
3198.00,0.0032
3197.00,0.0032
3196.00,0.0032
3195.00,0.0032
3194.00,0.0032
3193.00,0.0032
3192.00,0.0032
3191.00,0.0032
3190.00,0.0032
3189.00,0.0031
3188.00,0.0031
3187.00,0.0031
3186.00,0.0031
3185.00,0.0030
3184.00,0.0030
3183.00,0.0030
3182.00,0.0030
3181.00,0.0030
3180.00,0.0030
3179.00,0.0030
3178.00,0.0030
3177.00,0.0029
3176.00,0.0029
3175.00,0.0029
3174.00,0.0029
3173.00,0.0029
3172.00,0.0029
3171.00,0.0029
3170.00,0.0029
3169.00,0.0029
3168.00,0.0029
3167.00,0.0029
3166.00,0.0028
3165.00,0.0028
3164.00,0.0028
3163.00,0.0028
3162.00,0.0028
3161.00,0.0028
3160.00,0.0028
3159.00,0.0028
3158.00,0.0029
3157.00,0.0029
3156.00,0.0028
3155.00,0.0028
3154.00,0.0028
3153.00,0.0028
3152.00,0.0028
3151.00,0.0028
3150.00,0.0028
3149.00,0.0028
3148.00,0.0028
3147.00,0.0028
3146.00,0.0028
3145.00,0.0028
3144.00,0.0028
3143.00,0.0029
3142.00,0.0029
3141.00,0.0029
3140.00,0.0029
3139.00,0.0029
3138.00,0.0028
3137.00,0.0028
3136.00,0.0028
3135.00,0.0028
3134.00,0.0027
3133.00,0.0027
3132.00,0.0027
3131.00,0.0026
3130.00,0.0026
3129.00,0.0026
3128.00,0.0026
3127.00,0.0025
3126.00,0.0025
3125.00,0.0025
3124.00,0.0025
3123.00,0.0025
3122.00,0.0025
3121.00,0.0025
3120.00,0.0024
3119.00,0.0024
3118.00,0.0024
3117.00,0.0024
3116.00,0.0024
3115.00,0.0024
3114.00,0.0024
3113.00,0.0024
3112.00,0.0024
3111.00,0.0024
3110.00,0.0024
3109.00,0.0024
3108.00,0.0023
3107.00,0.0023
3106.00,0.0022
3105.00,0.0022
3104.00,0.0022
3103.00,0.0022
3102.00,0.0022
3101.00,0.0023
3100.00,0.0023
3099.00,0.0023
3098.00,0.0023
3097.00,0.0023
3096.00,0.0023
3095.00,0.0023
3094.00,0.0023
3093.00,0.0023
3092.00,0.0022
3091.00,0.0022
3090.00,0.0022
3089.00,0.0023
3088.00,0.0023
3087.00,0.0022
3086.00,0.0022
3085.00,0.0022
3084.00,0.0022
3083.00,0.0022
3082.00,0.0022
3081.00,0.0022
3080.00,0.0022
3079.00,0.0022
3078.00,0.0023
3077.00,0.0023
3076.00,0.0024
3075.00,0.0024
3074.00,0.0024
3073.00,0.0024
3072.00,0.0024
3071.00,0.0024
3070.00,0.0023
3069.00,0.0023
3068.00,0.0023
3067.00,0.0023
3066.00,0.0023
3065.00,0.0024
3064.00,0.0024
3063.00,0.0024
3062.00,0.0025
3061.00,0.0025
3060.00,0.0025
3059.00,0.0025
3058.00,0.0025
3057.00,0.0025
3056.00,0.0025
3055.00,0.0025
3054.00,0.0025
3053.00,0.0026
3052.00,0.0026
3051.00,0.0027
3050.00,0.0027
3049.00,0.0028
3048.00,0.0028
3047.00,0.0028
3046.00,0.0028
3045.00,0.0028
3044.00,0.0028
3043.00,0.0028
3042.00,0.0027
3041.00,0.0027
3040.00,0.0027
3039.00,0.0027
3038.00,0.0028
3037.00,0.0028
3036.00,0.0029
3035.00,0.0030
3034.00,0.0030
3033.00,0.0031
3032.00,0.0032
3031.00,0.0033
3030.00,0.0033
3029.00,0.0034
3028.00,0.0034
3027.00,0.0035
3026.00,0.0035
3025.00,0.0035
3024.00,0.0036
3023.00,0.0037
3022.00,0.0038
3021.00,0.0039
3020.00,0.0040
3019.00,0.0042
3018.00,0.0043
3017.00,0.0044
3016.00,0.0046
3015.00,0.0048
3014.00,0.0049
3013.00,0.0051
3012.00,0.0054
3011.00,0.0056
3010.00,0.0059
3009.00,0.0062
3008.00,0.0065
3007.00,0.0068
3006.00,0.0071
3005.00,0.0075
3004.00,0.0079
3003.00,0.0083
3002.00,0.0088
3001.00,0.0092
3000.00,0.0096
2999.00,0.0100
2998.00,0.0104
2997.00,0.0109
2996.00,0.0114
2995.00,0.0120
2994.00,0.0125
2993.00,0.0132
2992.00,0.0139
2991.00,0.0146
2990.00,0.0154
2989.00,0.0163
2988.00,0.0173
2987.00,0.0184
2986.00,0.0198
2985.00,0.0215
2984.00,0.0233
2983.00,0.0254
2982.00,0.0274
2981.00,0.0295
2980.00,0.0316
2979.00,0.0339
2978.00,0.0365
2977.00,0.0396
2976.00,0.0432
2975.00,0.0475
2974.00,0.0524
2973.00,0.0581
2972.00,0.0645
2971.00,0.0715
2970.00,0.0794
2969.00,0.0881
2968.00,0.0978
2967.00,0.1084
2966.00,0.1198
2965.00,0.1319
2964.00,0.1444
2963.00,0.1567
2962.00,0.1684
2961.00,0.1786
2960.00,0.1870
2959.00,0.1933
2958.00,0.1977
2957.00,0.2006
2956.00,0.2027
2955.00,0.2046
2954.00,0.2067
2953.00,0.2090
2952.00,0.2109
2951.00,0.2116
2950.00,0.2101
2949.00,0.2056
2948.00,0.1977
2947.00,0.1867
2946.00,0.1734
2945.00,0.1591
2944.00,0.1451
2943.00,0.1327
2942.00,0.1226
2941.00,0.1151
2940.00,0.1102
2939.00,0.1078
2938.00,0.1075
2937.00,0.1091
2936.00,0.1124
2935.00,0.1173
2934.00,0.1235
2933.00,0.1310
2932.00,0.1394
2931.00,0.1486
2930.00,0.1583
2929.00,0.1680
2928.00,0.1776
2927.00,0.1866
2926.00,0.1951
2925.00,0.2030
2924.00,0.2105
2923.00,0.2178
2922.00,0.2248
2921.00,0.2316
2920.00,0.2375
2919.00,0.2421
2918.00,0.2447
2917.00,0.2449
2916.00,0.2426
2915.00,0.2381
2914.00,0.2320
2913.00,0.2251
2912.00,0.2181
2911.00,0.2114
2910.00,0.2054
2909.00,0.1998
2908.00,0.1945
2907.00,0.1892
2906.00,0.1836
2905.00,0.1776
2904.00,0.1711
2903.00,0.1643
2902.00,0.1572
2901.00,0.1501
2900.00,0.1431
2899.00,0.1364
2898.00,0.1302
2897.00,0.1246
2896.00,0.1196
2895.00,0.1154
2894.00,0.1120
2893.00,0.1093
2892.00,0.1073
2891.00,0.1059
2890.00,0.1052
2889.00,0.1049
2888.00,0.1051
2887.00,0.1056
2886.00,0.1065
2885.00,0.1078
2884.00,0.1095
2883.00,0.1115
2882.00,0.1138
2881.00,0.1162
2880.00,0.1185
2879.00,0.1203
2878.00,0.1213
2877.00,0.1214
2876.00,0.1208
2875.00,0.1198
2874.00,0.1189
2873.00,0.1185
2872.00,0.1189
2871.00,0.1200
2870.00,0.1217
2869.00,0.1234
2868.00,0.1244
2867.00,0.1238
2866.00,0.1210
2865.00,0.1156
2864.00,0.1080
2863.00,0.0989
2862.00,0.0894
2861.00,0.0805
2860.00,0.0727
2859.00,0.0665
2858.00,0.0617
2857.00,0.0582
2856.00,0.0559
2855.00,0.0546
2854.00,0.0540
2853.00,0.0543
2852.00,0.0553
2851.00,0.0570
2850.00,0.0596
2849.00,0.0630
2848.00,0.0673
2847.00,0.0725
2846.00,0.0787
2845.00,0.0858
2844.00,0.0938
2843.00,0.1024
2842.00,0.1111
2841.00,0.1194
2840.00,0.1263
2839.00,0.1308
2838.00,0.1321
2837.00,0.1295
2836.00,0.1231
2835.00,0.1135
2834.00,0.1020
2833.00,0.0899
2832.00,0.0784
2831.00,0.0682
2830.00,0.0595
2829.00,0.0525
2828.00,0.0468
2827.00,0.0422
2826.00,0.0385
2825.00,0.0354
2824.00,0.0328
2823.00,0.0306
2822.00,0.0287
2821.00,0.0270
2820.00,0.0256
2819.00,0.0244
2818.00,0.0234
2817.00,0.0224
2816.00,0.0216
2815.00,0.0209
2814.00,0.0202
2813.00,0.0197
2812.00,0.0191
2811.00,0.0186
2810.00,0.0181
2809.00,0.0176
2808.00,0.0170
2807.00,0.0164
2806.00,0.0157
2805.00,0.0150
2804.00,0.0143
2803.00,0.0137
2802.00,0.0131
2801.00,0.0127
2800.00,0.0123
2799.00,0.0120
2798.00,0.0118
2797.00,0.0116
2796.00,0.0114
2795.00,0.0111
2794.00,0.0108
2793.00,0.0105
2792.00,0.0102
2791.00,0.0098
2790.00,0.0094
2789.00,0.0090
2788.00,0.0086
2787.00,0.0083
2786.00,0.0079
2785.00,0.0077
2784.00,0.0074
2783.00,0.0072
2782.00,0.0070
2781.00,0.0068
2780.00,0.0066
2779.00,0.0064
2778.00,0.0063
2777.00,0.0061
2776.00,0.0060
2775.00,0.0059
2774.00,0.0058
2773.00,0.0058
2772.00,0.0057
2771.00,0.0057
2770.00,0.0056
2769.00,0.0056
2768.00,0.0055
2767.00,0.0055
2766.00,0.0054
2765.00,0.0054
2764.00,0.0054
2763.00,0.0054
2762.00,0.0053
2761.00,0.0053
2760.00,0.0052
2759.00,0.0051
2758.00,0.0051
2757.00,0.0051
2756.00,0.0051
2755.00,0.0050
2754.00,0.0050
2753.00,0.0050
2752.00,0.0050
2751.00,0.0050
2750.00,0.0051
2749.00,0.0051
2748.00,0.0051
2747.00,0.0051
2746.00,0.0052
2745.00,0.0052
2744.00,0.0053
2743.00,0.0054
2742.00,0.0055
2741.00,0.0056
2740.00,0.0058
2739.00,0.0059
2738.00,0.0060
2737.00,0.0062
2736.00,0.0063
2735.00,0.0065
2734.00,0.0067
2733.00,0.0069
2732.00,0.0071
2731.00,0.0072
2730.00,0.0074
2729.00,0.0077
2728.00,0.0079
2727.00,0.0082
2726.00,0.0085
2725.00,0.0087
2724.00,0.0089
2723.00,0.0090
2722.00,0.0089
2721.00,0.0087
2720.00,0.0084
2719.00,0.0080
2718.00,0.0076
2717.00,0.0073
2716.00,0.0070
2715.00,0.0067
2714.00,0.0065
2713.00,0.0063
2712.00,0.0061
2711.00,0.0059
2710.00,0.0058
2709.00,0.0056
2708.00,0.0055
2707.00,0.0054
2706.00,0.0052
2705.00,0.0051
2704.00,0.0050
2703.00,0.0049
2702.00,0.0048
2701.00,0.0047
2700.00,0.0047
2699.00,0.0046
2698.00,0.0046
2697.00,0.0045
2696.00,0.0045
2695.00,0.0045
2694.00,0.0045
2693.00,0.0045
2692.00,0.0045
2691.00,0.0045
2690.00,0.0045
2689.00,0.0045
2688.00,0.0045
2687.00,0.0045
2686.00,0.0045
2685.00,0.0045
2684.00,0.0045
2683.00,0.0045
2682.00,0.0045
2681.00,0.0045
2680.00,0.0045
2679.00,0.0046
2678.00,0.0046
2677.00,0.0046
2676.00,0.0046
2675.00,0.0045
2674.00,0.0045
2673.00,0.0045
2672.00,0.0045
2671.00,0.0045
2670.00,0.0045
2669.00,0.0044
2668.00,0.0044
2667.00,0.0044
2666.00,0.0045
2665.00,0.0045
2664.00,0.0046
2663.00,0.0046
2662.00,0.0046
2661.00,0.0047
2660.00,0.0047
2659.00,0.0048
2658.00,0.0048
2657.00,0.0047
2656.00,0.0047
2655.00,0.0047
2654.00,0.0046
2653.00,0.0045
2652.00,0.0045
2651.00,0.0044
2650.00,0.0044
2649.00,0.0043
2648.00,0.0043
2647.00,0.0043
2646.00,0.0043
2645.00,0.0043
2644.00,0.0042
2643.00,0.0041
2642.00,0.0041
2641.00,0.0040
2640.00,0.0039
2639.00,0.0039
2638.00,0.0038
2637.00,0.0038
2636.00,0.0038
2635.00,0.0038
2634.00,0.0038
2633.00,0.0038
2632.00,0.0038
2631.00,0.0038
2630.00,0.0038
2629.00,0.0038
2628.00,0.0038
2627.00,0.0039
2626.00,0.0039
2625.00,0.0040
2624.00,0.0040
2623.00,0.0041
2622.00,0.0041
2621.00,0.0041
2620.00,0.0041
2619.00,0.0040
2618.00,0.0040
2617.00,0.0040
2616.00,0.0040
2615.00,0.0040
2614.00,0.0040
2613.00,0.0039
2612.00,0.0038
2611.00,0.0038
2610.00,0.0037
2609.00,0.0037
2608.00,0.0036
2607.00,0.0036
2606.00,0.0035
2605.00,0.0034
2604.00,0.0033
2603.00,0.0032
2602.00,0.0032
2601.00,0.0032
2600.00,0.0032
2599.00,0.0032
2598.00,0.0031
2597.00,0.0031
2596.00,0.0031
2595.00,0.0031
2594.00,0.0032
2593.00,0.0032
2592.00,0.0032
2591.00,0.0032
2590.00,0.0032
2589.00,0.0033
2588.00,0.0034
2587.00,0.0035
2586.00,0.0036
2585.00,0.0037
2584.00,0.0037
2583.00,0.0038
2582.00,0.0038
2581.00,0.0037
2580.00,0.0037
2579.00,0.0037
2578.00,0.0037
2577.00,0.0037
2576.00,0.0036
2575.00,0.0035
2574.00,0.0033
2573.00,0.0031
2572.00,0.0030
2571.00,0.0029
2570.00,0.0028
2569.00,0.0027
2568.00,0.0026
2567.00,0.0025
2566.00,0.0025
2565.00,0.0025
2564.00,0.0025
2563.00,0.0025
2562.00,0.0024
2561.00,0.0023
2560.00,0.0022
2559.00,0.0021
2558.00,0.0021
2557.00,0.0021
2556.00,0.0021
2555.00,0.0021
2554.00,0.0021
2553.00,0.0021
2552.00,0.0020
2551.00,0.0020
2550.00,0.0019
2549.00,0.0019
2548.00,0.0019
2547.00,0.0019
2546.00,0.0019
2545.00,0.0019
2544.00,0.0018
2543.00,0.0017
2542.00,0.0016
2541.00,0.0015
2540.00,0.0015
2539.00,0.0016
2538.00,0.0016
2537.00,0.0017
2536.00,0.0017
2535.00,0.0016
2534.00,0.0016
2533.00,0.0015
2532.00,0.0014
2531.00,0.0013
2530.00,0.0013
2529.00,0.0013
2528.00,0.0013
2527.00,0.0013
2526.00,0.0013
2525.00,0.0012
2524.00,0.0012
2523.00,0.0012
2522.00,0.0012
2521.00,0.0012
2520.00,0.0012
2519.00,0.0012
2518.00,0.0012
2517.00,0.0012
2516.00,0.0011
2515.00,0.0011
2514.00,0.0010
2513.00,0.0010
2512.00,0.0010
2511.00,0.0010
2510.00,0.0010
2509.00,0.0010
2508.00,0.0010
2507.00,0.0010
2506.00,0.0010
2505.00,0.0010
2504.00,0.0010
2503.00,0.0010
2502.00,0.0011
2501.00,0.0011
2500.00,0.0011
2499.00,0.0011
2498.00,0.0011
2497.00,0.0011
2496.00,0.0011
2495.00,0.0010
2494.00,0.0010
2493.00,0.0010
2492.00,0.0010
2491.00,0.0011
2490.00,0.0011
2489.00,0.0010
2488.00,0.0010
2487.00,0.0010
2486.00,0.0010
2485.00,0.0010
2484.00,0.0009
2483.00,0.0009
2482.00,0.0008
2481.00,0.0008
2480.00,0.0009
2479.00,0.0009
2478.00,0.0009
2477.00,0.0009
2476.00,0.0009
2475.00,0.0009
2474.00,0.0010
2473.00,0.0010
2472.00,0.0010
2471.00,0.0009
2470.00,0.0009
2469.00,0.0009
2468.00,0.0008
2467.00,0.0008
2466.00,0.0008
2465.00,0.0008
2464.00,0.0008
2463.00,0.0008
2462.00,0.0009
2461.00,0.0010
2460.00,0.0010
2459.00,0.0011
2458.00,0.0011
2457.00,0.0011
2456.00,0.0011
2455.00,0.0012
2454.00,0.0012
2453.00,0.0012
2452.00,0.0011
2451.00,0.0011
2450.00,0.0010
2449.00,0.0010
2448.00,0.0011
2447.00,0.0011
2446.00,0.0011
2445.00,0.0011
2444.00,0.0011
2443.00,0.0011
2442.00,0.0011
2441.00,0.0010
2440.00,0.0010
2439.00,0.0010
2438.00,0.0009
2437.00,0.0009
2436.00,0.0009
2435.00,0.0010
2434.00,0.0010
2433.00,0.0011
2432.00,0.0011
2431.00,0.0012
2430.00,0.0013
2429.00,0.0013
2428.00,0.0013
2427.00,0.0013
2426.00,0.0012
2425.00,0.0012
2424.00,0.0011
2423.00,0.0011
2422.00,0.0011
2421.00,0.0011
2420.00,0.0011
2419.00,0.0011
2418.00,0.0011
2417.00,0.0011
2416.00,0.0011
2415.00,0.0011
2414.00,0.0011
2413.00,0.0011
2412.00,0.0011
2411.00,0.0010
2410.00,0.0009
2409.00,0.0008
2408.00,0.0008
2407.00,0.0008
2406.00,0.0008
2405.00,0.0008
2404.00,0.0008
2403.00,0.0009
2402.00,0.0008
2401.00,0.0008
2400.00,0.0008
2399.00,0.0008
2398.00,0.0008
2397.00,0.0009
2396.00,0.0009
2395.00,0.0009
2394.00,0.0008
2393.00,0.0009
2392.00,0.0009
2391.00,0.0009
2390.00,0.0009
2389.00,0.0008
2388.00,0.0007
2387.00,0.0006
2386.00,0.0005
2385.00,0.0005
2384.00,0.0005
2383.00,0.0005
2382.00,0.0005
2381.00,0.0005
2380.00,0.0005
2379.00,0.0005
2378.00,0.0005
2377.00,0.0005
2376.00,0.0004
2375.00,0.0004
2374.00,0.0004
2373.00,0.0004
2372.00,0.0005
2371.00,0.0005
2370.00,0.0005
2369.00,0.0004
2368.00,0.0003
2367.00,0.0003
2366.00,0.0003
2365.00,0.0004
2364.00,0.0004
2363.00,0.0005
2362.00,0.0004
2361.00,0.0004
2360.00,0.0004
2359.00,0.0005
2358.00,0.0006
2357.00,0.0007
2356.00,0.0007
2355.00,0.0007
2354.00,0.0006
2353.00,0.0005
2352.00,0.0004
2351.00,0.0004
2350.00,0.0005
2349.00,0.0005
2348.00,0.0005
2347.00,0.0005
2346.00,0.0005
2345.00,0.0005
2344.00,0.0006
2343.00,0.0007
2342.00,0.0008
2341.00,0.0008
2340.00,0.0008
2339.00,0.0008
2338.00,0.0008
2337.00,0.0008
2336.00,0.0008
2335.00,0.0008
2334.00,0.0007
2333.00,0.0007
2332.00,0.0006
2331.00,0.0006
2330.00,0.0006
2329.00,0.0007
2328.00,0.0009
2327.00,0.0013
2326.00,0.0017
2325.00,0.0021
2324.00,0.0023
2323.00,0.0022
2322.00,0.0021
2321.00,0.0019
2320.00,0.0018
2319.00,0.0018
2318.00,0.0017
2317.00,0.0016
2316.00,0.0015
2315.00,0.0014
2314.00,0.0013
2313.00,0.0012
2312.00,0.0011
2311.00,0.0010
2310.00,0.0009
2309.00,0.0009
2308.00,0.0009
2307.00,0.0010
2306.00,0.0010
2305.00,0.0011
2304.00,0.0011
2303.00,0.0011
2302.00,0.0010
2301.00,0.0010
2300.00,0.0010
2299.00,0.0011
2298.00,0.0012
2297.00,0.0012
2296.00,0.0013
2295.00,0.0014
2294.00,0.0015
2293.00,0.0015
2292.00,0.0016
2291.00,0.0017
2290.00,0.0018
2289.00,0.0019
2288.00,0.0019
2287.00,0.0020
2286.00,0.0020
2285.00,0.0019
2284.00,0.0018
2283.00,0.0017
2282.00,0.0016
2281.00,0.0016
2280.00,0.0015
2279.00,0.0014
2278.00,0.0012
2277.00,0.0011
2276.00,0.0011
2275.00,0.0011
2274.00,0.0012
2273.00,0.0011
2272.00,0.0012
2271.00,0.0012
2270.00,0.0013
2269.00,0.0013
2268.00,0.0013
2267.00,0.0012
2266.00,0.0011
2265.00,0.0010
2264.00,0.0011
2263.00,0.0012
2262.00,0.0012
2261.00,0.0012
2260.00,0.0012
2259.00,0.0012
2258.00,0.0013
2257.00,0.0014
2256.00,0.0013
2255.00,0.0012
2254.00,0.0010
2253.00,0.0009
2252.00,0.0008
2251.00,0.0009
2250.00,0.0009
2249.00,0.0009
2248.00,0.0009
2247.00,0.0009
2246.00,0.0009
2245.00,0.0009
2244.00,0.0009
2243.00,0.0009
2242.00,0.0009
2241.00,0.0009
2240.00,0.0010
2239.00,0.0010
2238.00,0.0010
2237.00,0.0009
2236.00,0.0009
2235.00,0.0008
2234.00,0.0008
2233.00,0.0008
2232.00,0.0007
2231.00,0.0007
2230.00,0.0007
2229.00,0.0007
2228.00,0.0007
2227.00,0.0006
2226.00,0.0005
2225.00,0.0004
2224.00,0.0003
2223.00,0.0003
2222.00,0.0005
2221.00,0.0006
2220.00,0.0006
2219.00,0.0006
2218.00,0.0004
2217.00,0.0003
2216.00,0.0003
2215.00,0.0003
2214.00,0.0003
2213.00,0.0004
2212.00,0.0005
2211.00,0.0006
2210.00,0.0007
2209.00,0.0008
2208.00,0.0008
2207.00,0.0008
2206.00,0.0008
2205.00,0.0007
2204.00,0.0007
2203.00,0.0007
2202.00,0.0006
2201.00,0.0006
2200.00,0.0005
2199.00,0.0006
2198.00,0.0008
2197.00,0.0009
2196.00,0.0008
2195.00,0.0006
2194.00,0.0005
2193.00,0.0006
2192.00,0.0008
2191.00,0.0008
2190.00,0.0008
2189.00,0.0006
2188.00,0.0005
2187.00,0.0005
2186.00,0.0005
2185.00,0.0005
2184.00,0.0004
2183.00,0.0003
2182.00,0.0002
2181.00,0.0002
2180.00,0.0003
2179.00,0.0005
2178.00,0.0006
2177.00,0.0005
2176.00,0.0003
2175.00,0.0000
2174.00,-0.0001
2173.00,0.0000
2172.00,0.0001
2171.00,0.0002
2170.00,0.0003
2169.00,0.0006
2168.00,0.0010
2167.00,0.0012
2166.00,0.0012
2165.00,0.0011
2164.00,0.0011
2163.00,0.0013
2162.00,0.0015
2161.00,0.0013
2160.00,0.0005
2159.00,-0.0008
2158.00,-0.0018
2157.00,-0.0023
2156.00,-0.0022
2155.00,-0.0021
2154.00,-0.0021
2153.00,-0.0021
2152.00,-0.0022
2151.00,-0.0021
2150.00,-0.0020
2149.00,-0.0019
2148.00,-0.0019
2147.00,-0.0020
2146.00,-0.0020
2145.00,-0.0018
2144.00,-0.0015
2143.00,-0.0013
2142.00,-0.0012
2141.00,-0.0012
2140.00,-0.0011
2139.00,-0.0011
2138.00,-0.0011
2137.00,-0.0012
2136.00,-0.0013
2135.00,-0.0015
2134.00,-0.0016
2133.00,-0.0016
2132.00,-0.0014
2131.00,-0.0012
2130.00,-0.0010
2129.00,-0.0008
2128.00,-0.0008
2127.00,-0.0008
2126.00,-0.0008
2125.00,-0.0009
2124.00,-0.0009
2123.00,-0.0008
2122.00,-0.0007
2121.00,-0.0006
2120.00,-0.0005
2119.00,-0.0005
2118.00,-0.0004
2117.00,-0.0003
2116.00,-0.0001
2115.00,0.0001
2114.00,0.0003
2113.00,0.0004
2112.00,0.0004
2111.00,0.0003
2110.00,0.0002
2109.00,0.0002
2108.00,0.0001
2107.00,0.0002
2106.00,0.0002
2105.00,0.0003
2104.00,0.0003
2103.00,0.0003
2102.00,0.0002
2101.00,0.0002
2100.00,0.0002
2099.00,0.0001
2098.00,-0.0001
2097.00,-0.0003
2096.00,-0.0005
2095.00,-0.0006
2094.00,-0.0006
2093.00,-0.0005
2092.00,-0.0004
2091.00,-0.0003
2090.00,-0.0002
2089.00,-0.0001
2088.00,0.0001
2087.00,0.0002
2086.00,0.0002
2085.00,0.0002
2084.00,0.0002
2083.00,0.0002
2082.00,0.0002
2081.00,0.0003
2080.00,0.0004
2079.00,0.0004
2078.00,0.0004
2077.00,0.0003
2076.00,0.0002
2075.00,0.0001
2074.00,0.0001
2073.00,0.0002
2072.00,0.0002
2071.00,0.0002
2070.00,0.0001
2069.00,-0.0000
2068.00,-0.0002
2067.00,-0.0002
2066.00,-0.0001
2065.00,0.0001
2064.00,0.0002
2063.00,0.0002
2062.00,0.0001
2061.00,-0.0001
2060.00,-0.0003
2059.00,-0.0004
2058.00,-0.0004
2057.00,-0.0003
2056.00,-0.0002
2055.00,-0.0001
2054.00,0.0001
2053.00,0.0005
2052.00,0.0008
2051.00,0.0011
2050.00,0.0010
2049.00,0.0009
2048.00,0.0007
2047.00,0.0005
2046.00,0.0002
2045.00,0.0000
2044.00,-0.0000
2043.00,0.0001
2042.00,0.0002
2041.00,0.0004
2040.00,0.0004
2039.00,0.0003
2038.00,-0.0000
2037.00,-0.0004
2036.00,-0.0008
2035.00,-0.0011
2034.00,-0.0012
2033.00,-0.0011
2032.00,-0.0009
2031.00,-0.0007
2030.00,-0.0006
2029.00,-0.0004
2028.00,-0.0003
2027.00,-0.0003
2026.00,-0.0005
2025.00,-0.0008
2024.00,-0.0010
2023.00,-0.0011
2022.00,-0.0011
2021.00,-0.0012
2020.00,-0.0014
2019.00,-0.0017
2018.00,-0.0018
2017.00,-0.0017
2016.00,-0.0015
2015.00,-0.0013
2014.00,-0.0011
2013.00,-0.0009
2012.00,-0.0008
2011.00,-0.0008
2010.00,-0.0009
2009.00,-0.0011
2008.00,-0.0013
2007.00,-0.0015
2006.00,-0.0017
2005.00,-0.0020
2004.00,-0.0022
2003.00,-0.0022
2002.00,-0.0021
2001.00,-0.0019
2000.00,-0.0018
1999.00,-0.0018
1998.00,-0.0019
1997.00,-0.0019
1996.00,-0.0017
1995.00,-0.0015
1994.00,-0.0013
1993.00,-0.0010
1992.00,-0.0007
1991.00,-0.0004
1990.00,-0.0002
1989.00,-0.0000
1988.00,-0.0000
1987.00,-0.0001
1986.00,-0.0003
1985.00,-0.0004
1984.00,-0.0004
1983.00,-0.0002
1982.00,0.0002
1981.00,0.0007
1980.00,0.0009
1979.00,0.0007
1978.00,0.0001
1977.00,-0.0005
1976.00,-0.0010
1975.00,-0.0014
1974.00,-0.0017
1973.00,-0.0019
1972.00,-0.0020
1971.00,-0.0018
1970.00,-0.0015
1969.00,-0.0011
1968.00,-0.0008
1967.00,-0.0006
1966.00,-0.0007
1965.00,-0.0008
1964.00,-0.0009
1963.00,-0.0010
1962.00,-0.0011
1961.00,-0.0013
1960.00,-0.0016
1959.00,-0.0019
1958.00,-0.0021
1957.00,-0.0021
1956.00,-0.0020
1955.00,-0.0019
1954.00,-0.0018
1953.00,-0.0017
1952.00,-0.0017
1951.00,-0.0016
1950.00,-0.0016
1949.00,-0.0015
1948.00,-0.0016
1947.00,-0.0016
1946.00,-0.0016
1945.00,-0.0016
1944.00,-0.0016
1943.00,-0.0016
1942.00,-0.0015
1941.00,-0.0015
1940.00,-0.0014
1939.00,-0.0013
1938.00,-0.0012
1937.00,-0.0012
1936.00,-0.0012
1935.00,-0.0012
1934.00,-0.0012
1933.00,-0.0011
1932.00,-0.0010
1931.00,-0.0009
1930.00,-0.0008
1929.00,-0.0008
1928.00,-0.0008
1927.00,-0.0009
1926.00,-0.0009
1925.00,-0.0008
1924.00,-0.0008
1923.00,-0.0007
1922.00,-0.0006
1921.00,-0.0005
1920.00,-0.0005
1919.00,-0.0005
1918.00,-0.0005
1917.00,-0.0005
1916.00,-0.0005
1915.00,-0.0004
1914.00,-0.0003
1913.00,-0.0002
1912.00,-0.0001
1911.00,-0.0001
1910.00,-0.0001
1909.00,-0.0001
1908.00,-0.0001
1907.00,-0.0002
1906.00,-0.0003
1905.00,-0.0004
1904.00,-0.0005
1903.00,-0.0005
1902.00,-0.0005
1901.00,-0.0004
1900.00,-0.0002
1899.00,-0.0002
1898.00,-0.0002
1897.00,-0.0002
1896.00,-0.0002
1895.00,-0.0002
1894.00,-0.0001
1893.00,-0.0001
1892.00,-0.0001
1891.00,-0.0001
1890.00,-0.0002
1889.00,-0.0004
1888.00,-0.0005
1887.00,-0.0005
1886.00,-0.0004
1885.00,-0.0003
1884.00,-0.0003
1883.00,-0.0002
1882.00,-0.0002
1881.00,-0.0002
1880.00,-0.0001
1879.00,-0.0001
1878.00,-0.0001
1877.00,-0.0002
1876.00,-0.0002
1875.00,-0.0003
1874.00,-0.0003
1873.00,-0.0003
1872.00,-0.0002
1871.00,-0.0002
1870.00,-0.0002
1869.00,-0.0002
1868.00,-0.0002
1867.00,-0.0002
1866.00,-0.0002
1865.00,-0.0001
1864.00,-0.0001
1863.00,-0.0000
1862.00,0.0000
1861.00,0.0001
1860.00,0.0001
1859.00,0.0001
1858.00,0.0001
1857.00,0.0001
1856.00,-0.0000
1855.00,-0.0001
1854.00,-0.0001
1853.00,-0.0000
1852.00,0.0000
1851.00,0.0001
1850.00,0.0001
1849.00,0.0001
1848.00,0.0001
1847.00,0.0001
1846.00,0.0002
1845.00,0.0002
1844.00,0.0003
1843.00,0.0004
1842.00,0.0003
1841.00,0.0002
1840.00,0.0001
1839.00,-0.0001
1838.00,-0.0002
1837.00,-0.0002
1836.00,-0.0001
1835.00,0.0001
1834.00,0.0002
1833.00,0.0002
1832.00,0.0003
1831.00,0.0003
1830.00,0.0003
1829.00,0.0003
1828.00,0.0003
1827.00,0.0002
1826.00,0.0002
1825.00,0.0002
1824.00,0.0002
1823.00,0.0002
1822.00,0.0002
1821.00,0.0002
1820.00,0.0001
1819.00,0.0000
1818.00,-0.0001
1817.00,-0.0002
1816.00,-0.0002
1815.00,-0.0001
1814.00,-0.0001
1813.00,0.0000
1812.00,0.0001
1811.00,0.0001
1810.00,0.0002
1809.00,0.0002
1808.00,0.0002
1807.00,0.0002
1806.00,0.0002
1805.00,0.0002
1804.00,0.0002
1803.00,0.0003
1802.00,0.0003
1801.00,0.0004
1800.00,0.0004
1799.00,0.0004
1798.00,0.0004
1797.00,0.0004
1796.00,0.0004
1795.00,0.0003
1794.00,0.0003
1793.00,0.0004
1792.00,0.0005
1791.00,0.0005
1790.00,0.0005
1789.00,0.0005
1788.00,0.0005
1787.00,0.0005
1786.00,0.0005
1785.00,0.0006
1784.00,0.0006
1783.00,0.0006
1782.00,0.0006
1781.00,0.0006
1780.00,0.0006
1779.00,0.0007
1778.00,0.0007
1777.00,0.0007
1776.00,0.0008
1775.00,0.0008
1774.00,0.0008
1773.00,0.0008
1772.00,0.0008
1771.00,0.0009
1770.00,0.0009
1769.00,0.0008
1768.00,0.0007
1767.00,0.0007
1766.00,0.0007
1765.00,0.0008
1764.00,0.0008
1763.00,0.0008
1762.00,0.0008
1761.00,0.0008
1760.00,0.0008
1759.00,0.0008
1758.00,0.0009
1757.00,0.0009
1756.00,0.0010
1755.00,0.0011
1754.00,0.0011
1753.00,0.0012
1752.00,0.0012
1751.00,0.0012
1750.00,0.0012
1749.00,0.0012
1748.00,0.0012
1747.00,0.0013
1746.00,0.0013
1745.00,0.0013
1744.00,0.0013
1743.00,0.0013
1742.00,0.0013
1741.00,0.0013
1740.00,0.0013
1739.00,0.0013
1738.00,0.0013
1737.00,0.0013
1736.00,0.0013
1735.00,0.0013
1734.00,0.0013
1733.00,0.0013
1732.00,0.0013
1731.00,0.0013
1730.00,0.0014
1729.00,0.0014
1728.00,0.0015
1727.00,0.0015
1726.00,0.0014
1725.00,0.0014
1724.00,0.0014
1723.00,0.0015
1722.00,0.0015
1721.00,0.0015
1720.00,0.0015
1719.00,0.0015
1718.00,0.0016
1717.00,0.0016
1716.00,0.0017
1715.00,0.0016
1714.00,0.0016
1713.00,0.0016
1712.00,0.0016
1711.00,0.0017
1710.00,0.0017
1709.00,0.0018
1708.00,0.0018
1707.00,0.0019
1706.00,0.0019
1705.00,0.0019
1704.00,0.0019
1703.00,0.0019
1702.00,0.0019
1701.00,0.0020
1700.00,0.0021
1699.00,0.0021
1698.00,0.0021
1697.00,0.0022
1696.00,0.0023
1695.00,0.0023
1694.00,0.0023
1693.00,0.0023
1692.00,0.0023
1691.00,0.0022
1690.00,0.0022
1689.00,0.0023
1688.00,0.0023
1687.00,0.0023
1686.00,0.0023
1685.00,0.0022
1684.00,0.0022
1683.00,0.0023
1682.00,0.0023
1681.00,0.0024
1680.00,0.0025
1679.00,0.0026
1678.00,0.0026
1677.00,0.0026
1676.00,0.0026
1675.00,0.0026
1674.00,0.0026
1673.00,0.0027
1672.00,0.0027
1671.00,0.0027
1670.00,0.0027
1669.00,0.0027
1668.00,0.0027
1667.00,0.0028
1666.00,0.0028
1665.00,0.0029
1664.00,0.0030
1663.00,0.0030
1662.00,0.0031
1661.00,0.0031
1660.00,0.0031
1659.00,0.0031
1658.00,0.0032
1657.00,0.0032
1656.00,0.0033
1655.00,0.0033
1654.00,0.0034
1653.00,0.0034
1652.00,0.0034
1651.00,0.0034
1650.00,0.0034
1649.00,0.0035
1648.00,0.0036
1647.00,0.0036
1646.00,0.0037
1645.00,0.0037
1644.00,0.0037
1643.00,0.0037
1642.00,0.0038
1641.00,0.0038
1640.00,0.0039
1639.00,0.0039
1638.00,0.0039
1637.00,0.0039
1636.00,0.0039
1635.00,0.0039
1634.00,0.0038
1633.00,0.0038
1632.00,0.0039
1631.00,0.0038
1630.00,0.0038
1629.00,0.0038
1628.00,0.0037
1627.00,0.0037
1626.00,0.0037
1625.00,0.0037
1624.00,0.0037
1623.00,0.0037
1622.00,0.0036
1621.00,0.0036
1620.00,0.0036
1619.00,0.0035
1618.00,0.0034
1617.00,0.0034
1616.00,0.0034
1615.00,0.0034
1614.00,0.0035
1613.00,0.0035
1612.00,0.0036
1611.00,0.0036
1610.00,0.0035
1609.00,0.0035
1608.00,0.0035
1607.00,0.0034
1606.00,0.0034
1605.00,0.0035
1604.00,0.0035
1603.00,0.0035
1602.00,0.0034
1601.00,0.0034
1600.00,0.0033
1599.00,0.0033
1598.00,0.0033
1597.00,0.0033
1596.00,0.0033
1595.00,0.0033
1594.00,0.0033
1593.00,0.0033
1592.00,0.0033
1591.00,0.0033
1590.00,0.0032
1589.00,0.0032
1588.00,0.0032
1587.00,0.0033
1586.00,0.0033
1585.00,0.0033
1584.00,0.0034
1583.00,0.0034
1582.00,0.0034
1581.00,0.0034
1580.00,0.0034
1579.00,0.0033
1578.00,0.0033
1577.00,0.0033
1576.00,0.0033
1575.00,0.0033
1574.00,0.0034
1573.00,0.0034
1572.00,0.0035
1571.00,0.0035
1570.00,0.0035
1569.00,0.0035
1568.00,0.0035
1567.00,0.0035
1566.00,0.0036
1565.00,0.0036
1564.00,0.0037
1563.00,0.0037
1562.00,0.0037
1561.00,0.0037
1560.00,0.0038
1559.00,0.0038
1558.00,0.0038
1557.00,0.0039
1556.00,0.0039
1555.00,0.0039
1554.00,0.0039
1553.00,0.0039
1552.00,0.0040
1551.00,0.0040
1550.00,0.0040
1549.00,0.0040
1548.00,0.0041
1547.00,0.0040
1546.00,0.0040
1545.00,0.0041
1544.00,0.0042
1543.00,0.0042
1542.00,0.0042
1541.00,0.0042
1540.00,0.0042
1539.00,0.0041
1538.00,0.0041
1537.00,0.0041
1536.00,0.0042
1535.00,0.0042
1534.00,0.0042
1533.00,0.0042
1532.00,0.0042
1531.00,0.0042
1530.00,0.0042
1529.00,0.0042
1528.00,0.0042
1527.00,0.0042
1526.00,0.0041
1525.00,0.0041
1524.00,0.0042
1523.00,0.0042
1522.00,0.0042
1521.00,0.0043
1520.00,0.0043
1519.00,0.0043
1518.00,0.0043
1517.00,0.0044
1516.00,0.0045
1515.00,0.0046
1514.00,0.0046
1513.00,0.0047
1512.00,0.0048
1511.00,0.0048
1510.00,0.0048
1509.00,0.0049
1508.00,0.0051
1507.00,0.0052
1506.00,0.0053
1505.00,0.0054
1504.00,0.0056
1503.00,0.0058
1502.00,0.0059
1501.00,0.0061
1500.00,0.0063
1499.00,0.0065
1498.00,0.0067
1497.00,0.0070
1496.00,0.0074
1495.00,0.0077
1494.00,0.0079
1493.00,0.0081
1492.00,0.0084
1491.00,0.0087
1490.00,0.0090
1489.00,0.0094
1488.00,0.0100
1487.00,0.0104
1486.00,0.0109
1485.00,0.0115
1484.00,0.0121
1483.00,0.0128
1482.00,0.0135
1481.00,0.0145
1480.00,0.0156
1479.00,0.0168
1478.00,0.0182
1477.00,0.0200
1476.00,0.0222
1475.00,0.0248
1474.00,0.0283
1473.00,0.0336
1472.00,0.0399
1471.00,0.0462
1470.00,0.0523
1469.00,0.0587
1468.00,0.0657
1467.00,0.0734
1466.00,0.0822
1465.00,0.0919
1464.00,0.1007
1463.00,0.1071
1462.00,0.1116
1461.00,0.1150
1460.00,0.1177
1459.00,0.1198
1458.00,0.1220
1457.00,0.1244
1456.00,0.1260
1455.00,0.1266
1454.00,0.1267
1453.00,0.1261
1452.00,0.1243
1451.00,0.1211
1450.00,0.1160
1449.00,0.1084
1448.00,0.0985
1447.00,0.0877
1446.00,0.0778
1445.00,0.0693
1444.00,0.0620
1443.00,0.0560
1442.00,0.0515
1441.00,0.0485
1440.00,0.0465
1439.00,0.0455
1438.00,0.0451
1437.00,0.0447
1436.00,0.0431
1435.00,0.0401
1434.00,0.0362
1433.00,0.0316
1432.00,0.0269
1431.00,0.0229
1430.00,0.0197
1429.00,0.0174
1428.00,0.0159
1427.00,0.0149
1426.00,0.0143
1425.00,0.0137
1424.00,0.0131
1423.00,0.0127
1422.00,0.0125
1421.00,0.0123
1420.00,0.0120
1419.00,0.0118
1418.00,0.0117
1417.00,0.0115
1416.00,0.0113
1415.00,0.0112
1414.00,0.0112
1413.00,0.0112
1412.00,0.0111
1411.00,0.0112
1410.00,0.0112
1409.00,0.0112
1408.00,0.0112
1407.00,0.0112
1406.00,0.0114
1405.00,0.0115
1404.00,0.0115
1403.00,0.0117
1402.00,0.0120
1401.00,0.0122
1400.00,0.0124
1399.00,0.0127
1398.00,0.0131
1397.00,0.0134
1396.00,0.0138
1395.00,0.0143
1394.00,0.0150
1393.00,0.0156
1392.00,0.0163
1391.00,0.0172
1390.00,0.0185
1389.00,0.0203
1388.00,0.0231
1387.00,0.0272
1386.00,0.0325
1385.00,0.0393
1384.00,0.0480
1383.00,0.0596
1382.00,0.0745
1381.00,0.0930
1380.00,0.1152
1379.00,0.1399
1378.00,0.1635
1377.00,0.1807
1376.00,0.1865
1375.00,0.1778
1374.00,0.1567
1373.00,0.1308
1372.00,0.1065
1371.00,0.0862
1370.00,0.0697
1369.00,0.0569
1368.00,0.0479
1367.00,0.0424
1366.00,0.0393
1365.00,0.0380
1364.00,0.0381
1363.00,0.0394
1362.00,0.0415
1361.00,0.0437
1360.00,0.0454
1359.00,0.0458
1358.00,0.0447
1357.00,0.0419
1356.00,0.0381
1355.00,0.0338
1354.00,0.0297
1353.00,0.0261
1352.00,0.0233
1351.00,0.0210
1350.00,0.0192
1349.00,0.0177
1348.00,0.0165
1347.00,0.0155
1346.00,0.0147
1345.00,0.0141
1344.00,0.0136
1343.00,0.0132
1342.00,0.0128
1341.00,0.0126
1340.00,0.0123
1339.00,0.0121
1338.00,0.0120
1337.00,0.0119
1336.00,0.0119
1335.00,0.0121
1334.00,0.0123
1333.00,0.0127
1332.00,0.0132
1331.00,0.0136
1330.00,0.0137
1329.00,0.0136
1328.00,0.0133
1327.00,0.0127
1326.00,0.0121
1325.00,0.0115
1324.00,0.0108
1323.00,0.0103
1322.00,0.0098
1321.00,0.0094
1320.00,0.0091
1319.00,0.0088
1318.00,0.0085
1317.00,0.0083
1316.00,0.0082
1315.00,0.0081
1314.00,0.0081
1313.00,0.0082
1312.00,0.0084
1311.00,0.0087
1310.00,0.0093
1309.00,0.0102
1308.00,0.0114
1307.00,0.0130
1306.00,0.0145
1305.00,0.0156
1304.00,0.0159
1303.00,0.0155
1302.00,0.0147
1301.00,0.0139
1300.00,0.0133
1299.00,0.0130
1298.00,0.0129
1297.00,0.0128
1296.00,0.0126
1295.00,0.0123
1294.00,0.0118
1293.00,0.0113
1292.00,0.0107
1291.00,0.0102
1290.00,0.0097
1289.00,0.0093
1288.00,0.0089
1287.00,0.0086
1286.00,0.0084
1285.00,0.0082
1284.00,0.0080
1283.00,0.0079
1282.00,0.0078
1281.00,0.0077
1280.00,0.0076
1279.00,0.0076
1278.00,0.0075
1277.00,0.0075
1276.00,0.0075
1275.00,0.0075
1274.00,0.0075
1273.00,0.0076
1272.00,0.0076
1271.00,0.0077
1270.00,0.0078
1269.00,0.0080
1268.00,0.0081
1267.00,0.0083
1266.00,0.0085
1265.00,0.0088
1264.00,0.0090
1263.00,0.0094
1262.00,0.0099
1261.00,0.0106
1260.00,0.0114
1259.00,0.0125
1258.00,0.0136
1257.00,0.0146
1256.00,0.0151
1255.00,0.0150
1254.00,0.0143
1253.00,0.0133
1252.00,0.0123
1251.00,0.0114
1250.00,0.0107
1249.00,0.0101
1248.00,0.0098
1247.00,0.0095
1246.00,0.0093
1245.00,0.0092
1244.00,0.0091
1243.00,0.0090
1242.00,0.0090
1241.00,0.0089
1240.00,0.0088
1239.00,0.0086
1238.00,0.0085
1237.00,0.0084
1236.00,0.0083
1235.00,0.0082
1234.00,0.0081
1233.00,0.0080
1232.00,0.0079
1231.00,0.0079
1230.00,0.0079
1229.00,0.0079
1228.00,0.0079
1227.00,0.0079
1226.00,0.0080
1225.00,0.0082
1224.00,0.0085
1223.00,0.0088
1222.00,0.0090
1221.00,0.0093
1220.00,0.0094
1219.00,0.0095
1218.00,0.0094
1217.00,0.0092
1216.00,0.0090
1215.00,0.0087
1214.00,0.0084
1213.00,0.0081
1212.00,0.0078
1211.00,0.0076
1210.00,0.0074
1209.00,0.0073
1208.00,0.0071
1207.00,0.0070
1206.00,0.0069
1205.00,0.0068
1204.00,0.0067
1203.00,0.0066
1202.00,0.0065
1201.00,0.0065
1200.00,0.0066
1199.00,0.0067
1198.00,0.0068
1197.00,0.0069
1196.00,0.0069
1195.00,0.0069
1194.00,0.0069
1193.00,0.0069
1192.00,0.0070
1191.00,0.0070
1190.00,0.0071
1189.00,0.0072
1188.00,0.0072
1187.00,0.0074
1186.00,0.0075
1185.00,0.0077
1184.00,0.0079
1183.00,0.0081
1182.00,0.0084
1181.00,0.0088
1180.00,0.0094
1179.00,0.0101
1178.00,0.0111
1177.00,0.0123
1176.00,0.0139
1175.00,0.0159
1174.00,0.0187
1173.00,0.0221
1172.00,0.0262
1171.00,0.0307
1170.00,0.0352
1169.00,0.0388
1168.00,0.0411
1167.00,0.0417
1166.00,0.0408
1165.00,0.0387
1164.00,0.0360
1163.00,0.0334
1162.00,0.0310
1161.00,0.0290
1160.00,0.0273
1159.00,0.0260
1158.00,0.0249
1157.00,0.0241
1156.00,0.0234
1155.00,0.0229
1154.00,0.0225
1153.00,0.0220
1152.00,0.0214
1151.00,0.0206
1150.00,0.0196
1149.00,0.0186
1148.00,0.0175
1147.00,0.0165
1146.00,0.0155
1145.00,0.0147
1144.00,0.0139
1143.00,0.0131
1142.00,0.0124
1141.00,0.0118
1140.00,0.0113
1139.00,0.0107
1138.00,0.0103
1137.00,0.0098
1136.00,0.0094
1135.00,0.0090
1134.00,0.0087
1133.00,0.0084
1132.00,0.0083
1131.00,0.0081
1130.00,0.0081
1129.00,0.0081
1128.00,0.0082
1127.00,0.0083
1126.00,0.0084
1125.00,0.0083
1124.00,0.0081
1123.00,0.0079
1122.00,0.0078
1121.00,0.0078
1120.00,0.0079
1119.00,0.0080
1118.00,0.0081
1117.00,0.0081
1116.00,0.0082
1115.00,0.0083
1114.00,0.0084
1113.00,0.0085
1112.00,0.0087
1111.00,0.0090
1110.00,0.0094
1109.00,0.0098
1108.00,0.0104
1107.00,0.0110
1106.00,0.0117
1105.00,0.0124
1104.00,0.0130
1103.00,0.0134
1102.00,0.0134
1101.00,0.0132
1100.00,0.0127
1099.00,0.0121
1098.00,0.0114
1097.00,0.0108
1096.00,0.0103
1095.00,0.0099
1094.00,0.0097
1093.00,0.0095
1092.00,0.0093
1091.00,0.0091
1090.00,0.0090
1089.00,0.0089
1088.00,0.0088
1087.00,0.0087
1086.00,0.0086
1085.00,0.0085
1084.00,0.0084
1083.00,0.0084
1082.00,0.0083
1081.00,0.0081
1080.00,0.0080
1079.00,0.0079
1078.00,0.0079
1077.00,0.0078
1076.00,0.0078
1075.00,0.0078
1074.00,0.0079
1073.00,0.0080
1072.00,0.0081
1071.00,0.0081
1070.00,0.0081
1069.00,0.0080
1068.00,0.0079
1067.00,0.0079
1066.00,0.0080
1065.00,0.0081
1064.00,0.0081
1063.00,0.0081
1062.00,0.0081
1061.00,0.0080
1060.00,0.0080
1059.00,0.0080
1058.00,0.0080
1057.00,0.0080
1056.00,0.0081
1055.00,0.0081
1054.00,0.0081
1053.00,0.0082
1052.00,0.0083
1051.00,0.0084
1050.00,0.0087
1049.00,0.0091
1048.00,0.0095
1047.00,0.0099
1046.00,0.0101
1045.00,0.0101
1044.00,0.0100
1043.00,0.0098
1042.00,0.0095
1041.00,0.0092
1040.00,0.0090
1039.00,0.0088
1038.00,0.0086
1037.00,0.0085
1036.00,0.0084
1035.00,0.0083
1034.00,0.0083
1033.00,0.0084
1032.00,0.0084
1031.00,0.0084
1030.00,0.0083
1029.00,0.0083
1028.00,0.0082
1027.00,0.0081
1026.00,0.0081
1025.00,0.0080
1024.00,0.0081
1023.00,0.0082
1022.00,0.0084
1021.00,0.0084
1020.00,0.0085
1019.00,0.0087
1018.00,0.0089
1017.00,0.0091
1016.00,0.0094
1015.00,0.0097
1014.00,0.0101
1013.00,0.0105
1012.00,0.0109
1011.00,0.0114
1010.00,0.0120
1009.00,0.0126
1008.00,0.0134
1007.00,0.0143
1006.00,0.0156
1005.00,0.0172
1004.00,0.0193
1003.00,0.0223
1002.00,0.0261
1001.00,0.0309
1000.00,0.0360
999.00,0.0404
998.00,0.0428
997.00,0.0425
996.00,0.0393
995.00,0.0343
994.00,0.0288
993.00,0.0239
992.00,0.0200
991.00,0.0171
990.00,0.0151
989.00,0.0138
988.00,0.0130
987.00,0.0126
986.00,0.0124
985.00,0.0126
984.00,0.0131
983.00,0.0140
982.00,0.0154
981.00,0.0174
980.00,0.0200
979.00,0.0235
978.00,0.0280
977.00,0.0334
976.00,0.0395
975.00,0.0455
974.00,0.0504
973.00,0.0529
972.00,0.0520
971.00,0.0478
970.00,0.0415
969.00,0.0346
968.00,0.0285
967.00,0.0236
966.00,0.0200
965.00,0.0174
964.00,0.0155
963.00,0.0141
962.00,0.0131
961.00,0.0123
960.00,0.0117
959.00,0.0113
958.00,0.0109
957.00,0.0106
956.00,0.0104
955.00,0.0101
954.00,0.0099
953.00,0.0097
952.00,0.0095
951.00,0.0094
950.00,0.0093
949.00,0.0092
948.00,0.0092
947.00,0.0093
946.00,0.0094
945.00,0.0095
944.00,0.0098
943.00,0.0101
942.00,0.0104
941.00,0.0106
940.00,0.0105
939.00,0.0102
938.00,0.0096
937.00,0.0090
936.00,0.0084
935.00,0.0079
934.00,0.0075
933.00,0.0072
932.00,0.0069
931.00,0.0067
930.00,0.0065
929.00,0.0064
928.00,0.0063
927.00,0.0063
926.00,0.0063
925.00,0.0064
924.00,0.0064
923.00,0.0064
922.00,0.0064
921.00,0.0064
920.00,0.0064
919.00,0.0065
918.00,0.0066
917.00,0.0067
916.00,0.0069
915.00,0.0069
914.00,0.0069
913.00,0.0068
912.00,0.0067
911.00,0.0068
910.00,0.0070
909.00,0.0072
908.00,0.0076
907.00,0.0080
906.00,0.0087
905.00,0.0097
904.00,0.0110
903.00,0.0127
902.00,0.0146
901.00,0.0165
900.00,0.0178
899.00,0.0181
898.00,0.0173
897.00,0.0158
896.00,0.0139
895.00,0.0122
894.00,0.0107
893.00,0.0096
892.00,0.0087
891.00,0.0081
890.00,0.0077
889.00,0.0074
888.00,0.0071
887.00,0.0069
886.00,0.0067
885.00,0.0065
884.00,0.0065
883.00,0.0066
882.00,0.0066
881.00,0.0067
880.00,0.0068
879.00,0.0068
878.00,0.0068
877.00,0.0068
876.00,0.0068
875.00,0.0069
874.00,0.0069
873.00,0.0070
872.00,0.0071
871.00,0.0071
870.00,0.0070
869.00,0.0069
868.00,0.0069
867.00,0.0070
866.00,0.0071
865.00,0.0072
864.00,0.0073
863.00,0.0075
862.00,0.0077
861.00,0.0080
860.00,0.0082
859.00,0.0083
858.00,0.0084
857.00,0.0086
856.00,0.0088
855.00,0.0090
854.00,0.0093
853.00,0.0094
852.00,0.0097
851.00,0.0103
850.00,0.0112
849.00,0.0123
848.00,0.0138
847.00,0.0157
846.00,0.0186
845.00,0.0230
844.00,0.0290
843.00,0.0358
842.00,0.0411
841.00,0.0429
840.00,0.0403
839.00,0.0346
838.00,0.0282
837.00,0.0230
836.00,0.0194
835.00,0.0171
834.00,0.0157
833.00,0.0147
832.00,0.0139
831.00,0.0133
830.00,0.0127
829.00,0.0121
828.00,0.0117
827.00,0.0114
826.00,0.0113
825.00,0.0112
824.00,0.0112
823.00,0.0112
822.00,0.0114
821.00,0.0115
820.00,0.0116
819.00,0.0117
818.00,0.0119
817.00,0.0122
816.00,0.0127
815.00,0.0136
814.00,0.0149
813.00,0.0165
812.00,0.0181
811.00,0.0195
810.00,0.0204
809.00,0.0208
808.00,0.0206
807.00,0.0198
806.00,0.0185
805.00,0.0170
804.00,0.0154
803.00,0.0140
802.00,0.0129
801.00,0.0120
800.00,0.0113
799.00,0.0107
798.00,0.0101
797.00,0.0096
796.00,0.0092
795.00,0.0089
794.00,0.0087
793.00,0.0085
792.00,0.0083
791.00,0.0081
790.00,0.0080
789.00,0.0079
788.00,0.0077
787.00,0.0074
786.00,0.0070
785.00,0.0067
784.00,0.0064
783.00,0.0062
782.00,0.0061
781.00,0.0059
780.00,0.0057
779.00,0.0057
778.00,0.0059
777.00,0.0061
776.00,0.0063
775.00,0.0064
774.00,0.0066
773.00,0.0068
772.00,0.0071
771.00,0.0074
770.00,0.0078
769.00,0.0080
768.00,0.0081
767.00,0.0080
766.00,0.0079
765.00,0.0077
764.00,0.0073
763.00,0.0070
762.00,0.0066
761.00,0.0063
760.00,0.0060
759.00,0.0057
758.00,0.0055
757.00,0.0053
756.00,0.0051
755.00,0.0049
754.00,0.0047
753.00,0.0046
752.00,0.0047
751.00,0.0048
750.00,0.0049
749.00,0.0049
748.00,0.0049
747.00,0.0049
746.00,0.0048
745.00,0.0048
744.00,0.0047
743.00,0.0047
742.00,0.0049
741.00,0.0050
740.00,0.0050
739.00,0.0051
738.00,0.0051
737.00,0.0052
736.00,0.0053
735.00,0.0053
734.00,0.0053
733.00,0.0053
732.00,0.0053
731.00,0.0054
730.00,0.0056
729.00,0.0057
728.00,0.0057
727.00,0.0057
726.00,0.0057
725.00,0.0056
724.00,0.0054
723.00,0.0052
722.00,0.0050
721.00,0.0049
720.00,0.0049
719.00,0.0050
718.00,0.0051
717.00,0.0051
716.00,0.0051
715.00,0.0050
714.00,0.0049
713.00,0.0048
712.00,0.0047
711.00,0.0046
710.00,0.0045
709.00,0.0044
708.00,0.0044
707.00,0.0045
706.00,0.0046
705.00,0.0047
704.00,0.0047
703.00,0.0047
702.00,0.0047
701.00,0.0046
700.00,0.0044
699.00,0.0042
698.00,0.0042
697.00,0.0042
696.00,0.0042
695.00,0.0041
694.00,0.0042
693.00,0.0042
692.00,0.0043
691.00,0.0044
690.00,0.0044
689.00,0.0045
688.00,0.0043
687.00,0.0042
686.00,0.0040
685.00,0.0040
684.00,0.0041
683.00,0.0042
682.00,0.0042
681.00,0.0044
680.00,0.0045
679.00,0.0047
678.00,0.0048
677.00,0.0047
676.00,0.0044
675.00,0.0041
674.00,0.0039
673.00,0.0039
672.00,0.0041
671.00,0.0044
670.00,0.0047
669.00,0.0049
668.00,0.0049
667.00,0.0048
666.00,0.0047
665.00,0.0046
664.00,0.0044
663.00,0.0043
662.00,0.0043
661.00,0.0044
660.00,0.0044
659.00,0.0043
658.00,0.0041
657.00,0.0039
656.00,0.0039
655.00,0.0040
654.00,0.0041
653.00,0.0043
652.00,0.0044
651.00,0.0044
650.00,0.0044
649.00,0.0044
648.00,0.0043
647.00,0.0044
646.00,0.0045
645.00,0.0046
644.00,0.0045
643.00,0.0044
642.00,0.0043
641.00,0.0043
640.00,0.0044
639.00,0.0047
638.00,0.0050
637.00,0.0051
636.00,0.0049
635.00,0.0046
634.00,0.0045
633.00,0.0046
632.00,0.0047
631.00,0.0047
630.00,0.0047
629.00,0.0047
628.00,0.0048
627.00,0.0048
626.00,0.0048
625.00,0.0046
624.00,0.0045
623.00,0.0044
622.00,0.0045
621.00,0.0045
620.00,0.0045
619.00,0.0043
618.00,0.0042
617.00,0.0041
616.00,0.0041
615.00,0.0042
614.00,0.0044
613.00,0.0047
612.00,0.0050
611.00,0.0052
610.00,0.0052
609.00,0.0051
608.00,0.0048
607.00,0.0045
606.00,0.0045
605.00,0.0046
604.00,0.0048
603.00,0.0047
602.00,0.0047
601.00,0.0047
600.00,0.0047
599.00,0.0048
598.00,0.0049
597.00,0.0052
596.00,0.0056
595.00,0.0060
594.00,0.0062
593.00,0.0061
592.00,0.0059
591.00,0.0057
590.00,0.0055
589.00,0.0053
588.00,0.0052
587.00,0.0052
586.00,0.0053
585.00,0.0053
584.00,0.0052
583.00,0.0051
582.00,0.0050
581.00,0.0051
580.00,0.0052
579.00,0.0055
578.00,0.0056
577.00,0.0056
576.00,0.0055
575.00,0.0053
574.00,0.0051
573.00,0.0049
572.00,0.0048
571.00,0.0047
570.00,0.0046
569.00,0.0046
568.00,0.0046
567.00,0.0046
566.00,0.0046
565.00,0.0046
564.00,0.0045
563.00,0.0045
562.00,0.0045
561.00,0.0046
560.00,0.0046
559.00,0.0048
558.00,0.0050
557.00,0.0054
556.00,0.0058
555.00,0.0060
554.00,0.0059
553.00,0.0058
552.00,0.0057
551.00,0.0057
550.00,0.0055
549.00,0.0052
548.00,0.0048
547.00,0.0046
546.00,0.0044
545.00,0.0042
544.00,0.0043
543.00,0.0047
542.00,0.0053
541.00,0.0057
540.00,0.0060
539.00,0.0063
538.00,0.0066
537.00,0.0069
536.00,0.0069
535.00,0.0068
534.00,0.0066
533.00,0.0064
532.00,0.0063
531.00,0.0065
530.00,0.0066
529.00,0.0068
528.00,0.0070
527.00,0.0072
526.00,0.0072
525.00,0.0071
524.00,0.0069
523.00,0.0069
522.00,0.0068
521.00,0.0066
520.00,0.0061
519.00,0.0058
518.00,0.0057
517.00,0.0058
516.00,0.0059
515.00,0.0060
514.00,0.0061
513.00,0.0059
512.00,0.0053
511.00,0.0046
510.00,0.0042
509.00,0.0044
508.00,0.0051
507.00,0.0059
506.00,0.0065
505.00,0.0067
504.00,0.0067
503.00,0.0065
502.00,0.0059
501.00,0.0051
500.00,0.0043
499.00,0.0038
498.00,0.0037
497.00,0.0039
496.00,0.0042
495.00,0.0045
494.00,0.0047
493.00,0.0050
492.00,0.0053
491.00,0.0054
490.00,0.0055
489.00,0.0056
488.00,0.0059
487.00,0.0063
486.00,0.0066
485.00,0.0070
484.00,0.0074
483.00,0.0078
482.00,0.0077
481.00,0.0069
480.00,0.0058
479.00,0.0054
478.00,0.0059
477.00,0.0068
476.00,0.0073
475.00,0.0072
474.00,0.0065
473.00,0.0053
472.00,0.0045
471.00,0.0048
470.00,0.0060
469.00,0.0073
468.00,0.0079
467.00,0.0084
466.00,0.0092
465.00,0.0104
464.00,0.0117
463.00,0.0126
462.00,0.0133
461.00,0.0140
460.00,0.0144
459.00,0.0143
458.00,0.0133
457.00,0.0118
456.00,0.0107
455.00,0.0106
454.00,0.0111
453.00,0.0117
452.00,0.0118
451.00,0.0113
450.00,0.0105
