Created as New Dataset,Sample 005 By Administrator Date Wednesday, September 10 2025
cm-1,A
4000.00,0.0012
3999.00,0.0011
3998.00,0.0011
3997.00,0.0011
3996.00,0.0011
3995.00,0.0011
3994.00,0.0011
3993.00,0.0012
3992.00,0.0012
3991.00,0.0012
3990.00,0.0012
3989.00,0.0011
3988.00,0.0011
3987.00,0.0011
3986.00,0.0011
3985.00,0.0010
3984.00,0.0010
3983.00,0.0010
3982.00,0.0010
3981.00,0.0010
3980.00,0.0010
3979.00,0.0010
3978.00,0.0010
3977.00,0.0010
3976.00,0.0010
3975.00,0.0010
3974.00,0.0009
3973.00,0.0009
3972.00,0.0009
3971.00,0.0009
3970.00,0.0010
3969.00,0.0010
3968.00,0.0010
3967.00,0.0010
3966.00,0.0010
3965.00,0.0010
3964.00,0.0010
3963.00,0.0010
3962.00,0.0010
3961.00,0.0010
3960.00,0.0010
3959.00,0.0010
3958.00,0.0009
3957.00,0.0009
3956.00,0.0009
3955.00,0.0009
3954.00,0.0009
3953.00,0.0010
3952.00,0.0010
3951.00,0.0010
3950.00,0.0011
3949.00,0.0011
3948.00,0.0011
3947.00,0.0011
3946.00,0.0011
3945.00,0.0011
3944.00,0.0011
3943.00,0.0011
3942.00,0.0011
3941.00,0.0011
3940.00,0.0011
3939.00,0.0011
3938.00,0.0010
3937.00,0.0010
3936.00,0.0010
3935.00,0.0011
3934.00,0.0011
3933.00,0.0011
3932.00,0.0010
3931.00,0.0010
3930.00,0.0010
3929.00,0.0010
3928.00,0.0010
3927.00,0.0010
3926.00,0.0010
3925.00,0.0011
3924.00,0.0011
3923.00,0.0011
3922.00,0.0010
3921.00,0.0010
3920.00,0.0010
3919.00,0.0010
3918.00,0.0010
3917.00,0.0010
3916.00,0.0010
3915.00,0.0010
3914.00,0.0009
3913.00,0.0009
3912.00,0.0009
3911.00,0.0009
3910.00,0.0008
3909.00,0.0008
3908.00,0.0009
3907.00,0.0009
3906.00,0.0010
3905.00,0.0011
3904.00,0.0012
3903.00,0.0012
3902.00,0.0012
3901.00,0.0012
3900.00,0.0011
3899.00,0.0011
3898.00,0.0010
3897.00,0.0010
3896.00,0.0010
3895.00,0.0010
3894.00,0.0010
3893.00,0.0009
3892.00,0.0009
3891.00,0.0009
3890.00,0.0009
3889.00,0.0009
3888.00,0.0009
3887.00,0.0010
3886.00,0.0010
3885.00,0.0010
3884.00,0.0010
3883.00,0.0010
3882.00,0.0010
3881.00,0.0010
3880.00,0.0009
3879.00,0.0009
3878.00,0.0009
3877.00,0.0009
3876.00,0.0010
3875.00,0.0010
3874.00,0.0010
3873.00,0.0011
3872.00,0.0011
3871.00,0.0011
3870.00,0.0010
3869.00,0.0010
3868.00,0.0010
3867.00,0.0009
3866.00,0.0009
3865.00,0.0009
3864.00,0.0009
3863.00,0.0009
3862.00,0.0009
3861.00,0.0009
3860.00,0.0009
3859.00,0.0009
3858.00,0.0009
3857.00,0.0010
3856.00,0.0010
3855.00,0.0011
3854.00,0.0012
3853.00,0.0011
3852.00,0.0011
3851.00,0.0011
3850.00,0.0010
3849.00,0.0010
3848.00,0.0009
3847.00,0.0009
3846.00,0.0009
3845.00,0.0009
3844.00,0.0009
3843.00,0.0009
3842.00,0.0009
3841.00,0.0009
3840.00,0.0009
3839.00,0.0009
3838.00,0.0009
3837.00,0.0009
3836.00,0.0010
3835.00,0.0010
3834.00,0.0010
3833.00,0.0010
3832.00,0.0009
3831.00,0.0009
3830.00,0.0009
3829.00,0.0009
3828.00,0.0009
3827.00,0.0010
3826.00,0.0009
3825.00,0.0009
3824.00,0.0009
3823.00,0.0009
3822.00,0.0009
3821.00,0.0009
3820.00,0.0009
3819.00,0.0009
3818.00,0.0010
3817.00,0.0010
3816.00,0.0010
3815.00,0.0010
3814.00,0.0011
3813.00,0.0011
3812.00,0.0011
3811.00,0.0011
3810.00,0.0010
3809.00,0.0010
3808.00,0.0010
3807.00,0.0009
3806.00,0.0009
3805.00,0.0009
3804.00,0.0009
3803.00,0.0009
3802.00,0.0009
3801.00,0.0009
3800.00,0.0009
3799.00,0.0010
3798.00,0.0010
3797.00,0.0010
3796.00,0.0009
3795.00,0.0009
3794.00,0.0009
3793.00,0.0009
3792.00,0.0009
3791.00,0.0009
3790.00,0.0009
3789.00,0.0009
3788.00,0.0009
3787.00,0.0009
3786.00,0.0009
3785.00,0.0010
3784.00,0.0010
3783.00,0.0009
3782.00,0.0009
3781.00,0.0009
3780.00,0.0009
3779.00,0.0009
3778.00,0.0009
3777.00,0.0009
3776.00,0.0009
3775.00,0.0009
3774.00,0.0009
3773.00,0.0009
3772.00,0.0009
3771.00,0.0009
3770.00,0.0009
3769.00,0.0009
3768.00,0.0010
3767.00,0.0010
3766.00,0.0010
3765.00,0.0010
3764.00,0.0010
3763.00,0.0011
3762.00,0.0011
3761.00,0.0011
3760.00,0.0011
3759.00,0.0010
3758.00,0.0010
3757.00,0.0010
3756.00,0.0011
3755.00,0.0011
3754.00,0.0011
3753.00,0.0011
3752.00,0.0010
3751.00,0.0010
3750.00,0.0010
3749.00,0.0010
3748.00,0.0011
3747.00,0.0011
3746.00,0.0011
3745.00,0.0012
3744.00,0.0011
3743.00,0.0011
3742.00,0.0010
3741.00,0.0010
3740.00,0.0010
3739.00,0.0010
3738.00,0.0010
3737.00,0.0010
3736.00,0.0010
3735.00,0.0010
3734.00,0.0010
3733.00,0.0010
3732.00,0.0010
3731.00,0.0009
3730.00,0.0010
3729.00,0.0010
3728.00,0.0010
3727.00,0.0010
3726.00,0.0009
3725.00,0.0009
3724.00,0.0008
3723.00,0.0008
3722.00,0.0008
3721.00,0.0008
3720.00,0.0009
3719.00,0.0009
3718.00,0.0009
3717.00,0.0009
3716.00,0.0009
3715.00,0.0009
3714.00,0.0008
3713.00,0.0008
3712.00,0.0008
3711.00,0.0008
3710.00,0.0009
3709.00,0.0010
3708.00,0.0010
3707.00,0.0010
3706.00,0.0010
3705.00,0.0009
3704.00,0.0009
3703.00,0.0008
3702.00,0.0008
3701.00,0.0009
3700.00,0.0009
3699.00,0.0009
3698.00,0.0009
3697.00,0.0009
3696.00,0.0008
3695.00,0.0008
3694.00,0.0008
3693.00,0.0008
3692.00,0.0009
3691.00,0.0009
3690.00,0.0009
3689.00,0.0009
3688.00,0.0009
3687.00,0.0009
3686.00,0.0009
3685.00,0.0009
3684.00,0.0009
3683.00,0.0009
3682.00,0.0009
3681.00,0.0010
3680.00,0.0010
3679.00,0.0010
3678.00,0.0010
3677.00,0.0011
3676.00,0.0011
3675.00,0.0012
3674.00,0.0013
3673.00,0.0013
3672.00,0.0014
3671.00,0.0013
3670.00,0.0013
3669.00,0.0012
3668.00,0.0012
3667.00,0.0012
3666.00,0.0011
3665.00,0.0012
3664.00,0.0012
3663.00,0.0012
3662.00,0.0012
3661.00,0.0012
3660.00,0.0012
3659.00,0.0012
3658.00,0.0012
3657.00,0.0012
3656.00,0.0012
3655.00,0.0012
3654.00,0.0013
3653.00,0.0013
3652.00,0.0013
3651.00,0.0012
3650.00,0.0012
3649.00,0.0013
3648.00,0.0014
3647.00,0.0015
3646.00,0.0015
3645.00,0.0015
3644.00,0.0015
3643.00,0.0014
3642.00,0.0014
3641.00,0.0014
3640.00,0.0014
3639.00,0.0014
3638.00,0.0014
3637.00,0.0015
3636.00,0.0015
3635.00,0.0016
3634.00,0.0016
3633.00,0.0016
3632.00,0.0016
3631.00,0.0015
3630.00,0.0015
3629.00,0.0015
3628.00,0.0015
3627.00,0.0015
3626.00,0.0015
3625.00,0.0015
3624.00,0.0015
3623.00,0.0016
3622.00,0.0016
3621.00,0.0016
3620.00,0.0016
3619.00,0.0017
3618.00,0.0017
3617.00,0.0018
3616.00,0.0018
3615.00,0.0019
3614.00,0.0019
3613.00,0.0020
3612.00,0.0020
3611.00,0.0021
3610.00,0.0021
3609.00,0.0021
3608.00,0.0021
3607.00,0.0021
3606.00,0.0021
3605.00,0.0021
3604.00,0.0021
3603.00,0.0021
3602.00,0.0021
3601.00,0.0021
3600.00,0.0022
3599.00,0.0022
3598.00,0.0023
3597.00,0.0023
3596.00,0.0024
3595.00,0.0024
3594.00,0.0024
3593.00,0.0024
3592.00,0.0023
3591.00,0.0023
3590.00,0.0023
3589.00,0.0024
3588.00,0.0025
3587.00,0.0026
3586.00,0.0026
3585.00,0.0027
3584.00,0.0028
3583.00,0.0028
3582.00,0.0027
3581.00,0.0027
3580.00,0.0027
3579.00,0.0027
3578.00,0.0028
3577.00,0.0028
3576.00,0.0029
3575.00,0.0029
3574.00,0.0030
3573.00,0.0030
3572.00,0.0030
3571.00,0.0030
3570.00,0.0031
3569.00,0.0032
3568.00,0.0033
3567.00,0.0034
3566.00,0.0034
3565.00,0.0035
3564.00,0.0035
3563.00,0.0035
3562.00,0.0035
3561.00,0.0035
3560.00,0.0035
3559.00,0.0035
3558.00,0.0036
3557.00,0.0036
3556.00,0.0037
3555.00,0.0038
3554.00,0.0039
3553.00,0.0039
3552.00,0.0039
3551.00,0.0040
3550.00,0.0040
3549.00,0.0041
3548.00,0.0042
3547.00,0.0042
3546.00,0.0043
3545.00,0.0044
3544.00,0.0044
3543.00,0.0045
3542.00,0.0045
3541.00,0.0045
3540.00,0.0045
3539.00,0.0045
3538.00,0.0045
3537.00,0.0046
3536.00,0.0046
3535.00,0.0047
3534.00,0.0048
3533.00,0.0048
3532.00,0.0048
3531.00,0.0049
3530.00,0.0049
3529.00,0.0050
3528.00,0.0050
3527.00,0.0051
3526.00,0.0051
3525.00,0.0052
3524.00,0.0052
3523.00,0.0053
3522.00,0.0053
3521.00,0.0053
3520.00,0.0054
3519.00,0.0054
3518.00,0.0054
3517.00,0.0054
3516.00,0.0055
3515.00,0.0055
3514.00,0.0056
3513.00,0.0056
3512.00,0.0057
3511.00,0.0058
3510.00,0.0058
3509.00,0.0059
3508.00,0.0059
3507.00,0.0060
3506.00,0.0060
3505.00,0.0061
3504.00,0.0061
3503.00,0.0061
3502.00,0.0062
3501.00,0.0062
3500.00,0.0063
3499.00,0.0063
3498.00,0.0063
3497.00,0.0063
3496.00,0.0064
3495.00,0.0064
3494.00,0.0065
3493.00,0.0066
3492.00,0.0067
3491.00,0.0067
3490.00,0.0067
3489.00,0.0068
3488.00,0.0068
3487.00,0.0069
3486.00,0.0069
3485.00,0.0070
3484.00,0.0070
3483.00,0.0070
3482.00,0.0071
3481.00,0.0071
3480.00,0.0072
3479.00,0.0072
3478.00,0.0073
3477.00,0.0073
3476.00,0.0073
3475.00,0.0074
3474.00,0.0074
3473.00,0.0075
3472.00,0.0075
3471.00,0.0075
3470.00,0.0076
3469.00,0.0077
3468.00,0.0077
3467.00,0.0078
3466.00,0.0078
3465.00,0.0078
3464.00,0.0079
3463.00,0.0079
3462.00,0.0079
3461.00,0.0080
3460.00,0.0080
3459.00,0.0081
3458.00,0.0081
3457.00,0.0082
3456.00,0.0082
3455.00,0.0083
3454.00,0.0083
3453.00,0.0083
3452.00,0.0084
3451.00,0.0084
3450.00,0.0084
3449.00,0.0084
3448.00,0.0085
3447.00,0.0085
3446.00,0.0086
3445.00,0.0086
3444.00,0.0087
3443.00,0.0087
3442.00,0.0087
3441.00,0.0087
3440.00,0.0087
3439.00,0.0088
3438.00,0.0088
3437.00,0.0089
3436.00,0.0090
3435.00,0.0090
3434.00,0.0091
3433.00,0.0091
3432.00,0.0092
3431.00,0.0092
3430.00,0.0092
3429.00,0.0093
3428.00,0.0093
3427.00,0.0094
3426.00,0.0094
3425.00,0.0094
3424.00,0.0094
3423.00,0.0094
3422.00,0.0095
3421.00,0.0095
3420.00,0.0096
3419.00,0.0096
3418.00,0.0096
3417.00,0.0096
3416.00,0.0096
3415.00,0.0097
3414.00,0.0097
3413.00,0.0097
3412.00,0.0098
3411.00,0.0099
3410.00,0.0099
3409.00,0.0099
3408.00,0.0099
3407.00,0.0099
3406.00,0.0099
3405.00,0.0100
3404.00,0.0100
3403.00,0.0101
3402.00,0.0101
3401.00,0.0101
3400.00,0.0101
3399.00,0.0101
3398.00,0.0101
3397.00,0.0102
3396.00,0.0102
3395.00,0.0102
3394.00,0.0103
3393.00,0.0103
3392.00,0.0103
3391.00,0.0103
3390.00,0.0103
3389.00,0.0103
3388.00,0.0103
3387.00,0.0103
3386.00,0.0103
3385.00,0.0103
3384.00,0.0103
3383.00,0.0103
3382.00,0.0103
3381.00,0.0104
3380.00,0.0104
3379.00,0.0104
3378.00,0.0103
3377.00,0.0103
3376.00,0.0103
3375.00,0.0103
3374.00,0.0104
3373.00,0.0104
3372.00,0.0104
3371.00,0.0104
3370.00,0.0104
3369.00,0.0104
3368.00,0.0104
3367.00,0.0104
3366.00,0.0104
3365.00,0.0104
3364.00,0.0104
3363.00,0.0104
3362.00,0.0105
3361.00,0.0105
3360.00,0.0105
3359.00,0.0106
3358.00,0.0106
3357.00,0.0106
3356.00,0.0106
3355.00,0.0106
3354.00,0.0105
3353.00,0.0105
3352.00,0.0105
3351.00,0.0105
3350.00,0.0105
3349.00,0.0106
3348.00,0.0106
3347.00,0.0106
3346.00,0.0105
3345.00,0.0105
3344.00,0.0105
3343.00,0.0105
3342.00,0.0105
3341.00,0.0105
3340.00,0.0105
3339.00,0.0105
3338.00,0.0105
3337.00,0.0105
3336.00,0.0105
3335.00,0.0105
3334.00,0.0105
3333.00,0.0105
3332.00,0.0105
3331.00,0.0105
3330.00,0.0105
3329.00,0.0104
3328.00,0.0104
3327.00,0.0104
3326.00,0.0104
3325.00,0.0104
3324.00,0.0104
3323.00,0.0103
3322.00,0.0103
3321.00,0.0102
3320.00,0.0102
3319.00,0.0102
3318.00,0.0101
3317.00,0.0101
3316.00,0.0101
3315.00,0.0101
3314.00,0.0101
3313.00,0.0102
3312.00,0.0102
3311.00,0.0101
3310.00,0.0101
3309.00,0.0101
3308.00,0.0101
3307.00,0.0101
3306.00,0.0100
3305.00,0.0100
3304.00,0.0100
3303.00,0.0100
3302.00,0.0100
3301.00,0.0099
3300.00,0.0099
3299.00,0.0099
3298.00,0.0098
3297.00,0.0098
3296.00,0.0098
3295.00,0.0097
3294.00,0.0097
3293.00,0.0097
3292.00,0.0097
3291.00,0.0097
3290.00,0.0097
3289.00,0.0097
3288.00,0.0096
3287.00,0.0096
3286.00,0.0095
3285.00,0.0095
3284.00,0.0096
3283.00,0.0096
3282.00,0.0096
3281.00,0.0096
3280.00,0.0095
3279.00,0.0094
3278.00,0.0094
3277.00,0.0093
3276.00,0.0093
3275.00,0.0092
3274.00,0.0092
3273.00,0.0092
3272.00,0.0092
3271.00,0.0092
3270.00,0.0092
3269.00,0.0091
3268.00,0.0091
3267.00,0.0090
3266.00,0.0089
3265.00,0.0089
3264.00,0.0089
3263.00,0.0088
3262.00,0.0088
3261.00,0.0088
3260.00,0.0087
3259.00,0.0087
3258.00,0.0086
3257.00,0.0086
3256.00,0.0086
3255.00,0.0086
3254.00,0.0086
3253.00,0.0086
3252.00,0.0086
3251.00,0.0086
3250.00,0.0085
3249.00,0.0084
3248.00,0.0084
3247.00,0.0083
3246.00,0.0083
3245.00,0.0083
3244.00,0.0083
3243.00,0.0083
3242.00,0.0083
3241.00,0.0082
3240.00,0.0082
3239.00,0.0082
3238.00,0.0081
3237.00,0.0081
3236.00,0.0081
3235.00,0.0081
3234.00,0.0081
3233.00,0.0081
3232.00,0.0081
3231.00,0.0081
3230.00,0.0081
3229.00,0.0081
3228.00,0.0081
3227.00,0.0081
3226.00,0.0081
3225.00,0.0081
3224.00,0.0081
3223.00,0.0081
3222.00,0.0081
3221.00,0.0081
3220.00,0.0081
3219.00,0.0081
3218.00,0.0081
3217.00,0.0082
3216.00,0.0082
3215.00,0.0083
3214.00,0.0083
3213.00,0.0083
3212.00,0.0083
3211.00,0.0082
3210.00,0.0082
3209.00,0.0082
3208.00,0.0082
3207.00,0.0082
3206.00,0.0082
3205.00,0.0082
3204.00,0.0081
3203.00,0.0081
3202.00,0.0081
3201.00,0.0081
3200.00,0.0081
3199.00,0.0081
3198.00,0.0081
3197.00,0.0082
3196.00,0.0082
3195.00,0.0082
3194.00,0.0081
3193.00,0.0081
3192.00,0.0080
3191.00,0.0080
3190.00,0.0079
3189.00,0.0079
3188.00,0.0079
3187.00,0.0079
3186.00,0.0079
3185.00,0.0078
3184.00,0.0078
3183.00,0.0077
3182.00,0.0077
3181.00,0.0076
3180.00,0.0075
3179.00,0.0075
3178.00,0.0075
3177.00,0.0074
3176.00,0.0074
3175.00,0.0074
3174.00,0.0073
3173.00,0.0073
3172.00,0.0073
3171.00,0.0073
3170.00,0.0072
3169.00,0.0072
3168.00,0.0071
3167.00,0.0071
3166.00,0.0070
3165.00,0.0070
3164.00,0.0070
3163.00,0.0069
3162.00,0.0069
3161.00,0.0069
3160.00,0.0069
3159.00,0.0069
3158.00,0.0069
3157.00,0.0068
3156.00,0.0068
3155.00,0.0068
3154.00,0.0068
3153.00,0.0067
3152.00,0.0067
3151.00,0.0067
3150.00,0.0066
3149.00,0.0066
3148.00,0.0066
3147.00,0.0066
3146.00,0.0066
3145.00,0.0066
3144.00,0.0065
3143.00,0.0065
3142.00,0.0065
3141.00,0.0065
3140.00,0.0064
3139.00,0.0064
3138.00,0.0063
3137.00,0.0063
3136.00,0.0062
3135.00,0.0062
3134.00,0.0062
3133.00,0.0061
3132.00,0.0061
3131.00,0.0061
3130.00,0.0061
3129.00,0.0060
3128.00,0.0060
3127.00,0.0060
3126.00,0.0059
3125.00,0.0058
3124.00,0.0058
3123.00,0.0058
3122.00,0.0057
3121.00,0.0057
3120.00,0.0057
3119.00,0.0056
3118.00,0.0056
3117.00,0.0055
3116.00,0.0055
3115.00,0.0055
3114.00,0.0055
3113.00,0.0055
3112.00,0.0054
3111.00,0.0054
3110.00,0.0053
3109.00,0.0053
3108.00,0.0053
3107.00,0.0052
3106.00,0.0052
3105.00,0.0052
3104.00,0.0052
3103.00,0.0051
3102.00,0.0051
3101.00,0.0051
3100.00,0.0051
3099.00,0.0050
3098.00,0.0051
3097.00,0.0051
3096.00,0.0051
3095.00,0.0050
3094.00,0.0050
3093.00,0.0049
3092.00,0.0049
3091.00,0.0049
3090.00,0.0049
3089.00,0.0049
3088.00,0.0049
3087.00,0.0049
3086.00,0.0048
3085.00,0.0048
3084.00,0.0047
3083.00,0.0046
3082.00,0.0046
3081.00,0.0046
3080.00,0.0046
3079.00,0.0046
3078.00,0.0046
3077.00,0.0046
3076.00,0.0047
3075.00,0.0047
3074.00,0.0047
3073.00,0.0047
3072.00,0.0047
3071.00,0.0047
3070.00,0.0047
3069.00,0.0047
3068.00,0.0047
3067.00,0.0047
3066.00,0.0047
3065.00,0.0047
3064.00,0.0047
3063.00,0.0047
3062.00,0.0048
3061.00,0.0048
3060.00,0.0048
3059.00,0.0048
3058.00,0.0048
3057.00,0.0048
3056.00,0.0048
3055.00,0.0048
3054.00,0.0048
3053.00,0.0047
3052.00,0.0047
3051.00,0.0047
3050.00,0.0047
3049.00,0.0047
3048.00,0.0048
3047.00,0.0048
3046.00,0.0049
3045.00,0.0049
3044.00,0.0049
3043.00,0.0049
3042.00,0.0049
3041.00,0.0050
3040.00,0.0050
3039.00,0.0050
3038.00,0.0051
3037.00,0.0051
3036.00,0.0052
3035.00,0.0052
3034.00,0.0052
3033.00,0.0053
3032.00,0.0053
3031.00,0.0054
3030.00,0.0054
3029.00,0.0054
3028.00,0.0055
3027.00,0.0055
3026.00,0.0055
3025.00,0.0056
3024.00,0.0056
3023.00,0.0057
3022.00,0.0057
3021.00,0.0058
3020.00,0.0059
3019.00,0.0060
3018.00,0.0061
3017.00,0.0062
3016.00,0.0063
3015.00,0.0064
3014.00,0.0065
3013.00,0.0067
3012.00,0.0068
3011.00,0.0070
3010.00,0.0072
3009.00,0.0074
3008.00,0.0075
3007.00,0.0077
3006.00,0.0079
3005.00,0.0081
3004.00,0.0083
3003.00,0.0086
3002.00,0.0088
3001.00,0.0091
3000.00,0.0094
2999.00,0.0098
2998.00,0.0101
2997.00,0.0104
2996.00,0.0108
2995.00,0.0113
2994.00,0.0118
2993.00,0.0123
2992.00,0.0129
2991.00,0.0136
2990.00,0.0142
2989.00,0.0150
2988.00,0.0158
2987.00,0.0168
2986.00,0.0179
2985.00,0.0192
2984.00,0.0206
2983.00,0.0221
2982.00,0.0238
2981.00,0.0256
2980.00,0.0276
2979.00,0.0299
2978.00,0.0324
2977.00,0.0354
2976.00,0.0387
2975.00,0.0426
2974.00,0.0470
2973.00,0.0521
2972.00,0.0578
2971.00,0.0642
2970.00,0.0714
2969.00,0.0793
2968.00,0.0880
2967.00,0.0975
2966.00,0.1077
2965.00,0.1183
2964.00,0.1292
2963.00,0.1398
2962.00,0.1497
2961.00,0.1585
2960.00,0.1658
2959.00,0.1716
2958.00,0.1760
2957.00,0.1794
2956.00,0.1823
2955.00,0.1852
2954.00,0.1883
2953.00,0.1916
2952.00,0.1944
2951.00,0.1961
2950.00,0.1957
2949.00,0.1925
2948.00,0.1861
2947.00,0.1766
2946.00,0.1649
2945.00,0.1521
2944.00,0.1395
2943.00,0.1283
2942.00,0.1193
2941.00,0.1127
2940.00,0.1086
2939.00,0.1068
2938.00,0.1071
2937.00,0.1091
2936.00,0.1128
2935.00,0.1179
2934.00,0.1243
2933.00,0.1319
2932.00,0.1404
2931.00,0.1495
2930.00,0.1591
2929.00,0.1688
2928.00,0.1783
2927.00,0.1873
2926.00,0.1958
2925.00,0.2036
2924.00,0.2109
2923.00,0.2180
2922.00,0.2247
2921.00,0.2310
2920.00,0.2364
2919.00,0.2406
2918.00,0.2429
2917.00,0.2429
2916.00,0.2404
2915.00,0.2357
2914.00,0.2293
2913.00,0.2221
2912.00,0.2147
2911.00,0.2075
2910.00,0.2008
2909.00,0.1946
2908.00,0.1887
2907.00,0.1829
2906.00,0.1771
2905.00,0.1710
2904.00,0.1647
2903.00,0.1581
2902.00,0.1514
2901.00,0.1447
2900.00,0.1381
2899.00,0.1319
2898.00,0.1260
2897.00,0.1206
2896.00,0.1159
2895.00,0.1119
2894.00,0.1086
2893.00,0.1060
2892.00,0.1040
2891.00,0.1027
2890.00,0.1020
2889.00,0.1017
2888.00,0.1018
2887.00,0.1023
2886.00,0.1032
2885.00,0.1044
2884.00,0.1060
2883.00,0.1081
2882.00,0.1106
2881.00,0.1133
2880.00,0.1159
2879.00,0.1182
2878.00,0.1197
2877.00,0.1204
2876.00,0.1201
2875.00,0.1194
2874.00,0.1186
2873.00,0.1182
2872.00,0.1185
2871.00,0.1194
2870.00,0.1209
2869.00,0.1225
2868.00,0.1235
2867.00,0.1230
2866.00,0.1206
2865.00,0.1158
2864.00,0.1089
2863.00,0.1007
2862.00,0.0922
2861.00,0.0841
2860.00,0.0771
2859.00,0.0715
2858.00,0.0673
2857.00,0.0642
2856.00,0.0622
2855.00,0.0609
2854.00,0.0603
2853.00,0.0603
2852.00,0.0608
2851.00,0.0619
2850.00,0.0636
2849.00,0.0659
2848.00,0.0690
2847.00,0.0729
2846.00,0.0778
2845.00,0.0835
2844.00,0.0901
2843.00,0.0975
2842.00,0.1051
2841.00,0.1126
2840.00,0.1190
2839.00,0.1235
2838.00,0.1252
2837.00,0.1234
2836.00,0.1180
2835.00,0.1096
2834.00,0.0992
2833.00,0.0879
2832.00,0.0769
2831.00,0.0671
2830.00,0.0587
2829.00,0.0518
2828.00,0.0463
2827.00,0.0418
2826.00,0.0382
2825.00,0.0352
2824.00,0.0326
2823.00,0.0305
2822.00,0.0287
2821.00,0.0272
2820.00,0.0259
2819.00,0.0247
2818.00,0.0237
2817.00,0.0228
2816.00,0.0220
2815.00,0.0213
2814.00,0.0208
2813.00,0.0202
2812.00,0.0197
2811.00,0.0191
2810.00,0.0186
2809.00,0.0180
2808.00,0.0174
2807.00,0.0168
2806.00,0.0162
2805.00,0.0155
2804.00,0.0149
2803.00,0.0143
2802.00,0.0137
2801.00,0.0132
2800.00,0.0129
2799.00,0.0126
2798.00,0.0123
2797.00,0.0121
2796.00,0.0119
2795.00,0.0116
2794.00,0.0113
2793.00,0.0110
2792.00,0.0107
2791.00,0.0103
2790.00,0.0100
2789.00,0.0096
2788.00,0.0093
2787.00,0.0091
2786.00,0.0088
2785.00,0.0085
2784.00,0.0083
2783.00,0.0080
2782.00,0.0078
2781.00,0.0076
2780.00,0.0074
2779.00,0.0072
2778.00,0.0071
2777.00,0.0069
2776.00,0.0068
2775.00,0.0067
2774.00,0.0066
2773.00,0.0065
2772.00,0.0065
2771.00,0.0064
2770.00,0.0064
2769.00,0.0064
2768.00,0.0063
2767.00,0.0063
2766.00,0.0062
2765.00,0.0062
2764.00,0.0061
2763.00,0.0061
2762.00,0.0060
2761.00,0.0060
2760.00,0.0059
2759.00,0.0059
2758.00,0.0059
2757.00,0.0059
2756.00,0.0059
2755.00,0.0058
2754.00,0.0059
2753.00,0.0059
2752.00,0.0059
2751.00,0.0058
2750.00,0.0058
2749.00,0.0058
2748.00,0.0058
2747.00,0.0058
2746.00,0.0059
2745.00,0.0059
2744.00,0.0060
2743.00,0.0061
2742.00,0.0063
2741.00,0.0064
2740.00,0.0065
2739.00,0.0066
2738.00,0.0068
2737.00,0.0069
2736.00,0.0070
2735.00,0.0071
2734.00,0.0072
2733.00,0.0074
2732.00,0.0076
2731.00,0.0078
2730.00,0.0080
2729.00,0.0082
2728.00,0.0085
2727.00,0.0087
2726.00,0.0090
2725.00,0.0092
2724.00,0.0094
2723.00,0.0094
2722.00,0.0094
2721.00,0.0092
2720.00,0.0089
2719.00,0.0085
2718.00,0.0082
2717.00,0.0078
2716.00,0.0076
2715.00,0.0073
2714.00,0.0071
2713.00,0.0069
2712.00,0.0067
2711.00,0.0065
2710.00,0.0063
2709.00,0.0061
2708.00,0.0060
2707.00,0.0058
2706.00,0.0057
2705.00,0.0056
2704.00,0.0055
2703.00,0.0054
2702.00,0.0053
2701.00,0.0053
2700.00,0.0052
2699.00,0.0052
2698.00,0.0051
2697.00,0.0051
2696.00,0.0051
2695.00,0.0051
2694.00,0.0051
2693.00,0.0051
2692.00,0.0051
2691.00,0.0051
2690.00,0.0052
2689.00,0.0052
2688.00,0.0051
2687.00,0.0051
2686.00,0.0051
2685.00,0.0051
2684.00,0.0051
2683.00,0.0051
2682.00,0.0051
2681.00,0.0051
2680.00,0.0051
2679.00,0.0051
2678.00,0.0051
2677.00,0.0051
2676.00,0.0051
2675.00,0.0051
2674.00,0.0050
2673.00,0.0050
2672.00,0.0050
2671.00,0.0050
2670.00,0.0050
2669.00,0.0050
2668.00,0.0049
2667.00,0.0049
2666.00,0.0050
2665.00,0.0050
2664.00,0.0051
2663.00,0.0051
2662.00,0.0052
2661.00,0.0053
2660.00,0.0053
2659.00,0.0053
2658.00,0.0052
2657.00,0.0052
2656.00,0.0051
2655.00,0.0050
2654.00,0.0050
2653.00,0.0049
2652.00,0.0049
2651.00,0.0048
2650.00,0.0047
2649.00,0.0047
2648.00,0.0046
2647.00,0.0046
2646.00,0.0046
2645.00,0.0046
2644.00,0.0046
2643.00,0.0046
2642.00,0.0046
2641.00,0.0045
2640.00,0.0044
2639.00,0.0043
2638.00,0.0042
2637.00,0.0041
2636.00,0.0041
2635.00,0.0041
2634.00,0.0042
2633.00,0.0042
2632.00,0.0043
2631.00,0.0043
2630.00,0.0043
2629.00,0.0043
2628.00,0.0043
2627.00,0.0044
2626.00,0.0044
2625.00,0.0044
2624.00,0.0044
2623.00,0.0044
2622.00,0.0044
2621.00,0.0044
2620.00,0.0044
2619.00,0.0044
2618.00,0.0044
2617.00,0.0044
2616.00,0.0045
2615.00,0.0044
2614.00,0.0044
2613.00,0.0043
2612.00,0.0043
2611.00,0.0042
2610.00,0.0041
2609.00,0.0041
2608.00,0.0040
2607.00,0.0040
2606.00,0.0039
2605.00,0.0038
2604.00,0.0038
2603.00,0.0037
2602.00,0.0036
2601.00,0.0036
2600.00,0.0036
2599.00,0.0036
2598.00,0.0035
2597.00,0.0035
2596.00,0.0036
2595.00,0.0036
2594.00,0.0036
2593.00,0.0036
2592.00,0.0036
2591.00,0.0036
2590.00,0.0037
2589.00,0.0038
2588.00,0.0040
2587.00,0.0041
2586.00,0.0041
2585.00,0.0042
2584.00,0.0042
2583.00,0.0042
2582.00,0.0042
2581.00,0.0042
2580.00,0.0041
2579.00,0.0041
2578.00,0.0040
2577.00,0.0040
2576.00,0.0039
2575.00,0.0038
2574.00,0.0037
2573.00,0.0036
2572.00,0.0036
2571.00,0.0035
2570.00,0.0033
2569.00,0.0032
2568.00,0.0031
2567.00,0.0030
2566.00,0.0029
2565.00,0.0029
2564.00,0.0028
2563.00,0.0028
2562.00,0.0028
2561.00,0.0028
2560.00,0.0027
2559.00,0.0027
2558.00,0.0027
2557.00,0.0027
2556.00,0.0027
2555.00,0.0027
2554.00,0.0027
2553.00,0.0027
2552.00,0.0026
2551.00,0.0025
2550.00,0.0024
2549.00,0.0024
2548.00,0.0024
2547.00,0.0024
2546.00,0.0023
2545.00,0.0023
2544.00,0.0022
2543.00,0.0022
2542.00,0.0022
2541.00,0.0022
2540.00,0.0021
2539.00,0.0021
2538.00,0.0020
2537.00,0.0020
2536.00,0.0019
2535.00,0.0020
2534.00,0.0020
2533.00,0.0020
2532.00,0.0020
2531.00,0.0020
2530.00,0.0019
2529.00,0.0018
2528.00,0.0018
2527.00,0.0019
2526.00,0.0019
2525.00,0.0019
2524.00,0.0019
2523.00,0.0018
2522.00,0.0018
2521.00,0.0018
2520.00,0.0018
2519.00,0.0018
2518.00,0.0017
2517.00,0.0017
2516.00,0.0016
2515.00,0.0016
2514.00,0.0016
2513.00,0.0015
2512.00,0.0015
2511.00,0.0014
2510.00,0.0015
2509.00,0.0015
2508.00,0.0015
2507.00,0.0016
2506.00,0.0016
2505.00,0.0016
2504.00,0.0015
2503.00,0.0014
2502.00,0.0014
2501.00,0.0014
2500.00,0.0014
2499.00,0.0014
2498.00,0.0014
2497.00,0.0014
2496.00,0.0014
2495.00,0.0014
2494.00,0.0014
2493.00,0.0015
2492.00,0.0015
2491.00,0.0016
2490.00,0.0016
2489.00,0.0015
2488.00,0.0015
2487.00,0.0014
2486.00,0.0014
2485.00,0.0013
2484.00,0.0013
2483.00,0.0013
2482.00,0.0013
2481.00,0.0013
2480.00,0.0013
2479.00,0.0013
2478.00,0.0012
2477.00,0.0012
2476.00,0.0013
2475.00,0.0013
2474.00,0.0013
2473.00,0.0013
2472.00,0.0013
2471.00,0.0013
2470.00,0.0013
2469.00,0.0013
2468.00,0.0013
2467.00,0.0013
2466.00,0.0013
2465.00,0.0013
2464.00,0.0013
2463.00,0.0013
2462.00,0.0013
2461.00,0.0014
2460.00,0.0014
2459.00,0.0014
2458.00,0.0014
2457.00,0.0014
2456.00,0.0014
2455.00,0.0014
2454.00,0.0014
2453.00,0.0014
2452.00,0.0014
2451.00,0.0015
2450.00,0.0014
2449.00,0.0014
2448.00,0.0014
2447.00,0.0014
2446.00,0.0014
2445.00,0.0013
2444.00,0.0013
2443.00,0.0013
2442.00,0.0013
2441.00,0.0013
2440.00,0.0013
2439.00,0.0014
2438.00,0.0014
2437.00,0.0014
2436.00,0.0014
2435.00,0.0015
2434.00,0.0015
2433.00,0.0016
2432.00,0.0016
2431.00,0.0016
2430.00,0.0016
2429.00,0.0016
2428.00,0.0016
2427.00,0.0016
2426.00,0.0016
2425.00,0.0016
2424.00,0.0016
2423.00,0.0016
2422.00,0.0015
2421.00,0.0014
2420.00,0.0014
2419.00,0.0014
2418.00,0.0014
2417.00,0.0014
2416.00,0.0013
2415.00,0.0013
2414.00,0.0013
2413.00,0.0013
2412.00,0.0012
2411.00,0.0012
2410.00,0.0013
2409.00,0.0013
2408.00,0.0013
2407.00,0.0013
2406.00,0.0013
2405.00,0.0012
2404.00,0.0012
2403.00,0.0012
2402.00,0.0012
2401.00,0.0013
2400.00,0.0013
2399.00,0.0013
2398.00,0.0013
2397.00,0.0013
2396.00,0.0013
2395.00,0.0013
2394.00,0.0012
2393.00,0.0012
2392.00,0.0012
2391.00,0.0011
2390.00,0.0011
2389.00,0.0011
2388.00,0.0011
2387.00,0.0011
2386.00,0.0011
2385.00,0.0011
2384.00,0.0011
2383.00,0.0010
2382.00,0.0010
2381.00,0.0010
2380.00,0.0010
2379.00,0.0010
2378.00,0.0009
2377.00,0.0010
2376.00,0.0010
2375.00,0.0010
2374.00,0.0010
2373.00,0.0009
2372.00,0.0009
2371.00,0.0009
2370.00,0.0009
2369.00,0.0008
2368.00,0.0008
2367.00,0.0008
2366.00,0.0008
2365.00,0.0009
2364.00,0.0010
2363.00,0.0010
2362.00,0.0010
2361.00,0.0010
2360.00,0.0010
2359.00,0.0009
2358.00,0.0009
2357.00,0.0009
2356.00,0.0008
2355.00,0.0008
2354.00,0.0007
2353.00,0.0007
2352.00,0.0006
2351.00,0.0006
2350.00,0.0006
2349.00,0.0007
2348.00,0.0010
2347.00,0.0012
2346.00,0.0013
2345.00,0.0013
2344.00,0.0012
2343.00,0.0011
2342.00,0.0010
2341.00,0.0010
2340.00,0.0010
2339.00,0.0010
2338.00,0.0010
2337.00,0.0011
2336.00,0.0011
2335.00,0.0011
2334.00,0.0011
2333.00,0.0010
2332.00,0.0009
2331.00,0.0007
2330.00,0.0007
2329.00,0.0008
2328.00,0.0010
2327.00,0.0014
2326.00,0.0019
2325.00,0.0022
2324.00,0.0024
2323.00,0.0022
2322.00,0.0020
2321.00,0.0017
2320.00,0.0015
2319.00,0.0014
2318.00,0.0014
2317.00,0.0013
2316.00,0.0013
2315.00,0.0013
2314.00,0.0013
2313.00,0.0012
2312.00,0.0012
2311.00,0.0012
2310.00,0.0013
2309.00,0.0013
2308.00,0.0013
2307.00,0.0012
2306.00,0.0012
2305.00,0.0012
2304.00,0.0013
2303.00,0.0013
2302.00,0.0014
2301.00,0.0014
2300.00,0.0015
2299.00,0.0016
2298.00,0.0017
2297.00,0.0018
2296.00,0.0018
2295.00,0.0018
2294.00,0.0018
2293.00,0.0018
2292.00,0.0020
2291.00,0.0021
2290.00,0.0021
2289.00,0.0021
2288.00,0.0021
2287.00,0.0022
2286.00,0.0023
2285.00,0.0023
2284.00,0.0022
2283.00,0.0020
2282.00,0.0019
2281.00,0.0018
2280.00,0.0018
2279.00,0.0017
2278.00,0.0017
2277.00,0.0018
2276.00,0.0018
2275.00,0.0018
2274.00,0.0018
2273.00,0.0017
2272.00,0.0016
2271.00,0.0016
2270.00,0.0016
2269.00,0.0017
2268.00,0.0017
2267.00,0.0016
2266.00,0.0015
2265.00,0.0013
2264.00,0.0012
2263.00,0.0011
2262.00,0.0012
2261.00,0.0013
2260.00,0.0015
2259.00,0.0016
2258.00,0.0016
2257.00,0.0015
2256.00,0.0014
2255.00,0.0012
2254.00,0.0012
2253.00,0.0012
2252.00,0.0013
2251.00,0.0012
2250.00,0.0011
2249.00,0.0010
2248.00,0.0009
2247.00,0.0009
2246.00,0.0010
2245.00,0.0012
2244.00,0.0014
2243.00,0.0014
2242.00,0.0013
2241.00,0.0012
2240.00,0.0011
2239.00,0.0010
2238.00,0.0010
2237.00,0.0011
2236.00,0.0013
2235.00,0.0015
2234.00,0.0016
2233.00,0.0016
2232.00,0.0016
2231.00,0.0015
2230.00,0.0014
2229.00,0.0014
2228.00,0.0014
2227.00,0.0013
2226.00,0.0013
2225.00,0.0012
2224.00,0.0010
2223.00,0.0008
2222.00,0.0007
2221.00,0.0007
2220.00,0.0009
2219.00,0.0010
2218.00,0.0009
2217.00,0.0008
2216.00,0.0007
2215.00,0.0007
2214.00,0.0007
2213.00,0.0007
2212.00,0.0008
2211.00,0.0008
2210.00,0.0007
2209.00,0.0005
2208.00,0.0003
2207.00,0.0004
2206.00,0.0006
2205.00,0.0009
2204.00,0.0011
2203.00,0.0011
2202.00,0.0011
2201.00,0.0011
2200.00,0.0012
2199.00,0.0014
2198.00,0.0015
2197.00,0.0016
2196.00,0.0017
2195.00,0.0018
2194.00,0.0018
2193.00,0.0017
2192.00,0.0014
2191.00,0.0011
2190.00,0.0008
2189.00,0.0005
2188.00,0.0004
2187.00,0.0005
2186.00,0.0008
2185.00,0.0010
2184.00,0.0012
2183.00,0.0011
2182.00,0.0009
2181.00,0.0009
2180.00,0.0010
2179.00,0.0011
2178.00,0.0011
2177.00,0.0011
2176.00,0.0011
2175.00,0.0011
2174.00,0.0011
2173.00,0.0011
2172.00,0.0011
2171.00,0.0012
2170.00,0.0014
2169.00,0.0016
2168.00,0.0017
2167.00,0.0018
2166.00,0.0018
2165.00,0.0018
2164.00,0.0020
2163.00,0.0022
2162.00,0.0023
2161.00,0.0020
2160.00,0.0012
2159.00,0.0001
2158.00,-0.0009
2157.00,-0.0015
2156.00,-0.0017
2155.00,-0.0018
2154.00,-0.0018
2153.00,-0.0017
2152.00,-0.0016
2151.00,-0.0014
2150.00,-0.0010
2149.00,-0.0007
2148.00,-0.0005
2147.00,-0.0005
2146.00,-0.0006
2145.00,-0.0006
2144.00,-0.0005
2143.00,-0.0006
2142.00,-0.0006
2141.00,-0.0006
2140.00,-0.0005
2139.00,-0.0003
2138.00,-0.0003
2137.00,-0.0004
2136.00,-0.0006
2135.00,-0.0009
2134.00,-0.0011
2133.00,-0.0011
2132.00,-0.0010
2131.00,-0.0008
2130.00,-0.0006
2129.00,-0.0004
2128.00,-0.0003
2127.00,-0.0003
2126.00,-0.0002
2125.00,-0.0001
2124.00,0.0000
2123.00,0.0001
2122.00,0.0001
2121.00,0.0001
2120.00,0.0001
2119.00,0.0001
2118.00,0.0001
2117.00,0.0003
2116.00,0.0005
2115.00,0.0007
2114.00,0.0008
2113.00,0.0007
2112.00,0.0007
2111.00,0.0006
2110.00,0.0007
2109.00,0.0007
2108.00,0.0008
2107.00,0.0008
2106.00,0.0007
2105.00,0.0006
2104.00,0.0006
2103.00,0.0006
2102.00,0.0006
2101.00,0.0006
2100.00,0.0007
2099.00,0.0007
2098.00,0.0007
2097.00,0.0004
2096.00,0.0001
2095.00,-0.0001
2094.00,-0.0002
2093.00,-0.0002
2092.00,-0.0001
2091.00,-0.0001
2090.00,0.0000
2089.00,0.0001
2088.00,0.0002
2087.00,0.0003
2086.00,0.0005
2085.00,0.0007
2084.00,0.0008
2083.00,0.0009
2082.00,0.0009
2081.00,0.0009
2080.00,0.0009
2079.00,0.0008
2078.00,0.0008
2077.00,0.0008
2076.00,0.0007
2075.00,0.0006
2074.00,0.0004
2073.00,0.0002
2072.00,0.0002
2071.00,0.0002
2070.00,0.0002
2069.00,0.0003
2068.00,0.0004
2067.00,0.0005
2066.00,0.0005
2065.00,0.0004
2064.00,0.0002
2063.00,0.0001
2062.00,-0.0000
2061.00,0.0001
2060.00,0.0003
2059.00,0.0005
2058.00,0.0008
2057.00,0.0009
2056.00,0.0010
2055.00,0.0010
2054.00,0.0010
2053.00,0.0012
2052.00,0.0015
2051.00,0.0017
2050.00,0.0016
2049.00,0.0014
2048.00,0.0009
2047.00,0.0005
2046.00,0.0002
2045.00,0.0001
2044.00,0.0002
2043.00,0.0003
2042.00,0.0003
2041.00,0.0002
2040.00,0.0002
2039.00,0.0001
2038.00,0.0001
2037.00,0.0000
2036.00,0.0001
2035.00,0.0003
2034.00,0.0004
2033.00,0.0004
2032.00,0.0003
2031.00,0.0001
2030.00,-0.0003
2029.00,-0.0006
2028.00,-0.0006
2027.00,-0.0005
2026.00,-0.0002
2025.00,0.0001
2024.00,0.0002
2023.00,0.0001
2022.00,-0.0001
2021.00,-0.0001
2020.00,-0.0002
2019.00,-0.0003
2018.00,-0.0005
2017.00,-0.0006
2016.00,-0.0006
2015.00,-0.0004
2014.00,-0.0004
2013.00,-0.0005
2012.00,-0.0006
2011.00,-0.0008
2010.00,-0.0008
2009.00,-0.0007
2008.00,-0.0007
2007.00,-0.0009
2006.00,-0.0013
2005.00,-0.0015
2004.00,-0.0015
2003.00,-0.0014
2002.00,-0.0012
2001.00,-0.0009
2000.00,-0.0006
1999.00,-0.0005
1998.00,-0.0005
1997.00,-0.0006
1996.00,-0.0006
1995.00,-0.0005
1994.00,-0.0004
1993.00,-0.0003
1992.00,-0.0002
1991.00,-0.0002
1990.00,-0.0003
1989.00,-0.0003
1988.00,-0.0002
1987.00,-0.0002
1986.00,-0.0000
1985.00,0.0001
1984.00,0.0004
1983.00,0.0007
1982.00,0.0011
1981.00,0.0014
1980.00,0.0015
1979.00,0.0013
1978.00,0.0009
1977.00,0.0005
1976.00,0.0002
1975.00,0.0001
1974.00,0.0001
1973.00,0.0000
1972.00,-0.0000
1971.00,-0.0001
1970.00,-0.0001
1969.00,-0.0001
1968.00,-0.0001
1967.00,-0.0003
1966.00,-0.0006
1965.00,-0.0009
1964.00,-0.0011
1963.00,-0.0012
1962.00,-0.0013
1961.00,-0.0015
1960.00,-0.0018
1959.00,-0.0020
1958.00,-0.0020
1957.00,-0.0019
1956.00,-0.0016
1955.00,-0.0014
1954.00,-0.0013
1953.00,-0.0013
1952.00,-0.0012
1951.00,-0.0012
1950.00,-0.0012
1949.00,-0.0012
1948.00,-0.0011
1947.00,-0.0012
1946.00,-0.0013
1945.00,-0.0014
1944.00,-0.0014
1943.00,-0.0013
1942.00,-0.0012
1941.00,-0.0012
1940.00,-0.0011
1939.00,-0.0011
1938.00,-0.0010
1937.00,-0.0008
1936.00,-0.0007
1935.00,-0.0007
1934.00,-0.0008
1933.00,-0.0010
1932.00,-0.0010
1931.00,-0.0009
1930.00,-0.0008
1929.00,-0.0005
1928.00,-0.0004
1927.00,-0.0003
1926.00,-0.0003
1925.00,-0.0002
1924.00,-0.0001
1923.00,-0.0001
1922.00,-0.0001
1921.00,-0.0002
1920.00,-0.0001
1919.00,-0.0001
1918.00,-0.0000
1917.00,0.0001
1916.00,0.0002
1915.00,0.0002
1914.00,0.0002
1913.00,0.0002
1912.00,0.0002
1911.00,0.0002
1910.00,0.0002
1909.00,0.0002
1908.00,0.0002
1907.00,0.0001
1906.00,0.0000
1905.00,0.0000
1904.00,0.0001
1903.00,0.0001
1902.00,0.0001
1901.00,0.0002
1900.00,0.0003
1899.00,0.0004
1898.00,0.0005
1897.00,0.0005
1896.00,0.0005
1895.00,0.0005
1894.00,0.0005
1893.00,0.0004
1892.00,0.0003
1891.00,0.0001
1890.00,0.0001
1889.00,0.0001
1888.00,0.0001
1887.00,0.0002
1886.00,0.0003
1885.00,0.0003
1884.00,0.0003
1883.00,0.0003
1882.00,0.0002
1881.00,0.0002
1880.00,0.0002
1879.00,0.0001
1878.00,0.0001
1877.00,0.0002
1876.00,0.0002
1875.00,0.0003
1874.00,0.0003
1873.00,0.0003
1872.00,0.0003
1871.00,0.0003
1870.00,0.0004
1869.00,0.0004
1868.00,0.0003
1867.00,0.0003
1866.00,0.0002
1865.00,0.0003
1864.00,0.0003
1863.00,0.0004
1862.00,0.0005
1861.00,0.0005
1860.00,0.0005
1859.00,0.0005
1858.00,0.0004
1857.00,0.0004
1856.00,0.0005
1855.00,0.0005
1854.00,0.0005
1853.00,0.0005
1852.00,0.0006
1851.00,0.0006
1850.00,0.0006
1849.00,0.0006
1848.00,0.0005
1847.00,0.0005
1846.00,0.0004
1845.00,0.0004
1844.00,0.0004
1843.00,0.0005
1842.00,0.0005
1841.00,0.0005
1840.00,0.0006
1839.00,0.0006
1838.00,0.0006
1837.00,0.0006
1836.00,0.0006
1835.00,0.0007
1834.00,0.0007
1833.00,0.0007
1832.00,0.0008
1831.00,0.0008
1830.00,0.0008
1829.00,0.0009
1828.00,0.0009
1827.00,0.0009
1826.00,0.0008
1825.00,0.0008
1824.00,0.0008
1823.00,0.0007
1822.00,0.0007
1821.00,0.0007
1820.00,0.0007
1819.00,0.0007
1818.00,0.0007
1817.00,0.0006
1816.00,0.0005
1815.00,0.0005
1814.00,0.0006
1813.00,0.0006
1812.00,0.0007
1811.00,0.0007
1810.00,0.0008
1809.00,0.0008
1808.00,0.0008
1807.00,0.0008
1806.00,0.0008
1805.00,0.0008
1804.00,0.0008
1803.00,0.0009
1802.00,0.0009
1801.00,0.0009
1800.00,0.0010
1799.00,0.0010
1798.00,0.0010
1797.00,0.0009
1796.00,0.0009
1795.00,0.0009
1794.00,0.0009
1793.00,0.0010
1792.00,0.0010
1791.00,0.0010
1790.00,0.0011
1789.00,0.0011
1788.00,0.0012
1787.00,0.0012
1786.00,0.0012
1785.00,0.0013
1784.00,0.0013
1783.00,0.0013
1782.00,0.0013
1781.00,0.0013
1780.00,0.0013
1779.00,0.0013
1778.00,0.0012
1777.00,0.0012
1776.00,0.0013
1775.00,0.0013
1774.00,0.0014
1773.00,0.0014
1772.00,0.0014
1771.00,0.0015
1770.00,0.0015
1769.00,0.0015
1768.00,0.0015
1767.00,0.0015
1766.00,0.0015
1765.00,0.0016
1764.00,0.0016
1763.00,0.0015
1762.00,0.0015
1761.00,0.0016
1760.00,0.0016
1759.00,0.0017
1758.00,0.0018
1757.00,0.0018
1756.00,0.0019
1755.00,0.0019
1754.00,0.0019
1753.00,0.0020
1752.00,0.0021
1751.00,0.0021
1750.00,0.0022
1749.00,0.0022
1748.00,0.0022
1747.00,0.0023
1746.00,0.0024
1745.00,0.0024
1744.00,0.0025
1743.00,0.0026
1742.00,0.0026
1741.00,0.0027
1740.00,0.0027
1739.00,0.0028
1738.00,0.0027
1737.00,0.0027
1736.00,0.0026
1735.00,0.0026
1734.00,0.0027
1733.00,0.0029
1732.00,0.0030
1731.00,0.0030
1730.00,0.0030
1729.00,0.0030
1728.00,0.0030
1727.00,0.0030
1726.00,0.0030
1725.00,0.0029
1724.00,0.0029
1723.00,0.0028
1722.00,0.0028
1721.00,0.0028
1720.00,0.0029
1719.00,0.0029
1718.00,0.0029
1717.00,0.0029
1716.00,0.0030
1715.00,0.0030
1714.00,0.0029
1713.00,0.0029
1712.00,0.0030
1711.00,0.0030
1710.00,0.0031
1709.00,0.0032
1708.00,0.0032
1707.00,0.0032
1706.00,0.0033
1705.00,0.0033
1704.00,0.0034
1703.00,0.0034
1702.00,0.0035
1701.00,0.0036
1700.00,0.0038
1699.00,0.0040
1698.00,0.0040
1697.00,0.0039
1696.00,0.0040
1695.00,0.0040
1694.00,0.0041
1693.00,0.0042
1692.00,0.0043
1691.00,0.0044
1690.00,0.0045
1689.00,0.0046
1688.00,0.0047
1687.00,0.0047
1686.00,0.0048
1685.00,0.0050
1684.00,0.0053
1683.00,0.0055
1682.00,0.0057
1681.00,0.0058
1680.00,0.0059
1679.00,0.0061
1678.00,0.0062
1677.00,0.0063
1676.00,0.0065
1675.00,0.0067
1674.00,0.0068
1673.00,0.0069
1672.00,0.0070
1671.00,0.0071
1670.00,0.0073
1669.00,0.0074
1668.00,0.0076
1667.00,0.0076
1666.00,0.0077
1665.00,0.0078
1664.00,0.0079
1663.00,0.0080
1662.00,0.0081
1661.00,0.0081
1660.00,0.0081
1659.00,0.0082
1658.00,0.0083
1657.00,0.0084
1656.00,0.0086
1655.00,0.0087
1654.00,0.0088
1653.00,0.0090
1652.00,0.0093
1651.00,0.0094
1650.00,0.0095
1649.00,0.0096
1648.00,0.0098
1647.00,0.0099
1646.00,0.0100
1645.00,0.0100
1644.00,0.0100
1643.00,0.0100
1642.00,0.0100
1641.00,0.0099
1640.00,0.0099
1639.00,0.0099
1638.00,0.0099
1637.00,0.0099
1636.00,0.0099
1635.00,0.0099
1634.00,0.0099
1633.00,0.0098
1632.00,0.0097
1631.00,0.0097
1630.00,0.0096
1629.00,0.0096
1628.00,0.0095
1627.00,0.0095
1626.00,0.0094
1625.00,0.0093
1624.00,0.0093
1623.00,0.0093
1622.00,0.0093
1621.00,0.0093
1620.00,0.0093
1619.00,0.0093
1618.00,0.0092
1617.00,0.0092
1616.00,0.0092
1615.00,0.0092
1614.00,0.0092
1613.00,0.0092
1612.00,0.0092
1611.00,0.0092
1610.00,0.0093
1609.00,0.0093
1608.00,0.0093
1607.00,0.0093
1606.00,0.0093
1605.00,0.0093
1604.00,0.0093
1603.00,0.0093
1602.00,0.0093
1601.00,0.0093
1600.00,0.0093
1599.00,0.0092
1598.00,0.0091
1597.00,0.0090
1596.00,0.0090
1595.00,0.0090
1594.00,0.0090
1593.00,0.0089
1592.00,0.0089
1591.00,0.0088
1590.00,0.0088
1589.00,0.0088
1588.00,0.0087
1587.00,0.0087
1586.00,0.0087
1585.00,0.0087
1584.00,0.0088
1583.00,0.0088
1582.00,0.0087
1581.00,0.0088
1580.00,0.0088
1579.00,0.0088
1578.00,0.0088
1577.00,0.0087
1576.00,0.0087
1575.00,0.0086
1574.00,0.0086
1573.00,0.0086
1572.00,0.0086
1571.00,0.0086
1570.00,0.0085
1569.00,0.0084
1568.00,0.0085
1567.00,0.0086
1566.00,0.0086
1565.00,0.0087
1564.00,0.0087
1563.00,0.0088
1562.00,0.0088
1561.00,0.0088
1560.00,0.0089
1559.00,0.0089
1558.00,0.0090
1557.00,0.0091
1556.00,0.0092
1555.00,0.0092
1554.00,0.0093
1553.00,0.0093
1552.00,0.0094
1551.00,0.0095
1550.00,0.0095
1549.00,0.0096
1548.00,0.0096
1547.00,0.0097
1546.00,0.0097
1545.00,0.0097
1544.00,0.0098
1543.00,0.0098
1542.00,0.0098
1541.00,0.0098
1540.00,0.0097
1539.00,0.0095
1538.00,0.0092
1537.00,0.0091
1536.00,0.0090
1535.00,0.0089
1534.00,0.0087
1533.00,0.0085
1532.00,0.0084
1531.00,0.0082
1530.00,0.0080
1529.00,0.0079
1528.00,0.0078
1527.00,0.0077
1526.00,0.0076
1525.00,0.0075
1524.00,0.0074
1523.00,0.0073
1522.00,0.0072
1521.00,0.0072
1520.00,0.0072
1519.00,0.0072
1518.00,0.0071
1517.00,0.0071
1516.00,0.0071
1515.00,0.0071
1514.00,0.0071
1513.00,0.0071
1512.00,0.0072
1511.00,0.0073
1510.00,0.0073
1509.00,0.0073
1508.00,0.0074
1507.00,0.0075
1506.00,0.0076
1505.00,0.0077
1504.00,0.0078
1503.00,0.0079
1502.00,0.0081
1501.00,0.0083
1500.00,0.0087
1499.00,0.0090
1498.00,0.0093
1497.00,0.0098
1496.00,0.0102
1495.00,0.0106
1494.00,0.0109
1493.00,0.0113
1492.00,0.0118
1491.00,0.0121
1490.00,0.0124
1489.00,0.0128
1488.00,0.0132
1487.00,0.0136
1486.00,0.0140
1485.00,0.0146
1484.00,0.0152
1483.00,0.0159
1482.00,0.0167
1481.00,0.0177
1480.00,0.0188
1479.00,0.0200
1478.00,0.0213
1477.00,0.0232
1476.00,0.0254
1475.00,0.0279
1474.00,0.0314
1473.00,0.0366
1472.00,0.0430
1471.00,0.0493
1470.00,0.0553
1469.00,0.0616
1468.00,0.0685
1467.00,0.0760
1466.00,0.0847
1465.00,0.0941
1464.00,0.1025
1463.00,0.1086
1462.00,0.1128
1461.00,0.1159
1460.00,0.1183
1459.00,0.1202
1458.00,0.1221
1457.00,0.1241
1456.00,0.1252
1455.00,0.1254
1454.00,0.1250
1453.00,0.1241
1452.00,0.1221
1451.00,0.1187
1450.00,0.1137
1449.00,0.1063
1448.00,0.0967
1447.00,0.0864
1446.00,0.0770
1445.00,0.0691
1444.00,0.0623
1443.00,0.0568
1442.00,0.0527
1441.00,0.0500
1440.00,0.0483
1439.00,0.0475
1438.00,0.0474
1437.00,0.0472
1436.00,0.0458
1435.00,0.0430
1434.00,0.0391
1433.00,0.0346
1432.00,0.0299
1431.00,0.0258
1430.00,0.0227
1429.00,0.0204
1428.00,0.0189
1427.00,0.0180
1426.00,0.0174
1425.00,0.0169
1424.00,0.0164
1423.00,0.0161
1422.00,0.0159
1421.00,0.0157
1420.00,0.0155
1419.00,0.0153
1418.00,0.0151
1417.00,0.0149
1416.00,0.0146
1415.00,0.0145
1414.00,0.0145
1413.00,0.0143
1412.00,0.0141
1411.00,0.0140
1410.00,0.0140
1409.00,0.0139
1408.00,0.0138
1407.00,0.0138
1406.00,0.0139
1405.00,0.0139
1404.00,0.0139
1403.00,0.0140
1402.00,0.0143
1401.00,0.0144
1400.00,0.0145
1399.00,0.0147
1398.00,0.0149
1397.00,0.0151
1396.00,0.0153
1395.00,0.0157
1394.00,0.0163
1393.00,0.0168
1392.00,0.0175
1391.00,0.0183
1390.00,0.0195
1389.00,0.0213
1388.00,0.0239
1387.00,0.0278
1386.00,0.0330
1385.00,0.0394
1384.00,0.0479
1383.00,0.0592
1382.00,0.0740
1381.00,0.0927
1380.00,0.1154
1379.00,0.1408
1378.00,0.1649
1377.00,0.1822
1376.00,0.1878
1375.00,0.1787
1374.00,0.1573
1373.00,0.1313
1372.00,0.1073
1371.00,0.0872
1370.00,0.0709
1369.00,0.0584
1368.00,0.0496
1367.00,0.0441
1366.00,0.0412
1365.00,0.0399
1364.00,0.0401
1363.00,0.0414
1362.00,0.0435
1361.00,0.0458
1360.00,0.0474
1359.00,0.0479
1358.00,0.0467
1357.00,0.0441
1356.00,0.0404
1355.00,0.0361
1354.00,0.0321
1353.00,0.0286
1352.00,0.0258
1351.00,0.0236
1350.00,0.0218
1349.00,0.0204
1348.00,0.0192
1347.00,0.0183
1346.00,0.0177
1345.00,0.0171
1344.00,0.0166
1343.00,0.0162
1342.00,0.0157
1341.00,0.0153
1340.00,0.0150
1339.00,0.0147
1338.00,0.0145
1337.00,0.0145
1336.00,0.0146
1335.00,0.0148
1334.00,0.0151
1333.00,0.0155
1332.00,0.0159
1331.00,0.0163
1330.00,0.0164
1329.00,0.0163
1328.00,0.0160
1327.00,0.0155
1326.00,0.0148
1325.00,0.0142
1324.00,0.0136
1323.00,0.0130
1322.00,0.0126
1321.00,0.0123
1320.00,0.0121
1319.00,0.0118
1318.00,0.0116
1317.00,0.0114
1316.00,0.0112
1315.00,0.0111
1314.00,0.0111
1313.00,0.0111
1312.00,0.0113
1311.00,0.0116
1310.00,0.0121
1309.00,0.0129
1308.00,0.0141
1307.00,0.0154
1306.00,0.0167
1305.00,0.0176
1304.00,0.0179
1303.00,0.0175
1302.00,0.0169
1301.00,0.0162
1300.00,0.0157
1299.00,0.0155
1298.00,0.0155
1297.00,0.0154
1296.00,0.0153
1295.00,0.0150
1294.00,0.0146
1293.00,0.0140
1292.00,0.0135
1291.00,0.0129
1290.00,0.0124
1289.00,0.0120
1288.00,0.0116
1287.00,0.0112
1286.00,0.0110
1285.00,0.0108
1284.00,0.0106
1283.00,0.0104
1282.00,0.0103
1281.00,0.0102
1280.00,0.0101
1279.00,0.0100
1278.00,0.0100
1277.00,0.0099
1276.00,0.0099
1275.00,0.0098
1274.00,0.0098
1273.00,0.0099
1272.00,0.0099
1271.00,0.0100
1270.00,0.0101
1269.00,0.0102
1268.00,0.0104
1267.00,0.0106
1266.00,0.0109
1265.00,0.0112
1264.00,0.0116
1263.00,0.0120
1262.00,0.0124
1261.00,0.0129
1260.00,0.0136
1259.00,0.0144
1258.00,0.0154
1257.00,0.0162
1256.00,0.0166
1255.00,0.0164
1254.00,0.0157
1253.00,0.0147
1252.00,0.0138
1251.00,0.0130
1250.00,0.0124
1249.00,0.0120
1248.00,0.0117
1247.00,0.0114
1246.00,0.0113
1245.00,0.0112
1244.00,0.0111
1243.00,0.0110
1242.00,0.0109
1241.00,0.0108
1240.00,0.0107
1239.00,0.0106
1238.00,0.0105
1237.00,0.0104
1236.00,0.0103
1235.00,0.0102
1234.00,0.0101
1233.00,0.0099
1232.00,0.0098
1231.00,0.0098
1230.00,0.0098
1229.00,0.0098
1228.00,0.0099
1227.00,0.0100
1226.00,0.0101
1225.00,0.0103
1224.00,0.0106
1223.00,0.0109
1222.00,0.0112
1221.00,0.0115
1220.00,0.0117
1219.00,0.0119
1218.00,0.0119
1217.00,0.0117
1216.00,0.0114
1215.00,0.0110
1214.00,0.0107
1213.00,0.0104
1212.00,0.0101
1211.00,0.0098
1210.00,0.0096
1209.00,0.0094
1208.00,0.0092
1207.00,0.0092
1206.00,0.0091
1205.00,0.0090
1204.00,0.0089
1203.00,0.0088
1202.00,0.0088
1201.00,0.0088
1200.00,0.0088
1199.00,0.0089
1198.00,0.0089
1197.00,0.0089
1196.00,0.0089
1195.00,0.0090
1194.00,0.0090
1193.00,0.0090
1192.00,0.0089
1191.00,0.0089
1190.00,0.0089
1189.00,0.0090
1188.00,0.0091
1187.00,0.0091
1186.00,0.0092
1185.00,0.0094
1184.00,0.0096
1183.00,0.0099
1182.00,0.0102
1181.00,0.0105
1180.00,0.0110
1179.00,0.0116
1178.00,0.0124
1177.00,0.0135
1176.00,0.0148
1175.00,0.0166
1174.00,0.0190
1173.00,0.0220
1172.00,0.0257
1171.00,0.0298
1170.00,0.0337
1169.00,0.0369
1168.00,0.0390
1167.00,0.0398
1166.00,0.0392
1165.00,0.0376
1164.00,0.0355
1163.00,0.0332
1162.00,0.0311
1161.00,0.0294
1160.00,0.0280
1159.00,0.0270
1158.00,0.0261
1157.00,0.0255
1156.00,0.0250
1155.00,0.0246
1154.00,0.0244
1153.00,0.0240
1152.00,0.0236
1151.00,0.0229
1150.00,0.0221
1149.00,0.0211
1148.00,0.0201
1147.00,0.0191
1146.00,0.0182
1145.00,0.0174
1144.00,0.0167
1143.00,0.0160
1142.00,0.0155
1141.00,0.0150
1140.00,0.0145
1139.00,0.0140
1138.00,0.0136
1137.00,0.0133
1136.00,0.0130
1135.00,0.0128
1134.00,0.0127
1133.00,0.0127
1132.00,0.0127
1131.00,0.0128
1130.00,0.0130
1129.00,0.0131
1128.00,0.0132
1127.00,0.0133
1126.00,0.0134
1125.00,0.0136
1124.00,0.0139
1123.00,0.0142
1122.00,0.0144
1121.00,0.0145
1120.00,0.0147
1119.00,0.0149
1118.00,0.0151
1117.00,0.0154
1116.00,0.0155
1115.00,0.0157
1114.00,0.0157
1113.00,0.0158
1112.00,0.0159
1111.00,0.0160
1110.00,0.0163
1109.00,0.0168
1108.00,0.0175
1107.00,0.0182
1106.00,0.0189
1105.00,0.0194
1104.00,0.0199
1103.00,0.0201
1102.00,0.0201
1101.00,0.0199
1100.00,0.0195
1099.00,0.0189
1098.00,0.0182
1097.00,0.0176
1096.00,0.0171
1095.00,0.0166
1094.00,0.0161
1093.00,0.0157
1092.00,0.0154
1091.00,0.0152
1090.00,0.0151
1089.00,0.0150
1088.00,0.0148
1087.00,0.0147
1086.00,0.0145
1085.00,0.0144
1084.00,0.0143
1083.00,0.0143
1082.00,0.0143
1081.00,0.0142
1080.00,0.0140
1079.00,0.0139
1078.00,0.0138
1077.00,0.0137
1076.00,0.0137
1075.00,0.0136
1074.00,0.0134
1073.00,0.0134
1072.00,0.0134
1071.00,0.0135
1070.00,0.0136
1069.00,0.0137
1068.00,0.0137
1067.00,0.0136
1066.00,0.0136
1065.00,0.0137
1064.00,0.0138
1063.00,0.0139
1062.00,0.0140
1061.00,0.0141
1060.00,0.0142
1059.00,0.0142
1058.00,0.0142
1057.00,0.0142
1056.00,0.0142
1055.00,0.0143
1054.00,0.0143
1053.00,0.0144
1052.00,0.0146
1051.00,0.0148
1050.00,0.0151
1049.00,0.0154
1048.00,0.0157
1047.00,0.0160
1046.00,0.0162
1045.00,0.0164
1044.00,0.0164
1043.00,0.0162
1042.00,0.0159
1041.00,0.0156
1040.00,0.0154
1039.00,0.0153
1038.00,0.0152
1037.00,0.0151
1036.00,0.0151
1035.00,0.0150
1034.00,0.0150
1033.00,0.0149
1032.00,0.0148
1031.00,0.0147
1030.00,0.0146
1029.00,0.0146
1028.00,0.0145
1027.00,0.0145
1026.00,0.0144
1025.00,0.0144
1024.00,0.0143
1023.00,0.0143
1022.00,0.0144
1021.00,0.0144
1020.00,0.0144
1019.00,0.0144
1018.00,0.0145
1017.00,0.0146
1016.00,0.0147
1015.00,0.0150
1014.00,0.0153
1013.00,0.0157
1012.00,0.0161
1011.00,0.0165
1010.00,0.0168
1009.00,0.0172
1008.00,0.0177
1007.00,0.0184
1006.00,0.0195
1005.00,0.0210
1004.00,0.0231
1003.00,0.0257
1002.00,0.0291
1001.00,0.0332
1000.00,0.0376
999.00,0.0414
998.00,0.0435
997.00,0.0429
996.00,0.0399
995.00,0.0354
994.00,0.0305
993.00,0.0261
992.00,0.0227
991.00,0.0201
990.00,0.0183
989.00,0.0171
988.00,0.0163
987.00,0.0159
986.00,0.0158
985.00,0.0160
984.00,0.0165
983.00,0.0173
982.00,0.0184
981.00,0.0201
980.00,0.0225
979.00,0.0255
978.00,0.0294
977.00,0.0342
976.00,0.0395
975.00,0.0447
974.00,0.0488
973.00,0.0508
972.00,0.0497
971.00,0.0459
970.00,0.0402
969.00,0.0341
968.00,0.0286
967.00,0.0243
966.00,0.0211
965.00,0.0188
964.00,0.0171
963.00,0.0158
962.00,0.0148
961.00,0.0140
960.00,0.0133
959.00,0.0128
958.00,0.0124
957.00,0.0120
956.00,0.0117
955.00,0.0114
954.00,0.0112
953.00,0.0111
952.00,0.0110
951.00,0.0109
950.00,0.0108
949.00,0.0107
948.00,0.0106
947.00,0.0106
946.00,0.0107
945.00,0.0110
944.00,0.0113
943.00,0.0117
942.00,0.0119
941.00,0.0120
940.00,0.0119
939.00,0.0116
938.00,0.0112
937.00,0.0107
936.00,0.0102
935.00,0.0097
934.00,0.0092
933.00,0.0088
932.00,0.0085
931.00,0.0083
930.00,0.0082
929.00,0.0082
928.00,0.0082
927.00,0.0082
926.00,0.0083
925.00,0.0083
924.00,0.0083
923.00,0.0084
922.00,0.0084
921.00,0.0084
920.00,0.0084
919.00,0.0085
918.00,0.0087
917.00,0.0088
916.00,0.0089
915.00,0.0090
914.00,0.0090
913.00,0.0091
912.00,0.0091
911.00,0.0092
910.00,0.0092
909.00,0.0093
908.00,0.0096
907.00,0.0101
906.00,0.0108
905.00,0.0119
904.00,0.0134
903.00,0.0152
902.00,0.0173
901.00,0.0192
900.00,0.0206
899.00,0.0209
898.00,0.0202
897.00,0.0186
896.00,0.0166
895.00,0.0147
894.00,0.0131
893.00,0.0118
892.00,0.0109
891.00,0.0103
890.00,0.0100
889.00,0.0098
888.00,0.0098
887.00,0.0097
886.00,0.0095
885.00,0.0094
884.00,0.0093
883.00,0.0093
882.00,0.0092
881.00,0.0091
880.00,0.0091
879.00,0.0090
878.00,0.0091
877.00,0.0091
876.00,0.0092
875.00,0.0091
874.00,0.0090
873.00,0.0089
872.00,0.0089
871.00,0.0088
870.00,0.0088
869.00,0.0088
868.00,0.0088
867.00,0.0089
866.00,0.0090
865.00,0.0091
864.00,0.0092
863.00,0.0093
862.00,0.0094
861.00,0.0094
860.00,0.0096
859.00,0.0098
858.00,0.0101
857.00,0.0103
856.00,0.0105
855.00,0.0108
854.00,0.0112
853.00,0.0116
852.00,0.0120
851.00,0.0124
850.00,0.0130
849.00,0.0138
848.00,0.0150
847.00,0.0168
846.00,0.0196
845.00,0.0237
844.00,0.0291
843.00,0.0350
842.00,0.0396
841.00,0.0411
840.00,0.0387
839.00,0.0336
838.00,0.0279
837.00,0.0232
836.00,0.0199
835.00,0.0179
834.00,0.0165
833.00,0.0156
832.00,0.0149
831.00,0.0143
830.00,0.0139
829.00,0.0135
828.00,0.0132
827.00,0.0130
826.00,0.0129
825.00,0.0130
824.00,0.0130
823.00,0.0130
822.00,0.0129
821.00,0.0128
820.00,0.0128
819.00,0.0130
818.00,0.0133
817.00,0.0139
816.00,0.0147
815.00,0.0157
814.00,0.0170
813.00,0.0186
812.00,0.0203
811.00,0.0219
810.00,0.0231
809.00,0.0238
808.00,0.0237
807.00,0.0230
806.00,0.0217
805.00,0.0202
804.00,0.0186
803.00,0.0170
802.00,0.0157
801.00,0.0146
800.00,0.0138
799.00,0.0131
798.00,0.0126
797.00,0.0123
796.00,0.0120
795.00,0.0117
794.00,0.0114
793.00,0.0111
792.00,0.0108
791.00,0.0107
790.00,0.0106
789.00,0.0105
788.00,0.0103
787.00,0.0101
786.00,0.0098
785.00,0.0096
784.00,0.0093
783.00,0.0091
782.00,0.0089
781.00,0.0088
780.00,0.0087
779.00,0.0085
778.00,0.0083
777.00,0.0083
776.00,0.0084
775.00,0.0086
774.00,0.0089
773.00,0.0092
772.00,0.0096
771.00,0.0099
770.00,0.0102
769.00,0.0104
768.00,0.0104
767.00,0.0104
766.00,0.0103
765.00,0.0101
764.00,0.0098
763.00,0.0094
762.00,0.0090
761.00,0.0088
760.00,0.0086
759.00,0.0084
758.00,0.0083
757.00,0.0081
756.00,0.0080
755.00,0.0079
754.00,0.0079
753.00,0.0080
752.00,0.0080
751.00,0.0079
750.00,0.0079
749.00,0.0079
748.00,0.0078
747.00,0.0079
746.00,0.0080
745.00,0.0082
744.00,0.0084
743.00,0.0085
742.00,0.0086
741.00,0.0087
740.00,0.0089
739.00,0.0092
738.00,0.0094
737.00,0.0095
736.00,0.0097
735.00,0.0099
734.00,0.0100
733.00,0.0101
732.00,0.0100
731.00,0.0099
730.00,0.0099
729.00,0.0099
728.00,0.0099
727.00,0.0100
726.00,0.0101
725.00,0.0102
724.00,0.0103
723.00,0.0103
722.00,0.0102
721.00,0.0100
720.00,0.0098
719.00,0.0096
718.00,0.0093
717.00,0.0091
716.00,0.0089
715.00,0.0089
714.00,0.0090
713.00,0.0092
712.00,0.0093
711.00,0.0093
710.00,0.0093
709.00,0.0093
708.00,0.0094
707.00,0.0094
706.00,0.0095
705.00,0.0096
704.00,0.0097
703.00,0.0097
702.00,0.0096
701.00,0.0094
700.00,0.0093
699.00,0.0091
698.00,0.0090
697.00,0.0089
696.00,0.0088
695.00,0.0088
694.00,0.0089
693.00,0.0089
692.00,0.0090
691.00,0.0090
690.00,0.0088
689.00,0.0086
688.00,0.0084
687.00,0.0084
686.00,0.0085
685.00,0.0087
684.00,0.0088
683.00,0.0088
682.00,0.0088
681.00,0.0088
680.00,0.0088
679.00,0.0088
678.00,0.0088
677.00,0.0088
676.00,0.0088
675.00,0.0089
674.00,0.0090
673.00,0.0091
672.00,0.0093
671.00,0.0093
670.00,0.0093
669.00,0.0091
668.00,0.0089
667.00,0.0089
666.00,0.0091
665.00,0.0093
664.00,0.0095
663.00,0.0096
662.00,0.0096
661.00,0.0095
660.00,0.0094
659.00,0.0094
658.00,0.0094
657.00,0.0094
656.00,0.0096
655.00,0.0096
654.00,0.0096
653.00,0.0096
652.00,0.0096
651.00,0.0095
650.00,0.0094
649.00,0.0092
648.00,0.0091
647.00,0.0091
646.00,0.0093
645.00,0.0093
644.00,0.0093
643.00,0.0092
642.00,0.0091
641.00,0.0090
640.00,0.0091
639.00,0.0092
638.00,0.0092
637.00,0.0093
636.00,0.0094
635.00,0.0095
634.00,0.0096
633.00,0.0098
632.00,0.0099
631.00,0.0098
630.00,0.0097
629.00,0.0097
628.00,0.0098
627.00,0.0100
626.00,0.0102
625.00,0.0103
624.00,0.0102
623.00,0.0101
622.00,0.0101
621.00,0.0100
620.00,0.0100
619.00,0.0099
618.00,0.0097
617.00,0.0096
616.00,0.0097
615.00,0.0098
614.00,0.0098
613.00,0.0097
612.00,0.0095
611.00,0.0094
610.00,0.0094
609.00,0.0095
608.00,0.0096
607.00,0.0098
606.00,0.0099
605.00,0.0099
604.00,0.0099
603.00,0.0097
602.00,0.0095
601.00,0.0093
600.00,0.0093
599.00,0.0096
598.00,0.0099
597.00,0.0101
596.00,0.0102
595.00,0.0102
594.00,0.0104
593.00,0.0105
592.00,0.0104
591.00,0.0101
590.00,0.0097
589.00,0.0095
588.00,0.0095
587.00,0.0097
586.00,0.0100
585.00,0.0102
584.00,0.0103
583.00,0.0104
582.00,0.0106
581.00,0.0109
580.00,0.0111
579.00,0.0112
578.00,0.0111
577.00,0.0111
576.00,0.0111
575.00,0.0111
574.00,0.0111
573.00,0.0112
572.00,0.0112
571.00,0.0110
570.00,0.0107
569.00,0.0104
568.00,0.0102
567.00,0.0102
566.00,0.0104
565.00,0.0108
564.00,0.0111
563.00,0.0113
562.00,0.0113
561.00,0.0112
560.00,0.0112
559.00,0.0115
558.00,0.0119
557.00,0.0120
556.00,0.0117
555.00,0.0114
554.00,0.0111
553.00,0.0112
552.00,0.0113
551.00,0.0112
550.00,0.0108
549.00,0.0103
548.00,0.0101
547.00,0.0101
546.00,0.0104
545.00,0.0106
544.00,0.0108
543.00,0.0109
542.00,0.0110
541.00,0.0111
540.00,0.0110
539.00,0.0110
538.00,0.0112
537.00,0.0115
536.00,0.0117
535.00,0.0118
534.00,0.0117
533.00,0.0116
532.00,0.0118
531.00,0.0119
530.00,0.0120
529.00,0.0117
528.00,0.0113
527.00,0.0110
526.00,0.0109
525.00,0.0111
524.00,0.0114
523.00,0.0117
522.00,0.0119
521.00,0.0119
520.00,0.0117
519.00,0.0115
518.00,0.0114
517.00,0.0116
516.00,0.0119
515.00,0.0121
514.00,0.0119
513.00,0.0113
512.00,0.0108
511.00,0.0106
510.00,0.0109
509.00,0.0113
508.00,0.0115
507.00,0.0115
506.00,0.0112
505.00,0.0111
504.00,0.0110
503.00,0.0109
502.00,0.0106
501.00,0.0098
500.00,0.0090
499.00,0.0086
498.00,0.0088
497.00,0.0095
496.00,0.0101
495.00,0.0104
494.00,0.0103
493.00,0.0100
492.00,0.0095
491.00,0.0090
490.00,0.0088
489.00,0.0090
488.00,0.0095
487.00,0.0099
486.00,0.0100
485.00,0.0097
484.00,0.0094
483.00,0.0092
482.00,0.0092
481.00,0.0096
480.00,0.0100
479.00,0.0102
478.00,0.0100
477.00,0.0096
476.00,0.0098
475.00,0.0107
474.00,0.0120
473.00,0.0130
472.00,0.0133
471.00,0.0132
470.00,0.0131
469.00,0.0131
468.00,0.0132
467.00,0.0135
466.00,0.0136
465.00,0.0134
464.00,0.0128
463.00,0.0125
462.00,0.0133
461.00,0.0149
460.00,0.0167
459.00,0.0178
458.00,0.0179
457.00,0.0172
456.00,0.0168
455.00,0.0168
454.00,0.0170
453.00,0.0167
452.00,0.0157
451.00,0.0143
450.00,0.0131
