Created as New Dataset,Sample 067 By Administrator Date Friday, September 05 2025
cm-1,A
4000.00,0.0020
3999.00,0.0021
3998.00,0.0021
3997.00,0.0021
3996.00,0.0021
3995.00,0.0020
3994.00,0.0020
3993.00,0.0019
3992.00,0.0019
3991.00,0.0019
3990.00,0.0019
3989.00,0.0020
3988.00,0.0020
3987.00,0.0020
3986.00,0.0020
3985.00,0.0020
3984.00,0.0019
3983.00,0.0019
3982.00,0.0018
3981.00,0.0018
3980.00,0.0019
3979.00,0.0019
3978.00,0.0019
3977.00,0.0019
3976.00,0.0019
3975.00,0.0019
3974.00,0.0019
3973.00,0.0019
3972.00,0.0019
3971.00,0.0019
3970.00,0.0019
3969.00,0.0019
3968.00,0.0019
3967.00,0.0019
3966.00,0.0018
3965.00,0.0018
3964.00,0.0018
3963.00,0.0018
3962.00,0.0018
3961.00,0.0018
3960.00,0.0018
3959.00,0.0018
3958.00,0.0019
3957.00,0.0018
3956.00,0.0018
3955.00,0.0018
3954.00,0.0018
3953.00,0.0019
3952.00,0.0019
3951.00,0.0019
3950.00,0.0019
3949.00,0.0019
3948.00,0.0018
3947.00,0.0018
3946.00,0.0018
3945.00,0.0018
3944.00,0.0018
3943.00,0.0018
3942.00,0.0018
3941.00,0.0018
3940.00,0.0019
3939.00,0.0018
3938.00,0.0018
3937.00,0.0018
3936.00,0.0018
3935.00,0.0018
3934.00,0.0018
3933.00,0.0018
3932.00,0.0018
3931.00,0.0019
3930.00,0.0019
3929.00,0.0019
3928.00,0.0019
3927.00,0.0018
3926.00,0.0018
3925.00,0.0018
3924.00,0.0017
3923.00,0.0017
3922.00,0.0018
3921.00,0.0018
3920.00,0.0018
3919.00,0.0018
3918.00,0.0018
3917.00,0.0018
3916.00,0.0018
3915.00,0.0018
3914.00,0.0018
3913.00,0.0018
3912.00,0.0018
3911.00,0.0018
3910.00,0.0018
3909.00,0.0018
3908.00,0.0018
3907.00,0.0018
3906.00,0.0018
3905.00,0.0018
3904.00,0.0017
3903.00,0.0017
3902.00,0.0016
3901.00,0.0016
3900.00,0.0016
3899.00,0.0016
3898.00,0.0016
3897.00,0.0016
3896.00,0.0017
3895.00,0.0017
3894.00,0.0017
3893.00,0.0018
3892.00,0.0018
3891.00,0.0018
3890.00,0.0017
3889.00,0.0017
3888.00,0.0016
3887.00,0.0016
3886.00,0.0016
3885.00,0.0016
3884.00,0.0017
3883.00,0.0017
3882.00,0.0017
3881.00,0.0017
3880.00,0.0017
3879.00,0.0017
3878.00,0.0017
3877.00,0.0017
3876.00,0.0017
3875.00,0.0017
3874.00,0.0017
3873.00,0.0017
3872.00,0.0017
3871.00,0.0017
3870.00,0.0017
3869.00,0.0017
3868.00,0.0017
3867.00,0.0016
3866.00,0.0016
3865.00,0.0016
3864.00,0.0016
3863.00,0.0016
3862.00,0.0016
3861.00,0.0016
3860.00,0.0016
3859.00,0.0016
3858.00,0.0016
3857.00,0.0016
3856.00,0.0017
3855.00,0.0017
3854.00,0.0016
3853.00,0.0016
3852.00,0.0016
3851.00,0.0016
3850.00,0.0016
3849.00,0.0016
3848.00,0.0016
3847.00,0.0016
3846.00,0.0016
3845.00,0.0016
3844.00,0.0016
3843.00,0.0016
3842.00,0.0016
3841.00,0.0016
3840.00,0.0016
3839.00,0.0016
3838.00,0.0016
3837.00,0.0016
3836.00,0.0016
3835.00,0.0016
3834.00,0.0016
3833.00,0.0016
3832.00,0.0016
3831.00,0.0016
3830.00,0.0016
3829.00,0.0016
3828.00,0.0017
3827.00,0.0017
3826.00,0.0017
3825.00,0.0017
3824.00,0.0018
3823.00,0.0018
3822.00,0.0018
3821.00,0.0017
3820.00,0.0017
3819.00,0.0016
3818.00,0.0016
3817.00,0.0016
3816.00,0.0016
3815.00,0.0016
3814.00,0.0016
3813.00,0.0016
3812.00,0.0016
3811.00,0.0016
3810.00,0.0016
3809.00,0.0016
3808.00,0.0016
3807.00,0.0016
3806.00,0.0016
3805.00,0.0016
3804.00,0.0016
3803.00,0.0015
3802.00,0.0015
3801.00,0.0015
3800.00,0.0016
3799.00,0.0016
3798.00,0.0016
3797.00,0.0016
3796.00,0.0016
3795.00,0.0016
3794.00,0.0017
3793.00,0.0017
3792.00,0.0017
3791.00,0.0017
3790.00,0.0018
3789.00,0.0018
3788.00,0.0018
3787.00,0.0018
3786.00,0.0018
3785.00,0.0018
3784.00,0.0018
3783.00,0.0018
3782.00,0.0017
3781.00,0.0018
3780.00,0.0017
3779.00,0.0017
3778.00,0.0017
3777.00,0.0017
3776.00,0.0017
3775.00,0.0017
3774.00,0.0017
3773.00,0.0018
3772.00,0.0018
3771.00,0.0018
3770.00,0.0017
3769.00,0.0017
3768.00,0.0016
3767.00,0.0016
3766.00,0.0016
3765.00,0.0017
3764.00,0.0017
3763.00,0.0017
3762.00,0.0016
3761.00,0.0016
3760.00,0.0016
3759.00,0.0017
3758.00,0.0017
3757.00,0.0016
3756.00,0.0016
3755.00,0.0016
3754.00,0.0015
3753.00,0.0015
3752.00,0.0015
3751.00,0.0016
3750.00,0.0016
3749.00,0.0016
3748.00,0.0016
3747.00,0.0016
3746.00,0.0016
3745.00,0.0016
3744.00,0.0015
3743.00,0.0015
3742.00,0.0015
3741.00,0.0014
3740.00,0.0014
3739.00,0.0014
3738.00,0.0014
3737.00,0.0014
3736.00,0.0014
3735.00,0.0014
3734.00,0.0014
3733.00,0.0015
3732.00,0.0015
3731.00,0.0015
3730.00,0.0015
3729.00,0.0015
3728.00,0.0015
3727.00,0.0014
3726.00,0.0014
3725.00,0.0014
3724.00,0.0014
3723.00,0.0014
3722.00,0.0014
3721.00,0.0014
3720.00,0.0014
3719.00,0.0015
3718.00,0.0015
3717.00,0.0015
3716.00,0.0016
3715.00,0.0016
3714.00,0.0015
3713.00,0.0015
3712.00,0.0015
3711.00,0.0014
3710.00,0.0014
3709.00,0.0014
3708.00,0.0015
3707.00,0.0015
3706.00,0.0015
3705.00,0.0015
3704.00,0.0016
3703.00,0.0016
3702.00,0.0016
3701.00,0.0017
3700.00,0.0017
3699.00,0.0017
3698.00,0.0017
3697.00,0.0017
3696.00,0.0017
3695.00,0.0016
3694.00,0.0016
3693.00,0.0016
3692.00,0.0016
3691.00,0.0016
3690.00,0.0016
3689.00,0.0016
3688.00,0.0016
3687.00,0.0016
3686.00,0.0016
3685.00,0.0016
3684.00,0.0016
3683.00,0.0017
3682.00,0.0017
3681.00,0.0017
3680.00,0.0018
3679.00,0.0018
3678.00,0.0018
3677.00,0.0017
3676.00,0.0017
3675.00,0.0017
3674.00,0.0016
3673.00,0.0017
3672.00,0.0017
3671.00,0.0017
3670.00,0.0017
3669.00,0.0017
3668.00,0.0017
3667.00,0.0017
3666.00,0.0018
3665.00,0.0018
3664.00,0.0018
3663.00,0.0018
3662.00,0.0018
3661.00,0.0019
3660.00,0.0019
3659.00,0.0019
3658.00,0.0019
3657.00,0.0019
3656.00,0.0020
3655.00,0.0020
3654.00,0.0020
3653.00,0.0020
3652.00,0.0020
3651.00,0.0021
3650.00,0.0021
3649.00,0.0022
3648.00,0.0022
3647.00,0.0022
3646.00,0.0022
3645.00,0.0022
3644.00,0.0023
3643.00,0.0023
3642.00,0.0024
3641.00,0.0025
3640.00,0.0025
3639.00,0.0026
3638.00,0.0026
3637.00,0.0026
3636.00,0.0027
3635.00,0.0027
3634.00,0.0027
3633.00,0.0027
3632.00,0.0027
3631.00,0.0027
3630.00,0.0028
3629.00,0.0029
3628.00,0.0030
3627.00,0.0030
3626.00,0.0031
3625.00,0.0031
3624.00,0.0031
3623.00,0.0032
3622.00,0.0032
3621.00,0.0032
3620.00,0.0033
3619.00,0.0034
3618.00,0.0034
3617.00,0.0035
3616.00,0.0035
3615.00,0.0036
3614.00,0.0036
3613.00,0.0037
3612.00,0.0037
3611.00,0.0037
3610.00,0.0038
3609.00,0.0039
3608.00,0.0040
3607.00,0.0040
3606.00,0.0041
3605.00,0.0041
3604.00,0.0042
3603.00,0.0043
3602.00,0.0044
3601.00,0.0044
3600.00,0.0044
3599.00,0.0044
3598.00,0.0044
3597.00,0.0045
3596.00,0.0045
3595.00,0.0046
3594.00,0.0047
3593.00,0.0047
3592.00,0.0047
3591.00,0.0047
3590.00,0.0047
3589.00,0.0048
3588.00,0.0049
3587.00,0.0050
3586.00,0.0051
3585.00,0.0052
3584.00,0.0053
3583.00,0.0053
3582.00,0.0053
3581.00,0.0053
3580.00,0.0054
3579.00,0.0054
3578.00,0.0056
3577.00,0.0057
3576.00,0.0057
3575.00,0.0058
3574.00,0.0059
3573.00,0.0059
3572.00,0.0059
3571.00,0.0060
3570.00,0.0060
3569.00,0.0061
3568.00,0.0062
3567.00,0.0063
3566.00,0.0064
3565.00,0.0065
3564.00,0.0065
3563.00,0.0065
3562.00,0.0066
3561.00,0.0066
3560.00,0.0067
3559.00,0.0068
3558.00,0.0069
3557.00,0.0070
3556.00,0.0070
3555.00,0.0071
3554.00,0.0071
3553.00,0.0072
3552.00,0.0073
3551.00,0.0074
3550.00,0.0074
3549.00,0.0075
3548.00,0.0075
3547.00,0.0076
3546.00,0.0077
3545.00,0.0078
3544.00,0.0078
3543.00,0.0078
3542.00,0.0079
3541.00,0.0080
3540.00,0.0081
3539.00,0.0082
3538.00,0.0083
3537.00,0.0084
3536.00,0.0085
3535.00,0.0086
3534.00,0.0087
3533.00,0.0087
3532.00,0.0088
3531.00,0.0088
3530.00,0.0089
3529.00,0.0090
3528.00,0.0091
3527.00,0.0092
3526.00,0.0093
3525.00,0.0094
3524.00,0.0095
3523.00,0.0096
3522.00,0.0097
3521.00,0.0097
3520.00,0.0098
3519.00,0.0099
3518.00,0.0100
3517.00,0.0101
3516.00,0.0101
3515.00,0.0102
3514.00,0.0103
3513.00,0.0104
3512.00,0.0105
3511.00,0.0106
3510.00,0.0107
3509.00,0.0108
3508.00,0.0109
3507.00,0.0109
3506.00,0.0110
3505.00,0.0111
3504.00,0.0112
3503.00,0.0113
3502.00,0.0114
3501.00,0.0115
3500.00,0.0116
3499.00,0.0117
3498.00,0.0118
3497.00,0.0119
3496.00,0.0120
3495.00,0.0121
3494.00,0.0122
3493.00,0.0123
3492.00,0.0124
3491.00,0.0125
3490.00,0.0126
3489.00,0.0126
3488.00,0.0127
3487.00,0.0128
3486.00,0.0129
3485.00,0.0130
3484.00,0.0131
3483.00,0.0132
3482.00,0.0132
3481.00,0.0133
3480.00,0.0134
3479.00,0.0135
3478.00,0.0135
3477.00,0.0136
3476.00,0.0137
3475.00,0.0138
3474.00,0.0139
3473.00,0.0139
3472.00,0.0140
3471.00,0.0141
3470.00,0.0141
3469.00,0.0142
3468.00,0.0142
3467.00,0.0143
3466.00,0.0143
3465.00,0.0143
3464.00,0.0144
3463.00,0.0144
3462.00,0.0145
3461.00,0.0145
3460.00,0.0146
3459.00,0.0146
3458.00,0.0146
3457.00,0.0147
3456.00,0.0147
3455.00,0.0148
3454.00,0.0148
3453.00,0.0148
3452.00,0.0148
3451.00,0.0149
3450.00,0.0149
3449.00,0.0149
3448.00,0.0150
3447.00,0.0150
3446.00,0.0150
3445.00,0.0151
3444.00,0.0151
3443.00,0.0152
3442.00,0.0152
3441.00,0.0153
3440.00,0.0153
3439.00,0.0153
3438.00,0.0154
3437.00,0.0154
3436.00,0.0154
3435.00,0.0154
3434.00,0.0154
3433.00,0.0154
3432.00,0.0154
3431.00,0.0154
3430.00,0.0154
3429.00,0.0154
3428.00,0.0154
3427.00,0.0154
3426.00,0.0155
3425.00,0.0155
3424.00,0.0155
3423.00,0.0155
3422.00,0.0155
3421.00,0.0155
3420.00,0.0154
3419.00,0.0154
3418.00,0.0154
3417.00,0.0155
3416.00,0.0155
3415.00,0.0156
3414.00,0.0156
3413.00,0.0156
3412.00,0.0156
3411.00,0.0157
3410.00,0.0157
3409.00,0.0157
3408.00,0.0157
3407.00,0.0158
3406.00,0.0158
3405.00,0.0158
3404.00,0.0159
3403.00,0.0160
3402.00,0.0160
3401.00,0.0161
3400.00,0.0161
3399.00,0.0162
3398.00,0.0162
3397.00,0.0162
3396.00,0.0162
3395.00,0.0162
3394.00,0.0162
3393.00,0.0161
3392.00,0.0161
3391.00,0.0160
3390.00,0.0160
3389.00,0.0159
3388.00,0.0158
3387.00,0.0158
3386.00,0.0157
3385.00,0.0156
3384.00,0.0156
3383.00,0.0155
3382.00,0.0155
3381.00,0.0154
3380.00,0.0154
3379.00,0.0153
3378.00,0.0153
3377.00,0.0153
3376.00,0.0153
3375.00,0.0152
3374.00,0.0152
3373.00,0.0152
3372.00,0.0152
3371.00,0.0152
3370.00,0.0151
3369.00,0.0151
3368.00,0.0151
3367.00,0.0150
3366.00,0.0150
3365.00,0.0150
3364.00,0.0150
3363.00,0.0149
3362.00,0.0149
3361.00,0.0149
3360.00,0.0148
3359.00,0.0148
3358.00,0.0148
3357.00,0.0148
3356.00,0.0147
3355.00,0.0147
3354.00,0.0147
3353.00,0.0146
3352.00,0.0146
3351.00,0.0146
3350.00,0.0146
3349.00,0.0145
3348.00,0.0145
3347.00,0.0144
3346.00,0.0143
3345.00,0.0143
3344.00,0.0142
3343.00,0.0142
3342.00,0.0141
3341.00,0.0141
3340.00,0.0142
3339.00,0.0142
3338.00,0.0141
3337.00,0.0141
3336.00,0.0140
3335.00,0.0139
3334.00,0.0139
3333.00,0.0138
3332.00,0.0138
3331.00,0.0138
3330.00,0.0138
3329.00,0.0138
3328.00,0.0138
3327.00,0.0137
3326.00,0.0137
3325.00,0.0137
3324.00,0.0136
3323.00,0.0136
3322.00,0.0135
3321.00,0.0135
3320.00,0.0135
3319.00,0.0134
3318.00,0.0134
3317.00,0.0133
3316.00,0.0133
3315.00,0.0133
3314.00,0.0132
3313.00,0.0131
3312.00,0.0131
3311.00,0.0130
3310.00,0.0130
3309.00,0.0130
3308.00,0.0130
3307.00,0.0130
3306.00,0.0129
3305.00,0.0129
3304.00,0.0129
3303.00,0.0128
3302.00,0.0128
3301.00,0.0128
3300.00,0.0127
3299.00,0.0127
3298.00,0.0127
3297.00,0.0127
3296.00,0.0126
3295.00,0.0126
3294.00,0.0126
3293.00,0.0125
3292.00,0.0125
3291.00,0.0125
3290.00,0.0124
3289.00,0.0124
3288.00,0.0124
3287.00,0.0124
3286.00,0.0123
3285.00,0.0123
3284.00,0.0122
3283.00,0.0122
3282.00,0.0121
3281.00,0.0121
3280.00,0.0121
3279.00,0.0120
3278.00,0.0120
3277.00,0.0119
3276.00,0.0119
3275.00,0.0119
3274.00,0.0119
3273.00,0.0119
3272.00,0.0118
3271.00,0.0117
3270.00,0.0116
3269.00,0.0116
3268.00,0.0115
3267.00,0.0115
3266.00,0.0115
3265.00,0.0115
3264.00,0.0115
3263.00,0.0115
3262.00,0.0115
3261.00,0.0115
3260.00,0.0115
3259.00,0.0114
3258.00,0.0113
3257.00,0.0112
3256.00,0.0112
3255.00,0.0111
3254.00,0.0111
3253.00,0.0111
3252.00,0.0110
3251.00,0.0110
3250.00,0.0110
3249.00,0.0109
3248.00,0.0109
3247.00,0.0109
3246.00,0.0109
3245.00,0.0109
3244.00,0.0108
3243.00,0.0108
3242.00,0.0108
3241.00,0.0108
3240.00,0.0107
3239.00,0.0107
3238.00,0.0106
3237.00,0.0106
3236.00,0.0106
3235.00,0.0106
3234.00,0.0107
3233.00,0.0107
3232.00,0.0107
3231.00,0.0107
3230.00,0.0107
3229.00,0.0107
3228.00,0.0106
3227.00,0.0106
3226.00,0.0106
3225.00,0.0106
3224.00,0.0106
3223.00,0.0106
3222.00,0.0106
3221.00,0.0105
3220.00,0.0105
3219.00,0.0105
3218.00,0.0105
3217.00,0.0105
3216.00,0.0104
3215.00,0.0104
3214.00,0.0104
3213.00,0.0104
3212.00,0.0104
3211.00,0.0103
3210.00,0.0103
3209.00,0.0103
3208.00,0.0103
3207.00,0.0103
3206.00,0.0103
3205.00,0.0103
3204.00,0.0103
3203.00,0.0103
3202.00,0.0102
3201.00,0.0102
3200.00,0.0102
3199.00,0.0102
3198.00,0.0102
3197.00,0.0102
3196.00,0.0102
3195.00,0.0101
3194.00,0.0101
3193.00,0.0101
3192.00,0.0100
3191.00,0.0100
3190.00,0.0100
3189.00,0.0100
3188.00,0.0100
3187.00,0.0100
3186.00,0.0100
3185.00,0.0099
3184.00,0.0098
3183.00,0.0097
3182.00,0.0096
3181.00,0.0095
3180.00,0.0095
3179.00,0.0094
3178.00,0.0094
3177.00,0.0093
3176.00,0.0092
3175.00,0.0091
3174.00,0.0091
3173.00,0.0090
3172.00,0.0089
3171.00,0.0089
3170.00,0.0088
3169.00,0.0088
3168.00,0.0087
3167.00,0.0087
3166.00,0.0087
3165.00,0.0086
3164.00,0.0086
3163.00,0.0085
3162.00,0.0084
3161.00,0.0084
3160.00,0.0084
3159.00,0.0083
3158.00,0.0083
3157.00,0.0083
3156.00,0.0082
3155.00,0.0082
3154.00,0.0082
3153.00,0.0081
3152.00,0.0081
3151.00,0.0081
3150.00,0.0080
3149.00,0.0080
3148.00,0.0079
3147.00,0.0079
3146.00,0.0078
3145.00,0.0078
3144.00,0.0078
3143.00,0.0078
3142.00,0.0077
3141.00,0.0077
3140.00,0.0076
3139.00,0.0076
3138.00,0.0075
3137.00,0.0075
3136.00,0.0075
3135.00,0.0074
3134.00,0.0074
3133.00,0.0073
3132.00,0.0073
3131.00,0.0072
3130.00,0.0072
3129.00,0.0071
3128.00,0.0070
3127.00,0.0070
3126.00,0.0070
3125.00,0.0069
3124.00,0.0069
3123.00,0.0068
3122.00,0.0067
3121.00,0.0067
3120.00,0.0067
3119.00,0.0067
3118.00,0.0066
3117.00,0.0066
3116.00,0.0066
3115.00,0.0065
3114.00,0.0065
3113.00,0.0064
3112.00,0.0064
3111.00,0.0063
3110.00,0.0063
3109.00,0.0063
3108.00,0.0063
3107.00,0.0062
3106.00,0.0062
3105.00,0.0062
3104.00,0.0062
3103.00,0.0061
3102.00,0.0061
3101.00,0.0061
3100.00,0.0060
3099.00,0.0060
3098.00,0.0060
3097.00,0.0060
3096.00,0.0060
3095.00,0.0060
3094.00,0.0060
3093.00,0.0060
3092.00,0.0060
3091.00,0.0059
3090.00,0.0059
3089.00,0.0059
3088.00,0.0059
3087.00,0.0058
3086.00,0.0058
3085.00,0.0058
3084.00,0.0057
3083.00,0.0057
3082.00,0.0057
3081.00,0.0057
3080.00,0.0057
3079.00,0.0056
3078.00,0.0056
3077.00,0.0056
3076.00,0.0056
3075.00,0.0057
3074.00,0.0057
3073.00,0.0058
3072.00,0.0058
3071.00,0.0058
3070.00,0.0058
3069.00,0.0057
3068.00,0.0058
3067.00,0.0058
3066.00,0.0058
3065.00,0.0058
3064.00,0.0058
3063.00,0.0058
3062.00,0.0058
3061.00,0.0058
3060.00,0.0057
3059.00,0.0058
3058.00,0.0058
3057.00,0.0058
3056.00,0.0058
3055.00,0.0058
3054.00,0.0058
3053.00,0.0058
3052.00,0.0058
3051.00,0.0058
3050.00,0.0058
3049.00,0.0058
3048.00,0.0059
3047.00,0.0060
3046.00,0.0060
3045.00,0.0060
3044.00,0.0060
3043.00,0.0060
3042.00,0.0060
3041.00,0.0060
3040.00,0.0061
3039.00,0.0061
3038.00,0.0062
3037.00,0.0062
3036.00,0.0062
3035.00,0.0062
3034.00,0.0063
3033.00,0.0063
3032.00,0.0063
3031.00,0.0064
3030.00,0.0064
3029.00,0.0065
3028.00,0.0065
3027.00,0.0066
3026.00,0.0066
3025.00,0.0067
3024.00,0.0068
3023.00,0.0068
3022.00,0.0069
3021.00,0.0070
3020.00,0.0070
3019.00,0.0071
3018.00,0.0072
3017.00,0.0073
3016.00,0.0074
3015.00,0.0075
3014.00,0.0077
3013.00,0.0078
3012.00,0.0080
3011.00,0.0081
3010.00,0.0083
3009.00,0.0084
3008.00,0.0085
3007.00,0.0087
3006.00,0.0088
3005.00,0.0090
3004.00,0.0093
3003.00,0.0095
3002.00,0.0098
3001.00,0.0101
3000.00,0.0103
2999.00,0.0107
2998.00,0.0110
2997.00,0.0114
2996.00,0.0118
2995.00,0.0122
2994.00,0.0127
2993.00,0.0132
2992.00,0.0138
2991.00,0.0144
2990.00,0.0150
2989.00,0.0157
2988.00,0.0164
2987.00,0.0172
2986.00,0.0181
2985.00,0.0190
2984.00,0.0200
2983.00,0.0211
2982.00,0.0224
2981.00,0.0240
2980.00,0.0257
2979.00,0.0276
2978.00,0.0297
2977.00,0.0321
2976.00,0.0349
2975.00,0.0381
2974.00,0.0417
2973.00,0.0458
2972.00,0.0504
2971.00,0.0556
2970.00,0.0615
2969.00,0.0679
2968.00,0.0749
2967.00,0.0824
2966.00,0.0902
2965.00,0.0981
2964.00,0.1057
2963.00,0.1127
2962.00,0.1185
2961.00,0.1231
2960.00,0.1263
2959.00,0.1285
2958.00,0.1303
2957.00,0.1324
2956.00,0.1353
2955.00,0.1392
2954.00,0.1440
2953.00,0.1493
2952.00,0.1541
2951.00,0.1573
2950.00,0.1581
2949.00,0.1559
2948.00,0.1506
2947.00,0.1428
2946.00,0.1335
2945.00,0.1237
2944.00,0.1145
2943.00,0.1066
2942.00,0.1004
2941.00,0.0961
2940.00,0.0937
2939.00,0.0930
2938.00,0.0938
2937.00,0.0960
2936.00,0.0994
2935.00,0.1040
2934.00,0.1097
2933.00,0.1162
2932.00,0.1236
2931.00,0.1316
2930.00,0.1401
2929.00,0.1489
2928.00,0.1577
2927.00,0.1664
2926.00,0.1748
2925.00,0.1830
2924.00,0.1911
2923.00,0.1991
2922.00,0.2069
2921.00,0.2142
2920.00,0.2204
2919.00,0.2248
2918.00,0.2265
2917.00,0.2252
2916.00,0.2207
2915.00,0.2139
2914.00,0.2056
2913.00,0.1969
2912.00,0.1886
2911.00,0.1812
2910.00,0.1748
2909.00,0.1693
2908.00,0.1643
2907.00,0.1596
2906.00,0.1549
2905.00,0.1501
2904.00,0.1451
2903.00,0.1400
2902.00,0.1348
2901.00,0.1297
2900.00,0.1247
2899.00,0.1199
2898.00,0.1154
2897.00,0.1112
2896.00,0.1075
2895.00,0.1042
2894.00,0.1014
2893.00,0.0991
2892.00,0.0973
2891.00,0.0960
2890.00,0.0951
2889.00,0.0945
2888.00,0.0941
2887.00,0.0940
2886.00,0.0942
2885.00,0.0946
2884.00,0.0953
2883.00,0.0964
2882.00,0.0977
2881.00,0.0991
2880.00,0.1005
2879.00,0.1015
2878.00,0.1020
2877.00,0.1018
2876.00,0.1012
2875.00,0.1005
2874.00,0.1000
2873.00,0.1000
2872.00,0.1006
2871.00,0.1017
2870.00,0.1031
2869.00,0.1044
2868.00,0.1051
2867.00,0.1046
2866.00,0.1025
2865.00,0.0987
2864.00,0.0934
2863.00,0.0875
2862.00,0.0815
2861.00,0.0763
2860.00,0.0721
2859.00,0.0692
2858.00,0.0675
2857.00,0.0668
2856.00,0.0670
2855.00,0.0679
2854.00,0.0694
2853.00,0.0713
2852.00,0.0734
2851.00,0.0754
2850.00,0.0770
2849.00,0.0783
2848.00,0.0793
2847.00,0.0805
2846.00,0.0823
2845.00,0.0849
2844.00,0.0884
2843.00,0.0926
2842.00,0.0969
2841.00,0.1009
2840.00,0.1040
2839.00,0.1055
2838.00,0.1048
2837.00,0.1018
2836.00,0.0966
2835.00,0.0895
2834.00,0.0814
2833.00,0.0730
2832.00,0.0650
2831.00,0.0579
2830.00,0.0519
2829.00,0.0469
2828.00,0.0427
2827.00,0.0393
2826.00,0.0365
2825.00,0.0342
2824.00,0.0322
2823.00,0.0305
2822.00,0.0290
2821.00,0.0278
2820.00,0.0267
2819.00,0.0257
2818.00,0.0248
2817.00,0.0240
2816.00,0.0232
2815.00,0.0225
2814.00,0.0219
2813.00,0.0213
2812.00,0.0207
2811.00,0.0201
2810.00,0.0195
2809.00,0.0189
2808.00,0.0183
2807.00,0.0176
2806.00,0.0169
2805.00,0.0162
2804.00,0.0155
2803.00,0.0149
2802.00,0.0143
2801.00,0.0138
2800.00,0.0134
2799.00,0.0131
2798.00,0.0128
2797.00,0.0125
2796.00,0.0123
2795.00,0.0121
2794.00,0.0118
2793.00,0.0115
2792.00,0.0112
2791.00,0.0109
2790.00,0.0106
2789.00,0.0103
2788.00,0.0100
2787.00,0.0097
2786.00,0.0095
2785.00,0.0093
2784.00,0.0090
2783.00,0.0088
2782.00,0.0086
2781.00,0.0085
2780.00,0.0083
2779.00,0.0082
2778.00,0.0080
2777.00,0.0079
2776.00,0.0078
2775.00,0.0077
2774.00,0.0076
2773.00,0.0075
2772.00,0.0074
2771.00,0.0074
2770.00,0.0074
2769.00,0.0073
2768.00,0.0072
2767.00,0.0072
2766.00,0.0071
2765.00,0.0071
2764.00,0.0071
2763.00,0.0071
2762.00,0.0070
2761.00,0.0070
2760.00,0.0070
2759.00,0.0070
2758.00,0.0070
2757.00,0.0070
2756.00,0.0069
2755.00,0.0069
2754.00,0.0068
2753.00,0.0068
2752.00,0.0067
2751.00,0.0067
2750.00,0.0067
2749.00,0.0067
2748.00,0.0067
2747.00,0.0067
2746.00,0.0067
2745.00,0.0068
2744.00,0.0068
2743.00,0.0069
2742.00,0.0070
2741.00,0.0071
2740.00,0.0071
2739.00,0.0072
2738.00,0.0073
2737.00,0.0073
2736.00,0.0074
2735.00,0.0075
2734.00,0.0076
2733.00,0.0077
2732.00,0.0078
2731.00,0.0080
2730.00,0.0081
2729.00,0.0083
2728.00,0.0085
2727.00,0.0087
2726.00,0.0089
2725.00,0.0090
2724.00,0.0091
2723.00,0.0092
2722.00,0.0091
2721.00,0.0090
2720.00,0.0088
2719.00,0.0086
2718.00,0.0083
2717.00,0.0081
2716.00,0.0078
2715.00,0.0076
2714.00,0.0074
2713.00,0.0072
2712.00,0.0071
2711.00,0.0069
2710.00,0.0068
2709.00,0.0066
2708.00,0.0065
2707.00,0.0064
2706.00,0.0064
2705.00,0.0063
2704.00,0.0062
2703.00,0.0062
2702.00,0.0061
2701.00,0.0061
2700.00,0.0060
2699.00,0.0059
2698.00,0.0058
2697.00,0.0058
2696.00,0.0057
2695.00,0.0057
2694.00,0.0058
2693.00,0.0058
2692.00,0.0058
2691.00,0.0058
2690.00,0.0058
2689.00,0.0057
2688.00,0.0057
2687.00,0.0057
2686.00,0.0057
2685.00,0.0057
2684.00,0.0057
2683.00,0.0057
2682.00,0.0057
2681.00,0.0057
2680.00,0.0057
2679.00,0.0057
2678.00,0.0057
2677.00,0.0058
2676.00,0.0058
2675.00,0.0058
2674.00,0.0058
2673.00,0.0058
2672.00,0.0057
2671.00,0.0057
2670.00,0.0057
2669.00,0.0057
2668.00,0.0058
2667.00,0.0058
2666.00,0.0058
2665.00,0.0059
2664.00,0.0059
2663.00,0.0059
2662.00,0.0059
2661.00,0.0059
2660.00,0.0059
2659.00,0.0060
2658.00,0.0060
2657.00,0.0060
2656.00,0.0059
2655.00,0.0059
2654.00,0.0059
2653.00,0.0059
2652.00,0.0058
2651.00,0.0058
2650.00,0.0057
2649.00,0.0056
2648.00,0.0056
2647.00,0.0055
2646.00,0.0054
2645.00,0.0054
2644.00,0.0054
2643.00,0.0053
2642.00,0.0053
2641.00,0.0053
2640.00,0.0052
2639.00,0.0052
2638.00,0.0051
2637.00,0.0050
2636.00,0.0050
2635.00,0.0050
2634.00,0.0050
2633.00,0.0051
2632.00,0.0051
2631.00,0.0051
2630.00,0.0051
2629.00,0.0051
2628.00,0.0051
2627.00,0.0052
2626.00,0.0052
2625.00,0.0051
2624.00,0.0051
2623.00,0.0051
2622.00,0.0051
2621.00,0.0051
2620.00,0.0051
2619.00,0.0051
2618.00,0.0051
2617.00,0.0051
2616.00,0.0051
2615.00,0.0051
2614.00,0.0051
2613.00,0.0050
2612.00,0.0050
2611.00,0.0050
2610.00,0.0049
2609.00,0.0048
2608.00,0.0047
2607.00,0.0046
2606.00,0.0046
2605.00,0.0045
2604.00,0.0045
2603.00,0.0045
2602.00,0.0045
2601.00,0.0044
2600.00,0.0044
2599.00,0.0044
2598.00,0.0043
2597.00,0.0043
2596.00,0.0044
2595.00,0.0044
2594.00,0.0045
2593.00,0.0046
2592.00,0.0046
2591.00,0.0046
2590.00,0.0046
2589.00,0.0047
2588.00,0.0047
2587.00,0.0047
2586.00,0.0047
2585.00,0.0047
2584.00,0.0047
2583.00,0.0048
2582.00,0.0048
2581.00,0.0049
2580.00,0.0048
2579.00,0.0048
2578.00,0.0047
2577.00,0.0045
2576.00,0.0044
2575.00,0.0043
2574.00,0.0043
2573.00,0.0042
2572.00,0.0041
2571.00,0.0040
2570.00,0.0039
2569.00,0.0038
2568.00,0.0038
2567.00,0.0037
2566.00,0.0037
2565.00,0.0036
2564.00,0.0036
2563.00,0.0036
2562.00,0.0036
2561.00,0.0036
2560.00,0.0036
2559.00,0.0036
2558.00,0.0036
2557.00,0.0036
2556.00,0.0036
2555.00,0.0035
2554.00,0.0034
2553.00,0.0033
2552.00,0.0032
2551.00,0.0032
2550.00,0.0032
2549.00,0.0031
2548.00,0.0031
2547.00,0.0032
2546.00,0.0032
2545.00,0.0031
2544.00,0.0031
2543.00,0.0031
2542.00,0.0031
2541.00,0.0031
2540.00,0.0031
2539.00,0.0030
2538.00,0.0030
2537.00,0.0029
2536.00,0.0028
2535.00,0.0028
2534.00,0.0029
2533.00,0.0029
2532.00,0.0029
2531.00,0.0029
2530.00,0.0028
2529.00,0.0028
2528.00,0.0028
2527.00,0.0028
2526.00,0.0028
2525.00,0.0028
2524.00,0.0028
2523.00,0.0028
2522.00,0.0028
2521.00,0.0028
2520.00,0.0027
2519.00,0.0027
2518.00,0.0026
2517.00,0.0026
2516.00,0.0025
2515.00,0.0024
2514.00,0.0024
2513.00,0.0024
2512.00,0.0024
2511.00,0.0024
2510.00,0.0024
2509.00,0.0024
2508.00,0.0024
2507.00,0.0024
2506.00,0.0024
2505.00,0.0024
2504.00,0.0024
2503.00,0.0024
2502.00,0.0024
2501.00,0.0024
2500.00,0.0024
2499.00,0.0024
2498.00,0.0025
2497.00,0.0025
2496.00,0.0024
2495.00,0.0024
2494.00,0.0024
2493.00,0.0024
2492.00,0.0024
2491.00,0.0024
2490.00,0.0024
2489.00,0.0023
2488.00,0.0023
2487.00,0.0023
2486.00,0.0023
2485.00,0.0023
2484.00,0.0023
2483.00,0.0023
2482.00,0.0023
2481.00,0.0023
2480.00,0.0023
2479.00,0.0022
2478.00,0.0022
2477.00,0.0022
2476.00,0.0022
2475.00,0.0022
2474.00,0.0022
2473.00,0.0022
2472.00,0.0022
2471.00,0.0022
2470.00,0.0022
2469.00,0.0022
2468.00,0.0021
2467.00,0.0021
2466.00,0.0021
2465.00,0.0021
2464.00,0.0022
2463.00,0.0022
2462.00,0.0022
2461.00,0.0022
2460.00,0.0022
2459.00,0.0022
2458.00,0.0022
2457.00,0.0022
2456.00,0.0023
2455.00,0.0024
2454.00,0.0024
2453.00,0.0024
2452.00,0.0024
2451.00,0.0023
2450.00,0.0023
2449.00,0.0022
2448.00,0.0023
2447.00,0.0023
2446.00,0.0023
2445.00,0.0023
2444.00,0.0023
2443.00,0.0022
2442.00,0.0022
2441.00,0.0023
2440.00,0.0023
2439.00,0.0023
2438.00,0.0023
2437.00,0.0024
2436.00,0.0024
2435.00,0.0024
2434.00,0.0024
2433.00,0.0024
2432.00,0.0024
2431.00,0.0024
2430.00,0.0024
2429.00,0.0024
2428.00,0.0025
2427.00,0.0025
2426.00,0.0025
2425.00,0.0024
2424.00,0.0023
2423.00,0.0023
2422.00,0.0023
2421.00,0.0023
2420.00,0.0023
2419.00,0.0023
2418.00,0.0023
2417.00,0.0022
2416.00,0.0022
2415.00,0.0021
2414.00,0.0021
2413.00,0.0021
2412.00,0.0021
2411.00,0.0022
2410.00,0.0022
2409.00,0.0022
2408.00,0.0022
2407.00,0.0021
2406.00,0.0021
2405.00,0.0021
2404.00,0.0021
2403.00,0.0021
2402.00,0.0021
2401.00,0.0021
2400.00,0.0021
2399.00,0.0021
2398.00,0.0021
2397.00,0.0020
2396.00,0.0020
2395.00,0.0019
2394.00,0.0019
2393.00,0.0019
2392.00,0.0019
2391.00,0.0018
2390.00,0.0018
2389.00,0.0018
2388.00,0.0019
2387.00,0.0019
2386.00,0.0019
2385.00,0.0018
2384.00,0.0017
2383.00,0.0017
2382.00,0.0016
2381.00,0.0015
2380.00,0.0014
2379.00,0.0014
2378.00,0.0014
2377.00,0.0015
2376.00,0.0015
2375.00,0.0015
2374.00,0.0015
2373.00,0.0014
2372.00,0.0014
2371.00,0.0013
2370.00,0.0013
2369.00,0.0013
2368.00,0.0012
2367.00,0.0012
2366.00,0.0012
2365.00,0.0012
2364.00,0.0013
2363.00,0.0014
2362.00,0.0015
2361.00,0.0015
2360.00,0.0016
2359.00,0.0016
2358.00,0.0015
2357.00,0.0014
2356.00,0.0014
2355.00,0.0013
2354.00,0.0013
2353.00,0.0014
2352.00,0.0014
2351.00,0.0014
2350.00,0.0014
2349.00,0.0014
2348.00,0.0015
2347.00,0.0015
2346.00,0.0015
2345.00,0.0015
2344.00,0.0015
2343.00,0.0015
2342.00,0.0016
2341.00,0.0016
2340.00,0.0017
2339.00,0.0017
2338.00,0.0016
2337.00,0.0016
2336.00,0.0017
2335.00,0.0017
2334.00,0.0017
2333.00,0.0017
2332.00,0.0016
2331.00,0.0016
2330.00,0.0016
2329.00,0.0016
2328.00,0.0017
2327.00,0.0020
2326.00,0.0024
2325.00,0.0027
2324.00,0.0028
2323.00,0.0027
2322.00,0.0026
2321.00,0.0024
2320.00,0.0024
2319.00,0.0023
2318.00,0.0021
2317.00,0.0020
2316.00,0.0019
2315.00,0.0018
2314.00,0.0017
2313.00,0.0018
2312.00,0.0018
2311.00,0.0019
2310.00,0.0019
2309.00,0.0019
2308.00,0.0019
2307.00,0.0018
2306.00,0.0019
2305.00,0.0019
2304.00,0.0019
2303.00,0.0019
2302.00,0.0019
2301.00,0.0019
2300.00,0.0019
2299.00,0.0020
2298.00,0.0021
2297.00,0.0021
2296.00,0.0022
2295.00,0.0022
2294.00,0.0022
2293.00,0.0023
2292.00,0.0023
2291.00,0.0024
2290.00,0.0024
2289.00,0.0026
2288.00,0.0027
2287.00,0.0028
2286.00,0.0029
2285.00,0.0029
2284.00,0.0029
2283.00,0.0028
2282.00,0.0027
2281.00,0.0026
2280.00,0.0025
2279.00,0.0024
2278.00,0.0023
2277.00,0.0022
2276.00,0.0021
2275.00,0.0020
2274.00,0.0019
2273.00,0.0019
2272.00,0.0019
2271.00,0.0018
2270.00,0.0018
2269.00,0.0019
2268.00,0.0019
2267.00,0.0020
2266.00,0.0020
2265.00,0.0020
2264.00,0.0021
2263.00,0.0021
2262.00,0.0020
2261.00,0.0019
2260.00,0.0019
2259.00,0.0019
2258.00,0.0020
2257.00,0.0021
2256.00,0.0021
2255.00,0.0020
2254.00,0.0019
2253.00,0.0019
2252.00,0.0018
2251.00,0.0017
2250.00,0.0015
2249.00,0.0015
2248.00,0.0014
2247.00,0.0015
2246.00,0.0016
2245.00,0.0017
2244.00,0.0018
2243.00,0.0019
2242.00,0.0019
2241.00,0.0019
2240.00,0.0019
2239.00,0.0019
2238.00,0.0018
2237.00,0.0018
2236.00,0.0019
2235.00,0.0019
2234.00,0.0018
2233.00,0.0018
2232.00,0.0016
2231.00,0.0015
2230.00,0.0014
2229.00,0.0014
2228.00,0.0015
2227.00,0.0017
2226.00,0.0018
2225.00,0.0018
2224.00,0.0018
2223.00,0.0018
2222.00,0.0017
2221.00,0.0016
2220.00,0.0016
2219.00,0.0016
2218.00,0.0016
2217.00,0.0016
2216.00,0.0016
2215.00,0.0016
2214.00,0.0015
2213.00,0.0014
2212.00,0.0014
2211.00,0.0015
2210.00,0.0016
2209.00,0.0016
2208.00,0.0015
2207.00,0.0015
2206.00,0.0015
2205.00,0.0014
2204.00,0.0014
2203.00,0.0014
2202.00,0.0015
2201.00,0.0016
2200.00,0.0016
2199.00,0.0015
2198.00,0.0014
2197.00,0.0013
2196.00,0.0014
2195.00,0.0015
2194.00,0.0016
2193.00,0.0017
2192.00,0.0017
2191.00,0.0016
2190.00,0.0015
2189.00,0.0014
2188.00,0.0012
2187.00,0.0012
2186.00,0.0014
2185.00,0.0016
2184.00,0.0017
2183.00,0.0015
2182.00,0.0012
2181.00,0.0010
2180.00,0.0009
2179.00,0.0009
2178.00,0.0009
2177.00,0.0009
2176.00,0.0008
2175.00,0.0008
2174.00,0.0009
2173.00,0.0010
2172.00,0.0011
2171.00,0.0012
2170.00,0.0013
2169.00,0.0014
2168.00,0.0015
2167.00,0.0015
2166.00,0.0015
2165.00,0.0015
2164.00,0.0016
2163.00,0.0017
2162.00,0.0017
2161.00,0.0012
2160.00,0.0001
2159.00,-0.0012
2158.00,-0.0021
2157.00,-0.0023
2156.00,-0.0020
2155.00,-0.0016
2154.00,-0.0013
2153.00,-0.0008
2152.00,-0.0003
2151.00,-0.0000
2150.00,0.0000
2149.00,-0.0002
2148.00,-0.0005
2147.00,-0.0007
2146.00,-0.0006
2145.00,-0.0004
2144.00,-0.0002
2143.00,-0.0000
2142.00,0.0002
2141.00,0.0003
2140.00,0.0004
2139.00,0.0004
2138.00,0.0003
2137.00,0.0001
2136.00,-0.0001
2135.00,-0.0002
2134.00,-0.0003
2133.00,-0.0002
2132.00,-0.0001
2131.00,-0.0000
2130.00,-0.0000
2129.00,-0.0000
2128.00,-0.0000
2127.00,0.0000
2126.00,0.0002
2125.00,0.0004
2124.00,0.0006
2123.00,0.0007
2122.00,0.0008
2121.00,0.0008
2120.00,0.0008
2119.00,0.0008
2118.00,0.0010
2117.00,0.0012
2116.00,0.0013
2115.00,0.0014
2114.00,0.0014
2113.00,0.0014
2112.00,0.0014
2111.00,0.0014
2110.00,0.0013
2109.00,0.0012
2108.00,0.0011
2107.00,0.0010
2106.00,0.0009
2105.00,0.0009
2104.00,0.0009
2103.00,0.0011
2102.00,0.0011
2101.00,0.0012
2100.00,0.0012
2099.00,0.0011
2098.00,0.0011
2097.00,0.0010
2096.00,0.0008
2095.00,0.0007
2094.00,0.0006
2093.00,0.0006
2092.00,0.0008
2091.00,0.0010
2090.00,0.0011
2089.00,0.0011
2088.00,0.0009
2087.00,0.0008
2086.00,0.0007
2085.00,0.0009
2084.00,0.0012
2083.00,0.0014
2082.00,0.0015
2081.00,0.0015
2080.00,0.0015
2079.00,0.0015
2078.00,0.0014
2077.00,0.0014
2076.00,0.0015
2075.00,0.0014
2074.00,0.0014
2073.00,0.0012
2072.00,0.0010
2071.00,0.0009
2070.00,0.0008
2069.00,0.0007
2068.00,0.0007
2067.00,0.0007
2066.00,0.0008
2065.00,0.0009
2064.00,0.0011
2063.00,0.0011
2062.00,0.0012
2061.00,0.0011
2060.00,0.0009
2059.00,0.0008
2058.00,0.0008
2057.00,0.0009
2056.00,0.0011
2055.00,0.0012
2054.00,0.0013
2053.00,0.0016
2052.00,0.0021
2051.00,0.0024
2050.00,0.0024
2049.00,0.0020
2048.00,0.0015
2047.00,0.0011
2046.00,0.0008
2045.00,0.0008
2044.00,0.0008
2043.00,0.0008
2042.00,0.0006
2041.00,0.0004
2040.00,0.0004
2039.00,0.0006
2038.00,0.0009
2037.00,0.0011
2036.00,0.0013
2035.00,0.0013
2034.00,0.0012
2033.00,0.0008
2032.00,0.0003
2031.00,-0.0002
2030.00,-0.0003
2029.00,-0.0002
2028.00,-0.0000
2027.00,0.0001
2026.00,-0.0000
2025.00,-0.0002
2024.00,-0.0003
2023.00,-0.0004
2022.00,-0.0004
2021.00,-0.0003
2020.00,-0.0002
2019.00,-0.0002
2018.00,-0.0002
2017.00,-0.0002
2016.00,-0.0001
2015.00,0.0001
2014.00,0.0002
2013.00,0.0001
2012.00,0.0000
2011.00,0.0000
2010.00,0.0001
2009.00,0.0002
2008.00,0.0001
2007.00,-0.0003
2006.00,-0.0006
2005.00,-0.0008
2004.00,-0.0008
2003.00,-0.0007
2002.00,-0.0007
2001.00,-0.0007
2000.00,-0.0008
1999.00,-0.0007
1998.00,-0.0006
1997.00,-0.0004
1996.00,-0.0004
1995.00,-0.0004
1994.00,-0.0002
1993.00,0.0000
1992.00,0.0003
1991.00,0.0004
1990.00,0.0004
1989.00,0.0005
1988.00,0.0006
1987.00,0.0008
1986.00,0.0010
1985.00,0.0012
1984.00,0.0013
1983.00,0.0014
1982.00,0.0014
1981.00,0.0015
1980.00,0.0013
1979.00,0.0008
1978.00,0.0002
1977.00,-0.0002
1976.00,-0.0003
1975.00,-0.0002
1974.00,0.0000
1973.00,0.0002
1972.00,0.0002
1971.00,0.0002
1970.00,-0.0000
1969.00,-0.0002
1968.00,-0.0004
1967.00,-0.0004
1966.00,-0.0003
1965.00,-0.0000
1964.00,0.0002
1963.00,0.0002
1962.00,-0.0000
1961.00,-0.0003
1960.00,-0.0005
1959.00,-0.0004
1958.00,-0.0002
1957.00,0.0001
1956.00,0.0002
1955.00,0.0000
1954.00,-0.0001
1953.00,-0.0001
1952.00,-0.0000
1951.00,0.0000
1950.00,-0.0000
1949.00,-0.0001
1948.00,-0.0001
1947.00,-0.0002
1946.00,-0.0003
1945.00,-0.0003
1944.00,-0.0002
1943.00,-0.0002
1942.00,-0.0002
1941.00,-0.0001
1940.00,0.0000
1939.00,0.0002
1938.00,0.0003
1937.00,0.0004
1936.00,0.0003
1935.00,0.0004
1934.00,0.0004
1933.00,0.0003
1932.00,0.0003
1931.00,0.0002
1930.00,0.0002
1929.00,0.0003
1928.00,0.0003
1927.00,0.0003
1926.00,0.0003
1925.00,0.0003
1924.00,0.0004
1923.00,0.0005
1922.00,0.0006
1921.00,0.0006
1920.00,0.0006
1919.00,0.0005
1918.00,0.0004
1917.00,0.0004
1916.00,0.0005
1915.00,0.0006
1914.00,0.0007
1913.00,0.0008
1912.00,0.0007
1911.00,0.0005
1910.00,0.0004
1909.00,0.0004
1908.00,0.0005
1907.00,0.0006
1906.00,0.0007
1905.00,0.0007
1904.00,0.0007
1903.00,0.0007
1902.00,0.0007
1901.00,0.0006
1900.00,0.0005
1899.00,0.0005
1898.00,0.0005
1897.00,0.0006
1896.00,0.0007
1895.00,0.0008
1894.00,0.0010
1893.00,0.0010
1892.00,0.0010
1891.00,0.0009
1890.00,0.0008
1889.00,0.0008
1888.00,0.0008
1887.00,0.0008
1886.00,0.0008
1885.00,0.0008
1884.00,0.0008
1883.00,0.0009
1882.00,0.0009
1881.00,0.0010
1880.00,0.0010
1879.00,0.0010
1878.00,0.0010
1877.00,0.0010
1876.00,0.0009
1875.00,0.0009
1874.00,0.0008
1873.00,0.0008
1872.00,0.0008
1871.00,0.0007
1870.00,0.0006
1869.00,0.0006
1868.00,0.0007
1867.00,0.0007
1866.00,0.0007
1865.00,0.0008
1864.00,0.0009
1863.00,0.0009
1862.00,0.0010
1861.00,0.0010
1860.00,0.0010
1859.00,0.0010
1858.00,0.0009
1857.00,0.0009
1856.00,0.0010
1855.00,0.0010
1854.00,0.0010
1853.00,0.0010
1852.00,0.0010
1851.00,0.0010
1850.00,0.0011
1849.00,0.0011
1848.00,0.0012
1847.00,0.0011
1846.00,0.0011
1845.00,0.0010
1844.00,0.0010
1843.00,0.0009
1842.00,0.0009
1841.00,0.0010
1840.00,0.0011
1839.00,0.0011
1838.00,0.0012
1837.00,0.0012
1836.00,0.0012
1835.00,0.0012
1834.00,0.0012
1833.00,0.0012
1832.00,0.0012
1831.00,0.0012
1830.00,0.0013
1829.00,0.0014
1828.00,0.0015
1827.00,0.0015
1826.00,0.0015
1825.00,0.0015
1824.00,0.0015
1823.00,0.0015
1822.00,0.0014
1821.00,0.0013
1820.00,0.0012
1819.00,0.0011
1818.00,0.0009
1817.00,0.0009
1816.00,0.0010
1815.00,0.0011
1814.00,0.0011
1813.00,0.0012
1812.00,0.0013
1811.00,0.0013
1810.00,0.0013
1809.00,0.0013
1808.00,0.0013
1807.00,0.0013
1806.00,0.0013
1805.00,0.0014
1804.00,0.0015
1803.00,0.0016
1802.00,0.0016
1801.00,0.0015
1800.00,0.0015
1799.00,0.0015
1798.00,0.0016
1797.00,0.0016
1796.00,0.0016
1795.00,0.0016
1794.00,0.0017
1793.00,0.0017
1792.00,0.0017
1791.00,0.0017
1790.00,0.0017
1789.00,0.0017
1788.00,0.0016
1787.00,0.0017
1786.00,0.0017
1785.00,0.0017
1784.00,0.0018
1783.00,0.0018
1782.00,0.0018
1781.00,0.0018
1780.00,0.0018
1779.00,0.0018
1778.00,0.0018
1777.00,0.0018
1776.00,0.0018
1775.00,0.0018
1774.00,0.0018
1773.00,0.0018
1772.00,0.0019
1771.00,0.0020
1770.00,0.0021
1769.00,0.0021
1768.00,0.0022
1767.00,0.0021
1766.00,0.0021
1765.00,0.0021
1764.00,0.0021
1763.00,0.0021
1762.00,0.0021
1761.00,0.0022
1760.00,0.0022
1759.00,0.0022
1758.00,0.0022
1757.00,0.0023
1756.00,0.0023
1755.00,0.0024
1754.00,0.0024
1753.00,0.0024
1752.00,0.0025
1751.00,0.0025
1750.00,0.0025
1749.00,0.0025
1748.00,0.0026
1747.00,0.0026
1746.00,0.0027
1745.00,0.0028
1744.00,0.0029
1743.00,0.0030
1742.00,0.0031
1741.00,0.0032
1740.00,0.0032
1739.00,0.0032
1738.00,0.0031
1737.00,0.0031
1736.00,0.0031
1735.00,0.0032
1734.00,0.0032
1733.00,0.0032
1732.00,0.0033
1731.00,0.0033
1730.00,0.0033
1729.00,0.0033
1728.00,0.0033
1727.00,0.0033
1726.00,0.0033
1725.00,0.0034
1724.00,0.0034
1723.00,0.0034
1722.00,0.0034
1721.00,0.0035
1720.00,0.0035
1719.00,0.0035
1718.00,0.0035
1717.00,0.0035
1716.00,0.0036
1715.00,0.0037
1714.00,0.0037
1713.00,0.0037
1712.00,0.0037
1711.00,0.0038
1710.00,0.0039
1709.00,0.0040
1708.00,0.0041
1707.00,0.0042
1706.00,0.0044
1705.00,0.0045
1704.00,0.0047
1703.00,0.0049
1702.00,0.0051
1701.00,0.0053
1700.00,0.0055
1699.00,0.0055
1698.00,0.0055
1697.00,0.0056
1696.00,0.0059
1695.00,0.0062
1694.00,0.0064
1693.00,0.0066
1692.00,0.0067
1691.00,0.0068
1690.00,0.0069
1689.00,0.0070
1688.00,0.0070
1687.00,0.0071
1686.00,0.0072
1685.00,0.0073
1684.00,0.0074
1683.00,0.0075
1682.00,0.0076
1681.00,0.0076
1680.00,0.0077
1679.00,0.0078
1678.00,0.0079
1677.00,0.0080
1676.00,0.0081
1675.00,0.0082
1674.00,0.0082
1673.00,0.0082
1672.00,0.0083
1671.00,0.0083
1670.00,0.0083
1669.00,0.0084
1668.00,0.0084
1667.00,0.0084
1666.00,0.0085
1665.00,0.0086
1664.00,0.0087
1663.00,0.0088
1662.00,0.0089
1661.00,0.0089
1660.00,0.0089
1659.00,0.0090
1658.00,0.0091
1657.00,0.0092
1656.00,0.0092
1655.00,0.0093
1654.00,0.0094
1653.00,0.0097
1652.00,0.0101
1651.00,0.0104
1650.00,0.0107
1649.00,0.0110
1648.00,0.0113
1647.00,0.0116
1646.00,0.0118
1645.00,0.0118
1644.00,0.0116
1643.00,0.0114
1642.00,0.0112
1641.00,0.0109
1640.00,0.0107
1639.00,0.0105
1638.00,0.0103
1637.00,0.0102
1636.00,0.0102
1635.00,0.0103
1634.00,0.0103
1633.00,0.0103
1632.00,0.0102
1631.00,0.0102
1630.00,0.0102
1629.00,0.0102
1628.00,0.0101
1627.00,0.0099
1626.00,0.0098
1625.00,0.0096
1624.00,0.0095
1623.00,0.0093
1622.00,0.0091
1621.00,0.0090
1620.00,0.0089
1619.00,0.0088
1618.00,0.0086
1617.00,0.0085
1616.00,0.0085
1615.00,0.0086
1614.00,0.0086
1613.00,0.0085
1612.00,0.0085
1611.00,0.0084
1610.00,0.0084
1609.00,0.0084
1608.00,0.0084
1607.00,0.0083
1606.00,0.0082
1605.00,0.0082
1604.00,0.0081
1603.00,0.0081
1602.00,0.0080
1601.00,0.0080
1600.00,0.0081
1599.00,0.0081
1598.00,0.0081
1597.00,0.0081
1596.00,0.0081
1595.00,0.0080
1594.00,0.0080
1593.00,0.0080
1592.00,0.0081
1591.00,0.0081
1590.00,0.0082
1589.00,0.0083
1588.00,0.0085
1587.00,0.0087
1586.00,0.0089
1585.00,0.0091
1584.00,0.0094
1583.00,0.0097
1582.00,0.0100
1581.00,0.0103
1580.00,0.0106
1579.00,0.0108
1578.00,0.0108
1577.00,0.0108
1576.00,0.0107
1575.00,0.0106
1574.00,0.0105
1573.00,0.0104
1572.00,0.0102
1571.00,0.0099
1570.00,0.0096
1569.00,0.0092
1568.00,0.0090
1567.00,0.0089
1566.00,0.0089
1565.00,0.0088
1564.00,0.0088
1563.00,0.0087
1562.00,0.0087
1561.00,0.0087
1560.00,0.0086
1559.00,0.0085
1558.00,0.0086
1557.00,0.0088
1556.00,0.0090
1555.00,0.0092
1554.00,0.0094
1553.00,0.0096
1552.00,0.0098
1551.00,0.0101
1550.00,0.0103
1549.00,0.0106
1548.00,0.0109
1547.00,0.0112
1546.00,0.0116
1545.00,0.0120
1544.00,0.0124
1543.00,0.0126
1542.00,0.0128
1541.00,0.0129
1540.00,0.0128
1539.00,0.0125
1538.00,0.0122
1537.00,0.0119
1536.00,0.0117
1535.00,0.0113
1534.00,0.0108
1533.00,0.0102
1532.00,0.0098
1531.00,0.0095
1530.00,0.0093
1529.00,0.0092
1528.00,0.0091
1527.00,0.0089
1526.00,0.0087
1525.00,0.0085
1524.00,0.0084
1523.00,0.0083
1522.00,0.0082
1521.00,0.0082
1520.00,0.0084
1519.00,0.0085
1518.00,0.0085
1517.00,0.0085
1516.00,0.0085
1515.00,0.0085
1514.00,0.0085
1513.00,0.0087
1512.00,0.0088
1511.00,0.0089
1510.00,0.0089
1509.00,0.0090
1508.00,0.0090
1507.00,0.0090
1506.00,0.0090
1505.00,0.0091
1504.00,0.0093
1503.00,0.0095
1502.00,0.0097
1501.00,0.0100
1500.00,0.0103
1499.00,0.0105
1498.00,0.0107
1497.00,0.0111
1496.00,0.0115
1495.00,0.0119
1494.00,0.0122
1493.00,0.0127
1492.00,0.0132
1491.00,0.0137
1490.00,0.0142
1489.00,0.0149
1488.00,0.0156
1487.00,0.0163
1486.00,0.0170
1485.00,0.0179
1484.00,0.0189
1483.00,0.0199
1482.00,0.0212
1481.00,0.0226
1480.00,0.0242
1479.00,0.0257
1478.00,0.0273
1477.00,0.0294
1476.00,0.0318
1475.00,0.0344
1474.00,0.0379
1473.00,0.0429
1472.00,0.0488
1471.00,0.0543
1470.00,0.0594
1469.00,0.0646
1468.00,0.0701
1467.00,0.0762
1466.00,0.0831
1465.00,0.0906
1464.00,0.0972
1463.00,0.1016
1462.00,0.1044
1461.00,0.1063
1460.00,0.1075
1459.00,0.1084
1458.00,0.1095
1457.00,0.1108
1456.00,0.1114
1455.00,0.1110
1454.00,0.1101
1453.00,0.1087
1452.00,0.1066
1451.00,0.1037
1450.00,0.0997
1449.00,0.0940
1448.00,0.0867
1447.00,0.0789
1446.00,0.0718
1445.00,0.0656
1444.00,0.0603
1443.00,0.0558
1442.00,0.0524
1441.00,0.0499
1440.00,0.0482
1439.00,0.0474
1438.00,0.0472
1437.00,0.0470
1436.00,0.0460
1435.00,0.0439
1434.00,0.0409
1433.00,0.0374
1432.00,0.0338
1431.00,0.0306
1430.00,0.0281
1429.00,0.0263
1428.00,0.0250
1427.00,0.0243
1426.00,0.0238
1425.00,0.0234
1424.00,0.0231
1423.00,0.0229
1422.00,0.0228
1421.00,0.0226
1420.00,0.0224
1419.00,0.0222
1418.00,0.0220
1417.00,0.0217
1416.00,0.0214
1415.00,0.0211
1414.00,0.0209
1413.00,0.0206
1412.00,0.0204
1411.00,0.0202
1410.00,0.0200
1409.00,0.0198
1408.00,0.0195
1407.00,0.0193
1406.00,0.0191
1405.00,0.0188
1404.00,0.0186
1403.00,0.0185
1402.00,0.0185
1401.00,0.0185
1400.00,0.0184
1399.00,0.0185
1398.00,0.0186
1397.00,0.0188
1396.00,0.0189
1395.00,0.0192
1394.00,0.0196
1393.00,0.0199
1392.00,0.0202
1391.00,0.0208
1390.00,0.0218
1389.00,0.0230
1388.00,0.0249
1387.00,0.0277
1386.00,0.0315
1385.00,0.0363
1384.00,0.0428
1383.00,0.0520
1382.00,0.0642
1381.00,0.0798
1380.00,0.0989
1379.00,0.1207
1378.00,0.1416
1377.00,0.1568
1376.00,0.1618
1375.00,0.1541
1374.00,0.1360
1373.00,0.1141
1372.00,0.0942
1371.00,0.0778
1370.00,0.0647
1369.00,0.0547
1368.00,0.0476
1367.00,0.0432
1366.00,0.0407
1365.00,0.0396
1364.00,0.0395
1363.00,0.0404
1362.00,0.0418
1361.00,0.0432
1360.00,0.0442
1359.00,0.0443
1358.00,0.0432
1357.00,0.0411
1356.00,0.0383
1355.00,0.0351
1354.00,0.0321
1353.00,0.0295
1352.00,0.0274
1351.00,0.0257
1350.00,0.0244
1349.00,0.0232
1348.00,0.0223
1347.00,0.0216
1346.00,0.0209
1345.00,0.0204
1344.00,0.0199
1343.00,0.0196
1342.00,0.0194
1341.00,0.0192
1340.00,0.0191
1339.00,0.0191
1338.00,0.0190
1337.00,0.0190
1336.00,0.0189
1335.00,0.0190
1334.00,0.0192
1333.00,0.0195
1332.00,0.0198
1331.00,0.0201
1330.00,0.0202
1329.00,0.0200
1328.00,0.0198
1327.00,0.0195
1326.00,0.0191
1325.00,0.0187
1324.00,0.0183
1323.00,0.0180
1322.00,0.0178
1321.00,0.0177
1320.00,0.0176
1319.00,0.0176
1318.00,0.0175
1317.00,0.0173
1316.00,0.0172
1315.00,0.0172
1314.00,0.0172
1313.00,0.0172
1312.00,0.0172
1311.00,0.0174
1310.00,0.0177
1309.00,0.0182
1308.00,0.0189
1307.00,0.0198
1306.00,0.0207
1305.00,0.0212
1304.00,0.0213
1303.00,0.0209
1302.00,0.0203
1301.00,0.0197
1300.00,0.0194
1299.00,0.0191
1298.00,0.0190
1297.00,0.0190
1296.00,0.0188
1295.00,0.0186
1294.00,0.0183
1293.00,0.0179
1292.00,0.0175
1291.00,0.0171
1290.00,0.0167
1289.00,0.0164
1288.00,0.0161
1287.00,0.0158
1286.00,0.0156
1285.00,0.0155
1284.00,0.0153
1283.00,0.0151
1282.00,0.0149
1281.00,0.0147
1280.00,0.0145
1279.00,0.0144
1278.00,0.0143
1277.00,0.0143
1276.00,0.0143
1275.00,0.0143
1274.00,0.0143
1273.00,0.0143
1272.00,0.0144
1271.00,0.0146
1270.00,0.0148
1269.00,0.0150
1268.00,0.0153
1267.00,0.0156
1266.00,0.0160
1265.00,0.0163
1264.00,0.0166
1263.00,0.0168
1262.00,0.0169
1261.00,0.0172
1260.00,0.0175
1259.00,0.0179
1258.00,0.0184
1257.00,0.0187
1256.00,0.0187
1255.00,0.0184
1254.00,0.0176
1253.00,0.0167
1252.00,0.0158
1251.00,0.0151
1250.00,0.0145
1249.00,0.0142
1248.00,0.0140
1247.00,0.0138
1246.00,0.0136
1245.00,0.0135
1244.00,0.0134
1243.00,0.0133
1242.00,0.0133
1241.00,0.0132
1240.00,0.0131
1239.00,0.0129
1238.00,0.0129
1237.00,0.0128
1236.00,0.0128
1235.00,0.0128
1234.00,0.0128
1233.00,0.0128
1232.00,0.0129
1231.00,0.0129
1230.00,0.0130
1229.00,0.0131
1228.00,0.0132
1227.00,0.0134
1226.00,0.0136
1225.00,0.0140
1224.00,0.0144
1223.00,0.0149
1222.00,0.0154
1221.00,0.0158
1220.00,0.0162
1219.00,0.0166
1218.00,0.0168
1217.00,0.0170
1216.00,0.0171
1215.00,0.0171
1214.00,0.0171
1213.00,0.0171
1212.00,0.0170
1211.00,0.0169
1210.00,0.0167
1209.00,0.0167
1208.00,0.0166
1207.00,0.0166
1206.00,0.0167
1205.00,0.0168
1204.00,0.0169
1203.00,0.0170
1202.00,0.0172
1201.00,0.0172
1200.00,0.0173
1199.00,0.0174
1198.00,0.0175
1197.00,0.0176
1196.00,0.0178
1195.00,0.0180
1194.00,0.0181
1193.00,0.0182
1192.00,0.0183
1191.00,0.0183
1190.00,0.0183
1189.00,0.0183
1188.00,0.0184
1187.00,0.0183
1186.00,0.0183
1185.00,0.0182
1184.00,0.0182
1183.00,0.0184
1182.00,0.0186
1181.00,0.0190
1180.00,0.0195
1179.00,0.0201
1178.00,0.0209
1177.00,0.0218
1176.00,0.0230
1175.00,0.0245
1174.00,0.0266
1173.00,0.0291
1172.00,0.0322
1171.00,0.0356
1170.00,0.0389
1169.00,0.0417
1168.00,0.0435
1167.00,0.0441
1166.00,0.0438
1165.00,0.0428
1164.00,0.0416
1163.00,0.0406
1162.00,0.0398
1161.00,0.0392
1160.00,0.0389
1159.00,0.0388
1158.00,0.0388
1157.00,0.0389
1156.00,0.0392
1155.00,0.0396
1154.00,0.0399
1153.00,0.0402
1152.00,0.0402
1151.00,0.0399
1150.00,0.0395
1149.00,0.0389
1148.00,0.0383
1147.00,0.0377
1146.00,0.0371
1145.00,0.0367
1144.00,0.0363
1143.00,0.0360
1142.00,0.0357
1141.00,0.0356
1140.00,0.0355
1139.00,0.0357
1138.00,0.0359
1137.00,0.0361
1136.00,0.0365
1135.00,0.0370
1134.00,0.0377
1133.00,0.0385
1132.00,0.0393
1131.00,0.0401
1130.00,0.0409
1129.00,0.0417
1128.00,0.0425
1127.00,0.0433
1126.00,0.0440
1125.00,0.0446
1124.00,0.0452
1123.00,0.0459
1122.00,0.0465
1121.00,0.0470
1120.00,0.0474
1119.00,0.0478
1118.00,0.0481
1117.00,0.0484
1116.00,0.0487
1115.00,0.0490
1114.00,0.0493
1113.00,0.0495
1112.00,0.0497
1111.00,0.0499
1110.00,0.0501
1109.00,0.0504
1108.00,0.0507
1107.00,0.0510
1106.00,0.0515
1105.00,0.0519
1104.00,0.0523
1103.00,0.0524
1102.00,0.0523
1101.00,0.0520
1100.00,0.0516
1099.00,0.0512
1098.00,0.0508
1097.00,0.0505
1096.00,0.0501
1095.00,0.0498
1094.00,0.0496
1093.00,0.0496
1092.00,0.0497
1091.00,0.0498
1090.00,0.0499
1089.00,0.0502
1088.00,0.0505
1087.00,0.0510
1086.00,0.0514
1085.00,0.0519
1084.00,0.0524
1083.00,0.0528
1082.00,0.0533
1081.00,0.0537
1080.00,0.0541
1079.00,0.0545
1078.00,0.0548
1077.00,0.0550
1076.00,0.0553
1075.00,0.0555
1074.00,0.0558
1073.00,0.0559
1072.00,0.0561
1071.00,0.0563
1070.00,0.0565
1069.00,0.0567
1068.00,0.0569
1067.00,0.0571
1066.00,0.0573
1065.00,0.0575
1064.00,0.0577
1063.00,0.0578
1062.00,0.0578
1061.00,0.0577
1060.00,0.0576
1059.00,0.0575
1058.00,0.0572
1057.00,0.0568
1056.00,0.0565
1055.00,0.0562
1054.00,0.0559
1053.00,0.0556
1052.00,0.0552
1051.00,0.0548
1050.00,0.0543
1049.00,0.0538
1048.00,0.0534
1047.00,0.0530
1046.00,0.0526
1045.00,0.0522
1044.00,0.0515
1043.00,0.0508
1042.00,0.0500
1041.00,0.0492
1040.00,0.0485
1039.00,0.0478
1038.00,0.0472
1037.00,0.0467
1036.00,0.0463
1035.00,0.0458
1034.00,0.0451
1033.00,0.0444
1032.00,0.0437
1031.00,0.0429
1030.00,0.0423
1029.00,0.0417
1028.00,0.0411
1027.00,0.0406
1026.00,0.0400
1025.00,0.0395
1024.00,0.0389
1023.00,0.0383
1022.00,0.0378
1021.00,0.0372
1020.00,0.0367
1019.00,0.0362
1018.00,0.0358
1017.00,0.0354
1016.00,0.0350
1015.00,0.0346
1014.00,0.0343
1013.00,0.0340
1012.00,0.0336
1011.00,0.0333
1010.00,0.0330
1009.00,0.0327
1008.00,0.0324
1007.00,0.0323
1006.00,0.0324
1005.00,0.0329
1004.00,0.0338
1003.00,0.0355
1002.00,0.0379
1001.00,0.0411
1000.00,0.0446
999.00,0.0474
998.00,0.0486
997.00,0.0475
996.00,0.0444
995.00,0.0401
994.00,0.0356
993.00,0.0316
992.00,0.0284
991.00,0.0260
990.00,0.0243
989.00,0.0230
988.00,0.0221
987.00,0.0215
986.00,0.0211
985.00,0.0209
984.00,0.0210
983.00,0.0214
982.00,0.0223
981.00,0.0237
980.00,0.0257
979.00,0.0283
978.00,0.0316
977.00,0.0355
976.00,0.0398
975.00,0.0439
974.00,0.0469
973.00,0.0480
972.00,0.0466
971.00,0.0429
970.00,0.0380
969.00,0.0331
968.00,0.0290
967.00,0.0261
966.00,0.0241
965.00,0.0229
964.00,0.0221
963.00,0.0216
962.00,0.0213
961.00,0.0211
960.00,0.0211
959.00,0.0212
958.00,0.0213
957.00,0.0215
956.00,0.0216
955.00,0.0217
954.00,0.0218
953.00,0.0219
952.00,0.0220
951.00,0.0221
950.00,0.0223
949.00,0.0224
948.00,0.0224
947.00,0.0224
946.00,0.0224
945.00,0.0223
944.00,0.0222
943.00,0.0222
942.00,0.0220
941.00,0.0217
940.00,0.0212
939.00,0.0206
938.00,0.0199
937.00,0.0191
936.00,0.0183
935.00,0.0177
934.00,0.0172
933.00,0.0168
932.00,0.0165
931.00,0.0163
930.00,0.0161
929.00,0.0160
928.00,0.0158
927.00,0.0157
926.00,0.0154
925.00,0.0152
924.00,0.0149
923.00,0.0146
922.00,0.0143
921.00,0.0140
920.00,0.0138
919.00,0.0137
918.00,0.0136
917.00,0.0136
916.00,0.0135
915.00,0.0134
914.00,0.0133
913.00,0.0133
912.00,0.0133
911.00,0.0134
910.00,0.0135
909.00,0.0136
908.00,0.0138
907.00,0.0142
906.00,0.0147
905.00,0.0155
904.00,0.0166
903.00,0.0180
902.00,0.0196
901.00,0.0210
900.00,0.0219
899.00,0.0220
898.00,0.0213
897.00,0.0200
896.00,0.0185
895.00,0.0171
894.00,0.0159
893.00,0.0151
892.00,0.0145
891.00,0.0140
890.00,0.0136
889.00,0.0132
888.00,0.0129
887.00,0.0128
886.00,0.0127
885.00,0.0125
884.00,0.0124
883.00,0.0122
882.00,0.0121
881.00,0.0122
880.00,0.0124
879.00,0.0126
878.00,0.0129
877.00,0.0130
876.00,0.0131
875.00,0.0131
874.00,0.0130
873.00,0.0129
872.00,0.0126
871.00,0.0122
870.00,0.0118
869.00,0.0116
868.00,0.0114
867.00,0.0114
866.00,0.0114
865.00,0.0115
864.00,0.0116
863.00,0.0117
862.00,0.0119
861.00,0.0121
860.00,0.0123
859.00,0.0125
858.00,0.0127
857.00,0.0130
856.00,0.0131
855.00,0.0133
854.00,0.0134
853.00,0.0136
852.00,0.0139
851.00,0.0142
850.00,0.0146
849.00,0.0152
848.00,0.0160
847.00,0.0173
846.00,0.0194
845.00,0.0226
844.00,0.0270
843.00,0.0321
842.00,0.0361
841.00,0.0372
840.00,0.0347
839.00,0.0300
838.00,0.0250
837.00,0.0210
836.00,0.0185
835.00,0.0169
834.00,0.0159
833.00,0.0152
832.00,0.0147
831.00,0.0143
830.00,0.0141
829.00,0.0139
828.00,0.0139
827.00,0.0140
826.00,0.0141
825.00,0.0142
824.00,0.0144
823.00,0.0145
822.00,0.0145
821.00,0.0146
820.00,0.0146
819.00,0.0148
818.00,0.0152
817.00,0.0157
816.00,0.0164
815.00,0.0174
814.00,0.0186
813.00,0.0202
812.00,0.0218
811.00,0.0232
810.00,0.0242
809.00,0.0247
808.00,0.0244
807.00,0.0235
806.00,0.0223
805.00,0.0209
804.00,0.0195
803.00,0.0184
802.00,0.0176
801.00,0.0169
800.00,0.0164
799.00,0.0160
798.00,0.0156
797.00,0.0153
796.00,0.0149
795.00,0.0145
794.00,0.0140
793.00,0.0137
792.00,0.0136
791.00,0.0135
790.00,0.0133
789.00,0.0129
788.00,0.0126
787.00,0.0123
786.00,0.0122
785.00,0.0121
784.00,0.0120
783.00,0.0120
782.00,0.0119
781.00,0.0119
780.00,0.0118
779.00,0.0118
778.00,0.0118
777.00,0.0118
776.00,0.0118
775.00,0.0117
774.00,0.0116
773.00,0.0114
772.00,0.0114
771.00,0.0114
770.00,0.0115
769.00,0.0115
768.00,0.0113
767.00,0.0111
766.00,0.0109
765.00,0.0108
764.00,0.0107
763.00,0.0108
762.00,0.0109
761.00,0.0109
760.00,0.0110
759.00,0.0110
758.00,0.0110
757.00,0.0110
756.00,0.0110
755.00,0.0111
754.00,0.0113
753.00,0.0114
752.00,0.0114
751.00,0.0114
750.00,0.0114
749.00,0.0114
748.00,0.0116
747.00,0.0118
746.00,0.0121
745.00,0.0123
744.00,0.0125
743.00,0.0127
742.00,0.0128
741.00,0.0130
740.00,0.0133
739.00,0.0137
738.00,0.0140
737.00,0.0144
736.00,0.0147
735.00,0.0150
734.00,0.0154
733.00,0.0158
732.00,0.0165
731.00,0.0174
730.00,0.0181
729.00,0.0184
728.00,0.0185
727.00,0.0183
726.00,0.0183
725.00,0.0186
724.00,0.0192
723.00,0.0200
722.00,0.0208
721.00,0.0213
720.00,0.0211
719.00,0.0203
718.00,0.0192
717.00,0.0182
716.00,0.0174
715.00,0.0169
714.00,0.0166
713.00,0.0164
712.00,0.0162
711.00,0.0159
710.00,0.0156
709.00,0.0153
708.00,0.0151
707.00,0.0151
706.00,0.0150
705.00,0.0150
704.00,0.0149
703.00,0.0147
702.00,0.0145
701.00,0.0144
700.00,0.0143
699.00,0.0142
698.00,0.0142
697.00,0.0141
696.00,0.0140
695.00,0.0138
694.00,0.0136
693.00,0.0136
692.00,0.0136
691.00,0.0138
690.00,0.0139
689.00,0.0140
688.00,0.0140
687.00,0.0142
686.00,0.0143
685.00,0.0144
684.00,0.0144
683.00,0.0145
682.00,0.0146
681.00,0.0146
680.00,0.0148
679.00,0.0151
678.00,0.0155
677.00,0.0157
676.00,0.0158
675.00,0.0159
674.00,0.0161
673.00,0.0164
672.00,0.0166
671.00,0.0168
670.00,0.0169
669.00,0.0171
668.00,0.0174
667.00,0.0177
666.00,0.0178
665.00,0.0178
664.00,0.0177
663.00,0.0176
662.00,0.0176
661.00,0.0176
660.00,0.0176
659.00,0.0177
658.00,0.0177
657.00,0.0178
656.00,0.0178
655.00,0.0177
654.00,0.0176
653.00,0.0175
652.00,0.0175
651.00,0.0175
650.00,0.0176
649.00,0.0175
648.00,0.0175
647.00,0.0175
646.00,0.0176
645.00,0.0176
644.00,0.0175
643.00,0.0174
642.00,0.0173
641.00,0.0175
640.00,0.0176
639.00,0.0177
638.00,0.0177
637.00,0.0177
636.00,0.0177
635.00,0.0178
634.00,0.0179
633.00,0.0181
632.00,0.0183
631.00,0.0183
630.00,0.0182
629.00,0.0181
628.00,0.0181
627.00,0.0182
626.00,0.0183
625.00,0.0185
624.00,0.0187
623.00,0.0188
622.00,0.0189
621.00,0.0189
620.00,0.0190
619.00,0.0190
618.00,0.0189
617.00,0.0189
616.00,0.0189
615.00,0.0191
614.00,0.0193
613.00,0.0197
612.00,0.0199
611.00,0.0199
610.00,0.0197
609.00,0.0196
608.00,0.0194
607.00,0.0192
606.00,0.0190
605.00,0.0190
604.00,0.0190
603.00,0.0191
602.00,0.0190
601.00,0.0190
600.00,0.0190
599.00,0.0192
598.00,0.0194
597.00,0.0197
596.00,0.0199
595.00,0.0202
594.00,0.0204
593.00,0.0206
592.00,0.0207
591.00,0.0207
590.00,0.0205
589.00,0.0202
588.00,0.0198
587.00,0.0196
586.00,0.0197
585.00,0.0201
584.00,0.0205
583.00,0.0207
582.00,0.0205
581.00,0.0203
580.00,0.0201
579.00,0.0203
578.00,0.0205
577.00,0.0207
576.00,0.0206
575.00,0.0203
574.00,0.0200
573.00,0.0200
572.00,0.0201
571.00,0.0203
570.00,0.0204
569.00,0.0202
568.00,0.0201
567.00,0.0202
566.00,0.0206
565.00,0.0212
564.00,0.0217
563.00,0.0216
562.00,0.0210
561.00,0.0201
560.00,0.0196
559.00,0.0196
558.00,0.0199
557.00,0.0201
556.00,0.0202
555.00,0.0200
554.00,0.0198
553.00,0.0196
552.00,0.0196
551.00,0.0198
550.00,0.0201
549.00,0.0204
548.00,0.0207
547.00,0.0209
546.00,0.0211
545.00,0.0211
544.00,0.0209
543.00,0.0205
542.00,0.0200
541.00,0.0198
540.00,0.0201
539.00,0.0209
538.00,0.0217
537.00,0.0221
536.00,0.0220
535.00,0.0215
534.00,0.0210
533.00,0.0209
532.00,0.0209
531.00,0.0207
530.00,0.0204
529.00,0.0201
528.00,0.0201
527.00,0.0203
526.00,0.0205
525.00,0.0205
524.00,0.0204
523.00,0.0203
522.00,0.0204
521.00,0.0205
520.00,0.0205
519.00,0.0204
518.00,0.0201
517.00,0.0199
516.00,0.0197
515.00,0.0195
514.00,0.0195
513.00,0.0196
512.00,0.0196
511.00,0.0192
510.00,0.0186
509.00,0.0182
508.00,0.0181
507.00,0.0186
506.00,0.0192
505.00,0.0196
504.00,0.0197
503.00,0.0195
502.00,0.0191
501.00,0.0185
500.00,0.0179
499.00,0.0175
498.00,0.0174
497.00,0.0174
496.00,0.0173
495.00,0.0172
494.00,0.0174
493.00,0.0177
492.00,0.0178
491.00,0.0177
490.00,0.0176
489.00,0.0180
488.00,0.0185
487.00,0.0188
486.00,0.0187
485.00,0.0184
484.00,0.0180
483.00,0.0179
482.00,0.0179
481.00,0.0181
480.00,0.0185
479.00,0.0189
478.00,0.0192
477.00,0.0195
476.00,0.0197
475.00,0.0198
474.00,0.0195
473.00,0.0191
472.00,0.0190
471.00,0.0191
470.00,0.0195
469.00,0.0199
468.00,0.0204
467.00,0.0207
466.00,0.0207
465.00,0.0204
464.00,0.0199
463.00,0.0196
462.00,0.0201
461.00,0.0212
460.00,0.0226
459.00,0.0234
458.00,0.0230
457.00,0.0219
456.00,0.0212
455.00,0.0213
454.00,0.0214
453.00,0.0209
452.00,0.0199
451.00,0.0190
450.00,0.0185
