Created as New Dataset,Sample 146 By Administrator Date Wednesday, September 10 2025
cm-1,A
4000.00,0.0009
3999.00,0.0009
3998.00,0.0009
3997.00,0.0008
3996.00,0.0008
3995.00,0.0008
3994.00,0.0008
3993.00,0.0008
3992.00,0.0008
3991.00,0.0008
3990.00,0.0008
3989.00,0.0008
3988.00,0.0008
3987.00,0.0008
3986.00,0.0008
3985.00,0.0008
3984.00,0.0007
3983.00,0.0007
3982.00,0.0007
3981.00,0.0007
3980.00,0.0007
3979.00,0.0008
3978.00,0.0008
3977.00,0.0008
3976.00,0.0008
3975.00,0.0008
3974.00,0.0007
3973.00,0.0007
3972.00,0.0007
3971.00,0.0007
3970.00,0.0007
3969.00,0.0007
3968.00,0.0007
3967.00,0.0007
3966.00,0.0007
3965.00,0.0007
3964.00,0.0007
3963.00,0.0006
3962.00,0.0006
3961.00,0.0006
3960.00,0.0006
3959.00,0.0007
3958.00,0.0007
3957.00,0.0007
3956.00,0.0007
3955.00,0.0007
3954.00,0.0007
3953.00,0.0006
3952.00,0.0006
3951.00,0.0006
3950.00,0.0007
3949.00,0.0007
3948.00,0.0007
3947.00,0.0007
3946.00,0.0007
3945.00,0.0006
3944.00,0.0006
3943.00,0.0006
3942.00,0.0006
3941.00,0.0006
3940.00,0.0006
3939.00,0.0006
3938.00,0.0006
3937.00,0.0007
3936.00,0.0007
3935.00,0.0007
3934.00,0.0007
3933.00,0.0007
3932.00,0.0007
3931.00,0.0007
3930.00,0.0007
3929.00,0.0007
3928.00,0.0006
3927.00,0.0006
3926.00,0.0006
3925.00,0.0006
3924.00,0.0006
3923.00,0.0006
3922.00,0.0006
3921.00,0.0006
3920.00,0.0006
3919.00,0.0006
3918.00,0.0006
3917.00,0.0006
3916.00,0.0006
3915.00,0.0006
3914.00,0.0006
3913.00,0.0006
3912.00,0.0006
3911.00,0.0006
3910.00,0.0006
3909.00,0.0006
3908.00,0.0006
3907.00,0.0006
3906.00,0.0006
3905.00,0.0006
3904.00,0.0006
3903.00,0.0006
3902.00,0.0006
3901.00,0.0006
3900.00,0.0005
3899.00,0.0005
3898.00,0.0005
3897.00,0.0006
3896.00,0.0006
3895.00,0.0006
3894.00,0.0006
3893.00,0.0006
3892.00,0.0006
3891.00,0.0005
3890.00,0.0005
3889.00,0.0005
3888.00,0.0005
3887.00,0.0005
3886.00,0.0005
3885.00,0.0005
3884.00,0.0005
3883.00,0.0005
3882.00,0.0005
3881.00,0.0005
3880.00,0.0005
3879.00,0.0005
3878.00,0.0005
3877.00,0.0005
3876.00,0.0005
3875.00,0.0006
3874.00,0.0006
3873.00,0.0006
3872.00,0.0006
3871.00,0.0005
3870.00,0.0006
3869.00,0.0006
3868.00,0.0006
3867.00,0.0005
3866.00,0.0005
3865.00,0.0005
3864.00,0.0005
3863.00,0.0004
3862.00,0.0004
3861.00,0.0004
3860.00,0.0005
3859.00,0.0005
3858.00,0.0005
3857.00,0.0006
3856.00,0.0006
3855.00,0.0006
3854.00,0.0006
3853.00,0.0006
3852.00,0.0006
3851.00,0.0006
3850.00,0.0005
3849.00,0.0005
3848.00,0.0005
3847.00,0.0005
3846.00,0.0004
3845.00,0.0005
3844.00,0.0005
3843.00,0.0005
3842.00,0.0005
3841.00,0.0005
3840.00,0.0005
3839.00,0.0005
3838.00,0.0005
3837.00,0.0004
3836.00,0.0004
3835.00,0.0004
3834.00,0.0004
3833.00,0.0004
3832.00,0.0004
3831.00,0.0004
3830.00,0.0004
3829.00,0.0004
3828.00,0.0005
3827.00,0.0005
3826.00,0.0006
3825.00,0.0006
3824.00,0.0006
3823.00,0.0006
3822.00,0.0005
3821.00,0.0005
3820.00,0.0005
3819.00,0.0005
3818.00,0.0006
3817.00,0.0006
3816.00,0.0006
3815.00,0.0006
3814.00,0.0006
3813.00,0.0006
3812.00,0.0006
3811.00,0.0006
3810.00,0.0006
3809.00,0.0006
3808.00,0.0006
3807.00,0.0005
3806.00,0.0005
3805.00,0.0005
3804.00,0.0005
3803.00,0.0005
3802.00,0.0005
3801.00,0.0005
3800.00,0.0005
3799.00,0.0005
3798.00,0.0005
3797.00,0.0005
3796.00,0.0005
3795.00,0.0005
3794.00,0.0005
3793.00,0.0006
3792.00,0.0006
3791.00,0.0007
3790.00,0.0007
3789.00,0.0007
3788.00,0.0006
3787.00,0.0006
3786.00,0.0006
3785.00,0.0006
3784.00,0.0006
3783.00,0.0006
3782.00,0.0006
3781.00,0.0006
3780.00,0.0006
3779.00,0.0006
3778.00,0.0006
3777.00,0.0006
3776.00,0.0006
3775.00,0.0006
3774.00,0.0006
3773.00,0.0006
3772.00,0.0006
3771.00,0.0007
3770.00,0.0007
3769.00,0.0007
3768.00,0.0007
3767.00,0.0007
3766.00,0.0007
3765.00,0.0007
3764.00,0.0007
3763.00,0.0007
3762.00,0.0007
3761.00,0.0006
3760.00,0.0006
3759.00,0.0006
3758.00,0.0006
3757.00,0.0005
3756.00,0.0005
3755.00,0.0005
3754.00,0.0005
3753.00,0.0005
3752.00,0.0006
3751.00,0.0006
3750.00,0.0007
3749.00,0.0007
3748.00,0.0007
3747.00,0.0007
3746.00,0.0007
3745.00,0.0006
3744.00,0.0006
3743.00,0.0006
3742.00,0.0005
3741.00,0.0005
3740.00,0.0005
3739.00,0.0005
3738.00,0.0005
3737.00,0.0005
3736.00,0.0005
3735.00,0.0004
3734.00,0.0004
3733.00,0.0004
3732.00,0.0004
3731.00,0.0004
3730.00,0.0004
3729.00,0.0004
3728.00,0.0004
3727.00,0.0004
3726.00,0.0004
3725.00,0.0004
3724.00,0.0004
3723.00,0.0004
3722.00,0.0004
3721.00,0.0005
3720.00,0.0005
3719.00,0.0005
3718.00,0.0005
3717.00,0.0005
3716.00,0.0005
3715.00,0.0004
3714.00,0.0004
3713.00,0.0004
3712.00,0.0004
3711.00,0.0003
3710.00,0.0003
3709.00,0.0003
3708.00,0.0003
3707.00,0.0003
3706.00,0.0003
3705.00,0.0003
3704.00,0.0003
3703.00,0.0003
3702.00,0.0004
3701.00,0.0004
3700.00,0.0004
3699.00,0.0004
3698.00,0.0004
3697.00,0.0004
3696.00,0.0005
3695.00,0.0005
3694.00,0.0004
3693.00,0.0004
3692.00,0.0004
3691.00,0.0004
3690.00,0.0004
3689.00,0.0005
3688.00,0.0005
3687.00,0.0005
3686.00,0.0005
3685.00,0.0005
3684.00,0.0005
3683.00,0.0004
3682.00,0.0004
3681.00,0.0003
3680.00,0.0003
3679.00,0.0003
3678.00,0.0003
3677.00,0.0004
3676.00,0.0004
3675.00,0.0004
3674.00,0.0005
3673.00,0.0005
3672.00,0.0005
3671.00,0.0005
3670.00,0.0005
3669.00,0.0005
3668.00,0.0005
3667.00,0.0005
3666.00,0.0005
3665.00,0.0006
3664.00,0.0006
3663.00,0.0006
3662.00,0.0005
3661.00,0.0005
3660.00,0.0005
3659.00,0.0005
3658.00,0.0005
3657.00,0.0005
3656.00,0.0005
3655.00,0.0005
3654.00,0.0004
3653.00,0.0004
3652.00,0.0004
3651.00,0.0005
3650.00,0.0005
3649.00,0.0005
3648.00,0.0005
3647.00,0.0005
3646.00,0.0005
3645.00,0.0005
3644.00,0.0005
3643.00,0.0004
3642.00,0.0004
3641.00,0.0005
3640.00,0.0005
3639.00,0.0005
3638.00,0.0005
3637.00,0.0005
3636.00,0.0005
3635.00,0.0005
3634.00,0.0005
3633.00,0.0005
3632.00,0.0004
3631.00,0.0004
3630.00,0.0004
3629.00,0.0004
3628.00,0.0004
3627.00,0.0004
3626.00,0.0004
3625.00,0.0004
3624.00,0.0005
3623.00,0.0006
3622.00,0.0006
3621.00,0.0006
3620.00,0.0005
3619.00,0.0005
3618.00,0.0005
3617.00,0.0004
3616.00,0.0004
3615.00,0.0004
3614.00,0.0004
3613.00,0.0004
3612.00,0.0004
3611.00,0.0004
3610.00,0.0004
3609.00,0.0004
3608.00,0.0004
3607.00,0.0005
3606.00,0.0005
3605.00,0.0006
3604.00,0.0006
3603.00,0.0006
3602.00,0.0006
3601.00,0.0006
3600.00,0.0006
3599.00,0.0006
3598.00,0.0006
3597.00,0.0007
3596.00,0.0007
3595.00,0.0007
3594.00,0.0007
3593.00,0.0007
3592.00,0.0007
3591.00,0.0007
3590.00,0.0007
3589.00,0.0007
3588.00,0.0007
3587.00,0.0007
3586.00,0.0007
3585.00,0.0007
3584.00,0.0007
3583.00,0.0007
3582.00,0.0007
3581.00,0.0008
3580.00,0.0008
3579.00,0.0008
3578.00,0.0008
3577.00,0.0008
3576.00,0.0008
3575.00,0.0008
3574.00,0.0008
3573.00,0.0009
3572.00,0.0009
3571.00,0.0009
3570.00,0.0009
3569.00,0.0009
3568.00,0.0010
3567.00,0.0010
3566.00,0.0010
3565.00,0.0010
3564.00,0.0010
3563.00,0.0010
3562.00,0.0010
3561.00,0.0010
3560.00,0.0010
3559.00,0.0010
3558.00,0.0011
3557.00,0.0011
3556.00,0.0012
3555.00,0.0012
3554.00,0.0012
3553.00,0.0012
3552.00,0.0012
3551.00,0.0012
3550.00,0.0012
3549.00,0.0012
3548.00,0.0013
3547.00,0.0013
3546.00,0.0013
3545.00,0.0013
3544.00,0.0013
3543.00,0.0013
3542.00,0.0014
3541.00,0.0014
3540.00,0.0014
3539.00,0.0014
3538.00,0.0014
3537.00,0.0014
3536.00,0.0015
3535.00,0.0015
3534.00,0.0015
3533.00,0.0015
3532.00,0.0015
3531.00,0.0015
3530.00,0.0014
3529.00,0.0014
3528.00,0.0015
3527.00,0.0015
3526.00,0.0016
3525.00,0.0016
3524.00,0.0017
3523.00,0.0017
3522.00,0.0017
3521.00,0.0017
3520.00,0.0017
3519.00,0.0016
3518.00,0.0016
3517.00,0.0017
3516.00,0.0017
3515.00,0.0017
3514.00,0.0016
3513.00,0.0016
3512.00,0.0017
3511.00,0.0017
3510.00,0.0017
3509.00,0.0018
3508.00,0.0017
3507.00,0.0017
3506.00,0.0017
3505.00,0.0018
3504.00,0.0018
3503.00,0.0018
3502.00,0.0018
3501.00,0.0018
3500.00,0.0019
3499.00,0.0019
3498.00,0.0019
3497.00,0.0019
3496.00,0.0019
3495.00,0.0020
3494.00,0.0020
3493.00,0.0020
3492.00,0.0020
3491.00,0.0021
3490.00,0.0021
3489.00,0.0021
3488.00,0.0021
3487.00,0.0021
3486.00,0.0021
3485.00,0.0021
3484.00,0.0021
3483.00,0.0021
3482.00,0.0021
3481.00,0.0021
3480.00,0.0021
3479.00,0.0021
3478.00,0.0021
3477.00,0.0021
3476.00,0.0022
3475.00,0.0022
3474.00,0.0023
3473.00,0.0023
3472.00,0.0023
3471.00,0.0023
3470.00,0.0023
3469.00,0.0024
3468.00,0.0024
3467.00,0.0024
3466.00,0.0024
3465.00,0.0025
3464.00,0.0025
3463.00,0.0025
3462.00,0.0025
3461.00,0.0025
3460.00,0.0024
3459.00,0.0024
3458.00,0.0024
3457.00,0.0024
3456.00,0.0024
3455.00,0.0024
3454.00,0.0024
3453.00,0.0024
3452.00,0.0025
3451.00,0.0025
3450.00,0.0026
3449.00,0.0027
3448.00,0.0027
3447.00,0.0027
3446.00,0.0027
3445.00,0.0026
3444.00,0.0026
3443.00,0.0026
3442.00,0.0026
3441.00,0.0026
3440.00,0.0027
3439.00,0.0027
3438.00,0.0027
3437.00,0.0027
3436.00,0.0027
3435.00,0.0027
3434.00,0.0028
3433.00,0.0028
3432.00,0.0028
3431.00,0.0028
3430.00,0.0028
3429.00,0.0028
3428.00,0.0028
3427.00,0.0029
3426.00,0.0029
3425.00,0.0029
3424.00,0.0029
3423.00,0.0029
3422.00,0.0029
3421.00,0.0028
3420.00,0.0028
3419.00,0.0028
3418.00,0.0028
3417.00,0.0029
3416.00,0.0029
3415.00,0.0029
3414.00,0.0029
3413.00,0.0029
3412.00,0.0029
3411.00,0.0030
3410.00,0.0030
3409.00,0.0030
3408.00,0.0030
3407.00,0.0031
3406.00,0.0031
3405.00,0.0030
3404.00,0.0030
3403.00,0.0030
3402.00,0.0030
3401.00,0.0030
3400.00,0.0030
3399.00,0.0031
3398.00,0.0031
3397.00,0.0031
3396.00,0.0031
3395.00,0.0031
3394.00,0.0031
3393.00,0.0031
3392.00,0.0031
3391.00,0.0031
3390.00,0.0031
3389.00,0.0031
3388.00,0.0031
3387.00,0.0031
3386.00,0.0030
3385.00,0.0030
3384.00,0.0030
3383.00,0.0030
3382.00,0.0030
3381.00,0.0030
3380.00,0.0030
3379.00,0.0030
3378.00,0.0031
3377.00,0.0031
3376.00,0.0031
3375.00,0.0031
3374.00,0.0031
3373.00,0.0031
3372.00,0.0030
3371.00,0.0030
3370.00,0.0030
3369.00,0.0031
3368.00,0.0031
3367.00,0.0032
3366.00,0.0032
3365.00,0.0032
3364.00,0.0031
3363.00,0.0031
3362.00,0.0031
3361.00,0.0031
3360.00,0.0031
3359.00,0.0031
3358.00,0.0031
3357.00,0.0031
3356.00,0.0032
3355.00,0.0032
3354.00,0.0032
3353.00,0.0032
3352.00,0.0032
3351.00,0.0032
3350.00,0.0032
3349.00,0.0032
3348.00,0.0032
3347.00,0.0032
3346.00,0.0032
3345.00,0.0032
3344.00,0.0032
3343.00,0.0032
3342.00,0.0032
3341.00,0.0031
3340.00,0.0031
3339.00,0.0031
3338.00,0.0031
3337.00,0.0031
3336.00,0.0031
3335.00,0.0030
3334.00,0.0030
3333.00,0.0030
3332.00,0.0030
3331.00,0.0030
3330.00,0.0030
3329.00,0.0030
3328.00,0.0030
3327.00,0.0030
3326.00,0.0030
3325.00,0.0030
3324.00,0.0029
3323.00,0.0029
3322.00,0.0029
3321.00,0.0029
3320.00,0.0029
3319.00,0.0029
3318.00,0.0028
3317.00,0.0028
3316.00,0.0028
3315.00,0.0029
3314.00,0.0029
3313.00,0.0029
3312.00,0.0029
3311.00,0.0029
3310.00,0.0029
3309.00,0.0030
3308.00,0.0030
3307.00,0.0030
3306.00,0.0029
3305.00,0.0029
3304.00,0.0030
3303.00,0.0030
3302.00,0.0030
3301.00,0.0030
3300.00,0.0030
3299.00,0.0030
3298.00,0.0030
3297.00,0.0030
3296.00,0.0030
3295.00,0.0030
3294.00,0.0030
3293.00,0.0029
3292.00,0.0029
3291.00,0.0029
3290.00,0.0029
3289.00,0.0029
3288.00,0.0029
3287.00,0.0029
3286.00,0.0029
3285.00,0.0029
3284.00,0.0029
3283.00,0.0029
3282.00,0.0028
3281.00,0.0028
3280.00,0.0028
3279.00,0.0028
3278.00,0.0029
3277.00,0.0029
3276.00,0.0029
3275.00,0.0029
3274.00,0.0029
3273.00,0.0029
3272.00,0.0028
3271.00,0.0028
3270.00,0.0028
3269.00,0.0028
3268.00,0.0028
3267.00,0.0028
3266.00,0.0028
3265.00,0.0028
3264.00,0.0028
3263.00,0.0028
3262.00,0.0028
3261.00,0.0028
3260.00,0.0028
3259.00,0.0028
3258.00,0.0028
3257.00,0.0028
3256.00,0.0028
3255.00,0.0027
3254.00,0.0027
3253.00,0.0027
3252.00,0.0027
3251.00,0.0027
3250.00,0.0026
3249.00,0.0026
3248.00,0.0026
3247.00,0.0026
3246.00,0.0026
3245.00,0.0026
3244.00,0.0026
3243.00,0.0026
3242.00,0.0027
3241.00,0.0027
3240.00,0.0027
3239.00,0.0027
3238.00,0.0027
3237.00,0.0027
3236.00,0.0027
3235.00,0.0027
3234.00,0.0028
3233.00,0.0028
3232.00,0.0029
3231.00,0.0029
3230.00,0.0029
3229.00,0.0029
3228.00,0.0029
3227.00,0.0029
3226.00,0.0029
3225.00,0.0029
3224.00,0.0029
3223.00,0.0030
3222.00,0.0030
3221.00,0.0030
3220.00,0.0031
3219.00,0.0031
3218.00,0.0031
3217.00,0.0032
3216.00,0.0032
3215.00,0.0032
3214.00,0.0033
3213.00,0.0033
3212.00,0.0033
3211.00,0.0033
3210.00,0.0033
3209.00,0.0033
3208.00,0.0033
3207.00,0.0033
3206.00,0.0034
3205.00,0.0034
3204.00,0.0035
3203.00,0.0035
3202.00,0.0035
3201.00,0.0035
3200.00,0.0035
3199.00,0.0035
3198.00,0.0035
3197.00,0.0035
3196.00,0.0035
3195.00,0.0035
3194.00,0.0034
3193.00,0.0034
3192.00,0.0034
3191.00,0.0034
3190.00,0.0035
3189.00,0.0035
3188.00,0.0035
3187.00,0.0034
3186.00,0.0034
3185.00,0.0034
3184.00,0.0034
3183.00,0.0033
3182.00,0.0033
3181.00,0.0033
3180.00,0.0033
3179.00,0.0033
3178.00,0.0033
3177.00,0.0032
3176.00,0.0032
3175.00,0.0031
3174.00,0.0031
3173.00,0.0031
3172.00,0.0030
3171.00,0.0030
3170.00,0.0031
3169.00,0.0031
3168.00,0.0031
3167.00,0.0031
3166.00,0.0031
3165.00,0.0031
3164.00,0.0030
3163.00,0.0030
3162.00,0.0030
3161.00,0.0030
3160.00,0.0030
3159.00,0.0030
3158.00,0.0030
3157.00,0.0030
3156.00,0.0030
3155.00,0.0029
3154.00,0.0029
3153.00,0.0029
3152.00,0.0030
3151.00,0.0030
3150.00,0.0030
3149.00,0.0030
3148.00,0.0030
3147.00,0.0030
3146.00,0.0031
3145.00,0.0031
3144.00,0.0031
3143.00,0.0030
3142.00,0.0030
3141.00,0.0030
3140.00,0.0029
3139.00,0.0029
3138.00,0.0029
3137.00,0.0029
3136.00,0.0029
3135.00,0.0029
3134.00,0.0029
3133.00,0.0029
3132.00,0.0029
3131.00,0.0028
3130.00,0.0028
3129.00,0.0028
3128.00,0.0028
3127.00,0.0028
3126.00,0.0027
3125.00,0.0027
3124.00,0.0027
3123.00,0.0027
3122.00,0.0027
3121.00,0.0026
3120.00,0.0026
3119.00,0.0026
3118.00,0.0026
3117.00,0.0026
3116.00,0.0025
3115.00,0.0025
3114.00,0.0025
3113.00,0.0025
3112.00,0.0026
3111.00,0.0026
3110.00,0.0026
3109.00,0.0026
3108.00,0.0025
3107.00,0.0025
3106.00,0.0025
3105.00,0.0025
3104.00,0.0025
3103.00,0.0024
3102.00,0.0024
3101.00,0.0024
3100.00,0.0024
3099.00,0.0024
3098.00,0.0025
3097.00,0.0025
3096.00,0.0025
3095.00,0.0025
3094.00,0.0025
3093.00,0.0025
3092.00,0.0024
3091.00,0.0024
3090.00,0.0024
3089.00,0.0024
3088.00,0.0024
3087.00,0.0024
3086.00,0.0024
3085.00,0.0024
3084.00,0.0024
3083.00,0.0024
3082.00,0.0024
3081.00,0.0025
3080.00,0.0025
3079.00,0.0025
3078.00,0.0025
3077.00,0.0024
3076.00,0.0024
3075.00,0.0024
3074.00,0.0024
3073.00,0.0024
3072.00,0.0025
3071.00,0.0025
3070.00,0.0025
3069.00,0.0025
3068.00,0.0025
3067.00,0.0026
3066.00,0.0026
3065.00,0.0027
3064.00,0.0027
3063.00,0.0026
3062.00,0.0026
3061.00,0.0026
3060.00,0.0026
3059.00,0.0027
3058.00,0.0027
3057.00,0.0027
3056.00,0.0028
3055.00,0.0028
3054.00,0.0028
3053.00,0.0028
3052.00,0.0028
3051.00,0.0029
3050.00,0.0029
3049.00,0.0030
3048.00,0.0030
3047.00,0.0030
3046.00,0.0030
3045.00,0.0030
3044.00,0.0030
3043.00,0.0030
3042.00,0.0031
3041.00,0.0031
3040.00,0.0031
3039.00,0.0031
3038.00,0.0031
3037.00,0.0031
3036.00,0.0032
3035.00,0.0032
3034.00,0.0033
3033.00,0.0033
3032.00,0.0034
3031.00,0.0034
3030.00,0.0035
3029.00,0.0036
3028.00,0.0037
3027.00,0.0037
3026.00,0.0038
3025.00,0.0038
3024.00,0.0039
3023.00,0.0040
3022.00,0.0040
3021.00,0.0041
3020.00,0.0042
3019.00,0.0043
3018.00,0.0044
3017.00,0.0045
3016.00,0.0047
3015.00,0.0048
3014.00,0.0050
3013.00,0.0052
3012.00,0.0053
3011.00,0.0055
3010.00,0.0057
3009.00,0.0059
3008.00,0.0060
3007.00,0.0062
3006.00,0.0064
3005.00,0.0067
3004.00,0.0069
3003.00,0.0072
3002.00,0.0075
3001.00,0.0078
3000.00,0.0081
2999.00,0.0085
2998.00,0.0088
2997.00,0.0093
2996.00,0.0097
2995.00,0.0101
2994.00,0.0106
2993.00,0.0112
2992.00,0.0117
2991.00,0.0124
2990.00,0.0131
2989.00,0.0139
2988.00,0.0148
2987.00,0.0158
2986.00,0.0170
2985.00,0.0183
2984.00,0.0198
2983.00,0.0214
2982.00,0.0231
2981.00,0.0251
2980.00,0.0272
2979.00,0.0296
2978.00,0.0324
2977.00,0.0355
2976.00,0.0392
2975.00,0.0433
2974.00,0.0480
2973.00,0.0534
2972.00,0.0594
2971.00,0.0662
2970.00,0.0739
2969.00,0.0823
2968.00,0.0917
2967.00,0.1019
2966.00,0.1129
2965.00,0.1247
2964.00,0.1367
2963.00,0.1488
2962.00,0.1601
2961.00,0.1702
2960.00,0.1786
2959.00,0.1850
2958.00,0.1895
2957.00,0.1925
2956.00,0.1945
2955.00,0.1963
2954.00,0.1981
2953.00,0.2000
2952.00,0.2016
2951.00,0.2020
2950.00,0.2005
2949.00,0.1963
2948.00,0.1890
2947.00,0.1788
2946.00,0.1666
2945.00,0.1534
2944.00,0.1406
2943.00,0.1293
2942.00,0.1200
2941.00,0.1133
2940.00,0.1090
2939.00,0.1070
2938.00,0.1071
2937.00,0.1089
2936.00,0.1124
2935.00,0.1174
2934.00,0.1236
2933.00,0.1309
2932.00,0.1391
2931.00,0.1481
2930.00,0.1575
2929.00,0.1671
2928.00,0.1764
2927.00,0.1852
2926.00,0.1935
2925.00,0.2011
2924.00,0.2084
2923.00,0.2153
2922.00,0.2220
2921.00,0.2283
2920.00,0.2339
2919.00,0.2381
2918.00,0.2405
2917.00,0.2405
2916.00,0.2380
2915.00,0.2334
2914.00,0.2272
2913.00,0.2203
2912.00,0.2132
2911.00,0.2066
2910.00,0.2005
2909.00,0.1949
2908.00,0.1896
2907.00,0.1844
2906.00,0.1790
2905.00,0.1731
2904.00,0.1668
2903.00,0.1601
2902.00,0.1533
2901.00,0.1464
2900.00,0.1396
2899.00,0.1332
2898.00,0.1272
2897.00,0.1216
2896.00,0.1167
2895.00,0.1125
2894.00,0.1091
2893.00,0.1063
2892.00,0.1043
2891.00,0.1028
2890.00,0.1020
2889.00,0.1016
2888.00,0.1016
2887.00,0.1020
2886.00,0.1028
2885.00,0.1039
2884.00,0.1055
2883.00,0.1074
2882.00,0.1096
2881.00,0.1120
2880.00,0.1142
2879.00,0.1160
2878.00,0.1171
2877.00,0.1174
2876.00,0.1169
2875.00,0.1160
2874.00,0.1152
2873.00,0.1149
2872.00,0.1153
2871.00,0.1165
2870.00,0.1181
2869.00,0.1197
2868.00,0.1207
2867.00,0.1203
2866.00,0.1178
2865.00,0.1130
2864.00,0.1062
2863.00,0.0980
2862.00,0.0895
2861.00,0.0815
2860.00,0.0746
2859.00,0.0690
2858.00,0.0648
2857.00,0.0619
2856.00,0.0599
2855.00,0.0587
2854.00,0.0583
2853.00,0.0585
2852.00,0.0593
2851.00,0.0606
2850.00,0.0626
2849.00,0.0654
2848.00,0.0689
2847.00,0.0734
2846.00,0.0787
2845.00,0.0850
2844.00,0.0922
2843.00,0.1000
2842.00,0.1080
2841.00,0.1156
2840.00,0.1220
2839.00,0.1263
2838.00,0.1274
2837.00,0.1250
2836.00,0.1189
2835.00,0.1097
2834.00,0.0987
2833.00,0.0872
2832.00,0.0761
2831.00,0.0663
2830.00,0.0580
2829.00,0.0511
2828.00,0.0456
2827.00,0.0412
2826.00,0.0375
2825.00,0.0345
2824.00,0.0320
2823.00,0.0299
2822.00,0.0281
2821.00,0.0265
2820.00,0.0251
2819.00,0.0240
2818.00,0.0229
2817.00,0.0220
2816.00,0.0212
2815.00,0.0205
2814.00,0.0199
2813.00,0.0193
2812.00,0.0187
2811.00,0.0182
2810.00,0.0176
2809.00,0.0171
2808.00,0.0165
2807.00,0.0160
2806.00,0.0154
2805.00,0.0148
2804.00,0.0141
2803.00,0.0135
2802.00,0.0129
2801.00,0.0124
2800.00,0.0120
2799.00,0.0118
2798.00,0.0116
2797.00,0.0114
2796.00,0.0112
2795.00,0.0109
2794.00,0.0106
2793.00,0.0103
2792.00,0.0100
2791.00,0.0096
2790.00,0.0092
2789.00,0.0089
2788.00,0.0085
2787.00,0.0082
2786.00,0.0079
2785.00,0.0076
2784.00,0.0074
2783.00,0.0071
2782.00,0.0069
2781.00,0.0067
2780.00,0.0065
2779.00,0.0063
2778.00,0.0061
2777.00,0.0060
2776.00,0.0059
2775.00,0.0058
2774.00,0.0057
2773.00,0.0056
2772.00,0.0056
2771.00,0.0055
2770.00,0.0055
2769.00,0.0055
2768.00,0.0054
2767.00,0.0054
2766.00,0.0053
2765.00,0.0053
2764.00,0.0053
2763.00,0.0052
2762.00,0.0052
2761.00,0.0052
2760.00,0.0052
2759.00,0.0051
2758.00,0.0051
2757.00,0.0051
2756.00,0.0051
2755.00,0.0051
2754.00,0.0051
2753.00,0.0050
2752.00,0.0050
2751.00,0.0050
2750.00,0.0049
2749.00,0.0050
2748.00,0.0050
2747.00,0.0051
2746.00,0.0051
2745.00,0.0052
2744.00,0.0053
2743.00,0.0054
2742.00,0.0055
2741.00,0.0056
2740.00,0.0057
2739.00,0.0059
2738.00,0.0060
2737.00,0.0061
2736.00,0.0062
2735.00,0.0064
2734.00,0.0065
2733.00,0.0067
2732.00,0.0069
2731.00,0.0071
2730.00,0.0073
2729.00,0.0076
2728.00,0.0078
2727.00,0.0081
2726.00,0.0083
2725.00,0.0085
2724.00,0.0087
2723.00,0.0087
2722.00,0.0086
2721.00,0.0084
2720.00,0.0082
2719.00,0.0079
2718.00,0.0076
2717.00,0.0072
2716.00,0.0069
2715.00,0.0067
2714.00,0.0064
2713.00,0.0062
2712.00,0.0060
2711.00,0.0058
2710.00,0.0057
2709.00,0.0055
2708.00,0.0054
2707.00,0.0053
2706.00,0.0052
2705.00,0.0050
2704.00,0.0049
2703.00,0.0048
2702.00,0.0047
2701.00,0.0047
2700.00,0.0046
2699.00,0.0046
2698.00,0.0045
2697.00,0.0045
2696.00,0.0045
2695.00,0.0045
2694.00,0.0045
2693.00,0.0045
2692.00,0.0045
2691.00,0.0045
2690.00,0.0045
2689.00,0.0045
2688.00,0.0045
2687.00,0.0045
2686.00,0.0045
2685.00,0.0045
2684.00,0.0045
2683.00,0.0045
2682.00,0.0045
2681.00,0.0045
2680.00,0.0045
2679.00,0.0046
2678.00,0.0046
2677.00,0.0046
2676.00,0.0046
2675.00,0.0045
2674.00,0.0045
2673.00,0.0045
2672.00,0.0044
2671.00,0.0044
2670.00,0.0044
2669.00,0.0044
2668.00,0.0044
2667.00,0.0045
2666.00,0.0045
2665.00,0.0046
2664.00,0.0046
2663.00,0.0047
2662.00,0.0047
2661.00,0.0048
2660.00,0.0048
2659.00,0.0047
2658.00,0.0047
2657.00,0.0047
2656.00,0.0047
2655.00,0.0046
2654.00,0.0046
2653.00,0.0045
2652.00,0.0044
2651.00,0.0044
2650.00,0.0044
2649.00,0.0043
2648.00,0.0043
2647.00,0.0042
2646.00,0.0042
2645.00,0.0041
2644.00,0.0041
2643.00,0.0040
2642.00,0.0040
2641.00,0.0040
2640.00,0.0039
2639.00,0.0039
2638.00,0.0038
2637.00,0.0038
2636.00,0.0038
2635.00,0.0038
2634.00,0.0038
2633.00,0.0038
2632.00,0.0038
2631.00,0.0038
2630.00,0.0038
2629.00,0.0038
2628.00,0.0038
2627.00,0.0038
2626.00,0.0039
2625.00,0.0040
2624.00,0.0040
2623.00,0.0040
2622.00,0.0040
2621.00,0.0040
2620.00,0.0040
2619.00,0.0040
2618.00,0.0040
2617.00,0.0040
2616.00,0.0040
2615.00,0.0039
2614.00,0.0039
2613.00,0.0039
2612.00,0.0038
2611.00,0.0038
2610.00,0.0037
2609.00,0.0037
2608.00,0.0037
2607.00,0.0036
2606.00,0.0035
2605.00,0.0034
2604.00,0.0034
2603.00,0.0034
2602.00,0.0033
2601.00,0.0033
2600.00,0.0032
2599.00,0.0031
2598.00,0.0031
2597.00,0.0031
2596.00,0.0032
2595.00,0.0031
2594.00,0.0031
2593.00,0.0031
2592.00,0.0031
2591.00,0.0031
2590.00,0.0032
2589.00,0.0033
2588.00,0.0034
2587.00,0.0035
2586.00,0.0036
2585.00,0.0037
2584.00,0.0038
2583.00,0.0038
2582.00,0.0038
2581.00,0.0037
2580.00,0.0036
2579.00,0.0035
2578.00,0.0034
2577.00,0.0034
2576.00,0.0033
2575.00,0.0033
2574.00,0.0032
2573.00,0.0031
2572.00,0.0030
2571.00,0.0029
2570.00,0.0029
2569.00,0.0029
2568.00,0.0028
2567.00,0.0027
2566.00,0.0026
2565.00,0.0026
2564.00,0.0025
2563.00,0.0025
2562.00,0.0024
2561.00,0.0024
2560.00,0.0023
2559.00,0.0023
2558.00,0.0023
2557.00,0.0023
2556.00,0.0023
2555.00,0.0022
2554.00,0.0021
2553.00,0.0021
2552.00,0.0021
2551.00,0.0022
2550.00,0.0022
2549.00,0.0021
2548.00,0.0020
2547.00,0.0019
2546.00,0.0018
2545.00,0.0018
2544.00,0.0018
2543.00,0.0018
2542.00,0.0018
2541.00,0.0018
2540.00,0.0017
2539.00,0.0016
2538.00,0.0015
2537.00,0.0015
2536.00,0.0015
2535.00,0.0014
2534.00,0.0014
2533.00,0.0014
2532.00,0.0014
2531.00,0.0014
2530.00,0.0014
2529.00,0.0014
2528.00,0.0014
2527.00,0.0014
2526.00,0.0014
2525.00,0.0014
2524.00,0.0013
2523.00,0.0013
2522.00,0.0012
2521.00,0.0012
2520.00,0.0012
2519.00,0.0012
2518.00,0.0012
2517.00,0.0011
2516.00,0.0011
2515.00,0.0010
2514.00,0.0010
2513.00,0.0010
2512.00,0.0010
2511.00,0.0010
2510.00,0.0009
2509.00,0.0009
2508.00,0.0009
2507.00,0.0009
2506.00,0.0010
2505.00,0.0010
2504.00,0.0010
2503.00,0.0010
2502.00,0.0009
2501.00,0.0009
2500.00,0.0009
2499.00,0.0009
2498.00,0.0009
2497.00,0.0009
2496.00,0.0010
2495.00,0.0010
2494.00,0.0010
2493.00,0.0010
2492.00,0.0010
2491.00,0.0009
2490.00,0.0009
2489.00,0.0009
2488.00,0.0009
2487.00,0.0010
2486.00,0.0010
2485.00,0.0009
2484.00,0.0009
2483.00,0.0010
2482.00,0.0009
2481.00,0.0009
2480.00,0.0009
2479.00,0.0009
2478.00,0.0008
2477.00,0.0008
2476.00,0.0008
2475.00,0.0008
2474.00,0.0008
2473.00,0.0008
2472.00,0.0008
2471.00,0.0008
2470.00,0.0007
2469.00,0.0007
2468.00,0.0007
2467.00,0.0007
2466.00,0.0007
2465.00,0.0008
2464.00,0.0008
2463.00,0.0008
2462.00,0.0008
2461.00,0.0009
2460.00,0.0009
2459.00,0.0009
2458.00,0.0009
2457.00,0.0010
2456.00,0.0010
2455.00,0.0011
2454.00,0.0011
2453.00,0.0011
2452.00,0.0011
2451.00,0.0011
2450.00,0.0010
2449.00,0.0010
2448.00,0.0010
2447.00,0.0010
2446.00,0.0010
2445.00,0.0010
2444.00,0.0010
2443.00,0.0009
2442.00,0.0009
2441.00,0.0010
2440.00,0.0011
2439.00,0.0011
2438.00,0.0011
2437.00,0.0011
2436.00,0.0011
2435.00,0.0011
2434.00,0.0011
2433.00,0.0011
2432.00,0.0012
2431.00,0.0012
2430.00,0.0012
2429.00,0.0012
2428.00,0.0012
2427.00,0.0012
2426.00,0.0012
2425.00,0.0012
2424.00,0.0012
2423.00,0.0011
2422.00,0.0010
2421.00,0.0010
2420.00,0.0010
2419.00,0.0010
2418.00,0.0010
2417.00,0.0009
2416.00,0.0009
2415.00,0.0010
2414.00,0.0010
2413.00,0.0010
2412.00,0.0010
2411.00,0.0010
2410.00,0.0009
2409.00,0.0008
2408.00,0.0008
2407.00,0.0007
2406.00,0.0008
2405.00,0.0008
2404.00,0.0008
2403.00,0.0009
2402.00,0.0009
2401.00,0.0008
2400.00,0.0008
2399.00,0.0007
2398.00,0.0007
2397.00,0.0007
2396.00,0.0007
2395.00,0.0007
2394.00,0.0007
2393.00,0.0007
2392.00,0.0008
2391.00,0.0008
2390.00,0.0008
2389.00,0.0008
2388.00,0.0008
2387.00,0.0009
2386.00,0.0009
2385.00,0.0008
2384.00,0.0007
2383.00,0.0006
2382.00,0.0006
2381.00,0.0005
2380.00,0.0005
2379.00,0.0005
2378.00,0.0005
2377.00,0.0005
2376.00,0.0005
2375.00,0.0004
2374.00,0.0004
2373.00,0.0004
2372.00,0.0004
2371.00,0.0004
2370.00,0.0004
2369.00,0.0003
2368.00,0.0003
2367.00,0.0004
2366.00,0.0004
2365.00,0.0004
2364.00,0.0004
2363.00,0.0004
2362.00,0.0004
2361.00,0.0004
2360.00,0.0005
2359.00,0.0005
2358.00,0.0004
2357.00,0.0004
2356.00,0.0004
2355.00,0.0005
2354.00,0.0004
2353.00,0.0004
2352.00,0.0004
2351.00,0.0004
2350.00,0.0004
2349.00,0.0005
2348.00,0.0005
2347.00,0.0005
2346.00,0.0005
2345.00,0.0005
2344.00,0.0005
2343.00,0.0005
2342.00,0.0006
2341.00,0.0006
2340.00,0.0007
2339.00,0.0007
2338.00,0.0008
2337.00,0.0008
2336.00,0.0008
2335.00,0.0007
2334.00,0.0006
2333.00,0.0006
2332.00,0.0005
2331.00,0.0005
2330.00,0.0006
2329.00,0.0007
2328.00,0.0009
2327.00,0.0013
2326.00,0.0017
2325.00,0.0021
2324.00,0.0023
2323.00,0.0022
2322.00,0.0019
2321.00,0.0017
2320.00,0.0015
2319.00,0.0014
2318.00,0.0013
2317.00,0.0013
2316.00,0.0012
2315.00,0.0012
2314.00,0.0011
2313.00,0.0010
2312.00,0.0010
2311.00,0.0010
2310.00,0.0009
2309.00,0.0009
2308.00,0.0009
2307.00,0.0009
2306.00,0.0010
2305.00,0.0010
2304.00,0.0011
2303.00,0.0011
2302.00,0.0011
2301.00,0.0010
2300.00,0.0010
2299.00,0.0010
2298.00,0.0011
2297.00,0.0012
2296.00,0.0013
2295.00,0.0014
2294.00,0.0015
2293.00,0.0015
2292.00,0.0015
2291.00,0.0016
2290.00,0.0016
2289.00,0.0017
2288.00,0.0018
2287.00,0.0018
2286.00,0.0018
2285.00,0.0018
2284.00,0.0017
2283.00,0.0016
2282.00,0.0016
2281.00,0.0016
2280.00,0.0016
2279.00,0.0015
2278.00,0.0014
2277.00,0.0014
2276.00,0.0013
2275.00,0.0011
2274.00,0.0010
2273.00,0.0010
2272.00,0.0010
2271.00,0.0011
2270.00,0.0011
2269.00,0.0011
2268.00,0.0011
2267.00,0.0010
2266.00,0.0009
2265.00,0.0009
2264.00,0.0009
2263.00,0.0009
2262.00,0.0009
2261.00,0.0009
2260.00,0.0010
2259.00,0.0011
2258.00,0.0012
2257.00,0.0013
2256.00,0.0013
2255.00,0.0012
2254.00,0.0011
2253.00,0.0010
2252.00,0.0009
2251.00,0.0007
2250.00,0.0005
2249.00,0.0005
2248.00,0.0005
2247.00,0.0006
2246.00,0.0007
2245.00,0.0008
2244.00,0.0009
2243.00,0.0009
2242.00,0.0008
2241.00,0.0006
2240.00,0.0006
2239.00,0.0006
2238.00,0.0006
2237.00,0.0007
2236.00,0.0007
2235.00,0.0007
2234.00,0.0007
2233.00,0.0007
2232.00,0.0008
2231.00,0.0008
2230.00,0.0007
2229.00,0.0004
2228.00,0.0002
2227.00,0.0002
2226.00,0.0002
2225.00,0.0003
2224.00,0.0004
2223.00,0.0004
2222.00,0.0004
2221.00,0.0004
2220.00,0.0004
2219.00,0.0003
2218.00,0.0002
2217.00,0.0003
2216.00,0.0004
2215.00,0.0004
2214.00,0.0004
2213.00,0.0004
2212.00,0.0002
2211.00,0.0001
2210.00,-0.0001
2209.00,-0.0003
2208.00,-0.0003
2207.00,-0.0001
2206.00,0.0001
2205.00,0.0004
2204.00,0.0006
2203.00,0.0007
2202.00,0.0007
2201.00,0.0007
2200.00,0.0007
2199.00,0.0007
2198.00,0.0006
2197.00,0.0005
2196.00,0.0003
2195.00,0.0003
2194.00,0.0004
2193.00,0.0005
2192.00,0.0007
2191.00,0.0007
2190.00,0.0007
2189.00,0.0007
2188.00,0.0008
2187.00,0.0008
2186.00,0.0009
2185.00,0.0010
2184.00,0.0011
2183.00,0.0009
2182.00,0.0007
2181.00,0.0006
2180.00,0.0005
2179.00,0.0006
2178.00,0.0006
2177.00,0.0005
2176.00,0.0002
2175.00,-0.0002
2174.00,-0.0005
2173.00,-0.0004
2172.00,-0.0001
2171.00,0.0003
2170.00,0.0006
2169.00,0.0010
2168.00,0.0014
2167.00,0.0016
2166.00,0.0017
2165.00,0.0015
2164.00,0.0014
2163.00,0.0013
2162.00,0.0012
2161.00,0.0008
2160.00,-0.0002
2159.00,-0.0015
2158.00,-0.0026
2157.00,-0.0031
2156.00,-0.0030
2155.00,-0.0028
2154.00,-0.0025
2153.00,-0.0023
2152.00,-0.0022
2151.00,-0.0020
2150.00,-0.0020
2149.00,-0.0019
2148.00,-0.0019
2147.00,-0.0020
2146.00,-0.0020
2145.00,-0.0020
2144.00,-0.0019
2143.00,-0.0017
2142.00,-0.0016
2141.00,-0.0015
2140.00,-0.0015
2139.00,-0.0014
2138.00,-0.0014
2137.00,-0.0014
2136.00,-0.0016
2135.00,-0.0018
2134.00,-0.0019
2133.00,-0.0019
2132.00,-0.0016
2131.00,-0.0013
2130.00,-0.0011
2129.00,-0.0009
2128.00,-0.0008
2127.00,-0.0007
2126.00,-0.0007
2125.00,-0.0006
2124.00,-0.0005
2123.00,-0.0004
2122.00,-0.0004
2121.00,-0.0003
2120.00,-0.0003
2119.00,-0.0002
2118.00,-0.0002
2117.00,-0.0001
2116.00,-0.0000
2115.00,0.0001
2114.00,0.0001
2113.00,0.0001
2112.00,0.0001
2111.00,0.0002
2110.00,0.0003
2109.00,0.0003
2108.00,0.0004
2107.00,0.0004
2106.00,0.0004
2105.00,0.0003
2104.00,0.0002
2103.00,0.0002
2102.00,0.0003
2101.00,0.0003
2100.00,0.0004
2099.00,0.0003
2098.00,0.0000
2097.00,-0.0003
2096.00,-0.0005
2095.00,-0.0007
2094.00,-0.0007
2093.00,-0.0006
2092.00,-0.0004
2091.00,-0.0003
2090.00,-0.0002
2089.00,-0.0001
2088.00,-0.0001
2087.00,-0.0001
2086.00,-0.0001
2085.00,-0.0001
2084.00,0.0001
2083.00,0.0002
2082.00,0.0004
2081.00,0.0005
2080.00,0.0005
2079.00,0.0006
2078.00,0.0006
2077.00,0.0007
2076.00,0.0006
2075.00,0.0005
2074.00,0.0003
2073.00,0.0002
2072.00,0.0001
2071.00,0.0000
2070.00,-0.0000
2069.00,-0.0000
2068.00,0.0001
2067.00,0.0001
2066.00,0.0001
2065.00,0.0000
2064.00,-0.0002
2063.00,-0.0003
2062.00,-0.0005
2061.00,-0.0005
2060.00,-0.0004
2059.00,-0.0002
2058.00,-0.0000
2057.00,0.0002
2056.00,0.0003
2055.00,0.0004
2054.00,0.0005
2053.00,0.0007
2052.00,0.0010
2051.00,0.0011
2050.00,0.0009
2049.00,0.0006
2048.00,0.0004
2047.00,0.0004
2046.00,0.0003
2045.00,0.0003
2044.00,0.0003
2043.00,0.0002
2042.00,0.0001
2041.00,0.0001
2040.00,-0.0000
2039.00,-0.0001
2038.00,-0.0001
2037.00,0.0000
2036.00,0.0002
2035.00,0.0002
2034.00,0.0001
2033.00,-0.0002
2032.00,-0.0005
2031.00,-0.0007
2030.00,-0.0010
2029.00,-0.0012
2028.00,-0.0014
2027.00,-0.0016
2026.00,-0.0017
2025.00,-0.0015
2024.00,-0.0010
2023.00,-0.0006
2022.00,-0.0003
2021.00,-0.0002
2020.00,-0.0005
2019.00,-0.0009
2018.00,-0.0012
2017.00,-0.0013
2016.00,-0.0012
2015.00,-0.0010
2014.00,-0.0009
2013.00,-0.0008
2012.00,-0.0007
2011.00,-0.0007
2010.00,-0.0009
2009.00,-0.0012
2008.00,-0.0015
2007.00,-0.0018
2006.00,-0.0019
2005.00,-0.0018
2004.00,-0.0016
2003.00,-0.0013
2002.00,-0.0010
2001.00,-0.0008
2000.00,-0.0007
1999.00,-0.0007
1998.00,-0.0009
1997.00,-0.0010
1996.00,-0.0010
1995.00,-0.0009
1994.00,-0.0008
1993.00,-0.0007
1992.00,-0.0006
1991.00,-0.0006
1990.00,-0.0006
1989.00,-0.0006
1988.00,-0.0007
1987.00,-0.0008
1986.00,-0.0008
1985.00,-0.0006
1984.00,-0.0002
1983.00,0.0003
1982.00,0.0008
1981.00,0.0012
1980.00,0.0013
1979.00,0.0009
1978.00,0.0000
1977.00,-0.0008
1976.00,-0.0012
1975.00,-0.0014
1974.00,-0.0015
1973.00,-0.0016
1972.00,-0.0016
1971.00,-0.0016
1970.00,-0.0016
1969.00,-0.0016
1968.00,-0.0015
1967.00,-0.0016
1966.00,-0.0016
1965.00,-0.0017
1964.00,-0.0018
1963.00,-0.0018
1962.00,-0.0018
1961.00,-0.0017
1960.00,-0.0017
1959.00,-0.0017
1958.00,-0.0016
1957.00,-0.0014
1956.00,-0.0013
1955.00,-0.0012
1954.00,-0.0012
1953.00,-0.0013
1952.00,-0.0013
1951.00,-0.0013
1950.00,-0.0012
1949.00,-0.0011
1948.00,-0.0011
1947.00,-0.0012
1946.00,-0.0013
1945.00,-0.0014
1944.00,-0.0013
1943.00,-0.0013
1942.00,-0.0014
1941.00,-0.0016
1940.00,-0.0016
1939.00,-0.0016
1938.00,-0.0014
1937.00,-0.0012
1936.00,-0.0011
1935.00,-0.0011
1934.00,-0.0011
1933.00,-0.0011
1932.00,-0.0009
1931.00,-0.0008
1930.00,-0.0007
1929.00,-0.0007
1928.00,-0.0007
1927.00,-0.0007
1926.00,-0.0007
1925.00,-0.0006
1924.00,-0.0007
1923.00,-0.0006
1922.00,-0.0006
1921.00,-0.0005
1920.00,-0.0004
1919.00,-0.0004
1918.00,-0.0003
1917.00,-0.0003
1916.00,-0.0002
1915.00,-0.0003
1914.00,-0.0003
1913.00,-0.0002
1912.00,-0.0002
1911.00,-0.0003
1910.00,-0.0004
1909.00,-0.0004
1908.00,-0.0003
1907.00,-0.0002
1906.00,-0.0002
1905.00,-0.0002
1904.00,-0.0003
1903.00,-0.0003
1902.00,-0.0002
1901.00,-0.0001
1900.00,-0.0000
1899.00,0.0001
1898.00,0.0002
1897.00,0.0002
1896.00,0.0002
1895.00,0.0001
1894.00,0.0000
1893.00,-0.0001
1892.00,-0.0001
1891.00,-0.0001
1890.00,-0.0002
1889.00,-0.0001
1888.00,-0.0001
1887.00,-0.0001
1886.00,-0.0001
1885.00,-0.0001
1884.00,-0.0001
1883.00,-0.0000
1882.00,0.0000
1881.00,0.0000
1880.00,0.0001
1879.00,0.0001
1878.00,0.0002
1877.00,0.0002
1876.00,0.0003
1875.00,0.0003
1874.00,0.0002
1873.00,0.0001
1872.00,0.0000
1871.00,-0.0000
1870.00,-0.0001
1869.00,-0.0000
1868.00,0.0000
1867.00,-0.0000
1866.00,-0.0000
1865.00,-0.0000
1864.00,0.0000
1863.00,0.0001
1862.00,0.0002
1861.00,0.0002
1860.00,0.0002
1859.00,0.0002
1858.00,0.0002
1857.00,0.0002
1856.00,0.0002
1855.00,0.0001
1854.00,0.0001
1853.00,0.0001
1852.00,0.0001
1851.00,0.0001
1850.00,0.0000
1849.00,0.0000
1848.00,0.0001
1847.00,0.0001
1846.00,0.0002
1845.00,0.0003
1844.00,0.0004
1843.00,0.0004
1842.00,0.0003
1841.00,0.0002
1840.00,0.0002
1839.00,0.0001
1838.00,0.0002
1837.00,0.0002
1836.00,0.0002
1835.00,0.0002
1834.00,0.0002
1833.00,0.0003
1832.00,0.0004
1831.00,0.0004
1830.00,0.0004
1829.00,0.0004
1828.00,0.0005
1827.00,0.0005
1826.00,0.0004
1825.00,0.0004
1824.00,0.0004
1823.00,0.0004
1822.00,0.0003
1821.00,0.0003
1820.00,0.0002
1819.00,0.0002
1818.00,0.0001
1817.00,-0.0000
1816.00,0.0000
1815.00,0.0001
1814.00,0.0002
1813.00,0.0003
1812.00,0.0004
1811.00,0.0004
1810.00,0.0004
1809.00,0.0004
1808.00,0.0004
1807.00,0.0005
1806.00,0.0005
1805.00,0.0005
1804.00,0.0005
1803.00,0.0005
1802.00,0.0004
1801.00,0.0004
1800.00,0.0005
1799.00,0.0005
1798.00,0.0005
1797.00,0.0006
1796.00,0.0006
1795.00,0.0007
1794.00,0.0007
1793.00,0.0008
1792.00,0.0008
1791.00,0.0009
1790.00,0.0009
1789.00,0.0009
1788.00,0.0009
1787.00,0.0009
1786.00,0.0009
1785.00,0.0009
1784.00,0.0009
1783.00,0.0009
1782.00,0.0009
1781.00,0.0009
1780.00,0.0009
1779.00,0.0009
1778.00,0.0009
1777.00,0.0009
1776.00,0.0009
1775.00,0.0010
1774.00,0.0010
1773.00,0.0011
1772.00,0.0011
1771.00,0.0012
1770.00,0.0012
1769.00,0.0013
1768.00,0.0014
1767.00,0.0015
1766.00,0.0015
1765.00,0.0015
1764.00,0.0016
1763.00,0.0016
1762.00,0.0018
1761.00,0.0020
1760.00,0.0023
1759.00,0.0025
1758.00,0.0027
1757.00,0.0030
1756.00,0.0032
1755.00,0.0035
1754.00,0.0038
1753.00,0.0040
1752.00,0.0044
1751.00,0.0048
1750.00,0.0052
1749.00,0.0056
1748.00,0.0058
1747.00,0.0059
1746.00,0.0060
1745.00,0.0061
1744.00,0.0062
1743.00,0.0062
1742.00,0.0062
1741.00,0.0061
1740.00,0.0061
1739.00,0.0060
1738.00,0.0059
1737.00,0.0058
1736.00,0.0056
1735.00,0.0053
1734.00,0.0051
1733.00,0.0049
1732.00,0.0047
1731.00,0.0044
1730.00,0.0042
1729.00,0.0040
1728.00,0.0039
1727.00,0.0037
1726.00,0.0036
1725.00,0.0035
1724.00,0.0034
1723.00,0.0033
1722.00,0.0032
1721.00,0.0031
1720.00,0.0030
1719.00,0.0029
1718.00,0.0028
1717.00,0.0027
1716.00,0.0028
1715.00,0.0028
1714.00,0.0027
1713.00,0.0027
1712.00,0.0027
1711.00,0.0027
1710.00,0.0027
1709.00,0.0027
1708.00,0.0027
1707.00,0.0027
1706.00,0.0027
1705.00,0.0028
1704.00,0.0029
1703.00,0.0029
1702.00,0.0029
1701.00,0.0029
1700.00,0.0030
1699.00,0.0030
1698.00,0.0030
1697.00,0.0029
1696.00,0.0030
1695.00,0.0031
1694.00,0.0032
1693.00,0.0032
1692.00,0.0033
1691.00,0.0034
1690.00,0.0035
1689.00,0.0036
1688.00,0.0037
1687.00,0.0037
1686.00,0.0037
1685.00,0.0039
1684.00,0.0040
1683.00,0.0042
1682.00,0.0043
1681.00,0.0044
1680.00,0.0045
1679.00,0.0046
1678.00,0.0046
1677.00,0.0046
1676.00,0.0047
1675.00,0.0047
1674.00,0.0048
1673.00,0.0048
1672.00,0.0048
1671.00,0.0049
1670.00,0.0050
1669.00,0.0051
1668.00,0.0051
1667.00,0.0052
1666.00,0.0052
1665.00,0.0052
1664.00,0.0051
1663.00,0.0051
1662.00,0.0052
1661.00,0.0052
1660.00,0.0052
1659.00,0.0052
1658.00,0.0052
1657.00,0.0052
1656.00,0.0053
1655.00,0.0053
1654.00,0.0053
1653.00,0.0053
1652.00,0.0053
1651.00,0.0053
1650.00,0.0053
1649.00,0.0053
1648.00,0.0054
1647.00,0.0054
1646.00,0.0053
1645.00,0.0053
1644.00,0.0053
1643.00,0.0052
1642.00,0.0052
1641.00,0.0051
1640.00,0.0051
1639.00,0.0051
1638.00,0.0051
1637.00,0.0051
1636.00,0.0050
1635.00,0.0050
1634.00,0.0050
1633.00,0.0050
1632.00,0.0050
1631.00,0.0050
1630.00,0.0050
1629.00,0.0050
1628.00,0.0049
1627.00,0.0048
1626.00,0.0048
1625.00,0.0047
1624.00,0.0047
1623.00,0.0047
1622.00,0.0047
1621.00,0.0047
1620.00,0.0047
1619.00,0.0046
1618.00,0.0045
1617.00,0.0045
1616.00,0.0044
1615.00,0.0044
1614.00,0.0044
1613.00,0.0045
1612.00,0.0045
1611.00,0.0045
1610.00,0.0045
1609.00,0.0045
1608.00,0.0045
1607.00,0.0045
1606.00,0.0045
1605.00,0.0045
1604.00,0.0044
1603.00,0.0044
1602.00,0.0043
1601.00,0.0043
1600.00,0.0042
1599.00,0.0043
1598.00,0.0043
1597.00,0.0043
1596.00,0.0044
1595.00,0.0044
1594.00,0.0043
1593.00,0.0043
1592.00,0.0043
1591.00,0.0043
1590.00,0.0043
1589.00,0.0043
1588.00,0.0043
1587.00,0.0043
1586.00,0.0044
1585.00,0.0045
1584.00,0.0046
1583.00,0.0047
1582.00,0.0048
1581.00,0.0049
1580.00,0.0050
1579.00,0.0050
1578.00,0.0050
1577.00,0.0050
1576.00,0.0049
1575.00,0.0049
1574.00,0.0049
1573.00,0.0049
1572.00,0.0048
1571.00,0.0047
1570.00,0.0046
1569.00,0.0046
1568.00,0.0046
1567.00,0.0046
1566.00,0.0046
1565.00,0.0046
1564.00,0.0046
1563.00,0.0046
1562.00,0.0045
1561.00,0.0045
1560.00,0.0045
1559.00,0.0044
1558.00,0.0043
1557.00,0.0043
1556.00,0.0044
1555.00,0.0045
1554.00,0.0045
1553.00,0.0046
1552.00,0.0046
1551.00,0.0047
1550.00,0.0047
1549.00,0.0048
1548.00,0.0049
1547.00,0.0049
1546.00,0.0050
1545.00,0.0050
1544.00,0.0050
1543.00,0.0050
1542.00,0.0049
1541.00,0.0049
1540.00,0.0048
1539.00,0.0048
1538.00,0.0048
1537.00,0.0048
1536.00,0.0048
1535.00,0.0048
1534.00,0.0047
1533.00,0.0046
1532.00,0.0045
1531.00,0.0044
1530.00,0.0044
1529.00,0.0044
1528.00,0.0044
1527.00,0.0044
1526.00,0.0044
1525.00,0.0045
1524.00,0.0046
1523.00,0.0047
1522.00,0.0046
1521.00,0.0046
1520.00,0.0047
1519.00,0.0047
1518.00,0.0047
1517.00,0.0047
1516.00,0.0048
1515.00,0.0049
1514.00,0.0049
1513.00,0.0050
1512.00,0.0052
1511.00,0.0053
1510.00,0.0053
1509.00,0.0054
1508.00,0.0055
1507.00,0.0056
1506.00,0.0056
1505.00,0.0057
1504.00,0.0059
1503.00,0.0060
1502.00,0.0062
1501.00,0.0064
1500.00,0.0066
1499.00,0.0068
1498.00,0.0069
1497.00,0.0072
1496.00,0.0076
1495.00,0.0079
1494.00,0.0081
1493.00,0.0083
1492.00,0.0087
1491.00,0.0089
1490.00,0.0093
1489.00,0.0097
1488.00,0.0102
1487.00,0.0107
1486.00,0.0111
1485.00,0.0118
1484.00,0.0124
1483.00,0.0131
1482.00,0.0140
1481.00,0.0151
1480.00,0.0163
1479.00,0.0175
1478.00,0.0189
1477.00,0.0207
1476.00,0.0229
1475.00,0.0254
1474.00,0.0288
1473.00,0.0341
1472.00,0.0405
1471.00,0.0468
1470.00,0.0529
1469.00,0.0592
1468.00,0.0660
1467.00,0.0734
1466.00,0.0820
1465.00,0.0914
1464.00,0.1000
1463.00,0.1062
1462.00,0.1105
1461.00,0.1138
1460.00,0.1165
1459.00,0.1187
1458.00,0.1210
1457.00,0.1233
1456.00,0.1247
1455.00,0.1251
1454.00,0.1250
1453.00,0.1243
1452.00,0.1226
1451.00,0.1194
1450.00,0.1144
1449.00,0.1070
1448.00,0.0972
1447.00,0.0867
1446.00,0.0771
1445.00,0.0689
1444.00,0.0618
1443.00,0.0560
1442.00,0.0516
1441.00,0.0485
1440.00,0.0466
1439.00,0.0455
1438.00,0.0452
1437.00,0.0447
1436.00,0.0432
1435.00,0.0404
1434.00,0.0365
1433.00,0.0321
1432.00,0.0274
1431.00,0.0234
1430.00,0.0204
1429.00,0.0181
1428.00,0.0166
1427.00,0.0157
1426.00,0.0150
1425.00,0.0144
1424.00,0.0139
1423.00,0.0136
1422.00,0.0134
1421.00,0.0132
1420.00,0.0129
1419.00,0.0125
1418.00,0.0123
1417.00,0.0120
1416.00,0.0117
1415.00,0.0116
1414.00,0.0115
1413.00,0.0114
1412.00,0.0113
1411.00,0.0112
1410.00,0.0112
1409.00,0.0112
1408.00,0.0111
1407.00,0.0111
1406.00,0.0112
1405.00,0.0112
1404.00,0.0112
1403.00,0.0113
1402.00,0.0115
1401.00,0.0116
1400.00,0.0117
1399.00,0.0119
1398.00,0.0123
1397.00,0.0125
1396.00,0.0128
1395.00,0.0133
1394.00,0.0139
1393.00,0.0145
1392.00,0.0152
1391.00,0.0161
1390.00,0.0174
1389.00,0.0192
1388.00,0.0219
1387.00,0.0259
1386.00,0.0312
1385.00,0.0378
1384.00,0.0463
1383.00,0.0575
1382.00,0.0720
1381.00,0.0900
1380.00,0.1117
1379.00,0.1357
1378.00,0.1586
1377.00,0.1753
1376.00,0.1809
1375.00,0.1725
1374.00,0.1521
1373.00,0.1270
1372.00,0.1035
1371.00,0.0839
1370.00,0.0679
1369.00,0.0555
1368.00,0.0468
1367.00,0.0415
1366.00,0.0386
1365.00,0.0375
1364.00,0.0377
1363.00,0.0390
1362.00,0.0410
1361.00,0.0431
1360.00,0.0446
1359.00,0.0450
1358.00,0.0438
1357.00,0.0412
1356.00,0.0376
1355.00,0.0335
1354.00,0.0295
1353.00,0.0260
1352.00,0.0232
1351.00,0.0210
1350.00,0.0192
1349.00,0.0177
1348.00,0.0166
1347.00,0.0157
1346.00,0.0150
1345.00,0.0144
1344.00,0.0139
1343.00,0.0136
1342.00,0.0132
1341.00,0.0130
1340.00,0.0127
1339.00,0.0125
1338.00,0.0123
1337.00,0.0122
1336.00,0.0123
1335.00,0.0125
1334.00,0.0129
1333.00,0.0133
1332.00,0.0137
1331.00,0.0140
1330.00,0.0141
1329.00,0.0139
1328.00,0.0136
1327.00,0.0132
1326.00,0.0126
1325.00,0.0121
1324.00,0.0115
1323.00,0.0110
1322.00,0.0106
1321.00,0.0102
1320.00,0.0100
1319.00,0.0098
1318.00,0.0096
1317.00,0.0094
1316.00,0.0092
1315.00,0.0091
1314.00,0.0090
1313.00,0.0091
1312.00,0.0093
1311.00,0.0097
1310.00,0.0103
1309.00,0.0112
1308.00,0.0124
1307.00,0.0140
1306.00,0.0154
1305.00,0.0165
1304.00,0.0169
1303.00,0.0165
1302.00,0.0157
1301.00,0.0149
1300.00,0.0144
1299.00,0.0141
1298.00,0.0140
1297.00,0.0140
1296.00,0.0139
1295.00,0.0136
1294.00,0.0132
1293.00,0.0127
1292.00,0.0121
1291.00,0.0116
1290.00,0.0112
1289.00,0.0107
1288.00,0.0104
1287.00,0.0101
1286.00,0.0099
1285.00,0.0097
1284.00,0.0095
1283.00,0.0093
1282.00,0.0092
1281.00,0.0091
1280.00,0.0090
1279.00,0.0090
1278.00,0.0089
1277.00,0.0089
1276.00,0.0089
1275.00,0.0089
1274.00,0.0090
1273.00,0.0091
1272.00,0.0091
1271.00,0.0091
1270.00,0.0092
1269.00,0.0092
1268.00,0.0093
1267.00,0.0094
1266.00,0.0096
1265.00,0.0098
1264.00,0.0101
1263.00,0.0105
1262.00,0.0110
1261.00,0.0116
1260.00,0.0124
1259.00,0.0134
1258.00,0.0144
1257.00,0.0153
1256.00,0.0157
1255.00,0.0155
1254.00,0.0148
1253.00,0.0137
1252.00,0.0126
1251.00,0.0118
1250.00,0.0112
1249.00,0.0107
1248.00,0.0104
1247.00,0.0102
1246.00,0.0101
1245.00,0.0099
1244.00,0.0098
1243.00,0.0098
1242.00,0.0097
1241.00,0.0096
1240.00,0.0095
1239.00,0.0094
1238.00,0.0092
1237.00,0.0091
1236.00,0.0090
1235.00,0.0089
1234.00,0.0088
1233.00,0.0088
1232.00,0.0087
1231.00,0.0087
1230.00,0.0088
1229.00,0.0089
1228.00,0.0089
1227.00,0.0090
1226.00,0.0091
1225.00,0.0094
1224.00,0.0096
1223.00,0.0099
1222.00,0.0102
1221.00,0.0104
1220.00,0.0105
1219.00,0.0106
1218.00,0.0106
1217.00,0.0105
1216.00,0.0103
1215.00,0.0100
1214.00,0.0097
1213.00,0.0095
1212.00,0.0092
1211.00,0.0089
1210.00,0.0087
1209.00,0.0086
1208.00,0.0084
1207.00,0.0082
1206.00,0.0081
1205.00,0.0081
1204.00,0.0081
1203.00,0.0081
1202.00,0.0081
1201.00,0.0081
1200.00,0.0081
1199.00,0.0081
1198.00,0.0080
1197.00,0.0081
1196.00,0.0081
1195.00,0.0082
1194.00,0.0083
1193.00,0.0083
1192.00,0.0083
1191.00,0.0084
1190.00,0.0084
1189.00,0.0085
1188.00,0.0086
1187.00,0.0086
1186.00,0.0087
1185.00,0.0089
1184.00,0.0091
1183.00,0.0094
1182.00,0.0097
1181.00,0.0102
1180.00,0.0108
1179.00,0.0115
1178.00,0.0124
1177.00,0.0136
1176.00,0.0152
1175.00,0.0172
1174.00,0.0198
1173.00,0.0232
1172.00,0.0272
1171.00,0.0315
1170.00,0.0358
1169.00,0.0394
1168.00,0.0416
1167.00,0.0422
1166.00,0.0413
1165.00,0.0393
1164.00,0.0366
1163.00,0.0340
1162.00,0.0315
1161.00,0.0294
1160.00,0.0277
1159.00,0.0263
1158.00,0.0252
1157.00,0.0244
1156.00,0.0237
1155.00,0.0232
1154.00,0.0226
1153.00,0.0221
1152.00,0.0215
1151.00,0.0207
1150.00,0.0198
1149.00,0.0188
1148.00,0.0178
1147.00,0.0167
1146.00,0.0157
1145.00,0.0147
1144.00,0.0139
1143.00,0.0131
1142.00,0.0124
1141.00,0.0118
1140.00,0.0112
1139.00,0.0107
1138.00,0.0102
1137.00,0.0098
1136.00,0.0094
1135.00,0.0091
1134.00,0.0088
1133.00,0.0086
1132.00,0.0084
1131.00,0.0083
1130.00,0.0083
1129.00,0.0083
1128.00,0.0084
1127.00,0.0085
1126.00,0.0087
1125.00,0.0088
1124.00,0.0088
1123.00,0.0089
1122.00,0.0089
1121.00,0.0090
1120.00,0.0090
1119.00,0.0090
1118.00,0.0090
1117.00,0.0091
1116.00,0.0092
1115.00,0.0093
1114.00,0.0094
1113.00,0.0095
1112.00,0.0097
1111.00,0.0099
1110.00,0.0102
1109.00,0.0107
1108.00,0.0112
1107.00,0.0118
1106.00,0.0125
1105.00,0.0131
1104.00,0.0136
1103.00,0.0140
1102.00,0.0141
1101.00,0.0139
1100.00,0.0135
1099.00,0.0128
1098.00,0.0121
1097.00,0.0115
1096.00,0.0110
1095.00,0.0105
1094.00,0.0102
1093.00,0.0099
1092.00,0.0097
1091.00,0.0094
1090.00,0.0092
1089.00,0.0090
1088.00,0.0088
1087.00,0.0086
1086.00,0.0085
1085.00,0.0085
1084.00,0.0084
1083.00,0.0084
1082.00,0.0083
1081.00,0.0082
1080.00,0.0081
1079.00,0.0081
1078.00,0.0080
1077.00,0.0080
1076.00,0.0079
1075.00,0.0077
1074.00,0.0077
1073.00,0.0076
1072.00,0.0075
1071.00,0.0074
1070.00,0.0074
1069.00,0.0074
1068.00,0.0075
1067.00,0.0076
1066.00,0.0076
1065.00,0.0076
1064.00,0.0076
1063.00,0.0077
1062.00,0.0078
1061.00,0.0078
1060.00,0.0079
1059.00,0.0079
1058.00,0.0079
1057.00,0.0079
1056.00,0.0079
1055.00,0.0080
1054.00,0.0080
1053.00,0.0082
1052.00,0.0084
1051.00,0.0086
1050.00,0.0090
1049.00,0.0093
1048.00,0.0097
1047.00,0.0101
1046.00,0.0104
1045.00,0.0105
1044.00,0.0104
1043.00,0.0102
1042.00,0.0098
1041.00,0.0095
1040.00,0.0092
1039.00,0.0091
1038.00,0.0090
1037.00,0.0090
1036.00,0.0090
1035.00,0.0090
1034.00,0.0090
1033.00,0.0089
1032.00,0.0089
1031.00,0.0089
1030.00,0.0089
1029.00,0.0089
1028.00,0.0089
1027.00,0.0089
1026.00,0.0088
1025.00,0.0088
1024.00,0.0089
1023.00,0.0089
1022.00,0.0090
1021.00,0.0091
1020.00,0.0093
1019.00,0.0094
1018.00,0.0096
1017.00,0.0097
1016.00,0.0100
1015.00,0.0104
1014.00,0.0109
1013.00,0.0114
1012.00,0.0118
1011.00,0.0123
1010.00,0.0128
1009.00,0.0133
1008.00,0.0139
1007.00,0.0148
1006.00,0.0160
1005.00,0.0177
1004.00,0.0198
1003.00,0.0227
1002.00,0.0264
1001.00,0.0310
1000.00,0.0360
999.00,0.0405
998.00,0.0430
997.00,0.0426
996.00,0.0395
995.00,0.0345
994.00,0.0291
993.00,0.0242
992.00,0.0204
991.00,0.0176
990.00,0.0156
989.00,0.0142
988.00,0.0133
987.00,0.0128
986.00,0.0127
985.00,0.0129
984.00,0.0133
983.00,0.0142
982.00,0.0156
981.00,0.0175
980.00,0.0202
979.00,0.0237
978.00,0.0280
977.00,0.0333
976.00,0.0392
975.00,0.0451
974.00,0.0498
973.00,0.0521
972.00,0.0511
971.00,0.0469
970.00,0.0405
969.00,0.0336
968.00,0.0274
967.00,0.0226
966.00,0.0191
965.00,0.0165
964.00,0.0146
963.00,0.0133
962.00,0.0122
961.00,0.0114
960.00,0.0108
959.00,0.0103
958.00,0.0100
957.00,0.0097
956.00,0.0094
955.00,0.0091
954.00,0.0088
953.00,0.0085
952.00,0.0083
951.00,0.0082
950.00,0.0083
949.00,0.0083
948.00,0.0083
947.00,0.0083
946.00,0.0084
945.00,0.0087
944.00,0.0090
943.00,0.0093
942.00,0.0094
941.00,0.0095
940.00,0.0095
939.00,0.0093
938.00,0.0090
937.00,0.0085
936.00,0.0080
935.00,0.0075
934.00,0.0072
933.00,0.0069
932.00,0.0067
931.00,0.0066
930.00,0.0065
929.00,0.0064
928.00,0.0064
927.00,0.0063
926.00,0.0063
925.00,0.0062
924.00,0.0063
923.00,0.0063
922.00,0.0064
921.00,0.0064
920.00,0.0065
919.00,0.0066
918.00,0.0068
917.00,0.0070
916.00,0.0071
915.00,0.0071
914.00,0.0071
913.00,0.0071
912.00,0.0072
911.00,0.0073
910.00,0.0075
909.00,0.0076
908.00,0.0078
907.00,0.0082
906.00,0.0088
905.00,0.0098
904.00,0.0111
903.00,0.0128
902.00,0.0147
901.00,0.0164
900.00,0.0177
899.00,0.0180
898.00,0.0174
897.00,0.0160
896.00,0.0142
895.00,0.0125
894.00,0.0110
893.00,0.0098
892.00,0.0090
891.00,0.0084
890.00,0.0080
889.00,0.0076
888.00,0.0073
887.00,0.0071
886.00,0.0071
885.00,0.0070
884.00,0.0070
883.00,0.0071
882.00,0.0071
881.00,0.0071
880.00,0.0071
879.00,0.0071
878.00,0.0071
877.00,0.0072
876.00,0.0072
875.00,0.0072
874.00,0.0072
873.00,0.0073
872.00,0.0073
871.00,0.0074
870.00,0.0075
869.00,0.0076
868.00,0.0076
867.00,0.0076
866.00,0.0077
865.00,0.0078
864.00,0.0079
863.00,0.0080
862.00,0.0082
861.00,0.0085
860.00,0.0088
859.00,0.0090
858.00,0.0092
857.00,0.0092
856.00,0.0092
855.00,0.0094
854.00,0.0096
853.00,0.0099
852.00,0.0103
851.00,0.0109
850.00,0.0117
849.00,0.0127
848.00,0.0140
847.00,0.0159
846.00,0.0189
845.00,0.0234
844.00,0.0295
843.00,0.0363
842.00,0.0417
841.00,0.0435
840.00,0.0409
839.00,0.0352
838.00,0.0287
837.00,0.0233
836.00,0.0196
835.00,0.0173
834.00,0.0159
833.00,0.0149
832.00,0.0141
831.00,0.0134
830.00,0.0128
829.00,0.0123
828.00,0.0120
827.00,0.0117
826.00,0.0116
825.00,0.0115
824.00,0.0114
823.00,0.0113
822.00,0.0112
821.00,0.0113
820.00,0.0116
819.00,0.0119
818.00,0.0122
817.00,0.0125
816.00,0.0129
815.00,0.0136
814.00,0.0147
813.00,0.0161
812.00,0.0178
811.00,0.0194
810.00,0.0206
809.00,0.0211
808.00,0.0208
807.00,0.0198
806.00,0.0184
805.00,0.0168
804.00,0.0153
803.00,0.0141
802.00,0.0131
801.00,0.0123
800.00,0.0117
799.00,0.0112
798.00,0.0107
797.00,0.0104
796.00,0.0100
795.00,0.0097
794.00,0.0094
793.00,0.0091
792.00,0.0088
791.00,0.0086
790.00,0.0083
789.00,0.0080
788.00,0.0076
787.00,0.0074
786.00,0.0072
785.00,0.0070
784.00,0.0068
783.00,0.0066
782.00,0.0065
781.00,0.0064
780.00,0.0063
779.00,0.0062
778.00,0.0062
777.00,0.0063
776.00,0.0066
775.00,0.0068
774.00,0.0071
773.00,0.0074
772.00,0.0077
771.00,0.0080
770.00,0.0083
769.00,0.0085
768.00,0.0085
767.00,0.0085
766.00,0.0083
765.00,0.0081
764.00,0.0077
763.00,0.0073
762.00,0.0070
761.00,0.0067
760.00,0.0065
759.00,0.0064
758.00,0.0061
757.00,0.0058
756.00,0.0055
755.00,0.0053
754.00,0.0051
753.00,0.0051
752.00,0.0051
751.00,0.0050
750.00,0.0051
749.00,0.0051
748.00,0.0051
747.00,0.0052
746.00,0.0053
745.00,0.0054
744.00,0.0054
743.00,0.0055
742.00,0.0057
741.00,0.0057
740.00,0.0056
739.00,0.0055
738.00,0.0055
737.00,0.0057
736.00,0.0060
735.00,0.0062
734.00,0.0064
733.00,0.0064
732.00,0.0064
731.00,0.0065
730.00,0.0065
729.00,0.0065
728.00,0.0065
727.00,0.0065
726.00,0.0065
725.00,0.0064
724.00,0.0063
723.00,0.0063
722.00,0.0062
721.00,0.0061
720.00,0.0061
719.00,0.0060
718.00,0.0059
717.00,0.0057
716.00,0.0056
715.00,0.0055
714.00,0.0054
713.00,0.0053
712.00,0.0053
711.00,0.0053
710.00,0.0053
709.00,0.0053
708.00,0.0052
707.00,0.0052
706.00,0.0053
705.00,0.0054
704.00,0.0054
703.00,0.0054
702.00,0.0054
701.00,0.0054
700.00,0.0053
699.00,0.0053
698.00,0.0053
697.00,0.0053
696.00,0.0053
695.00,0.0052
694.00,0.0051
693.00,0.0049
692.00,0.0047
691.00,0.0046
690.00,0.0047
689.00,0.0049
688.00,0.0050
687.00,0.0051
686.00,0.0050
685.00,0.0049
684.00,0.0050
683.00,0.0051
682.00,0.0053
681.00,0.0053
680.00,0.0051
679.00,0.0048
678.00,0.0045
677.00,0.0044
676.00,0.0044
675.00,0.0045
674.00,0.0046
673.00,0.0048
672.00,0.0049
671.00,0.0050
670.00,0.0051
669.00,0.0052
668.00,0.0054
667.00,0.0056
666.00,0.0056
665.00,0.0054
664.00,0.0051
663.00,0.0049
662.00,0.0047
661.00,0.0048
660.00,0.0051
659.00,0.0053
658.00,0.0053
657.00,0.0051
656.00,0.0050
655.00,0.0050
654.00,0.0050
653.00,0.0050
652.00,0.0049
651.00,0.0049
650.00,0.0048
649.00,0.0047
648.00,0.0047
647.00,0.0047
646.00,0.0047
645.00,0.0046
644.00,0.0045
643.00,0.0045
642.00,0.0046
641.00,0.0048
640.00,0.0050
639.00,0.0052
638.00,0.0053
637.00,0.0052
636.00,0.0051
635.00,0.0050
634.00,0.0049
633.00,0.0049
632.00,0.0051
631.00,0.0053
630.00,0.0055
629.00,0.0056
628.00,0.0057
627.00,0.0058
626.00,0.0057
625.00,0.0056
624.00,0.0054
623.00,0.0053
622.00,0.0053
621.00,0.0052
620.00,0.0051
619.00,0.0050
618.00,0.0048
617.00,0.0047
616.00,0.0047
615.00,0.0050
614.00,0.0054
613.00,0.0056
612.00,0.0056
611.00,0.0054
610.00,0.0053
609.00,0.0053
608.00,0.0054
607.00,0.0054
606.00,0.0054
605.00,0.0052
604.00,0.0049
603.00,0.0046
602.00,0.0046
601.00,0.0047
600.00,0.0050
599.00,0.0054
598.00,0.0056
597.00,0.0058
596.00,0.0059
595.00,0.0060
594.00,0.0060
593.00,0.0059
592.00,0.0057
591.00,0.0055
590.00,0.0053
589.00,0.0053
588.00,0.0054
587.00,0.0056
586.00,0.0058
585.00,0.0060
584.00,0.0060
583.00,0.0061
582.00,0.0062
581.00,0.0063
580.00,0.0063
579.00,0.0063
578.00,0.0063
577.00,0.0061
576.00,0.0057
575.00,0.0052
574.00,0.0049
573.00,0.0049
572.00,0.0053
571.00,0.0058
570.00,0.0061
569.00,0.0061
568.00,0.0058
567.00,0.0055
566.00,0.0054
565.00,0.0054
564.00,0.0054
563.00,0.0054
562.00,0.0055
561.00,0.0057
560.00,0.0059
559.00,0.0059
558.00,0.0057
557.00,0.0055
556.00,0.0051
555.00,0.0049
554.00,0.0047
553.00,0.0047
552.00,0.0049
551.00,0.0053
550.00,0.0059
549.00,0.0063
548.00,0.0064
547.00,0.0063
546.00,0.0062
545.00,0.0064
544.00,0.0066
543.00,0.0066
542.00,0.0063
541.00,0.0059
540.00,0.0055
539.00,0.0054
538.00,0.0056
537.00,0.0059
536.00,0.0062
535.00,0.0064
534.00,0.0066
533.00,0.0068
532.00,0.0072
531.00,0.0075
530.00,0.0078
529.00,0.0080
528.00,0.0080
527.00,0.0078
526.00,0.0076
525.00,0.0075
524.00,0.0072
523.00,0.0068
522.00,0.0063
521.00,0.0060
520.00,0.0059
519.00,0.0058
518.00,0.0058
517.00,0.0058
516.00,0.0061
515.00,0.0066
514.00,0.0071
513.00,0.0074
512.00,0.0076
511.00,0.0075
510.00,0.0072
509.00,0.0066
508.00,0.0060
507.00,0.0056
506.00,0.0055
505.00,0.0057
504.00,0.0060
503.00,0.0061
502.00,0.0058
501.00,0.0054
500.00,0.0051
499.00,0.0051
498.00,0.0053
497.00,0.0056
496.00,0.0058
495.00,0.0060
494.00,0.0060
493.00,0.0059
492.00,0.0057
491.00,0.0057
490.00,0.0062
489.00,0.0068
488.00,0.0073
487.00,0.0074
486.00,0.0071
485.00,0.0063
484.00,0.0055
483.00,0.0049
482.00,0.0047
481.00,0.0050
480.00,0.0055
479.00,0.0062
478.00,0.0065
477.00,0.0065
476.00,0.0062
475.00,0.0059
474.00,0.0060
473.00,0.0066
472.00,0.0076
471.00,0.0086
470.00,0.0095
469.00,0.0100
468.00,0.0105
467.00,0.0110
466.00,0.0113
465.00,0.0110
464.00,0.0104
463.00,0.0097
462.00,0.0098
461.00,0.0108
460.00,0.0127
459.00,0.0149
458.00,0.0162
457.00,0.0161
456.00,0.0150
455.00,0.0137
454.00,0.0122
453.00,0.0103
452.00,0.0083
451.00,0.0073
450.00,0.0078
