Created as New Dataset,Sample 122 By Administrator Date Wednesday, September 10 2025
cm-1,A
4000.00,0.0008
3999.00,0.0008
3998.00,0.0008
3997.00,0.0008
3996.00,0.0008
3995.00,0.0008
3994.00,0.0008
3993.00,0.0008
3992.00,0.0008
3991.00,0.0008
3990.00,0.0008
3989.00,0.0008
3988.00,0.0008
3987.00,0.0008
3986.00,0.0008
3985.00,0.0008
3984.00,0.0008
3983.00,0.0008
3982.00,0.0007
3981.00,0.0007
3980.00,0.0007
3979.00,0.0007
3978.00,0.0007
3977.00,0.0007
3976.00,0.0007
3975.00,0.0007
3974.00,0.0007
3973.00,0.0007
3972.00,0.0007
3971.00,0.0007
3970.00,0.0007
3969.00,0.0007
3968.00,0.0006
3967.00,0.0006
3966.00,0.0006
3965.00,0.0007
3964.00,0.0007
3963.00,0.0007
3962.00,0.0007
3961.00,0.0008
3960.00,0.0008
3959.00,0.0007
3958.00,0.0007
3957.00,0.0007
3956.00,0.0006
3955.00,0.0006
3954.00,0.0006
3953.00,0.0006
3952.00,0.0006
3951.00,0.0006
3950.00,0.0007
3949.00,0.0007
3948.00,0.0007
3947.00,0.0008
3946.00,0.0008
3945.00,0.0007
3944.00,0.0007
3943.00,0.0007
3942.00,0.0007
3941.00,0.0007
3940.00,0.0006
3939.00,0.0006
3938.00,0.0006
3937.00,0.0006
3936.00,0.0006
3935.00,0.0006
3934.00,0.0006
3933.00,0.0006
3932.00,0.0007
3931.00,0.0007
3930.00,0.0007
3929.00,0.0007
3928.00,0.0007
3927.00,0.0006
3926.00,0.0006
3925.00,0.0006
3924.00,0.0006
3923.00,0.0006
3922.00,0.0006
3921.00,0.0006
3920.00,0.0006
3919.00,0.0006
3918.00,0.0006
3917.00,0.0007
3916.00,0.0006
3915.00,0.0006
3914.00,0.0006
3913.00,0.0006
3912.00,0.0006
3911.00,0.0006
3910.00,0.0006
3909.00,0.0006
3908.00,0.0006
3907.00,0.0006
3906.00,0.0006
3905.00,0.0006
3904.00,0.0006
3903.00,0.0006
3902.00,0.0005
3901.00,0.0005
3900.00,0.0005
3899.00,0.0006
3898.00,0.0006
3897.00,0.0006
3896.00,0.0007
3895.00,0.0007
3894.00,0.0007
3893.00,0.0007
3892.00,0.0007
3891.00,0.0008
3890.00,0.0008
3889.00,0.0007
3888.00,0.0007
3887.00,0.0006
3886.00,0.0006
3885.00,0.0006
3884.00,0.0006
3883.00,0.0006
3882.00,0.0006
3881.00,0.0006
3880.00,0.0006
3879.00,0.0006
3878.00,0.0006
3877.00,0.0006
3876.00,0.0006
3875.00,0.0006
3874.00,0.0007
3873.00,0.0007
3872.00,0.0007
3871.00,0.0006
3870.00,0.0006
3869.00,0.0006
3868.00,0.0006
3867.00,0.0006
3866.00,0.0006
3865.00,0.0006
3864.00,0.0006
3863.00,0.0006
3862.00,0.0006
3861.00,0.0006
3860.00,0.0006
3859.00,0.0006
3858.00,0.0006
3857.00,0.0006
3856.00,0.0006
3855.00,0.0006
3854.00,0.0006
3853.00,0.0006
3852.00,0.0007
3851.00,0.0006
3850.00,0.0006
3849.00,0.0006
3848.00,0.0006
3847.00,0.0006
3846.00,0.0006
3845.00,0.0007
3844.00,0.0008
3843.00,0.0008
3842.00,0.0008
3841.00,0.0008
3840.00,0.0007
3839.00,0.0007
3838.00,0.0007
3837.00,0.0007
3836.00,0.0007
3835.00,0.0007
3834.00,0.0007
3833.00,0.0006
3832.00,0.0006
3831.00,0.0006
3830.00,0.0006
3829.00,0.0006
3828.00,0.0006
3827.00,0.0006
3826.00,0.0006
3825.00,0.0007
3824.00,0.0007
3823.00,0.0008
3822.00,0.0008
3821.00,0.0008
3820.00,0.0009
3819.00,0.0009
3818.00,0.0008
3817.00,0.0008
3816.00,0.0008
3815.00,0.0008
3814.00,0.0007
3813.00,0.0007
3812.00,0.0007
3811.00,0.0007
3810.00,0.0007
3809.00,0.0008
3808.00,0.0008
3807.00,0.0008
3806.00,0.0007
3805.00,0.0007
3804.00,0.0006
3803.00,0.0005
3802.00,0.0005
3801.00,0.0006
3800.00,0.0007
3799.00,0.0007
3798.00,0.0006
3797.00,0.0006
3796.00,0.0006
3795.00,0.0006
3794.00,0.0006
3793.00,0.0006
3792.00,0.0006
3791.00,0.0006
3790.00,0.0006
3789.00,0.0006
3788.00,0.0006
3787.00,0.0005
3786.00,0.0006
3785.00,0.0006
3784.00,0.0006
3783.00,0.0007
3782.00,0.0007
3781.00,0.0006
3780.00,0.0006
3779.00,0.0006
3778.00,0.0006
3777.00,0.0007
3776.00,0.0007
3775.00,0.0007
3774.00,0.0008
3773.00,0.0008
3772.00,0.0008
3771.00,0.0008
3770.00,0.0008
3769.00,0.0008
3768.00,0.0008
3767.00,0.0008
3766.00,0.0008
3765.00,0.0007
3764.00,0.0007
3763.00,0.0007
3762.00,0.0007
3761.00,0.0007
3760.00,0.0007
3759.00,0.0007
3758.00,0.0007
3757.00,0.0008
3756.00,0.0008
3755.00,0.0008
3754.00,0.0008
3753.00,0.0009
3752.00,0.0009
3751.00,0.0009
3750.00,0.0008
3749.00,0.0008
3748.00,0.0008
3747.00,0.0008
3746.00,0.0007
3745.00,0.0006
3744.00,0.0006
3743.00,0.0006
3742.00,0.0005
3741.00,0.0005
3740.00,0.0005
3739.00,0.0006
3738.00,0.0006
3737.00,0.0006
3736.00,0.0006
3735.00,0.0006
3734.00,0.0005
3733.00,0.0004
3732.00,0.0003
3731.00,0.0003
3730.00,0.0003
3729.00,0.0003
3728.00,0.0003
3727.00,0.0003
3726.00,0.0003
3725.00,0.0003
3724.00,0.0003
3723.00,0.0003
3722.00,0.0003
3721.00,0.0003
3720.00,0.0004
3719.00,0.0004
3718.00,0.0005
3717.00,0.0005
3716.00,0.0005
3715.00,0.0005
3714.00,0.0005
3713.00,0.0005
3712.00,0.0005
3711.00,0.0004
3710.00,0.0004
3709.00,0.0004
3708.00,0.0004
3707.00,0.0004
3706.00,0.0004
3705.00,0.0004
3704.00,0.0004
3703.00,0.0004
3702.00,0.0005
3701.00,0.0005
3700.00,0.0005
3699.00,0.0005
3698.00,0.0005
3697.00,0.0005
3696.00,0.0004
3695.00,0.0004
3694.00,0.0005
3693.00,0.0005
3692.00,0.0005
3691.00,0.0006
3690.00,0.0006
3689.00,0.0006
3688.00,0.0005
3687.00,0.0005
3686.00,0.0005
3685.00,0.0004
3684.00,0.0005
3683.00,0.0005
3682.00,0.0005
3681.00,0.0006
3680.00,0.0006
3679.00,0.0007
3678.00,0.0007
3677.00,0.0007
3676.00,0.0007
3675.00,0.0007
3674.00,0.0006
3673.00,0.0006
3672.00,0.0006
3671.00,0.0005
3670.00,0.0005
3669.00,0.0005
3668.00,0.0005
3667.00,0.0004
3666.00,0.0004
3665.00,0.0004
3664.00,0.0004
3663.00,0.0004
3662.00,0.0005
3661.00,0.0005
3660.00,0.0005
3659.00,0.0005
3658.00,0.0005
3657.00,0.0005
3656.00,0.0005
3655.00,0.0005
3654.00,0.0005
3653.00,0.0005
3652.00,0.0005
3651.00,0.0005
3650.00,0.0005
3649.00,0.0005
3648.00,0.0005
3647.00,0.0005
3646.00,0.0005
3645.00,0.0005
3644.00,0.0005
3643.00,0.0005
3642.00,0.0005
3641.00,0.0005
3640.00,0.0005
3639.00,0.0005
3638.00,0.0006
3637.00,0.0006
3636.00,0.0006
3635.00,0.0005
3634.00,0.0005
3633.00,0.0005
3632.00,0.0005
3631.00,0.0005
3630.00,0.0004
3629.00,0.0004
3628.00,0.0004
3627.00,0.0004
3626.00,0.0004
3625.00,0.0005
3624.00,0.0005
3623.00,0.0005
3622.00,0.0005
3621.00,0.0004
3620.00,0.0004
3619.00,0.0005
3618.00,0.0005
3617.00,0.0006
3616.00,0.0006
3615.00,0.0007
3614.00,0.0007
3613.00,0.0007
3612.00,0.0007
3611.00,0.0007
3610.00,0.0006
3609.00,0.0006
3608.00,0.0005
3607.00,0.0005
3606.00,0.0005
3605.00,0.0005
3604.00,0.0005
3603.00,0.0006
3602.00,0.0006
3601.00,0.0006
3600.00,0.0007
3599.00,0.0007
3598.00,0.0007
3597.00,0.0007
3596.00,0.0007
3595.00,0.0007
3594.00,0.0007
3593.00,0.0007
3592.00,0.0007
3591.00,0.0007
3590.00,0.0007
3589.00,0.0007
3588.00,0.0007
3587.00,0.0008
3586.00,0.0009
3585.00,0.0009
3584.00,0.0010
3583.00,0.0010
3582.00,0.0010
3581.00,0.0010
3580.00,0.0010
3579.00,0.0009
3578.00,0.0009
3577.00,0.0010
3576.00,0.0010
3575.00,0.0011
3574.00,0.0011
3573.00,0.0012
3572.00,0.0012
3571.00,0.0011
3570.00,0.0011
3569.00,0.0011
3568.00,0.0011
3567.00,0.0011
3566.00,0.0011
3565.00,0.0011
3564.00,0.0011
3563.00,0.0012
3562.00,0.0012
3561.00,0.0012
3560.00,0.0012
3559.00,0.0012
3558.00,0.0012
3557.00,0.0013
3556.00,0.0013
3555.00,0.0014
3554.00,0.0014
3553.00,0.0014
3552.00,0.0014
3551.00,0.0014
3550.00,0.0014
3549.00,0.0014
3548.00,0.0015
3547.00,0.0015
3546.00,0.0016
3545.00,0.0017
3544.00,0.0017
3543.00,0.0017
3542.00,0.0017
3541.00,0.0016
3540.00,0.0016
3539.00,0.0016
3538.00,0.0016
3537.00,0.0016
3536.00,0.0017
3535.00,0.0017
3534.00,0.0017
3533.00,0.0017
3532.00,0.0017
3531.00,0.0018
3530.00,0.0018
3529.00,0.0018
3528.00,0.0018
3527.00,0.0018
3526.00,0.0017
3525.00,0.0017
3524.00,0.0017
3523.00,0.0018
3522.00,0.0019
3521.00,0.0019
3520.00,0.0020
3519.00,0.0020
3518.00,0.0021
3517.00,0.0021
3516.00,0.0021
3515.00,0.0022
3514.00,0.0022
3513.00,0.0022
3512.00,0.0022
3511.00,0.0022
3510.00,0.0022
3509.00,0.0022
3508.00,0.0022
3507.00,0.0022
3506.00,0.0022
3505.00,0.0023
3504.00,0.0023
3503.00,0.0023
3502.00,0.0024
3501.00,0.0024
3500.00,0.0024
3499.00,0.0023
3498.00,0.0023
3497.00,0.0024
3496.00,0.0024
3495.00,0.0025
3494.00,0.0025
3493.00,0.0026
3492.00,0.0026
3491.00,0.0026
3490.00,0.0026
3489.00,0.0026
3488.00,0.0026
3487.00,0.0026
3486.00,0.0026
3485.00,0.0026
3484.00,0.0026
3483.00,0.0026
3482.00,0.0026
3481.00,0.0026
3480.00,0.0026
3479.00,0.0026
3478.00,0.0026
3477.00,0.0027
3476.00,0.0027
3475.00,0.0028
3474.00,0.0028
3473.00,0.0029
3472.00,0.0029
3471.00,0.0029
3470.00,0.0029
3469.00,0.0029
3468.00,0.0029
3467.00,0.0030
3466.00,0.0030
3465.00,0.0030
3464.00,0.0030
3463.00,0.0030
3462.00,0.0030
3461.00,0.0030
3460.00,0.0030
3459.00,0.0031
3458.00,0.0031
3457.00,0.0031
3456.00,0.0031
3455.00,0.0031
3454.00,0.0031
3453.00,0.0031
3452.00,0.0031
3451.00,0.0031
3450.00,0.0032
3449.00,0.0032
3448.00,0.0033
3447.00,0.0033
3446.00,0.0034
3445.00,0.0034
3444.00,0.0034
3443.00,0.0034
3442.00,0.0034
3441.00,0.0034
3440.00,0.0035
3439.00,0.0035
3438.00,0.0035
3437.00,0.0035
3436.00,0.0036
3435.00,0.0036
3434.00,0.0036
3433.00,0.0036
3432.00,0.0036
3431.00,0.0036
3430.00,0.0036
3429.00,0.0036
3428.00,0.0037
3427.00,0.0037
3426.00,0.0038
3425.00,0.0038
3424.00,0.0038
3423.00,0.0038
3422.00,0.0038
3421.00,0.0038
3420.00,0.0038
3419.00,0.0038
3418.00,0.0038
3417.00,0.0038
3416.00,0.0038
3415.00,0.0039
3414.00,0.0039
3413.00,0.0039
3412.00,0.0039
3411.00,0.0039
3410.00,0.0039
3409.00,0.0039
3408.00,0.0039
3407.00,0.0040
3406.00,0.0040
3405.00,0.0040
3404.00,0.0040
3403.00,0.0040
3402.00,0.0041
3401.00,0.0041
3400.00,0.0041
3399.00,0.0041
3398.00,0.0041
3397.00,0.0041
3396.00,0.0040
3395.00,0.0040
3394.00,0.0041
3393.00,0.0041
3392.00,0.0042
3391.00,0.0042
3390.00,0.0042
3389.00,0.0042
3388.00,0.0042
3387.00,0.0042
3386.00,0.0041
3385.00,0.0041
3384.00,0.0041
3383.00,0.0042
3382.00,0.0042
3381.00,0.0042
3380.00,0.0042
3379.00,0.0042
3378.00,0.0042
3377.00,0.0042
3376.00,0.0042
3375.00,0.0042
3374.00,0.0042
3373.00,0.0042
3372.00,0.0042
3371.00,0.0041
3370.00,0.0041
3369.00,0.0041
3368.00,0.0042
3367.00,0.0042
3366.00,0.0042
3365.00,0.0043
3364.00,0.0042
3363.00,0.0042
3362.00,0.0042
3361.00,0.0043
3360.00,0.0043
3359.00,0.0043
3358.00,0.0043
3357.00,0.0043
3356.00,0.0043
3355.00,0.0043
3354.00,0.0043
3353.00,0.0043
3352.00,0.0043
3351.00,0.0043
3350.00,0.0043
3349.00,0.0043
3348.00,0.0043
3347.00,0.0044
3346.00,0.0044
3345.00,0.0044
3344.00,0.0043
3343.00,0.0043
3342.00,0.0043
3341.00,0.0042
3340.00,0.0042
3339.00,0.0042
3338.00,0.0042
3337.00,0.0042
3336.00,0.0042
3335.00,0.0042
3334.00,0.0042
3333.00,0.0042
3332.00,0.0042
3331.00,0.0042
3330.00,0.0042
3329.00,0.0041
3328.00,0.0041
3327.00,0.0041
3326.00,0.0041
3325.00,0.0041
3324.00,0.0041
3323.00,0.0041
3322.00,0.0041
3321.00,0.0041
3320.00,0.0041
3319.00,0.0041
3318.00,0.0041
3317.00,0.0041
3316.00,0.0041
3315.00,0.0041
3314.00,0.0041
3313.00,0.0040
3312.00,0.0040
3311.00,0.0040
3310.00,0.0040
3309.00,0.0040
3308.00,0.0040
3307.00,0.0040
3306.00,0.0040
3305.00,0.0041
3304.00,0.0041
3303.00,0.0041
3302.00,0.0041
3301.00,0.0040
3300.00,0.0040
3299.00,0.0039
3298.00,0.0039
3297.00,0.0038
3296.00,0.0039
3295.00,0.0039
3294.00,0.0039
3293.00,0.0039
3292.00,0.0040
3291.00,0.0040
3290.00,0.0040
3289.00,0.0040
3288.00,0.0040
3287.00,0.0040
3286.00,0.0040
3285.00,0.0040
3284.00,0.0039
3283.00,0.0039
3282.00,0.0039
3281.00,0.0039
3280.00,0.0039
3279.00,0.0039
3278.00,0.0039
3277.00,0.0038
3276.00,0.0038
3275.00,0.0038
3274.00,0.0037
3273.00,0.0037
3272.00,0.0037
3271.00,0.0037
3270.00,0.0037
3269.00,0.0037
3268.00,0.0037
3267.00,0.0037
3266.00,0.0037
3265.00,0.0037
3264.00,0.0037
3263.00,0.0037
3262.00,0.0037
3261.00,0.0037
3260.00,0.0037
3259.00,0.0036
3258.00,0.0036
3257.00,0.0036
3256.00,0.0036
3255.00,0.0035
3254.00,0.0036
3253.00,0.0035
3252.00,0.0035
3251.00,0.0035
3250.00,0.0035
3249.00,0.0035
3248.00,0.0035
3247.00,0.0035
3246.00,0.0035
3245.00,0.0035
3244.00,0.0034
3243.00,0.0034
3242.00,0.0034
3241.00,0.0034
3240.00,0.0034
3239.00,0.0034
3238.00,0.0034
3237.00,0.0034
3236.00,0.0034
3235.00,0.0034
3234.00,0.0035
3233.00,0.0035
3232.00,0.0035
3231.00,0.0035
3230.00,0.0035
3229.00,0.0035
3228.00,0.0035
3227.00,0.0036
3226.00,0.0036
3225.00,0.0036
3224.00,0.0036
3223.00,0.0036
3222.00,0.0036
3221.00,0.0036
3220.00,0.0037
3219.00,0.0037
3218.00,0.0037
3217.00,0.0037
3216.00,0.0037
3215.00,0.0037
3214.00,0.0038
3213.00,0.0038
3212.00,0.0038
3211.00,0.0038
3210.00,0.0038
3209.00,0.0038
3208.00,0.0038
3207.00,0.0038
3206.00,0.0038
3205.00,0.0038
3204.00,0.0038
3203.00,0.0038
3202.00,0.0038
3201.00,0.0038
3200.00,0.0038
3199.00,0.0038
3198.00,0.0038
3197.00,0.0039
3196.00,0.0039
3195.00,0.0038
3194.00,0.0038
3193.00,0.0038
3192.00,0.0038
3191.00,0.0038
3190.00,0.0038
3189.00,0.0038
3188.00,0.0038
3187.00,0.0037
3186.00,0.0037
3185.00,0.0036
3184.00,0.0036
3183.00,0.0035
3182.00,0.0035
3181.00,0.0035
3180.00,0.0035
3179.00,0.0035
3178.00,0.0035
3177.00,0.0035
3176.00,0.0036
3175.00,0.0036
3174.00,0.0036
3173.00,0.0036
3172.00,0.0035
3171.00,0.0035
3170.00,0.0035
3169.00,0.0034
3168.00,0.0034
3167.00,0.0034
3166.00,0.0034
3165.00,0.0033
3164.00,0.0033
3163.00,0.0033
3162.00,0.0033
3161.00,0.0033
3160.00,0.0033
3159.00,0.0033
3158.00,0.0033
3157.00,0.0033
3156.00,0.0033
3155.00,0.0033
3154.00,0.0033
3153.00,0.0033
3152.00,0.0033
3151.00,0.0033
3150.00,0.0033
3149.00,0.0033
3148.00,0.0033
3147.00,0.0033
3146.00,0.0033
3145.00,0.0033
3144.00,0.0033
3143.00,0.0033
3142.00,0.0032
3141.00,0.0032
3140.00,0.0032
3139.00,0.0032
3138.00,0.0032
3137.00,0.0032
3136.00,0.0031
3135.00,0.0031
3134.00,0.0031
3133.00,0.0031
3132.00,0.0031
3131.00,0.0031
3130.00,0.0031
3129.00,0.0030
3128.00,0.0030
3127.00,0.0030
3126.00,0.0030
3125.00,0.0029
3124.00,0.0029
3123.00,0.0029
3122.00,0.0029
3121.00,0.0028
3120.00,0.0028
3119.00,0.0028
3118.00,0.0028
3117.00,0.0028
3116.00,0.0027
3115.00,0.0027
3114.00,0.0027
3113.00,0.0027
3112.00,0.0026
3111.00,0.0027
3110.00,0.0027
3109.00,0.0027
3108.00,0.0027
3107.00,0.0026
3106.00,0.0026
3105.00,0.0026
3104.00,0.0026
3103.00,0.0026
3102.00,0.0025
3101.00,0.0025
3100.00,0.0025
3099.00,0.0025
3098.00,0.0025
3097.00,0.0025
3096.00,0.0025
3095.00,0.0025
3094.00,0.0025
3093.00,0.0025
3092.00,0.0025
3091.00,0.0024
3090.00,0.0024
3089.00,0.0024
3088.00,0.0025
3087.00,0.0025
3086.00,0.0025
3085.00,0.0025
3084.00,0.0024
3083.00,0.0024
3082.00,0.0024
3081.00,0.0024
3080.00,0.0024
3079.00,0.0024
3078.00,0.0024
3077.00,0.0024
3076.00,0.0024
3075.00,0.0025
3074.00,0.0025
3073.00,0.0025
3072.00,0.0025
3071.00,0.0025
3070.00,0.0025
3069.00,0.0026
3068.00,0.0026
3067.00,0.0026
3066.00,0.0026
3065.00,0.0026
3064.00,0.0026
3063.00,0.0026
3062.00,0.0026
3061.00,0.0026
3060.00,0.0027
3059.00,0.0027
3058.00,0.0027
3057.00,0.0028
3056.00,0.0028
3055.00,0.0028
3054.00,0.0028
3053.00,0.0028
3052.00,0.0029
3051.00,0.0029
3050.00,0.0029
3049.00,0.0029
3048.00,0.0029
3047.00,0.0029
3046.00,0.0029
3045.00,0.0029
3044.00,0.0029
3043.00,0.0029
3042.00,0.0029
3041.00,0.0030
3040.00,0.0030
3039.00,0.0031
3038.00,0.0031
3037.00,0.0031
3036.00,0.0031
3035.00,0.0032
3034.00,0.0032
3033.00,0.0032
3032.00,0.0033
3031.00,0.0033
3030.00,0.0033
3029.00,0.0033
3028.00,0.0034
3027.00,0.0034
3026.00,0.0035
3025.00,0.0036
3024.00,0.0037
3023.00,0.0038
3022.00,0.0039
3021.00,0.0039
3020.00,0.0040
3019.00,0.0040
3018.00,0.0041
3017.00,0.0042
3016.00,0.0043
3015.00,0.0044
3014.00,0.0045
3013.00,0.0047
3012.00,0.0048
3011.00,0.0049
3010.00,0.0051
3009.00,0.0053
3008.00,0.0055
3007.00,0.0057
3006.00,0.0058
3005.00,0.0060
3004.00,0.0061
3003.00,0.0063
3002.00,0.0066
3001.00,0.0069
3000.00,0.0071
2999.00,0.0074
2998.00,0.0077
2997.00,0.0080
2996.00,0.0084
2995.00,0.0088
2994.00,0.0092
2993.00,0.0097
2992.00,0.0102
2991.00,0.0108
2990.00,0.0114
2989.00,0.0121
2988.00,0.0129
2987.00,0.0138
2986.00,0.0148
2985.00,0.0159
2984.00,0.0171
2983.00,0.0185
2982.00,0.0200
2981.00,0.0217
2980.00,0.0236
2979.00,0.0257
2978.00,0.0281
2977.00,0.0309
2976.00,0.0341
2975.00,0.0377
2974.00,0.0418
2973.00,0.0464
2972.00,0.0516
2971.00,0.0574
2970.00,0.0638
2969.00,0.0707
2968.00,0.0781
2967.00,0.0858
2966.00,0.0938
2965.00,0.1016
2964.00,0.1091
2963.00,0.1159
2962.00,0.1218
2961.00,0.1268
2960.00,0.1312
2959.00,0.1354
2958.00,0.1401
2957.00,0.1457
2956.00,0.1526
2955.00,0.1610
2954.00,0.1707
2953.00,0.1809
2952.00,0.1906
2951.00,0.1986
2950.00,0.2034
2949.00,0.2039
2948.00,0.1996
2947.00,0.1907
2946.00,0.1783
2945.00,0.1640
2944.00,0.1496
2943.00,0.1365
2942.00,0.1258
2941.00,0.1179
2940.00,0.1128
2939.00,0.1103
2938.00,0.1102
2937.00,0.1121
2936.00,0.1160
2935.00,0.1215
2934.00,0.1287
2933.00,0.1374
2932.00,0.1473
2931.00,0.1584
2930.00,0.1703
2929.00,0.1826
2928.00,0.1950
2927.00,0.2071
2926.00,0.2189
2925.00,0.2303
2924.00,0.2413
2923.00,0.2523
2922.00,0.2633
2921.00,0.2741
2920.00,0.2841
2919.00,0.2922
2918.00,0.2972
2917.00,0.2981
2916.00,0.2946
2915.00,0.2870
2914.00,0.2765
2913.00,0.2642
2912.00,0.2516
2911.00,0.2393
2910.00,0.2279
2909.00,0.2175
2908.00,0.2078
2907.00,0.1987
2906.00,0.1901
2905.00,0.1816
2904.00,0.1733
2903.00,0.1653
2902.00,0.1574
2901.00,0.1500
2900.00,0.1429
2899.00,0.1364
2898.00,0.1305
2897.00,0.1252
2896.00,0.1205
2895.00,0.1166
2894.00,0.1134
2893.00,0.1109
2892.00,0.1092
2891.00,0.1082
2890.00,0.1077
2889.00,0.1078
2888.00,0.1082
2887.00,0.1091
2886.00,0.1103
2885.00,0.1119
2884.00,0.1140
2883.00,0.1167
2882.00,0.1198
2881.00,0.1233
2880.00,0.1268
2879.00,0.1298
2878.00,0.1319
2877.00,0.1329
2876.00,0.1327
2875.00,0.1319
2874.00,0.1311
2873.00,0.1308
2872.00,0.1315
2871.00,0.1330
2870.00,0.1354
2869.00,0.1379
2868.00,0.1398
2867.00,0.1399
2866.00,0.1374
2865.00,0.1318
2864.00,0.1234
2863.00,0.1132
2862.00,0.1024
2861.00,0.0922
2860.00,0.0833
2859.00,0.0762
2858.00,0.0708
2857.00,0.0667
2856.00,0.0638
2855.00,0.0619
2854.00,0.0608
2853.00,0.0604
2852.00,0.0608
2851.00,0.0619
2850.00,0.0638
2849.00,0.0665
2848.00,0.0700
2847.00,0.0744
2846.00,0.0797
2845.00,0.0859
2844.00,0.0928
2843.00,0.1002
2842.00,0.1077
2841.00,0.1147
2840.00,0.1205
2839.00,0.1242
2838.00,0.1249
2837.00,0.1223
2836.00,0.1161
2835.00,0.1071
2834.00,0.0963
2833.00,0.0849
2832.00,0.0741
2831.00,0.0645
2830.00,0.0563
2829.00,0.0496
2828.00,0.0442
2827.00,0.0398
2826.00,0.0363
2825.00,0.0334
2824.00,0.0310
2823.00,0.0290
2822.00,0.0273
2821.00,0.0259
2820.00,0.0246
2819.00,0.0235
2818.00,0.0226
2817.00,0.0218
2816.00,0.0210
2815.00,0.0204
2814.00,0.0198
2813.00,0.0192
2812.00,0.0187
2811.00,0.0181
2810.00,0.0175
2809.00,0.0169
2808.00,0.0162
2807.00,0.0155
2806.00,0.0148
2805.00,0.0141
2804.00,0.0135
2803.00,0.0129
2802.00,0.0123
2801.00,0.0119
2800.00,0.0115
2799.00,0.0111
2798.00,0.0108
2797.00,0.0106
2796.00,0.0103
2795.00,0.0101
2794.00,0.0099
2793.00,0.0096
2792.00,0.0093
2791.00,0.0090
2790.00,0.0087
2789.00,0.0084
2788.00,0.0082
2787.00,0.0079
2786.00,0.0076
2785.00,0.0074
2784.00,0.0072
2783.00,0.0070
2782.00,0.0068
2781.00,0.0066
2780.00,0.0064
2779.00,0.0063
2778.00,0.0061
2777.00,0.0059
2776.00,0.0058
2775.00,0.0057
2774.00,0.0057
2773.00,0.0056
2772.00,0.0056
2771.00,0.0055
2770.00,0.0055
2769.00,0.0055
2768.00,0.0055
2767.00,0.0054
2766.00,0.0054
2765.00,0.0053
2764.00,0.0053
2763.00,0.0052
2762.00,0.0052
2761.00,0.0052
2760.00,0.0051
2759.00,0.0051
2758.00,0.0051
2757.00,0.0051
2756.00,0.0051
2755.00,0.0051
2754.00,0.0051
2753.00,0.0051
2752.00,0.0050
2751.00,0.0050
2750.00,0.0050
2749.00,0.0050
2748.00,0.0050
2747.00,0.0050
2746.00,0.0051
2745.00,0.0052
2744.00,0.0052
2743.00,0.0053
2742.00,0.0054
2741.00,0.0055
2740.00,0.0056
2739.00,0.0058
2738.00,0.0059
2737.00,0.0061
2736.00,0.0063
2735.00,0.0065
2734.00,0.0066
2733.00,0.0068
2732.00,0.0070
2731.00,0.0072
2730.00,0.0074
2729.00,0.0077
2728.00,0.0080
2727.00,0.0084
2726.00,0.0087
2725.00,0.0089
2724.00,0.0091
2723.00,0.0092
2722.00,0.0091
2721.00,0.0089
2720.00,0.0087
2719.00,0.0083
2718.00,0.0079
2717.00,0.0075
2716.00,0.0071
2715.00,0.0068
2714.00,0.0065
2713.00,0.0063
2712.00,0.0060
2711.00,0.0058
2710.00,0.0056
2709.00,0.0055
2708.00,0.0053
2707.00,0.0052
2706.00,0.0050
2705.00,0.0049
2704.00,0.0048
2703.00,0.0047
2702.00,0.0046
2701.00,0.0046
2700.00,0.0045
2699.00,0.0044
2698.00,0.0043
2697.00,0.0043
2696.00,0.0043
2695.00,0.0042
2694.00,0.0042
2693.00,0.0042
2692.00,0.0042
2691.00,0.0042
2690.00,0.0042
2689.00,0.0042
2688.00,0.0043
2687.00,0.0043
2686.00,0.0043
2685.00,0.0042
2684.00,0.0042
2683.00,0.0043
2682.00,0.0043
2681.00,0.0043
2680.00,0.0044
2679.00,0.0044
2678.00,0.0044
2677.00,0.0044
2676.00,0.0044
2675.00,0.0044
2674.00,0.0043
2673.00,0.0043
2672.00,0.0043
2671.00,0.0042
2670.00,0.0042
2669.00,0.0042
2668.00,0.0043
2667.00,0.0043
2666.00,0.0044
2665.00,0.0045
2664.00,0.0045
2663.00,0.0046
2662.00,0.0046
2661.00,0.0047
2660.00,0.0047
2659.00,0.0048
2658.00,0.0047
2657.00,0.0047
2656.00,0.0046
2655.00,0.0045
2654.00,0.0045
2653.00,0.0044
2652.00,0.0044
2651.00,0.0043
2650.00,0.0043
2649.00,0.0042
2648.00,0.0041
2647.00,0.0040
2646.00,0.0040
2645.00,0.0040
2644.00,0.0039
2643.00,0.0039
2642.00,0.0039
2641.00,0.0039
2640.00,0.0038
2639.00,0.0038
2638.00,0.0037
2637.00,0.0037
2636.00,0.0037
2635.00,0.0037
2634.00,0.0038
2633.00,0.0038
2632.00,0.0038
2631.00,0.0039
2630.00,0.0039
2629.00,0.0039
2628.00,0.0039
2627.00,0.0039
2626.00,0.0039
2625.00,0.0039
2624.00,0.0039
2623.00,0.0039
2622.00,0.0039
2621.00,0.0039
2620.00,0.0039
2619.00,0.0039
2618.00,0.0039
2617.00,0.0039
2616.00,0.0040
2615.00,0.0040
2614.00,0.0040
2613.00,0.0040
2612.00,0.0039
2611.00,0.0038
2610.00,0.0037
2609.00,0.0035
2608.00,0.0035
2607.00,0.0034
2606.00,0.0034
2605.00,0.0033
2604.00,0.0032
2603.00,0.0032
2602.00,0.0031
2601.00,0.0031
2600.00,0.0031
2599.00,0.0031
2598.00,0.0031
2597.00,0.0031
2596.00,0.0031
2595.00,0.0031
2594.00,0.0032
2593.00,0.0032
2592.00,0.0033
2591.00,0.0034
2590.00,0.0035
2589.00,0.0037
2588.00,0.0038
2587.00,0.0039
2586.00,0.0040
2585.00,0.0041
2584.00,0.0041
2583.00,0.0042
2582.00,0.0042
2581.00,0.0041
2580.00,0.0041
2579.00,0.0039
2578.00,0.0038
2577.00,0.0037
2576.00,0.0036
2575.00,0.0034
2574.00,0.0033
2573.00,0.0032
2572.00,0.0031
2571.00,0.0030
2570.00,0.0029
2569.00,0.0028
2568.00,0.0026
2567.00,0.0025
2566.00,0.0025
2565.00,0.0025
2564.00,0.0025
2563.00,0.0025
2562.00,0.0024
2561.00,0.0023
2560.00,0.0023
2559.00,0.0023
2558.00,0.0023
2557.00,0.0023
2556.00,0.0023
2555.00,0.0023
2554.00,0.0023
2553.00,0.0022
2552.00,0.0022
2551.00,0.0022
2550.00,0.0022
2549.00,0.0022
2548.00,0.0021
2547.00,0.0020
2546.00,0.0019
2545.00,0.0018
2544.00,0.0018
2543.00,0.0018
2542.00,0.0018
2541.00,0.0018
2540.00,0.0018
2539.00,0.0018
2538.00,0.0017
2537.00,0.0017
2536.00,0.0017
2535.00,0.0017
2534.00,0.0016
2533.00,0.0016
2532.00,0.0015
2531.00,0.0014
2530.00,0.0014
2529.00,0.0013
2528.00,0.0013
2527.00,0.0013
2526.00,0.0013
2525.00,0.0013
2524.00,0.0013
2523.00,0.0013
2522.00,0.0013
2521.00,0.0013
2520.00,0.0013
2519.00,0.0013
2518.00,0.0013
2517.00,0.0013
2516.00,0.0012
2515.00,0.0012
2514.00,0.0012
2513.00,0.0011
2512.00,0.0011
2511.00,0.0011
2510.00,0.0010
2509.00,0.0010
2508.00,0.0010
2507.00,0.0010
2506.00,0.0010
2505.00,0.0010
2504.00,0.0010
2503.00,0.0010
2502.00,0.0010
2501.00,0.0010
2500.00,0.0010
2499.00,0.0010
2498.00,0.0010
2497.00,0.0010
2496.00,0.0010
2495.00,0.0010
2494.00,0.0011
2493.00,0.0011
2492.00,0.0011
2491.00,0.0011
2490.00,0.0010
2489.00,0.0010
2488.00,0.0010
2487.00,0.0010
2486.00,0.0010
2485.00,0.0010
2484.00,0.0010
2483.00,0.0010
2482.00,0.0010
2481.00,0.0010
2480.00,0.0010
2479.00,0.0010
2478.00,0.0010
2477.00,0.0009
2476.00,0.0009
2475.00,0.0009
2474.00,0.0009
2473.00,0.0009
2472.00,0.0009
2471.00,0.0010
2470.00,0.0010
2469.00,0.0011
2468.00,0.0011
2467.00,0.0010
2466.00,0.0010
2465.00,0.0010
2464.00,0.0009
2463.00,0.0010
2462.00,0.0010
2461.00,0.0011
2460.00,0.0011
2459.00,0.0011
2458.00,0.0010
2457.00,0.0010
2456.00,0.0010
2455.00,0.0010
2454.00,0.0010
2453.00,0.0010
2452.00,0.0010
2451.00,0.0010
2450.00,0.0010
2449.00,0.0010
2448.00,0.0010
2447.00,0.0010
2446.00,0.0010
2445.00,0.0010
2444.00,0.0010
2443.00,0.0010
2442.00,0.0011
2441.00,0.0011
2440.00,0.0012
2439.00,0.0012
2438.00,0.0012
2437.00,0.0011
2436.00,0.0010
2435.00,0.0010
2434.00,0.0010
2433.00,0.0010
2432.00,0.0011
2431.00,0.0011
2430.00,0.0011
2429.00,0.0012
2428.00,0.0012
2427.00,0.0012
2426.00,0.0011
2425.00,0.0011
2424.00,0.0012
2423.00,0.0012
2422.00,0.0012
2421.00,0.0011
2420.00,0.0011
2419.00,0.0010
2418.00,0.0010
2417.00,0.0009
2416.00,0.0009
2415.00,0.0009
2414.00,0.0009
2413.00,0.0009
2412.00,0.0010
2411.00,0.0010
2410.00,0.0010
2409.00,0.0010
2408.00,0.0009
2407.00,0.0008
2406.00,0.0008
2405.00,0.0008
2404.00,0.0008
2403.00,0.0008
2402.00,0.0009
2401.00,0.0009
2400.00,0.0009
2399.00,0.0009
2398.00,0.0008
2397.00,0.0008
2396.00,0.0008
2395.00,0.0007
2394.00,0.0007
2393.00,0.0007
2392.00,0.0008
2391.00,0.0008
2390.00,0.0008
2389.00,0.0007
2388.00,0.0007
2387.00,0.0006
2386.00,0.0005
2385.00,0.0004
2384.00,0.0002
2383.00,0.0002
2382.00,0.0001
2381.00,0.0000
2380.00,-0.0000
2379.00,-0.0001
2378.00,-0.0001
2377.00,-0.0001
2376.00,-0.0000
2375.00,0.0000
2374.00,-0.0000
2373.00,-0.0001
2372.00,-0.0002
2371.00,-0.0003
2370.00,-0.0004
2369.00,-0.0004
2368.00,-0.0004
2367.00,-0.0005
2366.00,-0.0005
2365.00,-0.0006
2364.00,-0.0005
2363.00,-0.0004
2362.00,-0.0003
2361.00,-0.0003
2360.00,-0.0003
2359.00,-0.0003
2358.00,-0.0003
2357.00,-0.0003
2356.00,-0.0002
2355.00,-0.0002
2354.00,-0.0002
2353.00,-0.0002
2352.00,-0.0003
2351.00,-0.0003
2350.00,-0.0003
2349.00,-0.0002
2348.00,-0.0001
2347.00,-0.0001
2346.00,-0.0002
2345.00,-0.0002
2344.00,-0.0002
2343.00,-0.0001
2342.00,-0.0000
2341.00,0.0000
2340.00,0.0001
2339.00,0.0001
2338.00,0.0002
2337.00,0.0002
2336.00,0.0002
2335.00,0.0002
2334.00,0.0002
2333.00,0.0001
2332.00,0.0000
2331.00,0.0000
2330.00,0.0000
2329.00,0.0001
2328.00,0.0004
2327.00,0.0007
2326.00,0.0012
2325.00,0.0016
2324.00,0.0017
2323.00,0.0016
2322.00,0.0013
2321.00,0.0011
2320.00,0.0009
2319.00,0.0009
2318.00,0.0009
2317.00,0.0009
2316.00,0.0008
2315.00,0.0007
2314.00,0.0006
2313.00,0.0004
2312.00,0.0004
2311.00,0.0003
2310.00,0.0003
2309.00,0.0004
2308.00,0.0004
2307.00,0.0005
2306.00,0.0005
2305.00,0.0006
2304.00,0.0007
2303.00,0.0007
2302.00,0.0007
2301.00,0.0006
2300.00,0.0007
2299.00,0.0007
2298.00,0.0008
2297.00,0.0009
2296.00,0.0010
2295.00,0.0011
2294.00,0.0012
2293.00,0.0013
2292.00,0.0015
2291.00,0.0015
2290.00,0.0015
2289.00,0.0015
2288.00,0.0016
2287.00,0.0016
2286.00,0.0016
2285.00,0.0016
2284.00,0.0016
2283.00,0.0015
2282.00,0.0014
2281.00,0.0013
2280.00,0.0012
2279.00,0.0012
2278.00,0.0011
2277.00,0.0011
2276.00,0.0012
2275.00,0.0013
2274.00,0.0014
2273.00,0.0014
2272.00,0.0015
2271.00,0.0015
2270.00,0.0015
2269.00,0.0014
2268.00,0.0014
2267.00,0.0014
2266.00,0.0014
2265.00,0.0014
2264.00,0.0013
2263.00,0.0013
2262.00,0.0013
2261.00,0.0012
2260.00,0.0011
2259.00,0.0011
2258.00,0.0012
2257.00,0.0013
2256.00,0.0012
2255.00,0.0011
2254.00,0.0009
2253.00,0.0008
2252.00,0.0008
2251.00,0.0008
2250.00,0.0008
2249.00,0.0008
2248.00,0.0008
2247.00,0.0009
2246.00,0.0009
2245.00,0.0009
2244.00,0.0007
2243.00,0.0006
2242.00,0.0005
2241.00,0.0004
2240.00,0.0004
2239.00,0.0005
2238.00,0.0006
2237.00,0.0008
2236.00,0.0009
2235.00,0.0010
2234.00,0.0009
2233.00,0.0009
2232.00,0.0008
2231.00,0.0008
2230.00,0.0008
2229.00,0.0008
2228.00,0.0008
2227.00,0.0008
2226.00,0.0008
2225.00,0.0007
2224.00,0.0007
2223.00,0.0007
2222.00,0.0007
2221.00,0.0007
2220.00,0.0007
2219.00,0.0008
2218.00,0.0008
2217.00,0.0009
2216.00,0.0008
2215.00,0.0008
2214.00,0.0007
2213.00,0.0007
2212.00,0.0006
2211.00,0.0004
2210.00,0.0004
2209.00,0.0006
2208.00,0.0009
2207.00,0.0011
2206.00,0.0012
2205.00,0.0011
2204.00,0.0009
2203.00,0.0006
2202.00,0.0004
2201.00,0.0003
2200.00,0.0005
2199.00,0.0008
2198.00,0.0011
2197.00,0.0011
2196.00,0.0010
2195.00,0.0008
2194.00,0.0007
2193.00,0.0009
2192.00,0.0011
2191.00,0.0014
2190.00,0.0015
2189.00,0.0014
2188.00,0.0013
2187.00,0.0013
2186.00,0.0013
2185.00,0.0014
2184.00,0.0013
2183.00,0.0010
2182.00,0.0006
2181.00,0.0003
2180.00,0.0000
2179.00,0.0000
2178.00,0.0001
2177.00,0.0003
2176.00,0.0004
2175.00,0.0004
2174.00,0.0003
2173.00,0.0004
2172.00,0.0006
2171.00,0.0009
2170.00,0.0011
2169.00,0.0014
2168.00,0.0016
2167.00,0.0017
2166.00,0.0017
2165.00,0.0017
2164.00,0.0017
2163.00,0.0017
2162.00,0.0016
2161.00,0.0010
2160.00,-0.0001
2159.00,-0.0014
2158.00,-0.0024
2157.00,-0.0028
2156.00,-0.0027
2155.00,-0.0025
2154.00,-0.0022
2153.00,-0.0019
2152.00,-0.0016
2151.00,-0.0014
2150.00,-0.0014
2149.00,-0.0013
2148.00,-0.0012
2147.00,-0.0011
2146.00,-0.0011
2145.00,-0.0011
2144.00,-0.0012
2143.00,-0.0013
2142.00,-0.0014
2141.00,-0.0013
2140.00,-0.0012
2139.00,-0.0011
2138.00,-0.0010
2137.00,-0.0011
2136.00,-0.0014
2135.00,-0.0017
2134.00,-0.0020
2133.00,-0.0022
2132.00,-0.0021
2131.00,-0.0019
2130.00,-0.0016
2129.00,-0.0013
2128.00,-0.0010
2127.00,-0.0008
2126.00,-0.0007
2125.00,-0.0006
2124.00,-0.0006
2123.00,-0.0006
2122.00,-0.0006
2121.00,-0.0005
2120.00,-0.0004
2119.00,-0.0003
2118.00,-0.0002
2117.00,-0.0000
2116.00,0.0002
2115.00,0.0003
2114.00,0.0005
2113.00,0.0005
2112.00,0.0005
2111.00,0.0005
2110.00,0.0004
2109.00,0.0003
2108.00,0.0002
2107.00,0.0001
2106.00,0.0001
2105.00,0.0001
2104.00,0.0002
2103.00,0.0002
2102.00,0.0002
2101.00,0.0001
2100.00,0.0001
2099.00,0.0001
2098.00,0.0000
2097.00,-0.0001
2096.00,-0.0002
2095.00,-0.0003
2094.00,-0.0004
2093.00,-0.0004
2092.00,-0.0004
2091.00,-0.0003
2090.00,-0.0001
2089.00,0.0001
2088.00,0.0003
2087.00,0.0004
2086.00,0.0004
2085.00,0.0004
2084.00,0.0004
2083.00,0.0005
2082.00,0.0006
2081.00,0.0007
2080.00,0.0006
2079.00,0.0005
2078.00,0.0003
2077.00,0.0003
2076.00,0.0003
2075.00,0.0004
2074.00,0.0005
2073.00,0.0005
2072.00,0.0005
2071.00,0.0005
2070.00,0.0004
2069.00,0.0003
2068.00,0.0002
2067.00,0.0002
2066.00,0.0001
2065.00,0.0001
2064.00,0.0000
2063.00,-0.0001
2062.00,-0.0002
2061.00,-0.0003
2060.00,-0.0004
2059.00,-0.0005
2058.00,-0.0005
2057.00,-0.0005
2056.00,-0.0004
2055.00,-0.0001
2054.00,0.0002
2053.00,0.0005
2052.00,0.0008
2051.00,0.0009
2050.00,0.0007
2049.00,0.0005
2048.00,0.0004
2047.00,0.0004
2046.00,0.0004
2045.00,0.0003
2044.00,0.0002
2043.00,0.0000
2042.00,-0.0001
2041.00,-0.0003
2040.00,-0.0003
2039.00,-0.0003
2038.00,-0.0001
2037.00,-0.0000
2036.00,-0.0002
2035.00,-0.0006
2034.00,-0.0010
2033.00,-0.0013
2032.00,-0.0012
2031.00,-0.0010
2030.00,-0.0008
2029.00,-0.0007
2028.00,-0.0007
2027.00,-0.0007
2026.00,-0.0006
2025.00,-0.0005
2024.00,-0.0004
2023.00,-0.0005
2022.00,-0.0007
2021.00,-0.0008
2020.00,-0.0009
2019.00,-0.0010
2018.00,-0.0012
2017.00,-0.0013
2016.00,-0.0012
2015.00,-0.0011
2014.00,-0.0011
2013.00,-0.0012
2012.00,-0.0013
2011.00,-0.0014
2010.00,-0.0014
2009.00,-0.0013
2008.00,-0.0014
2007.00,-0.0017
2006.00,-0.0019
2005.00,-0.0020
2004.00,-0.0019
2003.00,-0.0017
2002.00,-0.0015
2001.00,-0.0014
2000.00,-0.0013
1999.00,-0.0012
1998.00,-0.0011
1997.00,-0.0011
1996.00,-0.0012
1995.00,-0.0014
1994.00,-0.0015
1993.00,-0.0014
1992.00,-0.0012
1991.00,-0.0012
1990.00,-0.0011
1989.00,-0.0007
1988.00,-0.0001
1987.00,0.0004
1986.00,0.0007
1985.00,0.0008
1984.00,0.0008
1983.00,0.0008
1982.00,0.0008
1981.00,0.0010
1980.00,0.0009
1979.00,0.0006
1978.00,0.0000
1977.00,-0.0006
1976.00,-0.0011
1975.00,-0.0014
1974.00,-0.0016
1973.00,-0.0017
1972.00,-0.0019
1971.00,-0.0022
1970.00,-0.0024
1969.00,-0.0025
1968.00,-0.0025
1967.00,-0.0024
1966.00,-0.0024
1965.00,-0.0025
1964.00,-0.0025
1963.00,-0.0025
1962.00,-0.0023
1961.00,-0.0022
1960.00,-0.0021
1959.00,-0.0022
1958.00,-0.0023
1957.00,-0.0022
1956.00,-0.0019
1955.00,-0.0016
1954.00,-0.0014
1953.00,-0.0013
1952.00,-0.0014
1951.00,-0.0015
1950.00,-0.0016
1949.00,-0.0017
1948.00,-0.0017
1947.00,-0.0018
1946.00,-0.0019
1945.00,-0.0019
1944.00,-0.0019
1943.00,-0.0018
1942.00,-0.0016
1941.00,-0.0015
1940.00,-0.0014
1939.00,-0.0014
1938.00,-0.0013
1937.00,-0.0011
1936.00,-0.0010
1935.00,-0.0011
1934.00,-0.0012
1933.00,-0.0013
1932.00,-0.0013
1931.00,-0.0012
1930.00,-0.0011
1929.00,-0.0010
1928.00,-0.0010
1927.00,-0.0010
1926.00,-0.0010
1925.00,-0.0009
1924.00,-0.0008
1923.00,-0.0007
1922.00,-0.0006
1921.00,-0.0006
1920.00,-0.0006
1919.00,-0.0006
1918.00,-0.0005
1917.00,-0.0004
1916.00,-0.0003
1915.00,-0.0002
1914.00,-0.0003
1913.00,-0.0003
1912.00,-0.0004
1911.00,-0.0004
1910.00,-0.0004
1909.00,-0.0004
1908.00,-0.0004
1907.00,-0.0004
1906.00,-0.0004
1905.00,-0.0003
1904.00,-0.0002
1903.00,-0.0002
1902.00,-0.0002
1901.00,-0.0003
1900.00,-0.0003
1899.00,-0.0003
1898.00,-0.0002
1897.00,-0.0001
1896.00,0.0000
1895.00,0.0001
1894.00,0.0001
1893.00,0.0001
1892.00,0.0000
1891.00,-0.0001
1890.00,-0.0001
1889.00,-0.0001
1888.00,-0.0001
1887.00,-0.0001
1886.00,-0.0002
1885.00,-0.0003
1884.00,-0.0003
1883.00,-0.0003
1882.00,-0.0003
1881.00,-0.0003
1880.00,-0.0003
1879.00,-0.0004
1878.00,-0.0004
1877.00,-0.0003
1876.00,-0.0002
1875.00,-0.0002
1874.00,-0.0002
1873.00,-0.0003
1872.00,-0.0003
1871.00,-0.0003
1870.00,-0.0003
1869.00,-0.0002
1868.00,-0.0002
1867.00,-0.0002
1866.00,-0.0002
1865.00,-0.0001
1864.00,-0.0001
1863.00,-0.0001
1862.00,-0.0001
1861.00,-0.0001
1860.00,-0.0001
1859.00,-0.0001
1858.00,-0.0000
1857.00,0.0000
1856.00,0.0001
1855.00,0.0001
1854.00,0.0000
1853.00,0.0000
1852.00,0.0000
1851.00,0.0000
1850.00,0.0001
1849.00,0.0001
1848.00,0.0001
1847.00,0.0000
1846.00,-0.0000
1845.00,-0.0001
1844.00,-0.0001
1843.00,-0.0000
1842.00,0.0000
1841.00,0.0001
1840.00,0.0001
1839.00,0.0001
1838.00,0.0001
1837.00,0.0002
1836.00,0.0002
1835.00,0.0002
1834.00,0.0002
1833.00,0.0002
1832.00,0.0003
1831.00,0.0003
1830.00,0.0003
1829.00,0.0002
1828.00,0.0002
1827.00,0.0001
1826.00,0.0001
1825.00,0.0002
1824.00,0.0002
1823.00,0.0002
1822.00,0.0001
1821.00,0.0001
1820.00,0.0000
1819.00,-0.0000
1818.00,-0.0001
1817.00,-0.0001
1816.00,-0.0001
1815.00,-0.0000
1814.00,-0.0000
1813.00,0.0000
1812.00,0.0001
1811.00,0.0001
1810.00,0.0001
1809.00,0.0002
1808.00,0.0002
1807.00,0.0002
1806.00,0.0002
1805.00,0.0002
1804.00,0.0002
1803.00,0.0001
1802.00,0.0002
1801.00,0.0002
1800.00,0.0003
1799.00,0.0003
1798.00,0.0003
1797.00,0.0003
1796.00,0.0004
1795.00,0.0004
1794.00,0.0004
1793.00,0.0005
1792.00,0.0005
1791.00,0.0005
1790.00,0.0006
1789.00,0.0006
1788.00,0.0006
1787.00,0.0006
1786.00,0.0006
1785.00,0.0006
1784.00,0.0006
1783.00,0.0006
1782.00,0.0006
1781.00,0.0007
1780.00,0.0007
1779.00,0.0007
1778.00,0.0007
1777.00,0.0007
1776.00,0.0007
1775.00,0.0007
1774.00,0.0007
1773.00,0.0007
1772.00,0.0007
1771.00,0.0008
1770.00,0.0007
1769.00,0.0007
1768.00,0.0008
1767.00,0.0008
1766.00,0.0008
1765.00,0.0009
1764.00,0.0009
1763.00,0.0009
1762.00,0.0009
1761.00,0.0009
1760.00,0.0009
1759.00,0.0009
1758.00,0.0010
1757.00,0.0010
1756.00,0.0011
1755.00,0.0011
1754.00,0.0012
1753.00,0.0012
1752.00,0.0012
1751.00,0.0013
1750.00,0.0013
1749.00,0.0014
1748.00,0.0015
1747.00,0.0016
1746.00,0.0017
1745.00,0.0018
1744.00,0.0019
1743.00,0.0019
1742.00,0.0020
1741.00,0.0020
1740.00,0.0021
1739.00,0.0021
1738.00,0.0022
1737.00,0.0022
1736.00,0.0022
1735.00,0.0023
1734.00,0.0023
1733.00,0.0022
1732.00,0.0022
1731.00,0.0022
1730.00,0.0022
1729.00,0.0022
1728.00,0.0022
1727.00,0.0022
1726.00,0.0022
1725.00,0.0022
1724.00,0.0022
1723.00,0.0022
1722.00,0.0022
1721.00,0.0021
1720.00,0.0021
1719.00,0.0020
1718.00,0.0020
1717.00,0.0019
1716.00,0.0020
1715.00,0.0020
1714.00,0.0021
1713.00,0.0022
1712.00,0.0022
1711.00,0.0022
1710.00,0.0022
1709.00,0.0022
1708.00,0.0022
1707.00,0.0022
1706.00,0.0022
1705.00,0.0022
1704.00,0.0023
1703.00,0.0023
1702.00,0.0023
1701.00,0.0023
1700.00,0.0023
1699.00,0.0023
1698.00,0.0023
1697.00,0.0024
1696.00,0.0025
1695.00,0.0026
1694.00,0.0026
1693.00,0.0026
1692.00,0.0026
1691.00,0.0027
1690.00,0.0027
1689.00,0.0027
1688.00,0.0027
1687.00,0.0027
1686.00,0.0027
1685.00,0.0027
1684.00,0.0028
1683.00,0.0029
1682.00,0.0030
1681.00,0.0030
1680.00,0.0031
1679.00,0.0031
1678.00,0.0031
1677.00,0.0031
1676.00,0.0031
1675.00,0.0032
1674.00,0.0033
1673.00,0.0034
1672.00,0.0034
1671.00,0.0034
1670.00,0.0034
1669.00,0.0034
1668.00,0.0035
1667.00,0.0035
1666.00,0.0036
1665.00,0.0036
1664.00,0.0037
1663.00,0.0037
1662.00,0.0037
1661.00,0.0038
1660.00,0.0038
1659.00,0.0038
1658.00,0.0038
1657.00,0.0038
1656.00,0.0039
1655.00,0.0040
1654.00,0.0041
1653.00,0.0042
1652.00,0.0043
1651.00,0.0044
1650.00,0.0044
1649.00,0.0045
1648.00,0.0046
1647.00,0.0047
1646.00,0.0047
1645.00,0.0047
1644.00,0.0047
1643.00,0.0048
1642.00,0.0047
1641.00,0.0048
1640.00,0.0048
1639.00,0.0047
1638.00,0.0047
1637.00,0.0047
1636.00,0.0048
1635.00,0.0048
1634.00,0.0048
1633.00,0.0047
1632.00,0.0047
1631.00,0.0047
1630.00,0.0047
1629.00,0.0047
1628.00,0.0047
1627.00,0.0046
1626.00,0.0046
1625.00,0.0046
1624.00,0.0045
1623.00,0.0045
1622.00,0.0045
1621.00,0.0045
1620.00,0.0045
1619.00,0.0045
1618.00,0.0045
1617.00,0.0045
1616.00,0.0044
1615.00,0.0044
1614.00,0.0044
1613.00,0.0044
1612.00,0.0045
1611.00,0.0044
1610.00,0.0044
1609.00,0.0043
1608.00,0.0043
1607.00,0.0043
1606.00,0.0043
1605.00,0.0043
1604.00,0.0043
1603.00,0.0043
1602.00,0.0043
1601.00,0.0043
1600.00,0.0044
1599.00,0.0044
1598.00,0.0044
1597.00,0.0044
1596.00,0.0044
1595.00,0.0043
1594.00,0.0042
1593.00,0.0042
1592.00,0.0042
1591.00,0.0042
1590.00,0.0042
1589.00,0.0042
1588.00,0.0043
1587.00,0.0043
1586.00,0.0043
1585.00,0.0044
1584.00,0.0045
1583.00,0.0045
1582.00,0.0046
1581.00,0.0046
1580.00,0.0047
1579.00,0.0048
1578.00,0.0048
1577.00,0.0049
1576.00,0.0049
1575.00,0.0048
1574.00,0.0048
1573.00,0.0048
1572.00,0.0048
1571.00,0.0048
1570.00,0.0047
1569.00,0.0047
1568.00,0.0047
1567.00,0.0047
1566.00,0.0047
1565.00,0.0047
1564.00,0.0047
1563.00,0.0047
1562.00,0.0047
1561.00,0.0048
1560.00,0.0051
1559.00,0.0052
1558.00,0.0050
1557.00,0.0049
1556.00,0.0049
1555.00,0.0049
1554.00,0.0050
1553.00,0.0051
1552.00,0.0052
1551.00,0.0052
1550.00,0.0052
1549.00,0.0053
1548.00,0.0054
1547.00,0.0054
1546.00,0.0055
1545.00,0.0055
1544.00,0.0056
1543.00,0.0055
1542.00,0.0054
1541.00,0.0053
1540.00,0.0053
1539.00,0.0052
1538.00,0.0051
1537.00,0.0051
1536.00,0.0051
1535.00,0.0051
1534.00,0.0049
1533.00,0.0049
1532.00,0.0048
1531.00,0.0047
1530.00,0.0047
1529.00,0.0046
1528.00,0.0046
1527.00,0.0046
1526.00,0.0046
1525.00,0.0046
1524.00,0.0046
1523.00,0.0046
1522.00,0.0046
1521.00,0.0047
1520.00,0.0047
1519.00,0.0047
1518.00,0.0047
1517.00,0.0048
1516.00,0.0049
1515.00,0.0049
1514.00,0.0050
1513.00,0.0051
1512.00,0.0052
1511.00,0.0052
1510.00,0.0052
1509.00,0.0053
1508.00,0.0055
1507.00,0.0055
1506.00,0.0055
1505.00,0.0057
1504.00,0.0059
1503.00,0.0061
1502.00,0.0062
1501.00,0.0064
1500.00,0.0066
1499.00,0.0067
1498.00,0.0068
1497.00,0.0071
1496.00,0.0075
1495.00,0.0078
1494.00,0.0080
1493.00,0.0084
1492.00,0.0088
1491.00,0.0091
1490.00,0.0094
1489.00,0.0098
1488.00,0.0104
1487.00,0.0108
1486.00,0.0113
1485.00,0.0120
1484.00,0.0126
1483.00,0.0133
1482.00,0.0141
1481.00,0.0152
1480.00,0.0163
1479.00,0.0175
1478.00,0.0189
1477.00,0.0208
1476.00,0.0232
1475.00,0.0258
1474.00,0.0295
1473.00,0.0350
1472.00,0.0417
1471.00,0.0483
1470.00,0.0547
1469.00,0.0615
1468.00,0.0689
1467.00,0.0772
1466.00,0.0868
1465.00,0.0973
1464.00,0.1067
1463.00,0.1134
1462.00,0.1178
1461.00,0.1210
1460.00,0.1233
1459.00,0.1248
1458.00,0.1259
1457.00,0.1264
1456.00,0.1261
1455.00,0.1252
1454.00,0.1239
1453.00,0.1219
1452.00,0.1190
1451.00,0.1147
1450.00,0.1088
1449.00,0.1008
1448.00,0.0908
1447.00,0.0804
1446.00,0.0713
1445.00,0.0636
1444.00,0.0572
1443.00,0.0521
1442.00,0.0483
1441.00,0.0459
1440.00,0.0445
1439.00,0.0442
1438.00,0.0448
1437.00,0.0455
1436.00,0.0449
1435.00,0.0424
1434.00,0.0383
1433.00,0.0334
1432.00,0.0282
1431.00,0.0237
1430.00,0.0202
1429.00,0.0178
1428.00,0.0162
1427.00,0.0152
1426.00,0.0146
1425.00,0.0140
1424.00,0.0134
1423.00,0.0130
1422.00,0.0128
1421.00,0.0125
1420.00,0.0122
1419.00,0.0120
1418.00,0.0119
1417.00,0.0117
1416.00,0.0114
1415.00,0.0113
1414.00,0.0113
1413.00,0.0112
1412.00,0.0111
1411.00,0.0111
1410.00,0.0111
1409.00,0.0111
1408.00,0.0110
1407.00,0.0110
1406.00,0.0110
1405.00,0.0110
1404.00,0.0110
1403.00,0.0111
1402.00,0.0114
1401.00,0.0115
1400.00,0.0117
1399.00,0.0119
1398.00,0.0122
1397.00,0.0123
1396.00,0.0126
1395.00,0.0130
1394.00,0.0137
1393.00,0.0143
1392.00,0.0149
1391.00,0.0158
1390.00,0.0170
1389.00,0.0186
1388.00,0.0211
1387.00,0.0249
1386.00,0.0299
1385.00,0.0362
1384.00,0.0447
1383.00,0.0562
1382.00,0.0718
1381.00,0.0923
1380.00,0.1186
1379.00,0.1498
1378.00,0.1820
1377.00,0.2082
1376.00,0.2207
1375.00,0.2138
1374.00,0.1891
1373.00,0.1566
1372.00,0.1257
1371.00,0.0999
1370.00,0.0792
1369.00,0.0634
1368.00,0.0525
1367.00,0.0458
1366.00,0.0422
1365.00,0.0408
1364.00,0.0412
1363.00,0.0429
1362.00,0.0456
1361.00,0.0485
1360.00,0.0506
1359.00,0.0513
1358.00,0.0501
1357.00,0.0469
1356.00,0.0424
1355.00,0.0374
1354.00,0.0326
1353.00,0.0284
1352.00,0.0250
1351.00,0.0223
1350.00,0.0202
1349.00,0.0185
1348.00,0.0172
1347.00,0.0161
1346.00,0.0153
1345.00,0.0145
1344.00,0.0140
1343.00,0.0135
1342.00,0.0131
1341.00,0.0128
1340.00,0.0125
1339.00,0.0122
1338.00,0.0121
1337.00,0.0121
1336.00,0.0122
1335.00,0.0124
1334.00,0.0128
1333.00,0.0133
1332.00,0.0139
1331.00,0.0144
1330.00,0.0145
1329.00,0.0144
1328.00,0.0139
1327.00,0.0132
1326.00,0.0124
1325.00,0.0117
1324.00,0.0109
1323.00,0.0103
1322.00,0.0099
1321.00,0.0095
1320.00,0.0092
1319.00,0.0090
1318.00,0.0088
1317.00,0.0086
1316.00,0.0085
1315.00,0.0084
1314.00,0.0083
1313.00,0.0083
1312.00,0.0084
1311.00,0.0086
1310.00,0.0089
1309.00,0.0094
1308.00,0.0101
1307.00,0.0109
1306.00,0.0117
1305.00,0.0123
1304.00,0.0125
1303.00,0.0125
1302.00,0.0124
1301.00,0.0123
1300.00,0.0124
1299.00,0.0126
1298.00,0.0128
1297.00,0.0130
1296.00,0.0130
1295.00,0.0128
1294.00,0.0123
1293.00,0.0118
1292.00,0.0112
1291.00,0.0106
1290.00,0.0101
1289.00,0.0097
1288.00,0.0093
1287.00,0.0091
1286.00,0.0088
1285.00,0.0086
1284.00,0.0084
1283.00,0.0083
1282.00,0.0081
1281.00,0.0079
1280.00,0.0077
1279.00,0.0076
1278.00,0.0075
1277.00,0.0074
1276.00,0.0074
1275.00,0.0073
1274.00,0.0073
1273.00,0.0073
1272.00,0.0074
1271.00,0.0074
1270.00,0.0075
1269.00,0.0075
1268.00,0.0076
1267.00,0.0076
1266.00,0.0078
1265.00,0.0079
1264.00,0.0081
1263.00,0.0083
1262.00,0.0086
1261.00,0.0089
1260.00,0.0093
1259.00,0.0098
1258.00,0.0103
1257.00,0.0108
1256.00,0.0110
1255.00,0.0110
1254.00,0.0107
1253.00,0.0102
1252.00,0.0096
1251.00,0.0092
1250.00,0.0088
1249.00,0.0085
1248.00,0.0083
1247.00,0.0082
1246.00,0.0081
1245.00,0.0080
1244.00,0.0080
1243.00,0.0079
1242.00,0.0078
1241.00,0.0077
1240.00,0.0076
1239.00,0.0076
1238.00,0.0076
1237.00,0.0075
1236.00,0.0075
1235.00,0.0075
1234.00,0.0074
1233.00,0.0074
1232.00,0.0074
1231.00,0.0074
1230.00,0.0075
1229.00,0.0076
1228.00,0.0077
1227.00,0.0078
1226.00,0.0080
1225.00,0.0082
1224.00,0.0086
1223.00,0.0090
1222.00,0.0094
1221.00,0.0097
1220.00,0.0099
1219.00,0.0100
1218.00,0.0099
1217.00,0.0097
1216.00,0.0094
1215.00,0.0091
1214.00,0.0088
1213.00,0.0086
1212.00,0.0084
1211.00,0.0082
1210.00,0.0079
1209.00,0.0077
1208.00,0.0075
1207.00,0.0073
1206.00,0.0072
1205.00,0.0071
1204.00,0.0071
1203.00,0.0070
1202.00,0.0070
1201.00,0.0070
1200.00,0.0070
1199.00,0.0071
1198.00,0.0071
1197.00,0.0070
1196.00,0.0068
1195.00,0.0067
1194.00,0.0067
1193.00,0.0067
1192.00,0.0067
1191.00,0.0068
1190.00,0.0069
1189.00,0.0069
1188.00,0.0070
1187.00,0.0071
1186.00,0.0072
1185.00,0.0073
1184.00,0.0074
1183.00,0.0075
1182.00,0.0076
1181.00,0.0078
1180.00,0.0080
1179.00,0.0084
1178.00,0.0089
1177.00,0.0095
1176.00,0.0103
1175.00,0.0114
1174.00,0.0128
1173.00,0.0147
1172.00,0.0169
1171.00,0.0193
1170.00,0.0216
1169.00,0.0235
1168.00,0.0248
1167.00,0.0252
1166.00,0.0250
1165.00,0.0242
1164.00,0.0232
1163.00,0.0222
1162.00,0.0213
1161.00,0.0205
1160.00,0.0199
1159.00,0.0194
1158.00,0.0190
1157.00,0.0188
1156.00,0.0186
1155.00,0.0186
1154.00,0.0185
1153.00,0.0184
1152.00,0.0181
1151.00,0.0176
1150.00,0.0169
1149.00,0.0160
1148.00,0.0150
1147.00,0.0141
1146.00,0.0132
1145.00,0.0124
1144.00,0.0117
1143.00,0.0111
1142.00,0.0106
1141.00,0.0101
1140.00,0.0095
1139.00,0.0091
1138.00,0.0087
1137.00,0.0084
1136.00,0.0082
1135.00,0.0081
1134.00,0.0080
1133.00,0.0079
1132.00,0.0079
1131.00,0.0078
1130.00,0.0078
1129.00,0.0078
1128.00,0.0078
1127.00,0.0079
1126.00,0.0079
1125.00,0.0080
1124.00,0.0080
1123.00,0.0080
1122.00,0.0079
1121.00,0.0079
1120.00,0.0080
1119.00,0.0081
1118.00,0.0083
1117.00,0.0084
1116.00,0.0086
1115.00,0.0087
1114.00,0.0089
1113.00,0.0090
1112.00,0.0092
1111.00,0.0095
1110.00,0.0099
1109.00,0.0105
1108.00,0.0112
1107.00,0.0120
1106.00,0.0128
1105.00,0.0135
1104.00,0.0140
1103.00,0.0143
1102.00,0.0144
1101.00,0.0142
1100.00,0.0136
1099.00,0.0129
1098.00,0.0121
1097.00,0.0113
1096.00,0.0106
1095.00,0.0101
1094.00,0.0098
1093.00,0.0095
1092.00,0.0093
1091.00,0.0091
1090.00,0.0089
1089.00,0.0086
1088.00,0.0083
1087.00,0.0080
1086.00,0.0079
1085.00,0.0078
1084.00,0.0079
1083.00,0.0080
1082.00,0.0080
1081.00,0.0078
1080.00,0.0076
1079.00,0.0074
1078.00,0.0074
1077.00,0.0074
1076.00,0.0074
1075.00,0.0074
1074.00,0.0075
1073.00,0.0075
1072.00,0.0075
1071.00,0.0075
1070.00,0.0075
1069.00,0.0074
1068.00,0.0074
1067.00,0.0074
1066.00,0.0074
1065.00,0.0075
1064.00,0.0075
1063.00,0.0075
1062.00,0.0076
1061.00,0.0077
1060.00,0.0077
1059.00,0.0078
1058.00,0.0078
1057.00,0.0078
1056.00,0.0078
1055.00,0.0078
1054.00,0.0078
1053.00,0.0078
1052.00,0.0079
1051.00,0.0079
1050.00,0.0080
1049.00,0.0082
1048.00,0.0084
1047.00,0.0086
1046.00,0.0087
1045.00,0.0087
1044.00,0.0087
1043.00,0.0086
1042.00,0.0084
1041.00,0.0083
1040.00,0.0083
1039.00,0.0083
1038.00,0.0083
1037.00,0.0083
1036.00,0.0083
1035.00,0.0082
1034.00,0.0081
1033.00,0.0081
1032.00,0.0081
1031.00,0.0082
1030.00,0.0082
1029.00,0.0082
1028.00,0.0081
1027.00,0.0080
1026.00,0.0080
1025.00,0.0080
1024.00,0.0080
1023.00,0.0080
1022.00,0.0080
1021.00,0.0079
1020.00,0.0079
1019.00,0.0079
1018.00,0.0079
1017.00,0.0080
1016.00,0.0082
1015.00,0.0084
1014.00,0.0086
1013.00,0.0089
1012.00,0.0091
1011.00,0.0093
1010.00,0.0096
1009.00,0.0099
1008.00,0.0102
1007.00,0.0108
1006.00,0.0115
1005.00,0.0124
1004.00,0.0136
1003.00,0.0152
1002.00,0.0172
1001.00,0.0195
1000.00,0.0219
999.00,0.0239
998.00,0.0248
997.00,0.0243
996.00,0.0225
995.00,0.0199
994.00,0.0172
993.00,0.0148
992.00,0.0130
991.00,0.0117
990.00,0.0108
989.00,0.0102
988.00,0.0099
987.00,0.0097
986.00,0.0098
985.00,0.0100
984.00,0.0105
983.00,0.0112
982.00,0.0123
981.00,0.0137
980.00,0.0154
979.00,0.0178
978.00,0.0207
977.00,0.0241
976.00,0.0275
975.00,0.0305
974.00,0.0324
973.00,0.0328
972.00,0.0313
971.00,0.0284
970.00,0.0247
969.00,0.0210
968.00,0.0179
967.00,0.0155
966.00,0.0137
965.00,0.0123
964.00,0.0113
963.00,0.0105
962.00,0.0098
961.00,0.0093
960.00,0.0090
959.00,0.0087
958.00,0.0084
957.00,0.0082
956.00,0.0080
955.00,0.0078
954.00,0.0077
953.00,0.0077
952.00,0.0077
951.00,0.0077
950.00,0.0077
949.00,0.0077
948.00,0.0078
947.00,0.0079
946.00,0.0082
945.00,0.0085
944.00,0.0089
943.00,0.0092
942.00,0.0095
941.00,0.0096
940.00,0.0096
939.00,0.0093
938.00,0.0089
937.00,0.0084
936.00,0.0079
935.00,0.0074
934.00,0.0070
933.00,0.0068
932.00,0.0066
931.00,0.0065
930.00,0.0065
929.00,0.0064
928.00,0.0063
927.00,0.0062
926.00,0.0062
925.00,0.0061
924.00,0.0061
923.00,0.0061
922.00,0.0062
921.00,0.0064
920.00,0.0065
919.00,0.0067
918.00,0.0067
917.00,0.0067
916.00,0.0068
915.00,0.0068
914.00,0.0069
913.00,0.0071
912.00,0.0072
911.00,0.0073
910.00,0.0075
909.00,0.0077
908.00,0.0080
907.00,0.0085
906.00,0.0092
905.00,0.0103
904.00,0.0120
903.00,0.0141
902.00,0.0165
901.00,0.0187
900.00,0.0203
899.00,0.0207
898.00,0.0199
897.00,0.0181
896.00,0.0159
895.00,0.0136
894.00,0.0117
893.00,0.0102
892.00,0.0093
891.00,0.0087
890.00,0.0082
889.00,0.0079
888.00,0.0076
887.00,0.0073
886.00,0.0071
885.00,0.0069
884.00,0.0068
883.00,0.0068
882.00,0.0069
881.00,0.0069
880.00,0.0068
879.00,0.0067
878.00,0.0066
877.00,0.0067
876.00,0.0069
875.00,0.0071
874.00,0.0072
873.00,0.0071
872.00,0.0070
871.00,0.0070
870.00,0.0071
869.00,0.0071
868.00,0.0072
867.00,0.0072
866.00,0.0071
865.00,0.0071
864.00,0.0072
863.00,0.0073
862.00,0.0075
861.00,0.0076
860.00,0.0078
859.00,0.0080
858.00,0.0081
857.00,0.0083
856.00,0.0084
855.00,0.0085
854.00,0.0086
853.00,0.0086
852.00,0.0088
851.00,0.0091
850.00,0.0096
849.00,0.0102
848.00,0.0110
847.00,0.0120
846.00,0.0134
845.00,0.0154
844.00,0.0180
843.00,0.0208
842.00,0.0227
841.00,0.0230
840.00,0.0214
839.00,0.0188
838.00,0.0161
837.00,0.0139
836.00,0.0125
835.00,0.0116
834.00,0.0110
833.00,0.0105
832.00,0.0101
831.00,0.0099
830.00,0.0098
829.00,0.0098
828.00,0.0098
827.00,0.0096
826.00,0.0095
825.00,0.0095
824.00,0.0095
823.00,0.0096
822.00,0.0097
821.00,0.0098
820.00,0.0100
819.00,0.0104
818.00,0.0109
817.00,0.0116
816.00,0.0125
815.00,0.0138
814.00,0.0154
813.00,0.0173
812.00,0.0193
811.00,0.0210
810.00,0.0222
809.00,0.0227
808.00,0.0224
807.00,0.0214
806.00,0.0199
805.00,0.0182
804.00,0.0163
803.00,0.0147
802.00,0.0133
801.00,0.0123
800.00,0.0114
799.00,0.0107
798.00,0.0102
797.00,0.0100
796.00,0.0098
795.00,0.0096
794.00,0.0093
793.00,0.0089
792.00,0.0087
791.00,0.0085
790.00,0.0084
789.00,0.0081
788.00,0.0078
787.00,0.0074
786.00,0.0071
785.00,0.0068
784.00,0.0066
783.00,0.0065
782.00,0.0063
781.00,0.0061
780.00,0.0060
779.00,0.0059
778.00,0.0059
777.00,0.0058
776.00,0.0057
775.00,0.0057
774.00,0.0057
773.00,0.0058
772.00,0.0059
771.00,0.0062
770.00,0.0065
769.00,0.0067
768.00,0.0068
767.00,0.0069
766.00,0.0069
765.00,0.0068
764.00,0.0066
763.00,0.0063
762.00,0.0060
761.00,0.0057
760.00,0.0055
759.00,0.0052
758.00,0.0051
757.00,0.0052
756.00,0.0053
755.00,0.0054
754.00,0.0055
753.00,0.0056
752.00,0.0055
751.00,0.0054
750.00,0.0053
749.00,0.0053
748.00,0.0053
747.00,0.0053
746.00,0.0053
745.00,0.0053
744.00,0.0054
743.00,0.0056
742.00,0.0060
741.00,0.0062
740.00,0.0063
739.00,0.0064
738.00,0.0065
737.00,0.0067
736.00,0.0070
735.00,0.0074
734.00,0.0078
733.00,0.0080
732.00,0.0080
731.00,0.0079
730.00,0.0076
729.00,0.0073
728.00,0.0070
727.00,0.0068
726.00,0.0067
725.00,0.0065
724.00,0.0065
723.00,0.0065
722.00,0.0065
721.00,0.0065
720.00,0.0063
719.00,0.0062
718.00,0.0059
717.00,0.0057
716.00,0.0055
715.00,0.0054
714.00,0.0055
713.00,0.0055
712.00,0.0055
711.00,0.0055
710.00,0.0054
709.00,0.0053
708.00,0.0053
707.00,0.0053
706.00,0.0054
705.00,0.0055
704.00,0.0055
703.00,0.0054
702.00,0.0053
701.00,0.0051
700.00,0.0049
699.00,0.0048
698.00,0.0048
697.00,0.0050
696.00,0.0051
695.00,0.0052
694.00,0.0052
693.00,0.0052
692.00,0.0051
691.00,0.0051
690.00,0.0051
689.00,0.0050
688.00,0.0048
687.00,0.0046
686.00,0.0045
685.00,0.0046
684.00,0.0048
683.00,0.0049
682.00,0.0049
681.00,0.0047
680.00,0.0045
679.00,0.0044
678.00,0.0044
677.00,0.0044
676.00,0.0045
675.00,0.0046
674.00,0.0046
673.00,0.0047
672.00,0.0047
671.00,0.0048
670.00,0.0051
669.00,0.0054
668.00,0.0056
667.00,0.0055
666.00,0.0052
665.00,0.0050
664.00,0.0051
663.00,0.0052
662.00,0.0052
661.00,0.0050
660.00,0.0049
659.00,0.0048
658.00,0.0048
657.00,0.0047
656.00,0.0047
655.00,0.0046
654.00,0.0046
653.00,0.0045
652.00,0.0046
651.00,0.0048
650.00,0.0049
649.00,0.0051
648.00,0.0051
647.00,0.0050
646.00,0.0050
645.00,0.0051
644.00,0.0052
643.00,0.0052
642.00,0.0053
641.00,0.0053
640.00,0.0051
639.00,0.0049
638.00,0.0048
637.00,0.0048
636.00,0.0050
635.00,0.0052
634.00,0.0054
633.00,0.0056
632.00,0.0057
631.00,0.0057
630.00,0.0055
629.00,0.0054
628.00,0.0052
627.00,0.0052
626.00,0.0051
625.00,0.0051
624.00,0.0051
623.00,0.0051
622.00,0.0050
621.00,0.0050
620.00,0.0051
619.00,0.0053
618.00,0.0055
617.00,0.0055
616.00,0.0054
615.00,0.0053
614.00,0.0052
613.00,0.0050
612.00,0.0050
611.00,0.0050
610.00,0.0052
609.00,0.0054
608.00,0.0054
607.00,0.0055
606.00,0.0057
605.00,0.0060
604.00,0.0060
603.00,0.0058
602.00,0.0055
601.00,0.0051
600.00,0.0050
599.00,0.0050
598.00,0.0052
597.00,0.0054
596.00,0.0055
595.00,0.0056
594.00,0.0056
593.00,0.0057
592.00,0.0058
591.00,0.0059
590.00,0.0060
589.00,0.0060
588.00,0.0060
587.00,0.0058
586.00,0.0055
585.00,0.0052
584.00,0.0051
583.00,0.0053
582.00,0.0057
581.00,0.0061
580.00,0.0064
579.00,0.0065
578.00,0.0065
577.00,0.0063
576.00,0.0062
575.00,0.0061
574.00,0.0059
573.00,0.0058
572.00,0.0057
571.00,0.0057
570.00,0.0057
569.00,0.0057
568.00,0.0054
567.00,0.0050
566.00,0.0046
565.00,0.0043
564.00,0.0044
563.00,0.0048
562.00,0.0054
561.00,0.0057
560.00,0.0058
559.00,0.0056
558.00,0.0054
557.00,0.0053
556.00,0.0054
555.00,0.0057
554.00,0.0060
553.00,0.0063
552.00,0.0063
551.00,0.0064
550.00,0.0064
549.00,0.0064
548.00,0.0064
547.00,0.0066
546.00,0.0069
545.00,0.0072
544.00,0.0072
543.00,0.0069
542.00,0.0066
541.00,0.0065
540.00,0.0067
539.00,0.0070
538.00,0.0071
537.00,0.0072
536.00,0.0075
535.00,0.0078
534.00,0.0081
533.00,0.0082
532.00,0.0080
531.00,0.0077
530.00,0.0077
529.00,0.0078
528.00,0.0080
527.00,0.0082
526.00,0.0087
525.00,0.0092
524.00,0.0094
523.00,0.0091
522.00,0.0085
521.00,0.0081
520.00,0.0080
519.00,0.0080
518.00,0.0078
517.00,0.0076
516.00,0.0074
515.00,0.0073
514.00,0.0071
513.00,0.0068
512.00,0.0066
511.00,0.0067
510.00,0.0070
509.00,0.0074
508.00,0.0076
507.00,0.0074
506.00,0.0071
505.00,0.0072
504.00,0.0074
503.00,0.0073
502.00,0.0067
501.00,0.0061
500.00,0.0062
499.00,0.0069
498.00,0.0077
497.00,0.0079
496.00,0.0076
495.00,0.0070
494.00,0.0065
493.00,0.0063
492.00,0.0065
491.00,0.0071
490.00,0.0077
489.00,0.0078
488.00,0.0072
487.00,0.0063
486.00,0.0057
485.00,0.0056
484.00,0.0060
483.00,0.0070
482.00,0.0081
481.00,0.0088
480.00,0.0087
479.00,0.0080
478.00,0.0071
477.00,0.0063
476.00,0.0060
475.00,0.0061
474.00,0.0063
473.00,0.0064
472.00,0.0064
471.00,0.0066
470.00,0.0071
469.00,0.0076
468.00,0.0080
467.00,0.0084
466.00,0.0092
465.00,0.0106
464.00,0.0124
463.00,0.0143
462.00,0.0159
461.00,0.0170
460.00,0.0176
459.00,0.0181
458.00,0.0186
457.00,0.0187
456.00,0.0177
455.00,0.0160
454.00,0.0141
453.00,0.0123
452.00,0.0113
451.00,0.0108
450.00,0.0104
