Created as New Dataset,Sample 145 By Administrator Date Wednesday, September 10 2025
cm-1,A
4000.00,0.0007
3999.00,0.0007
3998.00,0.0007
3997.00,0.0007
3996.00,0.0007
3995.00,0.0007
3994.00,0.0007
3993.00,0.0007
3992.00,0.0007
3991.00,0.0007
3990.00,0.0007
3989.00,0.0007
3988.00,0.0007
3987.00,0.0007
3986.00,0.0006
3985.00,0.0006
3984.00,0.0006
3983.00,0.0006
3982.00,0.0006
3981.00,0.0006
3980.00,0.0006
3979.00,0.0006
3978.00,0.0006
3977.00,0.0006
3976.00,0.0006
3975.00,0.0005
3974.00,0.0005
3973.00,0.0006
3972.00,0.0006
3971.00,0.0006
3970.00,0.0006
3969.00,0.0006
3968.00,0.0006
3967.00,0.0006
3966.00,0.0006
3965.00,0.0006
3964.00,0.0006
3963.00,0.0006
3962.00,0.0006
3961.00,0.0006
3960.00,0.0006
3959.00,0.0006
3958.00,0.0006
3957.00,0.0006
3956.00,0.0006
3955.00,0.0006
3954.00,0.0006
3953.00,0.0005
3952.00,0.0005
3951.00,0.0005
3950.00,0.0006
3949.00,0.0006
3948.00,0.0006
3947.00,0.0006
3946.00,0.0006
3945.00,0.0006
3944.00,0.0006
3943.00,0.0006
3942.00,0.0006
3941.00,0.0006
3940.00,0.0005
3939.00,0.0005
3938.00,0.0005
3937.00,0.0005
3936.00,0.0006
3935.00,0.0006
3934.00,0.0006
3933.00,0.0007
3932.00,0.0007
3931.00,0.0007
3930.00,0.0006
3929.00,0.0006
3928.00,0.0006
3927.00,0.0006
3926.00,0.0006
3925.00,0.0006
3924.00,0.0006
3923.00,0.0006
3922.00,0.0006
3921.00,0.0006
3920.00,0.0006
3919.00,0.0006
3918.00,0.0006
3917.00,0.0006
3916.00,0.0006
3915.00,0.0006
3914.00,0.0005
3913.00,0.0005
3912.00,0.0005
3911.00,0.0006
3910.00,0.0006
3909.00,0.0006
3908.00,0.0006
3907.00,0.0006
3906.00,0.0006
3905.00,0.0005
3904.00,0.0005
3903.00,0.0005
3902.00,0.0005
3901.00,0.0005
3900.00,0.0005
3899.00,0.0005
3898.00,0.0005
3897.00,0.0005
3896.00,0.0005
3895.00,0.0005
3894.00,0.0005
3893.00,0.0005
3892.00,0.0005
3891.00,0.0005
3890.00,0.0005
3889.00,0.0005
3888.00,0.0005
3887.00,0.0005
3886.00,0.0006
3885.00,0.0006
3884.00,0.0006
3883.00,0.0005
3882.00,0.0005
3881.00,0.0005
3880.00,0.0005
3879.00,0.0005
3878.00,0.0005
3877.00,0.0005
3876.00,0.0006
3875.00,0.0006
3874.00,0.0006
3873.00,0.0006
3872.00,0.0006
3871.00,0.0006
3870.00,0.0006
3869.00,0.0006
3868.00,0.0006
3867.00,0.0006
3866.00,0.0006
3865.00,0.0006
3864.00,0.0006
3863.00,0.0005
3862.00,0.0005
3861.00,0.0005
3860.00,0.0005
3859.00,0.0005
3858.00,0.0006
3857.00,0.0006
3856.00,0.0006
3855.00,0.0006
3854.00,0.0006
3853.00,0.0005
3852.00,0.0005
3851.00,0.0004
3850.00,0.0004
3849.00,0.0004
3848.00,0.0004
3847.00,0.0004
3846.00,0.0005
3845.00,0.0005
3844.00,0.0006
3843.00,0.0006
3842.00,0.0007
3841.00,0.0007
3840.00,0.0007
3839.00,0.0006
3838.00,0.0006
3837.00,0.0005
3836.00,0.0005
3835.00,0.0005
3834.00,0.0005
3833.00,0.0005
3832.00,0.0005
3831.00,0.0005
3830.00,0.0005
3829.00,0.0005
3828.00,0.0006
3827.00,0.0007
3826.00,0.0007
3825.00,0.0007
3824.00,0.0007
3823.00,0.0007
3822.00,0.0007
3821.00,0.0008
3820.00,0.0008
3819.00,0.0007
3818.00,0.0007
3817.00,0.0006
3816.00,0.0006
3815.00,0.0005
3814.00,0.0005
3813.00,0.0005
3812.00,0.0006
3811.00,0.0006
3810.00,0.0007
3809.00,0.0007
3808.00,0.0007
3807.00,0.0006
3806.00,0.0006
3805.00,0.0006
3804.00,0.0005
3803.00,0.0006
3802.00,0.0006
3801.00,0.0006
3800.00,0.0006
3799.00,0.0005
3798.00,0.0005
3797.00,0.0005
3796.00,0.0005
3795.00,0.0004
3794.00,0.0004
3793.00,0.0004
3792.00,0.0005
3791.00,0.0006
3790.00,0.0006
3789.00,0.0006
3788.00,0.0006
3787.00,0.0006
3786.00,0.0006
3785.00,0.0006
3784.00,0.0006
3783.00,0.0006
3782.00,0.0006
3781.00,0.0005
3780.00,0.0005
3779.00,0.0005
3778.00,0.0005
3777.00,0.0005
3776.00,0.0006
3775.00,0.0006
3774.00,0.0006
3773.00,0.0006
3772.00,0.0006
3771.00,0.0007
3770.00,0.0007
3769.00,0.0007
3768.00,0.0007
3767.00,0.0007
3766.00,0.0007
3765.00,0.0007
3764.00,0.0007
3763.00,0.0007
3762.00,0.0007
3761.00,0.0007
3760.00,0.0007
3759.00,0.0006
3758.00,0.0006
3757.00,0.0006
3756.00,0.0006
3755.00,0.0006
3754.00,0.0007
3753.00,0.0007
3752.00,0.0007
3751.00,0.0008
3750.00,0.0009
3749.00,0.0009
3748.00,0.0008
3747.00,0.0007
3746.00,0.0007
3745.00,0.0007
3744.00,0.0006
3743.00,0.0006
3742.00,0.0005
3741.00,0.0005
3740.00,0.0005
3739.00,0.0005
3738.00,0.0005
3737.00,0.0005
3736.00,0.0004
3735.00,0.0004
3734.00,0.0004
3733.00,0.0004
3732.00,0.0004
3731.00,0.0004
3730.00,0.0004
3729.00,0.0003
3728.00,0.0003
3727.00,0.0003
3726.00,0.0004
3725.00,0.0004
3724.00,0.0004
3723.00,0.0004
3722.00,0.0004
3721.00,0.0005
3720.00,0.0005
3719.00,0.0005
3718.00,0.0005
3717.00,0.0004
3716.00,0.0004
3715.00,0.0003
3714.00,0.0003
3713.00,0.0003
3712.00,0.0004
3711.00,0.0004
3710.00,0.0004
3709.00,0.0004
3708.00,0.0004
3707.00,0.0004
3706.00,0.0003
3705.00,0.0003
3704.00,0.0003
3703.00,0.0004
3702.00,0.0004
3701.00,0.0004
3700.00,0.0004
3699.00,0.0003
3698.00,0.0004
3697.00,0.0004
3696.00,0.0004
3695.00,0.0005
3694.00,0.0005
3693.00,0.0005
3692.00,0.0005
3691.00,0.0004
3690.00,0.0004
3689.00,0.0005
3688.00,0.0004
3687.00,0.0004
3686.00,0.0004
3685.00,0.0004
3684.00,0.0004
3683.00,0.0004
3682.00,0.0004
3681.00,0.0005
3680.00,0.0005
3679.00,0.0005
3678.00,0.0005
3677.00,0.0006
3676.00,0.0006
3675.00,0.0006
3674.00,0.0006
3673.00,0.0005
3672.00,0.0004
3671.00,0.0004
3670.00,0.0004
3669.00,0.0004
3668.00,0.0004
3667.00,0.0004
3666.00,0.0005
3665.00,0.0005
3664.00,0.0005
3663.00,0.0005
3662.00,0.0004
3661.00,0.0004
3660.00,0.0004
3659.00,0.0004
3658.00,0.0004
3657.00,0.0004
3656.00,0.0004
3655.00,0.0004
3654.00,0.0004
3653.00,0.0004
3652.00,0.0005
3651.00,0.0005
3650.00,0.0005
3649.00,0.0005
3648.00,0.0005
3647.00,0.0005
3646.00,0.0004
3645.00,0.0004
3644.00,0.0004
3643.00,0.0003
3642.00,0.0003
3641.00,0.0003
3640.00,0.0003
3639.00,0.0003
3638.00,0.0003
3637.00,0.0004
3636.00,0.0004
3635.00,0.0004
3634.00,0.0004
3633.00,0.0004
3632.00,0.0003
3631.00,0.0003
3630.00,0.0003
3629.00,0.0003
3628.00,0.0003
3627.00,0.0003
3626.00,0.0003
3625.00,0.0002
3624.00,0.0002
3623.00,0.0003
3622.00,0.0003
3621.00,0.0003
3620.00,0.0003
3619.00,0.0003
3618.00,0.0003
3617.00,0.0003
3616.00,0.0003
3615.00,0.0003
3614.00,0.0003
3613.00,0.0003
3612.00,0.0003
3611.00,0.0002
3610.00,0.0002
3609.00,0.0001
3608.00,0.0002
3607.00,0.0002
3606.00,0.0003
3605.00,0.0003
3604.00,0.0004
3603.00,0.0004
3602.00,0.0003
3601.00,0.0003
3600.00,0.0003
3599.00,0.0003
3598.00,0.0003
3597.00,0.0004
3596.00,0.0004
3595.00,0.0004
3594.00,0.0004
3593.00,0.0004
3592.00,0.0004
3591.00,0.0004
3590.00,0.0004
3589.00,0.0004
3588.00,0.0005
3587.00,0.0005
3586.00,0.0005
3585.00,0.0005
3584.00,0.0005
3583.00,0.0005
3582.00,0.0006
3581.00,0.0006
3580.00,0.0005
3579.00,0.0005
3578.00,0.0005
3577.00,0.0005
3576.00,0.0005
3575.00,0.0005
3574.00,0.0005
3573.00,0.0005
3572.00,0.0006
3571.00,0.0006
3570.00,0.0006
3569.00,0.0006
3568.00,0.0007
3567.00,0.0007
3566.00,0.0007
3565.00,0.0007
3564.00,0.0006
3563.00,0.0006
3562.00,0.0006
3561.00,0.0007
3560.00,0.0007
3559.00,0.0007
3558.00,0.0007
3557.00,0.0008
3556.00,0.0008
3555.00,0.0008
3554.00,0.0008
3553.00,0.0008
3552.00,0.0008
3551.00,0.0008
3550.00,0.0008
3549.00,0.0008
3548.00,0.0009
3547.00,0.0009
3546.00,0.0009
3545.00,0.0010
3544.00,0.0010
3543.00,0.0010
3542.00,0.0010
3541.00,0.0010
3540.00,0.0010
3539.00,0.0010
3538.00,0.0010
3537.00,0.0010
3536.00,0.0010
3535.00,0.0011
3534.00,0.0011
3533.00,0.0011
3532.00,0.0011
3531.00,0.0011
3530.00,0.0012
3529.00,0.0012
3528.00,0.0012
3527.00,0.0012
3526.00,0.0012
3525.00,0.0012
3524.00,0.0012
3523.00,0.0011
3522.00,0.0011
3521.00,0.0011
3520.00,0.0011
3519.00,0.0011
3518.00,0.0012
3517.00,0.0012
3516.00,0.0012
3515.00,0.0012
3514.00,0.0012
3513.00,0.0012
3512.00,0.0012
3511.00,0.0012
3510.00,0.0012
3509.00,0.0012
3508.00,0.0012
3507.00,0.0012
3506.00,0.0012
3505.00,0.0013
3504.00,0.0013
3503.00,0.0013
3502.00,0.0013
3501.00,0.0013
3500.00,0.0013
3499.00,0.0013
3498.00,0.0013
3497.00,0.0013
3496.00,0.0013
3495.00,0.0013
3494.00,0.0014
3493.00,0.0014
3492.00,0.0014
3491.00,0.0015
3490.00,0.0015
3489.00,0.0015
3488.00,0.0015
3487.00,0.0015
3486.00,0.0015
3485.00,0.0016
3484.00,0.0016
3483.00,0.0016
3482.00,0.0016
3481.00,0.0016
3480.00,0.0016
3479.00,0.0015
3478.00,0.0015
3477.00,0.0015
3476.00,0.0016
3475.00,0.0016
3474.00,0.0016
3473.00,0.0017
3472.00,0.0017
3471.00,0.0017
3470.00,0.0017
3469.00,0.0017
3468.00,0.0018
3467.00,0.0018
3466.00,0.0018
3465.00,0.0018
3464.00,0.0018
3463.00,0.0018
3462.00,0.0018
3461.00,0.0018
3460.00,0.0018
3459.00,0.0017
3458.00,0.0018
3457.00,0.0018
3456.00,0.0018
3455.00,0.0018
3454.00,0.0018
3453.00,0.0018
3452.00,0.0018
3451.00,0.0018
3450.00,0.0019
3449.00,0.0019
3448.00,0.0020
3447.00,0.0020
3446.00,0.0020
3445.00,0.0020
3444.00,0.0020
3443.00,0.0020
3442.00,0.0020
3441.00,0.0020
3440.00,0.0020
3439.00,0.0020
3438.00,0.0020
3437.00,0.0020
3436.00,0.0021
3435.00,0.0021
3434.00,0.0021
3433.00,0.0022
3432.00,0.0022
3431.00,0.0023
3430.00,0.0023
3429.00,0.0022
3428.00,0.0022
3427.00,0.0022
3426.00,0.0022
3425.00,0.0022
3424.00,0.0022
3423.00,0.0022
3422.00,0.0022
3421.00,0.0022
3420.00,0.0022
3419.00,0.0022
3418.00,0.0022
3417.00,0.0022
3416.00,0.0022
3415.00,0.0022
3414.00,0.0022
3413.00,0.0022
3412.00,0.0022
3411.00,0.0022
3410.00,0.0022
3409.00,0.0022
3408.00,0.0023
3407.00,0.0023
3406.00,0.0023
3405.00,0.0023
3404.00,0.0023
3403.00,0.0022
3402.00,0.0022
3401.00,0.0022
3400.00,0.0022
3399.00,0.0023
3398.00,0.0023
3397.00,0.0023
3396.00,0.0023
3395.00,0.0023
3394.00,0.0023
3393.00,0.0023
3392.00,0.0023
3391.00,0.0023
3390.00,0.0023
3389.00,0.0023
3388.00,0.0023
3387.00,0.0022
3386.00,0.0022
3385.00,0.0022
3384.00,0.0022
3383.00,0.0023
3382.00,0.0023
3381.00,0.0023
3380.00,0.0024
3379.00,0.0024
3378.00,0.0024
3377.00,0.0024
3376.00,0.0024
3375.00,0.0024
3374.00,0.0023
3373.00,0.0023
3372.00,0.0023
3371.00,0.0023
3370.00,0.0024
3369.00,0.0024
3368.00,0.0024
3367.00,0.0024
3366.00,0.0024
3365.00,0.0024
3364.00,0.0024
3363.00,0.0024
3362.00,0.0024
3361.00,0.0024
3360.00,0.0024
3359.00,0.0024
3358.00,0.0025
3357.00,0.0025
3356.00,0.0025
3355.00,0.0025
3354.00,0.0025
3353.00,0.0025
3352.00,0.0026
3351.00,0.0025
3350.00,0.0025
3349.00,0.0025
3348.00,0.0024
3347.00,0.0024
3346.00,0.0024
3345.00,0.0024
3344.00,0.0025
3343.00,0.0025
3342.00,0.0025
3341.00,0.0025
3340.00,0.0024
3339.00,0.0024
3338.00,0.0024
3337.00,0.0024
3336.00,0.0023
3335.00,0.0023
3334.00,0.0023
3333.00,0.0023
3332.00,0.0023
3331.00,0.0023
3330.00,0.0023
3329.00,0.0023
3328.00,0.0023
3327.00,0.0022
3326.00,0.0022
3325.00,0.0022
3324.00,0.0022
3323.00,0.0022
3322.00,0.0022
3321.00,0.0022
3320.00,0.0022
3319.00,0.0022
3318.00,0.0022
3317.00,0.0022
3316.00,0.0022
3315.00,0.0022
3314.00,0.0022
3313.00,0.0022
3312.00,0.0022
3311.00,0.0022
3310.00,0.0022
3309.00,0.0022
3308.00,0.0023
3307.00,0.0023
3306.00,0.0023
3305.00,0.0023
3304.00,0.0023
3303.00,0.0023
3302.00,0.0023
3301.00,0.0023
3300.00,0.0023
3299.00,0.0023
3298.00,0.0023
3297.00,0.0023
3296.00,0.0023
3295.00,0.0023
3294.00,0.0023
3293.00,0.0023
3292.00,0.0022
3291.00,0.0022
3290.00,0.0022
3289.00,0.0022
3288.00,0.0023
3287.00,0.0023
3286.00,0.0023
3285.00,0.0023
3284.00,0.0023
3283.00,0.0022
3282.00,0.0022
3281.00,0.0022
3280.00,0.0022
3279.00,0.0022
3278.00,0.0022
3277.00,0.0022
3276.00,0.0022
3275.00,0.0022
3274.00,0.0022
3273.00,0.0022
3272.00,0.0021
3271.00,0.0021
3270.00,0.0021
3269.00,0.0021
3268.00,0.0021
3267.00,0.0021
3266.00,0.0021
3265.00,0.0021
3264.00,0.0021
3263.00,0.0021
3262.00,0.0021
3261.00,0.0021
3260.00,0.0021
3259.00,0.0021
3258.00,0.0021
3257.00,0.0021
3256.00,0.0021
3255.00,0.0021
3254.00,0.0021
3253.00,0.0021
3252.00,0.0021
3251.00,0.0021
3250.00,0.0020
3249.00,0.0020
3248.00,0.0020
3247.00,0.0020
3246.00,0.0020
3245.00,0.0020
3244.00,0.0021
3243.00,0.0021
3242.00,0.0021
3241.00,0.0021
3240.00,0.0021
3239.00,0.0021
3238.00,0.0021
3237.00,0.0021
3236.00,0.0021
3235.00,0.0021
3234.00,0.0022
3233.00,0.0022
3232.00,0.0022
3231.00,0.0022
3230.00,0.0023
3229.00,0.0023
3228.00,0.0023
3227.00,0.0023
3226.00,0.0023
3225.00,0.0023
3224.00,0.0023
3223.00,0.0023
3222.00,0.0024
3221.00,0.0024
3220.00,0.0025
3219.00,0.0025
3218.00,0.0025
3217.00,0.0025
3216.00,0.0025
3215.00,0.0025
3214.00,0.0026
3213.00,0.0026
3212.00,0.0026
3211.00,0.0026
3210.00,0.0027
3209.00,0.0027
3208.00,0.0027
3207.00,0.0027
3206.00,0.0027
3205.00,0.0027
3204.00,0.0027
3203.00,0.0027
3202.00,0.0027
3201.00,0.0027
3200.00,0.0027
3199.00,0.0027
3198.00,0.0027
3197.00,0.0027
3196.00,0.0027
3195.00,0.0028
3194.00,0.0028
3193.00,0.0028
3192.00,0.0028
3191.00,0.0028
3190.00,0.0028
3189.00,0.0028
3188.00,0.0028
3187.00,0.0028
3186.00,0.0027
3185.00,0.0027
3184.00,0.0027
3183.00,0.0027
3182.00,0.0027
3181.00,0.0027
3180.00,0.0027
3179.00,0.0027
3178.00,0.0027
3177.00,0.0027
3176.00,0.0026
3175.00,0.0026
3174.00,0.0025
3173.00,0.0025
3172.00,0.0025
3171.00,0.0025
3170.00,0.0025
3169.00,0.0025
3168.00,0.0025
3167.00,0.0026
3166.00,0.0026
3165.00,0.0026
3164.00,0.0026
3163.00,0.0026
3162.00,0.0025
3161.00,0.0025
3160.00,0.0025
3159.00,0.0024
3158.00,0.0024
3157.00,0.0024
3156.00,0.0024
3155.00,0.0024
3154.00,0.0024
3153.00,0.0025
3152.00,0.0025
3151.00,0.0025
3150.00,0.0026
3149.00,0.0026
3148.00,0.0025
3147.00,0.0025
3146.00,0.0025
3145.00,0.0025
3144.00,0.0025
3143.00,0.0025
3142.00,0.0025
3141.00,0.0025
3140.00,0.0025
3139.00,0.0025
3138.00,0.0025
3137.00,0.0025
3136.00,0.0025
3135.00,0.0025
3134.00,0.0025
3133.00,0.0025
3132.00,0.0025
3131.00,0.0025
3130.00,0.0024
3129.00,0.0024
3128.00,0.0024
3127.00,0.0024
3126.00,0.0023
3125.00,0.0023
3124.00,0.0023
3123.00,0.0022
3122.00,0.0022
3121.00,0.0022
3120.00,0.0022
3119.00,0.0022
3118.00,0.0022
3117.00,0.0022
3116.00,0.0022
3115.00,0.0021
3114.00,0.0021
3113.00,0.0021
3112.00,0.0022
3111.00,0.0022
3110.00,0.0021
3109.00,0.0021
3108.00,0.0021
3107.00,0.0020
3106.00,0.0020
3105.00,0.0020
3104.00,0.0020
3103.00,0.0020
3102.00,0.0020
3101.00,0.0020
3100.00,0.0020
3099.00,0.0021
3098.00,0.0021
3097.00,0.0021
3096.00,0.0021
3095.00,0.0021
3094.00,0.0021
3093.00,0.0021
3092.00,0.0021
3091.00,0.0021
3090.00,0.0020
3089.00,0.0020
3088.00,0.0020
3087.00,0.0020
3086.00,0.0020
3085.00,0.0019
3084.00,0.0019
3083.00,0.0020
3082.00,0.0020
3081.00,0.0020
3080.00,0.0021
3079.00,0.0020
3078.00,0.0020
3077.00,0.0019
3076.00,0.0019
3075.00,0.0019
3074.00,0.0019
3073.00,0.0020
3072.00,0.0020
3071.00,0.0020
3070.00,0.0021
3069.00,0.0021
3068.00,0.0021
3067.00,0.0021
3066.00,0.0021
3065.00,0.0021
3064.00,0.0021
3063.00,0.0021
3062.00,0.0021
3061.00,0.0022
3060.00,0.0022
3059.00,0.0023
3058.00,0.0023
3057.00,0.0023
3056.00,0.0023
3055.00,0.0023
3054.00,0.0023
3053.00,0.0023
3052.00,0.0024
3051.00,0.0024
3050.00,0.0025
3049.00,0.0025
3048.00,0.0025
3047.00,0.0025
3046.00,0.0026
3045.00,0.0025
3044.00,0.0025
3043.00,0.0026
3042.00,0.0026
3041.00,0.0026
3040.00,0.0026
3039.00,0.0026
3038.00,0.0027
3037.00,0.0027
3036.00,0.0027
3035.00,0.0028
3034.00,0.0028
3033.00,0.0029
3032.00,0.0029
3031.00,0.0029
3030.00,0.0030
3029.00,0.0031
3028.00,0.0031
3027.00,0.0032
3026.00,0.0033
3025.00,0.0033
3024.00,0.0034
3023.00,0.0035
3022.00,0.0036
3021.00,0.0036
3020.00,0.0037
3019.00,0.0038
3018.00,0.0039
3017.00,0.0040
3016.00,0.0042
3015.00,0.0043
3014.00,0.0044
3013.00,0.0046
3012.00,0.0047
3011.00,0.0049
3010.00,0.0050
3009.00,0.0052
3008.00,0.0054
3007.00,0.0056
3006.00,0.0059
3005.00,0.0061
3004.00,0.0064
3003.00,0.0066
3002.00,0.0069
3001.00,0.0072
3000.00,0.0075
2999.00,0.0079
2998.00,0.0083
2997.00,0.0087
2996.00,0.0091
2995.00,0.0095
2994.00,0.0100
2993.00,0.0106
2992.00,0.0112
2991.00,0.0119
2990.00,0.0127
2989.00,0.0135
2988.00,0.0145
2987.00,0.0155
2986.00,0.0167
2985.00,0.0180
2984.00,0.0195
2983.00,0.0212
2982.00,0.0231
2981.00,0.0251
2980.00,0.0273
2979.00,0.0298
2978.00,0.0326
2977.00,0.0359
2976.00,0.0396
2975.00,0.0439
2974.00,0.0489
2973.00,0.0545
2972.00,0.0608
2971.00,0.0679
2970.00,0.0758
2969.00,0.0846
2968.00,0.0943
2967.00,0.1050
2966.00,0.1164
2965.00,0.1286
2964.00,0.1412
2963.00,0.1538
2962.00,0.1657
2961.00,0.1764
2960.00,0.1853
2959.00,0.1922
2958.00,0.1970
2957.00,0.2002
2956.00,0.2023
2955.00,0.2040
2954.00,0.2056
2953.00,0.2072
2952.00,0.2083
2951.00,0.2083
2950.00,0.2062
2949.00,0.2014
2948.00,0.1935
2947.00,0.1826
2946.00,0.1695
2945.00,0.1556
2944.00,0.1420
2943.00,0.1299
2942.00,0.1200
2941.00,0.1126
2940.00,0.1079
2939.00,0.1055
2938.00,0.1053
2937.00,0.1070
2936.00,0.1102
2935.00,0.1150
2934.00,0.1211
2933.00,0.1284
2932.00,0.1366
2931.00,0.1455
2930.00,0.1549
2929.00,0.1643
2928.00,0.1735
2927.00,0.1822
2926.00,0.1904
2925.00,0.1980
2924.00,0.2052
2923.00,0.2122
2922.00,0.2190
2921.00,0.2255
2920.00,0.2313
2919.00,0.2359
2918.00,0.2387
2917.00,0.2391
2916.00,0.2372
2915.00,0.2331
2914.00,0.2274
2913.00,0.2209
2912.00,0.2143
2911.00,0.2080
2910.00,0.2022
2909.00,0.1968
2908.00,0.1917
2907.00,0.1865
2906.00,0.1810
2905.00,0.1751
2904.00,0.1688
2903.00,0.1620
2902.00,0.1551
2901.00,0.1481
2900.00,0.1412
2899.00,0.1346
2898.00,0.1284
2897.00,0.1228
2896.00,0.1178
2895.00,0.1135
2894.00,0.1100
2893.00,0.1072
2892.00,0.1052
2891.00,0.1039
2890.00,0.1031
2889.00,0.1028
2888.00,0.1029
2887.00,0.1034
2886.00,0.1042
2885.00,0.1055
2884.00,0.1071
2883.00,0.1090
2882.00,0.1113
2881.00,0.1137
2880.00,0.1159
2879.00,0.1177
2878.00,0.1188
2877.00,0.1189
2876.00,0.1183
2875.00,0.1173
2874.00,0.1165
2873.00,0.1161
2872.00,0.1165
2871.00,0.1177
2870.00,0.1193
2869.00,0.1209
2868.00,0.1217
2867.00,0.1210
2866.00,0.1181
2865.00,0.1128
2864.00,0.1053
2863.00,0.0964
2862.00,0.0872
2861.00,0.0785
2860.00,0.0709
2859.00,0.0649
2858.00,0.0602
2857.00,0.0569
2856.00,0.0547
2855.00,0.0534
2854.00,0.0530
2853.00,0.0533
2852.00,0.0544
2851.00,0.0562
2850.00,0.0587
2849.00,0.0621
2848.00,0.0663
2847.00,0.0715
2846.00,0.0776
2845.00,0.0847
2844.00,0.0926
2843.00,0.1011
2842.00,0.1098
2841.00,0.1180
2840.00,0.1248
2839.00,0.1294
2838.00,0.1306
2837.00,0.1281
2836.00,0.1218
2835.00,0.1123
2834.00,0.1010
2833.00,0.0890
2832.00,0.0776
2831.00,0.0674
2830.00,0.0589
2829.00,0.0518
2828.00,0.0462
2827.00,0.0416
2826.00,0.0379
2825.00,0.0348
2824.00,0.0322
2823.00,0.0300
2822.00,0.0282
2821.00,0.0266
2820.00,0.0252
2819.00,0.0240
2818.00,0.0230
2817.00,0.0220
2816.00,0.0212
2815.00,0.0205
2814.00,0.0198
2813.00,0.0192
2812.00,0.0187
2811.00,0.0182
2810.00,0.0176
2809.00,0.0171
2808.00,0.0165
2807.00,0.0159
2806.00,0.0153
2805.00,0.0147
2804.00,0.0141
2803.00,0.0135
2802.00,0.0129
2801.00,0.0124
2800.00,0.0120
2799.00,0.0117
2798.00,0.0115
2797.00,0.0113
2796.00,0.0111
2795.00,0.0108
2794.00,0.0106
2793.00,0.0102
2792.00,0.0099
2791.00,0.0095
2790.00,0.0091
2789.00,0.0087
2788.00,0.0083
2787.00,0.0080
2786.00,0.0077
2785.00,0.0074
2784.00,0.0072
2783.00,0.0069
2782.00,0.0067
2781.00,0.0065
2780.00,0.0063
2779.00,0.0061
2778.00,0.0060
2777.00,0.0059
2776.00,0.0058
2775.00,0.0057
2774.00,0.0056
2773.00,0.0055
2772.00,0.0054
2771.00,0.0054
2770.00,0.0053
2769.00,0.0053
2768.00,0.0053
2767.00,0.0052
2766.00,0.0052
2765.00,0.0051
2764.00,0.0051
2763.00,0.0050
2762.00,0.0050
2761.00,0.0050
2760.00,0.0049
2759.00,0.0049
2758.00,0.0049
2757.00,0.0049
2756.00,0.0049
2755.00,0.0049
2754.00,0.0049
2753.00,0.0048
2752.00,0.0048
2751.00,0.0048
2750.00,0.0047
2749.00,0.0047
2748.00,0.0048
2747.00,0.0048
2746.00,0.0049
2745.00,0.0049
2744.00,0.0050
2743.00,0.0051
2742.00,0.0052
2741.00,0.0054
2740.00,0.0055
2739.00,0.0057
2738.00,0.0059
2737.00,0.0060
2736.00,0.0061
2735.00,0.0062
2734.00,0.0064
2733.00,0.0065
2732.00,0.0067
2731.00,0.0069
2730.00,0.0072
2729.00,0.0074
2728.00,0.0077
2727.00,0.0079
2726.00,0.0082
2725.00,0.0085
2724.00,0.0086
2723.00,0.0087
2722.00,0.0086
2721.00,0.0083
2720.00,0.0081
2719.00,0.0077
2718.00,0.0074
2717.00,0.0071
2716.00,0.0068
2715.00,0.0065
2714.00,0.0063
2713.00,0.0061
2712.00,0.0059
2711.00,0.0057
2710.00,0.0056
2709.00,0.0054
2708.00,0.0053
2707.00,0.0052
2706.00,0.0050
2705.00,0.0049
2704.00,0.0048
2703.00,0.0047
2702.00,0.0046
2701.00,0.0045
2700.00,0.0044
2699.00,0.0044
2698.00,0.0044
2697.00,0.0043
2696.00,0.0043
2695.00,0.0043
2694.00,0.0043
2693.00,0.0043
2692.00,0.0043
2691.00,0.0043
2690.00,0.0043
2689.00,0.0043
2688.00,0.0043
2687.00,0.0043
2686.00,0.0042
2685.00,0.0042
2684.00,0.0043
2683.00,0.0043
2682.00,0.0043
2681.00,0.0043
2680.00,0.0043
2679.00,0.0044
2678.00,0.0044
2677.00,0.0044
2676.00,0.0043
2675.00,0.0043
2674.00,0.0043
2673.00,0.0042
2672.00,0.0042
2671.00,0.0042
2670.00,0.0042
2669.00,0.0042
2668.00,0.0042
2667.00,0.0042
2666.00,0.0043
2665.00,0.0044
2664.00,0.0044
2663.00,0.0045
2662.00,0.0045
2661.00,0.0045
2660.00,0.0046
2659.00,0.0046
2658.00,0.0046
2657.00,0.0046
2656.00,0.0045
2655.00,0.0045
2654.00,0.0044
2653.00,0.0044
2652.00,0.0043
2651.00,0.0043
2650.00,0.0043
2649.00,0.0042
2648.00,0.0042
2647.00,0.0041
2646.00,0.0040
2645.00,0.0040
2644.00,0.0040
2643.00,0.0039
2642.00,0.0039
2641.00,0.0039
2640.00,0.0038
2639.00,0.0037
2638.00,0.0037
2637.00,0.0037
2636.00,0.0036
2635.00,0.0037
2634.00,0.0037
2633.00,0.0037
2632.00,0.0037
2631.00,0.0037
2630.00,0.0038
2629.00,0.0038
2628.00,0.0038
2627.00,0.0038
2626.00,0.0038
2625.00,0.0038
2624.00,0.0039
2623.00,0.0039
2622.00,0.0039
2621.00,0.0038
2620.00,0.0038
2619.00,0.0037
2618.00,0.0037
2617.00,0.0037
2616.00,0.0037
2615.00,0.0038
2614.00,0.0038
2613.00,0.0038
2612.00,0.0037
2611.00,0.0037
2610.00,0.0036
2609.00,0.0036
2608.00,0.0035
2607.00,0.0034
2606.00,0.0033
2605.00,0.0032
2604.00,0.0031
2603.00,0.0030
2602.00,0.0030
2601.00,0.0030
2600.00,0.0029
2599.00,0.0029
2598.00,0.0030
2597.00,0.0030
2596.00,0.0030
2595.00,0.0030
2594.00,0.0030
2593.00,0.0030
2592.00,0.0030
2591.00,0.0031
2590.00,0.0032
2589.00,0.0033
2588.00,0.0034
2587.00,0.0034
2586.00,0.0035
2585.00,0.0036
2584.00,0.0037
2583.00,0.0037
2582.00,0.0037
2581.00,0.0036
2580.00,0.0036
2579.00,0.0035
2578.00,0.0035
2577.00,0.0034
2576.00,0.0034
2575.00,0.0033
2574.00,0.0031
2573.00,0.0030
2572.00,0.0029
2571.00,0.0027
2570.00,0.0026
2569.00,0.0026
2568.00,0.0025
2567.00,0.0025
2566.00,0.0024
2565.00,0.0024
2564.00,0.0023
2563.00,0.0023
2562.00,0.0023
2561.00,0.0022
2560.00,0.0022
2559.00,0.0021
2558.00,0.0021
2557.00,0.0021
2556.00,0.0021
2555.00,0.0021
2554.00,0.0020
2553.00,0.0020
2552.00,0.0019
2551.00,0.0019
2550.00,0.0019
2549.00,0.0018
2548.00,0.0017
2547.00,0.0017
2546.00,0.0016
2545.00,0.0016
2544.00,0.0017
2543.00,0.0017
2542.00,0.0017
2541.00,0.0017
2540.00,0.0016
2539.00,0.0015
2538.00,0.0014
2537.00,0.0013
2536.00,0.0013
2535.00,0.0013
2534.00,0.0013
2533.00,0.0013
2532.00,0.0014
2531.00,0.0014
2530.00,0.0014
2529.00,0.0014
2528.00,0.0014
2527.00,0.0013
2526.00,0.0013
2525.00,0.0013
2524.00,0.0012
2523.00,0.0011
2522.00,0.0011
2521.00,0.0011
2520.00,0.0011
2519.00,0.0011
2518.00,0.0011
2517.00,0.0010
2516.00,0.0009
2515.00,0.0008
2514.00,0.0008
2513.00,0.0008
2512.00,0.0008
2511.00,0.0008
2510.00,0.0008
2509.00,0.0007
2508.00,0.0008
2507.00,0.0008
2506.00,0.0008
2505.00,0.0008
2504.00,0.0008
2503.00,0.0008
2502.00,0.0008
2501.00,0.0008
2500.00,0.0009
2499.00,0.0009
2498.00,0.0009
2497.00,0.0010
2496.00,0.0010
2495.00,0.0010
2494.00,0.0010
2493.00,0.0010
2492.00,0.0009
2491.00,0.0009
2490.00,0.0008
2489.00,0.0008
2488.00,0.0007
2487.00,0.0007
2486.00,0.0006
2485.00,0.0006
2484.00,0.0006
2483.00,0.0007
2482.00,0.0007
2481.00,0.0007
2480.00,0.0007
2479.00,0.0007
2478.00,0.0007
2477.00,0.0007
2476.00,0.0007
2475.00,0.0007
2474.00,0.0007
2473.00,0.0007
2472.00,0.0007
2471.00,0.0007
2470.00,0.0006
2469.00,0.0006
2468.00,0.0005
2467.00,0.0005
2466.00,0.0005
2465.00,0.0006
2464.00,0.0006
2463.00,0.0007
2462.00,0.0008
2461.00,0.0008
2460.00,0.0008
2459.00,0.0008
2458.00,0.0008
2457.00,0.0009
2456.00,0.0009
2455.00,0.0009
2454.00,0.0009
2453.00,0.0009
2452.00,0.0008
2451.00,0.0009
2450.00,0.0010
2449.00,0.0010
2448.00,0.0011
2447.00,0.0011
2446.00,0.0011
2445.00,0.0010
2444.00,0.0010
2443.00,0.0010
2442.00,0.0009
2441.00,0.0009
2440.00,0.0009
2439.00,0.0010
2438.00,0.0009
2437.00,0.0009
2436.00,0.0008
2435.00,0.0008
2434.00,0.0009
2433.00,0.0009
2432.00,0.0010
2431.00,0.0011
2430.00,0.0011
2429.00,0.0012
2428.00,0.0012
2427.00,0.0011
2426.00,0.0011
2425.00,0.0010
2424.00,0.0009
2423.00,0.0009
2422.00,0.0009
2421.00,0.0009
2420.00,0.0009
2419.00,0.0009
2418.00,0.0008
2417.00,0.0008
2416.00,0.0008
2415.00,0.0008
2414.00,0.0008
2413.00,0.0008
2412.00,0.0008
2411.00,0.0008
2410.00,0.0009
2409.00,0.0008
2408.00,0.0008
2407.00,0.0007
2406.00,0.0007
2405.00,0.0007
2404.00,0.0007
2403.00,0.0007
2402.00,0.0007
2401.00,0.0007
2400.00,0.0006
2399.00,0.0006
2398.00,0.0006
2397.00,0.0006
2396.00,0.0006
2395.00,0.0006
2394.00,0.0006
2393.00,0.0006
2392.00,0.0006
2391.00,0.0006
2390.00,0.0007
2389.00,0.0007
2388.00,0.0008
2387.00,0.0008
2386.00,0.0007
2385.00,0.0007
2384.00,0.0006
2383.00,0.0006
2382.00,0.0005
2381.00,0.0005
2380.00,0.0005
2379.00,0.0005
2378.00,0.0006
2377.00,0.0006
2376.00,0.0005
2375.00,0.0005
2374.00,0.0004
2373.00,0.0004
2372.00,0.0005
2371.00,0.0005
2370.00,0.0005
2369.00,0.0004
2368.00,0.0004
2367.00,0.0004
2366.00,0.0004
2365.00,0.0005
2364.00,0.0006
2363.00,0.0006
2362.00,0.0006
2361.00,0.0006
2360.00,0.0005
2359.00,0.0005
2358.00,0.0005
2357.00,0.0004
2356.00,0.0005
2355.00,0.0005
2354.00,0.0006
2353.00,0.0006
2352.00,0.0005
2351.00,0.0005
2350.00,0.0006
2349.00,0.0007
2348.00,0.0007
2347.00,0.0007
2346.00,0.0007
2345.00,0.0007
2344.00,0.0008
2343.00,0.0008
2342.00,0.0009
2341.00,0.0009
2340.00,0.0009
2339.00,0.0009
2338.00,0.0008
2337.00,0.0007
2336.00,0.0007
2335.00,0.0007
2334.00,0.0007
2333.00,0.0007
2332.00,0.0006
2331.00,0.0006
2330.00,0.0007
2329.00,0.0008
2328.00,0.0010
2327.00,0.0014
2326.00,0.0018
2325.00,0.0022
2324.00,0.0024
2323.00,0.0023
2322.00,0.0020
2321.00,0.0018
2320.00,0.0016
2319.00,0.0015
2318.00,0.0015
2317.00,0.0014
2316.00,0.0014
2315.00,0.0013
2314.00,0.0012
2313.00,0.0011
2312.00,0.0010
2311.00,0.0010
2310.00,0.0010
2309.00,0.0010
2308.00,0.0010
2307.00,0.0010
2306.00,0.0010
2305.00,0.0010
2304.00,0.0010
2303.00,0.0011
2302.00,0.0012
2301.00,0.0012
2300.00,0.0012
2299.00,0.0011
2298.00,0.0011
2297.00,0.0011
2296.00,0.0011
2295.00,0.0012
2294.00,0.0013
2293.00,0.0014
2292.00,0.0015
2291.00,0.0016
2290.00,0.0017
2289.00,0.0017
2288.00,0.0018
2287.00,0.0018
2286.00,0.0018
2285.00,0.0018
2284.00,0.0018
2283.00,0.0016
2282.00,0.0014
2281.00,0.0013
2280.00,0.0013
2279.00,0.0013
2278.00,0.0014
2277.00,0.0014
2276.00,0.0014
2275.00,0.0013
2274.00,0.0011
2273.00,0.0010
2272.00,0.0010
2271.00,0.0010
2270.00,0.0011
2269.00,0.0012
2268.00,0.0012
2267.00,0.0011
2266.00,0.0010
2265.00,0.0009
2264.00,0.0009
2263.00,0.0009
2262.00,0.0008
2261.00,0.0009
2260.00,0.0009
2259.00,0.0010
2258.00,0.0011
2257.00,0.0011
2256.00,0.0010
2255.00,0.0008
2254.00,0.0006
2253.00,0.0006
2252.00,0.0006
2251.00,0.0005
2250.00,0.0005
2249.00,0.0005
2248.00,0.0005
2247.00,0.0005
2246.00,0.0006
2245.00,0.0006
2244.00,0.0006
2243.00,0.0006
2242.00,0.0005
2241.00,0.0004
2240.00,0.0004
2239.00,0.0003
2238.00,0.0004
2237.00,0.0005
2236.00,0.0005
2235.00,0.0005
2234.00,0.0004
2233.00,0.0004
2232.00,0.0004
2231.00,0.0005
2230.00,0.0005
2229.00,0.0005
2228.00,0.0005
2227.00,0.0003
2226.00,0.0002
2225.00,0.0001
2224.00,0.0002
2223.00,0.0003
2222.00,0.0004
2221.00,0.0004
2220.00,0.0004
2219.00,0.0003
2218.00,0.0001
2217.00,0.0000
2216.00,0.0000
2215.00,0.0000
2214.00,0.0001
2213.00,0.0002
2212.00,0.0003
2211.00,0.0003
2210.00,0.0003
2209.00,0.0003
2208.00,0.0003
2207.00,0.0002
2206.00,0.0002
2205.00,0.0002
2204.00,0.0003
2203.00,0.0004
2202.00,0.0005
2201.00,0.0006
2200.00,0.0007
2199.00,0.0008
2198.00,0.0008
2197.00,0.0008
2196.00,0.0006
2195.00,0.0004
2194.00,0.0003
2193.00,0.0002
2192.00,0.0004
2191.00,0.0006
2190.00,0.0006
2189.00,0.0006
2188.00,0.0006
2187.00,0.0006
2186.00,0.0007
2185.00,0.0008
2184.00,0.0008
2183.00,0.0007
2182.00,0.0005
2181.00,0.0003
2180.00,0.0003
2179.00,0.0003
2178.00,0.0003
2177.00,0.0003
2176.00,0.0000
2175.00,-0.0002
2174.00,-0.0004
2173.00,-0.0005
2172.00,-0.0003
2171.00,-0.0001
2170.00,0.0003
2169.00,0.0009
2168.00,0.0013
2167.00,0.0014
2166.00,0.0013
2165.00,0.0011
2164.00,0.0011
2163.00,0.0012
2162.00,0.0014
2161.00,0.0011
2160.00,0.0002
2159.00,-0.0012
2158.00,-0.0025
2157.00,-0.0031
2156.00,-0.0030
2155.00,-0.0027
2154.00,-0.0024
2153.00,-0.0021
2152.00,-0.0020
2151.00,-0.0018
2150.00,-0.0018
2149.00,-0.0017
2148.00,-0.0016
2147.00,-0.0015
2146.00,-0.0016
2145.00,-0.0017
2144.00,-0.0018
2143.00,-0.0018
2142.00,-0.0019
2141.00,-0.0019
2140.00,-0.0019
2139.00,-0.0018
2138.00,-0.0017
2137.00,-0.0017
2136.00,-0.0018
2135.00,-0.0020
2134.00,-0.0021
2133.00,-0.0020
2132.00,-0.0017
2131.00,-0.0015
2130.00,-0.0013
2129.00,-0.0012
2128.00,-0.0012
2127.00,-0.0012
2126.00,-0.0011
2125.00,-0.0010
2124.00,-0.0008
2123.00,-0.0007
2122.00,-0.0006
2121.00,-0.0005
2120.00,-0.0005
2119.00,-0.0004
2118.00,-0.0003
2117.00,-0.0002
2116.00,0.0000
2115.00,0.0001
2114.00,0.0001
2113.00,0.0001
2112.00,0.0001
2111.00,0.0001
2110.00,0.0002
2109.00,0.0002
2108.00,0.0002
2107.00,0.0002
2106.00,0.0001
2105.00,0.0001
2104.00,-0.0000
2103.00,-0.0001
2102.00,-0.0001
2101.00,-0.0000
2100.00,0.0000
2099.00,-0.0000
2098.00,-0.0002
2097.00,-0.0004
2096.00,-0.0006
2095.00,-0.0007
2094.00,-0.0007
2093.00,-0.0006
2092.00,-0.0005
2091.00,-0.0005
2090.00,-0.0004
2089.00,-0.0003
2088.00,-0.0002
2087.00,-0.0001
2086.00,-0.0001
2085.00,-0.0001
2084.00,-0.0001
2083.00,-0.0000
2082.00,0.0000
2081.00,0.0001
2080.00,0.0002
2079.00,0.0002
2078.00,0.0002
2077.00,0.0002
2076.00,0.0002
2075.00,0.0002
2074.00,0.0002
2073.00,0.0001
2072.00,-0.0001
2071.00,-0.0003
2070.00,-0.0004
2069.00,-0.0004
2068.00,-0.0004
2067.00,-0.0003
2066.00,-0.0003
2065.00,-0.0002
2064.00,-0.0002
2063.00,-0.0003
2062.00,-0.0003
2061.00,-0.0002
2060.00,-0.0002
2059.00,-0.0001
2058.00,-0.0001
2057.00,-0.0001
2056.00,-0.0002
2055.00,-0.0002
2054.00,-0.0000
2053.00,0.0003
2052.00,0.0007
2051.00,0.0009
2050.00,0.0008
2049.00,0.0004
2048.00,0.0000
2047.00,-0.0002
2046.00,-0.0004
2045.00,-0.0005
2044.00,-0.0005
2043.00,-0.0005
2042.00,-0.0006
2041.00,-0.0006
2040.00,-0.0005
2039.00,-0.0003
2038.00,-0.0000
2037.00,0.0001
2036.00,0.0001
2035.00,-0.0002
2034.00,-0.0006
2033.00,-0.0011
2032.00,-0.0015
2031.00,-0.0018
2030.00,-0.0020
2029.00,-0.0019
2028.00,-0.0019
2027.00,-0.0018
2026.00,-0.0018
2025.00,-0.0017
2024.00,-0.0014
2023.00,-0.0011
2022.00,-0.0009
2021.00,-0.0009
2020.00,-0.0012
2019.00,-0.0017
2018.00,-0.0021
2017.00,-0.0023
2016.00,-0.0022
2015.00,-0.0019
2014.00,-0.0014
2013.00,-0.0008
2012.00,-0.0003
2011.00,-0.0002
2010.00,-0.0007
2009.00,-0.0014
2008.00,-0.0021
2007.00,-0.0025
2006.00,-0.0026
2005.00,-0.0023
2004.00,-0.0018
2003.00,-0.0014
2002.00,-0.0012
2001.00,-0.0011
2000.00,-0.0011
1999.00,-0.0011
1998.00,-0.0012
1997.00,-0.0014
1996.00,-0.0015
1995.00,-0.0015
1994.00,-0.0014
1993.00,-0.0013
1992.00,-0.0012
1991.00,-0.0011
1990.00,-0.0010
1989.00,-0.0009
1988.00,-0.0008
1987.00,-0.0007
1986.00,-0.0006
1985.00,-0.0003
1984.00,0.0001
1983.00,0.0006
1982.00,0.0010
1981.00,0.0012
1980.00,0.0010
1979.00,0.0004
1978.00,-0.0006
1977.00,-0.0014
1976.00,-0.0017
1975.00,-0.0017
1974.00,-0.0016
1973.00,-0.0015
1972.00,-0.0014
1971.00,-0.0013
1970.00,-0.0014
1969.00,-0.0015
1968.00,-0.0016
1967.00,-0.0015
1966.00,-0.0015
1965.00,-0.0015
1964.00,-0.0015
1963.00,-0.0013
1962.00,-0.0012
1961.00,-0.0012
1960.00,-0.0014
1959.00,-0.0016
1958.00,-0.0018
1957.00,-0.0018
1956.00,-0.0018
1955.00,-0.0018
1954.00,-0.0019
1953.00,-0.0019
1952.00,-0.0018
1951.00,-0.0017
1950.00,-0.0017
1949.00,-0.0018
1948.00,-0.0018
1947.00,-0.0018
1946.00,-0.0017
1945.00,-0.0015
1944.00,-0.0014
1943.00,-0.0014
1942.00,-0.0015
1941.00,-0.0016
1940.00,-0.0016
1939.00,-0.0016
1938.00,-0.0014
1937.00,-0.0012
1936.00,-0.0011
1935.00,-0.0010
1934.00,-0.0010
1933.00,-0.0009
1932.00,-0.0008
1931.00,-0.0007
1930.00,-0.0007
1929.00,-0.0008
1928.00,-0.0009
1927.00,-0.0010
1926.00,-0.0010
1925.00,-0.0009
1924.00,-0.0007
1923.00,-0.0006
1922.00,-0.0005
1921.00,-0.0004
1920.00,-0.0003
1919.00,-0.0003
1918.00,-0.0004
1917.00,-0.0005
1916.00,-0.0007
1915.00,-0.0008
1914.00,-0.0007
1913.00,-0.0007
1912.00,-0.0006
1911.00,-0.0006
1910.00,-0.0006
1909.00,-0.0006
1908.00,-0.0005
1907.00,-0.0004
1906.00,-0.0005
1905.00,-0.0006
1904.00,-0.0006
1903.00,-0.0006
1902.00,-0.0005
1901.00,-0.0004
1900.00,-0.0003
1899.00,-0.0003
1898.00,-0.0002
1897.00,-0.0001
1896.00,-0.0001
1895.00,-0.0001
1894.00,-0.0001
1893.00,-0.0001
1892.00,-0.0002
1891.00,-0.0002
1890.00,-0.0003
1889.00,-0.0004
1888.00,-0.0004
1887.00,-0.0004
1886.00,-0.0004
1885.00,-0.0004
1884.00,-0.0004
1883.00,-0.0003
1882.00,-0.0002
1881.00,-0.0002
1880.00,-0.0002
1879.00,-0.0002
1878.00,-0.0002
1877.00,-0.0002
1876.00,-0.0001
1875.00,-0.0000
1874.00,0.0000
1873.00,-0.0000
1872.00,-0.0001
1871.00,-0.0003
1870.00,-0.0004
1869.00,-0.0004
1868.00,-0.0004
1867.00,-0.0004
1866.00,-0.0004
1865.00,-0.0003
1864.00,-0.0002
1863.00,-0.0001
1862.00,-0.0001
1861.00,-0.0002
1860.00,-0.0003
1859.00,-0.0004
1858.00,-0.0004
1857.00,-0.0003
1856.00,-0.0003
1855.00,-0.0002
1854.00,-0.0002
1853.00,-0.0001
1852.00,-0.0001
1851.00,-0.0001
1850.00,-0.0002
1849.00,-0.0002
1848.00,-0.0002
1847.00,-0.0002
1846.00,-0.0002
1845.00,-0.0002
1844.00,-0.0001
1843.00,-0.0000
1842.00,-0.0000
1841.00,-0.0000
1840.00,0.0000
1839.00,0.0000
1838.00,0.0000
1837.00,-0.0000
1836.00,-0.0000
1835.00,-0.0001
1834.00,-0.0001
1833.00,-0.0001
1832.00,-0.0001
1831.00,-0.0001
1830.00,-0.0001
1829.00,-0.0001
1828.00,0.0000
1827.00,0.0001
1826.00,0.0002
1825.00,0.0002
1824.00,0.0002
1823.00,0.0001
1822.00,0.0001
1821.00,0.0001
1820.00,0.0001
1819.00,0.0000
1818.00,-0.0001
1817.00,-0.0002
1816.00,-0.0002
1815.00,-0.0001
1814.00,-0.0000
1813.00,0.0001
1812.00,0.0002
1811.00,0.0002
1810.00,0.0002
1809.00,0.0002
1808.00,0.0003
1807.00,0.0003
1806.00,0.0003
1805.00,0.0003
1804.00,0.0002
1803.00,0.0001
1802.00,0.0001
1801.00,0.0001
1800.00,0.0002
1799.00,0.0002
1798.00,0.0003
1797.00,0.0003
1796.00,0.0004
1795.00,0.0004
1794.00,0.0004
1793.00,0.0004
1792.00,0.0004
1791.00,0.0004
1790.00,0.0005
1789.00,0.0005
1788.00,0.0006
1787.00,0.0006
1786.00,0.0006
1785.00,0.0006
1784.00,0.0006
1783.00,0.0006
1782.00,0.0006
1781.00,0.0006
1780.00,0.0006
1779.00,0.0005
1778.00,0.0005
1777.00,0.0005
1776.00,0.0005
1775.00,0.0005
1774.00,0.0006
1773.00,0.0007
1772.00,0.0007
1771.00,0.0007
1770.00,0.0007
1769.00,0.0007
1768.00,0.0007
1767.00,0.0007
1766.00,0.0007
1765.00,0.0007
1764.00,0.0007
1763.00,0.0007
1762.00,0.0007
1761.00,0.0008
1760.00,0.0009
1759.00,0.0009
1758.00,0.0009
1757.00,0.0009
1756.00,0.0009
1755.00,0.0009
1754.00,0.0009
1753.00,0.0009
1752.00,0.0009
1751.00,0.0009
1750.00,0.0009
1749.00,0.0010
1748.00,0.0011
1747.00,0.0011
1746.00,0.0011
1745.00,0.0011
1744.00,0.0011
1743.00,0.0011
1742.00,0.0011
1741.00,0.0011
1740.00,0.0012
1739.00,0.0012
1738.00,0.0013
1737.00,0.0013
1736.00,0.0013
1735.00,0.0014
1734.00,0.0014
1733.00,0.0014
1732.00,0.0014
1731.00,0.0015
1730.00,0.0015
1729.00,0.0015
1728.00,0.0015
1727.00,0.0015
1726.00,0.0015
1725.00,0.0015
1724.00,0.0015
1723.00,0.0016
1722.00,0.0016
1721.00,0.0016
1720.00,0.0015
1719.00,0.0015
1718.00,0.0015
1717.00,0.0015
1716.00,0.0016
1715.00,0.0016
1714.00,0.0015
1713.00,0.0015
1712.00,0.0016
1711.00,0.0016
1710.00,0.0016
1709.00,0.0017
1708.00,0.0017
1707.00,0.0017
1706.00,0.0017
1705.00,0.0017
1704.00,0.0018
1703.00,0.0018
1702.00,0.0019
1701.00,0.0020
1700.00,0.0021
1699.00,0.0021
1698.00,0.0021
1697.00,0.0021
1696.00,0.0022
1695.00,0.0023
1694.00,0.0023
1693.00,0.0024
1692.00,0.0025
1691.00,0.0026
1690.00,0.0027
1689.00,0.0028
1688.00,0.0029
1687.00,0.0029
1686.00,0.0029
1685.00,0.0030
1684.00,0.0031
1683.00,0.0031
1682.00,0.0032
1681.00,0.0033
1680.00,0.0033
1679.00,0.0034
1678.00,0.0034
1677.00,0.0034
1676.00,0.0035
1675.00,0.0035
1674.00,0.0035
1673.00,0.0036
1672.00,0.0036
1671.00,0.0037
1670.00,0.0038
1669.00,0.0038
1668.00,0.0039
1667.00,0.0039
1666.00,0.0038
1665.00,0.0038
1664.00,0.0039
1663.00,0.0039
1662.00,0.0039
1661.00,0.0039
1660.00,0.0039
1659.00,0.0039
1658.00,0.0039
1657.00,0.0039
1656.00,0.0038
1655.00,0.0037
1654.00,0.0037
1653.00,0.0037
1652.00,0.0038
1651.00,0.0038
1650.00,0.0037
1649.00,0.0038
1648.00,0.0038
1647.00,0.0039
1646.00,0.0038
1645.00,0.0038
1644.00,0.0038
1643.00,0.0038
1642.00,0.0038
1641.00,0.0038
1640.00,0.0038
1639.00,0.0037
1638.00,0.0037
1637.00,0.0036
1636.00,0.0036
1635.00,0.0036
1634.00,0.0036
1633.00,0.0036
1632.00,0.0036
1631.00,0.0036
1630.00,0.0036
1629.00,0.0036
1628.00,0.0036
1627.00,0.0035
1626.00,0.0035
1625.00,0.0035
1624.00,0.0035
1623.00,0.0035
1622.00,0.0035
1621.00,0.0035
1620.00,0.0035
1619.00,0.0034
1618.00,0.0034
1617.00,0.0033
1616.00,0.0033
1615.00,0.0033
1614.00,0.0033
1613.00,0.0033
1612.00,0.0034
1611.00,0.0034
1610.00,0.0033
1609.00,0.0033
1608.00,0.0033
1607.00,0.0032
1606.00,0.0032
1605.00,0.0032
1604.00,0.0032
1603.00,0.0032
1602.00,0.0032
1601.00,0.0032
1600.00,0.0031
1599.00,0.0031
1598.00,0.0031
1597.00,0.0032
1596.00,0.0032
1595.00,0.0032
1594.00,0.0032
1593.00,0.0032
1592.00,0.0032
1591.00,0.0032
1590.00,0.0032
1589.00,0.0033
1588.00,0.0033
1587.00,0.0033
1586.00,0.0033
1585.00,0.0033
1584.00,0.0034
1583.00,0.0035
1582.00,0.0036
1581.00,0.0036
1580.00,0.0037
1579.00,0.0038
1578.00,0.0038
1577.00,0.0038
1576.00,0.0038
1575.00,0.0038
1574.00,0.0037
1573.00,0.0037
1572.00,0.0037
1571.00,0.0036
1570.00,0.0036
1569.00,0.0036
1568.00,0.0036
1567.00,0.0036
1566.00,0.0036
1565.00,0.0037
1564.00,0.0037
1563.00,0.0037
1562.00,0.0037
1561.00,0.0038
1560.00,0.0039
1559.00,0.0038
1558.00,0.0036
1557.00,0.0035
1556.00,0.0036
1555.00,0.0037
1554.00,0.0037
1553.00,0.0038
1552.00,0.0039
1551.00,0.0040
1550.00,0.0041
1549.00,0.0042
1548.00,0.0043
1547.00,0.0043
1546.00,0.0043
1545.00,0.0043
1544.00,0.0042
1543.00,0.0041
1542.00,0.0040
1541.00,0.0040
1540.00,0.0040
1539.00,0.0040
1538.00,0.0039
1537.00,0.0040
1536.00,0.0040
1535.00,0.0040
1534.00,0.0039
1533.00,0.0038
1532.00,0.0038
1531.00,0.0038
1530.00,0.0038
1529.00,0.0038
1528.00,0.0038
1527.00,0.0038
1526.00,0.0039
1525.00,0.0039
1524.00,0.0040
1523.00,0.0041
1522.00,0.0040
1521.00,0.0040
1520.00,0.0041
1519.00,0.0041
1518.00,0.0041
1517.00,0.0042
1516.00,0.0043
1515.00,0.0043
1514.00,0.0044
1513.00,0.0046
1512.00,0.0047
1511.00,0.0048
1510.00,0.0048
1509.00,0.0049
1508.00,0.0051
1507.00,0.0052
1506.00,0.0052
1505.00,0.0053
1504.00,0.0055
1503.00,0.0057
1502.00,0.0058
1501.00,0.0060
1500.00,0.0062
1499.00,0.0063
1498.00,0.0065
1497.00,0.0069
1496.00,0.0072
1495.00,0.0074
1494.00,0.0076
1493.00,0.0079
1492.00,0.0083
1491.00,0.0086
1490.00,0.0089
1489.00,0.0093
1488.00,0.0098
1487.00,0.0103
1486.00,0.0107
1485.00,0.0114
1484.00,0.0121
1483.00,0.0129
1482.00,0.0137
1481.00,0.0148
1480.00,0.0160
1479.00,0.0171
1478.00,0.0185
1477.00,0.0204
1476.00,0.0226
1475.00,0.0250
1474.00,0.0284
1473.00,0.0335
1472.00,0.0398
1471.00,0.0460
1470.00,0.0520
1469.00,0.0584
1468.00,0.0653
1467.00,0.0729
1466.00,0.0816
1465.00,0.0912
1464.00,0.0999
1463.00,0.1063
1462.00,0.1108
1461.00,0.1142
1460.00,0.1169
1459.00,0.1192
1458.00,0.1216
1457.00,0.1241
1456.00,0.1256
1455.00,0.1261
1454.00,0.1261
1453.00,0.1255
1452.00,0.1238
1451.00,0.1207
1450.00,0.1157
1449.00,0.1083
1448.00,0.0984
1447.00,0.0877
1446.00,0.0779
1445.00,0.0695
1444.00,0.0622
1443.00,0.0563
1442.00,0.0518
1441.00,0.0487
1440.00,0.0467
1439.00,0.0457
1438.00,0.0452
1437.00,0.0447
1436.00,0.0431
1435.00,0.0401
1434.00,0.0363
1433.00,0.0317
1432.00,0.0271
1431.00,0.0230
1430.00,0.0199
1429.00,0.0176
1428.00,0.0161
1427.00,0.0152
1426.00,0.0145
1425.00,0.0139
1424.00,0.0134
1423.00,0.0130
1422.00,0.0128
1421.00,0.0126
1420.00,0.0122
1419.00,0.0119
1418.00,0.0117
1417.00,0.0114
1416.00,0.0112
1415.00,0.0111
1414.00,0.0110
1413.00,0.0109
1412.00,0.0108
1411.00,0.0107
1410.00,0.0107
1409.00,0.0107
1408.00,0.0106
1407.00,0.0106
1406.00,0.0107
1405.00,0.0107
1404.00,0.0107
1403.00,0.0108
1402.00,0.0109
1401.00,0.0110
1400.00,0.0111
1399.00,0.0114
1398.00,0.0117
1397.00,0.0120
1396.00,0.0122
1395.00,0.0127
1394.00,0.0133
1393.00,0.0139
1392.00,0.0146
1391.00,0.0156
1390.00,0.0169
1389.00,0.0187
1388.00,0.0214
1387.00,0.0254
1386.00,0.0308
1385.00,0.0375
1384.00,0.0462
1383.00,0.0577
1382.00,0.0725
1381.00,0.0909
1380.00,0.1128
1379.00,0.1371
1378.00,0.1599
1377.00,0.1764
1376.00,0.1817
1375.00,0.1729
1374.00,0.1522
1373.00,0.1269
1372.00,0.1033
1371.00,0.0836
1370.00,0.0675
1369.00,0.0551
1368.00,0.0464
1367.00,0.0409
1366.00,0.0380
1365.00,0.0368
1364.00,0.0370
1363.00,0.0383
1362.00,0.0404
1361.00,0.0426
1360.00,0.0441
1359.00,0.0445
1358.00,0.0433
1357.00,0.0406
1356.00,0.0369
1355.00,0.0327
1354.00,0.0286
1353.00,0.0251
1352.00,0.0224
1351.00,0.0201
1350.00,0.0184
1349.00,0.0170
1348.00,0.0158
1347.00,0.0149
1346.00,0.0142
1345.00,0.0136
1344.00,0.0131
1343.00,0.0126
1342.00,0.0123
1341.00,0.0120
1340.00,0.0118
1339.00,0.0116
1338.00,0.0114
1337.00,0.0113
1336.00,0.0114
1335.00,0.0116
1334.00,0.0120
1333.00,0.0124
1332.00,0.0128
1331.00,0.0132
1330.00,0.0133
1329.00,0.0131
1328.00,0.0128
1327.00,0.0123
1326.00,0.0118
1325.00,0.0112
1324.00,0.0106
1323.00,0.0100
1322.00,0.0096
1321.00,0.0092
1320.00,0.0090
1319.00,0.0087
1318.00,0.0085
1317.00,0.0083
1316.00,0.0082
1315.00,0.0080
1314.00,0.0080
1313.00,0.0081
1312.00,0.0083
1311.00,0.0087
1310.00,0.0093
1309.00,0.0102
1308.00,0.0115
1307.00,0.0130
1306.00,0.0146
1305.00,0.0157
1304.00,0.0160
1303.00,0.0156
1302.00,0.0148
1301.00,0.0139
1300.00,0.0134
1299.00,0.0131
1298.00,0.0129
1297.00,0.0129
1296.00,0.0127
1295.00,0.0124
1294.00,0.0120
1293.00,0.0115
1292.00,0.0109
1291.00,0.0104
1290.00,0.0099
1289.00,0.0095
1288.00,0.0092
1287.00,0.0089
1286.00,0.0086
1285.00,0.0084
1284.00,0.0082
1283.00,0.0080
1282.00,0.0078
1281.00,0.0077
1280.00,0.0076
1279.00,0.0075
1278.00,0.0075
1277.00,0.0074
1276.00,0.0073
1275.00,0.0073
1274.00,0.0073
1273.00,0.0074
1272.00,0.0074
1271.00,0.0075
1270.00,0.0075
1269.00,0.0076
1268.00,0.0077
1267.00,0.0078
1266.00,0.0080
1265.00,0.0083
1264.00,0.0086
1263.00,0.0091
1262.00,0.0096
1261.00,0.0103
1260.00,0.0110
1259.00,0.0120
1258.00,0.0131
1257.00,0.0140
1256.00,0.0144
1255.00,0.0142
1254.00,0.0134
1253.00,0.0122
1252.00,0.0111
1251.00,0.0101
1250.00,0.0094
1249.00,0.0089
1248.00,0.0086
1247.00,0.0084
1246.00,0.0082
1245.00,0.0081
1244.00,0.0081
1243.00,0.0080
1242.00,0.0080
1241.00,0.0079
1240.00,0.0078
1239.00,0.0076
1238.00,0.0075
1237.00,0.0074
1236.00,0.0073
1235.00,0.0072
1234.00,0.0071
1233.00,0.0071
1232.00,0.0070
1231.00,0.0070
1230.00,0.0070
1229.00,0.0070
1228.00,0.0071
1227.00,0.0072
1226.00,0.0073
1225.00,0.0075
1224.00,0.0077
1223.00,0.0080
1222.00,0.0083
1221.00,0.0086
1220.00,0.0087
1219.00,0.0087
1218.00,0.0087
1217.00,0.0085
1216.00,0.0083
1215.00,0.0081
1214.00,0.0079
1213.00,0.0076
1212.00,0.0073
1211.00,0.0071
1210.00,0.0069
1209.00,0.0067
1208.00,0.0066
1207.00,0.0065
1206.00,0.0064
1205.00,0.0063
1204.00,0.0063
1203.00,0.0063
1202.00,0.0063
1201.00,0.0063
1200.00,0.0063
1199.00,0.0062
1198.00,0.0062
1197.00,0.0062
1196.00,0.0062
1195.00,0.0062
1194.00,0.0063
1193.00,0.0063
1192.00,0.0062
1191.00,0.0062
1190.00,0.0063
1189.00,0.0063
1188.00,0.0064
1187.00,0.0065
1186.00,0.0066
1185.00,0.0067
1184.00,0.0069
1183.00,0.0071
1182.00,0.0073
1181.00,0.0076
1180.00,0.0082
1179.00,0.0089
1178.00,0.0098
1177.00,0.0110
1176.00,0.0126
1175.00,0.0147
1174.00,0.0174
1173.00,0.0209
1172.00,0.0250
1171.00,0.0295
1170.00,0.0340
1169.00,0.0377
1168.00,0.0401
1167.00,0.0408
1166.00,0.0400
1165.00,0.0379
1164.00,0.0352
1163.00,0.0324
1162.00,0.0299
1161.00,0.0277
1160.00,0.0259
1159.00,0.0244
1158.00,0.0232
1157.00,0.0224
1156.00,0.0217
1155.00,0.0213
1154.00,0.0208
1153.00,0.0203
1152.00,0.0196
1151.00,0.0189
1150.00,0.0180
1149.00,0.0170
1148.00,0.0160
1147.00,0.0149
1146.00,0.0139
1145.00,0.0130
1144.00,0.0122
1143.00,0.0115
1142.00,0.0109
1141.00,0.0102
1140.00,0.0096
1139.00,0.0091
1138.00,0.0087
1137.00,0.0083
1136.00,0.0079
1135.00,0.0077
1134.00,0.0074
1133.00,0.0072
1132.00,0.0071
1131.00,0.0070
1130.00,0.0070
1129.00,0.0070
1128.00,0.0071
1127.00,0.0071
1126.00,0.0072
1125.00,0.0073
1124.00,0.0074
1123.00,0.0074
1122.00,0.0073
1121.00,0.0073
1120.00,0.0073
1119.00,0.0073
1118.00,0.0074
1117.00,0.0075
1116.00,0.0076
1115.00,0.0078
1114.00,0.0080
1113.00,0.0082
1112.00,0.0084
1111.00,0.0086
1110.00,0.0090
1109.00,0.0094
1108.00,0.0100
1107.00,0.0106
1106.00,0.0112
1105.00,0.0119
1104.00,0.0124
1103.00,0.0127
1102.00,0.0128
1101.00,0.0126
1100.00,0.0121
1099.00,0.0115
1098.00,0.0108
1097.00,0.0101
1096.00,0.0096
1095.00,0.0092
1094.00,0.0090
1093.00,0.0088
1092.00,0.0086
1091.00,0.0084
1090.00,0.0082
1089.00,0.0080
1088.00,0.0079
1087.00,0.0077
1086.00,0.0076
1085.00,0.0075
1084.00,0.0074
1083.00,0.0073
1082.00,0.0073
1081.00,0.0072
1080.00,0.0071
1079.00,0.0070
1078.00,0.0069
1077.00,0.0069
1076.00,0.0068
1075.00,0.0066
1074.00,0.0066
1073.00,0.0065
1072.00,0.0066
1071.00,0.0066
1070.00,0.0067
1069.00,0.0068
1068.00,0.0068
1067.00,0.0068
1066.00,0.0068
1065.00,0.0068
1064.00,0.0069
1063.00,0.0069
1062.00,0.0070
1061.00,0.0070
1060.00,0.0070
1059.00,0.0071
1058.00,0.0072
1057.00,0.0073
1056.00,0.0074
1055.00,0.0074
1054.00,0.0074
1053.00,0.0074
1052.00,0.0075
1051.00,0.0078
1050.00,0.0083
1049.00,0.0088
1048.00,0.0093
1047.00,0.0097
1046.00,0.0100
1045.00,0.0101
1044.00,0.0100
1043.00,0.0098
1042.00,0.0094
1041.00,0.0090
1040.00,0.0086
1039.00,0.0084
1038.00,0.0083
1037.00,0.0083
1036.00,0.0083
1035.00,0.0082
1034.00,0.0082
1033.00,0.0082
1032.00,0.0082
1031.00,0.0083
1030.00,0.0083
1029.00,0.0084
1028.00,0.0084
1027.00,0.0083
1026.00,0.0083
1025.00,0.0083
1024.00,0.0083
1023.00,0.0084
1022.00,0.0085
1021.00,0.0086
1020.00,0.0087
1019.00,0.0088
1018.00,0.0090
1017.00,0.0092
1016.00,0.0094
1015.00,0.0098
1014.00,0.0102
1013.00,0.0107
1012.00,0.0111
1011.00,0.0116
1010.00,0.0121
1009.00,0.0127
1008.00,0.0135
1007.00,0.0145
1006.00,0.0158
1005.00,0.0174
1004.00,0.0195
1003.00,0.0224
1002.00,0.0262
1001.00,0.0310
1000.00,0.0363
999.00,0.0410
998.00,0.0436
997.00,0.0432
996.00,0.0400
995.00,0.0349
994.00,0.0293
993.00,0.0243
992.00,0.0203
991.00,0.0173
990.00,0.0152
989.00,0.0138
988.00,0.0129
987.00,0.0125
986.00,0.0124
985.00,0.0126
984.00,0.0130
983.00,0.0138
982.00,0.0152
981.00,0.0172
980.00,0.0199
979.00,0.0235
978.00,0.0281
977.00,0.0336
976.00,0.0397
975.00,0.0459
974.00,0.0508
973.00,0.0531
972.00,0.0520
971.00,0.0476
970.00,0.0411
969.00,0.0340
968.00,0.0277
967.00,0.0227
966.00,0.0190
965.00,0.0164
964.00,0.0145
963.00,0.0131
962.00,0.0121
961.00,0.0112
960.00,0.0105
959.00,0.0100
958.00,0.0096
957.00,0.0093
956.00,0.0090
955.00,0.0087
954.00,0.0084
953.00,0.0081
952.00,0.0079
951.00,0.0079
950.00,0.0079
949.00,0.0078
948.00,0.0078
947.00,0.0078
946.00,0.0079
945.00,0.0082
944.00,0.0086
943.00,0.0089
942.00,0.0091
941.00,0.0092
940.00,0.0091
939.00,0.0089
938.00,0.0086
937.00,0.0081
936.00,0.0076
935.00,0.0071
934.00,0.0068
933.00,0.0066
932.00,0.0064
931.00,0.0063
930.00,0.0062
929.00,0.0061
928.00,0.0060
927.00,0.0059
926.00,0.0058
925.00,0.0057
924.00,0.0057
923.00,0.0058
922.00,0.0059
921.00,0.0060
920.00,0.0061
919.00,0.0062
918.00,0.0063
917.00,0.0064
916.00,0.0064
915.00,0.0065
914.00,0.0067
913.00,0.0068
912.00,0.0070
911.00,0.0071
910.00,0.0072
909.00,0.0072
908.00,0.0073
907.00,0.0077
906.00,0.0084
905.00,0.0094
904.00,0.0108
903.00,0.0125
902.00,0.0144
901.00,0.0161
900.00,0.0173
899.00,0.0175
898.00,0.0168
897.00,0.0153
896.00,0.0135
895.00,0.0118
894.00,0.0104
893.00,0.0093
892.00,0.0086
891.00,0.0081
890.00,0.0077
889.00,0.0074
888.00,0.0071
887.00,0.0069
886.00,0.0067
885.00,0.0067
884.00,0.0066
883.00,0.0066
882.00,0.0067
881.00,0.0067
880.00,0.0067
879.00,0.0068
878.00,0.0069
877.00,0.0070
876.00,0.0070
875.00,0.0070
874.00,0.0070
873.00,0.0070
872.00,0.0070
871.00,0.0070
870.00,0.0070
869.00,0.0070
868.00,0.0070
867.00,0.0070
866.00,0.0072
865.00,0.0074
864.00,0.0075
863.00,0.0077
862.00,0.0079
861.00,0.0082
860.00,0.0084
859.00,0.0086
858.00,0.0087
857.00,0.0087
856.00,0.0087
855.00,0.0088
854.00,0.0090
853.00,0.0094
852.00,0.0098
851.00,0.0105
850.00,0.0112
849.00,0.0123
848.00,0.0137
847.00,0.0158
846.00,0.0189
845.00,0.0235
844.00,0.0297
843.00,0.0366
842.00,0.0423
841.00,0.0442
840.00,0.0416
839.00,0.0357
838.00,0.0289
837.00,0.0233
836.00,0.0195
835.00,0.0170
834.00,0.0154
833.00,0.0144
832.00,0.0137
831.00,0.0131
830.00,0.0126
829.00,0.0121
828.00,0.0119
827.00,0.0117
826.00,0.0117
825.00,0.0117
824.00,0.0116
823.00,0.0114
822.00,0.0114
821.00,0.0114
820.00,0.0114
819.00,0.0116
818.00,0.0119
817.00,0.0123
816.00,0.0130
815.00,0.0138
814.00,0.0149
813.00,0.0163
812.00,0.0177
811.00,0.0192
810.00,0.0202
809.00,0.0207
808.00,0.0204
807.00,0.0196
806.00,0.0183
805.00,0.0167
804.00,0.0151
803.00,0.0138
802.00,0.0128
801.00,0.0120
800.00,0.0114
799.00,0.0108
798.00,0.0103
797.00,0.0099
796.00,0.0096
795.00,0.0093
794.00,0.0090
793.00,0.0087
792.00,0.0085
791.00,0.0082
790.00,0.0079
789.00,0.0076
788.00,0.0073
787.00,0.0071
786.00,0.0069
785.00,0.0067
784.00,0.0065
783.00,0.0063
782.00,0.0060
781.00,0.0058
780.00,0.0057
779.00,0.0055
778.00,0.0054
777.00,0.0054
776.00,0.0055
775.00,0.0057
774.00,0.0060
773.00,0.0064
772.00,0.0069
771.00,0.0074
770.00,0.0078
769.00,0.0081
768.00,0.0082
767.00,0.0081
766.00,0.0079
765.00,0.0076
764.00,0.0073
763.00,0.0070
762.00,0.0066
761.00,0.0063
760.00,0.0060
759.00,0.0057
758.00,0.0053
757.00,0.0050
756.00,0.0049
755.00,0.0048
754.00,0.0048
753.00,0.0049
752.00,0.0049
751.00,0.0049
750.00,0.0048
749.00,0.0047
748.00,0.0045
747.00,0.0044
746.00,0.0044
745.00,0.0044
744.00,0.0045
743.00,0.0047
742.00,0.0049
741.00,0.0050
740.00,0.0051
739.00,0.0051
738.00,0.0052
737.00,0.0053
736.00,0.0055
735.00,0.0057
734.00,0.0058
733.00,0.0057
732.00,0.0057
731.00,0.0056
730.00,0.0055
729.00,0.0054
728.00,0.0053
727.00,0.0053
726.00,0.0053
725.00,0.0053
724.00,0.0052
723.00,0.0051
722.00,0.0051
721.00,0.0051
720.00,0.0051
719.00,0.0050
718.00,0.0048
717.00,0.0048
716.00,0.0047
715.00,0.0047
714.00,0.0046
713.00,0.0044
712.00,0.0043
711.00,0.0043
710.00,0.0043
709.00,0.0045
708.00,0.0047
707.00,0.0048
706.00,0.0049
705.00,0.0049
704.00,0.0048
703.00,0.0048
702.00,0.0047
701.00,0.0046
700.00,0.0046
699.00,0.0046
698.00,0.0047
697.00,0.0048
696.00,0.0048
695.00,0.0047
694.00,0.0047
693.00,0.0046
692.00,0.0046
691.00,0.0046
690.00,0.0047
689.00,0.0048
688.00,0.0048
687.00,0.0048
686.00,0.0047
685.00,0.0046
684.00,0.0045
683.00,0.0044
682.00,0.0044
681.00,0.0044
680.00,0.0043
679.00,0.0042
678.00,0.0041
677.00,0.0041
676.00,0.0042
675.00,0.0042
674.00,0.0042
673.00,0.0042
672.00,0.0041
671.00,0.0041
670.00,0.0042
669.00,0.0044
668.00,0.0047
667.00,0.0048
666.00,0.0048
665.00,0.0047
664.00,0.0045
663.00,0.0043
662.00,0.0042
661.00,0.0043
660.00,0.0045
659.00,0.0047
658.00,0.0047
657.00,0.0046
656.00,0.0044
655.00,0.0043
654.00,0.0043
653.00,0.0043
652.00,0.0044
651.00,0.0043
650.00,0.0043
649.00,0.0042
648.00,0.0042
647.00,0.0042
646.00,0.0041
645.00,0.0040
644.00,0.0039
643.00,0.0039
642.00,0.0040
641.00,0.0041
640.00,0.0042
639.00,0.0043
638.00,0.0043
637.00,0.0044
636.00,0.0044
635.00,0.0045
634.00,0.0044
633.00,0.0042
632.00,0.0040
631.00,0.0041
630.00,0.0043
629.00,0.0045
628.00,0.0046
627.00,0.0047
626.00,0.0048
625.00,0.0047
624.00,0.0046
623.00,0.0047
622.00,0.0049
621.00,0.0050
620.00,0.0049
619.00,0.0047
618.00,0.0044
617.00,0.0042
616.00,0.0041
615.00,0.0043
614.00,0.0047
613.00,0.0051
612.00,0.0052
611.00,0.0051
610.00,0.0049
609.00,0.0047
608.00,0.0047
607.00,0.0047
606.00,0.0047
605.00,0.0045
604.00,0.0043
603.00,0.0041
602.00,0.0040
601.00,0.0043
600.00,0.0047
599.00,0.0052
598.00,0.0056
597.00,0.0057
596.00,0.0055
595.00,0.0052
594.00,0.0049
593.00,0.0047
592.00,0.0046
591.00,0.0044
590.00,0.0044
589.00,0.0043
588.00,0.0045
587.00,0.0047
586.00,0.0050
585.00,0.0052
584.00,0.0053
583.00,0.0053
582.00,0.0053
581.00,0.0053
580.00,0.0052
579.00,0.0051
578.00,0.0049
577.00,0.0047
576.00,0.0046
575.00,0.0044
574.00,0.0043
573.00,0.0043
572.00,0.0045
571.00,0.0047
570.00,0.0048
569.00,0.0047
568.00,0.0045
567.00,0.0044
566.00,0.0044
565.00,0.0045
564.00,0.0045
563.00,0.0044
562.00,0.0044
561.00,0.0043
560.00,0.0043
559.00,0.0043
558.00,0.0043
557.00,0.0043
556.00,0.0042
555.00,0.0041
554.00,0.0042
553.00,0.0044
552.00,0.0046
551.00,0.0050
550.00,0.0055
549.00,0.0059
548.00,0.0059
547.00,0.0058
546.00,0.0057
545.00,0.0058
544.00,0.0061
543.00,0.0062
542.00,0.0062
541.00,0.0060
540.00,0.0058
539.00,0.0057
538.00,0.0058
537.00,0.0061
536.00,0.0064
535.00,0.0065
534.00,0.0065
533.00,0.0063
532.00,0.0064
531.00,0.0068
530.00,0.0075
529.00,0.0080
528.00,0.0082
527.00,0.0081
526.00,0.0078
525.00,0.0074
524.00,0.0068
523.00,0.0061
522.00,0.0058
521.00,0.0059
520.00,0.0063
519.00,0.0066
518.00,0.0066
517.00,0.0064
516.00,0.0062
515.00,0.0062
514.00,0.0064
513.00,0.0067
512.00,0.0068
511.00,0.0067
510.00,0.0065
509.00,0.0062
508.00,0.0057
507.00,0.0053
506.00,0.0055
505.00,0.0062
504.00,0.0070
503.00,0.0073
502.00,0.0069
501.00,0.0060
500.00,0.0054
499.00,0.0052
498.00,0.0055
497.00,0.0058
496.00,0.0058
495.00,0.0056
494.00,0.0052
493.00,0.0050
492.00,0.0050
491.00,0.0051
490.00,0.0055
489.00,0.0061
488.00,0.0066
487.00,0.0066
486.00,0.0062
485.00,0.0060
484.00,0.0062
483.00,0.0066
482.00,0.0066
481.00,0.0065
480.00,0.0065
479.00,0.0070
478.00,0.0075
477.00,0.0078
476.00,0.0075
475.00,0.0069
474.00,0.0064
473.00,0.0062
472.00,0.0067
471.00,0.0078
470.00,0.0090
469.00,0.0099
468.00,0.0101
467.00,0.0101
466.00,0.0103
465.00,0.0106
464.00,0.0111
463.00,0.0116
462.00,0.0121
461.00,0.0132
460.00,0.0148
459.00,0.0166
458.00,0.0174
457.00,0.0167
456.00,0.0151
455.00,0.0134
454.00,0.0118
453.00,0.0103
452.00,0.0089
451.00,0.0079
450.00,0.0075
