Created as New Dataset,Sample 163 By Administrator Date Wednesday, September 10 2025
cm-1,A
4000.00,0.0010
3999.00,0.0009
3998.00,0.0009
3997.00,0.0009
3996.00,0.0008
3995.00,0.0009
3994.00,0.0009
3993.00,0.0009
3992.00,0.0009
3991.00,0.0009
3990.00,0.0009
3989.00,0.0009
3988.00,0.0008
3987.00,0.0008
3986.00,0.0009
3985.00,0.0009
3984.00,0.0009
3983.00,0.0008
3982.00,0.0008
3981.00,0.0008
3980.00,0.0008
3979.00,0.0008
3978.00,0.0008
3977.00,0.0008
3976.00,0.0007
3975.00,0.0007
3974.00,0.0007
3973.00,0.0007
3972.00,0.0007
3971.00,0.0007
3970.00,0.0007
3969.00,0.0007
3968.00,0.0007
3967.00,0.0007
3966.00,0.0007
3965.00,0.0007
3964.00,0.0007
3963.00,0.0007
3962.00,0.0007
3961.00,0.0007
3960.00,0.0007
3959.00,0.0007
3958.00,0.0007
3957.00,0.0007
3956.00,0.0007
3955.00,0.0008
3954.00,0.0008
3953.00,0.0008
3952.00,0.0008
3951.00,0.0008
3950.00,0.0008
3949.00,0.0008
3948.00,0.0009
3947.00,0.0009
3946.00,0.0008
3945.00,0.0008
3944.00,0.0008
3943.00,0.0007
3942.00,0.0007
3941.00,0.0007
3940.00,0.0007
3939.00,0.0007
3938.00,0.0008
3937.00,0.0008
3936.00,0.0008
3935.00,0.0008
3934.00,0.0008
3933.00,0.0008
3932.00,0.0008
3931.00,0.0008
3930.00,0.0008
3929.00,0.0007
3928.00,0.0007
3927.00,0.0007
3926.00,0.0007
3925.00,0.0007
3924.00,0.0007
3923.00,0.0007
3922.00,0.0008
3921.00,0.0008
3920.00,0.0008
3919.00,0.0008
3918.00,0.0008
3917.00,0.0008
3916.00,0.0008
3915.00,0.0007
3914.00,0.0007
3913.00,0.0007
3912.00,0.0008
3911.00,0.0008
3910.00,0.0008
3909.00,0.0008
3908.00,0.0008
3907.00,0.0008
3906.00,0.0008
3905.00,0.0007
3904.00,0.0007
3903.00,0.0007
3902.00,0.0007
3901.00,0.0007
3900.00,0.0007
3899.00,0.0007
3898.00,0.0007
3897.00,0.0007
3896.00,0.0007
3895.00,0.0007
3894.00,0.0007
3893.00,0.0007
3892.00,0.0007
3891.00,0.0007
3890.00,0.0008
3889.00,0.0008
3888.00,0.0008
3887.00,0.0008
3886.00,0.0008
3885.00,0.0008
3884.00,0.0008
3883.00,0.0008
3882.00,0.0007
3881.00,0.0007
3880.00,0.0007
3879.00,0.0008
3878.00,0.0008
3877.00,0.0007
3876.00,0.0007
3875.00,0.0008
3874.00,0.0009
3873.00,0.0009
3872.00,0.0009
3871.00,0.0008
3870.00,0.0008
3869.00,0.0008
3868.00,0.0008
3867.00,0.0007
3866.00,0.0007
3865.00,0.0006
3864.00,0.0006
3863.00,0.0006
3862.00,0.0006
3861.00,0.0007
3860.00,0.0007
3859.00,0.0007
3858.00,0.0008
3857.00,0.0009
3856.00,0.0009
3855.00,0.0008
3854.00,0.0008
3853.00,0.0008
3852.00,0.0008
3851.00,0.0008
3850.00,0.0007
3849.00,0.0007
3848.00,0.0007
3847.00,0.0007
3846.00,0.0007
3845.00,0.0007
3844.00,0.0007
3843.00,0.0007
3842.00,0.0007
3841.00,0.0007
3840.00,0.0007
3839.00,0.0007
3838.00,0.0007
3837.00,0.0007
3836.00,0.0007
3835.00,0.0007
3834.00,0.0007
3833.00,0.0007
3832.00,0.0007
3831.00,0.0007
3830.00,0.0007
3829.00,0.0007
3828.00,0.0007
3827.00,0.0008
3826.00,0.0008
3825.00,0.0008
3824.00,0.0008
3823.00,0.0008
3822.00,0.0007
3821.00,0.0008
3820.00,0.0009
3819.00,0.0009
3818.00,0.0008
3817.00,0.0008
3816.00,0.0008
3815.00,0.0007
3814.00,0.0007
3813.00,0.0007
3812.00,0.0007
3811.00,0.0007
3810.00,0.0008
3809.00,0.0008
3808.00,0.0008
3807.00,0.0007
3806.00,0.0008
3805.00,0.0008
3804.00,0.0008
3803.00,0.0008
3802.00,0.0008
3801.00,0.0008
3800.00,0.0008
3799.00,0.0008
3798.00,0.0007
3797.00,0.0006
3796.00,0.0006
3795.00,0.0007
3794.00,0.0007
3793.00,0.0007
3792.00,0.0007
3791.00,0.0007
3790.00,0.0008
3789.00,0.0007
3788.00,0.0007
3787.00,0.0007
3786.00,0.0007
3785.00,0.0007
3784.00,0.0007
3783.00,0.0008
3782.00,0.0008
3781.00,0.0007
3780.00,0.0007
3779.00,0.0007
3778.00,0.0007
3777.00,0.0007
3776.00,0.0007
3775.00,0.0007
3774.00,0.0008
3773.00,0.0008
3772.00,0.0008
3771.00,0.0008
3770.00,0.0008
3769.00,0.0008
3768.00,0.0008
3767.00,0.0008
3766.00,0.0008
3765.00,0.0008
3764.00,0.0009
3763.00,0.0009
3762.00,0.0009
3761.00,0.0008
3760.00,0.0008
3759.00,0.0007
3758.00,0.0007
3757.00,0.0007
3756.00,0.0007
3755.00,0.0007
3754.00,0.0007
3753.00,0.0008
3752.00,0.0009
3751.00,0.0010
3750.00,0.0011
3749.00,0.0011
3748.00,0.0011
3747.00,0.0011
3746.00,0.0011
3745.00,0.0010
3744.00,0.0010
3743.00,0.0009
3742.00,0.0008
3741.00,0.0007
3740.00,0.0007
3739.00,0.0007
3738.00,0.0007
3737.00,0.0007
3736.00,0.0007
3735.00,0.0006
3734.00,0.0007
3733.00,0.0007
3732.00,0.0007
3731.00,0.0007
3730.00,0.0007
3729.00,0.0007
3728.00,0.0007
3727.00,0.0006
3726.00,0.0006
3725.00,0.0006
3724.00,0.0006
3723.00,0.0006
3722.00,0.0006
3721.00,0.0006
3720.00,0.0006
3719.00,0.0006
3718.00,0.0006
3717.00,0.0006
3716.00,0.0006
3715.00,0.0005
3714.00,0.0005
3713.00,0.0005
3712.00,0.0005
3711.00,0.0005
3710.00,0.0005
3709.00,0.0005
3708.00,0.0005
3707.00,0.0005
3706.00,0.0006
3705.00,0.0006
3704.00,0.0006
3703.00,0.0006
3702.00,0.0006
3701.00,0.0007
3700.00,0.0007
3699.00,0.0007
3698.00,0.0007
3697.00,0.0007
3696.00,0.0007
3695.00,0.0007
3694.00,0.0007
3693.00,0.0007
3692.00,0.0007
3691.00,0.0007
3690.00,0.0007
3689.00,0.0008
3688.00,0.0008
3687.00,0.0009
3686.00,0.0008
3685.00,0.0008
3684.00,0.0007
3683.00,0.0006
3682.00,0.0006
3681.00,0.0006
3680.00,0.0007
3679.00,0.0008
3678.00,0.0009
3677.00,0.0009
3676.00,0.0009
3675.00,0.0009
3674.00,0.0009
3673.00,0.0009
3672.00,0.0009
3671.00,0.0009
3670.00,0.0008
3669.00,0.0008
3668.00,0.0008
3667.00,0.0007
3666.00,0.0007
3665.00,0.0007
3664.00,0.0007
3663.00,0.0007
3662.00,0.0007
3661.00,0.0007
3660.00,0.0008
3659.00,0.0008
3658.00,0.0008
3657.00,0.0008
3656.00,0.0009
3655.00,0.0009
3654.00,0.0009
3653.00,0.0009
3652.00,0.0009
3651.00,0.0009
3650.00,0.0009
3649.00,0.0009
3648.00,0.0009
3647.00,0.0009
3646.00,0.0009
3645.00,0.0009
3644.00,0.0008
3643.00,0.0008
3642.00,0.0008
3641.00,0.0008
3640.00,0.0009
3639.00,0.0009
3638.00,0.0010
3637.00,0.0010
3636.00,0.0010
3635.00,0.0010
3634.00,0.0010
3633.00,0.0010
3632.00,0.0010
3631.00,0.0010
3630.00,0.0010
3629.00,0.0010
3628.00,0.0010
3627.00,0.0011
3626.00,0.0011
3625.00,0.0011
3624.00,0.0011
3623.00,0.0012
3622.00,0.0012
3621.00,0.0012
3620.00,0.0012
3619.00,0.0012
3618.00,0.0012
3617.00,0.0012
3616.00,0.0012
3615.00,0.0012
3614.00,0.0013
3613.00,0.0014
3612.00,0.0014
3611.00,0.0014
3610.00,0.0013
3609.00,0.0013
3608.00,0.0013
3607.00,0.0013
3606.00,0.0013
3605.00,0.0014
3604.00,0.0014
3603.00,0.0014
3602.00,0.0014
3601.00,0.0014
3600.00,0.0014
3599.00,0.0015
3598.00,0.0015
3597.00,0.0016
3596.00,0.0017
3595.00,0.0017
3594.00,0.0017
3593.00,0.0017
3592.00,0.0017
3591.00,0.0018
3590.00,0.0018
3589.00,0.0019
3588.00,0.0019
3587.00,0.0020
3586.00,0.0020
3585.00,0.0020
3584.00,0.0020
3583.00,0.0020
3582.00,0.0020
3581.00,0.0020
3580.00,0.0020
3579.00,0.0020
3578.00,0.0020
3577.00,0.0020
3576.00,0.0021
3575.00,0.0021
3574.00,0.0021
3573.00,0.0021
3572.00,0.0021
3571.00,0.0022
3570.00,0.0022
3569.00,0.0023
3568.00,0.0024
3567.00,0.0025
3566.00,0.0025
3565.00,0.0025
3564.00,0.0024
3563.00,0.0024
3562.00,0.0024
3561.00,0.0025
3560.00,0.0025
3559.00,0.0026
3558.00,0.0027
3557.00,0.0027
3556.00,0.0028
3555.00,0.0028
3554.00,0.0028
3553.00,0.0027
3552.00,0.0027
3551.00,0.0027
3550.00,0.0028
3549.00,0.0029
3548.00,0.0029
3547.00,0.0030
3546.00,0.0030
3545.00,0.0030
3544.00,0.0031
3543.00,0.0031
3542.00,0.0032
3541.00,0.0032
3540.00,0.0032
3539.00,0.0032
3538.00,0.0032
3537.00,0.0032
3536.00,0.0033
3535.00,0.0034
3534.00,0.0034
3533.00,0.0034
3532.00,0.0034
3531.00,0.0034
3530.00,0.0034
3529.00,0.0034
3528.00,0.0034
3527.00,0.0035
3526.00,0.0035
3525.00,0.0036
3524.00,0.0036
3523.00,0.0036
3522.00,0.0036
3521.00,0.0036
3520.00,0.0036
3519.00,0.0036
3518.00,0.0037
3517.00,0.0037
3516.00,0.0037
3515.00,0.0037
3514.00,0.0037
3513.00,0.0037
3512.00,0.0038
3511.00,0.0038
3510.00,0.0038
3509.00,0.0039
3508.00,0.0039
3507.00,0.0039
3506.00,0.0040
3505.00,0.0040
3504.00,0.0041
3503.00,0.0041
3502.00,0.0041
3501.00,0.0041
3500.00,0.0041
3499.00,0.0041
3498.00,0.0042
3497.00,0.0042
3496.00,0.0042
3495.00,0.0042
3494.00,0.0043
3493.00,0.0043
3492.00,0.0044
3491.00,0.0044
3490.00,0.0044
3489.00,0.0044
3488.00,0.0044
3487.00,0.0044
3486.00,0.0045
3485.00,0.0045
3484.00,0.0045
3483.00,0.0046
3482.00,0.0046
3481.00,0.0046
3480.00,0.0046
3479.00,0.0047
3478.00,0.0047
3477.00,0.0048
3476.00,0.0048
3475.00,0.0048
3474.00,0.0048
3473.00,0.0048
3472.00,0.0048
3471.00,0.0048
3470.00,0.0049
3469.00,0.0049
3468.00,0.0049
3467.00,0.0050
3466.00,0.0050
3465.00,0.0051
3464.00,0.0051
3463.00,0.0051
3462.00,0.0052
3461.00,0.0052
3460.00,0.0052
3459.00,0.0051
3458.00,0.0052
3457.00,0.0052
3456.00,0.0052
3455.00,0.0052
3454.00,0.0052
3453.00,0.0052
3452.00,0.0052
3451.00,0.0053
3450.00,0.0053
3449.00,0.0054
3448.00,0.0054
3447.00,0.0054
3446.00,0.0054
3445.00,0.0054
3444.00,0.0054
3443.00,0.0055
3442.00,0.0055
3441.00,0.0056
3440.00,0.0056
3439.00,0.0056
3438.00,0.0056
3437.00,0.0056
3436.00,0.0056
3435.00,0.0056
3434.00,0.0057
3433.00,0.0057
3432.00,0.0057
3431.00,0.0058
3430.00,0.0058
3429.00,0.0058
3428.00,0.0058
3427.00,0.0058
3426.00,0.0058
3425.00,0.0058
3424.00,0.0059
3423.00,0.0059
3422.00,0.0059
3421.00,0.0059
3420.00,0.0059
3419.00,0.0059
3418.00,0.0059
3417.00,0.0059
3416.00,0.0059
3415.00,0.0059
3414.00,0.0059
3413.00,0.0060
3412.00,0.0060
3411.00,0.0060
3410.00,0.0061
3409.00,0.0061
3408.00,0.0061
3407.00,0.0061
3406.00,0.0062
3405.00,0.0062
3404.00,0.0062
3403.00,0.0062
3402.00,0.0062
3401.00,0.0062
3400.00,0.0062
3399.00,0.0062
3398.00,0.0062
3397.00,0.0062
3396.00,0.0062
3395.00,0.0063
3394.00,0.0063
3393.00,0.0063
3392.00,0.0063
3391.00,0.0063
3390.00,0.0063
3389.00,0.0063
3388.00,0.0063
3387.00,0.0063
3386.00,0.0063
3385.00,0.0063
3384.00,0.0063
3383.00,0.0063
3382.00,0.0063
3381.00,0.0063
3380.00,0.0063
3379.00,0.0063
3378.00,0.0063
3377.00,0.0064
3376.00,0.0064
3375.00,0.0064
3374.00,0.0064
3373.00,0.0064
3372.00,0.0064
3371.00,0.0064
3370.00,0.0064
3369.00,0.0064
3368.00,0.0064
3367.00,0.0064
3366.00,0.0064
3365.00,0.0064
3364.00,0.0064
3363.00,0.0064
3362.00,0.0064
3361.00,0.0064
3360.00,0.0065
3359.00,0.0065
3358.00,0.0065
3357.00,0.0065
3356.00,0.0065
3355.00,0.0065
3354.00,0.0065
3353.00,0.0065
3352.00,0.0065
3351.00,0.0065
3350.00,0.0065
3349.00,0.0065
3348.00,0.0065
3347.00,0.0065
3346.00,0.0065
3345.00,0.0065
3344.00,0.0065
3343.00,0.0065
3342.00,0.0065
3341.00,0.0065
3340.00,0.0064
3339.00,0.0064
3338.00,0.0064
3337.00,0.0064
3336.00,0.0064
3335.00,0.0064
3334.00,0.0064
3333.00,0.0064
3332.00,0.0063
3331.00,0.0063
3330.00,0.0063
3329.00,0.0063
3328.00,0.0063
3327.00,0.0063
3326.00,0.0062
3325.00,0.0062
3324.00,0.0062
3323.00,0.0062
3322.00,0.0062
3321.00,0.0062
3320.00,0.0062
3319.00,0.0062
3318.00,0.0062
3317.00,0.0062
3316.00,0.0062
3315.00,0.0062
3314.00,0.0061
3313.00,0.0061
3312.00,0.0061
3311.00,0.0061
3310.00,0.0061
3309.00,0.0061
3308.00,0.0061
3307.00,0.0061
3306.00,0.0061
3305.00,0.0061
3304.00,0.0061
3303.00,0.0061
3302.00,0.0061
3301.00,0.0061
3300.00,0.0062
3299.00,0.0062
3298.00,0.0062
3297.00,0.0062
3296.00,0.0061
3295.00,0.0061
3294.00,0.0061
3293.00,0.0061
3292.00,0.0061
3291.00,0.0061
3290.00,0.0060
3289.00,0.0060
3288.00,0.0060
3287.00,0.0060
3286.00,0.0060
3285.00,0.0059
3284.00,0.0059
3283.00,0.0059
3282.00,0.0058
3281.00,0.0058
3280.00,0.0058
3279.00,0.0058
3278.00,0.0058
3277.00,0.0058
3276.00,0.0058
3275.00,0.0058
3274.00,0.0058
3273.00,0.0058
3272.00,0.0058
3271.00,0.0057
3270.00,0.0057
3269.00,0.0057
3268.00,0.0057
3267.00,0.0057
3266.00,0.0057
3265.00,0.0057
3264.00,0.0057
3263.00,0.0056
3262.00,0.0056
3261.00,0.0056
3260.00,0.0056
3259.00,0.0055
3258.00,0.0055
3257.00,0.0055
3256.00,0.0055
3255.00,0.0055
3254.00,0.0055
3253.00,0.0055
3252.00,0.0054
3251.00,0.0054
3250.00,0.0054
3249.00,0.0053
3248.00,0.0053
3247.00,0.0053
3246.00,0.0053
3245.00,0.0053
3244.00,0.0053
3243.00,0.0053
3242.00,0.0053
3241.00,0.0053
3240.00,0.0053
3239.00,0.0052
3238.00,0.0052
3237.00,0.0052
3236.00,0.0052
3235.00,0.0052
3234.00,0.0052
3233.00,0.0052
3232.00,0.0053
3231.00,0.0053
3230.00,0.0053
3229.00,0.0053
3228.00,0.0054
3227.00,0.0054
3226.00,0.0053
3225.00,0.0053
3224.00,0.0053
3223.00,0.0053
3222.00,0.0054
3221.00,0.0054
3220.00,0.0054
3219.00,0.0054
3218.00,0.0054
3217.00,0.0055
3216.00,0.0055
3215.00,0.0055
3214.00,0.0055
3213.00,0.0055
3212.00,0.0055
3211.00,0.0056
3210.00,0.0056
3209.00,0.0056
3208.00,0.0056
3207.00,0.0056
3206.00,0.0056
3205.00,0.0056
3204.00,0.0056
3203.00,0.0056
3202.00,0.0056
3201.00,0.0056
3200.00,0.0055
3199.00,0.0055
3198.00,0.0055
3197.00,0.0055
3196.00,0.0055
3195.00,0.0055
3194.00,0.0056
3193.00,0.0056
3192.00,0.0056
3191.00,0.0055
3190.00,0.0055
3189.00,0.0055
3188.00,0.0054
3187.00,0.0054
3186.00,0.0054
3185.00,0.0054
3184.00,0.0054
3183.00,0.0053
3182.00,0.0053
3181.00,0.0053
3180.00,0.0053
3179.00,0.0053
3178.00,0.0052
3177.00,0.0052
3176.00,0.0051
3175.00,0.0051
3174.00,0.0050
3173.00,0.0050
3172.00,0.0050
3171.00,0.0050
3170.00,0.0050
3169.00,0.0050
3168.00,0.0050
3167.00,0.0050
3166.00,0.0049
3165.00,0.0049
3164.00,0.0049
3163.00,0.0049
3162.00,0.0049
3161.00,0.0049
3160.00,0.0049
3159.00,0.0049
3158.00,0.0048
3157.00,0.0048
3156.00,0.0048
3155.00,0.0048
3154.00,0.0047
3153.00,0.0047
3152.00,0.0047
3151.00,0.0047
3150.00,0.0047
3149.00,0.0048
3148.00,0.0048
3147.00,0.0048
3146.00,0.0047
3145.00,0.0047
3144.00,0.0047
3143.00,0.0047
3142.00,0.0046
3141.00,0.0046
3140.00,0.0046
3139.00,0.0045
3138.00,0.0045
3137.00,0.0045
3136.00,0.0045
3135.00,0.0045
3134.00,0.0045
3133.00,0.0045
3132.00,0.0045
3131.00,0.0045
3130.00,0.0044
3129.00,0.0044
3128.00,0.0044
3127.00,0.0043
3126.00,0.0043
3125.00,0.0043
3124.00,0.0043
3123.00,0.0042
3122.00,0.0042
3121.00,0.0041
3120.00,0.0041
3119.00,0.0041
3118.00,0.0040
3117.00,0.0040
3116.00,0.0039
3115.00,0.0039
3114.00,0.0039
3113.00,0.0039
3112.00,0.0039
3111.00,0.0039
3110.00,0.0039
3109.00,0.0039
3108.00,0.0039
3107.00,0.0039
3106.00,0.0039
3105.00,0.0039
3104.00,0.0039
3103.00,0.0039
3102.00,0.0039
3101.00,0.0038
3100.00,0.0038
3099.00,0.0038
3098.00,0.0038
3097.00,0.0038
3096.00,0.0038
3095.00,0.0038
3094.00,0.0038
3093.00,0.0038
3092.00,0.0038
3091.00,0.0037
3090.00,0.0037
3089.00,0.0037
3088.00,0.0037
3087.00,0.0037
3086.00,0.0036
3085.00,0.0036
3084.00,0.0036
3083.00,0.0036
3082.00,0.0036
3081.00,0.0037
3080.00,0.0037
3079.00,0.0036
3078.00,0.0036
3077.00,0.0036
3076.00,0.0036
3075.00,0.0035
3074.00,0.0035
3073.00,0.0035
3072.00,0.0035
3071.00,0.0035
3070.00,0.0035
3069.00,0.0035
3068.00,0.0035
3067.00,0.0036
3066.00,0.0036
3065.00,0.0036
3064.00,0.0037
3063.00,0.0037
3062.00,0.0037
3061.00,0.0037
3060.00,0.0037
3059.00,0.0037
3058.00,0.0037
3057.00,0.0038
3056.00,0.0038
3055.00,0.0038
3054.00,0.0038
3053.00,0.0038
3052.00,0.0038
3051.00,0.0039
3050.00,0.0039
3049.00,0.0039
3048.00,0.0039
3047.00,0.0039
3046.00,0.0039
3045.00,0.0039
3044.00,0.0039
3043.00,0.0039
3042.00,0.0039
3041.00,0.0040
3040.00,0.0040
3039.00,0.0040
3038.00,0.0041
3037.00,0.0041
3036.00,0.0041
3035.00,0.0042
3034.00,0.0042
3033.00,0.0042
3032.00,0.0043
3031.00,0.0043
3030.00,0.0043
3029.00,0.0044
3028.00,0.0044
3027.00,0.0045
3026.00,0.0045
3025.00,0.0046
3024.00,0.0047
3023.00,0.0047
3022.00,0.0048
3021.00,0.0049
3020.00,0.0049
3019.00,0.0050
3018.00,0.0051
3017.00,0.0052
3016.00,0.0053
3015.00,0.0054
3014.00,0.0056
3013.00,0.0057
3012.00,0.0058
3011.00,0.0059
3010.00,0.0061
3009.00,0.0062
3008.00,0.0064
3007.00,0.0065
3006.00,0.0067
3005.00,0.0069
3004.00,0.0071
3003.00,0.0074
3002.00,0.0077
3001.00,0.0080
3000.00,0.0082
2999.00,0.0085
2998.00,0.0089
2997.00,0.0093
2996.00,0.0097
2995.00,0.0102
2994.00,0.0107
2993.00,0.0112
2992.00,0.0118
2991.00,0.0124
2990.00,0.0131
2989.00,0.0138
2988.00,0.0147
2987.00,0.0157
2986.00,0.0168
2985.00,0.0180
2984.00,0.0193
2983.00,0.0208
2982.00,0.0225
2981.00,0.0243
2980.00,0.0264
2979.00,0.0288
2978.00,0.0315
2977.00,0.0346
2976.00,0.0381
2975.00,0.0422
2974.00,0.0467
2973.00,0.0519
2972.00,0.0578
2971.00,0.0644
2970.00,0.0718
2969.00,0.0800
2968.00,0.0891
2967.00,0.0989
2966.00,0.1094
2965.00,0.1204
2964.00,0.1316
2963.00,0.1425
2962.00,0.1526
2961.00,0.1614
2960.00,0.1686
2959.00,0.1740
2958.00,0.1781
2957.00,0.1812
2956.00,0.1840
2955.00,0.1869
2954.00,0.1903
2953.00,0.1940
2952.00,0.1972
2951.00,0.1992
2950.00,0.1989
2949.00,0.1955
2948.00,0.1888
2947.00,0.1790
2946.00,0.1668
2945.00,0.1535
2944.00,0.1405
2943.00,0.1288
2942.00,0.1194
2941.00,0.1124
2940.00,0.1080
2939.00,0.1059
2938.00,0.1059
2937.00,0.1078
2936.00,0.1113
2935.00,0.1164
2934.00,0.1227
2933.00,0.1303
2932.00,0.1388
2931.00,0.1482
2930.00,0.1580
2929.00,0.1680
2928.00,0.1778
2927.00,0.1872
2926.00,0.1961
2925.00,0.2046
2924.00,0.2127
2923.00,0.2205
2922.00,0.2282
2921.00,0.2353
2920.00,0.2416
2919.00,0.2464
2918.00,0.2490
2917.00,0.2489
2916.00,0.2460
2915.00,0.2406
2914.00,0.2335
2913.00,0.2254
2912.00,0.2173
2911.00,0.2096
2910.00,0.2026
2909.00,0.1963
2908.00,0.1903
2907.00,0.1845
2906.00,0.1786
2905.00,0.1724
2904.00,0.1659
2903.00,0.1592
2902.00,0.1523
2901.00,0.1455
2900.00,0.1388
2899.00,0.1324
2898.00,0.1265
2897.00,0.1210
2896.00,0.1162
2895.00,0.1121
2894.00,0.1087
2893.00,0.1061
2892.00,0.1041
2891.00,0.1028
2890.00,0.1020
2889.00,0.1017
2888.00,0.1019
2887.00,0.1024
2886.00,0.1033
2885.00,0.1046
2884.00,0.1062
2883.00,0.1083
2882.00,0.1107
2881.00,0.1132
2880.00,0.1157
2879.00,0.1178
2878.00,0.1192
2877.00,0.1197
2876.00,0.1193
2875.00,0.1185
2874.00,0.1177
2873.00,0.1174
2872.00,0.1177
2871.00,0.1188
2870.00,0.1204
2869.00,0.1220
2868.00,0.1230
2867.00,0.1225
2866.00,0.1200
2865.00,0.1150
2864.00,0.1078
2863.00,0.0993
2862.00,0.0903
2861.00,0.0819
2860.00,0.0746
2859.00,0.0687
2858.00,0.0643
2857.00,0.0612
2856.00,0.0592
2855.00,0.0581
2854.00,0.0579
2853.00,0.0584
2852.00,0.0596
2851.00,0.0614
2850.00,0.0636
2849.00,0.0664
2848.00,0.0698
2847.00,0.0740
2846.00,0.0790
2845.00,0.0849
2844.00,0.0917
2843.00,0.0992
2842.00,0.1070
2841.00,0.1144
2840.00,0.1207
2839.00,0.1248
2838.00,0.1260
2837.00,0.1236
2836.00,0.1177
2835.00,0.1088
2834.00,0.0980
2833.00,0.0866
2832.00,0.0757
2831.00,0.0660
2830.00,0.0577
2829.00,0.0510
2828.00,0.0455
2827.00,0.0411
2826.00,0.0375
2825.00,0.0345
2824.00,0.0320
2823.00,0.0299
2822.00,0.0281
2821.00,0.0265
2820.00,0.0252
2819.00,0.0241
2818.00,0.0230
2817.00,0.0222
2816.00,0.0214
2815.00,0.0207
2814.00,0.0201
2813.00,0.0195
2812.00,0.0189
2811.00,0.0184
2810.00,0.0178
2809.00,0.0173
2808.00,0.0167
2807.00,0.0161
2806.00,0.0155
2805.00,0.0149
2804.00,0.0143
2803.00,0.0137
2802.00,0.0131
2801.00,0.0126
2800.00,0.0123
2799.00,0.0120
2798.00,0.0117
2797.00,0.0115
2796.00,0.0113
2795.00,0.0110
2794.00,0.0107
2793.00,0.0104
2792.00,0.0101
2791.00,0.0097
2790.00,0.0093
2789.00,0.0090
2788.00,0.0087
2787.00,0.0084
2786.00,0.0081
2785.00,0.0079
2784.00,0.0076
2783.00,0.0074
2782.00,0.0072
2781.00,0.0070
2780.00,0.0068
2779.00,0.0066
2778.00,0.0065
2777.00,0.0063
2776.00,0.0062
2775.00,0.0061
2774.00,0.0060
2773.00,0.0059
2772.00,0.0059
2771.00,0.0058
2770.00,0.0058
2769.00,0.0058
2768.00,0.0057
2767.00,0.0057
2766.00,0.0056
2765.00,0.0056
2764.00,0.0055
2763.00,0.0055
2762.00,0.0055
2761.00,0.0054
2760.00,0.0054
2759.00,0.0054
2758.00,0.0054
2757.00,0.0054
2756.00,0.0054
2755.00,0.0054
2754.00,0.0053
2753.00,0.0053
2752.00,0.0053
2751.00,0.0052
2750.00,0.0052
2749.00,0.0052
2748.00,0.0053
2747.00,0.0053
2746.00,0.0054
2745.00,0.0054
2744.00,0.0055
2743.00,0.0056
2742.00,0.0057
2741.00,0.0058
2740.00,0.0059
2739.00,0.0060
2738.00,0.0062
2737.00,0.0063
2736.00,0.0065
2735.00,0.0066
2734.00,0.0068
2733.00,0.0069
2732.00,0.0071
2731.00,0.0073
2730.00,0.0075
2729.00,0.0078
2728.00,0.0080
2727.00,0.0083
2726.00,0.0085
2725.00,0.0088
2724.00,0.0089
2723.00,0.0090
2722.00,0.0089
2721.00,0.0087
2720.00,0.0084
2719.00,0.0081
2718.00,0.0077
2717.00,0.0074
2716.00,0.0071
2715.00,0.0069
2714.00,0.0066
2713.00,0.0064
2712.00,0.0062
2711.00,0.0060
2710.00,0.0059
2709.00,0.0058
2708.00,0.0057
2707.00,0.0055
2706.00,0.0054
2705.00,0.0053
2704.00,0.0051
2703.00,0.0050
2702.00,0.0049
2701.00,0.0049
2700.00,0.0048
2699.00,0.0047
2698.00,0.0047
2697.00,0.0047
2696.00,0.0046
2695.00,0.0046
2694.00,0.0046
2693.00,0.0046
2692.00,0.0046
2691.00,0.0047
2690.00,0.0046
2689.00,0.0046
2688.00,0.0046
2687.00,0.0046
2686.00,0.0046
2685.00,0.0045
2684.00,0.0045
2683.00,0.0046
2682.00,0.0046
2681.00,0.0046
2680.00,0.0047
2679.00,0.0047
2678.00,0.0048
2677.00,0.0047
2676.00,0.0047
2675.00,0.0046
2674.00,0.0046
2673.00,0.0046
2672.00,0.0046
2671.00,0.0046
2670.00,0.0046
2669.00,0.0046
2668.00,0.0046
2667.00,0.0046
2666.00,0.0046
2665.00,0.0047
2664.00,0.0047
2663.00,0.0048
2662.00,0.0048
2661.00,0.0049
2660.00,0.0049
2659.00,0.0049
2658.00,0.0049
2657.00,0.0048
2656.00,0.0048
2655.00,0.0048
2654.00,0.0047
2653.00,0.0047
2652.00,0.0046
2651.00,0.0045
2650.00,0.0045
2649.00,0.0044
2648.00,0.0044
2647.00,0.0043
2646.00,0.0043
2645.00,0.0042
2644.00,0.0042
2643.00,0.0041
2642.00,0.0041
2641.00,0.0041
2640.00,0.0041
2639.00,0.0041
2638.00,0.0041
2637.00,0.0040
2636.00,0.0040
2635.00,0.0040
2634.00,0.0040
2633.00,0.0040
2632.00,0.0040
2631.00,0.0040
2630.00,0.0040
2629.00,0.0040
2628.00,0.0041
2627.00,0.0041
2626.00,0.0041
2625.00,0.0041
2624.00,0.0041
2623.00,0.0041
2622.00,0.0041
2621.00,0.0041
2620.00,0.0040
2619.00,0.0040
2618.00,0.0040
2617.00,0.0040
2616.00,0.0041
2615.00,0.0041
2614.00,0.0040
2613.00,0.0040
2612.00,0.0040
2611.00,0.0039
2610.00,0.0039
2609.00,0.0039
2608.00,0.0038
2607.00,0.0037
2606.00,0.0036
2605.00,0.0035
2604.00,0.0034
2603.00,0.0033
2602.00,0.0033
2601.00,0.0032
2600.00,0.0032
2599.00,0.0032
2598.00,0.0033
2597.00,0.0033
2596.00,0.0033
2595.00,0.0032
2594.00,0.0032
2593.00,0.0032
2592.00,0.0033
2591.00,0.0034
2590.00,0.0035
2589.00,0.0036
2588.00,0.0037
2587.00,0.0038
2586.00,0.0039
2585.00,0.0040
2584.00,0.0040
2583.00,0.0040
2582.00,0.0040
2581.00,0.0039
2580.00,0.0038
2579.00,0.0037
2578.00,0.0036
2577.00,0.0036
2576.00,0.0036
2575.00,0.0035
2574.00,0.0034
2573.00,0.0033
2572.00,0.0031
2571.00,0.0030
2570.00,0.0029
2569.00,0.0029
2568.00,0.0029
2567.00,0.0028
2566.00,0.0028
2565.00,0.0027
2564.00,0.0027
2563.00,0.0026
2562.00,0.0026
2561.00,0.0025
2560.00,0.0024
2559.00,0.0024
2558.00,0.0023
2557.00,0.0023
2556.00,0.0024
2555.00,0.0024
2554.00,0.0023
2553.00,0.0023
2552.00,0.0022
2551.00,0.0022
2550.00,0.0022
2549.00,0.0021
2548.00,0.0020
2547.00,0.0019
2546.00,0.0019
2545.00,0.0019
2544.00,0.0020
2543.00,0.0020
2542.00,0.0020
2541.00,0.0020
2540.00,0.0019
2539.00,0.0018
2538.00,0.0017
2537.00,0.0016
2536.00,0.0016
2535.00,0.0016
2534.00,0.0017
2533.00,0.0017
2532.00,0.0018
2531.00,0.0018
2530.00,0.0017
2529.00,0.0016
2528.00,0.0016
2527.00,0.0016
2526.00,0.0016
2525.00,0.0015
2524.00,0.0015
2523.00,0.0014
2522.00,0.0014
2521.00,0.0013
2520.00,0.0013
2519.00,0.0013
2518.00,0.0013
2517.00,0.0012
2516.00,0.0012
2515.00,0.0011
2514.00,0.0011
2513.00,0.0011
2512.00,0.0011
2511.00,0.0010
2510.00,0.0010
2509.00,0.0010
2508.00,0.0010
2507.00,0.0010
2506.00,0.0010
2505.00,0.0010
2504.00,0.0010
2503.00,0.0010
2502.00,0.0010
2501.00,0.0010
2500.00,0.0011
2499.00,0.0012
2498.00,0.0012
2497.00,0.0011
2496.00,0.0011
2495.00,0.0010
2494.00,0.0010
2493.00,0.0010
2492.00,0.0010
2491.00,0.0010
2490.00,0.0010
2489.00,0.0010
2488.00,0.0010
2487.00,0.0010
2486.00,0.0010
2485.00,0.0010
2484.00,0.0011
2483.00,0.0011
2482.00,0.0011
2481.00,0.0011
2480.00,0.0011
2479.00,0.0011
2478.00,0.0010
2477.00,0.0010
2476.00,0.0010
2475.00,0.0009
2474.00,0.0009
2473.00,0.0009
2472.00,0.0009
2471.00,0.0009
2470.00,0.0009
2469.00,0.0009
2468.00,0.0009
2467.00,0.0009
2466.00,0.0009
2465.00,0.0009
2464.00,0.0009
2463.00,0.0010
2462.00,0.0010
2461.00,0.0010
2460.00,0.0011
2459.00,0.0011
2458.00,0.0011
2457.00,0.0011
2456.00,0.0011
2455.00,0.0012
2454.00,0.0012
2453.00,0.0012
2452.00,0.0012
2451.00,0.0012
2450.00,0.0012
2449.00,0.0012
2448.00,0.0013
2447.00,0.0013
2446.00,0.0013
2445.00,0.0013
2444.00,0.0013
2443.00,0.0013
2442.00,0.0013
2441.00,0.0012
2440.00,0.0012
2439.00,0.0012
2438.00,0.0011
2437.00,0.0011
2436.00,0.0011
2435.00,0.0011
2434.00,0.0011
2433.00,0.0012
2432.00,0.0012
2431.00,0.0013
2430.00,0.0013
2429.00,0.0013
2428.00,0.0013
2427.00,0.0013
2426.00,0.0013
2425.00,0.0012
2424.00,0.0012
2423.00,0.0011
2422.00,0.0011
2421.00,0.0011
2420.00,0.0012
2419.00,0.0011
2418.00,0.0011
2417.00,0.0010
2416.00,0.0010
2415.00,0.0011
2414.00,0.0011
2413.00,0.0011
2412.00,0.0011
2411.00,0.0011
2410.00,0.0012
2409.00,0.0011
2408.00,0.0011
2407.00,0.0011
2406.00,0.0011
2405.00,0.0011
2404.00,0.0011
2403.00,0.0011
2402.00,0.0010
2401.00,0.0010
2400.00,0.0009
2399.00,0.0009
2398.00,0.0009
2397.00,0.0009
2396.00,0.0009
2395.00,0.0010
2394.00,0.0010
2393.00,0.0010
2392.00,0.0009
2391.00,0.0009
2390.00,0.0009
2389.00,0.0010
2388.00,0.0010
2387.00,0.0011
2386.00,0.0010
2385.00,0.0010
2384.00,0.0009
2383.00,0.0008
2382.00,0.0007
2381.00,0.0006
2380.00,0.0006
2379.00,0.0006
2378.00,0.0007
2377.00,0.0008
2376.00,0.0008
2375.00,0.0007
2374.00,0.0007
2373.00,0.0008
2372.00,0.0009
2371.00,0.0009
2370.00,0.0009
2369.00,0.0009
2368.00,0.0008
2367.00,0.0007
2366.00,0.0007
2365.00,0.0007
2364.00,0.0008
2363.00,0.0008
2362.00,0.0009
2361.00,0.0010
2360.00,0.0010
2359.00,0.0010
2358.00,0.0010
2357.00,0.0010
2356.00,0.0010
2355.00,0.0009
2354.00,0.0009
2353.00,0.0008
2352.00,0.0008
2351.00,0.0008
2350.00,0.0009
2349.00,0.0010
2348.00,0.0010
2347.00,0.0011
2346.00,0.0011
2345.00,0.0011
2344.00,0.0012
2343.00,0.0013
2342.00,0.0013
2341.00,0.0013
2340.00,0.0013
2339.00,0.0013
2338.00,0.0012
2337.00,0.0012
2336.00,0.0012
2335.00,0.0012
2334.00,0.0012
2333.00,0.0011
2332.00,0.0010
2331.00,0.0010
2330.00,0.0011
2329.00,0.0011
2328.00,0.0013
2327.00,0.0016
2326.00,0.0020
2325.00,0.0023
2324.00,0.0025
2323.00,0.0024
2322.00,0.0022
2321.00,0.0020
2320.00,0.0018
2319.00,0.0018
2318.00,0.0017
2317.00,0.0017
2316.00,0.0017
2315.00,0.0016
2314.00,0.0015
2313.00,0.0013
2312.00,0.0013
2311.00,0.0012
2310.00,0.0012
2309.00,0.0012
2308.00,0.0012
2307.00,0.0012
2306.00,0.0012
2305.00,0.0012
2304.00,0.0013
2303.00,0.0013
2302.00,0.0013
2301.00,0.0014
2300.00,0.0014
2299.00,0.0015
2298.00,0.0015
2297.00,0.0015
2296.00,0.0015
2295.00,0.0015
2294.00,0.0015
2293.00,0.0016
2292.00,0.0016
2291.00,0.0017
2290.00,0.0018
2289.00,0.0018
2288.00,0.0019
2287.00,0.0020
2286.00,0.0020
2285.00,0.0020
2284.00,0.0019
2283.00,0.0018
2282.00,0.0017
2281.00,0.0016
2280.00,0.0016
2279.00,0.0016
2278.00,0.0016
2277.00,0.0016
2276.00,0.0016
2275.00,0.0015
2274.00,0.0014
2273.00,0.0013
2272.00,0.0012
2271.00,0.0011
2270.00,0.0011
2269.00,0.0012
2268.00,0.0012
2267.00,0.0011
2266.00,0.0011
2265.00,0.0011
2264.00,0.0012
2263.00,0.0012
2262.00,0.0012
2261.00,0.0013
2260.00,0.0013
2259.00,0.0014
2258.00,0.0013
2257.00,0.0012
2256.00,0.0011
2255.00,0.0011
2254.00,0.0010
2253.00,0.0010
2252.00,0.0009
2251.00,0.0008
2250.00,0.0007
2249.00,0.0008
2248.00,0.0008
2247.00,0.0009
2246.00,0.0010
2245.00,0.0011
2244.00,0.0012
2243.00,0.0012
2242.00,0.0012
2241.00,0.0010
2240.00,0.0010
2239.00,0.0010
2238.00,0.0010
2237.00,0.0010
2236.00,0.0010
2235.00,0.0010
2234.00,0.0010
2233.00,0.0010
2232.00,0.0010
2231.00,0.0010
2230.00,0.0009
2229.00,0.0008
2228.00,0.0007
2227.00,0.0006
2226.00,0.0005
2225.00,0.0006
2224.00,0.0007
2223.00,0.0008
2222.00,0.0009
2221.00,0.0010
2220.00,0.0010
2219.00,0.0008
2218.00,0.0006
2217.00,0.0005
2216.00,0.0005
2215.00,0.0006
2214.00,0.0006
2213.00,0.0006
2212.00,0.0005
2211.00,0.0004
2210.00,0.0002
2209.00,0.0001
2208.00,0.0002
2207.00,0.0004
2206.00,0.0006
2205.00,0.0008
2204.00,0.0009
2203.00,0.0009
2202.00,0.0008
2201.00,0.0008
2200.00,0.0008
2199.00,0.0008
2198.00,0.0008
2197.00,0.0007
2196.00,0.0007
2195.00,0.0006
2194.00,0.0006
2193.00,0.0006
2192.00,0.0006
2191.00,0.0006
2190.00,0.0004
2189.00,0.0004
2188.00,0.0003
2187.00,0.0004
2186.00,0.0006
2185.00,0.0009
2184.00,0.0012
2183.00,0.0011
2182.00,0.0008
2181.00,0.0005
2180.00,0.0003
2179.00,0.0003
2178.00,0.0003
2177.00,0.0003
2176.00,0.0002
2175.00,0.0001
2174.00,0.0000
2173.00,0.0000
2172.00,0.0001
2171.00,0.0001
2170.00,0.0003
2169.00,0.0006
2168.00,0.0010
2167.00,0.0012
2166.00,0.0013
2165.00,0.0013
2164.00,0.0013
2163.00,0.0014
2162.00,0.0015
2161.00,0.0013
2160.00,0.0004
2159.00,-0.0009
2158.00,-0.0021
2157.00,-0.0026
2156.00,-0.0027
2155.00,-0.0026
2154.00,-0.0025
2153.00,-0.0024
2152.00,-0.0021
2151.00,-0.0019
2150.00,-0.0017
2149.00,-0.0015
2148.00,-0.0014
2147.00,-0.0012
2146.00,-0.0011
2145.00,-0.0011
2144.00,-0.0011
2143.00,-0.0012
2142.00,-0.0013
2141.00,-0.0014
2140.00,-0.0013
2139.00,-0.0011
2138.00,-0.0010
2137.00,-0.0009
2136.00,-0.0011
2135.00,-0.0014
2134.00,-0.0017
2133.00,-0.0018
2132.00,-0.0017
2131.00,-0.0015
2130.00,-0.0013
2129.00,-0.0011
2128.00,-0.0009
2127.00,-0.0007
2126.00,-0.0006
2125.00,-0.0005
2124.00,-0.0004
2123.00,-0.0003
2122.00,-0.0002
2121.00,-0.0000
2120.00,0.0001
2119.00,0.0002
2118.00,0.0003
2117.00,0.0004
2116.00,0.0005
2115.00,0.0005
2114.00,0.0005
2113.00,0.0004
2112.00,0.0003
2111.00,0.0003
2110.00,0.0003
2109.00,0.0003
2108.00,0.0004
2107.00,0.0005
2106.00,0.0004
2105.00,0.0003
2104.00,0.0002
2103.00,0.0001
2102.00,0.0002
2101.00,0.0003
2100.00,0.0005
2099.00,0.0005
2098.00,0.0004
2097.00,0.0001
2096.00,-0.0002
2095.00,-0.0004
2094.00,-0.0005
2093.00,-0.0004
2092.00,-0.0002
2091.00,-0.0000
2090.00,0.0000
2089.00,0.0001
2088.00,-0.0000
2087.00,-0.0001
2086.00,-0.0002
2085.00,-0.0001
2084.00,0.0000
2083.00,0.0002
2082.00,0.0003
2081.00,0.0005
2080.00,0.0006
2079.00,0.0007
2078.00,0.0008
2077.00,0.0008
2076.00,0.0008
2075.00,0.0007
2074.00,0.0005
2073.00,0.0004
2072.00,0.0003
2071.00,0.0002
2070.00,0.0002
2069.00,0.0001
2068.00,0.0002
2067.00,0.0004
2066.00,0.0005
2065.00,0.0006
2064.00,0.0006
2063.00,0.0004
2062.00,0.0002
2061.00,-0.0000
2060.00,-0.0001
2059.00,-0.0001
2058.00,0.0000
2057.00,0.0003
2056.00,0.0004
2055.00,0.0005
2054.00,0.0006
2053.00,0.0007
2052.00,0.0009
2051.00,0.0010
2050.00,0.0009
2049.00,0.0006
2048.00,0.0004
2047.00,0.0002
2046.00,0.0000
2045.00,-0.0000
2044.00,0.0001
2043.00,0.0001
2042.00,0.0001
2041.00,-0.0000
2040.00,-0.0001
2039.00,-0.0001
2038.00,0.0001
2037.00,0.0002
2036.00,0.0002
2035.00,-0.0001
2034.00,-0.0004
2033.00,-0.0007
2032.00,-0.0010
2031.00,-0.0013
2030.00,-0.0015
2029.00,-0.0017
2028.00,-0.0017
2027.00,-0.0016
2026.00,-0.0014
2025.00,-0.0011
2024.00,-0.0008
2023.00,-0.0005
2022.00,-0.0003
2021.00,-0.0003
2020.00,-0.0003
2019.00,-0.0006
2018.00,-0.0009
2017.00,-0.0011
2016.00,-0.0013
2015.00,-0.0013
2014.00,-0.0011
2013.00,-0.0008
2012.00,-0.0005
2011.00,-0.0004
2010.00,-0.0007
2009.00,-0.0010
2008.00,-0.0014
2007.00,-0.0018
2006.00,-0.0019
2005.00,-0.0018
2004.00,-0.0014
2003.00,-0.0011
2002.00,-0.0009
2001.00,-0.0008
2000.00,-0.0009
1999.00,-0.0010
1998.00,-0.0012
1997.00,-0.0012
1996.00,-0.0010
1995.00,-0.0009
1994.00,-0.0008
1993.00,-0.0008
1992.00,-0.0007
1991.00,-0.0007
1990.00,-0.0005
1989.00,-0.0003
1988.00,0.0000
1987.00,0.0002
1986.00,0.0003
1985.00,0.0004
1984.00,0.0006
1983.00,0.0009
1982.00,0.0013
1981.00,0.0017
1980.00,0.0018
1979.00,0.0013
1978.00,0.0002
1977.00,-0.0008
1976.00,-0.0013
1975.00,-0.0014
1974.00,-0.0013
1973.00,-0.0012
1972.00,-0.0012
1971.00,-0.0011
1970.00,-0.0011
1969.00,-0.0010
1968.00,-0.0008
1967.00,-0.0006
1966.00,-0.0007
1965.00,-0.0009
1964.00,-0.0011
1963.00,-0.0012
1962.00,-0.0013
1961.00,-0.0013
1960.00,-0.0013
1959.00,-0.0014
1958.00,-0.0015
1957.00,-0.0014
1956.00,-0.0012
1955.00,-0.0012
1954.00,-0.0013
1953.00,-0.0014
1952.00,-0.0014
1951.00,-0.0013
1950.00,-0.0012
1949.00,-0.0011
1948.00,-0.0011
1947.00,-0.0012
1946.00,-0.0012
1945.00,-0.0011
1944.00,-0.0010
1943.00,-0.0010
1942.00,-0.0010
1941.00,-0.0012
1940.00,-0.0012
1939.00,-0.0012
1938.00,-0.0012
1937.00,-0.0010
1936.00,-0.0009
1935.00,-0.0009
1934.00,-0.0008
1933.00,-0.0007
1932.00,-0.0005
1931.00,-0.0004
1930.00,-0.0004
1929.00,-0.0005
1928.00,-0.0006
1927.00,-0.0006
1926.00,-0.0006
1925.00,-0.0006
1924.00,-0.0005
1923.00,-0.0004
1922.00,-0.0003
1921.00,-0.0001
1920.00,0.0000
1919.00,0.0001
1918.00,0.0000
1917.00,-0.0001
1916.00,-0.0001
1915.00,-0.0002
1914.00,-0.0002
1913.00,-0.0002
1912.00,-0.0002
1911.00,-0.0002
1910.00,-0.0002
1909.00,-0.0001
1908.00,-0.0000
1907.00,0.0000
1906.00,0.0000
1905.00,-0.0000
1904.00,-0.0001
1903.00,-0.0001
1902.00,-0.0001
1901.00,-0.0001
1900.00,-0.0000
1899.00,0.0000
1898.00,0.0001
1897.00,0.0001
1896.00,0.0001
1895.00,0.0001
1894.00,0.0001
1893.00,0.0001
1892.00,0.0001
1891.00,0.0001
1890.00,-0.0000
1889.00,-0.0001
1888.00,-0.0001
1887.00,-0.0001
1886.00,-0.0000
1885.00,0.0000
1884.00,0.0001
1883.00,0.0001
1882.00,0.0001
1881.00,0.0001
1880.00,0.0001
1879.00,0.0001
1878.00,0.0001
1877.00,0.0001
1876.00,0.0001
1875.00,0.0001
1874.00,0.0001
1873.00,0.0001
1872.00,0.0001
1871.00,0.0001
1870.00,0.0001
1869.00,0.0002
1868.00,0.0002
1867.00,0.0002
1866.00,0.0002
1865.00,0.0002
1864.00,0.0002
1863.00,0.0003
1862.00,0.0003
1861.00,0.0002
1860.00,0.0002
1859.00,0.0002
1858.00,0.0002
1857.00,0.0001
1856.00,0.0001
1855.00,0.0001
1854.00,0.0001
1853.00,0.0001
1852.00,0.0002
1851.00,0.0001
1850.00,0.0001
1849.00,0.0001
1848.00,0.0001
1847.00,0.0001
1846.00,0.0002
1845.00,0.0003
1844.00,0.0003
1843.00,0.0003
1842.00,0.0003
1841.00,0.0003
1840.00,0.0003
1839.00,0.0003
1838.00,0.0003
1837.00,0.0003
1836.00,0.0003
1835.00,0.0004
1834.00,0.0004
1833.00,0.0005
1832.00,0.0005
1831.00,0.0005
1830.00,0.0004
1829.00,0.0004
1828.00,0.0005
1827.00,0.0005
1826.00,0.0006
1825.00,0.0006
1824.00,0.0006
1823.00,0.0006
1822.00,0.0005
1821.00,0.0005
1820.00,0.0005
1819.00,0.0004
1818.00,0.0003
1817.00,0.0002
1816.00,0.0002
1815.00,0.0002
1814.00,0.0002
1813.00,0.0003
1812.00,0.0003
1811.00,0.0004
1810.00,0.0004
1809.00,0.0005
1808.00,0.0006
1807.00,0.0007
1806.00,0.0007
1805.00,0.0007
1804.00,0.0007
1803.00,0.0007
1802.00,0.0007
1801.00,0.0006
1800.00,0.0006
1799.00,0.0006
1798.00,0.0007
1797.00,0.0007
1796.00,0.0007
1795.00,0.0008
1794.00,0.0008
1793.00,0.0008
1792.00,0.0009
1791.00,0.0009
1790.00,0.0009
1789.00,0.0009
1788.00,0.0009
1787.00,0.0010
1786.00,0.0010
1785.00,0.0011
1784.00,0.0011
1783.00,0.0011
1782.00,0.0011
1781.00,0.0010
1780.00,0.0010
1779.00,0.0009
1778.00,0.0009
1777.00,0.0009
1776.00,0.0009
1775.00,0.0009
1774.00,0.0009
1773.00,0.0009
1772.00,0.0010
1771.00,0.0010
1770.00,0.0011
1769.00,0.0011
1768.00,0.0012
1767.00,0.0012
1766.00,0.0012
1765.00,0.0012
1764.00,0.0012
1763.00,0.0012
1762.00,0.0012
1761.00,0.0012
1760.00,0.0013
1759.00,0.0013
1758.00,0.0014
1757.00,0.0015
1756.00,0.0016
1755.00,0.0016
1754.00,0.0016
1753.00,0.0017
1752.00,0.0018
1751.00,0.0018
1750.00,0.0018
1749.00,0.0019
1748.00,0.0019
1747.00,0.0020
1746.00,0.0021
1745.00,0.0021
1744.00,0.0022
1743.00,0.0022
1742.00,0.0023
1741.00,0.0023
1740.00,0.0024
1739.00,0.0024
1738.00,0.0025
1737.00,0.0025
1736.00,0.0025
1735.00,0.0025
1734.00,0.0025
1733.00,0.0025
1732.00,0.0025
1731.00,0.0025
1730.00,0.0025
1729.00,0.0025
1728.00,0.0025
1727.00,0.0025
1726.00,0.0025
1725.00,0.0025
1724.00,0.0025
1723.00,0.0026
1722.00,0.0026
1721.00,0.0026
1720.00,0.0026
1719.00,0.0025
1718.00,0.0026
1717.00,0.0026
1716.00,0.0027
1715.00,0.0026
1714.00,0.0026
1713.00,0.0026
1712.00,0.0027
1711.00,0.0027
1710.00,0.0028
1709.00,0.0029
1708.00,0.0030
1707.00,0.0030
1706.00,0.0031
1705.00,0.0032
1704.00,0.0033
1703.00,0.0035
1702.00,0.0036
1701.00,0.0037
1700.00,0.0039
1699.00,0.0040
1698.00,0.0040
1697.00,0.0041
1696.00,0.0044
1695.00,0.0047
1694.00,0.0050
1693.00,0.0052
1692.00,0.0054
1691.00,0.0057
1690.00,0.0060
1689.00,0.0063
1688.00,0.0066
1687.00,0.0069
1686.00,0.0071
1685.00,0.0075
1684.00,0.0081
1683.00,0.0085
1682.00,0.0087
1681.00,0.0090
1680.00,0.0093
1679.00,0.0095
1678.00,0.0098
1677.00,0.0100
1676.00,0.0102
1675.00,0.0104
1674.00,0.0105
1673.00,0.0107
1672.00,0.0108
1671.00,0.0110
1670.00,0.0112
1669.00,0.0114
1668.00,0.0115
1667.00,0.0115
1666.00,0.0116
1665.00,0.0116
1664.00,0.0117
1663.00,0.0117
1662.00,0.0118
1661.00,0.0118
1660.00,0.0117
1659.00,0.0117
1658.00,0.0116
1657.00,0.0116
1656.00,0.0116
1655.00,0.0114
1654.00,0.0112
1653.00,0.0111
1652.00,0.0110
1651.00,0.0109
1650.00,0.0108
1649.00,0.0106
1648.00,0.0105
1647.00,0.0104
1646.00,0.0103
1645.00,0.0102
1644.00,0.0101
1643.00,0.0100
1642.00,0.0099
1641.00,0.0097
1640.00,0.0096
1639.00,0.0095
1638.00,0.0093
1637.00,0.0091
1636.00,0.0090
1635.00,0.0089
1634.00,0.0089
1633.00,0.0089
1632.00,0.0089
1631.00,0.0089
1630.00,0.0089
1629.00,0.0088
1628.00,0.0086
1627.00,0.0085
1626.00,0.0084
1625.00,0.0083
1624.00,0.0082
1623.00,0.0082
1622.00,0.0082
1621.00,0.0082
1620.00,0.0082
1619.00,0.0081
1618.00,0.0080
1617.00,0.0079
1616.00,0.0078
1615.00,0.0078
1614.00,0.0078
1613.00,0.0078
1612.00,0.0078
1611.00,0.0078
1610.00,0.0077
1609.00,0.0077
1608.00,0.0077
1607.00,0.0077
1606.00,0.0077
1605.00,0.0077
1604.00,0.0077
1603.00,0.0077
1602.00,0.0077
1601.00,0.0077
1600.00,0.0077
1599.00,0.0077
1598.00,0.0077
1597.00,0.0077
1596.00,0.0077
1595.00,0.0077
1594.00,0.0077
1593.00,0.0077
1592.00,0.0078
1591.00,0.0078
1590.00,0.0079
1589.00,0.0080
1588.00,0.0081
1587.00,0.0083
1586.00,0.0085
1585.00,0.0087
1584.00,0.0090
1583.00,0.0092
1582.00,0.0095
1581.00,0.0097
1580.00,0.0099
1579.00,0.0101
1578.00,0.0101
1577.00,0.0100
1576.00,0.0099
1575.00,0.0097
1574.00,0.0095
1573.00,0.0094
1572.00,0.0092
1571.00,0.0090
1570.00,0.0087
1569.00,0.0085
1568.00,0.0084
1567.00,0.0083
1566.00,0.0082
1565.00,0.0082
1564.00,0.0082
1563.00,0.0082
1562.00,0.0082
1561.00,0.0082
1560.00,0.0082
1559.00,0.0083
1558.00,0.0083
1557.00,0.0083
1556.00,0.0083
1555.00,0.0084
1554.00,0.0086
1553.00,0.0087
1552.00,0.0089
1551.00,0.0091
1550.00,0.0093
1549.00,0.0096
1548.00,0.0098
1547.00,0.0101
1546.00,0.0103
1545.00,0.0106
1544.00,0.0108
1543.00,0.0109
1542.00,0.0108
1541.00,0.0106
1540.00,0.0103
1539.00,0.0099
1538.00,0.0096
1537.00,0.0094
1536.00,0.0093
1535.00,0.0090
1534.00,0.0086
1533.00,0.0082
1532.00,0.0079
1531.00,0.0077
1530.00,0.0075
1529.00,0.0074
1528.00,0.0073
1527.00,0.0072
1526.00,0.0071
1525.00,0.0070
1524.00,0.0069
1523.00,0.0069
1522.00,0.0068
1521.00,0.0068
1520.00,0.0069
1519.00,0.0069
1518.00,0.0068
1517.00,0.0069
1516.00,0.0070
1515.00,0.0070
1514.00,0.0071
1513.00,0.0072
1512.00,0.0073
1511.00,0.0073
1510.00,0.0073
1509.00,0.0074
1508.00,0.0075
1507.00,0.0076
1506.00,0.0076
1505.00,0.0076
1504.00,0.0078
1503.00,0.0079
1502.00,0.0081
1501.00,0.0083
1500.00,0.0086
1499.00,0.0088
1498.00,0.0090
1497.00,0.0093
1496.00,0.0098
1495.00,0.0100
1494.00,0.0103
1493.00,0.0106
1492.00,0.0110
1491.00,0.0113
1490.00,0.0116
1489.00,0.0121
1488.00,0.0126
1487.00,0.0130
1486.00,0.0136
1485.00,0.0143
1484.00,0.0151
1483.00,0.0160
1482.00,0.0170
1481.00,0.0183
1480.00,0.0197
1479.00,0.0210
1478.00,0.0225
1477.00,0.0245
1476.00,0.0268
1475.00,0.0293
1474.00,0.0328
1473.00,0.0380
1472.00,0.0443
1471.00,0.0506
1470.00,0.0566
1469.00,0.0629
1468.00,0.0697
1467.00,0.0773
1466.00,0.0860
1465.00,0.0956
1464.00,0.1041
1463.00,0.1103
1462.00,0.1144
1461.00,0.1175
1460.00,0.1200
1459.00,0.1220
1458.00,0.1240
1457.00,0.1259
1456.00,0.1270
1455.00,0.1270
1454.00,0.1266
1453.00,0.1257
1452.00,0.1238
1451.00,0.1204
1450.00,0.1153
1449.00,0.1079
1448.00,0.0982
1447.00,0.0879
1446.00,0.0785
1445.00,0.0705
1444.00,0.0637
1443.00,0.0581
1442.00,0.0540
1441.00,0.0512
1440.00,0.0495
1439.00,0.0487
1438.00,0.0486
1437.00,0.0484
1436.00,0.0470
1435.00,0.0442
1434.00,0.0403
1433.00,0.0357
1432.00,0.0310
1431.00,0.0268
1430.00,0.0237
1429.00,0.0214
1428.00,0.0199
1427.00,0.0190
1426.00,0.0184
1425.00,0.0179
1424.00,0.0174
1423.00,0.0171
1422.00,0.0170
1421.00,0.0167
1420.00,0.0162
1419.00,0.0158
1418.00,0.0154
1417.00,0.0150
1416.00,0.0146
1415.00,0.0143
1414.00,0.0142
1413.00,0.0140
1412.00,0.0137
1411.00,0.0136
1410.00,0.0135
1409.00,0.0134
1408.00,0.0132
1407.00,0.0132
1406.00,0.0132
1405.00,0.0132
1404.00,0.0131
1403.00,0.0131
1402.00,0.0132
1401.00,0.0133
1400.00,0.0133
1399.00,0.0135
1398.00,0.0137
1397.00,0.0139
1396.00,0.0141
1395.00,0.0145
1394.00,0.0151
1393.00,0.0156
1392.00,0.0163
1391.00,0.0172
1390.00,0.0185
1389.00,0.0203
1388.00,0.0230
1387.00,0.0269
1386.00,0.0321
1385.00,0.0386
1384.00,0.0471
1383.00,0.0585
1382.00,0.0733
1381.00,0.0919
1380.00,0.1144
1379.00,0.1398
1378.00,0.1641
1377.00,0.1820
1376.00,0.1882
1375.00,0.1797
1374.00,0.1583
1373.00,0.1320
1372.00,0.1076
1371.00,0.0871
1370.00,0.0705
1369.00,0.0578
1368.00,0.0488
1367.00,0.0433
1366.00,0.0403
1365.00,0.0391
1364.00,0.0393
1363.00,0.0407
1362.00,0.0428
1361.00,0.0450
1360.00,0.0466
1359.00,0.0469
1358.00,0.0457
1357.00,0.0431
1356.00,0.0393
1355.00,0.0351
1354.00,0.0310
1353.00,0.0275
1352.00,0.0246
1351.00,0.0223
1350.00,0.0205
1349.00,0.0190
1348.00,0.0179
1347.00,0.0169
1346.00,0.0161
1345.00,0.0155
1344.00,0.0150
1343.00,0.0146
1342.00,0.0143
1341.00,0.0140
1340.00,0.0138
1339.00,0.0136
1338.00,0.0134
1337.00,0.0133
1336.00,0.0134
1335.00,0.0136
1334.00,0.0139
1333.00,0.0144
1332.00,0.0148
1331.00,0.0152
1330.00,0.0153
1329.00,0.0152
1328.00,0.0149
1327.00,0.0145
1326.00,0.0140
1325.00,0.0134
1324.00,0.0128
1323.00,0.0122
1322.00,0.0118
1321.00,0.0115
1320.00,0.0112
1319.00,0.0110
1318.00,0.0108
1317.00,0.0106
1316.00,0.0104
1315.00,0.0102
1314.00,0.0101
1313.00,0.0101
1312.00,0.0103
1311.00,0.0106
1310.00,0.0112
1309.00,0.0120
1308.00,0.0131
1307.00,0.0145
1306.00,0.0159
1305.00,0.0169
1304.00,0.0172
1303.00,0.0169
1302.00,0.0163
1301.00,0.0158
1300.00,0.0154
1299.00,0.0154
1298.00,0.0155
1297.00,0.0156
1296.00,0.0156
1295.00,0.0155
1294.00,0.0152
1293.00,0.0147
1292.00,0.0142
1291.00,0.0137
1290.00,0.0132
1289.00,0.0127
1288.00,0.0123
1287.00,0.0119
1286.00,0.0116
1285.00,0.0113
1284.00,0.0110
1283.00,0.0107
1282.00,0.0104
1281.00,0.0102
1280.00,0.0101
1279.00,0.0100
1278.00,0.0099
1277.00,0.0098
1276.00,0.0098
1275.00,0.0098
1274.00,0.0098
1273.00,0.0098
1272.00,0.0098
1271.00,0.0098
1270.00,0.0098
1269.00,0.0098
1268.00,0.0098
1267.00,0.0099
1266.00,0.0101
1265.00,0.0103
1264.00,0.0106
1263.00,0.0110
1262.00,0.0115
1261.00,0.0120
1260.00,0.0127
1259.00,0.0135
1258.00,0.0144
1257.00,0.0151
1256.00,0.0155
1255.00,0.0153
1254.00,0.0146
1253.00,0.0136
1252.00,0.0126
1251.00,0.0117
1250.00,0.0111
1249.00,0.0107
1248.00,0.0104
1247.00,0.0102
1246.00,0.0101
1245.00,0.0100
1244.00,0.0099
1243.00,0.0098
1242.00,0.0098
1241.00,0.0097
1240.00,0.0097
1239.00,0.0096
1238.00,0.0095
1237.00,0.0094
1236.00,0.0093
1235.00,0.0093
1234.00,0.0092
1233.00,0.0092
1232.00,0.0092
1231.00,0.0092
1230.00,0.0093
1229.00,0.0093
1228.00,0.0094
1227.00,0.0096
1226.00,0.0097
1225.00,0.0100
1224.00,0.0103
1223.00,0.0106
1222.00,0.0109
1221.00,0.0112
1220.00,0.0113
1219.00,0.0114
1218.00,0.0113
1217.00,0.0111
1216.00,0.0109
1215.00,0.0106
1214.00,0.0103
1213.00,0.0100
1212.00,0.0097
1211.00,0.0094
1210.00,0.0092
1209.00,0.0090
1208.00,0.0088
1207.00,0.0087
1206.00,0.0086
1205.00,0.0085
1204.00,0.0084
1203.00,0.0084
1202.00,0.0085
1201.00,0.0085
1200.00,0.0085
1199.00,0.0084
1198.00,0.0084
1197.00,0.0084
1196.00,0.0085
1195.00,0.0085
1194.00,0.0085
1193.00,0.0085
1192.00,0.0085
1191.00,0.0085
1190.00,0.0085
1189.00,0.0085
1188.00,0.0084
1187.00,0.0085
1186.00,0.0085
1185.00,0.0086
1184.00,0.0088
1183.00,0.0090
1182.00,0.0093
1181.00,0.0096
1180.00,0.0101
1179.00,0.0107
1178.00,0.0115
1177.00,0.0126
1176.00,0.0139
1175.00,0.0158
1174.00,0.0182
1173.00,0.0213
1172.00,0.0250
1171.00,0.0291
1170.00,0.0330
1169.00,0.0362
1168.00,0.0381
1167.00,0.0386
1166.00,0.0377
1165.00,0.0359
1164.00,0.0335
1163.00,0.0311
1162.00,0.0290
1161.00,0.0272
1160.00,0.0258
1159.00,0.0246
1158.00,0.0236
1157.00,0.0229
1156.00,0.0224
1155.00,0.0219
1154.00,0.0215
1153.00,0.0211
1152.00,0.0206
1151.00,0.0200
1150.00,0.0192
1149.00,0.0183
1148.00,0.0173
1147.00,0.0163
1146.00,0.0154
1145.00,0.0145
1144.00,0.0138
1143.00,0.0131
1142.00,0.0126
1141.00,0.0121
1140.00,0.0116
1139.00,0.0112
1138.00,0.0108
1137.00,0.0104
1136.00,0.0102
1135.00,0.0100
1134.00,0.0099
1133.00,0.0098
1132.00,0.0097
1131.00,0.0097
1130.00,0.0097
1129.00,0.0098
1128.00,0.0099
1127.00,0.0101
1126.00,0.0102
1125.00,0.0103
1124.00,0.0103
1123.00,0.0104
1122.00,0.0103
1121.00,0.0103
1120.00,0.0103
1119.00,0.0103
1118.00,0.0104
1117.00,0.0105
1116.00,0.0105
1115.00,0.0107
1114.00,0.0108
1113.00,0.0110
1112.00,0.0112
1111.00,0.0115
1110.00,0.0119
1109.00,0.0123
1108.00,0.0128
1107.00,0.0134
1106.00,0.0141
1105.00,0.0148
1104.00,0.0154
1103.00,0.0157
1102.00,0.0158
1101.00,0.0156
1100.00,0.0151
1099.00,0.0144
1098.00,0.0137
1097.00,0.0131
1096.00,0.0125
1095.00,0.0121
1094.00,0.0118
1093.00,0.0115
1092.00,0.0112
1091.00,0.0109
1090.00,0.0107
1089.00,0.0106
1088.00,0.0105
1087.00,0.0104
1086.00,0.0102
1085.00,0.0101
1084.00,0.0100
1083.00,0.0100
1082.00,0.0099
1081.00,0.0098
1080.00,0.0097
1079.00,0.0097
1078.00,0.0096
1077.00,0.0095
1076.00,0.0093
1075.00,0.0092
1074.00,0.0092
1073.00,0.0092
1072.00,0.0092
1071.00,0.0091
1070.00,0.0091
1069.00,0.0090
1068.00,0.0090
1067.00,0.0091
1066.00,0.0091
1065.00,0.0092
1064.00,0.0092
1063.00,0.0094
1062.00,0.0094
1061.00,0.0095
1060.00,0.0095
1059.00,0.0095
1058.00,0.0096
1057.00,0.0097
1056.00,0.0097
1055.00,0.0098
1054.00,0.0098
1053.00,0.0099
1052.00,0.0101
1051.00,0.0103
1050.00,0.0107
1049.00,0.0111
1048.00,0.0115
1047.00,0.0120
1046.00,0.0122
1045.00,0.0123
1044.00,0.0122
1043.00,0.0120
1042.00,0.0117
1041.00,0.0113
1040.00,0.0111
1039.00,0.0109
1038.00,0.0109
1037.00,0.0110
1036.00,0.0111
1035.00,0.0111
1034.00,0.0110
1033.00,0.0109
1032.00,0.0107
1031.00,0.0106
1030.00,0.0106
1029.00,0.0105
1028.00,0.0105
1027.00,0.0105
1026.00,0.0104
1025.00,0.0104
1024.00,0.0104
1023.00,0.0104
1022.00,0.0105
1021.00,0.0107
1020.00,0.0109
1019.00,0.0111
1018.00,0.0112
1017.00,0.0114
1016.00,0.0116
1015.00,0.0119
1014.00,0.0123
1013.00,0.0128
1012.00,0.0133
1011.00,0.0137
1010.00,0.0140
1009.00,0.0143
1008.00,0.0148
1007.00,0.0156
1006.00,0.0166
1005.00,0.0181
1004.00,0.0201
1003.00,0.0227
1002.00,0.0261
1001.00,0.0303
1000.00,0.0349
999.00,0.0388
998.00,0.0409
997.00,0.0404
996.00,0.0373
995.00,0.0327
994.00,0.0277
993.00,0.0233
992.00,0.0197
991.00,0.0172
990.00,0.0155
989.00,0.0143
988.00,0.0135
987.00,0.0131
986.00,0.0129
985.00,0.0130
984.00,0.0134
983.00,0.0142
982.00,0.0155
981.00,0.0173
980.00,0.0197
979.00,0.0230
978.00,0.0272
977.00,0.0322
976.00,0.0377
975.00,0.0431
974.00,0.0472
973.00,0.0490
972.00,0.0477
971.00,0.0436
970.00,0.0377
969.00,0.0314
968.00,0.0258
967.00,0.0215
966.00,0.0183
965.00,0.0159
964.00,0.0143
963.00,0.0130
962.00,0.0121
961.00,0.0114
960.00,0.0107
959.00,0.0102
958.00,0.0099
957.00,0.0096
956.00,0.0093
955.00,0.0090
954.00,0.0088
953.00,0.0086
952.00,0.0084
951.00,0.0083
950.00,0.0082
949.00,0.0082
948.00,0.0082
947.00,0.0083
946.00,0.0085
945.00,0.0089
944.00,0.0092
943.00,0.0096
942.00,0.0099
941.00,0.0099
940.00,0.0098
939.00,0.0096
938.00,0.0092
937.00,0.0087
936.00,0.0083
935.00,0.0080
934.00,0.0077
933.00,0.0074
932.00,0.0072
931.00,0.0070
930.00,0.0070
929.00,0.0069
928.00,0.0069
927.00,0.0069
926.00,0.0068
925.00,0.0068
924.00,0.0068
923.00,0.0068
922.00,0.0068
921.00,0.0069
920.00,0.0070
919.00,0.0071
918.00,0.0073
917.00,0.0074
916.00,0.0076
915.00,0.0077
914.00,0.0078
913.00,0.0079
912.00,0.0079
911.00,0.0080
910.00,0.0081
909.00,0.0082
908.00,0.0084
907.00,0.0088
906.00,0.0095
905.00,0.0106
904.00,0.0121
903.00,0.0139
902.00,0.0159
901.00,0.0176
900.00,0.0188
899.00,0.0191
898.00,0.0183
897.00,0.0169
896.00,0.0150
895.00,0.0132
894.00,0.0117
893.00,0.0106
892.00,0.0098
891.00,0.0092
890.00,0.0088
889.00,0.0085
888.00,0.0082
887.00,0.0079
886.00,0.0077
885.00,0.0076
884.00,0.0076
883.00,0.0077
882.00,0.0078
881.00,0.0080
880.00,0.0081
879.00,0.0081
878.00,0.0082
877.00,0.0082
876.00,0.0081
875.00,0.0081
874.00,0.0080
873.00,0.0079
872.00,0.0079
871.00,0.0079
870.00,0.0080
869.00,0.0081
868.00,0.0081
867.00,0.0081
866.00,0.0082
865.00,0.0083
864.00,0.0084
863.00,0.0086
862.00,0.0089
861.00,0.0092
860.00,0.0095
859.00,0.0097
858.00,0.0098
857.00,0.0099
856.00,0.0099
855.00,0.0099
854.00,0.0101
853.00,0.0103
852.00,0.0106
851.00,0.0111
850.00,0.0118
849.00,0.0127
848.00,0.0140
847.00,0.0159
846.00,0.0187
845.00,0.0228
844.00,0.0282
843.00,0.0342
842.00,0.0389
841.00,0.0404
840.00,0.0379
839.00,0.0326
838.00,0.0268
837.00,0.0220
836.00,0.0188
835.00,0.0169
834.00,0.0156
833.00,0.0147
832.00,0.0140
831.00,0.0135
830.00,0.0131
829.00,0.0128
828.00,0.0125
827.00,0.0123
826.00,0.0121
825.00,0.0120
824.00,0.0120
823.00,0.0120
822.00,0.0120
821.00,0.0120
820.00,0.0121
819.00,0.0123
818.00,0.0126
817.00,0.0131
816.00,0.0139
815.00,0.0149
814.00,0.0161
813.00,0.0175
812.00,0.0191
811.00,0.0206
810.00,0.0218
809.00,0.0224
808.00,0.0223
807.00,0.0214
806.00,0.0201
805.00,0.0184
804.00,0.0168
803.00,0.0154
802.00,0.0143
801.00,0.0135
800.00,0.0127
799.00,0.0121
798.00,0.0115
797.00,0.0111
796.00,0.0107
795.00,0.0104
794.00,0.0101
793.00,0.0098
792.00,0.0095
791.00,0.0094
790.00,0.0093
789.00,0.0091
788.00,0.0088
787.00,0.0085
786.00,0.0083
785.00,0.0080
784.00,0.0077
783.00,0.0075
782.00,0.0074
781.00,0.0074
780.00,0.0074
779.00,0.0074
778.00,0.0074
777.00,0.0075
776.00,0.0075
775.00,0.0076
774.00,0.0079
773.00,0.0082
772.00,0.0087
771.00,0.0090
770.00,0.0093
769.00,0.0094
768.00,0.0094
767.00,0.0092
766.00,0.0091
765.00,0.0090
764.00,0.0089
763.00,0.0085
762.00,0.0081
761.00,0.0078
760.00,0.0076
759.00,0.0073
758.00,0.0071
757.00,0.0068
756.00,0.0066
755.00,0.0065
754.00,0.0066
753.00,0.0067
752.00,0.0067
751.00,0.0066
750.00,0.0066
749.00,0.0066
748.00,0.0066
747.00,0.0066
746.00,0.0066
745.00,0.0067
744.00,0.0067
743.00,0.0068
742.00,0.0069
741.00,0.0070
740.00,0.0071
739.00,0.0072
738.00,0.0072
737.00,0.0073
736.00,0.0075
735.00,0.0077
734.00,0.0079
733.00,0.0081
732.00,0.0082
731.00,0.0082
730.00,0.0082
729.00,0.0081
728.00,0.0080
727.00,0.0079
726.00,0.0079
725.00,0.0079
724.00,0.0080
723.00,0.0080
722.00,0.0079
721.00,0.0078
720.00,0.0078
719.00,0.0076
718.00,0.0075
717.00,0.0073
716.00,0.0071
715.00,0.0069
714.00,0.0067
713.00,0.0066
712.00,0.0066
711.00,0.0067
710.00,0.0069
709.00,0.0070
708.00,0.0072
707.00,0.0073
706.00,0.0075
705.00,0.0075
704.00,0.0075
703.00,0.0075
702.00,0.0074
701.00,0.0072
700.00,0.0071
699.00,0.0071
698.00,0.0072
697.00,0.0073
696.00,0.0073
695.00,0.0073
694.00,0.0073
693.00,0.0072
692.00,0.0071
691.00,0.0071
690.00,0.0072
689.00,0.0073
688.00,0.0074
687.00,0.0074
686.00,0.0073
685.00,0.0073
684.00,0.0074
683.00,0.0076
682.00,0.0077
681.00,0.0076
680.00,0.0074
679.00,0.0071
678.00,0.0069
677.00,0.0068
676.00,0.0069
675.00,0.0069
674.00,0.0070
673.00,0.0070
672.00,0.0070
671.00,0.0071
670.00,0.0072
669.00,0.0075
668.00,0.0080
667.00,0.0081
666.00,0.0079
665.00,0.0075
664.00,0.0072
663.00,0.0070
662.00,0.0069
661.00,0.0070
660.00,0.0071
659.00,0.0072
658.00,0.0072
657.00,0.0070
656.00,0.0069
655.00,0.0069
654.00,0.0070
653.00,0.0071
652.00,0.0072
651.00,0.0072
650.00,0.0071
649.00,0.0068
648.00,0.0066
647.00,0.0065
646.00,0.0066
645.00,0.0068
644.00,0.0069
643.00,0.0069
642.00,0.0070
641.00,0.0070
640.00,0.0071
639.00,0.0071
638.00,0.0071
637.00,0.0070
636.00,0.0069
635.00,0.0068
634.00,0.0066
633.00,0.0066
632.00,0.0068
631.00,0.0070
630.00,0.0073
629.00,0.0075
628.00,0.0076
627.00,0.0076
626.00,0.0075
625.00,0.0074
624.00,0.0074
623.00,0.0075
622.00,0.0076
621.00,0.0076
620.00,0.0075
619.00,0.0072
618.00,0.0070
617.00,0.0070
616.00,0.0071
615.00,0.0074
614.00,0.0077
613.00,0.0078
612.00,0.0077
611.00,0.0075
610.00,0.0074
609.00,0.0074
608.00,0.0074
607.00,0.0074
606.00,0.0072
605.00,0.0070
604.00,0.0069
603.00,0.0068
602.00,0.0069
601.00,0.0071
600.00,0.0074
599.00,0.0077
598.00,0.0079
597.00,0.0081
596.00,0.0080
595.00,0.0079
594.00,0.0077
593.00,0.0075
592.00,0.0073
591.00,0.0070
590.00,0.0068
589.00,0.0068
588.00,0.0069
587.00,0.0073
586.00,0.0077
585.00,0.0081
584.00,0.0084
583.00,0.0087
582.00,0.0087
581.00,0.0086
580.00,0.0084
579.00,0.0082
578.00,0.0079
577.00,0.0078
576.00,0.0076
575.00,0.0073
574.00,0.0071
573.00,0.0070
572.00,0.0071
571.00,0.0075
570.00,0.0077
569.00,0.0077
568.00,0.0076
567.00,0.0075
566.00,0.0076
565.00,0.0079
564.00,0.0081
563.00,0.0082
562.00,0.0080
561.00,0.0077
560.00,0.0075
559.00,0.0075
558.00,0.0075
557.00,0.0074
556.00,0.0073
555.00,0.0073
554.00,0.0074
553.00,0.0074
552.00,0.0075
551.00,0.0076
550.00,0.0078
549.00,0.0080
548.00,0.0080
547.00,0.0079
546.00,0.0079
545.00,0.0081
544.00,0.0083
543.00,0.0084
542.00,0.0084
541.00,0.0083
540.00,0.0084
539.00,0.0084
538.00,0.0084
537.00,0.0082
536.00,0.0079
535.00,0.0079
534.00,0.0081
533.00,0.0085
532.00,0.0089
531.00,0.0093
530.00,0.0098
529.00,0.0103
528.00,0.0108
527.00,0.0111
526.00,0.0110
525.00,0.0105
524.00,0.0100
523.00,0.0096
522.00,0.0095
521.00,0.0097
520.00,0.0098
519.00,0.0097
518.00,0.0095
517.00,0.0091
516.00,0.0088
515.00,0.0086
514.00,0.0084
513.00,0.0083
512.00,0.0083
511.00,0.0084
510.00,0.0084
509.00,0.0084
508.00,0.0084
507.00,0.0085
506.00,0.0088
505.00,0.0091
504.00,0.0094
503.00,0.0093
502.00,0.0087
501.00,0.0078
500.00,0.0069
499.00,0.0066
498.00,0.0068
497.00,0.0073
496.00,0.0078
495.00,0.0080
494.00,0.0078
493.00,0.0074
492.00,0.0070
491.00,0.0071
490.00,0.0076
489.00,0.0081
488.00,0.0083
487.00,0.0081
486.00,0.0078
485.00,0.0077
484.00,0.0079
483.00,0.0081
482.00,0.0084
481.00,0.0085
480.00,0.0085
479.00,0.0083
478.00,0.0078
477.00,0.0076
476.00,0.0080
475.00,0.0088
474.00,0.0093
473.00,0.0092
472.00,0.0088
471.00,0.0091
470.00,0.0102
469.00,0.0114
468.00,0.0121
467.00,0.0123
466.00,0.0123
465.00,0.0125
464.00,0.0129
463.00,0.0134
462.00,0.0140
461.00,0.0149
460.00,0.0161
459.00,0.0173
458.00,0.0177
457.00,0.0171
456.00,0.0162
455.00,0.0150
454.00,0.0134
453.00,0.0111
452.00,0.0088
451.00,0.0074
450.00,0.0071
