Created as New Dataset,Sample 180 By Administrator Date Wednesday, September 10 2025
cm-1,A
4000.00,0.0010
3999.00,0.0010
3998.00,0.0010
3997.00,0.0010
3996.00,0.0010
3995.00,0.0009
3994.00,0.0009
3993.00,0.0009
3992.00,0.0009
3991.00,0.0009
3990.00,0.0009
3989.00,0.0010
3988.00,0.0010
3987.00,0.0010
3986.00,0.0009
3985.00,0.0009
3984.00,0.0009
3983.00,0.0009
3982.00,0.0009
3981.00,0.0009
3980.00,0.0009
3979.00,0.0009
3978.00,0.0009
3977.00,0.0009
3976.00,0.0009
3975.00,0.0008
3974.00,0.0008
3973.00,0.0008
3972.00,0.0008
3971.00,0.0009
3970.00,0.0009
3969.00,0.0009
3968.00,0.0009
3967.00,0.0008
3966.00,0.0008
3965.00,0.0008
3964.00,0.0008
3963.00,0.0008
3962.00,0.0008
3961.00,0.0008
3960.00,0.0008
3959.00,0.0007
3958.00,0.0007
3957.00,0.0007
3956.00,0.0008
3955.00,0.0008
3954.00,0.0008
3953.00,0.0008
3952.00,0.0007
3951.00,0.0007
3950.00,0.0007
3949.00,0.0007
3948.00,0.0008
3947.00,0.0008
3946.00,0.0008
3945.00,0.0008
3944.00,0.0008
3943.00,0.0008
3942.00,0.0008
3941.00,0.0008
3940.00,0.0008
3939.00,0.0008
3938.00,0.0008
3937.00,0.0008
3936.00,0.0008
3935.00,0.0008
3934.00,0.0008
3933.00,0.0008
3932.00,0.0009
3931.00,0.0009
3930.00,0.0009
3929.00,0.0009
3928.00,0.0008
3927.00,0.0008
3926.00,0.0008
3925.00,0.0008
3924.00,0.0008
3923.00,0.0008
3922.00,0.0008
3921.00,0.0008
3920.00,0.0008
3919.00,0.0008
3918.00,0.0008
3917.00,0.0008
3916.00,0.0008
3915.00,0.0008
3914.00,0.0008
3913.00,0.0008
3912.00,0.0009
3911.00,0.0009
3910.00,0.0008
3909.00,0.0008
3908.00,0.0008
3907.00,0.0008
3906.00,0.0008
3905.00,0.0008
3904.00,0.0008
3903.00,0.0008
3902.00,0.0008
3901.00,0.0007
3900.00,0.0007
3899.00,0.0007
3898.00,0.0008
3897.00,0.0008
3896.00,0.0008
3895.00,0.0008
3894.00,0.0008
3893.00,0.0008
3892.00,0.0008
3891.00,0.0009
3890.00,0.0009
3889.00,0.0008
3888.00,0.0008
3887.00,0.0008
3886.00,0.0008
3885.00,0.0008
3884.00,0.0008
3883.00,0.0008
3882.00,0.0008
3881.00,0.0008
3880.00,0.0008
3879.00,0.0008
3878.00,0.0008
3877.00,0.0009
3876.00,0.0009
3875.00,0.0009
3874.00,0.0008
3873.00,0.0008
3872.00,0.0008
3871.00,0.0007
3870.00,0.0007
3869.00,0.0007
3868.00,0.0008
3867.00,0.0008
3866.00,0.0009
3865.00,0.0009
3864.00,0.0009
3863.00,0.0008
3862.00,0.0008
3861.00,0.0007
3860.00,0.0008
3859.00,0.0008
3858.00,0.0008
3857.00,0.0008
3856.00,0.0007
3855.00,0.0007
3854.00,0.0007
3853.00,0.0006
3852.00,0.0006
3851.00,0.0006
3850.00,0.0006
3849.00,0.0007
3848.00,0.0007
3847.00,0.0007
3846.00,0.0007
3845.00,0.0008
3844.00,0.0008
3843.00,0.0009
3842.00,0.0009
3841.00,0.0009
3840.00,0.0009
3839.00,0.0008
3838.00,0.0008
3837.00,0.0007
3836.00,0.0007
3835.00,0.0007
3834.00,0.0007
3833.00,0.0008
3832.00,0.0008
3831.00,0.0008
3830.00,0.0009
3829.00,0.0008
3828.00,0.0008
3827.00,0.0008
3826.00,0.0008
3825.00,0.0008
3824.00,0.0009
3823.00,0.0009
3822.00,0.0009
3821.00,0.0008
3820.00,0.0007
3819.00,0.0007
3818.00,0.0007
3817.00,0.0008
3816.00,0.0008
3815.00,0.0009
3814.00,0.0009
3813.00,0.0008
3812.00,0.0008
3811.00,0.0008
3810.00,0.0008
3809.00,0.0009
3808.00,0.0008
3807.00,0.0008
3806.00,0.0008
3805.00,0.0008
3804.00,0.0008
3803.00,0.0008
3802.00,0.0008
3801.00,0.0008
3800.00,0.0007
3799.00,0.0007
3798.00,0.0007
3797.00,0.0008
3796.00,0.0008
3795.00,0.0008
3794.00,0.0007
3793.00,0.0007
3792.00,0.0007
3791.00,0.0007
3790.00,0.0007
3789.00,0.0007
3788.00,0.0008
3787.00,0.0008
3786.00,0.0008
3785.00,0.0008
3784.00,0.0009
3783.00,0.0009
3782.00,0.0009
3781.00,0.0009
3780.00,0.0009
3779.00,0.0008
3778.00,0.0008
3777.00,0.0008
3776.00,0.0008
3775.00,0.0008
3774.00,0.0008
3773.00,0.0008
3772.00,0.0008
3771.00,0.0008
3770.00,0.0008
3769.00,0.0008
3768.00,0.0008
3767.00,0.0008
3766.00,0.0008
3765.00,0.0009
3764.00,0.0008
3763.00,0.0008
3762.00,0.0008
3761.00,0.0008
3760.00,0.0008
3759.00,0.0008
3758.00,0.0008
3757.00,0.0008
3756.00,0.0008
3755.00,0.0008
3754.00,0.0007
3753.00,0.0007
3752.00,0.0007
3751.00,0.0007
3750.00,0.0007
3749.00,0.0007
3748.00,0.0007
3747.00,0.0006
3746.00,0.0006
3745.00,0.0006
3744.00,0.0006
3743.00,0.0006
3742.00,0.0006
3741.00,0.0007
3740.00,0.0007
3739.00,0.0007
3738.00,0.0007
3737.00,0.0007
3736.00,0.0007
3735.00,0.0007
3734.00,0.0007
3733.00,0.0007
3732.00,0.0006
3731.00,0.0006
3730.00,0.0006
3729.00,0.0006
3728.00,0.0006
3727.00,0.0007
3726.00,0.0007
3725.00,0.0007
3724.00,0.0007
3723.00,0.0006
3722.00,0.0005
3721.00,0.0005
3720.00,0.0005
3719.00,0.0006
3718.00,0.0006
3717.00,0.0007
3716.00,0.0007
3715.00,0.0007
3714.00,0.0007
3713.00,0.0007
3712.00,0.0007
3711.00,0.0007
3710.00,0.0006
3709.00,0.0006
3708.00,0.0006
3707.00,0.0007
3706.00,0.0007
3705.00,0.0007
3704.00,0.0007
3703.00,0.0007
3702.00,0.0006
3701.00,0.0006
3700.00,0.0006
3699.00,0.0006
3698.00,0.0006
3697.00,0.0006
3696.00,0.0006
3695.00,0.0006
3694.00,0.0006
3693.00,0.0006
3692.00,0.0006
3691.00,0.0006
3690.00,0.0006
3689.00,0.0006
3688.00,0.0006
3687.00,0.0006
3686.00,0.0006
3685.00,0.0006
3684.00,0.0006
3683.00,0.0006
3682.00,0.0007
3681.00,0.0007
3680.00,0.0007
3679.00,0.0007
3678.00,0.0007
3677.00,0.0007
3676.00,0.0008
3675.00,0.0008
3674.00,0.0008
3673.00,0.0008
3672.00,0.0008
3671.00,0.0008
3670.00,0.0008
3669.00,0.0006
3668.00,0.0005
3667.00,0.0005
3666.00,0.0005
3665.00,0.0005
3664.00,0.0006
3663.00,0.0006
3662.00,0.0006
3661.00,0.0006
3660.00,0.0006
3659.00,0.0006
3658.00,0.0007
3657.00,0.0007
3656.00,0.0007
3655.00,0.0006
3654.00,0.0006
3653.00,0.0006
3652.00,0.0007
3651.00,0.0007
3650.00,0.0008
3649.00,0.0008
3648.00,0.0007
3647.00,0.0007
3646.00,0.0006
3645.00,0.0006
3644.00,0.0006
3643.00,0.0007
3642.00,0.0007
3641.00,0.0007
3640.00,0.0007
3639.00,0.0008
3638.00,0.0007
3637.00,0.0007
3636.00,0.0007
3635.00,0.0007
3634.00,0.0007
3633.00,0.0007
3632.00,0.0007
3631.00,0.0007
3630.00,0.0007
3629.00,0.0008
3628.00,0.0008
3627.00,0.0008
3626.00,0.0008
3625.00,0.0008
3624.00,0.0008
3623.00,0.0008
3622.00,0.0008
3621.00,0.0009
3620.00,0.0009
3619.00,0.0009
3618.00,0.0010
3617.00,0.0009
3616.00,0.0009
3615.00,0.0009
3614.00,0.0010
3613.00,0.0010
3612.00,0.0011
3611.00,0.0011
3610.00,0.0011
3609.00,0.0011
3608.00,0.0011
3607.00,0.0010
3606.00,0.0010
3605.00,0.0011
3604.00,0.0011
3603.00,0.0011
3602.00,0.0011
3601.00,0.0012
3600.00,0.0012
3599.00,0.0012
3598.00,0.0012
3597.00,0.0012
3596.00,0.0012
3595.00,0.0012
3594.00,0.0011
3593.00,0.0011
3592.00,0.0011
3591.00,0.0011
3590.00,0.0011
3589.00,0.0011
3588.00,0.0011
3587.00,0.0012
3586.00,0.0012
3585.00,0.0013
3584.00,0.0014
3583.00,0.0014
3582.00,0.0015
3581.00,0.0015
3580.00,0.0015
3579.00,0.0015
3578.00,0.0015
3577.00,0.0015
3576.00,0.0015
3575.00,0.0015
3574.00,0.0015
3573.00,0.0015
3572.00,0.0015
3571.00,0.0015
3570.00,0.0015
3569.00,0.0015
3568.00,0.0015
3567.00,0.0016
3566.00,0.0017
3565.00,0.0018
3564.00,0.0018
3563.00,0.0019
3562.00,0.0019
3561.00,0.0019
3560.00,0.0020
3559.00,0.0020
3558.00,0.0020
3557.00,0.0020
3556.00,0.0020
3555.00,0.0020
3554.00,0.0020
3553.00,0.0020
3552.00,0.0020
3551.00,0.0020
3550.00,0.0020
3549.00,0.0021
3548.00,0.0021
3547.00,0.0022
3546.00,0.0023
3545.00,0.0024
3544.00,0.0024
3543.00,0.0024
3542.00,0.0024
3541.00,0.0023
3540.00,0.0024
3539.00,0.0024
3538.00,0.0025
3537.00,0.0025
3536.00,0.0025
3535.00,0.0025
3534.00,0.0025
3533.00,0.0025
3532.00,0.0025
3531.00,0.0025
3530.00,0.0025
3529.00,0.0026
3528.00,0.0026
3527.00,0.0026
3526.00,0.0026
3525.00,0.0026
3524.00,0.0027
3523.00,0.0027
3522.00,0.0028
3521.00,0.0028
3520.00,0.0028
3519.00,0.0028
3518.00,0.0029
3517.00,0.0029
3516.00,0.0029
3515.00,0.0030
3514.00,0.0030
3513.00,0.0030
3512.00,0.0031
3511.00,0.0031
3510.00,0.0031
3509.00,0.0031
3508.00,0.0032
3507.00,0.0032
3506.00,0.0032
3505.00,0.0032
3504.00,0.0032
3503.00,0.0032
3502.00,0.0033
3501.00,0.0033
3500.00,0.0033
3499.00,0.0033
3498.00,0.0034
3497.00,0.0034
3496.00,0.0035
3495.00,0.0035
3494.00,0.0035
3493.00,0.0035
3492.00,0.0036
3491.00,0.0036
3490.00,0.0036
3489.00,0.0037
3488.00,0.0037
3487.00,0.0037
3486.00,0.0037
3485.00,0.0036
3484.00,0.0036
3483.00,0.0036
3482.00,0.0036
3481.00,0.0036
3480.00,0.0036
3479.00,0.0037
3478.00,0.0038
3477.00,0.0038
3476.00,0.0038
3475.00,0.0039
3474.00,0.0039
3473.00,0.0039
3472.00,0.0039
3471.00,0.0038
3470.00,0.0038
3469.00,0.0039
3468.00,0.0039
3467.00,0.0040
3466.00,0.0040
3465.00,0.0041
3464.00,0.0041
3463.00,0.0041
3462.00,0.0042
3461.00,0.0042
3460.00,0.0042
3459.00,0.0043
3458.00,0.0042
3457.00,0.0042
3456.00,0.0042
3455.00,0.0042
3454.00,0.0043
3453.00,0.0043
3452.00,0.0043
3451.00,0.0043
3450.00,0.0043
3449.00,0.0043
3448.00,0.0043
3447.00,0.0043
3446.00,0.0044
3445.00,0.0044
3444.00,0.0045
3443.00,0.0045
3442.00,0.0046
3441.00,0.0046
3440.00,0.0047
3439.00,0.0047
3438.00,0.0047
3437.00,0.0047
3436.00,0.0047
3435.00,0.0047
3434.00,0.0047
3433.00,0.0047
3432.00,0.0048
3431.00,0.0048
3430.00,0.0048
3429.00,0.0049
3428.00,0.0049
3427.00,0.0049
3426.00,0.0049
3425.00,0.0049
3424.00,0.0049
3423.00,0.0049
3422.00,0.0050
3421.00,0.0050
3420.00,0.0050
3419.00,0.0050
3418.00,0.0051
3417.00,0.0051
3416.00,0.0051
3415.00,0.0051
3414.00,0.0051
3413.00,0.0052
3412.00,0.0052
3411.00,0.0052
3410.00,0.0052
3409.00,0.0052
3408.00,0.0052
3407.00,0.0052
3406.00,0.0052
3405.00,0.0053
3404.00,0.0053
3403.00,0.0053
3402.00,0.0053
3401.00,0.0054
3400.00,0.0054
3399.00,0.0054
3398.00,0.0054
3397.00,0.0054
3396.00,0.0053
3395.00,0.0053
3394.00,0.0053
3393.00,0.0054
3392.00,0.0054
3391.00,0.0054
3390.00,0.0054
3389.00,0.0054
3388.00,0.0054
3387.00,0.0054
3386.00,0.0054
3385.00,0.0054
3384.00,0.0053
3383.00,0.0053
3382.00,0.0054
3381.00,0.0054
3380.00,0.0054
3379.00,0.0054
3378.00,0.0055
3377.00,0.0055
3376.00,0.0055
3375.00,0.0055
3374.00,0.0055
3373.00,0.0055
3372.00,0.0055
3371.00,0.0055
3370.00,0.0056
3369.00,0.0056
3368.00,0.0056
3367.00,0.0056
3366.00,0.0055
3365.00,0.0055
3364.00,0.0056
3363.00,0.0056
3362.00,0.0056
3361.00,0.0057
3360.00,0.0057
3359.00,0.0057
3358.00,0.0057
3357.00,0.0057
3356.00,0.0057
3355.00,0.0057
3354.00,0.0057
3353.00,0.0057
3352.00,0.0057
3351.00,0.0056
3350.00,0.0056
3349.00,0.0057
3348.00,0.0057
3347.00,0.0057
3346.00,0.0057
3345.00,0.0058
3344.00,0.0058
3343.00,0.0057
3342.00,0.0057
3341.00,0.0057
3340.00,0.0057
3339.00,0.0057
3338.00,0.0057
3337.00,0.0057
3336.00,0.0057
3335.00,0.0057
3334.00,0.0057
3333.00,0.0057
3332.00,0.0056
3331.00,0.0056
3330.00,0.0056
3329.00,0.0056
3328.00,0.0056
3327.00,0.0056
3326.00,0.0057
3325.00,0.0057
3324.00,0.0056
3323.00,0.0056
3322.00,0.0056
3321.00,0.0056
3320.00,0.0056
3319.00,0.0056
3318.00,0.0056
3317.00,0.0056
3316.00,0.0056
3315.00,0.0056
3314.00,0.0055
3313.00,0.0056
3312.00,0.0056
3311.00,0.0056
3310.00,0.0056
3309.00,0.0056
3308.00,0.0056
3307.00,0.0055
3306.00,0.0055
3305.00,0.0055
3304.00,0.0054
3303.00,0.0054
3302.00,0.0054
3301.00,0.0055
3300.00,0.0055
3299.00,0.0055
3298.00,0.0054
3297.00,0.0054
3296.00,0.0054
3295.00,0.0054
3294.00,0.0054
3293.00,0.0055
3292.00,0.0054
3291.00,0.0054
3290.00,0.0054
3289.00,0.0053
3288.00,0.0053
3287.00,0.0053
3286.00,0.0052
3285.00,0.0052
3284.00,0.0052
3283.00,0.0052
3282.00,0.0052
3281.00,0.0052
3280.00,0.0052
3279.00,0.0052
3278.00,0.0052
3277.00,0.0052
3276.00,0.0052
3275.00,0.0052
3274.00,0.0051
3273.00,0.0051
3272.00,0.0051
3271.00,0.0050
3270.00,0.0050
3269.00,0.0050
3268.00,0.0050
3267.00,0.0050
3266.00,0.0050
3265.00,0.0050
3264.00,0.0050
3263.00,0.0050
3262.00,0.0050
3261.00,0.0050
3260.00,0.0050
3259.00,0.0050
3258.00,0.0049
3257.00,0.0049
3256.00,0.0048
3255.00,0.0048
3254.00,0.0048
3253.00,0.0047
3252.00,0.0047
3251.00,0.0046
3250.00,0.0046
3249.00,0.0046
3248.00,0.0046
3247.00,0.0046
3246.00,0.0045
3245.00,0.0045
3244.00,0.0045
3243.00,0.0046
3242.00,0.0046
3241.00,0.0046
3240.00,0.0046
3239.00,0.0046
3238.00,0.0045
3237.00,0.0046
3236.00,0.0046
3235.00,0.0046
3234.00,0.0046
3233.00,0.0046
3232.00,0.0046
3231.00,0.0047
3230.00,0.0047
3229.00,0.0047
3228.00,0.0047
3227.00,0.0047
3226.00,0.0047
3225.00,0.0047
3224.00,0.0047
3223.00,0.0047
3222.00,0.0048
3221.00,0.0048
3220.00,0.0048
3219.00,0.0047
3218.00,0.0047
3217.00,0.0047
3216.00,0.0047
3215.00,0.0048
3214.00,0.0048
3213.00,0.0048
3212.00,0.0048
3211.00,0.0048
3210.00,0.0049
3209.00,0.0049
3208.00,0.0049
3207.00,0.0049
3206.00,0.0049
3205.00,0.0049
3204.00,0.0049
3203.00,0.0049
3202.00,0.0050
3201.00,0.0049
3200.00,0.0049
3199.00,0.0049
3198.00,0.0048
3197.00,0.0048
3196.00,0.0048
3195.00,0.0048
3194.00,0.0048
3193.00,0.0048
3192.00,0.0048
3191.00,0.0049
3190.00,0.0048
3189.00,0.0048
3188.00,0.0048
3187.00,0.0047
3186.00,0.0047
3185.00,0.0047
3184.00,0.0047
3183.00,0.0046
3182.00,0.0046
3181.00,0.0046
3180.00,0.0046
3179.00,0.0046
3178.00,0.0046
3177.00,0.0046
3176.00,0.0046
3175.00,0.0045
3174.00,0.0045
3173.00,0.0044
3172.00,0.0044
3171.00,0.0044
3170.00,0.0043
3169.00,0.0043
3168.00,0.0043
3167.00,0.0043
3166.00,0.0043
3165.00,0.0043
3164.00,0.0043
3163.00,0.0043
3162.00,0.0043
3161.00,0.0043
3160.00,0.0042
3159.00,0.0042
3158.00,0.0041
3157.00,0.0041
3156.00,0.0041
3155.00,0.0041
3154.00,0.0042
3153.00,0.0042
3152.00,0.0042
3151.00,0.0042
3150.00,0.0042
3149.00,0.0042
3148.00,0.0042
3147.00,0.0042
3146.00,0.0042
3145.00,0.0042
3144.00,0.0042
3143.00,0.0041
3142.00,0.0041
3141.00,0.0040
3140.00,0.0040
3139.00,0.0040
3138.00,0.0040
3137.00,0.0039
3136.00,0.0039
3135.00,0.0039
3134.00,0.0039
3133.00,0.0039
3132.00,0.0039
3131.00,0.0039
3130.00,0.0038
3129.00,0.0038
3128.00,0.0038
3127.00,0.0038
3126.00,0.0037
3125.00,0.0037
3124.00,0.0036
3123.00,0.0035
3122.00,0.0035
3121.00,0.0035
3120.00,0.0035
3119.00,0.0035
3118.00,0.0035
3117.00,0.0035
3116.00,0.0035
3115.00,0.0035
3114.00,0.0035
3113.00,0.0035
3112.00,0.0035
3111.00,0.0035
3110.00,0.0035
3109.00,0.0034
3108.00,0.0034
3107.00,0.0034
3106.00,0.0034
3105.00,0.0033
3104.00,0.0033
3103.00,0.0033
3102.00,0.0033
3101.00,0.0033
3100.00,0.0033
3099.00,0.0033
3098.00,0.0033
3097.00,0.0032
3096.00,0.0032
3095.00,0.0032
3094.00,0.0031
3093.00,0.0031
3092.00,0.0031
3091.00,0.0031
3090.00,0.0031
3089.00,0.0032
3088.00,0.0032
3087.00,0.0032
3086.00,0.0032
3085.00,0.0031
3084.00,0.0031
3083.00,0.0031
3082.00,0.0031
3081.00,0.0031
3080.00,0.0031
3079.00,0.0031
3078.00,0.0031
3077.00,0.0031
3076.00,0.0031
3075.00,0.0031
3074.00,0.0031
3073.00,0.0031
3072.00,0.0032
3071.00,0.0032
3070.00,0.0032
3069.00,0.0032
3068.00,0.0032
3067.00,0.0032
3066.00,0.0032
3065.00,0.0032
3064.00,0.0032
3063.00,0.0033
3062.00,0.0033
3061.00,0.0033
3060.00,0.0033
3059.00,0.0033
3058.00,0.0033
3057.00,0.0033
3056.00,0.0033
3055.00,0.0033
3054.00,0.0033
3053.00,0.0033
3052.00,0.0033
3051.00,0.0033
3050.00,0.0033
3049.00,0.0033
3048.00,0.0033
3047.00,0.0034
3046.00,0.0034
3045.00,0.0034
3044.00,0.0035
3043.00,0.0035
3042.00,0.0035
3041.00,0.0036
3040.00,0.0036
3039.00,0.0036
3038.00,0.0036
3037.00,0.0036
3036.00,0.0036
3035.00,0.0037
3034.00,0.0037
3033.00,0.0037
3032.00,0.0038
3031.00,0.0038
3030.00,0.0039
3029.00,0.0039
3028.00,0.0040
3027.00,0.0041
3026.00,0.0041
3025.00,0.0041
3024.00,0.0041
3023.00,0.0042
3022.00,0.0043
3021.00,0.0043
3020.00,0.0044
3019.00,0.0045
3018.00,0.0046
3017.00,0.0047
3016.00,0.0048
3015.00,0.0048
3014.00,0.0049
3013.00,0.0051
3012.00,0.0052
3011.00,0.0053
3010.00,0.0055
3009.00,0.0056
3008.00,0.0057
3007.00,0.0059
3006.00,0.0060
3005.00,0.0062
3004.00,0.0064
3003.00,0.0067
3002.00,0.0069
3001.00,0.0071
3000.00,0.0074
2999.00,0.0076
2998.00,0.0079
2997.00,0.0082
2996.00,0.0085
2995.00,0.0089
2994.00,0.0093
2993.00,0.0098
2992.00,0.0103
2991.00,0.0109
2990.00,0.0116
2989.00,0.0123
2988.00,0.0130
2987.00,0.0138
2986.00,0.0147
2985.00,0.0157
2984.00,0.0169
2983.00,0.0182
2982.00,0.0197
2981.00,0.0214
2980.00,0.0233
2979.00,0.0255
2978.00,0.0279
2977.00,0.0307
2976.00,0.0339
2975.00,0.0374
2974.00,0.0415
2973.00,0.0461
2972.00,0.0513
2971.00,0.0571
2970.00,0.0635
2969.00,0.0706
2968.00,0.0782
2967.00,0.0863
2966.00,0.0947
2965.00,0.1031
2964.00,0.1112
2963.00,0.1186
2962.00,0.1250
2961.00,0.1303
2960.00,0.1347
2959.00,0.1386
2958.00,0.1425
2957.00,0.1470
2956.00,0.1526
2955.00,0.1595
2954.00,0.1675
2953.00,0.1760
2952.00,0.1842
2951.00,0.1908
2950.00,0.1945
2949.00,0.1944
2948.00,0.1900
2947.00,0.1814
2946.00,0.1696
2945.00,0.1562
2944.00,0.1428
2943.00,0.1307
2942.00,0.1208
2941.00,0.1135
2940.00,0.1089
2939.00,0.1067
2938.00,0.1067
2937.00,0.1087
2936.00,0.1125
2935.00,0.1179
2934.00,0.1248
2933.00,0.1330
2932.00,0.1424
2931.00,0.1527
2930.00,0.1637
2929.00,0.1750
2928.00,0.1863
2927.00,0.1973
2926.00,0.2078
2925.00,0.2178
2924.00,0.2274
2923.00,0.2368
2922.00,0.2461
2921.00,0.2552
2920.00,0.2635
2919.00,0.2702
2918.00,0.2743
2917.00,0.2750
2916.00,0.2719
2915.00,0.2655
2914.00,0.2566
2913.00,0.2462
2912.00,0.2354
2911.00,0.2249
2910.00,0.2150
2909.00,0.2059
2908.00,0.1974
2907.00,0.1893
2906.00,0.1815
2905.00,0.1739
2904.00,0.1663
2903.00,0.1589
2902.00,0.1517
2901.00,0.1447
2900.00,0.1381
2899.00,0.1319
2898.00,0.1261
2897.00,0.1209
2896.00,0.1164
2895.00,0.1126
2894.00,0.1094
2893.00,0.1070
2892.00,0.1052
2891.00,0.1041
2890.00,0.1036
2889.00,0.1035
2888.00,0.1039
2887.00,0.1046
2886.00,0.1057
2885.00,0.1072
2884.00,0.1091
2883.00,0.1115
2882.00,0.1144
2881.00,0.1176
2880.00,0.1208
2879.00,0.1236
2878.00,0.1255
2877.00,0.1263
2876.00,0.1261
2875.00,0.1254
2874.00,0.1246
2873.00,0.1243
2872.00,0.1248
2871.00,0.1262
2870.00,0.1282
2869.00,0.1303
2868.00,0.1318
2867.00,0.1316
2866.00,0.1290
2865.00,0.1237
2864.00,0.1158
2863.00,0.1064
2862.00,0.0966
2861.00,0.0874
2860.00,0.0794
2859.00,0.0730
2858.00,0.0682
2857.00,0.0647
2856.00,0.0622
2855.00,0.0606
2854.00,0.0597
2853.00,0.0594
2852.00,0.0598
2851.00,0.0608
2850.00,0.0625
2849.00,0.0650
2848.00,0.0682
2847.00,0.0723
2846.00,0.0773
2845.00,0.0831
2844.00,0.0896
2843.00,0.0967
2842.00,0.1039
2841.00,0.1106
2840.00,0.1163
2839.00,0.1199
2838.00,0.1208
2837.00,0.1183
2836.00,0.1125
2835.00,0.1039
2834.00,0.0935
2833.00,0.0825
2832.00,0.0720
2831.00,0.0626
2830.00,0.0547
2829.00,0.0482
2828.00,0.0430
2827.00,0.0388
2826.00,0.0354
2825.00,0.0327
2824.00,0.0304
2823.00,0.0285
2822.00,0.0268
2821.00,0.0253
2820.00,0.0241
2819.00,0.0230
2818.00,0.0220
2817.00,0.0213
2816.00,0.0206
2815.00,0.0199
2814.00,0.0193
2813.00,0.0188
2812.00,0.0182
2811.00,0.0177
2810.00,0.0172
2809.00,0.0166
2808.00,0.0160
2807.00,0.0154
2806.00,0.0147
2805.00,0.0140
2804.00,0.0134
2803.00,0.0128
2802.00,0.0123
2801.00,0.0118
2800.00,0.0114
2799.00,0.0111
2798.00,0.0108
2797.00,0.0106
2796.00,0.0103
2795.00,0.0101
2794.00,0.0098
2793.00,0.0095
2792.00,0.0092
2791.00,0.0089
2790.00,0.0087
2789.00,0.0084
2788.00,0.0081
2787.00,0.0079
2786.00,0.0076
2785.00,0.0074
2784.00,0.0072
2783.00,0.0070
2782.00,0.0068
2781.00,0.0067
2780.00,0.0065
2779.00,0.0063
2778.00,0.0062
2777.00,0.0060
2776.00,0.0059
2775.00,0.0058
2774.00,0.0057
2773.00,0.0057
2772.00,0.0056
2771.00,0.0056
2770.00,0.0056
2769.00,0.0055
2768.00,0.0055
2767.00,0.0055
2766.00,0.0055
2765.00,0.0054
2764.00,0.0054
2763.00,0.0054
2762.00,0.0054
2761.00,0.0053
2760.00,0.0053
2759.00,0.0053
2758.00,0.0052
2757.00,0.0052
2756.00,0.0052
2755.00,0.0052
2754.00,0.0052
2753.00,0.0052
2752.00,0.0052
2751.00,0.0052
2750.00,0.0051
2749.00,0.0051
2748.00,0.0051
2747.00,0.0052
2746.00,0.0052
2745.00,0.0053
2744.00,0.0054
2743.00,0.0055
2742.00,0.0056
2741.00,0.0057
2740.00,0.0058
2739.00,0.0059
2738.00,0.0061
2737.00,0.0063
2736.00,0.0064
2735.00,0.0065
2734.00,0.0067
2733.00,0.0068
2732.00,0.0070
2731.00,0.0072
2730.00,0.0075
2729.00,0.0077
2728.00,0.0080
2727.00,0.0083
2726.00,0.0085
2725.00,0.0088
2724.00,0.0089
2723.00,0.0090
2722.00,0.0089
2721.00,0.0087
2720.00,0.0084
2719.00,0.0081
2718.00,0.0078
2717.00,0.0075
2716.00,0.0072
2715.00,0.0069
2714.00,0.0066
2713.00,0.0063
2712.00,0.0061
2711.00,0.0059
2710.00,0.0057
2709.00,0.0055
2708.00,0.0054
2707.00,0.0052
2706.00,0.0051
2705.00,0.0050
2704.00,0.0049
2703.00,0.0048
2702.00,0.0048
2701.00,0.0047
2700.00,0.0046
2699.00,0.0046
2698.00,0.0045
2697.00,0.0045
2696.00,0.0045
2695.00,0.0045
2694.00,0.0045
2693.00,0.0045
2692.00,0.0044
2691.00,0.0044
2690.00,0.0044
2689.00,0.0044
2688.00,0.0044
2687.00,0.0044
2686.00,0.0044
2685.00,0.0044
2684.00,0.0045
2683.00,0.0045
2682.00,0.0045
2681.00,0.0045
2680.00,0.0045
2679.00,0.0046
2678.00,0.0045
2677.00,0.0045
2676.00,0.0045
2675.00,0.0045
2674.00,0.0045
2673.00,0.0045
2672.00,0.0045
2671.00,0.0044
2670.00,0.0044
2669.00,0.0044
2668.00,0.0044
2667.00,0.0045
2666.00,0.0045
2665.00,0.0045
2664.00,0.0046
2663.00,0.0046
2662.00,0.0047
2661.00,0.0048
2660.00,0.0048
2659.00,0.0048
2658.00,0.0048
2657.00,0.0047
2656.00,0.0046
2655.00,0.0046
2654.00,0.0045
2653.00,0.0045
2652.00,0.0044
2651.00,0.0044
2650.00,0.0043
2649.00,0.0043
2648.00,0.0042
2647.00,0.0042
2646.00,0.0042
2645.00,0.0041
2644.00,0.0041
2643.00,0.0040
2642.00,0.0040
2641.00,0.0039
2640.00,0.0039
2639.00,0.0038
2638.00,0.0038
2637.00,0.0038
2636.00,0.0038
2635.00,0.0038
2634.00,0.0038
2633.00,0.0037
2632.00,0.0037
2631.00,0.0037
2630.00,0.0037
2629.00,0.0037
2628.00,0.0038
2627.00,0.0038
2626.00,0.0038
2625.00,0.0039
2624.00,0.0039
2623.00,0.0039
2622.00,0.0039
2621.00,0.0039
2620.00,0.0040
2619.00,0.0039
2618.00,0.0039
2617.00,0.0039
2616.00,0.0039
2615.00,0.0040
2614.00,0.0040
2613.00,0.0039
2612.00,0.0039
2611.00,0.0039
2610.00,0.0039
2609.00,0.0038
2608.00,0.0037
2607.00,0.0036
2606.00,0.0035
2605.00,0.0034
2604.00,0.0033
2603.00,0.0032
2602.00,0.0032
2601.00,0.0031
2600.00,0.0031
2599.00,0.0032
2598.00,0.0032
2597.00,0.0033
2596.00,0.0033
2595.00,0.0033
2594.00,0.0033
2593.00,0.0033
2592.00,0.0034
2591.00,0.0035
2590.00,0.0036
2589.00,0.0037
2588.00,0.0037
2587.00,0.0038
2586.00,0.0038
2585.00,0.0039
2584.00,0.0040
2583.00,0.0041
2582.00,0.0041
2581.00,0.0040
2580.00,0.0039
2579.00,0.0038
2578.00,0.0037
2577.00,0.0036
2576.00,0.0035
2575.00,0.0034
2574.00,0.0034
2573.00,0.0033
2572.00,0.0032
2571.00,0.0031
2570.00,0.0029
2569.00,0.0029
2568.00,0.0028
2567.00,0.0027
2566.00,0.0027
2565.00,0.0027
2564.00,0.0026
2563.00,0.0026
2562.00,0.0025
2561.00,0.0025
2560.00,0.0024
2559.00,0.0023
2558.00,0.0023
2557.00,0.0023
2556.00,0.0023
2555.00,0.0023
2554.00,0.0023
2553.00,0.0023
2552.00,0.0023
2551.00,0.0022
2550.00,0.0022
2549.00,0.0021
2548.00,0.0020
2547.00,0.0020
2546.00,0.0019
2545.00,0.0018
2544.00,0.0017
2543.00,0.0017
2542.00,0.0017
2541.00,0.0017
2540.00,0.0017
2539.00,0.0018
2538.00,0.0018
2537.00,0.0018
2536.00,0.0018
2535.00,0.0017
2534.00,0.0016
2533.00,0.0016
2532.00,0.0016
2531.00,0.0017
2530.00,0.0017
2529.00,0.0016
2528.00,0.0016
2527.00,0.0016
2526.00,0.0016
2525.00,0.0015
2524.00,0.0015
2523.00,0.0015
2522.00,0.0014
2521.00,0.0014
2520.00,0.0014
2519.00,0.0014
2518.00,0.0013
2517.00,0.0013
2516.00,0.0012
2515.00,0.0012
2514.00,0.0012
2513.00,0.0011
2512.00,0.0011
2511.00,0.0012
2510.00,0.0012
2509.00,0.0012
2508.00,0.0012
2507.00,0.0012
2506.00,0.0011
2505.00,0.0012
2504.00,0.0012
2503.00,0.0013
2502.00,0.0013
2501.00,0.0013
2500.00,0.0012
2499.00,0.0012
2498.00,0.0012
2497.00,0.0012
2496.00,0.0012
2495.00,0.0012
2494.00,0.0011
2493.00,0.0011
2492.00,0.0011
2491.00,0.0011
2490.00,0.0012
2489.00,0.0012
2488.00,0.0012
2487.00,0.0011
2486.00,0.0011
2485.00,0.0011
2484.00,0.0012
2483.00,0.0012
2482.00,0.0012
2481.00,0.0012
2480.00,0.0012
2479.00,0.0012
2478.00,0.0012
2477.00,0.0011
2476.00,0.0011
2475.00,0.0011
2474.00,0.0011
2473.00,0.0010
2472.00,0.0010
2471.00,0.0011
2470.00,0.0011
2469.00,0.0011
2468.00,0.0010
2467.00,0.0010
2466.00,0.0009
2465.00,0.0010
2464.00,0.0011
2463.00,0.0011
2462.00,0.0011
2461.00,0.0011
2460.00,0.0011
2459.00,0.0011
2458.00,0.0011
2457.00,0.0011
2456.00,0.0012
2455.00,0.0012
2454.00,0.0012
2453.00,0.0012
2452.00,0.0013
2451.00,0.0014
2450.00,0.0014
2449.00,0.0014
2448.00,0.0013
2447.00,0.0013
2446.00,0.0013
2445.00,0.0013
2444.00,0.0012
2443.00,0.0012
2442.00,0.0011
2441.00,0.0011
2440.00,0.0011
2439.00,0.0012
2438.00,0.0012
2437.00,0.0012
2436.00,0.0013
2435.00,0.0013
2434.00,0.0014
2433.00,0.0014
2432.00,0.0014
2431.00,0.0015
2430.00,0.0015
2429.00,0.0015
2428.00,0.0015
2427.00,0.0014
2426.00,0.0014
2425.00,0.0013
2424.00,0.0013
2423.00,0.0013
2422.00,0.0013
2421.00,0.0012
2420.00,0.0011
2419.00,0.0010
2418.00,0.0009
2417.00,0.0010
2416.00,0.0010
2415.00,0.0011
2414.00,0.0011
2413.00,0.0012
2412.00,0.0012
2411.00,0.0013
2410.00,0.0013
2409.00,0.0013
2408.00,0.0013
2407.00,0.0012
2406.00,0.0011
2405.00,0.0010
2404.00,0.0010
2403.00,0.0010
2402.00,0.0010
2401.00,0.0010
2400.00,0.0010
2399.00,0.0010
2398.00,0.0010
2397.00,0.0010
2396.00,0.0009
2395.00,0.0009
2394.00,0.0008
2393.00,0.0008
2392.00,0.0008
2391.00,0.0008
2390.00,0.0008
2389.00,0.0008
2388.00,0.0007
2387.00,0.0007
2386.00,0.0007
2385.00,0.0007
2384.00,0.0007
2383.00,0.0007
2382.00,0.0006
2381.00,0.0006
2380.00,0.0005
2379.00,0.0005
2378.00,0.0004
2377.00,0.0005
2376.00,0.0005
2375.00,0.0005
2374.00,0.0006
2373.00,0.0006
2372.00,0.0006
2371.00,0.0006
2370.00,0.0006
2369.00,0.0005
2368.00,0.0005
2367.00,0.0005
2366.00,0.0004
2365.00,0.0004
2364.00,0.0005
2363.00,0.0006
2362.00,0.0007
2361.00,0.0008
2360.00,0.0008
2359.00,0.0008
2358.00,0.0007
2357.00,0.0006
2356.00,0.0006
2355.00,0.0005
2354.00,0.0004
2353.00,0.0004
2352.00,0.0004
2351.00,0.0006
2350.00,0.0007
2349.00,0.0007
2348.00,0.0007
2347.00,0.0007
2346.00,0.0007
2345.00,0.0008
2344.00,0.0009
2343.00,0.0009
2342.00,0.0008
2341.00,0.0007
2340.00,0.0007
2339.00,0.0007
2338.00,0.0008
2337.00,0.0009
2336.00,0.0010
2335.00,0.0010
2334.00,0.0009
2333.00,0.0008
2332.00,0.0008
2331.00,0.0008
2330.00,0.0008
2329.00,0.0008
2328.00,0.0010
2327.00,0.0012
2326.00,0.0016
2325.00,0.0020
2324.00,0.0021
2323.00,0.0021
2322.00,0.0019
2321.00,0.0018
2320.00,0.0017
2319.00,0.0016
2318.00,0.0016
2317.00,0.0016
2316.00,0.0015
2315.00,0.0014
2314.00,0.0013
2313.00,0.0012
2312.00,0.0012
2311.00,0.0012
2310.00,0.0012
2309.00,0.0012
2308.00,0.0013
2307.00,0.0013
2306.00,0.0012
2305.00,0.0012
2304.00,0.0012
2303.00,0.0012
2302.00,0.0012
2301.00,0.0012
2300.00,0.0012
2299.00,0.0013
2298.00,0.0013
2297.00,0.0013
2296.00,0.0014
2295.00,0.0014
2294.00,0.0014
2293.00,0.0014
2292.00,0.0014
2291.00,0.0015
2290.00,0.0016
2289.00,0.0018
2288.00,0.0019
2287.00,0.0019
2286.00,0.0019
2285.00,0.0019
2284.00,0.0018
2283.00,0.0017
2282.00,0.0016
2281.00,0.0015
2280.00,0.0014
2279.00,0.0014
2278.00,0.0013
2277.00,0.0013
2276.00,0.0014
2275.00,0.0015
2274.00,0.0015
2273.00,0.0015
2272.00,0.0014
2271.00,0.0013
2270.00,0.0013
2269.00,0.0013
2268.00,0.0013
2267.00,0.0013
2266.00,0.0012
2265.00,0.0012
2264.00,0.0012
2263.00,0.0012
2262.00,0.0012
2261.00,0.0012
2260.00,0.0012
2259.00,0.0012
2258.00,0.0012
2257.00,0.0011
2256.00,0.0011
2255.00,0.0011
2254.00,0.0011
2253.00,0.0011
2252.00,0.0011
2251.00,0.0012
2250.00,0.0012
2249.00,0.0012
2248.00,0.0012
2247.00,0.0011
2246.00,0.0011
2245.00,0.0011
2244.00,0.0010
2243.00,0.0009
2242.00,0.0008
2241.00,0.0007
2240.00,0.0007
2239.00,0.0007
2238.00,0.0008
2237.00,0.0008
2236.00,0.0009
2235.00,0.0010
2234.00,0.0010
2233.00,0.0010
2232.00,0.0010
2231.00,0.0009
2230.00,0.0010
2229.00,0.0010
2228.00,0.0011
2227.00,0.0010
2226.00,0.0010
2225.00,0.0009
2224.00,0.0009
2223.00,0.0008
2222.00,0.0006
2221.00,0.0005
2220.00,0.0004
2219.00,0.0004
2218.00,0.0003
2217.00,0.0003
2216.00,0.0003
2215.00,0.0004
2214.00,0.0006
2213.00,0.0008
2212.00,0.0008
2211.00,0.0007
2210.00,0.0006
2209.00,0.0004
2208.00,0.0002
2207.00,0.0001
2206.00,-0.0001
2205.00,-0.0000
2204.00,0.0002
2203.00,0.0005
2202.00,0.0008
2201.00,0.0009
2200.00,0.0010
2199.00,0.0010
2198.00,0.0011
2197.00,0.0013
2196.00,0.0015
2195.00,0.0017
2194.00,0.0017
2193.00,0.0015
2192.00,0.0012
2191.00,0.0011
2190.00,0.0011
2189.00,0.0013
2188.00,0.0014
2187.00,0.0013
2186.00,0.0011
2185.00,0.0009
2184.00,0.0006
2183.00,0.0005
2182.00,0.0005
2181.00,0.0007
2180.00,0.0009
2179.00,0.0011
2178.00,0.0012
2177.00,0.0011
2176.00,0.0010
2175.00,0.0007
2174.00,0.0005
2173.00,0.0005
2172.00,0.0006
2171.00,0.0008
2170.00,0.0010
2169.00,0.0013
2168.00,0.0015
2167.00,0.0017
2166.00,0.0019
2165.00,0.0019
2164.00,0.0019
2163.00,0.0017
2162.00,0.0015
2161.00,0.0012
2160.00,0.0006
2159.00,-0.0005
2158.00,-0.0015
2157.00,-0.0021
2156.00,-0.0023
2155.00,-0.0022
2154.00,-0.0019
2153.00,-0.0017
2152.00,-0.0015
2151.00,-0.0015
2150.00,-0.0014
2149.00,-0.0014
2148.00,-0.0013
2147.00,-0.0013
2146.00,-0.0012
2145.00,-0.0011
2144.00,-0.0009
2143.00,-0.0008
2142.00,-0.0007
2141.00,-0.0007
2140.00,-0.0008
2139.00,-0.0009
2138.00,-0.0010
2137.00,-0.0010
2136.00,-0.0010
2135.00,-0.0012
2134.00,-0.0015
2133.00,-0.0016
2132.00,-0.0015
2131.00,-0.0012
2130.00,-0.0009
2129.00,-0.0007
2128.00,-0.0005
2127.00,-0.0004
2126.00,-0.0003
2125.00,-0.0003
2124.00,-0.0003
2123.00,-0.0003
2122.00,-0.0002
2121.00,-0.0001
2120.00,0.0000
2119.00,0.0000
2118.00,0.0001
2117.00,0.0001
2116.00,0.0002
2115.00,0.0003
2114.00,0.0004
2113.00,0.0004
2112.00,0.0005
2111.00,0.0004
2110.00,0.0004
2109.00,0.0003
2108.00,0.0003
2107.00,0.0003
2106.00,0.0003
2105.00,0.0003
2104.00,0.0002
2103.00,0.0001
2102.00,0.0000
2101.00,0.0000
2100.00,0.0001
2099.00,0.0002
2098.00,0.0002
2097.00,0.0001
2096.00,-0.0000
2095.00,-0.0002
2094.00,-0.0002
2093.00,-0.0001
2092.00,0.0000
2091.00,0.0000
2090.00,-0.0000
2089.00,-0.0002
2088.00,-0.0002
2087.00,-0.0002
2086.00,-0.0001
2085.00,-0.0000
2084.00,0.0001
2083.00,0.0002
2082.00,0.0002
2081.00,0.0003
2080.00,0.0003
2079.00,0.0003
2078.00,0.0002
2077.00,0.0002
2076.00,0.0002
2075.00,0.0002
2074.00,0.0002
2073.00,0.0002
2072.00,0.0002
2071.00,0.0003
2070.00,0.0004
2069.00,0.0004
2068.00,0.0002
2067.00,0.0001
2066.00,0.0000
2065.00,0.0002
2064.00,0.0004
2063.00,0.0005
2062.00,0.0004
2061.00,0.0003
2060.00,0.0002
2059.00,0.0001
2058.00,0.0002
2057.00,0.0003
2056.00,0.0003
2055.00,0.0003
2054.00,0.0003
2053.00,0.0005
2052.00,0.0009
2051.00,0.0012
2050.00,0.0012
2049.00,0.0010
2048.00,0.0007
2047.00,0.0005
2046.00,0.0005
2045.00,0.0007
2044.00,0.0008
2043.00,0.0008
2042.00,0.0009
2041.00,0.0010
2040.00,0.0011
2039.00,0.0009
2038.00,0.0005
2037.00,0.0001
2036.00,-0.0002
2035.00,-0.0003
2034.00,-0.0004
2033.00,-0.0004
2032.00,-0.0005
2031.00,-0.0006
2030.00,-0.0009
2029.00,-0.0012
2028.00,-0.0014
2027.00,-0.0016
2026.00,-0.0018
2025.00,-0.0019
2024.00,-0.0019
2023.00,-0.0016
2022.00,-0.0012
2021.00,-0.0008
2020.00,-0.0006
2019.00,-0.0006
2018.00,-0.0007
2017.00,-0.0007
2016.00,-0.0007
2015.00,-0.0006
2014.00,-0.0006
2013.00,-0.0004
2012.00,-0.0002
2011.00,-0.0000
2010.00,-0.0002
2009.00,-0.0005
2008.00,-0.0009
2007.00,-0.0012
2006.00,-0.0014
2005.00,-0.0014
2004.00,-0.0012
2003.00,-0.0011
2002.00,-0.0010
2001.00,-0.0010
2000.00,-0.0010
1999.00,-0.0009
1998.00,-0.0008
1997.00,-0.0007
1996.00,-0.0007
1995.00,-0.0008
1994.00,-0.0009
1993.00,-0.0009
1992.00,-0.0008
1991.00,-0.0006
1990.00,-0.0004
1989.00,-0.0002
1988.00,0.0000
1987.00,0.0002
1986.00,0.0004
1985.00,0.0004
1984.00,0.0003
1983.00,0.0001
1982.00,0.0001
1981.00,0.0003
1980.00,0.0004
1979.00,0.0002
1978.00,-0.0002
1977.00,-0.0007
1976.00,-0.0011
1975.00,-0.0014
1974.00,-0.0017
1973.00,-0.0020
1972.00,-0.0020
1971.00,-0.0018
1970.00,-0.0015
1969.00,-0.0012
1968.00,-0.0009
1967.00,-0.0009
1966.00,-0.0010
1965.00,-0.0013
1964.00,-0.0015
1963.00,-0.0015
1962.00,-0.0015
1961.00,-0.0014
1960.00,-0.0014
1959.00,-0.0016
1958.00,-0.0017
1957.00,-0.0017
1956.00,-0.0016
1955.00,-0.0015
1954.00,-0.0014
1953.00,-0.0014
1952.00,-0.0014
1951.00,-0.0014
1950.00,-0.0014
1949.00,-0.0014
1948.00,-0.0013
1947.00,-0.0012
1946.00,-0.0011
1945.00,-0.0011
1944.00,-0.0010
1943.00,-0.0011
1942.00,-0.0012
1941.00,-0.0012
1940.00,-0.0011
1939.00,-0.0011
1938.00,-0.0011
1937.00,-0.0012
1936.00,-0.0013
1935.00,-0.0013
1934.00,-0.0012
1933.00,-0.0010
1932.00,-0.0008
1931.00,-0.0007
1930.00,-0.0007
1929.00,-0.0008
1928.00,-0.0008
1927.00,-0.0008
1926.00,-0.0008
1925.00,-0.0006
1924.00,-0.0005
1923.00,-0.0004
1922.00,-0.0003
1921.00,-0.0002
1920.00,-0.0001
1919.00,0.0000
1918.00,0.0001
1917.00,-0.0001
1916.00,-0.0002
1915.00,-0.0004
1914.00,-0.0005
1913.00,-0.0005
1912.00,-0.0004
1911.00,-0.0003
1910.00,-0.0002
1909.00,-0.0002
1908.00,-0.0002
1907.00,-0.0002
1906.00,-0.0002
1905.00,-0.0002
1904.00,-0.0002
1903.00,-0.0002
1902.00,-0.0002
1901.00,-0.0003
1900.00,-0.0003
1899.00,-0.0004
1898.00,-0.0004
1897.00,-0.0003
1896.00,-0.0001
1895.00,0.0000
1894.00,0.0001
1893.00,0.0001
1892.00,0.0000
1891.00,0.0000
1890.00,-0.0001
1889.00,-0.0001
1888.00,-0.0002
1887.00,-0.0002
1886.00,-0.0002
1885.00,-0.0002
1884.00,-0.0002
1883.00,-0.0002
1882.00,-0.0002
1881.00,-0.0001
1880.00,-0.0001
1879.00,-0.0000
1878.00,-0.0000
1877.00,-0.0001
1876.00,-0.0001
1875.00,-0.0001
1874.00,-0.0001
1873.00,-0.0001
1872.00,-0.0000
1871.00,-0.0001
1870.00,-0.0001
1869.00,-0.0001
1868.00,-0.0001
1867.00,-0.0001
1866.00,-0.0000
1865.00,-0.0000
1864.00,-0.0001
1863.00,-0.0001
1862.00,-0.0001
1861.00,0.0000
1860.00,0.0001
1859.00,0.0002
1858.00,0.0002
1857.00,0.0001
1856.00,0.0001
1855.00,0.0000
1854.00,0.0000
1853.00,0.0001
1852.00,0.0001
1851.00,0.0002
1850.00,0.0002
1849.00,0.0002
1848.00,0.0002
1847.00,0.0002
1846.00,0.0002
1845.00,0.0002
1844.00,0.0002
1843.00,0.0002
1842.00,0.0002
1841.00,0.0003
1840.00,0.0003
1839.00,0.0003
1838.00,0.0003
1837.00,0.0003
1836.00,0.0002
1835.00,0.0001
1834.00,0.0001
1833.00,0.0002
1832.00,0.0002
1831.00,0.0003
1830.00,0.0003
1829.00,0.0003
1828.00,0.0003
1827.00,0.0003
1826.00,0.0004
1825.00,0.0004
1824.00,0.0004
1823.00,0.0004
1822.00,0.0004
1821.00,0.0004
1820.00,0.0003
1819.00,0.0001
1818.00,-0.0000
1817.00,-0.0001
1816.00,-0.0001
1815.00,0.0000
1814.00,0.0001
1813.00,0.0003
1812.00,0.0003
1811.00,0.0004
1810.00,0.0004
1809.00,0.0004
1808.00,0.0004
1807.00,0.0004
1806.00,0.0004
1805.00,0.0004
1804.00,0.0004
1803.00,0.0004
1802.00,0.0004
1801.00,0.0005
1800.00,0.0005
1799.00,0.0006
1798.00,0.0006
1797.00,0.0006
1796.00,0.0006
1795.00,0.0006
1794.00,0.0006
1793.00,0.0006
1792.00,0.0006
1791.00,0.0006
1790.00,0.0006
1789.00,0.0006
1788.00,0.0006
1787.00,0.0007
1786.00,0.0007
1785.00,0.0008
1784.00,0.0008
1783.00,0.0008
1782.00,0.0008
1781.00,0.0009
1780.00,0.0009
1779.00,0.0009
1778.00,0.0009
1777.00,0.0008
1776.00,0.0008
1775.00,0.0008
1774.00,0.0008
1773.00,0.0009
1772.00,0.0009
1771.00,0.0008
1770.00,0.0008
1769.00,0.0008
1768.00,0.0009
1767.00,0.0009
1766.00,0.0010
1765.00,0.0010
1764.00,0.0011
1763.00,0.0011
1762.00,0.0011
1761.00,0.0011
1760.00,0.0012
1759.00,0.0012
1758.00,0.0012
1757.00,0.0012
1756.00,0.0012
1755.00,0.0012
1754.00,0.0012
1753.00,0.0012
1752.00,0.0013
1751.00,0.0014
1750.00,0.0016
1749.00,0.0017
1748.00,0.0019
1747.00,0.0019
1746.00,0.0020
1745.00,0.0021
1744.00,0.0022
1743.00,0.0023
1742.00,0.0023
1741.00,0.0023
1740.00,0.0023
1739.00,0.0023
1738.00,0.0024
1737.00,0.0025
1736.00,0.0026
1735.00,0.0026
1734.00,0.0026
1733.00,0.0026
1732.00,0.0026
1731.00,0.0026
1730.00,0.0025
1729.00,0.0026
1728.00,0.0026
1727.00,0.0026
1726.00,0.0025
1725.00,0.0025
1724.00,0.0025
1723.00,0.0025
1722.00,0.0024
1721.00,0.0024
1720.00,0.0024
1719.00,0.0024
1718.00,0.0024
1717.00,0.0024
1716.00,0.0024
1715.00,0.0024
1714.00,0.0024
1713.00,0.0024
1712.00,0.0024
1711.00,0.0024
1710.00,0.0024
1709.00,0.0025
1708.00,0.0026
1707.00,0.0026
1706.00,0.0027
1705.00,0.0027
1704.00,0.0027
1703.00,0.0028
1702.00,0.0028
1701.00,0.0028
1700.00,0.0029
1699.00,0.0029
1698.00,0.0029
1697.00,0.0029
1696.00,0.0030
1695.00,0.0031
1694.00,0.0033
1693.00,0.0035
1692.00,0.0038
1691.00,0.0039
1690.00,0.0040
1689.00,0.0041
1688.00,0.0042
1687.00,0.0043
1686.00,0.0045
1685.00,0.0047
1684.00,0.0049
1683.00,0.0051
1682.00,0.0052
1681.00,0.0054
1680.00,0.0055
1679.00,0.0057
1678.00,0.0057
1677.00,0.0058
1676.00,0.0060
1675.00,0.0061
1674.00,0.0063
1673.00,0.0065
1672.00,0.0066
1671.00,0.0068
1670.00,0.0069
1669.00,0.0069
1668.00,0.0069
1667.00,0.0070
1666.00,0.0070
1665.00,0.0070
1664.00,0.0071
1663.00,0.0071
1662.00,0.0072
1661.00,0.0072
1660.00,0.0072
1659.00,0.0072
1658.00,0.0072
1657.00,0.0071
1656.00,0.0070
1655.00,0.0070
1654.00,0.0070
1653.00,0.0070
1652.00,0.0070
1651.00,0.0071
1650.00,0.0071
1649.00,0.0071
1648.00,0.0071
1647.00,0.0071
1646.00,0.0070
1645.00,0.0070
1644.00,0.0070
1643.00,0.0070
1642.00,0.0070
1641.00,0.0070
1640.00,0.0070
1639.00,0.0069
1638.00,0.0069
1637.00,0.0069
1636.00,0.0068
1635.00,0.0068
1634.00,0.0067
1633.00,0.0067
1632.00,0.0067
1631.00,0.0067
1630.00,0.0067
1629.00,0.0066
1628.00,0.0065
1627.00,0.0064
1626.00,0.0062
1625.00,0.0061
1624.00,0.0061
1623.00,0.0062
1622.00,0.0062
1621.00,0.0062
1620.00,0.0062
1619.00,0.0062
1618.00,0.0061
1617.00,0.0061
1616.00,0.0060
1615.00,0.0060
1614.00,0.0060
1613.00,0.0061
1612.00,0.0062
1611.00,0.0062
1610.00,0.0062
1609.00,0.0062
1608.00,0.0061
1607.00,0.0061
1606.00,0.0061
1605.00,0.0060
1604.00,0.0061
1603.00,0.0060
1602.00,0.0060
1601.00,0.0060
1600.00,0.0060
1599.00,0.0059
1598.00,0.0059
1597.00,0.0059
1596.00,0.0059
1595.00,0.0059
1594.00,0.0058
1593.00,0.0058
1592.00,0.0058
1591.00,0.0057
1590.00,0.0057
1589.00,0.0057
1588.00,0.0058
1587.00,0.0058
1586.00,0.0058
1585.00,0.0059
1584.00,0.0059
1583.00,0.0059
1582.00,0.0060
1581.00,0.0060
1580.00,0.0061
1579.00,0.0061
1578.00,0.0062
1577.00,0.0061
1576.00,0.0061
1575.00,0.0060
1574.00,0.0059
1573.00,0.0060
1572.00,0.0060
1571.00,0.0060
1570.00,0.0060
1569.00,0.0060
1568.00,0.0060
1567.00,0.0060
1566.00,0.0061
1565.00,0.0061
1564.00,0.0062
1563.00,0.0062
1562.00,0.0062
1561.00,0.0062
1560.00,0.0064
1559.00,0.0065
1558.00,0.0065
1557.00,0.0065
1556.00,0.0066
1555.00,0.0067
1554.00,0.0067
1553.00,0.0067
1552.00,0.0068
1551.00,0.0069
1550.00,0.0069
1549.00,0.0070
1548.00,0.0070
1547.00,0.0070
1546.00,0.0070
1545.00,0.0070
1544.00,0.0070
1543.00,0.0070
1542.00,0.0070
1541.00,0.0069
1540.00,0.0068
1539.00,0.0066
1538.00,0.0065
1537.00,0.0064
1536.00,0.0064
1535.00,0.0063
1534.00,0.0061
1533.00,0.0059
1532.00,0.0057
1531.00,0.0057
1530.00,0.0056
1529.00,0.0056
1528.00,0.0055
1527.00,0.0054
1526.00,0.0053
1525.00,0.0053
1524.00,0.0054
1523.00,0.0053
1522.00,0.0053
1521.00,0.0052
1520.00,0.0053
1519.00,0.0053
1518.00,0.0054
1517.00,0.0055
1516.00,0.0056
1515.00,0.0056
1514.00,0.0056
1513.00,0.0057
1512.00,0.0058
1511.00,0.0058
1510.00,0.0058
1509.00,0.0058
1508.00,0.0060
1507.00,0.0060
1506.00,0.0060
1505.00,0.0063
1504.00,0.0066
1503.00,0.0068
1502.00,0.0070
1501.00,0.0072
1500.00,0.0075
1499.00,0.0077
1498.00,0.0079
1497.00,0.0082
1496.00,0.0085
1495.00,0.0088
1494.00,0.0090
1493.00,0.0093
1492.00,0.0096
1491.00,0.0099
1490.00,0.0103
1489.00,0.0108
1488.00,0.0113
1487.00,0.0118
1486.00,0.0122
1485.00,0.0129
1484.00,0.0135
1483.00,0.0143
1482.00,0.0151
1481.00,0.0161
1480.00,0.0173
1479.00,0.0185
1478.00,0.0199
1477.00,0.0217
1476.00,0.0239
1475.00,0.0265
1474.00,0.0300
1473.00,0.0353
1472.00,0.0418
1471.00,0.0483
1470.00,0.0545
1469.00,0.0610
1468.00,0.0681
1467.00,0.0759
1466.00,0.0851
1465.00,0.0952
1464.00,0.1043
1463.00,0.1109
1462.00,0.1153
1461.00,0.1185
1460.00,0.1207
1459.00,0.1222
1458.00,0.1234
1457.00,0.1243
1456.00,0.1244
1455.00,0.1236
1454.00,0.1224
1453.00,0.1206
1452.00,0.1179
1451.00,0.1138
1450.00,0.1082
1449.00,0.1004
1448.00,0.0907
1447.00,0.0807
1446.00,0.0719
1445.00,0.0645
1444.00,0.0582
1443.00,0.0532
1442.00,0.0495
1441.00,0.0471
1440.00,0.0457
1439.00,0.0453
1438.00,0.0457
1437.00,0.0462
1436.00,0.0454
1435.00,0.0429
1434.00,0.0390
1433.00,0.0343
1432.00,0.0294
1431.00,0.0251
1430.00,0.0219
1429.00,0.0195
1428.00,0.0180
1427.00,0.0171
1426.00,0.0165
1425.00,0.0159
1424.00,0.0153
1423.00,0.0149
1422.00,0.0147
1421.00,0.0143
1420.00,0.0139
1419.00,0.0136
1418.00,0.0134
1417.00,0.0131
1416.00,0.0129
1415.00,0.0128
1414.00,0.0127
1413.00,0.0125
1412.00,0.0123
1411.00,0.0123
1410.00,0.0123
1409.00,0.0122
1408.00,0.0121
1407.00,0.0121
1406.00,0.0122
1405.00,0.0121
1404.00,0.0121
1403.00,0.0121
1402.00,0.0122
1401.00,0.0123
1400.00,0.0124
1399.00,0.0125
1398.00,0.0128
1397.00,0.0130
1396.00,0.0131
1395.00,0.0136
1394.00,0.0141
1393.00,0.0147
1392.00,0.0152
1391.00,0.0161
1390.00,0.0172
1389.00,0.0188
1388.00,0.0213
1387.00,0.0250
1386.00,0.0299
1385.00,0.0361
1384.00,0.0444
1383.00,0.0559
1382.00,0.0712
1381.00,0.0912
1380.00,0.1165
1379.00,0.1461
1378.00,0.1757
1377.00,0.1989
1376.00,0.2088
1375.00,0.2008
1374.00,0.1768
1373.00,0.1463
1372.00,0.1177
1371.00,0.0940
1370.00,0.0750
1369.00,0.0605
1368.00,0.0506
1367.00,0.0445
1366.00,0.0412
1365.00,0.0398
1364.00,0.0401
1363.00,0.0416
1362.00,0.0440
1361.00,0.0467
1360.00,0.0487
1359.00,0.0492
1358.00,0.0480
1357.00,0.0451
1356.00,0.0410
1355.00,0.0363
1354.00,0.0318
1353.00,0.0280
1352.00,0.0249
1351.00,0.0224
1350.00,0.0204
1349.00,0.0188
1348.00,0.0175
1347.00,0.0164
1346.00,0.0156
1345.00,0.0149
1344.00,0.0143
1343.00,0.0138
1342.00,0.0135
1341.00,0.0131
1340.00,0.0129
1339.00,0.0127
1338.00,0.0126
1337.00,0.0126
1336.00,0.0128
1335.00,0.0130
1334.00,0.0134
1333.00,0.0139
1332.00,0.0144
1331.00,0.0148
1330.00,0.0150
1329.00,0.0148
1328.00,0.0144
1327.00,0.0139
1326.00,0.0131
1325.00,0.0124
1324.00,0.0118
1323.00,0.0112
1322.00,0.0108
1321.00,0.0105
1320.00,0.0102
1319.00,0.0100
1318.00,0.0097
1317.00,0.0095
1316.00,0.0093
1315.00,0.0091
1314.00,0.0090
1313.00,0.0090
1312.00,0.0091
1311.00,0.0093
1310.00,0.0096
1309.00,0.0102
1308.00,0.0109
1307.00,0.0119
1306.00,0.0128
1305.00,0.0135
1304.00,0.0137
1303.00,0.0137
1302.00,0.0135
1301.00,0.0134
1300.00,0.0134
1299.00,0.0136
1298.00,0.0138
1297.00,0.0139
1296.00,0.0139
1295.00,0.0138
1294.00,0.0134
1293.00,0.0130
1292.00,0.0124
1291.00,0.0119
1290.00,0.0114
1289.00,0.0109
1288.00,0.0106
1287.00,0.0102
1286.00,0.0099
1285.00,0.0096
1284.00,0.0094
1283.00,0.0093
1282.00,0.0091
1281.00,0.0090
1280.00,0.0089
1279.00,0.0087
1278.00,0.0086
1277.00,0.0085
1276.00,0.0084
1275.00,0.0084
1274.00,0.0083
1273.00,0.0083
1272.00,0.0083
1271.00,0.0084
1270.00,0.0084
1269.00,0.0084
1268.00,0.0084
1267.00,0.0085
1266.00,0.0086
1265.00,0.0088
1264.00,0.0090
1263.00,0.0092
1262.00,0.0095
1261.00,0.0098
1260.00,0.0103
1259.00,0.0109
1258.00,0.0115
1257.00,0.0120
1256.00,0.0122
1255.00,0.0121
1254.00,0.0116
1253.00,0.0110
1252.00,0.0104
1251.00,0.0099
1250.00,0.0096
1249.00,0.0093
1248.00,0.0091
1247.00,0.0089
1246.00,0.0088
1245.00,0.0086
1244.00,0.0085
1243.00,0.0084
1242.00,0.0083
1241.00,0.0083
1240.00,0.0083
1239.00,0.0083
1238.00,0.0083
1237.00,0.0082
1236.00,0.0082
1235.00,0.0081
1234.00,0.0081
1233.00,0.0081
1232.00,0.0081
1231.00,0.0081
1230.00,0.0081
1229.00,0.0083
1228.00,0.0084
1227.00,0.0086
1226.00,0.0088
1225.00,0.0091
1224.00,0.0094
1223.00,0.0097
1222.00,0.0100
1221.00,0.0103
1220.00,0.0105
1219.00,0.0107
1218.00,0.0107
1217.00,0.0106
1216.00,0.0104
1215.00,0.0101
1214.00,0.0097
1213.00,0.0094
1212.00,0.0090
1211.00,0.0088
1210.00,0.0086
1209.00,0.0085
1208.00,0.0084
1207.00,0.0083
1206.00,0.0081
1205.00,0.0079
1204.00,0.0078
1203.00,0.0078
1202.00,0.0078
1201.00,0.0078
1200.00,0.0078
1199.00,0.0078
1198.00,0.0078
1197.00,0.0077
1196.00,0.0077
1195.00,0.0077
1194.00,0.0078
1193.00,0.0078
1192.00,0.0078
1191.00,0.0078
1190.00,0.0077
1189.00,0.0077
1188.00,0.0078
1187.00,0.0079
1186.00,0.0080
1185.00,0.0081
1184.00,0.0081
1183.00,0.0082
1182.00,0.0084
1181.00,0.0086
1180.00,0.0089
1179.00,0.0092
1178.00,0.0097
1177.00,0.0104
1176.00,0.0114
1175.00,0.0126
1174.00,0.0142
1173.00,0.0162
1172.00,0.0186
1171.00,0.0213
1170.00,0.0239
1169.00,0.0261
1168.00,0.0276
1167.00,0.0282
1166.00,0.0279
1165.00,0.0269
1164.00,0.0257
1163.00,0.0244
1162.00,0.0231
1161.00,0.0221
1160.00,0.0213
1159.00,0.0207
1158.00,0.0202
1157.00,0.0199
1156.00,0.0197
1155.00,0.0196
1154.00,0.0195
1153.00,0.0192
1152.00,0.0188
1151.00,0.0181
1150.00,0.0173
1149.00,0.0164
1148.00,0.0156
1147.00,0.0148
1146.00,0.0140
1145.00,0.0133
1144.00,0.0126
1143.00,0.0119
1142.00,0.0112
1141.00,0.0107
1140.00,0.0102
1139.00,0.0099
1138.00,0.0096
1137.00,0.0093
1136.00,0.0091
1135.00,0.0089
1134.00,0.0087
1133.00,0.0086
1132.00,0.0086
1131.00,0.0086
1130.00,0.0087
1129.00,0.0088
1128.00,0.0091
1127.00,0.0093
1126.00,0.0094
1125.00,0.0094
1124.00,0.0094
1123.00,0.0093
1122.00,0.0093
1121.00,0.0094
1120.00,0.0095
1119.00,0.0096
1118.00,0.0097
1117.00,0.0098
1116.00,0.0100
1115.00,0.0101
1114.00,0.0103
1113.00,0.0104
1112.00,0.0106
1111.00,0.0108
1110.00,0.0112
1109.00,0.0118
1108.00,0.0125
1107.00,0.0132
1106.00,0.0140
1105.00,0.0147
1104.00,0.0153
1103.00,0.0157
1102.00,0.0157
1101.00,0.0154
1100.00,0.0148
1099.00,0.0140
1098.00,0.0132
1097.00,0.0125
1096.00,0.0119
1095.00,0.0114
1094.00,0.0110
1093.00,0.0107
1092.00,0.0104
1091.00,0.0103
1090.00,0.0101
1089.00,0.0099
1088.00,0.0098
1087.00,0.0097
1086.00,0.0096
1085.00,0.0095
1084.00,0.0095
1083.00,0.0094
1082.00,0.0092
1081.00,0.0090
1080.00,0.0088
1079.00,0.0086
1078.00,0.0085
1077.00,0.0084
1076.00,0.0083
1075.00,0.0082
1074.00,0.0083
1073.00,0.0084
1072.00,0.0085
1071.00,0.0086
1070.00,0.0087
1069.00,0.0087
1068.00,0.0087
1067.00,0.0087
1066.00,0.0086
1065.00,0.0085
1064.00,0.0085
1063.00,0.0085
1062.00,0.0086
1061.00,0.0087
1060.00,0.0088
1059.00,0.0089
1058.00,0.0090
1057.00,0.0090
1056.00,0.0091
1055.00,0.0091
1054.00,0.0091
1053.00,0.0091
1052.00,0.0091
1051.00,0.0092
1050.00,0.0094
1049.00,0.0097
1048.00,0.0099
1047.00,0.0102
1046.00,0.0103
1045.00,0.0104
1044.00,0.0103
1043.00,0.0102
1042.00,0.0100
1041.00,0.0100
1040.00,0.0099
1039.00,0.0100
1038.00,0.0100
1037.00,0.0100
1036.00,0.0100
1035.00,0.0099
1034.00,0.0098
1033.00,0.0098
1032.00,0.0097
1031.00,0.0096
1030.00,0.0096
1029.00,0.0096
1028.00,0.0095
1027.00,0.0095
1026.00,0.0094
1025.00,0.0093
1024.00,0.0093
1023.00,0.0094
1022.00,0.0094
1021.00,0.0094
1020.00,0.0094
1019.00,0.0094
1018.00,0.0094
1017.00,0.0095
1016.00,0.0096
1015.00,0.0099
1014.00,0.0102
1013.00,0.0104
1012.00,0.0106
1011.00,0.0109
1010.00,0.0112
1009.00,0.0115
1008.00,0.0119
1007.00,0.0124
1006.00,0.0131
1005.00,0.0140
1004.00,0.0153
1003.00,0.0171
1002.00,0.0195
1001.00,0.0223
1000.00,0.0252
999.00,0.0275
998.00,0.0286
997.00,0.0280
996.00,0.0259
995.00,0.0228
994.00,0.0196
993.00,0.0168
992.00,0.0146
991.00,0.0131
990.00,0.0120
989.00,0.0114
988.00,0.0109
987.00,0.0108
986.00,0.0108
985.00,0.0111
984.00,0.0116
983.00,0.0123
982.00,0.0134
981.00,0.0149
980.00,0.0169
979.00,0.0194
978.00,0.0224
977.00,0.0259
976.00,0.0296
975.00,0.0330
974.00,0.0354
973.00,0.0361
972.00,0.0347
971.00,0.0315
970.00,0.0273
969.00,0.0230
968.00,0.0194
967.00,0.0166
966.00,0.0146
965.00,0.0130
964.00,0.0120
963.00,0.0112
962.00,0.0106
961.00,0.0100
960.00,0.0095
959.00,0.0091
958.00,0.0088
957.00,0.0086
956.00,0.0085
955.00,0.0084
954.00,0.0083
953.00,0.0082
952.00,0.0082
951.00,0.0081
950.00,0.0081
949.00,0.0081
948.00,0.0082
947.00,0.0083
946.00,0.0085
945.00,0.0088
944.00,0.0092
943.00,0.0095
942.00,0.0097
941.00,0.0097
940.00,0.0096
939.00,0.0093
938.00,0.0089
937.00,0.0085
936.00,0.0081
935.00,0.0077
934.00,0.0073
933.00,0.0070
932.00,0.0066
931.00,0.0064
930.00,0.0062
929.00,0.0062
928.00,0.0062
927.00,0.0063
926.00,0.0064
925.00,0.0065
924.00,0.0066
923.00,0.0067
922.00,0.0068
921.00,0.0068
920.00,0.0069
919.00,0.0069
918.00,0.0069
917.00,0.0071
916.00,0.0072
915.00,0.0073
914.00,0.0074
913.00,0.0075
912.00,0.0076
911.00,0.0077
910.00,0.0078
909.00,0.0080
908.00,0.0082
907.00,0.0086
906.00,0.0093
905.00,0.0104
904.00,0.0120
903.00,0.0140
902.00,0.0162
901.00,0.0182
900.00,0.0196
899.00,0.0200
898.00,0.0193
897.00,0.0176
896.00,0.0155
895.00,0.0135
894.00,0.0117
893.00,0.0103
892.00,0.0093
891.00,0.0088
890.00,0.0084
889.00,0.0082
888.00,0.0080
887.00,0.0078
886.00,0.0075
885.00,0.0073
884.00,0.0071
883.00,0.0071
882.00,0.0071
881.00,0.0072
880.00,0.0072
879.00,0.0072
878.00,0.0073
877.00,0.0075
876.00,0.0077
875.00,0.0079
874.00,0.0080
873.00,0.0080
872.00,0.0079
871.00,0.0077
870.00,0.0075
869.00,0.0073
868.00,0.0072
867.00,0.0072
866.00,0.0073
865.00,0.0074
864.00,0.0074
863.00,0.0075
862.00,0.0077
861.00,0.0079
860.00,0.0081
859.00,0.0083
858.00,0.0085
857.00,0.0087
856.00,0.0088
855.00,0.0091
854.00,0.0093
853.00,0.0094
852.00,0.0095
851.00,0.0097
850.00,0.0100
849.00,0.0105
848.00,0.0113
847.00,0.0125
846.00,0.0142
845.00,0.0167
844.00,0.0199
843.00,0.0235
842.00,0.0261
841.00,0.0266
840.00,0.0248
839.00,0.0216
838.00,0.0182
837.00,0.0155
836.00,0.0137
835.00,0.0126
834.00,0.0119
833.00,0.0115
832.00,0.0112
831.00,0.0110
830.00,0.0108
829.00,0.0105
828.00,0.0102
827.00,0.0101
826.00,0.0100
825.00,0.0099
824.00,0.0099
823.00,0.0100
822.00,0.0101
821.00,0.0103
820.00,0.0106
819.00,0.0110
818.00,0.0116
817.00,0.0122
816.00,0.0132
815.00,0.0143
814.00,0.0156
813.00,0.0171
812.00,0.0188
811.00,0.0205
810.00,0.0218
809.00,0.0226
808.00,0.0225
807.00,0.0217
806.00,0.0202
805.00,0.0184
804.00,0.0166
803.00,0.0150
802.00,0.0137
801.00,0.0128
800.00,0.0121
799.00,0.0115
798.00,0.0111
797.00,0.0107
796.00,0.0103
795.00,0.0098
794.00,0.0095
793.00,0.0092
792.00,0.0089
791.00,0.0086
790.00,0.0084
789.00,0.0081
788.00,0.0078
787.00,0.0076
786.00,0.0074
785.00,0.0073
784.00,0.0072
783.00,0.0070
782.00,0.0068
781.00,0.0064
780.00,0.0062
779.00,0.0061
778.00,0.0061
777.00,0.0063
776.00,0.0064
775.00,0.0066
774.00,0.0067
773.00,0.0068
772.00,0.0068
771.00,0.0068
770.00,0.0068
769.00,0.0068
768.00,0.0069
767.00,0.0070
766.00,0.0070
765.00,0.0070
764.00,0.0070
763.00,0.0069
762.00,0.0068
761.00,0.0066
760.00,0.0063
759.00,0.0060
758.00,0.0057
757.00,0.0055
756.00,0.0053
755.00,0.0053
754.00,0.0054
753.00,0.0056
752.00,0.0057
751.00,0.0057
750.00,0.0057
749.00,0.0058
748.00,0.0059
747.00,0.0061
746.00,0.0062
745.00,0.0064
744.00,0.0065
743.00,0.0066
742.00,0.0067
741.00,0.0068
740.00,0.0068
739.00,0.0069
738.00,0.0072
737.00,0.0075
736.00,0.0077
735.00,0.0079
734.00,0.0081
733.00,0.0083
732.00,0.0084
731.00,0.0084
730.00,0.0084
729.00,0.0083
728.00,0.0082
727.00,0.0080
726.00,0.0077
725.00,0.0074
724.00,0.0072
723.00,0.0071
722.00,0.0071
721.00,0.0070
720.00,0.0069
719.00,0.0069
718.00,0.0068
717.00,0.0068
716.00,0.0066
715.00,0.0064
714.00,0.0063
713.00,0.0061
712.00,0.0061
711.00,0.0061
710.00,0.0061
709.00,0.0061
708.00,0.0062
707.00,0.0062
706.00,0.0062
705.00,0.0061
704.00,0.0061
703.00,0.0062
702.00,0.0063
701.00,0.0063
700.00,0.0061
699.00,0.0060
698.00,0.0058
697.00,0.0057
696.00,0.0057
695.00,0.0058
694.00,0.0059
693.00,0.0060
692.00,0.0059
691.00,0.0056
690.00,0.0053
689.00,0.0051
688.00,0.0051
687.00,0.0053
686.00,0.0056
685.00,0.0058
684.00,0.0060
683.00,0.0060
682.00,0.0061
681.00,0.0060
680.00,0.0060
679.00,0.0060
678.00,0.0059
677.00,0.0059
676.00,0.0058
675.00,0.0057
674.00,0.0057
673.00,0.0058
672.00,0.0060
671.00,0.0062
670.00,0.0064
669.00,0.0063
668.00,0.0062
667.00,0.0062
666.00,0.0062
665.00,0.0062
664.00,0.0062
663.00,0.0062
662.00,0.0061
661.00,0.0060
660.00,0.0059
659.00,0.0060
658.00,0.0061
657.00,0.0062
656.00,0.0061
655.00,0.0059
654.00,0.0056
653.00,0.0054
652.00,0.0055
651.00,0.0058
650.00,0.0059
649.00,0.0060
648.00,0.0059
647.00,0.0058
646.00,0.0057
645.00,0.0056
644.00,0.0056
643.00,0.0059
642.00,0.0062
641.00,0.0064
640.00,0.0064
639.00,0.0063
638.00,0.0061
637.00,0.0059
636.00,0.0057
635.00,0.0057
634.00,0.0058
633.00,0.0059
632.00,0.0060
631.00,0.0061
630.00,0.0062
629.00,0.0063
628.00,0.0064
627.00,0.0065
626.00,0.0065
625.00,0.0064
624.00,0.0063
623.00,0.0061
622.00,0.0060
621.00,0.0060
620.00,0.0059
619.00,0.0059
618.00,0.0059
617.00,0.0059
616.00,0.0061
615.00,0.0063
614.00,0.0063
613.00,0.0062
612.00,0.0060
611.00,0.0060
610.00,0.0060
609.00,0.0060
608.00,0.0060
607.00,0.0061
606.00,0.0063
605.00,0.0063
604.00,0.0063
603.00,0.0063
602.00,0.0063
601.00,0.0064
600.00,0.0064
599.00,0.0064
598.00,0.0063
597.00,0.0061
596.00,0.0059
595.00,0.0060
594.00,0.0063
593.00,0.0065
592.00,0.0064
591.00,0.0062
590.00,0.0060
589.00,0.0059
588.00,0.0059
587.00,0.0061
586.00,0.0063
585.00,0.0064
584.00,0.0064
583.00,0.0064
582.00,0.0065
581.00,0.0066
580.00,0.0067
579.00,0.0067
578.00,0.0066
577.00,0.0065
576.00,0.0065
575.00,0.0065
574.00,0.0066
573.00,0.0067
572.00,0.0067
571.00,0.0065
570.00,0.0065
569.00,0.0065
568.00,0.0065
567.00,0.0066
566.00,0.0067
565.00,0.0068
564.00,0.0070
563.00,0.0070
562.00,0.0070
561.00,0.0069
560.00,0.0068
559.00,0.0066
558.00,0.0065
557.00,0.0066
556.00,0.0068
555.00,0.0072
554.00,0.0074
553.00,0.0073
552.00,0.0072
551.00,0.0072
550.00,0.0074
549.00,0.0075
548.00,0.0074
547.00,0.0072
546.00,0.0070
545.00,0.0069
544.00,0.0070
543.00,0.0073
542.00,0.0075
541.00,0.0075
540.00,0.0076
539.00,0.0079
538.00,0.0081
537.00,0.0082
536.00,0.0080
535.00,0.0081
534.00,0.0086
533.00,0.0090
532.00,0.0093
531.00,0.0095
530.00,0.0096
529.00,0.0098
528.00,0.0099
527.00,0.0099
526.00,0.0098
525.00,0.0094
524.00,0.0088
523.00,0.0085
522.00,0.0083
521.00,0.0081
520.00,0.0077
519.00,0.0073
518.00,0.0073
517.00,0.0077
516.00,0.0079
515.00,0.0080
514.00,0.0080
513.00,0.0079
512.00,0.0076
511.00,0.0072
510.00,0.0068
509.00,0.0064
508.00,0.0061
507.00,0.0060
506.00,0.0062
505.00,0.0067
504.00,0.0073
503.00,0.0076
502.00,0.0076
501.00,0.0074
500.00,0.0074
499.00,0.0076
498.00,0.0078
497.00,0.0078
496.00,0.0076
495.00,0.0074
494.00,0.0075
493.00,0.0077
492.00,0.0077
491.00,0.0076
490.00,0.0074
489.00,0.0072
488.00,0.0068
487.00,0.0067
486.00,0.0071
485.00,0.0078
484.00,0.0083
483.00,0.0081
482.00,0.0074
481.00,0.0065
480.00,0.0055
479.00,0.0045
478.00,0.0040
477.00,0.0041
476.00,0.0049
475.00,0.0056
474.00,0.0057
473.00,0.0054
472.00,0.0056
471.00,0.0068
470.00,0.0085
469.00,0.0096
468.00,0.0097
467.00,0.0094
466.00,0.0097
465.00,0.0109
464.00,0.0125
463.00,0.0142
462.00,0.0157
461.00,0.0172
460.00,0.0184
459.00,0.0189
458.00,0.0183
457.00,0.0165
456.00,0.0145
455.00,0.0127
454.00,0.0115
453.00,0.0107
452.00,0.0101
451.00,0.0094
450.00,0.0087
