Created as New Dataset,Sample 033 By Administrator Date Wednesday, September 10 2025
cm-1,A
4000.00,0.0008
3999.00,0.0008
3998.00,0.0008
3997.00,0.0008
3996.00,0.0007
3995.00,0.0007
3994.00,0.0007
3993.00,0.0008
3992.00,0.0008
3991.00,0.0008
3990.00,0.0008
3989.00,0.0008
3988.00,0.0008
3987.00,0.0008
3986.00,0.0007
3985.00,0.0007
3984.00,0.0007
3983.00,0.0008
3982.00,0.0008
3981.00,0.0008
3980.00,0.0007
3979.00,0.0007
3978.00,0.0007
3977.00,0.0006
3976.00,0.0006
3975.00,0.0006
3974.00,0.0006
3973.00,0.0006
3972.00,0.0006
3971.00,0.0007
3970.00,0.0007
3969.00,0.0007
3968.00,0.0006
3967.00,0.0006
3966.00,0.0006
3965.00,0.0006
3964.00,0.0006
3963.00,0.0006
3962.00,0.0006
3961.00,0.0006
3960.00,0.0006
3959.00,0.0006
3958.00,0.0006
3957.00,0.0006
3956.00,0.0006
3955.00,0.0006
3954.00,0.0006
3953.00,0.0006
3952.00,0.0006
3951.00,0.0006
3950.00,0.0006
3949.00,0.0006
3948.00,0.0006
3947.00,0.0006
3946.00,0.0006
3945.00,0.0006
3944.00,0.0006
3943.00,0.0006
3942.00,0.0007
3941.00,0.0007
3940.00,0.0007
3939.00,0.0007
3938.00,0.0007
3937.00,0.0007
3936.00,0.0007
3935.00,0.0007
3934.00,0.0007
3933.00,0.0006
3932.00,0.0006
3931.00,0.0006
3930.00,0.0006
3929.00,0.0006
3928.00,0.0006
3927.00,0.0006
3926.00,0.0006
3925.00,0.0006
3924.00,0.0007
3923.00,0.0007
3922.00,0.0007
3921.00,0.0007
3920.00,0.0007
3919.00,0.0007
3918.00,0.0007
3917.00,0.0006
3916.00,0.0006
3915.00,0.0006
3914.00,0.0007
3913.00,0.0007
3912.00,0.0007
3911.00,0.0007
3910.00,0.0006
3909.00,0.0006
3908.00,0.0005
3907.00,0.0005
3906.00,0.0006
3905.00,0.0006
3904.00,0.0006
3903.00,0.0006
3902.00,0.0006
3901.00,0.0006
3900.00,0.0006
3899.00,0.0005
3898.00,0.0005
3897.00,0.0005
3896.00,0.0005
3895.00,0.0005
3894.00,0.0005
3893.00,0.0006
3892.00,0.0006
3891.00,0.0006
3890.00,0.0006
3889.00,0.0006
3888.00,0.0006
3887.00,0.0006
3886.00,0.0005
3885.00,0.0005
3884.00,0.0005
3883.00,0.0005
3882.00,0.0006
3881.00,0.0006
3880.00,0.0006
3879.00,0.0006
3878.00,0.0005
3877.00,0.0005
3876.00,0.0005
3875.00,0.0005
3874.00,0.0005
3873.00,0.0005
3872.00,0.0005
3871.00,0.0005
3870.00,0.0005
3869.00,0.0005
3868.00,0.0005
3867.00,0.0004
3866.00,0.0004
3865.00,0.0004
3864.00,0.0004
3863.00,0.0005
3862.00,0.0005
3861.00,0.0005
3860.00,0.0004
3859.00,0.0004
3858.00,0.0005
3857.00,0.0005
3856.00,0.0005
3855.00,0.0004
3854.00,0.0004
3853.00,0.0004
3852.00,0.0004
3851.00,0.0004
3850.00,0.0004
3849.00,0.0005
3848.00,0.0005
3847.00,0.0005
3846.00,0.0005
3845.00,0.0005
3844.00,0.0005
3843.00,0.0005
3842.00,0.0004
3841.00,0.0004
3840.00,0.0004
3839.00,0.0004
3838.00,0.0005
3837.00,0.0005
3836.00,0.0005
3835.00,0.0005
3834.00,0.0005
3833.00,0.0005
3832.00,0.0005
3831.00,0.0005
3830.00,0.0005
3829.00,0.0005
3828.00,0.0005
3827.00,0.0005
3826.00,0.0005
3825.00,0.0005
3824.00,0.0005
3823.00,0.0005
3822.00,0.0005
3821.00,0.0005
3820.00,0.0005
3819.00,0.0005
3818.00,0.0005
3817.00,0.0005
3816.00,0.0005
3815.00,0.0005
3814.00,0.0005
3813.00,0.0005
3812.00,0.0005
3811.00,0.0005
3810.00,0.0005
3809.00,0.0005
3808.00,0.0005
3807.00,0.0005
3806.00,0.0005
3805.00,0.0005
3804.00,0.0005
3803.00,0.0004
3802.00,0.0004
3801.00,0.0004
3800.00,0.0005
3799.00,0.0005
3798.00,0.0005
3797.00,0.0006
3796.00,0.0006
3795.00,0.0006
3794.00,0.0006
3793.00,0.0006
3792.00,0.0007
3791.00,0.0006
3790.00,0.0006
3789.00,0.0006
3788.00,0.0006
3787.00,0.0006
3786.00,0.0006
3785.00,0.0005
3784.00,0.0005
3783.00,0.0005
3782.00,0.0005
3781.00,0.0005
3780.00,0.0005
3779.00,0.0005
3778.00,0.0005
3777.00,0.0005
3776.00,0.0005
3775.00,0.0006
3774.00,0.0006
3773.00,0.0006
3772.00,0.0005
3771.00,0.0005
3770.00,0.0005
3769.00,0.0005
3768.00,0.0005
3767.00,0.0006
3766.00,0.0006
3765.00,0.0006
3764.00,0.0007
3763.00,0.0007
3762.00,0.0007
3761.00,0.0007
3760.00,0.0007
3759.00,0.0007
3758.00,0.0007
3757.00,0.0007
3756.00,0.0006
3755.00,0.0006
3754.00,0.0006
3753.00,0.0005
3752.00,0.0005
3751.00,0.0004
3750.00,0.0004
3749.00,0.0003
3748.00,0.0003
3747.00,0.0003
3746.00,0.0003
3745.00,0.0003
3744.00,0.0004
3743.00,0.0004
3742.00,0.0004
3741.00,0.0004
3740.00,0.0004
3739.00,0.0003
3738.00,0.0003
3737.00,0.0003
3736.00,0.0003
3735.00,0.0003
3734.00,0.0004
3733.00,0.0004
3732.00,0.0004
3731.00,0.0004
3730.00,0.0004
3729.00,0.0004
3728.00,0.0004
3727.00,0.0004
3726.00,0.0004
3725.00,0.0004
3724.00,0.0004
3723.00,0.0005
3722.00,0.0005
3721.00,0.0005
3720.00,0.0005
3719.00,0.0004
3718.00,0.0004
3717.00,0.0003
3716.00,0.0004
3715.00,0.0004
3714.00,0.0004
3713.00,0.0004
3712.00,0.0004
3711.00,0.0004
3710.00,0.0003
3709.00,0.0003
3708.00,0.0003
3707.00,0.0003
3706.00,0.0003
3705.00,0.0003
3704.00,0.0003
3703.00,0.0003
3702.00,0.0003
3701.00,0.0003
3700.00,0.0003
3699.00,0.0003
3698.00,0.0003
3697.00,0.0003
3696.00,0.0003
3695.00,0.0003
3694.00,0.0003
3693.00,0.0004
3692.00,0.0004
3691.00,0.0004
3690.00,0.0004
3689.00,0.0004
3688.00,0.0004
3687.00,0.0004
3686.00,0.0004
3685.00,0.0004
3684.00,0.0004
3683.00,0.0004
3682.00,0.0004
3681.00,0.0004
3680.00,0.0004
3679.00,0.0004
3678.00,0.0004
3677.00,0.0004
3676.00,0.0004
3675.00,0.0004
3674.00,0.0004
3673.00,0.0004
3672.00,0.0004
3671.00,0.0004
3670.00,0.0004
3669.00,0.0004
3668.00,0.0005
3667.00,0.0005
3666.00,0.0005
3665.00,0.0005
3664.00,0.0005
3663.00,0.0004
3662.00,0.0004
3661.00,0.0004
3660.00,0.0005
3659.00,0.0005
3658.00,0.0005
3657.00,0.0004
3656.00,0.0004
3655.00,0.0003
3654.00,0.0003
3653.00,0.0004
3652.00,0.0004
3651.00,0.0004
3650.00,0.0004
3649.00,0.0004
3648.00,0.0004
3647.00,0.0005
3646.00,0.0005
3645.00,0.0005
3644.00,0.0005
3643.00,0.0005
3642.00,0.0005
3641.00,0.0005
3640.00,0.0005
3639.00,0.0005
3638.00,0.0005
3637.00,0.0005
3636.00,0.0005
3635.00,0.0005
3634.00,0.0005
3633.00,0.0005
3632.00,0.0004
3631.00,0.0003
3630.00,0.0003
3629.00,0.0003
3628.00,0.0004
3627.00,0.0004
3626.00,0.0005
3625.00,0.0006
3624.00,0.0006
3623.00,0.0006
3622.00,0.0006
3621.00,0.0006
3620.00,0.0006
3619.00,0.0006
3618.00,0.0007
3617.00,0.0007
3616.00,0.0007
3615.00,0.0006
3614.00,0.0006
3613.00,0.0006
3612.00,0.0007
3611.00,0.0007
3610.00,0.0007
3609.00,0.0007
3608.00,0.0008
3607.00,0.0008
3606.00,0.0009
3605.00,0.0009
3604.00,0.0009
3603.00,0.0010
3602.00,0.0010
3601.00,0.0009
3600.00,0.0009
3599.00,0.0009
3598.00,0.0009
3597.00,0.0009
3596.00,0.0010
3595.00,0.0010
3594.00,0.0011
3593.00,0.0011
3592.00,0.0011
3591.00,0.0010
3590.00,0.0010
3589.00,0.0010
3588.00,0.0010
3587.00,0.0011
3586.00,0.0012
3585.00,0.0013
3584.00,0.0014
3583.00,0.0014
3582.00,0.0014
3581.00,0.0013
3580.00,0.0013
3579.00,0.0013
3578.00,0.0013
3577.00,0.0014
3576.00,0.0014
3575.00,0.0014
3574.00,0.0014
3573.00,0.0014
3572.00,0.0013
3571.00,0.0013
3570.00,0.0014
3569.00,0.0014
3568.00,0.0015
3567.00,0.0016
3566.00,0.0017
3565.00,0.0017
3564.00,0.0017
3563.00,0.0017
3562.00,0.0017
3561.00,0.0018
3560.00,0.0018
3559.00,0.0018
3558.00,0.0018
3557.00,0.0019
3556.00,0.0019
3555.00,0.0020
3554.00,0.0020
3553.00,0.0020
3552.00,0.0020
3551.00,0.0020
3550.00,0.0020
3549.00,0.0021
3548.00,0.0021
3547.00,0.0021
3546.00,0.0021
3545.00,0.0021
3544.00,0.0022
3543.00,0.0022
3542.00,0.0022
3541.00,0.0023
3540.00,0.0023
3539.00,0.0023
3538.00,0.0024
3537.00,0.0024
3536.00,0.0025
3535.00,0.0025
3534.00,0.0026
3533.00,0.0026
3532.00,0.0026
3531.00,0.0026
3530.00,0.0026
3529.00,0.0026
3528.00,0.0026
3527.00,0.0026
3526.00,0.0027
3525.00,0.0027
3524.00,0.0027
3523.00,0.0028
3522.00,0.0028
3521.00,0.0029
3520.00,0.0029
3519.00,0.0029
3518.00,0.0029
3517.00,0.0030
3516.00,0.0030
3515.00,0.0030
3514.00,0.0031
3513.00,0.0031
3512.00,0.0031
3511.00,0.0031
3510.00,0.0031
3509.00,0.0032
3508.00,0.0032
3507.00,0.0032
3506.00,0.0033
3505.00,0.0033
3504.00,0.0033
3503.00,0.0034
3502.00,0.0034
3501.00,0.0034
3500.00,0.0034
3499.00,0.0035
3498.00,0.0035
3497.00,0.0036
3496.00,0.0036
3495.00,0.0036
3494.00,0.0036
3493.00,0.0037
3492.00,0.0037
3491.00,0.0037
3490.00,0.0037
3489.00,0.0038
3488.00,0.0038
3487.00,0.0038
3486.00,0.0039
3485.00,0.0039
3484.00,0.0039
3483.00,0.0039
3482.00,0.0040
3481.00,0.0040
3480.00,0.0041
3479.00,0.0041
3478.00,0.0041
3477.00,0.0041
3476.00,0.0041
3475.00,0.0042
3474.00,0.0042
3473.00,0.0042
3472.00,0.0043
3471.00,0.0044
3470.00,0.0044
3469.00,0.0044
3468.00,0.0044
3467.00,0.0044
3466.00,0.0044
3465.00,0.0044
3464.00,0.0045
3463.00,0.0045
3462.00,0.0046
3461.00,0.0046
3460.00,0.0046
3459.00,0.0046
3458.00,0.0046
3457.00,0.0046
3456.00,0.0046
3455.00,0.0047
3454.00,0.0047
3453.00,0.0047
3452.00,0.0047
3451.00,0.0048
3450.00,0.0048
3449.00,0.0048
3448.00,0.0049
3447.00,0.0049
3446.00,0.0049
3445.00,0.0049
3444.00,0.0050
3443.00,0.0050
3442.00,0.0051
3441.00,0.0051
3440.00,0.0052
3439.00,0.0052
3438.00,0.0052
3437.00,0.0052
3436.00,0.0052
3435.00,0.0051
3434.00,0.0051
3433.00,0.0051
3432.00,0.0052
3431.00,0.0053
3430.00,0.0053
3429.00,0.0054
3428.00,0.0054
3427.00,0.0054
3426.00,0.0054
3425.00,0.0054
3424.00,0.0054
3423.00,0.0054
3422.00,0.0054
3421.00,0.0055
3420.00,0.0055
3419.00,0.0055
3418.00,0.0056
3417.00,0.0056
3416.00,0.0056
3415.00,0.0057
3414.00,0.0057
3413.00,0.0057
3412.00,0.0057
3411.00,0.0057
3410.00,0.0057
3409.00,0.0058
3408.00,0.0058
3407.00,0.0058
3406.00,0.0058
3405.00,0.0058
3404.00,0.0059
3403.00,0.0059
3402.00,0.0060
3401.00,0.0061
3400.00,0.0061
3399.00,0.0062
3398.00,0.0062
3397.00,0.0062
3396.00,0.0062
3395.00,0.0061
3394.00,0.0061
3393.00,0.0061
3392.00,0.0061
3391.00,0.0061
3390.00,0.0061
3389.00,0.0061
3388.00,0.0061
3387.00,0.0062
3386.00,0.0062
3385.00,0.0061
3384.00,0.0061
3383.00,0.0061
3382.00,0.0060
3381.00,0.0060
3380.00,0.0061
3379.00,0.0061
3378.00,0.0061
3377.00,0.0061
3376.00,0.0061
3375.00,0.0061
3374.00,0.0061
3373.00,0.0061
3372.00,0.0061
3371.00,0.0061
3370.00,0.0061
3369.00,0.0061
3368.00,0.0061
3367.00,0.0061
3366.00,0.0061
3365.00,0.0061
3364.00,0.0061
3363.00,0.0061
3362.00,0.0061
3361.00,0.0060
3360.00,0.0060
3359.00,0.0059
3358.00,0.0059
3357.00,0.0060
3356.00,0.0060
3355.00,0.0060
3354.00,0.0061
3353.00,0.0061
3352.00,0.0061
3351.00,0.0061
3350.00,0.0061
3349.00,0.0061
3348.00,0.0061
3347.00,0.0061
3346.00,0.0061
3345.00,0.0061
3344.00,0.0061
3343.00,0.0061
3342.00,0.0061
3341.00,0.0060
3340.00,0.0060
3339.00,0.0060
3338.00,0.0060
3337.00,0.0060
3336.00,0.0060
3335.00,0.0060
3334.00,0.0060
3333.00,0.0059
3332.00,0.0059
3331.00,0.0059
3330.00,0.0059
3329.00,0.0059
3328.00,0.0059
3327.00,0.0059
3326.00,0.0058
3325.00,0.0058
3324.00,0.0058
3323.00,0.0058
3322.00,0.0058
3321.00,0.0058
3320.00,0.0058
3319.00,0.0058
3318.00,0.0058
3317.00,0.0058
3316.00,0.0057
3315.00,0.0057
3314.00,0.0057
3313.00,0.0057
3312.00,0.0057
3311.00,0.0058
3310.00,0.0058
3309.00,0.0057
3308.00,0.0057
3307.00,0.0057
3306.00,0.0057
3305.00,0.0057
3304.00,0.0057
3303.00,0.0057
3302.00,0.0057
3301.00,0.0056
3300.00,0.0056
3299.00,0.0056
3298.00,0.0056
3297.00,0.0056
3296.00,0.0056
3295.00,0.0056
3294.00,0.0056
3293.00,0.0055
3292.00,0.0056
3291.00,0.0056
3290.00,0.0056
3289.00,0.0056
3288.00,0.0056
3287.00,0.0055
3286.00,0.0055
3285.00,0.0055
3284.00,0.0054
3283.00,0.0054
3282.00,0.0054
3281.00,0.0054
3280.00,0.0054
3279.00,0.0054
3278.00,0.0054
3277.00,0.0054
3276.00,0.0053
3275.00,0.0053
3274.00,0.0052
3273.00,0.0052
3272.00,0.0052
3271.00,0.0052
3270.00,0.0052
3269.00,0.0052
3268.00,0.0052
3267.00,0.0052
3266.00,0.0051
3265.00,0.0051
3264.00,0.0051
3263.00,0.0051
3262.00,0.0050
3261.00,0.0050
3260.00,0.0050
3259.00,0.0050
3258.00,0.0050
3257.00,0.0049
3256.00,0.0049
3255.00,0.0049
3254.00,0.0048
3253.00,0.0048
3252.00,0.0048
3251.00,0.0048
3250.00,0.0048
3249.00,0.0048
3248.00,0.0048
3247.00,0.0048
3246.00,0.0048
3245.00,0.0048
3244.00,0.0048
3243.00,0.0048
3242.00,0.0048
3241.00,0.0048
3240.00,0.0048
3239.00,0.0048
3238.00,0.0048
3237.00,0.0048
3236.00,0.0047
3235.00,0.0047
3234.00,0.0048
3233.00,0.0048
3232.00,0.0048
3231.00,0.0048
3230.00,0.0047
3229.00,0.0048
3228.00,0.0048
3227.00,0.0048
3226.00,0.0048
3225.00,0.0048
3224.00,0.0048
3223.00,0.0048
3222.00,0.0048
3221.00,0.0048
3220.00,0.0048
3219.00,0.0049
3218.00,0.0049
3217.00,0.0050
3216.00,0.0050
3215.00,0.0050
3214.00,0.0050
3213.00,0.0050
3212.00,0.0050
3211.00,0.0050
3210.00,0.0050
3209.00,0.0051
3208.00,0.0051
3207.00,0.0051
3206.00,0.0052
3205.00,0.0052
3204.00,0.0052
3203.00,0.0053
3202.00,0.0053
3201.00,0.0053
3200.00,0.0053
3199.00,0.0053
3198.00,0.0053
3197.00,0.0053
3196.00,0.0053
3195.00,0.0053
3194.00,0.0053
3193.00,0.0053
3192.00,0.0052
3191.00,0.0052
3190.00,0.0052
3189.00,0.0052
3188.00,0.0051
3187.00,0.0052
3186.00,0.0052
3185.00,0.0052
3184.00,0.0052
3183.00,0.0052
3182.00,0.0051
3181.00,0.0051
3180.00,0.0050
3179.00,0.0050
3178.00,0.0049
3177.00,0.0049
3176.00,0.0049
3175.00,0.0048
3174.00,0.0048
3173.00,0.0048
3172.00,0.0048
3171.00,0.0048
3170.00,0.0048
3169.00,0.0048
3168.00,0.0047
3167.00,0.0047
3166.00,0.0046
3165.00,0.0046
3164.00,0.0046
3163.00,0.0046
3162.00,0.0046
3161.00,0.0045
3160.00,0.0045
3159.00,0.0045
3158.00,0.0045
3157.00,0.0045
3156.00,0.0045
3155.00,0.0045
3154.00,0.0045
3153.00,0.0045
3152.00,0.0045
3151.00,0.0045
3150.00,0.0045
3149.00,0.0045
3148.00,0.0045
3147.00,0.0045
3146.00,0.0045
3145.00,0.0045
3144.00,0.0045
3143.00,0.0044
3142.00,0.0044
3141.00,0.0043
3140.00,0.0043
3139.00,0.0042
3138.00,0.0042
3137.00,0.0042
3136.00,0.0042
3135.00,0.0042
3134.00,0.0042
3133.00,0.0042
3132.00,0.0041
3131.00,0.0041
3130.00,0.0040
3129.00,0.0040
3128.00,0.0040
3127.00,0.0040
3126.00,0.0040
3125.00,0.0039
3124.00,0.0039
3123.00,0.0038
3122.00,0.0038
3121.00,0.0037
3120.00,0.0037
3119.00,0.0037
3118.00,0.0037
3117.00,0.0037
3116.00,0.0037
3115.00,0.0037
3114.00,0.0036
3113.00,0.0036
3112.00,0.0036
3111.00,0.0036
3110.00,0.0035
3109.00,0.0035
3108.00,0.0035
3107.00,0.0035
3106.00,0.0035
3105.00,0.0035
3104.00,0.0035
3103.00,0.0035
3102.00,0.0035
3101.00,0.0035
3100.00,0.0035
3099.00,0.0034
3098.00,0.0034
3097.00,0.0033
3096.00,0.0033
3095.00,0.0033
3094.00,0.0033
3093.00,0.0033
3092.00,0.0033
3091.00,0.0033
3090.00,0.0032
3089.00,0.0032
3088.00,0.0032
3087.00,0.0032
3086.00,0.0031
3085.00,0.0032
3084.00,0.0032
3083.00,0.0032
3082.00,0.0031
3081.00,0.0031
3080.00,0.0031
3079.00,0.0031
3078.00,0.0031
3077.00,0.0031
3076.00,0.0031
3075.00,0.0031
3074.00,0.0032
3073.00,0.0032
3072.00,0.0032
3071.00,0.0032
3070.00,0.0032
3069.00,0.0032
3068.00,0.0032
3067.00,0.0032
3066.00,0.0032
3065.00,0.0033
3064.00,0.0033
3063.00,0.0033
3062.00,0.0033
3061.00,0.0033
3060.00,0.0034
3059.00,0.0034
3058.00,0.0034
3057.00,0.0034
3056.00,0.0034
3055.00,0.0034
3054.00,0.0035
3053.00,0.0035
3052.00,0.0035
3051.00,0.0035
3050.00,0.0035
3049.00,0.0035
3048.00,0.0035
3047.00,0.0036
3046.00,0.0036
3045.00,0.0036
3044.00,0.0036
3043.00,0.0036
3042.00,0.0037
3041.00,0.0037
3040.00,0.0037
3039.00,0.0037
3038.00,0.0037
3037.00,0.0038
3036.00,0.0038
3035.00,0.0038
3034.00,0.0039
3033.00,0.0039
3032.00,0.0039
3031.00,0.0039
3030.00,0.0040
3029.00,0.0041
3028.00,0.0042
3027.00,0.0042
3026.00,0.0043
3025.00,0.0044
3024.00,0.0044
3023.00,0.0044
3022.00,0.0045
3021.00,0.0046
3020.00,0.0047
3019.00,0.0048
3018.00,0.0049
3017.00,0.0050
3016.00,0.0051
3015.00,0.0052
3014.00,0.0053
3013.00,0.0054
3012.00,0.0055
3011.00,0.0057
3010.00,0.0058
3009.00,0.0060
3008.00,0.0061
3007.00,0.0063
3006.00,0.0065
3005.00,0.0067
3004.00,0.0069
3003.00,0.0071
3002.00,0.0074
3001.00,0.0076
3000.00,0.0079
2999.00,0.0081
2998.00,0.0085
2997.00,0.0088
2996.00,0.0092
2995.00,0.0097
2994.00,0.0101
2993.00,0.0107
2992.00,0.0112
2991.00,0.0119
2990.00,0.0126
2989.00,0.0134
2988.00,0.0142
2987.00,0.0152
2986.00,0.0163
2985.00,0.0174
2984.00,0.0188
2983.00,0.0202
2982.00,0.0219
2981.00,0.0237
2980.00,0.0259
2979.00,0.0283
2978.00,0.0311
2977.00,0.0342
2976.00,0.0378
2975.00,0.0419
2974.00,0.0465
2973.00,0.0518
2972.00,0.0578
2971.00,0.0646
2970.00,0.0723
2969.00,0.0808
2968.00,0.0902
2967.00,0.1004
2966.00,0.1116
2965.00,0.1234
2964.00,0.1357
2963.00,0.1479
2962.00,0.1594
2961.00,0.1697
2960.00,0.1782
2959.00,0.1847
2958.00,0.1893
2957.00,0.1924
2956.00,0.1944
2955.00,0.1961
2954.00,0.1978
2953.00,0.1994
2952.00,0.2006
2951.00,0.2007
2950.00,0.1988
2949.00,0.1943
2948.00,0.1867
2947.00,0.1765
2946.00,0.1642
2945.00,0.1512
2944.00,0.1385
2943.00,0.1272
2942.00,0.1181
2941.00,0.1114
2940.00,0.1071
2939.00,0.1052
2938.00,0.1052
2937.00,0.1069
2936.00,0.1103
2935.00,0.1152
2934.00,0.1213
2933.00,0.1286
2932.00,0.1368
2931.00,0.1457
2930.00,0.1551
2929.00,0.1645
2928.00,0.1737
2927.00,0.1824
2926.00,0.1906
2925.00,0.1983
2924.00,0.2055
2923.00,0.2124
2922.00,0.2190
2921.00,0.2252
2920.00,0.2306
2919.00,0.2347
2918.00,0.2369
2917.00,0.2368
2916.00,0.2342
2915.00,0.2296
2914.00,0.2235
2913.00,0.2167
2912.00,0.2098
2911.00,0.2034
2910.00,0.1976
2909.00,0.1923
2908.00,0.1873
2907.00,0.1823
2906.00,0.1771
2905.00,0.1714
2904.00,0.1652
2903.00,0.1587
2902.00,0.1520
2901.00,0.1452
2900.00,0.1385
2899.00,0.1320
2898.00,0.1260
2897.00,0.1205
2896.00,0.1156
2895.00,0.1115
2894.00,0.1081
2893.00,0.1054
2892.00,0.1033
2891.00,0.1019
2890.00,0.1010
2889.00,0.1006
2888.00,0.1006
2887.00,0.1009
2886.00,0.1016
2885.00,0.1027
2884.00,0.1041
2883.00,0.1059
2882.00,0.1079
2881.00,0.1101
2880.00,0.1122
2879.00,0.1139
2878.00,0.1148
2877.00,0.1150
2876.00,0.1145
2875.00,0.1137
2874.00,0.1131
2873.00,0.1129
2872.00,0.1134
2871.00,0.1145
2870.00,0.1162
2869.00,0.1178
2868.00,0.1188
2867.00,0.1184
2866.00,0.1159
2865.00,0.1112
2864.00,0.1044
2863.00,0.0965
2862.00,0.0882
2861.00,0.0804
2860.00,0.0738
2859.00,0.0685
2858.00,0.0646
2857.00,0.0618
2856.00,0.0601
2855.00,0.0591
2854.00,0.0589
2853.00,0.0593
2852.00,0.0602
2851.00,0.0618
2850.00,0.0639
2849.00,0.0666
2848.00,0.0700
2847.00,0.0742
2846.00,0.0793
2845.00,0.0853
2844.00,0.0922
2843.00,0.0998
2842.00,0.1077
2841.00,0.1152
2840.00,0.1214
2839.00,0.1255
2838.00,0.1265
2837.00,0.1239
2836.00,0.1177
2835.00,0.1086
2834.00,0.0977
2833.00,0.0863
2832.00,0.0754
2831.00,0.0657
2830.00,0.0575
2829.00,0.0507
2828.00,0.0453
2827.00,0.0409
2826.00,0.0373
2825.00,0.0343
2824.00,0.0319
2823.00,0.0298
2822.00,0.0280
2821.00,0.0264
2820.00,0.0251
2819.00,0.0240
2818.00,0.0229
2817.00,0.0221
2816.00,0.0213
2815.00,0.0206
2814.00,0.0199
2813.00,0.0193
2812.00,0.0188
2811.00,0.0183
2810.00,0.0178
2809.00,0.0172
2808.00,0.0167
2807.00,0.0161
2806.00,0.0154
2805.00,0.0148
2804.00,0.0142
2803.00,0.0136
2802.00,0.0131
2801.00,0.0126
2800.00,0.0122
2799.00,0.0119
2798.00,0.0117
2797.00,0.0115
2796.00,0.0112
2795.00,0.0110
2794.00,0.0107
2793.00,0.0104
2792.00,0.0100
2791.00,0.0097
2790.00,0.0093
2789.00,0.0090
2788.00,0.0086
2787.00,0.0083
2786.00,0.0080
2785.00,0.0078
2784.00,0.0075
2783.00,0.0072
2782.00,0.0070
2781.00,0.0068
2780.00,0.0066
2779.00,0.0064
2778.00,0.0063
2777.00,0.0062
2776.00,0.0061
2775.00,0.0059
2774.00,0.0058
2773.00,0.0057
2772.00,0.0057
2771.00,0.0056
2770.00,0.0056
2769.00,0.0055
2768.00,0.0054
2767.00,0.0054
2766.00,0.0054
2765.00,0.0054
2764.00,0.0054
2763.00,0.0054
2762.00,0.0053
2761.00,0.0053
2760.00,0.0052
2759.00,0.0052
2758.00,0.0052
2757.00,0.0052
2756.00,0.0052
2755.00,0.0051
2754.00,0.0051
2753.00,0.0051
2752.00,0.0051
2751.00,0.0051
2750.00,0.0051
2749.00,0.0051
2748.00,0.0051
2747.00,0.0051
2746.00,0.0052
2745.00,0.0053
2744.00,0.0054
2743.00,0.0055
2742.00,0.0055
2741.00,0.0056
2740.00,0.0057
2739.00,0.0059
2738.00,0.0060
2737.00,0.0062
2736.00,0.0063
2735.00,0.0065
2734.00,0.0066
2733.00,0.0068
2732.00,0.0069
2731.00,0.0071
2730.00,0.0073
2729.00,0.0075
2728.00,0.0078
2727.00,0.0080
2726.00,0.0083
2725.00,0.0085
2724.00,0.0086
2723.00,0.0087
2722.00,0.0086
2721.00,0.0084
2720.00,0.0081
2719.00,0.0078
2718.00,0.0075
2717.00,0.0072
2716.00,0.0069
2715.00,0.0067
2714.00,0.0065
2713.00,0.0063
2712.00,0.0061
2711.00,0.0059
2710.00,0.0057
2709.00,0.0055
2708.00,0.0054
2707.00,0.0053
2706.00,0.0051
2705.00,0.0050
2704.00,0.0050
2703.00,0.0049
2702.00,0.0048
2701.00,0.0048
2700.00,0.0047
2699.00,0.0046
2698.00,0.0046
2697.00,0.0045
2696.00,0.0045
2695.00,0.0044
2694.00,0.0044
2693.00,0.0045
2692.00,0.0045
2691.00,0.0045
2690.00,0.0045
2689.00,0.0045
2688.00,0.0045
2687.00,0.0045
2686.00,0.0045
2685.00,0.0044
2684.00,0.0044
2683.00,0.0044
2682.00,0.0045
2681.00,0.0045
2680.00,0.0045
2679.00,0.0045
2678.00,0.0045
2677.00,0.0045
2676.00,0.0045
2675.00,0.0044
2674.00,0.0044
2673.00,0.0044
2672.00,0.0044
2671.00,0.0044
2670.00,0.0044
2669.00,0.0044
2668.00,0.0044
2667.00,0.0044
2666.00,0.0044
2665.00,0.0045
2664.00,0.0045
2663.00,0.0046
2662.00,0.0047
2661.00,0.0047
2660.00,0.0047
2659.00,0.0047
2658.00,0.0047
2657.00,0.0046
2656.00,0.0046
2655.00,0.0045
2654.00,0.0044
2653.00,0.0044
2652.00,0.0043
2651.00,0.0043
2650.00,0.0043
2649.00,0.0043
2648.00,0.0042
2647.00,0.0042
2646.00,0.0041
2645.00,0.0041
2644.00,0.0041
2643.00,0.0040
2642.00,0.0039
2641.00,0.0039
2640.00,0.0038
2639.00,0.0038
2638.00,0.0037
2637.00,0.0037
2636.00,0.0037
2635.00,0.0037
2634.00,0.0037
2633.00,0.0037
2632.00,0.0037
2631.00,0.0037
2630.00,0.0037
2629.00,0.0037
2628.00,0.0038
2627.00,0.0038
2626.00,0.0039
2625.00,0.0039
2624.00,0.0039
2623.00,0.0039
2622.00,0.0039
2621.00,0.0039
2620.00,0.0039
2619.00,0.0039
2618.00,0.0039
2617.00,0.0040
2616.00,0.0040
2615.00,0.0040
2614.00,0.0040
2613.00,0.0039
2612.00,0.0038
2611.00,0.0037
2610.00,0.0037
2609.00,0.0036
2608.00,0.0036
2607.00,0.0035
2606.00,0.0034
2605.00,0.0033
2604.00,0.0032
2603.00,0.0031
2602.00,0.0031
2601.00,0.0031
2600.00,0.0031
2599.00,0.0031
2598.00,0.0031
2597.00,0.0031
2596.00,0.0030
2595.00,0.0030
2594.00,0.0030
2593.00,0.0030
2592.00,0.0031
2591.00,0.0032
2590.00,0.0033
2589.00,0.0034
2588.00,0.0034
2587.00,0.0035
2586.00,0.0035
2585.00,0.0036
2584.00,0.0037
2583.00,0.0037
2582.00,0.0038
2581.00,0.0037
2580.00,0.0037
2579.00,0.0036
2578.00,0.0035
2577.00,0.0034
2576.00,0.0033
2575.00,0.0031
2574.00,0.0030
2573.00,0.0029
2572.00,0.0029
2571.00,0.0028
2570.00,0.0027
2569.00,0.0026
2568.00,0.0025
2567.00,0.0025
2566.00,0.0024
2565.00,0.0024
2564.00,0.0023
2563.00,0.0023
2562.00,0.0023
2561.00,0.0023
2560.00,0.0023
2559.00,0.0023
2558.00,0.0023
2557.00,0.0023
2556.00,0.0022
2555.00,0.0022
2554.00,0.0021
2553.00,0.0021
2552.00,0.0020
2551.00,0.0020
2550.00,0.0019
2549.00,0.0018
2548.00,0.0018
2547.00,0.0018
2546.00,0.0018
2545.00,0.0019
2544.00,0.0019
2543.00,0.0018
2542.00,0.0017
2541.00,0.0017
2540.00,0.0016
2539.00,0.0016
2538.00,0.0016
2537.00,0.0016
2536.00,0.0015
2535.00,0.0015
2534.00,0.0015
2533.00,0.0015
2532.00,0.0015
2531.00,0.0014
2530.00,0.0014
2529.00,0.0013
2528.00,0.0012
2527.00,0.0012
2526.00,0.0012
2525.00,0.0012
2524.00,0.0013
2523.00,0.0013
2522.00,0.0013
2521.00,0.0012
2520.00,0.0011
2519.00,0.0011
2518.00,0.0011
2517.00,0.0011
2516.00,0.0012
2515.00,0.0012
2514.00,0.0012
2513.00,0.0012
2512.00,0.0012
2511.00,0.0011
2510.00,0.0010
2509.00,0.0009
2508.00,0.0009
2507.00,0.0009
2506.00,0.0010
2505.00,0.0011
2504.00,0.0011
2503.00,0.0011
2502.00,0.0011
2501.00,0.0010
2500.00,0.0010
2499.00,0.0010
2498.00,0.0010
2497.00,0.0011
2496.00,0.0011
2495.00,0.0011
2494.00,0.0012
2493.00,0.0012
2492.00,0.0012
2491.00,0.0011
2490.00,0.0010
2489.00,0.0010
2488.00,0.0009
2487.00,0.0009
2486.00,0.0010
2485.00,0.0009
2484.00,0.0009
2483.00,0.0009
2482.00,0.0008
2481.00,0.0009
2480.00,0.0009
2479.00,0.0009
2478.00,0.0009
2477.00,0.0009
2476.00,0.0009
2475.00,0.0009
2474.00,0.0009
2473.00,0.0010
2472.00,0.0010
2471.00,0.0010
2470.00,0.0010
2469.00,0.0010
2468.00,0.0009
2467.00,0.0009
2466.00,0.0009
2465.00,0.0009
2464.00,0.0009
2463.00,0.0009
2462.00,0.0009
2461.00,0.0009
2460.00,0.0009
2459.00,0.0010
2458.00,0.0010
2457.00,0.0010
2456.00,0.0011
2455.00,0.0011
2454.00,0.0011
2453.00,0.0011
2452.00,0.0011
2451.00,0.0012
2450.00,0.0012
2449.00,0.0012
2448.00,0.0011
2447.00,0.0011
2446.00,0.0011
2445.00,0.0011
2444.00,0.0011
2443.00,0.0012
2442.00,0.0011
2441.00,0.0011
2440.00,0.0011
2439.00,0.0011
2438.00,0.0012
2437.00,0.0012
2436.00,0.0012
2435.00,0.0012
2434.00,0.0012
2433.00,0.0013
2432.00,0.0013
2431.00,0.0012
2430.00,0.0012
2429.00,0.0011
2428.00,0.0011
2427.00,0.0011
2426.00,0.0011
2425.00,0.0011
2424.00,0.0010
2423.00,0.0010
2422.00,0.0009
2421.00,0.0009
2420.00,0.0009
2419.00,0.0009
2418.00,0.0009
2417.00,0.0010
2416.00,0.0010
2415.00,0.0009
2414.00,0.0009
2413.00,0.0009
2412.00,0.0009
2411.00,0.0009
2410.00,0.0009
2409.00,0.0009
2408.00,0.0009
2407.00,0.0008
2406.00,0.0008
2405.00,0.0008
2404.00,0.0008
2403.00,0.0008
2402.00,0.0008
2401.00,0.0008
2400.00,0.0008
2399.00,0.0008
2398.00,0.0008
2397.00,0.0009
2396.00,0.0009
2395.00,0.0009
2394.00,0.0009
2393.00,0.0009
2392.00,0.0008
2391.00,0.0007
2390.00,0.0007
2389.00,0.0006
2388.00,0.0006
2387.00,0.0005
2386.00,0.0004
2385.00,0.0003
2384.00,0.0002
2383.00,0.0001
2382.00,-0.0000
2381.00,-0.0000
2380.00,-0.0000
2379.00,0.0000
2378.00,0.0001
2377.00,0.0001
2376.00,0.0001
2375.00,0.0002
2374.00,0.0002
2373.00,0.0001
2372.00,0.0001
2371.00,0.0000
2370.00,-0.0000
2369.00,-0.0000
2368.00,-0.0000
2367.00,-0.0001
2366.00,-0.0001
2365.00,-0.0001
2364.00,-0.0001
2363.00,-0.0000
2362.00,-0.0000
2361.00,0.0000
2360.00,0.0000
2359.00,0.0001
2358.00,0.0001
2357.00,0.0001
2356.00,0.0001
2355.00,0.0001
2354.00,0.0000
2353.00,0.0000
2352.00,0.0000
2351.00,0.0001
2350.00,0.0001
2349.00,0.0001
2348.00,0.0001
2347.00,0.0001
2346.00,0.0001
2345.00,0.0002
2344.00,0.0002
2343.00,0.0003
2342.00,0.0003
2341.00,0.0003
2340.00,0.0002
2339.00,0.0003
2338.00,0.0003
2337.00,0.0004
2336.00,0.0005
2335.00,0.0004
2334.00,0.0003
2333.00,0.0002
2332.00,0.0001
2331.00,0.0001
2330.00,0.0002
2329.00,0.0004
2328.00,0.0006
2327.00,0.0008
2326.00,0.0012
2325.00,0.0015
2324.00,0.0016
2323.00,0.0015
2322.00,0.0013
2321.00,0.0010
2320.00,0.0009
2319.00,0.0008
2318.00,0.0007
2317.00,0.0007
2316.00,0.0008
2315.00,0.0008
2314.00,0.0008
2313.00,0.0007
2312.00,0.0006
2311.00,0.0004
2310.00,0.0004
2309.00,0.0004
2308.00,0.0004
2307.00,0.0005
2306.00,0.0006
2305.00,0.0006
2304.00,0.0006
2303.00,0.0006
2302.00,0.0006
2301.00,0.0006
2300.00,0.0006
2299.00,0.0007
2298.00,0.0008
2297.00,0.0008
2296.00,0.0009
2295.00,0.0010
2294.00,0.0011
2293.00,0.0013
2292.00,0.0014
2291.00,0.0014
2290.00,0.0015
2289.00,0.0015
2288.00,0.0016
2287.00,0.0016
2286.00,0.0016
2285.00,0.0016
2284.00,0.0015
2283.00,0.0015
2282.00,0.0015
2281.00,0.0015
2280.00,0.0015
2279.00,0.0015
2278.00,0.0014
2277.00,0.0013
2276.00,0.0012
2275.00,0.0012
2274.00,0.0012
2273.00,0.0012
2272.00,0.0012
2271.00,0.0012
2270.00,0.0012
2269.00,0.0013
2268.00,0.0013
2267.00,0.0013
2266.00,0.0012
2265.00,0.0011
2264.00,0.0009
2263.00,0.0009
2262.00,0.0009
2261.00,0.0011
2260.00,0.0013
2259.00,0.0013
2258.00,0.0012
2257.00,0.0011
2256.00,0.0010
2255.00,0.0009
2254.00,0.0009
2253.00,0.0008
2252.00,0.0008
2251.00,0.0008
2250.00,0.0008
2249.00,0.0008
2248.00,0.0008
2247.00,0.0008
2246.00,0.0008
2245.00,0.0008
2244.00,0.0008
2243.00,0.0008
2242.00,0.0007
2241.00,0.0006
2240.00,0.0006
2239.00,0.0006
2238.00,0.0008
2237.00,0.0009
2236.00,0.0010
2235.00,0.0009
2234.00,0.0009
2233.00,0.0008
2232.00,0.0007
2231.00,0.0005
2230.00,0.0005
2229.00,0.0006
2228.00,0.0008
2227.00,0.0009
2226.00,0.0011
2225.00,0.0012
2224.00,0.0013
2223.00,0.0013
2222.00,0.0012
2221.00,0.0010
2220.00,0.0008
2219.00,0.0007
2218.00,0.0005
2217.00,0.0005
2216.00,0.0005
2215.00,0.0004
2214.00,0.0004
2213.00,0.0004
2212.00,0.0005
2211.00,0.0005
2210.00,0.0004
2209.00,0.0004
2208.00,0.0004
2207.00,0.0004
2206.00,0.0005
2205.00,0.0006
2204.00,0.0008
2203.00,0.0008
2202.00,0.0008
2201.00,0.0006
2200.00,0.0003
2199.00,0.0002
2198.00,0.0003
2197.00,0.0004
2196.00,0.0005
2195.00,0.0004
2194.00,0.0004
2193.00,0.0005
2192.00,0.0007
2191.00,0.0011
2190.00,0.0013
2189.00,0.0014
2188.00,0.0015
2187.00,0.0015
2186.00,0.0013
2185.00,0.0010
2184.00,0.0006
2183.00,0.0004
2182.00,0.0003
2181.00,0.0004
2180.00,0.0005
2179.00,0.0006
2178.00,0.0005
2177.00,0.0005
2176.00,0.0006
2175.00,0.0006
2174.00,0.0006
2173.00,0.0006
2172.00,0.0007
2171.00,0.0010
2170.00,0.0014
2169.00,0.0017
2168.00,0.0019
2167.00,0.0019
2166.00,0.0017
2165.00,0.0015
2164.00,0.0014
2163.00,0.0014
2162.00,0.0015
2161.00,0.0014
2160.00,0.0008
2159.00,-0.0003
2158.00,-0.0015
2157.00,-0.0021
2156.00,-0.0021
2155.00,-0.0020
2154.00,-0.0019
2153.00,-0.0019
2152.00,-0.0019
2151.00,-0.0018
2150.00,-0.0015
2149.00,-0.0012
2148.00,-0.0010
2147.00,-0.0010
2146.00,-0.0012
2145.00,-0.0014
2144.00,-0.0016
2143.00,-0.0016
2142.00,-0.0016
2141.00,-0.0014
2140.00,-0.0012
2139.00,-0.0010
2138.00,-0.0010
2137.00,-0.0011
2136.00,-0.0014
2135.00,-0.0017
2134.00,-0.0019
2133.00,-0.0020
2132.00,-0.0019
2131.00,-0.0016
2130.00,-0.0012
2129.00,-0.0009
2128.00,-0.0006
2127.00,-0.0004
2126.00,-0.0003
2125.00,-0.0004
2124.00,-0.0005
2123.00,-0.0006
2122.00,-0.0006
2121.00,-0.0005
2120.00,-0.0005
2119.00,-0.0004
2118.00,-0.0002
2117.00,-0.0001
2116.00,0.0001
2115.00,0.0003
2114.00,0.0004
2113.00,0.0005
2112.00,0.0005
2111.00,0.0005
2110.00,0.0004
2109.00,0.0004
2108.00,0.0003
2107.00,0.0003
2106.00,0.0002
2105.00,0.0002
2104.00,0.0002
2103.00,0.0002
2102.00,0.0002
2101.00,0.0002
2100.00,0.0002
2099.00,0.0002
2098.00,0.0001
2097.00,0.0000
2096.00,-0.0001
2095.00,-0.0002
2094.00,-0.0002
2093.00,-0.0001
2092.00,-0.0000
2091.00,0.0001
2090.00,0.0002
2089.00,0.0003
2088.00,0.0003
2087.00,0.0003
2086.00,0.0002
2085.00,0.0002
2084.00,0.0001
2083.00,0.0000
2082.00,-0.0000
2081.00,-0.0001
2080.00,0.0000
2079.00,0.0002
2078.00,0.0003
2077.00,0.0004
2076.00,0.0004
2075.00,0.0003
2074.00,0.0001
2073.00,0.0001
2072.00,0.0001
2071.00,0.0002
2070.00,0.0002
2069.00,0.0002
2068.00,0.0002
2067.00,0.0002
2066.00,0.0002
2065.00,0.0002
2064.00,0.0003
2063.00,0.0004
2062.00,0.0005
2061.00,0.0006
2060.00,0.0006
2059.00,0.0005
2058.00,0.0005
2057.00,0.0005
2056.00,0.0005
2055.00,0.0005
2054.00,0.0005
2053.00,0.0007
2052.00,0.0010
2051.00,0.0011
2050.00,0.0008
2049.00,0.0005
2048.00,0.0002
2047.00,0.0001
2046.00,0.0002
2045.00,0.0004
2044.00,0.0005
2043.00,0.0005
2042.00,0.0005
2041.00,0.0005
2040.00,0.0007
2039.00,0.0007
2038.00,0.0006
2037.00,0.0005
2036.00,0.0003
2035.00,0.0001
2034.00,-0.0002
2033.00,-0.0005
2032.00,-0.0007
2031.00,-0.0007
2030.00,-0.0007
2029.00,-0.0007
2028.00,-0.0006
2027.00,-0.0007
2026.00,-0.0008
2025.00,-0.0008
2024.00,-0.0009
2023.00,-0.0010
2022.00,-0.0012
2021.00,-0.0012
2020.00,-0.0011
2019.00,-0.0009
2018.00,-0.0007
2017.00,-0.0006
2016.00,-0.0007
2015.00,-0.0008
2014.00,-0.0008
2013.00,-0.0008
2012.00,-0.0007
2011.00,-0.0007
2010.00,-0.0009
2009.00,-0.0012
2008.00,-0.0014
2007.00,-0.0015
2006.00,-0.0015
2005.00,-0.0014
2004.00,-0.0012
2003.00,-0.0011
2002.00,-0.0011
2001.00,-0.0010
2000.00,-0.0010
1999.00,-0.0010
1998.00,-0.0011
1997.00,-0.0009
1996.00,-0.0007
1995.00,-0.0005
1994.00,-0.0005
1993.00,-0.0006
1992.00,-0.0007
1991.00,-0.0007
1990.00,-0.0006
1989.00,-0.0004
1988.00,-0.0002
1987.00,-0.0002
1986.00,-0.0001
1985.00,0.0001
1984.00,0.0005
1983.00,0.0008
1982.00,0.0009
1981.00,0.0007
1980.00,0.0003
1979.00,-0.0004
1978.00,-0.0010
1977.00,-0.0013
1976.00,-0.0012
1975.00,-0.0010
1974.00,-0.0009
1973.00,-0.0008
1972.00,-0.0008
1971.00,-0.0009
1970.00,-0.0011
1969.00,-0.0012
1968.00,-0.0012
1967.00,-0.0010
1966.00,-0.0009
1965.00,-0.0008
1964.00,-0.0009
1963.00,-0.0012
1962.00,-0.0015
1961.00,-0.0017
1960.00,-0.0019
1959.00,-0.0020
1958.00,-0.0022
1957.00,-0.0021
1956.00,-0.0018
1955.00,-0.0016
1954.00,-0.0014
1953.00,-0.0012
1952.00,-0.0012
1951.00,-0.0012
1950.00,-0.0013
1949.00,-0.0013
1948.00,-0.0012
1947.00,-0.0013
1946.00,-0.0015
1945.00,-0.0017
1944.00,-0.0019
1943.00,-0.0019
1942.00,-0.0016
1941.00,-0.0013
1940.00,-0.0011
1939.00,-0.0010
1938.00,-0.0010
1937.00,-0.0011
1936.00,-0.0011
1935.00,-0.0012
1934.00,-0.0012
1933.00,-0.0011
1932.00,-0.0010
1931.00,-0.0010
1930.00,-0.0009
1929.00,-0.0008
1928.00,-0.0008
1927.00,-0.0007
1926.00,-0.0008
1925.00,-0.0008
1924.00,-0.0007
1923.00,-0.0006
1922.00,-0.0005
1921.00,-0.0005
1920.00,-0.0005
1919.00,-0.0006
1918.00,-0.0006
1917.00,-0.0005
1916.00,-0.0005
1915.00,-0.0004
1914.00,-0.0004
1913.00,-0.0004
1912.00,-0.0004
1911.00,-0.0004
1910.00,-0.0004
1909.00,-0.0005
1908.00,-0.0005
1907.00,-0.0005
1906.00,-0.0005
1905.00,-0.0005
1904.00,-0.0004
1903.00,-0.0003
1902.00,-0.0002
1901.00,-0.0001
1900.00,-0.0000
1899.00,-0.0001
1898.00,-0.0001
1897.00,-0.0002
1896.00,-0.0001
1895.00,-0.0001
1894.00,-0.0000
1893.00,0.0000
1892.00,0.0000
1891.00,0.0000
1890.00,0.0000
1889.00,0.0001
1888.00,0.0000
1887.00,-0.0001
1886.00,-0.0002
1885.00,-0.0002
1884.00,-0.0002
1883.00,-0.0002
1882.00,-0.0002
1881.00,-0.0002
1880.00,-0.0002
1879.00,-0.0002
1878.00,-0.0001
1877.00,-0.0000
1876.00,-0.0000
1875.00,-0.0000
1874.00,-0.0001
1873.00,-0.0001
1872.00,-0.0002
1871.00,-0.0001
1870.00,-0.0001
1869.00,-0.0000
1868.00,0.0000
1867.00,-0.0000
1866.00,-0.0001
1865.00,-0.0000
1864.00,-0.0000
1863.00,0.0000
1862.00,-0.0000
1861.00,-0.0000
1860.00,-0.0000
1859.00,0.0000
1858.00,0.0001
1857.00,0.0001
1856.00,0.0001
1855.00,0.0000
1854.00,0.0000
1853.00,0.0000
1852.00,0.0001
1851.00,0.0001
1850.00,0.0000
1849.00,0.0000
1848.00,0.0000
1847.00,0.0000
1846.00,0.0000
1845.00,0.0001
1844.00,0.0002
1843.00,0.0002
1842.00,0.0002
1841.00,0.0002
1840.00,0.0001
1839.00,0.0001
1838.00,0.0001
1837.00,0.0001
1836.00,0.0002
1835.00,0.0002
1834.00,0.0003
1833.00,0.0003
1832.00,0.0003
1831.00,0.0003
1830.00,0.0003
1829.00,0.0003
1828.00,0.0003
1827.00,0.0003
1826.00,0.0002
1825.00,0.0001
1824.00,0.0001
1823.00,0.0001
1822.00,0.0001
1821.00,0.0002
1820.00,0.0002
1819.00,0.0001
1818.00,0.0000
1817.00,-0.0001
1816.00,-0.0001
1815.00,-0.0001
1814.00,0.0000
1813.00,0.0001
1812.00,0.0002
1811.00,0.0002
1810.00,0.0002
1809.00,0.0002
1808.00,0.0002
1807.00,0.0002
1806.00,0.0002
1805.00,0.0003
1804.00,0.0003
1803.00,0.0003
1802.00,0.0003
1801.00,0.0003
1800.00,0.0003
1799.00,0.0003
1798.00,0.0003
1797.00,0.0004
1796.00,0.0004
1795.00,0.0004
1794.00,0.0004
1793.00,0.0004
1792.00,0.0004
1791.00,0.0005
1790.00,0.0005
1789.00,0.0005
1788.00,0.0006
1787.00,0.0006
1786.00,0.0007
1785.00,0.0007
1784.00,0.0007
1783.00,0.0007
1782.00,0.0007
1781.00,0.0006
1780.00,0.0006
1779.00,0.0006
1778.00,0.0005
1777.00,0.0005
1776.00,0.0006
1775.00,0.0006
1774.00,0.0006
1773.00,0.0006
1772.00,0.0007
1771.00,0.0007
1770.00,0.0007
1769.00,0.0007
1768.00,0.0008
1767.00,0.0008
1766.00,0.0008
1765.00,0.0008
1764.00,0.0008
1763.00,0.0008
1762.00,0.0008
1761.00,0.0008
1760.00,0.0009
1759.00,0.0009
1758.00,0.0009
1757.00,0.0010
1756.00,0.0010
1755.00,0.0011
1754.00,0.0011
1753.00,0.0010
1752.00,0.0010
1751.00,0.0010
1750.00,0.0010
1749.00,0.0010
1748.00,0.0010
1747.00,0.0010
1746.00,0.0009
1745.00,0.0009
1744.00,0.0009
1743.00,0.0009
1742.00,0.0008
1741.00,0.0008
1740.00,0.0008
1739.00,0.0008
1738.00,0.0008
1737.00,0.0008
1736.00,0.0007
1735.00,0.0007
1734.00,0.0005
1733.00,0.0004
1732.00,0.0004
1731.00,0.0004
1730.00,0.0004
1729.00,0.0004
1728.00,0.0005
1727.00,0.0005
1726.00,0.0006
1725.00,0.0007
1724.00,0.0008
1723.00,0.0008
1722.00,0.0009
1721.00,0.0010
1720.00,0.0010
1719.00,0.0011
1718.00,0.0012
1717.00,0.0013
1716.00,0.0014
1715.00,0.0015
1714.00,0.0016
1713.00,0.0017
1712.00,0.0018
1711.00,0.0019
1710.00,0.0019
1709.00,0.0019
1708.00,0.0020
1707.00,0.0020
1706.00,0.0021
1705.00,0.0021
1704.00,0.0021
1703.00,0.0021
1702.00,0.0022
1701.00,0.0022
1700.00,0.0021
1699.00,0.0021
1698.00,0.0021
1697.00,0.0022
1696.00,0.0024
1695.00,0.0026
1694.00,0.0027
1693.00,0.0028
1692.00,0.0028
1691.00,0.0029
1690.00,0.0029
1689.00,0.0029
1688.00,0.0029
1687.00,0.0029
1686.00,0.0029
1685.00,0.0029
1684.00,0.0031
1683.00,0.0033
1682.00,0.0034
1681.00,0.0036
1680.00,0.0037
1679.00,0.0038
1678.00,0.0039
1677.00,0.0040
1676.00,0.0041
1675.00,0.0042
1674.00,0.0043
1673.00,0.0043
1672.00,0.0043
1671.00,0.0043
1670.00,0.0044
1669.00,0.0045
1668.00,0.0046
1667.00,0.0046
1666.00,0.0047
1665.00,0.0047
1664.00,0.0048
1663.00,0.0049
1662.00,0.0050
1661.00,0.0051
1660.00,0.0052
1659.00,0.0052
1658.00,0.0053
1657.00,0.0053
1656.00,0.0054
1655.00,0.0055
1654.00,0.0056
1653.00,0.0059
1652.00,0.0060
1651.00,0.0061
1650.00,0.0062
1649.00,0.0063
1648.00,0.0066
1647.00,0.0068
1646.00,0.0069
1645.00,0.0069
1644.00,0.0069
1643.00,0.0069
1642.00,0.0068
1641.00,0.0068
1640.00,0.0068
1639.00,0.0067
1638.00,0.0066
1637.00,0.0066
1636.00,0.0066
1635.00,0.0066
1634.00,0.0066
1633.00,0.0067
1632.00,0.0067
1631.00,0.0066
1630.00,0.0066
1629.00,0.0066
1628.00,0.0066
1627.00,0.0066
1626.00,0.0066
1625.00,0.0065
1624.00,0.0066
1623.00,0.0066
1622.00,0.0065
1621.00,0.0065
1620.00,0.0064
1619.00,0.0063
1618.00,0.0063
1617.00,0.0063
1616.00,0.0064
1615.00,0.0064
1614.00,0.0064
1613.00,0.0065
1612.00,0.0065
1611.00,0.0065
1610.00,0.0065
1609.00,0.0065
1608.00,0.0064
1607.00,0.0064
1606.00,0.0064
1605.00,0.0063
1604.00,0.0063
1603.00,0.0062
1602.00,0.0062
1601.00,0.0062
1600.00,0.0062
1599.00,0.0061
1598.00,0.0061
1597.00,0.0061
1596.00,0.0060
1595.00,0.0060
1594.00,0.0059
1593.00,0.0059
1592.00,0.0059
1591.00,0.0059
1590.00,0.0059
1589.00,0.0059
1588.00,0.0060
1587.00,0.0060
1586.00,0.0060
1585.00,0.0060
1584.00,0.0061
1583.00,0.0061
1582.00,0.0062
1581.00,0.0063
1580.00,0.0064
1579.00,0.0065
1578.00,0.0066
1577.00,0.0066
1576.00,0.0067
1575.00,0.0066
1574.00,0.0065
1573.00,0.0064
1572.00,0.0064
1571.00,0.0063
1570.00,0.0062
1569.00,0.0061
1568.00,0.0061
1567.00,0.0061
1566.00,0.0061
1565.00,0.0061
1564.00,0.0061
1563.00,0.0062
1562.00,0.0062
1561.00,0.0064
1560.00,0.0065
1559.00,0.0065
1558.00,0.0065
1557.00,0.0065
1556.00,0.0066
1555.00,0.0066
1554.00,0.0067
1553.00,0.0068
1552.00,0.0069
1551.00,0.0070
1550.00,0.0071
1549.00,0.0072
1548.00,0.0073
1547.00,0.0074
1546.00,0.0074
1545.00,0.0075
1544.00,0.0076
1543.00,0.0076
1542.00,0.0076
1541.00,0.0077
1540.00,0.0077
1539.00,0.0076
1538.00,0.0074
1537.00,0.0073
1536.00,0.0072
1535.00,0.0070
1534.00,0.0067
1533.00,0.0064
1532.00,0.0063
1531.00,0.0062
1530.00,0.0060
1529.00,0.0060
1528.00,0.0059
1527.00,0.0057
1526.00,0.0056
1525.00,0.0055
1524.00,0.0055
1523.00,0.0055
1522.00,0.0055
1521.00,0.0055
1520.00,0.0055
1519.00,0.0054
1518.00,0.0054
1517.00,0.0054
1516.00,0.0055
1515.00,0.0055
1514.00,0.0055
1513.00,0.0056
1512.00,0.0057
1511.00,0.0058
1510.00,0.0058
1509.00,0.0059
1508.00,0.0061
1507.00,0.0062
1506.00,0.0063
1505.00,0.0064
1504.00,0.0066
1503.00,0.0068
1502.00,0.0070
1501.00,0.0072
1500.00,0.0075
1499.00,0.0077
1498.00,0.0079
1497.00,0.0083
1496.00,0.0086
1495.00,0.0090
1494.00,0.0092
1493.00,0.0096
1492.00,0.0100
1491.00,0.0103
1490.00,0.0107
1489.00,0.0112
1488.00,0.0117
1487.00,0.0122
1486.00,0.0127
1485.00,0.0133
1484.00,0.0140
1483.00,0.0147
1482.00,0.0155
1481.00,0.0166
1480.00,0.0177
1479.00,0.0189
1478.00,0.0202
1477.00,0.0220
1476.00,0.0241
1475.00,0.0266
1474.00,0.0300
1473.00,0.0351
1472.00,0.0414
1471.00,0.0476
1470.00,0.0535
1469.00,0.0597
1468.00,0.0663
1467.00,0.0736
1466.00,0.0820
1465.00,0.0911
1464.00,0.0994
1463.00,0.1055
1462.00,0.1097
1461.00,0.1130
1460.00,0.1156
1459.00,0.1177
1458.00,0.1199
1457.00,0.1224
1456.00,0.1240
1455.00,0.1245
1454.00,0.1244
1453.00,0.1238
1452.00,0.1221
1451.00,0.1190
1450.00,0.1141
1449.00,0.1069
1448.00,0.0973
1447.00,0.0869
1446.00,0.0774
1445.00,0.0692
1444.00,0.0622
1443.00,0.0565
1442.00,0.0522
1441.00,0.0491
1440.00,0.0472
1439.00,0.0461
1438.00,0.0456
1437.00,0.0450
1436.00,0.0434
1435.00,0.0405
1434.00,0.0367
1433.00,0.0323
1432.00,0.0278
1431.00,0.0238
1430.00,0.0208
1429.00,0.0186
1428.00,0.0171
1427.00,0.0162
1426.00,0.0156
1425.00,0.0150
1424.00,0.0145
1423.00,0.0142
1422.00,0.0141
1421.00,0.0140
1420.00,0.0137
1419.00,0.0134
1418.00,0.0132
1417.00,0.0130
1416.00,0.0128
1415.00,0.0127
1414.00,0.0127
1413.00,0.0125
1412.00,0.0123
1411.00,0.0122
1410.00,0.0122
1409.00,0.0120
1408.00,0.0119
1407.00,0.0119
1406.00,0.0119
1405.00,0.0119
1404.00,0.0119
1403.00,0.0120
1402.00,0.0122
1401.00,0.0123
1400.00,0.0124
1399.00,0.0126
1398.00,0.0128
1397.00,0.0130
1396.00,0.0132
1395.00,0.0136
1394.00,0.0141
1393.00,0.0146
1392.00,0.0153
1391.00,0.0161
1390.00,0.0174
1389.00,0.0191
1388.00,0.0217
1387.00,0.0256
1386.00,0.0308
1385.00,0.0373
1384.00,0.0457
1383.00,0.0569
1382.00,0.0712
1381.00,0.0889
1380.00,0.1101
1379.00,0.1335
1378.00,0.1556
1377.00,0.1716
1376.00,0.1768
1375.00,0.1683
1374.00,0.1483
1373.00,0.1238
1372.00,0.1011
1371.00,0.0821
1370.00,0.0666
1369.00,0.0547
1368.00,0.0464
1367.00,0.0412
1366.00,0.0384
1365.00,0.0372
1364.00,0.0374
1363.00,0.0386
1362.00,0.0406
1361.00,0.0427
1360.00,0.0442
1359.00,0.0445
1358.00,0.0434
1357.00,0.0409
1356.00,0.0373
1355.00,0.0333
1354.00,0.0295
1353.00,0.0261
1352.00,0.0234
1351.00,0.0212
1350.00,0.0194
1349.00,0.0180
1348.00,0.0168
1347.00,0.0159
1346.00,0.0152
1345.00,0.0146
1344.00,0.0141
1343.00,0.0138
1342.00,0.0134
1341.00,0.0132
1340.00,0.0129
1339.00,0.0127
1338.00,0.0125
1337.00,0.0125
1336.00,0.0125
1335.00,0.0127
1334.00,0.0130
1333.00,0.0133
1332.00,0.0137
1331.00,0.0140
1330.00,0.0141
1329.00,0.0140
1328.00,0.0137
1327.00,0.0132
1326.00,0.0126
1325.00,0.0120
1324.00,0.0114
1323.00,0.0108
1322.00,0.0104
1321.00,0.0101
1320.00,0.0098
1319.00,0.0095
1318.00,0.0093
1317.00,0.0091
1316.00,0.0090
1315.00,0.0089
1314.00,0.0088
1313.00,0.0089
1312.00,0.0091
1311.00,0.0094
1310.00,0.0099
1309.00,0.0108
1308.00,0.0120
1307.00,0.0136
1306.00,0.0151
1305.00,0.0161
1304.00,0.0165
1303.00,0.0160
1302.00,0.0152
1301.00,0.0143
1300.00,0.0136
1299.00,0.0132
1298.00,0.0130
1297.00,0.0128
1296.00,0.0125
1295.00,0.0122
1294.00,0.0117
1293.00,0.0111
1292.00,0.0105
1291.00,0.0099
1290.00,0.0094
1289.00,0.0089
1288.00,0.0086
1287.00,0.0083
1286.00,0.0081
1285.00,0.0079
1284.00,0.0077
1283.00,0.0075
1282.00,0.0074
1281.00,0.0073
1280.00,0.0072
1279.00,0.0071
1278.00,0.0070
1277.00,0.0070
1276.00,0.0069
1275.00,0.0069
1274.00,0.0069
1273.00,0.0070
1272.00,0.0071
1271.00,0.0072
1270.00,0.0073
1269.00,0.0075
1268.00,0.0077
1267.00,0.0080
1266.00,0.0083
1265.00,0.0087
1264.00,0.0091
1263.00,0.0095
1262.00,0.0100
1261.00,0.0106
1260.00,0.0114
1259.00,0.0124
1258.00,0.0135
1257.00,0.0144
1256.00,0.0148
1255.00,0.0147
1254.00,0.0139
1253.00,0.0129
1252.00,0.0118
1251.00,0.0108
1250.00,0.0102
1249.00,0.0097
1248.00,0.0094
1247.00,0.0092
1246.00,0.0091
1245.00,0.0091
1244.00,0.0090
1243.00,0.0090
1242.00,0.0089
1241.00,0.0088
1240.00,0.0087
1239.00,0.0086
1238.00,0.0085
1237.00,0.0084
1236.00,0.0084
1235.00,0.0084
1234.00,0.0084
1233.00,0.0083
1232.00,0.0083
1231.00,0.0083
1230.00,0.0083
1229.00,0.0083
1228.00,0.0083
1227.00,0.0084
1226.00,0.0086
1225.00,0.0089
1224.00,0.0091
1223.00,0.0093
1222.00,0.0096
1221.00,0.0099
1220.00,0.0101
1219.00,0.0102
1218.00,0.0102
1217.00,0.0101
1216.00,0.0099
1215.00,0.0097
1214.00,0.0094
1213.00,0.0091
1212.00,0.0088
1211.00,0.0086
1210.00,0.0083
1209.00,0.0081
1208.00,0.0079
1207.00,0.0078
1206.00,0.0078
1205.00,0.0077
1204.00,0.0077
1203.00,0.0076
1202.00,0.0076
1201.00,0.0076
1200.00,0.0076
1199.00,0.0076
1198.00,0.0076
1197.00,0.0076
1196.00,0.0076
1195.00,0.0076
1194.00,0.0076
1193.00,0.0076
1192.00,0.0076
1191.00,0.0077
1190.00,0.0077
1189.00,0.0077
1188.00,0.0078
1187.00,0.0079
1186.00,0.0081
1185.00,0.0082
1184.00,0.0084
1183.00,0.0086
1182.00,0.0089
1181.00,0.0093
1180.00,0.0098
1179.00,0.0104
1178.00,0.0113
1177.00,0.0123
1176.00,0.0138
1175.00,0.0158
1174.00,0.0185
1173.00,0.0219
1172.00,0.0259
1171.00,0.0303
1170.00,0.0346
1169.00,0.0381
1168.00,0.0403
1167.00,0.0410
1166.00,0.0401
1165.00,0.0382
1164.00,0.0356
1163.00,0.0329
1162.00,0.0305
1161.00,0.0284
1160.00,0.0267
1159.00,0.0253
1158.00,0.0242
1157.00,0.0234
1156.00,0.0228
1155.00,0.0223
1154.00,0.0219
1153.00,0.0214
1152.00,0.0208
1151.00,0.0201
1150.00,0.0192
1149.00,0.0182
1148.00,0.0172
1147.00,0.0162
1146.00,0.0153
1145.00,0.0144
1144.00,0.0136
1143.00,0.0129
1142.00,0.0122
1141.00,0.0116
1140.00,0.0110
1139.00,0.0105
1138.00,0.0101
1137.00,0.0097
1136.00,0.0094
1135.00,0.0092
1134.00,0.0090
1133.00,0.0088
1132.00,0.0087
1131.00,0.0087
1130.00,0.0086
1129.00,0.0087
1128.00,0.0088
1127.00,0.0089
1126.00,0.0090
1125.00,0.0091
1124.00,0.0092
1123.00,0.0093
1122.00,0.0093
1121.00,0.0094
1120.00,0.0095
1119.00,0.0096
1118.00,0.0098
1117.00,0.0099
1116.00,0.0101
1115.00,0.0103
1114.00,0.0104
1113.00,0.0106
1112.00,0.0108
1111.00,0.0111
1110.00,0.0115
1109.00,0.0119
1108.00,0.0125
1107.00,0.0132
1106.00,0.0138
1105.00,0.0145
1104.00,0.0150
1103.00,0.0154
1102.00,0.0154
1101.00,0.0152
1100.00,0.0147
1099.00,0.0141
1098.00,0.0134
1097.00,0.0128
1096.00,0.0123
1095.00,0.0118
1094.00,0.0115
1093.00,0.0111
1092.00,0.0109
1091.00,0.0106
1090.00,0.0104
1089.00,0.0102
1088.00,0.0100
1087.00,0.0099
1086.00,0.0098
1085.00,0.0098
1084.00,0.0098
1083.00,0.0097
1082.00,0.0095
1081.00,0.0093
1080.00,0.0090
1079.00,0.0088
1078.00,0.0086
1077.00,0.0084
1076.00,0.0083
1075.00,0.0082
1074.00,0.0082
1073.00,0.0082
1072.00,0.0083
1071.00,0.0083
1070.00,0.0083
1069.00,0.0083
1068.00,0.0083
1067.00,0.0083
1066.00,0.0083
1065.00,0.0084
1064.00,0.0084
1063.00,0.0084
1062.00,0.0085
1061.00,0.0087
1060.00,0.0088
1059.00,0.0090
1058.00,0.0091
1057.00,0.0091
1056.00,0.0092
1055.00,0.0093
1054.00,0.0093
1053.00,0.0094
1052.00,0.0095
1051.00,0.0097
1050.00,0.0099
1049.00,0.0103
1048.00,0.0107
1047.00,0.0111
1046.00,0.0114
1045.00,0.0116
1044.00,0.0116
1043.00,0.0114
1042.00,0.0111
1041.00,0.0108
1040.00,0.0106
1039.00,0.0105
1038.00,0.0104
1037.00,0.0103
1036.00,0.0102
1035.00,0.0102
1034.00,0.0102
1033.00,0.0101
1032.00,0.0100
1031.00,0.0099
1030.00,0.0099
1029.00,0.0098
1028.00,0.0098
1027.00,0.0098
1026.00,0.0098
1025.00,0.0098
1024.00,0.0098
1023.00,0.0098
1022.00,0.0099
1021.00,0.0100
1020.00,0.0101
1019.00,0.0102
1018.00,0.0103
1017.00,0.0106
1016.00,0.0109
1015.00,0.0112
1014.00,0.0117
1013.00,0.0121
1012.00,0.0125
1011.00,0.0129
1010.00,0.0134
1009.00,0.0139
1008.00,0.0147
1007.00,0.0156
1006.00,0.0168
1005.00,0.0184
1004.00,0.0203
1003.00,0.0231
1002.00,0.0268
1001.00,0.0316
1000.00,0.0368
999.00,0.0414
998.00,0.0440
997.00,0.0438
996.00,0.0406
995.00,0.0356
994.00,0.0301
993.00,0.0251
992.00,0.0212
991.00,0.0183
990.00,0.0163
989.00,0.0149
988.00,0.0140
987.00,0.0135
986.00,0.0134
985.00,0.0135
984.00,0.0139
983.00,0.0147
982.00,0.0159
981.00,0.0177
980.00,0.0203
979.00,0.0238
978.00,0.0283
977.00,0.0337
976.00,0.0398
975.00,0.0457
974.00,0.0506
973.00,0.0530
972.00,0.0521
971.00,0.0479
970.00,0.0414
969.00,0.0344
968.00,0.0281
967.00,0.0232
966.00,0.0196
965.00,0.0170
964.00,0.0151
963.00,0.0136
962.00,0.0124
961.00,0.0115
960.00,0.0107
959.00,0.0102
958.00,0.0098
957.00,0.0095
956.00,0.0093
955.00,0.0090
954.00,0.0088
953.00,0.0086
952.00,0.0085
951.00,0.0085
950.00,0.0084
949.00,0.0083
948.00,0.0084
947.00,0.0085
946.00,0.0087
945.00,0.0089
944.00,0.0092
943.00,0.0094
942.00,0.0097
941.00,0.0097
940.00,0.0096
939.00,0.0094
938.00,0.0090
937.00,0.0086
936.00,0.0082
935.00,0.0078
934.00,0.0075
933.00,0.0072
932.00,0.0070
931.00,0.0068
930.00,0.0066
929.00,0.0066
928.00,0.0065
927.00,0.0065
926.00,0.0065
925.00,0.0066
924.00,0.0067
923.00,0.0068
922.00,0.0069
921.00,0.0069
920.00,0.0070
919.00,0.0070
918.00,0.0071
917.00,0.0071
916.00,0.0072
915.00,0.0072
914.00,0.0073
913.00,0.0074
912.00,0.0074
911.00,0.0075
910.00,0.0076
909.00,0.0077
908.00,0.0080
907.00,0.0085
906.00,0.0092
905.00,0.0102
904.00,0.0115
903.00,0.0132
902.00,0.0150
901.00,0.0167
900.00,0.0178
899.00,0.0180
898.00,0.0174
897.00,0.0161
896.00,0.0143
895.00,0.0125
894.00,0.0111
893.00,0.0100
892.00,0.0093
891.00,0.0088
890.00,0.0084
889.00,0.0081
888.00,0.0079
887.00,0.0077
886.00,0.0075
885.00,0.0074
884.00,0.0073
883.00,0.0073
882.00,0.0073
881.00,0.0074
880.00,0.0075
879.00,0.0076
878.00,0.0077
877.00,0.0078
876.00,0.0078
875.00,0.0078
874.00,0.0078
873.00,0.0079
872.00,0.0079
871.00,0.0080
870.00,0.0081
869.00,0.0080
868.00,0.0079
867.00,0.0079
866.00,0.0080
865.00,0.0081
864.00,0.0083
863.00,0.0085
862.00,0.0087
861.00,0.0088
860.00,0.0090
859.00,0.0092
858.00,0.0094
857.00,0.0095
856.00,0.0096
855.00,0.0098
854.00,0.0101
853.00,0.0104
852.00,0.0108
851.00,0.0113
850.00,0.0119
849.00,0.0127
848.00,0.0141
847.00,0.0162
846.00,0.0195
845.00,0.0242
844.00,0.0304
843.00,0.0372
842.00,0.0425
841.00,0.0442
840.00,0.0416
839.00,0.0358
838.00,0.0294
837.00,0.0240
836.00,0.0204
835.00,0.0181
834.00,0.0166
833.00,0.0155
832.00,0.0148
831.00,0.0141
830.00,0.0135
829.00,0.0129
828.00,0.0125
827.00,0.0122
826.00,0.0121
825.00,0.0121
824.00,0.0120
823.00,0.0118
822.00,0.0116
821.00,0.0115
820.00,0.0115
819.00,0.0118
818.00,0.0123
817.00,0.0129
816.00,0.0136
815.00,0.0145
814.00,0.0155
813.00,0.0168
812.00,0.0184
811.00,0.0199
810.00,0.0211
809.00,0.0217
808.00,0.0215
807.00,0.0208
806.00,0.0195
805.00,0.0181
804.00,0.0166
803.00,0.0152
802.00,0.0141
801.00,0.0131
800.00,0.0124
799.00,0.0119
798.00,0.0114
797.00,0.0111
796.00,0.0107
795.00,0.0103
794.00,0.0099
793.00,0.0096
792.00,0.0093
791.00,0.0091
790.00,0.0088
789.00,0.0086
788.00,0.0083
787.00,0.0081
786.00,0.0079
785.00,0.0077
784.00,0.0074
783.00,0.0071
782.00,0.0069
781.00,0.0067
780.00,0.0067
779.00,0.0067
778.00,0.0068
777.00,0.0069
776.00,0.0070
775.00,0.0071
774.00,0.0072
773.00,0.0074
772.00,0.0076
771.00,0.0080
770.00,0.0083
769.00,0.0085
768.00,0.0086
767.00,0.0086
766.00,0.0084
765.00,0.0082
764.00,0.0080
763.00,0.0077
762.00,0.0074
761.00,0.0070
760.00,0.0068
759.00,0.0065
758.00,0.0063
757.00,0.0061
756.00,0.0058
755.00,0.0055
754.00,0.0054
753.00,0.0053
752.00,0.0053
751.00,0.0054
750.00,0.0055
749.00,0.0055
748.00,0.0056
747.00,0.0056
746.00,0.0057
745.00,0.0058
744.00,0.0060
743.00,0.0062
742.00,0.0063
741.00,0.0064
740.00,0.0064
739.00,0.0065
738.00,0.0065
737.00,0.0067
736.00,0.0069
735.00,0.0071
734.00,0.0072
733.00,0.0073
732.00,0.0073
731.00,0.0074
730.00,0.0074
729.00,0.0075
728.00,0.0074
727.00,0.0074
726.00,0.0074
725.00,0.0075
724.00,0.0076
723.00,0.0077
722.00,0.0077
721.00,0.0075
720.00,0.0073
719.00,0.0070
718.00,0.0068
717.00,0.0066
716.00,0.0065
715.00,0.0065
714.00,0.0065
713.00,0.0066
712.00,0.0066
711.00,0.0065
710.00,0.0064
709.00,0.0064
708.00,0.0064
707.00,0.0065
706.00,0.0066
705.00,0.0067
704.00,0.0067
703.00,0.0067
702.00,0.0066
701.00,0.0064
700.00,0.0062
699.00,0.0060
698.00,0.0059
697.00,0.0057
696.00,0.0056
695.00,0.0055
694.00,0.0055
693.00,0.0055
692.00,0.0056
691.00,0.0058
690.00,0.0059
689.00,0.0058
688.00,0.0058
687.00,0.0058
686.00,0.0059
685.00,0.0059
684.00,0.0058
683.00,0.0057
682.00,0.0057
681.00,0.0055
680.00,0.0055
679.00,0.0056
678.00,0.0058
677.00,0.0061
676.00,0.0062
675.00,0.0062
674.00,0.0062
673.00,0.0062
672.00,0.0062
671.00,0.0064
670.00,0.0065
669.00,0.0066
668.00,0.0068
667.00,0.0068
666.00,0.0066
665.00,0.0063
664.00,0.0060
663.00,0.0058
662.00,0.0057
661.00,0.0057
660.00,0.0059
659.00,0.0060
658.00,0.0059
657.00,0.0057
656.00,0.0055
655.00,0.0053
654.00,0.0053
653.00,0.0054
652.00,0.0056
651.00,0.0058
650.00,0.0058
649.00,0.0058
648.00,0.0058
647.00,0.0058
646.00,0.0059
645.00,0.0059
644.00,0.0059
643.00,0.0060
642.00,0.0061
641.00,0.0061
640.00,0.0061
639.00,0.0061
638.00,0.0061
637.00,0.0060
636.00,0.0059
635.00,0.0059
634.00,0.0058
633.00,0.0059
632.00,0.0061
631.00,0.0063
630.00,0.0064
629.00,0.0064
628.00,0.0063
627.00,0.0064
626.00,0.0066
625.00,0.0067
624.00,0.0066
623.00,0.0064
622.00,0.0063
621.00,0.0063
620.00,0.0065
619.00,0.0066
618.00,0.0066
617.00,0.0066
616.00,0.0064
615.00,0.0063
614.00,0.0061
613.00,0.0061
612.00,0.0062
611.00,0.0062
610.00,0.0063
609.00,0.0063
608.00,0.0063
607.00,0.0063
606.00,0.0062
605.00,0.0062
604.00,0.0062
603.00,0.0064
602.00,0.0065
601.00,0.0066
600.00,0.0067
599.00,0.0068
598.00,0.0069
597.00,0.0068
596.00,0.0066
595.00,0.0064
594.00,0.0062
593.00,0.0061
592.00,0.0059
591.00,0.0059
590.00,0.0059
589.00,0.0058
588.00,0.0059
587.00,0.0060
586.00,0.0063
585.00,0.0064
584.00,0.0065
583.00,0.0065
582.00,0.0066
581.00,0.0068
580.00,0.0068
579.00,0.0067
578.00,0.0064
577.00,0.0063
576.00,0.0064
575.00,0.0065
574.00,0.0065
573.00,0.0063
572.00,0.0061
571.00,0.0061
570.00,0.0064
569.00,0.0068
568.00,0.0070
567.00,0.0070
566.00,0.0068
565.00,0.0068
564.00,0.0068
563.00,0.0068
562.00,0.0069
561.00,0.0067
560.00,0.0066
559.00,0.0065
558.00,0.0065
557.00,0.0065
556.00,0.0064
555.00,0.0063
554.00,0.0063
553.00,0.0065
552.00,0.0067
551.00,0.0069
550.00,0.0070
549.00,0.0070
548.00,0.0069
547.00,0.0069
546.00,0.0071
545.00,0.0074
544.00,0.0078
543.00,0.0080
542.00,0.0082
541.00,0.0082
540.00,0.0079
539.00,0.0075
538.00,0.0071
537.00,0.0070
536.00,0.0073
535.00,0.0078
534.00,0.0081
533.00,0.0080
532.00,0.0076
531.00,0.0074
530.00,0.0075
529.00,0.0075
528.00,0.0073
527.00,0.0068
526.00,0.0063
525.00,0.0063
524.00,0.0066
523.00,0.0071
522.00,0.0074
521.00,0.0075
520.00,0.0072
519.00,0.0070
518.00,0.0069
517.00,0.0070
516.00,0.0072
515.00,0.0077
514.00,0.0081
513.00,0.0082
512.00,0.0079
511.00,0.0074
510.00,0.0070
509.00,0.0066
508.00,0.0062
507.00,0.0062
506.00,0.0067
505.00,0.0073
504.00,0.0077
503.00,0.0076
502.00,0.0075
501.00,0.0074
500.00,0.0074
499.00,0.0073
498.00,0.0073
497.00,0.0075
496.00,0.0076
495.00,0.0076
494.00,0.0077
493.00,0.0081
492.00,0.0089
491.00,0.0094
490.00,0.0095
489.00,0.0090
488.00,0.0083
487.00,0.0075
486.00,0.0067
485.00,0.0059
484.00,0.0055
483.00,0.0056
482.00,0.0061
481.00,0.0068
480.00,0.0075
479.00,0.0079
478.00,0.0078
477.00,0.0077
476.00,0.0080
475.00,0.0089
474.00,0.0101
473.00,0.0112
472.00,0.0113
471.00,0.0107
470.00,0.0098
469.00,0.0091
468.00,0.0093
467.00,0.0103
466.00,0.0115
465.00,0.0125
464.00,0.0133
463.00,0.0146
462.00,0.0163
461.00,0.0179
460.00,0.0186
459.00,0.0182
458.00,0.0170
457.00,0.0155
456.00,0.0145
455.00,0.0141
454.00,0.0142
453.00,0.0141
452.00,0.0137
451.00,0.0129
450.00,0.0118
