Created as New Dataset,Sample 031 By Administrator Date Wednesday, September 10 2025
cm-1,A
4000.00,0.0009
3999.00,0.0010
3998.00,0.0009
3997.00,0.0009
3996.00,0.0009
3995.00,0.0009
3994.00,0.0008
3993.00,0.0008
3992.00,0.0008
3991.00,0.0009
3990.00,0.0009
3989.00,0.0009
3988.00,0.0009
3987.00,0.0010
3986.00,0.0010
3985.00,0.0010
3984.00,0.0009
3983.00,0.0009
3982.00,0.0009
3981.00,0.0008
3980.00,0.0008
3979.00,0.0008
3978.00,0.0008
3977.00,0.0008
3976.00,0.0008
3975.00,0.0008
3974.00,0.0008
3973.00,0.0008
3972.00,0.0008
3971.00,0.0008
3970.00,0.0008
3969.00,0.0008
3968.00,0.0008
3967.00,0.0008
3966.00,0.0008
3965.00,0.0008
3964.00,0.0008
3963.00,0.0007
3962.00,0.0007
3961.00,0.0007
3960.00,0.0008
3959.00,0.0008
3958.00,0.0008
3957.00,0.0008
3956.00,0.0008
3955.00,0.0008
3954.00,0.0007
3953.00,0.0007
3952.00,0.0007
3951.00,0.0007
3950.00,0.0007
3949.00,0.0007
3948.00,0.0007
3947.00,0.0007
3946.00,0.0007
3945.00,0.0007
3944.00,0.0007
3943.00,0.0007
3942.00,0.0007
3941.00,0.0007
3940.00,0.0007
3939.00,0.0007
3938.00,0.0007
3937.00,0.0007
3936.00,0.0007
3935.00,0.0007
3934.00,0.0007
3933.00,0.0007
3932.00,0.0007
3931.00,0.0007
3930.00,0.0007
3929.00,0.0007
3928.00,0.0007
3927.00,0.0007
3926.00,0.0007
3925.00,0.0007
3924.00,0.0007
3923.00,0.0007
3922.00,0.0007
3921.00,0.0008
3920.00,0.0008
3919.00,0.0008
3918.00,0.0008
3917.00,0.0008
3916.00,0.0008
3915.00,0.0008
3914.00,0.0008
3913.00,0.0008
3912.00,0.0008
3911.00,0.0008
3910.00,0.0007
3909.00,0.0007
3908.00,0.0006
3907.00,0.0006
3906.00,0.0006
3905.00,0.0006
3904.00,0.0007
3903.00,0.0007
3902.00,0.0008
3901.00,0.0008
3900.00,0.0008
3899.00,0.0008
3898.00,0.0008
3897.00,0.0008
3896.00,0.0007
3895.00,0.0007
3894.00,0.0007
3893.00,0.0007
3892.00,0.0007
3891.00,0.0007
3890.00,0.0007
3889.00,0.0007
3888.00,0.0007
3887.00,0.0006
3886.00,0.0006
3885.00,0.0006
3884.00,0.0006
3883.00,0.0007
3882.00,0.0007
3881.00,0.0008
3880.00,0.0008
3879.00,0.0008
3878.00,0.0007
3877.00,0.0007
3876.00,0.0006
3875.00,0.0006
3874.00,0.0005
3873.00,0.0006
3872.00,0.0006
3871.00,0.0006
3870.00,0.0007
3869.00,0.0007
3868.00,0.0008
3867.00,0.0008
3866.00,0.0007
3865.00,0.0006
3864.00,0.0006
3863.00,0.0006
3862.00,0.0006
3861.00,0.0006
3860.00,0.0006
3859.00,0.0006
3858.00,0.0006
3857.00,0.0006
3856.00,0.0007
3855.00,0.0007
3854.00,0.0007
3853.00,0.0007
3852.00,0.0007
3851.00,0.0007
3850.00,0.0007
3849.00,0.0006
3848.00,0.0006
3847.00,0.0006
3846.00,0.0006
3845.00,0.0006
3844.00,0.0005
3843.00,0.0005
3842.00,0.0005
3841.00,0.0005
3840.00,0.0005
3839.00,0.0006
3838.00,0.0006
3837.00,0.0007
3836.00,0.0007
3835.00,0.0008
3834.00,0.0008
3833.00,0.0008
3832.00,0.0007
3831.00,0.0007
3830.00,0.0006
3829.00,0.0006
3828.00,0.0006
3827.00,0.0006
3826.00,0.0006
3825.00,0.0006
3824.00,0.0006
3823.00,0.0006
3822.00,0.0006
3821.00,0.0006
3820.00,0.0007
3819.00,0.0007
3818.00,0.0007
3817.00,0.0006
3816.00,0.0006
3815.00,0.0007
3814.00,0.0007
3813.00,0.0007
3812.00,0.0007
3811.00,0.0006
3810.00,0.0006
3809.00,0.0006
3808.00,0.0006
3807.00,0.0005
3806.00,0.0005
3805.00,0.0006
3804.00,0.0006
3803.00,0.0006
3802.00,0.0007
3801.00,0.0007
3800.00,0.0007
3799.00,0.0007
3798.00,0.0007
3797.00,0.0007
3796.00,0.0007
3795.00,0.0007
3794.00,0.0007
3793.00,0.0006
3792.00,0.0006
3791.00,0.0006
3790.00,0.0006
3789.00,0.0006
3788.00,0.0006
3787.00,0.0006
3786.00,0.0007
3785.00,0.0007
3784.00,0.0007
3783.00,0.0007
3782.00,0.0007
3781.00,0.0007
3780.00,0.0007
3779.00,0.0007
3778.00,0.0007
3777.00,0.0007
3776.00,0.0006
3775.00,0.0006
3774.00,0.0006
3773.00,0.0006
3772.00,0.0007
3771.00,0.0007
3770.00,0.0007
3769.00,0.0008
3768.00,0.0008
3767.00,0.0008
3766.00,0.0008
3765.00,0.0008
3764.00,0.0008
3763.00,0.0008
3762.00,0.0008
3761.00,0.0008
3760.00,0.0008
3759.00,0.0008
3758.00,0.0008
3757.00,0.0008
3756.00,0.0007
3755.00,0.0007
3754.00,0.0006
3753.00,0.0005
3752.00,0.0005
3751.00,0.0005
3750.00,0.0006
3749.00,0.0006
3748.00,0.0006
3747.00,0.0006
3746.00,0.0006
3745.00,0.0006
3744.00,0.0006
3743.00,0.0006
3742.00,0.0006
3741.00,0.0006
3740.00,0.0006
3739.00,0.0006
3738.00,0.0006
3737.00,0.0006
3736.00,0.0005
3735.00,0.0005
3734.00,0.0006
3733.00,0.0006
3732.00,0.0006
3731.00,0.0006
3730.00,0.0006
3729.00,0.0006
3728.00,0.0006
3727.00,0.0006
3726.00,0.0005
3725.00,0.0005
3724.00,0.0005
3723.00,0.0005
3722.00,0.0005
3721.00,0.0006
3720.00,0.0006
3719.00,0.0007
3718.00,0.0006
3717.00,0.0006
3716.00,0.0005
3715.00,0.0004
3714.00,0.0004
3713.00,0.0003
3712.00,0.0003
3711.00,0.0004
3710.00,0.0005
3709.00,0.0005
3708.00,0.0005
3707.00,0.0004
3706.00,0.0004
3705.00,0.0004
3704.00,0.0005
3703.00,0.0005
3702.00,0.0006
3701.00,0.0007
3700.00,0.0007
3699.00,0.0006
3698.00,0.0006
3697.00,0.0005
3696.00,0.0005
3695.00,0.0005
3694.00,0.0005
3693.00,0.0005
3692.00,0.0005
3691.00,0.0004
3690.00,0.0004
3689.00,0.0004
3688.00,0.0004
3687.00,0.0004
3686.00,0.0004
3685.00,0.0004
3684.00,0.0004
3683.00,0.0004
3682.00,0.0005
3681.00,0.0005
3680.00,0.0005
3679.00,0.0006
3678.00,0.0006
3677.00,0.0006
3676.00,0.0006
3675.00,0.0006
3674.00,0.0006
3673.00,0.0005
3672.00,0.0005
3671.00,0.0004
3670.00,0.0004
3669.00,0.0005
3668.00,0.0005
3667.00,0.0005
3666.00,0.0004
3665.00,0.0004
3664.00,0.0004
3663.00,0.0005
3662.00,0.0005
3661.00,0.0005
3660.00,0.0005
3659.00,0.0005
3658.00,0.0004
3657.00,0.0004
3656.00,0.0004
3655.00,0.0004
3654.00,0.0004
3653.00,0.0004
3652.00,0.0005
3651.00,0.0005
3650.00,0.0005
3649.00,0.0005
3648.00,0.0006
3647.00,0.0006
3646.00,0.0006
3645.00,0.0006
3644.00,0.0006
3643.00,0.0006
3642.00,0.0006
3641.00,0.0006
3640.00,0.0006
3639.00,0.0005
3638.00,0.0005
3637.00,0.0006
3636.00,0.0006
3635.00,0.0006
3634.00,0.0007
3633.00,0.0007
3632.00,0.0007
3631.00,0.0007
3630.00,0.0007
3629.00,0.0007
3628.00,0.0008
3627.00,0.0008
3626.00,0.0008
3625.00,0.0008
3624.00,0.0008
3623.00,0.0008
3622.00,0.0009
3621.00,0.0009
3620.00,0.0009
3619.00,0.0009
3618.00,0.0009
3617.00,0.0010
3616.00,0.0010
3615.00,0.0010
3614.00,0.0010
3613.00,0.0011
3612.00,0.0012
3611.00,0.0012
3610.00,0.0012
3609.00,0.0011
3608.00,0.0011
3607.00,0.0011
3606.00,0.0011
3605.00,0.0011
3604.00,0.0011
3603.00,0.0011
3602.00,0.0012
3601.00,0.0012
3600.00,0.0012
3599.00,0.0012
3598.00,0.0012
3597.00,0.0013
3596.00,0.0013
3595.00,0.0013
3594.00,0.0013
3593.00,0.0013
3592.00,0.0013
3591.00,0.0014
3590.00,0.0014
3589.00,0.0015
3588.00,0.0015
3587.00,0.0016
3586.00,0.0016
3585.00,0.0016
3584.00,0.0015
3583.00,0.0015
3582.00,0.0015
3581.00,0.0015
3580.00,0.0015
3579.00,0.0015
3578.00,0.0016
3577.00,0.0017
3576.00,0.0018
3575.00,0.0018
3574.00,0.0018
3573.00,0.0018
3572.00,0.0018
3571.00,0.0018
3570.00,0.0018
3569.00,0.0018
3568.00,0.0019
3567.00,0.0019
3566.00,0.0019
3565.00,0.0019
3564.00,0.0019
3563.00,0.0020
3562.00,0.0020
3561.00,0.0020
3560.00,0.0021
3559.00,0.0021
3558.00,0.0021
3557.00,0.0021
3556.00,0.0022
3555.00,0.0022
3554.00,0.0023
3553.00,0.0023
3552.00,0.0023
3551.00,0.0023
3550.00,0.0023
3549.00,0.0023
3548.00,0.0023
3547.00,0.0024
3546.00,0.0024
3545.00,0.0024
3544.00,0.0024
3543.00,0.0024
3542.00,0.0025
3541.00,0.0025
3540.00,0.0026
3539.00,0.0026
3538.00,0.0027
3537.00,0.0028
3536.00,0.0028
3535.00,0.0028
3534.00,0.0028
3533.00,0.0028
3532.00,0.0029
3531.00,0.0029
3530.00,0.0029
3529.00,0.0029
3528.00,0.0029
3527.00,0.0030
3526.00,0.0030
3525.00,0.0030
3524.00,0.0031
3523.00,0.0031
3522.00,0.0031
3521.00,0.0031
3520.00,0.0032
3519.00,0.0032
3518.00,0.0033
3517.00,0.0033
3516.00,0.0033
3515.00,0.0033
3514.00,0.0033
3513.00,0.0033
3512.00,0.0033
3511.00,0.0033
3510.00,0.0034
3509.00,0.0034
3508.00,0.0034
3507.00,0.0034
3506.00,0.0033
3505.00,0.0034
3504.00,0.0034
3503.00,0.0034
3502.00,0.0035
3501.00,0.0036
3500.00,0.0036
3499.00,0.0036
3498.00,0.0036
3497.00,0.0037
3496.00,0.0037
3495.00,0.0037
3494.00,0.0038
3493.00,0.0038
3492.00,0.0038
3491.00,0.0038
3490.00,0.0039
3489.00,0.0039
3488.00,0.0039
3487.00,0.0039
3486.00,0.0039
3485.00,0.0039
3484.00,0.0039
3483.00,0.0039
3482.00,0.0040
3481.00,0.0041
3480.00,0.0042
3479.00,0.0042
3478.00,0.0042
3477.00,0.0043
3476.00,0.0043
3475.00,0.0043
3474.00,0.0043
3473.00,0.0044
3472.00,0.0044
3471.00,0.0044
3470.00,0.0044
3469.00,0.0044
3468.00,0.0044
3467.00,0.0045
3466.00,0.0045
3465.00,0.0046
3464.00,0.0046
3463.00,0.0047
3462.00,0.0047
3461.00,0.0047
3460.00,0.0047
3459.00,0.0046
3458.00,0.0046
3457.00,0.0046
3456.00,0.0047
3455.00,0.0048
3454.00,0.0048
3453.00,0.0049
3452.00,0.0049
3451.00,0.0049
3450.00,0.0049
3449.00,0.0049
3448.00,0.0049
3447.00,0.0050
3446.00,0.0050
3445.00,0.0050
3444.00,0.0051
3443.00,0.0051
3442.00,0.0051
3441.00,0.0051
3440.00,0.0052
3439.00,0.0052
3438.00,0.0052
3437.00,0.0053
3436.00,0.0053
3435.00,0.0054
3434.00,0.0054
3433.00,0.0054
3432.00,0.0054
3431.00,0.0055
3430.00,0.0055
3429.00,0.0056
3428.00,0.0057
3427.00,0.0057
3426.00,0.0057
3425.00,0.0057
3424.00,0.0057
3423.00,0.0057
3422.00,0.0058
3421.00,0.0058
3420.00,0.0059
3419.00,0.0060
3418.00,0.0060
3417.00,0.0061
3416.00,0.0061
3415.00,0.0062
3414.00,0.0063
3413.00,0.0063
3412.00,0.0064
3411.00,0.0064
3410.00,0.0065
3409.00,0.0066
3408.00,0.0067
3407.00,0.0068
3406.00,0.0069
3405.00,0.0071
3404.00,0.0072
3403.00,0.0074
3402.00,0.0075
3401.00,0.0076
3400.00,0.0077
3399.00,0.0077
3398.00,0.0078
3397.00,0.0079
3396.00,0.0080
3395.00,0.0080
3394.00,0.0080
3393.00,0.0079
3392.00,0.0078
3391.00,0.0078
3390.00,0.0077
3389.00,0.0076
3388.00,0.0075
3387.00,0.0074
3386.00,0.0073
3385.00,0.0073
3384.00,0.0072
3383.00,0.0071
3382.00,0.0070
3381.00,0.0070
3380.00,0.0070
3379.00,0.0070
3378.00,0.0069
3377.00,0.0069
3376.00,0.0069
3375.00,0.0070
3374.00,0.0070
3373.00,0.0070
3372.00,0.0069
3371.00,0.0069
3370.00,0.0068
3369.00,0.0067
3368.00,0.0067
3367.00,0.0067
3366.00,0.0067
3365.00,0.0067
3364.00,0.0067
3363.00,0.0067
3362.00,0.0067
3361.00,0.0067
3360.00,0.0067
3359.00,0.0067
3358.00,0.0067
3357.00,0.0067
3356.00,0.0067
3355.00,0.0067
3354.00,0.0067
3353.00,0.0068
3352.00,0.0068
3351.00,0.0068
3350.00,0.0068
3349.00,0.0067
3348.00,0.0068
3347.00,0.0068
3346.00,0.0068
3345.00,0.0068
3344.00,0.0068
3343.00,0.0067
3342.00,0.0067
3341.00,0.0067
3340.00,0.0067
3339.00,0.0067
3338.00,0.0067
3337.00,0.0066
3336.00,0.0066
3335.00,0.0066
3334.00,0.0066
3333.00,0.0066
3332.00,0.0066
3331.00,0.0065
3330.00,0.0066
3329.00,0.0066
3328.00,0.0066
3327.00,0.0065
3326.00,0.0065
3325.00,0.0065
3324.00,0.0065
3323.00,0.0066
3322.00,0.0066
3321.00,0.0066
3320.00,0.0066
3319.00,0.0066
3318.00,0.0066
3317.00,0.0066
3316.00,0.0066
3315.00,0.0066
3314.00,0.0066
3313.00,0.0066
3312.00,0.0066
3311.00,0.0066
3310.00,0.0066
3309.00,0.0065
3308.00,0.0065
3307.00,0.0065
3306.00,0.0066
3305.00,0.0066
3304.00,0.0066
3303.00,0.0066
3302.00,0.0066
3301.00,0.0066
3300.00,0.0066
3299.00,0.0066
3298.00,0.0066
3297.00,0.0066
3296.00,0.0065
3295.00,0.0065
3294.00,0.0064
3293.00,0.0064
3292.00,0.0064
3291.00,0.0064
3290.00,0.0064
3289.00,0.0064
3288.00,0.0064
3287.00,0.0064
3286.00,0.0064
3285.00,0.0063
3284.00,0.0063
3283.00,0.0062
3282.00,0.0062
3281.00,0.0062
3280.00,0.0062
3279.00,0.0062
3278.00,0.0062
3277.00,0.0061
3276.00,0.0061
3275.00,0.0060
3274.00,0.0060
3273.00,0.0060
3272.00,0.0060
3271.00,0.0061
3270.00,0.0060
3269.00,0.0060
3268.00,0.0060
3267.00,0.0060
3266.00,0.0059
3265.00,0.0059
3264.00,0.0059
3263.00,0.0059
3262.00,0.0059
3261.00,0.0059
3260.00,0.0059
3259.00,0.0058
3258.00,0.0058
3257.00,0.0057
3256.00,0.0057
3255.00,0.0057
3254.00,0.0057
3253.00,0.0057
3252.00,0.0056
3251.00,0.0056
3250.00,0.0056
3249.00,0.0056
3248.00,0.0056
3247.00,0.0056
3246.00,0.0056
3245.00,0.0056
3244.00,0.0056
3243.00,0.0056
3242.00,0.0056
3241.00,0.0055
3240.00,0.0055
3239.00,0.0055
3238.00,0.0055
3237.00,0.0055
3236.00,0.0055
3235.00,0.0056
3234.00,0.0056
3233.00,0.0056
3232.00,0.0056
3231.00,0.0057
3230.00,0.0057
3229.00,0.0058
3228.00,0.0058
3227.00,0.0059
3226.00,0.0059
3225.00,0.0059
3224.00,0.0060
3223.00,0.0060
3222.00,0.0060
3221.00,0.0060
3220.00,0.0061
3219.00,0.0061
3218.00,0.0061
3217.00,0.0062
3216.00,0.0062
3215.00,0.0062
3214.00,0.0062
3213.00,0.0063
3212.00,0.0063
3211.00,0.0063
3210.00,0.0064
3209.00,0.0064
3208.00,0.0064
3207.00,0.0065
3206.00,0.0066
3205.00,0.0066
3204.00,0.0066
3203.00,0.0066
3202.00,0.0067
3201.00,0.0067
3200.00,0.0067
3199.00,0.0067
3198.00,0.0068
3197.00,0.0068
3196.00,0.0068
3195.00,0.0068
3194.00,0.0068
3193.00,0.0068
3192.00,0.0068
3191.00,0.0068
3190.00,0.0068
3189.00,0.0068
3188.00,0.0068
3187.00,0.0068
3186.00,0.0068
3185.00,0.0068
3184.00,0.0067
3183.00,0.0067
3182.00,0.0067
3181.00,0.0066
3180.00,0.0066
3179.00,0.0065
3178.00,0.0065
3177.00,0.0064
3176.00,0.0064
3175.00,0.0063
3174.00,0.0062
3173.00,0.0061
3172.00,0.0061
3171.00,0.0060
3170.00,0.0059
3169.00,0.0059
3168.00,0.0058
3167.00,0.0058
3166.00,0.0057
3165.00,0.0057
3164.00,0.0056
3163.00,0.0055
3162.00,0.0054
3161.00,0.0054
3160.00,0.0054
3159.00,0.0053
3158.00,0.0053
3157.00,0.0053
3156.00,0.0053
3155.00,0.0052
3154.00,0.0052
3153.00,0.0052
3152.00,0.0052
3151.00,0.0052
3150.00,0.0052
3149.00,0.0052
3148.00,0.0052
3147.00,0.0052
3146.00,0.0052
3145.00,0.0052
3144.00,0.0052
3143.00,0.0051
3142.00,0.0051
3141.00,0.0050
3140.00,0.0050
3139.00,0.0050
3138.00,0.0050
3137.00,0.0049
3136.00,0.0049
3135.00,0.0049
3134.00,0.0048
3133.00,0.0048
3132.00,0.0048
3131.00,0.0047
3130.00,0.0047
3129.00,0.0046
3128.00,0.0046
3127.00,0.0046
3126.00,0.0046
3125.00,0.0045
3124.00,0.0044
3123.00,0.0044
3122.00,0.0043
3121.00,0.0043
3120.00,0.0043
3119.00,0.0043
3118.00,0.0043
3117.00,0.0042
3116.00,0.0042
3115.00,0.0042
3114.00,0.0042
3113.00,0.0042
3112.00,0.0042
3111.00,0.0042
3110.00,0.0041
3109.00,0.0041
3108.00,0.0041
3107.00,0.0041
3106.00,0.0040
3105.00,0.0040
3104.00,0.0040
3103.00,0.0040
3102.00,0.0039
3101.00,0.0039
3100.00,0.0039
3099.00,0.0039
3098.00,0.0039
3097.00,0.0039
3096.00,0.0039
3095.00,0.0039
3094.00,0.0039
3093.00,0.0038
3092.00,0.0038
3091.00,0.0039
3090.00,0.0039
3089.00,0.0038
3088.00,0.0038
3087.00,0.0038
3086.00,0.0037
3085.00,0.0037
3084.00,0.0036
3083.00,0.0037
3082.00,0.0037
3081.00,0.0037
3080.00,0.0037
3079.00,0.0037
3078.00,0.0037
3077.00,0.0037
3076.00,0.0037
3075.00,0.0037
3074.00,0.0037
3073.00,0.0037
3072.00,0.0037
3071.00,0.0037
3070.00,0.0037
3069.00,0.0037
3068.00,0.0038
3067.00,0.0038
3066.00,0.0038
3065.00,0.0038
3064.00,0.0038
3063.00,0.0039
3062.00,0.0039
3061.00,0.0039
3060.00,0.0039
3059.00,0.0039
3058.00,0.0039
3057.00,0.0039
3056.00,0.0039
3055.00,0.0038
3054.00,0.0039
3053.00,0.0039
3052.00,0.0039
3051.00,0.0040
3050.00,0.0040
3049.00,0.0040
3048.00,0.0040
3047.00,0.0040
3046.00,0.0040
3045.00,0.0040
3044.00,0.0040
3043.00,0.0041
3042.00,0.0041
3041.00,0.0040
3040.00,0.0040
3039.00,0.0040
3038.00,0.0041
3037.00,0.0041
3036.00,0.0041
3035.00,0.0042
3034.00,0.0042
3033.00,0.0042
3032.00,0.0043
3031.00,0.0043
3030.00,0.0044
3029.00,0.0044
3028.00,0.0045
3027.00,0.0045
3026.00,0.0046
3025.00,0.0047
3024.00,0.0048
3023.00,0.0049
3022.00,0.0050
3021.00,0.0050
3020.00,0.0051
3019.00,0.0052
3018.00,0.0053
3017.00,0.0054
3016.00,0.0055
3015.00,0.0056
3014.00,0.0057
3013.00,0.0059
3012.00,0.0059
3011.00,0.0060
3010.00,0.0061
3009.00,0.0062
3008.00,0.0063
3007.00,0.0064
3006.00,0.0066
3005.00,0.0067
3004.00,0.0068
3003.00,0.0070
3002.00,0.0071
3001.00,0.0073
3000.00,0.0075
2999.00,0.0078
2998.00,0.0081
2997.00,0.0084
2996.00,0.0087
2995.00,0.0091
2994.00,0.0096
2993.00,0.0101
2992.00,0.0106
2991.00,0.0112
2990.00,0.0119
2989.00,0.0126
2988.00,0.0134
2987.00,0.0143
2986.00,0.0153
2985.00,0.0164
2984.00,0.0176
2983.00,0.0189
2982.00,0.0205
2981.00,0.0224
2980.00,0.0246
2979.00,0.0271
2978.00,0.0299
2977.00,0.0331
2976.00,0.0368
2975.00,0.0408
2974.00,0.0455
2973.00,0.0507
2972.00,0.0566
2971.00,0.0633
2970.00,0.0709
2969.00,0.0793
2968.00,0.0886
2967.00,0.0987
2966.00,0.1096
2965.00,0.1211
2964.00,0.1330
2963.00,0.1450
2962.00,0.1565
2961.00,0.1671
2960.00,0.1761
2959.00,0.1833
2958.00,0.1885
2957.00,0.1920
2956.00,0.1942
2955.00,0.1957
2954.00,0.1969
2953.00,0.1980
2952.00,0.1986
2951.00,0.1982
2950.00,0.1962
2949.00,0.1917
2948.00,0.1844
2947.00,0.1745
2946.00,0.1627
2945.00,0.1500
2944.00,0.1377
2943.00,0.1268
2942.00,0.1179
2941.00,0.1115
2940.00,0.1074
2939.00,0.1056
2938.00,0.1058
2937.00,0.1078
2936.00,0.1114
2935.00,0.1164
2934.00,0.1227
2933.00,0.1300
2932.00,0.1383
2931.00,0.1473
2930.00,0.1567
2929.00,0.1661
2928.00,0.1754
2927.00,0.1844
2926.00,0.1928
2925.00,0.2008
2924.00,0.2084
2923.00,0.2158
2922.00,0.2228
2921.00,0.2293
2920.00,0.2349
2919.00,0.2391
2918.00,0.2414
2917.00,0.2413
2916.00,0.2387
2915.00,0.2340
2914.00,0.2276
2913.00,0.2204
2912.00,0.2130
2911.00,0.2059
2910.00,0.1994
2909.00,0.1936
2908.00,0.1881
2907.00,0.1827
2906.00,0.1772
2905.00,0.1714
2904.00,0.1653
2903.00,0.1588
2902.00,0.1521
2901.00,0.1453
2900.00,0.1387
2899.00,0.1323
2898.00,0.1263
2897.00,0.1207
2896.00,0.1158
2895.00,0.1116
2894.00,0.1081
2893.00,0.1054
2892.00,0.1033
2891.00,0.1018
2890.00,0.1009
2889.00,0.1005
2888.00,0.1005
2887.00,0.1009
2886.00,0.1016
2885.00,0.1027
2884.00,0.1042
2883.00,0.1061
2882.00,0.1084
2881.00,0.1108
2880.00,0.1132
2879.00,0.1152
2878.00,0.1164
2877.00,0.1168
2876.00,0.1164
2875.00,0.1156
2874.00,0.1148
2873.00,0.1145
2872.00,0.1147
2871.00,0.1157
2870.00,0.1172
2869.00,0.1186
2868.00,0.1195
2867.00,0.1190
2866.00,0.1165
2865.00,0.1118
2864.00,0.1052
2863.00,0.0973
2862.00,0.0890
2861.00,0.0813
2860.00,0.0746
2859.00,0.0693
2858.00,0.0654
2857.00,0.0627
2856.00,0.0611
2855.00,0.0605
2854.00,0.0607
2853.00,0.0616
2852.00,0.0632
2851.00,0.0652
2850.00,0.0676
2849.00,0.0703
2848.00,0.0734
2847.00,0.0769
2846.00,0.0812
2845.00,0.0864
2844.00,0.0927
2843.00,0.0998
2842.00,0.1073
2841.00,0.1147
2840.00,0.1211
2839.00,0.1255
2838.00,0.1270
2837.00,0.1249
2836.00,0.1191
2835.00,0.1104
2834.00,0.0996
2833.00,0.0881
2832.00,0.0770
2831.00,0.0671
2830.00,0.0586
2829.00,0.0517
2828.00,0.0461
2827.00,0.0416
2826.00,0.0380
2825.00,0.0350
2824.00,0.0324
2823.00,0.0303
2822.00,0.0285
2821.00,0.0269
2820.00,0.0255
2819.00,0.0243
2818.00,0.0232
2817.00,0.0223
2816.00,0.0215
2815.00,0.0208
2814.00,0.0201
2813.00,0.0196
2812.00,0.0191
2811.00,0.0186
2810.00,0.0180
2809.00,0.0175
2808.00,0.0169
2807.00,0.0163
2806.00,0.0157
2805.00,0.0150
2804.00,0.0144
2803.00,0.0138
2802.00,0.0133
2801.00,0.0128
2800.00,0.0124
2799.00,0.0121
2798.00,0.0118
2797.00,0.0116
2796.00,0.0114
2795.00,0.0112
2794.00,0.0110
2793.00,0.0107
2792.00,0.0103
2791.00,0.0099
2790.00,0.0096
2789.00,0.0092
2788.00,0.0089
2787.00,0.0086
2786.00,0.0083
2785.00,0.0080
2784.00,0.0077
2783.00,0.0074
2782.00,0.0072
2781.00,0.0070
2780.00,0.0068
2779.00,0.0067
2778.00,0.0065
2777.00,0.0064
2776.00,0.0063
2775.00,0.0062
2774.00,0.0061
2773.00,0.0060
2772.00,0.0060
2771.00,0.0059
2770.00,0.0058
2769.00,0.0058
2768.00,0.0058
2767.00,0.0057
2766.00,0.0057
2765.00,0.0057
2764.00,0.0057
2763.00,0.0057
2762.00,0.0056
2761.00,0.0056
2760.00,0.0055
2759.00,0.0055
2758.00,0.0054
2757.00,0.0054
2756.00,0.0053
2755.00,0.0053
2754.00,0.0053
2753.00,0.0053
2752.00,0.0053
2751.00,0.0052
2750.00,0.0052
2749.00,0.0052
2748.00,0.0053
2747.00,0.0053
2746.00,0.0054
2745.00,0.0055
2744.00,0.0055
2743.00,0.0056
2742.00,0.0057
2741.00,0.0058
2740.00,0.0059
2739.00,0.0060
2738.00,0.0061
2737.00,0.0063
2736.00,0.0064
2735.00,0.0066
2734.00,0.0067
2733.00,0.0068
2732.00,0.0070
2731.00,0.0072
2730.00,0.0074
2729.00,0.0076
2728.00,0.0079
2727.00,0.0082
2726.00,0.0085
2725.00,0.0087
2724.00,0.0089
2723.00,0.0090
2722.00,0.0089
2721.00,0.0086
2720.00,0.0083
2719.00,0.0080
2718.00,0.0077
2717.00,0.0074
2716.00,0.0071
2715.00,0.0068
2714.00,0.0066
2713.00,0.0064
2712.00,0.0062
2711.00,0.0060
2710.00,0.0059
2709.00,0.0057
2708.00,0.0055
2707.00,0.0054
2706.00,0.0053
2705.00,0.0052
2704.00,0.0051
2703.00,0.0050
2702.00,0.0049
2701.00,0.0048
2700.00,0.0047
2699.00,0.0046
2698.00,0.0046
2697.00,0.0046
2696.00,0.0046
2695.00,0.0046
2694.00,0.0046
2693.00,0.0047
2692.00,0.0047
2691.00,0.0047
2690.00,0.0047
2689.00,0.0047
2688.00,0.0047
2687.00,0.0046
2686.00,0.0046
2685.00,0.0046
2684.00,0.0047
2683.00,0.0047
2682.00,0.0047
2681.00,0.0047
2680.00,0.0047
2679.00,0.0047
2678.00,0.0047
2677.00,0.0047
2676.00,0.0047
2675.00,0.0047
2674.00,0.0046
2673.00,0.0046
2672.00,0.0045
2671.00,0.0045
2670.00,0.0045
2669.00,0.0045
2668.00,0.0045
2667.00,0.0046
2666.00,0.0046
2665.00,0.0047
2664.00,0.0047
2663.00,0.0047
2662.00,0.0047
2661.00,0.0048
2660.00,0.0048
2659.00,0.0048
2658.00,0.0049
2657.00,0.0049
2656.00,0.0048
2655.00,0.0048
2654.00,0.0047
2653.00,0.0046
2652.00,0.0045
2651.00,0.0044
2650.00,0.0044
2649.00,0.0043
2648.00,0.0043
2647.00,0.0042
2646.00,0.0042
2645.00,0.0042
2644.00,0.0041
2643.00,0.0041
2642.00,0.0040
2641.00,0.0040
2640.00,0.0039
2639.00,0.0039
2638.00,0.0039
2637.00,0.0038
2636.00,0.0038
2635.00,0.0038
2634.00,0.0038
2633.00,0.0038
2632.00,0.0038
2631.00,0.0038
2630.00,0.0039
2629.00,0.0039
2628.00,0.0040
2627.00,0.0040
2626.00,0.0041
2625.00,0.0040
2624.00,0.0040
2623.00,0.0040
2622.00,0.0040
2621.00,0.0040
2620.00,0.0040
2619.00,0.0040
2618.00,0.0040
2617.00,0.0041
2616.00,0.0041
2615.00,0.0041
2614.00,0.0041
2613.00,0.0040
2612.00,0.0039
2611.00,0.0038
2610.00,0.0038
2609.00,0.0037
2608.00,0.0036
2607.00,0.0035
2606.00,0.0034
2605.00,0.0034
2604.00,0.0034
2603.00,0.0033
2602.00,0.0033
2601.00,0.0033
2600.00,0.0033
2599.00,0.0032
2598.00,0.0032
2597.00,0.0032
2596.00,0.0032
2595.00,0.0032
2594.00,0.0032
2593.00,0.0033
2592.00,0.0034
2591.00,0.0034
2590.00,0.0035
2589.00,0.0036
2588.00,0.0037
2587.00,0.0038
2586.00,0.0038
2585.00,0.0038
2584.00,0.0038
2583.00,0.0038
2582.00,0.0037
2581.00,0.0037
2580.00,0.0037
2579.00,0.0038
2578.00,0.0037
2577.00,0.0037
2576.00,0.0036
2575.00,0.0034
2574.00,0.0032
2573.00,0.0031
2572.00,0.0030
2571.00,0.0029
2570.00,0.0029
2569.00,0.0028
2568.00,0.0028
2567.00,0.0027
2566.00,0.0027
2565.00,0.0026
2564.00,0.0026
2563.00,0.0025
2562.00,0.0025
2561.00,0.0024
2560.00,0.0024
2559.00,0.0024
2558.00,0.0024
2557.00,0.0024
2556.00,0.0024
2555.00,0.0023
2554.00,0.0022
2553.00,0.0021
2552.00,0.0020
2551.00,0.0020
2550.00,0.0020
2549.00,0.0020
2548.00,0.0020
2547.00,0.0019
2546.00,0.0019
2545.00,0.0019
2544.00,0.0019
2543.00,0.0019
2542.00,0.0019
2541.00,0.0019
2540.00,0.0018
2539.00,0.0018
2538.00,0.0017
2537.00,0.0017
2536.00,0.0017
2535.00,0.0017
2534.00,0.0017
2533.00,0.0017
2532.00,0.0017
2531.00,0.0016
2530.00,0.0016
2529.00,0.0015
2528.00,0.0015
2527.00,0.0014
2526.00,0.0014
2525.00,0.0014
2524.00,0.0015
2523.00,0.0015
2522.00,0.0015
2521.00,0.0014
2520.00,0.0013
2519.00,0.0013
2518.00,0.0012
2517.00,0.0012
2516.00,0.0012
2515.00,0.0012
2514.00,0.0012
2513.00,0.0011
2512.00,0.0010
2511.00,0.0010
2510.00,0.0010
2509.00,0.0010
2508.00,0.0010
2507.00,0.0011
2506.00,0.0012
2505.00,0.0012
2504.00,0.0011
2503.00,0.0010
2502.00,0.0010
2501.00,0.0010
2500.00,0.0011
2499.00,0.0011
2498.00,0.0011
2497.00,0.0012
2496.00,0.0012
2495.00,0.0011
2494.00,0.0011
2493.00,0.0010
2492.00,0.0010
2491.00,0.0010
2490.00,0.0010
2489.00,0.0010
2488.00,0.0010
2487.00,0.0010
2486.00,0.0010
2485.00,0.0010
2484.00,0.0010
2483.00,0.0011
2482.00,0.0011
2481.00,0.0011
2480.00,0.0010
2479.00,0.0010
2478.00,0.0010
2477.00,0.0009
2476.00,0.0009
2475.00,0.0009
2474.00,0.0009
2473.00,0.0009
2472.00,0.0009
2471.00,0.0009
2470.00,0.0009
2469.00,0.0009
2468.00,0.0009
2467.00,0.0009
2466.00,0.0010
2465.00,0.0010
2464.00,0.0010
2463.00,0.0010
2462.00,0.0010
2461.00,0.0011
2460.00,0.0011
2459.00,0.0010
2458.00,0.0010
2457.00,0.0010
2456.00,0.0010
2455.00,0.0011
2454.00,0.0011
2453.00,0.0011
2452.00,0.0011
2451.00,0.0011
2450.00,0.0011
2449.00,0.0011
2448.00,0.0011
2447.00,0.0012
2446.00,0.0012
2445.00,0.0013
2444.00,0.0013
2443.00,0.0013
2442.00,0.0013
2441.00,0.0013
2440.00,0.0012
2439.00,0.0012
2438.00,0.0013
2437.00,0.0013
2436.00,0.0013
2435.00,0.0013
2434.00,0.0013
2433.00,0.0013
2432.00,0.0013
2431.00,0.0014
2430.00,0.0014
2429.00,0.0014
2428.00,0.0014
2427.00,0.0014
2426.00,0.0013
2425.00,0.0013
2424.00,0.0012
2423.00,0.0012
2422.00,0.0012
2421.00,0.0012
2420.00,0.0012
2419.00,0.0011
2418.00,0.0011
2417.00,0.0011
2416.00,0.0011
2415.00,0.0010
2414.00,0.0010
2413.00,0.0010
2412.00,0.0010
2411.00,0.0010
2410.00,0.0010
2409.00,0.0010
2408.00,0.0010
2407.00,0.0010
2406.00,0.0010
2405.00,0.0011
2404.00,0.0011
2403.00,0.0011
2402.00,0.0010
2401.00,0.0010
2400.00,0.0010
2399.00,0.0009
2398.00,0.0009
2397.00,0.0009
2396.00,0.0009
2395.00,0.0009
2394.00,0.0009
2393.00,0.0009
2392.00,0.0010
2391.00,0.0010
2390.00,0.0010
2389.00,0.0010
2388.00,0.0009
2387.00,0.0008
2386.00,0.0008
2385.00,0.0007
2384.00,0.0007
2383.00,0.0006
2382.00,0.0006
2381.00,0.0005
2380.00,0.0004
2379.00,0.0004
2378.00,0.0003
2377.00,0.0003
2376.00,0.0003
2375.00,0.0004
2374.00,0.0004
2373.00,0.0005
2372.00,0.0005
2371.00,0.0005
2370.00,0.0004
2369.00,0.0004
2368.00,0.0003
2367.00,0.0004
2366.00,0.0004
2365.00,0.0004
2364.00,0.0004
2363.00,0.0004
2362.00,0.0004
2361.00,0.0004
2360.00,0.0004
2359.00,0.0005
2358.00,0.0006
2357.00,0.0006
2356.00,0.0006
2355.00,0.0006
2354.00,0.0005
2353.00,0.0004
2352.00,0.0003
2351.00,0.0004
2350.00,0.0005
2349.00,0.0005
2348.00,0.0005
2347.00,0.0005
2346.00,0.0005
2345.00,0.0005
2344.00,0.0006
2343.00,0.0007
2342.00,0.0007
2341.00,0.0008
2340.00,0.0008
2339.00,0.0008
2338.00,0.0008
2337.00,0.0008
2336.00,0.0008
2335.00,0.0009
2334.00,0.0008
2333.00,0.0008
2332.00,0.0007
2331.00,0.0006
2330.00,0.0006
2329.00,0.0006
2328.00,0.0008
2327.00,0.0012
2326.00,0.0016
2325.00,0.0020
2324.00,0.0022
2323.00,0.0021
2322.00,0.0019
2321.00,0.0017
2320.00,0.0016
2319.00,0.0016
2318.00,0.0015
2317.00,0.0014
2316.00,0.0013
2315.00,0.0012
2314.00,0.0011
2313.00,0.0011
2312.00,0.0011
2311.00,0.0011
2310.00,0.0011
2309.00,0.0011
2308.00,0.0011
2307.00,0.0010
2306.00,0.0011
2305.00,0.0011
2304.00,0.0012
2303.00,0.0012
2302.00,0.0013
2301.00,0.0013
2300.00,0.0013
2299.00,0.0013
2298.00,0.0013
2297.00,0.0014
2296.00,0.0014
2295.00,0.0014
2294.00,0.0015
2293.00,0.0017
2292.00,0.0017
2291.00,0.0017
2290.00,0.0017
2289.00,0.0017
2288.00,0.0018
2287.00,0.0019
2286.00,0.0019
2285.00,0.0019
2284.00,0.0018
2283.00,0.0017
2282.00,0.0016
2281.00,0.0015
2280.00,0.0015
2279.00,0.0014
2278.00,0.0014
2277.00,0.0014
2276.00,0.0015
2275.00,0.0015
2274.00,0.0015
2273.00,0.0015
2272.00,0.0015
2271.00,0.0015
2270.00,0.0014
2269.00,0.0013
2268.00,0.0012
2267.00,0.0012
2266.00,0.0012
2265.00,0.0011
2264.00,0.0011
2263.00,0.0011
2262.00,0.0011
2261.00,0.0011
2260.00,0.0011
2259.00,0.0012
2258.00,0.0013
2257.00,0.0014
2256.00,0.0014
2255.00,0.0014
2254.00,0.0013
2253.00,0.0013
2252.00,0.0013
2251.00,0.0012
2250.00,0.0012
2249.00,0.0011
2248.00,0.0011
2247.00,0.0010
2246.00,0.0010
2245.00,0.0010
2244.00,0.0009
2243.00,0.0009
2242.00,0.0008
2241.00,0.0007
2240.00,0.0007
2239.00,0.0007
2238.00,0.0007
2237.00,0.0007
2236.00,0.0007
2235.00,0.0009
2234.00,0.0010
2233.00,0.0010
2232.00,0.0009
2231.00,0.0008
2230.00,0.0007
2229.00,0.0007
2228.00,0.0007
2227.00,0.0008
2226.00,0.0008
2225.00,0.0008
2224.00,0.0007
2223.00,0.0005
2222.00,0.0004
2221.00,0.0004
2220.00,0.0004
2219.00,0.0005
2218.00,0.0005
2217.00,0.0006
2216.00,0.0006
2215.00,0.0006
2214.00,0.0006
2213.00,0.0006
2212.00,0.0005
2211.00,0.0005
2210.00,0.0004
2209.00,0.0003
2208.00,0.0004
2207.00,0.0005
2206.00,0.0006
2205.00,0.0007
2204.00,0.0006
2203.00,0.0005
2202.00,0.0006
2201.00,0.0007
2200.00,0.0009
2199.00,0.0009
2198.00,0.0009
2197.00,0.0008
2196.00,0.0008
2195.00,0.0008
2194.00,0.0007
2193.00,0.0006
2192.00,0.0005
2191.00,0.0005
2190.00,0.0006
2189.00,0.0009
2188.00,0.0012
2187.00,0.0014
2186.00,0.0016
2185.00,0.0016
2184.00,0.0015
2183.00,0.0013
2182.00,0.0009
2181.00,0.0006
2180.00,0.0005
2179.00,0.0005
2178.00,0.0006
2177.00,0.0005
2176.00,0.0004
2175.00,0.0002
2174.00,0.0000
2173.00,0.0001
2172.00,0.0003
2171.00,0.0005
2170.00,0.0008
2169.00,0.0012
2168.00,0.0015
2167.00,0.0016
2166.00,0.0015
2165.00,0.0014
2164.00,0.0014
2163.00,0.0015
2162.00,0.0016
2161.00,0.0012
2160.00,0.0001
2159.00,-0.0015
2158.00,-0.0028
2157.00,-0.0034
2156.00,-0.0034
2155.00,-0.0029
2154.00,-0.0023
2153.00,-0.0016
2152.00,-0.0011
2151.00,-0.0009
2150.00,-0.0010
2149.00,-0.0013
2148.00,-0.0016
2147.00,-0.0017
2146.00,-0.0016
2145.00,-0.0014
2144.00,-0.0011
2143.00,-0.0010
2142.00,-0.0010
2141.00,-0.0011
2140.00,-0.0012
2139.00,-0.0012
2138.00,-0.0012
2137.00,-0.0012
2136.00,-0.0013
2135.00,-0.0014
2134.00,-0.0014
2133.00,-0.0013
2132.00,-0.0012
2131.00,-0.0012
2130.00,-0.0011
2129.00,-0.0010
2128.00,-0.0008
2127.00,-0.0006
2126.00,-0.0006
2125.00,-0.0005
2124.00,-0.0005
2123.00,-0.0004
2122.00,-0.0004
2121.00,-0.0003
2120.00,-0.0002
2119.00,-0.0001
2118.00,-0.0001
2117.00,0.0000
2116.00,0.0001
2115.00,0.0002
2114.00,0.0003
2113.00,0.0003
2112.00,0.0003
2111.00,0.0003
2110.00,0.0003
2109.00,0.0003
2108.00,0.0003
2107.00,0.0002
2106.00,0.0002
2105.00,0.0002
2104.00,0.0002
2103.00,0.0002
2102.00,0.0002
2101.00,0.0002
2100.00,0.0001
2099.00,0.0000
2098.00,-0.0000
2097.00,-0.0001
2096.00,-0.0001
2095.00,-0.0001
2094.00,-0.0001
2093.00,-0.0000
2092.00,0.0000
2091.00,0.0000
2090.00,0.0000
2089.00,0.0001
2088.00,0.0001
2087.00,0.0002
2086.00,0.0002
2085.00,0.0002
2084.00,0.0002
2083.00,0.0002
2082.00,0.0003
2081.00,0.0003
2080.00,0.0003
2079.00,0.0003
2078.00,0.0003
2077.00,0.0002
2076.00,0.0001
2075.00,0.0000
2074.00,-0.0001
2073.00,-0.0001
2072.00,0.0000
2071.00,0.0001
2070.00,0.0003
2069.00,0.0003
2068.00,0.0002
2067.00,0.0001
2066.00,-0.0001
2065.00,-0.0003
2064.00,-0.0003
2063.00,-0.0003
2062.00,-0.0003
2061.00,-0.0002
2060.00,-0.0001
2059.00,-0.0000
2058.00,0.0000
2057.00,0.0001
2056.00,0.0000
2055.00,0.0000
2054.00,0.0001
2053.00,0.0006
2052.00,0.0011
2051.00,0.0014
2050.00,0.0012
2049.00,0.0008
2048.00,0.0003
2047.00,0.0002
2046.00,0.0003
2045.00,0.0005
2044.00,0.0004
2043.00,0.0002
2042.00,0.0000
2041.00,-0.0001
2040.00,-0.0001
2039.00,-0.0001
2038.00,-0.0001
2037.00,-0.0002
2036.00,-0.0005
2035.00,-0.0008
2034.00,-0.0013
2033.00,-0.0015
2032.00,-0.0015
2031.00,-0.0012
2030.00,-0.0008
2029.00,-0.0004
2028.00,-0.0003
2027.00,-0.0003
2026.00,-0.0004
2025.00,-0.0005
2024.00,-0.0007
2023.00,-0.0008
2022.00,-0.0009
2021.00,-0.0010
2020.00,-0.0011
2019.00,-0.0013
2018.00,-0.0014
2017.00,-0.0014
2016.00,-0.0014
2015.00,-0.0015
2014.00,-0.0015
2013.00,-0.0014
2012.00,-0.0012
2011.00,-0.0010
2010.00,-0.0009
2009.00,-0.0008
2008.00,-0.0009
2007.00,-0.0012
2006.00,-0.0013
2005.00,-0.0012
2004.00,-0.0009
2003.00,-0.0007
2002.00,-0.0007
2001.00,-0.0009
2000.00,-0.0012
1999.00,-0.0015
1998.00,-0.0016
1997.00,-0.0015
1996.00,-0.0013
1995.00,-0.0010
1994.00,-0.0009
1993.00,-0.0009
1992.00,-0.0008
1991.00,-0.0008
1990.00,-0.0006
1989.00,-0.0003
1988.00,-0.0001
1987.00,-0.0001
1986.00,-0.0001
1985.00,-0.0000
1984.00,0.0001
1983.00,0.0002
1982.00,0.0004
1981.00,0.0007
1980.00,0.0009
1979.00,0.0007
1978.00,0.0002
1977.00,-0.0004
1976.00,-0.0008
1975.00,-0.0010
1974.00,-0.0010
1973.00,-0.0010
1972.00,-0.0010
1971.00,-0.0010
1970.00,-0.0008
1969.00,-0.0005
1968.00,-0.0004
1967.00,-0.0005
1966.00,-0.0007
1965.00,-0.0010
1964.00,-0.0013
1963.00,-0.0015
1962.00,-0.0016
1961.00,-0.0016
1960.00,-0.0016
1959.00,-0.0016
1958.00,-0.0016
1957.00,-0.0016
1956.00,-0.0016
1955.00,-0.0016
1954.00,-0.0017
1953.00,-0.0017
1952.00,-0.0018
1951.00,-0.0019
1950.00,-0.0019
1949.00,-0.0017
1948.00,-0.0015
1947.00,-0.0013
1946.00,-0.0013
1945.00,-0.0013
1944.00,-0.0015
1943.00,-0.0015
1942.00,-0.0015
1941.00,-0.0013
1940.00,-0.0011
1939.00,-0.0010
1938.00,-0.0009
1937.00,-0.0009
1936.00,-0.0010
1935.00,-0.0010
1934.00,-0.0010
1933.00,-0.0009
1932.00,-0.0009
1931.00,-0.0008
1930.00,-0.0008
1929.00,-0.0007
1928.00,-0.0007
1927.00,-0.0006
1926.00,-0.0006
1925.00,-0.0006
1924.00,-0.0006
1923.00,-0.0005
1922.00,-0.0005
1921.00,-0.0004
1920.00,-0.0004
1919.00,-0.0004
1918.00,-0.0004
1917.00,-0.0003
1916.00,-0.0003
1915.00,-0.0003
1914.00,-0.0004
1913.00,-0.0003
1912.00,-0.0003
1911.00,-0.0002
1910.00,-0.0002
1909.00,-0.0003
1908.00,-0.0004
1907.00,-0.0005
1906.00,-0.0005
1905.00,-0.0005
1904.00,-0.0004
1903.00,-0.0003
1902.00,-0.0002
1901.00,-0.0001
1900.00,-0.0000
1899.00,-0.0000
1898.00,-0.0000
1897.00,0.0000
1896.00,0.0000
1895.00,0.0000
1894.00,0.0000
1893.00,0.0000
1892.00,0.0001
1891.00,0.0001
1890.00,0.0000
1889.00,-0.0000
1888.00,-0.0001
1887.00,-0.0001
1886.00,-0.0001
1885.00,-0.0001
1884.00,-0.0001
1883.00,-0.0001
1882.00,-0.0001
1881.00,-0.0001
1880.00,-0.0000
1879.00,0.0001
1878.00,0.0001
1877.00,0.0001
1876.00,0.0002
1875.00,0.0001
1874.00,0.0000
1873.00,-0.0001
1872.00,-0.0001
1871.00,-0.0001
1870.00,-0.0001
1869.00,0.0000
1868.00,0.0002
1867.00,0.0002
1866.00,0.0002
1865.00,0.0002
1864.00,0.0001
1863.00,0.0001
1862.00,-0.0000
1861.00,-0.0000
1860.00,-0.0000
1859.00,-0.0000
1858.00,0.0001
1857.00,0.0002
1856.00,0.0002
1855.00,0.0003
1854.00,0.0002
1853.00,0.0002
1852.00,0.0002
1851.00,0.0001
1850.00,0.0000
1849.00,0.0000
1848.00,0.0001
1847.00,0.0001
1846.00,0.0001
1845.00,0.0000
1844.00,0.0000
1843.00,0.0001
1842.00,0.0002
1841.00,0.0002
1840.00,0.0003
1839.00,0.0003
1838.00,0.0003
1837.00,0.0003
1836.00,0.0004
1835.00,0.0003
1834.00,0.0003
1833.00,0.0003
1832.00,0.0004
1831.00,0.0004
1830.00,0.0005
1829.00,0.0005
1828.00,0.0005
1827.00,0.0005
1826.00,0.0006
1825.00,0.0005
1824.00,0.0005
1823.00,0.0004
1822.00,0.0004
1821.00,0.0003
1820.00,0.0002
1819.00,0.0001
1818.00,-0.0001
1817.00,-0.0001
1816.00,-0.0001
1815.00,0.0000
1814.00,0.0002
1813.00,0.0002
1812.00,0.0002
1811.00,0.0002
1810.00,0.0002
1809.00,0.0002
1808.00,0.0003
1807.00,0.0004
1806.00,0.0004
1805.00,0.0004
1804.00,0.0005
1803.00,0.0005
1802.00,0.0004
1801.00,0.0004
1800.00,0.0005
1799.00,0.0005
1798.00,0.0005
1797.00,0.0005
1796.00,0.0005
1795.00,0.0005
1794.00,0.0005
1793.00,0.0006
1792.00,0.0006
1791.00,0.0007
1790.00,0.0007
1789.00,0.0007
1788.00,0.0007
1787.00,0.0007
1786.00,0.0007
1785.00,0.0007
1784.00,0.0007
1783.00,0.0007
1782.00,0.0007
1781.00,0.0008
1780.00,0.0009
1779.00,0.0009
1778.00,0.0009
1777.00,0.0009
1776.00,0.0009
1775.00,0.0008
1774.00,0.0009
1773.00,0.0009
1772.00,0.0010
1771.00,0.0011
1770.00,0.0011
1769.00,0.0012
1768.00,0.0012
1767.00,0.0012
1766.00,0.0012
1765.00,0.0011
1764.00,0.0012
1763.00,0.0012
1762.00,0.0012
1761.00,0.0013
1760.00,0.0013
1759.00,0.0013
1758.00,0.0014
1757.00,0.0015
1756.00,0.0015
1755.00,0.0016
1754.00,0.0016
1753.00,0.0017
1752.00,0.0017
1751.00,0.0018
1750.00,0.0018
1749.00,0.0019
1748.00,0.0020
1747.00,0.0020
1746.00,0.0020
1745.00,0.0020
1744.00,0.0021
1743.00,0.0021
1742.00,0.0022
1741.00,0.0023
1740.00,0.0023
1739.00,0.0023
1738.00,0.0022
1737.00,0.0022
1736.00,0.0021
1735.00,0.0021
1734.00,0.0022
1733.00,0.0023
1732.00,0.0024
1731.00,0.0024
1730.00,0.0024
1729.00,0.0024
1728.00,0.0024
1727.00,0.0023
1726.00,0.0023
1725.00,0.0024
1724.00,0.0024
1723.00,0.0024
1722.00,0.0024
1721.00,0.0024
1720.00,0.0025
1719.00,0.0025
1718.00,0.0025
1717.00,0.0025
1716.00,0.0025
1715.00,0.0025
1714.00,0.0025
1713.00,0.0024
1712.00,0.0024
1711.00,0.0024
1710.00,0.0024
1709.00,0.0025
1708.00,0.0026
1707.00,0.0027
1706.00,0.0028
1705.00,0.0029
1704.00,0.0029
1703.00,0.0029
1702.00,0.0030
1701.00,0.0030
1700.00,0.0030
1699.00,0.0030
1698.00,0.0030
1697.00,0.0031
1696.00,0.0033
1695.00,0.0035
1694.00,0.0035
1693.00,0.0036
1692.00,0.0036
1691.00,0.0037
1690.00,0.0038
1689.00,0.0039
1688.00,0.0039
1687.00,0.0040
1686.00,0.0041
1685.00,0.0043
1684.00,0.0045
1683.00,0.0046
1682.00,0.0046
1681.00,0.0047
1680.00,0.0049
1679.00,0.0050
1678.00,0.0051
1677.00,0.0053
1676.00,0.0054
1675.00,0.0055
1674.00,0.0056
1673.00,0.0057
1672.00,0.0058
1671.00,0.0059
1670.00,0.0060
1669.00,0.0062
1668.00,0.0062
1667.00,0.0063
1666.00,0.0064
1665.00,0.0065
1664.00,0.0067
1663.00,0.0068
1662.00,0.0070
1661.00,0.0071
1660.00,0.0072
1659.00,0.0073
1658.00,0.0074
1657.00,0.0075
1656.00,0.0077
1655.00,0.0079
1654.00,0.0083
1653.00,0.0090
1652.00,0.0096
1651.00,0.0100
1650.00,0.0104
1649.00,0.0109
1648.00,0.0116
1647.00,0.0123
1646.00,0.0126
1645.00,0.0124
1644.00,0.0121
1643.00,0.0116
1642.00,0.0111
1641.00,0.0107
1640.00,0.0103
1639.00,0.0100
1638.00,0.0097
1637.00,0.0096
1636.00,0.0096
1635.00,0.0096
1634.00,0.0096
1633.00,0.0096
1632.00,0.0096
1631.00,0.0095
1630.00,0.0095
1629.00,0.0095
1628.00,0.0094
1627.00,0.0093
1626.00,0.0091
1625.00,0.0090
1624.00,0.0088
1623.00,0.0086
1622.00,0.0084
1621.00,0.0083
1620.00,0.0082
1619.00,0.0081
1618.00,0.0080
1617.00,0.0080
1616.00,0.0079
1615.00,0.0078
1614.00,0.0078
1613.00,0.0078
1612.00,0.0078
1611.00,0.0077
1610.00,0.0077
1609.00,0.0076
1608.00,0.0076
1607.00,0.0077
1606.00,0.0077
1605.00,0.0078
1604.00,0.0079
1603.00,0.0079
1602.00,0.0078
1601.00,0.0078
1600.00,0.0078
1599.00,0.0078
1598.00,0.0077
1597.00,0.0077
1596.00,0.0077
1595.00,0.0077
1594.00,0.0077
1593.00,0.0077
1592.00,0.0078
1591.00,0.0078
1590.00,0.0079
1589.00,0.0079
1588.00,0.0080
1587.00,0.0082
1586.00,0.0084
1585.00,0.0086
1584.00,0.0089
1583.00,0.0091
1582.00,0.0094
1581.00,0.0097
1580.00,0.0099
1579.00,0.0100
1578.00,0.0101
1577.00,0.0101
1576.00,0.0100
1575.00,0.0099
1574.00,0.0096
1573.00,0.0095
1572.00,0.0093
1571.00,0.0090
1570.00,0.0088
1569.00,0.0086
1568.00,0.0085
1567.00,0.0084
1566.00,0.0083
1565.00,0.0082
1564.00,0.0082
1563.00,0.0082
1562.00,0.0083
1561.00,0.0083
1560.00,0.0084
1559.00,0.0083
1558.00,0.0083
1557.00,0.0084
1556.00,0.0085
1555.00,0.0086
1554.00,0.0087
1553.00,0.0088
1552.00,0.0090
1551.00,0.0092
1550.00,0.0093
1549.00,0.0096
1548.00,0.0098
1547.00,0.0101
1546.00,0.0104
1545.00,0.0107
1544.00,0.0111
1543.00,0.0112
1542.00,0.0112
1541.00,0.0112
1540.00,0.0110
1539.00,0.0107
1538.00,0.0104
1537.00,0.0101
1536.00,0.0099
1535.00,0.0096
1534.00,0.0091
1533.00,0.0087
1532.00,0.0084
1531.00,0.0081
1530.00,0.0079
1529.00,0.0077
1528.00,0.0076
1527.00,0.0074
1526.00,0.0072
1525.00,0.0071
1524.00,0.0071
1523.00,0.0070
1522.00,0.0069
1521.00,0.0069
1520.00,0.0069
1519.00,0.0069
1518.00,0.0069
1517.00,0.0068
1516.00,0.0068
1515.00,0.0067
1514.00,0.0067
1513.00,0.0067
1512.00,0.0068
1511.00,0.0068
1510.00,0.0068
1509.00,0.0069
1508.00,0.0071
1507.00,0.0072
1506.00,0.0072
1505.00,0.0073
1504.00,0.0074
1503.00,0.0075
1502.00,0.0076
1501.00,0.0079
1500.00,0.0081
1499.00,0.0083
1498.00,0.0084
1497.00,0.0087
1496.00,0.0091
1495.00,0.0095
1494.00,0.0098
1493.00,0.0101
1492.00,0.0106
1491.00,0.0110
1490.00,0.0113
1489.00,0.0118
1488.00,0.0123
1487.00,0.0128
1486.00,0.0133
1485.00,0.0140
1484.00,0.0147
1483.00,0.0155
1482.00,0.0165
1481.00,0.0177
1480.00,0.0190
1479.00,0.0203
1478.00,0.0218
1477.00,0.0237
1476.00,0.0259
1475.00,0.0284
1474.00,0.0319
1473.00,0.0372
1472.00,0.0439
1471.00,0.0503
1470.00,0.0563
1469.00,0.0625
1468.00,0.0690
1467.00,0.0761
1466.00,0.0842
1465.00,0.0932
1464.00,0.1013
1463.00,0.1071
1462.00,0.1113
1461.00,0.1144
1460.00,0.1169
1459.00,0.1189
1458.00,0.1210
1457.00,0.1233
1456.00,0.1248
1455.00,0.1253
1454.00,0.1253
1453.00,0.1247
1452.00,0.1230
1451.00,0.1199
1450.00,0.1150
1449.00,0.1077
1448.00,0.0980
1447.00,0.0876
1446.00,0.0780
1445.00,0.0698
1444.00,0.0628
1443.00,0.0571
1442.00,0.0528
1441.00,0.0499
1440.00,0.0480
1439.00,0.0471
1438.00,0.0468
1437.00,0.0465
1436.00,0.0450
1435.00,0.0422
1434.00,0.0384
1433.00,0.0340
1432.00,0.0295
1431.00,0.0255
1430.00,0.0225
1429.00,0.0203
1428.00,0.0189
1427.00,0.0181
1426.00,0.0176
1425.00,0.0171
1424.00,0.0167
1423.00,0.0165
1422.00,0.0164
1421.00,0.0164
1420.00,0.0162
1419.00,0.0159
1418.00,0.0156
1417.00,0.0152
1416.00,0.0147
1415.00,0.0144
1414.00,0.0142
1413.00,0.0139
1412.00,0.0137
1411.00,0.0135
1410.00,0.0133
1409.00,0.0131
1408.00,0.0129
1407.00,0.0128
1406.00,0.0128
1405.00,0.0128
1404.00,0.0127
1403.00,0.0127
1402.00,0.0128
1401.00,0.0128
1400.00,0.0129
1399.00,0.0130
1398.00,0.0131
1397.00,0.0132
1396.00,0.0134
1395.00,0.0138
1394.00,0.0143
1393.00,0.0148
1392.00,0.0154
1391.00,0.0163
1390.00,0.0175
1389.00,0.0193
1388.00,0.0220
1387.00,0.0259
1386.00,0.0312
1385.00,0.0377
1384.00,0.0461
1383.00,0.0573
1382.00,0.0718
1381.00,0.0899
1380.00,0.1115
1379.00,0.1353
1378.00,0.1575
1377.00,0.1732
1376.00,0.1778
1375.00,0.1690
1374.00,0.1487
1373.00,0.1242
1372.00,0.1015
1371.00,0.0826
1370.00,0.0672
1369.00,0.0552
1368.00,0.0468
1367.00,0.0415
1366.00,0.0386
1365.00,0.0375
1364.00,0.0377
1363.00,0.0390
1362.00,0.0410
1361.00,0.0432
1360.00,0.0447
1359.00,0.0450
1358.00,0.0439
1357.00,0.0414
1356.00,0.0379
1355.00,0.0338
1354.00,0.0300
1353.00,0.0266
1352.00,0.0239
1351.00,0.0217
1350.00,0.0200
1349.00,0.0186
1348.00,0.0175
1347.00,0.0167
1346.00,0.0160
1345.00,0.0154
1344.00,0.0149
1343.00,0.0145
1342.00,0.0142
1341.00,0.0139
1340.00,0.0136
1339.00,0.0133
1338.00,0.0132
1337.00,0.0131
1336.00,0.0131
1335.00,0.0132
1334.00,0.0135
1333.00,0.0139
1332.00,0.0143
1331.00,0.0146
1330.00,0.0148
1329.00,0.0147
1328.00,0.0144
1327.00,0.0140
1326.00,0.0134
1325.00,0.0128
1324.00,0.0122
1323.00,0.0117
1322.00,0.0113
1321.00,0.0109
1320.00,0.0106
1319.00,0.0104
1318.00,0.0101
1317.00,0.0099
1316.00,0.0098
1315.00,0.0097
1314.00,0.0097
1313.00,0.0098
1312.00,0.0099
1311.00,0.0103
1310.00,0.0108
1309.00,0.0118
1308.00,0.0131
1307.00,0.0146
1306.00,0.0161
1305.00,0.0172
1304.00,0.0176
1303.00,0.0173
1302.00,0.0165
1301.00,0.0157
1300.00,0.0151
1299.00,0.0147
1298.00,0.0145
1297.00,0.0144
1296.00,0.0142
1295.00,0.0139
1294.00,0.0134
1293.00,0.0129
1292.00,0.0123
1291.00,0.0117
1290.00,0.0112
1289.00,0.0107
1288.00,0.0103
1287.00,0.0100
1286.00,0.0097
1285.00,0.0095
1284.00,0.0093
1283.00,0.0091
1282.00,0.0090
1281.00,0.0088
1280.00,0.0088
1279.00,0.0087
1278.00,0.0087
1277.00,0.0087
1276.00,0.0086
1275.00,0.0086
1274.00,0.0086
1273.00,0.0087
1272.00,0.0087
1271.00,0.0087
1270.00,0.0088
1269.00,0.0088
1268.00,0.0090
1267.00,0.0092
1266.00,0.0094
1265.00,0.0096
1264.00,0.0099
1263.00,0.0104
1262.00,0.0109
1261.00,0.0115
1260.00,0.0123
1259.00,0.0132
1258.00,0.0143
1257.00,0.0152
1256.00,0.0156
1255.00,0.0154
1254.00,0.0146
1253.00,0.0136
1252.00,0.0125
1251.00,0.0116
1250.00,0.0110
1249.00,0.0105
1248.00,0.0102
1247.00,0.0101
1246.00,0.0100
1245.00,0.0099
1244.00,0.0098
1243.00,0.0097
1242.00,0.0095
1241.00,0.0094
1240.00,0.0093
1239.00,0.0092
1238.00,0.0091
1237.00,0.0091
1236.00,0.0090
1235.00,0.0090
1234.00,0.0090
1233.00,0.0090
1232.00,0.0089
1231.00,0.0089
1230.00,0.0089
1229.00,0.0090
1228.00,0.0090
1227.00,0.0092
1226.00,0.0093
1225.00,0.0096
1224.00,0.0099
1223.00,0.0103
1222.00,0.0106
1221.00,0.0110
1220.00,0.0113
1219.00,0.0114
1218.00,0.0114
1217.00,0.0112
1216.00,0.0109
1215.00,0.0106
1214.00,0.0103
1213.00,0.0100
1212.00,0.0098
1211.00,0.0095
1210.00,0.0093
1209.00,0.0091
1208.00,0.0090
1207.00,0.0089
1206.00,0.0088
1205.00,0.0087
1204.00,0.0086
1203.00,0.0086
1202.00,0.0085
1201.00,0.0085
1200.00,0.0085
1199.00,0.0086
1198.00,0.0086
1197.00,0.0087
1196.00,0.0087
1195.00,0.0087
1194.00,0.0087
1193.00,0.0087
1192.00,0.0087
1191.00,0.0087
1190.00,0.0087
1189.00,0.0088
1188.00,0.0088
1187.00,0.0089
1186.00,0.0089
1185.00,0.0089
1184.00,0.0091
1183.00,0.0092
1182.00,0.0095
1181.00,0.0098
1180.00,0.0103
1179.00,0.0109
1178.00,0.0118
1177.00,0.0130
1176.00,0.0144
1175.00,0.0164
1174.00,0.0190
1173.00,0.0222
1172.00,0.0261
1171.00,0.0304
1170.00,0.0346
1169.00,0.0381
1168.00,0.0403
1167.00,0.0409
1166.00,0.0401
1165.00,0.0382
1164.00,0.0357
1163.00,0.0331
1162.00,0.0306
1161.00,0.0285
1160.00,0.0268
1159.00,0.0254
1158.00,0.0243
1157.00,0.0235
1156.00,0.0228
1155.00,0.0222
1154.00,0.0218
1153.00,0.0214
1152.00,0.0209
1151.00,0.0202
1150.00,0.0192
1149.00,0.0182
1148.00,0.0171
1147.00,0.0162
1146.00,0.0153
1145.00,0.0145
1144.00,0.0138
1143.00,0.0132
1142.00,0.0126
1141.00,0.0121
1140.00,0.0116
1139.00,0.0112
1138.00,0.0109
1137.00,0.0106
1136.00,0.0103
1135.00,0.0100
1134.00,0.0098
1133.00,0.0097
1132.00,0.0096
1131.00,0.0097
1130.00,0.0098
1129.00,0.0099
1128.00,0.0100
1127.00,0.0102
1126.00,0.0103
1125.00,0.0105
1124.00,0.0106
1123.00,0.0106
1122.00,0.0107
1121.00,0.0107
1120.00,0.0108
1119.00,0.0110
1118.00,0.0111
1117.00,0.0113
1116.00,0.0115
1115.00,0.0117
1114.00,0.0118
1113.00,0.0119
1112.00,0.0121
1111.00,0.0123
1110.00,0.0126
1109.00,0.0129
1108.00,0.0133
1107.00,0.0139
1106.00,0.0146
1105.00,0.0152
1104.00,0.0157
1103.00,0.0160
1102.00,0.0160
1101.00,0.0157
1100.00,0.0153
1099.00,0.0147
1098.00,0.0141
1097.00,0.0134
1096.00,0.0128
1095.00,0.0123
1094.00,0.0119
1093.00,0.0117
1092.00,0.0115
1091.00,0.0113
1090.00,0.0111
1089.00,0.0108
1088.00,0.0106
1087.00,0.0105
1086.00,0.0105
1085.00,0.0105
1084.00,0.0105
1083.00,0.0104
1082.00,0.0104
1081.00,0.0103
1080.00,0.0101
1079.00,0.0100
1078.00,0.0098
1077.00,0.0096
1076.00,0.0095
1075.00,0.0094
1074.00,0.0093
1073.00,0.0093
1072.00,0.0092
1071.00,0.0093
1070.00,0.0093
1069.00,0.0094
1068.00,0.0094
1067.00,0.0093
1066.00,0.0092
1065.00,0.0092
1064.00,0.0092
1063.00,0.0093
1062.00,0.0094
1061.00,0.0094
1060.00,0.0095
1059.00,0.0097
1058.00,0.0098
1057.00,0.0098
1056.00,0.0098
1055.00,0.0098
1054.00,0.0099
1053.00,0.0101
1052.00,0.0104
1051.00,0.0107
1050.00,0.0110
1049.00,0.0114
1048.00,0.0119
1047.00,0.0124
1046.00,0.0127
1045.00,0.0129
1044.00,0.0128
1043.00,0.0125
1042.00,0.0121
1041.00,0.0118
1040.00,0.0115
1039.00,0.0113
1038.00,0.0113
1037.00,0.0114
1036.00,0.0114
1035.00,0.0113
1034.00,0.0112
1033.00,0.0110
1032.00,0.0109
1031.00,0.0108
1030.00,0.0108
1029.00,0.0107
1028.00,0.0107
1027.00,0.0106
1026.00,0.0106
1025.00,0.0106
1024.00,0.0106
1023.00,0.0107
1022.00,0.0108
1021.00,0.0109
1020.00,0.0110
1019.00,0.0111
1018.00,0.0113
1017.00,0.0116
1016.00,0.0119
1015.00,0.0122
1014.00,0.0126
1013.00,0.0131
1012.00,0.0135
1011.00,0.0139
1010.00,0.0144
1009.00,0.0149
1008.00,0.0155
1007.00,0.0164
1006.00,0.0175
1005.00,0.0190
1004.00,0.0210
1003.00,0.0238
1002.00,0.0275
1001.00,0.0321
1000.00,0.0372
999.00,0.0416
998.00,0.0442
997.00,0.0439
996.00,0.0407
995.00,0.0358
994.00,0.0303
993.00,0.0253
992.00,0.0213
991.00,0.0184
990.00,0.0164
989.00,0.0151
988.00,0.0142
987.00,0.0137
986.00,0.0134
985.00,0.0135
984.00,0.0139
983.00,0.0147
982.00,0.0160
981.00,0.0178
980.00,0.0204
979.00,0.0238
978.00,0.0282
977.00,0.0334
976.00,0.0393
975.00,0.0452
974.00,0.0499
973.00,0.0523
972.00,0.0514
971.00,0.0472
970.00,0.0409
969.00,0.0341
968.00,0.0279
967.00,0.0231
966.00,0.0195
965.00,0.0168
964.00,0.0149
963.00,0.0134
962.00,0.0123
961.00,0.0115
960.00,0.0108
959.00,0.0103
958.00,0.0099
957.00,0.0095
956.00,0.0091
955.00,0.0088
954.00,0.0086
953.00,0.0084
952.00,0.0082
951.00,0.0081
950.00,0.0081
949.00,0.0080
948.00,0.0081
947.00,0.0081
946.00,0.0083
945.00,0.0085
944.00,0.0087
943.00,0.0090
942.00,0.0093
941.00,0.0095
940.00,0.0095
939.00,0.0093
938.00,0.0089
937.00,0.0084
936.00,0.0079
935.00,0.0075
934.00,0.0072
933.00,0.0070
932.00,0.0069
931.00,0.0068
930.00,0.0068
929.00,0.0067
928.00,0.0067
927.00,0.0067
926.00,0.0067
925.00,0.0067
924.00,0.0067
923.00,0.0067
922.00,0.0067
921.00,0.0067
920.00,0.0068
919.00,0.0070
918.00,0.0072
917.00,0.0073
916.00,0.0074
915.00,0.0075
914.00,0.0075
913.00,0.0076
912.00,0.0077
911.00,0.0077
910.00,0.0078
909.00,0.0079
908.00,0.0082
907.00,0.0086
906.00,0.0093
905.00,0.0103
904.00,0.0116
903.00,0.0133
902.00,0.0151
901.00,0.0169
900.00,0.0180
899.00,0.0183
898.00,0.0177
897.00,0.0163
896.00,0.0146
895.00,0.0128
894.00,0.0113
893.00,0.0102
892.00,0.0094
891.00,0.0088
890.00,0.0084
889.00,0.0081
888.00,0.0079
887.00,0.0078
886.00,0.0078
885.00,0.0077
884.00,0.0077
883.00,0.0077
882.00,0.0077
881.00,0.0078
880.00,0.0079
879.00,0.0081
878.00,0.0082
877.00,0.0081
876.00,0.0079
875.00,0.0077
874.00,0.0076
873.00,0.0075
872.00,0.0075
871.00,0.0074
870.00,0.0075
869.00,0.0076
868.00,0.0078
867.00,0.0080
866.00,0.0081
865.00,0.0082
864.00,0.0082
863.00,0.0083
862.00,0.0085
861.00,0.0087
860.00,0.0088
859.00,0.0090
858.00,0.0091
857.00,0.0092
856.00,0.0094
855.00,0.0097
854.00,0.0101
853.00,0.0105
852.00,0.0110
851.00,0.0116
850.00,0.0123
849.00,0.0132
848.00,0.0146
847.00,0.0166
846.00,0.0197
845.00,0.0243
844.00,0.0305
843.00,0.0374
842.00,0.0429
841.00,0.0447
840.00,0.0420
839.00,0.0361
838.00,0.0295
837.00,0.0241
836.00,0.0203
835.00,0.0179
834.00,0.0164
833.00,0.0154
832.00,0.0148
831.00,0.0142
830.00,0.0138
829.00,0.0134
828.00,0.0131
827.00,0.0130
826.00,0.0130
825.00,0.0129
824.00,0.0128
823.00,0.0125
822.00,0.0124
821.00,0.0124
820.00,0.0126
819.00,0.0128
818.00,0.0131
817.00,0.0135
816.00,0.0141
815.00,0.0150
814.00,0.0162
813.00,0.0176
812.00,0.0191
811.00,0.0205
810.00,0.0216
809.00,0.0221
808.00,0.0219
807.00,0.0209
806.00,0.0194
805.00,0.0179
804.00,0.0164
803.00,0.0151
802.00,0.0141
801.00,0.0133
800.00,0.0127
799.00,0.0121
798.00,0.0115
797.00,0.0109
796.00,0.0104
795.00,0.0101
794.00,0.0098
793.00,0.0096
792.00,0.0095
791.00,0.0094
790.00,0.0093
789.00,0.0091
788.00,0.0090
787.00,0.0087
786.00,0.0084
785.00,0.0080
784.00,0.0077
783.00,0.0075
782.00,0.0073
781.00,0.0072
780.00,0.0072
779.00,0.0071
778.00,0.0072
777.00,0.0072
776.00,0.0073
775.00,0.0075
774.00,0.0078
773.00,0.0083
772.00,0.0087
771.00,0.0090
770.00,0.0091
769.00,0.0092
768.00,0.0092
767.00,0.0091
766.00,0.0090
765.00,0.0088
764.00,0.0085
763.00,0.0081
762.00,0.0076
761.00,0.0073
760.00,0.0071
759.00,0.0070
758.00,0.0069
757.00,0.0068
756.00,0.0067
755.00,0.0067
754.00,0.0068
753.00,0.0067
752.00,0.0066
751.00,0.0065
750.00,0.0064
749.00,0.0064
748.00,0.0064
747.00,0.0065
746.00,0.0065
745.00,0.0066
744.00,0.0067
743.00,0.0068
742.00,0.0069
741.00,0.0070
740.00,0.0070
739.00,0.0071
738.00,0.0072
737.00,0.0073
736.00,0.0074
735.00,0.0076
734.00,0.0078
733.00,0.0081
732.00,0.0082
731.00,0.0082
730.00,0.0082
729.00,0.0081
728.00,0.0081
727.00,0.0082
726.00,0.0083
725.00,0.0084
724.00,0.0084
723.00,0.0085
722.00,0.0086
721.00,0.0087
720.00,0.0086
719.00,0.0084
718.00,0.0082
717.00,0.0078
716.00,0.0076
715.00,0.0074
714.00,0.0072
713.00,0.0070
712.00,0.0068
711.00,0.0068
710.00,0.0069
709.00,0.0072
708.00,0.0073
707.00,0.0073
706.00,0.0072
705.00,0.0071
704.00,0.0069
703.00,0.0068
702.00,0.0068
701.00,0.0067
700.00,0.0066
699.00,0.0065
698.00,0.0064
697.00,0.0063
696.00,0.0063
695.00,0.0063
694.00,0.0063
693.00,0.0063
692.00,0.0064
691.00,0.0065
690.00,0.0065
689.00,0.0065
688.00,0.0064
687.00,0.0063
686.00,0.0063
685.00,0.0064
684.00,0.0065
683.00,0.0066
682.00,0.0068
681.00,0.0069
680.00,0.0069
679.00,0.0070
678.00,0.0071
677.00,0.0072
676.00,0.0072
675.00,0.0072
674.00,0.0071
673.00,0.0070
672.00,0.0070
671.00,0.0070
670.00,0.0069
669.00,0.0069
668.00,0.0071
667.00,0.0075
666.00,0.0075
665.00,0.0074
664.00,0.0072
663.00,0.0071
662.00,0.0070
661.00,0.0070
660.00,0.0069
659.00,0.0069
658.00,0.0069
657.00,0.0070
656.00,0.0071
655.00,0.0072
654.00,0.0073
653.00,0.0074
652.00,0.0074
651.00,0.0073
650.00,0.0074
649.00,0.0074
648.00,0.0074
647.00,0.0074
646.00,0.0073
645.00,0.0073
644.00,0.0074
643.00,0.0075
642.00,0.0076
641.00,0.0076
640.00,0.0076
639.00,0.0077
638.00,0.0078
637.00,0.0078
636.00,0.0077
635.00,0.0075
634.00,0.0074
633.00,0.0074
632.00,0.0076
631.00,0.0078
630.00,0.0078
629.00,0.0077
628.00,0.0074
627.00,0.0071
626.00,0.0070
625.00,0.0069
624.00,0.0070
623.00,0.0072
622.00,0.0072
621.00,0.0072
620.00,0.0072
619.00,0.0073
618.00,0.0074
617.00,0.0073
616.00,0.0070
615.00,0.0069
614.00,0.0070
613.00,0.0071
612.00,0.0073
611.00,0.0074
610.00,0.0075
609.00,0.0075
608.00,0.0072
607.00,0.0070
606.00,0.0068
605.00,0.0069
604.00,0.0069
603.00,0.0068
602.00,0.0067
601.00,0.0066
600.00,0.0066
599.00,0.0066
598.00,0.0065
597.00,0.0065
596.00,0.0066
595.00,0.0067
594.00,0.0069
593.00,0.0070
592.00,0.0070
591.00,0.0069
590.00,0.0070
589.00,0.0073
588.00,0.0076
587.00,0.0078
586.00,0.0078
585.00,0.0077
584.00,0.0073
583.00,0.0071
582.00,0.0071
581.00,0.0074
580.00,0.0078
579.00,0.0079
578.00,0.0078
577.00,0.0076
576.00,0.0074
575.00,0.0071
574.00,0.0070
573.00,0.0070
572.00,0.0071
571.00,0.0073
570.00,0.0073
569.00,0.0072
568.00,0.0073
567.00,0.0075
566.00,0.0076
565.00,0.0076
564.00,0.0075
563.00,0.0075
562.00,0.0075
561.00,0.0076
560.00,0.0076
559.00,0.0076
558.00,0.0076
557.00,0.0076
556.00,0.0075
555.00,0.0074
554.00,0.0075
553.00,0.0076
552.00,0.0077
551.00,0.0079
550.00,0.0081
549.00,0.0082
548.00,0.0082
547.00,0.0080
546.00,0.0079
545.00,0.0079
544.00,0.0081
543.00,0.0082
542.00,0.0082
541.00,0.0078
540.00,0.0074
539.00,0.0073
538.00,0.0076
537.00,0.0082
536.00,0.0087
535.00,0.0089
534.00,0.0091
533.00,0.0094
532.00,0.0097
531.00,0.0098
530.00,0.0096
529.00,0.0093
528.00,0.0091
527.00,0.0091
526.00,0.0089
525.00,0.0087
524.00,0.0086
523.00,0.0087
522.00,0.0088
521.00,0.0086
520.00,0.0083
519.00,0.0080
518.00,0.0081
517.00,0.0083
516.00,0.0084
515.00,0.0083
514.00,0.0081
513.00,0.0080
512.00,0.0078
511.00,0.0076
510.00,0.0073
509.00,0.0072
508.00,0.0072
507.00,0.0074
506.00,0.0077
505.00,0.0078
504.00,0.0075
503.00,0.0067
502.00,0.0061
501.00,0.0061
500.00,0.0065
499.00,0.0069
498.00,0.0071
497.00,0.0070
496.00,0.0069
495.00,0.0069
494.00,0.0069
493.00,0.0068
492.00,0.0063
491.00,0.0058
490.00,0.0056
489.00,0.0057
488.00,0.0061
487.00,0.0064
486.00,0.0067
485.00,0.0070
484.00,0.0077
483.00,0.0087
482.00,0.0093
481.00,0.0093
480.00,0.0086
479.00,0.0079
478.00,0.0073
477.00,0.0071
476.00,0.0073
475.00,0.0080
474.00,0.0088
473.00,0.0093
472.00,0.0095
471.00,0.0097
470.00,0.0097
469.00,0.0093
468.00,0.0082
467.00,0.0074
466.00,0.0075
465.00,0.0084
464.00,0.0093
463.00,0.0101
462.00,0.0111
461.00,0.0127
460.00,0.0146
459.00,0.0157
458.00,0.0151
457.00,0.0132
456.00,0.0116
455.00,0.0113
454.00,0.0122
453.00,0.0135
452.00,0.0144
451.00,0.0146
450.00,0.0141
