Created as New Dataset,Sample 010 By Administrator Date Wednesday, September 10 2025
cm-1,A
4000.00,0.0009
3999.00,0.0009
3998.00,0.0009
3997.00,0.0009
3996.00,0.0009
3995.00,0.0009
3994.00,0.0009
3993.00,0.0009
3992.00,0.0009
3991.00,0.0009
3990.00,0.0009
3989.00,0.0009
3988.00,0.0009
3987.00,0.0008
3986.00,0.0008
3985.00,0.0007
3984.00,0.0007
3983.00,0.0007
3982.00,0.0007
3981.00,0.0007
3980.00,0.0007
3979.00,0.0008
3978.00,0.0008
3977.00,0.0008
3976.00,0.0008
3975.00,0.0008
3974.00,0.0008
3973.00,0.0007
3972.00,0.0007
3971.00,0.0007
3970.00,0.0007
3969.00,0.0007
3968.00,0.0007
3967.00,0.0006
3966.00,0.0006
3965.00,0.0006
3964.00,0.0006
3963.00,0.0006
3962.00,0.0006
3961.00,0.0006
3960.00,0.0006
3959.00,0.0006
3958.00,0.0006
3957.00,0.0006
3956.00,0.0006
3955.00,0.0006
3954.00,0.0006
3953.00,0.0006
3952.00,0.0006
3951.00,0.0006
3950.00,0.0006
3949.00,0.0006
3948.00,0.0006
3947.00,0.0006
3946.00,0.0006
3945.00,0.0006
3944.00,0.0006
3943.00,0.0006
3942.00,0.0007
3941.00,0.0007
3940.00,0.0007
3939.00,0.0007
3938.00,0.0007
3937.00,0.0008
3936.00,0.0008
3935.00,0.0007
3934.00,0.0007
3933.00,0.0006
3932.00,0.0006
3931.00,0.0006
3930.00,0.0006
3929.00,0.0006
3928.00,0.0006
3927.00,0.0006
3926.00,0.0006
3925.00,0.0006
3924.00,0.0006
3923.00,0.0006
3922.00,0.0006
3921.00,0.0006
3920.00,0.0006
3919.00,0.0006
3918.00,0.0006
3917.00,0.0006
3916.00,0.0006
3915.00,0.0006
3914.00,0.0007
3913.00,0.0007
3912.00,0.0007
3911.00,0.0007
3910.00,0.0007
3909.00,0.0007
3908.00,0.0007
3907.00,0.0006
3906.00,0.0006
3905.00,0.0005
3904.00,0.0004
3903.00,0.0004
3902.00,0.0004
3901.00,0.0004
3900.00,0.0004
3899.00,0.0005
3898.00,0.0006
3897.00,0.0006
3896.00,0.0006
3895.00,0.0007
3894.00,0.0007
3893.00,0.0007
3892.00,0.0007
3891.00,0.0006
3890.00,0.0006
3889.00,0.0006
3888.00,0.0006
3887.00,0.0005
3886.00,0.0005
3885.00,0.0005
3884.00,0.0005
3883.00,0.0005
3882.00,0.0005
3881.00,0.0006
3880.00,0.0006
3879.00,0.0006
3878.00,0.0006
3877.00,0.0006
3876.00,0.0006
3875.00,0.0006
3874.00,0.0006
3873.00,0.0006
3872.00,0.0006
3871.00,0.0006
3870.00,0.0005
3869.00,0.0005
3868.00,0.0005
3867.00,0.0005
3866.00,0.0005
3865.00,0.0005
3864.00,0.0005
3863.00,0.0005
3862.00,0.0005
3861.00,0.0005
3860.00,0.0005
3859.00,0.0005
3858.00,0.0005
3857.00,0.0006
3856.00,0.0006
3855.00,0.0006
3854.00,0.0006
3853.00,0.0005
3852.00,0.0004
3851.00,0.0004
3850.00,0.0004
3849.00,0.0004
3848.00,0.0005
3847.00,0.0005
3846.00,0.0006
3845.00,0.0006
3844.00,0.0006
3843.00,0.0005
3842.00,0.0005
3841.00,0.0005
3840.00,0.0005
3839.00,0.0005
3838.00,0.0005
3837.00,0.0005
3836.00,0.0005
3835.00,0.0005
3834.00,0.0005
3833.00,0.0005
3832.00,0.0006
3831.00,0.0006
3830.00,0.0006
3829.00,0.0006
3828.00,0.0006
3827.00,0.0006
3826.00,0.0006
3825.00,0.0006
3824.00,0.0006
3823.00,0.0006
3822.00,0.0006
3821.00,0.0007
3820.00,0.0007
3819.00,0.0007
3818.00,0.0007
3817.00,0.0006
3816.00,0.0006
3815.00,0.0006
3814.00,0.0006
3813.00,0.0006
3812.00,0.0006
3811.00,0.0006
3810.00,0.0006
3809.00,0.0006
3808.00,0.0006
3807.00,0.0006
3806.00,0.0006
3805.00,0.0006
3804.00,0.0006
3803.00,0.0007
3802.00,0.0007
3801.00,0.0007
3800.00,0.0006
3799.00,0.0006
3798.00,0.0006
3797.00,0.0006
3796.00,0.0006
3795.00,0.0006
3794.00,0.0006
3793.00,0.0006
3792.00,0.0006
3791.00,0.0006
3790.00,0.0006
3789.00,0.0006
3788.00,0.0006
3787.00,0.0006
3786.00,0.0006
3785.00,0.0006
3784.00,0.0006
3783.00,0.0007
3782.00,0.0006
3781.00,0.0006
3780.00,0.0006
3779.00,0.0006
3778.00,0.0005
3777.00,0.0005
3776.00,0.0006
3775.00,0.0006
3774.00,0.0006
3773.00,0.0007
3772.00,0.0007
3771.00,0.0007
3770.00,0.0007
3769.00,0.0007
3768.00,0.0007
3767.00,0.0007
3766.00,0.0007
3765.00,0.0007
3764.00,0.0007
3763.00,0.0007
3762.00,0.0007
3761.00,0.0007
3760.00,0.0007
3759.00,0.0007
3758.00,0.0007
3757.00,0.0007
3756.00,0.0006
3755.00,0.0006
3754.00,0.0005
3753.00,0.0005
3752.00,0.0004
3751.00,0.0004
3750.00,0.0004
3749.00,0.0004
3748.00,0.0004
3747.00,0.0005
3746.00,0.0005
3745.00,0.0006
3744.00,0.0006
3743.00,0.0005
3742.00,0.0005
3741.00,0.0004
3740.00,0.0004
3739.00,0.0004
3738.00,0.0004
3737.00,0.0005
3736.00,0.0005
3735.00,0.0005
3734.00,0.0005
3733.00,0.0005
3732.00,0.0005
3731.00,0.0005
3730.00,0.0005
3729.00,0.0004
3728.00,0.0004
3727.00,0.0004
3726.00,0.0003
3725.00,0.0003
3724.00,0.0003
3723.00,0.0004
3722.00,0.0004
3721.00,0.0005
3720.00,0.0005
3719.00,0.0005
3718.00,0.0005
3717.00,0.0005
3716.00,0.0005
3715.00,0.0005
3714.00,0.0005
3713.00,0.0005
3712.00,0.0005
3711.00,0.0005
3710.00,0.0005
3709.00,0.0005
3708.00,0.0005
3707.00,0.0005
3706.00,0.0005
3705.00,0.0005
3704.00,0.0005
3703.00,0.0005
3702.00,0.0005
3701.00,0.0005
3700.00,0.0005
3699.00,0.0005
3698.00,0.0004
3697.00,0.0004
3696.00,0.0004
3695.00,0.0005
3694.00,0.0005
3693.00,0.0005
3692.00,0.0005
3691.00,0.0005
3690.00,0.0004
3689.00,0.0004
3688.00,0.0004
3687.00,0.0004
3686.00,0.0005
3685.00,0.0005
3684.00,0.0005
3683.00,0.0005
3682.00,0.0005
3681.00,0.0005
3680.00,0.0005
3679.00,0.0005
3678.00,0.0005
3677.00,0.0005
3676.00,0.0005
3675.00,0.0005
3674.00,0.0004
3673.00,0.0004
3672.00,0.0003
3671.00,0.0003
3670.00,0.0003
3669.00,0.0004
3668.00,0.0004
3667.00,0.0004
3666.00,0.0004
3665.00,0.0005
3664.00,0.0005
3663.00,0.0005
3662.00,0.0005
3661.00,0.0005
3660.00,0.0005
3659.00,0.0005
3658.00,0.0005
3657.00,0.0005
3656.00,0.0005
3655.00,0.0004
3654.00,0.0004
3653.00,0.0004
3652.00,0.0004
3651.00,0.0004
3650.00,0.0005
3649.00,0.0006
3648.00,0.0006
3647.00,0.0006
3646.00,0.0005
3645.00,0.0005
3644.00,0.0005
3643.00,0.0005
3642.00,0.0005
3641.00,0.0006
3640.00,0.0006
3639.00,0.0007
3638.00,0.0007
3637.00,0.0007
3636.00,0.0007
3635.00,0.0007
3634.00,0.0007
3633.00,0.0007
3632.00,0.0006
3631.00,0.0006
3630.00,0.0006
3629.00,0.0006
3628.00,0.0006
3627.00,0.0007
3626.00,0.0007
3625.00,0.0007
3624.00,0.0007
3623.00,0.0007
3622.00,0.0008
3621.00,0.0007
3620.00,0.0007
3619.00,0.0008
3618.00,0.0008
3617.00,0.0008
3616.00,0.0008
3615.00,0.0008
3614.00,0.0008
3613.00,0.0008
3612.00,0.0008
3611.00,0.0009
3610.00,0.0009
3609.00,0.0010
3608.00,0.0010
3607.00,0.0010
3606.00,0.0010
3605.00,0.0010
3604.00,0.0010
3603.00,0.0010
3602.00,0.0011
3601.00,0.0011
3600.00,0.0011
3599.00,0.0011
3598.00,0.0011
3597.00,0.0011
3596.00,0.0012
3595.00,0.0012
3594.00,0.0013
3593.00,0.0013
3592.00,0.0013
3591.00,0.0013
3590.00,0.0012
3589.00,0.0012
3588.00,0.0012
3587.00,0.0013
3586.00,0.0013
3585.00,0.0014
3584.00,0.0014
3583.00,0.0014
3582.00,0.0015
3581.00,0.0015
3580.00,0.0015
3579.00,0.0016
3578.00,0.0016
3577.00,0.0016
3576.00,0.0017
3575.00,0.0017
3574.00,0.0017
3573.00,0.0017
3572.00,0.0017
3571.00,0.0017
3570.00,0.0017
3569.00,0.0017
3568.00,0.0018
3567.00,0.0019
3566.00,0.0019
3565.00,0.0020
3564.00,0.0020
3563.00,0.0020
3562.00,0.0020
3561.00,0.0020
3560.00,0.0020
3559.00,0.0021
3558.00,0.0021
3557.00,0.0021
3556.00,0.0021
3555.00,0.0021
3554.00,0.0021
3553.00,0.0021
3552.00,0.0021
3551.00,0.0022
3550.00,0.0022
3549.00,0.0022
3548.00,0.0023
3547.00,0.0024
3546.00,0.0024
3545.00,0.0024
3544.00,0.0025
3543.00,0.0025
3542.00,0.0026
3541.00,0.0026
3540.00,0.0026
3539.00,0.0027
3538.00,0.0027
3537.00,0.0027
3536.00,0.0027
3535.00,0.0028
3534.00,0.0028
3533.00,0.0028
3532.00,0.0028
3531.00,0.0028
3530.00,0.0029
3529.00,0.0029
3528.00,0.0029
3527.00,0.0030
3526.00,0.0030
3525.00,0.0030
3524.00,0.0031
3523.00,0.0031
3522.00,0.0031
3521.00,0.0031
3520.00,0.0031
3519.00,0.0031
3518.00,0.0032
3517.00,0.0032
3516.00,0.0033
3515.00,0.0033
3514.00,0.0034
3513.00,0.0034
3512.00,0.0035
3511.00,0.0035
3510.00,0.0035
3509.00,0.0035
3508.00,0.0035
3507.00,0.0036
3506.00,0.0036
3505.00,0.0036
3504.00,0.0036
3503.00,0.0036
3502.00,0.0036
3501.00,0.0037
3500.00,0.0037
3499.00,0.0037
3498.00,0.0037
3497.00,0.0037
3496.00,0.0038
3495.00,0.0038
3494.00,0.0039
3493.00,0.0039
3492.00,0.0040
3491.00,0.0040
3490.00,0.0041
3489.00,0.0041
3488.00,0.0042
3487.00,0.0042
3486.00,0.0043
3485.00,0.0042
3484.00,0.0042
3483.00,0.0042
3482.00,0.0043
3481.00,0.0043
3480.00,0.0043
3479.00,0.0043
3478.00,0.0043
3477.00,0.0044
3476.00,0.0044
3475.00,0.0044
3474.00,0.0045
3473.00,0.0045
3472.00,0.0045
3471.00,0.0045
3470.00,0.0046
3469.00,0.0046
3468.00,0.0046
3467.00,0.0047
3466.00,0.0047
3465.00,0.0047
3464.00,0.0047
3463.00,0.0047
3462.00,0.0047
3461.00,0.0048
3460.00,0.0049
3459.00,0.0049
3458.00,0.0050
3457.00,0.0050
3456.00,0.0050
3455.00,0.0050
3454.00,0.0050
3453.00,0.0050
3452.00,0.0050
3451.00,0.0051
3450.00,0.0051
3449.00,0.0051
3448.00,0.0052
3447.00,0.0052
3446.00,0.0052
3445.00,0.0052
3444.00,0.0052
3443.00,0.0052
3442.00,0.0052
3441.00,0.0053
3440.00,0.0053
3439.00,0.0054
3438.00,0.0055
3437.00,0.0055
3436.00,0.0054
3435.00,0.0054
3434.00,0.0054
3433.00,0.0054
3432.00,0.0054
3431.00,0.0055
3430.00,0.0055
3429.00,0.0056
3428.00,0.0056
3427.00,0.0056
3426.00,0.0056
3425.00,0.0057
3424.00,0.0057
3423.00,0.0058
3422.00,0.0058
3421.00,0.0058
3420.00,0.0058
3419.00,0.0058
3418.00,0.0058
3417.00,0.0059
3416.00,0.0059
3415.00,0.0059
3414.00,0.0059
3413.00,0.0059
3412.00,0.0059
3411.00,0.0060
3410.00,0.0060
3409.00,0.0060
3408.00,0.0060
3407.00,0.0060
3406.00,0.0061
3405.00,0.0061
3404.00,0.0060
3403.00,0.0060
3402.00,0.0061
3401.00,0.0061
3400.00,0.0061
3399.00,0.0062
3398.00,0.0062
3397.00,0.0062
3396.00,0.0062
3395.00,0.0062
3394.00,0.0062
3393.00,0.0062
3392.00,0.0062
3391.00,0.0063
3390.00,0.0063
3389.00,0.0062
3388.00,0.0062
3387.00,0.0062
3386.00,0.0062
3385.00,0.0062
3384.00,0.0062
3383.00,0.0062
3382.00,0.0063
3381.00,0.0063
3380.00,0.0063
3379.00,0.0063
3378.00,0.0063
3377.00,0.0063
3376.00,0.0063
3375.00,0.0062
3374.00,0.0062
3373.00,0.0063
3372.00,0.0063
3371.00,0.0064
3370.00,0.0064
3369.00,0.0064
3368.00,0.0064
3367.00,0.0064
3366.00,0.0064
3365.00,0.0064
3364.00,0.0064
3363.00,0.0063
3362.00,0.0063
3361.00,0.0063
3360.00,0.0063
3359.00,0.0063
3358.00,0.0063
3357.00,0.0064
3356.00,0.0064
3355.00,0.0064
3354.00,0.0064
3353.00,0.0064
3352.00,0.0065
3351.00,0.0065
3350.00,0.0065
3349.00,0.0065
3348.00,0.0065
3347.00,0.0065
3346.00,0.0065
3345.00,0.0064
3344.00,0.0065
3343.00,0.0065
3342.00,0.0065
3341.00,0.0064
3340.00,0.0064
3339.00,0.0063
3338.00,0.0063
3337.00,0.0063
3336.00,0.0063
3335.00,0.0063
3334.00,0.0063
3333.00,0.0063
3332.00,0.0063
3331.00,0.0064
3330.00,0.0064
3329.00,0.0063
3328.00,0.0063
3327.00,0.0063
3326.00,0.0063
3325.00,0.0063
3324.00,0.0063
3323.00,0.0063
3322.00,0.0063
3321.00,0.0063
3320.00,0.0063
3319.00,0.0062
3318.00,0.0062
3317.00,0.0061
3316.00,0.0061
3315.00,0.0061
3314.00,0.0061
3313.00,0.0061
3312.00,0.0061
3311.00,0.0061
3310.00,0.0061
3309.00,0.0061
3308.00,0.0061
3307.00,0.0061
3306.00,0.0061
3305.00,0.0060
3304.00,0.0060
3303.00,0.0060
3302.00,0.0061
3301.00,0.0060
3300.00,0.0060
3299.00,0.0060
3298.00,0.0060
3297.00,0.0060
3296.00,0.0060
3295.00,0.0060
3294.00,0.0060
3293.00,0.0060
3292.00,0.0060
3291.00,0.0059
3290.00,0.0059
3289.00,0.0059
3288.00,0.0059
3287.00,0.0059
3286.00,0.0059
3285.00,0.0058
3284.00,0.0058
3283.00,0.0058
3282.00,0.0058
3281.00,0.0057
3280.00,0.0057
3279.00,0.0057
3278.00,0.0057
3277.00,0.0057
3276.00,0.0057
3275.00,0.0057
3274.00,0.0057
3273.00,0.0057
3272.00,0.0056
3271.00,0.0055
3270.00,0.0055
3269.00,0.0055
3268.00,0.0055
3267.00,0.0055
3266.00,0.0055
3265.00,0.0056
3264.00,0.0056
3263.00,0.0056
3262.00,0.0055
3261.00,0.0055
3260.00,0.0054
3259.00,0.0053
3258.00,0.0053
3257.00,0.0053
3256.00,0.0053
3255.00,0.0053
3254.00,0.0053
3253.00,0.0052
3252.00,0.0052
3251.00,0.0051
3250.00,0.0051
3249.00,0.0051
3248.00,0.0051
3247.00,0.0051
3246.00,0.0051
3245.00,0.0051
3244.00,0.0051
3243.00,0.0051
3242.00,0.0051
3241.00,0.0051
3240.00,0.0051
3239.00,0.0051
3238.00,0.0050
3237.00,0.0050
3236.00,0.0050
3235.00,0.0050
3234.00,0.0050
3233.00,0.0050
3232.00,0.0050
3231.00,0.0050
3230.00,0.0050
3229.00,0.0050
3228.00,0.0050
3227.00,0.0050
3226.00,0.0050
3225.00,0.0050
3224.00,0.0050
3223.00,0.0051
3222.00,0.0051
3221.00,0.0052
3220.00,0.0052
3219.00,0.0052
3218.00,0.0052
3217.00,0.0052
3216.00,0.0053
3215.00,0.0053
3214.00,0.0053
3213.00,0.0053
3212.00,0.0053
3211.00,0.0053
3210.00,0.0053
3209.00,0.0053
3208.00,0.0054
3207.00,0.0054
3206.00,0.0054
3205.00,0.0054
3204.00,0.0053
3203.00,0.0053
3202.00,0.0053
3201.00,0.0053
3200.00,0.0053
3199.00,0.0053
3198.00,0.0053
3197.00,0.0053
3196.00,0.0053
3195.00,0.0052
3194.00,0.0052
3193.00,0.0052
3192.00,0.0052
3191.00,0.0052
3190.00,0.0052
3189.00,0.0052
3188.00,0.0052
3187.00,0.0052
3186.00,0.0052
3185.00,0.0051
3184.00,0.0051
3183.00,0.0051
3182.00,0.0050
3181.00,0.0050
3180.00,0.0049
3179.00,0.0049
3178.00,0.0049
3177.00,0.0049
3176.00,0.0048
3175.00,0.0048
3174.00,0.0048
3173.00,0.0048
3172.00,0.0048
3171.00,0.0048
3170.00,0.0048
3169.00,0.0048
3168.00,0.0047
3167.00,0.0047
3166.00,0.0047
3165.00,0.0047
3164.00,0.0047
3163.00,0.0047
3162.00,0.0047
3161.00,0.0046
3160.00,0.0046
3159.00,0.0046
3158.00,0.0046
3157.00,0.0046
3156.00,0.0046
3155.00,0.0046
3154.00,0.0046
3153.00,0.0046
3152.00,0.0046
3151.00,0.0045
3150.00,0.0045
3149.00,0.0046
3148.00,0.0046
3147.00,0.0046
3146.00,0.0046
3145.00,0.0046
3144.00,0.0046
3143.00,0.0045
3142.00,0.0045
3141.00,0.0044
3140.00,0.0044
3139.00,0.0043
3138.00,0.0043
3137.00,0.0043
3136.00,0.0043
3135.00,0.0043
3134.00,0.0043
3133.00,0.0043
3132.00,0.0043
3131.00,0.0043
3130.00,0.0042
3129.00,0.0042
3128.00,0.0042
3127.00,0.0041
3126.00,0.0041
3125.00,0.0041
3124.00,0.0041
3123.00,0.0040
3122.00,0.0039
3121.00,0.0039
3120.00,0.0039
3119.00,0.0038
3118.00,0.0038
3117.00,0.0038
3116.00,0.0038
3115.00,0.0038
3114.00,0.0038
3113.00,0.0038
3112.00,0.0037
3111.00,0.0037
3110.00,0.0037
3109.00,0.0037
3108.00,0.0036
3107.00,0.0036
3106.00,0.0036
3105.00,0.0036
3104.00,0.0036
3103.00,0.0036
3102.00,0.0036
3101.00,0.0036
3100.00,0.0035
3099.00,0.0035
3098.00,0.0035
3097.00,0.0035
3096.00,0.0035
3095.00,0.0035
3094.00,0.0035
3093.00,0.0034
3092.00,0.0034
3091.00,0.0034
3090.00,0.0034
3089.00,0.0033
3088.00,0.0033
3087.00,0.0033
3086.00,0.0033
3085.00,0.0033
3084.00,0.0033
3083.00,0.0033
3082.00,0.0033
3081.00,0.0033
3080.00,0.0033
3079.00,0.0033
3078.00,0.0034
3077.00,0.0034
3076.00,0.0034
3075.00,0.0034
3074.00,0.0034
3073.00,0.0034
3072.00,0.0035
3071.00,0.0035
3070.00,0.0035
3069.00,0.0035
3068.00,0.0035
3067.00,0.0035
3066.00,0.0035
3065.00,0.0035
3064.00,0.0036
3063.00,0.0036
3062.00,0.0036
3061.00,0.0036
3060.00,0.0036
3059.00,0.0036
3058.00,0.0036
3057.00,0.0036
3056.00,0.0036
3055.00,0.0036
3054.00,0.0036
3053.00,0.0036
3052.00,0.0036
3051.00,0.0037
3050.00,0.0037
3049.00,0.0037
3048.00,0.0037
3047.00,0.0037
3046.00,0.0037
3045.00,0.0037
3044.00,0.0038
3043.00,0.0038
3042.00,0.0038
3041.00,0.0038
3040.00,0.0039
3039.00,0.0040
3038.00,0.0040
3037.00,0.0041
3036.00,0.0041
3035.00,0.0041
3034.00,0.0041
3033.00,0.0041
3032.00,0.0042
3031.00,0.0042
3030.00,0.0043
3029.00,0.0043
3028.00,0.0044
3027.00,0.0044
3026.00,0.0045
3025.00,0.0046
3024.00,0.0046
3023.00,0.0047
3022.00,0.0047
3021.00,0.0048
3020.00,0.0048
3019.00,0.0049
3018.00,0.0049
3017.00,0.0050
3016.00,0.0051
3015.00,0.0052
3014.00,0.0053
3013.00,0.0054
3012.00,0.0055
3011.00,0.0056
3010.00,0.0057
3009.00,0.0058
3008.00,0.0060
3007.00,0.0061
3006.00,0.0063
3005.00,0.0064
3004.00,0.0066
3003.00,0.0067
3002.00,0.0069
3001.00,0.0072
3000.00,0.0074
2999.00,0.0078
2998.00,0.0081
2997.00,0.0084
2996.00,0.0088
2995.00,0.0091
2994.00,0.0096
2993.00,0.0100
2992.00,0.0105
2991.00,0.0111
2990.00,0.0117
2989.00,0.0124
2988.00,0.0132
2987.00,0.0141
2986.00,0.0150
2985.00,0.0161
2984.00,0.0173
2983.00,0.0186
2982.00,0.0200
2981.00,0.0217
2980.00,0.0237
2979.00,0.0259
2978.00,0.0284
2977.00,0.0312
2976.00,0.0344
2975.00,0.0381
2974.00,0.0423
2973.00,0.0470
2972.00,0.0523
2971.00,0.0582
2970.00,0.0648
2969.00,0.0720
2968.00,0.0798
2967.00,0.0881
2966.00,0.0967
2965.00,0.1053
2964.00,0.1135
2963.00,0.1212
2962.00,0.1279
2961.00,0.1335
2960.00,0.1381
2959.00,0.1421
2958.00,0.1462
2957.00,0.1507
2956.00,0.1563
2955.00,0.1630
2954.00,0.1709
2953.00,0.1793
2952.00,0.1875
2951.00,0.1941
2950.00,0.1980
2949.00,0.1980
2948.00,0.1936
2947.00,0.1851
2946.00,0.1733
2945.00,0.1597
2944.00,0.1460
2943.00,0.1337
2942.00,0.1236
2941.00,0.1162
2940.00,0.1115
2939.00,0.1094
2938.00,0.1095
2937.00,0.1116
2936.00,0.1154
2935.00,0.1209
2934.00,0.1280
2933.00,0.1364
2932.00,0.1460
2931.00,0.1567
2930.00,0.1680
2929.00,0.1797
2928.00,0.1914
2927.00,0.2029
2926.00,0.2139
2925.00,0.2244
2924.00,0.2345
2923.00,0.2445
2922.00,0.2544
2921.00,0.2640
2920.00,0.2727
2919.00,0.2795
2918.00,0.2835
2917.00,0.2837
2916.00,0.2799
2915.00,0.2726
2914.00,0.2627
2913.00,0.2514
2912.00,0.2397
2911.00,0.2286
2910.00,0.2183
2909.00,0.2089
2908.00,0.2002
2907.00,0.1921
2906.00,0.1842
2905.00,0.1763
2904.00,0.1686
2903.00,0.1609
2902.00,0.1535
2901.00,0.1463
2900.00,0.1394
2899.00,0.1330
2898.00,0.1271
2897.00,0.1218
2896.00,0.1171
2895.00,0.1131
2894.00,0.1099
2893.00,0.1075
2892.00,0.1058
2891.00,0.1047
2890.00,0.1042
2889.00,0.1042
2888.00,0.1047
2887.00,0.1055
2886.00,0.1066
2885.00,0.1082
2884.00,0.1103
2883.00,0.1128
2882.00,0.1159
2881.00,0.1193
2880.00,0.1228
2879.00,0.1258
2878.00,0.1280
2877.00,0.1290
2876.00,0.1290
2875.00,0.1282
2874.00,0.1274
2873.00,0.1270
2872.00,0.1274
2871.00,0.1287
2870.00,0.1307
2869.00,0.1330
2868.00,0.1347
2867.00,0.1348
2866.00,0.1326
2865.00,0.1275
2864.00,0.1198
2863.00,0.1104
2862.00,0.1004
2861.00,0.0908
2860.00,0.0825
2859.00,0.0758
2858.00,0.0706
2857.00,0.0669
2856.00,0.0643
2855.00,0.0627
2854.00,0.0619
2853.00,0.0618
2852.00,0.0624
2851.00,0.0635
2850.00,0.0653
2849.00,0.0676
2848.00,0.0707
2847.00,0.0745
2846.00,0.0792
2845.00,0.0848
2844.00,0.0912
2843.00,0.0983
2842.00,0.1056
2841.00,0.1126
2840.00,0.1186
2839.00,0.1225
2838.00,0.1236
2837.00,0.1213
2836.00,0.1155
2835.00,0.1068
2834.00,0.0963
2833.00,0.0851
2832.00,0.0743
2831.00,0.0647
2830.00,0.0566
2829.00,0.0499
2828.00,0.0445
2827.00,0.0401
2826.00,0.0366
2825.00,0.0337
2824.00,0.0313
2823.00,0.0293
2822.00,0.0276
2821.00,0.0261
2820.00,0.0248
2819.00,0.0237
2818.00,0.0228
2817.00,0.0219
2816.00,0.0212
2815.00,0.0205
2814.00,0.0199
2813.00,0.0193
2812.00,0.0188
2811.00,0.0182
2810.00,0.0177
2809.00,0.0171
2808.00,0.0165
2807.00,0.0158
2806.00,0.0151
2805.00,0.0144
2804.00,0.0138
2803.00,0.0132
2802.00,0.0126
2801.00,0.0121
2800.00,0.0117
2799.00,0.0114
2798.00,0.0111
2797.00,0.0109
2796.00,0.0107
2795.00,0.0104
2794.00,0.0101
2793.00,0.0098
2792.00,0.0095
2791.00,0.0092
2790.00,0.0089
2789.00,0.0087
2788.00,0.0084
2787.00,0.0081
2786.00,0.0078
2785.00,0.0076
2784.00,0.0074
2783.00,0.0072
2782.00,0.0070
2781.00,0.0068
2780.00,0.0067
2779.00,0.0065
2778.00,0.0064
2777.00,0.0062
2776.00,0.0061
2775.00,0.0060
2774.00,0.0059
2773.00,0.0059
2772.00,0.0058
2771.00,0.0057
2770.00,0.0057
2769.00,0.0056
2768.00,0.0056
2767.00,0.0056
2766.00,0.0056
2765.00,0.0055
2764.00,0.0055
2763.00,0.0055
2762.00,0.0054
2761.00,0.0054
2760.00,0.0053
2759.00,0.0053
2758.00,0.0052
2757.00,0.0052
2756.00,0.0052
2755.00,0.0052
2754.00,0.0052
2753.00,0.0052
2752.00,0.0051
2751.00,0.0051
2750.00,0.0051
2749.00,0.0051
2748.00,0.0051
2747.00,0.0052
2746.00,0.0052
2745.00,0.0053
2744.00,0.0054
2743.00,0.0055
2742.00,0.0056
2741.00,0.0057
2740.00,0.0058
2739.00,0.0060
2738.00,0.0061
2737.00,0.0063
2736.00,0.0064
2735.00,0.0066
2734.00,0.0067
2733.00,0.0069
2732.00,0.0071
2731.00,0.0073
2730.00,0.0075
2729.00,0.0078
2728.00,0.0081
2727.00,0.0084
2726.00,0.0087
2725.00,0.0090
2724.00,0.0091
2723.00,0.0092
2722.00,0.0091
2721.00,0.0089
2720.00,0.0086
2719.00,0.0082
2718.00,0.0079
2717.00,0.0076
2716.00,0.0072
2715.00,0.0069
2714.00,0.0066
2713.00,0.0064
2712.00,0.0061
2711.00,0.0059
2710.00,0.0057
2709.00,0.0056
2708.00,0.0054
2707.00,0.0053
2706.00,0.0052
2705.00,0.0050
2704.00,0.0049
2703.00,0.0049
2702.00,0.0048
2701.00,0.0047
2700.00,0.0046
2699.00,0.0045
2698.00,0.0044
2697.00,0.0044
2696.00,0.0043
2695.00,0.0043
2694.00,0.0044
2693.00,0.0044
2692.00,0.0044
2691.00,0.0044
2690.00,0.0044
2689.00,0.0044
2688.00,0.0043
2687.00,0.0043
2686.00,0.0043
2685.00,0.0043
2684.00,0.0044
2683.00,0.0044
2682.00,0.0044
2681.00,0.0044
2680.00,0.0044
2679.00,0.0045
2678.00,0.0045
2677.00,0.0045
2676.00,0.0045
2675.00,0.0045
2674.00,0.0045
2673.00,0.0045
2672.00,0.0045
2671.00,0.0044
2670.00,0.0044
2669.00,0.0044
2668.00,0.0044
2667.00,0.0044
2666.00,0.0044
2665.00,0.0045
2664.00,0.0045
2663.00,0.0046
2662.00,0.0047
2661.00,0.0047
2660.00,0.0048
2659.00,0.0048
2658.00,0.0048
2657.00,0.0047
2656.00,0.0047
2655.00,0.0046
2654.00,0.0045
2653.00,0.0045
2652.00,0.0044
2651.00,0.0043
2650.00,0.0043
2649.00,0.0042
2648.00,0.0042
2647.00,0.0042
2646.00,0.0041
2645.00,0.0041
2644.00,0.0040
2643.00,0.0040
2642.00,0.0039
2641.00,0.0038
2640.00,0.0038
2639.00,0.0037
2638.00,0.0037
2637.00,0.0037
2636.00,0.0038
2635.00,0.0038
2634.00,0.0038
2633.00,0.0037
2632.00,0.0037
2631.00,0.0038
2630.00,0.0038
2629.00,0.0038
2628.00,0.0038
2627.00,0.0039
2626.00,0.0039
2625.00,0.0040
2624.00,0.0040
2623.00,0.0040
2622.00,0.0041
2621.00,0.0041
2620.00,0.0041
2619.00,0.0040
2618.00,0.0040
2617.00,0.0040
2616.00,0.0040
2615.00,0.0040
2614.00,0.0039
2613.00,0.0039
2612.00,0.0039
2611.00,0.0038
2610.00,0.0038
2609.00,0.0037
2608.00,0.0036
2607.00,0.0035
2606.00,0.0035
2605.00,0.0034
2604.00,0.0033
2603.00,0.0033
2602.00,0.0033
2601.00,0.0032
2600.00,0.0032
2599.00,0.0032
2598.00,0.0032
2597.00,0.0032
2596.00,0.0033
2595.00,0.0033
2594.00,0.0034
2593.00,0.0034
2592.00,0.0033
2591.00,0.0034
2590.00,0.0034
2589.00,0.0035
2588.00,0.0036
2587.00,0.0038
2586.00,0.0039
2585.00,0.0040
2584.00,0.0040
2583.00,0.0041
2582.00,0.0041
2581.00,0.0040
2580.00,0.0039
2579.00,0.0039
2578.00,0.0038
2577.00,0.0037
2576.00,0.0036
2575.00,0.0035
2574.00,0.0034
2573.00,0.0033
2572.00,0.0032
2571.00,0.0031
2570.00,0.0030
2569.00,0.0029
2568.00,0.0028
2567.00,0.0027
2566.00,0.0027
2565.00,0.0026
2564.00,0.0025
2563.00,0.0024
2562.00,0.0023
2561.00,0.0023
2560.00,0.0022
2559.00,0.0022
2558.00,0.0022
2557.00,0.0021
2556.00,0.0021
2555.00,0.0021
2554.00,0.0021
2553.00,0.0021
2552.00,0.0021
2551.00,0.0021
2550.00,0.0021
2549.00,0.0021
2548.00,0.0020
2547.00,0.0020
2546.00,0.0019
2545.00,0.0018
2544.00,0.0018
2543.00,0.0018
2542.00,0.0018
2541.00,0.0017
2540.00,0.0017
2539.00,0.0016
2538.00,0.0016
2537.00,0.0016
2536.00,0.0016
2535.00,0.0016
2534.00,0.0016
2533.00,0.0016
2532.00,0.0016
2531.00,0.0015
2530.00,0.0014
2529.00,0.0014
2528.00,0.0014
2527.00,0.0014
2526.00,0.0014
2525.00,0.0014
2524.00,0.0014
2523.00,0.0013
2522.00,0.0013
2521.00,0.0013
2520.00,0.0013
2519.00,0.0013
2518.00,0.0013
2517.00,0.0013
2516.00,0.0012
2515.00,0.0011
2514.00,0.0010
2513.00,0.0010
2512.00,0.0010
2511.00,0.0010
2510.00,0.0010
2509.00,0.0010
2508.00,0.0010
2507.00,0.0010
2506.00,0.0010
2505.00,0.0009
2504.00,0.0009
2503.00,0.0009
2502.00,0.0009
2501.00,0.0009
2500.00,0.0009
2499.00,0.0010
2498.00,0.0010
2497.00,0.0010
2496.00,0.0010
2495.00,0.0010
2494.00,0.0011
2493.00,0.0011
2492.00,0.0011
2491.00,0.0011
2490.00,0.0010
2489.00,0.0010
2488.00,0.0010
2487.00,0.0010
2486.00,0.0010
2485.00,0.0010
2484.00,0.0010
2483.00,0.0010
2482.00,0.0009
2481.00,0.0009
2480.00,0.0009
2479.00,0.0009
2478.00,0.0009
2477.00,0.0009
2476.00,0.0009
2475.00,0.0009
2474.00,0.0009
2473.00,0.0009
2472.00,0.0009
2471.00,0.0009
2470.00,0.0009
2469.00,0.0008
2468.00,0.0008
2467.00,0.0008
2466.00,0.0009
2465.00,0.0009
2464.00,0.0010
2463.00,0.0010
2462.00,0.0010
2461.00,0.0009
2460.00,0.0009
2459.00,0.0009
2458.00,0.0009
2457.00,0.0010
2456.00,0.0011
2455.00,0.0012
2454.00,0.0012
2453.00,0.0012
2452.00,0.0012
2451.00,0.0012
2450.00,0.0011
2449.00,0.0011
2448.00,0.0011
2447.00,0.0010
2446.00,0.0010
2445.00,0.0010
2444.00,0.0010
2443.00,0.0011
2442.00,0.0011
2441.00,0.0010
2440.00,0.0009
2439.00,0.0009
2438.00,0.0009
2437.00,0.0010
2436.00,0.0011
2435.00,0.0011
2434.00,0.0012
2433.00,0.0012
2432.00,0.0013
2431.00,0.0013
2430.00,0.0013
2429.00,0.0013
2428.00,0.0013
2427.00,0.0012
2426.00,0.0012
2425.00,0.0011
2424.00,0.0011
2423.00,0.0011
2422.00,0.0010
2421.00,0.0010
2420.00,0.0010
2419.00,0.0011
2418.00,0.0011
2417.00,0.0010
2416.00,0.0010
2415.00,0.0009
2414.00,0.0009
2413.00,0.0009
2412.00,0.0009
2411.00,0.0008
2410.00,0.0008
2409.00,0.0009
2408.00,0.0009
2407.00,0.0009
2406.00,0.0009
2405.00,0.0008
2404.00,0.0007
2403.00,0.0007
2402.00,0.0007
2401.00,0.0007
2400.00,0.0007
2399.00,0.0008
2398.00,0.0008
2397.00,0.0009
2396.00,0.0009
2395.00,0.0009
2394.00,0.0009
2393.00,0.0008
2392.00,0.0007
2391.00,0.0007
2390.00,0.0007
2389.00,0.0007
2388.00,0.0007
2387.00,0.0007
2386.00,0.0006
2385.00,0.0006
2384.00,0.0006
2383.00,0.0006
2382.00,0.0006
2381.00,0.0005
2380.00,0.0005
2379.00,0.0005
2378.00,0.0005
2377.00,0.0005
2376.00,0.0005
2375.00,0.0005
2374.00,0.0005
2373.00,0.0006
2372.00,0.0006
2371.00,0.0006
2370.00,0.0006
2369.00,0.0005
2368.00,0.0005
2367.00,0.0004
2366.00,0.0004
2365.00,0.0004
2364.00,0.0004
2363.00,0.0004
2362.00,0.0005
2361.00,0.0006
2360.00,0.0006
2359.00,0.0007
2358.00,0.0007
2357.00,0.0007
2356.00,0.0008
2355.00,0.0008
2354.00,0.0007
2353.00,0.0006
2352.00,0.0005
2351.00,0.0005
2350.00,0.0006
2349.00,0.0007
2348.00,0.0008
2347.00,0.0008
2346.00,0.0008
2345.00,0.0008
2344.00,0.0007
2343.00,0.0007
2342.00,0.0008
2341.00,0.0008
2340.00,0.0009
2339.00,0.0009
2338.00,0.0008
2337.00,0.0008
2336.00,0.0007
2335.00,0.0007
2334.00,0.0007
2333.00,0.0007
2332.00,0.0007
2331.00,0.0007
2330.00,0.0007
2329.00,0.0008
2328.00,0.0009
2327.00,0.0013
2326.00,0.0017
2325.00,0.0021
2324.00,0.0022
2323.00,0.0021
2322.00,0.0019
2321.00,0.0017
2320.00,0.0015
2319.00,0.0014
2318.00,0.0013
2317.00,0.0012
2316.00,0.0011
2315.00,0.0010
2314.00,0.0010
2313.00,0.0010
2312.00,0.0010
2311.00,0.0010
2310.00,0.0009
2309.00,0.0009
2308.00,0.0008
2307.00,0.0008
2306.00,0.0008
2305.00,0.0009
2304.00,0.0009
2303.00,0.0009
2302.00,0.0010
2301.00,0.0010
2300.00,0.0011
2299.00,0.0011
2298.00,0.0012
2297.00,0.0012
2296.00,0.0012
2295.00,0.0012
2294.00,0.0012
2293.00,0.0013
2292.00,0.0014
2291.00,0.0015
2290.00,0.0016
2289.00,0.0017
2288.00,0.0018
2287.00,0.0018
2286.00,0.0019
2285.00,0.0019
2284.00,0.0018
2283.00,0.0017
2282.00,0.0016
2281.00,0.0014
2280.00,0.0014
2279.00,0.0013
2278.00,0.0013
2277.00,0.0012
2276.00,0.0012
2275.00,0.0012
2274.00,0.0012
2273.00,0.0013
2272.00,0.0014
2271.00,0.0014
2270.00,0.0014
2269.00,0.0013
2268.00,0.0012
2267.00,0.0011
2266.00,0.0011
2265.00,0.0010
2264.00,0.0010
2263.00,0.0010
2262.00,0.0010
2261.00,0.0011
2260.00,0.0012
2259.00,0.0013
2258.00,0.0013
2257.00,0.0013
2256.00,0.0013
2255.00,0.0012
2254.00,0.0010
2253.00,0.0009
2252.00,0.0007
2251.00,0.0006
2250.00,0.0006
2249.00,0.0007
2248.00,0.0008
2247.00,0.0009
2246.00,0.0010
2245.00,0.0011
2244.00,0.0011
2243.00,0.0010
2242.00,0.0010
2241.00,0.0010
2240.00,0.0011
2239.00,0.0012
2238.00,0.0012
2237.00,0.0012
2236.00,0.0012
2235.00,0.0011
2234.00,0.0010
2233.00,0.0010
2232.00,0.0009
2231.00,0.0008
2230.00,0.0008
2229.00,0.0008
2228.00,0.0009
2227.00,0.0008
2226.00,0.0008
2225.00,0.0007
2224.00,0.0007
2223.00,0.0006
2222.00,0.0005
2221.00,0.0005
2220.00,0.0005
2219.00,0.0006
2218.00,0.0006
2217.00,0.0006
2216.00,0.0006
2215.00,0.0006
2214.00,0.0006
2213.00,0.0006
2212.00,0.0007
2211.00,0.0007
2210.00,0.0005
2209.00,0.0003
2208.00,0.0003
2207.00,0.0004
2206.00,0.0006
2205.00,0.0007
2204.00,0.0008
2203.00,0.0007
2202.00,0.0007
2201.00,0.0008
2200.00,0.0009
2199.00,0.0010
2198.00,0.0009
2197.00,0.0008
2196.00,0.0008
2195.00,0.0009
2194.00,0.0012
2193.00,0.0015
2192.00,0.0015
2191.00,0.0013
2190.00,0.0010
2189.00,0.0009
2188.00,0.0009
2187.00,0.0010
2186.00,0.0011
2185.00,0.0011
2184.00,0.0011
2183.00,0.0010
2182.00,0.0007
2181.00,0.0005
2180.00,0.0003
2179.00,0.0003
2178.00,0.0005
2177.00,0.0007
2176.00,0.0008
2175.00,0.0007
2174.00,0.0007
2173.00,0.0008
2172.00,0.0008
2171.00,0.0007
2170.00,0.0007
2169.00,0.0008
2168.00,0.0012
2167.00,0.0015
2166.00,0.0019
2165.00,0.0022
2164.00,0.0024
2163.00,0.0024
2162.00,0.0023
2161.00,0.0017
2160.00,0.0005
2159.00,-0.0008
2158.00,-0.0019
2157.00,-0.0022
2156.00,-0.0022
2155.00,-0.0020
2154.00,-0.0018
2153.00,-0.0017
2152.00,-0.0016
2151.00,-0.0016
2150.00,-0.0018
2149.00,-0.0019
2148.00,-0.0019
2147.00,-0.0018
2146.00,-0.0017
2145.00,-0.0017
2144.00,-0.0017
2143.00,-0.0016
2142.00,-0.0014
2141.00,-0.0012
2140.00,-0.0011
2139.00,-0.0011
2138.00,-0.0012
2137.00,-0.0014
2136.00,-0.0017
2135.00,-0.0019
2134.00,-0.0019
2133.00,-0.0017
2132.00,-0.0014
2131.00,-0.0011
2130.00,-0.0010
2129.00,-0.0009
2128.00,-0.0008
2127.00,-0.0009
2126.00,-0.0009
2125.00,-0.0009
2124.00,-0.0008
2123.00,-0.0006
2122.00,-0.0004
2121.00,-0.0003
2120.00,-0.0002
2119.00,-0.0002
2118.00,-0.0000
2117.00,0.0001
2116.00,0.0002
2115.00,0.0003
2114.00,0.0002
2113.00,0.0002
2112.00,0.0003
2111.00,0.0005
2110.00,0.0006
2109.00,0.0007
2108.00,0.0006
2107.00,0.0005
2106.00,0.0004
2105.00,0.0003
2104.00,0.0002
2103.00,0.0002
2102.00,0.0001
2101.00,0.0001
2100.00,0.0001
2099.00,0.0000
2098.00,0.0000
2097.00,0.0000
2096.00,-0.0000
2095.00,-0.0001
2094.00,-0.0002
2093.00,-0.0002
2092.00,-0.0000
2091.00,0.0002
2090.00,0.0003
2089.00,0.0004
2088.00,0.0004
2087.00,0.0003
2086.00,0.0001
2085.00,0.0000
2084.00,-0.0000
2083.00,0.0000
2082.00,0.0001
2081.00,0.0002
2080.00,0.0004
2079.00,0.0004
2078.00,0.0004
2077.00,0.0003
2076.00,0.0002
2075.00,0.0002
2074.00,0.0003
2073.00,0.0004
2072.00,0.0004
2071.00,0.0003
2070.00,0.0001
2069.00,-0.0001
2068.00,-0.0003
2067.00,-0.0003
2066.00,-0.0002
2065.00,-0.0002
2064.00,-0.0001
2063.00,-0.0001
2062.00,-0.0000
2061.00,0.0000
2060.00,0.0001
2059.00,0.0001
2058.00,0.0002
2057.00,0.0002
2056.00,0.0003
2055.00,0.0003
2054.00,0.0004
2053.00,0.0007
2052.00,0.0010
2051.00,0.0010
2050.00,0.0007
2049.00,0.0003
2048.00,0.0000
2047.00,-0.0001
2046.00,-0.0001
2045.00,0.0000
2044.00,0.0001
2043.00,0.0001
2042.00,0.0001
2041.00,0.0001
2040.00,0.0001
2039.00,0.0002
2038.00,0.0002
2037.00,0.0002
2036.00,0.0003
2035.00,0.0003
2034.00,0.0004
2033.00,0.0005
2032.00,0.0004
2031.00,0.0001
2030.00,-0.0002
2029.00,-0.0004
2028.00,-0.0005
2027.00,-0.0006
2026.00,-0.0008
2025.00,-0.0011
2024.00,-0.0013
2023.00,-0.0014
2022.00,-0.0014
2021.00,-0.0013
2020.00,-0.0012
2019.00,-0.0011
2018.00,-0.0009
2017.00,-0.0006
2016.00,-0.0004
2015.00,-0.0005
2014.00,-0.0008
2013.00,-0.0012
2012.00,-0.0014
2011.00,-0.0014
2010.00,-0.0014
2009.00,-0.0015
2008.00,-0.0017
2007.00,-0.0019
2006.00,-0.0020
2005.00,-0.0018
2004.00,-0.0016
2003.00,-0.0013
2002.00,-0.0012
2001.00,-0.0011
2000.00,-0.0010
1999.00,-0.0009
1998.00,-0.0007
1997.00,-0.0007
1996.00,-0.0006
1995.00,-0.0007
1994.00,-0.0008
1993.00,-0.0010
1992.00,-0.0011
1991.00,-0.0010
1990.00,-0.0007
1989.00,-0.0004
1988.00,-0.0000
1987.00,0.0002
1986.00,0.0002
1985.00,0.0002
1984.00,0.0002
1983.00,0.0003
1982.00,0.0006
1981.00,0.0009
1980.00,0.0010
1979.00,0.0007
1978.00,0.0001
1977.00,-0.0007
1976.00,-0.0012
1975.00,-0.0014
1974.00,-0.0013
1973.00,-0.0013
1972.00,-0.0013
1971.00,-0.0013
1970.00,-0.0014
1969.00,-0.0014
1968.00,-0.0013
1967.00,-0.0010
1966.00,-0.0009
1965.00,-0.0009
1964.00,-0.0012
1963.00,-0.0014
1962.00,-0.0016
1961.00,-0.0016
1960.00,-0.0016
1959.00,-0.0016
1958.00,-0.0017
1957.00,-0.0016
1956.00,-0.0016
1955.00,-0.0015
1954.00,-0.0014
1953.00,-0.0013
1952.00,-0.0013
1951.00,-0.0014
1950.00,-0.0016
1949.00,-0.0018
1948.00,-0.0019
1947.00,-0.0020
1946.00,-0.0020
1945.00,-0.0020
1944.00,-0.0019
1943.00,-0.0017
1942.00,-0.0016
1941.00,-0.0014
1940.00,-0.0013
1939.00,-0.0013
1938.00,-0.0013
1937.00,-0.0013
1936.00,-0.0012
1935.00,-0.0010
1934.00,-0.0009
1933.00,-0.0009
1932.00,-0.0009
1931.00,-0.0009
1930.00,-0.0010
1929.00,-0.0009
1928.00,-0.0008
1927.00,-0.0008
1926.00,-0.0008
1925.00,-0.0008
1924.00,-0.0008
1923.00,-0.0008
1922.00,-0.0006
1921.00,-0.0004
1920.00,-0.0003
1919.00,-0.0003
1918.00,-0.0003
1917.00,-0.0003
1916.00,-0.0002
1915.00,-0.0002
1914.00,-0.0001
1913.00,-0.0002
1912.00,-0.0003
1911.00,-0.0004
1910.00,-0.0003
1909.00,-0.0003
1908.00,-0.0002
1907.00,-0.0003
1906.00,-0.0003
1905.00,-0.0004
1904.00,-0.0004
1903.00,-0.0003
1902.00,-0.0003
1901.00,-0.0002
1900.00,-0.0001
1899.00,0.0000
1898.00,0.0001
1897.00,0.0002
1896.00,0.0002
1895.00,0.0000
1894.00,-0.0001
1893.00,-0.0001
1892.00,-0.0001
1891.00,-0.0001
1890.00,-0.0001
1889.00,-0.0001
1888.00,-0.0001
1887.00,-0.0001
1886.00,-0.0000
1885.00,0.0000
1884.00,-0.0000
1883.00,-0.0002
1882.00,-0.0003
1881.00,-0.0003
1880.00,-0.0003
1879.00,-0.0002
1878.00,-0.0002
1877.00,-0.0002
1876.00,-0.0002
1875.00,-0.0002
1874.00,-0.0002
1873.00,-0.0001
1872.00,-0.0000
1871.00,-0.0000
1870.00,-0.0001
1869.00,-0.0001
1868.00,-0.0001
1867.00,-0.0001
1866.00,-0.0001
1865.00,-0.0001
1864.00,-0.0001
1863.00,-0.0001
1862.00,-0.0001
1861.00,-0.0001
1860.00,-0.0001
1859.00,-0.0001
1858.00,-0.0001
1857.00,-0.0000
1856.00,0.0000
1855.00,0.0000
1854.00,0.0000
1853.00,0.0000
1852.00,0.0001
1851.00,0.0001
1850.00,0.0001
1849.00,0.0002
1848.00,0.0002
1847.00,0.0002
1846.00,0.0001
1845.00,-0.0000
1844.00,-0.0001
1843.00,-0.0000
1842.00,0.0000
1841.00,0.0001
1840.00,0.0001
1839.00,0.0002
1838.00,0.0002
1837.00,0.0003
1836.00,0.0003
1835.00,0.0003
1834.00,0.0003
1833.00,0.0003
1832.00,0.0003
1831.00,0.0002
1830.00,0.0002
1829.00,0.0001
1828.00,0.0002
1827.00,0.0002
1826.00,0.0002
1825.00,0.0002
1824.00,0.0003
1823.00,0.0003
1822.00,0.0002
1821.00,0.0002
1820.00,0.0002
1819.00,0.0001
1818.00,0.0000
1817.00,-0.0000
1816.00,0.0000
1815.00,0.0001
1814.00,0.0002
1813.00,0.0002
1812.00,0.0003
1811.00,0.0003
1810.00,0.0003
1809.00,0.0003
1808.00,0.0003
1807.00,0.0003
1806.00,0.0003
1805.00,0.0003
1804.00,0.0003
1803.00,0.0003
1802.00,0.0004
1801.00,0.0004
1800.00,0.0003
1799.00,0.0003
1798.00,0.0003
1797.00,0.0003
1796.00,0.0004
1795.00,0.0005
1794.00,0.0005
1793.00,0.0006
1792.00,0.0006
1791.00,0.0006
1790.00,0.0006
1789.00,0.0007
1788.00,0.0007
1787.00,0.0007
1786.00,0.0007
1785.00,0.0007
1784.00,0.0007
1783.00,0.0007
1782.00,0.0008
1781.00,0.0008
1780.00,0.0008
1779.00,0.0007
1778.00,0.0007
1777.00,0.0007
1776.00,0.0007
1775.00,0.0007
1774.00,0.0006
1773.00,0.0006
1772.00,0.0007
1771.00,0.0008
1770.00,0.0008
1769.00,0.0009
1768.00,0.0010
1767.00,0.0010
1766.00,0.0011
1765.00,0.0011
1764.00,0.0011
1763.00,0.0011
1762.00,0.0010
1761.00,0.0011
1760.00,0.0011
1759.00,0.0011
1758.00,0.0012
1757.00,0.0012
1756.00,0.0012
1755.00,0.0012
1754.00,0.0012
1753.00,0.0013
1752.00,0.0013
1751.00,0.0014
1750.00,0.0014
1749.00,0.0015
1748.00,0.0016
1747.00,0.0016
1746.00,0.0017
1745.00,0.0019
1744.00,0.0020
1743.00,0.0021
1742.00,0.0021
1741.00,0.0021
1740.00,0.0022
1739.00,0.0022
1738.00,0.0022
1737.00,0.0022
1736.00,0.0022
1735.00,0.0022
1734.00,0.0022
1733.00,0.0022
1732.00,0.0023
1731.00,0.0023
1730.00,0.0023
1729.00,0.0023
1728.00,0.0023
1727.00,0.0022
1726.00,0.0022
1725.00,0.0022
1724.00,0.0022
1723.00,0.0022
1722.00,0.0022
1721.00,0.0022
1720.00,0.0022
1719.00,0.0022
1718.00,0.0022
1717.00,0.0022
1716.00,0.0023
1715.00,0.0023
1714.00,0.0023
1713.00,0.0023
1712.00,0.0024
1711.00,0.0024
1710.00,0.0024
1709.00,0.0024
1708.00,0.0024
1707.00,0.0024
1706.00,0.0024
1705.00,0.0024
1704.00,0.0025
1703.00,0.0026
1702.00,0.0026
1701.00,0.0027
1700.00,0.0027
1699.00,0.0028
1698.00,0.0028
1697.00,0.0029
1696.00,0.0029
1695.00,0.0030
1694.00,0.0030
1693.00,0.0031
1692.00,0.0032
1691.00,0.0033
1690.00,0.0034
1689.00,0.0034
1688.00,0.0035
1687.00,0.0036
1686.00,0.0036
1685.00,0.0037
1684.00,0.0038
1683.00,0.0038
1682.00,0.0039
1681.00,0.0040
1680.00,0.0041
1679.00,0.0042
1678.00,0.0043
1677.00,0.0044
1676.00,0.0044
1675.00,0.0045
1674.00,0.0046
1673.00,0.0047
1672.00,0.0048
1671.00,0.0050
1670.00,0.0051
1669.00,0.0052
1668.00,0.0052
1667.00,0.0052
1666.00,0.0052
1665.00,0.0052
1664.00,0.0053
1663.00,0.0054
1662.00,0.0054
1661.00,0.0056
1660.00,0.0057
1659.00,0.0058
1658.00,0.0058
1657.00,0.0059
1656.00,0.0060
1655.00,0.0061
1654.00,0.0061
1653.00,0.0062
1652.00,0.0063
1651.00,0.0064
1650.00,0.0064
1649.00,0.0065
1648.00,0.0066
1647.00,0.0067
1646.00,0.0068
1645.00,0.0068
1644.00,0.0069
1643.00,0.0069
1642.00,0.0070
1641.00,0.0070
1640.00,0.0070
1639.00,0.0071
1638.00,0.0071
1637.00,0.0071
1636.00,0.0071
1635.00,0.0071
1634.00,0.0071
1633.00,0.0071
1632.00,0.0071
1631.00,0.0071
1630.00,0.0071
1629.00,0.0071
1628.00,0.0071
1627.00,0.0071
1626.00,0.0071
1625.00,0.0071
1624.00,0.0071
1623.00,0.0070
1622.00,0.0070
1621.00,0.0070
1620.00,0.0070
1619.00,0.0070
1618.00,0.0070
1617.00,0.0069
1616.00,0.0068
1615.00,0.0067
1614.00,0.0067
1613.00,0.0067
1612.00,0.0068
1611.00,0.0069
1610.00,0.0069
1609.00,0.0068
1608.00,0.0068
1607.00,0.0068
1606.00,0.0067
1605.00,0.0067
1604.00,0.0068
1603.00,0.0068
1602.00,0.0067
1601.00,0.0067
1600.00,0.0067
1599.00,0.0066
1598.00,0.0067
1597.00,0.0067
1596.00,0.0067
1595.00,0.0066
1594.00,0.0065
1593.00,0.0065
1592.00,0.0065
1591.00,0.0065
1590.00,0.0065
1589.00,0.0065
1588.00,0.0066
1587.00,0.0066
1586.00,0.0067
1585.00,0.0067
1584.00,0.0067
1583.00,0.0068
1582.00,0.0070
1581.00,0.0072
1580.00,0.0074
1579.00,0.0075
1578.00,0.0076
1577.00,0.0076
1576.00,0.0076
1575.00,0.0075
1574.00,0.0074
1573.00,0.0073
1572.00,0.0072
1571.00,0.0071
1570.00,0.0069
1569.00,0.0068
1568.00,0.0068
1567.00,0.0068
1566.00,0.0068
1565.00,0.0068
1564.00,0.0069
1563.00,0.0069
1562.00,0.0069
1561.00,0.0069
1560.00,0.0070
1559.00,0.0071
1558.00,0.0072
1557.00,0.0072
1556.00,0.0073
1555.00,0.0074
1554.00,0.0075
1553.00,0.0076
1552.00,0.0077
1551.00,0.0078
1550.00,0.0078
1549.00,0.0079
1548.00,0.0079
1547.00,0.0080
1546.00,0.0081
1545.00,0.0083
1544.00,0.0085
1543.00,0.0086
1542.00,0.0086
1541.00,0.0086
1540.00,0.0086
1539.00,0.0084
1538.00,0.0082
1537.00,0.0080
1536.00,0.0078
1535.00,0.0076
1534.00,0.0073
1533.00,0.0071
1532.00,0.0069
1531.00,0.0067
1530.00,0.0066
1529.00,0.0065
1528.00,0.0063
1527.00,0.0062
1526.00,0.0061
1525.00,0.0060
1524.00,0.0061
1523.00,0.0061
1522.00,0.0060
1521.00,0.0060
1520.00,0.0060
1519.00,0.0060
1518.00,0.0060
1517.00,0.0060
1516.00,0.0060
1515.00,0.0060
1514.00,0.0060
1513.00,0.0061
1512.00,0.0062
1511.00,0.0062
1510.00,0.0062
1509.00,0.0063
1508.00,0.0064
1507.00,0.0065
1506.00,0.0066
1505.00,0.0067
1504.00,0.0069
1503.00,0.0070
1502.00,0.0072
1501.00,0.0075
1500.00,0.0078
1499.00,0.0081
1498.00,0.0083
1497.00,0.0087
1496.00,0.0091
1495.00,0.0095
1494.00,0.0098
1493.00,0.0102
1492.00,0.0106
1491.00,0.0109
1490.00,0.0113
1489.00,0.0119
1488.00,0.0124
1487.00,0.0129
1486.00,0.0133
1485.00,0.0139
1484.00,0.0146
1483.00,0.0153
1482.00,0.0162
1481.00,0.0173
1480.00,0.0184
1479.00,0.0196
1478.00,0.0210
1477.00,0.0229
1476.00,0.0251
1475.00,0.0277
1474.00,0.0312
1473.00,0.0366
1472.00,0.0432
1471.00,0.0498
1470.00,0.0561
1469.00,0.0628
1468.00,0.0700
1467.00,0.0780
1466.00,0.0872
1465.00,0.0973
1464.00,0.1063
1463.00,0.1128
1462.00,0.1172
1461.00,0.1203
1460.00,0.1226
1459.00,0.1241
1458.00,0.1253
1457.00,0.1261
1456.00,0.1261
1455.00,0.1254
1454.00,0.1244
1453.00,0.1228
1452.00,0.1200
1451.00,0.1159
1450.00,0.1102
1449.00,0.1024
1448.00,0.0927
1447.00,0.0825
1446.00,0.0735
1445.00,0.0658
1444.00,0.0593
1443.00,0.0541
1442.00,0.0504
1441.00,0.0479
1440.00,0.0465
1439.00,0.0460
1438.00,0.0464
1437.00,0.0468
1436.00,0.0459
1435.00,0.0432
1434.00,0.0392
1433.00,0.0343
1432.00,0.0293
1431.00,0.0249
1430.00,0.0216
1429.00,0.0192
1428.00,0.0175
1427.00,0.0165
1426.00,0.0159
1425.00,0.0153
1424.00,0.0148
1423.00,0.0145
1422.00,0.0144
1421.00,0.0141
1420.00,0.0138
1419.00,0.0136
1418.00,0.0135
1417.00,0.0133
1416.00,0.0131
1415.00,0.0129
1414.00,0.0128
1413.00,0.0127
1412.00,0.0125
1411.00,0.0124
1410.00,0.0124
1409.00,0.0123
1408.00,0.0122
1407.00,0.0122
1406.00,0.0122
1405.00,0.0122
1404.00,0.0122
1403.00,0.0123
1402.00,0.0125
1401.00,0.0125
1400.00,0.0126
1399.00,0.0127
1398.00,0.0130
1397.00,0.0132
1396.00,0.0134
1395.00,0.0138
1394.00,0.0143
1393.00,0.0149
1392.00,0.0155
1391.00,0.0164
1390.00,0.0177
1389.00,0.0194
1388.00,0.0220
1387.00,0.0260
1386.00,0.0311
1385.00,0.0376
1384.00,0.0462
1383.00,0.0577
1382.00,0.0731
1381.00,0.0929
1380.00,0.1181
1379.00,0.1477
1378.00,0.1776
1377.00,0.2014
1376.00,0.2120
1375.00,0.2045
1374.00,0.1805
1373.00,0.1497
1372.00,0.1206
1371.00,0.0964
1370.00,0.0769
1369.00,0.0621
1368.00,0.0519
1367.00,0.0456
1366.00,0.0423
1365.00,0.0410
1364.00,0.0413
1363.00,0.0429
1362.00,0.0454
1361.00,0.0481
1360.00,0.0501
1359.00,0.0506
1358.00,0.0493
1357.00,0.0463
1356.00,0.0420
1355.00,0.0371
1354.00,0.0325
1353.00,0.0286
1352.00,0.0254
1351.00,0.0230
1350.00,0.0210
1349.00,0.0193
1348.00,0.0180
1347.00,0.0170
1346.00,0.0161
1345.00,0.0154
1344.00,0.0149
1343.00,0.0145
1342.00,0.0141
1341.00,0.0138
1340.00,0.0135
1339.00,0.0133
1338.00,0.0131
1337.00,0.0130
1336.00,0.0131
1335.00,0.0133
1334.00,0.0137
1333.00,0.0141
1332.00,0.0146
1331.00,0.0150
1330.00,0.0151
1329.00,0.0149
1328.00,0.0145
1327.00,0.0139
1326.00,0.0132
1325.00,0.0125
1324.00,0.0118
1323.00,0.0113
1322.00,0.0108
1321.00,0.0104
1320.00,0.0101
1319.00,0.0098
1318.00,0.0096
1317.00,0.0094
1316.00,0.0092
1315.00,0.0091
1314.00,0.0091
1313.00,0.0091
1312.00,0.0092
1311.00,0.0094
1310.00,0.0098
1309.00,0.0103
1308.00,0.0111
1307.00,0.0121
1306.00,0.0130
1305.00,0.0137
1304.00,0.0140
1303.00,0.0139
1302.00,0.0137
1301.00,0.0134
1300.00,0.0134
1299.00,0.0134
1298.00,0.0136
1297.00,0.0137
1296.00,0.0137
1295.00,0.0135
1294.00,0.0131
1293.00,0.0125
1292.00,0.0119
1291.00,0.0113
1290.00,0.0107
1289.00,0.0103
1288.00,0.0099
1287.00,0.0096
1286.00,0.0094
1285.00,0.0092
1284.00,0.0091
1283.00,0.0089
1282.00,0.0087
1281.00,0.0086
1280.00,0.0085
1279.00,0.0084
1278.00,0.0083
1277.00,0.0083
1276.00,0.0082
1275.00,0.0082
1274.00,0.0082
1273.00,0.0083
1272.00,0.0083
1271.00,0.0084
1270.00,0.0085
1269.00,0.0086
1268.00,0.0088
1267.00,0.0090
1266.00,0.0093
1265.00,0.0096
1264.00,0.0100
1263.00,0.0103
1262.00,0.0107
1261.00,0.0110
1260.00,0.0114
1259.00,0.0118
1258.00,0.0123
1257.00,0.0127
1256.00,0.0129
1255.00,0.0127
1254.00,0.0122
1253.00,0.0116
1252.00,0.0109
1251.00,0.0103
1250.00,0.0099
1249.00,0.0096
1248.00,0.0094
1247.00,0.0093
1246.00,0.0091
1245.00,0.0090
1244.00,0.0089
1243.00,0.0088
1242.00,0.0088
1241.00,0.0088
1240.00,0.0088
1239.00,0.0087
1238.00,0.0086
1237.00,0.0085
1236.00,0.0083
1235.00,0.0083
1234.00,0.0083
1233.00,0.0083
1232.00,0.0083
1231.00,0.0084
1230.00,0.0085
1229.00,0.0085
1228.00,0.0087
1227.00,0.0089
1226.00,0.0092
1225.00,0.0095
1224.00,0.0098
1223.00,0.0101
1222.00,0.0105
1221.00,0.0108
1220.00,0.0110
1219.00,0.0111
1218.00,0.0111
1217.00,0.0109
1216.00,0.0107
1215.00,0.0104
1214.00,0.0100
1213.00,0.0096
1212.00,0.0093
1211.00,0.0090
1210.00,0.0088
1209.00,0.0086
1208.00,0.0084
1207.00,0.0083
1206.00,0.0082
1205.00,0.0081
1204.00,0.0081
1203.00,0.0080
1202.00,0.0080
1201.00,0.0080
1200.00,0.0080
1199.00,0.0079
1198.00,0.0078
1197.00,0.0078
1196.00,0.0078
1195.00,0.0078
1194.00,0.0078
1193.00,0.0078
1192.00,0.0078
1191.00,0.0077
1190.00,0.0077
1189.00,0.0077
1188.00,0.0076
1187.00,0.0076
1186.00,0.0077
1185.00,0.0077
1184.00,0.0078
1183.00,0.0080
1182.00,0.0082
1181.00,0.0084
1180.00,0.0087
1179.00,0.0091
1178.00,0.0097
1177.00,0.0105
1176.00,0.0115
1175.00,0.0129
1174.00,0.0147
1173.00,0.0168
1172.00,0.0193
1171.00,0.0221
1170.00,0.0247
1169.00,0.0269
1168.00,0.0282
1167.00,0.0285
1166.00,0.0280
1165.00,0.0269
1164.00,0.0257
1163.00,0.0244
1162.00,0.0232
1161.00,0.0222
1160.00,0.0214
1159.00,0.0208
1158.00,0.0204
1157.00,0.0202
1156.00,0.0200
1155.00,0.0198
1154.00,0.0198
1153.00,0.0196
1152.00,0.0194
1151.00,0.0189
1150.00,0.0182
1149.00,0.0173
1148.00,0.0164
1147.00,0.0155
1146.00,0.0148
1145.00,0.0141
1144.00,0.0134
1143.00,0.0128
1142.00,0.0122
1141.00,0.0116
1140.00,0.0111
1139.00,0.0107
1138.00,0.0105
1137.00,0.0103
1136.00,0.0101
1135.00,0.0099
1134.00,0.0097
1133.00,0.0096
1132.00,0.0096
1131.00,0.0096
1130.00,0.0097
1129.00,0.0099
1128.00,0.0101
1127.00,0.0103
1126.00,0.0104
1125.00,0.0105
1124.00,0.0106
1123.00,0.0107
1122.00,0.0108
1121.00,0.0109
1120.00,0.0109
1119.00,0.0110
1118.00,0.0111
1117.00,0.0112
1116.00,0.0113
1115.00,0.0115
1114.00,0.0117
1113.00,0.0120
1112.00,0.0122
1111.00,0.0125
1110.00,0.0129
1109.00,0.0134
1108.00,0.0140
1107.00,0.0147
1106.00,0.0156
1105.00,0.0164
1104.00,0.0170
1103.00,0.0173
1102.00,0.0173
1101.00,0.0170
1100.00,0.0164
1099.00,0.0157
1098.00,0.0150
1097.00,0.0144
1096.00,0.0138
1095.00,0.0133
1094.00,0.0128
1093.00,0.0125
1092.00,0.0121
1091.00,0.0118
1090.00,0.0115
1089.00,0.0113
1088.00,0.0111
1087.00,0.0109
1086.00,0.0109
1085.00,0.0107
1084.00,0.0105
1083.00,0.0102
1082.00,0.0101
1081.00,0.0100
1080.00,0.0100
1079.00,0.0099
1078.00,0.0098
1077.00,0.0096
1076.00,0.0095
1075.00,0.0094
1074.00,0.0094
1073.00,0.0093
1072.00,0.0093
1071.00,0.0093
1070.00,0.0093
1069.00,0.0094
1068.00,0.0094
1067.00,0.0094
1066.00,0.0093
1065.00,0.0092
1064.00,0.0091
1063.00,0.0091
1062.00,0.0091
1061.00,0.0092
1060.00,0.0093
1059.00,0.0094
1058.00,0.0095
1057.00,0.0094
1056.00,0.0094
1055.00,0.0093
1054.00,0.0093
1053.00,0.0093
1052.00,0.0094
1051.00,0.0096
1050.00,0.0098
1049.00,0.0100
1048.00,0.0102
1047.00,0.0104
1046.00,0.0106
1045.00,0.0108
1044.00,0.0108
1043.00,0.0108
1042.00,0.0107
1041.00,0.0106
1040.00,0.0105
1039.00,0.0105
1038.00,0.0106
1037.00,0.0107
1036.00,0.0107
1035.00,0.0106
1034.00,0.0105
1033.00,0.0104
1032.00,0.0104
1031.00,0.0104
1030.00,0.0103
1029.00,0.0102
1028.00,0.0101
1027.00,0.0101
1026.00,0.0101
1025.00,0.0102
1024.00,0.0102
1023.00,0.0101
1022.00,0.0101
1021.00,0.0100
1020.00,0.0100
1019.00,0.0101
1018.00,0.0103
1017.00,0.0105
1016.00,0.0107
1015.00,0.0110
1014.00,0.0113
1013.00,0.0116
1012.00,0.0119
1011.00,0.0121
1010.00,0.0123
1009.00,0.0125
1008.00,0.0128
1007.00,0.0132
1006.00,0.0139
1005.00,0.0149
1004.00,0.0163
1003.00,0.0181
1002.00,0.0205
1001.00,0.0233
1000.00,0.0261
999.00,0.0284
998.00,0.0295
997.00,0.0288
996.00,0.0266
995.00,0.0235
994.00,0.0201
993.00,0.0172
992.00,0.0149
991.00,0.0132
990.00,0.0121
989.00,0.0114
988.00,0.0109
987.00,0.0107
986.00,0.0107
985.00,0.0109
984.00,0.0113
983.00,0.0120
982.00,0.0130
981.00,0.0144
980.00,0.0165
979.00,0.0192
978.00,0.0225
977.00,0.0262
976.00,0.0301
975.00,0.0336
974.00,0.0361
973.00,0.0369
972.00,0.0355
971.00,0.0322
970.00,0.0280
969.00,0.0236
968.00,0.0198
967.00,0.0169
966.00,0.0148
965.00,0.0132
964.00,0.0120
963.00,0.0111
962.00,0.0104
961.00,0.0099
960.00,0.0096
959.00,0.0093
958.00,0.0091
957.00,0.0089
956.00,0.0086
955.00,0.0084
954.00,0.0082
953.00,0.0080
952.00,0.0080
951.00,0.0079
950.00,0.0079
949.00,0.0079
948.00,0.0080
947.00,0.0082
946.00,0.0085
945.00,0.0088
944.00,0.0091
943.00,0.0094
942.00,0.0097
941.00,0.0099
940.00,0.0099
939.00,0.0096
938.00,0.0092
937.00,0.0087
936.00,0.0082
935.00,0.0079
934.00,0.0076
933.00,0.0074
932.00,0.0072
931.00,0.0071
930.00,0.0070
929.00,0.0069
928.00,0.0068
927.00,0.0067
926.00,0.0067
925.00,0.0067
924.00,0.0068
923.00,0.0069
922.00,0.0070
921.00,0.0071
920.00,0.0072
919.00,0.0073
918.00,0.0074
917.00,0.0075
916.00,0.0075
915.00,0.0076
914.00,0.0076
913.00,0.0077
912.00,0.0077
911.00,0.0078
910.00,0.0080
909.00,0.0083
908.00,0.0087
907.00,0.0092
906.00,0.0100
905.00,0.0111
904.00,0.0126
903.00,0.0146
902.00,0.0168
901.00,0.0189
900.00,0.0203
899.00,0.0207
898.00,0.0199
897.00,0.0182
896.00,0.0160
895.00,0.0139
894.00,0.0121
893.00,0.0107
892.00,0.0097
891.00,0.0090
890.00,0.0085
889.00,0.0082
888.00,0.0080
887.00,0.0079
886.00,0.0078
885.00,0.0077
884.00,0.0077
883.00,0.0077
882.00,0.0076
881.00,0.0076
880.00,0.0076
879.00,0.0077
878.00,0.0078
877.00,0.0079
876.00,0.0079
875.00,0.0079
874.00,0.0079
873.00,0.0078
872.00,0.0078
871.00,0.0077
870.00,0.0077
869.00,0.0076
868.00,0.0077
867.00,0.0079
866.00,0.0080
865.00,0.0082
864.00,0.0083
863.00,0.0084
862.00,0.0086
861.00,0.0087
860.00,0.0089
859.00,0.0090
858.00,0.0091
857.00,0.0091
856.00,0.0091
855.00,0.0091
854.00,0.0092
853.00,0.0094
852.00,0.0097
851.00,0.0100
850.00,0.0104
849.00,0.0110
848.00,0.0118
847.00,0.0130
846.00,0.0147
845.00,0.0173
844.00,0.0208
843.00,0.0245
842.00,0.0272
841.00,0.0278
840.00,0.0259
839.00,0.0226
838.00,0.0190
837.00,0.0162
836.00,0.0145
835.00,0.0135
834.00,0.0129
833.00,0.0124
832.00,0.0121
831.00,0.0118
830.00,0.0115
829.00,0.0113
828.00,0.0112
827.00,0.0111
826.00,0.0112
825.00,0.0113
824.00,0.0113
823.00,0.0113
822.00,0.0112
821.00,0.0112
820.00,0.0114
819.00,0.0118
818.00,0.0123
817.00,0.0131
816.00,0.0140
815.00,0.0152
814.00,0.0167
813.00,0.0185
812.00,0.0206
811.00,0.0226
810.00,0.0241
809.00,0.0248
808.00,0.0244
807.00,0.0233
806.00,0.0215
805.00,0.0196
804.00,0.0178
803.00,0.0164
802.00,0.0152
801.00,0.0142
800.00,0.0133
799.00,0.0126
798.00,0.0120
797.00,0.0116
796.00,0.0114
795.00,0.0111
794.00,0.0108
793.00,0.0105
792.00,0.0102
791.00,0.0100
790.00,0.0097
789.00,0.0094
788.00,0.0091
787.00,0.0088
786.00,0.0084
785.00,0.0082
784.00,0.0081
783.00,0.0080
782.00,0.0078
781.00,0.0075
780.00,0.0071
779.00,0.0068
778.00,0.0068
777.00,0.0069
776.00,0.0071
775.00,0.0072
774.00,0.0072
773.00,0.0073
772.00,0.0074
771.00,0.0075
770.00,0.0078
769.00,0.0079
768.00,0.0080
767.00,0.0080
766.00,0.0078
765.00,0.0077
764.00,0.0075
763.00,0.0073
762.00,0.0070
761.00,0.0068
760.00,0.0067
759.00,0.0066
758.00,0.0066
757.00,0.0065
756.00,0.0063
755.00,0.0061
754.00,0.0058
753.00,0.0056
752.00,0.0056
751.00,0.0056
750.00,0.0057
749.00,0.0057
748.00,0.0058
747.00,0.0060
746.00,0.0061
745.00,0.0062
744.00,0.0062
743.00,0.0061
742.00,0.0061
741.00,0.0061
740.00,0.0063
739.00,0.0066
738.00,0.0069
737.00,0.0071
736.00,0.0073
735.00,0.0074
734.00,0.0076
733.00,0.0078
732.00,0.0080
731.00,0.0081
730.00,0.0082
729.00,0.0081
728.00,0.0080
727.00,0.0078
726.00,0.0078
725.00,0.0079
724.00,0.0080
723.00,0.0080
722.00,0.0080
721.00,0.0078
720.00,0.0077
719.00,0.0075
718.00,0.0073
717.00,0.0071
716.00,0.0069
715.00,0.0067
714.00,0.0067
713.00,0.0067
712.00,0.0068
711.00,0.0069
710.00,0.0070
709.00,0.0070
708.00,0.0071
707.00,0.0072
706.00,0.0073
705.00,0.0073
704.00,0.0072
703.00,0.0069
702.00,0.0066
701.00,0.0063
700.00,0.0062
699.00,0.0062
698.00,0.0062
697.00,0.0061
696.00,0.0060
695.00,0.0059
694.00,0.0059
693.00,0.0060
692.00,0.0060
691.00,0.0061
690.00,0.0062
689.00,0.0062
688.00,0.0063
687.00,0.0064
686.00,0.0063
685.00,0.0061
684.00,0.0058
683.00,0.0056
682.00,0.0057
681.00,0.0059
680.00,0.0063
679.00,0.0065
678.00,0.0065
677.00,0.0064
676.00,0.0063
675.00,0.0063
674.00,0.0063
673.00,0.0065
672.00,0.0067
671.00,0.0071
670.00,0.0074
669.00,0.0074
668.00,0.0072
667.00,0.0070
666.00,0.0067
665.00,0.0064
664.00,0.0062
663.00,0.0061
662.00,0.0061
661.00,0.0062
660.00,0.0062
659.00,0.0061
658.00,0.0060
657.00,0.0059
656.00,0.0060
655.00,0.0061
654.00,0.0062
653.00,0.0062
652.00,0.0061
651.00,0.0060
650.00,0.0060
649.00,0.0061
648.00,0.0063
647.00,0.0065
646.00,0.0066
645.00,0.0065
644.00,0.0063
643.00,0.0063
642.00,0.0063
641.00,0.0064
640.00,0.0063
639.00,0.0062
638.00,0.0061
637.00,0.0060
636.00,0.0060
635.00,0.0061
634.00,0.0063
633.00,0.0063
632.00,0.0062
631.00,0.0060
630.00,0.0059
629.00,0.0058
628.00,0.0058
627.00,0.0060
626.00,0.0063
625.00,0.0066
624.00,0.0067
623.00,0.0066
622.00,0.0064
621.00,0.0061
620.00,0.0060
619.00,0.0061
618.00,0.0063
617.00,0.0066
616.00,0.0067
615.00,0.0067
614.00,0.0066
613.00,0.0064
612.00,0.0064
611.00,0.0065
610.00,0.0067
609.00,0.0070
608.00,0.0071
607.00,0.0071
606.00,0.0069
605.00,0.0068
604.00,0.0068
603.00,0.0068
602.00,0.0067
601.00,0.0066
600.00,0.0064
599.00,0.0064
598.00,0.0063
597.00,0.0062
596.00,0.0062
595.00,0.0064
594.00,0.0068
593.00,0.0072
592.00,0.0073
591.00,0.0071
590.00,0.0067
589.00,0.0064
588.00,0.0063
587.00,0.0065
586.00,0.0067
585.00,0.0068
584.00,0.0068
583.00,0.0067
582.00,0.0066
581.00,0.0065
580.00,0.0063
579.00,0.0063
578.00,0.0063
577.00,0.0065
576.00,0.0068
575.00,0.0069
574.00,0.0069
573.00,0.0068
572.00,0.0068
571.00,0.0069
570.00,0.0072
569.00,0.0075
568.00,0.0077
567.00,0.0078
566.00,0.0077
565.00,0.0075
564.00,0.0072
563.00,0.0068
562.00,0.0066
561.00,0.0064
560.00,0.0066
559.00,0.0071
558.00,0.0075
557.00,0.0076
556.00,0.0073
555.00,0.0069
554.00,0.0067
553.00,0.0067
552.00,0.0067
551.00,0.0068
550.00,0.0068
549.00,0.0069
548.00,0.0071
547.00,0.0072
546.00,0.0072
545.00,0.0072
544.00,0.0071
543.00,0.0070
542.00,0.0069
541.00,0.0069
540.00,0.0072
539.00,0.0078
538.00,0.0086
537.00,0.0090
536.00,0.0089
535.00,0.0085
534.00,0.0082
533.00,0.0083
532.00,0.0086
531.00,0.0091
530.00,0.0095
529.00,0.0098
528.00,0.0098
527.00,0.0098
526.00,0.0098
525.00,0.0098
524.00,0.0097
523.00,0.0093
522.00,0.0086
521.00,0.0079
520.00,0.0073
519.00,0.0071
518.00,0.0069
517.00,0.0068
516.00,0.0067
515.00,0.0067
514.00,0.0070
513.00,0.0074
512.00,0.0080
511.00,0.0083
510.00,0.0083
509.00,0.0079
508.00,0.0076
507.00,0.0073
506.00,0.0073
505.00,0.0072
504.00,0.0070
503.00,0.0066
502.00,0.0060
501.00,0.0054
500.00,0.0052
499.00,0.0058
498.00,0.0067
497.00,0.0078
496.00,0.0085
495.00,0.0088
494.00,0.0085
493.00,0.0080
492.00,0.0074
491.00,0.0070
490.00,0.0070
489.00,0.0072
488.00,0.0076
487.00,0.0082
486.00,0.0085
485.00,0.0086
484.00,0.0085
483.00,0.0083
482.00,0.0079
481.00,0.0071
480.00,0.0063
479.00,0.0060
478.00,0.0064
477.00,0.0074
476.00,0.0082
475.00,0.0084
474.00,0.0078
473.00,0.0070
472.00,0.0067
471.00,0.0074
470.00,0.0086
469.00,0.0099
468.00,0.0109
467.00,0.0116
466.00,0.0120
465.00,0.0121
464.00,0.0124
463.00,0.0133
462.00,0.0147
461.00,0.0161
460.00,0.0171
459.00,0.0174
458.00,0.0168
457.00,0.0157
456.00,0.0144
455.00,0.0132
454.00,0.0121
453.00,0.0116
452.00,0.0117
451.00,0.0121
450.00,0.0121
