Created as New Dataset,Sample 048 By Administrator Date Wednesday, September 10 2025
cm-1,A
4000.00,0.0009
3999.00,0.0009
3998.00,0.0009
3997.00,0.0009
3996.00,0.0009
3995.00,0.0009
3994.00,0.0008
3993.00,0.0008
3992.00,0.0008
3991.00,0.0008
3990.00,0.0008
3989.00,0.0008
3988.00,0.0008
3987.00,0.0008
3986.00,0.0007
3985.00,0.0007
3984.00,0.0007
3983.00,0.0007
3982.00,0.0008
3981.00,0.0008
3980.00,0.0008
3979.00,0.0008
3978.00,0.0007
3977.00,0.0007
3976.00,0.0008
3975.00,0.0008
3974.00,0.0008
3973.00,0.0007
3972.00,0.0007
3971.00,0.0007
3970.00,0.0007
3969.00,0.0007
3968.00,0.0007
3967.00,0.0007
3966.00,0.0007
3965.00,0.0007
3964.00,0.0007
3963.00,0.0006
3962.00,0.0006
3961.00,0.0006
3960.00,0.0007
3959.00,0.0007
3958.00,0.0007
3957.00,0.0007
3956.00,0.0008
3955.00,0.0008
3954.00,0.0007
3953.00,0.0007
3952.00,0.0007
3951.00,0.0007
3950.00,0.0006
3949.00,0.0006
3948.00,0.0006
3947.00,0.0007
3946.00,0.0007
3945.00,0.0007
3944.00,0.0007
3943.00,0.0007
3942.00,0.0006
3941.00,0.0007
3940.00,0.0007
3939.00,0.0007
3938.00,0.0007
3937.00,0.0007
3936.00,0.0007
3935.00,0.0007
3934.00,0.0007
3933.00,0.0007
3932.00,0.0007
3931.00,0.0006
3930.00,0.0006
3929.00,0.0007
3928.00,0.0007
3927.00,0.0007
3926.00,0.0007
3925.00,0.0007
3924.00,0.0007
3923.00,0.0007
3922.00,0.0007
3921.00,0.0007
3920.00,0.0007
3919.00,0.0007
3918.00,0.0007
3917.00,0.0007
3916.00,0.0007
3915.00,0.0007
3914.00,0.0007
3913.00,0.0007
3912.00,0.0007
3911.00,0.0006
3910.00,0.0006
3909.00,0.0006
3908.00,0.0006
3907.00,0.0007
3906.00,0.0007
3905.00,0.0007
3904.00,0.0007
3903.00,0.0007
3902.00,0.0007
3901.00,0.0007
3900.00,0.0006
3899.00,0.0006
3898.00,0.0006
3897.00,0.0006
3896.00,0.0006
3895.00,0.0006
3894.00,0.0006
3893.00,0.0006
3892.00,0.0006
3891.00,0.0006
3890.00,0.0006
3889.00,0.0006
3888.00,0.0006
3887.00,0.0006
3886.00,0.0006
3885.00,0.0007
3884.00,0.0007
3883.00,0.0008
3882.00,0.0008
3881.00,0.0008
3880.00,0.0008
3879.00,0.0008
3878.00,0.0008
3877.00,0.0007
3876.00,0.0007
3875.00,0.0007
3874.00,0.0007
3873.00,0.0007
3872.00,0.0006
3871.00,0.0006
3870.00,0.0006
3869.00,0.0006
3868.00,0.0006
3867.00,0.0006
3866.00,0.0006
3865.00,0.0006
3864.00,0.0006
3863.00,0.0006
3862.00,0.0006
3861.00,0.0006
3860.00,0.0006
3859.00,0.0006
3858.00,0.0006
3857.00,0.0006
3856.00,0.0006
3855.00,0.0006
3854.00,0.0006
3853.00,0.0006
3852.00,0.0006
3851.00,0.0006
3850.00,0.0006
3849.00,0.0006
3848.00,0.0006
3847.00,0.0006
3846.00,0.0006
3845.00,0.0006
3844.00,0.0006
3843.00,0.0006
3842.00,0.0006
3841.00,0.0006
3840.00,0.0006
3839.00,0.0006
3838.00,0.0006
3837.00,0.0006
3836.00,0.0006
3835.00,0.0006
3834.00,0.0006
3833.00,0.0006
3832.00,0.0006
3831.00,0.0006
3830.00,0.0006
3829.00,0.0006
3828.00,0.0006
3827.00,0.0006
3826.00,0.0006
3825.00,0.0006
3824.00,0.0006
3823.00,0.0006
3822.00,0.0005
3821.00,0.0005
3820.00,0.0005
3819.00,0.0005
3818.00,0.0005
3817.00,0.0005
3816.00,0.0005
3815.00,0.0005
3814.00,0.0005
3813.00,0.0005
3812.00,0.0005
3811.00,0.0005
3810.00,0.0005
3809.00,0.0005
3808.00,0.0005
3807.00,0.0005
3806.00,0.0006
3805.00,0.0006
3804.00,0.0006
3803.00,0.0006
3802.00,0.0006
3801.00,0.0006
3800.00,0.0006
3799.00,0.0006
3798.00,0.0006
3797.00,0.0006
3796.00,0.0006
3795.00,0.0006
3794.00,0.0006
3793.00,0.0006
3792.00,0.0006
3791.00,0.0006
3790.00,0.0006
3789.00,0.0006
3788.00,0.0006
3787.00,0.0006
3786.00,0.0007
3785.00,0.0007
3784.00,0.0007
3783.00,0.0007
3782.00,0.0007
3781.00,0.0007
3780.00,0.0006
3779.00,0.0006
3778.00,0.0005
3777.00,0.0005
3776.00,0.0005
3775.00,0.0006
3774.00,0.0006
3773.00,0.0007
3772.00,0.0007
3771.00,0.0007
3770.00,0.0007
3769.00,0.0008
3768.00,0.0008
3767.00,0.0008
3766.00,0.0007
3765.00,0.0007
3764.00,0.0007
3763.00,0.0007
3762.00,0.0007
3761.00,0.0006
3760.00,0.0006
3759.00,0.0006
3758.00,0.0006
3757.00,0.0006
3756.00,0.0006
3755.00,0.0006
3754.00,0.0006
3753.00,0.0006
3752.00,0.0006
3751.00,0.0006
3750.00,0.0006
3749.00,0.0006
3748.00,0.0007
3747.00,0.0007
3746.00,0.0007
3745.00,0.0007
3744.00,0.0007
3743.00,0.0007
3742.00,0.0006
3741.00,0.0006
3740.00,0.0005
3739.00,0.0005
3738.00,0.0005
3737.00,0.0005
3736.00,0.0005
3735.00,0.0005
3734.00,0.0005
3733.00,0.0005
3732.00,0.0005
3731.00,0.0005
3730.00,0.0005
3729.00,0.0005
3728.00,0.0005
3727.00,0.0004
3726.00,0.0004
3725.00,0.0004
3724.00,0.0004
3723.00,0.0004
3722.00,0.0004
3721.00,0.0004
3720.00,0.0005
3719.00,0.0005
3718.00,0.0005
3717.00,0.0005
3716.00,0.0005
3715.00,0.0005
3714.00,0.0004
3713.00,0.0004
3712.00,0.0004
3711.00,0.0004
3710.00,0.0005
3709.00,0.0005
3708.00,0.0005
3707.00,0.0006
3706.00,0.0005
3705.00,0.0005
3704.00,0.0005
3703.00,0.0005
3702.00,0.0005
3701.00,0.0005
3700.00,0.0005
3699.00,0.0006
3698.00,0.0006
3697.00,0.0006
3696.00,0.0006
3695.00,0.0006
3694.00,0.0006
3693.00,0.0006
3692.00,0.0006
3691.00,0.0006
3690.00,0.0006
3689.00,0.0006
3688.00,0.0007
3687.00,0.0007
3686.00,0.0006
3685.00,0.0006
3684.00,0.0005
3683.00,0.0005
3682.00,0.0005
3681.00,0.0005
3680.00,0.0005
3679.00,0.0005
3678.00,0.0005
3677.00,0.0005
3676.00,0.0004
3675.00,0.0004
3674.00,0.0004
3673.00,0.0004
3672.00,0.0004
3671.00,0.0004
3670.00,0.0004
3669.00,0.0004
3668.00,0.0005
3667.00,0.0005
3666.00,0.0005
3665.00,0.0006
3664.00,0.0006
3663.00,0.0006
3662.00,0.0007
3661.00,0.0007
3660.00,0.0007
3659.00,0.0007
3658.00,0.0007
3657.00,0.0007
3656.00,0.0007
3655.00,0.0007
3654.00,0.0007
3653.00,0.0006
3652.00,0.0006
3651.00,0.0006
3650.00,0.0006
3649.00,0.0006
3648.00,0.0006
3647.00,0.0006
3646.00,0.0006
3645.00,0.0006
3644.00,0.0006
3643.00,0.0006
3642.00,0.0006
3641.00,0.0007
3640.00,0.0007
3639.00,0.0007
3638.00,0.0007
3637.00,0.0007
3636.00,0.0007
3635.00,0.0007
3634.00,0.0007
3633.00,0.0007
3632.00,0.0008
3631.00,0.0008
3630.00,0.0008
3629.00,0.0008
3628.00,0.0008
3627.00,0.0008
3626.00,0.0008
3625.00,0.0007
3624.00,0.0007
3623.00,0.0007
3622.00,0.0007
3621.00,0.0007
3620.00,0.0007
3619.00,0.0008
3618.00,0.0008
3617.00,0.0008
3616.00,0.0008
3615.00,0.0008
3614.00,0.0009
3613.00,0.0009
3612.00,0.0009
3611.00,0.0009
3610.00,0.0009
3609.00,0.0009
3608.00,0.0009
3607.00,0.0009
3606.00,0.0010
3605.00,0.0010
3604.00,0.0010
3603.00,0.0010
3602.00,0.0010
3601.00,0.0010
3600.00,0.0010
3599.00,0.0010
3598.00,0.0010
3597.00,0.0011
3596.00,0.0011
3595.00,0.0011
3594.00,0.0011
3593.00,0.0011
3592.00,0.0012
3591.00,0.0012
3590.00,0.0012
3589.00,0.0012
3588.00,0.0013
3587.00,0.0013
3586.00,0.0014
3585.00,0.0013
3584.00,0.0013
3583.00,0.0013
3582.00,0.0013
3581.00,0.0013
3580.00,0.0014
3579.00,0.0014
3578.00,0.0014
3577.00,0.0014
3576.00,0.0014
3575.00,0.0015
3574.00,0.0015
3573.00,0.0015
3572.00,0.0016
3571.00,0.0016
3570.00,0.0016
3569.00,0.0016
3568.00,0.0016
3567.00,0.0017
3566.00,0.0018
3565.00,0.0019
3564.00,0.0019
3563.00,0.0018
3562.00,0.0017
3561.00,0.0017
3560.00,0.0017
3559.00,0.0017
3558.00,0.0018
3557.00,0.0019
3556.00,0.0019
3555.00,0.0019
3554.00,0.0019
3553.00,0.0019
3552.00,0.0020
3551.00,0.0020
3550.00,0.0020
3549.00,0.0021
3548.00,0.0021
3547.00,0.0022
3546.00,0.0022
3545.00,0.0022
3544.00,0.0023
3543.00,0.0023
3542.00,0.0023
3541.00,0.0023
3540.00,0.0023
3539.00,0.0023
3538.00,0.0023
3537.00,0.0023
3536.00,0.0023
3535.00,0.0024
3534.00,0.0024
3533.00,0.0025
3532.00,0.0025
3531.00,0.0026
3530.00,0.0026
3529.00,0.0026
3528.00,0.0026
3527.00,0.0026
3526.00,0.0026
3525.00,0.0026
3524.00,0.0027
3523.00,0.0027
3522.00,0.0027
3521.00,0.0028
3520.00,0.0028
3519.00,0.0027
3518.00,0.0027
3517.00,0.0027
3516.00,0.0028
3515.00,0.0028
3514.00,0.0029
3513.00,0.0030
3512.00,0.0031
3511.00,0.0031
3510.00,0.0031
3509.00,0.0031
3508.00,0.0031
3507.00,0.0031
3506.00,0.0031
3505.00,0.0031
3504.00,0.0031
3503.00,0.0032
3502.00,0.0032
3501.00,0.0033
3500.00,0.0033
3499.00,0.0033
3498.00,0.0033
3497.00,0.0033
3496.00,0.0034
3495.00,0.0034
3494.00,0.0034
3493.00,0.0034
3492.00,0.0035
3491.00,0.0035
3490.00,0.0035
3489.00,0.0035
3488.00,0.0035
3487.00,0.0035
3486.00,0.0036
3485.00,0.0036
3484.00,0.0036
3483.00,0.0036
3482.00,0.0036
3481.00,0.0037
3480.00,0.0037
3479.00,0.0037
3478.00,0.0038
3477.00,0.0038
3476.00,0.0038
3475.00,0.0038
3474.00,0.0038
3473.00,0.0039
3472.00,0.0039
3471.00,0.0039
3470.00,0.0039
3469.00,0.0039
3468.00,0.0039
3467.00,0.0040
3466.00,0.0040
3465.00,0.0041
3464.00,0.0041
3463.00,0.0041
3462.00,0.0041
3461.00,0.0041
3460.00,0.0041
3459.00,0.0042
3458.00,0.0042
3457.00,0.0042
3456.00,0.0043
3455.00,0.0043
3454.00,0.0043
3453.00,0.0043
3452.00,0.0043
3451.00,0.0043
3450.00,0.0044
3449.00,0.0044
3448.00,0.0045
3447.00,0.0045
3446.00,0.0045
3445.00,0.0045
3444.00,0.0045
3443.00,0.0045
3442.00,0.0045
3441.00,0.0045
3440.00,0.0045
3439.00,0.0046
3438.00,0.0046
3437.00,0.0047
3436.00,0.0047
3435.00,0.0048
3434.00,0.0048
3433.00,0.0049
3432.00,0.0049
3431.00,0.0049
3430.00,0.0049
3429.00,0.0049
3428.00,0.0049
3427.00,0.0049
3426.00,0.0049
3425.00,0.0049
3424.00,0.0050
3423.00,0.0050
3422.00,0.0050
3421.00,0.0051
3420.00,0.0051
3419.00,0.0051
3418.00,0.0051
3417.00,0.0051
3416.00,0.0051
3415.00,0.0051
3414.00,0.0051
3413.00,0.0052
3412.00,0.0052
3411.00,0.0053
3410.00,0.0053
3409.00,0.0054
3408.00,0.0054
3407.00,0.0054
3406.00,0.0054
3405.00,0.0053
3404.00,0.0053
3403.00,0.0053
3402.00,0.0053
3401.00,0.0054
3400.00,0.0054
3399.00,0.0055
3398.00,0.0054
3397.00,0.0054
3396.00,0.0054
3395.00,0.0055
3394.00,0.0055
3393.00,0.0056
3392.00,0.0056
3391.00,0.0056
3390.00,0.0056
3389.00,0.0056
3388.00,0.0056
3387.00,0.0056
3386.00,0.0056
3385.00,0.0056
3384.00,0.0056
3383.00,0.0056
3382.00,0.0055
3381.00,0.0056
3380.00,0.0056
3379.00,0.0056
3378.00,0.0057
3377.00,0.0057
3376.00,0.0058
3375.00,0.0058
3374.00,0.0059
3373.00,0.0059
3372.00,0.0058
3371.00,0.0058
3370.00,0.0058
3369.00,0.0059
3368.00,0.0059
3367.00,0.0059
3366.00,0.0059
3365.00,0.0059
3364.00,0.0059
3363.00,0.0059
3362.00,0.0059
3361.00,0.0059
3360.00,0.0060
3359.00,0.0060
3358.00,0.0060
3357.00,0.0060
3356.00,0.0061
3355.00,0.0061
3354.00,0.0061
3353.00,0.0060
3352.00,0.0060
3351.00,0.0060
3350.00,0.0060
3349.00,0.0061
3348.00,0.0061
3347.00,0.0061
3346.00,0.0061
3345.00,0.0061
3344.00,0.0062
3343.00,0.0062
3342.00,0.0062
3341.00,0.0063
3340.00,0.0063
3339.00,0.0063
3338.00,0.0063
3337.00,0.0062
3336.00,0.0062
3335.00,0.0062
3334.00,0.0062
3333.00,0.0062
3332.00,0.0061
3331.00,0.0061
3330.00,0.0061
3329.00,0.0061
3328.00,0.0062
3327.00,0.0062
3326.00,0.0062
3325.00,0.0063
3324.00,0.0063
3323.00,0.0062
3322.00,0.0062
3321.00,0.0062
3320.00,0.0062
3319.00,0.0062
3318.00,0.0063
3317.00,0.0063
3316.00,0.0063
3315.00,0.0063
3314.00,0.0063
3313.00,0.0064
3312.00,0.0064
3311.00,0.0064
3310.00,0.0064
3309.00,0.0064
3308.00,0.0064
3307.00,0.0064
3306.00,0.0064
3305.00,0.0064
3304.00,0.0064
3303.00,0.0063
3302.00,0.0063
3301.00,0.0063
3300.00,0.0064
3299.00,0.0064
3298.00,0.0064
3297.00,0.0064
3296.00,0.0064
3295.00,0.0063
3294.00,0.0063
3293.00,0.0063
3292.00,0.0063
3291.00,0.0063
3290.00,0.0063
3289.00,0.0063
3288.00,0.0063
3287.00,0.0063
3286.00,0.0063
3285.00,0.0062
3284.00,0.0062
3283.00,0.0062
3282.00,0.0061
3281.00,0.0061
3280.00,0.0061
3279.00,0.0060
3278.00,0.0060
3277.00,0.0060
3276.00,0.0060
3275.00,0.0059
3274.00,0.0059
3273.00,0.0059
3272.00,0.0059
3271.00,0.0059
3270.00,0.0059
3269.00,0.0058
3268.00,0.0058
3267.00,0.0058
3266.00,0.0058
3265.00,0.0057
3264.00,0.0057
3263.00,0.0057
3262.00,0.0057
3261.00,0.0057
3260.00,0.0056
3259.00,0.0056
3258.00,0.0056
3257.00,0.0056
3256.00,0.0055
3255.00,0.0055
3254.00,0.0055
3253.00,0.0054
3252.00,0.0054
3251.00,0.0054
3250.00,0.0054
3249.00,0.0053
3248.00,0.0054
3247.00,0.0054
3246.00,0.0054
3245.00,0.0054
3244.00,0.0054
3243.00,0.0054
3242.00,0.0054
3241.00,0.0054
3240.00,0.0053
3239.00,0.0053
3238.00,0.0053
3237.00,0.0052
3236.00,0.0052
3235.00,0.0052
3234.00,0.0052
3233.00,0.0052
3232.00,0.0052
3231.00,0.0053
3230.00,0.0053
3229.00,0.0053
3228.00,0.0053
3227.00,0.0053
3226.00,0.0053
3225.00,0.0053
3224.00,0.0054
3223.00,0.0054
3222.00,0.0054
3221.00,0.0055
3220.00,0.0055
3219.00,0.0056
3218.00,0.0056
3217.00,0.0056
3216.00,0.0056
3215.00,0.0056
3214.00,0.0056
3213.00,0.0057
3212.00,0.0057
3211.00,0.0056
3210.00,0.0057
3209.00,0.0057
3208.00,0.0057
3207.00,0.0057
3206.00,0.0057
3205.00,0.0057
3204.00,0.0057
3203.00,0.0057
3202.00,0.0057
3201.00,0.0057
3200.00,0.0057
3199.00,0.0057
3198.00,0.0057
3197.00,0.0057
3196.00,0.0057
3195.00,0.0057
3194.00,0.0056
3193.00,0.0056
3192.00,0.0055
3191.00,0.0055
3190.00,0.0055
3189.00,0.0055
3188.00,0.0055
3187.00,0.0055
3186.00,0.0054
3185.00,0.0054
3184.00,0.0053
3183.00,0.0053
3182.00,0.0053
3181.00,0.0053
3180.00,0.0052
3179.00,0.0052
3178.00,0.0052
3177.00,0.0051
3176.00,0.0051
3175.00,0.0051
3174.00,0.0051
3173.00,0.0050
3172.00,0.0050
3171.00,0.0049
3170.00,0.0049
3169.00,0.0049
3168.00,0.0049
3167.00,0.0049
3166.00,0.0049
3165.00,0.0048
3164.00,0.0048
3163.00,0.0048
3162.00,0.0048
3161.00,0.0048
3160.00,0.0047
3159.00,0.0047
3158.00,0.0047
3157.00,0.0047
3156.00,0.0047
3155.00,0.0047
3154.00,0.0047
3153.00,0.0046
3152.00,0.0047
3151.00,0.0047
3150.00,0.0047
3149.00,0.0047
3148.00,0.0047
3147.00,0.0047
3146.00,0.0047
3145.00,0.0047
3144.00,0.0047
3143.00,0.0047
3142.00,0.0046
3141.00,0.0046
3140.00,0.0045
3139.00,0.0045
3138.00,0.0045
3137.00,0.0045
3136.00,0.0045
3135.00,0.0045
3134.00,0.0044
3133.00,0.0044
3132.00,0.0044
3131.00,0.0044
3130.00,0.0043
3129.00,0.0043
3128.00,0.0042
3127.00,0.0042
3126.00,0.0042
3125.00,0.0042
3124.00,0.0041
3123.00,0.0041
3122.00,0.0040
3121.00,0.0040
3120.00,0.0040
3119.00,0.0040
3118.00,0.0040
3117.00,0.0040
3116.00,0.0040
3115.00,0.0040
3114.00,0.0040
3113.00,0.0040
3112.00,0.0040
3111.00,0.0040
3110.00,0.0039
3109.00,0.0038
3108.00,0.0038
3107.00,0.0038
3106.00,0.0037
3105.00,0.0037
3104.00,0.0037
3103.00,0.0037
3102.00,0.0037
3101.00,0.0037
3100.00,0.0037
3099.00,0.0037
3098.00,0.0037
3097.00,0.0036
3096.00,0.0036
3095.00,0.0036
3094.00,0.0036
3093.00,0.0036
3092.00,0.0036
3091.00,0.0036
3090.00,0.0036
3089.00,0.0036
3088.00,0.0036
3087.00,0.0036
3086.00,0.0036
3085.00,0.0036
3084.00,0.0035
3083.00,0.0035
3082.00,0.0035
3081.00,0.0035
3080.00,0.0035
3079.00,0.0035
3078.00,0.0035
3077.00,0.0036
3076.00,0.0036
3075.00,0.0036
3074.00,0.0036
3073.00,0.0036
3072.00,0.0036
3071.00,0.0036
3070.00,0.0035
3069.00,0.0035
3068.00,0.0036
3067.00,0.0036
3066.00,0.0037
3065.00,0.0037
3064.00,0.0037
3063.00,0.0037
3062.00,0.0037
3061.00,0.0038
3060.00,0.0038
3059.00,0.0038
3058.00,0.0038
3057.00,0.0038
3056.00,0.0038
3055.00,0.0038
3054.00,0.0038
3053.00,0.0038
3052.00,0.0038
3051.00,0.0039
3050.00,0.0039
3049.00,0.0039
3048.00,0.0039
3047.00,0.0039
3046.00,0.0040
3045.00,0.0040
3044.00,0.0040
3043.00,0.0040
3042.00,0.0040
3041.00,0.0040
3040.00,0.0040
3039.00,0.0041
3038.00,0.0041
3037.00,0.0041
3036.00,0.0041
3035.00,0.0041
3034.00,0.0042
3033.00,0.0042
3032.00,0.0043
3031.00,0.0043
3030.00,0.0043
3029.00,0.0044
3028.00,0.0044
3027.00,0.0045
3026.00,0.0045
3025.00,0.0046
3024.00,0.0047
3023.00,0.0047
3022.00,0.0048
3021.00,0.0049
3020.00,0.0049
3019.00,0.0050
3018.00,0.0051
3017.00,0.0052
3016.00,0.0054
3015.00,0.0055
3014.00,0.0056
3013.00,0.0057
3012.00,0.0059
3011.00,0.0060
3010.00,0.0062
3009.00,0.0064
3008.00,0.0066
3007.00,0.0067
3006.00,0.0069
3005.00,0.0071
3004.00,0.0073
3003.00,0.0075
3002.00,0.0077
3001.00,0.0080
3000.00,0.0083
2999.00,0.0086
2998.00,0.0088
2997.00,0.0092
2996.00,0.0095
2995.00,0.0099
2994.00,0.0104
2993.00,0.0109
2992.00,0.0114
2991.00,0.0120
2990.00,0.0126
2989.00,0.0133
2988.00,0.0141
2987.00,0.0150
2986.00,0.0160
2985.00,0.0171
2984.00,0.0184
2983.00,0.0199
2982.00,0.0215
2981.00,0.0232
2980.00,0.0252
2979.00,0.0274
2978.00,0.0299
2977.00,0.0328
2976.00,0.0361
2975.00,0.0398
2974.00,0.0441
2973.00,0.0489
2972.00,0.0544
2971.00,0.0605
2970.00,0.0673
2969.00,0.0747
2968.00,0.0827
2967.00,0.0913
2966.00,0.1001
2965.00,0.1091
2964.00,0.1177
2963.00,0.1256
2962.00,0.1323
2961.00,0.1377
2960.00,0.1419
2959.00,0.1453
2958.00,0.1487
2957.00,0.1528
2956.00,0.1581
2955.00,0.1649
2954.00,0.1731
2953.00,0.1821
2952.00,0.1907
2951.00,0.1977
2950.00,0.2017
2949.00,0.2016
2948.00,0.1968
2947.00,0.1876
2946.00,0.1752
2945.00,0.1610
2944.00,0.1469
2943.00,0.1342
2942.00,0.1238
2941.00,0.1162
2940.00,0.1113
2939.00,0.1089
2938.00,0.1088
2937.00,0.1106
2936.00,0.1142
2935.00,0.1195
2934.00,0.1263
2933.00,0.1345
2932.00,0.1439
2931.00,0.1544
2930.00,0.1657
2929.00,0.1774
2928.00,0.1891
2927.00,0.2007
2926.00,0.2118
2925.00,0.2226
2924.00,0.2331
2923.00,0.2435
2922.00,0.2538
2921.00,0.2638
2920.00,0.2729
2919.00,0.2800
2918.00,0.2841
2917.00,0.2844
2916.00,0.2806
2915.00,0.2731
2914.00,0.2631
2913.00,0.2517
2912.00,0.2401
2911.00,0.2291
2910.00,0.2190
2909.00,0.2099
2908.00,0.2015
2907.00,0.1935
2906.00,0.1857
2905.00,0.1779
2904.00,0.1702
2903.00,0.1625
2902.00,0.1550
2901.00,0.1477
2900.00,0.1408
2899.00,0.1342
2898.00,0.1282
2897.00,0.1227
2896.00,0.1180
2895.00,0.1140
2894.00,0.1108
2893.00,0.1083
2892.00,0.1065
2891.00,0.1054
2890.00,0.1049
2889.00,0.1049
2888.00,0.1052
2887.00,0.1060
2886.00,0.1071
2885.00,0.1087
2884.00,0.1106
2883.00,0.1130
2882.00,0.1159
2881.00,0.1189
2880.00,0.1219
2879.00,0.1244
2878.00,0.1260
2877.00,0.1266
2876.00,0.1262
2875.00,0.1254
2874.00,0.1247
2873.00,0.1246
2872.00,0.1253
2871.00,0.1269
2870.00,0.1292
2869.00,0.1317
2868.00,0.1335
2867.00,0.1338
2866.00,0.1316
2865.00,0.1266
2864.00,0.1189
2863.00,0.1095
2862.00,0.0994
2861.00,0.0898
2860.00,0.0815
2859.00,0.0747
2858.00,0.0696
2857.00,0.0658
2856.00,0.0632
2855.00,0.0616
2854.00,0.0607
2853.00,0.0606
2852.00,0.0612
2851.00,0.0624
2850.00,0.0643
2849.00,0.0670
2848.00,0.0703
2847.00,0.0746
2846.00,0.0797
2845.00,0.0857
2844.00,0.0926
2843.00,0.1000
2842.00,0.1075
2841.00,0.1145
2840.00,0.1201
2839.00,0.1236
2838.00,0.1240
2837.00,0.1210
2836.00,0.1147
2835.00,0.1057
2834.00,0.0951
2833.00,0.0840
2832.00,0.0735
2831.00,0.0641
2830.00,0.0562
2829.00,0.0497
2828.00,0.0444
2827.00,0.0402
2826.00,0.0367
2825.00,0.0338
2824.00,0.0314
2823.00,0.0294
2822.00,0.0277
2821.00,0.0263
2820.00,0.0250
2819.00,0.0239
2818.00,0.0229
2817.00,0.0221
2816.00,0.0213
2815.00,0.0207
2814.00,0.0201
2813.00,0.0195
2812.00,0.0189
2811.00,0.0184
2810.00,0.0178
2809.00,0.0172
2808.00,0.0166
2807.00,0.0159
2806.00,0.0152
2805.00,0.0146
2804.00,0.0139
2803.00,0.0133
2802.00,0.0128
2801.00,0.0123
2800.00,0.0119
2799.00,0.0116
2798.00,0.0114
2797.00,0.0111
2796.00,0.0109
2795.00,0.0106
2794.00,0.0104
2793.00,0.0101
2792.00,0.0098
2791.00,0.0095
2790.00,0.0092
2789.00,0.0089
2788.00,0.0086
2787.00,0.0083
2786.00,0.0080
2785.00,0.0078
2784.00,0.0075
2783.00,0.0073
2782.00,0.0071
2781.00,0.0069
2780.00,0.0067
2779.00,0.0065
2778.00,0.0064
2777.00,0.0063
2776.00,0.0062
2775.00,0.0061
2774.00,0.0060
2773.00,0.0059
2772.00,0.0058
2771.00,0.0058
2770.00,0.0058
2769.00,0.0058
2768.00,0.0057
2767.00,0.0057
2766.00,0.0057
2765.00,0.0057
2764.00,0.0056
2763.00,0.0056
2762.00,0.0055
2761.00,0.0055
2760.00,0.0054
2759.00,0.0054
2758.00,0.0054
2757.00,0.0054
2756.00,0.0054
2755.00,0.0054
2754.00,0.0054
2753.00,0.0054
2752.00,0.0054
2751.00,0.0054
2750.00,0.0053
2749.00,0.0053
2748.00,0.0053
2747.00,0.0053
2746.00,0.0054
2745.00,0.0055
2744.00,0.0056
2743.00,0.0056
2742.00,0.0057
2741.00,0.0059
2740.00,0.0060
2739.00,0.0061
2738.00,0.0063
2737.00,0.0064
2736.00,0.0066
2735.00,0.0067
2734.00,0.0069
2733.00,0.0071
2732.00,0.0072
2731.00,0.0075
2730.00,0.0077
2729.00,0.0079
2728.00,0.0082
2727.00,0.0085
2726.00,0.0087
2725.00,0.0089
2724.00,0.0091
2723.00,0.0092
2722.00,0.0091
2721.00,0.0089
2720.00,0.0086
2719.00,0.0082
2718.00,0.0079
2717.00,0.0075
2716.00,0.0072
2715.00,0.0069
2714.00,0.0067
2713.00,0.0064
2712.00,0.0062
2711.00,0.0060
2710.00,0.0059
2709.00,0.0057
2708.00,0.0056
2707.00,0.0054
2706.00,0.0053
2705.00,0.0052
2704.00,0.0050
2703.00,0.0049
2702.00,0.0048
2701.00,0.0048
2700.00,0.0047
2699.00,0.0046
2698.00,0.0045
2697.00,0.0045
2696.00,0.0045
2695.00,0.0045
2694.00,0.0045
2693.00,0.0045
2692.00,0.0045
2691.00,0.0045
2690.00,0.0045
2689.00,0.0045
2688.00,0.0045
2687.00,0.0045
2686.00,0.0045
2685.00,0.0045
2684.00,0.0045
2683.00,0.0045
2682.00,0.0046
2681.00,0.0046
2680.00,0.0046
2679.00,0.0046
2678.00,0.0046
2677.00,0.0046
2676.00,0.0046
2675.00,0.0046
2674.00,0.0047
2673.00,0.0047
2672.00,0.0046
2671.00,0.0046
2670.00,0.0046
2669.00,0.0045
2668.00,0.0046
2667.00,0.0046
2666.00,0.0046
2665.00,0.0047
2664.00,0.0047
2663.00,0.0048
2662.00,0.0048
2661.00,0.0048
2660.00,0.0049
2659.00,0.0049
2658.00,0.0049
2657.00,0.0048
2656.00,0.0048
2655.00,0.0047
2654.00,0.0047
2653.00,0.0046
2652.00,0.0045
2651.00,0.0045
2650.00,0.0044
2649.00,0.0043
2648.00,0.0043
2647.00,0.0043
2646.00,0.0043
2645.00,0.0043
2644.00,0.0042
2643.00,0.0042
2642.00,0.0041
2641.00,0.0040
2640.00,0.0039
2639.00,0.0039
2638.00,0.0038
2637.00,0.0038
2636.00,0.0038
2635.00,0.0038
2634.00,0.0038
2633.00,0.0038
2632.00,0.0038
2631.00,0.0039
2630.00,0.0039
2629.00,0.0039
2628.00,0.0039
2627.00,0.0039
2626.00,0.0040
2625.00,0.0040
2624.00,0.0041
2623.00,0.0041
2622.00,0.0041
2621.00,0.0041
2620.00,0.0040
2619.00,0.0040
2618.00,0.0040
2617.00,0.0040
2616.00,0.0040
2615.00,0.0040
2614.00,0.0040
2613.00,0.0040
2612.00,0.0039
2611.00,0.0039
2610.00,0.0038
2609.00,0.0038
2608.00,0.0038
2607.00,0.0038
2606.00,0.0037
2605.00,0.0037
2604.00,0.0036
2603.00,0.0035
2602.00,0.0034
2601.00,0.0034
2600.00,0.0034
2599.00,0.0033
2598.00,0.0033
2597.00,0.0032
2596.00,0.0032
2595.00,0.0032
2594.00,0.0033
2593.00,0.0034
2592.00,0.0035
2591.00,0.0035
2590.00,0.0036
2589.00,0.0036
2588.00,0.0038
2587.00,0.0039
2586.00,0.0041
2585.00,0.0042
2584.00,0.0042
2583.00,0.0042
2582.00,0.0042
2581.00,0.0041
2580.00,0.0040
2579.00,0.0039
2578.00,0.0038
2577.00,0.0037
2576.00,0.0036
2575.00,0.0035
2574.00,0.0034
2573.00,0.0033
2572.00,0.0031
2571.00,0.0030
2570.00,0.0029
2569.00,0.0028
2568.00,0.0027
2567.00,0.0026
2566.00,0.0025
2565.00,0.0024
2564.00,0.0024
2563.00,0.0023
2562.00,0.0023
2561.00,0.0023
2560.00,0.0023
2559.00,0.0024
2558.00,0.0024
2557.00,0.0024
2556.00,0.0024
2555.00,0.0024
2554.00,0.0023
2553.00,0.0022
2552.00,0.0021
2551.00,0.0020
2550.00,0.0020
2549.00,0.0019
2548.00,0.0019
2547.00,0.0019
2546.00,0.0019
2545.00,0.0019
2544.00,0.0020
2543.00,0.0020
2542.00,0.0019
2541.00,0.0019
2540.00,0.0018
2539.00,0.0017
2538.00,0.0016
2537.00,0.0016
2536.00,0.0016
2535.00,0.0016
2534.00,0.0016
2533.00,0.0016
2532.00,0.0016
2531.00,0.0016
2530.00,0.0016
2529.00,0.0016
2528.00,0.0015
2527.00,0.0015
2526.00,0.0015
2525.00,0.0014
2524.00,0.0014
2523.00,0.0013
2522.00,0.0012
2521.00,0.0012
2520.00,0.0013
2519.00,0.0013
2518.00,0.0013
2517.00,0.0013
2516.00,0.0012
2515.00,0.0011
2514.00,0.0011
2513.00,0.0010
2512.00,0.0010
2511.00,0.0011
2510.00,0.0011
2509.00,0.0012
2508.00,0.0012
2507.00,0.0012
2506.00,0.0011
2505.00,0.0011
2504.00,0.0011
2503.00,0.0011
2502.00,0.0011
2501.00,0.0011
2500.00,0.0011
2499.00,0.0011
2498.00,0.0011
2497.00,0.0012
2496.00,0.0011
2495.00,0.0011
2494.00,0.0011
2493.00,0.0010
2492.00,0.0010
2491.00,0.0010
2490.00,0.0010
2489.00,0.0010
2488.00,0.0010
2487.00,0.0010
2486.00,0.0010
2485.00,0.0010
2484.00,0.0009
2483.00,0.0009
2482.00,0.0009
2481.00,0.0009
2480.00,0.0009
2479.00,0.0009
2478.00,0.0009
2477.00,0.0009
2476.00,0.0009
2475.00,0.0009
2474.00,0.0009
2473.00,0.0010
2472.00,0.0010
2471.00,0.0011
2470.00,0.0011
2469.00,0.0011
2468.00,0.0010
2467.00,0.0010
2466.00,0.0010
2465.00,0.0009
2464.00,0.0009
2463.00,0.0009
2462.00,0.0009
2461.00,0.0009
2460.00,0.0010
2459.00,0.0010
2458.00,0.0011
2457.00,0.0011
2456.00,0.0012
2455.00,0.0012
2454.00,0.0013
2453.00,0.0013
2452.00,0.0014
2451.00,0.0013
2450.00,0.0012
2449.00,0.0012
2448.00,0.0011
2447.00,0.0011
2446.00,0.0010
2445.00,0.0010
2444.00,0.0010
2443.00,0.0010
2442.00,0.0010
2441.00,0.0011
2440.00,0.0011
2439.00,0.0011
2438.00,0.0011
2437.00,0.0011
2436.00,0.0011
2435.00,0.0010
2434.00,0.0010
2433.00,0.0011
2432.00,0.0012
2431.00,0.0013
2430.00,0.0013
2429.00,0.0013
2428.00,0.0013
2427.00,0.0012
2426.00,0.0012
2425.00,0.0012
2424.00,0.0011
2423.00,0.0012
2422.00,0.0012
2421.00,0.0012
2420.00,0.0011
2419.00,0.0011
2418.00,0.0010
2417.00,0.0010
2416.00,0.0010
2415.00,0.0010
2414.00,0.0011
2413.00,0.0011
2412.00,0.0011
2411.00,0.0011
2410.00,0.0010
2409.00,0.0009
2408.00,0.0009
2407.00,0.0009
2406.00,0.0009
2405.00,0.0009
2404.00,0.0009
2403.00,0.0010
2402.00,0.0010
2401.00,0.0010
2400.00,0.0010
2399.00,0.0009
2398.00,0.0008
2397.00,0.0008
2396.00,0.0008
2395.00,0.0008
2394.00,0.0007
2393.00,0.0007
2392.00,0.0007
2391.00,0.0007
2390.00,0.0007
2389.00,0.0008
2388.00,0.0008
2387.00,0.0008
2386.00,0.0008
2385.00,0.0007
2384.00,0.0006
2383.00,0.0006
2382.00,0.0005
2381.00,0.0005
2380.00,0.0005
2379.00,0.0004
2378.00,0.0004
2377.00,0.0004
2376.00,0.0004
2375.00,0.0005
2374.00,0.0005
2373.00,0.0005
2372.00,0.0004
2371.00,0.0004
2370.00,0.0004
2369.00,0.0004
2368.00,0.0002
2367.00,0.0001
2366.00,-0.0000
2365.00,-0.0000
2364.00,0.0001
2363.00,0.0003
2362.00,0.0005
2361.00,0.0006
2360.00,0.0007
2359.00,0.0006
2358.00,0.0005
2357.00,0.0004
2356.00,0.0005
2355.00,0.0006
2354.00,0.0007
2353.00,0.0006
2352.00,0.0005
2351.00,0.0005
2350.00,0.0004
2349.00,0.0005
2348.00,0.0006
2347.00,0.0006
2346.00,0.0006
2345.00,0.0006
2344.00,0.0007
2343.00,0.0007
2342.00,0.0008
2341.00,0.0008
2340.00,0.0007
2339.00,0.0008
2338.00,0.0008
2337.00,0.0008
2336.00,0.0008
2335.00,0.0008
2334.00,0.0008
2333.00,0.0007
2332.00,0.0007
2331.00,0.0006
2330.00,0.0006
2329.00,0.0007
2328.00,0.0009
2327.00,0.0012
2326.00,0.0016
2325.00,0.0019
2324.00,0.0020
2323.00,0.0019
2322.00,0.0016
2321.00,0.0013
2320.00,0.0012
2319.00,0.0011
2318.00,0.0011
2317.00,0.0011
2316.00,0.0011
2315.00,0.0010
2314.00,0.0009
2313.00,0.0008
2312.00,0.0007
2311.00,0.0006
2310.00,0.0006
2309.00,0.0006
2308.00,0.0006
2307.00,0.0006
2306.00,0.0006
2305.00,0.0007
2304.00,0.0007
2303.00,0.0008
2302.00,0.0009
2301.00,0.0009
2300.00,0.0009
2299.00,0.0010
2298.00,0.0010
2297.00,0.0011
2296.00,0.0011
2295.00,0.0012
2294.00,0.0013
2293.00,0.0013
2292.00,0.0014
2291.00,0.0015
2290.00,0.0016
2289.00,0.0016
2288.00,0.0016
2287.00,0.0016
2286.00,0.0016
2285.00,0.0016
2284.00,0.0015
2283.00,0.0014
2282.00,0.0013
2281.00,0.0013
2280.00,0.0012
2279.00,0.0012
2278.00,0.0013
2277.00,0.0013
2276.00,0.0013
2275.00,0.0013
2274.00,0.0013
2273.00,0.0012
2272.00,0.0012
2271.00,0.0012
2270.00,0.0012
2269.00,0.0012
2268.00,0.0012
2267.00,0.0012
2266.00,0.0012
2265.00,0.0011
2264.00,0.0011
2263.00,0.0012
2262.00,0.0012
2261.00,0.0012
2260.00,0.0012
2259.00,0.0012
2258.00,0.0011
2257.00,0.0011
2256.00,0.0010
2255.00,0.0009
2254.00,0.0009
2253.00,0.0009
2252.00,0.0010
2251.00,0.0011
2250.00,0.0012
2249.00,0.0012
2248.00,0.0011
2247.00,0.0009
2246.00,0.0006
2245.00,0.0005
2244.00,0.0004
2243.00,0.0005
2242.00,0.0006
2241.00,0.0007
2240.00,0.0006
2239.00,0.0005
2238.00,0.0004
2237.00,0.0004
2236.00,0.0006
2235.00,0.0008
2234.00,0.0008
2233.00,0.0009
2232.00,0.0009
2231.00,0.0010
2230.00,0.0011
2229.00,0.0011
2228.00,0.0011
2227.00,0.0009
2226.00,0.0007
2225.00,0.0005
2224.00,0.0004
2223.00,0.0004
2222.00,0.0005
2221.00,0.0005
2220.00,0.0005
2219.00,0.0005
2218.00,0.0004
2217.00,0.0004
2216.00,0.0003
2215.00,0.0004
2214.00,0.0005
2213.00,0.0006
2212.00,0.0007
2211.00,0.0007
2210.00,0.0006
2209.00,0.0004
2208.00,0.0003
2207.00,0.0002
2206.00,0.0003
2205.00,0.0005
2204.00,0.0007
2203.00,0.0007
2202.00,0.0006
2201.00,0.0004
2200.00,0.0004
2199.00,0.0004
2198.00,0.0005
2197.00,0.0005
2196.00,0.0006
2195.00,0.0007
2194.00,0.0008
2193.00,0.0008
2192.00,0.0009
2191.00,0.0009
2190.00,0.0010
2189.00,0.0011
2188.00,0.0012
2187.00,0.0013
2186.00,0.0013
2185.00,0.0013
2184.00,0.0011
2183.00,0.0009
2182.00,0.0007
2181.00,0.0005
2180.00,0.0003
2179.00,0.0002
2178.00,0.0001
2177.00,0.0001
2176.00,0.0000
2175.00,0.0000
2174.00,-0.0000
2173.00,0.0001
2172.00,0.0002
2171.00,0.0004
2170.00,0.0005
2169.00,0.0007
2168.00,0.0008
2167.00,0.0010
2166.00,0.0013
2165.00,0.0015
2164.00,0.0018
2163.00,0.0022
2162.00,0.0024
2161.00,0.0021
2160.00,0.0010
2159.00,-0.0006
2158.00,-0.0021
2157.00,-0.0029
2156.00,-0.0029
2155.00,-0.0026
2154.00,-0.0022
2153.00,-0.0019
2152.00,-0.0017
2151.00,-0.0016
2150.00,-0.0014
2149.00,-0.0012
2148.00,-0.0012
2147.00,-0.0014
2146.00,-0.0016
2145.00,-0.0017
2144.00,-0.0015
2143.00,-0.0013
2142.00,-0.0011
2141.00,-0.0010
2140.00,-0.0011
2139.00,-0.0012
2138.00,-0.0013
2137.00,-0.0015
2136.00,-0.0016
2135.00,-0.0019
2134.00,-0.0020
2133.00,-0.0019
2132.00,-0.0018
2131.00,-0.0016
2130.00,-0.0015
2129.00,-0.0013
2128.00,-0.0012
2127.00,-0.0010
2126.00,-0.0008
2125.00,-0.0007
2124.00,-0.0005
2123.00,-0.0003
2122.00,-0.0003
2121.00,-0.0002
2120.00,-0.0002
2119.00,-0.0001
2118.00,-0.0001
2117.00,-0.0002
2116.00,-0.0002
2115.00,-0.0002
2114.00,-0.0001
2113.00,0.0001
2112.00,0.0002
2111.00,0.0002
2110.00,0.0001
2109.00,0.0000
2108.00,-0.0001
2107.00,-0.0001
2106.00,-0.0000
2105.00,0.0001
2104.00,0.0002
2103.00,0.0003
2102.00,0.0003
2101.00,0.0003
2100.00,0.0004
2099.00,0.0003
2098.00,0.0002
2097.00,0.0000
2096.00,-0.0001
2095.00,-0.0002
2094.00,-0.0003
2093.00,-0.0004
2092.00,-0.0005
2091.00,-0.0005
2090.00,-0.0005
2089.00,-0.0004
2088.00,-0.0003
2087.00,-0.0001
2086.00,0.0001
2085.00,0.0003
2084.00,0.0005
2083.00,0.0006
2082.00,0.0006
2081.00,0.0006
2080.00,0.0005
2079.00,0.0005
2078.00,0.0004
2077.00,0.0003
2076.00,0.0002
2075.00,0.0001
2074.00,0.0000
2073.00,0.0000
2072.00,0.0000
2071.00,0.0001
2070.00,0.0000
2069.00,-0.0001
2068.00,-0.0002
2067.00,-0.0004
2066.00,-0.0005
2065.00,-0.0005
2064.00,-0.0004
2063.00,-0.0004
2062.00,-0.0004
2061.00,-0.0005
2060.00,-0.0005
2059.00,-0.0004
2058.00,-0.0001
2057.00,0.0003
2056.00,0.0005
2055.00,0.0005
2054.00,0.0006
2053.00,0.0008
2052.00,0.0011
2051.00,0.0011
2050.00,0.0008
2049.00,0.0005
2048.00,0.0003
2047.00,0.0002
2046.00,0.0002
2045.00,0.0001
2044.00,0.0001
2043.00,0.0001
2042.00,0.0002
2041.00,0.0003
2040.00,0.0004
2039.00,0.0004
2038.00,0.0003
2037.00,0.0001
2036.00,-0.0002
2035.00,-0.0005
2034.00,-0.0006
2033.00,-0.0007
2032.00,-0.0007
2031.00,-0.0009
2030.00,-0.0011
2029.00,-0.0014
2028.00,-0.0015
2027.00,-0.0015
2026.00,-0.0013
2025.00,-0.0011
2024.00,-0.0011
2023.00,-0.0012
2022.00,-0.0013
2021.00,-0.0012
2020.00,-0.0011
2019.00,-0.0010
2018.00,-0.0007
2017.00,-0.0005
2016.00,-0.0004
2015.00,-0.0005
2014.00,-0.0006
2013.00,-0.0007
2012.00,-0.0008
2011.00,-0.0009
2010.00,-0.0011
2009.00,-0.0013
2008.00,-0.0015
2007.00,-0.0017
2006.00,-0.0019
2005.00,-0.0020
2004.00,-0.0020
2003.00,-0.0020
2002.00,-0.0019
2001.00,-0.0016
2000.00,-0.0011
1999.00,-0.0008
1998.00,-0.0006
1997.00,-0.0007
1996.00,-0.0009
1995.00,-0.0012
1994.00,-0.0014
1993.00,-0.0014
1992.00,-0.0013
1991.00,-0.0010
1990.00,-0.0006
1989.00,-0.0004
1988.00,-0.0004
1987.00,-0.0004
1986.00,-0.0004
1985.00,-0.0002
1984.00,-0.0000
1983.00,0.0002
1982.00,0.0004
1981.00,0.0007
1980.00,0.0009
1979.00,0.0006
1978.00,0.0001
1977.00,-0.0005
1976.00,-0.0008
1975.00,-0.0010
1974.00,-0.0010
1973.00,-0.0011
1972.00,-0.0013
1971.00,-0.0015
1970.00,-0.0016
1969.00,-0.0015
1968.00,-0.0013
1967.00,-0.0012
1966.00,-0.0013
1965.00,-0.0015
1964.00,-0.0016
1963.00,-0.0016
1962.00,-0.0016
1961.00,-0.0016
1960.00,-0.0016
1959.00,-0.0017
1958.00,-0.0017
1957.00,-0.0016
1956.00,-0.0015
1955.00,-0.0016
1954.00,-0.0017
1953.00,-0.0018
1952.00,-0.0019
1951.00,-0.0020
1950.00,-0.0021
1949.00,-0.0021
1948.00,-0.0021
1947.00,-0.0021
1946.00,-0.0020
1945.00,-0.0019
1944.00,-0.0019
1943.00,-0.0018
1942.00,-0.0017
1941.00,-0.0015
1940.00,-0.0013
1939.00,-0.0012
1938.00,-0.0013
1937.00,-0.0014
1936.00,-0.0014
1935.00,-0.0013
1934.00,-0.0012
1933.00,-0.0010
1932.00,-0.0010
1931.00,-0.0010
1930.00,-0.0010
1929.00,-0.0009
1928.00,-0.0008
1927.00,-0.0007
1926.00,-0.0005
1925.00,-0.0004
1924.00,-0.0004
1923.00,-0.0003
1922.00,-0.0002
1921.00,-0.0001
1920.00,-0.0001
1919.00,-0.0002
1918.00,-0.0004
1917.00,-0.0004
1916.00,-0.0003
1915.00,-0.0003
1914.00,-0.0003
1913.00,-0.0003
1912.00,-0.0003
1911.00,-0.0003
1910.00,-0.0003
1909.00,-0.0003
1908.00,-0.0003
1907.00,-0.0004
1906.00,-0.0004
1905.00,-0.0003
1904.00,-0.0002
1903.00,-0.0002
1902.00,-0.0002
1901.00,-0.0002
1900.00,-0.0002
1899.00,-0.0002
1898.00,-0.0002
1897.00,-0.0001
1896.00,-0.0000
1895.00,0.0000
1894.00,0.0001
1893.00,0.0000
1892.00,-0.0001
1891.00,-0.0002
1890.00,-0.0003
1889.00,-0.0003
1888.00,-0.0002
1887.00,-0.0002
1886.00,-0.0002
1885.00,-0.0003
1884.00,-0.0003
1883.00,-0.0003
1882.00,-0.0003
1881.00,-0.0002
1880.00,-0.0001
1879.00,-0.0000
1878.00,-0.0000
1877.00,-0.0000
1876.00,-0.0000
1875.00,-0.0000
1874.00,-0.0001
1873.00,-0.0001
1872.00,-0.0001
1871.00,-0.0002
1870.00,-0.0001
1869.00,-0.0000
1868.00,0.0001
1867.00,0.0001
1866.00,0.0001
1865.00,0.0001
1864.00,0.0001
1863.00,0.0000
1862.00,-0.0001
1861.00,-0.0001
1860.00,-0.0000
1859.00,0.0000
1858.00,0.0001
1857.00,0.0001
1856.00,0.0001
1855.00,0.0000
1854.00,-0.0000
1853.00,-0.0000
1852.00,0.0001
1851.00,0.0002
1850.00,0.0002
1849.00,0.0002
1848.00,0.0002
1847.00,0.0001
1846.00,0.0001
1845.00,0.0000
1844.00,0.0000
1843.00,0.0001
1842.00,0.0001
1841.00,0.0001
1840.00,0.0001
1839.00,0.0000
1838.00,0.0000
1837.00,0.0001
1836.00,0.0001
1835.00,0.0002
1834.00,0.0002
1833.00,0.0003
1832.00,0.0003
1831.00,0.0002
1830.00,0.0002
1829.00,0.0002
1828.00,0.0003
1827.00,0.0003
1826.00,0.0003
1825.00,0.0002
1824.00,0.0002
1823.00,0.0002
1822.00,0.0003
1821.00,0.0003
1820.00,0.0002
1819.00,0.0002
1818.00,0.0001
1817.00,0.0001
1816.00,0.0001
1815.00,0.0001
1814.00,0.0002
1813.00,0.0003
1812.00,0.0003
1811.00,0.0004
1810.00,0.0004
1809.00,0.0004
1808.00,0.0004
1807.00,0.0004
1806.00,0.0004
1805.00,0.0004
1804.00,0.0005
1803.00,0.0005
1802.00,0.0005
1801.00,0.0004
1800.00,0.0004
1799.00,0.0004
1798.00,0.0004
1797.00,0.0005
1796.00,0.0006
1795.00,0.0007
1794.00,0.0007
1793.00,0.0006
1792.00,0.0006
1791.00,0.0007
1790.00,0.0007
1789.00,0.0008
1788.00,0.0008
1787.00,0.0009
1786.00,0.0009
1785.00,0.0009
1784.00,0.0008
1783.00,0.0008
1782.00,0.0008
1781.00,0.0008
1780.00,0.0008
1779.00,0.0008
1778.00,0.0008
1777.00,0.0008
1776.00,0.0009
1775.00,0.0009
1774.00,0.0009
1773.00,0.0009
1772.00,0.0010
1771.00,0.0011
1770.00,0.0012
1769.00,0.0013
1768.00,0.0013
1767.00,0.0014
1766.00,0.0014
1765.00,0.0015
1764.00,0.0016
1763.00,0.0016
1762.00,0.0018
1761.00,0.0019
1760.00,0.0021
1759.00,0.0023
1758.00,0.0025
1757.00,0.0027
1756.00,0.0030
1755.00,0.0032
1754.00,0.0034
1753.00,0.0037
1752.00,0.0040
1751.00,0.0043
1750.00,0.0046
1749.00,0.0047
1748.00,0.0049
1747.00,0.0049
1746.00,0.0050
1745.00,0.0050
1744.00,0.0050
1743.00,0.0050
1742.00,0.0049
1741.00,0.0049
1740.00,0.0047
1739.00,0.0046
1738.00,0.0045
1737.00,0.0044
1736.00,0.0044
1735.00,0.0043
1734.00,0.0041
1733.00,0.0040
1732.00,0.0039
1731.00,0.0038
1730.00,0.0037
1729.00,0.0037
1728.00,0.0036
1727.00,0.0034
1726.00,0.0033
1725.00,0.0032
1724.00,0.0032
1723.00,0.0032
1722.00,0.0032
1721.00,0.0032
1720.00,0.0032
1719.00,0.0032
1718.00,0.0032
1717.00,0.0032
1716.00,0.0032
1715.00,0.0032
1714.00,0.0031
1713.00,0.0031
1712.00,0.0032
1711.00,0.0032
1710.00,0.0033
1709.00,0.0034
1708.00,0.0034
1707.00,0.0034
1706.00,0.0035
1705.00,0.0035
1704.00,0.0036
1703.00,0.0037
1702.00,0.0037
1701.00,0.0038
1700.00,0.0038
1699.00,0.0038
1698.00,0.0038
1697.00,0.0038
1696.00,0.0040
1695.00,0.0042
1694.00,0.0044
1693.00,0.0045
1692.00,0.0046
1691.00,0.0047
1690.00,0.0049
1689.00,0.0050
1688.00,0.0051
1687.00,0.0052
1686.00,0.0052
1685.00,0.0053
1684.00,0.0055
1683.00,0.0057
1682.00,0.0058
1681.00,0.0059
1680.00,0.0060
1679.00,0.0061
1678.00,0.0062
1677.00,0.0064
1676.00,0.0066
1675.00,0.0068
1674.00,0.0069
1673.00,0.0069
1672.00,0.0070
1671.00,0.0071
1670.00,0.0072
1669.00,0.0073
1668.00,0.0074
1667.00,0.0075
1666.00,0.0076
1665.00,0.0076
1664.00,0.0077
1663.00,0.0078
1662.00,0.0080
1661.00,0.0081
1660.00,0.0082
1659.00,0.0082
1658.00,0.0082
1657.00,0.0083
1656.00,0.0084
1655.00,0.0086
1654.00,0.0087
1653.00,0.0089
1652.00,0.0091
1651.00,0.0091
1650.00,0.0090
1649.00,0.0091
1648.00,0.0091
1647.00,0.0092
1646.00,0.0092
1645.00,0.0093
1644.00,0.0093
1643.00,0.0093
1642.00,0.0093
1641.00,0.0092
1640.00,0.0092
1639.00,0.0091
1638.00,0.0090
1637.00,0.0089
1636.00,0.0088
1635.00,0.0089
1634.00,0.0089
1633.00,0.0089
1632.00,0.0088
1631.00,0.0088
1630.00,0.0086
1629.00,0.0085
1628.00,0.0084
1627.00,0.0083
1626.00,0.0082
1625.00,0.0081
1624.00,0.0080
1623.00,0.0079
1622.00,0.0078
1621.00,0.0077
1620.00,0.0077
1619.00,0.0076
1618.00,0.0074
1617.00,0.0073
1616.00,0.0072
1615.00,0.0072
1614.00,0.0072
1613.00,0.0071
1612.00,0.0071
1611.00,0.0071
1610.00,0.0071
1609.00,0.0071
1608.00,0.0071
1607.00,0.0071
1606.00,0.0071
1605.00,0.0072
1604.00,0.0072
1603.00,0.0071
1602.00,0.0070
1601.00,0.0069
1600.00,0.0069
1599.00,0.0069
1598.00,0.0069
1597.00,0.0069
1596.00,0.0069
1595.00,0.0068
1594.00,0.0067
1593.00,0.0067
1592.00,0.0067
1591.00,0.0067
1590.00,0.0067
1589.00,0.0067
1588.00,0.0068
1587.00,0.0068
1586.00,0.0068
1585.00,0.0069
1584.00,0.0069
1583.00,0.0070
1582.00,0.0070
1581.00,0.0071
1580.00,0.0072
1579.00,0.0072
1578.00,0.0072
1577.00,0.0071
1576.00,0.0071
1575.00,0.0071
1574.00,0.0070
1573.00,0.0071
1572.00,0.0071
1571.00,0.0071
1570.00,0.0070
1569.00,0.0071
1568.00,0.0071
1567.00,0.0071
1566.00,0.0071
1565.00,0.0072
1564.00,0.0072
1563.00,0.0072
1562.00,0.0072
1561.00,0.0072
1560.00,0.0073
1559.00,0.0073
1558.00,0.0074
1557.00,0.0076
1556.00,0.0077
1555.00,0.0077
1554.00,0.0078
1553.00,0.0078
1552.00,0.0080
1551.00,0.0081
1550.00,0.0082
1549.00,0.0083
1548.00,0.0084
1547.00,0.0084
1546.00,0.0085
1545.00,0.0087
1544.00,0.0089
1543.00,0.0091
1542.00,0.0091
1541.00,0.0092
1540.00,0.0092
1539.00,0.0092
1538.00,0.0092
1537.00,0.0092
1536.00,0.0092
1535.00,0.0091
1534.00,0.0090
1533.00,0.0088
1532.00,0.0087
1531.00,0.0085
1530.00,0.0083
1529.00,0.0081
1528.00,0.0080
1527.00,0.0078
1526.00,0.0076
1525.00,0.0075
1524.00,0.0074
1523.00,0.0073
1522.00,0.0073
1521.00,0.0074
1520.00,0.0075
1519.00,0.0075
1518.00,0.0074
1517.00,0.0074
1516.00,0.0074
1515.00,0.0074
1514.00,0.0074
1513.00,0.0074
1512.00,0.0075
1511.00,0.0074
1510.00,0.0074
1509.00,0.0074
1508.00,0.0074
1507.00,0.0074
1506.00,0.0074
1505.00,0.0076
1504.00,0.0077
1503.00,0.0078
1502.00,0.0080
1501.00,0.0083
1500.00,0.0086
1499.00,0.0088
1498.00,0.0092
1497.00,0.0096
1496.00,0.0101
1495.00,0.0104
1494.00,0.0106
1493.00,0.0108
1492.00,0.0109
1491.00,0.0111
1490.00,0.0113
1489.00,0.0117
1488.00,0.0122
1487.00,0.0126
1486.00,0.0131
1485.00,0.0137
1484.00,0.0143
1483.00,0.0150
1482.00,0.0158
1481.00,0.0168
1480.00,0.0179
1479.00,0.0190
1478.00,0.0205
1477.00,0.0224
1476.00,0.0248
1475.00,0.0274
1474.00,0.0311
1473.00,0.0365
1472.00,0.0432
1471.00,0.0497
1470.00,0.0560
1469.00,0.0626
1468.00,0.0698
1467.00,0.0777
1466.00,0.0869
1465.00,0.0970
1464.00,0.1061
1463.00,0.1126
1462.00,0.1170
1461.00,0.1202
1460.00,0.1226
1459.00,0.1242
1458.00,0.1255
1457.00,0.1265
1456.00,0.1267
1455.00,0.1262
1454.00,0.1253
1453.00,0.1239
1452.00,0.1215
1451.00,0.1178
1450.00,0.1124
1449.00,0.1048
1448.00,0.0951
1447.00,0.0848
1446.00,0.0755
1445.00,0.0677
1444.00,0.0610
1443.00,0.0556
1442.00,0.0517
1441.00,0.0490
1440.00,0.0475
1439.00,0.0469
1438.00,0.0473
1437.00,0.0476
1436.00,0.0468
1435.00,0.0441
1434.00,0.0401
1433.00,0.0353
1432.00,0.0303
1431.00,0.0259
1430.00,0.0226
1429.00,0.0202
1428.00,0.0186
1427.00,0.0177
1426.00,0.0171
1425.00,0.0165
1424.00,0.0159
1423.00,0.0156
1422.00,0.0155
1421.00,0.0154
1420.00,0.0151
1419.00,0.0149
1418.00,0.0148
1417.00,0.0145
1416.00,0.0142
1415.00,0.0140
1414.00,0.0139
1413.00,0.0138
1412.00,0.0136
1411.00,0.0135
1410.00,0.0134
1409.00,0.0133
1408.00,0.0132
1407.00,0.0131
1406.00,0.0132
1405.00,0.0132
1404.00,0.0132
1403.00,0.0133
1402.00,0.0135
1401.00,0.0136
1400.00,0.0138
1399.00,0.0140
1398.00,0.0142
1397.00,0.0144
1396.00,0.0145
1395.00,0.0149
1394.00,0.0155
1393.00,0.0160
1392.00,0.0166
1391.00,0.0174
1390.00,0.0187
1389.00,0.0204
1388.00,0.0231
1387.00,0.0270
1386.00,0.0321
1385.00,0.0385
1384.00,0.0468
1383.00,0.0580
1382.00,0.0728
1381.00,0.0919
1380.00,0.1161
1379.00,0.1448
1378.00,0.1745
1377.00,0.1986
1376.00,0.2103
1375.00,0.2040
1374.00,0.1811
1373.00,0.1508
1372.00,0.1219
1371.00,0.0975
1370.00,0.0778
1369.00,0.0628
1368.00,0.0525
1367.00,0.0462
1366.00,0.0428
1365.00,0.0414
1364.00,0.0417
1363.00,0.0434
1362.00,0.0459
1361.00,0.0486
1360.00,0.0506
1359.00,0.0513
1358.00,0.0500
1357.00,0.0470
1356.00,0.0426
1355.00,0.0377
1354.00,0.0330
1353.00,0.0290
1352.00,0.0258
1351.00,0.0233
1350.00,0.0212
1349.00,0.0196
1348.00,0.0183
1347.00,0.0172
1346.00,0.0164
1345.00,0.0157
1344.00,0.0152
1343.00,0.0148
1342.00,0.0144
1341.00,0.0141
1340.00,0.0139
1339.00,0.0137
1338.00,0.0135
1337.00,0.0134
1336.00,0.0135
1335.00,0.0136
1334.00,0.0139
1333.00,0.0144
1332.00,0.0149
1331.00,0.0153
1330.00,0.0155
1329.00,0.0154
1328.00,0.0150
1327.00,0.0143
1326.00,0.0136
1325.00,0.0129
1324.00,0.0123
1323.00,0.0117
1322.00,0.0113
1321.00,0.0110
1320.00,0.0107
1319.00,0.0104
1318.00,0.0102
1317.00,0.0100
1316.00,0.0098
1315.00,0.0097
1314.00,0.0097
1313.00,0.0097
1312.00,0.0099
1311.00,0.0101
1310.00,0.0104
1309.00,0.0110
1308.00,0.0118
1307.00,0.0128
1306.00,0.0139
1305.00,0.0146
1304.00,0.0149
1303.00,0.0147
1302.00,0.0144
1301.00,0.0141
1300.00,0.0139
1299.00,0.0140
1298.00,0.0141
1297.00,0.0142
1296.00,0.0142
1295.00,0.0140
1294.00,0.0136
1293.00,0.0131
1292.00,0.0125
1291.00,0.0119
1290.00,0.0114
1289.00,0.0110
1288.00,0.0106
1287.00,0.0104
1286.00,0.0101
1285.00,0.0099
1284.00,0.0097
1283.00,0.0095
1282.00,0.0094
1281.00,0.0093
1280.00,0.0092
1279.00,0.0091
1278.00,0.0090
1277.00,0.0090
1276.00,0.0090
1275.00,0.0090
1274.00,0.0090
1273.00,0.0090
1272.00,0.0091
1271.00,0.0092
1270.00,0.0093
1269.00,0.0094
1268.00,0.0096
1267.00,0.0097
1266.00,0.0099
1265.00,0.0102
1264.00,0.0104
1263.00,0.0107
1262.00,0.0111
1261.00,0.0115
1260.00,0.0119
1259.00,0.0126
1258.00,0.0132
1257.00,0.0138
1256.00,0.0140
1255.00,0.0139
1254.00,0.0135
1253.00,0.0128
1252.00,0.0121
1251.00,0.0115
1250.00,0.0111
1249.00,0.0108
1248.00,0.0106
1247.00,0.0105
1246.00,0.0104
1245.00,0.0104
1244.00,0.0103
1243.00,0.0102
1242.00,0.0101
1241.00,0.0100
1240.00,0.0099
1239.00,0.0099
1238.00,0.0098
1237.00,0.0097
1236.00,0.0097
1235.00,0.0096
1234.00,0.0096
1233.00,0.0095
1232.00,0.0094
1231.00,0.0094
1230.00,0.0094
1229.00,0.0094
1228.00,0.0095
1227.00,0.0096
1226.00,0.0098
1225.00,0.0101
1224.00,0.0105
1223.00,0.0109
1222.00,0.0113
1221.00,0.0116
1220.00,0.0118
1219.00,0.0118
1218.00,0.0117
1217.00,0.0115
1216.00,0.0111
1215.00,0.0108
1214.00,0.0104
1213.00,0.0101
1212.00,0.0098
1211.00,0.0096
1210.00,0.0094
1209.00,0.0092
1208.00,0.0091
1207.00,0.0090
1206.00,0.0090
1205.00,0.0089
1204.00,0.0088
1203.00,0.0089
1202.00,0.0089
1201.00,0.0089
1200.00,0.0088
1199.00,0.0088
1198.00,0.0088
1197.00,0.0088
1196.00,0.0087
1195.00,0.0087
1194.00,0.0088
1193.00,0.0088
1192.00,0.0087
1191.00,0.0087
1190.00,0.0087
1189.00,0.0088
1188.00,0.0089
1187.00,0.0090
1186.00,0.0091
1185.00,0.0093
1184.00,0.0094
1183.00,0.0096
1182.00,0.0098
1181.00,0.0101
1180.00,0.0104
1179.00,0.0108
1178.00,0.0113
1177.00,0.0121
1176.00,0.0131
1175.00,0.0145
1174.00,0.0164
1173.00,0.0187
1172.00,0.0215
1171.00,0.0246
1170.00,0.0275
1169.00,0.0300
1168.00,0.0315
1167.00,0.0320
1166.00,0.0316
1165.00,0.0304
1164.00,0.0289
1163.00,0.0273
1162.00,0.0259
1161.00,0.0247
1160.00,0.0237
1159.00,0.0229
1158.00,0.0223
1157.00,0.0219
1156.00,0.0217
1155.00,0.0215
1154.00,0.0214
1153.00,0.0212
1152.00,0.0208
1151.00,0.0202
1150.00,0.0193
1149.00,0.0184
1148.00,0.0175
1147.00,0.0166
1146.00,0.0157
1145.00,0.0149
1144.00,0.0142
1143.00,0.0135
1142.00,0.0129
1141.00,0.0123
1140.00,0.0119
1139.00,0.0114
1138.00,0.0110
1137.00,0.0106
1136.00,0.0102
1135.00,0.0099
1134.00,0.0096
1133.00,0.0095
1132.00,0.0094
1131.00,0.0094
1130.00,0.0094
1129.00,0.0095
1128.00,0.0096
1127.00,0.0097
1126.00,0.0098
1125.00,0.0098
1124.00,0.0099
1123.00,0.0100
1122.00,0.0100
1121.00,0.0101
1120.00,0.0102
1119.00,0.0103
1118.00,0.0105
1117.00,0.0107
1116.00,0.0108
1115.00,0.0109
1114.00,0.0110
1113.00,0.0112
1112.00,0.0114
1111.00,0.0118
1110.00,0.0121
1109.00,0.0126
1108.00,0.0131
1107.00,0.0138
1106.00,0.0146
1105.00,0.0154
1104.00,0.0161
1103.00,0.0165
1102.00,0.0165
1101.00,0.0162
1100.00,0.0156
1099.00,0.0150
1098.00,0.0143
1097.00,0.0137
1096.00,0.0132
1095.00,0.0127
1094.00,0.0123
1093.00,0.0119
1092.00,0.0116
1091.00,0.0114
1090.00,0.0113
1089.00,0.0112
1088.00,0.0111
1087.00,0.0109
1086.00,0.0108
1085.00,0.0107
1084.00,0.0107
1083.00,0.0106
1082.00,0.0105
1081.00,0.0104
1080.00,0.0102
1079.00,0.0101
1078.00,0.0099
1077.00,0.0097
1076.00,0.0096
1075.00,0.0096
1074.00,0.0096
1073.00,0.0096
1072.00,0.0096
1071.00,0.0097
1070.00,0.0097
1069.00,0.0096
1068.00,0.0095
1067.00,0.0095
1066.00,0.0095
1065.00,0.0095
1064.00,0.0095
1063.00,0.0094
1062.00,0.0093
1061.00,0.0093
1060.00,0.0092
1059.00,0.0092
1058.00,0.0093
1057.00,0.0095
1056.00,0.0096
1055.00,0.0097
1054.00,0.0098
1053.00,0.0099
1052.00,0.0100
1051.00,0.0101
1050.00,0.0103
1049.00,0.0105
1048.00,0.0108
1047.00,0.0111
1046.00,0.0112
1045.00,0.0112
1044.00,0.0112
1043.00,0.0110
1042.00,0.0109
1041.00,0.0108
1040.00,0.0107
1039.00,0.0106
1038.00,0.0106
1037.00,0.0105
1036.00,0.0103
1035.00,0.0102
1034.00,0.0101
1033.00,0.0100
1032.00,0.0099
1031.00,0.0099
1030.00,0.0100
1029.00,0.0101
1028.00,0.0102
1027.00,0.0102
1026.00,0.0101
1025.00,0.0101
1024.00,0.0101
1023.00,0.0101
1022.00,0.0100
1021.00,0.0100
1020.00,0.0099
1019.00,0.0100
1018.00,0.0101
1017.00,0.0103
1016.00,0.0105
1015.00,0.0107
1014.00,0.0109
1013.00,0.0112
1012.00,0.0114
1011.00,0.0117
1010.00,0.0120
1009.00,0.0124
1008.00,0.0128
1007.00,0.0133
1006.00,0.0141
1005.00,0.0151
1004.00,0.0165
1003.00,0.0184
1002.00,0.0210
1001.00,0.0242
1000.00,0.0275
999.00,0.0302
998.00,0.0314
997.00,0.0308
996.00,0.0284
995.00,0.0250
994.00,0.0214
993.00,0.0182
992.00,0.0157
991.00,0.0139
990.00,0.0126
989.00,0.0118
988.00,0.0113
987.00,0.0110
986.00,0.0110
985.00,0.0112
984.00,0.0117
983.00,0.0124
982.00,0.0135
981.00,0.0150
980.00,0.0171
979.00,0.0197
978.00,0.0230
977.00,0.0268
976.00,0.0309
975.00,0.0348
974.00,0.0378
973.00,0.0389
972.00,0.0377
971.00,0.0345
970.00,0.0300
969.00,0.0253
968.00,0.0213
967.00,0.0180
966.00,0.0157
965.00,0.0140
964.00,0.0128
963.00,0.0119
962.00,0.0112
961.00,0.0107
960.00,0.0102
959.00,0.0098
958.00,0.0095
957.00,0.0091
956.00,0.0088
955.00,0.0086
954.00,0.0085
953.00,0.0084
952.00,0.0083
951.00,0.0083
950.00,0.0083
949.00,0.0083
948.00,0.0084
947.00,0.0086
946.00,0.0087
945.00,0.0089
944.00,0.0093
943.00,0.0097
942.00,0.0101
941.00,0.0104
940.00,0.0104
939.00,0.0101
938.00,0.0096
937.00,0.0089
936.00,0.0084
935.00,0.0079
934.00,0.0076
933.00,0.0073
932.00,0.0070
931.00,0.0068
930.00,0.0066
929.00,0.0065
928.00,0.0065
927.00,0.0065
926.00,0.0066
925.00,0.0067
924.00,0.0067
923.00,0.0067
922.00,0.0068
921.00,0.0069
920.00,0.0070
919.00,0.0071
918.00,0.0072
917.00,0.0073
916.00,0.0073
915.00,0.0074
914.00,0.0075
913.00,0.0076
912.00,0.0076
911.00,0.0077
910.00,0.0079
909.00,0.0080
908.00,0.0083
907.00,0.0088
906.00,0.0096
905.00,0.0107
904.00,0.0122
903.00,0.0141
902.00,0.0164
901.00,0.0186
900.00,0.0202
899.00,0.0207
898.00,0.0199
897.00,0.0182
896.00,0.0160
895.00,0.0139
894.00,0.0121
893.00,0.0106
892.00,0.0095
891.00,0.0088
890.00,0.0083
889.00,0.0081
888.00,0.0080
887.00,0.0079
886.00,0.0078
885.00,0.0078
884.00,0.0077
883.00,0.0076
882.00,0.0075
881.00,0.0075
880.00,0.0077
879.00,0.0078
878.00,0.0079
877.00,0.0079
876.00,0.0078
875.00,0.0078
874.00,0.0078
873.00,0.0078
872.00,0.0079
871.00,0.0078
870.00,0.0078
869.00,0.0078
868.00,0.0078
867.00,0.0078
866.00,0.0078
865.00,0.0078
864.00,0.0078
863.00,0.0079
862.00,0.0080
861.00,0.0082
860.00,0.0084
859.00,0.0087
858.00,0.0089
857.00,0.0090
856.00,0.0092
855.00,0.0093
854.00,0.0095
853.00,0.0097
852.00,0.0099
851.00,0.0103
850.00,0.0108
849.00,0.0113
848.00,0.0121
847.00,0.0133
846.00,0.0153
845.00,0.0182
844.00,0.0221
843.00,0.0262
842.00,0.0293
841.00,0.0301
840.00,0.0282
839.00,0.0245
838.00,0.0205
837.00,0.0172
836.00,0.0152
835.00,0.0140
834.00,0.0133
833.00,0.0128
832.00,0.0125
831.00,0.0122
830.00,0.0119
829.00,0.0117
828.00,0.0114
827.00,0.0112
826.00,0.0110
825.00,0.0109
824.00,0.0109
823.00,0.0110
822.00,0.0111
821.00,0.0112
820.00,0.0115
819.00,0.0119
818.00,0.0124
817.00,0.0130
816.00,0.0138
815.00,0.0149
814.00,0.0164
813.00,0.0183
812.00,0.0203
811.00,0.0219
810.00,0.0231
809.00,0.0235
808.00,0.0232
807.00,0.0223
806.00,0.0209
805.00,0.0191
804.00,0.0174
803.00,0.0158
802.00,0.0144
801.00,0.0134
800.00,0.0126
799.00,0.0120
798.00,0.0115
797.00,0.0109
796.00,0.0104
795.00,0.0101
794.00,0.0098
793.00,0.0096
792.00,0.0094
791.00,0.0091
790.00,0.0088
789.00,0.0086
788.00,0.0084
787.00,0.0083
786.00,0.0082
785.00,0.0080
784.00,0.0076
783.00,0.0073
782.00,0.0071
781.00,0.0069
780.00,0.0069
779.00,0.0068
778.00,0.0067
777.00,0.0068
776.00,0.0068
775.00,0.0070
774.00,0.0072
773.00,0.0074
772.00,0.0077
771.00,0.0079
770.00,0.0080
769.00,0.0082
768.00,0.0082
767.00,0.0083
766.00,0.0082
765.00,0.0082
764.00,0.0080
763.00,0.0078
762.00,0.0077
761.00,0.0075
760.00,0.0073
759.00,0.0070
758.00,0.0068
757.00,0.0066
756.00,0.0065
755.00,0.0064
754.00,0.0064
753.00,0.0064
752.00,0.0065
751.00,0.0064
750.00,0.0063
749.00,0.0062
748.00,0.0061
747.00,0.0062
746.00,0.0062
745.00,0.0063
744.00,0.0064
743.00,0.0064
742.00,0.0064
741.00,0.0064
740.00,0.0066
739.00,0.0068
738.00,0.0071
737.00,0.0074
736.00,0.0077
735.00,0.0079
734.00,0.0080
733.00,0.0081
732.00,0.0081
731.00,0.0081
730.00,0.0080
729.00,0.0079
728.00,0.0079
727.00,0.0079
726.00,0.0078
725.00,0.0078
724.00,0.0078
723.00,0.0079
722.00,0.0079
721.00,0.0078
720.00,0.0075
719.00,0.0070
718.00,0.0067
717.00,0.0065
716.00,0.0066
715.00,0.0067
714.00,0.0069
713.00,0.0069
712.00,0.0068
711.00,0.0068
710.00,0.0067
709.00,0.0068
708.00,0.0069
707.00,0.0070
706.00,0.0069
705.00,0.0068
704.00,0.0066
703.00,0.0065
702.00,0.0064
701.00,0.0063
700.00,0.0062
699.00,0.0062
698.00,0.0062
697.00,0.0062
696.00,0.0063
695.00,0.0063
694.00,0.0064
693.00,0.0064
692.00,0.0063
691.00,0.0061
690.00,0.0058
689.00,0.0056
688.00,0.0056
687.00,0.0058
686.00,0.0061
685.00,0.0062
684.00,0.0063
683.00,0.0063
682.00,0.0064
681.00,0.0065
680.00,0.0067
679.00,0.0068
678.00,0.0068
677.00,0.0067
676.00,0.0067
675.00,0.0066
674.00,0.0065
673.00,0.0064
672.00,0.0062
671.00,0.0062
670.00,0.0063
669.00,0.0065
668.00,0.0068
667.00,0.0069
666.00,0.0068
665.00,0.0066
664.00,0.0064
663.00,0.0064
662.00,0.0064
661.00,0.0064
660.00,0.0063
659.00,0.0063
658.00,0.0065
657.00,0.0065
656.00,0.0065
655.00,0.0064
654.00,0.0062
653.00,0.0060
652.00,0.0059
651.00,0.0058
650.00,0.0058
649.00,0.0059
648.00,0.0058
647.00,0.0058
646.00,0.0059
645.00,0.0061
644.00,0.0063
643.00,0.0064
642.00,0.0065
641.00,0.0065
640.00,0.0065
639.00,0.0064
638.00,0.0063
637.00,0.0064
636.00,0.0064
635.00,0.0063
634.00,0.0063
633.00,0.0062
632.00,0.0062
631.00,0.0064
630.00,0.0066
629.00,0.0066
628.00,0.0065
627.00,0.0065
626.00,0.0067
625.00,0.0069
624.00,0.0069
623.00,0.0068
622.00,0.0065
621.00,0.0064
620.00,0.0063
619.00,0.0063
618.00,0.0064
617.00,0.0065
616.00,0.0067
615.00,0.0068
614.00,0.0066
613.00,0.0064
612.00,0.0063
611.00,0.0064
610.00,0.0066
609.00,0.0067
608.00,0.0066
607.00,0.0063
606.00,0.0061
605.00,0.0061
604.00,0.0062
603.00,0.0063
602.00,0.0064
601.00,0.0064
600.00,0.0063
599.00,0.0063
598.00,0.0062
597.00,0.0061
596.00,0.0059
595.00,0.0060
594.00,0.0062
593.00,0.0063
592.00,0.0064
591.00,0.0066
590.00,0.0069
589.00,0.0073
588.00,0.0076
587.00,0.0076
586.00,0.0073
585.00,0.0070
584.00,0.0069
583.00,0.0071
582.00,0.0073
581.00,0.0072
580.00,0.0069
579.00,0.0066
578.00,0.0065
577.00,0.0068
576.00,0.0072
575.00,0.0075
574.00,0.0076
573.00,0.0076
572.00,0.0074
571.00,0.0074
570.00,0.0075
569.00,0.0077
568.00,0.0079
567.00,0.0078
566.00,0.0075
565.00,0.0071
564.00,0.0067
563.00,0.0063
562.00,0.0063
561.00,0.0065
560.00,0.0070
559.00,0.0073
558.00,0.0075
557.00,0.0076
556.00,0.0077
555.00,0.0076
554.00,0.0071
553.00,0.0065
552.00,0.0060
551.00,0.0058
550.00,0.0061
549.00,0.0064
548.00,0.0066
547.00,0.0066
546.00,0.0065
545.00,0.0064
544.00,0.0065
543.00,0.0069
542.00,0.0073
541.00,0.0075
540.00,0.0076
539.00,0.0077
538.00,0.0078
537.00,0.0082
536.00,0.0086
535.00,0.0089
534.00,0.0090
533.00,0.0090
532.00,0.0089
531.00,0.0087
530.00,0.0086
529.00,0.0089
528.00,0.0096
527.00,0.0103
526.00,0.0103
525.00,0.0097
524.00,0.0090
523.00,0.0085
522.00,0.0082
521.00,0.0080
520.00,0.0076
519.00,0.0072
518.00,0.0069
517.00,0.0068
516.00,0.0069
515.00,0.0071
514.00,0.0073
513.00,0.0073
512.00,0.0072
511.00,0.0069
510.00,0.0067
509.00,0.0066
508.00,0.0066
507.00,0.0067
506.00,0.0068
505.00,0.0069
504.00,0.0068
503.00,0.0067
502.00,0.0066
501.00,0.0068
500.00,0.0071
499.00,0.0073
498.00,0.0071
497.00,0.0067
496.00,0.0065
495.00,0.0066
494.00,0.0071
493.00,0.0075
492.00,0.0075
491.00,0.0072
490.00,0.0068
489.00,0.0068
488.00,0.0070
487.00,0.0074
486.00,0.0075
485.00,0.0075
484.00,0.0079
483.00,0.0087
482.00,0.0095
481.00,0.0097
480.00,0.0093
479.00,0.0089
478.00,0.0090
477.00,0.0092
476.00,0.0093
475.00,0.0091
474.00,0.0091
473.00,0.0095
472.00,0.0098
471.00,0.0097
470.00,0.0093
469.00,0.0090
468.00,0.0091
467.00,0.0096
466.00,0.0106
465.00,0.0119
464.00,0.0131
463.00,0.0142
462.00,0.0150
461.00,0.0155
460.00,0.0158
459.00,0.0158
458.00,0.0155
457.00,0.0151
456.00,0.0146
455.00,0.0140
454.00,0.0129
453.00,0.0117
452.00,0.0106
451.00,0.0099
450.00,0.0095
