Created as New Dataset,Sample 009 By Administrator Date Wednesday, September 10 2025
cm-1,A
4000.00,0.0009
3999.00,0.0009
3998.00,0.0008
3997.00,0.0008
3996.00,0.0008
3995.00,0.0009
3994.00,0.0009
3993.00,0.0009
3992.00,0.0010
3991.00,0.0009
3990.00,0.0009
3989.00,0.0009
3988.00,0.0008
3987.00,0.0008
3986.00,0.0008
3985.00,0.0008
3984.00,0.0007
3983.00,0.0007
3982.00,0.0007
3981.00,0.0007
3980.00,0.0007
3979.00,0.0008
3978.00,0.0008
3977.00,0.0008
3976.00,0.0008
3975.00,0.0008
3974.00,0.0008
3973.00,0.0007
3972.00,0.0007
3971.00,0.0007
3970.00,0.0006
3969.00,0.0006
3968.00,0.0007
3967.00,0.0007
3966.00,0.0007
3965.00,0.0007
3964.00,0.0007
3963.00,0.0007
3962.00,0.0007
3961.00,0.0006
3960.00,0.0006
3959.00,0.0006
3958.00,0.0006
3957.00,0.0006
3956.00,0.0006
3955.00,0.0006
3954.00,0.0006
3953.00,0.0006
3952.00,0.0006
3951.00,0.0006
3950.00,0.0006
3949.00,0.0006
3948.00,0.0006
3947.00,0.0006
3946.00,0.0006
3945.00,0.0006
3944.00,0.0006
3943.00,0.0006
3942.00,0.0007
3941.00,0.0007
3940.00,0.0007
3939.00,0.0007
3938.00,0.0007
3937.00,0.0007
3936.00,0.0007
3935.00,0.0007
3934.00,0.0007
3933.00,0.0006
3932.00,0.0006
3931.00,0.0006
3930.00,0.0006
3929.00,0.0006
3928.00,0.0006
3927.00,0.0006
3926.00,0.0006
3925.00,0.0006
3924.00,0.0006
3923.00,0.0006
3922.00,0.0006
3921.00,0.0006
3920.00,0.0006
3919.00,0.0006
3918.00,0.0006
3917.00,0.0006
3916.00,0.0006
3915.00,0.0006
3914.00,0.0006
3913.00,0.0006
3912.00,0.0006
3911.00,0.0007
3910.00,0.0007
3909.00,0.0006
3908.00,0.0006
3907.00,0.0006
3906.00,0.0005
3905.00,0.0004
3904.00,0.0004
3903.00,0.0004
3902.00,0.0004
3901.00,0.0005
3900.00,0.0005
3899.00,0.0006
3898.00,0.0006
3897.00,0.0006
3896.00,0.0007
3895.00,0.0007
3894.00,0.0007
3893.00,0.0007
3892.00,0.0006
3891.00,0.0006
3890.00,0.0006
3889.00,0.0005
3888.00,0.0005
3887.00,0.0005
3886.00,0.0005
3885.00,0.0005
3884.00,0.0005
3883.00,0.0005
3882.00,0.0005
3881.00,0.0005
3880.00,0.0005
3879.00,0.0006
3878.00,0.0006
3877.00,0.0006
3876.00,0.0006
3875.00,0.0006
3874.00,0.0006
3873.00,0.0006
3872.00,0.0005
3871.00,0.0005
3870.00,0.0005
3869.00,0.0005
3868.00,0.0005
3867.00,0.0006
3866.00,0.0006
3865.00,0.0006
3864.00,0.0006
3863.00,0.0006
3862.00,0.0006
3861.00,0.0006
3860.00,0.0006
3859.00,0.0006
3858.00,0.0006
3857.00,0.0006
3856.00,0.0005
3855.00,0.0005
3854.00,0.0004
3853.00,0.0004
3852.00,0.0004
3851.00,0.0004
3850.00,0.0005
3849.00,0.0005
3848.00,0.0005
3847.00,0.0006
3846.00,0.0006
3845.00,0.0006
3844.00,0.0006
3843.00,0.0005
3842.00,0.0005
3841.00,0.0005
3840.00,0.0005
3839.00,0.0005
3838.00,0.0005
3837.00,0.0005
3836.00,0.0005
3835.00,0.0005
3834.00,0.0005
3833.00,0.0005
3832.00,0.0006
3831.00,0.0006
3830.00,0.0006
3829.00,0.0006
3828.00,0.0006
3827.00,0.0006
3826.00,0.0006
3825.00,0.0007
3824.00,0.0007
3823.00,0.0007
3822.00,0.0007
3821.00,0.0007
3820.00,0.0007
3819.00,0.0007
3818.00,0.0007
3817.00,0.0007
3816.00,0.0007
3815.00,0.0007
3814.00,0.0006
3813.00,0.0006
3812.00,0.0006
3811.00,0.0006
3810.00,0.0006
3809.00,0.0005
3808.00,0.0005
3807.00,0.0005
3806.00,0.0005
3805.00,0.0006
3804.00,0.0006
3803.00,0.0006
3802.00,0.0006
3801.00,0.0007
3800.00,0.0007
3799.00,0.0007
3798.00,0.0007
3797.00,0.0006
3796.00,0.0006
3795.00,0.0006
3794.00,0.0006
3793.00,0.0006
3792.00,0.0005
3791.00,0.0005
3790.00,0.0005
3789.00,0.0005
3788.00,0.0005
3787.00,0.0005
3786.00,0.0005
3785.00,0.0006
3784.00,0.0006
3783.00,0.0006
3782.00,0.0006
3781.00,0.0006
3780.00,0.0006
3779.00,0.0006
3778.00,0.0006
3777.00,0.0006
3776.00,0.0006
3775.00,0.0006
3774.00,0.0007
3773.00,0.0007
3772.00,0.0007
3771.00,0.0007
3770.00,0.0006
3769.00,0.0006
3768.00,0.0006
3767.00,0.0006
3766.00,0.0007
3765.00,0.0007
3764.00,0.0007
3763.00,0.0007
3762.00,0.0007
3761.00,0.0007
3760.00,0.0007
3759.00,0.0007
3758.00,0.0007
3757.00,0.0006
3756.00,0.0006
3755.00,0.0005
3754.00,0.0005
3753.00,0.0005
3752.00,0.0005
3751.00,0.0004
3750.00,0.0004
3749.00,0.0004
3748.00,0.0005
3747.00,0.0005
3746.00,0.0005
3745.00,0.0005
3744.00,0.0004
3743.00,0.0004
3742.00,0.0004
3741.00,0.0003
3740.00,0.0003
3739.00,0.0003
3738.00,0.0003
3737.00,0.0003
3736.00,0.0004
3735.00,0.0005
3734.00,0.0005
3733.00,0.0004
3732.00,0.0004
3731.00,0.0003
3730.00,0.0003
3729.00,0.0003
3728.00,0.0002
3727.00,0.0002
3726.00,0.0002
3725.00,0.0002
3724.00,0.0003
3723.00,0.0003
3722.00,0.0003
3721.00,0.0003
3720.00,0.0004
3719.00,0.0004
3718.00,0.0004
3717.00,0.0004
3716.00,0.0004
3715.00,0.0005
3714.00,0.0005
3713.00,0.0005
3712.00,0.0005
3711.00,0.0006
3710.00,0.0006
3709.00,0.0005
3708.00,0.0005
3707.00,0.0005
3706.00,0.0005
3705.00,0.0004
3704.00,0.0004
3703.00,0.0004
3702.00,0.0005
3701.00,0.0005
3700.00,0.0005
3699.00,0.0004
3698.00,0.0003
3697.00,0.0003
3696.00,0.0003
3695.00,0.0004
3694.00,0.0004
3693.00,0.0004
3692.00,0.0003
3691.00,0.0003
3690.00,0.0003
3689.00,0.0003
3688.00,0.0003
3687.00,0.0003
3686.00,0.0003
3685.00,0.0003
3684.00,0.0003
3683.00,0.0003
3682.00,0.0003
3681.00,0.0004
3680.00,0.0004
3679.00,0.0004
3678.00,0.0003
3677.00,0.0003
3676.00,0.0003
3675.00,0.0003
3674.00,0.0002
3673.00,0.0002
3672.00,0.0001
3671.00,0.0001
3670.00,0.0001
3669.00,0.0001
3668.00,0.0002
3667.00,0.0002
3666.00,0.0002
3665.00,0.0002
3664.00,0.0003
3663.00,0.0003
3662.00,0.0004
3661.00,0.0004
3660.00,0.0004
3659.00,0.0004
3658.00,0.0003
3657.00,0.0003
3656.00,0.0002
3655.00,0.0002
3654.00,0.0002
3653.00,0.0002
3652.00,0.0001
3651.00,0.0001
3650.00,0.0001
3649.00,0.0002
3648.00,0.0003
3647.00,0.0003
3646.00,0.0003
3645.00,0.0003
3644.00,0.0003
3643.00,0.0003
3642.00,0.0004
3641.00,0.0004
3640.00,0.0004
3639.00,0.0004
3638.00,0.0005
3637.00,0.0005
3636.00,0.0004
3635.00,0.0004
3634.00,0.0004
3633.00,0.0003
3632.00,0.0003
3631.00,0.0003
3630.00,0.0003
3629.00,0.0003
3628.00,0.0003
3627.00,0.0003
3626.00,0.0004
3625.00,0.0004
3624.00,0.0004
3623.00,0.0004
3622.00,0.0004
3621.00,0.0004
3620.00,0.0004
3619.00,0.0004
3618.00,0.0004
3617.00,0.0004
3616.00,0.0004
3615.00,0.0004
3614.00,0.0004
3613.00,0.0005
3612.00,0.0005
3611.00,0.0005
3610.00,0.0005
3609.00,0.0005
3608.00,0.0005
3607.00,0.0005
3606.00,0.0005
3605.00,0.0005
3604.00,0.0005
3603.00,0.0005
3602.00,0.0005
3601.00,0.0006
3600.00,0.0006
3599.00,0.0006
3598.00,0.0007
3597.00,0.0007
3596.00,0.0007
3595.00,0.0007
3594.00,0.0007
3593.00,0.0007
3592.00,0.0007
3591.00,0.0007
3590.00,0.0006
3589.00,0.0005
3588.00,0.0005
3587.00,0.0006
3586.00,0.0007
3585.00,0.0007
3584.00,0.0008
3583.00,0.0008
3582.00,0.0008
3581.00,0.0008
3580.00,0.0008
3579.00,0.0008
3578.00,0.0008
3577.00,0.0008
3576.00,0.0009
3575.00,0.0009
3574.00,0.0009
3573.00,0.0009
3572.00,0.0009
3571.00,0.0009
3570.00,0.0008
3569.00,0.0008
3568.00,0.0008
3567.00,0.0009
3566.00,0.0010
3565.00,0.0011
3564.00,0.0011
3563.00,0.0011
3562.00,0.0011
3561.00,0.0011
3560.00,0.0011
3559.00,0.0011
3558.00,0.0012
3557.00,0.0012
3556.00,0.0012
3555.00,0.0012
3554.00,0.0012
3553.00,0.0013
3552.00,0.0013
3551.00,0.0013
3550.00,0.0013
3549.00,0.0013
3548.00,0.0013
3547.00,0.0014
3546.00,0.0014
3545.00,0.0014
3544.00,0.0015
3543.00,0.0015
3542.00,0.0015
3541.00,0.0016
3540.00,0.0016
3539.00,0.0016
3538.00,0.0016
3537.00,0.0017
3536.00,0.0017
3535.00,0.0017
3534.00,0.0017
3533.00,0.0017
3532.00,0.0017
3531.00,0.0017
3530.00,0.0017
3529.00,0.0017
3528.00,0.0017
3527.00,0.0017
3526.00,0.0017
3525.00,0.0018
3524.00,0.0018
3523.00,0.0018
3522.00,0.0018
3521.00,0.0019
3520.00,0.0019
3519.00,0.0019
3518.00,0.0019
3517.00,0.0019
3516.00,0.0019
3515.00,0.0020
3514.00,0.0020
3513.00,0.0020
3512.00,0.0020
3511.00,0.0020
3510.00,0.0020
3509.00,0.0020
3508.00,0.0021
3507.00,0.0021
3506.00,0.0021
3505.00,0.0021
3504.00,0.0021
3503.00,0.0021
3502.00,0.0021
3501.00,0.0022
3500.00,0.0022
3499.00,0.0022
3498.00,0.0022
3497.00,0.0022
3496.00,0.0022
3495.00,0.0023
3494.00,0.0023
3493.00,0.0023
3492.00,0.0023
3491.00,0.0024
3490.00,0.0024
3489.00,0.0024
3488.00,0.0025
3487.00,0.0025
3486.00,0.0024
3485.00,0.0024
3484.00,0.0024
3483.00,0.0024
3482.00,0.0024
3481.00,0.0025
3480.00,0.0025
3479.00,0.0026
3478.00,0.0026
3477.00,0.0026
3476.00,0.0027
3475.00,0.0027
3474.00,0.0027
3473.00,0.0027
3472.00,0.0027
3471.00,0.0027
3470.00,0.0028
3469.00,0.0028
3468.00,0.0028
3467.00,0.0028
3466.00,0.0028
3465.00,0.0029
3464.00,0.0029
3463.00,0.0029
3462.00,0.0029
3461.00,0.0030
3460.00,0.0030
3459.00,0.0030
3458.00,0.0030
3457.00,0.0030
3456.00,0.0030
3455.00,0.0030
3454.00,0.0030
3453.00,0.0029
3452.00,0.0029
3451.00,0.0030
3450.00,0.0030
3449.00,0.0030
3448.00,0.0031
3447.00,0.0031
3446.00,0.0032
3445.00,0.0032
3444.00,0.0032
3443.00,0.0032
3442.00,0.0032
3441.00,0.0033
3440.00,0.0033
3439.00,0.0033
3438.00,0.0033
3437.00,0.0034
3436.00,0.0034
3435.00,0.0033
3434.00,0.0033
3433.00,0.0033
3432.00,0.0033
3431.00,0.0034
3430.00,0.0034
3429.00,0.0034
3428.00,0.0034
3427.00,0.0034
3426.00,0.0034
3425.00,0.0035
3424.00,0.0035
3423.00,0.0035
3422.00,0.0035
3421.00,0.0036
3420.00,0.0036
3419.00,0.0036
3418.00,0.0037
3417.00,0.0037
3416.00,0.0037
3415.00,0.0037
3414.00,0.0037
3413.00,0.0038
3412.00,0.0038
3411.00,0.0038
3410.00,0.0038
3409.00,0.0038
3408.00,0.0038
3407.00,0.0038
3406.00,0.0037
3405.00,0.0037
3404.00,0.0037
3403.00,0.0037
3402.00,0.0037
3401.00,0.0038
3400.00,0.0038
3399.00,0.0038
3398.00,0.0038
3397.00,0.0038
3396.00,0.0038
3395.00,0.0038
3394.00,0.0038
3393.00,0.0038
3392.00,0.0039
3391.00,0.0039
3390.00,0.0039
3389.00,0.0039
3388.00,0.0039
3387.00,0.0039
3386.00,0.0039
3385.00,0.0039
3384.00,0.0039
3383.00,0.0039
3382.00,0.0039
3381.00,0.0039
3380.00,0.0039
3379.00,0.0039
3378.00,0.0039
3377.00,0.0039
3376.00,0.0039
3375.00,0.0040
3374.00,0.0040
3373.00,0.0040
3372.00,0.0040
3371.00,0.0041
3370.00,0.0041
3369.00,0.0040
3368.00,0.0040
3367.00,0.0040
3366.00,0.0040
3365.00,0.0040
3364.00,0.0040
3363.00,0.0040
3362.00,0.0040
3361.00,0.0040
3360.00,0.0039
3359.00,0.0039
3358.00,0.0040
3357.00,0.0040
3356.00,0.0040
3355.00,0.0041
3354.00,0.0041
3353.00,0.0041
3352.00,0.0041
3351.00,0.0041
3350.00,0.0042
3349.00,0.0042
3348.00,0.0042
3347.00,0.0042
3346.00,0.0042
3345.00,0.0041
3344.00,0.0041
3343.00,0.0041
3342.00,0.0041
3341.00,0.0041
3340.00,0.0041
3339.00,0.0040
3338.00,0.0040
3337.00,0.0040
3336.00,0.0040
3335.00,0.0040
3334.00,0.0041
3333.00,0.0041
3332.00,0.0041
3331.00,0.0041
3330.00,0.0041
3329.00,0.0041
3328.00,0.0040
3327.00,0.0040
3326.00,0.0040
3325.00,0.0040
3324.00,0.0040
3323.00,0.0040
3322.00,0.0041
3321.00,0.0040
3320.00,0.0040
3319.00,0.0040
3318.00,0.0040
3317.00,0.0039
3316.00,0.0040
3315.00,0.0040
3314.00,0.0040
3313.00,0.0040
3312.00,0.0040
3311.00,0.0039
3310.00,0.0039
3309.00,0.0039
3308.00,0.0039
3307.00,0.0039
3306.00,0.0040
3305.00,0.0040
3304.00,0.0039
3303.00,0.0039
3302.00,0.0039
3301.00,0.0039
3300.00,0.0040
3299.00,0.0040
3298.00,0.0040
3297.00,0.0039
3296.00,0.0039
3295.00,0.0039
3294.00,0.0039
3293.00,0.0039
3292.00,0.0039
3291.00,0.0039
3290.00,0.0039
3289.00,0.0039
3288.00,0.0039
3287.00,0.0039
3286.00,0.0039
3285.00,0.0038
3284.00,0.0038
3283.00,0.0038
3282.00,0.0038
3281.00,0.0038
3280.00,0.0038
3279.00,0.0038
3278.00,0.0038
3277.00,0.0038
3276.00,0.0038
3275.00,0.0038
3274.00,0.0038
3273.00,0.0038
3272.00,0.0038
3271.00,0.0037
3270.00,0.0037
3269.00,0.0037
3268.00,0.0037
3267.00,0.0037
3266.00,0.0037
3265.00,0.0037
3264.00,0.0037
3263.00,0.0037
3262.00,0.0037
3261.00,0.0037
3260.00,0.0036
3259.00,0.0036
3258.00,0.0036
3257.00,0.0036
3256.00,0.0036
3255.00,0.0035
3254.00,0.0035
3253.00,0.0035
3252.00,0.0034
3251.00,0.0034
3250.00,0.0034
3249.00,0.0034
3248.00,0.0034
3247.00,0.0034
3246.00,0.0035
3245.00,0.0035
3244.00,0.0035
3243.00,0.0035
3242.00,0.0035
3241.00,0.0035
3240.00,0.0035
3239.00,0.0035
3238.00,0.0035
3237.00,0.0035
3236.00,0.0035
3235.00,0.0035
3234.00,0.0035
3233.00,0.0035
3232.00,0.0035
3231.00,0.0035
3230.00,0.0035
3229.00,0.0034
3228.00,0.0034
3227.00,0.0035
3226.00,0.0035
3225.00,0.0036
3224.00,0.0036
3223.00,0.0036
3222.00,0.0036
3221.00,0.0036
3220.00,0.0037
3219.00,0.0037
3218.00,0.0038
3217.00,0.0038
3216.00,0.0039
3215.00,0.0039
3214.00,0.0039
3213.00,0.0039
3212.00,0.0039
3211.00,0.0039
3210.00,0.0039
3209.00,0.0040
3208.00,0.0040
3207.00,0.0040
3206.00,0.0040
3205.00,0.0040
3204.00,0.0040
3203.00,0.0040
3202.00,0.0040
3201.00,0.0040
3200.00,0.0040
3199.00,0.0040
3198.00,0.0040
3197.00,0.0040
3196.00,0.0039
3195.00,0.0039
3194.00,0.0039
3193.00,0.0040
3192.00,0.0040
3191.00,0.0040
3190.00,0.0040
3189.00,0.0040
3188.00,0.0040
3187.00,0.0040
3186.00,0.0039
3185.00,0.0039
3184.00,0.0039
3183.00,0.0039
3182.00,0.0038
3181.00,0.0038
3180.00,0.0038
3179.00,0.0038
3178.00,0.0037
3177.00,0.0037
3176.00,0.0037
3175.00,0.0036
3174.00,0.0036
3173.00,0.0036
3172.00,0.0036
3171.00,0.0036
3170.00,0.0036
3169.00,0.0036
3168.00,0.0036
3167.00,0.0036
3166.00,0.0036
3165.00,0.0037
3164.00,0.0036
3163.00,0.0036
3162.00,0.0036
3161.00,0.0036
3160.00,0.0035
3159.00,0.0035
3158.00,0.0034
3157.00,0.0034
3156.00,0.0035
3155.00,0.0035
3154.00,0.0035
3153.00,0.0036
3152.00,0.0035
3151.00,0.0035
3150.00,0.0035
3149.00,0.0035
3148.00,0.0036
3147.00,0.0036
3146.00,0.0036
3145.00,0.0036
3144.00,0.0036
3143.00,0.0036
3142.00,0.0036
3141.00,0.0036
3140.00,0.0035
3139.00,0.0035
3138.00,0.0034
3137.00,0.0034
3136.00,0.0034
3135.00,0.0035
3134.00,0.0035
3133.00,0.0035
3132.00,0.0035
3131.00,0.0035
3130.00,0.0034
3129.00,0.0034
3128.00,0.0033
3127.00,0.0033
3126.00,0.0033
3125.00,0.0033
3124.00,0.0032
3123.00,0.0032
3122.00,0.0032
3121.00,0.0031
3120.00,0.0031
3119.00,0.0031
3118.00,0.0031
3117.00,0.0031
3116.00,0.0031
3115.00,0.0030
3114.00,0.0030
3113.00,0.0030
3112.00,0.0029
3111.00,0.0029
3110.00,0.0029
3109.00,0.0029
3108.00,0.0029
3107.00,0.0029
3106.00,0.0029
3105.00,0.0028
3104.00,0.0028
3103.00,0.0028
3102.00,0.0028
3101.00,0.0028
3100.00,0.0028
3099.00,0.0028
3098.00,0.0028
3097.00,0.0029
3096.00,0.0029
3095.00,0.0029
3094.00,0.0028
3093.00,0.0028
3092.00,0.0028
3091.00,0.0028
3090.00,0.0028
3089.00,0.0028
3088.00,0.0028
3087.00,0.0028
3086.00,0.0028
3085.00,0.0027
3084.00,0.0027
3083.00,0.0027
3082.00,0.0027
3081.00,0.0027
3080.00,0.0027
3079.00,0.0027
3078.00,0.0027
3077.00,0.0027
3076.00,0.0028
3075.00,0.0028
3074.00,0.0027
3073.00,0.0027
3072.00,0.0028
3071.00,0.0028
3070.00,0.0028
3069.00,0.0029
3068.00,0.0029
3067.00,0.0029
3066.00,0.0029
3065.00,0.0029
3064.00,0.0029
3063.00,0.0030
3062.00,0.0030
3061.00,0.0030
3060.00,0.0030
3059.00,0.0029
3058.00,0.0029
3057.00,0.0029
3056.00,0.0029
3055.00,0.0029
3054.00,0.0029
3053.00,0.0029
3052.00,0.0029
3051.00,0.0030
3050.00,0.0030
3049.00,0.0031
3048.00,0.0031
3047.00,0.0031
3046.00,0.0031
3045.00,0.0032
3044.00,0.0032
3043.00,0.0032
3042.00,0.0033
3041.00,0.0033
3040.00,0.0033
3039.00,0.0034
3038.00,0.0034
3037.00,0.0034
3036.00,0.0034
3035.00,0.0034
3034.00,0.0034
3033.00,0.0034
3032.00,0.0035
3031.00,0.0035
3030.00,0.0036
3029.00,0.0037
3028.00,0.0037
3027.00,0.0038
3026.00,0.0039
3025.00,0.0039
3024.00,0.0040
3023.00,0.0041
3022.00,0.0041
3021.00,0.0042
3020.00,0.0043
3019.00,0.0044
3018.00,0.0044
3017.00,0.0045
3016.00,0.0046
3015.00,0.0047
3014.00,0.0048
3013.00,0.0049
3012.00,0.0050
3011.00,0.0051
3010.00,0.0052
3009.00,0.0054
3008.00,0.0055
3007.00,0.0057
3006.00,0.0059
3005.00,0.0061
3004.00,0.0063
3003.00,0.0065
3002.00,0.0068
3001.00,0.0070
3000.00,0.0072
2999.00,0.0075
2998.00,0.0078
2997.00,0.0082
2996.00,0.0086
2995.00,0.0090
2994.00,0.0095
2993.00,0.0100
2992.00,0.0106
2991.00,0.0112
2990.00,0.0119
2989.00,0.0127
2988.00,0.0135
2987.00,0.0145
2986.00,0.0156
2985.00,0.0168
2984.00,0.0181
2983.00,0.0196
2982.00,0.0213
2981.00,0.0232
2980.00,0.0254
2979.00,0.0279
2978.00,0.0307
2977.00,0.0339
2976.00,0.0375
2975.00,0.0417
2974.00,0.0465
2973.00,0.0519
2972.00,0.0580
2971.00,0.0648
2970.00,0.0725
2969.00,0.0811
2968.00,0.0905
2967.00,0.1007
2966.00,0.1116
2965.00,0.1230
2964.00,0.1346
2963.00,0.1460
2962.00,0.1565
2961.00,0.1657
2960.00,0.1732
2959.00,0.1789
2958.00,0.1830
2957.00,0.1861
2956.00,0.1887
2955.00,0.1916
2954.00,0.1948
2953.00,0.1984
2952.00,0.2016
2951.00,0.2035
2950.00,0.2032
2949.00,0.1999
2948.00,0.1930
2947.00,0.1828
2946.00,0.1702
2945.00,0.1564
2944.00,0.1429
2943.00,0.1308
2942.00,0.1210
2941.00,0.1138
2940.00,0.1092
2939.00,0.1070
2938.00,0.1069
2937.00,0.1088
2936.00,0.1123
2935.00,0.1174
2934.00,0.1239
2933.00,0.1315
2932.00,0.1403
2931.00,0.1497
2930.00,0.1597
2929.00,0.1698
2928.00,0.1798
2927.00,0.1893
2926.00,0.1982
2925.00,0.2066
2924.00,0.2146
2923.00,0.2223
2922.00,0.2299
2921.00,0.2372
2920.00,0.2436
2919.00,0.2486
2918.00,0.2514
2917.00,0.2515
2916.00,0.2488
2915.00,0.2437
2914.00,0.2367
2913.00,0.2289
2912.00,0.2208
2911.00,0.2131
2910.00,0.2061
2909.00,0.1997
2908.00,0.1938
2907.00,0.1879
2906.00,0.1820
2905.00,0.1757
2904.00,0.1690
2903.00,0.1621
2902.00,0.1550
2901.00,0.1480
2900.00,0.1411
2899.00,0.1345
2898.00,0.1283
2897.00,0.1227
2896.00,0.1178
2895.00,0.1136
2894.00,0.1102
2893.00,0.1076
2892.00,0.1056
2891.00,0.1042
2890.00,0.1035
2889.00,0.1032
2888.00,0.1033
2887.00,0.1038
2886.00,0.1047
2885.00,0.1060
2884.00,0.1077
2883.00,0.1098
2882.00,0.1122
2881.00,0.1149
2880.00,0.1175
2879.00,0.1196
2878.00,0.1210
2877.00,0.1215
2876.00,0.1210
2875.00,0.1201
2874.00,0.1192
2873.00,0.1188
2872.00,0.1192
2871.00,0.1203
2870.00,0.1220
2869.00,0.1238
2868.00,0.1248
2867.00,0.1243
2866.00,0.1216
2865.00,0.1164
2864.00,0.1089
2863.00,0.1001
2862.00,0.0909
2861.00,0.0822
2860.00,0.0747
2859.00,0.0686
2858.00,0.0641
2857.00,0.0608
2856.00,0.0587
2855.00,0.0576
2854.00,0.0573
2853.00,0.0577
2852.00,0.0587
2851.00,0.0604
2850.00,0.0627
2849.00,0.0657
2848.00,0.0694
2847.00,0.0739
2846.00,0.0793
2845.00,0.0857
2844.00,0.0930
2843.00,0.1009
2842.00,0.1090
2841.00,0.1167
2840.00,0.1232
2839.00,0.1276
2838.00,0.1288
2837.00,0.1263
2836.00,0.1202
2835.00,0.1110
2834.00,0.0999
2833.00,0.0881
2832.00,0.0769
2831.00,0.0669
2830.00,0.0584
2829.00,0.0515
2828.00,0.0459
2827.00,0.0413
2826.00,0.0377
2825.00,0.0346
2824.00,0.0321
2823.00,0.0300
2822.00,0.0282
2821.00,0.0266
2820.00,0.0252
2819.00,0.0241
2818.00,0.0230
2817.00,0.0221
2816.00,0.0213
2815.00,0.0206
2814.00,0.0200
2813.00,0.0194
2812.00,0.0189
2811.00,0.0183
2810.00,0.0178
2809.00,0.0173
2808.00,0.0167
2807.00,0.0161
2806.00,0.0154
2805.00,0.0147
2804.00,0.0141
2803.00,0.0135
2802.00,0.0129
2801.00,0.0124
2800.00,0.0120
2799.00,0.0117
2798.00,0.0115
2797.00,0.0113
2796.00,0.0111
2795.00,0.0108
2794.00,0.0105
2793.00,0.0103
2792.00,0.0100
2791.00,0.0096
2790.00,0.0093
2789.00,0.0089
2788.00,0.0086
2787.00,0.0082
2786.00,0.0079
2785.00,0.0076
2784.00,0.0074
2783.00,0.0072
2782.00,0.0070
2781.00,0.0068
2780.00,0.0066
2779.00,0.0064
2778.00,0.0062
2777.00,0.0061
2776.00,0.0060
2775.00,0.0059
2774.00,0.0058
2773.00,0.0057
2772.00,0.0056
2771.00,0.0056
2770.00,0.0055
2769.00,0.0055
2768.00,0.0055
2767.00,0.0055
2766.00,0.0054
2765.00,0.0054
2764.00,0.0053
2763.00,0.0053
2762.00,0.0053
2761.00,0.0052
2760.00,0.0052
2759.00,0.0051
2758.00,0.0051
2757.00,0.0050
2756.00,0.0050
2755.00,0.0050
2754.00,0.0050
2753.00,0.0050
2752.00,0.0050
2751.00,0.0050
2750.00,0.0050
2749.00,0.0050
2748.00,0.0050
2747.00,0.0050
2746.00,0.0051
2745.00,0.0051
2744.00,0.0052
2743.00,0.0053
2742.00,0.0054
2741.00,0.0056
2740.00,0.0057
2739.00,0.0058
2738.00,0.0060
2737.00,0.0061
2736.00,0.0063
2735.00,0.0064
2734.00,0.0066
2733.00,0.0067
2732.00,0.0069
2731.00,0.0071
2730.00,0.0074
2729.00,0.0076
2728.00,0.0079
2727.00,0.0081
2726.00,0.0084
2725.00,0.0086
2724.00,0.0088
2723.00,0.0088
2722.00,0.0088
2721.00,0.0085
2720.00,0.0083
2719.00,0.0079
2718.00,0.0076
2717.00,0.0073
2716.00,0.0070
2715.00,0.0067
2714.00,0.0064
2713.00,0.0062
2712.00,0.0060
2711.00,0.0058
2710.00,0.0057
2709.00,0.0056
2708.00,0.0054
2707.00,0.0053
2706.00,0.0052
2705.00,0.0050
2704.00,0.0049
2703.00,0.0049
2702.00,0.0048
2701.00,0.0047
2700.00,0.0046
2699.00,0.0045
2698.00,0.0044
2697.00,0.0044
2696.00,0.0044
2695.00,0.0044
2694.00,0.0044
2693.00,0.0044
2692.00,0.0044
2691.00,0.0044
2690.00,0.0044
2689.00,0.0044
2688.00,0.0044
2687.00,0.0044
2686.00,0.0044
2685.00,0.0044
2684.00,0.0044
2683.00,0.0044
2682.00,0.0044
2681.00,0.0044
2680.00,0.0044
2679.00,0.0044
2678.00,0.0045
2677.00,0.0045
2676.00,0.0045
2675.00,0.0045
2674.00,0.0045
2673.00,0.0044
2672.00,0.0044
2671.00,0.0044
2670.00,0.0044
2669.00,0.0043
2668.00,0.0043
2667.00,0.0043
2666.00,0.0043
2665.00,0.0044
2664.00,0.0044
2663.00,0.0045
2662.00,0.0046
2661.00,0.0046
2660.00,0.0047
2659.00,0.0047
2658.00,0.0047
2657.00,0.0047
2656.00,0.0046
2655.00,0.0045
2654.00,0.0045
2653.00,0.0044
2652.00,0.0044
2651.00,0.0043
2650.00,0.0043
2649.00,0.0042
2648.00,0.0042
2647.00,0.0042
2646.00,0.0041
2645.00,0.0041
2644.00,0.0040
2643.00,0.0040
2642.00,0.0039
2641.00,0.0039
2640.00,0.0038
2639.00,0.0038
2638.00,0.0037
2637.00,0.0037
2636.00,0.0037
2635.00,0.0036
2634.00,0.0036
2633.00,0.0036
2632.00,0.0036
2631.00,0.0036
2630.00,0.0036
2629.00,0.0036
2628.00,0.0037
2627.00,0.0037
2626.00,0.0038
2625.00,0.0039
2624.00,0.0040
2623.00,0.0040
2622.00,0.0040
2621.00,0.0040
2620.00,0.0040
2619.00,0.0039
2618.00,0.0040
2617.00,0.0040
2616.00,0.0040
2615.00,0.0040
2614.00,0.0039
2613.00,0.0038
2612.00,0.0038
2611.00,0.0037
2610.00,0.0036
2609.00,0.0036
2608.00,0.0036
2607.00,0.0035
2606.00,0.0035
2605.00,0.0034
2604.00,0.0033
2603.00,0.0032
2602.00,0.0032
2601.00,0.0031
2600.00,0.0031
2599.00,0.0031
2598.00,0.0031
2597.00,0.0032
2596.00,0.0032
2595.00,0.0032
2594.00,0.0032
2593.00,0.0032
2592.00,0.0032
2591.00,0.0032
2590.00,0.0032
2589.00,0.0033
2588.00,0.0034
2587.00,0.0035
2586.00,0.0036
2585.00,0.0037
2584.00,0.0038
2583.00,0.0038
2582.00,0.0038
2581.00,0.0038
2580.00,0.0038
2579.00,0.0037
2578.00,0.0036
2577.00,0.0035
2576.00,0.0033
2575.00,0.0032
2574.00,0.0031
2573.00,0.0029
2572.00,0.0029
2571.00,0.0028
2570.00,0.0028
2569.00,0.0027
2568.00,0.0027
2567.00,0.0026
2566.00,0.0025
2565.00,0.0025
2564.00,0.0024
2563.00,0.0024
2562.00,0.0023
2561.00,0.0023
2560.00,0.0022
2559.00,0.0022
2558.00,0.0022
2557.00,0.0021
2556.00,0.0021
2555.00,0.0021
2554.00,0.0021
2553.00,0.0021
2552.00,0.0021
2551.00,0.0021
2550.00,0.0021
2549.00,0.0020
2548.00,0.0020
2547.00,0.0019
2546.00,0.0018
2545.00,0.0018
2544.00,0.0018
2543.00,0.0017
2542.00,0.0017
2541.00,0.0016
2540.00,0.0016
2539.00,0.0015
2538.00,0.0015
2537.00,0.0015
2536.00,0.0015
2535.00,0.0015
2534.00,0.0015
2533.00,0.0014
2532.00,0.0014
2531.00,0.0014
2530.00,0.0013
2529.00,0.0013
2528.00,0.0014
2527.00,0.0014
2526.00,0.0015
2525.00,0.0015
2524.00,0.0014
2523.00,0.0013
2522.00,0.0013
2521.00,0.0013
2520.00,0.0012
2519.00,0.0012
2518.00,0.0012
2517.00,0.0012
2516.00,0.0011
2515.00,0.0010
2514.00,0.0009
2513.00,0.0009
2512.00,0.0009
2511.00,0.0009
2510.00,0.0010
2509.00,0.0010
2508.00,0.0010
2507.00,0.0009
2506.00,0.0009
2505.00,0.0009
2504.00,0.0009
2503.00,0.0008
2502.00,0.0008
2501.00,0.0008
2500.00,0.0008
2499.00,0.0009
2498.00,0.0010
2497.00,0.0010
2496.00,0.0011
2495.00,0.0011
2494.00,0.0011
2493.00,0.0011
2492.00,0.0011
2491.00,0.0011
2490.00,0.0010
2489.00,0.0010
2488.00,0.0009
2487.00,0.0009
2486.00,0.0009
2485.00,0.0009
2484.00,0.0009
2483.00,0.0009
2482.00,0.0008
2481.00,0.0007
2480.00,0.0007
2479.00,0.0007
2478.00,0.0007
2477.00,0.0007
2476.00,0.0008
2475.00,0.0008
2474.00,0.0008
2473.00,0.0008
2472.00,0.0007
2471.00,0.0007
2470.00,0.0007
2469.00,0.0007
2468.00,0.0007
2467.00,0.0008
2466.00,0.0008
2465.00,0.0008
2464.00,0.0008
2463.00,0.0009
2462.00,0.0009
2461.00,0.0009
2460.00,0.0009
2459.00,0.0008
2458.00,0.0009
2457.00,0.0009
2456.00,0.0010
2455.00,0.0011
2454.00,0.0011
2453.00,0.0012
2452.00,0.0012
2451.00,0.0012
2450.00,0.0012
2449.00,0.0011
2448.00,0.0011
2447.00,0.0011
2446.00,0.0010
2445.00,0.0010
2444.00,0.0010
2443.00,0.0010
2442.00,0.0010
2441.00,0.0009
2440.00,0.0009
2439.00,0.0009
2438.00,0.0009
2437.00,0.0010
2436.00,0.0011
2435.00,0.0012
2434.00,0.0012
2433.00,0.0012
2432.00,0.0011
2431.00,0.0011
2430.00,0.0011
2429.00,0.0011
2428.00,0.0011
2427.00,0.0012
2426.00,0.0012
2425.00,0.0012
2424.00,0.0012
2423.00,0.0012
2422.00,0.0011
2421.00,0.0011
2420.00,0.0010
2419.00,0.0009
2418.00,0.0009
2417.00,0.0009
2416.00,0.0009
2415.00,0.0009
2414.00,0.0009
2413.00,0.0009
2412.00,0.0009
2411.00,0.0008
2410.00,0.0008
2409.00,0.0009
2408.00,0.0009
2407.00,0.0009
2406.00,0.0008
2405.00,0.0007
2404.00,0.0007
2403.00,0.0007
2402.00,0.0007
2401.00,0.0007
2400.00,0.0008
2399.00,0.0008
2398.00,0.0008
2397.00,0.0008
2396.00,0.0008
2395.00,0.0008
2394.00,0.0008
2393.00,0.0008
2392.00,0.0007
2391.00,0.0007
2390.00,0.0006
2389.00,0.0006
2388.00,0.0006
2387.00,0.0006
2386.00,0.0006
2385.00,0.0005
2384.00,0.0004
2383.00,0.0004
2382.00,0.0003
2381.00,0.0002
2380.00,0.0001
2379.00,0.0001
2378.00,0.0001
2377.00,0.0001
2376.00,0.0002
2375.00,0.0002
2374.00,0.0001
2373.00,0.0001
2372.00,0.0001
2371.00,0.0001
2370.00,0.0001
2369.00,-0.0000
2368.00,-0.0001
2367.00,-0.0001
2366.00,-0.0002
2365.00,-0.0001
2364.00,-0.0001
2363.00,-0.0000
2362.00,0.0000
2361.00,0.0000
2360.00,0.0000
2359.00,0.0000
2358.00,0.0000
2357.00,0.0000
2356.00,0.0001
2355.00,0.0001
2354.00,0.0000
2353.00,-0.0000
2352.00,-0.0001
2351.00,-0.0000
2350.00,-0.0000
2349.00,0.0000
2348.00,0.0001
2347.00,0.0002
2346.00,0.0002
2345.00,0.0002
2344.00,0.0002
2343.00,0.0002
2342.00,0.0002
2341.00,0.0002
2340.00,0.0003
2339.00,0.0004
2338.00,0.0004
2337.00,0.0003
2336.00,0.0003
2335.00,0.0002
2334.00,0.0002
2333.00,0.0002
2332.00,0.0003
2331.00,0.0003
2330.00,0.0003
2329.00,0.0003
2328.00,0.0005
2327.00,0.0008
2326.00,0.0012
2325.00,0.0015
2324.00,0.0016
2323.00,0.0015
2322.00,0.0014
2321.00,0.0012
2320.00,0.0011
2319.00,0.0010
2318.00,0.0010
2317.00,0.0009
2316.00,0.0008
2315.00,0.0008
2314.00,0.0007
2313.00,0.0007
2312.00,0.0007
2311.00,0.0007
2310.00,0.0007
2309.00,0.0007
2308.00,0.0007
2307.00,0.0007
2306.00,0.0007
2305.00,0.0007
2304.00,0.0008
2303.00,0.0008
2302.00,0.0009
2301.00,0.0010
2300.00,0.0010
2299.00,0.0011
2298.00,0.0011
2297.00,0.0011
2296.00,0.0011
2295.00,0.0011
2294.00,0.0012
2293.00,0.0013
2292.00,0.0014
2291.00,0.0015
2290.00,0.0015
2289.00,0.0016
2288.00,0.0017
2287.00,0.0018
2286.00,0.0018
2285.00,0.0018
2284.00,0.0018
2283.00,0.0017
2282.00,0.0015
2281.00,0.0014
2280.00,0.0013
2279.00,0.0012
2278.00,0.0011
2277.00,0.0011
2276.00,0.0010
2275.00,0.0010
2274.00,0.0010
2273.00,0.0011
2272.00,0.0012
2271.00,0.0013
2270.00,0.0013
2269.00,0.0012
2268.00,0.0011
2267.00,0.0010
2266.00,0.0010
2265.00,0.0010
2264.00,0.0010
2263.00,0.0009
2262.00,0.0009
2261.00,0.0009
2260.00,0.0010
2259.00,0.0011
2258.00,0.0012
2257.00,0.0012
2256.00,0.0012
2255.00,0.0011
2254.00,0.0010
2253.00,0.0009
2252.00,0.0008
2251.00,0.0008
2250.00,0.0008
2249.00,0.0008
2248.00,0.0008
2247.00,0.0008
2246.00,0.0009
2245.00,0.0010
2244.00,0.0011
2243.00,0.0011
2242.00,0.0012
2241.00,0.0012
2240.00,0.0013
2239.00,0.0013
2238.00,0.0013
2237.00,0.0012
2236.00,0.0012
2235.00,0.0010
2234.00,0.0009
2233.00,0.0007
2232.00,0.0005
2231.00,0.0004
2230.00,0.0006
2229.00,0.0008
2228.00,0.0009
2227.00,0.0009
2226.00,0.0009
2225.00,0.0009
2224.00,0.0010
2223.00,0.0009
2222.00,0.0007
2221.00,0.0005
2220.00,0.0004
2219.00,0.0005
2218.00,0.0006
2217.00,0.0006
2216.00,0.0006
2215.00,0.0006
2214.00,0.0005
2213.00,0.0004
2212.00,0.0004
2211.00,0.0003
2210.00,0.0003
2209.00,0.0002
2208.00,0.0002
2207.00,0.0003
2206.00,0.0004
2205.00,0.0005
2204.00,0.0006
2203.00,0.0007
2202.00,0.0009
2201.00,0.0010
2200.00,0.0011
2199.00,0.0011
2198.00,0.0010
2197.00,0.0008
2196.00,0.0008
2195.00,0.0009
2194.00,0.0011
2193.00,0.0013
2192.00,0.0014
2191.00,0.0013
2190.00,0.0011
2189.00,0.0011
2188.00,0.0011
2187.00,0.0011
2186.00,0.0011
2185.00,0.0010
2184.00,0.0010
2183.00,0.0009
2182.00,0.0007
2181.00,0.0006
2180.00,0.0005
2179.00,0.0005
2178.00,0.0005
2177.00,0.0004
2176.00,0.0002
2175.00,0.0002
2174.00,0.0002
2173.00,0.0004
2172.00,0.0006
2171.00,0.0008
2170.00,0.0009
2169.00,0.0010
2168.00,0.0012
2167.00,0.0015
2166.00,0.0017
2165.00,0.0020
2164.00,0.0021
2163.00,0.0022
2162.00,0.0022
2161.00,0.0018
2160.00,0.0009
2159.00,-0.0005
2158.00,-0.0018
2157.00,-0.0025
2156.00,-0.0027
2155.00,-0.0025
2154.00,-0.0022
2153.00,-0.0017
2152.00,-0.0013
2151.00,-0.0011
2150.00,-0.0012
2149.00,-0.0015
2148.00,-0.0017
2147.00,-0.0019
2146.00,-0.0019
2145.00,-0.0019
2144.00,-0.0018
2143.00,-0.0016
2142.00,-0.0014
2141.00,-0.0010
2140.00,-0.0008
2139.00,-0.0007
2138.00,-0.0008
2137.00,-0.0011
2136.00,-0.0015
2135.00,-0.0018
2134.00,-0.0019
2133.00,-0.0018
2132.00,-0.0017
2131.00,-0.0015
2130.00,-0.0014
2129.00,-0.0013
2128.00,-0.0012
2127.00,-0.0012
2126.00,-0.0011
2125.00,-0.0010
2124.00,-0.0008
2123.00,-0.0007
2122.00,-0.0005
2121.00,-0.0004
2120.00,-0.0002
2119.00,-0.0001
2118.00,0.0001
2117.00,0.0002
2116.00,0.0003
2115.00,0.0002
2114.00,0.0001
2113.00,0.0000
2112.00,-0.0000
2111.00,0.0000
2110.00,0.0001
2109.00,0.0002
2108.00,0.0002
2107.00,0.0003
2106.00,0.0003
2105.00,0.0003
2104.00,0.0004
2103.00,0.0003
2102.00,0.0003
2101.00,0.0002
2100.00,0.0001
2099.00,0.0000
2098.00,0.0001
2097.00,0.0001
2096.00,0.0001
2095.00,-0.0000
2094.00,-0.0002
2093.00,-0.0003
2092.00,-0.0003
2091.00,-0.0002
2090.00,-0.0001
2089.00,0.0000
2088.00,0.0001
2087.00,0.0001
2086.00,0.0000
2085.00,-0.0000
2084.00,-0.0000
2083.00,0.0000
2082.00,0.0000
2081.00,0.0001
2080.00,0.0001
2079.00,0.0001
2078.00,0.0002
2077.00,0.0002
2076.00,0.0003
2075.00,0.0003
2074.00,0.0002
2073.00,0.0001
2072.00,0.0000
2071.00,-0.0000
2070.00,-0.0001
2069.00,-0.0002
2068.00,-0.0003
2067.00,-0.0003
2066.00,-0.0003
2065.00,-0.0004
2064.00,-0.0005
2063.00,-0.0005
2062.00,-0.0006
2061.00,-0.0005
2060.00,-0.0003
2059.00,-0.0002
2058.00,-0.0001
2057.00,-0.0000
2056.00,0.0000
2055.00,0.0001
2054.00,0.0004
2053.00,0.0009
2052.00,0.0013
2051.00,0.0013
2050.00,0.0009
2049.00,0.0003
2048.00,-0.0002
2047.00,-0.0003
2046.00,-0.0001
2045.00,0.0002
2044.00,0.0004
2043.00,0.0004
2042.00,0.0003
2041.00,0.0001
2040.00,-0.0001
2039.00,-0.0003
2038.00,-0.0005
2037.00,-0.0006
2036.00,-0.0007
2035.00,-0.0006
2034.00,-0.0005
2033.00,-0.0002
2032.00,-0.0001
2031.00,-0.0001
2030.00,-0.0001
2029.00,-0.0001
2028.00,-0.0001
2027.00,-0.0001
2026.00,-0.0005
2025.00,-0.0010
2024.00,-0.0015
2023.00,-0.0017
2022.00,-0.0017
2021.00,-0.0014
2020.00,-0.0010
2019.00,-0.0006
2018.00,-0.0005
2017.00,-0.0006
2016.00,-0.0009
2015.00,-0.0012
2014.00,-0.0016
2013.00,-0.0017
2012.00,-0.0016
2011.00,-0.0015
2010.00,-0.0013
2009.00,-0.0012
2008.00,-0.0013
2007.00,-0.0015
2006.00,-0.0017
2005.00,-0.0019
2004.00,-0.0019
2003.00,-0.0019
2002.00,-0.0018
2001.00,-0.0016
2000.00,-0.0013
1999.00,-0.0010
1998.00,-0.0009
1997.00,-0.0009
1996.00,-0.0009
1995.00,-0.0008
1994.00,-0.0006
1993.00,-0.0004
1992.00,-0.0002
1991.00,-0.0002
1990.00,-0.0002
1989.00,-0.0003
1988.00,-0.0003
1987.00,-0.0003
1986.00,-0.0003
1985.00,-0.0004
1984.00,-0.0005
1983.00,-0.0005
1982.00,-0.0001
1981.00,0.0005
1980.00,0.0009
1979.00,0.0008
1978.00,0.0001
1977.00,-0.0006
1976.00,-0.0010
1975.00,-0.0012
1974.00,-0.0013
1973.00,-0.0014
1972.00,-0.0015
1971.00,-0.0016
1970.00,-0.0017
1969.00,-0.0016
1968.00,-0.0013
1967.00,-0.0010
1966.00,-0.0008
1965.00,-0.0010
1964.00,-0.0013
1963.00,-0.0016
1962.00,-0.0016
1961.00,-0.0014
1960.00,-0.0014
1959.00,-0.0015
1958.00,-0.0017
1957.00,-0.0018
1956.00,-0.0017
1955.00,-0.0016
1954.00,-0.0015
1953.00,-0.0014
1952.00,-0.0014
1951.00,-0.0014
1950.00,-0.0016
1949.00,-0.0017
1948.00,-0.0018
1947.00,-0.0019
1946.00,-0.0019
1945.00,-0.0020
1944.00,-0.0019
1943.00,-0.0018
1942.00,-0.0015
1941.00,-0.0014
1940.00,-0.0013
1939.00,-0.0014
1938.00,-0.0015
1937.00,-0.0015
1936.00,-0.0014
1935.00,-0.0012
1934.00,-0.0011
1933.00,-0.0011
1932.00,-0.0010
1931.00,-0.0010
1930.00,-0.0010
1929.00,-0.0008
1928.00,-0.0007
1927.00,-0.0007
1926.00,-0.0007
1925.00,-0.0008
1924.00,-0.0008
1923.00,-0.0008
1922.00,-0.0007
1921.00,-0.0006
1920.00,-0.0005
1919.00,-0.0004
1918.00,-0.0003
1917.00,-0.0003
1916.00,-0.0003
1915.00,-0.0003
1914.00,-0.0003
1913.00,-0.0003
1912.00,-0.0004
1911.00,-0.0004
1910.00,-0.0004
1909.00,-0.0004
1908.00,-0.0004
1907.00,-0.0005
1906.00,-0.0005
1905.00,-0.0005
1904.00,-0.0003
1903.00,-0.0002
1902.00,-0.0001
1901.00,0.0000
1900.00,0.0000
1899.00,0.0000
1898.00,0.0000
1897.00,0.0000
1896.00,0.0000
1895.00,-0.0000
1894.00,-0.0001
1893.00,-0.0002
1892.00,-0.0003
1891.00,-0.0003
1890.00,-0.0003
1889.00,-0.0002
1888.00,-0.0002
1887.00,-0.0002
1886.00,-0.0002
1885.00,-0.0002
1884.00,-0.0002
1883.00,-0.0003
1882.00,-0.0003
1881.00,-0.0003
1880.00,-0.0002
1879.00,-0.0001
1878.00,-0.0000
1877.00,-0.0000
1876.00,-0.0001
1875.00,-0.0002
1874.00,-0.0003
1873.00,-0.0003
1872.00,-0.0002
1871.00,-0.0002
1870.00,-0.0001
1869.00,-0.0000
1868.00,0.0000
1867.00,0.0001
1866.00,0.0001
1865.00,0.0000
1864.00,-0.0000
1863.00,-0.0001
1862.00,-0.0002
1861.00,-0.0003
1860.00,-0.0002
1859.00,-0.0002
1858.00,-0.0002
1857.00,-0.0002
1856.00,-0.0002
1855.00,-0.0002
1854.00,-0.0001
1853.00,-0.0000
1852.00,0.0000
1851.00,0.0001
1850.00,0.0001
1849.00,0.0001
1848.00,0.0001
1847.00,0.0000
1846.00,-0.0000
1845.00,-0.0001
1844.00,-0.0001
1843.00,0.0000
1842.00,0.0001
1841.00,0.0002
1840.00,0.0003
1839.00,0.0003
1838.00,0.0003
1837.00,0.0003
1836.00,0.0003
1835.00,0.0003
1834.00,0.0003
1833.00,0.0003
1832.00,0.0003
1831.00,0.0003
1830.00,0.0003
1829.00,0.0003
1828.00,0.0003
1827.00,0.0003
1826.00,0.0003
1825.00,0.0003
1824.00,0.0003
1823.00,0.0003
1822.00,0.0002
1821.00,0.0001
1820.00,0.0000
1819.00,-0.0001
1818.00,-0.0002
1817.00,-0.0002
1816.00,-0.0001
1815.00,0.0000
1814.00,0.0002
1813.00,0.0002
1812.00,0.0003
1811.00,0.0003
1810.00,0.0003
1809.00,0.0002
1808.00,0.0002
1807.00,0.0003
1806.00,0.0003
1805.00,0.0003
1804.00,0.0003
1803.00,0.0003
1802.00,0.0003
1801.00,0.0004
1800.00,0.0004
1799.00,0.0004
1798.00,0.0004
1797.00,0.0004
1796.00,0.0004
1795.00,0.0005
1794.00,0.0005
1793.00,0.0005
1792.00,0.0005
1791.00,0.0005
1790.00,0.0005
1789.00,0.0005
1788.00,0.0005
1787.00,0.0006
1786.00,0.0007
1785.00,0.0007
1784.00,0.0008
1783.00,0.0008
1782.00,0.0007
1781.00,0.0007
1780.00,0.0007
1779.00,0.0006
1778.00,0.0006
1777.00,0.0006
1776.00,0.0006
1775.00,0.0006
1774.00,0.0006
1773.00,0.0007
1772.00,0.0008
1771.00,0.0009
1770.00,0.0009
1769.00,0.0010
1768.00,0.0010
1767.00,0.0010
1766.00,0.0010
1765.00,0.0010
1764.00,0.0010
1763.00,0.0011
1762.00,0.0011
1761.00,0.0011
1760.00,0.0011
1759.00,0.0011
1758.00,0.0011
1757.00,0.0012
1756.00,0.0012
1755.00,0.0012
1754.00,0.0012
1753.00,0.0012
1752.00,0.0013
1751.00,0.0013
1750.00,0.0014
1749.00,0.0014
1748.00,0.0014
1747.00,0.0014
1746.00,0.0015
1745.00,0.0016
1744.00,0.0016
1743.00,0.0017
1742.00,0.0017
1741.00,0.0017
1740.00,0.0017
1739.00,0.0017
1738.00,0.0017
1737.00,0.0017
1736.00,0.0017
1735.00,0.0017
1734.00,0.0017
1733.00,0.0018
1732.00,0.0019
1731.00,0.0019
1730.00,0.0019
1729.00,0.0019
1728.00,0.0018
1727.00,0.0018
1726.00,0.0018
1725.00,0.0018
1724.00,0.0018
1723.00,0.0018
1722.00,0.0018
1721.00,0.0019
1720.00,0.0019
1719.00,0.0020
1718.00,0.0019
1717.00,0.0019
1716.00,0.0020
1715.00,0.0020
1714.00,0.0020
1713.00,0.0020
1712.00,0.0020
1711.00,0.0020
1710.00,0.0020
1709.00,0.0020
1708.00,0.0021
1707.00,0.0021
1706.00,0.0021
1705.00,0.0022
1704.00,0.0023
1703.00,0.0024
1702.00,0.0024
1701.00,0.0024
1700.00,0.0024
1699.00,0.0025
1698.00,0.0025
1697.00,0.0025
1696.00,0.0026
1695.00,0.0026
1694.00,0.0026
1693.00,0.0027
1692.00,0.0027
1691.00,0.0027
1690.00,0.0028
1689.00,0.0028
1688.00,0.0028
1687.00,0.0028
1686.00,0.0029
1685.00,0.0029
1684.00,0.0030
1683.00,0.0031
1682.00,0.0031
1681.00,0.0032
1680.00,0.0032
1679.00,0.0033
1678.00,0.0033
1677.00,0.0033
1676.00,0.0034
1675.00,0.0035
1674.00,0.0035
1673.00,0.0036
1672.00,0.0036
1671.00,0.0037
1670.00,0.0038
1669.00,0.0039
1668.00,0.0040
1667.00,0.0039
1666.00,0.0039
1665.00,0.0038
1664.00,0.0038
1663.00,0.0039
1662.00,0.0040
1661.00,0.0041
1660.00,0.0042
1659.00,0.0042
1658.00,0.0043
1657.00,0.0044
1656.00,0.0045
1655.00,0.0046
1654.00,0.0046
1653.00,0.0046
1652.00,0.0047
1651.00,0.0047
1650.00,0.0047
1649.00,0.0048
1648.00,0.0048
1647.00,0.0049
1646.00,0.0049
1645.00,0.0049
1644.00,0.0050
1643.00,0.0050
1642.00,0.0051
1641.00,0.0051
1640.00,0.0051
1639.00,0.0051
1638.00,0.0051
1637.00,0.0052
1636.00,0.0053
1635.00,0.0053
1634.00,0.0053
1633.00,0.0053
1632.00,0.0052
1631.00,0.0052
1630.00,0.0052
1629.00,0.0052
1628.00,0.0052
1627.00,0.0052
1626.00,0.0053
1625.00,0.0053
1624.00,0.0053
1623.00,0.0052
1622.00,0.0052
1621.00,0.0052
1620.00,0.0053
1619.00,0.0053
1618.00,0.0052
1617.00,0.0052
1616.00,0.0051
1615.00,0.0051
1614.00,0.0051
1613.00,0.0051
1612.00,0.0051
1611.00,0.0052
1610.00,0.0052
1609.00,0.0052
1608.00,0.0052
1607.00,0.0052
1606.00,0.0052
1605.00,0.0052
1604.00,0.0052
1603.00,0.0052
1602.00,0.0051
1601.00,0.0051
1600.00,0.0051
1599.00,0.0051
1598.00,0.0051
1597.00,0.0051
1596.00,0.0052
1595.00,0.0051
1594.00,0.0051
1593.00,0.0051
1592.00,0.0051
1591.00,0.0051
1590.00,0.0051
1589.00,0.0051
1588.00,0.0052
1587.00,0.0053
1586.00,0.0054
1585.00,0.0055
1584.00,0.0056
1583.00,0.0057
1582.00,0.0058
1581.00,0.0060
1580.00,0.0062
1579.00,0.0063
1578.00,0.0064
1577.00,0.0064
1576.00,0.0063
1575.00,0.0062
1574.00,0.0061
1573.00,0.0061
1572.00,0.0060
1571.00,0.0058
1570.00,0.0057
1569.00,0.0056
1568.00,0.0056
1567.00,0.0056
1566.00,0.0056
1565.00,0.0056
1564.00,0.0056
1563.00,0.0056
1562.00,0.0057
1561.00,0.0058
1560.00,0.0058
1559.00,0.0058
1558.00,0.0059
1557.00,0.0059
1556.00,0.0059
1555.00,0.0060
1554.00,0.0060
1553.00,0.0061
1552.00,0.0062
1551.00,0.0062
1550.00,0.0063
1549.00,0.0064
1548.00,0.0065
1547.00,0.0067
1546.00,0.0069
1545.00,0.0070
1544.00,0.0072
1543.00,0.0074
1542.00,0.0075
1541.00,0.0076
1540.00,0.0076
1539.00,0.0074
1538.00,0.0071
1537.00,0.0069
1536.00,0.0067
1535.00,0.0065
1534.00,0.0062
1533.00,0.0060
1532.00,0.0058
1531.00,0.0057
1530.00,0.0056
1529.00,0.0055
1528.00,0.0055
1527.00,0.0054
1526.00,0.0053
1525.00,0.0053
1524.00,0.0053
1523.00,0.0052
1522.00,0.0052
1521.00,0.0053
1520.00,0.0053
1519.00,0.0053
1518.00,0.0053
1517.00,0.0054
1516.00,0.0054
1515.00,0.0055
1514.00,0.0055
1513.00,0.0056
1512.00,0.0057
1511.00,0.0057
1510.00,0.0058
1509.00,0.0058
1508.00,0.0059
1507.00,0.0060
1506.00,0.0060
1505.00,0.0061
1504.00,0.0062
1503.00,0.0063
1502.00,0.0064
1501.00,0.0067
1500.00,0.0069
1499.00,0.0072
1498.00,0.0074
1497.00,0.0077
1496.00,0.0081
1495.00,0.0084
1494.00,0.0087
1493.00,0.0090
1492.00,0.0095
1491.00,0.0099
1490.00,0.0103
1489.00,0.0108
1488.00,0.0112
1487.00,0.0116
1486.00,0.0120
1485.00,0.0125
1484.00,0.0132
1483.00,0.0139
1482.00,0.0148
1481.00,0.0159
1480.00,0.0172
1479.00,0.0184
1478.00,0.0198
1477.00,0.0217
1476.00,0.0240
1475.00,0.0265
1474.00,0.0300
1473.00,0.0352
1472.00,0.0417
1471.00,0.0479
1470.00,0.0539
1469.00,0.0602
1468.00,0.0671
1467.00,0.0747
1466.00,0.0834
1465.00,0.0931
1464.00,0.1017
1463.00,0.1080
1462.00,0.1124
1461.00,0.1157
1460.00,0.1183
1459.00,0.1204
1458.00,0.1225
1457.00,0.1246
1456.00,0.1258
1455.00,0.1260
1454.00,0.1256
1453.00,0.1247
1452.00,0.1228
1451.00,0.1194
1450.00,0.1143
1449.00,0.1068
1448.00,0.0970
1447.00,0.0864
1446.00,0.0768
1445.00,0.0685
1444.00,0.0615
1443.00,0.0558
1442.00,0.0515
1441.00,0.0486
1440.00,0.0468
1439.00,0.0460
1438.00,0.0458
1437.00,0.0456
1436.00,0.0442
1435.00,0.0412
1434.00,0.0372
1433.00,0.0325
1432.00,0.0278
1431.00,0.0237
1430.00,0.0205
1429.00,0.0182
1428.00,0.0167
1427.00,0.0157
1426.00,0.0151
1425.00,0.0145
1424.00,0.0140
1423.00,0.0136
1422.00,0.0135
1421.00,0.0132
1420.00,0.0130
1419.00,0.0128
1418.00,0.0128
1417.00,0.0125
1416.00,0.0122
1415.00,0.0120
1414.00,0.0119
1413.00,0.0117
1412.00,0.0115
1411.00,0.0114
1410.00,0.0113
1409.00,0.0112
1408.00,0.0111
1407.00,0.0111
1406.00,0.0112
1405.00,0.0112
1404.00,0.0112
1403.00,0.0113
1402.00,0.0114
1401.00,0.0115
1400.00,0.0116
1399.00,0.0118
1398.00,0.0120
1397.00,0.0122
1396.00,0.0125
1395.00,0.0129
1394.00,0.0135
1393.00,0.0141
1392.00,0.0147
1391.00,0.0156
1390.00,0.0169
1389.00,0.0187
1388.00,0.0214
1387.00,0.0255
1386.00,0.0307
1385.00,0.0373
1384.00,0.0459
1383.00,0.0574
1382.00,0.0723
1381.00,0.0911
1380.00,0.1139
1379.00,0.1395
1378.00,0.1640
1377.00,0.1821
1376.00,0.1885
1375.00,0.1799
1374.00,0.1583
1373.00,0.1316
1372.00,0.1068
1371.00,0.0861
1370.00,0.0694
1369.00,0.0565
1368.00,0.0476
1367.00,0.0420
1366.00,0.0390
1365.00,0.0379
1364.00,0.0382
1363.00,0.0396
1362.00,0.0417
1361.00,0.0439
1360.00,0.0455
1359.00,0.0459
1358.00,0.0448
1357.00,0.0420
1356.00,0.0382
1355.00,0.0338
1354.00,0.0297
1353.00,0.0261
1352.00,0.0233
1351.00,0.0211
1350.00,0.0193
1349.00,0.0178
1348.00,0.0165
1347.00,0.0155
1346.00,0.0147
1345.00,0.0141
1344.00,0.0136
1343.00,0.0133
1342.00,0.0130
1341.00,0.0128
1340.00,0.0126
1339.00,0.0124
1338.00,0.0122
1337.00,0.0121
1336.00,0.0121
1335.00,0.0123
1334.00,0.0125
1333.00,0.0129
1332.00,0.0133
1331.00,0.0137
1330.00,0.0139
1329.00,0.0138
1328.00,0.0134
1327.00,0.0129
1326.00,0.0123
1325.00,0.0116
1324.00,0.0110
1323.00,0.0105
1322.00,0.0101
1321.00,0.0097
1320.00,0.0094
1319.00,0.0092
1318.00,0.0089
1317.00,0.0087
1316.00,0.0086
1315.00,0.0085
1314.00,0.0085
1313.00,0.0086
1312.00,0.0089
1311.00,0.0092
1310.00,0.0097
1309.00,0.0105
1308.00,0.0116
1307.00,0.0130
1306.00,0.0144
1305.00,0.0154
1304.00,0.0157
1303.00,0.0153
1302.00,0.0147
1301.00,0.0140
1300.00,0.0135
1299.00,0.0133
1298.00,0.0132
1297.00,0.0132
1296.00,0.0130
1295.00,0.0127
1294.00,0.0122
1293.00,0.0117
1292.00,0.0112
1291.00,0.0106
1290.00,0.0101
1289.00,0.0097
1288.00,0.0094
1287.00,0.0091
1286.00,0.0089
1285.00,0.0087
1284.00,0.0085
1283.00,0.0084
1282.00,0.0082
1281.00,0.0081
1280.00,0.0080
1279.00,0.0079
1278.00,0.0077
1277.00,0.0077
1276.00,0.0076
1275.00,0.0076
1274.00,0.0076
1273.00,0.0076
1272.00,0.0077
1271.00,0.0077
1270.00,0.0078
1269.00,0.0080
1268.00,0.0081
1267.00,0.0082
1266.00,0.0084
1265.00,0.0087
1264.00,0.0090
1263.00,0.0094
1262.00,0.0098
1261.00,0.0104
1260.00,0.0111
1259.00,0.0120
1258.00,0.0129
1257.00,0.0137
1256.00,0.0141
1255.00,0.0139
1254.00,0.0132
1253.00,0.0122
1252.00,0.0112
1251.00,0.0104
1250.00,0.0098
1249.00,0.0094
1248.00,0.0090
1247.00,0.0088
1246.00,0.0086
1245.00,0.0085
1244.00,0.0084
1243.00,0.0084
1242.00,0.0084
1241.00,0.0083
1240.00,0.0082
1239.00,0.0081
1238.00,0.0079
1237.00,0.0077
1236.00,0.0077
1235.00,0.0076
1234.00,0.0076
1233.00,0.0077
1232.00,0.0077
1231.00,0.0077
1230.00,0.0077
1229.00,0.0077
1228.00,0.0078
1227.00,0.0079
1226.00,0.0080
1225.00,0.0083
1224.00,0.0085
1223.00,0.0088
1222.00,0.0090
1221.00,0.0093
1220.00,0.0095
1219.00,0.0096
1218.00,0.0096
1217.00,0.0094
1216.00,0.0092
1215.00,0.0090
1214.00,0.0087
1213.00,0.0085
1212.00,0.0082
1211.00,0.0080
1210.00,0.0078
1209.00,0.0076
1208.00,0.0075
1207.00,0.0074
1206.00,0.0073
1205.00,0.0072
1204.00,0.0072
1203.00,0.0072
1202.00,0.0072
1201.00,0.0071
1200.00,0.0071
1199.00,0.0071
1198.00,0.0070
1197.00,0.0070
1196.00,0.0070
1195.00,0.0071
1194.00,0.0071
1193.00,0.0071
1192.00,0.0071
1191.00,0.0071
1190.00,0.0071
1189.00,0.0071
1188.00,0.0071
1187.00,0.0071
1186.00,0.0072
1185.00,0.0073
1184.00,0.0075
1183.00,0.0077
1182.00,0.0080
1181.00,0.0083
1180.00,0.0088
1179.00,0.0094
1178.00,0.0103
1177.00,0.0113
1176.00,0.0128
1175.00,0.0147
1174.00,0.0172
1173.00,0.0203
1172.00,0.0240
1171.00,0.0280
1170.00,0.0319
1169.00,0.0352
1168.00,0.0372
1167.00,0.0378
1166.00,0.0370
1165.00,0.0352
1164.00,0.0328
1163.00,0.0304
1162.00,0.0282
1161.00,0.0263
1160.00,0.0248
1159.00,0.0236
1158.00,0.0227
1157.00,0.0220
1156.00,0.0214
1155.00,0.0210
1154.00,0.0206
1153.00,0.0202
1152.00,0.0197
1151.00,0.0191
1150.00,0.0183
1149.00,0.0174
1148.00,0.0165
1147.00,0.0155
1146.00,0.0146
1145.00,0.0138
1144.00,0.0129
1143.00,0.0122
1142.00,0.0114
1141.00,0.0107
1140.00,0.0101
1139.00,0.0097
1138.00,0.0094
1137.00,0.0092
1136.00,0.0089
1135.00,0.0087
1134.00,0.0085
1133.00,0.0084
1132.00,0.0083
1131.00,0.0083
1130.00,0.0084
1129.00,0.0085
1128.00,0.0086
1127.00,0.0087
1126.00,0.0087
1125.00,0.0086
1124.00,0.0086
1123.00,0.0085
1122.00,0.0085
1121.00,0.0086
1120.00,0.0087
1119.00,0.0088
1118.00,0.0090
1117.00,0.0091
1116.00,0.0093
1115.00,0.0095
1114.00,0.0096
1113.00,0.0098
1112.00,0.0100
1111.00,0.0102
1110.00,0.0106
1109.00,0.0110
1108.00,0.0116
1107.00,0.0122
1106.00,0.0129
1105.00,0.0136
1104.00,0.0141
1103.00,0.0144
1102.00,0.0144
1101.00,0.0142
1100.00,0.0137
1099.00,0.0131
1098.00,0.0125
1097.00,0.0119
1096.00,0.0114
1095.00,0.0110
1094.00,0.0106
1093.00,0.0102
1092.00,0.0099
1091.00,0.0096
1090.00,0.0093
1089.00,0.0090
1088.00,0.0088
1087.00,0.0086
1086.00,0.0085
1085.00,0.0084
1084.00,0.0084
1083.00,0.0083
1082.00,0.0082
1081.00,0.0082
1080.00,0.0081
1079.00,0.0080
1078.00,0.0079
1077.00,0.0078
1076.00,0.0077
1075.00,0.0077
1074.00,0.0076
1073.00,0.0076
1072.00,0.0077
1071.00,0.0077
1070.00,0.0078
1069.00,0.0078
1068.00,0.0078
1067.00,0.0077
1066.00,0.0077
1065.00,0.0076
1064.00,0.0076
1063.00,0.0076
1062.00,0.0077
1061.00,0.0079
1060.00,0.0080
1059.00,0.0080
1058.00,0.0081
1057.00,0.0080
1056.00,0.0080
1055.00,0.0079
1054.00,0.0080
1053.00,0.0081
1052.00,0.0084
1051.00,0.0087
1050.00,0.0091
1049.00,0.0094
1048.00,0.0098
1047.00,0.0102
1046.00,0.0105
1045.00,0.0106
1044.00,0.0107
1043.00,0.0105
1042.00,0.0103
1041.00,0.0099
1040.00,0.0096
1039.00,0.0094
1038.00,0.0093
1037.00,0.0092
1036.00,0.0091
1035.00,0.0091
1034.00,0.0090
1033.00,0.0089
1032.00,0.0090
1031.00,0.0090
1030.00,0.0091
1029.00,0.0091
1028.00,0.0090
1027.00,0.0090
1026.00,0.0089
1025.00,0.0088
1024.00,0.0088
1023.00,0.0088
1022.00,0.0088
1021.00,0.0089
1020.00,0.0091
1019.00,0.0092
1018.00,0.0094
1017.00,0.0097
1016.00,0.0100
1015.00,0.0104
1014.00,0.0109
1013.00,0.0113
1012.00,0.0116
1011.00,0.0119
1010.00,0.0123
1009.00,0.0128
1008.00,0.0134
1007.00,0.0143
1006.00,0.0154
1005.00,0.0169
1004.00,0.0189
1003.00,0.0217
1002.00,0.0253
1001.00,0.0297
1000.00,0.0343
999.00,0.0382
998.00,0.0404
997.00,0.0399
996.00,0.0368
995.00,0.0322
994.00,0.0271
993.00,0.0226
992.00,0.0191
991.00,0.0166
990.00,0.0148
989.00,0.0136
988.00,0.0127
987.00,0.0123
986.00,0.0121
985.00,0.0123
984.00,0.0128
983.00,0.0137
982.00,0.0150
981.00,0.0168
980.00,0.0193
979.00,0.0226
978.00,0.0269
977.00,0.0319
976.00,0.0375
975.00,0.0429
974.00,0.0471
973.00,0.0490
972.00,0.0478
971.00,0.0436
970.00,0.0376
969.00,0.0312
968.00,0.0256
967.00,0.0211
966.00,0.0179
965.00,0.0155
964.00,0.0137
963.00,0.0124
962.00,0.0113
961.00,0.0106
960.00,0.0101
959.00,0.0097
958.00,0.0093
957.00,0.0090
956.00,0.0086
955.00,0.0083
954.00,0.0081
953.00,0.0079
952.00,0.0077
951.00,0.0077
950.00,0.0076
949.00,0.0076
948.00,0.0077
947.00,0.0078
946.00,0.0081
945.00,0.0083
944.00,0.0086
943.00,0.0089
942.00,0.0093
941.00,0.0094
940.00,0.0093
939.00,0.0090
938.00,0.0085
937.00,0.0080
936.00,0.0075
935.00,0.0072
934.00,0.0070
933.00,0.0068
932.00,0.0066
931.00,0.0065
930.00,0.0064
929.00,0.0063
928.00,0.0062
927.00,0.0061
926.00,0.0061
925.00,0.0061
924.00,0.0061
923.00,0.0062
922.00,0.0062
921.00,0.0064
920.00,0.0065
919.00,0.0066
918.00,0.0068
917.00,0.0069
916.00,0.0070
915.00,0.0070
914.00,0.0071
913.00,0.0071
912.00,0.0071
911.00,0.0071
910.00,0.0072
909.00,0.0074
908.00,0.0078
907.00,0.0082
906.00,0.0089
905.00,0.0099
904.00,0.0113
903.00,0.0130
902.00,0.0150
901.00,0.0168
900.00,0.0182
899.00,0.0186
898.00,0.0180
897.00,0.0165
896.00,0.0145
895.00,0.0125
894.00,0.0109
893.00,0.0097
892.00,0.0089
891.00,0.0084
890.00,0.0080
889.00,0.0077
888.00,0.0075
887.00,0.0073
886.00,0.0073
885.00,0.0072
884.00,0.0072
883.00,0.0071
882.00,0.0071
881.00,0.0071
880.00,0.0072
879.00,0.0073
878.00,0.0074
877.00,0.0075
876.00,0.0075
875.00,0.0075
874.00,0.0073
873.00,0.0072
872.00,0.0072
871.00,0.0072
870.00,0.0072
869.00,0.0073
868.00,0.0073
867.00,0.0075
866.00,0.0077
865.00,0.0079
864.00,0.0081
863.00,0.0083
862.00,0.0084
861.00,0.0085
860.00,0.0087
859.00,0.0089
858.00,0.0091
857.00,0.0092
856.00,0.0092
855.00,0.0092
854.00,0.0094
853.00,0.0096
852.00,0.0100
851.00,0.0105
850.00,0.0113
849.00,0.0122
848.00,0.0135
847.00,0.0154
846.00,0.0182
845.00,0.0224
844.00,0.0280
843.00,0.0341
842.00,0.0389
841.00,0.0404
840.00,0.0379
839.00,0.0325
838.00,0.0265
837.00,0.0216
836.00,0.0183
835.00,0.0163
834.00,0.0150
833.00,0.0140
832.00,0.0133
831.00,0.0127
830.00,0.0123
829.00,0.0119
828.00,0.0117
827.00,0.0115
826.00,0.0114
825.00,0.0114
824.00,0.0113
823.00,0.0111
822.00,0.0110
821.00,0.0110
820.00,0.0112
819.00,0.0114
818.00,0.0116
817.00,0.0120
816.00,0.0128
815.00,0.0138
814.00,0.0153
813.00,0.0170
812.00,0.0187
811.00,0.0201
810.00,0.0212
809.00,0.0216
808.00,0.0214
807.00,0.0205
806.00,0.0192
805.00,0.0177
804.00,0.0162
803.00,0.0149
802.00,0.0138
801.00,0.0129
800.00,0.0122
799.00,0.0117
798.00,0.0113
797.00,0.0108
796.00,0.0104
795.00,0.0100
794.00,0.0096
793.00,0.0092
792.00,0.0089
791.00,0.0086
790.00,0.0084
789.00,0.0083
788.00,0.0081
787.00,0.0078
786.00,0.0075
785.00,0.0072
784.00,0.0071
783.00,0.0070
782.00,0.0069
781.00,0.0067
780.00,0.0064
779.00,0.0062
778.00,0.0062
777.00,0.0063
776.00,0.0066
775.00,0.0068
774.00,0.0070
773.00,0.0071
772.00,0.0073
771.00,0.0074
770.00,0.0075
769.00,0.0076
768.00,0.0077
767.00,0.0077
766.00,0.0077
765.00,0.0076
764.00,0.0075
763.00,0.0073
762.00,0.0070
761.00,0.0066
760.00,0.0063
759.00,0.0060
758.00,0.0059
757.00,0.0057
756.00,0.0054
755.00,0.0051
754.00,0.0048
753.00,0.0048
752.00,0.0049
751.00,0.0050
750.00,0.0050
749.00,0.0050
748.00,0.0051
747.00,0.0052
746.00,0.0053
745.00,0.0054
744.00,0.0054
743.00,0.0053
742.00,0.0052
741.00,0.0052
740.00,0.0052
739.00,0.0054
738.00,0.0057
737.00,0.0060
736.00,0.0061
735.00,0.0062
734.00,0.0064
733.00,0.0066
732.00,0.0068
731.00,0.0070
730.00,0.0070
729.00,0.0068
728.00,0.0066
727.00,0.0064
726.00,0.0062
725.00,0.0062
724.00,0.0064
723.00,0.0066
722.00,0.0068
721.00,0.0068
720.00,0.0066
719.00,0.0064
718.00,0.0062
717.00,0.0060
716.00,0.0059
715.00,0.0059
714.00,0.0059
713.00,0.0059
712.00,0.0058
711.00,0.0057
710.00,0.0057
709.00,0.0057
708.00,0.0057
707.00,0.0057
706.00,0.0057
705.00,0.0057
704.00,0.0057
703.00,0.0056
702.00,0.0055
701.00,0.0053
700.00,0.0051
699.00,0.0050
698.00,0.0050
697.00,0.0049
696.00,0.0049
695.00,0.0050
694.00,0.0051
693.00,0.0051
692.00,0.0051
691.00,0.0052
690.00,0.0053
689.00,0.0054
688.00,0.0055
687.00,0.0054
686.00,0.0051
685.00,0.0047
684.00,0.0044
683.00,0.0044
682.00,0.0045
681.00,0.0046
680.00,0.0048
679.00,0.0050
678.00,0.0051
677.00,0.0051
676.00,0.0050
675.00,0.0049
674.00,0.0048
673.00,0.0047
672.00,0.0048
671.00,0.0051
670.00,0.0053
669.00,0.0054
668.00,0.0054
667.00,0.0054
666.00,0.0054
665.00,0.0053
664.00,0.0052
663.00,0.0050
662.00,0.0050
661.00,0.0050
660.00,0.0051
659.00,0.0051
658.00,0.0050
657.00,0.0050
656.00,0.0049
655.00,0.0049
654.00,0.0049
653.00,0.0050
652.00,0.0050
651.00,0.0051
650.00,0.0052
649.00,0.0053
648.00,0.0052
647.00,0.0051
646.00,0.0051
645.00,0.0051
644.00,0.0053
643.00,0.0055
642.00,0.0056
641.00,0.0057
640.00,0.0058
639.00,0.0059
638.00,0.0059
637.00,0.0058
636.00,0.0056
635.00,0.0055
634.00,0.0054
633.00,0.0053
632.00,0.0052
631.00,0.0052
630.00,0.0052
629.00,0.0053
628.00,0.0054
627.00,0.0055
626.00,0.0057
625.00,0.0059
624.00,0.0059
623.00,0.0057
622.00,0.0054
621.00,0.0050
620.00,0.0047
619.00,0.0047
618.00,0.0049
617.00,0.0051
616.00,0.0053
615.00,0.0054
614.00,0.0053
613.00,0.0051
612.00,0.0048
611.00,0.0048
610.00,0.0050
609.00,0.0054
608.00,0.0058
607.00,0.0058
606.00,0.0057
605.00,0.0055
604.00,0.0054
603.00,0.0052
602.00,0.0051
601.00,0.0051
600.00,0.0052
599.00,0.0053
598.00,0.0053
597.00,0.0052
596.00,0.0053
595.00,0.0057
594.00,0.0062
593.00,0.0065
592.00,0.0063
591.00,0.0059
590.00,0.0053
589.00,0.0049
588.00,0.0048
587.00,0.0050
586.00,0.0053
585.00,0.0055
584.00,0.0055
583.00,0.0055
582.00,0.0055
581.00,0.0056
580.00,0.0059
579.00,0.0063
578.00,0.0066
577.00,0.0066
576.00,0.0062
575.00,0.0058
574.00,0.0054
573.00,0.0053
572.00,0.0052
571.00,0.0052
570.00,0.0053
569.00,0.0055
568.00,0.0058
567.00,0.0062
566.00,0.0066
565.00,0.0067
564.00,0.0067
563.00,0.0065
562.00,0.0063
561.00,0.0060
560.00,0.0058
559.00,0.0059
558.00,0.0062
557.00,0.0065
556.00,0.0065
555.00,0.0065
554.00,0.0063
553.00,0.0062
552.00,0.0060
551.00,0.0059
550.00,0.0059
549.00,0.0060
548.00,0.0060
547.00,0.0061
546.00,0.0063
545.00,0.0064
544.00,0.0064
543.00,0.0062
542.00,0.0061
541.00,0.0061
540.00,0.0062
539.00,0.0065
538.00,0.0069
537.00,0.0073
536.00,0.0076
535.00,0.0077
534.00,0.0078
533.00,0.0080
532.00,0.0081
531.00,0.0081
530.00,0.0080
529.00,0.0080
528.00,0.0081
527.00,0.0084
526.00,0.0086
525.00,0.0085
524.00,0.0082
523.00,0.0076
522.00,0.0069
521.00,0.0063
520.00,0.0058
519.00,0.0054
518.00,0.0053
517.00,0.0055
516.00,0.0059
515.00,0.0064
514.00,0.0069
513.00,0.0071
512.00,0.0071
511.00,0.0070
510.00,0.0067
509.00,0.0066
508.00,0.0065
507.00,0.0064
506.00,0.0061
505.00,0.0057
504.00,0.0052
503.00,0.0047
502.00,0.0045
501.00,0.0046
500.00,0.0050
499.00,0.0056
498.00,0.0063
497.00,0.0068
496.00,0.0068
495.00,0.0064
494.00,0.0060
493.00,0.0059
492.00,0.0063
491.00,0.0066
490.00,0.0068
489.00,0.0070
488.00,0.0074
487.00,0.0078
486.00,0.0081
485.00,0.0079
484.00,0.0074
483.00,0.0068
482.00,0.0062
481.00,0.0057
480.00,0.0055
479.00,0.0058
478.00,0.0065
477.00,0.0075
476.00,0.0084
475.00,0.0088
474.00,0.0084
473.00,0.0076
472.00,0.0072
471.00,0.0073
470.00,0.0079
469.00,0.0085
468.00,0.0090
467.00,0.0094
466.00,0.0098
465.00,0.0099
464.00,0.0101
463.00,0.0109
462.00,0.0122
461.00,0.0135
460.00,0.0143
459.00,0.0148
458.00,0.0152
457.00,0.0157
456.00,0.0156
455.00,0.0146
454.00,0.0132
453.00,0.0121
452.00,0.0117
451.00,0.0115
450.00,0.0107
