Created as New Dataset,Sample 042 By Administrator Date Wednesday, September 10 2025
cm-1,A
4000.00,0.0008
3999.00,0.0008
3998.00,0.0008
3997.00,0.0008
3996.00,0.0008
3995.00,0.0008
3994.00,0.0008
3993.00,0.0008
3992.00,0.0008
3991.00,0.0008
3990.00,0.0008
3989.00,0.0008
3988.00,0.0008
3987.00,0.0008
3986.00,0.0008
3985.00,0.0007
3984.00,0.0007
3983.00,0.0007
3982.00,0.0007
3981.00,0.0008
3980.00,0.0008
3979.00,0.0008
3978.00,0.0007
3977.00,0.0007
3976.00,0.0007
3975.00,0.0007
3974.00,0.0007
3973.00,0.0007
3972.00,0.0008
3971.00,0.0007
3970.00,0.0007
3969.00,0.0007
3968.00,0.0007
3967.00,0.0007
3966.00,0.0007
3965.00,0.0007
3964.00,0.0007
3963.00,0.0007
3962.00,0.0007
3961.00,0.0007
3960.00,0.0007
3959.00,0.0007
3958.00,0.0007
3957.00,0.0007
3956.00,0.0007
3955.00,0.0007
3954.00,0.0007
3953.00,0.0006
3952.00,0.0006
3951.00,0.0006
3950.00,0.0006
3949.00,0.0006
3948.00,0.0006
3947.00,0.0007
3946.00,0.0007
3945.00,0.0007
3944.00,0.0008
3943.00,0.0008
3942.00,0.0007
3941.00,0.0007
3940.00,0.0007
3939.00,0.0007
3938.00,0.0007
3937.00,0.0007
3936.00,0.0007
3935.00,0.0007
3934.00,0.0007
3933.00,0.0007
3932.00,0.0007
3931.00,0.0007
3930.00,0.0007
3929.00,0.0007
3928.00,0.0007
3927.00,0.0007
3926.00,0.0007
3925.00,0.0007
3924.00,0.0007
3923.00,0.0007
3922.00,0.0007
3921.00,0.0007
3920.00,0.0007
3919.00,0.0007
3918.00,0.0007
3917.00,0.0007
3916.00,0.0007
3915.00,0.0007
3914.00,0.0007
3913.00,0.0007
3912.00,0.0007
3911.00,0.0007
3910.00,0.0007
3909.00,0.0007
3908.00,0.0007
3907.00,0.0007
3906.00,0.0007
3905.00,0.0007
3904.00,0.0007
3903.00,0.0007
3902.00,0.0007
3901.00,0.0007
3900.00,0.0007
3899.00,0.0007
3898.00,0.0007
3897.00,0.0007
3896.00,0.0007
3895.00,0.0007
3894.00,0.0007
3893.00,0.0007
3892.00,0.0006
3891.00,0.0007
3890.00,0.0007
3889.00,0.0007
3888.00,0.0008
3887.00,0.0007
3886.00,0.0007
3885.00,0.0008
3884.00,0.0008
3883.00,0.0008
3882.00,0.0008
3881.00,0.0008
3880.00,0.0007
3879.00,0.0007
3878.00,0.0007
3877.00,0.0007
3876.00,0.0007
3875.00,0.0007
3874.00,0.0007
3873.00,0.0007
3872.00,0.0007
3871.00,0.0007
3870.00,0.0007
3869.00,0.0007
3868.00,0.0007
3867.00,0.0007
3866.00,0.0007
3865.00,0.0007
3864.00,0.0007
3863.00,0.0007
3862.00,0.0007
3861.00,0.0006
3860.00,0.0006
3859.00,0.0006
3858.00,0.0006
3857.00,0.0007
3856.00,0.0007
3855.00,0.0007
3854.00,0.0007
3853.00,0.0007
3852.00,0.0007
3851.00,0.0007
3850.00,0.0007
3849.00,0.0007
3848.00,0.0007
3847.00,0.0006
3846.00,0.0006
3845.00,0.0006
3844.00,0.0006
3843.00,0.0006
3842.00,0.0006
3841.00,0.0007
3840.00,0.0007
3839.00,0.0008
3838.00,0.0009
3837.00,0.0009
3836.00,0.0009
3835.00,0.0009
3834.00,0.0008
3833.00,0.0008
3832.00,0.0007
3831.00,0.0007
3830.00,0.0007
3829.00,0.0007
3828.00,0.0007
3827.00,0.0007
3826.00,0.0007
3825.00,0.0007
3824.00,0.0007
3823.00,0.0006
3822.00,0.0006
3821.00,0.0006
3820.00,0.0006
3819.00,0.0006
3818.00,0.0006
3817.00,0.0006
3816.00,0.0006
3815.00,0.0007
3814.00,0.0007
3813.00,0.0007
3812.00,0.0007
3811.00,0.0007
3810.00,0.0007
3809.00,0.0007
3808.00,0.0007
3807.00,0.0007
3806.00,0.0007
3805.00,0.0008
3804.00,0.0008
3803.00,0.0008
3802.00,0.0007
3801.00,0.0007
3800.00,0.0007
3799.00,0.0007
3798.00,0.0007
3797.00,0.0007
3796.00,0.0006
3795.00,0.0006
3794.00,0.0006
3793.00,0.0006
3792.00,0.0005
3791.00,0.0006
3790.00,0.0006
3789.00,0.0007
3788.00,0.0008
3787.00,0.0008
3786.00,0.0008
3785.00,0.0007
3784.00,0.0007
3783.00,0.0006
3782.00,0.0006
3781.00,0.0006
3780.00,0.0006
3779.00,0.0006
3778.00,0.0006
3777.00,0.0006
3776.00,0.0006
3775.00,0.0006
3774.00,0.0007
3773.00,0.0007
3772.00,0.0008
3771.00,0.0008
3770.00,0.0008
3769.00,0.0008
3768.00,0.0008
3767.00,0.0008
3766.00,0.0007
3765.00,0.0007
3764.00,0.0007
3763.00,0.0008
3762.00,0.0008
3761.00,0.0008
3760.00,0.0008
3759.00,0.0007
3758.00,0.0007
3757.00,0.0007
3756.00,0.0007
3755.00,0.0007
3754.00,0.0007
3753.00,0.0008
3752.00,0.0008
3751.00,0.0008
3750.00,0.0008
3749.00,0.0008
3748.00,0.0008
3747.00,0.0008
3746.00,0.0008
3745.00,0.0008
3744.00,0.0008
3743.00,0.0008
3742.00,0.0007
3741.00,0.0007
3740.00,0.0006
3739.00,0.0006
3738.00,0.0006
3737.00,0.0006
3736.00,0.0005
3735.00,0.0005
3734.00,0.0005
3733.00,0.0005
3732.00,0.0005
3731.00,0.0005
3730.00,0.0005
3729.00,0.0005
3728.00,0.0005
3727.00,0.0005
3726.00,0.0005
3725.00,0.0005
3724.00,0.0005
3723.00,0.0005
3722.00,0.0005
3721.00,0.0005
3720.00,0.0005
3719.00,0.0006
3718.00,0.0006
3717.00,0.0006
3716.00,0.0006
3715.00,0.0006
3714.00,0.0005
3713.00,0.0005
3712.00,0.0005
3711.00,0.0005
3710.00,0.0005
3709.00,0.0005
3708.00,0.0005
3707.00,0.0004
3706.00,0.0004
3705.00,0.0004
3704.00,0.0005
3703.00,0.0005
3702.00,0.0005
3701.00,0.0004
3700.00,0.0004
3699.00,0.0005
3698.00,0.0005
3697.00,0.0005
3696.00,0.0005
3695.00,0.0006
3694.00,0.0006
3693.00,0.0006
3692.00,0.0006
3691.00,0.0006
3690.00,0.0006
3689.00,0.0007
3688.00,0.0007
3687.00,0.0007
3686.00,0.0007
3685.00,0.0006
3684.00,0.0006
3683.00,0.0006
3682.00,0.0005
3681.00,0.0005
3680.00,0.0005
3679.00,0.0006
3678.00,0.0006
3677.00,0.0005
3676.00,0.0005
3675.00,0.0005
3674.00,0.0005
3673.00,0.0006
3672.00,0.0006
3671.00,0.0006
3670.00,0.0006
3669.00,0.0006
3668.00,0.0006
3667.00,0.0006
3666.00,0.0006
3665.00,0.0005
3664.00,0.0005
3663.00,0.0006
3662.00,0.0006
3661.00,0.0006
3660.00,0.0006
3659.00,0.0006
3658.00,0.0006
3657.00,0.0006
3656.00,0.0006
3655.00,0.0007
3654.00,0.0007
3653.00,0.0007
3652.00,0.0007
3651.00,0.0007
3650.00,0.0007
3649.00,0.0007
3648.00,0.0007
3647.00,0.0007
3646.00,0.0006
3645.00,0.0006
3644.00,0.0005
3643.00,0.0005
3642.00,0.0006
3641.00,0.0006
3640.00,0.0006
3639.00,0.0006
3638.00,0.0006
3637.00,0.0007
3636.00,0.0007
3635.00,0.0007
3634.00,0.0007
3633.00,0.0007
3632.00,0.0007
3631.00,0.0007
3630.00,0.0008
3629.00,0.0008
3628.00,0.0008
3627.00,0.0008
3626.00,0.0007
3625.00,0.0007
3624.00,0.0007
3623.00,0.0007
3622.00,0.0007
3621.00,0.0008
3620.00,0.0008
3619.00,0.0009
3618.00,0.0009
3617.00,0.0009
3616.00,0.0009
3615.00,0.0009
3614.00,0.0009
3613.00,0.0009
3612.00,0.0009
3611.00,0.0009
3610.00,0.0009
3609.00,0.0009
3608.00,0.0009
3607.00,0.0009
3606.00,0.0009
3605.00,0.0009
3604.00,0.0010
3603.00,0.0010
3602.00,0.0010
3601.00,0.0010
3600.00,0.0011
3599.00,0.0011
3598.00,0.0012
3597.00,0.0012
3596.00,0.0012
3595.00,0.0012
3594.00,0.0011
3593.00,0.0011
3592.00,0.0012
3591.00,0.0012
3590.00,0.0012
3589.00,0.0012
3588.00,0.0013
3587.00,0.0013
3586.00,0.0013
3585.00,0.0013
3584.00,0.0013
3583.00,0.0013
3582.00,0.0013
3581.00,0.0014
3580.00,0.0014
3579.00,0.0015
3578.00,0.0015
3577.00,0.0015
3576.00,0.0015
3575.00,0.0015
3574.00,0.0016
3573.00,0.0016
3572.00,0.0017
3571.00,0.0017
3570.00,0.0017
3569.00,0.0017
3568.00,0.0017
3567.00,0.0017
3566.00,0.0018
3565.00,0.0019
3564.00,0.0019
3563.00,0.0019
3562.00,0.0018
3561.00,0.0018
3560.00,0.0018
3559.00,0.0018
3558.00,0.0019
3557.00,0.0019
3556.00,0.0019
3555.00,0.0020
3554.00,0.0020
3553.00,0.0021
3552.00,0.0021
3551.00,0.0021
3550.00,0.0022
3549.00,0.0022
3548.00,0.0022
3547.00,0.0022
3546.00,0.0023
3545.00,0.0023
3544.00,0.0023
3543.00,0.0023
3542.00,0.0023
3541.00,0.0023
3540.00,0.0024
3539.00,0.0024
3538.00,0.0024
3537.00,0.0024
3536.00,0.0025
3535.00,0.0025
3534.00,0.0026
3533.00,0.0026
3532.00,0.0027
3531.00,0.0027
3530.00,0.0027
3529.00,0.0027
3528.00,0.0027
3527.00,0.0027
3526.00,0.0027
3525.00,0.0028
3524.00,0.0028
3523.00,0.0029
3522.00,0.0029
3521.00,0.0029
3520.00,0.0029
3519.00,0.0029
3518.00,0.0029
3517.00,0.0030
3516.00,0.0030
3515.00,0.0030
3514.00,0.0030
3513.00,0.0030
3512.00,0.0031
3511.00,0.0031
3510.00,0.0032
3509.00,0.0032
3508.00,0.0033
3507.00,0.0033
3506.00,0.0033
3505.00,0.0033
3504.00,0.0033
3503.00,0.0034
3502.00,0.0034
3501.00,0.0034
3500.00,0.0034
3499.00,0.0035
3498.00,0.0035
3497.00,0.0035
3496.00,0.0035
3495.00,0.0035
3494.00,0.0035
3493.00,0.0035
3492.00,0.0036
3491.00,0.0036
3490.00,0.0037
3489.00,0.0037
3488.00,0.0038
3487.00,0.0038
3486.00,0.0038
3485.00,0.0038
3484.00,0.0038
3483.00,0.0039
3482.00,0.0039
3481.00,0.0039
3480.00,0.0040
3479.00,0.0040
3478.00,0.0040
3477.00,0.0040
3476.00,0.0040
3475.00,0.0040
3474.00,0.0041
3473.00,0.0041
3472.00,0.0041
3471.00,0.0041
3470.00,0.0042
3469.00,0.0042
3468.00,0.0042
3467.00,0.0042
3466.00,0.0042
3465.00,0.0042
3464.00,0.0043
3463.00,0.0043
3462.00,0.0043
3461.00,0.0044
3460.00,0.0044
3459.00,0.0044
3458.00,0.0044
3457.00,0.0045
3456.00,0.0045
3455.00,0.0045
3454.00,0.0046
3453.00,0.0046
3452.00,0.0046
3451.00,0.0046
3450.00,0.0046
3449.00,0.0046
3448.00,0.0047
3447.00,0.0047
3446.00,0.0047
3445.00,0.0047
3444.00,0.0047
3443.00,0.0046
3442.00,0.0047
3441.00,0.0047
3440.00,0.0048
3439.00,0.0049
3438.00,0.0049
3437.00,0.0050
3436.00,0.0050
3435.00,0.0051
3434.00,0.0051
3433.00,0.0051
3432.00,0.0051
3431.00,0.0051
3430.00,0.0051
3429.00,0.0051
3428.00,0.0051
3427.00,0.0052
3426.00,0.0052
3425.00,0.0052
3424.00,0.0052
3423.00,0.0053
3422.00,0.0053
3421.00,0.0053
3420.00,0.0053
3419.00,0.0054
3418.00,0.0054
3417.00,0.0054
3416.00,0.0054
3415.00,0.0055
3414.00,0.0055
3413.00,0.0055
3412.00,0.0055
3411.00,0.0056
3410.00,0.0056
3409.00,0.0056
3408.00,0.0056
3407.00,0.0056
3406.00,0.0056
3405.00,0.0056
3404.00,0.0056
3403.00,0.0056
3402.00,0.0057
3401.00,0.0058
3400.00,0.0058
3399.00,0.0058
3398.00,0.0058
3397.00,0.0057
3396.00,0.0057
3395.00,0.0057
3394.00,0.0057
3393.00,0.0058
3392.00,0.0058
3391.00,0.0059
3390.00,0.0059
3389.00,0.0059
3388.00,0.0059
3387.00,0.0059
3386.00,0.0060
3385.00,0.0060
3384.00,0.0060
3383.00,0.0059
3382.00,0.0059
3381.00,0.0059
3380.00,0.0059
3379.00,0.0060
3378.00,0.0060
3377.00,0.0060
3376.00,0.0061
3375.00,0.0061
3374.00,0.0061
3373.00,0.0061
3372.00,0.0062
3371.00,0.0062
3370.00,0.0062
3369.00,0.0062
3368.00,0.0062
3367.00,0.0062
3366.00,0.0062
3365.00,0.0062
3364.00,0.0062
3363.00,0.0063
3362.00,0.0063
3361.00,0.0063
3360.00,0.0063
3359.00,0.0063
3358.00,0.0063
3357.00,0.0064
3356.00,0.0064
3355.00,0.0064
3354.00,0.0064
3353.00,0.0064
3352.00,0.0063
3351.00,0.0063
3350.00,0.0063
3349.00,0.0063
3348.00,0.0064
3347.00,0.0064
3346.00,0.0064
3345.00,0.0064
3344.00,0.0064
3343.00,0.0064
3342.00,0.0064
3341.00,0.0064
3340.00,0.0065
3339.00,0.0065
3338.00,0.0065
3337.00,0.0065
3336.00,0.0065
3335.00,0.0065
3334.00,0.0065
3333.00,0.0065
3332.00,0.0065
3331.00,0.0065
3330.00,0.0064
3329.00,0.0065
3328.00,0.0065
3327.00,0.0065
3326.00,0.0065
3325.00,0.0065
3324.00,0.0065
3323.00,0.0064
3322.00,0.0064
3321.00,0.0064
3320.00,0.0065
3319.00,0.0065
3318.00,0.0065
3317.00,0.0065
3316.00,0.0065
3315.00,0.0065
3314.00,0.0065
3313.00,0.0065
3312.00,0.0065
3311.00,0.0065
3310.00,0.0065
3309.00,0.0065
3308.00,0.0066
3307.00,0.0066
3306.00,0.0066
3305.00,0.0065
3304.00,0.0065
3303.00,0.0065
3302.00,0.0064
3301.00,0.0064
3300.00,0.0064
3299.00,0.0064
3298.00,0.0064
3297.00,0.0064
3296.00,0.0065
3295.00,0.0065
3294.00,0.0065
3293.00,0.0065
3292.00,0.0065
3291.00,0.0064
3290.00,0.0064
3289.00,0.0064
3288.00,0.0064
3287.00,0.0064
3286.00,0.0064
3285.00,0.0063
3284.00,0.0063
3283.00,0.0063
3282.00,0.0062
3281.00,0.0062
3280.00,0.0062
3279.00,0.0062
3278.00,0.0062
3277.00,0.0061
3276.00,0.0061
3275.00,0.0061
3274.00,0.0060
3273.00,0.0060
3272.00,0.0060
3271.00,0.0060
3270.00,0.0060
3269.00,0.0060
3268.00,0.0060
3267.00,0.0059
3266.00,0.0059
3265.00,0.0059
3264.00,0.0058
3263.00,0.0058
3262.00,0.0058
3261.00,0.0058
3260.00,0.0058
3259.00,0.0058
3258.00,0.0058
3257.00,0.0057
3256.00,0.0057
3255.00,0.0057
3254.00,0.0056
3253.00,0.0056
3252.00,0.0056
3251.00,0.0056
3250.00,0.0056
3249.00,0.0056
3248.00,0.0055
3247.00,0.0055
3246.00,0.0055
3245.00,0.0055
3244.00,0.0055
3243.00,0.0055
3242.00,0.0055
3241.00,0.0055
3240.00,0.0055
3239.00,0.0055
3238.00,0.0055
3237.00,0.0055
3236.00,0.0054
3235.00,0.0054
3234.00,0.0054
3233.00,0.0054
3232.00,0.0054
3231.00,0.0055
3230.00,0.0055
3229.00,0.0055
3228.00,0.0055
3227.00,0.0055
3226.00,0.0055
3225.00,0.0055
3224.00,0.0055
3223.00,0.0055
3222.00,0.0055
3221.00,0.0055
3220.00,0.0055
3219.00,0.0055
3218.00,0.0056
3217.00,0.0056
3216.00,0.0056
3215.00,0.0057
3214.00,0.0057
3213.00,0.0057
3212.00,0.0057
3211.00,0.0058
3210.00,0.0058
3209.00,0.0058
3208.00,0.0058
3207.00,0.0058
3206.00,0.0058
3205.00,0.0057
3204.00,0.0057
3203.00,0.0057
3202.00,0.0057
3201.00,0.0057
3200.00,0.0057
3199.00,0.0057
3198.00,0.0057
3197.00,0.0057
3196.00,0.0057
3195.00,0.0057
3194.00,0.0057
3193.00,0.0057
3192.00,0.0056
3191.00,0.0056
3190.00,0.0056
3189.00,0.0056
3188.00,0.0056
3187.00,0.0056
3186.00,0.0055
3185.00,0.0055
3184.00,0.0054
3183.00,0.0054
3182.00,0.0054
3181.00,0.0054
3180.00,0.0053
3179.00,0.0053
3178.00,0.0053
3177.00,0.0052
3176.00,0.0052
3175.00,0.0052
3174.00,0.0051
3173.00,0.0051
3172.00,0.0050
3171.00,0.0050
3170.00,0.0050
3169.00,0.0050
3168.00,0.0050
3167.00,0.0050
3166.00,0.0050
3165.00,0.0050
3164.00,0.0049
3163.00,0.0049
3162.00,0.0049
3161.00,0.0049
3160.00,0.0048
3159.00,0.0048
3158.00,0.0048
3157.00,0.0047
3156.00,0.0047
3155.00,0.0047
3154.00,0.0047
3153.00,0.0047
3152.00,0.0047
3151.00,0.0048
3150.00,0.0048
3149.00,0.0048
3148.00,0.0048
3147.00,0.0048
3146.00,0.0048
3145.00,0.0048
3144.00,0.0048
3143.00,0.0047
3142.00,0.0047
3141.00,0.0047
3140.00,0.0046
3139.00,0.0046
3138.00,0.0046
3137.00,0.0046
3136.00,0.0045
3135.00,0.0045
3134.00,0.0045
3133.00,0.0045
3132.00,0.0045
3131.00,0.0045
3130.00,0.0045
3129.00,0.0044
3128.00,0.0044
3127.00,0.0043
3126.00,0.0043
3125.00,0.0042
3124.00,0.0042
3123.00,0.0041
3122.00,0.0041
3121.00,0.0041
3120.00,0.0041
3119.00,0.0041
3118.00,0.0041
3117.00,0.0040
3116.00,0.0040
3115.00,0.0040
3114.00,0.0040
3113.00,0.0040
3112.00,0.0040
3111.00,0.0039
3110.00,0.0039
3109.00,0.0039
3108.00,0.0038
3107.00,0.0038
3106.00,0.0038
3105.00,0.0038
3104.00,0.0038
3103.00,0.0038
3102.00,0.0038
3101.00,0.0038
3100.00,0.0038
3099.00,0.0038
3098.00,0.0037
3097.00,0.0037
3096.00,0.0037
3095.00,0.0037
3094.00,0.0037
3093.00,0.0037
3092.00,0.0037
3091.00,0.0037
3090.00,0.0037
3089.00,0.0037
3088.00,0.0036
3087.00,0.0036
3086.00,0.0036
3085.00,0.0036
3084.00,0.0036
3083.00,0.0035
3082.00,0.0036
3081.00,0.0036
3080.00,0.0036
3079.00,0.0036
3078.00,0.0036
3077.00,0.0036
3076.00,0.0036
3075.00,0.0036
3074.00,0.0036
3073.00,0.0036
3072.00,0.0036
3071.00,0.0036
3070.00,0.0037
3069.00,0.0037
3068.00,0.0037
3067.00,0.0038
3066.00,0.0038
3065.00,0.0038
3064.00,0.0038
3063.00,0.0038
3062.00,0.0038
3061.00,0.0038
3060.00,0.0038
3059.00,0.0038
3058.00,0.0038
3057.00,0.0038
3056.00,0.0038
3055.00,0.0038
3054.00,0.0038
3053.00,0.0039
3052.00,0.0039
3051.00,0.0039
3050.00,0.0039
3049.00,0.0040
3048.00,0.0040
3047.00,0.0040
3046.00,0.0040
3045.00,0.0040
3044.00,0.0040
3043.00,0.0040
3042.00,0.0041
3041.00,0.0041
3040.00,0.0042
3039.00,0.0042
3038.00,0.0042
3037.00,0.0042
3036.00,0.0042
3035.00,0.0042
3034.00,0.0043
3033.00,0.0043
3032.00,0.0044
3031.00,0.0044
3030.00,0.0045
3029.00,0.0045
3028.00,0.0046
3027.00,0.0046
3026.00,0.0047
3025.00,0.0047
3024.00,0.0048
3023.00,0.0048
3022.00,0.0049
3021.00,0.0050
3020.00,0.0050
3019.00,0.0051
3018.00,0.0052
3017.00,0.0053
3016.00,0.0054
3015.00,0.0055
3014.00,0.0056
3013.00,0.0058
3012.00,0.0059
3011.00,0.0061
3010.00,0.0063
3009.00,0.0065
3008.00,0.0067
3007.00,0.0068
3006.00,0.0070
3005.00,0.0072
3004.00,0.0074
3003.00,0.0077
3002.00,0.0079
3001.00,0.0082
3000.00,0.0084
2999.00,0.0087
2998.00,0.0090
2997.00,0.0093
2996.00,0.0097
2995.00,0.0101
2994.00,0.0106
2993.00,0.0112
2992.00,0.0117
2991.00,0.0124
2990.00,0.0131
2989.00,0.0139
2988.00,0.0147
2987.00,0.0157
2986.00,0.0168
2985.00,0.0180
2984.00,0.0193
2983.00,0.0209
2982.00,0.0226
2981.00,0.0246
2980.00,0.0267
2979.00,0.0291
2978.00,0.0319
2977.00,0.0350
2976.00,0.0386
2975.00,0.0428
2974.00,0.0475
2973.00,0.0528
2972.00,0.0589
2971.00,0.0657
2970.00,0.0734
2969.00,0.0819
2968.00,0.0913
2967.00,0.1015
2966.00,0.1124
2965.00,0.1240
2964.00,0.1357
2963.00,0.1472
2962.00,0.1578
2961.00,0.1669
2960.00,0.1741
2959.00,0.1793
2958.00,0.1828
2957.00,0.1852
2956.00,0.1872
2955.00,0.1895
2954.00,0.1925
2953.00,0.1959
2952.00,0.1991
2951.00,0.2010
2950.00,0.2006
2949.00,0.1970
2948.00,0.1900
2947.00,0.1799
2946.00,0.1675
2945.00,0.1541
2944.00,0.1411
2943.00,0.1296
2942.00,0.1202
2941.00,0.1133
2940.00,0.1089
2939.00,0.1067
2938.00,0.1066
2937.00,0.1083
2936.00,0.1116
2935.00,0.1164
2934.00,0.1225
2933.00,0.1298
2932.00,0.1381
2931.00,0.1472
2930.00,0.1568
2929.00,0.1666
2928.00,0.1763
2927.00,0.1856
2926.00,0.1944
2925.00,0.2026
2924.00,0.2104
2923.00,0.2179
2922.00,0.2252
2921.00,0.2320
2920.00,0.2381
2919.00,0.2428
2918.00,0.2454
2917.00,0.2454
2916.00,0.2428
2915.00,0.2378
2914.00,0.2312
2913.00,0.2237
2912.00,0.2162
2911.00,0.2091
2910.00,0.2027
2909.00,0.1969
2908.00,0.1914
2907.00,0.1860
2906.00,0.1803
2905.00,0.1743
2904.00,0.1678
2903.00,0.1611
2902.00,0.1541
2901.00,0.1472
2900.00,0.1404
2899.00,0.1339
2898.00,0.1278
2897.00,0.1223
2896.00,0.1174
2895.00,0.1132
2894.00,0.1098
2893.00,0.1071
2892.00,0.1051
2891.00,0.1036
2890.00,0.1028
2889.00,0.1024
2888.00,0.1024
2887.00,0.1028
2886.00,0.1036
2885.00,0.1047
2884.00,0.1061
2883.00,0.1078
2882.00,0.1098
2881.00,0.1120
2880.00,0.1140
2879.00,0.1156
2878.00,0.1164
2877.00,0.1165
2876.00,0.1159
2875.00,0.1151
2874.00,0.1145
2873.00,0.1145
2872.00,0.1151
2871.00,0.1165
2870.00,0.1184
2869.00,0.1203
2868.00,0.1216
2867.00,0.1214
2866.00,0.1191
2865.00,0.1145
2864.00,0.1076
2863.00,0.0994
2862.00,0.0908
2861.00,0.0828
2860.00,0.0758
2859.00,0.0703
2858.00,0.0661
2857.00,0.0631
2856.00,0.0611
2855.00,0.0599
2854.00,0.0595
2853.00,0.0596
2852.00,0.0604
2851.00,0.0618
2850.00,0.0639
2849.00,0.0667
2848.00,0.0703
2847.00,0.0748
2846.00,0.0802
2845.00,0.0865
2844.00,0.0937
2843.00,0.1014
2842.00,0.1092
2841.00,0.1164
2840.00,0.1221
2839.00,0.1255
2838.00,0.1258
2837.00,0.1226
2836.00,0.1161
2835.00,0.1068
2834.00,0.0960
2833.00,0.0848
2832.00,0.0742
2831.00,0.0648
2830.00,0.0569
2829.00,0.0504
2828.00,0.0452
2827.00,0.0409
2826.00,0.0374
2825.00,0.0345
2824.00,0.0321
2823.00,0.0300
2822.00,0.0282
2821.00,0.0267
2820.00,0.0254
2819.00,0.0242
2818.00,0.0231
2817.00,0.0222
2816.00,0.0215
2815.00,0.0208
2814.00,0.0202
2813.00,0.0196
2812.00,0.0191
2811.00,0.0186
2810.00,0.0181
2809.00,0.0175
2808.00,0.0169
2807.00,0.0163
2806.00,0.0157
2805.00,0.0150
2804.00,0.0143
2803.00,0.0137
2802.00,0.0132
2801.00,0.0128
2800.00,0.0124
2799.00,0.0121
2798.00,0.0119
2797.00,0.0116
2796.00,0.0114
2795.00,0.0112
2794.00,0.0109
2793.00,0.0105
2792.00,0.0102
2791.00,0.0098
2790.00,0.0095
2789.00,0.0092
2788.00,0.0089
2787.00,0.0086
2786.00,0.0083
2785.00,0.0080
2784.00,0.0077
2783.00,0.0075
2782.00,0.0072
2781.00,0.0070
2780.00,0.0068
2779.00,0.0066
2778.00,0.0065
2777.00,0.0063
2776.00,0.0062
2775.00,0.0061
2774.00,0.0061
2773.00,0.0060
2772.00,0.0060
2771.00,0.0059
2770.00,0.0059
2769.00,0.0058
2768.00,0.0058
2767.00,0.0057
2766.00,0.0057
2765.00,0.0057
2764.00,0.0056
2763.00,0.0056
2762.00,0.0055
2761.00,0.0055
2760.00,0.0055
2759.00,0.0055
2758.00,0.0055
2757.00,0.0055
2756.00,0.0054
2755.00,0.0054
2754.00,0.0054
2753.00,0.0053
2752.00,0.0053
2751.00,0.0053
2750.00,0.0053
2749.00,0.0053
2748.00,0.0053
2747.00,0.0053
2746.00,0.0054
2745.00,0.0054
2744.00,0.0055
2743.00,0.0056
2742.00,0.0058
2741.00,0.0059
2740.00,0.0060
2739.00,0.0061
2738.00,0.0062
2737.00,0.0063
2736.00,0.0065
2735.00,0.0066
2734.00,0.0067
2733.00,0.0069
2732.00,0.0071
2731.00,0.0073
2730.00,0.0075
2729.00,0.0077
2728.00,0.0080
2727.00,0.0082
2726.00,0.0084
2725.00,0.0086
2724.00,0.0088
2723.00,0.0088
2722.00,0.0088
2721.00,0.0086
2720.00,0.0083
2719.00,0.0080
2718.00,0.0077
2717.00,0.0074
2716.00,0.0071
2715.00,0.0068
2714.00,0.0066
2713.00,0.0064
2712.00,0.0062
2711.00,0.0060
2710.00,0.0058
2709.00,0.0057
2708.00,0.0056
2707.00,0.0054
2706.00,0.0053
2705.00,0.0052
2704.00,0.0051
2703.00,0.0050
2702.00,0.0050
2701.00,0.0049
2700.00,0.0048
2699.00,0.0048
2698.00,0.0047
2697.00,0.0047
2696.00,0.0047
2695.00,0.0046
2694.00,0.0046
2693.00,0.0046
2692.00,0.0046
2691.00,0.0046
2690.00,0.0047
2689.00,0.0047
2688.00,0.0046
2687.00,0.0046
2686.00,0.0046
2685.00,0.0046
2684.00,0.0046
2683.00,0.0046
2682.00,0.0047
2681.00,0.0047
2680.00,0.0047
2679.00,0.0047
2678.00,0.0047
2677.00,0.0047
2676.00,0.0047
2675.00,0.0047
2674.00,0.0047
2673.00,0.0047
2672.00,0.0047
2671.00,0.0046
2670.00,0.0046
2669.00,0.0046
2668.00,0.0046
2667.00,0.0046
2666.00,0.0046
2665.00,0.0047
2664.00,0.0047
2663.00,0.0048
2662.00,0.0048
2661.00,0.0049
2660.00,0.0049
2659.00,0.0049
2658.00,0.0048
2657.00,0.0048
2656.00,0.0047
2655.00,0.0047
2654.00,0.0047
2653.00,0.0046
2652.00,0.0046
2651.00,0.0045
2650.00,0.0044
2649.00,0.0044
2648.00,0.0043
2647.00,0.0043
2646.00,0.0043
2645.00,0.0043
2644.00,0.0042
2643.00,0.0041
2642.00,0.0041
2641.00,0.0040
2640.00,0.0040
2639.00,0.0039
2638.00,0.0039
2637.00,0.0039
2636.00,0.0038
2635.00,0.0038
2634.00,0.0038
2633.00,0.0038
2632.00,0.0038
2631.00,0.0038
2630.00,0.0039
2629.00,0.0039
2628.00,0.0040
2627.00,0.0040
2626.00,0.0040
2625.00,0.0040
2624.00,0.0041
2623.00,0.0041
2622.00,0.0041
2621.00,0.0041
2620.00,0.0041
2619.00,0.0041
2618.00,0.0041
2617.00,0.0041
2616.00,0.0041
2615.00,0.0041
2614.00,0.0041
2613.00,0.0041
2612.00,0.0040
2611.00,0.0040
2610.00,0.0039
2609.00,0.0039
2608.00,0.0038
2607.00,0.0038
2606.00,0.0037
2605.00,0.0036
2604.00,0.0035
2603.00,0.0034
2602.00,0.0034
2601.00,0.0034
2600.00,0.0033
2599.00,0.0033
2598.00,0.0032
2597.00,0.0032
2596.00,0.0032
2595.00,0.0032
2594.00,0.0033
2593.00,0.0033
2592.00,0.0034
2591.00,0.0035
2590.00,0.0035
2589.00,0.0036
2588.00,0.0036
2587.00,0.0037
2586.00,0.0038
2585.00,0.0039
2584.00,0.0039
2583.00,0.0039
2582.00,0.0039
2581.00,0.0038
2580.00,0.0037
2579.00,0.0037
2578.00,0.0036
2577.00,0.0035
2576.00,0.0034
2575.00,0.0033
2574.00,0.0033
2573.00,0.0032
2572.00,0.0031
2571.00,0.0030
2570.00,0.0029
2569.00,0.0028
2568.00,0.0027
2567.00,0.0026
2566.00,0.0025
2565.00,0.0025
2564.00,0.0024
2563.00,0.0023
2562.00,0.0023
2561.00,0.0023
2560.00,0.0024
2559.00,0.0024
2558.00,0.0025
2557.00,0.0025
2556.00,0.0024
2555.00,0.0024
2554.00,0.0023
2553.00,0.0022
2552.00,0.0022
2551.00,0.0021
2550.00,0.0020
2549.00,0.0020
2548.00,0.0020
2547.00,0.0020
2546.00,0.0019
2545.00,0.0019
2544.00,0.0019
2543.00,0.0019
2542.00,0.0019
2541.00,0.0018
2540.00,0.0017
2539.00,0.0017
2538.00,0.0017
2537.00,0.0017
2536.00,0.0017
2535.00,0.0017
2534.00,0.0017
2533.00,0.0017
2532.00,0.0016
2531.00,0.0016
2530.00,0.0016
2529.00,0.0015
2528.00,0.0015
2527.00,0.0014
2526.00,0.0014
2525.00,0.0014
2524.00,0.0014
2523.00,0.0013
2522.00,0.0013
2521.00,0.0013
2520.00,0.0013
2519.00,0.0013
2518.00,0.0013
2517.00,0.0013
2516.00,0.0012
2515.00,0.0011
2514.00,0.0010
2513.00,0.0010
2512.00,0.0010
2511.00,0.0011
2510.00,0.0011
2509.00,0.0012
2508.00,0.0012
2507.00,0.0012
2506.00,0.0012
2505.00,0.0011
2504.00,0.0011
2503.00,0.0011
2502.00,0.0011
2501.00,0.0011
2500.00,0.0011
2499.00,0.0011
2498.00,0.0011
2497.00,0.0011
2496.00,0.0011
2495.00,0.0011
2494.00,0.0010
2493.00,0.0010
2492.00,0.0010
2491.00,0.0010
2490.00,0.0010
2489.00,0.0010
2488.00,0.0009
2487.00,0.0009
2486.00,0.0009
2485.00,0.0010
2484.00,0.0010
2483.00,0.0010
2482.00,0.0010
2481.00,0.0009
2480.00,0.0009
2479.00,0.0009
2478.00,0.0010
2477.00,0.0010
2476.00,0.0010
2475.00,0.0010
2474.00,0.0010
2473.00,0.0010
2472.00,0.0010
2471.00,0.0010
2470.00,0.0010
2469.00,0.0010
2468.00,0.0009
2467.00,0.0009
2466.00,0.0009
2465.00,0.0009
2464.00,0.0009
2463.00,0.0009
2462.00,0.0010
2461.00,0.0010
2460.00,0.0010
2459.00,0.0010
2458.00,0.0010
2457.00,0.0011
2456.00,0.0012
2455.00,0.0013
2454.00,0.0013
2453.00,0.0014
2452.00,0.0013
2451.00,0.0012
2450.00,0.0011
2449.00,0.0011
2448.00,0.0010
2447.00,0.0010
2446.00,0.0009
2445.00,0.0008
2444.00,0.0008
2443.00,0.0008
2442.00,0.0009
2441.00,0.0009
2440.00,0.0010
2439.00,0.0011
2438.00,0.0012
2437.00,0.0012
2436.00,0.0012
2435.00,0.0011
2434.00,0.0011
2433.00,0.0011
2432.00,0.0012
2431.00,0.0012
2430.00,0.0013
2429.00,0.0013
2428.00,0.0012
2427.00,0.0012
2426.00,0.0012
2425.00,0.0011
2424.00,0.0011
2423.00,0.0011
2422.00,0.0010
2421.00,0.0010
2420.00,0.0010
2419.00,0.0010
2418.00,0.0010
2417.00,0.0010
2416.00,0.0011
2415.00,0.0011
2414.00,0.0011
2413.00,0.0011
2412.00,0.0011
2411.00,0.0010
2410.00,0.0010
2409.00,0.0009
2408.00,0.0009
2407.00,0.0009
2406.00,0.0008
2405.00,0.0008
2404.00,0.0009
2403.00,0.0009
2402.00,0.0010
2401.00,0.0009
2400.00,0.0009
2399.00,0.0008
2398.00,0.0008
2397.00,0.0008
2396.00,0.0009
2395.00,0.0008
2394.00,0.0008
2393.00,0.0008
2392.00,0.0007
2391.00,0.0007
2390.00,0.0007
2389.00,0.0008
2388.00,0.0008
2387.00,0.0008
2386.00,0.0008
2385.00,0.0007
2384.00,0.0007
2383.00,0.0006
2382.00,0.0005
2381.00,0.0004
2380.00,0.0003
2379.00,0.0003
2378.00,0.0002
2377.00,0.0002
2376.00,0.0002
2375.00,0.0002
2374.00,0.0002
2373.00,0.0002
2372.00,0.0002
2371.00,0.0003
2370.00,0.0004
2369.00,0.0003
2368.00,0.0002
2367.00,0.0001
2366.00,0.0001
2365.00,0.0001
2364.00,0.0001
2363.00,0.0003
2362.00,0.0004
2361.00,0.0004
2360.00,0.0004
2359.00,0.0004
2358.00,0.0003
2357.00,0.0002
2356.00,0.0003
2355.00,0.0003
2354.00,0.0004
2353.00,0.0004
2352.00,0.0003
2351.00,0.0002
2350.00,0.0003
2349.00,0.0004
2348.00,0.0005
2347.00,0.0006
2346.00,0.0006
2345.00,0.0006
2344.00,0.0005
2343.00,0.0005
2342.00,0.0005
2341.00,0.0005
2340.00,0.0006
2339.00,0.0006
2338.00,0.0007
2337.00,0.0007
2336.00,0.0006
2335.00,0.0006
2334.00,0.0006
2333.00,0.0005
2332.00,0.0005
2331.00,0.0004
2330.00,0.0004
2329.00,0.0005
2328.00,0.0007
2327.00,0.0011
2326.00,0.0015
2325.00,0.0019
2324.00,0.0021
2323.00,0.0020
2322.00,0.0017
2321.00,0.0013
2320.00,0.0011
2319.00,0.0010
2318.00,0.0010
2317.00,0.0010
2316.00,0.0010
2315.00,0.0010
2314.00,0.0009
2313.00,0.0008
2312.00,0.0007
2311.00,0.0006
2310.00,0.0006
2309.00,0.0006
2308.00,0.0006
2307.00,0.0006
2306.00,0.0006
2305.00,0.0007
2304.00,0.0007
2303.00,0.0007
2302.00,0.0007
2301.00,0.0008
2300.00,0.0009
2299.00,0.0009
2298.00,0.0010
2297.00,0.0011
2296.00,0.0012
2295.00,0.0012
2294.00,0.0013
2293.00,0.0014
2292.00,0.0015
2291.00,0.0015
2290.00,0.0016
2289.00,0.0016
2288.00,0.0016
2287.00,0.0017
2286.00,0.0018
2285.00,0.0018
2284.00,0.0017
2283.00,0.0017
2282.00,0.0016
2281.00,0.0016
2280.00,0.0016
2279.00,0.0015
2278.00,0.0015
2277.00,0.0014
2276.00,0.0014
2275.00,0.0013
2274.00,0.0012
2273.00,0.0012
2272.00,0.0012
2271.00,0.0012
2270.00,0.0012
2269.00,0.0012
2268.00,0.0012
2267.00,0.0012
2266.00,0.0012
2265.00,0.0011
2264.00,0.0011
2263.00,0.0011
2262.00,0.0012
2261.00,0.0013
2260.00,0.0013
2259.00,0.0013
2258.00,0.0012
2257.00,0.0010
2256.00,0.0009
2255.00,0.0008
2254.00,0.0008
2253.00,0.0009
2252.00,0.0010
2251.00,0.0011
2250.00,0.0012
2249.00,0.0012
2248.00,0.0013
2247.00,0.0012
2246.00,0.0010
2245.00,0.0009
2244.00,0.0008
2243.00,0.0007
2242.00,0.0007
2241.00,0.0006
2240.00,0.0005
2239.00,0.0005
2238.00,0.0006
2237.00,0.0008
2236.00,0.0010
2235.00,0.0011
2234.00,0.0012
2233.00,0.0011
2232.00,0.0011
2231.00,0.0010
2230.00,0.0010
2229.00,0.0009
2228.00,0.0007
2227.00,0.0006
2226.00,0.0005
2225.00,0.0004
2224.00,0.0004
2223.00,0.0004
2222.00,0.0003
2221.00,0.0003
2220.00,0.0004
2219.00,0.0004
2218.00,0.0004
2217.00,0.0005
2216.00,0.0005
2215.00,0.0006
2214.00,0.0006
2213.00,0.0007
2212.00,0.0006
2211.00,0.0005
2210.00,0.0004
2209.00,0.0004
2208.00,0.0005
2207.00,0.0007
2206.00,0.0009
2205.00,0.0010
2204.00,0.0010
2203.00,0.0008
2202.00,0.0006
2201.00,0.0005
2200.00,0.0007
2199.00,0.0009
2198.00,0.0010
2197.00,0.0009
2196.00,0.0008
2195.00,0.0007
2194.00,0.0007
2193.00,0.0007
2192.00,0.0009
2191.00,0.0009
2190.00,0.0010
2189.00,0.0011
2188.00,0.0012
2187.00,0.0012
2186.00,0.0012
2185.00,0.0011
2184.00,0.0009
2183.00,0.0006
2182.00,0.0002
2181.00,-0.0001
2180.00,-0.0001
2179.00,-0.0001
2178.00,-0.0002
2177.00,-0.0003
2176.00,-0.0004
2175.00,-0.0005
2174.00,-0.0004
2173.00,-0.0003
2172.00,-0.0001
2171.00,0.0000
2170.00,0.0003
2169.00,0.0006
2168.00,0.0010
2167.00,0.0015
2166.00,0.0019
2165.00,0.0022
2164.00,0.0024
2163.00,0.0023
2162.00,0.0021
2161.00,0.0014
2160.00,0.0004
2159.00,-0.0009
2158.00,-0.0020
2157.00,-0.0025
2156.00,-0.0026
2155.00,-0.0026
2154.00,-0.0025
2153.00,-0.0024
2152.00,-0.0022
2151.00,-0.0019
2150.00,-0.0017
2149.00,-0.0015
2148.00,-0.0015
2147.00,-0.0015
2146.00,-0.0014
2145.00,-0.0012
2144.00,-0.0011
2143.00,-0.0011
2142.00,-0.0012
2141.00,-0.0012
2140.00,-0.0013
2139.00,-0.0012
2138.00,-0.0012
2137.00,-0.0012
2136.00,-0.0013
2135.00,-0.0015
2134.00,-0.0017
2133.00,-0.0017
2132.00,-0.0016
2131.00,-0.0014
2130.00,-0.0012
2129.00,-0.0011
2128.00,-0.0010
2127.00,-0.0009
2126.00,-0.0008
2125.00,-0.0006
2124.00,-0.0005
2123.00,-0.0004
2122.00,-0.0003
2121.00,-0.0003
2120.00,-0.0003
2119.00,-0.0003
2118.00,-0.0002
2117.00,-0.0002
2116.00,-0.0001
2115.00,0.0000
2114.00,0.0001
2113.00,0.0001
2112.00,0.0001
2111.00,0.0001
2110.00,0.0001
2109.00,0.0001
2108.00,0.0000
2107.00,-0.0000
2106.00,-0.0000
2105.00,0.0000
2104.00,0.0001
2103.00,0.0000
2102.00,0.0000
2101.00,0.0001
2100.00,0.0002
2099.00,0.0003
2098.00,0.0002
2097.00,0.0001
2096.00,-0.0002
2095.00,-0.0004
2094.00,-0.0006
2093.00,-0.0006
2092.00,-0.0007
2091.00,-0.0006
2090.00,-0.0004
2089.00,-0.0002
2088.00,0.0000
2087.00,0.0002
2086.00,0.0002
2085.00,0.0002
2084.00,0.0002
2083.00,0.0002
2082.00,0.0002
2081.00,0.0002
2080.00,0.0002
2079.00,0.0002
2078.00,0.0003
2077.00,0.0003
2076.00,0.0003
2075.00,0.0002
2074.00,0.0001
2073.00,0.0000
2072.00,-0.0000
2071.00,-0.0001
2070.00,-0.0002
2069.00,-0.0003
2068.00,-0.0004
2067.00,-0.0005
2066.00,-0.0007
2065.00,-0.0008
2064.00,-0.0008
2063.00,-0.0008
2062.00,-0.0008
2061.00,-0.0008
2060.00,-0.0008
2059.00,-0.0007
2058.00,-0.0005
2057.00,-0.0002
2056.00,0.0001
2055.00,0.0003
2054.00,0.0004
2053.00,0.0007
2052.00,0.0009
2051.00,0.0010
2050.00,0.0008
2049.00,0.0004
2048.00,0.0002
2047.00,0.0001
2046.00,-0.0000
2045.00,-0.0002
2044.00,-0.0003
2043.00,-0.0002
2042.00,0.0001
2041.00,0.0004
2040.00,0.0007
2039.00,0.0008
2038.00,0.0006
2037.00,0.0003
2036.00,-0.0002
2035.00,-0.0006
2034.00,-0.0008
2033.00,-0.0008
2032.00,-0.0008
2031.00,-0.0010
2030.00,-0.0012
2029.00,-0.0015
2028.00,-0.0017
2027.00,-0.0017
2026.00,-0.0016
2025.00,-0.0014
2024.00,-0.0014
2023.00,-0.0014
2022.00,-0.0014
2021.00,-0.0013
2020.00,-0.0011
2019.00,-0.0007
2018.00,-0.0004
2017.00,-0.0003
2016.00,-0.0003
2015.00,-0.0005
2014.00,-0.0006
2013.00,-0.0007
2012.00,-0.0008
2011.00,-0.0009
2010.00,-0.0010
2009.00,-0.0011
2008.00,-0.0014
2007.00,-0.0019
2006.00,-0.0022
2005.00,-0.0023
2004.00,-0.0022
2003.00,-0.0021
2002.00,-0.0021
2001.00,-0.0020
2000.00,-0.0018
1999.00,-0.0016
1998.00,-0.0014
1997.00,-0.0012
1996.00,-0.0010
1995.00,-0.0009
1994.00,-0.0009
1993.00,-0.0010
1992.00,-0.0011
1991.00,-0.0013
1990.00,-0.0013
1989.00,-0.0012
1988.00,-0.0010
1987.00,-0.0008
1986.00,-0.0007
1985.00,-0.0006
1984.00,-0.0004
1983.00,-0.0001
1982.00,0.0003
1981.00,0.0007
1980.00,0.0007
1979.00,0.0002
1978.00,-0.0005
1977.00,-0.0011
1976.00,-0.0014
1975.00,-0.0014
1974.00,-0.0014
1973.00,-0.0014
1972.00,-0.0014
1971.00,-0.0015
1970.00,-0.0015
1969.00,-0.0014
1968.00,-0.0011
1967.00,-0.0008
1966.00,-0.0008
1965.00,-0.0009
1964.00,-0.0010
1963.00,-0.0010
1962.00,-0.0011
1961.00,-0.0011
1960.00,-0.0013
1959.00,-0.0015
1958.00,-0.0017
1957.00,-0.0019
1956.00,-0.0019
1955.00,-0.0018
1954.00,-0.0017
1953.00,-0.0016
1952.00,-0.0015
1951.00,-0.0015
1950.00,-0.0018
1949.00,-0.0020
1948.00,-0.0020
1947.00,-0.0019
1946.00,-0.0018
1945.00,-0.0016
1944.00,-0.0016
1943.00,-0.0017
1942.00,-0.0017
1941.00,-0.0016
1940.00,-0.0014
1939.00,-0.0013
1938.00,-0.0013
1937.00,-0.0014
1936.00,-0.0014
1935.00,-0.0013
1934.00,-0.0013
1933.00,-0.0012
1932.00,-0.0012
1931.00,-0.0012
1930.00,-0.0012
1929.00,-0.0011
1928.00,-0.0010
1927.00,-0.0009
1926.00,-0.0009
1925.00,-0.0008
1924.00,-0.0007
1923.00,-0.0005
1922.00,-0.0003
1921.00,-0.0001
1920.00,-0.0001
1919.00,-0.0002
1918.00,-0.0003
1917.00,-0.0004
1916.00,-0.0004
1915.00,-0.0004
1914.00,-0.0004
1913.00,-0.0004
1912.00,-0.0003
1911.00,-0.0003
1910.00,-0.0003
1909.00,-0.0002
1908.00,-0.0003
1907.00,-0.0003
1906.00,-0.0003
1905.00,-0.0003
1904.00,-0.0004
1903.00,-0.0004
1902.00,-0.0004
1901.00,-0.0004
1900.00,-0.0004
1899.00,-0.0004
1898.00,-0.0004
1897.00,-0.0003
1896.00,-0.0002
1895.00,-0.0002
1894.00,-0.0001
1893.00,-0.0002
1892.00,-0.0002
1891.00,-0.0003
1890.00,-0.0004
1889.00,-0.0004
1888.00,-0.0003
1887.00,-0.0003
1886.00,-0.0002
1885.00,-0.0002
1884.00,-0.0001
1883.00,-0.0002
1882.00,-0.0002
1881.00,-0.0002
1880.00,-0.0002
1879.00,-0.0002
1878.00,-0.0002
1877.00,-0.0002
1876.00,-0.0002
1875.00,-0.0002
1874.00,-0.0002
1873.00,-0.0002
1872.00,-0.0002
1871.00,-0.0001
1870.00,-0.0002
1869.00,-0.0002
1868.00,-0.0002
1867.00,-0.0002
1866.00,-0.0002
1865.00,-0.0002
1864.00,-0.0003
1863.00,-0.0003
1862.00,-0.0003
1861.00,-0.0002
1860.00,-0.0001
1859.00,-0.0001
1858.00,-0.0000
1857.00,-0.0000
1856.00,-0.0000
1855.00,-0.0000
1854.00,-0.0000
1853.00,-0.0000
1852.00,0.0000
1851.00,0.0001
1850.00,0.0001
1849.00,0.0001
1848.00,0.0001
1847.00,-0.0000
1846.00,-0.0001
1845.00,-0.0001
1844.00,-0.0000
1843.00,0.0000
1842.00,0.0000
1841.00,0.0000
1840.00,-0.0000
1839.00,-0.0000
1838.00,-0.0000
1837.00,-0.0000
1836.00,0.0001
1835.00,0.0001
1834.00,0.0001
1833.00,0.0001
1832.00,0.0001
1831.00,0.0001
1830.00,0.0001
1829.00,0.0001
1828.00,0.0001
1827.00,0.0002
1826.00,0.0002
1825.00,0.0002
1824.00,0.0002
1823.00,0.0002
1822.00,0.0002
1821.00,0.0002
1820.00,0.0002
1819.00,0.0002
1818.00,0.0001
1817.00,-0.0000
1816.00,-0.0000
1815.00,0.0001
1814.00,0.0001
1813.00,0.0002
1812.00,0.0002
1811.00,0.0002
1810.00,0.0002
1809.00,0.0003
1808.00,0.0003
1807.00,0.0003
1806.00,0.0003
1805.00,0.0003
1804.00,0.0003
1803.00,0.0004
1802.00,0.0004
1801.00,0.0005
1800.00,0.0004
1799.00,0.0004
1798.00,0.0004
1797.00,0.0004
1796.00,0.0004
1795.00,0.0005
1794.00,0.0006
1793.00,0.0006
1792.00,0.0007
1791.00,0.0007
1790.00,0.0007
1789.00,0.0008
1788.00,0.0009
1787.00,0.0009
1786.00,0.0009
1785.00,0.0009
1784.00,0.0008
1783.00,0.0008
1782.00,0.0009
1781.00,0.0009
1780.00,0.0009
1779.00,0.0008
1778.00,0.0008
1777.00,0.0008
1776.00,0.0008
1775.00,0.0008
1774.00,0.0009
1773.00,0.0009
1772.00,0.0010
1771.00,0.0011
1770.00,0.0011
1769.00,0.0011
1768.00,0.0012
1767.00,0.0012
1766.00,0.0013
1765.00,0.0014
1764.00,0.0015
1763.00,0.0016
1762.00,0.0016
1761.00,0.0017
1760.00,0.0018
1759.00,0.0019
1758.00,0.0021
1757.00,0.0023
1756.00,0.0025
1755.00,0.0027
1754.00,0.0029
1753.00,0.0031
1752.00,0.0034
1751.00,0.0036
1750.00,0.0038
1749.00,0.0040
1748.00,0.0041
1747.00,0.0043
1746.00,0.0043
1745.00,0.0044
1744.00,0.0044
1743.00,0.0045
1742.00,0.0045
1741.00,0.0045
1740.00,0.0044
1739.00,0.0044
1738.00,0.0044
1737.00,0.0044
1736.00,0.0044
1735.00,0.0043
1734.00,0.0042
1733.00,0.0041
1732.00,0.0040
1731.00,0.0040
1730.00,0.0039
1729.00,0.0038
1728.00,0.0037
1727.00,0.0036
1726.00,0.0035
1725.00,0.0034
1724.00,0.0034
1723.00,0.0033
1722.00,0.0033
1721.00,0.0033
1720.00,0.0033
1719.00,0.0033
1718.00,0.0032
1717.00,0.0031
1716.00,0.0031
1715.00,0.0031
1714.00,0.0031
1713.00,0.0031
1712.00,0.0032
1711.00,0.0032
1710.00,0.0033
1709.00,0.0033
1708.00,0.0034
1707.00,0.0034
1706.00,0.0034
1705.00,0.0034
1704.00,0.0035
1703.00,0.0036
1702.00,0.0036
1701.00,0.0037
1700.00,0.0037
1699.00,0.0037
1698.00,0.0037
1697.00,0.0038
1696.00,0.0039
1695.00,0.0041
1694.00,0.0042
1693.00,0.0044
1692.00,0.0045
1691.00,0.0046
1690.00,0.0047
1689.00,0.0048
1688.00,0.0049
1687.00,0.0050
1686.00,0.0050
1685.00,0.0050
1684.00,0.0051
1683.00,0.0053
1682.00,0.0054
1681.00,0.0056
1680.00,0.0057
1679.00,0.0058
1678.00,0.0059
1677.00,0.0061
1676.00,0.0062
1675.00,0.0064
1674.00,0.0065
1673.00,0.0065
1672.00,0.0066
1671.00,0.0066
1670.00,0.0067
1669.00,0.0069
1668.00,0.0070
1667.00,0.0071
1666.00,0.0072
1665.00,0.0073
1664.00,0.0074
1663.00,0.0074
1662.00,0.0076
1661.00,0.0077
1660.00,0.0078
1659.00,0.0079
1658.00,0.0079
1657.00,0.0080
1656.00,0.0081
1655.00,0.0081
1654.00,0.0082
1653.00,0.0084
1652.00,0.0086
1651.00,0.0086
1650.00,0.0087
1649.00,0.0087
1648.00,0.0088
1647.00,0.0088
1646.00,0.0088
1645.00,0.0088
1644.00,0.0088
1643.00,0.0088
1642.00,0.0088
1641.00,0.0088
1640.00,0.0088
1639.00,0.0087
1638.00,0.0086
1637.00,0.0086
1636.00,0.0085
1635.00,0.0085
1634.00,0.0085
1633.00,0.0085
1632.00,0.0085
1631.00,0.0084
1630.00,0.0083
1629.00,0.0082
1628.00,0.0081
1627.00,0.0080
1626.00,0.0080
1625.00,0.0079
1624.00,0.0078
1623.00,0.0077
1622.00,0.0076
1621.00,0.0075
1620.00,0.0074
1619.00,0.0072
1618.00,0.0071
1617.00,0.0070
1616.00,0.0069
1615.00,0.0069
1614.00,0.0068
1613.00,0.0068
1612.00,0.0068
1611.00,0.0068
1610.00,0.0068
1609.00,0.0068
1608.00,0.0068
1607.00,0.0068
1606.00,0.0067
1605.00,0.0067
1604.00,0.0068
1603.00,0.0068
1602.00,0.0067
1601.00,0.0067
1600.00,0.0066
1599.00,0.0066
1598.00,0.0065
1597.00,0.0065
1596.00,0.0064
1595.00,0.0064
1594.00,0.0063
1593.00,0.0063
1592.00,0.0063
1591.00,0.0063
1590.00,0.0063
1589.00,0.0063
1588.00,0.0063
1587.00,0.0063
1586.00,0.0064
1585.00,0.0065
1584.00,0.0066
1583.00,0.0066
1582.00,0.0067
1581.00,0.0067
1580.00,0.0067
1579.00,0.0067
1578.00,0.0067
1577.00,0.0067
1576.00,0.0067
1575.00,0.0067
1574.00,0.0067
1573.00,0.0067
1572.00,0.0068
1571.00,0.0068
1570.00,0.0067
1569.00,0.0068
1568.00,0.0068
1567.00,0.0068
1566.00,0.0068
1565.00,0.0069
1564.00,0.0069
1563.00,0.0070
1562.00,0.0070
1561.00,0.0071
1560.00,0.0072
1559.00,0.0073
1558.00,0.0074
1557.00,0.0074
1556.00,0.0075
1555.00,0.0075
1554.00,0.0075
1553.00,0.0076
1552.00,0.0077
1551.00,0.0078
1550.00,0.0079
1549.00,0.0080
1548.00,0.0081
1547.00,0.0082
1546.00,0.0083
1545.00,0.0085
1544.00,0.0086
1543.00,0.0087
1542.00,0.0086
1541.00,0.0086
1540.00,0.0087
1539.00,0.0088
1538.00,0.0088
1537.00,0.0089
1536.00,0.0088
1535.00,0.0088
1534.00,0.0086
1533.00,0.0085
1532.00,0.0085
1531.00,0.0083
1530.00,0.0082
1529.00,0.0080
1528.00,0.0079
1527.00,0.0077
1526.00,0.0075
1525.00,0.0073
1524.00,0.0073
1523.00,0.0072
1522.00,0.0072
1521.00,0.0072
1520.00,0.0073
1519.00,0.0073
1518.00,0.0073
1517.00,0.0073
1516.00,0.0073
1515.00,0.0073
1514.00,0.0073
1513.00,0.0073
1512.00,0.0073
1511.00,0.0073
1510.00,0.0073
1509.00,0.0074
1508.00,0.0075
1507.00,0.0074
1506.00,0.0074
1505.00,0.0075
1504.00,0.0076
1503.00,0.0078
1502.00,0.0080
1501.00,0.0082
1500.00,0.0085
1499.00,0.0087
1498.00,0.0090
1497.00,0.0095
1496.00,0.0100
1495.00,0.0103
1494.00,0.0106
1493.00,0.0108
1492.00,0.0111
1491.00,0.0113
1490.00,0.0115
1489.00,0.0119
1488.00,0.0123
1487.00,0.0127
1486.00,0.0131
1485.00,0.0136
1484.00,0.0142
1483.00,0.0149
1482.00,0.0156
1481.00,0.0165
1480.00,0.0176
1479.00,0.0187
1478.00,0.0201
1477.00,0.0221
1476.00,0.0243
1475.00,0.0269
1474.00,0.0304
1473.00,0.0356
1472.00,0.0419
1471.00,0.0482
1470.00,0.0541
1469.00,0.0604
1468.00,0.0671
1467.00,0.0745
1466.00,0.0830
1465.00,0.0923
1464.00,0.1007
1463.00,0.1070
1462.00,0.1115
1461.00,0.1150
1460.00,0.1178
1459.00,0.1201
1458.00,0.1222
1457.00,0.1243
1456.00,0.1256
1455.00,0.1259
1454.00,0.1258
1453.00,0.1251
1452.00,0.1234
1451.00,0.1204
1450.00,0.1156
1449.00,0.1085
1448.00,0.0989
1447.00,0.0885
1446.00,0.0789
1445.00,0.0706
1444.00,0.0634
1443.00,0.0576
1442.00,0.0532
1441.00,0.0501
1440.00,0.0481
1439.00,0.0471
1438.00,0.0467
1437.00,0.0463
1436.00,0.0448
1435.00,0.0420
1434.00,0.0381
1433.00,0.0336
1432.00,0.0290
1431.00,0.0249
1430.00,0.0218
1429.00,0.0196
1428.00,0.0181
1427.00,0.0172
1426.00,0.0166
1425.00,0.0160
1424.00,0.0155
1423.00,0.0152
1422.00,0.0151
1421.00,0.0149
1420.00,0.0146
1419.00,0.0144
1418.00,0.0142
1417.00,0.0140
1416.00,0.0138
1415.00,0.0137
1414.00,0.0136
1413.00,0.0135
1412.00,0.0133
1411.00,0.0132
1410.00,0.0132
1409.00,0.0131
1408.00,0.0130
1407.00,0.0129
1406.00,0.0130
1405.00,0.0130
1404.00,0.0131
1403.00,0.0132
1402.00,0.0134
1401.00,0.0135
1400.00,0.0136
1399.00,0.0138
1398.00,0.0140
1397.00,0.0142
1396.00,0.0144
1395.00,0.0147
1394.00,0.0153
1393.00,0.0158
1392.00,0.0164
1391.00,0.0173
1390.00,0.0186
1389.00,0.0203
1388.00,0.0229
1387.00,0.0267
1386.00,0.0318
1385.00,0.0382
1384.00,0.0464
1383.00,0.0573
1382.00,0.0714
1381.00,0.0889
1380.00,0.1103
1379.00,0.1345
1378.00,0.1583
1377.00,0.1764
1376.00,0.1837
1375.00,0.1764
1374.00,0.1562
1373.00,0.1308
1372.00,0.1068
1371.00,0.0865
1370.00,0.0701
1369.00,0.0574
1368.00,0.0485
1367.00,0.0430
1366.00,0.0401
1365.00,0.0388
1364.00,0.0390
1363.00,0.0403
1362.00,0.0424
1361.00,0.0447
1360.00,0.0463
1359.00,0.0468
1358.00,0.0456
1357.00,0.0429
1356.00,0.0391
1355.00,0.0348
1354.00,0.0308
1353.00,0.0273
1352.00,0.0245
1351.00,0.0223
1350.00,0.0204
1349.00,0.0189
1348.00,0.0177
1347.00,0.0168
1346.00,0.0161
1345.00,0.0155
1344.00,0.0150
1343.00,0.0146
1342.00,0.0142
1341.00,0.0139
1340.00,0.0137
1339.00,0.0134
1338.00,0.0133
1337.00,0.0132
1336.00,0.0133
1335.00,0.0134
1334.00,0.0136
1333.00,0.0140
1332.00,0.0144
1331.00,0.0148
1330.00,0.0150
1329.00,0.0149
1328.00,0.0146
1327.00,0.0140
1326.00,0.0134
1325.00,0.0128
1324.00,0.0122
1323.00,0.0117
1322.00,0.0113
1321.00,0.0110
1320.00,0.0108
1319.00,0.0105
1318.00,0.0103
1317.00,0.0101
1316.00,0.0100
1315.00,0.0099
1314.00,0.0099
1313.00,0.0100
1312.00,0.0102
1311.00,0.0105
1310.00,0.0110
1309.00,0.0118
1308.00,0.0130
1307.00,0.0145
1306.00,0.0160
1305.00,0.0171
1304.00,0.0174
1303.00,0.0170
1302.00,0.0162
1301.00,0.0154
1300.00,0.0148
1299.00,0.0144
1298.00,0.0143
1297.00,0.0142
1296.00,0.0140
1295.00,0.0137
1294.00,0.0133
1293.00,0.0128
1292.00,0.0123
1291.00,0.0118
1290.00,0.0113
1289.00,0.0110
1288.00,0.0107
1287.00,0.0104
1286.00,0.0102
1285.00,0.0099
1284.00,0.0097
1283.00,0.0096
1282.00,0.0095
1281.00,0.0094
1280.00,0.0094
1279.00,0.0093
1278.00,0.0093
1277.00,0.0093
1276.00,0.0092
1275.00,0.0092
1274.00,0.0092
1273.00,0.0092
1272.00,0.0093
1271.00,0.0094
1270.00,0.0096
1269.00,0.0098
1268.00,0.0100
1267.00,0.0102
1266.00,0.0104
1265.00,0.0107
1264.00,0.0110
1263.00,0.0114
1262.00,0.0118
1261.00,0.0124
1260.00,0.0131
1259.00,0.0140
1258.00,0.0150
1257.00,0.0159
1256.00,0.0163
1255.00,0.0162
1254.00,0.0155
1253.00,0.0145
1252.00,0.0134
1251.00,0.0125
1250.00,0.0118
1249.00,0.0114
1248.00,0.0112
1247.00,0.0110
1246.00,0.0109
1245.00,0.0108
1244.00,0.0107
1243.00,0.0106
1242.00,0.0105
1241.00,0.0104
1240.00,0.0103
1239.00,0.0102
1238.00,0.0101
1237.00,0.0099
1236.00,0.0098
1235.00,0.0098
1234.00,0.0097
1233.00,0.0097
1232.00,0.0096
1231.00,0.0095
1230.00,0.0095
1229.00,0.0095
1228.00,0.0096
1227.00,0.0096
1226.00,0.0098
1225.00,0.0100
1224.00,0.0103
1223.00,0.0106
1222.00,0.0109
1221.00,0.0112
1220.00,0.0113
1219.00,0.0114
1218.00,0.0114
1217.00,0.0112
1216.00,0.0110
1215.00,0.0106
1214.00,0.0103
1213.00,0.0100
1212.00,0.0098
1211.00,0.0096
1210.00,0.0094
1209.00,0.0092
1208.00,0.0091
1207.00,0.0090
1206.00,0.0089
1205.00,0.0088
1204.00,0.0088
1203.00,0.0088
1202.00,0.0089
1201.00,0.0089
1200.00,0.0089
1199.00,0.0089
1198.00,0.0088
1197.00,0.0088
1196.00,0.0088
1195.00,0.0088
1194.00,0.0089
1193.00,0.0089
1192.00,0.0090
1191.00,0.0090
1190.00,0.0090
1189.00,0.0091
1188.00,0.0092
1187.00,0.0094
1186.00,0.0095
1185.00,0.0096
1184.00,0.0098
1183.00,0.0100
1182.00,0.0103
1181.00,0.0106
1180.00,0.0111
1179.00,0.0117
1178.00,0.0125
1177.00,0.0136
1176.00,0.0150
1175.00,0.0169
1174.00,0.0194
1173.00,0.0226
1172.00,0.0266
1171.00,0.0309
1170.00,0.0352
1169.00,0.0388
1168.00,0.0411
1167.00,0.0418
1166.00,0.0409
1165.00,0.0390
1164.00,0.0365
1163.00,0.0338
1162.00,0.0313
1161.00,0.0292
1160.00,0.0276
1159.00,0.0263
1158.00,0.0253
1157.00,0.0245
1156.00,0.0240
1155.00,0.0235
1154.00,0.0230
1153.00,0.0225
1152.00,0.0219
1151.00,0.0212
1150.00,0.0202
1149.00,0.0192
1148.00,0.0182
1147.00,0.0172
1146.00,0.0163
1145.00,0.0155
1144.00,0.0146
1143.00,0.0139
1142.00,0.0132
1141.00,0.0126
1140.00,0.0121
1139.00,0.0116
1138.00,0.0112
1137.00,0.0108
1136.00,0.0104
1135.00,0.0101
1134.00,0.0099
1133.00,0.0098
1132.00,0.0097
1131.00,0.0096
1130.00,0.0096
1129.00,0.0096
1128.00,0.0096
1127.00,0.0097
1126.00,0.0097
1125.00,0.0098
1124.00,0.0100
1123.00,0.0100
1122.00,0.0100
1121.00,0.0101
1120.00,0.0102
1119.00,0.0103
1118.00,0.0105
1117.00,0.0106
1116.00,0.0107
1115.00,0.0108
1114.00,0.0109
1113.00,0.0110
1112.00,0.0112
1111.00,0.0115
1110.00,0.0118
1109.00,0.0122
1108.00,0.0127
1107.00,0.0133
1106.00,0.0141
1105.00,0.0148
1104.00,0.0155
1103.00,0.0159
1102.00,0.0160
1101.00,0.0157
1100.00,0.0151
1099.00,0.0144
1098.00,0.0137
1097.00,0.0131
1096.00,0.0127
1095.00,0.0123
1094.00,0.0120
1093.00,0.0116
1092.00,0.0114
1091.00,0.0112
1090.00,0.0111
1089.00,0.0110
1088.00,0.0108
1087.00,0.0107
1086.00,0.0106
1085.00,0.0106
1084.00,0.0106
1083.00,0.0106
1082.00,0.0105
1081.00,0.0103
1080.00,0.0101
1079.00,0.0099
1078.00,0.0098
1077.00,0.0098
1076.00,0.0098
1075.00,0.0097
1074.00,0.0097
1073.00,0.0096
1072.00,0.0096
1071.00,0.0096
1070.00,0.0096
1069.00,0.0096
1068.00,0.0096
1067.00,0.0097
1066.00,0.0097
1065.00,0.0097
1064.00,0.0096
1063.00,0.0096
1062.00,0.0097
1061.00,0.0097
1060.00,0.0096
1059.00,0.0095
1058.00,0.0095
1057.00,0.0096
1056.00,0.0097
1055.00,0.0098
1054.00,0.0100
1053.00,0.0101
1052.00,0.0103
1051.00,0.0104
1050.00,0.0107
1049.00,0.0110
1048.00,0.0114
1047.00,0.0118
1046.00,0.0121
1045.00,0.0122
1044.00,0.0121
1043.00,0.0119
1042.00,0.0115
1041.00,0.0112
1040.00,0.0110
1039.00,0.0108
1038.00,0.0107
1037.00,0.0107
1036.00,0.0106
1035.00,0.0106
1034.00,0.0105
1033.00,0.0104
1032.00,0.0103
1031.00,0.0103
1030.00,0.0103
1029.00,0.0103
1028.00,0.0102
1027.00,0.0102
1026.00,0.0102
1025.00,0.0102
1024.00,0.0102
1023.00,0.0102
1022.00,0.0103
1021.00,0.0104
1020.00,0.0105
1019.00,0.0106
1018.00,0.0107
1017.00,0.0109
1016.00,0.0112
1015.00,0.0116
1014.00,0.0120
1013.00,0.0124
1012.00,0.0128
1011.00,0.0132
1010.00,0.0136
1009.00,0.0140
1008.00,0.0147
1007.00,0.0156
1006.00,0.0167
1005.00,0.0182
1004.00,0.0202
1003.00,0.0230
1002.00,0.0268
1001.00,0.0315
1000.00,0.0366
999.00,0.0409
998.00,0.0433
997.00,0.0428
996.00,0.0396
995.00,0.0347
994.00,0.0293
993.00,0.0244
992.00,0.0206
991.00,0.0179
990.00,0.0160
989.00,0.0148
988.00,0.0139
987.00,0.0133
986.00,0.0131
985.00,0.0133
984.00,0.0138
983.00,0.0148
982.00,0.0161
981.00,0.0179
980.00,0.0203
979.00,0.0235
978.00,0.0277
977.00,0.0328
976.00,0.0386
975.00,0.0443
974.00,0.0489
973.00,0.0512
972.00,0.0502
971.00,0.0462
970.00,0.0400
969.00,0.0334
968.00,0.0275
967.00,0.0229
966.00,0.0194
965.00,0.0169
964.00,0.0151
963.00,0.0137
962.00,0.0126
961.00,0.0118
960.00,0.0112
959.00,0.0107
958.00,0.0102
957.00,0.0097
956.00,0.0094
955.00,0.0092
954.00,0.0091
953.00,0.0089
952.00,0.0088
951.00,0.0087
950.00,0.0086
949.00,0.0085
948.00,0.0085
947.00,0.0086
946.00,0.0087
945.00,0.0089
944.00,0.0091
943.00,0.0094
942.00,0.0097
941.00,0.0099
940.00,0.0099
939.00,0.0097
938.00,0.0093
937.00,0.0088
936.00,0.0084
935.00,0.0081
934.00,0.0078
933.00,0.0076
932.00,0.0074
931.00,0.0072
930.00,0.0069
929.00,0.0067
928.00,0.0066
927.00,0.0066
926.00,0.0066
925.00,0.0066
924.00,0.0066
923.00,0.0067
922.00,0.0068
921.00,0.0069
920.00,0.0070
919.00,0.0070
918.00,0.0071
917.00,0.0072
916.00,0.0073
915.00,0.0075
914.00,0.0076
913.00,0.0077
912.00,0.0078
911.00,0.0080
910.00,0.0081
909.00,0.0082
908.00,0.0083
907.00,0.0087
906.00,0.0093
905.00,0.0103
904.00,0.0116
903.00,0.0133
902.00,0.0151
901.00,0.0169
900.00,0.0182
899.00,0.0186
898.00,0.0180
897.00,0.0167
896.00,0.0150
895.00,0.0133
894.00,0.0118
893.00,0.0106
892.00,0.0096
891.00,0.0090
890.00,0.0086
889.00,0.0083
888.00,0.0082
887.00,0.0080
886.00,0.0080
885.00,0.0079
884.00,0.0078
883.00,0.0078
882.00,0.0077
881.00,0.0077
880.00,0.0078
879.00,0.0080
878.00,0.0081
877.00,0.0081
876.00,0.0080
875.00,0.0080
874.00,0.0080
873.00,0.0080
872.00,0.0080
871.00,0.0080
870.00,0.0079
869.00,0.0080
868.00,0.0081
867.00,0.0081
866.00,0.0082
865.00,0.0082
864.00,0.0083
863.00,0.0084
862.00,0.0085
861.00,0.0086
860.00,0.0088
859.00,0.0091
858.00,0.0094
857.00,0.0096
856.00,0.0098
855.00,0.0099
854.00,0.0101
853.00,0.0104
852.00,0.0109
851.00,0.0115
850.00,0.0123
849.00,0.0132
848.00,0.0144
847.00,0.0162
846.00,0.0190
845.00,0.0233
844.00,0.0291
843.00,0.0357
842.00,0.0410
841.00,0.0429
840.00,0.0405
839.00,0.0350
838.00,0.0287
837.00,0.0236
836.00,0.0201
835.00,0.0179
834.00,0.0166
833.00,0.0156
832.00,0.0148
831.00,0.0141
830.00,0.0135
829.00,0.0129
828.00,0.0125
827.00,0.0123
826.00,0.0121
825.00,0.0120
824.00,0.0120
823.00,0.0120
822.00,0.0120
821.00,0.0120
820.00,0.0121
819.00,0.0122
818.00,0.0124
817.00,0.0128
816.00,0.0134
815.00,0.0143
814.00,0.0156
813.00,0.0171
812.00,0.0187
811.00,0.0202
810.00,0.0211
809.00,0.0216
808.00,0.0215
807.00,0.0209
806.00,0.0198
805.00,0.0183
804.00,0.0168
803.00,0.0154
802.00,0.0141
801.00,0.0132
800.00,0.0124
799.00,0.0119
798.00,0.0114
797.00,0.0110
796.00,0.0106
795.00,0.0104
794.00,0.0101
793.00,0.0099
792.00,0.0096
791.00,0.0094
790.00,0.0092
789.00,0.0090
788.00,0.0087
787.00,0.0084
786.00,0.0082
785.00,0.0080
784.00,0.0077
783.00,0.0074
782.00,0.0072
781.00,0.0070
780.00,0.0068
779.00,0.0067
778.00,0.0066
777.00,0.0067
776.00,0.0069
775.00,0.0072
774.00,0.0076
773.00,0.0079
772.00,0.0083
771.00,0.0086
770.00,0.0089
769.00,0.0091
768.00,0.0091
767.00,0.0091
766.00,0.0089
765.00,0.0087
764.00,0.0084
763.00,0.0081
762.00,0.0078
761.00,0.0074
760.00,0.0071
759.00,0.0068
758.00,0.0066
757.00,0.0065
756.00,0.0065
755.00,0.0064
754.00,0.0063
753.00,0.0062
752.00,0.0061
751.00,0.0061
750.00,0.0060
749.00,0.0061
748.00,0.0062
747.00,0.0064
746.00,0.0066
745.00,0.0066
744.00,0.0066
743.00,0.0065
742.00,0.0064
741.00,0.0064
740.00,0.0065
739.00,0.0067
738.00,0.0071
737.00,0.0075
736.00,0.0078
735.00,0.0081
734.00,0.0082
733.00,0.0084
732.00,0.0086
731.00,0.0086
730.00,0.0085
729.00,0.0082
728.00,0.0080
727.00,0.0079
726.00,0.0079
725.00,0.0079
724.00,0.0080
723.00,0.0080
722.00,0.0080
721.00,0.0079
720.00,0.0076
719.00,0.0074
718.00,0.0072
717.00,0.0071
716.00,0.0070
715.00,0.0071
714.00,0.0072
713.00,0.0073
712.00,0.0073
711.00,0.0073
710.00,0.0072
709.00,0.0072
708.00,0.0071
707.00,0.0071
706.00,0.0070
705.00,0.0069
704.00,0.0068
703.00,0.0068
702.00,0.0067
701.00,0.0066
700.00,0.0065
699.00,0.0064
698.00,0.0063
697.00,0.0062
696.00,0.0061
695.00,0.0061
694.00,0.0061
693.00,0.0061
692.00,0.0061
691.00,0.0062
690.00,0.0063
689.00,0.0064
688.00,0.0064
687.00,0.0063
686.00,0.0063
685.00,0.0063
684.00,0.0063
683.00,0.0063
682.00,0.0065
681.00,0.0066
680.00,0.0067
679.00,0.0068
678.00,0.0068
677.00,0.0068
676.00,0.0067
675.00,0.0066
674.00,0.0066
673.00,0.0066
672.00,0.0066
671.00,0.0066
670.00,0.0067
669.00,0.0067
668.00,0.0067
667.00,0.0067
666.00,0.0067
665.00,0.0066
664.00,0.0066
663.00,0.0066
662.00,0.0065
661.00,0.0063
660.00,0.0060
659.00,0.0059
658.00,0.0061
657.00,0.0063
656.00,0.0065
655.00,0.0065
654.00,0.0063
653.00,0.0061
652.00,0.0059
651.00,0.0058
650.00,0.0058
649.00,0.0059
648.00,0.0059
647.00,0.0058
646.00,0.0058
645.00,0.0058
644.00,0.0059
643.00,0.0060
642.00,0.0062
641.00,0.0063
640.00,0.0064
639.00,0.0065
638.00,0.0066
637.00,0.0068
636.00,0.0069
635.00,0.0068
634.00,0.0066
633.00,0.0065
632.00,0.0065
631.00,0.0065
630.00,0.0066
629.00,0.0066
628.00,0.0067
627.00,0.0068
626.00,0.0068
625.00,0.0068
624.00,0.0066
623.00,0.0063
622.00,0.0063
621.00,0.0064
620.00,0.0067
619.00,0.0071
618.00,0.0074
617.00,0.0074
616.00,0.0073
615.00,0.0071
614.00,0.0068
613.00,0.0065
612.00,0.0062
611.00,0.0061
610.00,0.0061
609.00,0.0062
608.00,0.0063
607.00,0.0063
606.00,0.0063
605.00,0.0064
604.00,0.0066
603.00,0.0069
602.00,0.0070
601.00,0.0068
600.00,0.0065
599.00,0.0061
598.00,0.0058
597.00,0.0055
596.00,0.0054
595.00,0.0056
594.00,0.0061
593.00,0.0065
592.00,0.0068
591.00,0.0068
590.00,0.0068
589.00,0.0068
588.00,0.0068
587.00,0.0068
586.00,0.0068
585.00,0.0070
584.00,0.0073
583.00,0.0076
582.00,0.0077
581.00,0.0076
580.00,0.0073
579.00,0.0070
578.00,0.0071
577.00,0.0075
576.00,0.0079
575.00,0.0080
574.00,0.0080
573.00,0.0078
572.00,0.0074
571.00,0.0072
570.00,0.0072
569.00,0.0074
568.00,0.0076
567.00,0.0076
566.00,0.0074
565.00,0.0071
564.00,0.0068
563.00,0.0065
562.00,0.0065
561.00,0.0067
560.00,0.0072
559.00,0.0075
558.00,0.0075
557.00,0.0072
556.00,0.0068
555.00,0.0064
554.00,0.0063
553.00,0.0064
552.00,0.0064
551.00,0.0065
550.00,0.0066
549.00,0.0068
548.00,0.0070
547.00,0.0072
546.00,0.0075
545.00,0.0078
544.00,0.0080
543.00,0.0081
542.00,0.0079
541.00,0.0075
540.00,0.0071
539.00,0.0069
538.00,0.0070
537.00,0.0072
536.00,0.0076
535.00,0.0080
534.00,0.0084
533.00,0.0088
532.00,0.0090
531.00,0.0090
530.00,0.0090
529.00,0.0090
528.00,0.0093
527.00,0.0097
526.00,0.0098
525.00,0.0092
524.00,0.0083
523.00,0.0076
522.00,0.0076
521.00,0.0081
520.00,0.0086
519.00,0.0087
518.00,0.0084
517.00,0.0079
516.00,0.0077
515.00,0.0079
514.00,0.0079
513.00,0.0075
512.00,0.0070
511.00,0.0068
510.00,0.0071
509.00,0.0075
508.00,0.0076
507.00,0.0076
506.00,0.0076
505.00,0.0076
504.00,0.0075
503.00,0.0074
502.00,0.0075
501.00,0.0075
500.00,0.0075
499.00,0.0072
498.00,0.0067
497.00,0.0061
496.00,0.0055
495.00,0.0051
494.00,0.0051
493.00,0.0052
492.00,0.0052
491.00,0.0050
490.00,0.0052
489.00,0.0059
488.00,0.0067
487.00,0.0073
486.00,0.0077
485.00,0.0080
484.00,0.0083
483.00,0.0086
482.00,0.0085
481.00,0.0080
480.00,0.0075
479.00,0.0074
478.00,0.0077
477.00,0.0082
476.00,0.0086
475.00,0.0093
474.00,0.0104
473.00,0.0116
472.00,0.0122
471.00,0.0117
470.00,0.0107
469.00,0.0098
468.00,0.0094
467.00,0.0095
466.00,0.0098
465.00,0.0105
464.00,0.0118
463.00,0.0136
462.00,0.0153
461.00,0.0163
460.00,0.0162
459.00,0.0153
458.00,0.0142
457.00,0.0137
456.00,0.0140
455.00,0.0145
454.00,0.0145
453.00,0.0142
452.00,0.0137
451.00,0.0130
450.00,0.0121
