Created as New Dataset,Sample 012 By Administrator Date Wednesday, September 10 2025
cm-1,A
4000.00,0.0020
3999.00,0.0020
3998.00,0.0020
3997.00,0.0020
3996.00,0.0021
3995.00,0.0021
3994.00,0.0021
3993.00,0.0022
3992.00,0.0022
3991.00,0.0021
3990.00,0.0021
3989.00,0.0020
3988.00,0.0020
3987.00,0.0020
3986.00,0.0020
3985.00,0.0019
3984.00,0.0019
3983.00,0.0019
3982.00,0.0019
3981.00,0.0019
3980.00,0.0019
3979.00,0.0019
3978.00,0.0019
3977.00,0.0019
3976.00,0.0020
3975.00,0.0019
3974.00,0.0019
3973.00,0.0020
3972.00,0.0020
3971.00,0.0020
3970.00,0.0020
3969.00,0.0019
3968.00,0.0019
3967.00,0.0019
3966.00,0.0019
3965.00,0.0019
3964.00,0.0019
3963.00,0.0019
3962.00,0.0019
3961.00,0.0019
3960.00,0.0019
3959.00,0.0019
3958.00,0.0019
3957.00,0.0019
3956.00,0.0018
3955.00,0.0018
3954.00,0.0018
3953.00,0.0018
3952.00,0.0018
3951.00,0.0018
3950.00,0.0018
3949.00,0.0018
3948.00,0.0018
3947.00,0.0018
3946.00,0.0018
3945.00,0.0018
3944.00,0.0018
3943.00,0.0018
3942.00,0.0019
3941.00,0.0019
3940.00,0.0019
3939.00,0.0019
3938.00,0.0019
3937.00,0.0018
3936.00,0.0018
3935.00,0.0018
3934.00,0.0018
3933.00,0.0018
3932.00,0.0018
3931.00,0.0018
3930.00,0.0018
3929.00,0.0018
3928.00,0.0019
3927.00,0.0019
3926.00,0.0019
3925.00,0.0019
3924.00,0.0019
3923.00,0.0019
3922.00,0.0018
3921.00,0.0018
3920.00,0.0018
3919.00,0.0018
3918.00,0.0018
3917.00,0.0018
3916.00,0.0018
3915.00,0.0018
3914.00,0.0019
3913.00,0.0019
3912.00,0.0019
3911.00,0.0019
3910.00,0.0019
3909.00,0.0019
3908.00,0.0018
3907.00,0.0017
3906.00,0.0017
3905.00,0.0017
3904.00,0.0016
3903.00,0.0016
3902.00,0.0016
3901.00,0.0016
3900.00,0.0016
3899.00,0.0017
3898.00,0.0018
3897.00,0.0018
3896.00,0.0019
3895.00,0.0019
3894.00,0.0020
3893.00,0.0020
3892.00,0.0019
3891.00,0.0019
3890.00,0.0018
3889.00,0.0018
3888.00,0.0018
3887.00,0.0018
3886.00,0.0018
3885.00,0.0018
3884.00,0.0018
3883.00,0.0017
3882.00,0.0017
3881.00,0.0017
3880.00,0.0017
3879.00,0.0017
3878.00,0.0017
3877.00,0.0017
3876.00,0.0018
3875.00,0.0018
3874.00,0.0018
3873.00,0.0018
3872.00,0.0018
3871.00,0.0018
3870.00,0.0017
3869.00,0.0017
3868.00,0.0017
3867.00,0.0017
3866.00,0.0018
3865.00,0.0019
3864.00,0.0019
3863.00,0.0019
3862.00,0.0018
3861.00,0.0018
3860.00,0.0018
3859.00,0.0017
3858.00,0.0018
3857.00,0.0018
3856.00,0.0017
3855.00,0.0017
3854.00,0.0017
3853.00,0.0016
3852.00,0.0016
3851.00,0.0016
3850.00,0.0016
3849.00,0.0017
3848.00,0.0017
3847.00,0.0018
3846.00,0.0018
3845.00,0.0018
3844.00,0.0018
3843.00,0.0017
3842.00,0.0017
3841.00,0.0016
3840.00,0.0016
3839.00,0.0017
3838.00,0.0017
3837.00,0.0017
3836.00,0.0017
3835.00,0.0017
3834.00,0.0017
3833.00,0.0018
3832.00,0.0018
3831.00,0.0018
3830.00,0.0018
3829.00,0.0018
3828.00,0.0018
3827.00,0.0018
3826.00,0.0018
3825.00,0.0018
3824.00,0.0018
3823.00,0.0018
3822.00,0.0019
3821.00,0.0019
3820.00,0.0018
3819.00,0.0018
3818.00,0.0018
3817.00,0.0018
3816.00,0.0018
3815.00,0.0018
3814.00,0.0018
3813.00,0.0018
3812.00,0.0018
3811.00,0.0018
3810.00,0.0018
3809.00,0.0018
3808.00,0.0018
3807.00,0.0018
3806.00,0.0018
3805.00,0.0018
3804.00,0.0018
3803.00,0.0019
3802.00,0.0019
3801.00,0.0019
3800.00,0.0019
3799.00,0.0019
3798.00,0.0019
3797.00,0.0018
3796.00,0.0018
3795.00,0.0018
3794.00,0.0018
3793.00,0.0018
3792.00,0.0019
3791.00,0.0019
3790.00,0.0019
3789.00,0.0019
3788.00,0.0018
3787.00,0.0018
3786.00,0.0019
3785.00,0.0019
3784.00,0.0019
3783.00,0.0019
3782.00,0.0019
3781.00,0.0019
3780.00,0.0019
3779.00,0.0018
3778.00,0.0018
3777.00,0.0018
3776.00,0.0018
3775.00,0.0018
3774.00,0.0019
3773.00,0.0019
3772.00,0.0019
3771.00,0.0018
3770.00,0.0018
3769.00,0.0017
3768.00,0.0017
3767.00,0.0018
3766.00,0.0018
3765.00,0.0018
3764.00,0.0019
3763.00,0.0019
3762.00,0.0018
3761.00,0.0019
3760.00,0.0019
3759.00,0.0019
3758.00,0.0019
3757.00,0.0018
3756.00,0.0018
3755.00,0.0018
3754.00,0.0017
3753.00,0.0017
3752.00,0.0016
3751.00,0.0016
3750.00,0.0016
3749.00,0.0016
3748.00,0.0016
3747.00,0.0017
3746.00,0.0017
3745.00,0.0017
3744.00,0.0016
3743.00,0.0016
3742.00,0.0016
3741.00,0.0016
3740.00,0.0016
3739.00,0.0016
3738.00,0.0016
3737.00,0.0016
3736.00,0.0016
3735.00,0.0016
3734.00,0.0017
3733.00,0.0016
3732.00,0.0016
3731.00,0.0016
3730.00,0.0016
3729.00,0.0015
3728.00,0.0015
3727.00,0.0015
3726.00,0.0014
3725.00,0.0015
3724.00,0.0015
3723.00,0.0016
3722.00,0.0017
3721.00,0.0017
3720.00,0.0017
3719.00,0.0017
3718.00,0.0017
3717.00,0.0017
3716.00,0.0017
3715.00,0.0018
3714.00,0.0018
3713.00,0.0018
3712.00,0.0018
3711.00,0.0017
3710.00,0.0017
3709.00,0.0017
3708.00,0.0017
3707.00,0.0017
3706.00,0.0017
3705.00,0.0017
3704.00,0.0017
3703.00,0.0017
3702.00,0.0017
3701.00,0.0017
3700.00,0.0017
3699.00,0.0017
3698.00,0.0017
3697.00,0.0017
3696.00,0.0017
3695.00,0.0017
3694.00,0.0017
3693.00,0.0017
3692.00,0.0017
3691.00,0.0017
3690.00,0.0017
3689.00,0.0017
3688.00,0.0017
3687.00,0.0017
3686.00,0.0017
3685.00,0.0017
3684.00,0.0016
3683.00,0.0016
3682.00,0.0016
3681.00,0.0016
3680.00,0.0016
3679.00,0.0016
3678.00,0.0016
3677.00,0.0016
3676.00,0.0016
3675.00,0.0016
3674.00,0.0016
3673.00,0.0015
3672.00,0.0015
3671.00,0.0015
3670.00,0.0016
3669.00,0.0016
3668.00,0.0016
3667.00,0.0016
3666.00,0.0017
3665.00,0.0017
3664.00,0.0016
3663.00,0.0016
3662.00,0.0017
3661.00,0.0017
3660.00,0.0017
3659.00,0.0017
3658.00,0.0016
3657.00,0.0016
3656.00,0.0016
3655.00,0.0016
3654.00,0.0016
3653.00,0.0016
3652.00,0.0015
3651.00,0.0015
3650.00,0.0016
3649.00,0.0017
3648.00,0.0018
3647.00,0.0018
3646.00,0.0018
3645.00,0.0018
3644.00,0.0018
3643.00,0.0018
3642.00,0.0018
3641.00,0.0019
3640.00,0.0019
3639.00,0.0019
3638.00,0.0019
3637.00,0.0019
3636.00,0.0019
3635.00,0.0019
3634.00,0.0018
3633.00,0.0017
3632.00,0.0017
3631.00,0.0016
3630.00,0.0016
3629.00,0.0017
3628.00,0.0018
3627.00,0.0018
3626.00,0.0019
3625.00,0.0020
3624.00,0.0020
3623.00,0.0020
3622.00,0.0020
3621.00,0.0020
3620.00,0.0020
3619.00,0.0020
3618.00,0.0020
3617.00,0.0020
3616.00,0.0020
3615.00,0.0020
3614.00,0.0020
3613.00,0.0020
3612.00,0.0020
3611.00,0.0021
3610.00,0.0021
3609.00,0.0022
3608.00,0.0022
3607.00,0.0022
3606.00,0.0022
3605.00,0.0021
3604.00,0.0021
3603.00,0.0021
3602.00,0.0022
3601.00,0.0022
3600.00,0.0023
3599.00,0.0023
3598.00,0.0022
3597.00,0.0022
3596.00,0.0023
3595.00,0.0023
3594.00,0.0024
3593.00,0.0024
3592.00,0.0024
3591.00,0.0024
3590.00,0.0024
3589.00,0.0024
3588.00,0.0024
3587.00,0.0025
3586.00,0.0025
3585.00,0.0025
3584.00,0.0025
3583.00,0.0025
3582.00,0.0025
3581.00,0.0025
3580.00,0.0025
3579.00,0.0025
3578.00,0.0026
3577.00,0.0026
3576.00,0.0026
3575.00,0.0027
3574.00,0.0027
3573.00,0.0028
3572.00,0.0028
3571.00,0.0027
3570.00,0.0027
3569.00,0.0027
3568.00,0.0027
3567.00,0.0028
3566.00,0.0029
3565.00,0.0029
3564.00,0.0029
3563.00,0.0030
3562.00,0.0030
3561.00,0.0030
3560.00,0.0031
3559.00,0.0031
3558.00,0.0031
3557.00,0.0032
3556.00,0.0032
3555.00,0.0032
3554.00,0.0032
3553.00,0.0032
3552.00,0.0033
3551.00,0.0033
3550.00,0.0033
3549.00,0.0033
3548.00,0.0034
3547.00,0.0034
3546.00,0.0034
3545.00,0.0034
3544.00,0.0034
3543.00,0.0035
3542.00,0.0035
3541.00,0.0035
3540.00,0.0035
3539.00,0.0035
3538.00,0.0035
3537.00,0.0035
3536.00,0.0036
3535.00,0.0036
3534.00,0.0036
3533.00,0.0036
3532.00,0.0036
3531.00,0.0036
3530.00,0.0037
3529.00,0.0037
3528.00,0.0038
3527.00,0.0038
3526.00,0.0039
3525.00,0.0039
3524.00,0.0039
3523.00,0.0039
3522.00,0.0039
3521.00,0.0039
3520.00,0.0039
3519.00,0.0040
3518.00,0.0040
3517.00,0.0041
3516.00,0.0041
3515.00,0.0041
3514.00,0.0041
3513.00,0.0041
3512.00,0.0042
3511.00,0.0042
3510.00,0.0043
3509.00,0.0043
3508.00,0.0043
3507.00,0.0043
3506.00,0.0043
3505.00,0.0043
3504.00,0.0044
3503.00,0.0044
3502.00,0.0044
3501.00,0.0044
3500.00,0.0044
3499.00,0.0044
3498.00,0.0044
3497.00,0.0045
3496.00,0.0045
3495.00,0.0045
3494.00,0.0046
3493.00,0.0046
3492.00,0.0047
3491.00,0.0047
3490.00,0.0047
3489.00,0.0047
3488.00,0.0047
3487.00,0.0048
3486.00,0.0048
3485.00,0.0048
3484.00,0.0048
3483.00,0.0049
3482.00,0.0049
3481.00,0.0049
3480.00,0.0049
3479.00,0.0049
3478.00,0.0050
3477.00,0.0050
3476.00,0.0051
3475.00,0.0051
3474.00,0.0051
3473.00,0.0051
3472.00,0.0051
3471.00,0.0051
3470.00,0.0052
3469.00,0.0052
3468.00,0.0052
3467.00,0.0053
3466.00,0.0053
3465.00,0.0053
3464.00,0.0053
3463.00,0.0053
3462.00,0.0054
3461.00,0.0054
3460.00,0.0055
3459.00,0.0055
3458.00,0.0055
3457.00,0.0055
3456.00,0.0055
3455.00,0.0055
3454.00,0.0055
3453.00,0.0055
3452.00,0.0055
3451.00,0.0056
3450.00,0.0056
3449.00,0.0056
3448.00,0.0057
3447.00,0.0057
3446.00,0.0057
3445.00,0.0057
3444.00,0.0057
3443.00,0.0057
3442.00,0.0057
3441.00,0.0058
3440.00,0.0058
3439.00,0.0058
3438.00,0.0059
3437.00,0.0059
3436.00,0.0059
3435.00,0.0059
3434.00,0.0059
3433.00,0.0060
3432.00,0.0060
3431.00,0.0060
3430.00,0.0060
3429.00,0.0060
3428.00,0.0060
3427.00,0.0061
3426.00,0.0061
3425.00,0.0062
3424.00,0.0062
3423.00,0.0062
3422.00,0.0062
3421.00,0.0062
3420.00,0.0062
3419.00,0.0062
3418.00,0.0063
3417.00,0.0063
3416.00,0.0063
3415.00,0.0064
3414.00,0.0064
3413.00,0.0064
3412.00,0.0064
3411.00,0.0064
3410.00,0.0064
3409.00,0.0064
3408.00,0.0064
3407.00,0.0064
3406.00,0.0064
3405.00,0.0065
3404.00,0.0065
3403.00,0.0065
3402.00,0.0066
3401.00,0.0066
3400.00,0.0067
3399.00,0.0067
3398.00,0.0067
3397.00,0.0067
3396.00,0.0066
3395.00,0.0066
3394.00,0.0066
3393.00,0.0066
3392.00,0.0066
3391.00,0.0066
3390.00,0.0066
3389.00,0.0067
3388.00,0.0067
3387.00,0.0067
3386.00,0.0066
3385.00,0.0066
3384.00,0.0066
3383.00,0.0067
3382.00,0.0067
3381.00,0.0067
3380.00,0.0067
3379.00,0.0067
3378.00,0.0067
3377.00,0.0067
3376.00,0.0067
3375.00,0.0067
3374.00,0.0068
3373.00,0.0068
3372.00,0.0069
3371.00,0.0069
3370.00,0.0069
3369.00,0.0069
3368.00,0.0069
3367.00,0.0069
3366.00,0.0069
3365.00,0.0069
3364.00,0.0069
3363.00,0.0069
3362.00,0.0068
3361.00,0.0068
3360.00,0.0068
3359.00,0.0068
3358.00,0.0068
3357.00,0.0068
3356.00,0.0069
3355.00,0.0069
3354.00,0.0069
3353.00,0.0069
3352.00,0.0069
3351.00,0.0069
3350.00,0.0069
3349.00,0.0069
3348.00,0.0070
3347.00,0.0070
3346.00,0.0070
3345.00,0.0070
3344.00,0.0070
3343.00,0.0070
3342.00,0.0069
3341.00,0.0069
3340.00,0.0069
3339.00,0.0068
3338.00,0.0068
3337.00,0.0068
3336.00,0.0068
3335.00,0.0068
3334.00,0.0068
3333.00,0.0068
3332.00,0.0068
3331.00,0.0069
3330.00,0.0069
3329.00,0.0069
3328.00,0.0069
3327.00,0.0069
3326.00,0.0069
3325.00,0.0069
3324.00,0.0069
3323.00,0.0069
3322.00,0.0069
3321.00,0.0069
3320.00,0.0069
3319.00,0.0068
3318.00,0.0068
3317.00,0.0068
3316.00,0.0068
3315.00,0.0068
3314.00,0.0068
3313.00,0.0068
3312.00,0.0068
3311.00,0.0067
3310.00,0.0067
3309.00,0.0067
3308.00,0.0067
3307.00,0.0067
3306.00,0.0068
3305.00,0.0068
3304.00,0.0067
3303.00,0.0067
3302.00,0.0067
3301.00,0.0067
3300.00,0.0067
3299.00,0.0066
3298.00,0.0066
3297.00,0.0066
3296.00,0.0066
3295.00,0.0066
3294.00,0.0066
3293.00,0.0066
3292.00,0.0066
3291.00,0.0066
3290.00,0.0066
3289.00,0.0065
3288.00,0.0065
3287.00,0.0065
3286.00,0.0065
3285.00,0.0065
3284.00,0.0065
3283.00,0.0065
3282.00,0.0065
3281.00,0.0065
3280.00,0.0065
3279.00,0.0064
3278.00,0.0064
3277.00,0.0064
3276.00,0.0064
3275.00,0.0064
3274.00,0.0064
3273.00,0.0064
3272.00,0.0063
3271.00,0.0063
3270.00,0.0062
3269.00,0.0062
3268.00,0.0062
3267.00,0.0062
3266.00,0.0062
3265.00,0.0062
3264.00,0.0062
3263.00,0.0062
3262.00,0.0062
3261.00,0.0062
3260.00,0.0061
3259.00,0.0061
3258.00,0.0060
3257.00,0.0060
3256.00,0.0060
3255.00,0.0059
3254.00,0.0059
3253.00,0.0059
3252.00,0.0059
3251.00,0.0059
3250.00,0.0059
3249.00,0.0060
3248.00,0.0059
3247.00,0.0059
3246.00,0.0059
3245.00,0.0059
3244.00,0.0059
3243.00,0.0059
3242.00,0.0059
3241.00,0.0059
3240.00,0.0059
3239.00,0.0059
3238.00,0.0059
3237.00,0.0059
3236.00,0.0059
3235.00,0.0059
3234.00,0.0059
3233.00,0.0059
3232.00,0.0059
3231.00,0.0058
3230.00,0.0058
3229.00,0.0058
3228.00,0.0058
3227.00,0.0058
3226.00,0.0058
3225.00,0.0058
3224.00,0.0058
3223.00,0.0058
3222.00,0.0058
3221.00,0.0058
3220.00,0.0059
3219.00,0.0059
3218.00,0.0059
3217.00,0.0059
3216.00,0.0060
3215.00,0.0060
3214.00,0.0060
3213.00,0.0060
3212.00,0.0060
3211.00,0.0060
3210.00,0.0060
3209.00,0.0060
3208.00,0.0060
3207.00,0.0060
3206.00,0.0061
3205.00,0.0061
3204.00,0.0061
3203.00,0.0061
3202.00,0.0060
3201.00,0.0060
3200.00,0.0061
3199.00,0.0061
3198.00,0.0061
3197.00,0.0060
3196.00,0.0060
3195.00,0.0060
3194.00,0.0060
3193.00,0.0060
3192.00,0.0060
3191.00,0.0060
3190.00,0.0060
3189.00,0.0060
3188.00,0.0060
3187.00,0.0059
3186.00,0.0059
3185.00,0.0059
3184.00,0.0059
3183.00,0.0058
3182.00,0.0058
3181.00,0.0057
3180.00,0.0057
3179.00,0.0057
3178.00,0.0057
3177.00,0.0056
3176.00,0.0056
3175.00,0.0056
3174.00,0.0056
3173.00,0.0056
3172.00,0.0056
3171.00,0.0056
3170.00,0.0055
3169.00,0.0055
3168.00,0.0055
3167.00,0.0056
3166.00,0.0056
3165.00,0.0056
3164.00,0.0056
3163.00,0.0056
3162.00,0.0056
3161.00,0.0055
3160.00,0.0055
3159.00,0.0055
3158.00,0.0054
3157.00,0.0054
3156.00,0.0054
3155.00,0.0054
3154.00,0.0054
3153.00,0.0054
3152.00,0.0054
3151.00,0.0054
3150.00,0.0053
3149.00,0.0053
3148.00,0.0053
3147.00,0.0053
3146.00,0.0054
3145.00,0.0054
3144.00,0.0054
3143.00,0.0054
3142.00,0.0053
3141.00,0.0053
3140.00,0.0053
3139.00,0.0052
3138.00,0.0052
3137.00,0.0052
3136.00,0.0052
3135.00,0.0052
3134.00,0.0052
3133.00,0.0051
3132.00,0.0051
3131.00,0.0050
3130.00,0.0050
3129.00,0.0050
3128.00,0.0050
3127.00,0.0050
3126.00,0.0050
3125.00,0.0050
3124.00,0.0050
3123.00,0.0049
3122.00,0.0048
3121.00,0.0048
3120.00,0.0047
3119.00,0.0047
3118.00,0.0047
3117.00,0.0047
3116.00,0.0047
3115.00,0.0047
3114.00,0.0046
3113.00,0.0046
3112.00,0.0046
3111.00,0.0046
3110.00,0.0046
3109.00,0.0045
3108.00,0.0045
3107.00,0.0045
3106.00,0.0045
3105.00,0.0044
3104.00,0.0044
3103.00,0.0044
3102.00,0.0044
3101.00,0.0044
3100.00,0.0044
3099.00,0.0044
3098.00,0.0045
3097.00,0.0045
3096.00,0.0045
3095.00,0.0045
3094.00,0.0044
3093.00,0.0044
3092.00,0.0043
3091.00,0.0043
3090.00,0.0043
3089.00,0.0043
3088.00,0.0043
3087.00,0.0043
3086.00,0.0043
3085.00,0.0043
3084.00,0.0042
3083.00,0.0042
3082.00,0.0042
3081.00,0.0042
3080.00,0.0043
3079.00,0.0043
3078.00,0.0043
3077.00,0.0043
3076.00,0.0043
3075.00,0.0043
3074.00,0.0043
3073.00,0.0043
3072.00,0.0043
3071.00,0.0043
3070.00,0.0043
3069.00,0.0043
3068.00,0.0043
3067.00,0.0043
3066.00,0.0044
3065.00,0.0044
3064.00,0.0044
3063.00,0.0043
3062.00,0.0043
3061.00,0.0043
3060.00,0.0043
3059.00,0.0043
3058.00,0.0044
3057.00,0.0044
3056.00,0.0044
3055.00,0.0044
3054.00,0.0044
3053.00,0.0044
3052.00,0.0043
3051.00,0.0044
3050.00,0.0044
3049.00,0.0044
3048.00,0.0044
3047.00,0.0045
3046.00,0.0045
3045.00,0.0045
3044.00,0.0045
3043.00,0.0045
3042.00,0.0045
3041.00,0.0045
3040.00,0.0046
3039.00,0.0046
3038.00,0.0047
3037.00,0.0047
3036.00,0.0047
3035.00,0.0047
3034.00,0.0047
3033.00,0.0047
3032.00,0.0047
3031.00,0.0048
3030.00,0.0048
3029.00,0.0049
3028.00,0.0049
3027.00,0.0049
3026.00,0.0050
3025.00,0.0051
3024.00,0.0051
3023.00,0.0052
3022.00,0.0052
3021.00,0.0053
3020.00,0.0053
3019.00,0.0053
3018.00,0.0054
3017.00,0.0054
3016.00,0.0055
3015.00,0.0055
3014.00,0.0056
3013.00,0.0056
3012.00,0.0057
3011.00,0.0058
3010.00,0.0059
3009.00,0.0061
3008.00,0.0062
3007.00,0.0063
3006.00,0.0065
3005.00,0.0066
3004.00,0.0068
3003.00,0.0069
3002.00,0.0071
3001.00,0.0073
3000.00,0.0075
2999.00,0.0077
2998.00,0.0080
2997.00,0.0083
2996.00,0.0086
2995.00,0.0090
2994.00,0.0093
2993.00,0.0097
2992.00,0.0102
2991.00,0.0107
2990.00,0.0113
2989.00,0.0119
2988.00,0.0127
2987.00,0.0135
2986.00,0.0144
2985.00,0.0154
2984.00,0.0164
2983.00,0.0176
2982.00,0.0190
2981.00,0.0207
2980.00,0.0225
2979.00,0.0246
2978.00,0.0270
2977.00,0.0296
2976.00,0.0327
2975.00,0.0361
2974.00,0.0399
2973.00,0.0443
2972.00,0.0491
2971.00,0.0544
2970.00,0.0603
2969.00,0.0667
2968.00,0.0736
2967.00,0.0809
2966.00,0.0883
2965.00,0.0958
2964.00,0.1030
2963.00,0.1095
2962.00,0.1151
2961.00,0.1196
2960.00,0.1230
2959.00,0.1256
2958.00,0.1278
2957.00,0.1303
2956.00,0.1333
2955.00,0.1370
2954.00,0.1414
2953.00,0.1459
2952.00,0.1499
2951.00,0.1525
2950.00,0.1530
2949.00,0.1508
2948.00,0.1457
2947.00,0.1382
2946.00,0.1291
2945.00,0.1192
2944.00,0.1097
2943.00,0.1013
2942.00,0.0947
2941.00,0.0900
2940.00,0.0872
2939.00,0.0862
2938.00,0.0868
2937.00,0.0887
2936.00,0.0918
2935.00,0.0960
2934.00,0.1012
2933.00,0.1074
2932.00,0.1143
2931.00,0.1217
2930.00,0.1296
2929.00,0.1376
2928.00,0.1455
2927.00,0.1531
2926.00,0.1604
2925.00,0.1673
2924.00,0.1739
2923.00,0.1804
2922.00,0.1867
2921.00,0.1925
2920.00,0.1974
2919.00,0.2009
2918.00,0.2025
2917.00,0.2017
2916.00,0.1986
2915.00,0.1937
2914.00,0.1875
2913.00,0.1808
2912.00,0.1742
2911.00,0.1680
2910.00,0.1624
2909.00,0.1573
2908.00,0.1524
2907.00,0.1477
2906.00,0.1430
2905.00,0.1381
2904.00,0.1330
2903.00,0.1278
2902.00,0.1226
2901.00,0.1175
2900.00,0.1125
2899.00,0.1078
2898.00,0.1034
2897.00,0.0994
2896.00,0.0959
2895.00,0.0928
2894.00,0.0903
2893.00,0.0882
2892.00,0.0867
2891.00,0.0856
2890.00,0.0850
2889.00,0.0847
2888.00,0.0847
2887.00,0.0850
2886.00,0.0856
2885.00,0.0865
2884.00,0.0876
2883.00,0.0890
2882.00,0.0907
2881.00,0.0924
2880.00,0.0941
2879.00,0.0954
2878.00,0.0961
2877.00,0.0962
2876.00,0.0959
2875.00,0.0954
2874.00,0.0950
2873.00,0.0951
2872.00,0.0958
2871.00,0.0969
2870.00,0.0984
2869.00,0.0997
2868.00,0.1004
2867.00,0.0999
2866.00,0.0977
2865.00,0.0935
2864.00,0.0879
2863.00,0.0812
2862.00,0.0744
2861.00,0.0682
2860.00,0.0629
2859.00,0.0587
2858.00,0.0556
2857.00,0.0536
2856.00,0.0523
2855.00,0.0517
2854.00,0.0516
2853.00,0.0521
2852.00,0.0530
2851.00,0.0544
2850.00,0.0561
2849.00,0.0582
2848.00,0.0608
2847.00,0.0639
2846.00,0.0677
2845.00,0.0721
2844.00,0.0770
2843.00,0.0822
2842.00,0.0874
2841.00,0.0920
2840.00,0.0955
2839.00,0.0973
2838.00,0.0969
2837.00,0.0941
2836.00,0.0890
2835.00,0.0822
2834.00,0.0743
2833.00,0.0662
2832.00,0.0586
2831.00,0.0518
2830.00,0.0460
2829.00,0.0412
2828.00,0.0373
2827.00,0.0341
2826.00,0.0315
2825.00,0.0294
2824.00,0.0275
2823.00,0.0260
2822.00,0.0246
2821.00,0.0234
2820.00,0.0224
2819.00,0.0215
2818.00,0.0207
2817.00,0.0200
2816.00,0.0193
2815.00,0.0188
2814.00,0.0183
2813.00,0.0178
2812.00,0.0174
2811.00,0.0169
2810.00,0.0165
2809.00,0.0160
2808.00,0.0155
2807.00,0.0150
2806.00,0.0145
2805.00,0.0140
2804.00,0.0134
2803.00,0.0130
2802.00,0.0126
2801.00,0.0122
2800.00,0.0119
2799.00,0.0117
2798.00,0.0114
2797.00,0.0112
2796.00,0.0110
2795.00,0.0108
2794.00,0.0106
2793.00,0.0104
2792.00,0.0101
2791.00,0.0098
2790.00,0.0095
2789.00,0.0092
2788.00,0.0089
2787.00,0.0087
2786.00,0.0084
2785.00,0.0082
2784.00,0.0080
2783.00,0.0079
2782.00,0.0077
2781.00,0.0076
2780.00,0.0074
2779.00,0.0073
2778.00,0.0072
2777.00,0.0070
2776.00,0.0069
2775.00,0.0068
2774.00,0.0067
2773.00,0.0067
2772.00,0.0066
2771.00,0.0066
2770.00,0.0065
2769.00,0.0065
2768.00,0.0065
2767.00,0.0065
2766.00,0.0064
2765.00,0.0064
2764.00,0.0064
2763.00,0.0063
2762.00,0.0063
2761.00,0.0062
2760.00,0.0062
2759.00,0.0061
2758.00,0.0061
2757.00,0.0061
2756.00,0.0061
2755.00,0.0061
2754.00,0.0061
2753.00,0.0061
2752.00,0.0060
2751.00,0.0060
2750.00,0.0060
2749.00,0.0060
2748.00,0.0060
2747.00,0.0061
2746.00,0.0061
2745.00,0.0062
2744.00,0.0062
2743.00,0.0063
2742.00,0.0064
2741.00,0.0065
2740.00,0.0065
2739.00,0.0066
2738.00,0.0067
2737.00,0.0068
2736.00,0.0069
2735.00,0.0071
2734.00,0.0072
2733.00,0.0073
2732.00,0.0075
2731.00,0.0076
2730.00,0.0078
2729.00,0.0080
2728.00,0.0082
2727.00,0.0084
2726.00,0.0086
2725.00,0.0088
2724.00,0.0089
2723.00,0.0089
2722.00,0.0088
2721.00,0.0087
2720.00,0.0084
2719.00,0.0082
2718.00,0.0080
2717.00,0.0077
2716.00,0.0075
2715.00,0.0073
2714.00,0.0071
2713.00,0.0069
2712.00,0.0067
2711.00,0.0065
2710.00,0.0064
2709.00,0.0063
2708.00,0.0062
2707.00,0.0061
2706.00,0.0060
2705.00,0.0059
2704.00,0.0058
2703.00,0.0058
2702.00,0.0057
2701.00,0.0057
2700.00,0.0056
2699.00,0.0055
2698.00,0.0055
2697.00,0.0054
2696.00,0.0053
2695.00,0.0053
2694.00,0.0053
2693.00,0.0054
2692.00,0.0054
2691.00,0.0054
2690.00,0.0054
2689.00,0.0054
2688.00,0.0054
2687.00,0.0054
2686.00,0.0054
2685.00,0.0054
2684.00,0.0054
2683.00,0.0054
2682.00,0.0054
2681.00,0.0054
2680.00,0.0054
2679.00,0.0054
2678.00,0.0055
2677.00,0.0055
2676.00,0.0055
2675.00,0.0054
2674.00,0.0054
2673.00,0.0054
2672.00,0.0054
2671.00,0.0053
2670.00,0.0053
2669.00,0.0053
2668.00,0.0053
2667.00,0.0053
2666.00,0.0054
2665.00,0.0054
2664.00,0.0055
2663.00,0.0056
2662.00,0.0057
2661.00,0.0057
2660.00,0.0057
2659.00,0.0057
2658.00,0.0057
2657.00,0.0057
2656.00,0.0056
2655.00,0.0056
2654.00,0.0056
2653.00,0.0055
2652.00,0.0055
2651.00,0.0055
2650.00,0.0054
2649.00,0.0054
2648.00,0.0053
2647.00,0.0053
2646.00,0.0053
2645.00,0.0052
2644.00,0.0052
2643.00,0.0051
2642.00,0.0051
2641.00,0.0051
2640.00,0.0051
2639.00,0.0051
2638.00,0.0051
2637.00,0.0051
2636.00,0.0050
2635.00,0.0050
2634.00,0.0049
2633.00,0.0049
2632.00,0.0049
2631.00,0.0049
2630.00,0.0049
2629.00,0.0049
2628.00,0.0050
2627.00,0.0050
2626.00,0.0050
2625.00,0.0050
2624.00,0.0051
2623.00,0.0051
2622.00,0.0051
2621.00,0.0052
2620.00,0.0052
2619.00,0.0052
2618.00,0.0052
2617.00,0.0052
2616.00,0.0052
2615.00,0.0051
2614.00,0.0050
2613.00,0.0050
2612.00,0.0049
2611.00,0.0049
2610.00,0.0048
2609.00,0.0048
2608.00,0.0048
2607.00,0.0048
2606.00,0.0047
2605.00,0.0046
2604.00,0.0045
2603.00,0.0044
2602.00,0.0044
2601.00,0.0044
2600.00,0.0045
2599.00,0.0045
2598.00,0.0045
2597.00,0.0045
2596.00,0.0044
2595.00,0.0045
2594.00,0.0045
2593.00,0.0045
2592.00,0.0045
2591.00,0.0045
2590.00,0.0046
2589.00,0.0046
2588.00,0.0046
2587.00,0.0047
2586.00,0.0047
2585.00,0.0048
2584.00,0.0048
2583.00,0.0049
2582.00,0.0050
2581.00,0.0050
2580.00,0.0049
2579.00,0.0048
2578.00,0.0047
2577.00,0.0046
2576.00,0.0045
2575.00,0.0044
2574.00,0.0043
2573.00,0.0042
2572.00,0.0041
2571.00,0.0040
2570.00,0.0040
2569.00,0.0040
2568.00,0.0039
2567.00,0.0039
2566.00,0.0039
2565.00,0.0038
2564.00,0.0038
2563.00,0.0038
2562.00,0.0037
2561.00,0.0037
2560.00,0.0037
2559.00,0.0036
2558.00,0.0036
2557.00,0.0035
2556.00,0.0035
2555.00,0.0035
2554.00,0.0035
2553.00,0.0036
2552.00,0.0036
2551.00,0.0036
2550.00,0.0035
2549.00,0.0035
2548.00,0.0034
2547.00,0.0033
2546.00,0.0033
2545.00,0.0032
2544.00,0.0032
2543.00,0.0032
2542.00,0.0031
2541.00,0.0031
2540.00,0.0030
2539.00,0.0030
2538.00,0.0030
2537.00,0.0030
2536.00,0.0030
2535.00,0.0030
2534.00,0.0030
2533.00,0.0030
2532.00,0.0030
2531.00,0.0029
2530.00,0.0029
2529.00,0.0029
2528.00,0.0029
2527.00,0.0029
2526.00,0.0029
2525.00,0.0030
2524.00,0.0030
2523.00,0.0030
2522.00,0.0029
2521.00,0.0029
2520.00,0.0028
2519.00,0.0028
2518.00,0.0029
2517.00,0.0029
2516.00,0.0028
2515.00,0.0027
2514.00,0.0027
2513.00,0.0026
2512.00,0.0026
2511.00,0.0026
2510.00,0.0025
2509.00,0.0025
2508.00,0.0025
2507.00,0.0025
2506.00,0.0025
2505.00,0.0025
2504.00,0.0025
2503.00,0.0025
2502.00,0.0024
2501.00,0.0024
2500.00,0.0024
2499.00,0.0025
2498.00,0.0025
2497.00,0.0026
2496.00,0.0027
2495.00,0.0027
2494.00,0.0027
2493.00,0.0027
2492.00,0.0026
2491.00,0.0026
2490.00,0.0026
2489.00,0.0026
2488.00,0.0026
2487.00,0.0025
2486.00,0.0024
2485.00,0.0024
2484.00,0.0024
2483.00,0.0024
2482.00,0.0023
2481.00,0.0023
2480.00,0.0023
2479.00,0.0024
2478.00,0.0024
2477.00,0.0024
2476.00,0.0024
2475.00,0.0024
2474.00,0.0023
2473.00,0.0023
2472.00,0.0023
2471.00,0.0023
2470.00,0.0023
2469.00,0.0023
2468.00,0.0023
2467.00,0.0023
2466.00,0.0023
2465.00,0.0023
2464.00,0.0022
2463.00,0.0023
2462.00,0.0023
2461.00,0.0023
2460.00,0.0023
2459.00,0.0024
2458.00,0.0024
2457.00,0.0024
2456.00,0.0025
2455.00,0.0025
2454.00,0.0026
2453.00,0.0026
2452.00,0.0026
2451.00,0.0026
2450.00,0.0026
2449.00,0.0026
2448.00,0.0025
2447.00,0.0025
2446.00,0.0025
2445.00,0.0025
2444.00,0.0025
2443.00,0.0025
2442.00,0.0024
2441.00,0.0024
2440.00,0.0024
2439.00,0.0024
2438.00,0.0024
2437.00,0.0024
2436.00,0.0025
2435.00,0.0026
2434.00,0.0027
2433.00,0.0027
2432.00,0.0026
2431.00,0.0026
2430.00,0.0026
2429.00,0.0025
2428.00,0.0025
2427.00,0.0025
2426.00,0.0025
2425.00,0.0025
2424.00,0.0025
2423.00,0.0025
2422.00,0.0024
2421.00,0.0024
2420.00,0.0024
2419.00,0.0024
2418.00,0.0023
2417.00,0.0023
2416.00,0.0022
2415.00,0.0022
2414.00,0.0022
2413.00,0.0022
2412.00,0.0023
2411.00,0.0023
2410.00,0.0023
2409.00,0.0024
2408.00,0.0023
2407.00,0.0023
2406.00,0.0022
2405.00,0.0021
2404.00,0.0021
2403.00,0.0020
2402.00,0.0020
2401.00,0.0021
2400.00,0.0021
2399.00,0.0022
2398.00,0.0022
2397.00,0.0022
2396.00,0.0022
2395.00,0.0022
2394.00,0.0021
2393.00,0.0021
2392.00,0.0021
2391.00,0.0021
2390.00,0.0021
2389.00,0.0021
2388.00,0.0021
2387.00,0.0021
2386.00,0.0020
2385.00,0.0020
2384.00,0.0019
2383.00,0.0019
2382.00,0.0018
2381.00,0.0017
2380.00,0.0016
2379.00,0.0015
2378.00,0.0015
2377.00,0.0014
2376.00,0.0014
2375.00,0.0014
2374.00,0.0015
2373.00,0.0015
2372.00,0.0016
2371.00,0.0016
2370.00,0.0015
2369.00,0.0014
2368.00,0.0014
2367.00,0.0013
2366.00,0.0012
2365.00,0.0012
2364.00,0.0013
2363.00,0.0013
2362.00,0.0014
2361.00,0.0015
2360.00,0.0015
2359.00,0.0015
2358.00,0.0015
2357.00,0.0015
2356.00,0.0015
2355.00,0.0015
2354.00,0.0015
2353.00,0.0015
2352.00,0.0015
2351.00,0.0016
2350.00,0.0016
2349.00,0.0016
2348.00,0.0016
2347.00,0.0017
2346.00,0.0017
2345.00,0.0017
2344.00,0.0017
2343.00,0.0017
2342.00,0.0017
2341.00,0.0018
2340.00,0.0019
2339.00,0.0020
2338.00,0.0020
2337.00,0.0019
2336.00,0.0018
2335.00,0.0018
2334.00,0.0018
2333.00,0.0019
2332.00,0.0019
2331.00,0.0019
2330.00,0.0019
2329.00,0.0019
2328.00,0.0021
2327.00,0.0025
2326.00,0.0029
2325.00,0.0033
2324.00,0.0035
2323.00,0.0034
2322.00,0.0033
2321.00,0.0030
2320.00,0.0028
2319.00,0.0027
2318.00,0.0026
2317.00,0.0025
2316.00,0.0024
2315.00,0.0023
2314.00,0.0023
2313.00,0.0023
2312.00,0.0023
2311.00,0.0023
2310.00,0.0023
2309.00,0.0023
2308.00,0.0023
2307.00,0.0023
2306.00,0.0023
2305.00,0.0023
2304.00,0.0024
2303.00,0.0024
2302.00,0.0024
2301.00,0.0025
2300.00,0.0025
2299.00,0.0026
2298.00,0.0027
2297.00,0.0027
2296.00,0.0027
2295.00,0.0028
2294.00,0.0028
2293.00,0.0029
2292.00,0.0030
2291.00,0.0032
2290.00,0.0033
2289.00,0.0034
2288.00,0.0034
2287.00,0.0035
2286.00,0.0036
2285.00,0.0036
2284.00,0.0036
2283.00,0.0035
2282.00,0.0034
2281.00,0.0033
2280.00,0.0032
2279.00,0.0030
2278.00,0.0029
2277.00,0.0029
2276.00,0.0028
2275.00,0.0027
2274.00,0.0026
2273.00,0.0027
2272.00,0.0029
2271.00,0.0030
2270.00,0.0030
2269.00,0.0029
2268.00,0.0029
2267.00,0.0027
2266.00,0.0026
2265.00,0.0025
2264.00,0.0024
2263.00,0.0024
2262.00,0.0024
2261.00,0.0025
2260.00,0.0026
2259.00,0.0027
2258.00,0.0028
2257.00,0.0028
2256.00,0.0027
2255.00,0.0026
2254.00,0.0025
2253.00,0.0024
2252.00,0.0024
2251.00,0.0023
2250.00,0.0023
2249.00,0.0022
2248.00,0.0022
2247.00,0.0022
2246.00,0.0024
2245.00,0.0025
2244.00,0.0026
2243.00,0.0026
2242.00,0.0027
2241.00,0.0027
2240.00,0.0028
2239.00,0.0028
2238.00,0.0027
2237.00,0.0027
2236.00,0.0026
2235.00,0.0026
2234.00,0.0024
2233.00,0.0023
2232.00,0.0022
2231.00,0.0021
2230.00,0.0022
2229.00,0.0023
2228.00,0.0024
2227.00,0.0024
2226.00,0.0023
2225.00,0.0022
2224.00,0.0023
2223.00,0.0023
2222.00,0.0023
2221.00,0.0022
2220.00,0.0022
2219.00,0.0022
2218.00,0.0023
2217.00,0.0023
2216.00,0.0023
2215.00,0.0022
2214.00,0.0021
2213.00,0.0020
2212.00,0.0020
2211.00,0.0019
2210.00,0.0018
2209.00,0.0017
2208.00,0.0017
2207.00,0.0018
2206.00,0.0020
2205.00,0.0022
2204.00,0.0022
2203.00,0.0022
2202.00,0.0023
2201.00,0.0024
2200.00,0.0024
2199.00,0.0025
2198.00,0.0024
2197.00,0.0024
2196.00,0.0025
2195.00,0.0025
2194.00,0.0026
2193.00,0.0028
2192.00,0.0029
2191.00,0.0029
2190.00,0.0028
2189.00,0.0027
2188.00,0.0027
2187.00,0.0028
2186.00,0.0029
2185.00,0.0029
2184.00,0.0028
2183.00,0.0026
2182.00,0.0023
2181.00,0.0022
2180.00,0.0022
2179.00,0.0022
2178.00,0.0022
2177.00,0.0021
2176.00,0.0020
2175.00,0.0019
2174.00,0.0020
2173.00,0.0021
2172.00,0.0022
2171.00,0.0024
2170.00,0.0027
2169.00,0.0030
2168.00,0.0034
2167.00,0.0035
2166.00,0.0035
2165.00,0.0034
2164.00,0.0035
2163.00,0.0038
2162.00,0.0039
2161.00,0.0034
2160.00,0.0022
2159.00,0.0004
2158.00,-0.0012
2157.00,-0.0020
2156.00,-0.0020
2155.00,-0.0016
2154.00,-0.0010
2153.00,-0.0006
2152.00,-0.0003
2151.00,-0.0003
2150.00,-0.0005
2149.00,-0.0007
2148.00,-0.0006
2147.00,-0.0003
2146.00,-0.0002
2145.00,-0.0003
2144.00,-0.0003
2143.00,-0.0004
2142.00,-0.0003
2141.00,-0.0001
2140.00,0.0001
2139.00,0.0002
2138.00,0.0002
2137.00,0.0002
2136.00,-0.0000
2135.00,-0.0002
2134.00,-0.0004
2133.00,-0.0004
2132.00,-0.0002
2131.00,-0.0001
2130.00,0.0001
2129.00,0.0003
2128.00,0.0005
2127.00,0.0006
2126.00,0.0006
2125.00,0.0007
2124.00,0.0008
2123.00,0.0010
2122.00,0.0012
2121.00,0.0013
2120.00,0.0014
2119.00,0.0015
2118.00,0.0016
2117.00,0.0018
2116.00,0.0020
2115.00,0.0019
2114.00,0.0018
2113.00,0.0017
2112.00,0.0016
2111.00,0.0017
2110.00,0.0017
2109.00,0.0018
2108.00,0.0018
2107.00,0.0017
2106.00,0.0018
2105.00,0.0019
2104.00,0.0020
2103.00,0.0020
2102.00,0.0019
2101.00,0.0018
2100.00,0.0017
2099.00,0.0017
2098.00,0.0017
2097.00,0.0016
2096.00,0.0016
2095.00,0.0015
2094.00,0.0014
2093.00,0.0014
2092.00,0.0015
2091.00,0.0016
2090.00,0.0018
2089.00,0.0019
2088.00,0.0020
2087.00,0.0020
2086.00,0.0019
2085.00,0.0018
2084.00,0.0017
2083.00,0.0017
2082.00,0.0016
2081.00,0.0017
2080.00,0.0018
2079.00,0.0019
2078.00,0.0019
2077.00,0.0020
2076.00,0.0020
2075.00,0.0019
2074.00,0.0019
2073.00,0.0020
2072.00,0.0021
2071.00,0.0022
2070.00,0.0021
2069.00,0.0021
2068.00,0.0019
2067.00,0.0018
2066.00,0.0017
2065.00,0.0016
2064.00,0.0015
2063.00,0.0014
2062.00,0.0014
2061.00,0.0015
2060.00,0.0016
2059.00,0.0018
2058.00,0.0019
2057.00,0.0019
2056.00,0.0019
2055.00,0.0020
2054.00,0.0022
2053.00,0.0025
2052.00,0.0030
2051.00,0.0031
2050.00,0.0029
2049.00,0.0023
2048.00,0.0017
2047.00,0.0014
2046.00,0.0014
2045.00,0.0017
2044.00,0.0020
2043.00,0.0021
2042.00,0.0021
2041.00,0.0022
2040.00,0.0021
2039.00,0.0020
2038.00,0.0018
2037.00,0.0018
2036.00,0.0019
2035.00,0.0019
2034.00,0.0019
2033.00,0.0019
2032.00,0.0017
2031.00,0.0014
2030.00,0.0012
2029.00,0.0010
2028.00,0.0009
2027.00,0.0008
2026.00,0.0006
2025.00,0.0005
2024.00,0.0004
2023.00,0.0004
2022.00,0.0005
2021.00,0.0005
2020.00,0.0006
2019.00,0.0007
2018.00,0.0009
2017.00,0.0010
2016.00,0.0010
2015.00,0.0007
2014.00,0.0004
2013.00,0.0002
2012.00,0.0001
2011.00,0.0002
2010.00,0.0002
2009.00,0.0002
2008.00,0.0001
2007.00,-0.0002
2006.00,-0.0004
2005.00,-0.0004
2004.00,-0.0003
2003.00,-0.0001
2002.00,-0.0000
2001.00,0.0001
2000.00,0.0002
1999.00,0.0003
1998.00,0.0004
1997.00,0.0004
1996.00,0.0005
1995.00,0.0006
1994.00,0.0007
1993.00,0.0008
1992.00,0.0010
1991.00,0.0012
1990.00,0.0014
1989.00,0.0016
1988.00,0.0017
1987.00,0.0018
1986.00,0.0019
1985.00,0.0020
1984.00,0.0022
1983.00,0.0024
1982.00,0.0027
1981.00,0.0031
1980.00,0.0032
1979.00,0.0029
1978.00,0.0022
1977.00,0.0016
1976.00,0.0012
1975.00,0.0009
1974.00,0.0008
1973.00,0.0006
1972.00,0.0003
1971.00,0.0000
1970.00,-0.0002
1969.00,-0.0002
1968.00,0.0001
1967.00,0.0005
1966.00,0.0007
1965.00,0.0006
1964.00,0.0002
1963.00,-0.0001
1962.00,-0.0001
1961.00,-0.0000
1960.00,0.0001
1959.00,0.0001
1958.00,0.0001
1957.00,0.0000
1956.00,-0.0000
1955.00,0.0000
1954.00,0.0001
1953.00,0.0001
1952.00,0.0001
1951.00,-0.0001
1950.00,-0.0002
1949.00,-0.0003
1948.00,-0.0003
1947.00,-0.0003
1946.00,-0.0003
1945.00,-0.0003
1944.00,-0.0002
1943.00,-0.0001
1942.00,0.0001
1941.00,0.0003
1940.00,0.0004
1939.00,0.0004
1938.00,0.0003
1937.00,0.0003
1936.00,0.0004
1935.00,0.0005
1934.00,0.0006
1933.00,0.0007
1932.00,0.0007
1931.00,0.0007
1930.00,0.0008
1929.00,0.0009
1928.00,0.0010
1927.00,0.0010
1926.00,0.0010
1925.00,0.0010
1924.00,0.0010
1923.00,0.0009
1922.00,0.0010
1921.00,0.0011
1920.00,0.0012
1919.00,0.0013
1918.00,0.0013
1917.00,0.0013
1916.00,0.0013
1915.00,0.0013
1914.00,0.0013
1913.00,0.0013
1912.00,0.0012
1911.00,0.0012
1910.00,0.0013
1909.00,0.0013
1908.00,0.0013
1907.00,0.0012
1906.00,0.0011
1905.00,0.0011
1904.00,0.0012
1903.00,0.0013
1902.00,0.0013
1901.00,0.0014
1900.00,0.0014
1899.00,0.0015
1898.00,0.0015
1897.00,0.0016
1896.00,0.0016
1895.00,0.0015
1894.00,0.0013
1893.00,0.0013
1892.00,0.0013
1891.00,0.0013
1890.00,0.0013
1889.00,0.0014
1888.00,0.0014
1887.00,0.0014
1886.00,0.0013
1885.00,0.0013
1884.00,0.0013
1883.00,0.0013
1882.00,0.0012
1881.00,0.0013
1880.00,0.0013
1879.00,0.0014
1878.00,0.0014
1877.00,0.0015
1876.00,0.0015
1875.00,0.0016
1874.00,0.0016
1873.00,0.0017
1872.00,0.0017
1871.00,0.0017
1870.00,0.0017
1869.00,0.0017
1868.00,0.0018
1867.00,0.0018
1866.00,0.0018
1865.00,0.0018
1864.00,0.0017
1863.00,0.0017
1862.00,0.0016
1861.00,0.0015
1860.00,0.0015
1859.00,0.0015
1858.00,0.0015
1857.00,0.0016
1856.00,0.0016
1855.00,0.0016
1854.00,0.0016
1853.00,0.0017
1852.00,0.0017
1851.00,0.0017
1850.00,0.0017
1849.00,0.0017
1848.00,0.0017
1847.00,0.0017
1846.00,0.0017
1845.00,0.0017
1844.00,0.0016
1843.00,0.0016
1842.00,0.0016
1841.00,0.0017
1840.00,0.0017
1839.00,0.0017
1838.00,0.0018
1837.00,0.0019
1836.00,0.0019
1835.00,0.0020
1834.00,0.0020
1833.00,0.0019
1832.00,0.0019
1831.00,0.0018
1830.00,0.0018
1829.00,0.0019
1828.00,0.0020
1827.00,0.0020
1826.00,0.0020
1825.00,0.0020
1824.00,0.0020
1823.00,0.0020
1822.00,0.0019
1821.00,0.0019
1820.00,0.0017
1819.00,0.0016
1818.00,0.0015
1817.00,0.0015
1816.00,0.0016
1815.00,0.0017
1814.00,0.0018
1813.00,0.0019
1812.00,0.0019
1811.00,0.0018
1810.00,0.0018
1809.00,0.0018
1808.00,0.0019
1807.00,0.0020
1806.00,0.0020
1805.00,0.0020
1804.00,0.0021
1803.00,0.0022
1802.00,0.0022
1801.00,0.0023
1800.00,0.0024
1799.00,0.0024
1798.00,0.0023
1797.00,0.0023
1796.00,0.0024
1795.00,0.0024
1794.00,0.0024
1793.00,0.0024
1792.00,0.0024
1791.00,0.0024
1790.00,0.0023
1789.00,0.0023
1788.00,0.0023
1787.00,0.0023
1786.00,0.0023
1785.00,0.0024
1784.00,0.0024
1783.00,0.0024
1782.00,0.0024
1781.00,0.0023
1780.00,0.0023
1779.00,0.0023
1778.00,0.0023
1777.00,0.0023
1776.00,0.0024
1775.00,0.0025
1774.00,0.0025
1773.00,0.0024
1772.00,0.0024
1771.00,0.0025
1770.00,0.0025
1769.00,0.0026
1768.00,0.0026
1767.00,0.0026
1766.00,0.0026
1765.00,0.0026
1764.00,0.0027
1763.00,0.0027
1762.00,0.0027
1761.00,0.0027
1760.00,0.0027
1759.00,0.0027
1758.00,0.0027
1757.00,0.0028
1756.00,0.0028
1755.00,0.0028
1754.00,0.0028
1753.00,0.0029
1752.00,0.0030
1751.00,0.0030
1750.00,0.0031
1749.00,0.0031
1748.00,0.0031
1747.00,0.0031
1746.00,0.0032
1745.00,0.0033
1744.00,0.0035
1743.00,0.0035
1742.00,0.0036
1741.00,0.0036
1740.00,0.0036
1739.00,0.0037
1738.00,0.0037
1737.00,0.0037
1736.00,0.0038
1735.00,0.0038
1734.00,0.0038
1733.00,0.0038
1732.00,0.0038
1731.00,0.0038
1730.00,0.0038
1729.00,0.0038
1728.00,0.0038
1727.00,0.0037
1726.00,0.0037
1725.00,0.0037
1724.00,0.0037
1723.00,0.0037
1722.00,0.0037
1721.00,0.0038
1720.00,0.0038
1719.00,0.0038
1718.00,0.0038
1717.00,0.0038
1716.00,0.0038
1715.00,0.0037
1714.00,0.0037
1713.00,0.0037
1712.00,0.0037
1711.00,0.0038
1710.00,0.0038
1709.00,0.0038
1708.00,0.0038
1707.00,0.0039
1706.00,0.0039
1705.00,0.0040
1704.00,0.0040
1703.00,0.0041
1702.00,0.0041
1701.00,0.0041
1700.00,0.0042
1699.00,0.0042
1698.00,0.0042
1697.00,0.0042
1696.00,0.0043
1695.00,0.0044
1694.00,0.0045
1693.00,0.0046
1692.00,0.0046
1691.00,0.0046
1690.00,0.0047
1689.00,0.0048
1688.00,0.0048
1687.00,0.0049
1686.00,0.0049
1685.00,0.0049
1684.00,0.0051
1683.00,0.0052
1682.00,0.0053
1681.00,0.0053
1680.00,0.0054
1679.00,0.0055
1678.00,0.0056
1677.00,0.0057
1676.00,0.0057
1675.00,0.0058
1674.00,0.0059
1673.00,0.0060
1672.00,0.0060
1671.00,0.0061
1670.00,0.0063
1669.00,0.0064
1668.00,0.0065
1667.00,0.0065
1666.00,0.0064
1665.00,0.0064
1664.00,0.0064
1663.00,0.0065
1662.00,0.0066
1661.00,0.0067
1660.00,0.0068
1659.00,0.0069
1658.00,0.0069
1657.00,0.0069
1656.00,0.0070
1655.00,0.0070
1654.00,0.0071
1653.00,0.0073
1652.00,0.0074
1651.00,0.0075
1650.00,0.0075
1649.00,0.0076
1648.00,0.0077
1647.00,0.0078
1646.00,0.0078
1645.00,0.0078
1644.00,0.0078
1643.00,0.0079
1642.00,0.0079
1641.00,0.0080
1640.00,0.0080
1639.00,0.0080
1638.00,0.0080
1637.00,0.0081
1636.00,0.0082
1635.00,0.0083
1634.00,0.0082
1633.00,0.0082
1632.00,0.0082
1631.00,0.0081
1630.00,0.0081
1629.00,0.0081
1628.00,0.0082
1627.00,0.0082
1626.00,0.0081
1625.00,0.0081
1624.00,0.0081
1623.00,0.0080
1622.00,0.0080
1621.00,0.0081
1620.00,0.0081
1619.00,0.0081
1618.00,0.0081
1617.00,0.0081
1616.00,0.0081
1615.00,0.0081
1614.00,0.0081
1613.00,0.0081
1612.00,0.0081
1611.00,0.0082
1610.00,0.0082
1609.00,0.0082
1608.00,0.0082
1607.00,0.0082
1606.00,0.0082
1605.00,0.0082
1604.00,0.0082
1603.00,0.0082
1602.00,0.0082
1601.00,0.0082
1600.00,0.0082
1599.00,0.0082
1598.00,0.0082
1597.00,0.0083
1596.00,0.0083
1595.00,0.0083
1594.00,0.0083
1593.00,0.0083
1592.00,0.0083
1591.00,0.0082
1590.00,0.0083
1589.00,0.0083
1588.00,0.0084
1587.00,0.0084
1586.00,0.0085
1585.00,0.0086
1584.00,0.0088
1583.00,0.0089
1582.00,0.0091
1581.00,0.0092
1580.00,0.0094
1579.00,0.0095
1578.00,0.0095
1577.00,0.0095
1576.00,0.0095
1575.00,0.0095
1574.00,0.0094
1573.00,0.0092
1572.00,0.0091
1571.00,0.0089
1570.00,0.0087
1569.00,0.0087
1568.00,0.0087
1567.00,0.0087
1566.00,0.0087
1565.00,0.0087
1564.00,0.0087
1563.00,0.0087
1562.00,0.0087
1561.00,0.0087
1560.00,0.0087
1559.00,0.0088
1558.00,0.0091
1557.00,0.0093
1556.00,0.0094
1555.00,0.0095
1554.00,0.0095
1553.00,0.0096
1552.00,0.0098
1551.00,0.0099
1550.00,0.0101
1549.00,0.0102
1548.00,0.0104
1547.00,0.0106
1546.00,0.0107
1545.00,0.0110
1544.00,0.0112
1543.00,0.0113
1542.00,0.0114
1541.00,0.0115
1540.00,0.0116
1539.00,0.0115
1538.00,0.0112
1537.00,0.0110
1536.00,0.0108
1535.00,0.0106
1534.00,0.0104
1533.00,0.0102
1532.00,0.0101
1531.00,0.0100
1530.00,0.0099
1529.00,0.0098
1528.00,0.0097
1527.00,0.0097
1526.00,0.0096
1525.00,0.0097
1524.00,0.0098
1523.00,0.0098
1522.00,0.0099
1521.00,0.0101
1520.00,0.0102
1519.00,0.0102
1518.00,0.0102
1517.00,0.0103
1516.00,0.0105
1515.00,0.0106
1514.00,0.0107
1513.00,0.0108
1512.00,0.0110
1511.00,0.0112
1510.00,0.0113
1509.00,0.0114
1508.00,0.0117
1507.00,0.0121
1506.00,0.0125
1505.00,0.0127
1504.00,0.0128
1503.00,0.0129
1502.00,0.0130
1501.00,0.0133
1500.00,0.0137
1499.00,0.0141
1498.00,0.0144
1497.00,0.0150
1496.00,0.0157
1495.00,0.0162
1494.00,0.0166
1493.00,0.0169
1492.00,0.0174
1491.00,0.0179
1490.00,0.0185
1489.00,0.0191
1488.00,0.0198
1487.00,0.0203
1486.00,0.0208
1485.00,0.0214
1484.00,0.0221
1483.00,0.0228
1482.00,0.0237
1481.00,0.0248
1480.00,0.0259
1479.00,0.0270
1478.00,0.0282
1477.00,0.0300
1476.00,0.0320
1475.00,0.0342
1474.00,0.0373
1473.00,0.0420
1472.00,0.0477
1471.00,0.0529
1470.00,0.0577
1469.00,0.0626
1468.00,0.0679
1467.00,0.0737
1466.00,0.0806
1465.00,0.0884
1464.00,0.0953
1463.00,0.1002
1462.00,0.1031
1461.00,0.1051
1460.00,0.1066
1459.00,0.1080
1458.00,0.1102
1457.00,0.1133
1456.00,0.1152
1455.00,0.1153
1454.00,0.1145
1453.00,0.1132
1452.00,0.1113
1451.00,0.1086
1450.00,0.1049
1449.00,0.0997
1448.00,0.0930
1447.00,0.0859
1446.00,0.0792
1445.00,0.0732
1444.00,0.0681
1443.00,0.0639
1442.00,0.0607
1441.00,0.0585
1440.00,0.0570
1439.00,0.0563
1438.00,0.0562
1437.00,0.0563
1436.00,0.0557
1435.00,0.0537
1434.00,0.0505
1433.00,0.0467
1432.00,0.0429
1431.00,0.0395
1430.00,0.0370
1429.00,0.0351
1428.00,0.0338
1427.00,0.0329
1426.00,0.0323
1425.00,0.0316
1424.00,0.0310
1423.00,0.0306
1422.00,0.0303
1421.00,0.0298
1420.00,0.0293
1419.00,0.0289
1418.00,0.0285
1417.00,0.0279
1416.00,0.0273
1415.00,0.0267
1414.00,0.0261
1413.00,0.0255
1412.00,0.0249
1411.00,0.0244
1410.00,0.0239
1409.00,0.0234
1408.00,0.0229
1407.00,0.0225
1406.00,0.0221
1405.00,0.0217
1404.00,0.0214
1403.00,0.0211
1402.00,0.0210
1401.00,0.0209
1400.00,0.0207
1399.00,0.0206
1398.00,0.0205
1397.00,0.0204
1396.00,0.0202
1395.00,0.0203
1394.00,0.0205
1393.00,0.0206
1392.00,0.0208
1391.00,0.0213
1390.00,0.0220
1389.00,0.0232
1388.00,0.0251
1387.00,0.0281
1386.00,0.0321
1385.00,0.0372
1384.00,0.0439
1383.00,0.0529
1382.00,0.0646
1381.00,0.0792
1380.00,0.0971
1379.00,0.1175
1378.00,0.1372
1377.00,0.1518
1376.00,0.1572
1375.00,0.1509
1374.00,0.1343
1373.00,0.1133
1372.00,0.0934
1371.00,0.0765
1370.00,0.0627
1369.00,0.0522
1368.00,0.0449
1367.00,0.0403
1366.00,0.0378
1365.00,0.0368
1364.00,0.0369
1363.00,0.0380
1362.00,0.0397
1361.00,0.0414
1360.00,0.0424
1359.00,0.0425
1358.00,0.0412
1357.00,0.0388
1356.00,0.0356
1355.00,0.0321
1354.00,0.0288
1353.00,0.0260
1352.00,0.0237
1351.00,0.0219
1350.00,0.0204
1349.00,0.0192
1348.00,0.0182
1347.00,0.0174
1346.00,0.0167
1345.00,0.0161
1344.00,0.0157
1343.00,0.0154
1342.00,0.0151
1341.00,0.0148
1340.00,0.0146
1339.00,0.0144
1338.00,0.0142
1337.00,0.0141
1336.00,0.0142
1335.00,0.0143
1334.00,0.0145
1333.00,0.0147
1332.00,0.0150
1331.00,0.0152
1330.00,0.0152
1329.00,0.0151
1328.00,0.0147
1327.00,0.0143
1326.00,0.0139
1325.00,0.0133
1324.00,0.0128
1323.00,0.0124
1322.00,0.0120
1321.00,0.0118
1320.00,0.0116
1319.00,0.0114
1318.00,0.0112
1317.00,0.0110
1316.00,0.0108
1315.00,0.0108
1314.00,0.0108
1313.00,0.0108
1312.00,0.0109
1311.00,0.0111
1310.00,0.0115
1309.00,0.0120
1308.00,0.0128
1307.00,0.0138
1306.00,0.0148
1305.00,0.0154
1304.00,0.0155
1303.00,0.0153
1302.00,0.0148
1301.00,0.0144
1300.00,0.0141
1299.00,0.0139
1298.00,0.0139
1297.00,0.0138
1296.00,0.0137
1295.00,0.0135
1294.00,0.0132
1293.00,0.0128
1292.00,0.0123
1291.00,0.0119
1290.00,0.0115
1289.00,0.0112
1288.00,0.0110
1287.00,0.0108
1286.00,0.0106
1285.00,0.0105
1284.00,0.0103
1283.00,0.0102
1282.00,0.0100
1281.00,0.0099
1280.00,0.0099
1279.00,0.0098
1278.00,0.0097
1277.00,0.0096
1276.00,0.0095
1275.00,0.0095
1274.00,0.0095
1273.00,0.0096
1272.00,0.0096
1271.00,0.0097
1270.00,0.0097
1269.00,0.0098
1268.00,0.0100
1267.00,0.0101
1266.00,0.0103
1265.00,0.0106
1264.00,0.0108
1263.00,0.0111
1262.00,0.0114
1261.00,0.0119
1260.00,0.0124
1259.00,0.0130
1258.00,0.0136
1257.00,0.0140
1256.00,0.0142
1255.00,0.0140
1254.00,0.0135
1253.00,0.0129
1252.00,0.0122
1251.00,0.0116
1250.00,0.0112
1249.00,0.0109
1248.00,0.0107
1247.00,0.0106
1246.00,0.0104
1245.00,0.0103
1244.00,0.0102
1243.00,0.0101
1242.00,0.0101
1241.00,0.0101
1240.00,0.0100
1239.00,0.0099
1238.00,0.0098
1237.00,0.0097
1236.00,0.0096
1235.00,0.0096
1234.00,0.0096
1233.00,0.0096
1232.00,0.0097
1231.00,0.0097
1230.00,0.0097
1229.00,0.0097
1228.00,0.0098
1227.00,0.0100
1226.00,0.0101
1225.00,0.0103
1224.00,0.0105
1223.00,0.0107
1222.00,0.0109
1221.00,0.0111
1220.00,0.0113
1219.00,0.0114
1218.00,0.0114
1217.00,0.0113
1216.00,0.0111
1215.00,0.0110
1214.00,0.0108
1213.00,0.0106
1212.00,0.0103
1211.00,0.0101
1210.00,0.0098
1209.00,0.0097
1208.00,0.0095
1207.00,0.0094
1206.00,0.0093
1205.00,0.0093
1204.00,0.0093
1203.00,0.0093
1202.00,0.0093
1201.00,0.0094
1200.00,0.0094
1199.00,0.0094
1198.00,0.0093
1197.00,0.0093
1196.00,0.0093
1195.00,0.0093
1194.00,0.0094
1193.00,0.0094
1192.00,0.0093
1191.00,0.0093
1190.00,0.0093
1189.00,0.0092
1188.00,0.0092
1187.00,0.0093
1186.00,0.0094
1185.00,0.0094
1184.00,0.0095
1183.00,0.0095
1182.00,0.0097
1181.00,0.0100
1180.00,0.0103
1179.00,0.0108
1178.00,0.0114
1177.00,0.0123
1176.00,0.0134
1175.00,0.0149
1174.00,0.0168
1173.00,0.0191
1172.00,0.0218
1171.00,0.0247
1170.00,0.0275
1169.00,0.0298
1168.00,0.0312
1167.00,0.0315
1166.00,0.0309
1165.00,0.0296
1164.00,0.0281
1163.00,0.0265
1162.00,0.0251
1161.00,0.0239
1160.00,0.0229
1159.00,0.0222
1158.00,0.0216
1157.00,0.0212
1156.00,0.0208
1155.00,0.0205
1154.00,0.0203
1153.00,0.0201
1152.00,0.0197
1151.00,0.0193
1150.00,0.0186
1149.00,0.0179
1148.00,0.0171
1147.00,0.0164
1146.00,0.0157
1145.00,0.0151
1144.00,0.0145
1143.00,0.0139
1142.00,0.0134
1141.00,0.0128
1140.00,0.0124
1139.00,0.0122
1138.00,0.0119
1137.00,0.0117
1136.00,0.0114
1135.00,0.0112
1134.00,0.0110
1133.00,0.0109
1132.00,0.0109
1131.00,0.0109
1130.00,0.0111
1129.00,0.0112
1128.00,0.0114
1127.00,0.0116
1126.00,0.0117
1125.00,0.0118
1124.00,0.0118
1123.00,0.0118
1122.00,0.0118
1121.00,0.0119
1120.00,0.0119
1119.00,0.0120
1118.00,0.0121
1117.00,0.0122
1116.00,0.0123
1115.00,0.0125
1114.00,0.0126
1113.00,0.0128
1112.00,0.0130
1111.00,0.0133
1110.00,0.0136
1109.00,0.0139
1108.00,0.0142
1107.00,0.0147
1106.00,0.0153
1105.00,0.0159
1104.00,0.0163
1103.00,0.0164
1102.00,0.0164
1101.00,0.0161
1100.00,0.0158
1099.00,0.0154
1098.00,0.0150
1097.00,0.0146
1096.00,0.0142
1095.00,0.0138
1094.00,0.0134
1093.00,0.0132
1092.00,0.0129
1091.00,0.0127
1090.00,0.0124
1089.00,0.0121
1088.00,0.0119
1087.00,0.0118
1086.00,0.0117
1085.00,0.0118
1084.00,0.0117
1083.00,0.0117
1082.00,0.0116
1081.00,0.0115
1080.00,0.0113
1079.00,0.0112
1078.00,0.0111
1077.00,0.0110
1076.00,0.0109
1075.00,0.0108
1074.00,0.0108
1073.00,0.0108
1072.00,0.0109
1071.00,0.0109
1070.00,0.0109
1069.00,0.0109
1068.00,0.0109
1067.00,0.0109
1066.00,0.0108
1065.00,0.0107
1064.00,0.0107
1063.00,0.0107
1062.00,0.0108
1061.00,0.0109
1060.00,0.0110
1059.00,0.0111
1058.00,0.0111
1057.00,0.0110
1056.00,0.0110
1055.00,0.0110
1054.00,0.0109
1053.00,0.0110
1052.00,0.0111
1051.00,0.0112
1050.00,0.0115
1049.00,0.0117
1048.00,0.0120
1047.00,0.0123
1046.00,0.0126
1045.00,0.0128
1044.00,0.0128
1043.00,0.0127
1042.00,0.0125
1041.00,0.0123
1040.00,0.0121
1039.00,0.0121
1038.00,0.0120
1037.00,0.0121
1036.00,0.0120
1035.00,0.0120
1034.00,0.0119
1033.00,0.0119
1032.00,0.0119
1031.00,0.0119
1030.00,0.0119
1029.00,0.0118
1028.00,0.0117
1027.00,0.0116
1026.00,0.0117
1025.00,0.0117
1024.00,0.0117
1023.00,0.0117
1022.00,0.0116
1021.00,0.0116
1020.00,0.0117
1019.00,0.0118
1018.00,0.0119
1017.00,0.0121
1016.00,0.0123
1015.00,0.0126
1014.00,0.0129
1013.00,0.0132
1012.00,0.0134
1011.00,0.0137
1010.00,0.0138
1009.00,0.0141
1008.00,0.0144
1007.00,0.0150
1006.00,0.0158
1005.00,0.0169
1004.00,0.0184
1003.00,0.0205
1002.00,0.0231
1001.00,0.0263
1000.00,0.0295
999.00,0.0321
998.00,0.0333
997.00,0.0326
996.00,0.0302
995.00,0.0267
994.00,0.0231
993.00,0.0200
992.00,0.0175
991.00,0.0157
990.00,0.0144
989.00,0.0135
988.00,0.0129
987.00,0.0126
986.00,0.0125
985.00,0.0126
984.00,0.0130
983.00,0.0136
982.00,0.0146
981.00,0.0160
980.00,0.0181
979.00,0.0208
978.00,0.0241
977.00,0.0280
976.00,0.0320
975.00,0.0358
974.00,0.0386
973.00,0.0396
972.00,0.0383
971.00,0.0351
970.00,0.0306
969.00,0.0260
968.00,0.0219
967.00,0.0188
966.00,0.0166
965.00,0.0150
964.00,0.0138
963.00,0.0128
962.00,0.0121
961.00,0.0114
960.00,0.0110
959.00,0.0106
958.00,0.0104
957.00,0.0102
956.00,0.0099
955.00,0.0097
954.00,0.0095
953.00,0.0093
952.00,0.0092
951.00,0.0091
950.00,0.0091
949.00,0.0091
948.00,0.0091
947.00,0.0093
946.00,0.0094
945.00,0.0097
944.00,0.0099
943.00,0.0102
942.00,0.0104
941.00,0.0104
940.00,0.0102
939.00,0.0098
938.00,0.0094
937.00,0.0091
936.00,0.0090
935.00,0.0088
934.00,0.0087
933.00,0.0085
932.00,0.0083
931.00,0.0082
930.00,0.0081
929.00,0.0081
928.00,0.0080
927.00,0.0080
926.00,0.0079
925.00,0.0079
924.00,0.0079
923.00,0.0080
922.00,0.0081
921.00,0.0082
920.00,0.0083
919.00,0.0085
918.00,0.0086
917.00,0.0087
916.00,0.0087
915.00,0.0087
914.00,0.0087
913.00,0.0087
912.00,0.0087
911.00,0.0087
910.00,0.0088
909.00,0.0089
908.00,0.0092
907.00,0.0096
906.00,0.0102
905.00,0.0110
904.00,0.0121
903.00,0.0135
902.00,0.0151
901.00,0.0165
900.00,0.0176
899.00,0.0180
898.00,0.0176
897.00,0.0164
896.00,0.0149
895.00,0.0133
894.00,0.0121
893.00,0.0111
892.00,0.0104
891.00,0.0100
890.00,0.0098
889.00,0.0096
888.00,0.0095
887.00,0.0095
886.00,0.0095
885.00,0.0097
884.00,0.0099
883.00,0.0103
882.00,0.0107
881.00,0.0114
880.00,0.0122
879.00,0.0132
878.00,0.0142
877.00,0.0151
876.00,0.0157
875.00,0.0160
874.00,0.0158
873.00,0.0151
872.00,0.0141
871.00,0.0128
870.00,0.0116
869.00,0.0107
868.00,0.0101
867.00,0.0098
866.00,0.0098
865.00,0.0098
864.00,0.0099
863.00,0.0101
862.00,0.0102
861.00,0.0104
860.00,0.0105
859.00,0.0106
858.00,0.0106
857.00,0.0107
856.00,0.0107
855.00,0.0107
854.00,0.0108
853.00,0.0110
852.00,0.0114
851.00,0.0118
850.00,0.0122
849.00,0.0128
848.00,0.0136
847.00,0.0149
846.00,0.0169
845.00,0.0200
844.00,0.0240
843.00,0.0282
842.00,0.0313
841.00,0.0320
840.00,0.0298
839.00,0.0260
838.00,0.0219
837.00,0.0187
836.00,0.0167
835.00,0.0154
834.00,0.0146
833.00,0.0139
832.00,0.0134
831.00,0.0131
830.00,0.0128
829.00,0.0126
828.00,0.0124
827.00,0.0121
826.00,0.0121
825.00,0.0122
824.00,0.0123
823.00,0.0124
822.00,0.0123
821.00,0.0123
820.00,0.0124
819.00,0.0126
818.00,0.0129
817.00,0.0134
816.00,0.0141
815.00,0.0149
814.00,0.0159
813.00,0.0172
812.00,0.0185
811.00,0.0198
810.00,0.0206
809.00,0.0209
808.00,0.0208
807.00,0.0201
806.00,0.0191
805.00,0.0178
804.00,0.0165
803.00,0.0155
802.00,0.0147
801.00,0.0140
800.00,0.0135
799.00,0.0130
798.00,0.0126
797.00,0.0121
796.00,0.0117
795.00,0.0114
794.00,0.0111
793.00,0.0109
792.00,0.0106
791.00,0.0105
790.00,0.0103
789.00,0.0102
788.00,0.0099
787.00,0.0096
786.00,0.0094
785.00,0.0092
784.00,0.0092
783.00,0.0091
782.00,0.0090
781.00,0.0088
780.00,0.0085
779.00,0.0084
778.00,0.0084
777.00,0.0086
776.00,0.0088
775.00,0.0090
774.00,0.0091
773.00,0.0093
772.00,0.0094
771.00,0.0095
770.00,0.0095
769.00,0.0096
768.00,0.0096
767.00,0.0095
766.00,0.0094
765.00,0.0092
764.00,0.0091
763.00,0.0090
762.00,0.0089
761.00,0.0087
760.00,0.0085
759.00,0.0083
758.00,0.0081
757.00,0.0081
756.00,0.0079
755.00,0.0077
754.00,0.0075
753.00,0.0074
752.00,0.0075
751.00,0.0076
750.00,0.0077
749.00,0.0078
748.00,0.0078
747.00,0.0078
746.00,0.0077
745.00,0.0077
744.00,0.0078
743.00,0.0079
742.00,0.0080
741.00,0.0081
740.00,0.0082
739.00,0.0084
738.00,0.0087
737.00,0.0089
736.00,0.0090
735.00,0.0091
734.00,0.0093
733.00,0.0095
732.00,0.0096
731.00,0.0096
730.00,0.0096
729.00,0.0096
728.00,0.0095
727.00,0.0094
726.00,0.0093
725.00,0.0093
724.00,0.0093
723.00,0.0094
722.00,0.0095
721.00,0.0095
720.00,0.0095
719.00,0.0095
718.00,0.0095
717.00,0.0094
716.00,0.0094
715.00,0.0095
714.00,0.0095
713.00,0.0095
712.00,0.0093
711.00,0.0092
710.00,0.0092
709.00,0.0093
708.00,0.0093
707.00,0.0094
706.00,0.0093
705.00,0.0091
704.00,0.0088
703.00,0.0086
702.00,0.0084
701.00,0.0083
700.00,0.0082
699.00,0.0082
698.00,0.0081
697.00,0.0080
696.00,0.0078
695.00,0.0078
694.00,0.0079
693.00,0.0079
692.00,0.0078
691.00,0.0078
690.00,0.0079
689.00,0.0079
688.00,0.0080
687.00,0.0081
686.00,0.0080
685.00,0.0078
684.00,0.0076
683.00,0.0076
682.00,0.0077
681.00,0.0080
680.00,0.0081
679.00,0.0082
678.00,0.0081
677.00,0.0082
676.00,0.0083
675.00,0.0084
674.00,0.0084
673.00,0.0082
672.00,0.0080
671.00,0.0080
670.00,0.0081
669.00,0.0084
668.00,0.0086
667.00,0.0087
666.00,0.0087
665.00,0.0085
664.00,0.0083
663.00,0.0081
662.00,0.0080
661.00,0.0080
660.00,0.0082
659.00,0.0084
658.00,0.0084
657.00,0.0084
656.00,0.0083
655.00,0.0083
654.00,0.0084
653.00,0.0084
652.00,0.0084
651.00,0.0085
650.00,0.0086
649.00,0.0086
648.00,0.0085
647.00,0.0083
646.00,0.0082
645.00,0.0081
644.00,0.0083
643.00,0.0084
642.00,0.0086
641.00,0.0087
640.00,0.0086
639.00,0.0084
638.00,0.0083
637.00,0.0082
636.00,0.0082
635.00,0.0083
634.00,0.0084
633.00,0.0085
632.00,0.0084
631.00,0.0084
630.00,0.0084
629.00,0.0084
628.00,0.0083
627.00,0.0083
626.00,0.0084
625.00,0.0084
624.00,0.0085
623.00,0.0086
622.00,0.0087
621.00,0.0087
620.00,0.0086
619.00,0.0085
618.00,0.0086
617.00,0.0089
616.00,0.0092
615.00,0.0092
614.00,0.0091
613.00,0.0088
612.00,0.0087
611.00,0.0087
610.00,0.0087
609.00,0.0089
608.00,0.0089
607.00,0.0088
606.00,0.0085
605.00,0.0083
604.00,0.0081
603.00,0.0080
602.00,0.0080
601.00,0.0082
600.00,0.0085
599.00,0.0088
598.00,0.0088
597.00,0.0087
596.00,0.0086
595.00,0.0087
594.00,0.0089
593.00,0.0089
592.00,0.0089
591.00,0.0087
590.00,0.0084
589.00,0.0082
588.00,0.0080
587.00,0.0081
586.00,0.0085
585.00,0.0088
584.00,0.0090
583.00,0.0090
582.00,0.0089
581.00,0.0088
580.00,0.0090
579.00,0.0093
578.00,0.0096
577.00,0.0097
576.00,0.0095
575.00,0.0092
574.00,0.0089
573.00,0.0086
572.00,0.0084
571.00,0.0083
570.00,0.0083
569.00,0.0084
568.00,0.0084
567.00,0.0084
566.00,0.0085
565.00,0.0087
564.00,0.0092
563.00,0.0097
562.00,0.0099
561.00,0.0098
560.00,0.0094
559.00,0.0092
558.00,0.0092
557.00,0.0092
556.00,0.0092
555.00,0.0092
554.00,0.0092
553.00,0.0092
552.00,0.0092
551.00,0.0091
550.00,0.0093
549.00,0.0095
548.00,0.0096
547.00,0.0097
546.00,0.0095
545.00,0.0092
544.00,0.0087
543.00,0.0084
542.00,0.0084
541.00,0.0086
540.00,0.0091
539.00,0.0096
538.00,0.0101
537.00,0.0105
536.00,0.0106
535.00,0.0106
534.00,0.0106
533.00,0.0108
532.00,0.0111
531.00,0.0113
530.00,0.0113
529.00,0.0110
528.00,0.0106
527.00,0.0105
526.00,0.0108
525.00,0.0115
524.00,0.0121
523.00,0.0121
522.00,0.0113
521.00,0.0102
520.00,0.0092
519.00,0.0087
518.00,0.0086
517.00,0.0089
516.00,0.0092
515.00,0.0097
514.00,0.0101
513.00,0.0104
512.00,0.0103
511.00,0.0098
510.00,0.0090
509.00,0.0083
508.00,0.0081
507.00,0.0081
506.00,0.0083
505.00,0.0083
504.00,0.0082
503.00,0.0083
502.00,0.0084
501.00,0.0084
500.00,0.0083
499.00,0.0083
498.00,0.0086
497.00,0.0090
496.00,0.0094
495.00,0.0095
494.00,0.0091
493.00,0.0087
492.00,0.0084
491.00,0.0084
490.00,0.0086
489.00,0.0089
488.00,0.0094
487.00,0.0100
486.00,0.0102
485.00,0.0099
484.00,0.0093
483.00,0.0092
482.00,0.0097
481.00,0.0103
480.00,0.0103
479.00,0.0098
478.00,0.0093
477.00,0.0094
476.00,0.0101
475.00,0.0108
474.00,0.0112
473.00,0.0112
472.00,0.0108
471.00,0.0103
470.00,0.0098
469.00,0.0091
468.00,0.0086
467.00,0.0090
466.00,0.0103
465.00,0.0119
464.00,0.0132
463.00,0.0138
462.00,0.0140
461.00,0.0140
460.00,0.0145
459.00,0.0158
458.00,0.0175
457.00,0.0181
456.00,0.0171
455.00,0.0150
454.00,0.0131
453.00,0.0121
452.00,0.0123
451.00,0.0130
450.00,0.0132
