Created as New Dataset,Sample 019 By Administrator Date Wednesday, September 10 2025
cm-1,A
4000.00,0.0012
3999.00,0.0012
3998.00,0.0012
3997.00,0.0012
3996.00,0.0011
3995.00,0.0011
3994.00,0.0010
3993.00,0.0010
3992.00,0.0010
3991.00,0.0010
3990.00,0.0011
3989.00,0.0011
3988.00,0.0011
3987.00,0.0011
3986.00,0.0011
3985.00,0.0011
3984.00,0.0010
3983.00,0.0010
3982.00,0.0010
3981.00,0.0009
3980.00,0.0009
3979.00,0.0009
3978.00,0.0009
3977.00,0.0009
3976.00,0.0009
3975.00,0.0010
3974.00,0.0010
3973.00,0.0010
3972.00,0.0010
3971.00,0.0010
3970.00,0.0009
3969.00,0.0009
3968.00,0.0010
3967.00,0.0010
3966.00,0.0010
3965.00,0.0010
3964.00,0.0009
3963.00,0.0009
3962.00,0.0009
3961.00,0.0010
3960.00,0.0010
3959.00,0.0010
3958.00,0.0010
3957.00,0.0009
3956.00,0.0009
3955.00,0.0009
3954.00,0.0009
3953.00,0.0009
3952.00,0.0009
3951.00,0.0009
3950.00,0.0008
3949.00,0.0008
3948.00,0.0008
3947.00,0.0009
3946.00,0.0009
3945.00,0.0009
3944.00,0.0009
3943.00,0.0009
3942.00,0.0009
3941.00,0.0009
3940.00,0.0009
3939.00,0.0009
3938.00,0.0009
3937.00,0.0009
3936.00,0.0009
3935.00,0.0009
3934.00,0.0009
3933.00,0.0009
3932.00,0.0009
3931.00,0.0009
3930.00,0.0010
3929.00,0.0010
3928.00,0.0010
3927.00,0.0010
3926.00,0.0010
3925.00,0.0010
3924.00,0.0010
3923.00,0.0010
3922.00,0.0010
3921.00,0.0010
3920.00,0.0010
3919.00,0.0010
3918.00,0.0010
3917.00,0.0010
3916.00,0.0009
3915.00,0.0009
3914.00,0.0009
3913.00,0.0009
3912.00,0.0009
3911.00,0.0009
3910.00,0.0009
3909.00,0.0009
3908.00,0.0009
3907.00,0.0009
3906.00,0.0009
3905.00,0.0009
3904.00,0.0009
3903.00,0.0010
3902.00,0.0010
3901.00,0.0010
3900.00,0.0010
3899.00,0.0010
3898.00,0.0010
3897.00,0.0009
3896.00,0.0009
3895.00,0.0009
3894.00,0.0009
3893.00,0.0009
3892.00,0.0009
3891.00,0.0009
3890.00,0.0009
3889.00,0.0009
3888.00,0.0009
3887.00,0.0008
3886.00,0.0008
3885.00,0.0008
3884.00,0.0008
3883.00,0.0008
3882.00,0.0009
3881.00,0.0009
3880.00,0.0009
3879.00,0.0009
3878.00,0.0009
3877.00,0.0009
3876.00,0.0009
3875.00,0.0008
3874.00,0.0008
3873.00,0.0008
3872.00,0.0008
3871.00,0.0009
3870.00,0.0009
3869.00,0.0009
3868.00,0.0009
3867.00,0.0009
3866.00,0.0008
3865.00,0.0008
3864.00,0.0007
3863.00,0.0007
3862.00,0.0008
3861.00,0.0008
3860.00,0.0008
3859.00,0.0009
3858.00,0.0009
3857.00,0.0009
3856.00,0.0009
3855.00,0.0009
3854.00,0.0009
3853.00,0.0010
3852.00,0.0010
3851.00,0.0010
3850.00,0.0010
3849.00,0.0010
3848.00,0.0010
3847.00,0.0010
3846.00,0.0010
3845.00,0.0010
3844.00,0.0009
3843.00,0.0009
3842.00,0.0009
3841.00,0.0010
3840.00,0.0010
3839.00,0.0010
3838.00,0.0010
3837.00,0.0010
3836.00,0.0010
3835.00,0.0010
3834.00,0.0010
3833.00,0.0010
3832.00,0.0010
3831.00,0.0010
3830.00,0.0010
3829.00,0.0010
3828.00,0.0009
3827.00,0.0009
3826.00,0.0009
3825.00,0.0009
3824.00,0.0009
3823.00,0.0009
3822.00,0.0009
3821.00,0.0009
3820.00,0.0009
3819.00,0.0009
3818.00,0.0009
3817.00,0.0010
3816.00,0.0010
3815.00,0.0010
3814.00,0.0010
3813.00,0.0010
3812.00,0.0010
3811.00,0.0010
3810.00,0.0009
3809.00,0.0009
3808.00,0.0008
3807.00,0.0008
3806.00,0.0008
3805.00,0.0008
3804.00,0.0009
3803.00,0.0009
3802.00,0.0010
3801.00,0.0010
3800.00,0.0011
3799.00,0.0011
3798.00,0.0011
3797.00,0.0010
3796.00,0.0010
3795.00,0.0010
3794.00,0.0009
3793.00,0.0009
3792.00,0.0009
3791.00,0.0009
3790.00,0.0009
3789.00,0.0009
3788.00,0.0009
3787.00,0.0009
3786.00,0.0009
3785.00,0.0009
3784.00,0.0009
3783.00,0.0009
3782.00,0.0009
3781.00,0.0009
3780.00,0.0009
3779.00,0.0009
3778.00,0.0009
3777.00,0.0009
3776.00,0.0008
3775.00,0.0008
3774.00,0.0009
3773.00,0.0009
3772.00,0.0009
3771.00,0.0009
3770.00,0.0009
3769.00,0.0009
3768.00,0.0009
3767.00,0.0010
3766.00,0.0010
3765.00,0.0010
3764.00,0.0010
3763.00,0.0010
3762.00,0.0010
3761.00,0.0010
3760.00,0.0010
3759.00,0.0010
3758.00,0.0010
3757.00,0.0010
3756.00,0.0010
3755.00,0.0010
3754.00,0.0010
3753.00,0.0010
3752.00,0.0010
3751.00,0.0010
3750.00,0.0009
3749.00,0.0009
3748.00,0.0010
3747.00,0.0010
3746.00,0.0010
3745.00,0.0010
3744.00,0.0010
3743.00,0.0009
3742.00,0.0009
3741.00,0.0009
3740.00,0.0009
3739.00,0.0009
3738.00,0.0009
3737.00,0.0009
3736.00,0.0009
3735.00,0.0009
3734.00,0.0009
3733.00,0.0009
3732.00,0.0009
3731.00,0.0009
3730.00,0.0008
3729.00,0.0008
3728.00,0.0008
3727.00,0.0008
3726.00,0.0007
3725.00,0.0007
3724.00,0.0007
3723.00,0.0007
3722.00,0.0007
3721.00,0.0007
3720.00,0.0008
3719.00,0.0008
3718.00,0.0008
3717.00,0.0007
3716.00,0.0007
3715.00,0.0007
3714.00,0.0007
3713.00,0.0007
3712.00,0.0008
3711.00,0.0008
3710.00,0.0009
3709.00,0.0009
3708.00,0.0008
3707.00,0.0007
3706.00,0.0007
3705.00,0.0007
3704.00,0.0008
3703.00,0.0008
3702.00,0.0009
3701.00,0.0008
3700.00,0.0008
3699.00,0.0007
3698.00,0.0007
3697.00,0.0007
3696.00,0.0007
3695.00,0.0008
3694.00,0.0008
3693.00,0.0007
3692.00,0.0006
3691.00,0.0006
3690.00,0.0006
3689.00,0.0007
3688.00,0.0007
3687.00,0.0008
3686.00,0.0008
3685.00,0.0008
3684.00,0.0008
3683.00,0.0008
3682.00,0.0008
3681.00,0.0008
3680.00,0.0008
3679.00,0.0008
3678.00,0.0008
3677.00,0.0009
3676.00,0.0008
3675.00,0.0008
3674.00,0.0008
3673.00,0.0009
3672.00,0.0009
3671.00,0.0009
3670.00,0.0009
3669.00,0.0009
3668.00,0.0009
3667.00,0.0009
3666.00,0.0008
3665.00,0.0008
3664.00,0.0008
3663.00,0.0008
3662.00,0.0008
3661.00,0.0008
3660.00,0.0008
3659.00,0.0008
3658.00,0.0008
3657.00,0.0009
3656.00,0.0008
3655.00,0.0008
3654.00,0.0008
3653.00,0.0008
3652.00,0.0009
3651.00,0.0009
3650.00,0.0010
3649.00,0.0010
3648.00,0.0010
3647.00,0.0010
3646.00,0.0010
3645.00,0.0010
3644.00,0.0010
3643.00,0.0010
3642.00,0.0010
3641.00,0.0009
3640.00,0.0009
3639.00,0.0009
3638.00,0.0009
3637.00,0.0010
3636.00,0.0010
3635.00,0.0010
3634.00,0.0010
3633.00,0.0010
3632.00,0.0010
3631.00,0.0010
3630.00,0.0010
3629.00,0.0010
3628.00,0.0010
3627.00,0.0010
3626.00,0.0010
3625.00,0.0011
3624.00,0.0012
3623.00,0.0012
3622.00,0.0012
3621.00,0.0012
3620.00,0.0012
3619.00,0.0012
3618.00,0.0012
3617.00,0.0012
3616.00,0.0012
3615.00,0.0013
3614.00,0.0013
3613.00,0.0014
3612.00,0.0015
3611.00,0.0015
3610.00,0.0014
3609.00,0.0014
3608.00,0.0014
3607.00,0.0013
3606.00,0.0014
3605.00,0.0014
3604.00,0.0014
3603.00,0.0015
3602.00,0.0015
3601.00,0.0015
3600.00,0.0015
3599.00,0.0015
3598.00,0.0015
3597.00,0.0015
3596.00,0.0015
3595.00,0.0015
3594.00,0.0015
3593.00,0.0015
3592.00,0.0016
3591.00,0.0016
3590.00,0.0017
3589.00,0.0017
3588.00,0.0017
3587.00,0.0017
3586.00,0.0018
3585.00,0.0018
3584.00,0.0018
3583.00,0.0018
3582.00,0.0018
3581.00,0.0018
3580.00,0.0018
3579.00,0.0018
3578.00,0.0019
3577.00,0.0019
3576.00,0.0020
3575.00,0.0020
3574.00,0.0020
3573.00,0.0020
3572.00,0.0020
3571.00,0.0020
3570.00,0.0020
3569.00,0.0020
3568.00,0.0020
3567.00,0.0020
3566.00,0.0021
3565.00,0.0021
3564.00,0.0021
3563.00,0.0022
3562.00,0.0022
3561.00,0.0023
3560.00,0.0023
3559.00,0.0024
3558.00,0.0024
3557.00,0.0025
3556.00,0.0025
3555.00,0.0026
3554.00,0.0026
3553.00,0.0026
3552.00,0.0026
3551.00,0.0026
3550.00,0.0026
3549.00,0.0026
3548.00,0.0027
3547.00,0.0027
3546.00,0.0028
3545.00,0.0027
3544.00,0.0027
3543.00,0.0027
3542.00,0.0027
3541.00,0.0027
3540.00,0.0028
3539.00,0.0029
3538.00,0.0030
3537.00,0.0030
3536.00,0.0030
3535.00,0.0031
3534.00,0.0031
3533.00,0.0031
3532.00,0.0031
3531.00,0.0032
3530.00,0.0032
3529.00,0.0032
3528.00,0.0032
3527.00,0.0033
3526.00,0.0033
3525.00,0.0033
3524.00,0.0034
3523.00,0.0034
3522.00,0.0034
3521.00,0.0035
3520.00,0.0035
3519.00,0.0036
3518.00,0.0036
3517.00,0.0036
3516.00,0.0036
3515.00,0.0036
3514.00,0.0037
3513.00,0.0038
3512.00,0.0038
3511.00,0.0038
3510.00,0.0038
3509.00,0.0038
3508.00,0.0038
3507.00,0.0038
3506.00,0.0038
3505.00,0.0039
3504.00,0.0039
3503.00,0.0039
3502.00,0.0039
3501.00,0.0040
3500.00,0.0040
3499.00,0.0040
3498.00,0.0041
3497.00,0.0041
3496.00,0.0042
3495.00,0.0042
3494.00,0.0042
3493.00,0.0042
3492.00,0.0042
3491.00,0.0043
3490.00,0.0043
3489.00,0.0044
3488.00,0.0044
3487.00,0.0044
3486.00,0.0045
3485.00,0.0045
3484.00,0.0045
3483.00,0.0046
3482.00,0.0046
3481.00,0.0046
3480.00,0.0047
3479.00,0.0047
3478.00,0.0047
3477.00,0.0048
3476.00,0.0048
3475.00,0.0049
3474.00,0.0049
3473.00,0.0050
3472.00,0.0050
3471.00,0.0050
3470.00,0.0050
3469.00,0.0050
3468.00,0.0050
3467.00,0.0050
3466.00,0.0051
3465.00,0.0051
3464.00,0.0052
3463.00,0.0053
3462.00,0.0053
3461.00,0.0053
3460.00,0.0053
3459.00,0.0053
3458.00,0.0053
3457.00,0.0053
3456.00,0.0053
3455.00,0.0054
3454.00,0.0054
3453.00,0.0054
3452.00,0.0054
3451.00,0.0055
3450.00,0.0055
3449.00,0.0055
3448.00,0.0056
3447.00,0.0056
3446.00,0.0056
3445.00,0.0056
3444.00,0.0057
3443.00,0.0057
3442.00,0.0057
3441.00,0.0057
3440.00,0.0058
3439.00,0.0058
3438.00,0.0059
3437.00,0.0059
3436.00,0.0059
3435.00,0.0059
3434.00,0.0059
3433.00,0.0060
3432.00,0.0060
3431.00,0.0060
3430.00,0.0061
3429.00,0.0062
3428.00,0.0062
3427.00,0.0063
3426.00,0.0064
3425.00,0.0064
3424.00,0.0064
3423.00,0.0064
3422.00,0.0064
3421.00,0.0064
3420.00,0.0065
3419.00,0.0065
3418.00,0.0066
3417.00,0.0066
3416.00,0.0067
3415.00,0.0068
3414.00,0.0068
3413.00,0.0069
3412.00,0.0069
3411.00,0.0069
3410.00,0.0069
3409.00,0.0069
3408.00,0.0070
3407.00,0.0071
3406.00,0.0072
3405.00,0.0073
3404.00,0.0074
3403.00,0.0075
3402.00,0.0076
3401.00,0.0076
3400.00,0.0076
3399.00,0.0077
3398.00,0.0077
3397.00,0.0078
3396.00,0.0078
3395.00,0.0079
3394.00,0.0079
3393.00,0.0078
3392.00,0.0078
3391.00,0.0077
3390.00,0.0077
3389.00,0.0077
3388.00,0.0076
3387.00,0.0076
3386.00,0.0075
3385.00,0.0075
3384.00,0.0074
3383.00,0.0074
3382.00,0.0074
3381.00,0.0074
3380.00,0.0074
3379.00,0.0074
3378.00,0.0074
3377.00,0.0073
3376.00,0.0073
3375.00,0.0073
3374.00,0.0073
3373.00,0.0073
3372.00,0.0073
3371.00,0.0073
3370.00,0.0072
3369.00,0.0072
3368.00,0.0072
3367.00,0.0072
3366.00,0.0072
3365.00,0.0073
3364.00,0.0073
3363.00,0.0073
3362.00,0.0073
3361.00,0.0073
3360.00,0.0073
3359.00,0.0074
3358.00,0.0074
3357.00,0.0074
3356.00,0.0073
3355.00,0.0073
3354.00,0.0073
3353.00,0.0073
3352.00,0.0073
3351.00,0.0073
3350.00,0.0073
3349.00,0.0073
3348.00,0.0073
3347.00,0.0074
3346.00,0.0074
3345.00,0.0075
3344.00,0.0075
3343.00,0.0075
3342.00,0.0074
3341.00,0.0074
3340.00,0.0074
3339.00,0.0073
3338.00,0.0073
3337.00,0.0072
3336.00,0.0072
3335.00,0.0072
3334.00,0.0072
3333.00,0.0072
3332.00,0.0072
3331.00,0.0071
3330.00,0.0071
3329.00,0.0071
3328.00,0.0071
3327.00,0.0072
3326.00,0.0072
3325.00,0.0072
3324.00,0.0072
3323.00,0.0071
3322.00,0.0071
3321.00,0.0071
3320.00,0.0072
3319.00,0.0072
3318.00,0.0073
3317.00,0.0073
3316.00,0.0073
3315.00,0.0073
3314.00,0.0072
3313.00,0.0072
3312.00,0.0071
3311.00,0.0071
3310.00,0.0071
3309.00,0.0071
3308.00,0.0071
3307.00,0.0071
3306.00,0.0071
3305.00,0.0071
3304.00,0.0071
3303.00,0.0071
3302.00,0.0071
3301.00,0.0071
3300.00,0.0071
3299.00,0.0071
3298.00,0.0071
3297.00,0.0071
3296.00,0.0070
3295.00,0.0070
3294.00,0.0069
3293.00,0.0069
3292.00,0.0068
3291.00,0.0068
3290.00,0.0068
3289.00,0.0069
3288.00,0.0069
3287.00,0.0069
3286.00,0.0069
3285.00,0.0069
3284.00,0.0068
3283.00,0.0067
3282.00,0.0067
3281.00,0.0067
3280.00,0.0067
3279.00,0.0067
3278.00,0.0067
3277.00,0.0067
3276.00,0.0066
3275.00,0.0066
3274.00,0.0066
3273.00,0.0066
3272.00,0.0065
3271.00,0.0065
3270.00,0.0065
3269.00,0.0065
3268.00,0.0065
3267.00,0.0065
3266.00,0.0065
3265.00,0.0064
3264.00,0.0064
3263.00,0.0064
3262.00,0.0064
3261.00,0.0064
3260.00,0.0063
3259.00,0.0063
3258.00,0.0063
3257.00,0.0062
3256.00,0.0062
3255.00,0.0062
3254.00,0.0061
3253.00,0.0061
3252.00,0.0061
3251.00,0.0061
3250.00,0.0061
3249.00,0.0060
3248.00,0.0060
3247.00,0.0060
3246.00,0.0061
3245.00,0.0060
3244.00,0.0060
3243.00,0.0060
3242.00,0.0059
3241.00,0.0059
3240.00,0.0059
3239.00,0.0058
3238.00,0.0058
3237.00,0.0058
3236.00,0.0058
3235.00,0.0058
3234.00,0.0059
3233.00,0.0059
3232.00,0.0059
3231.00,0.0060
3230.00,0.0060
3229.00,0.0061
3228.00,0.0061
3227.00,0.0061
3226.00,0.0061
3225.00,0.0062
3224.00,0.0062
3223.00,0.0062
3222.00,0.0062
3221.00,0.0062
3220.00,0.0063
3219.00,0.0063
3218.00,0.0063
3217.00,0.0063
3216.00,0.0064
3215.00,0.0064
3214.00,0.0064
3213.00,0.0064
3212.00,0.0064
3211.00,0.0064
3210.00,0.0064
3209.00,0.0064
3208.00,0.0065
3207.00,0.0065
3206.00,0.0065
3205.00,0.0065
3204.00,0.0065
3203.00,0.0065
3202.00,0.0066
3201.00,0.0066
3200.00,0.0066
3199.00,0.0066
3198.00,0.0066
3197.00,0.0066
3196.00,0.0066
3195.00,0.0066
3194.00,0.0067
3193.00,0.0067
3192.00,0.0066
3191.00,0.0066
3190.00,0.0066
3189.00,0.0065
3188.00,0.0065
3187.00,0.0065
3186.00,0.0065
3185.00,0.0065
3184.00,0.0064
3183.00,0.0064
3182.00,0.0063
3181.00,0.0063
3180.00,0.0063
3179.00,0.0063
3178.00,0.0063
3177.00,0.0063
3176.00,0.0062
3175.00,0.0062
3174.00,0.0062
3173.00,0.0061
3172.00,0.0060
3171.00,0.0060
3170.00,0.0059
3169.00,0.0059
3168.00,0.0058
3167.00,0.0058
3166.00,0.0057
3165.00,0.0057
3164.00,0.0056
3163.00,0.0056
3162.00,0.0055
3161.00,0.0055
3160.00,0.0055
3159.00,0.0055
3158.00,0.0054
3157.00,0.0054
3156.00,0.0053
3155.00,0.0053
3154.00,0.0053
3153.00,0.0053
3152.00,0.0053
3151.00,0.0053
3150.00,0.0053
3149.00,0.0054
3148.00,0.0054
3147.00,0.0053
3146.00,0.0053
3145.00,0.0052
3144.00,0.0052
3143.00,0.0052
3142.00,0.0051
3141.00,0.0051
3140.00,0.0051
3139.00,0.0051
3138.00,0.0051
3137.00,0.0051
3136.00,0.0051
3135.00,0.0051
3134.00,0.0051
3133.00,0.0050
3132.00,0.0050
3131.00,0.0049
3130.00,0.0048
3129.00,0.0048
3128.00,0.0047
3127.00,0.0047
3126.00,0.0047
3125.00,0.0047
3124.00,0.0046
3123.00,0.0046
3122.00,0.0046
3121.00,0.0046
3120.00,0.0045
3119.00,0.0045
3118.00,0.0044
3117.00,0.0044
3116.00,0.0044
3115.00,0.0044
3114.00,0.0044
3113.00,0.0044
3112.00,0.0044
3111.00,0.0043
3110.00,0.0043
3109.00,0.0043
3108.00,0.0042
3107.00,0.0042
3106.00,0.0042
3105.00,0.0042
3104.00,0.0041
3103.00,0.0041
3102.00,0.0041
3101.00,0.0040
3100.00,0.0040
3099.00,0.0040
3098.00,0.0040
3097.00,0.0040
3096.00,0.0041
3095.00,0.0041
3094.00,0.0040
3093.00,0.0040
3092.00,0.0040
3091.00,0.0040
3090.00,0.0040
3089.00,0.0040
3088.00,0.0040
3087.00,0.0040
3086.00,0.0039
3085.00,0.0039
3084.00,0.0039
3083.00,0.0039
3082.00,0.0039
3081.00,0.0039
3080.00,0.0039
3079.00,0.0039
3078.00,0.0039
3077.00,0.0039
3076.00,0.0038
3075.00,0.0038
3074.00,0.0038
3073.00,0.0038
3072.00,0.0038
3071.00,0.0039
3070.00,0.0039
3069.00,0.0039
3068.00,0.0039
3067.00,0.0039
3066.00,0.0039
3065.00,0.0040
3064.00,0.0040
3063.00,0.0040
3062.00,0.0040
3061.00,0.0040
3060.00,0.0040
3059.00,0.0040
3058.00,0.0039
3057.00,0.0039
3056.00,0.0039
3055.00,0.0039
3054.00,0.0040
3053.00,0.0040
3052.00,0.0041
3051.00,0.0041
3050.00,0.0041
3049.00,0.0041
3048.00,0.0041
3047.00,0.0041
3046.00,0.0041
3045.00,0.0041
3044.00,0.0041
3043.00,0.0041
3042.00,0.0041
3041.00,0.0041
3040.00,0.0041
3039.00,0.0041
3038.00,0.0042
3037.00,0.0042
3036.00,0.0042
3035.00,0.0043
3034.00,0.0043
3033.00,0.0044
3032.00,0.0044
3031.00,0.0045
3030.00,0.0045
3029.00,0.0046
3028.00,0.0046
3027.00,0.0047
3026.00,0.0048
3025.00,0.0048
3024.00,0.0049
3023.00,0.0050
3022.00,0.0051
3021.00,0.0052
3020.00,0.0053
3019.00,0.0053
3018.00,0.0054
3017.00,0.0055
3016.00,0.0056
3015.00,0.0057
3014.00,0.0058
3013.00,0.0059
3012.00,0.0061
3011.00,0.0062
3010.00,0.0063
3009.00,0.0065
3008.00,0.0066
3007.00,0.0068
3006.00,0.0069
3005.00,0.0071
3004.00,0.0072
3003.00,0.0075
3002.00,0.0077
3001.00,0.0080
3000.00,0.0082
2999.00,0.0085
2998.00,0.0087
2997.00,0.0091
2996.00,0.0095
2995.00,0.0099
2994.00,0.0104
2993.00,0.0109
2992.00,0.0114
2991.00,0.0119
2990.00,0.0126
2989.00,0.0133
2988.00,0.0141
2987.00,0.0150
2986.00,0.0161
2985.00,0.0172
2984.00,0.0185
2983.00,0.0200
2982.00,0.0216
2981.00,0.0234
2980.00,0.0254
2979.00,0.0277
2978.00,0.0303
2977.00,0.0334
2976.00,0.0368
2975.00,0.0408
2974.00,0.0453
2973.00,0.0503
2972.00,0.0560
2971.00,0.0625
2970.00,0.0696
2969.00,0.0776
2968.00,0.0864
2967.00,0.0960
2966.00,0.1063
2965.00,0.1171
2964.00,0.1281
2963.00,0.1389
2962.00,0.1491
2961.00,0.1581
2960.00,0.1656
2959.00,0.1714
2958.00,0.1756
2957.00,0.1787
2956.00,0.1812
2955.00,0.1836
2954.00,0.1863
2953.00,0.1890
2952.00,0.1914
2951.00,0.1928
2950.00,0.1923
2949.00,0.1891
2948.00,0.1827
2947.00,0.1734
2946.00,0.1618
2945.00,0.1492
2944.00,0.1368
2943.00,0.1257
2942.00,0.1167
2941.00,0.1100
2940.00,0.1058
2939.00,0.1039
2938.00,0.1040
2937.00,0.1059
2936.00,0.1094
2935.00,0.1144
2934.00,0.1206
2933.00,0.1280
2932.00,0.1363
2931.00,0.1453
2930.00,0.1547
2929.00,0.1643
2928.00,0.1737
2927.00,0.1827
2926.00,0.1912
2925.00,0.1991
2924.00,0.2066
2923.00,0.2138
2922.00,0.2206
2921.00,0.2270
2920.00,0.2326
2919.00,0.2368
2918.00,0.2391
2917.00,0.2391
2916.00,0.2366
2915.00,0.2319
2914.00,0.2256
2913.00,0.2184
2912.00,0.2109
2911.00,0.2037
2910.00,0.1971
2909.00,0.1910
2908.00,0.1853
2907.00,0.1797
2906.00,0.1739
2905.00,0.1679
2904.00,0.1617
2903.00,0.1552
2902.00,0.1486
2901.00,0.1420
2900.00,0.1355
2899.00,0.1292
2898.00,0.1234
2897.00,0.1181
2896.00,0.1134
2895.00,0.1095
2894.00,0.1062
2893.00,0.1036
2892.00,0.1017
2891.00,0.1004
2890.00,0.0996
2889.00,0.0993
2888.00,0.0994
2887.00,0.0999
2886.00,0.1007
2885.00,0.1019
2884.00,0.1036
2883.00,0.1056
2882.00,0.1080
2881.00,0.1106
2880.00,0.1131
2879.00,0.1153
2878.00,0.1167
2877.00,0.1173
2876.00,0.1170
2875.00,0.1162
2874.00,0.1154
2873.00,0.1150
2872.00,0.1153
2871.00,0.1163
2870.00,0.1178
2869.00,0.1193
2868.00,0.1202
2867.00,0.1198
2866.00,0.1174
2865.00,0.1127
2864.00,0.1060
2863.00,0.0979
2862.00,0.0894
2861.00,0.0814
2860.00,0.0745
2859.00,0.0688
2858.00,0.0646
2857.00,0.0615
2856.00,0.0596
2855.00,0.0585
2854.00,0.0583
2853.00,0.0587
2852.00,0.0597
2851.00,0.0612
2850.00,0.0633
2849.00,0.0659
2848.00,0.0690
2847.00,0.0728
2846.00,0.0775
2845.00,0.0830
2844.00,0.0895
2843.00,0.0967
2842.00,0.1043
2841.00,0.1117
2840.00,0.1180
2839.00,0.1224
2838.00,0.1240
2837.00,0.1221
2836.00,0.1167
2835.00,0.1082
2834.00,0.0978
2833.00,0.0866
2832.00,0.0757
2831.00,0.0660
2830.00,0.0577
2829.00,0.0509
2828.00,0.0454
2827.00,0.0410
2826.00,0.0374
2825.00,0.0345
2824.00,0.0320
2823.00,0.0300
2822.00,0.0282
2821.00,0.0266
2820.00,0.0253
2819.00,0.0241
2818.00,0.0231
2817.00,0.0222
2816.00,0.0214
2815.00,0.0207
2814.00,0.0201
2813.00,0.0196
2812.00,0.0191
2811.00,0.0186
2810.00,0.0181
2809.00,0.0175
2808.00,0.0169
2807.00,0.0163
2806.00,0.0157
2805.00,0.0151
2804.00,0.0144
2803.00,0.0138
2802.00,0.0133
2801.00,0.0128
2800.00,0.0125
2799.00,0.0121
2798.00,0.0119
2797.00,0.0117
2796.00,0.0115
2795.00,0.0112
2794.00,0.0109
2793.00,0.0106
2792.00,0.0103
2791.00,0.0099
2790.00,0.0096
2789.00,0.0093
2788.00,0.0090
2787.00,0.0087
2786.00,0.0084
2785.00,0.0081
2784.00,0.0078
2783.00,0.0076
2782.00,0.0074
2781.00,0.0072
2780.00,0.0070
2779.00,0.0069
2778.00,0.0067
2777.00,0.0066
2776.00,0.0065
2775.00,0.0064
2774.00,0.0063
2773.00,0.0062
2772.00,0.0062
2771.00,0.0061
2770.00,0.0061
2769.00,0.0060
2768.00,0.0060
2767.00,0.0060
2766.00,0.0060
2765.00,0.0060
2764.00,0.0059
2763.00,0.0059
2762.00,0.0058
2761.00,0.0058
2760.00,0.0057
2759.00,0.0057
2758.00,0.0057
2757.00,0.0056
2756.00,0.0056
2755.00,0.0056
2754.00,0.0056
2753.00,0.0056
2752.00,0.0055
2751.00,0.0055
2750.00,0.0055
2749.00,0.0055
2748.00,0.0055
2747.00,0.0056
2746.00,0.0056
2745.00,0.0057
2744.00,0.0057
2743.00,0.0058
2742.00,0.0059
2741.00,0.0060
2740.00,0.0061
2739.00,0.0062
2738.00,0.0063
2737.00,0.0065
2736.00,0.0067
2735.00,0.0068
2734.00,0.0070
2733.00,0.0071
2732.00,0.0073
2731.00,0.0075
2730.00,0.0077
2729.00,0.0079
2728.00,0.0082
2727.00,0.0085
2726.00,0.0087
2725.00,0.0090
2724.00,0.0091
2723.00,0.0092
2722.00,0.0091
2721.00,0.0089
2720.00,0.0086
2719.00,0.0083
2718.00,0.0079
2717.00,0.0076
2716.00,0.0073
2715.00,0.0070
2714.00,0.0068
2713.00,0.0066
2712.00,0.0064
2711.00,0.0062
2710.00,0.0061
2709.00,0.0059
2708.00,0.0058
2707.00,0.0057
2706.00,0.0055
2705.00,0.0054
2704.00,0.0053
2703.00,0.0052
2702.00,0.0051
2701.00,0.0050
2700.00,0.0050
2699.00,0.0049
2698.00,0.0049
2697.00,0.0049
2696.00,0.0049
2695.00,0.0049
2694.00,0.0049
2693.00,0.0049
2692.00,0.0049
2691.00,0.0049
2690.00,0.0049
2689.00,0.0049
2688.00,0.0049
2687.00,0.0049
2686.00,0.0049
2685.00,0.0048
2684.00,0.0048
2683.00,0.0048
2682.00,0.0049
2681.00,0.0049
2680.00,0.0049
2679.00,0.0049
2678.00,0.0049
2677.00,0.0049
2676.00,0.0049
2675.00,0.0049
2674.00,0.0049
2673.00,0.0049
2672.00,0.0048
2671.00,0.0048
2670.00,0.0047
2669.00,0.0047
2668.00,0.0048
2667.00,0.0048
2666.00,0.0048
2665.00,0.0049
2664.00,0.0049
2663.00,0.0050
2662.00,0.0050
2661.00,0.0051
2660.00,0.0051
2659.00,0.0051
2658.00,0.0051
2657.00,0.0051
2656.00,0.0050
2655.00,0.0049
2654.00,0.0048
2653.00,0.0048
2652.00,0.0047
2651.00,0.0047
2650.00,0.0046
2649.00,0.0046
2648.00,0.0046
2647.00,0.0046
2646.00,0.0045
2645.00,0.0045
2644.00,0.0044
2643.00,0.0044
2642.00,0.0044
2641.00,0.0044
2640.00,0.0043
2639.00,0.0042
2638.00,0.0041
2637.00,0.0041
2636.00,0.0041
2635.00,0.0041
2634.00,0.0041
2633.00,0.0041
2632.00,0.0041
2631.00,0.0041
2630.00,0.0042
2629.00,0.0042
2628.00,0.0042
2627.00,0.0042
2626.00,0.0043
2625.00,0.0043
2624.00,0.0043
2623.00,0.0043
2622.00,0.0043
2621.00,0.0043
2620.00,0.0043
2619.00,0.0043
2618.00,0.0044
2617.00,0.0044
2616.00,0.0044
2615.00,0.0044
2614.00,0.0044
2613.00,0.0043
2612.00,0.0042
2611.00,0.0041
2610.00,0.0040
2609.00,0.0039
2608.00,0.0038
2607.00,0.0037
2606.00,0.0037
2605.00,0.0037
2604.00,0.0037
2603.00,0.0037
2602.00,0.0036
2601.00,0.0036
2600.00,0.0036
2599.00,0.0035
2598.00,0.0035
2597.00,0.0035
2596.00,0.0035
2595.00,0.0035
2594.00,0.0036
2593.00,0.0036
2592.00,0.0037
2591.00,0.0037
2590.00,0.0038
2589.00,0.0039
2588.00,0.0039
2587.00,0.0039
2586.00,0.0040
2585.00,0.0040
2584.00,0.0041
2583.00,0.0041
2582.00,0.0042
2581.00,0.0043
2580.00,0.0042
2579.00,0.0042
2578.00,0.0041
2577.00,0.0040
2576.00,0.0038
2575.00,0.0037
2574.00,0.0035
2573.00,0.0034
2572.00,0.0033
2571.00,0.0032
2570.00,0.0032
2569.00,0.0031
2568.00,0.0031
2567.00,0.0030
2566.00,0.0029
2565.00,0.0029
2564.00,0.0029
2563.00,0.0028
2562.00,0.0027
2561.00,0.0027
2560.00,0.0026
2559.00,0.0026
2558.00,0.0026
2557.00,0.0026
2556.00,0.0026
2555.00,0.0025
2554.00,0.0025
2553.00,0.0024
2552.00,0.0023
2551.00,0.0022
2550.00,0.0022
2549.00,0.0022
2548.00,0.0022
2547.00,0.0022
2546.00,0.0022
2545.00,0.0023
2544.00,0.0022
2543.00,0.0022
2542.00,0.0022
2541.00,0.0021
2540.00,0.0020
2539.00,0.0020
2538.00,0.0019
2537.00,0.0019
2536.00,0.0019
2535.00,0.0019
2534.00,0.0019
2533.00,0.0020
2532.00,0.0020
2531.00,0.0020
2530.00,0.0020
2529.00,0.0019
2528.00,0.0018
2527.00,0.0017
2526.00,0.0016
2525.00,0.0016
2524.00,0.0017
2523.00,0.0017
2522.00,0.0017
2521.00,0.0017
2520.00,0.0016
2519.00,0.0016
2518.00,0.0016
2517.00,0.0015
2516.00,0.0015
2515.00,0.0014
2514.00,0.0014
2513.00,0.0013
2512.00,0.0013
2511.00,0.0013
2510.00,0.0013
2509.00,0.0013
2508.00,0.0013
2507.00,0.0013
2506.00,0.0014
2505.00,0.0014
2504.00,0.0014
2503.00,0.0014
2502.00,0.0013
2501.00,0.0013
2500.00,0.0014
2499.00,0.0014
2498.00,0.0015
2497.00,0.0015
2496.00,0.0015
2495.00,0.0014
2494.00,0.0014
2493.00,0.0014
2492.00,0.0014
2491.00,0.0014
2490.00,0.0013
2489.00,0.0013
2488.00,0.0012
2487.00,0.0012
2486.00,0.0012
2485.00,0.0012
2484.00,0.0013
2483.00,0.0013
2482.00,0.0013
2481.00,0.0013
2480.00,0.0013
2479.00,0.0013
2478.00,0.0012
2477.00,0.0012
2476.00,0.0012
2475.00,0.0011
2474.00,0.0011
2473.00,0.0012
2472.00,0.0012
2471.00,0.0013
2470.00,0.0013
2469.00,0.0013
2468.00,0.0013
2467.00,0.0013
2466.00,0.0013
2465.00,0.0012
2464.00,0.0013
2463.00,0.0013
2462.00,0.0013
2461.00,0.0014
2460.00,0.0014
2459.00,0.0014
2458.00,0.0014
2457.00,0.0013
2456.00,0.0013
2455.00,0.0013
2454.00,0.0013
2453.00,0.0014
2452.00,0.0015
2451.00,0.0015
2450.00,0.0015
2449.00,0.0014
2448.00,0.0014
2447.00,0.0014
2446.00,0.0014
2445.00,0.0014
2444.00,0.0015
2443.00,0.0014
2442.00,0.0014
2441.00,0.0014
2440.00,0.0014
2439.00,0.0014
2438.00,0.0014
2437.00,0.0014
2436.00,0.0015
2435.00,0.0015
2434.00,0.0015
2433.00,0.0015
2432.00,0.0016
2431.00,0.0016
2430.00,0.0017
2429.00,0.0016
2428.00,0.0016
2427.00,0.0015
2426.00,0.0014
2425.00,0.0014
2424.00,0.0015
2423.00,0.0015
2422.00,0.0015
2421.00,0.0014
2420.00,0.0014
2419.00,0.0014
2418.00,0.0014
2417.00,0.0014
2416.00,0.0014
2415.00,0.0014
2414.00,0.0014
2413.00,0.0013
2412.00,0.0013
2411.00,0.0013
2410.00,0.0013
2409.00,0.0013
2408.00,0.0013
2407.00,0.0012
2406.00,0.0012
2405.00,0.0012
2404.00,0.0013
2403.00,0.0013
2402.00,0.0013
2401.00,0.0012
2400.00,0.0012
2399.00,0.0012
2398.00,0.0011
2397.00,0.0012
2396.00,0.0012
2395.00,0.0012
2394.00,0.0012
2393.00,0.0012
2392.00,0.0012
2391.00,0.0013
2390.00,0.0013
2389.00,0.0013
2388.00,0.0012
2387.00,0.0011
2386.00,0.0011
2385.00,0.0010
2384.00,0.0009
2383.00,0.0009
2382.00,0.0009
2381.00,0.0009
2380.00,0.0009
2379.00,0.0009
2378.00,0.0008
2377.00,0.0008
2376.00,0.0009
2375.00,0.0009
2374.00,0.0009
2373.00,0.0009
2372.00,0.0009
2371.00,0.0009
2370.00,0.0008
2369.00,0.0008
2368.00,0.0008
2367.00,0.0009
2366.00,0.0009
2365.00,0.0008
2364.00,0.0008
2363.00,0.0008
2362.00,0.0008
2361.00,0.0008
2360.00,0.0009
2359.00,0.0010
2358.00,0.0011
2357.00,0.0011
2356.00,0.0012
2355.00,0.0012
2354.00,0.0011
2353.00,0.0010
2352.00,0.0009
2351.00,0.0009
2350.00,0.0010
2349.00,0.0010
2348.00,0.0011
2347.00,0.0011
2346.00,0.0011
2345.00,0.0011
2344.00,0.0012
2343.00,0.0013
2342.00,0.0013
2341.00,0.0013
2340.00,0.0013
2339.00,0.0013
2338.00,0.0013
2337.00,0.0014
2336.00,0.0014
2335.00,0.0014
2334.00,0.0014
2333.00,0.0014
2332.00,0.0014
2331.00,0.0013
2330.00,0.0013
2329.00,0.0013
2328.00,0.0015
2327.00,0.0018
2326.00,0.0022
2325.00,0.0026
2324.00,0.0028
2323.00,0.0027
2322.00,0.0024
2321.00,0.0022
2320.00,0.0021
2319.00,0.0020
2318.00,0.0020
2317.00,0.0019
2316.00,0.0018
2315.00,0.0017
2314.00,0.0016
2313.00,0.0015
2312.00,0.0014
2311.00,0.0014
2310.00,0.0014
2309.00,0.0014
2308.00,0.0014
2307.00,0.0014
2306.00,0.0014
2305.00,0.0014
2304.00,0.0015
2303.00,0.0016
2302.00,0.0016
2301.00,0.0016
2300.00,0.0016
2299.00,0.0015
2298.00,0.0015
2297.00,0.0015
2296.00,0.0016
2295.00,0.0016
2294.00,0.0017
2293.00,0.0018
2292.00,0.0019
2291.00,0.0019
2290.00,0.0019
2289.00,0.0020
2288.00,0.0021
2287.00,0.0021
2286.00,0.0022
2285.00,0.0022
2284.00,0.0022
2283.00,0.0022
2282.00,0.0020
2281.00,0.0019
2280.00,0.0017
2279.00,0.0016
2278.00,0.0016
2277.00,0.0016
2276.00,0.0016
2275.00,0.0017
2274.00,0.0017
2273.00,0.0018
2272.00,0.0018
2271.00,0.0018
2270.00,0.0017
2269.00,0.0016
2268.00,0.0015
2267.00,0.0014
2266.00,0.0013
2265.00,0.0013
2264.00,0.0014
2263.00,0.0015
2262.00,0.0015
2261.00,0.0016
2260.00,0.0016
2259.00,0.0017
2258.00,0.0017
2257.00,0.0017
2256.00,0.0016
2255.00,0.0015
2254.00,0.0014
2253.00,0.0013
2252.00,0.0013
2251.00,0.0013
2250.00,0.0013
2249.00,0.0013
2248.00,0.0012
2247.00,0.0012
2246.00,0.0011
2245.00,0.0011
2244.00,0.0010
2243.00,0.0009
2242.00,0.0008
2241.00,0.0008
2240.00,0.0009
2239.00,0.0010
2238.00,0.0011
2237.00,0.0012
2236.00,0.0012
2235.00,0.0012
2234.00,0.0013
2233.00,0.0013
2232.00,0.0012
2231.00,0.0012
2230.00,0.0011
2229.00,0.0012
2228.00,0.0013
2227.00,0.0014
2226.00,0.0013
2225.00,0.0013
2224.00,0.0013
2223.00,0.0013
2222.00,0.0012
2221.00,0.0011
2220.00,0.0011
2219.00,0.0010
2218.00,0.0010
2217.00,0.0010
2216.00,0.0011
2215.00,0.0012
2214.00,0.0012
2213.00,0.0013
2212.00,0.0013
2211.00,0.0013
2210.00,0.0011
2209.00,0.0009
2208.00,0.0009
2207.00,0.0010
2206.00,0.0011
2205.00,0.0012
2204.00,0.0011
2203.00,0.0010
2202.00,0.0009
2201.00,0.0010
2200.00,0.0010
2199.00,0.0010
2198.00,0.0009
2197.00,0.0008
2196.00,0.0008
2195.00,0.0007
2194.00,0.0007
2193.00,0.0007
2192.00,0.0007
2191.00,0.0009
2190.00,0.0011
2189.00,0.0014
2188.00,0.0016
2187.00,0.0018
2186.00,0.0020
2185.00,0.0020
2184.00,0.0019
2183.00,0.0016
2182.00,0.0011
2181.00,0.0007
2180.00,0.0005
2179.00,0.0004
2178.00,0.0004
2177.00,0.0005
2176.00,0.0005
2175.00,0.0004
2174.00,0.0005
2173.00,0.0006
2172.00,0.0008
2171.00,0.0009
2170.00,0.0012
2169.00,0.0016
2168.00,0.0019
2167.00,0.0021
2166.00,0.0018
2165.00,0.0015
2164.00,0.0011
2163.00,0.0011
2162.00,0.0012
2161.00,0.0009
2160.00,0.0000
2159.00,-0.0014
2158.00,-0.0027
2157.00,-0.0034
2156.00,-0.0033
2155.00,-0.0030
2154.00,-0.0024
2153.00,-0.0016
2152.00,-0.0010
2151.00,-0.0006
2150.00,-0.0006
2149.00,-0.0009
2148.00,-0.0014
2147.00,-0.0017
2146.00,-0.0018
2145.00,-0.0016
2144.00,-0.0011
2143.00,-0.0008
2142.00,-0.0006
2141.00,-0.0006
2140.00,-0.0007
2139.00,-0.0007
2138.00,-0.0008
2137.00,-0.0009
2136.00,-0.0011
2135.00,-0.0013
2134.00,-0.0014
2133.00,-0.0013
2132.00,-0.0012
2131.00,-0.0010
2130.00,-0.0008
2129.00,-0.0006
2128.00,-0.0004
2127.00,-0.0003
2126.00,-0.0002
2125.00,-0.0001
2124.00,-0.0001
2123.00,-0.0000
2122.00,0.0001
2121.00,0.0002
2120.00,0.0003
2119.00,0.0004
2118.00,0.0004
2117.00,0.0003
2116.00,0.0003
2115.00,0.0004
2114.00,0.0004
2113.00,0.0004
2112.00,0.0004
2111.00,0.0003
2110.00,0.0003
2109.00,0.0005
2108.00,0.0006
2107.00,0.0008
2106.00,0.0008
2105.00,0.0008
2104.00,0.0007
2103.00,0.0006
2102.00,0.0006
2101.00,0.0006
2100.00,0.0005
2099.00,0.0004
2098.00,0.0002
2097.00,0.0001
2096.00,0.0001
2095.00,0.0000
2094.00,-0.0000
2093.00,-0.0000
2092.00,0.0001
2091.00,0.0002
2090.00,0.0004
2089.00,0.0005
2088.00,0.0006
2087.00,0.0007
2086.00,0.0006
2085.00,0.0006
2084.00,0.0006
2083.00,0.0005
2082.00,0.0005
2081.00,0.0005
2080.00,0.0005
2079.00,0.0006
2078.00,0.0006
2077.00,0.0007
2076.00,0.0007
2075.00,0.0006
2074.00,0.0005
2073.00,0.0005
2072.00,0.0005
2071.00,0.0005
2070.00,0.0006
2069.00,0.0006
2068.00,0.0006
2067.00,0.0005
2066.00,0.0004
2065.00,0.0003
2064.00,0.0003
2063.00,0.0003
2062.00,0.0003
2061.00,0.0002
2060.00,0.0002
2059.00,0.0003
2058.00,0.0004
2057.00,0.0004
2056.00,0.0003
2055.00,0.0002
2054.00,0.0002
2053.00,0.0006
2052.00,0.0011
2051.00,0.0014
2050.00,0.0013
2049.00,0.0009
2048.00,0.0006
2047.00,0.0006
2046.00,0.0007
2045.00,0.0008
2044.00,0.0006
2043.00,0.0003
2042.00,0.0001
2041.00,0.0002
2040.00,0.0004
2039.00,0.0006
2038.00,0.0007
2037.00,0.0007
2036.00,0.0004
2035.00,0.0000
2034.00,-0.0004
2033.00,-0.0007
2032.00,-0.0008
2031.00,-0.0008
2030.00,-0.0008
2029.00,-0.0008
2028.00,-0.0007
2027.00,-0.0006
2026.00,-0.0005
2025.00,-0.0005
2024.00,-0.0006
2023.00,-0.0007
2022.00,-0.0007
2021.00,-0.0007
2020.00,-0.0008
2019.00,-0.0010
2018.00,-0.0013
2017.00,-0.0015
2016.00,-0.0014
2015.00,-0.0012
2014.00,-0.0011
2013.00,-0.0009
2012.00,-0.0007
2011.00,-0.0006
2010.00,-0.0005
2009.00,-0.0006
2008.00,-0.0007
2007.00,-0.0010
2006.00,-0.0011
2005.00,-0.0010
2004.00,-0.0007
2003.00,-0.0004
2002.00,-0.0004
2001.00,-0.0006
2000.00,-0.0009
1999.00,-0.0012
1998.00,-0.0013
1997.00,-0.0013
1996.00,-0.0012
1995.00,-0.0010
1994.00,-0.0008
1993.00,-0.0006
1992.00,-0.0005
1991.00,-0.0004
1990.00,-0.0003
1989.00,-0.0001
1988.00,0.0001
1987.00,0.0002
1986.00,0.0002
1985.00,0.0003
1984.00,0.0004
1983.00,0.0005
1982.00,0.0006
1981.00,0.0007
1980.00,0.0006
1979.00,0.0004
1978.00,-0.0001
1977.00,-0.0005
1976.00,-0.0007
1975.00,-0.0008
1974.00,-0.0007
1973.00,-0.0006
1972.00,-0.0005
1971.00,-0.0004
1970.00,-0.0003
1969.00,-0.0003
1968.00,-0.0003
1967.00,-0.0006
1966.00,-0.0008
1965.00,-0.0009
1964.00,-0.0010
1963.00,-0.0012
1962.00,-0.0014
1961.00,-0.0015
1960.00,-0.0015
1959.00,-0.0015
1958.00,-0.0016
1957.00,-0.0016
1956.00,-0.0015
1955.00,-0.0014
1954.00,-0.0012
1953.00,-0.0010
1952.00,-0.0009
1951.00,-0.0009
1950.00,-0.0011
1949.00,-0.0012
1948.00,-0.0012
1947.00,-0.0012
1946.00,-0.0012
1945.00,-0.0012
1944.00,-0.0012
1943.00,-0.0012
1942.00,-0.0012
1941.00,-0.0010
1940.00,-0.0009
1939.00,-0.0008
1938.00,-0.0008
1937.00,-0.0009
1936.00,-0.0009
1935.00,-0.0009
1934.00,-0.0009
1933.00,-0.0009
1932.00,-0.0008
1931.00,-0.0007
1930.00,-0.0007
1929.00,-0.0007
1928.00,-0.0006
1927.00,-0.0005
1926.00,-0.0004
1925.00,-0.0003
1924.00,-0.0002
1923.00,-0.0002
1922.00,-0.0002
1921.00,-0.0002
1920.00,-0.0002
1919.00,-0.0002
1918.00,-0.0002
1917.00,-0.0002
1916.00,-0.0001
1915.00,-0.0000
1914.00,0.0001
1913.00,0.0002
1912.00,0.0003
1911.00,0.0003
1910.00,0.0002
1909.00,0.0001
1908.00,-0.0001
1907.00,-0.0002
1906.00,-0.0002
1905.00,-0.0001
1904.00,-0.0000
1903.00,0.0001
1902.00,0.0002
1901.00,0.0003
1900.00,0.0003
1899.00,0.0004
1898.00,0.0004
1897.00,0.0005
1896.00,0.0004
1895.00,0.0003
1894.00,0.0003
1893.00,0.0003
1892.00,0.0003
1891.00,0.0003
1890.00,0.0003
1889.00,0.0003
1888.00,0.0003
1887.00,0.0003
1886.00,0.0004
1885.00,0.0003
1884.00,0.0003
1883.00,0.0002
1882.00,0.0001
1881.00,0.0001
1880.00,0.0001
1879.00,0.0002
1878.00,0.0002
1877.00,0.0003
1876.00,0.0004
1875.00,0.0004
1874.00,0.0003
1873.00,0.0002
1872.00,0.0002
1871.00,0.0001
1870.00,0.0002
1869.00,0.0003
1868.00,0.0004
1867.00,0.0004
1866.00,0.0004
1865.00,0.0004
1864.00,0.0004
1863.00,0.0004
1862.00,0.0004
1861.00,0.0004
1860.00,0.0004
1859.00,0.0004
1858.00,0.0004
1857.00,0.0004
1856.00,0.0005
1855.00,0.0005
1854.00,0.0005
1853.00,0.0004
1852.00,0.0004
1851.00,0.0004
1850.00,0.0003
1849.00,0.0003
1848.00,0.0003
1847.00,0.0003
1846.00,0.0002
1845.00,0.0002
1844.00,0.0003
1843.00,0.0004
1842.00,0.0005
1841.00,0.0005
1840.00,0.0005
1839.00,0.0005
1838.00,0.0005
1837.00,0.0005
1836.00,0.0006
1835.00,0.0006
1834.00,0.0006
1833.00,0.0007
1832.00,0.0007
1831.00,0.0008
1830.00,0.0008
1829.00,0.0008
1828.00,0.0008
1827.00,0.0008
1826.00,0.0008
1825.00,0.0008
1824.00,0.0008
1823.00,0.0007
1822.00,0.0007
1821.00,0.0007
1820.00,0.0006
1819.00,0.0005
1818.00,0.0004
1817.00,0.0003
1816.00,0.0003
1815.00,0.0004
1814.00,0.0005
1813.00,0.0005
1812.00,0.0006
1811.00,0.0006
1810.00,0.0007
1809.00,0.0008
1808.00,0.0008
1807.00,0.0009
1806.00,0.0009
1805.00,0.0009
1804.00,0.0009
1803.00,0.0009
1802.00,0.0009
1801.00,0.0009
1800.00,0.0009
1799.00,0.0009
1798.00,0.0009
1797.00,0.0009
1796.00,0.0010
1795.00,0.0010
1794.00,0.0010
1793.00,0.0010
1792.00,0.0010
1791.00,0.0010
1790.00,0.0011
1789.00,0.0011
1788.00,0.0011
1787.00,0.0011
1786.00,0.0011
1785.00,0.0011
1784.00,0.0011
1783.00,0.0011
1782.00,0.0011
1781.00,0.0012
1780.00,0.0012
1779.00,0.0011
1778.00,0.0011
1777.00,0.0011
1776.00,0.0011
1775.00,0.0012
1774.00,0.0012
1773.00,0.0013
1772.00,0.0014
1771.00,0.0014
1770.00,0.0014
1769.00,0.0014
1768.00,0.0014
1767.00,0.0014
1766.00,0.0014
1765.00,0.0014
1764.00,0.0014
1763.00,0.0015
1762.00,0.0016
1761.00,0.0016
1760.00,0.0017
1759.00,0.0017
1758.00,0.0017
1757.00,0.0018
1756.00,0.0018
1755.00,0.0018
1754.00,0.0018
1753.00,0.0019
1752.00,0.0020
1751.00,0.0020
1750.00,0.0020
1749.00,0.0021
1748.00,0.0021
1747.00,0.0021
1746.00,0.0022
1745.00,0.0022
1744.00,0.0022
1743.00,0.0023
1742.00,0.0023
1741.00,0.0024
1740.00,0.0024
1739.00,0.0024
1738.00,0.0024
1737.00,0.0023
1736.00,0.0023
1735.00,0.0024
1734.00,0.0025
1733.00,0.0026
1732.00,0.0026
1731.00,0.0026
1730.00,0.0026
1729.00,0.0026
1728.00,0.0026
1727.00,0.0026
1726.00,0.0025
1725.00,0.0025
1724.00,0.0025
1723.00,0.0025
1722.00,0.0025
1721.00,0.0026
1720.00,0.0026
1719.00,0.0027
1718.00,0.0027
1717.00,0.0027
1716.00,0.0027
1715.00,0.0027
1714.00,0.0026
1713.00,0.0026
1712.00,0.0026
1711.00,0.0026
1710.00,0.0027
1709.00,0.0027
1708.00,0.0028
1707.00,0.0028
1706.00,0.0029
1705.00,0.0030
1704.00,0.0031
1703.00,0.0032
1702.00,0.0032
1701.00,0.0032
1700.00,0.0032
1699.00,0.0032
1698.00,0.0032
1697.00,0.0033
1696.00,0.0033
1695.00,0.0034
1694.00,0.0035
1693.00,0.0036
1692.00,0.0037
1691.00,0.0038
1690.00,0.0039
1689.00,0.0039
1688.00,0.0040
1687.00,0.0040
1686.00,0.0040
1685.00,0.0041
1684.00,0.0042
1683.00,0.0044
1682.00,0.0045
1681.00,0.0046
1680.00,0.0047
1679.00,0.0047
1678.00,0.0048
1677.00,0.0049
1676.00,0.0051
1675.00,0.0052
1674.00,0.0053
1673.00,0.0054
1672.00,0.0054
1671.00,0.0055
1670.00,0.0056
1669.00,0.0056
1668.00,0.0057
1667.00,0.0058
1666.00,0.0058
1665.00,0.0059
1664.00,0.0061
1663.00,0.0062
1662.00,0.0064
1661.00,0.0065
1660.00,0.0066
1659.00,0.0067
1658.00,0.0067
1657.00,0.0069
1656.00,0.0070
1655.00,0.0071
1654.00,0.0073
1653.00,0.0078
1652.00,0.0082
1651.00,0.0085
1650.00,0.0088
1649.00,0.0092
1648.00,0.0097
1647.00,0.0102
1646.00,0.0104
1645.00,0.0103
1644.00,0.0101
1643.00,0.0098
1642.00,0.0095
1641.00,0.0093
1640.00,0.0091
1639.00,0.0089
1638.00,0.0087
1637.00,0.0086
1636.00,0.0086
1635.00,0.0086
1634.00,0.0085
1633.00,0.0085
1632.00,0.0085
1631.00,0.0085
1630.00,0.0085
1629.00,0.0085
1628.00,0.0085
1627.00,0.0084
1626.00,0.0083
1625.00,0.0082
1624.00,0.0081
1623.00,0.0079
1622.00,0.0078
1621.00,0.0077
1620.00,0.0076
1619.00,0.0076
1618.00,0.0075
1617.00,0.0074
1616.00,0.0074
1615.00,0.0074
1614.00,0.0074
1613.00,0.0075
1612.00,0.0075
1611.00,0.0074
1610.00,0.0074
1609.00,0.0073
1608.00,0.0073
1607.00,0.0073
1606.00,0.0073
1605.00,0.0073
1604.00,0.0073
1603.00,0.0073
1602.00,0.0073
1601.00,0.0073
1600.00,0.0073
1599.00,0.0073
1598.00,0.0072
1597.00,0.0072
1596.00,0.0072
1595.00,0.0072
1594.00,0.0071
1593.00,0.0071
1592.00,0.0072
1591.00,0.0072
1590.00,0.0071
1589.00,0.0071
1588.00,0.0072
1587.00,0.0072
1586.00,0.0073
1585.00,0.0074
1584.00,0.0075
1583.00,0.0076
1582.00,0.0077
1581.00,0.0077
1580.00,0.0078
1579.00,0.0079
1578.00,0.0079
1577.00,0.0080
1576.00,0.0080
1575.00,0.0079
1574.00,0.0078
1573.00,0.0077
1572.00,0.0076
1571.00,0.0075
1570.00,0.0075
1569.00,0.0075
1568.00,0.0075
1567.00,0.0074
1566.00,0.0074
1565.00,0.0074
1564.00,0.0074
1563.00,0.0074
1562.00,0.0074
1561.00,0.0075
1560.00,0.0076
1559.00,0.0076
1558.00,0.0076
1557.00,0.0077
1556.00,0.0077
1555.00,0.0078
1554.00,0.0078
1553.00,0.0079
1552.00,0.0080
1551.00,0.0082
1550.00,0.0083
1549.00,0.0084
1548.00,0.0085
1547.00,0.0087
1546.00,0.0088
1545.00,0.0091
1544.00,0.0093
1543.00,0.0095
1542.00,0.0096
1541.00,0.0096
1540.00,0.0095
1539.00,0.0093
1538.00,0.0091
1537.00,0.0090
1536.00,0.0089
1535.00,0.0087
1534.00,0.0085
1533.00,0.0083
1532.00,0.0081
1531.00,0.0079
1530.00,0.0078
1529.00,0.0077
1528.00,0.0076
1527.00,0.0075
1526.00,0.0074
1525.00,0.0074
1524.00,0.0074
1523.00,0.0074
1522.00,0.0073
1521.00,0.0073
1520.00,0.0074
1519.00,0.0074
1518.00,0.0074
1517.00,0.0074
1516.00,0.0074
1515.00,0.0073
1514.00,0.0073
1513.00,0.0074
1512.00,0.0075
1511.00,0.0076
1510.00,0.0076
1509.00,0.0078
1508.00,0.0080
1507.00,0.0081
1506.00,0.0082
1505.00,0.0082
1504.00,0.0083
1503.00,0.0084
1502.00,0.0085
1501.00,0.0088
1500.00,0.0091
1499.00,0.0094
1498.00,0.0097
1497.00,0.0100
1496.00,0.0105
1495.00,0.0108
1494.00,0.0110
1493.00,0.0114
1492.00,0.0118
1491.00,0.0121
1490.00,0.0124
1489.00,0.0129
1488.00,0.0133
1487.00,0.0138
1486.00,0.0142
1485.00,0.0148
1484.00,0.0155
1483.00,0.0162
1482.00,0.0170
1481.00,0.0180
1480.00,0.0192
1479.00,0.0203
1478.00,0.0217
1477.00,0.0235
1476.00,0.0257
1475.00,0.0282
1474.00,0.0316
1473.00,0.0368
1472.00,0.0433
1471.00,0.0497
1470.00,0.0557
1469.00,0.0619
1468.00,0.0684
1467.00,0.0756
1466.00,0.0839
1465.00,0.0930
1464.00,0.1012
1463.00,0.1072
1462.00,0.1114
1461.00,0.1145
1460.00,0.1170
1459.00,0.1190
1458.00,0.1210
1457.00,0.1230
1456.00,0.1243
1455.00,0.1246
1454.00,0.1245
1453.00,0.1237
1452.00,0.1219
1451.00,0.1187
1450.00,0.1138
1449.00,0.1065
1448.00,0.0970
1447.00,0.0868
1446.00,0.0776
1445.00,0.0697
1444.00,0.0629
1443.00,0.0574
1442.00,0.0533
1441.00,0.0505
1440.00,0.0488
1439.00,0.0480
1438.00,0.0478
1437.00,0.0477
1436.00,0.0464
1435.00,0.0437
1434.00,0.0400
1433.00,0.0356
1432.00,0.0310
1431.00,0.0271
1430.00,0.0240
1429.00,0.0219
1428.00,0.0204
1427.00,0.0196
1426.00,0.0191
1425.00,0.0186
1424.00,0.0181
1423.00,0.0178
1422.00,0.0177
1421.00,0.0175
1420.00,0.0172
1419.00,0.0169
1418.00,0.0167
1417.00,0.0164
1416.00,0.0161
1415.00,0.0159
1414.00,0.0158
1413.00,0.0155
1412.00,0.0152
1411.00,0.0150
1410.00,0.0149
1409.00,0.0147
1408.00,0.0146
1407.00,0.0145
1406.00,0.0145
1405.00,0.0144
1404.00,0.0143
1403.00,0.0143
1402.00,0.0144
1401.00,0.0144
1400.00,0.0145
1399.00,0.0146
1398.00,0.0148
1397.00,0.0149
1396.00,0.0151
1395.00,0.0155
1394.00,0.0160
1393.00,0.0165
1392.00,0.0171
1391.00,0.0179
1390.00,0.0191
1389.00,0.0207
1388.00,0.0232
1387.00,0.0271
1386.00,0.0322
1385.00,0.0386
1384.00,0.0469
1383.00,0.0580
1382.00,0.0724
1381.00,0.0906
1380.00,0.1126
1379.00,0.1372
1378.00,0.1605
1377.00,0.1772
1376.00,0.1826
1375.00,0.1738
1374.00,0.1530
1373.00,0.1277
1372.00,0.1042
1371.00,0.0847
1370.00,0.0688
1369.00,0.0566
1368.00,0.0480
1367.00,0.0427
1366.00,0.0397
1365.00,0.0385
1364.00,0.0387
1363.00,0.0401
1362.00,0.0421
1361.00,0.0443
1360.00,0.0459
1359.00,0.0464
1358.00,0.0453
1357.00,0.0428
1356.00,0.0391
1355.00,0.0350
1354.00,0.0310
1353.00,0.0275
1352.00,0.0247
1351.00,0.0224
1350.00,0.0206
1349.00,0.0192
1348.00,0.0181
1347.00,0.0173
1346.00,0.0166
1345.00,0.0161
1344.00,0.0156
1343.00,0.0152
1342.00,0.0149
1341.00,0.0146
1340.00,0.0142
1339.00,0.0140
1338.00,0.0137
1337.00,0.0136
1336.00,0.0136
1335.00,0.0138
1334.00,0.0141
1333.00,0.0145
1332.00,0.0150
1331.00,0.0153
1330.00,0.0155
1329.00,0.0154
1328.00,0.0151
1327.00,0.0145
1326.00,0.0139
1325.00,0.0133
1324.00,0.0127
1323.00,0.0122
1322.00,0.0118
1321.00,0.0115
1320.00,0.0112
1319.00,0.0109
1318.00,0.0107
1317.00,0.0105
1316.00,0.0104
1315.00,0.0103
1314.00,0.0102
1313.00,0.0103
1312.00,0.0104
1311.00,0.0108
1310.00,0.0113
1309.00,0.0122
1308.00,0.0133
1307.00,0.0148
1306.00,0.0161
1305.00,0.0171
1304.00,0.0174
1303.00,0.0170
1302.00,0.0163
1301.00,0.0156
1300.00,0.0151
1299.00,0.0149
1298.00,0.0147
1297.00,0.0147
1296.00,0.0145
1295.00,0.0142
1294.00,0.0138
1293.00,0.0132
1292.00,0.0126
1291.00,0.0121
1290.00,0.0116
1289.00,0.0112
1288.00,0.0108
1287.00,0.0106
1286.00,0.0103
1285.00,0.0101
1284.00,0.0099
1283.00,0.0097
1282.00,0.0095
1281.00,0.0094
1280.00,0.0093
1279.00,0.0093
1278.00,0.0093
1277.00,0.0092
1276.00,0.0092
1275.00,0.0092
1274.00,0.0092
1273.00,0.0092
1272.00,0.0092
1271.00,0.0093
1270.00,0.0093
1269.00,0.0094
1268.00,0.0095
1267.00,0.0096
1266.00,0.0098
1265.00,0.0100
1264.00,0.0102
1263.00,0.0106
1262.00,0.0111
1261.00,0.0116
1260.00,0.0124
1259.00,0.0133
1258.00,0.0142
1257.00,0.0151
1256.00,0.0155
1255.00,0.0153
1254.00,0.0147
1253.00,0.0138
1252.00,0.0128
1251.00,0.0120
1250.00,0.0114
1249.00,0.0110
1248.00,0.0108
1247.00,0.0106
1246.00,0.0105
1245.00,0.0103
1244.00,0.0102
1243.00,0.0102
1242.00,0.0101
1241.00,0.0100
1240.00,0.0099
1239.00,0.0098
1238.00,0.0097
1237.00,0.0096
1236.00,0.0095
1235.00,0.0095
1234.00,0.0095
1233.00,0.0094
1232.00,0.0094
1231.00,0.0093
1230.00,0.0094
1229.00,0.0094
1228.00,0.0095
1227.00,0.0095
1226.00,0.0097
1225.00,0.0098
1224.00,0.0101
1223.00,0.0105
1222.00,0.0108
1221.00,0.0112
1220.00,0.0114
1219.00,0.0115
1218.00,0.0115
1217.00,0.0113
1216.00,0.0110
1215.00,0.0107
1214.00,0.0104
1213.00,0.0100
1212.00,0.0097
1211.00,0.0095
1210.00,0.0093
1209.00,0.0091
1208.00,0.0090
1207.00,0.0089
1206.00,0.0088
1205.00,0.0088
1204.00,0.0087
1203.00,0.0086
1202.00,0.0085
1201.00,0.0085
1200.00,0.0084
1199.00,0.0084
1198.00,0.0085
1197.00,0.0085
1196.00,0.0085
1195.00,0.0085
1194.00,0.0085
1193.00,0.0085
1192.00,0.0085
1191.00,0.0086
1190.00,0.0087
1189.00,0.0087
1188.00,0.0088
1187.00,0.0089
1186.00,0.0090
1185.00,0.0090
1184.00,0.0091
1183.00,0.0092
1182.00,0.0094
1181.00,0.0097
1180.00,0.0102
1179.00,0.0108
1178.00,0.0117
1177.00,0.0128
1176.00,0.0142
1175.00,0.0160
1174.00,0.0185
1173.00,0.0215
1172.00,0.0251
1171.00,0.0291
1170.00,0.0330
1169.00,0.0362
1168.00,0.0382
1167.00,0.0389
1166.00,0.0382
1165.00,0.0365
1164.00,0.0343
1163.00,0.0319
1162.00,0.0297
1161.00,0.0279
1160.00,0.0264
1159.00,0.0253
1158.00,0.0244
1157.00,0.0238
1156.00,0.0232
1155.00,0.0228
1154.00,0.0224
1153.00,0.0220
1152.00,0.0216
1151.00,0.0210
1150.00,0.0202
1149.00,0.0192
1148.00,0.0182
1147.00,0.0172
1146.00,0.0164
1145.00,0.0156
1144.00,0.0149
1143.00,0.0143
1142.00,0.0137
1141.00,0.0131
1140.00,0.0126
1139.00,0.0122
1138.00,0.0119
1137.00,0.0116
1136.00,0.0113
1135.00,0.0110
1134.00,0.0109
1133.00,0.0107
1132.00,0.0107
1131.00,0.0106
1130.00,0.0107
1129.00,0.0107
1128.00,0.0109
1127.00,0.0111
1126.00,0.0113
1125.00,0.0115
1124.00,0.0116
1123.00,0.0116
1122.00,0.0117
1121.00,0.0118
1120.00,0.0120
1119.00,0.0122
1118.00,0.0124
1117.00,0.0126
1116.00,0.0128
1115.00,0.0129
1114.00,0.0130
1113.00,0.0131
1112.00,0.0132
1111.00,0.0134
1110.00,0.0137
1109.00,0.0139
1108.00,0.0143
1107.00,0.0149
1106.00,0.0156
1105.00,0.0163
1104.00,0.0168
1103.00,0.0171
1102.00,0.0171
1101.00,0.0168
1100.00,0.0163
1099.00,0.0157
1098.00,0.0151
1097.00,0.0145
1096.00,0.0139
1095.00,0.0135
1094.00,0.0131
1093.00,0.0128
1092.00,0.0126
1091.00,0.0124
1090.00,0.0122
1089.00,0.0119
1088.00,0.0117
1087.00,0.0115
1086.00,0.0115
1085.00,0.0115
1084.00,0.0115
1083.00,0.0114
1082.00,0.0114
1081.00,0.0114
1080.00,0.0114
1079.00,0.0113
1078.00,0.0111
1077.00,0.0110
1076.00,0.0110
1075.00,0.0109
1074.00,0.0108
1073.00,0.0107
1072.00,0.0106
1071.00,0.0106
1070.00,0.0106
1069.00,0.0107
1068.00,0.0107
1067.00,0.0108
1066.00,0.0109
1065.00,0.0110
1064.00,0.0110
1063.00,0.0110
1062.00,0.0110
1061.00,0.0110
1060.00,0.0112
1059.00,0.0113
1058.00,0.0114
1057.00,0.0114
1056.00,0.0115
1055.00,0.0115
1054.00,0.0116
1053.00,0.0117
1052.00,0.0118
1051.00,0.0120
1050.00,0.0123
1049.00,0.0126
1048.00,0.0130
1047.00,0.0134
1046.00,0.0137
1045.00,0.0138
1044.00,0.0137
1043.00,0.0135
1042.00,0.0132
1041.00,0.0129
1040.00,0.0127
1039.00,0.0126
1038.00,0.0126
1037.00,0.0126
1036.00,0.0126
1035.00,0.0125
1034.00,0.0124
1033.00,0.0123
1032.00,0.0122
1031.00,0.0121
1030.00,0.0121
1029.00,0.0121
1028.00,0.0121
1027.00,0.0121
1026.00,0.0121
1025.00,0.0121
1024.00,0.0121
1023.00,0.0121
1022.00,0.0121
1021.00,0.0122
1020.00,0.0123
1019.00,0.0124
1018.00,0.0126
1017.00,0.0128
1016.00,0.0130
1015.00,0.0132
1014.00,0.0135
1013.00,0.0139
1012.00,0.0143
1011.00,0.0147
1010.00,0.0151
1009.00,0.0156
1008.00,0.0161
1007.00,0.0170
1006.00,0.0181
1005.00,0.0196
1004.00,0.0216
1003.00,0.0242
1002.00,0.0277
1001.00,0.0319
1000.00,0.0365
999.00,0.0404
998.00,0.0426
997.00,0.0421
996.00,0.0391
995.00,0.0345
994.00,0.0295
993.00,0.0251
992.00,0.0216
991.00,0.0190
990.00,0.0172
989.00,0.0160
988.00,0.0152
987.00,0.0147
986.00,0.0146
985.00,0.0147
984.00,0.0152
983.00,0.0160
982.00,0.0172
981.00,0.0189
980.00,0.0212
979.00,0.0244
978.00,0.0284
977.00,0.0332
976.00,0.0387
975.00,0.0440
974.00,0.0483
973.00,0.0503
972.00,0.0492
971.00,0.0452
970.00,0.0394
969.00,0.0332
968.00,0.0276
967.00,0.0232
966.00,0.0200
965.00,0.0176
964.00,0.0159
963.00,0.0146
962.00,0.0136
961.00,0.0128
960.00,0.0121
959.00,0.0116
958.00,0.0112
957.00,0.0109
956.00,0.0107
955.00,0.0105
954.00,0.0102
953.00,0.0100
952.00,0.0098
951.00,0.0097
950.00,0.0096
949.00,0.0095
948.00,0.0095
947.00,0.0096
946.00,0.0097
945.00,0.0099
944.00,0.0101
943.00,0.0104
942.00,0.0107
941.00,0.0109
940.00,0.0108
939.00,0.0106
938.00,0.0102
937.00,0.0098
936.00,0.0093
935.00,0.0089
934.00,0.0085
933.00,0.0082
932.00,0.0080
931.00,0.0079
930.00,0.0078
929.00,0.0077
928.00,0.0076
927.00,0.0075
926.00,0.0075
925.00,0.0075
924.00,0.0075
923.00,0.0075
922.00,0.0076
921.00,0.0077
920.00,0.0078
919.00,0.0080
918.00,0.0081
917.00,0.0083
916.00,0.0084
915.00,0.0085
914.00,0.0085
913.00,0.0085
912.00,0.0086
911.00,0.0087
910.00,0.0088
909.00,0.0089
908.00,0.0091
907.00,0.0096
906.00,0.0103
905.00,0.0113
904.00,0.0127
903.00,0.0144
902.00,0.0164
901.00,0.0182
900.00,0.0193
899.00,0.0197
898.00,0.0190
897.00,0.0175
896.00,0.0157
895.00,0.0139
894.00,0.0125
893.00,0.0113
892.00,0.0105
891.00,0.0100
890.00,0.0095
889.00,0.0091
888.00,0.0088
887.00,0.0087
886.00,0.0087
885.00,0.0087
884.00,0.0087
883.00,0.0087
882.00,0.0087
881.00,0.0088
880.00,0.0090
879.00,0.0092
878.00,0.0094
877.00,0.0094
876.00,0.0095
875.00,0.0095
874.00,0.0096
873.00,0.0095
872.00,0.0094
871.00,0.0092
870.00,0.0090
869.00,0.0089
868.00,0.0089
867.00,0.0089
866.00,0.0090
865.00,0.0090
864.00,0.0089
863.00,0.0090
862.00,0.0091
861.00,0.0093
860.00,0.0096
859.00,0.0099
858.00,0.0101
857.00,0.0102
856.00,0.0102
855.00,0.0104
854.00,0.0106
853.00,0.0110
852.00,0.0113
851.00,0.0118
850.00,0.0125
849.00,0.0133
848.00,0.0146
847.00,0.0164
846.00,0.0193
845.00,0.0235
844.00,0.0290
843.00,0.0351
842.00,0.0398
841.00,0.0412
840.00,0.0386
839.00,0.0333
838.00,0.0275
837.00,0.0227
836.00,0.0195
835.00,0.0175
834.00,0.0163
833.00,0.0155
832.00,0.0148
831.00,0.0142
830.00,0.0137
829.00,0.0133
828.00,0.0130
827.00,0.0129
826.00,0.0130
825.00,0.0129
824.00,0.0128
823.00,0.0125
822.00,0.0123
821.00,0.0123
820.00,0.0125
819.00,0.0128
818.00,0.0131
817.00,0.0135
816.00,0.0142
815.00,0.0151
814.00,0.0164
813.00,0.0179
812.00,0.0195
811.00,0.0210
810.00,0.0222
809.00,0.0227
808.00,0.0224
807.00,0.0214
806.00,0.0200
805.00,0.0185
804.00,0.0171
803.00,0.0158
802.00,0.0148
801.00,0.0139
800.00,0.0132
799.00,0.0126
798.00,0.0121
797.00,0.0116
796.00,0.0111
795.00,0.0108
794.00,0.0105
793.00,0.0103
792.00,0.0102
791.00,0.0100
790.00,0.0098
789.00,0.0096
788.00,0.0094
787.00,0.0091
786.00,0.0089
785.00,0.0085
784.00,0.0083
783.00,0.0081
782.00,0.0081
781.00,0.0080
780.00,0.0080
779.00,0.0080
778.00,0.0080
777.00,0.0079
776.00,0.0079
775.00,0.0080
774.00,0.0083
773.00,0.0088
772.00,0.0092
771.00,0.0094
770.00,0.0096
769.00,0.0097
768.00,0.0097
767.00,0.0098
766.00,0.0098
765.00,0.0098
764.00,0.0096
763.00,0.0092
762.00,0.0088
761.00,0.0084
760.00,0.0081
759.00,0.0079
758.00,0.0078
757.00,0.0077
756.00,0.0076
755.00,0.0075
754.00,0.0073
753.00,0.0071
752.00,0.0070
751.00,0.0070
750.00,0.0071
749.00,0.0072
748.00,0.0072
747.00,0.0072
746.00,0.0071
745.00,0.0071
744.00,0.0071
743.00,0.0073
742.00,0.0076
741.00,0.0079
740.00,0.0080
739.00,0.0082
738.00,0.0082
737.00,0.0083
736.00,0.0083
735.00,0.0085
734.00,0.0088
733.00,0.0090
732.00,0.0091
731.00,0.0091
730.00,0.0090
729.00,0.0089
728.00,0.0090
727.00,0.0091
726.00,0.0092
725.00,0.0091
724.00,0.0090
723.00,0.0090
722.00,0.0091
721.00,0.0091
720.00,0.0092
719.00,0.0091
718.00,0.0090
717.00,0.0087
716.00,0.0084
715.00,0.0082
714.00,0.0081
713.00,0.0080
712.00,0.0080
711.00,0.0080
710.00,0.0080
709.00,0.0081
708.00,0.0082
707.00,0.0083
706.00,0.0084
705.00,0.0083
704.00,0.0083
703.00,0.0082
702.00,0.0081
701.00,0.0080
700.00,0.0080
699.00,0.0079
698.00,0.0079
697.00,0.0078
696.00,0.0077
695.00,0.0075
694.00,0.0073
693.00,0.0072
692.00,0.0073
691.00,0.0073
690.00,0.0074
689.00,0.0073
688.00,0.0073
687.00,0.0072
686.00,0.0070
685.00,0.0068
684.00,0.0068
683.00,0.0070
682.00,0.0073
681.00,0.0075
680.00,0.0077
679.00,0.0077
678.00,0.0078
677.00,0.0079
676.00,0.0080
675.00,0.0081
674.00,0.0081
673.00,0.0080
672.00,0.0078
671.00,0.0077
670.00,0.0078
669.00,0.0080
668.00,0.0084
667.00,0.0085
666.00,0.0084
665.00,0.0082
664.00,0.0081
663.00,0.0081
662.00,0.0080
661.00,0.0079
660.00,0.0077
659.00,0.0076
658.00,0.0077
657.00,0.0078
656.00,0.0079
655.00,0.0080
654.00,0.0080
653.00,0.0082
652.00,0.0083
651.00,0.0084
650.00,0.0084
649.00,0.0083
648.00,0.0081
647.00,0.0080
646.00,0.0080
645.00,0.0081
644.00,0.0082
643.00,0.0083
642.00,0.0083
641.00,0.0083
640.00,0.0083
639.00,0.0083
638.00,0.0085
637.00,0.0085
636.00,0.0084
635.00,0.0083
634.00,0.0085
633.00,0.0088
632.00,0.0092
631.00,0.0093
630.00,0.0092
629.00,0.0090
628.00,0.0087
627.00,0.0084
626.00,0.0081
625.00,0.0081
624.00,0.0081
623.00,0.0081
622.00,0.0082
621.00,0.0082
620.00,0.0082
619.00,0.0083
618.00,0.0084
617.00,0.0084
616.00,0.0084
615.00,0.0086
614.00,0.0088
613.00,0.0089
612.00,0.0087
611.00,0.0083
610.00,0.0082
609.00,0.0083
608.00,0.0085
607.00,0.0086
606.00,0.0085
605.00,0.0085
604.00,0.0084
603.00,0.0085
602.00,0.0086
601.00,0.0088
600.00,0.0089
599.00,0.0088
598.00,0.0085
597.00,0.0082
596.00,0.0080
595.00,0.0079
594.00,0.0079
593.00,0.0079
592.00,0.0079
591.00,0.0080
590.00,0.0081
589.00,0.0082
588.00,0.0085
587.00,0.0087
586.00,0.0089
585.00,0.0089
584.00,0.0087
583.00,0.0087
582.00,0.0088
581.00,0.0091
580.00,0.0094
579.00,0.0096
578.00,0.0095
577.00,0.0091
576.00,0.0087
575.00,0.0084
574.00,0.0084
573.00,0.0086
572.00,0.0087
571.00,0.0087
570.00,0.0087
569.00,0.0089
568.00,0.0092
567.00,0.0094
566.00,0.0095
565.00,0.0094
564.00,0.0092
563.00,0.0089
562.00,0.0088
561.00,0.0088
560.00,0.0089
559.00,0.0088
558.00,0.0086
557.00,0.0085
556.00,0.0086
555.00,0.0089
554.00,0.0091
553.00,0.0091
552.00,0.0093
551.00,0.0096
550.00,0.0099
549.00,0.0101
548.00,0.0099
547.00,0.0096
546.00,0.0093
545.00,0.0091
544.00,0.0090
543.00,0.0089
542.00,0.0088
541.00,0.0086
540.00,0.0084
539.00,0.0085
538.00,0.0089
537.00,0.0095
536.00,0.0102
535.00,0.0107
534.00,0.0111
533.00,0.0112
532.00,0.0110
531.00,0.0106
530.00,0.0103
529.00,0.0103
528.00,0.0106
527.00,0.0109
526.00,0.0109
525.00,0.0107
524.00,0.0106
523.00,0.0107
522.00,0.0109
521.00,0.0107
520.00,0.0101
519.00,0.0092
518.00,0.0085
517.00,0.0082
516.00,0.0084
515.00,0.0088
514.00,0.0092
513.00,0.0095
512.00,0.0096
511.00,0.0097
510.00,0.0096
509.00,0.0092
508.00,0.0087
507.00,0.0084
506.00,0.0084
505.00,0.0085
504.00,0.0083
503.00,0.0078
502.00,0.0075
501.00,0.0077
500.00,0.0085
499.00,0.0091
498.00,0.0090
497.00,0.0084
496.00,0.0076
495.00,0.0072
494.00,0.0071
493.00,0.0071
492.00,0.0070
491.00,0.0071
490.00,0.0073
489.00,0.0076
488.00,0.0077
487.00,0.0075
486.00,0.0075
485.00,0.0081
484.00,0.0091
483.00,0.0102
482.00,0.0105
481.00,0.0102
480.00,0.0098
479.00,0.0096
478.00,0.0095
477.00,0.0092
476.00,0.0088
475.00,0.0086
474.00,0.0088
473.00,0.0093
472.00,0.0096
471.00,0.0094
470.00,0.0088
469.00,0.0082
468.00,0.0082
467.00,0.0091
466.00,0.0105
465.00,0.0117
464.00,0.0127
463.00,0.0136
462.00,0.0148
461.00,0.0160
460.00,0.0168
459.00,0.0168
458.00,0.0160
457.00,0.0150
456.00,0.0147
455.00,0.0154
454.00,0.0163
453.00,0.0166
452.00,0.0162
451.00,0.0153
450.00,0.0140
