Created as New Dataset,Sample 111 By Administrator Date Wednesday, September 10 2025
cm-1,A
4000.00,0.0010
3999.00,0.0010
3998.00,0.0010
3997.00,0.0010
3996.00,0.0010
3995.00,0.0009
3994.00,0.0009
3993.00,0.0009
3992.00,0.0010
3991.00,0.0010
3990.00,0.0009
3989.00,0.0009
3988.00,0.0009
3987.00,0.0009
3986.00,0.0009
3985.00,0.0009
3984.00,0.0009
3983.00,0.0008
3982.00,0.0008
3981.00,0.0008
3980.00,0.0008
3979.00,0.0008
3978.00,0.0008
3977.00,0.0008
3976.00,0.0008
3975.00,0.0008
3974.00,0.0008
3973.00,0.0008
3972.00,0.0008
3971.00,0.0008
3970.00,0.0008
3969.00,0.0007
3968.00,0.0007
3967.00,0.0007
3966.00,0.0007
3965.00,0.0008
3964.00,0.0008
3963.00,0.0008
3962.00,0.0008
3961.00,0.0008
3960.00,0.0008
3959.00,0.0007
3958.00,0.0007
3957.00,0.0007
3956.00,0.0007
3955.00,0.0007
3954.00,0.0007
3953.00,0.0007
3952.00,0.0007
3951.00,0.0008
3950.00,0.0008
3949.00,0.0008
3948.00,0.0008
3947.00,0.0008
3946.00,0.0008
3945.00,0.0008
3944.00,0.0007
3943.00,0.0007
3942.00,0.0007
3941.00,0.0007
3940.00,0.0007
3939.00,0.0007
3938.00,0.0008
3937.00,0.0008
3936.00,0.0008
3935.00,0.0008
3934.00,0.0008
3933.00,0.0008
3932.00,0.0008
3931.00,0.0008
3930.00,0.0008
3929.00,0.0008
3928.00,0.0008
3927.00,0.0008
3926.00,0.0008
3925.00,0.0008
3924.00,0.0009
3923.00,0.0009
3922.00,0.0009
3921.00,0.0009
3920.00,0.0009
3919.00,0.0009
3918.00,0.0008
3917.00,0.0008
3916.00,0.0008
3915.00,0.0007
3914.00,0.0007
3913.00,0.0007
3912.00,0.0007
3911.00,0.0007
3910.00,0.0007
3909.00,0.0007
3908.00,0.0007
3907.00,0.0007
3906.00,0.0007
3905.00,0.0008
3904.00,0.0008
3903.00,0.0009
3902.00,0.0009
3901.00,0.0009
3900.00,0.0008
3899.00,0.0008
3898.00,0.0008
3897.00,0.0008
3896.00,0.0008
3895.00,0.0008
3894.00,0.0008
3893.00,0.0008
3892.00,0.0008
3891.00,0.0008
3890.00,0.0008
3889.00,0.0008
3888.00,0.0007
3887.00,0.0008
3886.00,0.0008
3885.00,0.0008
3884.00,0.0008
3883.00,0.0008
3882.00,0.0008
3881.00,0.0008
3880.00,0.0008
3879.00,0.0008
3878.00,0.0008
3877.00,0.0008
3876.00,0.0008
3875.00,0.0008
3874.00,0.0009
3873.00,0.0009
3872.00,0.0009
3871.00,0.0009
3870.00,0.0009
3869.00,0.0009
3868.00,0.0009
3867.00,0.0008
3866.00,0.0008
3865.00,0.0008
3864.00,0.0008
3863.00,0.0008
3862.00,0.0008
3861.00,0.0007
3860.00,0.0008
3859.00,0.0008
3858.00,0.0009
3857.00,0.0009
3856.00,0.0009
3855.00,0.0008
3854.00,0.0007
3853.00,0.0007
3852.00,0.0007
3851.00,0.0007
3850.00,0.0007
3849.00,0.0007
3848.00,0.0007
3847.00,0.0007
3846.00,0.0007
3845.00,0.0007
3844.00,0.0007
3843.00,0.0008
3842.00,0.0007
3841.00,0.0007
3840.00,0.0007
3839.00,0.0007
3838.00,0.0007
3837.00,0.0008
3836.00,0.0008
3835.00,0.0008
3834.00,0.0008
3833.00,0.0008
3832.00,0.0008
3831.00,0.0008
3830.00,0.0009
3829.00,0.0008
3828.00,0.0008
3827.00,0.0008
3826.00,0.0008
3825.00,0.0008
3824.00,0.0008
3823.00,0.0008
3822.00,0.0008
3821.00,0.0008
3820.00,0.0008
3819.00,0.0008
3818.00,0.0008
3817.00,0.0008
3816.00,0.0008
3815.00,0.0008
3814.00,0.0008
3813.00,0.0007
3812.00,0.0007
3811.00,0.0008
3810.00,0.0008
3809.00,0.0008
3808.00,0.0008
3807.00,0.0008
3806.00,0.0008
3805.00,0.0008
3804.00,0.0008
3803.00,0.0008
3802.00,0.0009
3801.00,0.0009
3800.00,0.0009
3799.00,0.0008
3798.00,0.0008
3797.00,0.0008
3796.00,0.0007
3795.00,0.0007
3794.00,0.0007
3793.00,0.0007
3792.00,0.0007
3791.00,0.0007
3790.00,0.0007
3789.00,0.0007
3788.00,0.0007
3787.00,0.0007
3786.00,0.0007
3785.00,0.0007
3784.00,0.0007
3783.00,0.0007
3782.00,0.0007
3781.00,0.0007
3780.00,0.0008
3779.00,0.0008
3778.00,0.0008
3777.00,0.0008
3776.00,0.0008
3775.00,0.0008
3774.00,0.0008
3773.00,0.0008
3772.00,0.0008
3771.00,0.0009
3770.00,0.0009
3769.00,0.0009
3768.00,0.0009
3767.00,0.0009
3766.00,0.0009
3765.00,0.0009
3764.00,0.0009
3763.00,0.0009
3762.00,0.0009
3761.00,0.0009
3760.00,0.0009
3759.00,0.0009
3758.00,0.0010
3757.00,0.0010
3756.00,0.0011
3755.00,0.0011
3754.00,0.0011
3753.00,0.0012
3752.00,0.0012
3751.00,0.0012
3750.00,0.0012
3749.00,0.0012
3748.00,0.0011
3747.00,0.0010
3746.00,0.0009
3745.00,0.0008
3744.00,0.0008
3743.00,0.0008
3742.00,0.0008
3741.00,0.0009
3740.00,0.0009
3739.00,0.0010
3738.00,0.0009
3737.00,0.0009
3736.00,0.0009
3735.00,0.0008
3734.00,0.0008
3733.00,0.0008
3732.00,0.0008
3731.00,0.0008
3730.00,0.0008
3729.00,0.0008
3728.00,0.0008
3727.00,0.0008
3726.00,0.0008
3725.00,0.0007
3724.00,0.0007
3723.00,0.0007
3722.00,0.0007
3721.00,0.0007
3720.00,0.0008
3719.00,0.0008
3718.00,0.0008
3717.00,0.0008
3716.00,0.0008
3715.00,0.0008
3714.00,0.0008
3713.00,0.0007
3712.00,0.0007
3711.00,0.0007
3710.00,0.0006
3709.00,0.0006
3708.00,0.0006
3707.00,0.0006
3706.00,0.0006
3705.00,0.0006
3704.00,0.0006
3703.00,0.0007
3702.00,0.0007
3701.00,0.0007
3700.00,0.0007
3699.00,0.0007
3698.00,0.0007
3697.00,0.0007
3696.00,0.0007
3695.00,0.0007
3694.00,0.0007
3693.00,0.0007
3692.00,0.0007
3691.00,0.0007
3690.00,0.0007
3689.00,0.0007
3688.00,0.0007
3687.00,0.0007
3686.00,0.0007
3685.00,0.0006
3684.00,0.0006
3683.00,0.0006
3682.00,0.0006
3681.00,0.0007
3680.00,0.0007
3679.00,0.0008
3678.00,0.0008
3677.00,0.0008
3676.00,0.0008
3675.00,0.0008
3674.00,0.0008
3673.00,0.0007
3672.00,0.0007
3671.00,0.0007
3670.00,0.0008
3669.00,0.0008
3668.00,0.0007
3667.00,0.0007
3666.00,0.0006
3665.00,0.0006
3664.00,0.0006
3663.00,0.0006
3662.00,0.0006
3661.00,0.0006
3660.00,0.0006
3659.00,0.0006
3658.00,0.0006
3657.00,0.0006
3656.00,0.0007
3655.00,0.0007
3654.00,0.0008
3653.00,0.0008
3652.00,0.0008
3651.00,0.0008
3650.00,0.0009
3649.00,0.0009
3648.00,0.0009
3647.00,0.0008
3646.00,0.0008
3645.00,0.0008
3644.00,0.0008
3643.00,0.0008
3642.00,0.0008
3641.00,0.0008
3640.00,0.0008
3639.00,0.0008
3638.00,0.0008
3637.00,0.0008
3636.00,0.0008
3635.00,0.0008
3634.00,0.0009
3633.00,0.0009
3632.00,0.0009
3631.00,0.0009
3630.00,0.0009
3629.00,0.0009
3628.00,0.0008
3627.00,0.0008
3626.00,0.0007
3625.00,0.0007
3624.00,0.0008
3623.00,0.0008
3622.00,0.0008
3621.00,0.0008
3620.00,0.0008
3619.00,0.0009
3618.00,0.0010
3617.00,0.0010
3616.00,0.0011
3615.00,0.0011
3614.00,0.0012
3613.00,0.0012
3612.00,0.0012
3611.00,0.0012
3610.00,0.0012
3609.00,0.0012
3608.00,0.0011
3607.00,0.0011
3606.00,0.0011
3605.00,0.0011
3604.00,0.0011
3603.00,0.0011
3602.00,0.0012
3601.00,0.0012
3600.00,0.0012
3599.00,0.0012
3598.00,0.0012
3597.00,0.0012
3596.00,0.0012
3595.00,0.0012
3594.00,0.0012
3593.00,0.0013
3592.00,0.0013
3591.00,0.0013
3590.00,0.0014
3589.00,0.0014
3588.00,0.0014
3587.00,0.0014
3586.00,0.0014
3585.00,0.0014
3584.00,0.0014
3583.00,0.0014
3582.00,0.0014
3581.00,0.0014
3580.00,0.0015
3579.00,0.0015
3578.00,0.0015
3577.00,0.0015
3576.00,0.0015
3575.00,0.0015
3574.00,0.0015
3573.00,0.0016
3572.00,0.0016
3571.00,0.0016
3570.00,0.0016
3569.00,0.0016
3568.00,0.0016
3567.00,0.0017
3566.00,0.0017
3565.00,0.0018
3564.00,0.0018
3563.00,0.0018
3562.00,0.0019
3561.00,0.0019
3560.00,0.0019
3559.00,0.0019
3558.00,0.0019
3557.00,0.0019
3556.00,0.0019
3555.00,0.0019
3554.00,0.0019
3553.00,0.0019
3552.00,0.0020
3551.00,0.0020
3550.00,0.0021
3549.00,0.0021
3548.00,0.0021
3547.00,0.0022
3546.00,0.0022
3545.00,0.0022
3544.00,0.0022
3543.00,0.0022
3542.00,0.0022
3541.00,0.0023
3540.00,0.0023
3539.00,0.0023
3538.00,0.0023
3537.00,0.0023
3536.00,0.0024
3535.00,0.0024
3534.00,0.0024
3533.00,0.0025
3532.00,0.0025
3531.00,0.0025
3530.00,0.0025
3529.00,0.0025
3528.00,0.0026
3527.00,0.0026
3526.00,0.0027
3525.00,0.0027
3524.00,0.0027
3523.00,0.0026
3522.00,0.0026
3521.00,0.0026
3520.00,0.0027
3519.00,0.0027
3518.00,0.0028
3517.00,0.0028
3516.00,0.0029
3515.00,0.0029
3514.00,0.0029
3513.00,0.0029
3512.00,0.0030
3511.00,0.0030
3510.00,0.0031
3509.00,0.0031
3508.00,0.0031
3507.00,0.0030
3506.00,0.0030
3505.00,0.0031
3504.00,0.0031
3503.00,0.0032
3502.00,0.0033
3501.00,0.0033
3500.00,0.0033
3499.00,0.0033
3498.00,0.0033
3497.00,0.0034
3496.00,0.0034
3495.00,0.0034
3494.00,0.0033
3493.00,0.0033
3492.00,0.0033
3491.00,0.0033
3490.00,0.0034
3489.00,0.0035
3488.00,0.0035
3487.00,0.0035
3486.00,0.0035
3485.00,0.0036
3484.00,0.0036
3483.00,0.0036
3482.00,0.0036
3481.00,0.0037
3480.00,0.0037
3479.00,0.0037
3478.00,0.0037
3477.00,0.0038
3476.00,0.0038
3475.00,0.0039
3474.00,0.0039
3473.00,0.0039
3472.00,0.0039
3471.00,0.0039
3470.00,0.0039
3469.00,0.0039
3468.00,0.0039
3467.00,0.0039
3466.00,0.0040
3465.00,0.0040
3464.00,0.0040
3463.00,0.0040
3462.00,0.0040
3461.00,0.0041
3460.00,0.0041
3459.00,0.0042
3458.00,0.0042
3457.00,0.0042
3456.00,0.0042
3455.00,0.0042
3454.00,0.0042
3453.00,0.0042
3452.00,0.0043
3451.00,0.0043
3450.00,0.0043
3449.00,0.0044
3448.00,0.0044
3447.00,0.0044
3446.00,0.0045
3445.00,0.0045
3444.00,0.0045
3443.00,0.0045
3442.00,0.0045
3441.00,0.0045
3440.00,0.0045
3439.00,0.0045
3438.00,0.0045
3437.00,0.0046
3436.00,0.0046
3435.00,0.0046
3434.00,0.0047
3433.00,0.0047
3432.00,0.0047
3431.00,0.0048
3430.00,0.0048
3429.00,0.0048
3428.00,0.0048
3427.00,0.0049
3426.00,0.0049
3425.00,0.0049
3424.00,0.0049
3423.00,0.0050
3422.00,0.0049
3421.00,0.0049
3420.00,0.0049
3419.00,0.0049
3418.00,0.0050
3417.00,0.0050
3416.00,0.0051
3415.00,0.0051
3414.00,0.0051
3413.00,0.0051
3412.00,0.0052
3411.00,0.0052
3410.00,0.0052
3409.00,0.0053
3408.00,0.0053
3407.00,0.0053
3406.00,0.0053
3405.00,0.0053
3404.00,0.0053
3403.00,0.0054
3402.00,0.0054
3401.00,0.0055
3400.00,0.0055
3399.00,0.0056
3398.00,0.0056
3397.00,0.0056
3396.00,0.0056
3395.00,0.0056
3394.00,0.0056
3393.00,0.0056
3392.00,0.0056
3391.00,0.0055
3390.00,0.0055
3389.00,0.0055
3388.00,0.0055
3387.00,0.0055
3386.00,0.0055
3385.00,0.0056
3384.00,0.0056
3383.00,0.0056
3382.00,0.0056
3381.00,0.0056
3380.00,0.0056
3379.00,0.0055
3378.00,0.0055
3377.00,0.0055
3376.00,0.0055
3375.00,0.0055
3374.00,0.0055
3373.00,0.0056
3372.00,0.0056
3371.00,0.0056
3370.00,0.0056
3369.00,0.0056
3368.00,0.0056
3367.00,0.0056
3366.00,0.0056
3365.00,0.0056
3364.00,0.0056
3363.00,0.0056
3362.00,0.0056
3361.00,0.0057
3360.00,0.0057
3359.00,0.0057
3358.00,0.0057
3357.00,0.0057
3356.00,0.0057
3355.00,0.0057
3354.00,0.0057
3353.00,0.0057
3352.00,0.0057
3351.00,0.0057
3350.00,0.0057
3349.00,0.0057
3348.00,0.0057
3347.00,0.0057
3346.00,0.0057
3345.00,0.0057
3344.00,0.0057
3343.00,0.0057
3342.00,0.0057
3341.00,0.0057
3340.00,0.0057
3339.00,0.0057
3338.00,0.0057
3337.00,0.0057
3336.00,0.0057
3335.00,0.0057
3334.00,0.0057
3333.00,0.0057
3332.00,0.0057
3331.00,0.0056
3330.00,0.0056
3329.00,0.0055
3328.00,0.0055
3327.00,0.0055
3326.00,0.0055
3325.00,0.0056
3324.00,0.0056
3323.00,0.0056
3322.00,0.0056
3321.00,0.0056
3320.00,0.0056
3319.00,0.0056
3318.00,0.0056
3317.00,0.0056
3316.00,0.0056
3315.00,0.0056
3314.00,0.0056
3313.00,0.0055
3312.00,0.0055
3311.00,0.0055
3310.00,0.0055
3309.00,0.0055
3308.00,0.0055
3307.00,0.0055
3306.00,0.0055
3305.00,0.0055
3304.00,0.0055
3303.00,0.0055
3302.00,0.0056
3301.00,0.0056
3300.00,0.0056
3299.00,0.0055
3298.00,0.0055
3297.00,0.0055
3296.00,0.0055
3295.00,0.0055
3294.00,0.0055
3293.00,0.0055
3292.00,0.0055
3291.00,0.0054
3290.00,0.0054
3289.00,0.0054
3288.00,0.0055
3287.00,0.0054
3286.00,0.0054
3285.00,0.0054
3284.00,0.0053
3283.00,0.0053
3282.00,0.0053
3281.00,0.0053
3280.00,0.0053
3279.00,0.0053
3278.00,0.0053
3277.00,0.0052
3276.00,0.0052
3275.00,0.0051
3274.00,0.0051
3273.00,0.0051
3272.00,0.0051
3271.00,0.0051
3270.00,0.0051
3269.00,0.0051
3268.00,0.0051
3267.00,0.0051
3266.00,0.0051
3265.00,0.0051
3264.00,0.0051
3263.00,0.0051
3262.00,0.0051
3261.00,0.0050
3260.00,0.0050
3259.00,0.0050
3258.00,0.0050
3257.00,0.0050
3256.00,0.0050
3255.00,0.0050
3254.00,0.0050
3253.00,0.0050
3252.00,0.0050
3251.00,0.0049
3250.00,0.0049
3249.00,0.0048
3248.00,0.0048
3247.00,0.0047
3246.00,0.0047
3245.00,0.0047
3244.00,0.0047
3243.00,0.0047
3242.00,0.0047
3241.00,0.0047
3240.00,0.0047
3239.00,0.0047
3238.00,0.0048
3237.00,0.0048
3236.00,0.0048
3235.00,0.0048
3234.00,0.0048
3233.00,0.0048
3232.00,0.0048
3231.00,0.0048
3230.00,0.0048
3229.00,0.0048
3228.00,0.0048
3227.00,0.0049
3226.00,0.0049
3225.00,0.0049
3224.00,0.0050
3223.00,0.0050
3222.00,0.0050
3221.00,0.0050
3220.00,0.0050
3219.00,0.0050
3218.00,0.0050
3217.00,0.0050
3216.00,0.0050
3215.00,0.0050
3214.00,0.0050
3213.00,0.0051
3212.00,0.0051
3211.00,0.0051
3210.00,0.0051
3209.00,0.0051
3208.00,0.0051
3207.00,0.0051
3206.00,0.0052
3205.00,0.0052
3204.00,0.0052
3203.00,0.0052
3202.00,0.0053
3201.00,0.0053
3200.00,0.0053
3199.00,0.0053
3198.00,0.0053
3197.00,0.0053
3196.00,0.0053
3195.00,0.0053
3194.00,0.0053
3193.00,0.0053
3192.00,0.0052
3191.00,0.0052
3190.00,0.0052
3189.00,0.0052
3188.00,0.0052
3187.00,0.0051
3186.00,0.0051
3185.00,0.0051
3184.00,0.0050
3183.00,0.0051
3182.00,0.0051
3181.00,0.0051
3180.00,0.0050
3179.00,0.0049
3178.00,0.0049
3177.00,0.0048
3176.00,0.0048
3175.00,0.0048
3174.00,0.0047
3173.00,0.0047
3172.00,0.0047
3171.00,0.0046
3170.00,0.0046
3169.00,0.0045
3168.00,0.0045
3167.00,0.0045
3166.00,0.0045
3165.00,0.0045
3164.00,0.0046
3163.00,0.0046
3162.00,0.0046
3161.00,0.0046
3160.00,0.0046
3159.00,0.0045
3158.00,0.0045
3157.00,0.0045
3156.00,0.0045
3155.00,0.0045
3154.00,0.0045
3153.00,0.0045
3152.00,0.0045
3151.00,0.0045
3150.00,0.0045
3149.00,0.0044
3148.00,0.0044
3147.00,0.0044
3146.00,0.0044
3145.00,0.0044
3144.00,0.0044
3143.00,0.0044
3142.00,0.0043
3141.00,0.0043
3140.00,0.0043
3139.00,0.0043
3138.00,0.0043
3137.00,0.0043
3136.00,0.0043
3135.00,0.0042
3134.00,0.0042
3133.00,0.0042
3132.00,0.0042
3131.00,0.0042
3130.00,0.0042
3129.00,0.0041
3128.00,0.0041
3127.00,0.0040
3126.00,0.0040
3125.00,0.0039
3124.00,0.0039
3123.00,0.0039
3122.00,0.0038
3121.00,0.0038
3120.00,0.0038
3119.00,0.0038
3118.00,0.0038
3117.00,0.0038
3116.00,0.0037
3115.00,0.0037
3114.00,0.0036
3113.00,0.0036
3112.00,0.0036
3111.00,0.0036
3110.00,0.0036
3109.00,0.0036
3108.00,0.0035
3107.00,0.0036
3106.00,0.0036
3105.00,0.0036
3104.00,0.0036
3103.00,0.0036
3102.00,0.0035
3101.00,0.0035
3100.00,0.0034
3099.00,0.0034
3098.00,0.0034
3097.00,0.0035
3096.00,0.0035
3095.00,0.0035
3094.00,0.0035
3093.00,0.0035
3092.00,0.0034
3091.00,0.0034
3090.00,0.0033
3089.00,0.0033
3088.00,0.0033
3087.00,0.0033
3086.00,0.0033
3085.00,0.0033
3084.00,0.0033
3083.00,0.0033
3082.00,0.0032
3081.00,0.0032
3080.00,0.0032
3079.00,0.0032
3078.00,0.0032
3077.00,0.0032
3076.00,0.0033
3075.00,0.0033
3074.00,0.0033
3073.00,0.0034
3072.00,0.0034
3071.00,0.0034
3070.00,0.0034
3069.00,0.0034
3068.00,0.0034
3067.00,0.0034
3066.00,0.0034
3065.00,0.0034
3064.00,0.0034
3063.00,0.0034
3062.00,0.0034
3061.00,0.0034
3060.00,0.0034
3059.00,0.0034
3058.00,0.0034
3057.00,0.0034
3056.00,0.0034
3055.00,0.0035
3054.00,0.0035
3053.00,0.0035
3052.00,0.0036
3051.00,0.0036
3050.00,0.0036
3049.00,0.0036
3048.00,0.0036
3047.00,0.0036
3046.00,0.0036
3045.00,0.0036
3044.00,0.0036
3043.00,0.0036
3042.00,0.0037
3041.00,0.0037
3040.00,0.0038
3039.00,0.0038
3038.00,0.0038
3037.00,0.0038
3036.00,0.0038
3035.00,0.0039
3034.00,0.0039
3033.00,0.0039
3032.00,0.0040
3031.00,0.0040
3030.00,0.0041
3029.00,0.0041
3028.00,0.0042
3027.00,0.0042
3026.00,0.0042
3025.00,0.0043
3024.00,0.0043
3023.00,0.0044
3022.00,0.0045
3021.00,0.0045
3020.00,0.0046
3019.00,0.0047
3018.00,0.0048
3017.00,0.0049
3016.00,0.0050
3015.00,0.0051
3014.00,0.0052
3013.00,0.0054
3012.00,0.0055
3011.00,0.0056
3010.00,0.0057
3009.00,0.0058
3008.00,0.0059
3007.00,0.0061
3006.00,0.0063
3005.00,0.0065
3004.00,0.0068
3003.00,0.0070
3002.00,0.0072
3001.00,0.0074
3000.00,0.0076
2999.00,0.0078
2998.00,0.0081
2997.00,0.0084
2996.00,0.0088
2995.00,0.0093
2994.00,0.0097
2993.00,0.0102
2992.00,0.0107
2991.00,0.0113
2990.00,0.0119
2989.00,0.0126
2988.00,0.0134
2987.00,0.0142
2986.00,0.0152
2985.00,0.0162
2984.00,0.0174
2983.00,0.0187
2982.00,0.0201
2981.00,0.0218
2980.00,0.0237
2979.00,0.0258
2978.00,0.0283
2977.00,0.0311
2976.00,0.0342
2975.00,0.0378
2974.00,0.0418
2973.00,0.0464
2972.00,0.0515
2971.00,0.0572
2970.00,0.0634
2969.00,0.0702
2968.00,0.0775
2967.00,0.0852
2966.00,0.0930
2965.00,0.1008
2964.00,0.1082
2963.00,0.1149
2962.00,0.1207
2961.00,0.1257
2960.00,0.1302
2959.00,0.1344
2958.00,0.1390
2957.00,0.1445
2956.00,0.1513
2955.00,0.1595
2954.00,0.1689
2953.00,0.1788
2952.00,0.1882
2951.00,0.1961
2950.00,0.2010
2949.00,0.2018
2948.00,0.1979
2947.00,0.1895
2946.00,0.1774
2945.00,0.1634
2944.00,0.1491
2943.00,0.1360
2942.00,0.1253
2941.00,0.1174
2940.00,0.1124
2939.00,0.1099
2938.00,0.1098
2937.00,0.1118
2936.00,0.1157
2935.00,0.1214
2934.00,0.1286
2933.00,0.1372
2932.00,0.1472
2931.00,0.1582
2930.00,0.1700
2929.00,0.1823
2928.00,0.1946
2927.00,0.2068
2926.00,0.2185
2925.00,0.2299
2924.00,0.2411
2923.00,0.2523
2922.00,0.2634
2921.00,0.2742
2920.00,0.2842
2919.00,0.2923
2918.00,0.2973
2917.00,0.2981
2916.00,0.2945
2915.00,0.2869
2914.00,0.2761
2913.00,0.2637
2912.00,0.2508
2911.00,0.2383
2910.00,0.2266
2909.00,0.2159
2908.00,0.2060
2907.00,0.1968
2906.00,0.1879
2905.00,0.1794
2904.00,0.1710
2903.00,0.1630
2902.00,0.1552
2901.00,0.1478
2900.00,0.1408
2899.00,0.1343
2898.00,0.1284
2897.00,0.1231
2896.00,0.1184
2895.00,0.1145
2894.00,0.1113
2893.00,0.1089
2892.00,0.1072
2891.00,0.1063
2890.00,0.1059
2889.00,0.1061
2888.00,0.1066
2887.00,0.1076
2886.00,0.1089
2885.00,0.1106
2884.00,0.1129
2883.00,0.1156
2882.00,0.1190
2881.00,0.1228
2880.00,0.1266
2879.00,0.1300
2878.00,0.1325
2877.00,0.1337
2876.00,0.1336
2875.00,0.1328
2874.00,0.1319
2873.00,0.1314
2872.00,0.1318
2871.00,0.1333
2870.00,0.1355
2869.00,0.1379
2868.00,0.1398
2867.00,0.1400
2866.00,0.1376
2865.00,0.1321
2864.00,0.1238
2863.00,0.1135
2862.00,0.1026
2861.00,0.0921
2860.00,0.0830
2859.00,0.0755
2858.00,0.0698
2857.00,0.0656
2856.00,0.0628
2855.00,0.0610
2854.00,0.0602
2853.00,0.0601
2852.00,0.0608
2851.00,0.0621
2850.00,0.0641
2849.00,0.0667
2848.00,0.0699
2847.00,0.0739
2846.00,0.0788
2845.00,0.0846
2844.00,0.0911
2843.00,0.0984
2842.00,0.1059
2841.00,0.1130
2840.00,0.1191
2839.00,0.1232
2838.00,0.1244
2837.00,0.1220
2836.00,0.1162
2835.00,0.1074
2834.00,0.0968
2833.00,0.0854
2832.00,0.0745
2831.00,0.0648
2830.00,0.0566
2829.00,0.0499
2828.00,0.0445
2827.00,0.0401
2826.00,0.0365
2825.00,0.0336
2824.00,0.0312
2823.00,0.0292
2822.00,0.0275
2821.00,0.0261
2820.00,0.0248
2819.00,0.0238
2818.00,0.0228
2817.00,0.0219
2816.00,0.0212
2815.00,0.0205
2814.00,0.0199
2813.00,0.0193
2812.00,0.0188
2811.00,0.0182
2810.00,0.0177
2809.00,0.0171
2808.00,0.0164
2807.00,0.0157
2806.00,0.0150
2805.00,0.0143
2804.00,0.0136
2803.00,0.0130
2802.00,0.0125
2801.00,0.0120
2800.00,0.0117
2799.00,0.0113
2798.00,0.0110
2797.00,0.0108
2796.00,0.0105
2795.00,0.0103
2794.00,0.0100
2793.00,0.0097
2792.00,0.0094
2791.00,0.0092
2790.00,0.0089
2789.00,0.0086
2788.00,0.0083
2787.00,0.0081
2786.00,0.0078
2785.00,0.0076
2784.00,0.0074
2783.00,0.0072
2782.00,0.0070
2781.00,0.0068
2780.00,0.0066
2779.00,0.0065
2778.00,0.0063
2777.00,0.0062
2776.00,0.0061
2775.00,0.0060
2774.00,0.0059
2773.00,0.0058
2772.00,0.0058
2771.00,0.0057
2770.00,0.0057
2769.00,0.0057
2768.00,0.0057
2767.00,0.0057
2766.00,0.0056
2765.00,0.0055
2764.00,0.0055
2763.00,0.0055
2762.00,0.0055
2761.00,0.0054
2760.00,0.0054
2759.00,0.0053
2758.00,0.0053
2757.00,0.0053
2756.00,0.0053
2755.00,0.0053
2754.00,0.0053
2753.00,0.0053
2752.00,0.0053
2751.00,0.0052
2750.00,0.0052
2749.00,0.0052
2748.00,0.0052
2747.00,0.0052
2746.00,0.0053
2745.00,0.0054
2744.00,0.0055
2743.00,0.0056
2742.00,0.0057
2741.00,0.0058
2740.00,0.0059
2739.00,0.0061
2738.00,0.0063
2737.00,0.0064
2736.00,0.0066
2735.00,0.0067
2734.00,0.0069
2733.00,0.0071
2732.00,0.0073
2731.00,0.0075
2730.00,0.0078
2729.00,0.0080
2728.00,0.0083
2727.00,0.0086
2726.00,0.0089
2725.00,0.0092
2724.00,0.0094
2723.00,0.0094
2722.00,0.0093
2721.00,0.0090
2720.00,0.0087
2719.00,0.0084
2718.00,0.0080
2717.00,0.0077
2716.00,0.0073
2715.00,0.0071
2714.00,0.0068
2713.00,0.0065
2712.00,0.0063
2711.00,0.0061
2710.00,0.0059
2709.00,0.0057
2708.00,0.0055
2707.00,0.0054
2706.00,0.0052
2705.00,0.0051
2704.00,0.0050
2703.00,0.0048
2702.00,0.0048
2701.00,0.0047
2700.00,0.0046
2699.00,0.0046
2698.00,0.0045
2697.00,0.0045
2696.00,0.0045
2695.00,0.0045
2694.00,0.0045
2693.00,0.0045
2692.00,0.0044
2691.00,0.0044
2690.00,0.0044
2689.00,0.0044
2688.00,0.0044
2687.00,0.0044
2686.00,0.0044
2685.00,0.0044
2684.00,0.0045
2683.00,0.0045
2682.00,0.0045
2681.00,0.0045
2680.00,0.0046
2679.00,0.0046
2678.00,0.0046
2677.00,0.0046
2676.00,0.0046
2675.00,0.0045
2674.00,0.0045
2673.00,0.0044
2672.00,0.0044
2671.00,0.0045
2670.00,0.0045
2669.00,0.0045
2668.00,0.0045
2667.00,0.0045
2666.00,0.0045
2665.00,0.0045
2664.00,0.0046
2663.00,0.0047
2662.00,0.0048
2661.00,0.0048
2660.00,0.0048
2659.00,0.0048
2658.00,0.0048
2657.00,0.0047
2656.00,0.0047
2655.00,0.0047
2654.00,0.0046
2653.00,0.0045
2652.00,0.0045
2651.00,0.0044
2650.00,0.0043
2649.00,0.0043
2648.00,0.0043
2647.00,0.0043
2646.00,0.0043
2645.00,0.0042
2644.00,0.0042
2643.00,0.0041
2642.00,0.0040
2641.00,0.0039
2640.00,0.0038
2639.00,0.0038
2638.00,0.0037
2637.00,0.0037
2636.00,0.0038
2635.00,0.0038
2634.00,0.0038
2633.00,0.0038
2632.00,0.0038
2631.00,0.0038
2630.00,0.0038
2629.00,0.0038
2628.00,0.0038
2627.00,0.0039
2626.00,0.0039
2625.00,0.0039
2624.00,0.0039
2623.00,0.0040
2622.00,0.0041
2621.00,0.0041
2620.00,0.0042
2619.00,0.0041
2618.00,0.0041
2617.00,0.0041
2616.00,0.0041
2615.00,0.0041
2614.00,0.0040
2613.00,0.0040
2612.00,0.0039
2611.00,0.0039
2610.00,0.0038
2609.00,0.0038
2608.00,0.0037
2607.00,0.0036
2606.00,0.0035
2605.00,0.0034
2604.00,0.0034
2603.00,0.0034
2602.00,0.0033
2601.00,0.0033
2600.00,0.0033
2599.00,0.0033
2598.00,0.0033
2597.00,0.0034
2596.00,0.0034
2595.00,0.0033
2594.00,0.0033
2593.00,0.0033
2592.00,0.0034
2591.00,0.0035
2590.00,0.0037
2589.00,0.0038
2588.00,0.0038
2587.00,0.0039
2586.00,0.0040
2585.00,0.0040
2584.00,0.0041
2583.00,0.0042
2582.00,0.0042
2581.00,0.0042
2580.00,0.0042
2579.00,0.0041
2578.00,0.0040
2577.00,0.0039
2576.00,0.0037
2575.00,0.0036
2574.00,0.0034
2573.00,0.0032
2572.00,0.0031
2571.00,0.0030
2570.00,0.0029
2569.00,0.0028
2568.00,0.0028
2567.00,0.0028
2566.00,0.0027
2565.00,0.0026
2564.00,0.0025
2563.00,0.0025
2562.00,0.0025
2561.00,0.0025
2560.00,0.0025
2559.00,0.0025
2558.00,0.0026
2557.00,0.0026
2556.00,0.0025
2555.00,0.0024
2554.00,0.0023
2553.00,0.0022
2552.00,0.0022
2551.00,0.0021
2550.00,0.0021
2549.00,0.0021
2548.00,0.0020
2547.00,0.0020
2546.00,0.0020
2545.00,0.0019
2544.00,0.0018
2543.00,0.0018
2542.00,0.0018
2541.00,0.0018
2540.00,0.0018
2539.00,0.0018
2538.00,0.0017
2537.00,0.0017
2536.00,0.0016
2535.00,0.0016
2534.00,0.0016
2533.00,0.0017
2532.00,0.0017
2531.00,0.0017
2530.00,0.0016
2529.00,0.0016
2528.00,0.0015
2527.00,0.0015
2526.00,0.0015
2525.00,0.0015
2524.00,0.0014
2523.00,0.0014
2522.00,0.0014
2521.00,0.0014
2520.00,0.0014
2519.00,0.0014
2518.00,0.0013
2517.00,0.0012
2516.00,0.0012
2515.00,0.0011
2514.00,0.0011
2513.00,0.0011
2512.00,0.0011
2511.00,0.0010
2510.00,0.0011
2509.00,0.0011
2508.00,0.0011
2507.00,0.0012
2506.00,0.0012
2505.00,0.0012
2504.00,0.0012
2503.00,0.0011
2502.00,0.0011
2501.00,0.0011
2500.00,0.0011
2499.00,0.0011
2498.00,0.0011
2497.00,0.0011
2496.00,0.0011
2495.00,0.0011
2494.00,0.0011
2493.00,0.0012
2492.00,0.0012
2491.00,0.0012
2490.00,0.0012
2489.00,0.0012
2488.00,0.0012
2487.00,0.0012
2486.00,0.0012
2485.00,0.0012
2484.00,0.0012
2483.00,0.0012
2482.00,0.0012
2481.00,0.0012
2480.00,0.0012
2479.00,0.0013
2478.00,0.0013
2477.00,0.0012
2476.00,0.0011
2475.00,0.0011
2474.00,0.0011
2473.00,0.0011
2472.00,0.0011
2471.00,0.0011
2470.00,0.0011
2469.00,0.0010
2468.00,0.0010
2467.00,0.0009
2466.00,0.0009
2465.00,0.0010
2464.00,0.0010
2463.00,0.0011
2462.00,0.0011
2461.00,0.0011
2460.00,0.0011
2459.00,0.0012
2458.00,0.0012
2457.00,0.0012
2456.00,0.0012
2455.00,0.0012
2454.00,0.0012
2453.00,0.0012
2452.00,0.0011
2451.00,0.0011
2450.00,0.0011
2449.00,0.0011
2448.00,0.0011
2447.00,0.0012
2446.00,0.0012
2445.00,0.0011
2444.00,0.0011
2443.00,0.0011
2442.00,0.0011
2441.00,0.0010
2440.00,0.0010
2439.00,0.0010
2438.00,0.0011
2437.00,0.0011
2436.00,0.0011
2435.00,0.0012
2434.00,0.0012
2433.00,0.0012
2432.00,0.0011
2431.00,0.0011
2430.00,0.0012
2429.00,0.0012
2428.00,0.0013
2427.00,0.0014
2426.00,0.0014
2425.00,0.0014
2424.00,0.0013
2423.00,0.0013
2422.00,0.0012
2421.00,0.0011
2420.00,0.0011
2419.00,0.0011
2418.00,0.0012
2417.00,0.0011
2416.00,0.0011
2415.00,0.0010
2414.00,0.0010
2413.00,0.0010
2412.00,0.0010
2411.00,0.0011
2410.00,0.0011
2409.00,0.0010
2408.00,0.0010
2407.00,0.0009
2406.00,0.0009
2405.00,0.0009
2404.00,0.0009
2403.00,0.0009
2402.00,0.0009
2401.00,0.0009
2400.00,0.0009
2399.00,0.0009
2398.00,0.0009
2397.00,0.0009
2396.00,0.0009
2395.00,0.0009
2394.00,0.0008
2393.00,0.0008
2392.00,0.0007
2391.00,0.0007
2390.00,0.0007
2389.00,0.0007
2388.00,0.0007
2387.00,0.0007
2386.00,0.0007
2385.00,0.0007
2384.00,0.0006
2383.00,0.0005
2382.00,0.0005
2381.00,0.0004
2380.00,0.0004
2379.00,0.0004
2378.00,0.0004
2377.00,0.0004
2376.00,0.0004
2375.00,0.0004
2374.00,0.0004
2373.00,0.0004
2372.00,0.0004
2371.00,0.0004
2370.00,0.0004
2369.00,0.0003
2368.00,0.0002
2367.00,0.0001
2366.00,0.0001
2365.00,0.0001
2364.00,0.0001
2363.00,0.0001
2362.00,0.0002
2361.00,0.0003
2360.00,0.0003
2359.00,0.0003
2358.00,0.0003
2357.00,0.0003
2356.00,0.0003
2355.00,0.0003
2354.00,0.0003
2353.00,0.0002
2352.00,0.0001
2351.00,0.0001
2350.00,0.0002
2349.00,0.0003
2348.00,0.0005
2347.00,0.0006
2346.00,0.0005
2345.00,0.0004
2344.00,0.0004
2343.00,0.0004
2342.00,0.0005
2341.00,0.0006
2340.00,0.0006
2339.00,0.0005
2338.00,0.0005
2337.00,0.0004
2336.00,0.0004
2335.00,0.0004
2334.00,0.0004
2333.00,0.0004
2332.00,0.0004
2331.00,0.0004
2330.00,0.0004
2329.00,0.0005
2328.00,0.0006
2327.00,0.0010
2326.00,0.0014
2325.00,0.0017
2324.00,0.0018
2323.00,0.0017
2322.00,0.0015
2321.00,0.0013
2320.00,0.0011
2319.00,0.0010
2318.00,0.0010
2317.00,0.0010
2316.00,0.0010
2315.00,0.0010
2314.00,0.0010
2313.00,0.0010
2312.00,0.0009
2311.00,0.0008
2310.00,0.0008
2309.00,0.0008
2308.00,0.0008
2307.00,0.0008
2306.00,0.0009
2305.00,0.0009
2304.00,0.0009
2303.00,0.0009
2302.00,0.0010
2301.00,0.0010
2300.00,0.0011
2299.00,0.0011
2298.00,0.0011
2297.00,0.0012
2296.00,0.0012
2295.00,0.0012
2294.00,0.0013
2293.00,0.0013
2292.00,0.0014
2291.00,0.0015
2290.00,0.0016
2289.00,0.0018
2288.00,0.0018
2287.00,0.0019
2286.00,0.0018
2285.00,0.0017
2284.00,0.0017
2283.00,0.0017
2282.00,0.0017
2281.00,0.0017
2280.00,0.0016
2279.00,0.0016
2278.00,0.0016
2277.00,0.0016
2276.00,0.0016
2275.00,0.0015
2274.00,0.0014
2273.00,0.0014
2272.00,0.0014
2271.00,0.0014
2270.00,0.0015
2269.00,0.0016
2268.00,0.0016
2267.00,0.0015
2266.00,0.0013
2265.00,0.0011
2264.00,0.0010
2263.00,0.0010
2262.00,0.0011
2261.00,0.0012
2260.00,0.0013
2259.00,0.0014
2258.00,0.0014
2257.00,0.0013
2256.00,0.0012
2255.00,0.0010
2254.00,0.0008
2253.00,0.0008
2252.00,0.0008
2251.00,0.0009
2250.00,0.0010
2249.00,0.0009
2248.00,0.0008
2247.00,0.0008
2246.00,0.0009
2245.00,0.0009
2244.00,0.0010
2243.00,0.0011
2242.00,0.0010
2241.00,0.0009
2240.00,0.0008
2239.00,0.0008
2238.00,0.0009
2237.00,0.0010
2236.00,0.0010
2235.00,0.0009
2234.00,0.0008
2233.00,0.0008
2232.00,0.0008
2231.00,0.0008
2230.00,0.0009
2229.00,0.0010
2228.00,0.0010
2227.00,0.0008
2226.00,0.0007
2225.00,0.0006
2224.00,0.0007
2223.00,0.0008
2222.00,0.0008
2221.00,0.0008
2220.00,0.0009
2219.00,0.0010
2218.00,0.0010
2217.00,0.0011
2216.00,0.0010
2215.00,0.0009
2214.00,0.0008
2213.00,0.0008
2212.00,0.0008
2211.00,0.0008
2210.00,0.0008
2209.00,0.0008
2208.00,0.0009
2207.00,0.0009
2206.00,0.0009
2205.00,0.0009
2204.00,0.0007
2203.00,0.0005
2202.00,0.0004
2201.00,0.0004
2200.00,0.0005
2199.00,0.0006
2198.00,0.0006
2197.00,0.0006
2196.00,0.0006
2195.00,0.0007
2194.00,0.0009
2193.00,0.0011
2192.00,0.0013
2191.00,0.0015
2190.00,0.0015
2189.00,0.0016
2188.00,0.0016
2187.00,0.0016
2186.00,0.0014
2185.00,0.0012
2184.00,0.0008
2183.00,0.0006
2182.00,0.0005
2181.00,0.0006
2180.00,0.0008
2179.00,0.0009
2178.00,0.0009
2177.00,0.0007
2176.00,0.0006
2175.00,0.0005
2174.00,0.0005
2173.00,0.0007
2172.00,0.0008
2171.00,0.0009
2170.00,0.0010
2169.00,0.0013
2168.00,0.0017
2167.00,0.0020
2166.00,0.0021
2165.00,0.0020
2164.00,0.0018
2163.00,0.0018
2162.00,0.0016
2161.00,0.0011
2160.00,0.0000
2159.00,-0.0013
2158.00,-0.0023
2157.00,-0.0025
2156.00,-0.0022
2155.00,-0.0018
2154.00,-0.0015
2153.00,-0.0012
2152.00,-0.0009
2151.00,-0.0007
2150.00,-0.0007
2149.00,-0.0008
2148.00,-0.0010
2147.00,-0.0013
2146.00,-0.0014
2145.00,-0.0014
2144.00,-0.0012
2143.00,-0.0012
2142.00,-0.0012
2141.00,-0.0011
2140.00,-0.0012
2139.00,-0.0012
2138.00,-0.0012
2137.00,-0.0013
2136.00,-0.0015
2135.00,-0.0016
2134.00,-0.0018
2133.00,-0.0017
2132.00,-0.0016
2131.00,-0.0014
2130.00,-0.0012
2129.00,-0.0011
2128.00,-0.0010
2127.00,-0.0009
2126.00,-0.0007
2125.00,-0.0007
2124.00,-0.0007
2123.00,-0.0007
2122.00,-0.0006
2121.00,-0.0004
2120.00,-0.0003
2119.00,-0.0002
2118.00,-0.0001
2117.00,0.0000
2116.00,0.0002
2115.00,0.0003
2114.00,0.0005
2113.00,0.0006
2112.00,0.0006
2111.00,0.0005
2110.00,0.0004
2109.00,0.0004
2108.00,0.0004
2107.00,0.0004
2106.00,0.0003
2105.00,0.0003
2104.00,0.0003
2103.00,0.0003
2102.00,0.0003
2101.00,0.0004
2100.00,0.0004
2099.00,0.0004
2098.00,0.0004
2097.00,0.0003
2096.00,0.0002
2095.00,-0.0001
2094.00,-0.0003
2093.00,-0.0004
2092.00,-0.0004
2091.00,-0.0003
2090.00,-0.0002
2089.00,-0.0002
2088.00,-0.0001
2087.00,-0.0001
2086.00,-0.0000
2085.00,0.0001
2084.00,0.0002
2083.00,0.0003
2082.00,0.0003
2081.00,0.0004
2080.00,0.0004
2079.00,0.0004
2078.00,0.0004
2077.00,0.0005
2076.00,0.0006
2075.00,0.0006
2074.00,0.0005
2073.00,0.0004
2072.00,0.0003
2071.00,0.0001
2070.00,-0.0000
2069.00,-0.0000
2068.00,-0.0000
2067.00,-0.0000
2066.00,-0.0000
2065.00,0.0000
2064.00,0.0001
2063.00,0.0002
2062.00,0.0002
2061.00,0.0002
2060.00,0.0002
2059.00,0.0003
2058.00,0.0004
2057.00,0.0004
2056.00,0.0004
2055.00,0.0004
2054.00,0.0005
2053.00,0.0008
2052.00,0.0013
2051.00,0.0015
2050.00,0.0014
2049.00,0.0010
2048.00,0.0005
2047.00,0.0002
2046.00,0.0002
2045.00,0.0003
2044.00,0.0004
2043.00,0.0004
2042.00,0.0003
2041.00,0.0000
2040.00,-0.0002
2039.00,-0.0004
2038.00,-0.0005
2037.00,-0.0004
2036.00,-0.0004
2035.00,-0.0004
2034.00,-0.0005
2033.00,-0.0003
2032.00,-0.0000
2031.00,0.0001
2030.00,0.0000
2029.00,-0.0002
2028.00,-0.0004
2027.00,-0.0005
2026.00,-0.0004
2025.00,-0.0004
2024.00,-0.0004
2023.00,-0.0005
2022.00,-0.0005
2021.00,-0.0005
2020.00,-0.0005
2019.00,-0.0005
2018.00,-0.0005
2017.00,-0.0004
2016.00,-0.0006
2015.00,-0.0010
2014.00,-0.0015
2013.00,-0.0018
2012.00,-0.0018
2011.00,-0.0016
2010.00,-0.0013
2009.00,-0.0012
2008.00,-0.0012
2007.00,-0.0014
2006.00,-0.0016
2005.00,-0.0017
2004.00,-0.0018
2003.00,-0.0018
2002.00,-0.0018
2001.00,-0.0017
2000.00,-0.0016
1999.00,-0.0015
1998.00,-0.0013
1997.00,-0.0012
1996.00,-0.0010
1995.00,-0.0009
1994.00,-0.0009
1993.00,-0.0008
1992.00,-0.0007
1991.00,-0.0007
1990.00,-0.0006
1989.00,-0.0005
1988.00,-0.0003
1987.00,-0.0002
1986.00,-0.0000
1985.00,0.0002
1984.00,0.0004
1983.00,0.0006
1982.00,0.0010
1981.00,0.0012
1980.00,0.0011
1979.00,0.0006
1978.00,-0.0002
1977.00,-0.0008
1976.00,-0.0013
1975.00,-0.0016
1974.00,-0.0018
1973.00,-0.0017
1972.00,-0.0016
1971.00,-0.0015
1970.00,-0.0015
1969.00,-0.0014
1968.00,-0.0013
1967.00,-0.0011
1966.00,-0.0008
1965.00,-0.0005
1964.00,-0.0005
1963.00,-0.0007
1962.00,-0.0011
1961.00,-0.0014
1960.00,-0.0016
1959.00,-0.0017
1958.00,-0.0016
1957.00,-0.0016
1956.00,-0.0016
1955.00,-0.0016
1954.00,-0.0016
1953.00,-0.0015
1952.00,-0.0014
1951.00,-0.0013
1950.00,-0.0012
1949.00,-0.0012
1948.00,-0.0012
1947.00,-0.0012
1946.00,-0.0012
1945.00,-0.0012
1944.00,-0.0013
1943.00,-0.0013
1942.00,-0.0012
1941.00,-0.0010
1940.00,-0.0008
1939.00,-0.0007
1938.00,-0.0008
1937.00,-0.0009
1936.00,-0.0010
1935.00,-0.0011
1934.00,-0.0010
1933.00,-0.0008
1932.00,-0.0006
1931.00,-0.0005
1930.00,-0.0006
1929.00,-0.0007
1928.00,-0.0007
1927.00,-0.0007
1926.00,-0.0006
1925.00,-0.0005
1924.00,-0.0004
1923.00,-0.0005
1922.00,-0.0006
1921.00,-0.0006
1920.00,-0.0005
1919.00,-0.0004
1918.00,-0.0002
1917.00,0.0000
1916.00,0.0001
1915.00,0.0001
1914.00,0.0000
1913.00,-0.0000
1912.00,-0.0001
1911.00,-0.0003
1910.00,-0.0003
1909.00,-0.0003
1908.00,-0.0001
1907.00,0.0000
1906.00,0.0001
1905.00,0.0001
1904.00,0.0001
1903.00,0.0000
1902.00,-0.0000
1901.00,-0.0000
1900.00,-0.0000
1899.00,-0.0000
1898.00,-0.0000
1897.00,-0.0000
1896.00,-0.0000
1895.00,-0.0000
1894.00,-0.0000
1893.00,0.0000
1892.00,0.0001
1891.00,0.0001
1890.00,0.0000
1889.00,0.0000
1888.00,0.0000
1887.00,0.0000
1886.00,-0.0000
1885.00,-0.0000
1884.00,0.0000
1883.00,0.0000
1882.00,-0.0000
1881.00,-0.0001
1880.00,-0.0001
1879.00,-0.0001
1878.00,-0.0001
1877.00,-0.0000
1876.00,0.0001
1875.00,0.0001
1874.00,0.0001
1873.00,0.0001
1872.00,0.0001
1871.00,0.0000
1870.00,0.0000
1869.00,0.0000
1868.00,0.0000
1867.00,-0.0000
1866.00,-0.0001
1865.00,-0.0001
1864.00,-0.0001
1863.00,-0.0000
1862.00,-0.0000
1861.00,0.0000
1860.00,0.0001
1859.00,0.0001
1858.00,0.0001
1857.00,0.0001
1856.00,0.0001
1855.00,0.0001
1854.00,-0.0000
1853.00,-0.0000
1852.00,-0.0000
1851.00,0.0000
1850.00,0.0001
1849.00,0.0001
1848.00,0.0002
1847.00,0.0003
1846.00,0.0003
1845.00,0.0003
1844.00,0.0003
1843.00,0.0003
1842.00,0.0003
1841.00,0.0003
1840.00,0.0003
1839.00,0.0003
1838.00,0.0003
1837.00,0.0004
1836.00,0.0004
1835.00,0.0004
1834.00,0.0004
1833.00,0.0003
1832.00,0.0003
1831.00,0.0003
1830.00,0.0003
1829.00,0.0003
1828.00,0.0003
1827.00,0.0002
1826.00,0.0002
1825.00,0.0003
1824.00,0.0004
1823.00,0.0005
1822.00,0.0005
1821.00,0.0005
1820.00,0.0004
1819.00,0.0003
1818.00,0.0002
1817.00,0.0001
1816.00,0.0001
1815.00,0.0001
1814.00,0.0002
1813.00,0.0002
1812.00,0.0003
1811.00,0.0003
1810.00,0.0003
1809.00,0.0003
1808.00,0.0003
1807.00,0.0003
1806.00,0.0003
1805.00,0.0004
1804.00,0.0004
1803.00,0.0004
1802.00,0.0004
1801.00,0.0005
1800.00,0.0005
1799.00,0.0006
1798.00,0.0006
1797.00,0.0006
1796.00,0.0007
1795.00,0.0007
1794.00,0.0007
1793.00,0.0008
1792.00,0.0008
1791.00,0.0008
1790.00,0.0008
1789.00,0.0008
1788.00,0.0008
1787.00,0.0008
1786.00,0.0008
1785.00,0.0007
1784.00,0.0007
1783.00,0.0007
1782.00,0.0008
1781.00,0.0009
1780.00,0.0009
1779.00,0.0009
1778.00,0.0009
1777.00,0.0008
1776.00,0.0008
1775.00,0.0008
1774.00,0.0008
1773.00,0.0009
1772.00,0.0009
1771.00,0.0010
1770.00,0.0010
1769.00,0.0011
1768.00,0.0011
1767.00,0.0011
1766.00,0.0011
1765.00,0.0011
1764.00,0.0011
1763.00,0.0011
1762.00,0.0011
1761.00,0.0011
1760.00,0.0012
1759.00,0.0012
1758.00,0.0012
1757.00,0.0012
1756.00,0.0013
1755.00,0.0013
1754.00,0.0014
1753.00,0.0014
1752.00,0.0015
1751.00,0.0016
1750.00,0.0017
1749.00,0.0017
1748.00,0.0018
1747.00,0.0018
1746.00,0.0017
1745.00,0.0017
1744.00,0.0018
1743.00,0.0018
1742.00,0.0019
1741.00,0.0019
1740.00,0.0020
1739.00,0.0020
1738.00,0.0020
1737.00,0.0021
1736.00,0.0021
1735.00,0.0021
1734.00,0.0021
1733.00,0.0020
1732.00,0.0019
1731.00,0.0019
1730.00,0.0020
1729.00,0.0021
1728.00,0.0022
1727.00,0.0022
1726.00,0.0022
1725.00,0.0022
1724.00,0.0023
1723.00,0.0023
1722.00,0.0022
1721.00,0.0022
1720.00,0.0021
1719.00,0.0021
1718.00,0.0022
1717.00,0.0023
1716.00,0.0023
1715.00,0.0023
1714.00,0.0023
1713.00,0.0023
1712.00,0.0023
1711.00,0.0023
1710.00,0.0024
1709.00,0.0025
1708.00,0.0025
1707.00,0.0026
1706.00,0.0026
1705.00,0.0027
1704.00,0.0028
1703.00,0.0028
1702.00,0.0028
1701.00,0.0028
1700.00,0.0029
1699.00,0.0029
1698.00,0.0030
1697.00,0.0030
1696.00,0.0031
1695.00,0.0032
1694.00,0.0033
1693.00,0.0033
1692.00,0.0034
1691.00,0.0035
1690.00,0.0036
1689.00,0.0038
1688.00,0.0039
1687.00,0.0039
1686.00,0.0039
1685.00,0.0040
1684.00,0.0041
1683.00,0.0042
1682.00,0.0043
1681.00,0.0044
1680.00,0.0046
1679.00,0.0047
1678.00,0.0048
1677.00,0.0050
1676.00,0.0051
1675.00,0.0052
1674.00,0.0052
1673.00,0.0052
1672.00,0.0052
1671.00,0.0053
1670.00,0.0054
1669.00,0.0055
1668.00,0.0056
1667.00,0.0057
1666.00,0.0057
1665.00,0.0058
1664.00,0.0059
1663.00,0.0060
1662.00,0.0061
1661.00,0.0062
1660.00,0.0063
1659.00,0.0064
1658.00,0.0065
1657.00,0.0066
1656.00,0.0066
1655.00,0.0066
1654.00,0.0066
1653.00,0.0067
1652.00,0.0068
1651.00,0.0070
1650.00,0.0072
1649.00,0.0074
1648.00,0.0076
1647.00,0.0079
1646.00,0.0080
1645.00,0.0080
1644.00,0.0080
1643.00,0.0079
1642.00,0.0078
1641.00,0.0078
1640.00,0.0077
1639.00,0.0077
1638.00,0.0077
1637.00,0.0077
1636.00,0.0076
1635.00,0.0076
1634.00,0.0075
1633.00,0.0075
1632.00,0.0075
1631.00,0.0075
1630.00,0.0075
1629.00,0.0075
1628.00,0.0074
1627.00,0.0074
1626.00,0.0074
1625.00,0.0074
1624.00,0.0074
1623.00,0.0073
1622.00,0.0072
1621.00,0.0071
1620.00,0.0071
1619.00,0.0070
1618.00,0.0069
1617.00,0.0068
1616.00,0.0068
1615.00,0.0069
1614.00,0.0069
1613.00,0.0070
1612.00,0.0070
1611.00,0.0070
1610.00,0.0070
1609.00,0.0071
1608.00,0.0071
1607.00,0.0072
1606.00,0.0072
1605.00,0.0071
1604.00,0.0071
1603.00,0.0071
1602.00,0.0070
1601.00,0.0070
1600.00,0.0070
1599.00,0.0070
1598.00,0.0070
1597.00,0.0070
1596.00,0.0070
1595.00,0.0069
1594.00,0.0069
1593.00,0.0068
1592.00,0.0068
1591.00,0.0068
1590.00,0.0068
1589.00,0.0068
1588.00,0.0068
1587.00,0.0068
1586.00,0.0069
1585.00,0.0069
1584.00,0.0070
1583.00,0.0071
1582.00,0.0072
1581.00,0.0073
1580.00,0.0074
1579.00,0.0075
1578.00,0.0075
1577.00,0.0075
1576.00,0.0075
1575.00,0.0075
1574.00,0.0074
1573.00,0.0074
1572.00,0.0074
1571.00,0.0074
1570.00,0.0072
1569.00,0.0071
1568.00,0.0070
1567.00,0.0070
1566.00,0.0070
1565.00,0.0070
1564.00,0.0070
1563.00,0.0071
1562.00,0.0071
1561.00,0.0071
1560.00,0.0072
1559.00,0.0072
1558.00,0.0072
1557.00,0.0073
1556.00,0.0074
1555.00,0.0074
1554.00,0.0075
1553.00,0.0075
1552.00,0.0075
1551.00,0.0076
1550.00,0.0077
1549.00,0.0079
1548.00,0.0080
1547.00,0.0081
1546.00,0.0082
1545.00,0.0084
1544.00,0.0085
1543.00,0.0086
1542.00,0.0086
1541.00,0.0086
1540.00,0.0084
1539.00,0.0082
1538.00,0.0080
1537.00,0.0080
1536.00,0.0079
1535.00,0.0077
1534.00,0.0075
1533.00,0.0072
1532.00,0.0070
1531.00,0.0068
1530.00,0.0066
1529.00,0.0066
1528.00,0.0065
1527.00,0.0064
1526.00,0.0063
1525.00,0.0062
1524.00,0.0062
1523.00,0.0061
1522.00,0.0059
1521.00,0.0059
1520.00,0.0059
1519.00,0.0059
1518.00,0.0059
1517.00,0.0060
1516.00,0.0060
1515.00,0.0061
1514.00,0.0061
1513.00,0.0062
1512.00,0.0062
1511.00,0.0062
1510.00,0.0062
1509.00,0.0062
1508.00,0.0063
1507.00,0.0064
1506.00,0.0065
1505.00,0.0067
1504.00,0.0069
1503.00,0.0070
1502.00,0.0072
1501.00,0.0074
1500.00,0.0077
1499.00,0.0079
1498.00,0.0081
1497.00,0.0085
1496.00,0.0089
1495.00,0.0093
1494.00,0.0095
1493.00,0.0098
1492.00,0.0101
1491.00,0.0103
1490.00,0.0106
1489.00,0.0110
1488.00,0.0115
1487.00,0.0120
1486.00,0.0124
1485.00,0.0131
1484.00,0.0138
1483.00,0.0145
1482.00,0.0154
1481.00,0.0165
1480.00,0.0177
1479.00,0.0190
1478.00,0.0204
1477.00,0.0223
1476.00,0.0247
1475.00,0.0274
1474.00,0.0311
1473.00,0.0366
1472.00,0.0433
1471.00,0.0499
1470.00,0.0563
1469.00,0.0631
1468.00,0.0706
1467.00,0.0788
1466.00,0.0884
1465.00,0.0990
1464.00,0.1083
1463.00,0.1149
1462.00,0.1193
1461.00,0.1225
1460.00,0.1247
1459.00,0.1261
1458.00,0.1271
1457.00,0.1276
1456.00,0.1272
1455.00,0.1260
1454.00,0.1245
1453.00,0.1224
1452.00,0.1193
1451.00,0.1149
1450.00,0.1090
1449.00,0.1010
1448.00,0.0911
1447.00,0.0808
1446.00,0.0719
1445.00,0.0644
1444.00,0.0581
1443.00,0.0532
1442.00,0.0496
1441.00,0.0473
1440.00,0.0461
1439.00,0.0458
1438.00,0.0464
1437.00,0.0471
1436.00,0.0464
1435.00,0.0438
1434.00,0.0397
1433.00,0.0347
1432.00,0.0295
1431.00,0.0250
1430.00,0.0216
1429.00,0.0192
1428.00,0.0176
1427.00,0.0166
1426.00,0.0160
1425.00,0.0155
1424.00,0.0150
1423.00,0.0148
1422.00,0.0147
1421.00,0.0145
1420.00,0.0142
1419.00,0.0139
1418.00,0.0137
1417.00,0.0134
1416.00,0.0132
1415.00,0.0131
1414.00,0.0130
1413.00,0.0128
1412.00,0.0126
1411.00,0.0125
1410.00,0.0125
1409.00,0.0124
1408.00,0.0123
1407.00,0.0123
1406.00,0.0123
1405.00,0.0123
1404.00,0.0123
1403.00,0.0123
1402.00,0.0125
1401.00,0.0126
1400.00,0.0126
1399.00,0.0128
1398.00,0.0130
1397.00,0.0132
1396.00,0.0134
1395.00,0.0139
1394.00,0.0145
1393.00,0.0150
1392.00,0.0156
1391.00,0.0165
1390.00,0.0178
1389.00,0.0195
1388.00,0.0222
1387.00,0.0261
1386.00,0.0314
1385.00,0.0380
1384.00,0.0467
1383.00,0.0585
1382.00,0.0743
1381.00,0.0949
1380.00,0.1211
1379.00,0.1522
1378.00,0.1842
1377.00,0.2102
1376.00,0.2224
1375.00,0.2153
1374.00,0.1904
1373.00,0.1577
1372.00,0.1268
1371.00,0.1008
1370.00,0.0800
1369.00,0.0642
1368.00,0.0533
1367.00,0.0467
1366.00,0.0432
1365.00,0.0418
1364.00,0.0422
1363.00,0.0439
1362.00,0.0466
1361.00,0.0494
1360.00,0.0516
1359.00,0.0522
1358.00,0.0509
1357.00,0.0478
1356.00,0.0433
1355.00,0.0383
1354.00,0.0334
1353.00,0.0292
1352.00,0.0258
1351.00,0.0231
1350.00,0.0210
1349.00,0.0193
1348.00,0.0181
1347.00,0.0170
1346.00,0.0162
1345.00,0.0155
1344.00,0.0149
1343.00,0.0145
1342.00,0.0141
1341.00,0.0137
1340.00,0.0135
1339.00,0.0133
1338.00,0.0131
1337.00,0.0130
1336.00,0.0131
1335.00,0.0133
1334.00,0.0137
1333.00,0.0141
1332.00,0.0147
1331.00,0.0150
1330.00,0.0152
1329.00,0.0150
1328.00,0.0146
1327.00,0.0139
1326.00,0.0131
1325.00,0.0123
1324.00,0.0116
1323.00,0.0110
1322.00,0.0106
1321.00,0.0103
1320.00,0.0100
1319.00,0.0098
1318.00,0.0095
1317.00,0.0093
1316.00,0.0091
1315.00,0.0090
1314.00,0.0089
1313.00,0.0089
1312.00,0.0089
1311.00,0.0091
1310.00,0.0093
1309.00,0.0098
1308.00,0.0104
1307.00,0.0113
1306.00,0.0120
1305.00,0.0126
1304.00,0.0129
1303.00,0.0130
1302.00,0.0129
1301.00,0.0129
1300.00,0.0131
1299.00,0.0133
1298.00,0.0136
1297.00,0.0138
1296.00,0.0138
1295.00,0.0136
1294.00,0.0132
1293.00,0.0126
1292.00,0.0120
1291.00,0.0114
1290.00,0.0109
1289.00,0.0104
1288.00,0.0101
1287.00,0.0098
1286.00,0.0095
1285.00,0.0092
1284.00,0.0090
1283.00,0.0088
1282.00,0.0086
1281.00,0.0085
1280.00,0.0084
1279.00,0.0084
1278.00,0.0083
1277.00,0.0082
1276.00,0.0081
1275.00,0.0081
1274.00,0.0081
1273.00,0.0081
1272.00,0.0082
1271.00,0.0083
1270.00,0.0085
1269.00,0.0086
1268.00,0.0089
1267.00,0.0091
1266.00,0.0094
1265.00,0.0097
1264.00,0.0100
1263.00,0.0102
1262.00,0.0105
1261.00,0.0107
1260.00,0.0110
1259.00,0.0114
1258.00,0.0118
1257.00,0.0121
1256.00,0.0122
1255.00,0.0120
1254.00,0.0115
1253.00,0.0109
1252.00,0.0103
1251.00,0.0098
1250.00,0.0094
1249.00,0.0092
1248.00,0.0090
1247.00,0.0089
1246.00,0.0088
1245.00,0.0087
1244.00,0.0087
1243.00,0.0086
1242.00,0.0086
1241.00,0.0085
1240.00,0.0085
1239.00,0.0084
1238.00,0.0083
1237.00,0.0082
1236.00,0.0081
1235.00,0.0081
1234.00,0.0081
1233.00,0.0081
1232.00,0.0081
1231.00,0.0081
1230.00,0.0082
1229.00,0.0083
1228.00,0.0084
1227.00,0.0086
1226.00,0.0088
1225.00,0.0091
1224.00,0.0095
1223.00,0.0099
1222.00,0.0102
1221.00,0.0105
1220.00,0.0107
1219.00,0.0108
1218.00,0.0108
1217.00,0.0106
1216.00,0.0104
1215.00,0.0100
1214.00,0.0096
1213.00,0.0092
1212.00,0.0088
1211.00,0.0086
1210.00,0.0083
1209.00,0.0082
1208.00,0.0080
1207.00,0.0079
1206.00,0.0077
1205.00,0.0076
1204.00,0.0075
1203.00,0.0074
1202.00,0.0073
1201.00,0.0073
1200.00,0.0073
1199.00,0.0073
1198.00,0.0074
1197.00,0.0074
1196.00,0.0073
1195.00,0.0072
1194.00,0.0072
1193.00,0.0072
1192.00,0.0072
1191.00,0.0072
1190.00,0.0072
1189.00,0.0072
1188.00,0.0072
1187.00,0.0072
1186.00,0.0072
1185.00,0.0073
1184.00,0.0074
1183.00,0.0075
1182.00,0.0077
1181.00,0.0079
1180.00,0.0081
1179.00,0.0085
1178.00,0.0090
1177.00,0.0096
1176.00,0.0104
1175.00,0.0115
1174.00,0.0129
1173.00,0.0147
1172.00,0.0168
1171.00,0.0191
1170.00,0.0213
1169.00,0.0231
1168.00,0.0243
1167.00,0.0247
1166.00,0.0245
1165.00,0.0239
1164.00,0.0230
1163.00,0.0221
1162.00,0.0213
1161.00,0.0206
1160.00,0.0202
1159.00,0.0199
1158.00,0.0197
1157.00,0.0195
1156.00,0.0194
1155.00,0.0194
1154.00,0.0194
1153.00,0.0192
1152.00,0.0189
1151.00,0.0184
1150.00,0.0177
1149.00,0.0168
1148.00,0.0159
1147.00,0.0151
1146.00,0.0143
1145.00,0.0136
1144.00,0.0129
1143.00,0.0124
1142.00,0.0119
1141.00,0.0114
1140.00,0.0109
1139.00,0.0105
1138.00,0.0101
1137.00,0.0098
1136.00,0.0096
1135.00,0.0096
1134.00,0.0096
1133.00,0.0095
1132.00,0.0095
1131.00,0.0095
1130.00,0.0096
1129.00,0.0096
1128.00,0.0098
1127.00,0.0099
1126.00,0.0101
1125.00,0.0102
1124.00,0.0103
1123.00,0.0104
1122.00,0.0105
1121.00,0.0107
1120.00,0.0108
1119.00,0.0110
1118.00,0.0111
1117.00,0.0113
1116.00,0.0115
1115.00,0.0117
1114.00,0.0119
1113.00,0.0121
1112.00,0.0123
1111.00,0.0126
1110.00,0.0130
1109.00,0.0135
1108.00,0.0142
1107.00,0.0150
1106.00,0.0158
1105.00,0.0166
1104.00,0.0171
1103.00,0.0174
1102.00,0.0175
1101.00,0.0173
1100.00,0.0168
1099.00,0.0161
1098.00,0.0153
1097.00,0.0145
1096.00,0.0139
1095.00,0.0134
1094.00,0.0130
1093.00,0.0126
1092.00,0.0123
1091.00,0.0120
1090.00,0.0116
1089.00,0.0113
1088.00,0.0111
1087.00,0.0109
1086.00,0.0107
1085.00,0.0106
1084.00,0.0105
1083.00,0.0105
1082.00,0.0104
1081.00,0.0102
1080.00,0.0100
1079.00,0.0099
1078.00,0.0097
1077.00,0.0097
1076.00,0.0096
1075.00,0.0096
1074.00,0.0096
1073.00,0.0096
1072.00,0.0096
1071.00,0.0096
1070.00,0.0096
1069.00,0.0096
1068.00,0.0096
1067.00,0.0096
1066.00,0.0096
1065.00,0.0095
1064.00,0.0095
1063.00,0.0095
1062.00,0.0095
1061.00,0.0094
1060.00,0.0094
1059.00,0.0095
1058.00,0.0096
1057.00,0.0096
1056.00,0.0096
1055.00,0.0096
1054.00,0.0097
1053.00,0.0098
1052.00,0.0100
1051.00,0.0101
1050.00,0.0103
1049.00,0.0104
1048.00,0.0106
1047.00,0.0107
1046.00,0.0109
1045.00,0.0109
1044.00,0.0109
1043.00,0.0109
1042.00,0.0109
1041.00,0.0108
1040.00,0.0108
1039.00,0.0107
1038.00,0.0107
1037.00,0.0107
1036.00,0.0107
1035.00,0.0107
1034.00,0.0107
1033.00,0.0106
1032.00,0.0106
1031.00,0.0106
1030.00,0.0106
1029.00,0.0106
1028.00,0.0106
1027.00,0.0106
1026.00,0.0105
1025.00,0.0104
1024.00,0.0104
1023.00,0.0104
1022.00,0.0104
1021.00,0.0104
1020.00,0.0104
1019.00,0.0104
1018.00,0.0105
1017.00,0.0106
1016.00,0.0107
1015.00,0.0107
1014.00,0.0108
1013.00,0.0110
1012.00,0.0112
1011.00,0.0114
1010.00,0.0116
1009.00,0.0118
1008.00,0.0121
1007.00,0.0125
1006.00,0.0130
1005.00,0.0137
1004.00,0.0147
1003.00,0.0162
1002.00,0.0180
1001.00,0.0201
1000.00,0.0223
999.00,0.0240
998.00,0.0247
997.00,0.0241
996.00,0.0223
995.00,0.0199
994.00,0.0173
993.00,0.0151
992.00,0.0133
991.00,0.0119
990.00,0.0110
989.00,0.0104
988.00,0.0100
987.00,0.0099
986.00,0.0100
985.00,0.0102
984.00,0.0106
983.00,0.0113
982.00,0.0122
981.00,0.0134
980.00,0.0152
979.00,0.0176
978.00,0.0206
977.00,0.0240
976.00,0.0273
975.00,0.0301
974.00,0.0319
973.00,0.0322
972.00,0.0308
971.00,0.0281
970.00,0.0246
969.00,0.0211
968.00,0.0180
967.00,0.0156
966.00,0.0138
965.00,0.0125
964.00,0.0115
963.00,0.0107
962.00,0.0101
961.00,0.0096
960.00,0.0092
959.00,0.0089
958.00,0.0086
957.00,0.0084
956.00,0.0082
955.00,0.0081
954.00,0.0079
953.00,0.0079
952.00,0.0078
951.00,0.0078
950.00,0.0078
949.00,0.0079
948.00,0.0080
947.00,0.0083
946.00,0.0085
945.00,0.0088
944.00,0.0091
943.00,0.0095
942.00,0.0098
941.00,0.0100
940.00,0.0101
939.00,0.0098
938.00,0.0093
937.00,0.0087
936.00,0.0081
935.00,0.0076
934.00,0.0073
933.00,0.0070
932.00,0.0069
931.00,0.0068
930.00,0.0067
929.00,0.0066
928.00,0.0065
927.00,0.0064
926.00,0.0064
925.00,0.0064
924.00,0.0064
923.00,0.0065
922.00,0.0066
921.00,0.0068
920.00,0.0070
919.00,0.0072
918.00,0.0073
917.00,0.0074
916.00,0.0074
915.00,0.0074
914.00,0.0074
913.00,0.0075
912.00,0.0076
911.00,0.0077
910.00,0.0078
909.00,0.0079
908.00,0.0083
907.00,0.0089
906.00,0.0098
905.00,0.0110
904.00,0.0127
903.00,0.0148
902.00,0.0171
901.00,0.0193
900.00,0.0209
899.00,0.0214
898.00,0.0206
897.00,0.0188
896.00,0.0165
895.00,0.0142
894.00,0.0123
893.00,0.0109
892.00,0.0098
891.00,0.0090
890.00,0.0084
889.00,0.0080
888.00,0.0077
887.00,0.0075
886.00,0.0074
885.00,0.0074
884.00,0.0073
883.00,0.0071
882.00,0.0070
881.00,0.0069
880.00,0.0070
879.00,0.0071
878.00,0.0072
877.00,0.0073
876.00,0.0075
875.00,0.0076
874.00,0.0077
873.00,0.0078
872.00,0.0078
871.00,0.0077
870.00,0.0076
869.00,0.0076
868.00,0.0076
867.00,0.0077
866.00,0.0079
865.00,0.0080
864.00,0.0081
863.00,0.0082
862.00,0.0083
861.00,0.0083
860.00,0.0084
859.00,0.0085
858.00,0.0085
857.00,0.0085
856.00,0.0085
855.00,0.0087
854.00,0.0089
853.00,0.0091
852.00,0.0092
851.00,0.0095
850.00,0.0098
849.00,0.0103
848.00,0.0110
847.00,0.0120
846.00,0.0134
845.00,0.0153
844.00,0.0179
843.00,0.0206
842.00,0.0225
841.00,0.0228
840.00,0.0213
839.00,0.0188
838.00,0.0163
837.00,0.0143
836.00,0.0131
835.00,0.0123
834.00,0.0118
833.00,0.0115
832.00,0.0114
831.00,0.0113
830.00,0.0113
829.00,0.0112
828.00,0.0112
827.00,0.0112
826.00,0.0111
825.00,0.0111
824.00,0.0110
823.00,0.0111
822.00,0.0112
821.00,0.0114
820.00,0.0117
819.00,0.0120
818.00,0.0125
817.00,0.0133
816.00,0.0143
815.00,0.0156
814.00,0.0173
813.00,0.0193
812.00,0.0215
811.00,0.0234
810.00,0.0248
809.00,0.0253
808.00,0.0250
807.00,0.0238
806.00,0.0221
805.00,0.0202
804.00,0.0184
803.00,0.0169
802.00,0.0156
801.00,0.0146
800.00,0.0137
799.00,0.0129
798.00,0.0123
797.00,0.0118
796.00,0.0113
795.00,0.0109
794.00,0.0105
793.00,0.0101
792.00,0.0098
791.00,0.0094
790.00,0.0091
789.00,0.0089
788.00,0.0087
787.00,0.0084
786.00,0.0081
785.00,0.0077
784.00,0.0074
783.00,0.0072
782.00,0.0070
781.00,0.0067
780.00,0.0066
779.00,0.0065
778.00,0.0066
777.00,0.0067
776.00,0.0068
775.00,0.0068
774.00,0.0068
773.00,0.0069
772.00,0.0071
771.00,0.0075
770.00,0.0078
769.00,0.0081
768.00,0.0081
767.00,0.0080
766.00,0.0078
765.00,0.0075
764.00,0.0073
763.00,0.0071
762.00,0.0069
761.00,0.0068
760.00,0.0067
759.00,0.0065
758.00,0.0064
757.00,0.0063
756.00,0.0061
755.00,0.0060
754.00,0.0059
753.00,0.0059
752.00,0.0060
751.00,0.0061
750.00,0.0061
749.00,0.0060
748.00,0.0060
747.00,0.0060
746.00,0.0060
745.00,0.0061
744.00,0.0062
743.00,0.0063
742.00,0.0063
741.00,0.0064
740.00,0.0065
739.00,0.0066
738.00,0.0067
737.00,0.0067
736.00,0.0068
735.00,0.0069
734.00,0.0072
733.00,0.0073
732.00,0.0075
731.00,0.0075
730.00,0.0076
729.00,0.0077
728.00,0.0077
727.00,0.0076
726.00,0.0075
725.00,0.0073
724.00,0.0072
723.00,0.0070
722.00,0.0070
721.00,0.0070
720.00,0.0070
719.00,0.0070
718.00,0.0069
717.00,0.0068
716.00,0.0066
715.00,0.0065
714.00,0.0064
713.00,0.0063
712.00,0.0063
711.00,0.0064
710.00,0.0065
709.00,0.0067
708.00,0.0068
707.00,0.0068
706.00,0.0067
705.00,0.0065
704.00,0.0065
703.00,0.0064
702.00,0.0065
701.00,0.0065
700.00,0.0064
699.00,0.0063
698.00,0.0062
697.00,0.0061
696.00,0.0061
695.00,0.0061
694.00,0.0062
693.00,0.0062
692.00,0.0062
691.00,0.0063
690.00,0.0063
689.00,0.0063
688.00,0.0061
687.00,0.0060
686.00,0.0060
685.00,0.0062
684.00,0.0063
683.00,0.0064
682.00,0.0064
681.00,0.0061
680.00,0.0059
679.00,0.0058
678.00,0.0059
677.00,0.0062
676.00,0.0063
675.00,0.0064
674.00,0.0063
673.00,0.0060
672.00,0.0058
671.00,0.0057
670.00,0.0058
669.00,0.0059
668.00,0.0058
667.00,0.0057
666.00,0.0056
665.00,0.0057
664.00,0.0058
663.00,0.0059
662.00,0.0058
661.00,0.0057
660.00,0.0057
659.00,0.0061
658.00,0.0065
657.00,0.0068
656.00,0.0067
655.00,0.0066
654.00,0.0064
653.00,0.0062
652.00,0.0060
651.00,0.0057
650.00,0.0056
649.00,0.0055
648.00,0.0056
647.00,0.0057
646.00,0.0059
645.00,0.0060
644.00,0.0061
643.00,0.0061
642.00,0.0061
641.00,0.0061
640.00,0.0061
639.00,0.0062
638.00,0.0064
637.00,0.0065
636.00,0.0064
635.00,0.0062
634.00,0.0062
633.00,0.0063
632.00,0.0064
631.00,0.0062
630.00,0.0056
629.00,0.0051
628.00,0.0047
627.00,0.0046
626.00,0.0050
625.00,0.0055
624.00,0.0058
623.00,0.0061
622.00,0.0063
621.00,0.0066
620.00,0.0069
619.00,0.0068
618.00,0.0066
617.00,0.0063
616.00,0.0061
615.00,0.0061
614.00,0.0061
613.00,0.0062
612.00,0.0063
611.00,0.0064
610.00,0.0066
609.00,0.0070
608.00,0.0073
607.00,0.0072
606.00,0.0068
605.00,0.0063
604.00,0.0060
603.00,0.0060
602.00,0.0062
601.00,0.0067
600.00,0.0072
599.00,0.0074
598.00,0.0071
597.00,0.0063
596.00,0.0056
595.00,0.0052
594.00,0.0053
593.00,0.0057
592.00,0.0062
591.00,0.0065
590.00,0.0069
589.00,0.0074
588.00,0.0078
587.00,0.0077
586.00,0.0071
585.00,0.0066
584.00,0.0064
583.00,0.0066
582.00,0.0071
581.00,0.0074
580.00,0.0077
579.00,0.0078
578.00,0.0076
577.00,0.0071
576.00,0.0066
575.00,0.0064
574.00,0.0067
573.00,0.0071
572.00,0.0074
571.00,0.0076
570.00,0.0078
569.00,0.0081
568.00,0.0083
567.00,0.0081
566.00,0.0076
565.00,0.0071
564.00,0.0071
563.00,0.0075
562.00,0.0076
561.00,0.0074
560.00,0.0071
559.00,0.0074
558.00,0.0080
557.00,0.0085
556.00,0.0082
555.00,0.0073
554.00,0.0063
553.00,0.0057
552.00,0.0056
551.00,0.0059
550.00,0.0066
549.00,0.0073
548.00,0.0079
547.00,0.0083
546.00,0.0085
545.00,0.0084
544.00,0.0084
543.00,0.0084
542.00,0.0085
541.00,0.0085
540.00,0.0085
539.00,0.0087
538.00,0.0092
537.00,0.0097
536.00,0.0099
535.00,0.0096
534.00,0.0094
533.00,0.0096
532.00,0.0102
531.00,0.0109
530.00,0.0113
529.00,0.0112
528.00,0.0108
527.00,0.0104
526.00,0.0103
525.00,0.0104
524.00,0.0104
523.00,0.0104
522.00,0.0103
521.00,0.0101
520.00,0.0096
519.00,0.0089
518.00,0.0083
517.00,0.0081
516.00,0.0082
515.00,0.0084
514.00,0.0084
513.00,0.0082
512.00,0.0077
511.00,0.0072
510.00,0.0067
509.00,0.0062
508.00,0.0059
507.00,0.0059
506.00,0.0061
505.00,0.0062
504.00,0.0060
503.00,0.0060
502.00,0.0063
501.00,0.0069
500.00,0.0074
499.00,0.0074
498.00,0.0071
497.00,0.0070
496.00,0.0071
495.00,0.0074
494.00,0.0076
493.00,0.0077
492.00,0.0076
491.00,0.0075
490.00,0.0074
489.00,0.0072
488.00,0.0067
487.00,0.0060
486.00,0.0055
485.00,0.0055
484.00,0.0061
483.00,0.0067
482.00,0.0070
481.00,0.0072
480.00,0.0073
479.00,0.0072
478.00,0.0070
477.00,0.0066
476.00,0.0063
475.00,0.0065
474.00,0.0076
473.00,0.0091
472.00,0.0103
471.00,0.0104
470.00,0.0097
469.00,0.0088
468.00,0.0082
467.00,0.0080
466.00,0.0082
465.00,0.0092
464.00,0.0107
463.00,0.0124
462.00,0.0139
461.00,0.0150
460.00,0.0159
459.00,0.0161
458.00,0.0153
457.00,0.0141
456.00,0.0137
455.00,0.0141
454.00,0.0144
453.00,0.0139
452.00,0.0128
451.00,0.0119
450.00,0.0113
