Created as New Dataset,Sample 087 By Administrator Date Friday, September 05 2025
cm-1,A
4000.00,0.0012
3999.00,0.0012
3998.00,0.0012
3997.00,0.0012
3996.00,0.0012
3995.00,0.0012
3994.00,0.0012
3993.00,0.0012
3992.00,0.0012
3991.00,0.0012
3990.00,0.0012
3989.00,0.0012
3988.00,0.0012
3987.00,0.0012
3986.00,0.0012
3985.00,0.0012
3984.00,0.0012
3983.00,0.0012
3982.00,0.0012
3981.00,0.0012
3980.00,0.0012
3979.00,0.0012
3978.00,0.0011
3977.00,0.0011
3976.00,0.0010
3975.00,0.0010
3974.00,0.0010
3973.00,0.0010
3972.00,0.0011
3971.00,0.0011
3970.00,0.0011
3969.00,0.0011
3968.00,0.0011
3967.00,0.0011
3966.00,0.0011
3965.00,0.0011
3964.00,0.0011
3963.00,0.0010
3962.00,0.0010
3961.00,0.0010
3960.00,0.0010
3959.00,0.0010
3958.00,0.0010
3957.00,0.0010
3956.00,0.0010
3955.00,0.0010
3954.00,0.0010
3953.00,0.0010
3952.00,0.0010
3951.00,0.0010
3950.00,0.0010
3949.00,0.0010
3948.00,0.0010
3947.00,0.0011
3946.00,0.0011
3945.00,0.0011
3944.00,0.0011
3943.00,0.0011
3942.00,0.0011
3941.00,0.0011
3940.00,0.0011
3939.00,0.0011
3938.00,0.0011
3937.00,0.0010
3936.00,0.0010
3935.00,0.0010
3934.00,0.0011
3933.00,0.0011
3932.00,0.0011
3931.00,0.0011
3930.00,0.0011
3929.00,0.0011
3928.00,0.0011
3927.00,0.0011
3926.00,0.0011
3925.00,0.0011
3924.00,0.0011
3923.00,0.0011
3922.00,0.0011
3921.00,0.0011
3920.00,0.0011
3919.00,0.0010
3918.00,0.0010
3917.00,0.0010
3916.00,0.0011
3915.00,0.0011
3914.00,0.0011
3913.00,0.0011
3912.00,0.0011
3911.00,0.0010
3910.00,0.0010
3909.00,0.0010
3908.00,0.0010
3907.00,0.0010
3906.00,0.0010
3905.00,0.0010
3904.00,0.0010
3903.00,0.0010
3902.00,0.0010
3901.00,0.0010
3900.00,0.0010
3899.00,0.0010
3898.00,0.0010
3897.00,0.0010
3896.00,0.0010
3895.00,0.0010
3894.00,0.0010
3893.00,0.0010
3892.00,0.0010
3891.00,0.0010
3890.00,0.0010
3889.00,0.0010
3888.00,0.0010
3887.00,0.0010
3886.00,0.0010
3885.00,0.0010
3884.00,0.0010
3883.00,0.0010
3882.00,0.0010
3881.00,0.0010
3880.00,0.0010
3879.00,0.0010
3878.00,0.0010
3877.00,0.0010
3876.00,0.0010
3875.00,0.0009
3874.00,0.0009
3873.00,0.0010
3872.00,0.0010
3871.00,0.0011
3870.00,0.0011
3869.00,0.0011
3868.00,0.0010
3867.00,0.0010
3866.00,0.0009
3865.00,0.0009
3864.00,0.0009
3863.00,0.0010
3862.00,0.0010
3861.00,0.0010
3860.00,0.0010
3859.00,0.0010
3858.00,0.0011
3857.00,0.0011
3856.00,0.0012
3855.00,0.0012
3854.00,0.0011
3853.00,0.0011
3852.00,0.0011
3851.00,0.0011
3850.00,0.0010
3849.00,0.0010
3848.00,0.0010
3847.00,0.0009
3846.00,0.0009
3845.00,0.0009
3844.00,0.0009
3843.00,0.0009
3842.00,0.0009
3841.00,0.0010
3840.00,0.0010
3839.00,0.0011
3838.00,0.0011
3837.00,0.0011
3836.00,0.0011
3835.00,0.0010
3834.00,0.0010
3833.00,0.0009
3832.00,0.0009
3831.00,0.0009
3830.00,0.0009
3829.00,0.0009
3828.00,0.0009
3827.00,0.0009
3826.00,0.0009
3825.00,0.0010
3824.00,0.0010
3823.00,0.0010
3822.00,0.0011
3821.00,0.0011
3820.00,0.0011
3819.00,0.0012
3818.00,0.0011
3817.00,0.0011
3816.00,0.0011
3815.00,0.0011
3814.00,0.0010
3813.00,0.0010
3812.00,0.0010
3811.00,0.0010
3810.00,0.0010
3809.00,0.0010
3808.00,0.0010
3807.00,0.0011
3806.00,0.0011
3805.00,0.0012
3804.00,0.0012
3803.00,0.0011
3802.00,0.0011
3801.00,0.0011
3800.00,0.0011
3799.00,0.0011
3798.00,0.0011
3797.00,0.0010
3796.00,0.0010
3795.00,0.0010
3794.00,0.0010
3793.00,0.0010
3792.00,0.0010
3791.00,0.0010
3790.00,0.0010
3789.00,0.0010
3788.00,0.0010
3787.00,0.0011
3786.00,0.0010
3785.00,0.0010
3784.00,0.0010
3783.00,0.0010
3782.00,0.0010
3781.00,0.0010
3780.00,0.0010
3779.00,0.0010
3778.00,0.0010
3777.00,0.0010
3776.00,0.0010
3775.00,0.0010
3774.00,0.0010
3773.00,0.0010
3772.00,0.0010
3771.00,0.0010
3770.00,0.0010
3769.00,0.0010
3768.00,0.0010
3767.00,0.0009
3766.00,0.0009
3765.00,0.0010
3764.00,0.0010
3763.00,0.0011
3762.00,0.0011
3761.00,0.0011
3760.00,0.0010
3759.00,0.0010
3758.00,0.0010
3757.00,0.0010
3756.00,0.0010
3755.00,0.0010
3754.00,0.0010
3753.00,0.0009
3752.00,0.0009
3751.00,0.0010
3750.00,0.0010
3749.00,0.0010
3748.00,0.0011
3747.00,0.0012
3746.00,0.0012
3745.00,0.0012
3744.00,0.0011
3743.00,0.0011
3742.00,0.0010
3741.00,0.0009
3740.00,0.0009
3739.00,0.0009
3738.00,0.0008
3737.00,0.0008
3736.00,0.0008
3735.00,0.0009
3734.00,0.0009
3733.00,0.0009
3732.00,0.0009
3731.00,0.0009
3730.00,0.0010
3729.00,0.0009
3728.00,0.0009
3727.00,0.0008
3726.00,0.0008
3725.00,0.0007
3724.00,0.0007
3723.00,0.0007
3722.00,0.0008
3721.00,0.0008
3720.00,0.0009
3719.00,0.0009
3718.00,0.0008
3717.00,0.0008
3716.00,0.0008
3715.00,0.0008
3714.00,0.0007
3713.00,0.0007
3712.00,0.0007
3711.00,0.0008
3710.00,0.0008
3709.00,0.0008
3708.00,0.0008
3707.00,0.0008
3706.00,0.0008
3705.00,0.0008
3704.00,0.0008
3703.00,0.0008
3702.00,0.0008
3701.00,0.0008
3700.00,0.0007
3699.00,0.0007
3698.00,0.0007
3697.00,0.0007
3696.00,0.0007
3695.00,0.0007
3694.00,0.0007
3693.00,0.0007
3692.00,0.0007
3691.00,0.0007
3690.00,0.0007
3689.00,0.0008
3688.00,0.0008
3687.00,0.0009
3686.00,0.0009
3685.00,0.0009
3684.00,0.0009
3683.00,0.0008
3682.00,0.0008
3681.00,0.0007
3680.00,0.0007
3679.00,0.0007
3678.00,0.0007
3677.00,0.0008
3676.00,0.0008
3675.00,0.0008
3674.00,0.0009
3673.00,0.0009
3672.00,0.0009
3671.00,0.0009
3670.00,0.0009
3669.00,0.0009
3668.00,0.0009
3667.00,0.0008
3666.00,0.0008
3665.00,0.0007
3664.00,0.0007
3663.00,0.0007
3662.00,0.0008
3661.00,0.0008
3660.00,0.0008
3659.00,0.0008
3658.00,0.0007
3657.00,0.0007
3656.00,0.0007
3655.00,0.0008
3654.00,0.0008
3653.00,0.0009
3652.00,0.0008
3651.00,0.0008
3650.00,0.0007
3649.00,0.0007
3648.00,0.0007
3647.00,0.0008
3646.00,0.0008
3645.00,0.0008
3644.00,0.0008
3643.00,0.0008
3642.00,0.0008
3641.00,0.0008
3640.00,0.0008
3639.00,0.0008
3638.00,0.0008
3637.00,0.0008
3636.00,0.0008
3635.00,0.0008
3634.00,0.0008
3633.00,0.0008
3632.00,0.0008
3631.00,0.0008
3630.00,0.0008
3629.00,0.0008
3628.00,0.0009
3627.00,0.0009
3626.00,0.0009
3625.00,0.0009
3624.00,0.0008
3623.00,0.0008
3622.00,0.0008
3621.00,0.0008
3620.00,0.0008
3619.00,0.0009
3618.00,0.0009
3617.00,0.0009
3616.00,0.0010
3615.00,0.0010
3614.00,0.0010
3613.00,0.0010
3612.00,0.0010
3611.00,0.0010
3610.00,0.0010
3609.00,0.0010
3608.00,0.0010
3607.00,0.0010
3606.00,0.0010
3605.00,0.0010
3604.00,0.0009
3603.00,0.0009
3602.00,0.0010
3601.00,0.0010
3600.00,0.0010
3599.00,0.0011
3598.00,0.0011
3597.00,0.0011
3596.00,0.0011
3595.00,0.0012
3594.00,0.0012
3593.00,0.0012
3592.00,0.0012
3591.00,0.0012
3590.00,0.0012
3589.00,0.0011
3588.00,0.0011
3587.00,0.0011
3586.00,0.0011
3585.00,0.0011
3584.00,0.0011
3583.00,0.0011
3582.00,0.0011
3581.00,0.0011
3580.00,0.0012
3579.00,0.0012
3578.00,0.0012
3577.00,0.0011
3576.00,0.0011
3575.00,0.0012
3574.00,0.0012
3573.00,0.0012
3572.00,0.0013
3571.00,0.0013
3570.00,0.0014
3569.00,0.0014
3568.00,0.0014
3567.00,0.0015
3566.00,0.0015
3565.00,0.0015
3564.00,0.0015
3563.00,0.0015
3562.00,0.0015
3561.00,0.0016
3560.00,0.0016
3559.00,0.0016
3558.00,0.0016
3557.00,0.0016
3556.00,0.0015
3555.00,0.0015
3554.00,0.0015
3553.00,0.0016
3552.00,0.0016
3551.00,0.0017
3550.00,0.0017
3549.00,0.0018
3548.00,0.0018
3547.00,0.0019
3546.00,0.0019
3545.00,0.0018
3544.00,0.0018
3543.00,0.0018
3542.00,0.0017
3541.00,0.0017
3540.00,0.0017
3539.00,0.0017
3538.00,0.0018
3537.00,0.0018
3536.00,0.0018
3535.00,0.0018
3534.00,0.0018
3533.00,0.0019
3532.00,0.0019
3531.00,0.0020
3530.00,0.0020
3529.00,0.0021
3528.00,0.0021
3527.00,0.0022
3526.00,0.0022
3525.00,0.0021
3524.00,0.0021
3523.00,0.0021
3522.00,0.0020
3521.00,0.0020
3520.00,0.0020
3519.00,0.0021
3518.00,0.0021
3517.00,0.0021
3516.00,0.0022
3515.00,0.0022
3514.00,0.0022
3513.00,0.0021
3512.00,0.0021
3511.00,0.0021
3510.00,0.0021
3509.00,0.0021
3508.00,0.0022
3507.00,0.0022
3506.00,0.0022
3505.00,0.0022
3504.00,0.0022
3503.00,0.0022
3502.00,0.0022
3501.00,0.0022
3500.00,0.0023
3499.00,0.0023
3498.00,0.0023
3497.00,0.0023
3496.00,0.0023
3495.00,0.0023
3494.00,0.0024
3493.00,0.0024
3492.00,0.0024
3491.00,0.0024
3490.00,0.0024
3489.00,0.0025
3488.00,0.0025
3487.00,0.0025
3486.00,0.0025
3485.00,0.0025
3484.00,0.0025
3483.00,0.0025
3482.00,0.0026
3481.00,0.0026
3480.00,0.0026
3479.00,0.0026
3478.00,0.0026
3477.00,0.0027
3476.00,0.0027
3475.00,0.0027
3474.00,0.0028
3473.00,0.0028
3472.00,0.0028
3471.00,0.0028
3470.00,0.0028
3469.00,0.0028
3468.00,0.0028
3467.00,0.0028
3466.00,0.0028
3465.00,0.0029
3464.00,0.0029
3463.00,0.0029
3462.00,0.0029
3461.00,0.0029
3460.00,0.0029
3459.00,0.0029
3458.00,0.0029
3457.00,0.0029
3456.00,0.0029
3455.00,0.0029
3454.00,0.0029
3453.00,0.0029
3452.00,0.0029
3451.00,0.0029
3450.00,0.0029
3449.00,0.0030
3448.00,0.0030
3447.00,0.0030
3446.00,0.0031
3445.00,0.0031
3444.00,0.0032
3443.00,0.0032
3442.00,0.0032
3441.00,0.0032
3440.00,0.0032
3439.00,0.0032
3438.00,0.0032
3437.00,0.0032
3436.00,0.0032
3435.00,0.0033
3434.00,0.0033
3433.00,0.0033
3432.00,0.0033
3431.00,0.0033
3430.00,0.0033
3429.00,0.0033
3428.00,0.0033
3427.00,0.0034
3426.00,0.0034
3425.00,0.0034
3424.00,0.0034
3423.00,0.0034
3422.00,0.0034
3421.00,0.0034
3420.00,0.0034
3419.00,0.0034
3418.00,0.0035
3417.00,0.0035
3416.00,0.0036
3415.00,0.0036
3414.00,0.0036
3413.00,0.0036
3412.00,0.0036
3411.00,0.0037
3410.00,0.0037
3409.00,0.0037
3408.00,0.0037
3407.00,0.0036
3406.00,0.0036
3405.00,0.0036
3404.00,0.0037
3403.00,0.0037
3402.00,0.0037
3401.00,0.0037
3400.00,0.0037
3399.00,0.0037
3398.00,0.0038
3397.00,0.0038
3396.00,0.0038
3395.00,0.0037
3394.00,0.0037
3393.00,0.0037
3392.00,0.0037
3391.00,0.0037
3390.00,0.0037
3389.00,0.0037
3388.00,0.0037
3387.00,0.0038
3386.00,0.0038
3385.00,0.0038
3384.00,0.0038
3383.00,0.0038
3382.00,0.0038
3381.00,0.0038
3380.00,0.0038
3379.00,0.0037
3378.00,0.0037
3377.00,0.0038
3376.00,0.0038
3375.00,0.0038
3374.00,0.0038
3373.00,0.0038
3372.00,0.0039
3371.00,0.0039
3370.00,0.0039
3369.00,0.0039
3368.00,0.0039
3367.00,0.0039
3366.00,0.0039
3365.00,0.0039
3364.00,0.0039
3363.00,0.0039
3362.00,0.0038
3361.00,0.0039
3360.00,0.0039
3359.00,0.0039
3358.00,0.0039
3357.00,0.0039
3356.00,0.0039
3355.00,0.0040
3354.00,0.0040
3353.00,0.0040
3352.00,0.0040
3351.00,0.0040
3350.00,0.0040
3349.00,0.0040
3348.00,0.0040
3347.00,0.0039
3346.00,0.0039
3345.00,0.0039
3344.00,0.0039
3343.00,0.0039
3342.00,0.0039
3341.00,0.0040
3340.00,0.0040
3339.00,0.0040
3338.00,0.0041
3337.00,0.0040
3336.00,0.0040
3335.00,0.0039
3334.00,0.0039
3333.00,0.0038
3332.00,0.0038
3331.00,0.0039
3330.00,0.0039
3329.00,0.0040
3328.00,0.0040
3327.00,0.0041
3326.00,0.0040
3325.00,0.0040
3324.00,0.0040
3323.00,0.0040
3322.00,0.0040
3321.00,0.0040
3320.00,0.0040
3319.00,0.0040
3318.00,0.0040
3317.00,0.0039
3316.00,0.0040
3315.00,0.0040
3314.00,0.0040
3313.00,0.0040
3312.00,0.0041
3311.00,0.0041
3310.00,0.0041
3309.00,0.0041
3308.00,0.0041
3307.00,0.0041
3306.00,0.0040
3305.00,0.0040
3304.00,0.0040
3303.00,0.0040
3302.00,0.0040
3301.00,0.0040
3300.00,0.0039
3299.00,0.0039
3298.00,0.0039
3297.00,0.0038
3296.00,0.0038
3295.00,0.0038
3294.00,0.0038
3293.00,0.0039
3292.00,0.0039
3291.00,0.0039
3290.00,0.0039
3289.00,0.0039
3288.00,0.0039
3287.00,0.0039
3286.00,0.0039
3285.00,0.0039
3284.00,0.0038
3283.00,0.0038
3282.00,0.0038
3281.00,0.0038
3280.00,0.0038
3279.00,0.0038
3278.00,0.0038
3277.00,0.0038
3276.00,0.0038
3275.00,0.0038
3274.00,0.0038
3273.00,0.0037
3272.00,0.0037
3271.00,0.0037
3270.00,0.0038
3269.00,0.0037
3268.00,0.0037
3267.00,0.0037
3266.00,0.0036
3265.00,0.0036
3264.00,0.0036
3263.00,0.0036
3262.00,0.0036
3261.00,0.0036
3260.00,0.0036
3259.00,0.0036
3258.00,0.0035
3257.00,0.0035
3256.00,0.0035
3255.00,0.0035
3254.00,0.0034
3253.00,0.0034
3252.00,0.0034
3251.00,0.0034
3250.00,0.0034
3249.00,0.0034
3248.00,0.0034
3247.00,0.0034
3246.00,0.0033
3245.00,0.0033
3244.00,0.0033
3243.00,0.0033
3242.00,0.0034
3241.00,0.0034
3240.00,0.0034
3239.00,0.0034
3238.00,0.0034
3237.00,0.0034
3236.00,0.0034
3235.00,0.0034
3234.00,0.0034
3233.00,0.0035
3232.00,0.0035
3231.00,0.0035
3230.00,0.0035
3229.00,0.0035
3228.00,0.0035
3227.00,0.0036
3226.00,0.0036
3225.00,0.0036
3224.00,0.0037
3223.00,0.0037
3222.00,0.0037
3221.00,0.0037
3220.00,0.0037
3219.00,0.0038
3218.00,0.0038
3217.00,0.0038
3216.00,0.0038
3215.00,0.0039
3214.00,0.0039
3213.00,0.0039
3212.00,0.0040
3211.00,0.0040
3210.00,0.0040
3209.00,0.0040
3208.00,0.0040
3207.00,0.0041
3206.00,0.0042
3205.00,0.0042
3204.00,0.0042
3203.00,0.0042
3202.00,0.0042
3201.00,0.0042
3200.00,0.0042
3199.00,0.0042
3198.00,0.0042
3197.00,0.0042
3196.00,0.0042
3195.00,0.0041
3194.00,0.0041
3193.00,0.0041
3192.00,0.0041
3191.00,0.0041
3190.00,0.0041
3189.00,0.0041
3188.00,0.0041
3187.00,0.0041
3186.00,0.0041
3185.00,0.0040
3184.00,0.0040
3183.00,0.0041
3182.00,0.0041
3181.00,0.0041
3180.00,0.0041
3179.00,0.0040
3178.00,0.0040
3177.00,0.0039
3176.00,0.0038
3175.00,0.0038
3174.00,0.0038
3173.00,0.0038
3172.00,0.0038
3171.00,0.0038
3170.00,0.0038
3169.00,0.0038
3168.00,0.0037
3167.00,0.0037
3166.00,0.0037
3165.00,0.0037
3164.00,0.0037
3163.00,0.0037
3162.00,0.0036
3161.00,0.0036
3160.00,0.0036
3159.00,0.0037
3158.00,0.0037
3157.00,0.0037
3156.00,0.0037
3155.00,0.0037
3154.00,0.0037
3153.00,0.0037
3152.00,0.0036
3151.00,0.0036
3150.00,0.0036
3149.00,0.0035
3148.00,0.0036
3147.00,0.0036
3146.00,0.0036
3145.00,0.0036
3144.00,0.0036
3143.00,0.0036
3142.00,0.0036
3141.00,0.0036
3140.00,0.0036
3139.00,0.0036
3138.00,0.0036
3137.00,0.0036
3136.00,0.0036
3135.00,0.0035
3134.00,0.0035
3133.00,0.0035
3132.00,0.0034
3131.00,0.0034
3130.00,0.0034
3129.00,0.0034
3128.00,0.0034
3127.00,0.0034
3126.00,0.0034
3125.00,0.0034
3124.00,0.0033
3123.00,0.0033
3122.00,0.0032
3121.00,0.0032
3120.00,0.0032
3119.00,0.0032
3118.00,0.0032
3117.00,0.0032
3116.00,0.0032
3115.00,0.0032
3114.00,0.0032
3113.00,0.0032
3112.00,0.0031
3111.00,0.0031
3110.00,0.0031
3109.00,0.0030
3108.00,0.0030
3107.00,0.0030
3106.00,0.0030
3105.00,0.0031
3104.00,0.0031
3103.00,0.0031
3102.00,0.0030
3101.00,0.0030
3100.00,0.0030
3099.00,0.0030
3098.00,0.0029
3097.00,0.0030
3096.00,0.0030
3095.00,0.0030
3094.00,0.0031
3093.00,0.0031
3092.00,0.0030
3091.00,0.0030
3090.00,0.0030
3089.00,0.0031
3088.00,0.0031
3087.00,0.0030
3086.00,0.0030
3085.00,0.0030
3084.00,0.0030
3083.00,0.0030
3082.00,0.0030
3081.00,0.0030
3080.00,0.0030
3079.00,0.0030
3078.00,0.0030
3077.00,0.0030
3076.00,0.0030
3075.00,0.0030
3074.00,0.0030
3073.00,0.0030
3072.00,0.0030
3071.00,0.0030
3070.00,0.0031
3069.00,0.0031
3068.00,0.0032
3067.00,0.0032
3066.00,0.0032
3065.00,0.0032
3064.00,0.0032
3063.00,0.0032
3062.00,0.0032
3061.00,0.0032
3060.00,0.0033
3059.00,0.0033
3058.00,0.0033
3057.00,0.0033
3056.00,0.0033
3055.00,0.0033
3054.00,0.0033
3053.00,0.0033
3052.00,0.0033
3051.00,0.0034
3050.00,0.0034
3049.00,0.0034
3048.00,0.0033
3047.00,0.0033
3046.00,0.0034
3045.00,0.0034
3044.00,0.0035
3043.00,0.0035
3042.00,0.0036
3041.00,0.0036
3040.00,0.0036
3039.00,0.0037
3038.00,0.0037
3037.00,0.0037
3036.00,0.0037
3035.00,0.0038
3034.00,0.0038
3033.00,0.0039
3032.00,0.0039
3031.00,0.0040
3030.00,0.0040
3029.00,0.0041
3028.00,0.0041
3027.00,0.0041
3026.00,0.0041
3025.00,0.0042
3024.00,0.0043
3023.00,0.0043
3022.00,0.0044
3021.00,0.0044
3020.00,0.0045
3019.00,0.0046
3018.00,0.0047
3017.00,0.0048
3016.00,0.0049
3015.00,0.0050
3014.00,0.0051
3013.00,0.0052
3012.00,0.0054
3011.00,0.0055
3010.00,0.0056
3009.00,0.0058
3008.00,0.0060
3007.00,0.0062
3006.00,0.0063
3005.00,0.0065
3004.00,0.0067
3003.00,0.0069
3002.00,0.0072
3001.00,0.0075
3000.00,0.0077
2999.00,0.0080
2998.00,0.0083
2997.00,0.0086
2996.00,0.0090
2995.00,0.0095
2994.00,0.0099
2993.00,0.0104
2992.00,0.0110
2991.00,0.0116
2990.00,0.0123
2989.00,0.0131
2988.00,0.0139
2987.00,0.0149
2986.00,0.0159
2985.00,0.0171
2984.00,0.0183
2983.00,0.0198
2982.00,0.0214
2981.00,0.0233
2980.00,0.0254
2979.00,0.0279
2978.00,0.0306
2977.00,0.0338
2976.00,0.0374
2975.00,0.0415
2974.00,0.0463
2973.00,0.0518
2972.00,0.0579
2971.00,0.0649
2970.00,0.0727
2969.00,0.0813
2968.00,0.0909
2967.00,0.1012
2966.00,0.1122
2965.00,0.1237
2964.00,0.1352
2963.00,0.1462
2962.00,0.1561
2961.00,0.1644
2960.00,0.1710
2959.00,0.1759
2958.00,0.1794
2957.00,0.1821
2956.00,0.1847
2955.00,0.1876
2954.00,0.1908
2953.00,0.1941
2952.00,0.1966
2951.00,0.1975
2950.00,0.1957
2949.00,0.1908
2948.00,0.1827
2947.00,0.1718
2946.00,0.1591
2945.00,0.1461
2944.00,0.1338
2943.00,0.1232
2942.00,0.1149
2941.00,0.1091
2940.00,0.1057
2939.00,0.1045
2938.00,0.1054
2937.00,0.1080
2936.00,0.1122
2935.00,0.1178
2934.00,0.1247
2933.00,0.1327
2932.00,0.1418
2931.00,0.1516
2930.00,0.1618
2929.00,0.1723
2928.00,0.1825
2927.00,0.1923
2926.00,0.2016
2925.00,0.2105
2924.00,0.2189
2923.00,0.2270
2922.00,0.2348
2921.00,0.2421
2920.00,0.2482
2919.00,0.2525
2918.00,0.2542
2917.00,0.2529
2916.00,0.2487
2915.00,0.2422
2914.00,0.2342
2913.00,0.2258
2912.00,0.2176
2911.00,0.2102
2910.00,0.2036
2909.00,0.1978
2908.00,0.1925
2907.00,0.1873
2906.00,0.1820
2905.00,0.1764
2904.00,0.1704
2903.00,0.1640
2902.00,0.1575
2901.00,0.1509
2900.00,0.1445
2899.00,0.1383
2898.00,0.1324
2897.00,0.1270
2896.00,0.1222
2895.00,0.1179
2894.00,0.1143
2893.00,0.1114
2892.00,0.1091
2891.00,0.1074
2890.00,0.1061
2889.00,0.1053
2888.00,0.1049
2887.00,0.1049
2886.00,0.1052
2885.00,0.1058
2884.00,0.1068
2883.00,0.1082
2882.00,0.1100
2881.00,0.1120
2880.00,0.1139
2879.00,0.1154
2878.00,0.1162
2877.00,0.1163
2876.00,0.1157
2875.00,0.1148
2874.00,0.1141
2873.00,0.1140
2872.00,0.1145
2871.00,0.1158
2870.00,0.1174
2869.00,0.1188
2868.00,0.1194
2867.00,0.1184
2866.00,0.1154
2865.00,0.1103
2864.00,0.1035
2863.00,0.0958
2862.00,0.0883
2861.00,0.0817
2860.00,0.0765
2859.00,0.0728
2858.00,0.0705
2857.00,0.0695
2856.00,0.0696
2855.00,0.0704
2854.00,0.0718
2853.00,0.0737
2852.00,0.0758
2851.00,0.0779
2850.00,0.0799
2849.00,0.0818
2848.00,0.0839
2847.00,0.0863
2846.00,0.0896
2845.00,0.0940
2844.00,0.0995
2843.00,0.1058
2842.00,0.1125
2841.00,0.1188
2840.00,0.1239
2839.00,0.1270
2838.00,0.1272
2837.00,0.1241
2836.00,0.1177
2835.00,0.1086
2834.00,0.0978
2833.00,0.0865
2832.00,0.0757
2831.00,0.0660
2830.00,0.0578
2829.00,0.0511
2828.00,0.0457
2827.00,0.0413
2826.00,0.0377
2825.00,0.0347
2824.00,0.0323
2823.00,0.0302
2822.00,0.0284
2821.00,0.0268
2820.00,0.0255
2819.00,0.0243
2818.00,0.0233
2817.00,0.0224
2816.00,0.0216
2815.00,0.0209
2814.00,0.0203
2813.00,0.0197
2812.00,0.0191
2811.00,0.0186
2810.00,0.0181
2809.00,0.0175
2808.00,0.0170
2807.00,0.0164
2806.00,0.0157
2805.00,0.0151
2804.00,0.0144
2803.00,0.0138
2802.00,0.0132
2801.00,0.0128
2800.00,0.0124
2799.00,0.0121
2798.00,0.0119
2797.00,0.0117
2796.00,0.0114
2795.00,0.0112
2794.00,0.0110
2793.00,0.0107
2792.00,0.0104
2791.00,0.0100
2790.00,0.0097
2789.00,0.0093
2788.00,0.0090
2787.00,0.0086
2786.00,0.0083
2785.00,0.0080
2784.00,0.0078
2783.00,0.0075
2782.00,0.0073
2781.00,0.0071
2780.00,0.0070
2779.00,0.0068
2778.00,0.0066
2777.00,0.0065
2776.00,0.0064
2775.00,0.0063
2774.00,0.0062
2773.00,0.0061
2772.00,0.0061
2771.00,0.0060
2770.00,0.0059
2769.00,0.0059
2768.00,0.0058
2767.00,0.0058
2766.00,0.0057
2765.00,0.0057
2764.00,0.0057
2763.00,0.0056
2762.00,0.0056
2761.00,0.0056
2760.00,0.0055
2759.00,0.0055
2758.00,0.0055
2757.00,0.0055
2756.00,0.0055
2755.00,0.0055
2754.00,0.0055
2753.00,0.0055
2752.00,0.0055
2751.00,0.0054
2750.00,0.0054
2749.00,0.0054
2748.00,0.0055
2747.00,0.0055
2746.00,0.0056
2745.00,0.0056
2744.00,0.0057
2743.00,0.0058
2742.00,0.0059
2741.00,0.0060
2740.00,0.0061
2739.00,0.0062
2738.00,0.0063
2737.00,0.0064
2736.00,0.0065
2735.00,0.0067
2734.00,0.0068
2733.00,0.0069
2732.00,0.0071
2731.00,0.0073
2730.00,0.0076
2729.00,0.0078
2728.00,0.0081
2727.00,0.0084
2726.00,0.0086
2725.00,0.0089
2724.00,0.0090
2723.00,0.0090
2722.00,0.0089
2721.00,0.0087
2720.00,0.0085
2719.00,0.0081
2718.00,0.0078
2717.00,0.0075
2716.00,0.0072
2715.00,0.0070
2714.00,0.0068
2713.00,0.0066
2712.00,0.0064
2711.00,0.0062
2710.00,0.0061
2709.00,0.0060
2708.00,0.0058
2707.00,0.0057
2706.00,0.0056
2705.00,0.0055
2704.00,0.0054
2703.00,0.0053
2702.00,0.0052
2701.00,0.0051
2700.00,0.0050
2699.00,0.0049
2698.00,0.0049
2697.00,0.0049
2696.00,0.0049
2695.00,0.0049
2694.00,0.0049
2693.00,0.0048
2692.00,0.0048
2691.00,0.0048
2690.00,0.0049
2689.00,0.0049
2688.00,0.0049
2687.00,0.0049
2686.00,0.0049
2685.00,0.0049
2684.00,0.0049
2683.00,0.0049
2682.00,0.0049
2681.00,0.0049
2680.00,0.0049
2679.00,0.0049
2678.00,0.0048
2677.00,0.0048
2676.00,0.0048
2675.00,0.0048
2674.00,0.0048
2673.00,0.0048
2672.00,0.0048
2671.00,0.0048
2670.00,0.0048
2669.00,0.0048
2668.00,0.0048
2667.00,0.0048
2666.00,0.0048
2665.00,0.0049
2664.00,0.0050
2663.00,0.0050
2662.00,0.0051
2661.00,0.0051
2660.00,0.0052
2659.00,0.0052
2658.00,0.0051
2657.00,0.0051
2656.00,0.0051
2655.00,0.0050
2654.00,0.0050
2653.00,0.0049
2652.00,0.0048
2651.00,0.0048
2650.00,0.0048
2649.00,0.0048
2648.00,0.0047
2647.00,0.0047
2646.00,0.0046
2645.00,0.0046
2644.00,0.0045
2643.00,0.0044
2642.00,0.0044
2641.00,0.0044
2640.00,0.0043
2639.00,0.0043
2638.00,0.0043
2637.00,0.0043
2636.00,0.0042
2635.00,0.0042
2634.00,0.0042
2633.00,0.0042
2632.00,0.0042
2631.00,0.0043
2630.00,0.0042
2629.00,0.0043
2628.00,0.0043
2627.00,0.0043
2626.00,0.0043
2625.00,0.0044
2624.00,0.0044
2623.00,0.0044
2622.00,0.0044
2621.00,0.0044
2620.00,0.0044
2619.00,0.0044
2618.00,0.0044
2617.00,0.0044
2616.00,0.0044
2615.00,0.0044
2614.00,0.0044
2613.00,0.0044
2612.00,0.0043
2611.00,0.0042
2610.00,0.0041
2609.00,0.0040
2608.00,0.0038
2607.00,0.0037
2606.00,0.0036
2605.00,0.0036
2604.00,0.0036
2603.00,0.0036
2602.00,0.0035
2601.00,0.0035
2600.00,0.0035
2599.00,0.0035
2598.00,0.0035
2597.00,0.0035
2596.00,0.0035
2595.00,0.0035
2594.00,0.0035
2593.00,0.0035
2592.00,0.0036
2591.00,0.0036
2590.00,0.0037
2589.00,0.0037
2588.00,0.0038
2587.00,0.0039
2586.00,0.0040
2585.00,0.0041
2584.00,0.0041
2583.00,0.0042
2582.00,0.0042
2581.00,0.0042
2580.00,0.0041
2579.00,0.0040
2578.00,0.0039
2577.00,0.0038
2576.00,0.0037
2575.00,0.0036
2574.00,0.0034
2573.00,0.0034
2572.00,0.0033
2571.00,0.0031
2570.00,0.0030
2569.00,0.0030
2568.00,0.0029
2567.00,0.0029
2566.00,0.0029
2565.00,0.0029
2564.00,0.0028
2563.00,0.0027
2562.00,0.0027
2561.00,0.0026
2560.00,0.0026
2559.00,0.0026
2558.00,0.0025
2557.00,0.0025
2556.00,0.0024
2555.00,0.0024
2554.00,0.0024
2553.00,0.0025
2552.00,0.0025
2551.00,0.0025
2550.00,0.0025
2549.00,0.0024
2548.00,0.0024
2547.00,0.0023
2546.00,0.0022
2545.00,0.0022
2544.00,0.0021
2543.00,0.0021
2542.00,0.0021
2541.00,0.0021
2540.00,0.0021
2539.00,0.0021
2538.00,0.0020
2537.00,0.0020
2536.00,0.0020
2535.00,0.0020
2534.00,0.0020
2533.00,0.0019
2532.00,0.0019
2531.00,0.0019
2530.00,0.0018
2529.00,0.0018
2528.00,0.0018
2527.00,0.0018
2526.00,0.0018
2525.00,0.0017
2524.00,0.0017
2523.00,0.0016
2522.00,0.0016
2521.00,0.0015
2520.00,0.0015
2519.00,0.0015
2518.00,0.0015
2517.00,0.0016
2516.00,0.0016
2515.00,0.0016
2514.00,0.0016
2513.00,0.0015
2512.00,0.0015
2511.00,0.0015
2510.00,0.0014
2509.00,0.0014
2508.00,0.0014
2507.00,0.0014
2506.00,0.0014
2505.00,0.0014
2504.00,0.0013
2503.00,0.0012
2502.00,0.0012
2501.00,0.0011
2500.00,0.0012
2499.00,0.0012
2498.00,0.0012
2497.00,0.0013
2496.00,0.0014
2495.00,0.0014
2494.00,0.0014
2493.00,0.0014
2492.00,0.0013
2491.00,0.0013
2490.00,0.0012
2489.00,0.0012
2488.00,0.0013
2487.00,0.0013
2486.00,0.0014
2485.00,0.0014
2484.00,0.0013
2483.00,0.0013
2482.00,0.0012
2481.00,0.0011
2480.00,0.0011
2479.00,0.0011
2478.00,0.0011
2477.00,0.0012
2476.00,0.0012
2475.00,0.0012
2474.00,0.0011
2473.00,0.0011
2472.00,0.0011
2471.00,0.0012
2470.00,0.0012
2469.00,0.0013
2468.00,0.0013
2467.00,0.0012
2466.00,0.0012
2465.00,0.0012
2464.00,0.0012
2463.00,0.0012
2462.00,0.0013
2461.00,0.0013
2460.00,0.0013
2459.00,0.0014
2458.00,0.0014
2457.00,0.0015
2456.00,0.0015
2455.00,0.0015
2454.00,0.0015
2453.00,0.0014
2452.00,0.0014
2451.00,0.0014
2450.00,0.0014
2449.00,0.0014
2448.00,0.0014
2447.00,0.0014
2446.00,0.0014
2445.00,0.0014
2444.00,0.0013
2443.00,0.0014
2442.00,0.0014
2441.00,0.0014
2440.00,0.0013
2439.00,0.0013
2438.00,0.0013
2437.00,0.0014
2436.00,0.0014
2435.00,0.0014
2434.00,0.0014
2433.00,0.0014
2432.00,0.0013
2431.00,0.0013
2430.00,0.0013
2429.00,0.0013
2428.00,0.0014
2427.00,0.0014
2426.00,0.0014
2425.00,0.0015
2424.00,0.0015
2423.00,0.0014
2422.00,0.0014
2421.00,0.0014
2420.00,0.0014
2419.00,0.0014
2418.00,0.0014
2417.00,0.0014
2416.00,0.0013
2415.00,0.0013
2414.00,0.0012
2413.00,0.0012
2412.00,0.0012
2411.00,0.0012
2410.00,0.0011
2409.00,0.0011
2408.00,0.0012
2407.00,0.0011
2406.00,0.0011
2405.00,0.0011
2404.00,0.0010
2403.00,0.0010
2402.00,0.0010
2401.00,0.0010
2400.00,0.0011
2399.00,0.0011
2398.00,0.0011
2397.00,0.0012
2396.00,0.0012
2395.00,0.0012
2394.00,0.0012
2393.00,0.0012
2392.00,0.0011
2391.00,0.0010
2390.00,0.0010
2389.00,0.0009
2388.00,0.0009
2387.00,0.0010
2386.00,0.0009
2385.00,0.0009
2384.00,0.0007
2383.00,0.0006
2382.00,0.0004
2381.00,0.0003
2380.00,0.0002
2379.00,0.0001
2378.00,0.0001
2377.00,0.0001
2376.00,0.0001
2375.00,0.0001
2374.00,0.0001
2373.00,0.0001
2372.00,0.0000
2371.00,0.0000
2370.00,-0.0000
2369.00,-0.0000
2368.00,0.0000
2367.00,0.0001
2366.00,0.0002
2365.00,0.0002
2364.00,0.0003
2363.00,0.0003
2362.00,0.0003
2361.00,0.0002
2360.00,0.0002
2359.00,0.0002
2358.00,0.0001
2357.00,0.0002
2356.00,0.0002
2355.00,0.0002
2354.00,0.0002
2353.00,0.0001
2352.00,0.0001
2351.00,0.0001
2350.00,0.0002
2349.00,0.0003
2348.00,0.0004
2347.00,0.0005
2346.00,0.0004
2345.00,0.0004
2344.00,0.0004
2343.00,0.0004
2342.00,0.0005
2341.00,0.0005
2340.00,0.0005
2339.00,0.0005
2338.00,0.0005
2337.00,0.0005
2336.00,0.0006
2335.00,0.0006
2334.00,0.0006
2333.00,0.0006
2332.00,0.0005
2331.00,0.0004
2330.00,0.0004
2329.00,0.0005
2328.00,0.0007
2327.00,0.0010
2326.00,0.0014
2325.00,0.0017
2324.00,0.0018
2323.00,0.0016
2322.00,0.0014
2321.00,0.0012
2320.00,0.0011
2319.00,0.0011
2318.00,0.0011
2317.00,0.0010
2316.00,0.0010
2315.00,0.0009
2314.00,0.0009
2313.00,0.0008
2312.00,0.0008
2311.00,0.0008
2310.00,0.0007
2309.00,0.0007
2308.00,0.0008
2307.00,0.0008
2306.00,0.0009
2305.00,0.0010
2304.00,0.0011
2303.00,0.0011
2302.00,0.0011
2301.00,0.0011
2300.00,0.0011
2299.00,0.0011
2298.00,0.0012
2297.00,0.0013
2296.00,0.0014
2295.00,0.0015
2294.00,0.0015
2293.00,0.0016
2292.00,0.0016
2291.00,0.0017
2290.00,0.0019
2289.00,0.0020
2288.00,0.0021
2287.00,0.0022
2286.00,0.0022
2285.00,0.0022
2284.00,0.0021
2283.00,0.0021
2282.00,0.0019
2281.00,0.0018
2280.00,0.0017
2279.00,0.0016
2278.00,0.0016
2277.00,0.0016
2276.00,0.0017
2275.00,0.0018
2274.00,0.0018
2273.00,0.0017
2272.00,0.0016
2271.00,0.0015
2270.00,0.0014
2269.00,0.0013
2268.00,0.0013
2267.00,0.0013
2266.00,0.0012
2265.00,0.0011
2264.00,0.0012
2263.00,0.0013
2262.00,0.0013
2261.00,0.0014
2260.00,0.0013
2259.00,0.0012
2258.00,0.0012
2257.00,0.0013
2256.00,0.0014
2255.00,0.0015
2254.00,0.0015
2253.00,0.0014
2252.00,0.0013
2251.00,0.0012
2250.00,0.0012
2249.00,0.0013
2248.00,0.0015
2247.00,0.0015
2246.00,0.0014
2245.00,0.0012
2244.00,0.0011
2243.00,0.0010
2242.00,0.0010
2241.00,0.0010
2240.00,0.0010
2239.00,0.0010
2238.00,0.0010
2237.00,0.0010
2236.00,0.0009
2235.00,0.0008
2234.00,0.0008
2233.00,0.0009
2232.00,0.0010
2231.00,0.0010
2230.00,0.0011
2229.00,0.0012
2228.00,0.0014
2227.00,0.0016
2226.00,0.0017
2225.00,0.0016
2224.00,0.0014
2223.00,0.0012
2222.00,0.0011
2221.00,0.0010
2220.00,0.0011
2219.00,0.0011
2218.00,0.0011
2217.00,0.0010
2216.00,0.0009
2215.00,0.0008
2214.00,0.0006
2213.00,0.0006
2212.00,0.0006
2211.00,0.0008
2210.00,0.0009
2209.00,0.0009
2208.00,0.0008
2207.00,0.0007
2206.00,0.0006
2205.00,0.0006
2204.00,0.0007
2203.00,0.0008
2202.00,0.0009
2201.00,0.0009
2200.00,0.0009
2199.00,0.0008
2198.00,0.0007
2197.00,0.0007
2196.00,0.0008
2195.00,0.0009
2194.00,0.0009
2193.00,0.0010
2192.00,0.0010
2191.00,0.0010
2190.00,0.0010
2189.00,0.0010
2188.00,0.0010
2187.00,0.0009
2186.00,0.0008
2185.00,0.0007
2184.00,0.0005
2183.00,0.0001
2182.00,-0.0001
2181.00,-0.0002
2180.00,0.0001
2179.00,0.0005
2178.00,0.0008
2177.00,0.0008
2176.00,0.0007
2175.00,0.0006
2174.00,0.0005
2173.00,0.0005
2172.00,0.0006
2171.00,0.0009
2170.00,0.0012
2169.00,0.0015
2168.00,0.0016
2167.00,0.0015
2166.00,0.0013
2165.00,0.0014
2164.00,0.0018
2163.00,0.0023
2162.00,0.0024
2161.00,0.0018
2160.00,0.0005
2159.00,-0.0012
2158.00,-0.0024
2157.00,-0.0028
2156.00,-0.0026
2155.00,-0.0023
2154.00,-0.0021
2153.00,-0.0019
2152.00,-0.0017
2151.00,-0.0016
2150.00,-0.0014
2149.00,-0.0012
2148.00,-0.0010
2147.00,-0.0008
2146.00,-0.0007
2145.00,-0.0006
2144.00,-0.0005
2143.00,-0.0005
2142.00,-0.0006
2141.00,-0.0007
2140.00,-0.0008
2139.00,-0.0010
2138.00,-0.0012
2137.00,-0.0013
2136.00,-0.0015
2135.00,-0.0016
2134.00,-0.0017
2133.00,-0.0017
2132.00,-0.0015
2131.00,-0.0013
2130.00,-0.0011
2129.00,-0.0009
2128.00,-0.0007
2127.00,-0.0005
2126.00,-0.0004
2125.00,-0.0003
2124.00,-0.0002
2123.00,-0.0000
2122.00,0.0001
2121.00,0.0002
2120.00,0.0002
2119.00,0.0002
2118.00,0.0002
2117.00,0.0002
2116.00,0.0003
2115.00,0.0005
2114.00,0.0005
2113.00,0.0005
2112.00,0.0004
2111.00,0.0004
2110.00,0.0005
2109.00,0.0006
2108.00,0.0007
2107.00,0.0006
2106.00,0.0005
2105.00,0.0004
2104.00,0.0004
2103.00,0.0003
2102.00,0.0003
2101.00,0.0002
2100.00,0.0002
2099.00,0.0002
2098.00,0.0001
2097.00,0.0001
2096.00,0.0000
2095.00,-0.0000
2094.00,0.0000
2093.00,0.0001
2092.00,0.0003
2091.00,0.0003
2090.00,0.0004
2089.00,0.0004
2088.00,0.0005
2087.00,0.0005
2086.00,0.0005
2085.00,0.0006
2084.00,0.0006
2083.00,0.0006
2082.00,0.0006
2081.00,0.0006
2080.00,0.0006
2079.00,0.0005
2078.00,0.0005
2077.00,0.0005
2076.00,0.0006
2075.00,0.0008
2074.00,0.0009
2073.00,0.0009
2072.00,0.0008
2071.00,0.0006
2070.00,0.0005
2069.00,0.0005
2068.00,0.0005
2067.00,0.0004
2066.00,0.0003
2065.00,0.0003
2064.00,0.0003
2063.00,0.0003
2062.00,0.0003
2061.00,0.0003
2060.00,0.0005
2059.00,0.0006
2058.00,0.0007
2057.00,0.0007
2056.00,0.0007
2055.00,0.0007
2054.00,0.0008
2053.00,0.0011
2052.00,0.0015
2051.00,0.0017
2050.00,0.0016
2049.00,0.0013
2048.00,0.0009
2047.00,0.0006
2046.00,0.0005
2045.00,0.0006
2044.00,0.0006
2043.00,0.0006
2042.00,0.0004
2041.00,0.0002
2040.00,0.0000
2039.00,-0.0000
2038.00,0.0001
2037.00,0.0003
2036.00,0.0004
2035.00,0.0003
2034.00,-0.0001
2033.00,-0.0004
2032.00,-0.0005
2031.00,-0.0005
2030.00,-0.0004
2029.00,-0.0004
2028.00,-0.0003
2027.00,-0.0003
2026.00,-0.0001
2025.00,0.0002
2024.00,0.0004
2023.00,0.0003
2022.00,-0.0001
2021.00,-0.0005
2020.00,-0.0007
2019.00,-0.0006
2018.00,-0.0005
2017.00,-0.0004
2016.00,-0.0005
2015.00,-0.0008
2014.00,-0.0010
2013.00,-0.0010
2012.00,-0.0009
2011.00,-0.0008
2010.00,-0.0007
2009.00,-0.0007
2008.00,-0.0009
2007.00,-0.0013
2006.00,-0.0017
2005.00,-0.0017
2004.00,-0.0014
2003.00,-0.0009
2002.00,-0.0005
2001.00,-0.0004
2000.00,-0.0005
1999.00,-0.0006
1998.00,-0.0008
1997.00,-0.0008
1996.00,-0.0008
1995.00,-0.0009
1994.00,-0.0010
1993.00,-0.0012
1992.00,-0.0011
1991.00,-0.0009
1990.00,-0.0005
1989.00,-0.0000
1988.00,0.0003
1987.00,0.0004
1986.00,0.0003
1985.00,0.0001
1984.00,0.0001
1983.00,0.0003
1982.00,0.0007
1981.00,0.0010
1980.00,0.0012
1979.00,0.0010
1978.00,0.0003
1977.00,-0.0005
1976.00,-0.0012
1975.00,-0.0016
1974.00,-0.0016
1973.00,-0.0012
1972.00,-0.0008
1971.00,-0.0005
1970.00,-0.0005
1969.00,-0.0008
1968.00,-0.0010
1967.00,-0.0010
1966.00,-0.0010
1965.00,-0.0011
1964.00,-0.0011
1963.00,-0.0012
1962.00,-0.0013
1961.00,-0.0012
1960.00,-0.0011
1959.00,-0.0011
1958.00,-0.0011
1957.00,-0.0011
1956.00,-0.0011
1955.00,-0.0012
1954.00,-0.0014
1953.00,-0.0015
1952.00,-0.0015
1951.00,-0.0015
1950.00,-0.0015
1949.00,-0.0014
1948.00,-0.0014
1947.00,-0.0014
1946.00,-0.0014
1945.00,-0.0014
1944.00,-0.0014
1943.00,-0.0013
1942.00,-0.0012
1941.00,-0.0012
1940.00,-0.0012
1939.00,-0.0012
1938.00,-0.0011
1937.00,-0.0009
1936.00,-0.0008
1935.00,-0.0007
1934.00,-0.0008
1933.00,-0.0009
1932.00,-0.0009
1931.00,-0.0009
1930.00,-0.0008
1929.00,-0.0006
1928.00,-0.0006
1927.00,-0.0006
1926.00,-0.0006
1925.00,-0.0007
1924.00,-0.0006
1923.00,-0.0004
1922.00,-0.0003
1921.00,-0.0001
1920.00,-0.0001
1919.00,-0.0001
1918.00,-0.0002
1917.00,-0.0002
1916.00,-0.0002
1915.00,-0.0001
1914.00,-0.0001
1913.00,0.0000
1912.00,0.0000
1911.00,0.0000
1910.00,0.0000
1909.00,-0.0000
1908.00,-0.0000
1907.00,-0.0001
1906.00,-0.0001
1905.00,-0.0001
1904.00,-0.0001
1903.00,-0.0000
1902.00,0.0000
1901.00,0.0000
1900.00,0.0001
1899.00,0.0001
1898.00,0.0001
1897.00,0.0002
1896.00,0.0002
1895.00,0.0002
1894.00,0.0003
1893.00,0.0003
1892.00,0.0003
1891.00,0.0003
1890.00,0.0002
1889.00,0.0001
1888.00,0.0001
1887.00,0.0001
1886.00,0.0000
1885.00,0.0000
1884.00,0.0000
1883.00,0.0000
1882.00,0.0000
1881.00,0.0001
1880.00,0.0001
1879.00,0.0001
1878.00,0.0001
1877.00,0.0000
1876.00,0.0000
1875.00,0.0000
1874.00,0.0001
1873.00,0.0002
1872.00,0.0003
1871.00,0.0004
1870.00,0.0004
1869.00,0.0005
1868.00,0.0005
1867.00,0.0005
1866.00,0.0004
1865.00,0.0002
1864.00,0.0001
1863.00,0.0001
1862.00,0.0001
1861.00,0.0002
1860.00,0.0002
1859.00,0.0002
1858.00,0.0003
1857.00,0.0003
1856.00,0.0003
1855.00,0.0002
1854.00,0.0002
1853.00,0.0002
1852.00,0.0003
1851.00,0.0003
1850.00,0.0003
1849.00,0.0003
1848.00,0.0003
1847.00,0.0003
1846.00,0.0003
1845.00,0.0004
1844.00,0.0004
1843.00,0.0004
1842.00,0.0004
1841.00,0.0005
1840.00,0.0005
1839.00,0.0006
1838.00,0.0006
1837.00,0.0006
1836.00,0.0006
1835.00,0.0006
1834.00,0.0006
1833.00,0.0005
1832.00,0.0005
1831.00,0.0005
1830.00,0.0005
1829.00,0.0006
1828.00,0.0006
1827.00,0.0006
1826.00,0.0005
1825.00,0.0005
1824.00,0.0005
1823.00,0.0005
1822.00,0.0005
1821.00,0.0004
1820.00,0.0003
1819.00,0.0002
1818.00,0.0001
1817.00,0.0000
1816.00,0.0000
1815.00,0.0001
1814.00,0.0002
1813.00,0.0003
1812.00,0.0004
1811.00,0.0004
1810.00,0.0005
1809.00,0.0005
1808.00,0.0005
1807.00,0.0005
1806.00,0.0006
1805.00,0.0006
1804.00,0.0007
1803.00,0.0007
1802.00,0.0007
1801.00,0.0006
1800.00,0.0006
1799.00,0.0006
1798.00,0.0007
1797.00,0.0007
1796.00,0.0007
1795.00,0.0008
1794.00,0.0008
1793.00,0.0008
1792.00,0.0009
1791.00,0.0009
1790.00,0.0009
1789.00,0.0010
1788.00,0.0010
1787.00,0.0010
1786.00,0.0011
1785.00,0.0012
1784.00,0.0012
1783.00,0.0012
1782.00,0.0011
1781.00,0.0011
1780.00,0.0011
1779.00,0.0010
1778.00,0.0010
1777.00,0.0010
1776.00,0.0010
1775.00,0.0010
1774.00,0.0010
1773.00,0.0010
1772.00,0.0010
1771.00,0.0010
1770.00,0.0011
1769.00,0.0011
1768.00,0.0012
1767.00,0.0013
1766.00,0.0013
1765.00,0.0013
1764.00,0.0013
1763.00,0.0014
1762.00,0.0015
1761.00,0.0015
1760.00,0.0015
1759.00,0.0015
1758.00,0.0014
1757.00,0.0015
1756.00,0.0015
1755.00,0.0016
1754.00,0.0017
1753.00,0.0017
1752.00,0.0018
1751.00,0.0018
1750.00,0.0019
1749.00,0.0019
1748.00,0.0019
1747.00,0.0020
1746.00,0.0020
1745.00,0.0021
1744.00,0.0021
1743.00,0.0021
1742.00,0.0021
1741.00,0.0021
1740.00,0.0022
1739.00,0.0022
1738.00,0.0022
1737.00,0.0022
1736.00,0.0022
1735.00,0.0021
1734.00,0.0021
1733.00,0.0022
1732.00,0.0022
1731.00,0.0022
1730.00,0.0022
1729.00,0.0022
1728.00,0.0023
1727.00,0.0023
1726.00,0.0023
1725.00,0.0023
1724.00,0.0023
1723.00,0.0023
1722.00,0.0023
1721.00,0.0023
1720.00,0.0023
1719.00,0.0023
1718.00,0.0023
1717.00,0.0023
1716.00,0.0024
1715.00,0.0024
1714.00,0.0024
1713.00,0.0024
1712.00,0.0024
1711.00,0.0024
1710.00,0.0024
1709.00,0.0025
1708.00,0.0025
1707.00,0.0025
1706.00,0.0025
1705.00,0.0026
1704.00,0.0026
1703.00,0.0027
1702.00,0.0028
1701.00,0.0028
1700.00,0.0028
1699.00,0.0029
1698.00,0.0029
1697.00,0.0029
1696.00,0.0029
1695.00,0.0029
1694.00,0.0030
1693.00,0.0030
1692.00,0.0031
1691.00,0.0031
1690.00,0.0032
1689.00,0.0032
1688.00,0.0032
1687.00,0.0032
1686.00,0.0031
1685.00,0.0032
1684.00,0.0033
1683.00,0.0034
1682.00,0.0035
1681.00,0.0036
1680.00,0.0036
1679.00,0.0037
1678.00,0.0038
1677.00,0.0038
1676.00,0.0039
1675.00,0.0040
1674.00,0.0040
1673.00,0.0040
1672.00,0.0040
1671.00,0.0041
1670.00,0.0041
1669.00,0.0042
1668.00,0.0044
1667.00,0.0045
1666.00,0.0046
1665.00,0.0046
1664.00,0.0046
1663.00,0.0046
1662.00,0.0046
1661.00,0.0047
1660.00,0.0048
1659.00,0.0049
1658.00,0.0050
1657.00,0.0050
1656.00,0.0051
1655.00,0.0052
1654.00,0.0053
1653.00,0.0053
1652.00,0.0055
1651.00,0.0055
1650.00,0.0056
1649.00,0.0058
1648.00,0.0059
1647.00,0.0061
1646.00,0.0062
1645.00,0.0062
1644.00,0.0062
1643.00,0.0062
1642.00,0.0062
1641.00,0.0062
1640.00,0.0062
1639.00,0.0062
1638.00,0.0061
1637.00,0.0060
1636.00,0.0060
1635.00,0.0060
1634.00,0.0060
1633.00,0.0060
1632.00,0.0060
1631.00,0.0060
1630.00,0.0060
1629.00,0.0059
1628.00,0.0059
1627.00,0.0058
1626.00,0.0058
1625.00,0.0057
1624.00,0.0057
1623.00,0.0056
1622.00,0.0056
1621.00,0.0056
1620.00,0.0055
1619.00,0.0055
1618.00,0.0054
1617.00,0.0053
1616.00,0.0054
1615.00,0.0054
1614.00,0.0054
1613.00,0.0054
1612.00,0.0054
1611.00,0.0054
1610.00,0.0054
1609.00,0.0054
1608.00,0.0054
1607.00,0.0054
1606.00,0.0054
1605.00,0.0054
1604.00,0.0054
1603.00,0.0053
1602.00,0.0053
1601.00,0.0053
1600.00,0.0053
1599.00,0.0053
1598.00,0.0053
1597.00,0.0054
1596.00,0.0054
1595.00,0.0055
1594.00,0.0055
1593.00,0.0055
1592.00,0.0056
1591.00,0.0056
1590.00,0.0056
1589.00,0.0056
1588.00,0.0056
1587.00,0.0056
1586.00,0.0057
1585.00,0.0058
1584.00,0.0059
1583.00,0.0059
1582.00,0.0060
1581.00,0.0060
1580.00,0.0061
1579.00,0.0062
1578.00,0.0062
1577.00,0.0062
1576.00,0.0062
1575.00,0.0061
1574.00,0.0060
1573.00,0.0060
1572.00,0.0059
1571.00,0.0059
1570.00,0.0057
1569.00,0.0056
1568.00,0.0055
1567.00,0.0055
1566.00,0.0054
1565.00,0.0054
1564.00,0.0054
1563.00,0.0055
1562.00,0.0055
1561.00,0.0056
1560.00,0.0056
1559.00,0.0055
1558.00,0.0055
1557.00,0.0055
1556.00,0.0055
1555.00,0.0056
1554.00,0.0056
1553.00,0.0057
1552.00,0.0058
1551.00,0.0058
1550.00,0.0059
1549.00,0.0060
1548.00,0.0061
1547.00,0.0063
1546.00,0.0064
1545.00,0.0066
1544.00,0.0068
1543.00,0.0069
1542.00,0.0070
1541.00,0.0071
1540.00,0.0072
1539.00,0.0073
1538.00,0.0072
1537.00,0.0072
1536.00,0.0072
1535.00,0.0072
1534.00,0.0070
1533.00,0.0069
1532.00,0.0068
1531.00,0.0067
1530.00,0.0066
1529.00,0.0066
1528.00,0.0066
1527.00,0.0065
1526.00,0.0064
1525.00,0.0064
1524.00,0.0063
1523.00,0.0062
1522.00,0.0061
1521.00,0.0060
1520.00,0.0060
1519.00,0.0060
1518.00,0.0061
1517.00,0.0062
1516.00,0.0063
1515.00,0.0063
1514.00,0.0063
1513.00,0.0063
1512.00,0.0063
1511.00,0.0064
1510.00,0.0063
1509.00,0.0064
1508.00,0.0064
1507.00,0.0064
1506.00,0.0066
1505.00,0.0068
1504.00,0.0069
1503.00,0.0071
1502.00,0.0072
1501.00,0.0075
1500.00,0.0078
1499.00,0.0080
1498.00,0.0083
1497.00,0.0088
1496.00,0.0093
1495.00,0.0097
1494.00,0.0101
1493.00,0.0104
1492.00,0.0108
1491.00,0.0110
1490.00,0.0113
1489.00,0.0118
1488.00,0.0123
1487.00,0.0127
1486.00,0.0132
1485.00,0.0138
1484.00,0.0144
1483.00,0.0151
1482.00,0.0159
1481.00,0.0169
1480.00,0.0180
1479.00,0.0191
1478.00,0.0205
1477.00,0.0224
1476.00,0.0249
1475.00,0.0277
1474.00,0.0316
1473.00,0.0373
1472.00,0.0439
1471.00,0.0503
1470.00,0.0563
1469.00,0.0626
1468.00,0.0694
1467.00,0.0768
1466.00,0.0854
1465.00,0.0947
1464.00,0.1029
1463.00,0.1088
1462.00,0.1127
1461.00,0.1155
1460.00,0.1177
1459.00,0.1193
1458.00,0.1209
1457.00,0.1224
1456.00,0.1230
1455.00,0.1227
1454.00,0.1219
1453.00,0.1205
1452.00,0.1182
1451.00,0.1147
1450.00,0.1097
1449.00,0.1026
1448.00,0.0935
1447.00,0.0837
1446.00,0.0749
1445.00,0.0672
1444.00,0.0606
1443.00,0.0551
1442.00,0.0508
1441.00,0.0479
1440.00,0.0460
1439.00,0.0450
1438.00,0.0448
1437.00,0.0446
1436.00,0.0433
1435.00,0.0408
1434.00,0.0374
1433.00,0.0333
1432.00,0.0290
1431.00,0.0252
1430.00,0.0222
1429.00,0.0199
1428.00,0.0183
1427.00,0.0173
1426.00,0.0167
1425.00,0.0160
1424.00,0.0154
1423.00,0.0150
1422.00,0.0148
1421.00,0.0146
1420.00,0.0144
1419.00,0.0141
1418.00,0.0140
1417.00,0.0137
1416.00,0.0134
1415.00,0.0132
1414.00,0.0131
1413.00,0.0129
1412.00,0.0126
1411.00,0.0124
1410.00,0.0124
1409.00,0.0123
1408.00,0.0122
1407.00,0.0122
1406.00,0.0123
1405.00,0.0123
1404.00,0.0122
1403.00,0.0123
1402.00,0.0124
1401.00,0.0125
1400.00,0.0125
1399.00,0.0127
1398.00,0.0130
1397.00,0.0132
1396.00,0.0134
1395.00,0.0138
1394.00,0.0144
1393.00,0.0149
1392.00,0.0155
1391.00,0.0163
1390.00,0.0174
1389.00,0.0190
1388.00,0.0213
1387.00,0.0248
1386.00,0.0293
1385.00,0.0352
1384.00,0.0433
1383.00,0.0545
1382.00,0.0696
1381.00,0.0887
1380.00,0.1117
1379.00,0.1369
1378.00,0.1601
1377.00,0.1756
1376.00,0.1788
1375.00,0.1674
1374.00,0.1449
1373.00,0.1193
1372.00,0.0966
1371.00,0.0782
1370.00,0.0636
1369.00,0.0525
1368.00,0.0447
1367.00,0.0399
1366.00,0.0373
1365.00,0.0362
1364.00,0.0363
1363.00,0.0375
1362.00,0.0393
1361.00,0.0413
1360.00,0.0428
1359.00,0.0432
1358.00,0.0422
1357.00,0.0398
1356.00,0.0365
1355.00,0.0328
1354.00,0.0292
1353.00,0.0261
1352.00,0.0236
1351.00,0.0216
1350.00,0.0200
1349.00,0.0186
1348.00,0.0174
1347.00,0.0164
1346.00,0.0155
1345.00,0.0148
1344.00,0.0142
1343.00,0.0137
1342.00,0.0134
1341.00,0.0131
1340.00,0.0129
1339.00,0.0127
1338.00,0.0126
1337.00,0.0126
1336.00,0.0126
1335.00,0.0127
1334.00,0.0130
1333.00,0.0133
1332.00,0.0137
1331.00,0.0139
1330.00,0.0140
1329.00,0.0139
1328.00,0.0136
1327.00,0.0132
1326.00,0.0127
1325.00,0.0121
1324.00,0.0116
1323.00,0.0111
1322.00,0.0108
1321.00,0.0105
1320.00,0.0103
1319.00,0.0101
1318.00,0.0099
1317.00,0.0098
1316.00,0.0097
1315.00,0.0096
1314.00,0.0096
1313.00,0.0096
1312.00,0.0097
1311.00,0.0099
1310.00,0.0104
1309.00,0.0112
1308.00,0.0123
1307.00,0.0137
1306.00,0.0151
1305.00,0.0161
1304.00,0.0165
1303.00,0.0161
1302.00,0.0154
1301.00,0.0146
1300.00,0.0141
1299.00,0.0138
1298.00,0.0136
1297.00,0.0135
1296.00,0.0133
1295.00,0.0130
1294.00,0.0126
1293.00,0.0121
1292.00,0.0116
1291.00,0.0111
1290.00,0.0108
1289.00,0.0104
1288.00,0.0101
1287.00,0.0098
1286.00,0.0095
1285.00,0.0092
1284.00,0.0090
1283.00,0.0088
1282.00,0.0087
1281.00,0.0086
1280.00,0.0086
1279.00,0.0085
1278.00,0.0084
1277.00,0.0084
1276.00,0.0083
1275.00,0.0083
1274.00,0.0083
1273.00,0.0083
1272.00,0.0083
1271.00,0.0084
1270.00,0.0085
1269.00,0.0087
1268.00,0.0089
1267.00,0.0092
1266.00,0.0094
1265.00,0.0098
1264.00,0.0101
1263.00,0.0105
1262.00,0.0110
1261.00,0.0115
1260.00,0.0122
1259.00,0.0131
1258.00,0.0141
1257.00,0.0150
1256.00,0.0154
1255.00,0.0151
1254.00,0.0144
1253.00,0.0133
1252.00,0.0122
1251.00,0.0112
1250.00,0.0104
1249.00,0.0098
1248.00,0.0094
1247.00,0.0091
1246.00,0.0089
1245.00,0.0087
1244.00,0.0086
1243.00,0.0085
1242.00,0.0084
1241.00,0.0083
1240.00,0.0083
1239.00,0.0082
1238.00,0.0082
1237.00,0.0081
1236.00,0.0080
1235.00,0.0080
1234.00,0.0080
1233.00,0.0079
1232.00,0.0079
1231.00,0.0079
1230.00,0.0080
1229.00,0.0081
1228.00,0.0082
1227.00,0.0083
1226.00,0.0085
1225.00,0.0088
1224.00,0.0091
1223.00,0.0094
1222.00,0.0097
1221.00,0.0099
1220.00,0.0100
1219.00,0.0100
1218.00,0.0099
1217.00,0.0097
1216.00,0.0095
1215.00,0.0092
1214.00,0.0089
1213.00,0.0086
1212.00,0.0084
1211.00,0.0082
1210.00,0.0081
1209.00,0.0080
1208.00,0.0079
1207.00,0.0078
1206.00,0.0078
1205.00,0.0077
1204.00,0.0077
1203.00,0.0076
1202.00,0.0076
1201.00,0.0076
1200.00,0.0075
1199.00,0.0075
1198.00,0.0075
1197.00,0.0075
1196.00,0.0076
1195.00,0.0076
1194.00,0.0077
1193.00,0.0076
1192.00,0.0076
1191.00,0.0075
1190.00,0.0076
1189.00,0.0076
1188.00,0.0078
1187.00,0.0079
1186.00,0.0081
1185.00,0.0082
1184.00,0.0084
1183.00,0.0086
1182.00,0.0089
1181.00,0.0092
1180.00,0.0097
1179.00,0.0103
1178.00,0.0112
1177.00,0.0123
1176.00,0.0138
1175.00,0.0158
1174.00,0.0184
1173.00,0.0216
1172.00,0.0254
1171.00,0.0294
1170.00,0.0333
1169.00,0.0363
1168.00,0.0380
1167.00,0.0381
1166.00,0.0369
1165.00,0.0347
1164.00,0.0323
1163.00,0.0299
1162.00,0.0279
1161.00,0.0263
1160.00,0.0250
1159.00,0.0240
1158.00,0.0232
1157.00,0.0226
1156.00,0.0221
1155.00,0.0217
1154.00,0.0214
1153.00,0.0209
1152.00,0.0204
1151.00,0.0196
1150.00,0.0187
1149.00,0.0177
1148.00,0.0166
1147.00,0.0157
1146.00,0.0148
1145.00,0.0140
1144.00,0.0132
1143.00,0.0125
1142.00,0.0118
1141.00,0.0112
1140.00,0.0107
1139.00,0.0102
1138.00,0.0098
1137.00,0.0094
1136.00,0.0091
1135.00,0.0089
1134.00,0.0087
1133.00,0.0085
1132.00,0.0083
1131.00,0.0082
1130.00,0.0081
1129.00,0.0081
1128.00,0.0080
1127.00,0.0080
1126.00,0.0080
1125.00,0.0081
1124.00,0.0082
1123.00,0.0082
1122.00,0.0082
1121.00,0.0082
1120.00,0.0083
1119.00,0.0085
1118.00,0.0087
1117.00,0.0088
1116.00,0.0090
1115.00,0.0091
1114.00,0.0092
1113.00,0.0093
1112.00,0.0095
1111.00,0.0098
1110.00,0.0101
1109.00,0.0106
1108.00,0.0111
1107.00,0.0116
1106.00,0.0122
1105.00,0.0127
1104.00,0.0132
1103.00,0.0134
1102.00,0.0134
1101.00,0.0131
1100.00,0.0127
1099.00,0.0121
1098.00,0.0116
1097.00,0.0111
1096.00,0.0107
1095.00,0.0103
1094.00,0.0101
1093.00,0.0098
1092.00,0.0096
1091.00,0.0093
1090.00,0.0091
1089.00,0.0090
1088.00,0.0089
1087.00,0.0089
1086.00,0.0089
1085.00,0.0089
1084.00,0.0089
1083.00,0.0088
1082.00,0.0087
1081.00,0.0085
1080.00,0.0083
1079.00,0.0082
1078.00,0.0082
1077.00,0.0082
1076.00,0.0082
1075.00,0.0082
1074.00,0.0082
1073.00,0.0082
1072.00,0.0081
1071.00,0.0080
1070.00,0.0080
1069.00,0.0080
1068.00,0.0080
1067.00,0.0081
1066.00,0.0081
1065.00,0.0082
1064.00,0.0082
1063.00,0.0082
1062.00,0.0082
1061.00,0.0083
1060.00,0.0084
1059.00,0.0085
1058.00,0.0086
1057.00,0.0086
1056.00,0.0087
1055.00,0.0087
1054.00,0.0088
1053.00,0.0089
1052.00,0.0091
1051.00,0.0093
1050.00,0.0096
1049.00,0.0099
1048.00,0.0103
1047.00,0.0107
1046.00,0.0111
1045.00,0.0113
1044.00,0.0112
1043.00,0.0110
1042.00,0.0107
1041.00,0.0103
1040.00,0.0101
1039.00,0.0100
1038.00,0.0099
1037.00,0.0099
1036.00,0.0098
1035.00,0.0096
1034.00,0.0094
1033.00,0.0092
1032.00,0.0091
1031.00,0.0090
1030.00,0.0090
1029.00,0.0090
1028.00,0.0091
1027.00,0.0091
1026.00,0.0091
1025.00,0.0091
1024.00,0.0092
1023.00,0.0092
1022.00,0.0093
1021.00,0.0093
1020.00,0.0093
1019.00,0.0093
1018.00,0.0094
1017.00,0.0095
1016.00,0.0097
1015.00,0.0100
1014.00,0.0103
1013.00,0.0107
1012.00,0.0110
1011.00,0.0113
1010.00,0.0118
1009.00,0.0123
1008.00,0.0129
1007.00,0.0138
1006.00,0.0149
1005.00,0.0163
1004.00,0.0184
1003.00,0.0214
1002.00,0.0255
1001.00,0.0304
1000.00,0.0358
999.00,0.0403
998.00,0.0427
997.00,0.0421
996.00,0.0388
995.00,0.0338
994.00,0.0286
993.00,0.0240
992.00,0.0204
991.00,0.0178
990.00,0.0160
989.00,0.0147
988.00,0.0139
987.00,0.0135
986.00,0.0133
985.00,0.0134
984.00,0.0138
983.00,0.0147
982.00,0.0160
981.00,0.0179
980.00,0.0205
979.00,0.0240
978.00,0.0285
977.00,0.0338
976.00,0.0396
975.00,0.0452
974.00,0.0493
973.00,0.0508
972.00,0.0488
971.00,0.0439
970.00,0.0373
969.00,0.0306
968.00,0.0250
967.00,0.0208
966.00,0.0177
965.00,0.0156
964.00,0.0140
963.00,0.0129
962.00,0.0120
961.00,0.0113
960.00,0.0107
959.00,0.0102
958.00,0.0098
957.00,0.0094
956.00,0.0091
955.00,0.0088
954.00,0.0086
953.00,0.0085
952.00,0.0083
951.00,0.0082
950.00,0.0082
949.00,0.0081
948.00,0.0081
947.00,0.0081
946.00,0.0082
945.00,0.0083
944.00,0.0086
943.00,0.0089
942.00,0.0092
941.00,0.0095
940.00,0.0096
939.00,0.0095
938.00,0.0091
937.00,0.0086
936.00,0.0081
935.00,0.0077
934.00,0.0073
933.00,0.0070
932.00,0.0068
931.00,0.0067
930.00,0.0066
929.00,0.0065
928.00,0.0064
927.00,0.0064
926.00,0.0063
925.00,0.0063
924.00,0.0064
923.00,0.0064
922.00,0.0064
921.00,0.0065
920.00,0.0066
919.00,0.0065
918.00,0.0065
917.00,0.0064
916.00,0.0063
915.00,0.0064
914.00,0.0066
913.00,0.0068
912.00,0.0069
911.00,0.0070
910.00,0.0070
909.00,0.0072
908.00,0.0077
907.00,0.0083
906.00,0.0091
905.00,0.0102
904.00,0.0115
903.00,0.0131
902.00,0.0147
901.00,0.0163
900.00,0.0172
899.00,0.0174
898.00,0.0167
897.00,0.0153
896.00,0.0137
895.00,0.0121
894.00,0.0108
893.00,0.0099
892.00,0.0091
891.00,0.0086
890.00,0.0082
889.00,0.0079
888.00,0.0077
887.00,0.0076
886.00,0.0076
885.00,0.0076
884.00,0.0076
883.00,0.0076
882.00,0.0077
881.00,0.0078
880.00,0.0080
879.00,0.0082
878.00,0.0084
877.00,0.0085
876.00,0.0086
875.00,0.0086
874.00,0.0087
873.00,0.0087
872.00,0.0086
871.00,0.0084
870.00,0.0083
869.00,0.0083
868.00,0.0082
867.00,0.0082
866.00,0.0082
865.00,0.0083
864.00,0.0084
863.00,0.0086
862.00,0.0087
861.00,0.0089
860.00,0.0090
859.00,0.0093
858.00,0.0096
857.00,0.0098
856.00,0.0098
855.00,0.0099
854.00,0.0100
853.00,0.0103
852.00,0.0107
851.00,0.0113
850.00,0.0120
849.00,0.0128
848.00,0.0138
847.00,0.0155
846.00,0.0182
845.00,0.0225
844.00,0.0286
843.00,0.0355
842.00,0.0410
841.00,0.0425
840.00,0.0394
839.00,0.0331
838.00,0.0264
837.00,0.0212
836.00,0.0178
835.00,0.0156
834.00,0.0141
833.00,0.0130
832.00,0.0123
831.00,0.0118
830.00,0.0116
829.00,0.0115
828.00,0.0113
827.00,0.0110
826.00,0.0108
825.00,0.0105
824.00,0.0104
823.00,0.0104
822.00,0.0105
821.00,0.0107
820.00,0.0108
819.00,0.0111
818.00,0.0115
817.00,0.0120
816.00,0.0127
815.00,0.0137
814.00,0.0150
813.00,0.0166
812.00,0.0183
811.00,0.0198
810.00,0.0208
809.00,0.0213
808.00,0.0211
807.00,0.0201
806.00,0.0185
805.00,0.0167
804.00,0.0151
803.00,0.0138
802.00,0.0129
801.00,0.0123
800.00,0.0117
799.00,0.0112
798.00,0.0107
797.00,0.0102
796.00,0.0099
795.00,0.0097
794.00,0.0095
793.00,0.0092
792.00,0.0089
791.00,0.0085
790.00,0.0082
789.00,0.0079
788.00,0.0076
787.00,0.0074
786.00,0.0072
785.00,0.0070
784.00,0.0068
783.00,0.0065
782.00,0.0063
781.00,0.0062
780.00,0.0061
779.00,0.0060
778.00,0.0059
777.00,0.0058
776.00,0.0057
775.00,0.0056
774.00,0.0057
773.00,0.0057
772.00,0.0058
771.00,0.0058
770.00,0.0060
769.00,0.0061
768.00,0.0063
767.00,0.0064
766.00,0.0063
765.00,0.0063
764.00,0.0062
763.00,0.0063
762.00,0.0064
761.00,0.0065
760.00,0.0067
759.00,0.0067
758.00,0.0066
757.00,0.0065
756.00,0.0065
755.00,0.0065
754.00,0.0065
753.00,0.0065
752.00,0.0065
751.00,0.0065
750.00,0.0065
749.00,0.0065
748.00,0.0065
747.00,0.0067
746.00,0.0069
745.00,0.0071
744.00,0.0072
743.00,0.0074
742.00,0.0076
741.00,0.0077
740.00,0.0079
739.00,0.0080
738.00,0.0083
737.00,0.0085
736.00,0.0087
735.00,0.0090
734.00,0.0094
733.00,0.0099
732.00,0.0106
731.00,0.0113
730.00,0.0119
729.00,0.0122
728.00,0.0122
727.00,0.0121
726.00,0.0121
725.00,0.0124
724.00,0.0128
723.00,0.0133
722.00,0.0137
721.00,0.0139
720.00,0.0138
719.00,0.0132
718.00,0.0124
717.00,0.0116
716.00,0.0108
715.00,0.0102
714.00,0.0096
713.00,0.0091
712.00,0.0088
711.00,0.0087
710.00,0.0086
709.00,0.0083
708.00,0.0080
707.00,0.0077
706.00,0.0075
705.00,0.0073
704.00,0.0070
703.00,0.0068
702.00,0.0067
701.00,0.0066
700.00,0.0064
699.00,0.0063
698.00,0.0062
697.00,0.0062
696.00,0.0060
695.00,0.0059
694.00,0.0059
693.00,0.0059
692.00,0.0058
691.00,0.0057
690.00,0.0056
689.00,0.0057
688.00,0.0058
687.00,0.0058
686.00,0.0058
685.00,0.0057
684.00,0.0056
683.00,0.0056
682.00,0.0057
681.00,0.0058
680.00,0.0057
679.00,0.0057
678.00,0.0056
677.00,0.0057
676.00,0.0057
675.00,0.0058
674.00,0.0058
673.00,0.0059
672.00,0.0059
671.00,0.0059
670.00,0.0060
669.00,0.0062
668.00,0.0066
667.00,0.0070
666.00,0.0070
665.00,0.0067
664.00,0.0064
663.00,0.0061
662.00,0.0060
661.00,0.0060
660.00,0.0060
659.00,0.0059
658.00,0.0057
657.00,0.0056
656.00,0.0057
655.00,0.0058
654.00,0.0060
653.00,0.0061
652.00,0.0062
651.00,0.0062
650.00,0.0062
649.00,0.0059
648.00,0.0056
647.00,0.0052
646.00,0.0050
645.00,0.0051
644.00,0.0054
643.00,0.0057
642.00,0.0059
641.00,0.0060
640.00,0.0060
639.00,0.0059
638.00,0.0059
637.00,0.0059
636.00,0.0059
635.00,0.0060
634.00,0.0060
633.00,0.0060
632.00,0.0060
631.00,0.0060
630.00,0.0060
629.00,0.0061
628.00,0.0062
627.00,0.0062
626.00,0.0062
625.00,0.0062
624.00,0.0063
623.00,0.0065
622.00,0.0066
621.00,0.0065
620.00,0.0062
619.00,0.0059
618.00,0.0057
617.00,0.0056
616.00,0.0056
615.00,0.0056
614.00,0.0057
613.00,0.0061
612.00,0.0065
611.00,0.0068
610.00,0.0068
609.00,0.0065
608.00,0.0061
607.00,0.0056
606.00,0.0053
605.00,0.0053
604.00,0.0055
603.00,0.0059
602.00,0.0063
601.00,0.0063
600.00,0.0062
599.00,0.0059
598.00,0.0057
597.00,0.0057
596.00,0.0058
595.00,0.0062
594.00,0.0067
593.00,0.0070
592.00,0.0071
591.00,0.0071
590.00,0.0071
589.00,0.0071
588.00,0.0072
587.00,0.0072
586.00,0.0071
585.00,0.0069
584.00,0.0068
583.00,0.0071
582.00,0.0077
581.00,0.0083
580.00,0.0086
579.00,0.0084
578.00,0.0080
577.00,0.0076
576.00,0.0073
575.00,0.0073
574.00,0.0074
573.00,0.0077
572.00,0.0077
571.00,0.0076
570.00,0.0072
569.00,0.0068
568.00,0.0064
567.00,0.0063
566.00,0.0064
565.00,0.0066
564.00,0.0067
563.00,0.0068
562.00,0.0068
561.00,0.0069
560.00,0.0069
559.00,0.0071
558.00,0.0076
557.00,0.0081
556.00,0.0083
555.00,0.0079
554.00,0.0072
553.00,0.0066
552.00,0.0063
551.00,0.0061
550.00,0.0061
549.00,0.0060
548.00,0.0060
547.00,0.0061
546.00,0.0064
545.00,0.0070
544.00,0.0077
543.00,0.0082
542.00,0.0084
541.00,0.0083
540.00,0.0080
539.00,0.0077
538.00,0.0075
537.00,0.0074
536.00,0.0073
535.00,0.0071
534.00,0.0067
533.00,0.0061
532.00,0.0056
531.00,0.0054
530.00,0.0054
529.00,0.0055
528.00,0.0057
527.00,0.0061
526.00,0.0066
525.00,0.0073
524.00,0.0079
523.00,0.0082
522.00,0.0081
521.00,0.0072
520.00,0.0061
519.00,0.0051
518.00,0.0049
517.00,0.0052
516.00,0.0058
515.00,0.0066
514.00,0.0074
513.00,0.0078
512.00,0.0078
511.00,0.0074
510.00,0.0069
509.00,0.0063
508.00,0.0055
507.00,0.0049
506.00,0.0049
505.00,0.0055
504.00,0.0062
503.00,0.0066
502.00,0.0067
501.00,0.0072
500.00,0.0079
499.00,0.0086
498.00,0.0087
497.00,0.0081
496.00,0.0071
495.00,0.0064
494.00,0.0063
493.00,0.0067
492.00,0.0071
491.00,0.0070
490.00,0.0064
489.00,0.0059
488.00,0.0058
487.00,0.0058
486.00,0.0057
485.00,0.0051
484.00,0.0043
483.00,0.0042
482.00,0.0054
481.00,0.0069
480.00,0.0076
479.00,0.0072
478.00,0.0065
477.00,0.0067
476.00,0.0080
475.00,0.0094
474.00,0.0102
473.00,0.0100
472.00,0.0093
471.00,0.0087
470.00,0.0085
469.00,0.0085
468.00,0.0086
467.00,0.0083
466.00,0.0079
465.00,0.0076
464.00,0.0081
463.00,0.0099
462.00,0.0126
461.00,0.0151
460.00,0.0165
459.00,0.0166
458.00,0.0153
457.00,0.0131
456.00,0.0110
455.00,0.0098
454.00,0.0098
453.00,0.0107
452.00,0.0112
451.00,0.0104
450.00,0.0085
