Created as New Dataset,Sample 098 By Administrator Date Wednesday, September 10 2025
cm-1,A
4000.00,0.0008
3999.00,0.0008
3998.00,0.0009
3997.00,0.0009
3996.00,0.0009
3995.00,0.0009
3994.00,0.0009
3993.00,0.0009
3992.00,0.0009
3991.00,0.0009
3990.00,0.0008
3989.00,0.0008
3988.00,0.0008
3987.00,0.0008
3986.00,0.0008
3985.00,0.0008
3984.00,0.0008
3983.00,0.0007
3982.00,0.0007
3981.00,0.0007
3980.00,0.0007
3979.00,0.0007
3978.00,0.0007
3977.00,0.0007
3976.00,0.0007
3975.00,0.0007
3974.00,0.0008
3973.00,0.0008
3972.00,0.0008
3971.00,0.0008
3970.00,0.0008
3969.00,0.0007
3968.00,0.0007
3967.00,0.0007
3966.00,0.0008
3965.00,0.0008
3964.00,0.0008
3963.00,0.0008
3962.00,0.0007
3961.00,0.0007
3960.00,0.0007
3959.00,0.0007
3958.00,0.0006
3957.00,0.0006
3956.00,0.0006
3955.00,0.0006
3954.00,0.0006
3953.00,0.0006
3952.00,0.0006
3951.00,0.0006
3950.00,0.0006
3949.00,0.0006
3948.00,0.0006
3947.00,0.0006
3946.00,0.0006
3945.00,0.0006
3944.00,0.0006
3943.00,0.0007
3942.00,0.0007
3941.00,0.0007
3940.00,0.0007
3939.00,0.0007
3938.00,0.0007
3937.00,0.0007
3936.00,0.0007
3935.00,0.0007
3934.00,0.0007
3933.00,0.0007
3932.00,0.0007
3931.00,0.0007
3930.00,0.0007
3929.00,0.0007
3928.00,0.0007
3927.00,0.0007
3926.00,0.0007
3925.00,0.0006
3924.00,0.0007
3923.00,0.0007
3922.00,0.0007
3921.00,0.0008
3920.00,0.0008
3919.00,0.0007
3918.00,0.0007
3917.00,0.0007
3916.00,0.0006
3915.00,0.0006
3914.00,0.0006
3913.00,0.0006
3912.00,0.0006
3911.00,0.0006
3910.00,0.0006
3909.00,0.0006
3908.00,0.0006
3907.00,0.0006
3906.00,0.0006
3905.00,0.0006
3904.00,0.0006
3903.00,0.0006
3902.00,0.0006
3901.00,0.0006
3900.00,0.0006
3899.00,0.0006
3898.00,0.0006
3897.00,0.0006
3896.00,0.0006
3895.00,0.0006
3894.00,0.0006
3893.00,0.0006
3892.00,0.0007
3891.00,0.0007
3890.00,0.0007
3889.00,0.0007
3888.00,0.0007
3887.00,0.0006
3886.00,0.0006
3885.00,0.0007
3884.00,0.0007
3883.00,0.0008
3882.00,0.0007
3881.00,0.0007
3880.00,0.0007
3879.00,0.0007
3878.00,0.0007
3877.00,0.0007
3876.00,0.0007
3875.00,0.0007
3874.00,0.0007
3873.00,0.0007
3872.00,0.0007
3871.00,0.0006
3870.00,0.0006
3869.00,0.0006
3868.00,0.0007
3867.00,0.0007
3866.00,0.0007
3865.00,0.0007
3864.00,0.0007
3863.00,0.0007
3862.00,0.0006
3861.00,0.0006
3860.00,0.0006
3859.00,0.0006
3858.00,0.0007
3857.00,0.0008
3856.00,0.0008
3855.00,0.0008
3854.00,0.0007
3853.00,0.0006
3852.00,0.0006
3851.00,0.0006
3850.00,0.0006
3849.00,0.0006
3848.00,0.0006
3847.00,0.0005
3846.00,0.0005
3845.00,0.0005
3844.00,0.0005
3843.00,0.0005
3842.00,0.0006
3841.00,0.0006
3840.00,0.0006
3839.00,0.0006
3838.00,0.0006
3837.00,0.0006
3836.00,0.0006
3835.00,0.0007
3834.00,0.0007
3833.00,0.0007
3832.00,0.0007
3831.00,0.0007
3830.00,0.0007
3829.00,0.0007
3828.00,0.0006
3827.00,0.0006
3826.00,0.0007
3825.00,0.0007
3824.00,0.0008
3823.00,0.0008
3822.00,0.0008
3821.00,0.0008
3820.00,0.0008
3819.00,0.0008
3818.00,0.0007
3817.00,0.0006
3816.00,0.0006
3815.00,0.0007
3814.00,0.0006
3813.00,0.0006
3812.00,0.0006
3811.00,0.0006
3810.00,0.0007
3809.00,0.0007
3808.00,0.0007
3807.00,0.0008
3806.00,0.0008
3805.00,0.0008
3804.00,0.0008
3803.00,0.0008
3802.00,0.0007
3801.00,0.0007
3800.00,0.0007
3799.00,0.0006
3798.00,0.0005
3797.00,0.0005
3796.00,0.0006
3795.00,0.0006
3794.00,0.0006
3793.00,0.0006
3792.00,0.0006
3791.00,0.0006
3790.00,0.0006
3789.00,0.0007
3788.00,0.0007
3787.00,0.0007
3786.00,0.0007
3785.00,0.0007
3784.00,0.0006
3783.00,0.0006
3782.00,0.0006
3781.00,0.0007
3780.00,0.0007
3779.00,0.0007
3778.00,0.0008
3777.00,0.0007
3776.00,0.0007
3775.00,0.0007
3774.00,0.0008
3773.00,0.0008
3772.00,0.0007
3771.00,0.0007
3770.00,0.0007
3769.00,0.0007
3768.00,0.0007
3767.00,0.0007
3766.00,0.0007
3765.00,0.0007
3764.00,0.0007
3763.00,0.0007
3762.00,0.0007
3761.00,0.0007
3760.00,0.0007
3759.00,0.0007
3758.00,0.0007
3757.00,0.0007
3756.00,0.0007
3755.00,0.0008
3754.00,0.0009
3753.00,0.0009
3752.00,0.0010
3751.00,0.0009
3750.00,0.0008
3749.00,0.0008
3748.00,0.0008
3747.00,0.0008
3746.00,0.0007
3745.00,0.0007
3744.00,0.0007
3743.00,0.0007
3742.00,0.0007
3741.00,0.0007
3740.00,0.0007
3739.00,0.0008
3738.00,0.0008
3737.00,0.0007
3736.00,0.0007
3735.00,0.0007
3734.00,0.0007
3733.00,0.0007
3732.00,0.0007
3731.00,0.0006
3730.00,0.0006
3729.00,0.0006
3728.00,0.0006
3727.00,0.0006
3726.00,0.0006
3725.00,0.0005
3724.00,0.0005
3723.00,0.0005
3722.00,0.0005
3721.00,0.0005
3720.00,0.0005
3719.00,0.0006
3718.00,0.0006
3717.00,0.0007
3716.00,0.0007
3715.00,0.0007
3714.00,0.0007
3713.00,0.0007
3712.00,0.0007
3711.00,0.0007
3710.00,0.0006
3709.00,0.0006
3708.00,0.0005
3707.00,0.0005
3706.00,0.0005
3705.00,0.0004
3704.00,0.0004
3703.00,0.0004
3702.00,0.0004
3701.00,0.0004
3700.00,0.0005
3699.00,0.0005
3698.00,0.0005
3697.00,0.0005
3696.00,0.0005
3695.00,0.0005
3694.00,0.0006
3693.00,0.0006
3692.00,0.0006
3691.00,0.0007
3690.00,0.0007
3689.00,0.0007
3688.00,0.0006
3687.00,0.0006
3686.00,0.0006
3685.00,0.0006
3684.00,0.0006
3683.00,0.0007
3682.00,0.0007
3681.00,0.0007
3680.00,0.0008
3679.00,0.0008
3678.00,0.0008
3677.00,0.0008
3676.00,0.0008
3675.00,0.0008
3674.00,0.0008
3673.00,0.0008
3672.00,0.0007
3671.00,0.0006
3670.00,0.0006
3669.00,0.0006
3668.00,0.0006
3667.00,0.0005
3666.00,0.0005
3665.00,0.0006
3664.00,0.0006
3663.00,0.0006
3662.00,0.0007
3661.00,0.0007
3660.00,0.0007
3659.00,0.0008
3658.00,0.0008
3657.00,0.0008
3656.00,0.0008
3655.00,0.0008
3654.00,0.0008
3653.00,0.0008
3652.00,0.0007
3651.00,0.0007
3650.00,0.0007
3649.00,0.0007
3648.00,0.0007
3647.00,0.0007
3646.00,0.0008
3645.00,0.0008
3644.00,0.0007
3643.00,0.0007
3642.00,0.0007
3641.00,0.0007
3640.00,0.0007
3639.00,0.0008
3638.00,0.0008
3637.00,0.0009
3636.00,0.0009
3635.00,0.0010
3634.00,0.0010
3633.00,0.0010
3632.00,0.0010
3631.00,0.0009
3630.00,0.0009
3629.00,0.0009
3628.00,0.0009
3627.00,0.0009
3626.00,0.0009
3625.00,0.0009
3624.00,0.0009
3623.00,0.0009
3622.00,0.0009
3621.00,0.0010
3620.00,0.0010
3619.00,0.0010
3618.00,0.0010
3617.00,0.0011
3616.00,0.0010
3615.00,0.0010
3614.00,0.0010
3613.00,0.0011
3612.00,0.0011
3611.00,0.0011
3610.00,0.0011
3609.00,0.0011
3608.00,0.0011
3607.00,0.0011
3606.00,0.0012
3605.00,0.0012
3604.00,0.0013
3603.00,0.0013
3602.00,0.0013
3601.00,0.0013
3600.00,0.0013
3599.00,0.0013
3598.00,0.0014
3597.00,0.0014
3596.00,0.0014
3595.00,0.0014
3594.00,0.0014
3593.00,0.0014
3592.00,0.0015
3591.00,0.0015
3590.00,0.0015
3589.00,0.0015
3588.00,0.0015
3587.00,0.0016
3586.00,0.0016
3585.00,0.0016
3584.00,0.0016
3583.00,0.0016
3582.00,0.0017
3581.00,0.0017
3580.00,0.0018
3579.00,0.0018
3578.00,0.0018
3577.00,0.0018
3576.00,0.0018
3575.00,0.0018
3574.00,0.0018
3573.00,0.0019
3572.00,0.0019
3571.00,0.0020
3570.00,0.0020
3569.00,0.0020
3568.00,0.0020
3567.00,0.0020
3566.00,0.0021
3565.00,0.0021
3564.00,0.0021
3563.00,0.0022
3562.00,0.0022
3561.00,0.0022
3560.00,0.0022
3559.00,0.0022
3558.00,0.0022
3557.00,0.0023
3556.00,0.0023
3555.00,0.0023
3554.00,0.0024
3553.00,0.0024
3552.00,0.0024
3551.00,0.0025
3550.00,0.0025
3549.00,0.0026
3548.00,0.0027
3547.00,0.0027
3546.00,0.0028
3545.00,0.0028
3544.00,0.0028
3543.00,0.0029
3542.00,0.0029
3541.00,0.0029
3540.00,0.0030
3539.00,0.0030
3538.00,0.0030
3537.00,0.0030
3536.00,0.0030
3535.00,0.0031
3534.00,0.0031
3533.00,0.0031
3532.00,0.0031
3531.00,0.0032
3530.00,0.0032
3529.00,0.0032
3528.00,0.0033
3527.00,0.0033
3526.00,0.0034
3525.00,0.0034
3524.00,0.0034
3523.00,0.0034
3522.00,0.0034
3521.00,0.0034
3520.00,0.0035
3519.00,0.0035
3518.00,0.0035
3517.00,0.0036
3516.00,0.0036
3515.00,0.0037
3514.00,0.0037
3513.00,0.0037
3512.00,0.0037
3511.00,0.0037
3510.00,0.0037
3509.00,0.0037
3508.00,0.0037
3507.00,0.0038
3506.00,0.0039
3505.00,0.0040
3504.00,0.0040
3503.00,0.0041
3502.00,0.0041
3501.00,0.0041
3500.00,0.0042
3499.00,0.0042
3498.00,0.0042
3497.00,0.0042
3496.00,0.0042
3495.00,0.0042
3494.00,0.0043
3493.00,0.0043
3492.00,0.0043
3491.00,0.0043
3490.00,0.0044
3489.00,0.0044
3488.00,0.0045
3487.00,0.0045
3486.00,0.0045
3485.00,0.0046
3484.00,0.0047
3483.00,0.0047
3482.00,0.0048
3481.00,0.0048
3480.00,0.0048
3479.00,0.0048
3478.00,0.0048
3477.00,0.0048
3476.00,0.0049
3475.00,0.0049
3474.00,0.0050
3473.00,0.0050
3472.00,0.0051
3471.00,0.0051
3470.00,0.0051
3469.00,0.0051
3468.00,0.0051
3467.00,0.0051
3466.00,0.0051
3465.00,0.0052
3464.00,0.0052
3463.00,0.0053
3462.00,0.0053
3461.00,0.0053
3460.00,0.0053
3459.00,0.0053
3458.00,0.0054
3457.00,0.0055
3456.00,0.0055
3455.00,0.0055
3454.00,0.0055
3453.00,0.0055
3452.00,0.0055
3451.00,0.0055
3450.00,0.0055
3449.00,0.0056
3448.00,0.0056
3447.00,0.0057
3446.00,0.0057
3445.00,0.0057
3444.00,0.0058
3443.00,0.0058
3442.00,0.0059
3441.00,0.0059
3440.00,0.0059
3439.00,0.0060
3438.00,0.0060
3437.00,0.0060
3436.00,0.0060
3435.00,0.0060
3434.00,0.0061
3433.00,0.0061
3432.00,0.0061
3431.00,0.0061
3430.00,0.0062
3429.00,0.0062
3428.00,0.0062
3427.00,0.0062
3426.00,0.0062
3425.00,0.0062
3424.00,0.0062
3423.00,0.0063
3422.00,0.0063
3421.00,0.0064
3420.00,0.0064
3419.00,0.0064
3418.00,0.0064
3417.00,0.0064
3416.00,0.0065
3415.00,0.0065
3414.00,0.0065
3413.00,0.0065
3412.00,0.0065
3411.00,0.0066
3410.00,0.0066
3409.00,0.0066
3408.00,0.0066
3407.00,0.0067
3406.00,0.0067
3405.00,0.0068
3404.00,0.0068
3403.00,0.0069
3402.00,0.0069
3401.00,0.0070
3400.00,0.0070
3399.00,0.0070
3398.00,0.0070
3397.00,0.0071
3396.00,0.0071
3395.00,0.0072
3394.00,0.0072
3393.00,0.0071
3392.00,0.0071
3391.00,0.0071
3390.00,0.0070
3389.00,0.0070
3388.00,0.0070
3387.00,0.0070
3386.00,0.0070
3385.00,0.0070
3384.00,0.0070
3383.00,0.0069
3382.00,0.0069
3381.00,0.0069
3380.00,0.0069
3379.00,0.0069
3378.00,0.0069
3377.00,0.0069
3376.00,0.0069
3375.00,0.0069
3374.00,0.0069
3373.00,0.0069
3372.00,0.0069
3371.00,0.0070
3370.00,0.0070
3369.00,0.0069
3368.00,0.0069
3367.00,0.0069
3366.00,0.0069
3365.00,0.0069
3364.00,0.0069
3363.00,0.0069
3362.00,0.0069
3361.00,0.0069
3360.00,0.0069
3359.00,0.0068
3358.00,0.0068
3357.00,0.0068
3356.00,0.0068
3355.00,0.0068
3354.00,0.0069
3353.00,0.0069
3352.00,0.0069
3351.00,0.0069
3350.00,0.0068
3349.00,0.0068
3348.00,0.0068
3347.00,0.0068
3346.00,0.0069
3345.00,0.0069
3344.00,0.0069
3343.00,0.0069
3342.00,0.0068
3341.00,0.0068
3340.00,0.0068
3339.00,0.0068
3338.00,0.0067
3337.00,0.0067
3336.00,0.0067
3335.00,0.0066
3334.00,0.0066
3333.00,0.0066
3332.00,0.0066
3331.00,0.0066
3330.00,0.0066
3329.00,0.0066
3328.00,0.0066
3327.00,0.0065
3326.00,0.0065
3325.00,0.0065
3324.00,0.0065
3323.00,0.0065
3322.00,0.0064
3321.00,0.0064
3320.00,0.0064
3319.00,0.0064
3318.00,0.0065
3317.00,0.0065
3316.00,0.0065
3315.00,0.0064
3314.00,0.0064
3313.00,0.0064
3312.00,0.0064
3311.00,0.0064
3310.00,0.0064
3309.00,0.0064
3308.00,0.0064
3307.00,0.0064
3306.00,0.0064
3305.00,0.0063
3304.00,0.0063
3303.00,0.0063
3302.00,0.0063
3301.00,0.0062
3300.00,0.0062
3299.00,0.0062
3298.00,0.0062
3297.00,0.0062
3296.00,0.0062
3295.00,0.0061
3294.00,0.0061
3293.00,0.0060
3292.00,0.0060
3291.00,0.0060
3290.00,0.0060
3289.00,0.0060
3288.00,0.0060
3287.00,0.0060
3286.00,0.0060
3285.00,0.0060
3284.00,0.0060
3283.00,0.0059
3282.00,0.0059
3281.00,0.0059
3280.00,0.0059
3279.00,0.0059
3278.00,0.0059
3277.00,0.0059
3276.00,0.0058
3275.00,0.0058
3274.00,0.0058
3273.00,0.0057
3272.00,0.0057
3271.00,0.0057
3270.00,0.0057
3269.00,0.0057
3268.00,0.0056
3267.00,0.0056
3266.00,0.0055
3265.00,0.0055
3264.00,0.0055
3263.00,0.0055
3262.00,0.0055
3261.00,0.0055
3260.00,0.0055
3259.00,0.0055
3258.00,0.0055
3257.00,0.0055
3256.00,0.0054
3255.00,0.0054
3254.00,0.0053
3253.00,0.0053
3252.00,0.0053
3251.00,0.0053
3250.00,0.0052
3249.00,0.0052
3248.00,0.0052
3247.00,0.0053
3246.00,0.0053
3245.00,0.0053
3244.00,0.0053
3243.00,0.0053
3242.00,0.0053
3241.00,0.0053
3240.00,0.0053
3239.00,0.0052
3238.00,0.0052
3237.00,0.0052
3236.00,0.0052
3235.00,0.0052
3234.00,0.0052
3233.00,0.0052
3232.00,0.0052
3231.00,0.0052
3230.00,0.0052
3229.00,0.0051
3228.00,0.0051
3227.00,0.0051
3226.00,0.0051
3225.00,0.0051
3224.00,0.0052
3223.00,0.0052
3222.00,0.0053
3221.00,0.0053
3220.00,0.0053
3219.00,0.0053
3218.00,0.0053
3217.00,0.0053
3216.00,0.0053
3215.00,0.0054
3214.00,0.0054
3213.00,0.0055
3212.00,0.0055
3211.00,0.0055
3210.00,0.0055
3209.00,0.0055
3208.00,0.0055
3207.00,0.0055
3206.00,0.0055
3205.00,0.0056
3204.00,0.0056
3203.00,0.0056
3202.00,0.0056
3201.00,0.0056
3200.00,0.0056
3199.00,0.0056
3198.00,0.0057
3197.00,0.0057
3196.00,0.0057
3195.00,0.0057
3194.00,0.0057
3193.00,0.0057
3192.00,0.0057
3191.00,0.0057
3190.00,0.0057
3189.00,0.0056
3188.00,0.0056
3187.00,0.0055
3186.00,0.0055
3185.00,0.0055
3184.00,0.0055
3183.00,0.0055
3182.00,0.0055
3181.00,0.0054
3180.00,0.0054
3179.00,0.0053
3178.00,0.0053
3177.00,0.0053
3176.00,0.0052
3175.00,0.0052
3174.00,0.0051
3173.00,0.0051
3172.00,0.0050
3171.00,0.0050
3170.00,0.0050
3169.00,0.0050
3168.00,0.0050
3167.00,0.0050
3166.00,0.0049
3165.00,0.0049
3164.00,0.0048
3163.00,0.0048
3162.00,0.0047
3161.00,0.0047
3160.00,0.0048
3159.00,0.0048
3158.00,0.0048
3157.00,0.0049
3156.00,0.0048
3155.00,0.0048
3154.00,0.0047
3153.00,0.0046
3152.00,0.0046
3151.00,0.0046
3150.00,0.0045
3149.00,0.0045
3148.00,0.0045
3147.00,0.0046
3146.00,0.0046
3145.00,0.0046
3144.00,0.0046
3143.00,0.0046
3142.00,0.0046
3141.00,0.0046
3140.00,0.0045
3139.00,0.0045
3138.00,0.0044
3137.00,0.0044
3136.00,0.0044
3135.00,0.0044
3134.00,0.0043
3133.00,0.0043
3132.00,0.0043
3131.00,0.0042
3130.00,0.0042
3129.00,0.0041
3128.00,0.0041
3127.00,0.0041
3126.00,0.0041
3125.00,0.0041
3124.00,0.0041
3123.00,0.0041
3122.00,0.0040
3121.00,0.0040
3120.00,0.0039
3119.00,0.0039
3118.00,0.0038
3117.00,0.0038
3116.00,0.0037
3115.00,0.0037
3114.00,0.0036
3113.00,0.0036
3112.00,0.0036
3111.00,0.0037
3110.00,0.0037
3109.00,0.0037
3108.00,0.0037
3107.00,0.0037
3106.00,0.0037
3105.00,0.0037
3104.00,0.0036
3103.00,0.0036
3102.00,0.0036
3101.00,0.0035
3100.00,0.0035
3099.00,0.0035
3098.00,0.0035
3097.00,0.0036
3096.00,0.0036
3095.00,0.0036
3094.00,0.0036
3093.00,0.0036
3092.00,0.0035
3091.00,0.0035
3090.00,0.0034
3089.00,0.0034
3088.00,0.0034
3087.00,0.0033
3086.00,0.0033
3085.00,0.0033
3084.00,0.0033
3083.00,0.0032
3082.00,0.0032
3081.00,0.0032
3080.00,0.0032
3079.00,0.0033
3078.00,0.0033
3077.00,0.0034
3076.00,0.0034
3075.00,0.0034
3074.00,0.0034
3073.00,0.0034
3072.00,0.0034
3071.00,0.0034
3070.00,0.0034
3069.00,0.0034
3068.00,0.0035
3067.00,0.0035
3066.00,0.0035
3065.00,0.0035
3064.00,0.0035
3063.00,0.0034
3062.00,0.0034
3061.00,0.0034
3060.00,0.0035
3059.00,0.0035
3058.00,0.0036
3057.00,0.0036
3056.00,0.0036
3055.00,0.0036
3054.00,0.0037
3053.00,0.0037
3052.00,0.0038
3051.00,0.0038
3050.00,0.0038
3049.00,0.0038
3048.00,0.0038
3047.00,0.0038
3046.00,0.0038
3045.00,0.0038
3044.00,0.0038
3043.00,0.0038
3042.00,0.0038
3041.00,0.0039
3040.00,0.0039
3039.00,0.0039
3038.00,0.0040
3037.00,0.0040
3036.00,0.0040
3035.00,0.0041
3034.00,0.0041
3033.00,0.0041
3032.00,0.0042
3031.00,0.0042
3030.00,0.0042
3029.00,0.0043
3028.00,0.0043
3027.00,0.0044
3026.00,0.0044
3025.00,0.0045
3024.00,0.0046
3023.00,0.0047
3022.00,0.0047
3021.00,0.0048
3020.00,0.0049
3019.00,0.0050
3018.00,0.0051
3017.00,0.0052
3016.00,0.0053
3015.00,0.0054
3014.00,0.0056
3013.00,0.0057
3012.00,0.0058
3011.00,0.0060
3010.00,0.0061
3009.00,0.0063
3008.00,0.0064
3007.00,0.0066
3006.00,0.0068
3005.00,0.0070
3004.00,0.0073
3003.00,0.0076
3002.00,0.0078
3001.00,0.0081
3000.00,0.0084
2999.00,0.0087
2998.00,0.0090
2997.00,0.0093
2996.00,0.0097
2995.00,0.0102
2994.00,0.0106
2993.00,0.0111
2992.00,0.0117
2991.00,0.0123
2990.00,0.0130
2989.00,0.0138
2988.00,0.0146
2987.00,0.0156
2986.00,0.0167
2985.00,0.0179
2984.00,0.0193
2983.00,0.0209
2982.00,0.0226
2981.00,0.0245
2980.00,0.0266
2979.00,0.0289
2978.00,0.0316
2977.00,0.0346
2976.00,0.0381
2975.00,0.0421
2974.00,0.0466
2973.00,0.0519
2972.00,0.0578
2971.00,0.0645
2970.00,0.0720
2969.00,0.0803
2968.00,0.0894
2967.00,0.0994
2966.00,0.1102
2965.00,0.1215
2964.00,0.1331
2963.00,0.1445
2962.00,0.1551
2961.00,0.1645
2960.00,0.1721
2959.00,0.1778
2958.00,0.1819
2957.00,0.1848
2956.00,0.1872
2955.00,0.1897
2954.00,0.1925
2953.00,0.1955
2952.00,0.1981
2951.00,0.1995
2950.00,0.1988
2949.00,0.1951
2948.00,0.1882
2947.00,0.1783
2946.00,0.1662
2945.00,0.1532
2944.00,0.1404
2943.00,0.1290
2942.00,0.1198
2941.00,0.1130
2940.00,0.1088
2939.00,0.1068
2938.00,0.1070
2937.00,0.1090
2936.00,0.1125
2935.00,0.1176
2934.00,0.1239
2933.00,0.1314
2932.00,0.1399
2931.00,0.1492
2930.00,0.1590
2929.00,0.1689
2928.00,0.1786
2927.00,0.1879
2926.00,0.1966
2925.00,0.2048
2924.00,0.2126
2923.00,0.2200
2922.00,0.2272
2921.00,0.2339
2920.00,0.2396
2919.00,0.2439
2918.00,0.2460
2917.00,0.2454
2916.00,0.2423
2915.00,0.2368
2914.00,0.2299
2913.00,0.2221
2912.00,0.2144
2911.00,0.2072
2910.00,0.2007
2909.00,0.1948
2908.00,0.1892
2907.00,0.1838
2906.00,0.1781
2905.00,0.1721
2904.00,0.1658
2903.00,0.1591
2902.00,0.1524
2901.00,0.1455
2900.00,0.1388
2899.00,0.1324
2898.00,0.1264
2897.00,0.1210
2896.00,0.1162
2895.00,0.1121
2894.00,0.1087
2893.00,0.1060
2892.00,0.1040
2891.00,0.1026
2890.00,0.1018
2889.00,0.1015
2888.00,0.1015
2887.00,0.1019
2886.00,0.1027
2885.00,0.1037
2884.00,0.1052
2883.00,0.1070
2882.00,0.1092
2881.00,0.1116
2880.00,0.1138
2879.00,0.1157
2878.00,0.1168
2877.00,0.1171
2876.00,0.1167
2875.00,0.1159
2874.00,0.1152
2873.00,0.1150
2872.00,0.1155
2871.00,0.1168
2870.00,0.1185
2869.00,0.1202
2868.00,0.1213
2867.00,0.1210
2866.00,0.1186
2865.00,0.1139
2864.00,0.1072
2863.00,0.0991
2862.00,0.0908
2861.00,0.0829
2860.00,0.0762
2859.00,0.0708
2858.00,0.0668
2857.00,0.0640
2856.00,0.0621
2855.00,0.0611
2854.00,0.0608
2853.00,0.0611
2852.00,0.0619
2851.00,0.0634
2850.00,0.0654
2849.00,0.0680
2848.00,0.0712
2847.00,0.0752
2846.00,0.0801
2845.00,0.0859
2844.00,0.0925
2843.00,0.0998
2842.00,0.1073
2841.00,0.1145
2840.00,0.1205
2839.00,0.1244
2838.00,0.1253
2837.00,0.1227
2836.00,0.1166
2835.00,0.1077
2834.00,0.0969
2833.00,0.0856
2832.00,0.0748
2831.00,0.0652
2830.00,0.0571
2829.00,0.0505
2828.00,0.0451
2827.00,0.0408
2826.00,0.0372
2825.00,0.0343
2824.00,0.0318
2823.00,0.0297
2822.00,0.0279
2821.00,0.0264
2820.00,0.0251
2819.00,0.0239
2818.00,0.0229
2817.00,0.0220
2816.00,0.0212
2815.00,0.0205
2814.00,0.0199
2813.00,0.0193
2812.00,0.0188
2811.00,0.0183
2810.00,0.0178
2809.00,0.0172
2808.00,0.0167
2807.00,0.0161
2806.00,0.0155
2805.00,0.0148
2804.00,0.0142
2803.00,0.0136
2802.00,0.0130
2801.00,0.0126
2800.00,0.0122
2799.00,0.0119
2798.00,0.0117
2797.00,0.0114
2796.00,0.0112
2795.00,0.0110
2794.00,0.0107
2793.00,0.0104
2792.00,0.0101
2791.00,0.0097
2790.00,0.0094
2789.00,0.0091
2788.00,0.0087
2787.00,0.0084
2786.00,0.0081
2785.00,0.0079
2784.00,0.0076
2783.00,0.0074
2782.00,0.0072
2781.00,0.0070
2780.00,0.0068
2779.00,0.0066
2778.00,0.0064
2777.00,0.0063
2776.00,0.0061
2775.00,0.0060
2774.00,0.0059
2773.00,0.0058
2772.00,0.0057
2771.00,0.0057
2770.00,0.0056
2769.00,0.0056
2768.00,0.0056
2767.00,0.0056
2766.00,0.0055
2765.00,0.0055
2764.00,0.0055
2763.00,0.0054
2762.00,0.0054
2761.00,0.0054
2760.00,0.0053
2759.00,0.0053
2758.00,0.0053
2757.00,0.0052
2756.00,0.0052
2755.00,0.0052
2754.00,0.0052
2753.00,0.0052
2752.00,0.0051
2751.00,0.0051
2750.00,0.0051
2749.00,0.0051
2748.00,0.0052
2747.00,0.0052
2746.00,0.0052
2745.00,0.0053
2744.00,0.0054
2743.00,0.0055
2742.00,0.0056
2741.00,0.0057
2740.00,0.0058
2739.00,0.0059
2738.00,0.0060
2737.00,0.0061
2736.00,0.0063
2735.00,0.0065
2734.00,0.0067
2733.00,0.0068
2732.00,0.0070
2731.00,0.0071
2730.00,0.0073
2729.00,0.0076
2728.00,0.0078
2727.00,0.0081
2726.00,0.0084
2725.00,0.0087
2724.00,0.0088
2723.00,0.0088
2722.00,0.0087
2721.00,0.0085
2720.00,0.0082
2719.00,0.0079
2718.00,0.0076
2717.00,0.0073
2716.00,0.0070
2715.00,0.0067
2714.00,0.0065
2713.00,0.0063
2712.00,0.0061
2711.00,0.0059
2710.00,0.0057
2709.00,0.0056
2708.00,0.0054
2707.00,0.0053
2706.00,0.0052
2705.00,0.0051
2704.00,0.0051
2703.00,0.0050
2702.00,0.0049
2701.00,0.0048
2700.00,0.0047
2699.00,0.0046
2698.00,0.0046
2697.00,0.0046
2696.00,0.0045
2695.00,0.0045
2694.00,0.0045
2693.00,0.0045
2692.00,0.0045
2691.00,0.0045
2690.00,0.0045
2689.00,0.0045
2688.00,0.0045
2687.00,0.0045
2686.00,0.0046
2685.00,0.0046
2684.00,0.0046
2683.00,0.0046
2682.00,0.0046
2681.00,0.0046
2680.00,0.0046
2679.00,0.0046
2678.00,0.0046
2677.00,0.0046
2676.00,0.0045
2675.00,0.0045
2674.00,0.0045
2673.00,0.0045
2672.00,0.0045
2671.00,0.0045
2670.00,0.0045
2669.00,0.0045
2668.00,0.0045
2667.00,0.0045
2666.00,0.0045
2665.00,0.0046
2664.00,0.0046
2663.00,0.0047
2662.00,0.0047
2661.00,0.0047
2660.00,0.0047
2659.00,0.0048
2658.00,0.0047
2657.00,0.0047
2656.00,0.0047
2655.00,0.0046
2654.00,0.0045
2653.00,0.0044
2652.00,0.0044
2651.00,0.0043
2650.00,0.0043
2649.00,0.0043
2648.00,0.0042
2647.00,0.0042
2646.00,0.0041
2645.00,0.0041
2644.00,0.0040
2643.00,0.0040
2642.00,0.0039
2641.00,0.0039
2640.00,0.0038
2639.00,0.0038
2638.00,0.0037
2637.00,0.0037
2636.00,0.0037
2635.00,0.0037
2634.00,0.0037
2633.00,0.0037
2632.00,0.0037
2631.00,0.0038
2630.00,0.0038
2629.00,0.0039
2628.00,0.0039
2627.00,0.0039
2626.00,0.0039
2625.00,0.0039
2624.00,0.0039
2623.00,0.0039
2622.00,0.0039
2621.00,0.0039
2620.00,0.0039
2619.00,0.0039
2618.00,0.0039
2617.00,0.0040
2616.00,0.0040
2615.00,0.0040
2614.00,0.0040
2613.00,0.0039
2612.00,0.0038
2611.00,0.0038
2610.00,0.0037
2609.00,0.0036
2608.00,0.0035
2607.00,0.0034
2606.00,0.0034
2605.00,0.0033
2604.00,0.0032
2603.00,0.0031
2602.00,0.0031
2601.00,0.0031
2600.00,0.0031
2599.00,0.0031
2598.00,0.0031
2597.00,0.0031
2596.00,0.0031
2595.00,0.0032
2594.00,0.0032
2593.00,0.0032
2592.00,0.0032
2591.00,0.0033
2590.00,0.0033
2589.00,0.0034
2588.00,0.0035
2587.00,0.0035
2586.00,0.0036
2585.00,0.0036
2584.00,0.0036
2583.00,0.0037
2582.00,0.0037
2581.00,0.0037
2580.00,0.0037
2579.00,0.0036
2578.00,0.0036
2577.00,0.0035
2576.00,0.0033
2575.00,0.0032
2574.00,0.0031
2573.00,0.0030
2572.00,0.0029
2571.00,0.0028
2570.00,0.0028
2569.00,0.0027
2568.00,0.0027
2567.00,0.0027
2566.00,0.0026
2565.00,0.0026
2564.00,0.0026
2563.00,0.0025
2562.00,0.0025
2561.00,0.0025
2560.00,0.0024
2559.00,0.0024
2558.00,0.0023
2557.00,0.0023
2556.00,0.0023
2555.00,0.0022
2554.00,0.0022
2553.00,0.0022
2552.00,0.0022
2551.00,0.0021
2550.00,0.0020
2549.00,0.0019
2548.00,0.0019
2547.00,0.0019
2546.00,0.0019
2545.00,0.0019
2544.00,0.0019
2543.00,0.0019
2542.00,0.0018
2541.00,0.0018
2540.00,0.0018
2539.00,0.0017
2538.00,0.0017
2537.00,0.0017
2536.00,0.0017
2535.00,0.0017
2534.00,0.0016
2533.00,0.0016
2532.00,0.0016
2531.00,0.0016
2530.00,0.0016
2529.00,0.0016
2528.00,0.0016
2527.00,0.0015
2526.00,0.0014
2525.00,0.0014
2524.00,0.0013
2523.00,0.0013
2522.00,0.0013
2521.00,0.0013
2520.00,0.0013
2519.00,0.0012
2518.00,0.0012
2517.00,0.0012
2516.00,0.0011
2515.00,0.0010
2514.00,0.0010
2513.00,0.0010
2512.00,0.0010
2511.00,0.0011
2510.00,0.0011
2509.00,0.0012
2508.00,0.0012
2507.00,0.0012
2506.00,0.0011
2505.00,0.0011
2504.00,0.0010
2503.00,0.0010
2502.00,0.0009
2501.00,0.0009
2500.00,0.0009
2499.00,0.0009
2498.00,0.0010
2497.00,0.0010
2496.00,0.0011
2495.00,0.0011
2494.00,0.0011
2493.00,0.0010
2492.00,0.0010
2491.00,0.0010
2490.00,0.0010
2489.00,0.0010
2488.00,0.0010
2487.00,0.0010
2486.00,0.0009
2485.00,0.0009
2484.00,0.0008
2483.00,0.0009
2482.00,0.0009
2481.00,0.0010
2480.00,0.0010
2479.00,0.0010
2478.00,0.0010
2477.00,0.0011
2476.00,0.0011
2475.00,0.0011
2474.00,0.0010
2473.00,0.0010
2472.00,0.0010
2471.00,0.0009
2470.00,0.0009
2469.00,0.0009
2468.00,0.0009
2467.00,0.0009
2466.00,0.0010
2465.00,0.0010
2464.00,0.0010
2463.00,0.0010
2462.00,0.0010
2461.00,0.0010
2460.00,0.0010
2459.00,0.0010
2458.00,0.0010
2457.00,0.0011
2456.00,0.0012
2455.00,0.0013
2454.00,0.0013
2453.00,0.0013
2452.00,0.0012
2451.00,0.0012
2450.00,0.0011
2449.00,0.0011
2448.00,0.0011
2447.00,0.0011
2446.00,0.0010
2445.00,0.0010
2444.00,0.0010
2443.00,0.0010
2442.00,0.0011
2441.00,0.0011
2440.00,0.0010
2439.00,0.0010
2438.00,0.0010
2437.00,0.0010
2436.00,0.0011
2435.00,0.0012
2434.00,0.0012
2433.00,0.0012
2432.00,0.0012
2431.00,0.0011
2430.00,0.0011
2429.00,0.0011
2428.00,0.0011
2427.00,0.0011
2426.00,0.0011
2425.00,0.0011
2424.00,0.0011
2423.00,0.0010
2422.00,0.0010
2421.00,0.0009
2420.00,0.0009
2419.00,0.0010
2418.00,0.0010
2417.00,0.0011
2416.00,0.0011
2415.00,0.0011
2414.00,0.0011
2413.00,0.0011
2412.00,0.0011
2411.00,0.0011
2410.00,0.0011
2409.00,0.0011
2408.00,0.0011
2407.00,0.0010
2406.00,0.0009
2405.00,0.0009
2404.00,0.0009
2403.00,0.0010
2402.00,0.0010
2401.00,0.0010
2400.00,0.0010
2399.00,0.0010
2398.00,0.0010
2397.00,0.0010
2396.00,0.0010
2395.00,0.0010
2394.00,0.0009
2393.00,0.0009
2392.00,0.0009
2391.00,0.0008
2390.00,0.0008
2389.00,0.0007
2388.00,0.0007
2387.00,0.0007
2386.00,0.0007
2385.00,0.0007
2384.00,0.0006
2383.00,0.0006
2382.00,0.0005
2381.00,0.0005
2380.00,0.0004
2379.00,0.0004
2378.00,0.0004
2377.00,0.0004
2376.00,0.0004
2375.00,0.0005
2374.00,0.0005
2373.00,0.0005
2372.00,0.0005
2371.00,0.0005
2370.00,0.0005
2369.00,0.0005
2368.00,0.0005
2367.00,0.0006
2366.00,0.0006
2365.00,0.0006
2364.00,0.0005
2363.00,0.0005
2362.00,0.0004
2361.00,0.0004
2360.00,0.0005
2359.00,0.0005
2358.00,0.0006
2357.00,0.0006
2356.00,0.0005
2355.00,0.0005
2354.00,0.0005
2353.00,0.0005
2352.00,0.0005
2351.00,0.0005
2350.00,0.0005
2349.00,0.0006
2348.00,0.0006
2347.00,0.0006
2346.00,0.0006
2345.00,0.0007
2344.00,0.0008
2343.00,0.0008
2342.00,0.0008
2341.00,0.0008
2340.00,0.0008
2339.00,0.0008
2338.00,0.0008
2337.00,0.0007
2336.00,0.0006
2335.00,0.0006
2334.00,0.0006
2333.00,0.0006
2332.00,0.0006
2331.00,0.0006
2330.00,0.0006
2329.00,0.0007
2328.00,0.0009
2327.00,0.0012
2326.00,0.0016
2325.00,0.0019
2324.00,0.0020
2323.00,0.0019
2322.00,0.0016
2321.00,0.0015
2320.00,0.0014
2319.00,0.0014
2318.00,0.0014
2317.00,0.0013
2316.00,0.0012
2315.00,0.0011
2314.00,0.0011
2313.00,0.0011
2312.00,0.0011
2311.00,0.0011
2310.00,0.0011
2309.00,0.0011
2308.00,0.0011
2307.00,0.0011
2306.00,0.0011
2305.00,0.0011
2304.00,0.0010
2303.00,0.0010
2302.00,0.0010
2301.00,0.0010
2300.00,0.0011
2299.00,0.0012
2298.00,0.0013
2297.00,0.0013
2296.00,0.0013
2295.00,0.0013
2294.00,0.0013
2293.00,0.0014
2292.00,0.0015
2291.00,0.0016
2290.00,0.0017
2289.00,0.0018
2288.00,0.0019
2287.00,0.0019
2286.00,0.0020
2285.00,0.0019
2284.00,0.0018
2283.00,0.0016
2282.00,0.0015
2281.00,0.0015
2280.00,0.0014
2279.00,0.0014
2278.00,0.0014
2277.00,0.0013
2276.00,0.0013
2275.00,0.0012
2274.00,0.0013
2273.00,0.0013
2272.00,0.0013
2271.00,0.0013
2270.00,0.0013
2269.00,0.0013
2268.00,0.0012
2267.00,0.0012
2266.00,0.0011
2265.00,0.0010
2264.00,0.0009
2263.00,0.0009
2262.00,0.0010
2261.00,0.0012
2260.00,0.0013
2259.00,0.0013
2258.00,0.0013
2257.00,0.0012
2256.00,0.0010
2255.00,0.0009
2254.00,0.0008
2253.00,0.0008
2252.00,0.0009
2251.00,0.0010
2250.00,0.0010
2249.00,0.0009
2248.00,0.0008
2247.00,0.0007
2246.00,0.0007
2245.00,0.0007
2244.00,0.0008
2243.00,0.0008
2242.00,0.0008
2241.00,0.0007
2240.00,0.0007
2239.00,0.0007
2238.00,0.0008
2237.00,0.0009
2236.00,0.0010
2235.00,0.0011
2234.00,0.0010
2233.00,0.0009
2232.00,0.0008
2231.00,0.0008
2230.00,0.0007
2229.00,0.0007
2228.00,0.0007
2227.00,0.0007
2226.00,0.0007
2225.00,0.0007
2224.00,0.0007
2223.00,0.0007
2222.00,0.0006
2221.00,0.0006
2220.00,0.0007
2219.00,0.0008
2218.00,0.0008
2217.00,0.0007
2216.00,0.0006
2215.00,0.0007
2214.00,0.0008
2213.00,0.0008
2212.00,0.0008
2211.00,0.0006
2210.00,0.0004
2209.00,0.0003
2208.00,0.0003
2207.00,0.0004
2206.00,0.0005
2205.00,0.0006
2204.00,0.0006
2203.00,0.0006
2202.00,0.0006
2201.00,0.0007
2200.00,0.0008
2199.00,0.0008
2198.00,0.0007
2197.00,0.0006
2196.00,0.0005
2195.00,0.0006
2194.00,0.0008
2193.00,0.0010
2192.00,0.0011
2191.00,0.0010
2190.00,0.0009
2189.00,0.0008
2188.00,0.0007
2187.00,0.0006
2186.00,0.0006
2185.00,0.0007
2184.00,0.0007
2183.00,0.0006
2182.00,0.0004
2181.00,0.0002
2180.00,0.0001
2179.00,0.0001
2178.00,0.0002
2177.00,0.0004
2176.00,0.0005
2175.00,0.0003
2174.00,0.0002
2173.00,0.0004
2172.00,0.0008
2171.00,0.0014
2170.00,0.0018
2169.00,0.0020
2168.00,0.0019
2167.00,0.0017
2166.00,0.0017
2165.00,0.0019
2164.00,0.0022
2163.00,0.0026
2162.00,0.0026
2161.00,0.0020
2160.00,0.0007
2159.00,-0.0009
2158.00,-0.0021
2157.00,-0.0027
2156.00,-0.0026
2155.00,-0.0024
2154.00,-0.0021
2153.00,-0.0017
2152.00,-0.0012
2151.00,-0.0008
2150.00,-0.0005
2149.00,-0.0004
2148.00,-0.0005
2147.00,-0.0007
2146.00,-0.0009
2145.00,-0.0009
2144.00,-0.0007
2143.00,-0.0006
2142.00,-0.0005
2141.00,-0.0005
2140.00,-0.0006
2139.00,-0.0007
2138.00,-0.0008
2137.00,-0.0008
2136.00,-0.0008
2135.00,-0.0009
2134.00,-0.0010
2133.00,-0.0010
2132.00,-0.0010
2131.00,-0.0010
2130.00,-0.0011
2129.00,-0.0011
2128.00,-0.0010
2127.00,-0.0008
2126.00,-0.0006
2125.00,-0.0005
2124.00,-0.0004
2123.00,-0.0003
2122.00,-0.0003
2121.00,-0.0003
2120.00,-0.0002
2119.00,-0.0001
2118.00,0.0001
2117.00,0.0003
2116.00,0.0004
2115.00,0.0005
2114.00,0.0005
2113.00,0.0004
2112.00,0.0003
2111.00,0.0002
2110.00,0.0002
2109.00,0.0002
2108.00,0.0002
2107.00,0.0003
2106.00,0.0004
2105.00,0.0004
2104.00,0.0004
2103.00,0.0004
2102.00,0.0004
2101.00,0.0005
2100.00,0.0005
2099.00,0.0004
2098.00,0.0003
2097.00,0.0002
2096.00,0.0001
2095.00,-0.0000
2094.00,-0.0001
2093.00,-0.0001
2092.00,0.0000
2091.00,0.0002
2090.00,0.0003
2089.00,0.0003
2088.00,0.0002
2087.00,0.0002
2086.00,0.0001
2085.00,0.0001
2084.00,0.0001
2083.00,0.0002
2082.00,0.0004
2081.00,0.0005
2080.00,0.0006
2079.00,0.0007
2078.00,0.0007
2077.00,0.0007
2076.00,0.0007
2075.00,0.0005
2074.00,0.0003
2073.00,0.0001
2072.00,0.0000
2071.00,0.0001
2070.00,0.0001
2069.00,0.0001
2068.00,0.0001
2067.00,0.0002
2066.00,0.0003
2065.00,0.0005
2064.00,0.0005
2063.00,0.0005
2062.00,0.0004
2061.00,0.0004
2060.00,0.0005
2059.00,0.0005
2058.00,0.0004
2057.00,0.0003
2056.00,0.0002
2055.00,0.0000
2054.00,-0.0000
2053.00,0.0002
2052.00,0.0006
2051.00,0.0010
2050.00,0.0010
2049.00,0.0007
2048.00,0.0003
2047.00,0.0001
2046.00,-0.0001
2045.00,-0.0002
2044.00,-0.0003
2043.00,-0.0002
2042.00,-0.0001
2041.00,0.0000
2040.00,0.0002
2039.00,0.0003
2038.00,0.0004
2037.00,0.0003
2036.00,0.0001
2035.00,-0.0002
2034.00,-0.0003
2033.00,-0.0004
2032.00,-0.0007
2031.00,-0.0012
2030.00,-0.0016
2029.00,-0.0018
2028.00,-0.0016
2027.00,-0.0014
2026.00,-0.0011
2025.00,-0.0008
2024.00,-0.0008
2023.00,-0.0008
2022.00,-0.0008
2021.00,-0.0007
2020.00,-0.0006
2019.00,-0.0007
2018.00,-0.0009
2017.00,-0.0010
2016.00,-0.0009
2015.00,-0.0007
2014.00,-0.0003
2013.00,0.0000
2012.00,0.0003
2011.00,0.0002
2010.00,-0.0002
2009.00,-0.0006
2008.00,-0.0009
2007.00,-0.0011
2006.00,-0.0012
2005.00,-0.0014
2004.00,-0.0015
2003.00,-0.0016
2002.00,-0.0015
2001.00,-0.0013
2000.00,-0.0011
1999.00,-0.0010
1998.00,-0.0010
1997.00,-0.0010
1996.00,-0.0009
1995.00,-0.0007
1994.00,-0.0005
1993.00,-0.0002
1992.00,0.0000
1991.00,0.0002
1990.00,0.0003
1989.00,0.0004
1988.00,0.0005
1987.00,0.0006
1986.00,0.0008
1985.00,0.0009
1984.00,0.0008
1983.00,0.0007
1982.00,0.0008
1981.00,0.0010
1980.00,0.0013
1979.00,0.0012
1978.00,0.0006
1977.00,-0.0001
1976.00,-0.0006
1975.00,-0.0008
1974.00,-0.0009
1973.00,-0.0009
1972.00,-0.0009
1971.00,-0.0008
1970.00,-0.0006
1969.00,-0.0004
1968.00,-0.0005
1967.00,-0.0007
1966.00,-0.0011
1965.00,-0.0013
1964.00,-0.0014
1963.00,-0.0014
1962.00,-0.0014
1961.00,-0.0013
1960.00,-0.0012
1959.00,-0.0012
1958.00,-0.0013
1957.00,-0.0013
1956.00,-0.0013
1955.00,-0.0013
1954.00,-0.0014
1953.00,-0.0014
1952.00,-0.0014
1951.00,-0.0014
1950.00,-0.0015
1949.00,-0.0016
1948.00,-0.0017
1947.00,-0.0017
1946.00,-0.0017
1945.00,-0.0017
1944.00,-0.0016
1943.00,-0.0015
1942.00,-0.0014
1941.00,-0.0014
1940.00,-0.0013
1939.00,-0.0012
1938.00,-0.0012
1937.00,-0.0010
1936.00,-0.0009
1935.00,-0.0008
1934.00,-0.0007
1933.00,-0.0006
1932.00,-0.0004
1931.00,-0.0003
1930.00,-0.0002
1929.00,-0.0003
1928.00,-0.0003
1927.00,-0.0004
1926.00,-0.0004
1925.00,-0.0004
1924.00,-0.0004
1923.00,-0.0004
1922.00,-0.0003
1921.00,-0.0003
1920.00,-0.0003
1919.00,-0.0003
1918.00,-0.0003
1917.00,-0.0002
1916.00,-0.0001
1915.00,-0.0001
1914.00,-0.0001
1913.00,-0.0001
1912.00,-0.0001
1911.00,-0.0001
1910.00,-0.0001
1909.00,-0.0000
1908.00,-0.0000
1907.00,-0.0001
1906.00,-0.0002
1905.00,-0.0002
1904.00,-0.0001
1903.00,0.0000
1902.00,0.0002
1901.00,0.0003
1900.00,0.0002
1899.00,0.0001
1898.00,0.0000
1897.00,-0.0001
1896.00,-0.0001
1895.00,-0.0001
1894.00,-0.0000
1893.00,0.0000
1892.00,0.0001
1891.00,0.0001
1890.00,0.0000
1889.00,-0.0000
1888.00,-0.0001
1887.00,-0.0001
1886.00,-0.0001
1885.00,-0.0001
1884.00,0.0000
1883.00,0.0002
1882.00,0.0003
1881.00,0.0003
1880.00,0.0002
1879.00,0.0001
1878.00,-0.0001
1877.00,-0.0001
1876.00,-0.0001
1875.00,0.0000
1874.00,0.0000
1873.00,0.0001
1872.00,0.0000
1871.00,0.0000
1870.00,0.0000
1869.00,0.0001
1868.00,0.0001
1867.00,0.0001
1866.00,0.0001
1865.00,0.0002
1864.00,0.0002
1863.00,0.0002
1862.00,0.0001
1861.00,0.0001
1860.00,0.0001
1859.00,0.0001
1858.00,0.0001
1857.00,0.0002
1856.00,0.0003
1855.00,0.0003
1854.00,0.0003
1853.00,0.0002
1852.00,0.0002
1851.00,0.0001
1850.00,0.0001
1849.00,0.0002
1848.00,0.0002
1847.00,0.0002
1846.00,0.0002
1845.00,0.0002
1844.00,0.0002
1843.00,0.0001
1842.00,0.0001
1841.00,0.0000
1840.00,0.0001
1839.00,0.0001
1838.00,0.0002
1837.00,0.0004
1836.00,0.0005
1835.00,0.0005
1834.00,0.0006
1833.00,0.0006
1832.00,0.0006
1831.00,0.0006
1830.00,0.0006
1829.00,0.0007
1828.00,0.0007
1827.00,0.0007
1826.00,0.0006
1825.00,0.0006
1824.00,0.0005
1823.00,0.0004
1822.00,0.0004
1821.00,0.0003
1820.00,0.0003
1819.00,0.0003
1818.00,0.0002
1817.00,0.0003
1816.00,0.0003
1815.00,0.0004
1814.00,0.0005
1813.00,0.0005
1812.00,0.0005
1811.00,0.0005
1810.00,0.0004
1809.00,0.0004
1808.00,0.0004
1807.00,0.0005
1806.00,0.0005
1805.00,0.0005
1804.00,0.0006
1803.00,0.0006
1802.00,0.0006
1801.00,0.0006
1800.00,0.0006
1799.00,0.0006
1798.00,0.0006
1797.00,0.0006
1796.00,0.0006
1795.00,0.0006
1794.00,0.0006
1793.00,0.0007
1792.00,0.0008
1791.00,0.0008
1790.00,0.0008
1789.00,0.0008
1788.00,0.0009
1787.00,0.0009
1786.00,0.0010
1785.00,0.0010
1784.00,0.0010
1783.00,0.0010
1782.00,0.0010
1781.00,0.0010
1780.00,0.0010
1779.00,0.0009
1778.00,0.0009
1777.00,0.0009
1776.00,0.0009
1775.00,0.0009
1774.00,0.0009
1773.00,0.0010
1772.00,0.0010
1771.00,0.0011
1770.00,0.0011
1769.00,0.0011
1768.00,0.0011
1767.00,0.0011
1766.00,0.0012
1765.00,0.0012
1764.00,0.0013
1763.00,0.0013
1762.00,0.0013
1761.00,0.0013
1760.00,0.0013
1759.00,0.0013
1758.00,0.0013
1757.00,0.0014
1756.00,0.0014
1755.00,0.0015
1754.00,0.0015
1753.00,0.0016
1752.00,0.0017
1751.00,0.0017
1750.00,0.0018
1749.00,0.0018
1748.00,0.0018
1747.00,0.0018
1746.00,0.0019
1745.00,0.0019
1744.00,0.0020
1743.00,0.0020
1742.00,0.0020
1741.00,0.0021
1740.00,0.0022
1739.00,0.0022
1738.00,0.0022
1737.00,0.0023
1736.00,0.0023
1735.00,0.0023
1734.00,0.0023
1733.00,0.0024
1732.00,0.0024
1731.00,0.0024
1730.00,0.0024
1729.00,0.0024
1728.00,0.0023
1727.00,0.0022
1726.00,0.0022
1725.00,0.0022
1724.00,0.0022
1723.00,0.0023
1722.00,0.0023
1721.00,0.0023
1720.00,0.0023
1719.00,0.0023
1718.00,0.0023
1717.00,0.0022
1716.00,0.0022
1715.00,0.0022
1714.00,0.0023
1713.00,0.0023
1712.00,0.0023
1711.00,0.0023
1710.00,0.0024
1709.00,0.0024
1708.00,0.0024
1707.00,0.0024
1706.00,0.0025
1705.00,0.0025
1704.00,0.0026
1703.00,0.0026
1702.00,0.0026
1701.00,0.0027
1700.00,0.0027
1699.00,0.0027
1698.00,0.0027
1697.00,0.0028
1696.00,0.0028
1695.00,0.0029
1694.00,0.0030
1693.00,0.0032
1692.00,0.0033
1691.00,0.0034
1690.00,0.0034
1689.00,0.0035
1688.00,0.0034
1687.00,0.0034
1686.00,0.0034
1685.00,0.0034
1684.00,0.0036
1683.00,0.0038
1682.00,0.0039
1681.00,0.0041
1680.00,0.0042
1679.00,0.0043
1678.00,0.0044
1677.00,0.0045
1676.00,0.0046
1675.00,0.0048
1674.00,0.0048
1673.00,0.0048
1672.00,0.0049
1671.00,0.0049
1670.00,0.0050
1669.00,0.0050
1668.00,0.0051
1667.00,0.0052
1666.00,0.0053
1665.00,0.0053
1664.00,0.0054
1663.00,0.0054
1662.00,0.0054
1661.00,0.0055
1660.00,0.0056
1659.00,0.0056
1658.00,0.0057
1657.00,0.0059
1656.00,0.0060
1655.00,0.0061
1654.00,0.0062
1653.00,0.0063
1652.00,0.0063
1651.00,0.0065
1650.00,0.0068
1649.00,0.0071
1648.00,0.0074
1647.00,0.0076
1646.00,0.0076
1645.00,0.0076
1644.00,0.0075
1643.00,0.0074
1642.00,0.0074
1641.00,0.0073
1640.00,0.0073
1639.00,0.0073
1638.00,0.0073
1637.00,0.0072
1636.00,0.0071
1635.00,0.0070
1634.00,0.0070
1633.00,0.0070
1632.00,0.0070
1631.00,0.0071
1630.00,0.0071
1629.00,0.0071
1628.00,0.0070
1627.00,0.0069
1626.00,0.0069
1625.00,0.0068
1624.00,0.0067
1623.00,0.0066
1622.00,0.0065
1621.00,0.0065
1620.00,0.0065
1619.00,0.0064
1618.00,0.0064
1617.00,0.0063
1616.00,0.0063
1615.00,0.0063
1614.00,0.0063
1613.00,0.0064
1612.00,0.0064
1611.00,0.0063
1610.00,0.0063
1609.00,0.0063
1608.00,0.0063
1607.00,0.0062
1606.00,0.0062
1605.00,0.0062
1604.00,0.0062
1603.00,0.0062
1602.00,0.0062
1601.00,0.0061
1600.00,0.0061
1599.00,0.0060
1598.00,0.0059
1597.00,0.0059
1596.00,0.0059
1595.00,0.0058
1594.00,0.0058
1593.00,0.0058
1592.00,0.0058
1591.00,0.0059
1590.00,0.0059
1589.00,0.0060
1588.00,0.0060
1587.00,0.0061
1586.00,0.0061
1585.00,0.0062
1584.00,0.0063
1583.00,0.0064
1582.00,0.0065
1581.00,0.0066
1580.00,0.0068
1579.00,0.0069
1578.00,0.0069
1577.00,0.0070
1576.00,0.0069
1575.00,0.0068
1574.00,0.0068
1573.00,0.0068
1572.00,0.0068
1571.00,0.0067
1570.00,0.0066
1569.00,0.0065
1568.00,0.0065
1567.00,0.0064
1566.00,0.0064
1565.00,0.0064
1564.00,0.0064
1563.00,0.0065
1562.00,0.0065
1561.00,0.0067
1560.00,0.0068
1559.00,0.0069
1558.00,0.0068
1557.00,0.0068
1556.00,0.0069
1555.00,0.0070
1554.00,0.0071
1553.00,0.0072
1552.00,0.0073
1551.00,0.0074
1550.00,0.0075
1549.00,0.0076
1548.00,0.0077
1547.00,0.0078
1546.00,0.0080
1545.00,0.0082
1544.00,0.0083
1543.00,0.0084
1542.00,0.0085
1541.00,0.0084
1540.00,0.0082
1539.00,0.0079
1538.00,0.0077
1537.00,0.0076
1536.00,0.0075
1535.00,0.0073
1534.00,0.0070
1533.00,0.0068
1532.00,0.0066
1531.00,0.0065
1530.00,0.0064
1529.00,0.0063
1528.00,0.0062
1527.00,0.0061
1526.00,0.0059
1525.00,0.0058
1524.00,0.0058
1523.00,0.0058
1522.00,0.0057
1521.00,0.0057
1520.00,0.0058
1519.00,0.0058
1518.00,0.0058
1517.00,0.0059
1516.00,0.0060
1515.00,0.0061
1514.00,0.0061
1513.00,0.0062
1512.00,0.0062
1511.00,0.0062
1510.00,0.0062
1509.00,0.0063
1508.00,0.0064
1507.00,0.0065
1506.00,0.0066
1505.00,0.0067
1504.00,0.0069
1503.00,0.0071
1502.00,0.0073
1501.00,0.0075
1500.00,0.0079
1499.00,0.0082
1498.00,0.0085
1497.00,0.0089
1496.00,0.0094
1495.00,0.0097
1494.00,0.0100
1493.00,0.0104
1492.00,0.0109
1491.00,0.0112
1490.00,0.0116
1489.00,0.0121
1488.00,0.0126
1487.00,0.0131
1486.00,0.0135
1485.00,0.0141
1484.00,0.0148
1483.00,0.0155
1482.00,0.0164
1481.00,0.0174
1480.00,0.0186
1479.00,0.0198
1478.00,0.0212
1477.00,0.0230
1476.00,0.0252
1475.00,0.0278
1474.00,0.0312
1473.00,0.0364
1472.00,0.0427
1471.00,0.0490
1470.00,0.0550
1469.00,0.0612
1468.00,0.0680
1467.00,0.0754
1466.00,0.0839
1465.00,0.0932
1464.00,0.1015
1463.00,0.1075
1462.00,0.1118
1461.00,0.1150
1460.00,0.1176
1459.00,0.1198
1458.00,0.1219
1457.00,0.1240
1456.00,0.1252
1455.00,0.1253
1454.00,0.1250
1453.00,0.1242
1452.00,0.1223
1451.00,0.1191
1450.00,0.1141
1449.00,0.1069
1448.00,0.0973
1447.00,0.0870
1446.00,0.0775
1445.00,0.0694
1444.00,0.0624
1443.00,0.0567
1442.00,0.0525
1441.00,0.0495
1440.00,0.0477
1439.00,0.0467
1438.00,0.0464
1437.00,0.0460
1436.00,0.0444
1435.00,0.0415
1434.00,0.0376
1433.00,0.0331
1432.00,0.0286
1431.00,0.0246
1430.00,0.0216
1429.00,0.0194
1428.00,0.0179
1427.00,0.0170
1426.00,0.0164
1425.00,0.0158
1424.00,0.0153
1423.00,0.0150
1422.00,0.0149
1421.00,0.0147
1420.00,0.0144
1419.00,0.0142
1418.00,0.0140
1417.00,0.0138
1416.00,0.0135
1415.00,0.0133
1414.00,0.0132
1413.00,0.0129
1412.00,0.0127
1411.00,0.0126
1410.00,0.0125
1409.00,0.0124
1408.00,0.0123
1407.00,0.0124
1406.00,0.0125
1405.00,0.0125
1404.00,0.0125
1403.00,0.0126
1402.00,0.0128
1401.00,0.0129
1400.00,0.0130
1399.00,0.0132
1398.00,0.0135
1397.00,0.0137
1396.00,0.0139
1395.00,0.0143
1394.00,0.0148
1393.00,0.0153
1392.00,0.0159
1391.00,0.0168
1390.00,0.0180
1389.00,0.0198
1388.00,0.0224
1387.00,0.0263
1386.00,0.0314
1385.00,0.0379
1384.00,0.0463
1383.00,0.0574
1382.00,0.0718
1381.00,0.0898
1380.00,0.1116
1379.00,0.1360
1378.00,0.1593
1377.00,0.1764
1376.00,0.1822
1375.00,0.1738
1374.00,0.1532
1373.00,0.1278
1372.00,0.1043
1371.00,0.0845
1370.00,0.0686
1369.00,0.0563
1368.00,0.0476
1367.00,0.0423
1366.00,0.0394
1365.00,0.0382
1364.00,0.0384
1363.00,0.0396
1362.00,0.0416
1361.00,0.0437
1360.00,0.0453
1359.00,0.0457
1358.00,0.0445
1357.00,0.0419
1356.00,0.0382
1355.00,0.0341
1354.00,0.0301
1353.00,0.0267
1352.00,0.0240
1351.00,0.0217
1350.00,0.0199
1349.00,0.0184
1348.00,0.0172
1347.00,0.0163
1346.00,0.0156
1345.00,0.0150
1344.00,0.0146
1343.00,0.0142
1342.00,0.0138
1341.00,0.0135
1340.00,0.0132
1339.00,0.0130
1338.00,0.0128
1337.00,0.0127
1336.00,0.0127
1335.00,0.0129
1334.00,0.0132
1333.00,0.0136
1332.00,0.0140
1331.00,0.0144
1330.00,0.0145
1329.00,0.0144
1328.00,0.0140
1327.00,0.0135
1326.00,0.0130
1325.00,0.0124
1324.00,0.0118
1323.00,0.0112
1322.00,0.0108
1321.00,0.0104
1320.00,0.0101
1319.00,0.0099
1318.00,0.0097
1317.00,0.0095
1316.00,0.0093
1315.00,0.0092
1314.00,0.0092
1313.00,0.0093
1312.00,0.0095
1311.00,0.0099
1310.00,0.0104
1309.00,0.0112
1308.00,0.0123
1307.00,0.0138
1306.00,0.0152
1305.00,0.0163
1304.00,0.0166
1303.00,0.0163
1302.00,0.0155
1301.00,0.0148
1300.00,0.0142
1299.00,0.0139
1298.00,0.0137
1297.00,0.0136
1296.00,0.0134
1295.00,0.0131
1294.00,0.0127
1293.00,0.0122
1292.00,0.0117
1291.00,0.0112
1290.00,0.0108
1289.00,0.0104
1288.00,0.0101
1287.00,0.0097
1286.00,0.0094
1285.00,0.0091
1284.00,0.0089
1283.00,0.0087
1282.00,0.0086
1281.00,0.0085
1280.00,0.0085
1279.00,0.0084
1278.00,0.0083
1277.00,0.0083
1276.00,0.0082
1275.00,0.0082
1274.00,0.0082
1273.00,0.0082
1272.00,0.0083
1271.00,0.0084
1270.00,0.0084
1269.00,0.0085
1268.00,0.0086
1267.00,0.0088
1266.00,0.0091
1265.00,0.0094
1264.00,0.0097
1263.00,0.0101
1262.00,0.0106
1261.00,0.0112
1260.00,0.0120
1259.00,0.0129
1258.00,0.0139
1257.00,0.0148
1256.00,0.0152
1255.00,0.0150
1254.00,0.0143
1253.00,0.0133
1252.00,0.0123
1251.00,0.0115
1250.00,0.0109
1249.00,0.0105
1248.00,0.0102
1247.00,0.0100
1246.00,0.0099
1245.00,0.0098
1244.00,0.0098
1243.00,0.0098
1242.00,0.0097
1241.00,0.0095
1240.00,0.0093
1239.00,0.0092
1238.00,0.0091
1237.00,0.0090
1236.00,0.0089
1235.00,0.0089
1234.00,0.0089
1233.00,0.0088
1232.00,0.0088
1231.00,0.0088
1230.00,0.0088
1229.00,0.0089
1228.00,0.0089
1227.00,0.0091
1226.00,0.0092
1225.00,0.0094
1224.00,0.0097
1223.00,0.0100
1222.00,0.0103
1221.00,0.0106
1220.00,0.0109
1219.00,0.0110
1218.00,0.0109
1217.00,0.0108
1216.00,0.0105
1215.00,0.0102
1214.00,0.0099
1213.00,0.0096
1212.00,0.0092
1211.00,0.0089
1210.00,0.0087
1209.00,0.0086
1208.00,0.0085
1207.00,0.0084
1206.00,0.0084
1205.00,0.0083
1204.00,0.0082
1203.00,0.0082
1202.00,0.0082
1201.00,0.0082
1200.00,0.0082
1199.00,0.0081
1198.00,0.0081
1197.00,0.0081
1196.00,0.0081
1195.00,0.0081
1194.00,0.0082
1193.00,0.0082
1192.00,0.0082
1191.00,0.0082
1190.00,0.0084
1189.00,0.0084
1188.00,0.0085
1187.00,0.0085
1186.00,0.0085
1185.00,0.0086
1184.00,0.0088
1183.00,0.0091
1182.00,0.0094
1181.00,0.0098
1180.00,0.0102
1179.00,0.0107
1178.00,0.0115
1177.00,0.0125
1176.00,0.0140
1175.00,0.0159
1174.00,0.0185
1173.00,0.0217
1172.00,0.0256
1171.00,0.0298
1170.00,0.0339
1169.00,0.0372
1168.00,0.0393
1167.00,0.0398
1166.00,0.0388
1165.00,0.0369
1164.00,0.0345
1163.00,0.0321
1162.00,0.0299
1161.00,0.0279
1160.00,0.0264
1159.00,0.0252
1158.00,0.0243
1157.00,0.0236
1156.00,0.0230
1155.00,0.0225
1154.00,0.0220
1153.00,0.0215
1152.00,0.0209
1151.00,0.0202
1150.00,0.0194
1149.00,0.0184
1148.00,0.0174
1147.00,0.0164
1146.00,0.0155
1145.00,0.0147
1144.00,0.0140
1143.00,0.0133
1142.00,0.0127
1141.00,0.0121
1140.00,0.0117
1139.00,0.0113
1138.00,0.0110
1137.00,0.0107
1136.00,0.0103
1135.00,0.0099
1134.00,0.0097
1133.00,0.0095
1132.00,0.0095
1131.00,0.0095
1130.00,0.0095
1129.00,0.0096
1128.00,0.0097
1127.00,0.0098
1126.00,0.0099
1125.00,0.0099
1124.00,0.0100
1123.00,0.0100
1122.00,0.0101
1121.00,0.0101
1120.00,0.0100
1119.00,0.0100
1118.00,0.0101
1117.00,0.0102
1116.00,0.0103
1115.00,0.0105
1114.00,0.0106
1113.00,0.0108
1112.00,0.0110
1111.00,0.0113
1110.00,0.0116
1109.00,0.0120
1108.00,0.0125
1107.00,0.0131
1106.00,0.0138
1105.00,0.0144
1104.00,0.0149
1103.00,0.0152
1102.00,0.0152
1101.00,0.0150
1100.00,0.0145
1099.00,0.0139
1098.00,0.0133
1097.00,0.0127
1096.00,0.0122
1095.00,0.0117
1094.00,0.0114
1093.00,0.0111
1092.00,0.0109
1091.00,0.0107
1090.00,0.0105
1089.00,0.0102
1088.00,0.0101
1087.00,0.0100
1086.00,0.0099
1085.00,0.0098
1084.00,0.0096
1083.00,0.0095
1082.00,0.0093
1081.00,0.0092
1080.00,0.0091
1079.00,0.0090
1078.00,0.0089
1077.00,0.0088
1076.00,0.0087
1075.00,0.0087
1074.00,0.0087
1073.00,0.0087
1072.00,0.0087
1071.00,0.0087
1070.00,0.0087
1069.00,0.0086
1068.00,0.0086
1067.00,0.0085
1066.00,0.0085
1065.00,0.0085
1064.00,0.0086
1063.00,0.0087
1062.00,0.0088
1061.00,0.0088
1060.00,0.0088
1059.00,0.0088
1058.00,0.0089
1057.00,0.0089
1056.00,0.0089
1055.00,0.0089
1054.00,0.0090
1053.00,0.0092
1052.00,0.0095
1051.00,0.0098
1050.00,0.0100
1049.00,0.0102
1048.00,0.0105
1047.00,0.0108
1046.00,0.0110
1045.00,0.0112
1044.00,0.0111
1043.00,0.0110
1042.00,0.0108
1041.00,0.0105
1040.00,0.0103
1039.00,0.0101
1038.00,0.0100
1037.00,0.0100
1036.00,0.0100
1035.00,0.0099
1034.00,0.0099
1033.00,0.0098
1032.00,0.0097
1031.00,0.0097
1030.00,0.0097
1029.00,0.0097
1028.00,0.0097
1027.00,0.0096
1026.00,0.0096
1025.00,0.0095
1024.00,0.0095
1023.00,0.0095
1022.00,0.0096
1021.00,0.0097
1020.00,0.0098
1019.00,0.0100
1018.00,0.0102
1017.00,0.0105
1016.00,0.0107
1015.00,0.0111
1014.00,0.0115
1013.00,0.0119
1012.00,0.0123
1011.00,0.0127
1010.00,0.0132
1009.00,0.0137
1008.00,0.0143
1007.00,0.0151
1006.00,0.0161
1005.00,0.0176
1004.00,0.0197
1003.00,0.0226
1002.00,0.0262
1001.00,0.0307
1000.00,0.0355
999.00,0.0397
998.00,0.0420
997.00,0.0416
996.00,0.0386
995.00,0.0338
994.00,0.0286
993.00,0.0239
992.00,0.0203
991.00,0.0177
990.00,0.0158
989.00,0.0145
988.00,0.0136
987.00,0.0131
986.00,0.0129
985.00,0.0131
984.00,0.0136
983.00,0.0144
982.00,0.0157
981.00,0.0175
980.00,0.0200
979.00,0.0233
978.00,0.0276
977.00,0.0327
976.00,0.0385
975.00,0.0442
974.00,0.0488
973.00,0.0511
972.00,0.0501
971.00,0.0460
970.00,0.0397
969.00,0.0330
968.00,0.0271
967.00,0.0224
966.00,0.0190
965.00,0.0165
964.00,0.0148
963.00,0.0134
962.00,0.0124
961.00,0.0116
960.00,0.0110
959.00,0.0105
958.00,0.0100
957.00,0.0097
956.00,0.0095
955.00,0.0093
954.00,0.0092
953.00,0.0090
952.00,0.0089
951.00,0.0088
950.00,0.0087
949.00,0.0087
948.00,0.0088
947.00,0.0088
946.00,0.0090
945.00,0.0092
944.00,0.0095
943.00,0.0099
942.00,0.0102
941.00,0.0103
940.00,0.0102
939.00,0.0099
938.00,0.0094
937.00,0.0090
936.00,0.0085
935.00,0.0080
934.00,0.0077
933.00,0.0074
932.00,0.0073
931.00,0.0071
930.00,0.0069
929.00,0.0067
928.00,0.0065
927.00,0.0064
926.00,0.0063
925.00,0.0064
924.00,0.0065
923.00,0.0068
922.00,0.0070
921.00,0.0072
920.00,0.0073
919.00,0.0073
918.00,0.0073
917.00,0.0073
916.00,0.0072
915.00,0.0072
914.00,0.0073
913.00,0.0074
912.00,0.0076
911.00,0.0078
910.00,0.0080
909.00,0.0082
908.00,0.0084
907.00,0.0088
906.00,0.0094
905.00,0.0104
904.00,0.0117
903.00,0.0134
902.00,0.0153
901.00,0.0172
900.00,0.0184
899.00,0.0188
898.00,0.0181
897.00,0.0166
896.00,0.0147
895.00,0.0128
894.00,0.0113
893.00,0.0102
892.00,0.0094
891.00,0.0088
890.00,0.0084
889.00,0.0081
888.00,0.0079
887.00,0.0078
886.00,0.0077
885.00,0.0077
884.00,0.0078
883.00,0.0079
882.00,0.0080
881.00,0.0080
880.00,0.0080
879.00,0.0080
878.00,0.0081
877.00,0.0081
876.00,0.0081
875.00,0.0081
874.00,0.0081
873.00,0.0080
872.00,0.0079
871.00,0.0078
870.00,0.0078
869.00,0.0079
868.00,0.0080
867.00,0.0081
866.00,0.0082
865.00,0.0083
864.00,0.0084
863.00,0.0085
862.00,0.0085
861.00,0.0086
860.00,0.0088
859.00,0.0090
858.00,0.0091
857.00,0.0092
856.00,0.0093
855.00,0.0096
854.00,0.0099
853.00,0.0103
852.00,0.0107
851.00,0.0111
850.00,0.0117
849.00,0.0126
848.00,0.0140
847.00,0.0159
846.00,0.0188
845.00,0.0232
844.00,0.0291
843.00,0.0356
842.00,0.0408
841.00,0.0424
840.00,0.0396
839.00,0.0339
838.00,0.0277
837.00,0.0228
836.00,0.0196
835.00,0.0176
834.00,0.0162
833.00,0.0152
832.00,0.0144
831.00,0.0138
830.00,0.0133
829.00,0.0129
828.00,0.0125
827.00,0.0122
826.00,0.0120
825.00,0.0118
824.00,0.0117
823.00,0.0116
822.00,0.0115
821.00,0.0115
820.00,0.0116
819.00,0.0119
818.00,0.0123
817.00,0.0128
816.00,0.0134
815.00,0.0141
814.00,0.0151
813.00,0.0166
812.00,0.0183
811.00,0.0199
810.00,0.0211
809.00,0.0215
808.00,0.0213
807.00,0.0204
806.00,0.0191
805.00,0.0176
804.00,0.0161
803.00,0.0148
802.00,0.0137
801.00,0.0129
800.00,0.0122
799.00,0.0116
798.00,0.0112
797.00,0.0108
796.00,0.0104
795.00,0.0100
794.00,0.0097
793.00,0.0094
792.00,0.0092
791.00,0.0090
790.00,0.0087
789.00,0.0084
788.00,0.0081
787.00,0.0079
786.00,0.0079
785.00,0.0078
784.00,0.0077
783.00,0.0076
782.00,0.0073
781.00,0.0071
780.00,0.0070
779.00,0.0069
778.00,0.0069
777.00,0.0070
776.00,0.0070
775.00,0.0072
774.00,0.0074
773.00,0.0076
772.00,0.0079
771.00,0.0081
770.00,0.0084
769.00,0.0086
768.00,0.0086
767.00,0.0086
766.00,0.0086
765.00,0.0084
764.00,0.0082
763.00,0.0079
762.00,0.0076
761.00,0.0073
760.00,0.0071
759.00,0.0069
758.00,0.0067
757.00,0.0066
756.00,0.0065
755.00,0.0064
754.00,0.0064
753.00,0.0063
752.00,0.0063
751.00,0.0063
750.00,0.0063
749.00,0.0064
748.00,0.0065
747.00,0.0066
746.00,0.0067
745.00,0.0067
744.00,0.0067
743.00,0.0067
742.00,0.0068
741.00,0.0069
740.00,0.0070
739.00,0.0071
738.00,0.0072
737.00,0.0073
736.00,0.0076
735.00,0.0078
734.00,0.0080
733.00,0.0082
732.00,0.0083
731.00,0.0083
730.00,0.0083
729.00,0.0083
728.00,0.0082
727.00,0.0082
726.00,0.0082
725.00,0.0083
724.00,0.0083
723.00,0.0083
722.00,0.0082
721.00,0.0080
720.00,0.0077
719.00,0.0075
718.00,0.0073
717.00,0.0071
716.00,0.0068
715.00,0.0067
714.00,0.0067
713.00,0.0067
712.00,0.0068
711.00,0.0069
710.00,0.0070
709.00,0.0071
708.00,0.0073
707.00,0.0075
706.00,0.0075
705.00,0.0074
704.00,0.0074
703.00,0.0075
702.00,0.0075
701.00,0.0073
700.00,0.0070
699.00,0.0067
698.00,0.0064
697.00,0.0064
696.00,0.0064
695.00,0.0065
694.00,0.0065
693.00,0.0065
692.00,0.0065
691.00,0.0064
690.00,0.0063
689.00,0.0061
688.00,0.0061
687.00,0.0060
686.00,0.0058
685.00,0.0055
684.00,0.0053
683.00,0.0053
682.00,0.0056
681.00,0.0059
680.00,0.0061
679.00,0.0062
678.00,0.0063
677.00,0.0065
676.00,0.0067
675.00,0.0068
674.00,0.0068
673.00,0.0067
672.00,0.0066
671.00,0.0065
670.00,0.0064
669.00,0.0062
668.00,0.0059
667.00,0.0060
666.00,0.0061
665.00,0.0063
664.00,0.0064
663.00,0.0066
662.00,0.0067
661.00,0.0068
660.00,0.0068
659.00,0.0067
658.00,0.0065
657.00,0.0064
656.00,0.0065
655.00,0.0066
654.00,0.0068
653.00,0.0069
652.00,0.0071
651.00,0.0070
650.00,0.0069
649.00,0.0068
648.00,0.0068
647.00,0.0067
646.00,0.0066
645.00,0.0066
644.00,0.0067
643.00,0.0069
642.00,0.0070
641.00,0.0070
640.00,0.0070
639.00,0.0070
638.00,0.0070
637.00,0.0070
636.00,0.0070
635.00,0.0069
634.00,0.0068
633.00,0.0067
632.00,0.0067
631.00,0.0067
630.00,0.0067
629.00,0.0066
628.00,0.0066
627.00,0.0065
626.00,0.0065
625.00,0.0066
624.00,0.0069
623.00,0.0073
622.00,0.0074
621.00,0.0072
620.00,0.0068
619.00,0.0064
618.00,0.0062
617.00,0.0062
616.00,0.0063
615.00,0.0065
614.00,0.0067
613.00,0.0067
612.00,0.0066
611.00,0.0065
610.00,0.0065
609.00,0.0065
608.00,0.0066
607.00,0.0068
606.00,0.0070
605.00,0.0071
604.00,0.0070
603.00,0.0069
602.00,0.0067
601.00,0.0065
600.00,0.0063
599.00,0.0062
598.00,0.0064
597.00,0.0067
596.00,0.0072
595.00,0.0075
594.00,0.0077
593.00,0.0077
592.00,0.0075
591.00,0.0072
590.00,0.0068
589.00,0.0064
588.00,0.0063
587.00,0.0065
586.00,0.0068
585.00,0.0072
584.00,0.0074
583.00,0.0073
582.00,0.0070
581.00,0.0066
580.00,0.0065
579.00,0.0066
578.00,0.0068
577.00,0.0068
576.00,0.0069
575.00,0.0070
574.00,0.0072
573.00,0.0072
572.00,0.0071
571.00,0.0069
570.00,0.0068
569.00,0.0067
568.00,0.0065
567.00,0.0063
566.00,0.0062
565.00,0.0063
564.00,0.0067
563.00,0.0071
562.00,0.0073
561.00,0.0074
560.00,0.0072
559.00,0.0069
558.00,0.0068
557.00,0.0069
556.00,0.0070
555.00,0.0071
554.00,0.0071
553.00,0.0070
552.00,0.0067
551.00,0.0065
550.00,0.0065
549.00,0.0068
548.00,0.0072
547.00,0.0074
546.00,0.0074
545.00,0.0073
544.00,0.0072
543.00,0.0072
542.00,0.0073
541.00,0.0075
540.00,0.0078
539.00,0.0081
538.00,0.0083
537.00,0.0083
536.00,0.0081
535.00,0.0081
534.00,0.0084
533.00,0.0088
532.00,0.0090
531.00,0.0087
530.00,0.0081
529.00,0.0075
528.00,0.0074
527.00,0.0079
526.00,0.0088
525.00,0.0095
524.00,0.0099
523.00,0.0099
522.00,0.0097
521.00,0.0093
520.00,0.0089
519.00,0.0085
518.00,0.0081
517.00,0.0077
516.00,0.0075
515.00,0.0076
514.00,0.0078
513.00,0.0078
512.00,0.0073
511.00,0.0066
510.00,0.0061
509.00,0.0061
508.00,0.0066
507.00,0.0070
506.00,0.0071
505.00,0.0067
504.00,0.0063
503.00,0.0063
502.00,0.0068
501.00,0.0073
500.00,0.0075
499.00,0.0073
498.00,0.0068
497.00,0.0063
496.00,0.0061
495.00,0.0064
494.00,0.0069
493.00,0.0071
492.00,0.0070
491.00,0.0065
490.00,0.0062
489.00,0.0061
488.00,0.0064
487.00,0.0068
486.00,0.0074
485.00,0.0078
484.00,0.0080
483.00,0.0080
482.00,0.0083
481.00,0.0089
480.00,0.0096
479.00,0.0098
478.00,0.0091
477.00,0.0079
476.00,0.0071
475.00,0.0067
474.00,0.0063
473.00,0.0057
472.00,0.0052
471.00,0.0054
470.00,0.0061
469.00,0.0067
468.00,0.0071
467.00,0.0075
466.00,0.0082
465.00,0.0090
464.00,0.0100
463.00,0.0114
462.00,0.0132
461.00,0.0154
460.00,0.0176
459.00,0.0189
458.00,0.0181
457.00,0.0156
456.00,0.0133
455.00,0.0124
454.00,0.0123
453.00,0.0121
452.00,0.0112
451.00,0.0102
450.00,0.0092
