Created as New Dataset,Sample 016 By Administrator Date Wednesday, September 10 2025
cm-1,A
4000.00,0.0009
3999.00,0.0009
3998.00,0.0009
3997.00,0.0009
3996.00,0.0009
3995.00,0.0008
3994.00,0.0008
3993.00,0.0007
3992.00,0.0007
3991.00,0.0008
3990.00,0.0008
3989.00,0.0008
3988.00,0.0008
3987.00,0.0008
3986.00,0.0008
3985.00,0.0008
3984.00,0.0008
3983.00,0.0007
3982.00,0.0007
3981.00,0.0007
3980.00,0.0006
3979.00,0.0006
3978.00,0.0006
3977.00,0.0006
3976.00,0.0007
3975.00,0.0007
3974.00,0.0007
3973.00,0.0007
3972.00,0.0007
3971.00,0.0007
3970.00,0.0007
3969.00,0.0007
3968.00,0.0007
3967.00,0.0007
3966.00,0.0007
3965.00,0.0007
3964.00,0.0006
3963.00,0.0006
3962.00,0.0006
3961.00,0.0007
3960.00,0.0007
3959.00,0.0007
3958.00,0.0007
3957.00,0.0007
3956.00,0.0007
3955.00,0.0007
3954.00,0.0007
3953.00,0.0007
3952.00,0.0007
3951.00,0.0007
3950.00,0.0007
3949.00,0.0007
3948.00,0.0007
3947.00,0.0007
3946.00,0.0007
3945.00,0.0006
3944.00,0.0006
3943.00,0.0006
3942.00,0.0006
3941.00,0.0006
3940.00,0.0007
3939.00,0.0007
3938.00,0.0007
3937.00,0.0007
3936.00,0.0007
3935.00,0.0007
3934.00,0.0007
3933.00,0.0007
3932.00,0.0007
3931.00,0.0007
3930.00,0.0007
3929.00,0.0008
3928.00,0.0008
3927.00,0.0008
3926.00,0.0008
3925.00,0.0008
3924.00,0.0007
3923.00,0.0007
3922.00,0.0007
3921.00,0.0008
3920.00,0.0008
3919.00,0.0008
3918.00,0.0008
3917.00,0.0007
3916.00,0.0007
3915.00,0.0007
3914.00,0.0007
3913.00,0.0007
3912.00,0.0007
3911.00,0.0007
3910.00,0.0007
3909.00,0.0007
3908.00,0.0007
3907.00,0.0007
3906.00,0.0007
3905.00,0.0007
3904.00,0.0007
3903.00,0.0007
3902.00,0.0007
3901.00,0.0007
3900.00,0.0006
3899.00,0.0006
3898.00,0.0006
3897.00,0.0006
3896.00,0.0006
3895.00,0.0006
3894.00,0.0006
3893.00,0.0006
3892.00,0.0006
3891.00,0.0006
3890.00,0.0006
3889.00,0.0006
3888.00,0.0006
3887.00,0.0006
3886.00,0.0006
3885.00,0.0006
3884.00,0.0006
3883.00,0.0006
3882.00,0.0006
3881.00,0.0006
3880.00,0.0007
3879.00,0.0007
3878.00,0.0007
3877.00,0.0007
3876.00,0.0006
3875.00,0.0006
3874.00,0.0006
3873.00,0.0006
3872.00,0.0006
3871.00,0.0006
3870.00,0.0006
3869.00,0.0006
3868.00,0.0006
3867.00,0.0006
3866.00,0.0005
3865.00,0.0005
3864.00,0.0005
3863.00,0.0005
3862.00,0.0005
3861.00,0.0005
3860.00,0.0005
3859.00,0.0005
3858.00,0.0006
3857.00,0.0006
3856.00,0.0006
3855.00,0.0006
3854.00,0.0006
3853.00,0.0006
3852.00,0.0006
3851.00,0.0006
3850.00,0.0006
3849.00,0.0006
3848.00,0.0006
3847.00,0.0006
3846.00,0.0006
3845.00,0.0006
3844.00,0.0006
3843.00,0.0006
3842.00,0.0006
3841.00,0.0006
3840.00,0.0006
3839.00,0.0006
3838.00,0.0006
3837.00,0.0006
3836.00,0.0007
3835.00,0.0007
3834.00,0.0007
3833.00,0.0007
3832.00,0.0007
3831.00,0.0006
3830.00,0.0006
3829.00,0.0006
3828.00,0.0006
3827.00,0.0006
3826.00,0.0006
3825.00,0.0006
3824.00,0.0006
3823.00,0.0006
3822.00,0.0006
3821.00,0.0006
3820.00,0.0006
3819.00,0.0006
3818.00,0.0006
3817.00,0.0006
3816.00,0.0006
3815.00,0.0006
3814.00,0.0006
3813.00,0.0006
3812.00,0.0006
3811.00,0.0006
3810.00,0.0006
3809.00,0.0006
3808.00,0.0006
3807.00,0.0006
3806.00,0.0006
3805.00,0.0006
3804.00,0.0006
3803.00,0.0007
3802.00,0.0007
3801.00,0.0007
3800.00,0.0007
3799.00,0.0007
3798.00,0.0007
3797.00,0.0007
3796.00,0.0007
3795.00,0.0007
3794.00,0.0006
3793.00,0.0006
3792.00,0.0006
3791.00,0.0006
3790.00,0.0006
3789.00,0.0006
3788.00,0.0006
3787.00,0.0006
3786.00,0.0007
3785.00,0.0007
3784.00,0.0007
3783.00,0.0007
3782.00,0.0007
3781.00,0.0007
3780.00,0.0007
3779.00,0.0007
3778.00,0.0006
3777.00,0.0006
3776.00,0.0006
3775.00,0.0006
3774.00,0.0006
3773.00,0.0007
3772.00,0.0007
3771.00,0.0007
3770.00,0.0007
3769.00,0.0007
3768.00,0.0008
3767.00,0.0008
3766.00,0.0008
3765.00,0.0008
3764.00,0.0008
3763.00,0.0008
3762.00,0.0008
3761.00,0.0008
3760.00,0.0008
3759.00,0.0008
3758.00,0.0008
3757.00,0.0007
3756.00,0.0007
3755.00,0.0007
3754.00,0.0007
3753.00,0.0007
3752.00,0.0006
3751.00,0.0006
3750.00,0.0007
3749.00,0.0007
3748.00,0.0007
3747.00,0.0007
3746.00,0.0007
3745.00,0.0006
3744.00,0.0006
3743.00,0.0005
3742.00,0.0005
3741.00,0.0005
3740.00,0.0005
3739.00,0.0005
3738.00,0.0006
3737.00,0.0006
3736.00,0.0006
3735.00,0.0005
3734.00,0.0005
3733.00,0.0005
3732.00,0.0005
3731.00,0.0005
3730.00,0.0005
3729.00,0.0005
3728.00,0.0006
3727.00,0.0006
3726.00,0.0006
3725.00,0.0006
3724.00,0.0006
3723.00,0.0006
3722.00,0.0006
3721.00,0.0006
3720.00,0.0006
3719.00,0.0005
3718.00,0.0005
3717.00,0.0005
3716.00,0.0005
3715.00,0.0005
3714.00,0.0004
3713.00,0.0004
3712.00,0.0005
3711.00,0.0005
3710.00,0.0005
3709.00,0.0005
3708.00,0.0005
3707.00,0.0004
3706.00,0.0004
3705.00,0.0004
3704.00,0.0004
3703.00,0.0005
3702.00,0.0005
3701.00,0.0005
3700.00,0.0005
3699.00,0.0005
3698.00,0.0004
3697.00,0.0004
3696.00,0.0004
3695.00,0.0004
3694.00,0.0005
3693.00,0.0005
3692.00,0.0004
3691.00,0.0004
3690.00,0.0004
3689.00,0.0005
3688.00,0.0005
3687.00,0.0004
3686.00,0.0004
3685.00,0.0004
3684.00,0.0004
3683.00,0.0005
3682.00,0.0005
3681.00,0.0005
3680.00,0.0005
3679.00,0.0005
3678.00,0.0006
3677.00,0.0006
3676.00,0.0006
3675.00,0.0006
3674.00,0.0006
3673.00,0.0007
3672.00,0.0006
3671.00,0.0006
3670.00,0.0006
3669.00,0.0006
3668.00,0.0005
3667.00,0.0005
3666.00,0.0006
3665.00,0.0006
3664.00,0.0006
3663.00,0.0006
3662.00,0.0006
3661.00,0.0006
3660.00,0.0006
3659.00,0.0006
3658.00,0.0006
3657.00,0.0005
3656.00,0.0005
3655.00,0.0005
3654.00,0.0005
3653.00,0.0005
3652.00,0.0006
3651.00,0.0006
3650.00,0.0006
3649.00,0.0006
3648.00,0.0006
3647.00,0.0006
3646.00,0.0006
3645.00,0.0007
3644.00,0.0007
3643.00,0.0007
3642.00,0.0007
3641.00,0.0006
3640.00,0.0006
3639.00,0.0006
3638.00,0.0006
3637.00,0.0007
3636.00,0.0007
3635.00,0.0007
3634.00,0.0007
3633.00,0.0007
3632.00,0.0006
3631.00,0.0006
3630.00,0.0005
3629.00,0.0005
3628.00,0.0005
3627.00,0.0006
3626.00,0.0006
3625.00,0.0007
3624.00,0.0007
3623.00,0.0008
3622.00,0.0008
3621.00,0.0008
3620.00,0.0008
3619.00,0.0008
3618.00,0.0007
3617.00,0.0007
3616.00,0.0007
3615.00,0.0008
3614.00,0.0008
3613.00,0.0009
3612.00,0.0010
3611.00,0.0011
3610.00,0.0010
3609.00,0.0010
3608.00,0.0009
3607.00,0.0008
3606.00,0.0008
3605.00,0.0008
3604.00,0.0009
3603.00,0.0009
3602.00,0.0009
3601.00,0.0010
3600.00,0.0010
3599.00,0.0010
3598.00,0.0010
3597.00,0.0010
3596.00,0.0010
3595.00,0.0010
3594.00,0.0010
3593.00,0.0010
3592.00,0.0010
3591.00,0.0011
3590.00,0.0011
3589.00,0.0011
3588.00,0.0011
3587.00,0.0011
3586.00,0.0011
3585.00,0.0011
3584.00,0.0012
3583.00,0.0012
3582.00,0.0012
3581.00,0.0013
3580.00,0.0013
3579.00,0.0013
3578.00,0.0013
3577.00,0.0013
3576.00,0.0014
3575.00,0.0014
3574.00,0.0014
3573.00,0.0013
3572.00,0.0014
3571.00,0.0014
3570.00,0.0014
3569.00,0.0015
3568.00,0.0015
3567.00,0.0015
3566.00,0.0015
3565.00,0.0015
3564.00,0.0015
3563.00,0.0016
3562.00,0.0016
3561.00,0.0016
3560.00,0.0016
3559.00,0.0016
3558.00,0.0017
3557.00,0.0017
3556.00,0.0018
3555.00,0.0018
3554.00,0.0018
3553.00,0.0018
3552.00,0.0018
3551.00,0.0018
3550.00,0.0018
3549.00,0.0019
3548.00,0.0019
3547.00,0.0020
3546.00,0.0020
3545.00,0.0021
3544.00,0.0020
3543.00,0.0020
3542.00,0.0020
3541.00,0.0020
3540.00,0.0020
3539.00,0.0020
3538.00,0.0021
3537.00,0.0022
3536.00,0.0023
3535.00,0.0023
3534.00,0.0023
3533.00,0.0023
3532.00,0.0023
3531.00,0.0024
3530.00,0.0024
3529.00,0.0024
3528.00,0.0024
3527.00,0.0024
3526.00,0.0025
3525.00,0.0025
3524.00,0.0025
3523.00,0.0026
3522.00,0.0026
3521.00,0.0026
3520.00,0.0026
3519.00,0.0027
3518.00,0.0027
3517.00,0.0027
3516.00,0.0028
3515.00,0.0028
3514.00,0.0028
3513.00,0.0029
3512.00,0.0029
3511.00,0.0029
3510.00,0.0030
3509.00,0.0030
3508.00,0.0030
3507.00,0.0030
3506.00,0.0030
3505.00,0.0030
3504.00,0.0031
3503.00,0.0031
3502.00,0.0032
3501.00,0.0032
3500.00,0.0031
3499.00,0.0031
3498.00,0.0031
3497.00,0.0032
3496.00,0.0032
3495.00,0.0033
3494.00,0.0033
3493.00,0.0033
3492.00,0.0033
3491.00,0.0034
3490.00,0.0034
3489.00,0.0035
3488.00,0.0035
3487.00,0.0035
3486.00,0.0035
3485.00,0.0035
3484.00,0.0035
3483.00,0.0036
3482.00,0.0036
3481.00,0.0037
3480.00,0.0037
3479.00,0.0037
3478.00,0.0037
3477.00,0.0037
3476.00,0.0038
3475.00,0.0038
3474.00,0.0039
3473.00,0.0039
3472.00,0.0039
3471.00,0.0039
3470.00,0.0039
3469.00,0.0039
3468.00,0.0039
3467.00,0.0039
3466.00,0.0040
3465.00,0.0040
3464.00,0.0041
3463.00,0.0041
3462.00,0.0042
3461.00,0.0042
3460.00,0.0042
3459.00,0.0042
3458.00,0.0042
3457.00,0.0042
3456.00,0.0043
3455.00,0.0043
3454.00,0.0043
3453.00,0.0043
3452.00,0.0043
3451.00,0.0043
3450.00,0.0043
3449.00,0.0043
3448.00,0.0043
3447.00,0.0044
3446.00,0.0044
3445.00,0.0045
3444.00,0.0045
3443.00,0.0045
3442.00,0.0045
3441.00,0.0045
3440.00,0.0046
3439.00,0.0046
3438.00,0.0047
3437.00,0.0047
3436.00,0.0047
3435.00,0.0048
3434.00,0.0048
3433.00,0.0048
3432.00,0.0048
3431.00,0.0048
3430.00,0.0048
3429.00,0.0049
3428.00,0.0049
3427.00,0.0049
3426.00,0.0049
3425.00,0.0049
3424.00,0.0049
3423.00,0.0049
3422.00,0.0049
3421.00,0.0050
3420.00,0.0051
3419.00,0.0051
3418.00,0.0052
3417.00,0.0052
3416.00,0.0052
3415.00,0.0052
3414.00,0.0052
3413.00,0.0052
3412.00,0.0053
3411.00,0.0053
3410.00,0.0053
3409.00,0.0053
3408.00,0.0053
3407.00,0.0054
3406.00,0.0054
3405.00,0.0055
3404.00,0.0055
3403.00,0.0055
3402.00,0.0055
3401.00,0.0055
3400.00,0.0055
3399.00,0.0055
3398.00,0.0054
3397.00,0.0055
3396.00,0.0055
3395.00,0.0055
3394.00,0.0055
3393.00,0.0056
3392.00,0.0056
3391.00,0.0055
3390.00,0.0055
3389.00,0.0055
3388.00,0.0055
3387.00,0.0055
3386.00,0.0055
3385.00,0.0055
3384.00,0.0055
3383.00,0.0055
3382.00,0.0054
3381.00,0.0054
3380.00,0.0054
3379.00,0.0055
3378.00,0.0055
3377.00,0.0055
3376.00,0.0056
3375.00,0.0056
3374.00,0.0056
3373.00,0.0056
3372.00,0.0055
3371.00,0.0055
3370.00,0.0055
3369.00,0.0054
3368.00,0.0054
3367.00,0.0054
3366.00,0.0054
3365.00,0.0054
3364.00,0.0055
3363.00,0.0055
3362.00,0.0055
3361.00,0.0055
3360.00,0.0055
3359.00,0.0055
3358.00,0.0055
3357.00,0.0056
3356.00,0.0056
3355.00,0.0056
3354.00,0.0056
3353.00,0.0056
3352.00,0.0056
3351.00,0.0056
3350.00,0.0056
3349.00,0.0056
3348.00,0.0056
3347.00,0.0057
3346.00,0.0057
3345.00,0.0057
3344.00,0.0057
3343.00,0.0056
3342.00,0.0056
3341.00,0.0056
3340.00,0.0055
3339.00,0.0055
3338.00,0.0055
3337.00,0.0055
3336.00,0.0054
3335.00,0.0054
3334.00,0.0054
3333.00,0.0054
3332.00,0.0054
3331.00,0.0054
3330.00,0.0054
3329.00,0.0054
3328.00,0.0053
3327.00,0.0053
3326.00,0.0053
3325.00,0.0053
3324.00,0.0053
3323.00,0.0053
3322.00,0.0053
3321.00,0.0053
3320.00,0.0053
3319.00,0.0054
3318.00,0.0054
3317.00,0.0054
3316.00,0.0054
3315.00,0.0054
3314.00,0.0054
3313.00,0.0054
3312.00,0.0053
3311.00,0.0053
3310.00,0.0053
3309.00,0.0052
3308.00,0.0052
3307.00,0.0052
3306.00,0.0052
3305.00,0.0052
3304.00,0.0052
3303.00,0.0053
3302.00,0.0053
3301.00,0.0053
3300.00,0.0053
3299.00,0.0052
3298.00,0.0052
3297.00,0.0052
3296.00,0.0052
3295.00,0.0052
3294.00,0.0051
3293.00,0.0051
3292.00,0.0050
3291.00,0.0050
3290.00,0.0050
3289.00,0.0050
3288.00,0.0050
3287.00,0.0050
3286.00,0.0050
3285.00,0.0050
3284.00,0.0050
3283.00,0.0050
3282.00,0.0050
3281.00,0.0050
3280.00,0.0050
3279.00,0.0050
3278.00,0.0050
3277.00,0.0050
3276.00,0.0050
3275.00,0.0049
3274.00,0.0049
3273.00,0.0049
3272.00,0.0049
3271.00,0.0049
3270.00,0.0049
3269.00,0.0049
3268.00,0.0049
3267.00,0.0048
3266.00,0.0048
3265.00,0.0048
3264.00,0.0048
3263.00,0.0048
3262.00,0.0047
3261.00,0.0047
3260.00,0.0047
3259.00,0.0046
3258.00,0.0046
3257.00,0.0046
3256.00,0.0045
3255.00,0.0045
3254.00,0.0045
3253.00,0.0045
3252.00,0.0044
3251.00,0.0044
3250.00,0.0045
3249.00,0.0045
3248.00,0.0045
3247.00,0.0045
3246.00,0.0044
3245.00,0.0044
3244.00,0.0044
3243.00,0.0044
3242.00,0.0043
3241.00,0.0043
3240.00,0.0043
3239.00,0.0043
3238.00,0.0043
3237.00,0.0043
3236.00,0.0043
3235.00,0.0044
3234.00,0.0044
3233.00,0.0044
3232.00,0.0044
3231.00,0.0044
3230.00,0.0044
3229.00,0.0045
3228.00,0.0045
3227.00,0.0045
3226.00,0.0045
3225.00,0.0045
3224.00,0.0045
3223.00,0.0046
3222.00,0.0046
3221.00,0.0046
3220.00,0.0046
3219.00,0.0046
3218.00,0.0046
3217.00,0.0046
3216.00,0.0047
3215.00,0.0047
3214.00,0.0047
3213.00,0.0047
3212.00,0.0047
3211.00,0.0048
3210.00,0.0048
3209.00,0.0048
3208.00,0.0048
3207.00,0.0049
3206.00,0.0048
3205.00,0.0048
3204.00,0.0048
3203.00,0.0047
3202.00,0.0047
3201.00,0.0047
3200.00,0.0048
3199.00,0.0048
3198.00,0.0048
3197.00,0.0048
3196.00,0.0048
3195.00,0.0048
3194.00,0.0048
3193.00,0.0048
3192.00,0.0048
3191.00,0.0048
3190.00,0.0047
3189.00,0.0047
3188.00,0.0047
3187.00,0.0047
3186.00,0.0046
3185.00,0.0046
3184.00,0.0046
3183.00,0.0045
3182.00,0.0045
3181.00,0.0045
3180.00,0.0045
3179.00,0.0045
3178.00,0.0045
3177.00,0.0045
3176.00,0.0045
3175.00,0.0045
3174.00,0.0045
3173.00,0.0044
3172.00,0.0044
3171.00,0.0043
3170.00,0.0043
3169.00,0.0042
3168.00,0.0042
3167.00,0.0042
3166.00,0.0042
3165.00,0.0042
3164.00,0.0042
3163.00,0.0041
3162.00,0.0041
3161.00,0.0041
3160.00,0.0040
3159.00,0.0040
3158.00,0.0040
3157.00,0.0040
3156.00,0.0039
3155.00,0.0039
3154.00,0.0039
3153.00,0.0039
3152.00,0.0039
3151.00,0.0040
3150.00,0.0040
3149.00,0.0040
3148.00,0.0040
3147.00,0.0040
3146.00,0.0040
3145.00,0.0040
3144.00,0.0039
3143.00,0.0039
3142.00,0.0039
3141.00,0.0039
3140.00,0.0039
3139.00,0.0039
3138.00,0.0039
3137.00,0.0039
3136.00,0.0039
3135.00,0.0039
3134.00,0.0038
3133.00,0.0038
3132.00,0.0038
3131.00,0.0037
3130.00,0.0036
3129.00,0.0036
3128.00,0.0036
3127.00,0.0036
3126.00,0.0036
3125.00,0.0035
3124.00,0.0035
3123.00,0.0034
3122.00,0.0033
3121.00,0.0033
3120.00,0.0034
3119.00,0.0034
3118.00,0.0034
3117.00,0.0034
3116.00,0.0034
3115.00,0.0034
3114.00,0.0034
3113.00,0.0033
3112.00,0.0033
3111.00,0.0033
3110.00,0.0033
3109.00,0.0033
3108.00,0.0033
3107.00,0.0032
3106.00,0.0032
3105.00,0.0032
3104.00,0.0032
3103.00,0.0031
3102.00,0.0031
3101.00,0.0031
3100.00,0.0031
3099.00,0.0031
3098.00,0.0031
3097.00,0.0031
3096.00,0.0031
3095.00,0.0031
3094.00,0.0031
3093.00,0.0030
3092.00,0.0030
3091.00,0.0030
3090.00,0.0030
3089.00,0.0030
3088.00,0.0030
3087.00,0.0030
3086.00,0.0029
3085.00,0.0029
3084.00,0.0029
3083.00,0.0029
3082.00,0.0030
3081.00,0.0029
3080.00,0.0029
3079.00,0.0029
3078.00,0.0029
3077.00,0.0030
3076.00,0.0030
3075.00,0.0030
3074.00,0.0030
3073.00,0.0029
3072.00,0.0029
3071.00,0.0030
3070.00,0.0030
3069.00,0.0030
3068.00,0.0030
3067.00,0.0030
3066.00,0.0030
3065.00,0.0031
3064.00,0.0031
3063.00,0.0031
3062.00,0.0031
3061.00,0.0031
3060.00,0.0031
3059.00,0.0031
3058.00,0.0032
3057.00,0.0032
3056.00,0.0032
3055.00,0.0032
3054.00,0.0032
3053.00,0.0033
3052.00,0.0033
3051.00,0.0033
3050.00,0.0033
3049.00,0.0034
3048.00,0.0034
3047.00,0.0034
3046.00,0.0034
3045.00,0.0034
3044.00,0.0034
3043.00,0.0034
3042.00,0.0034
3041.00,0.0034
3040.00,0.0034
3039.00,0.0034
3038.00,0.0034
3037.00,0.0035
3036.00,0.0035
3035.00,0.0035
3034.00,0.0036
3033.00,0.0036
3032.00,0.0036
3031.00,0.0037
3030.00,0.0037
3029.00,0.0038
3028.00,0.0038
3027.00,0.0039
3026.00,0.0040
3025.00,0.0040
3024.00,0.0041
3023.00,0.0042
3022.00,0.0043
3021.00,0.0044
3020.00,0.0045
3019.00,0.0046
3018.00,0.0047
3017.00,0.0048
3016.00,0.0049
3015.00,0.0049
3014.00,0.0051
3013.00,0.0052
3012.00,0.0053
3011.00,0.0054
3010.00,0.0055
3009.00,0.0057
3008.00,0.0059
3007.00,0.0060
3006.00,0.0062
3005.00,0.0064
3004.00,0.0066
3003.00,0.0068
3002.00,0.0070
3001.00,0.0073
3000.00,0.0075
2999.00,0.0078
2998.00,0.0081
2997.00,0.0084
2996.00,0.0088
2995.00,0.0092
2994.00,0.0096
2993.00,0.0101
2992.00,0.0106
2991.00,0.0112
2990.00,0.0118
2989.00,0.0125
2988.00,0.0132
2987.00,0.0141
2986.00,0.0151
2985.00,0.0162
2984.00,0.0174
2983.00,0.0188
2982.00,0.0203
2981.00,0.0219
2980.00,0.0238
2979.00,0.0259
2978.00,0.0283
2977.00,0.0310
2976.00,0.0342
2975.00,0.0377
2974.00,0.0418
2973.00,0.0464
2972.00,0.0515
2971.00,0.0572
2970.00,0.0635
2969.00,0.0703
2968.00,0.0775
2967.00,0.0852
2966.00,0.0931
2965.00,0.1009
2964.00,0.1083
2963.00,0.1152
2962.00,0.1211
2961.00,0.1262
2960.00,0.1307
2959.00,0.1349
2958.00,0.1394
2957.00,0.1448
2956.00,0.1515
2955.00,0.1596
2954.00,0.1689
2953.00,0.1787
2952.00,0.1882
2951.00,0.1961
2950.00,0.2010
2949.00,0.2019
2948.00,0.1980
2947.00,0.1895
2946.00,0.1773
2945.00,0.1632
2944.00,0.1489
2943.00,0.1359
2942.00,0.1252
2941.00,0.1174
2940.00,0.1123
2939.00,0.1099
2938.00,0.1099
2937.00,0.1119
2936.00,0.1158
2935.00,0.1215
2934.00,0.1288
2933.00,0.1375
2932.00,0.1474
2931.00,0.1584
2930.00,0.1702
2929.00,0.1825
2928.00,0.1948
2927.00,0.2069
2926.00,0.2186
2925.00,0.2299
2924.00,0.2409
2923.00,0.2519
2922.00,0.2629
2921.00,0.2736
2920.00,0.2835
2919.00,0.2916
2918.00,0.2966
2917.00,0.2975
2916.00,0.2940
2915.00,0.2864
2914.00,0.2758
2913.00,0.2634
2912.00,0.2505
2911.00,0.2380
2910.00,0.2264
2909.00,0.2158
2908.00,0.2060
2907.00,0.1968
2906.00,0.1879
2905.00,0.1794
2904.00,0.1711
2903.00,0.1630
2902.00,0.1552
2901.00,0.1478
2900.00,0.1408
2899.00,0.1343
2898.00,0.1283
2897.00,0.1229
2896.00,0.1182
2895.00,0.1143
2894.00,0.1111
2893.00,0.1087
2892.00,0.1070
2891.00,0.1060
2890.00,0.1056
2889.00,0.1058
2888.00,0.1063
2887.00,0.1073
2886.00,0.1087
2885.00,0.1105
2884.00,0.1127
2883.00,0.1155
2882.00,0.1188
2881.00,0.1225
2880.00,0.1263
2879.00,0.1296
2878.00,0.1320
2877.00,0.1331
2876.00,0.1331
2875.00,0.1323
2874.00,0.1314
2873.00,0.1310
2872.00,0.1314
2871.00,0.1329
2870.00,0.1351
2869.00,0.1376
2868.00,0.1394
2867.00,0.1397
2866.00,0.1374
2865.00,0.1320
2864.00,0.1239
2863.00,0.1137
2862.00,0.1029
2861.00,0.0926
2860.00,0.0835
2859.00,0.0761
2858.00,0.0705
2857.00,0.0664
2856.00,0.0635
2855.00,0.0616
2854.00,0.0607
2853.00,0.0605
2852.00,0.0609
2851.00,0.0620
2850.00,0.0638
2849.00,0.0663
2848.00,0.0695
2847.00,0.0736
2846.00,0.0785
2845.00,0.0844
2844.00,0.0911
2843.00,0.0985
2842.00,0.1060
2841.00,0.1133
2840.00,0.1193
2839.00,0.1234
2838.00,0.1245
2837.00,0.1221
2836.00,0.1162
2835.00,0.1074
2834.00,0.0967
2833.00,0.0854
2832.00,0.0745
2831.00,0.0648
2830.00,0.0566
2829.00,0.0499
2828.00,0.0444
2827.00,0.0400
2826.00,0.0365
2825.00,0.0336
2824.00,0.0312
2823.00,0.0292
2822.00,0.0275
2821.00,0.0260
2820.00,0.0247
2819.00,0.0236
2818.00,0.0227
2817.00,0.0219
2816.00,0.0211
2815.00,0.0204
2814.00,0.0198
2813.00,0.0193
2812.00,0.0187
2811.00,0.0182
2810.00,0.0176
2809.00,0.0169
2808.00,0.0163
2807.00,0.0156
2806.00,0.0149
2805.00,0.0142
2804.00,0.0135
2803.00,0.0129
2802.00,0.0124
2801.00,0.0119
2800.00,0.0115
2799.00,0.0112
2798.00,0.0109
2797.00,0.0106
2796.00,0.0104
2795.00,0.0102
2794.00,0.0099
2793.00,0.0097
2792.00,0.0093
2791.00,0.0090
2790.00,0.0087
2789.00,0.0084
2788.00,0.0082
2787.00,0.0079
2786.00,0.0077
2785.00,0.0075
2784.00,0.0073
2783.00,0.0070
2782.00,0.0068
2781.00,0.0066
2780.00,0.0065
2779.00,0.0063
2778.00,0.0062
2777.00,0.0061
2776.00,0.0060
2775.00,0.0058
2774.00,0.0058
2773.00,0.0057
2772.00,0.0056
2771.00,0.0056
2770.00,0.0056
2769.00,0.0056
2768.00,0.0055
2767.00,0.0055
2766.00,0.0055
2765.00,0.0054
2764.00,0.0054
2763.00,0.0053
2762.00,0.0053
2761.00,0.0053
2760.00,0.0052
2759.00,0.0052
2758.00,0.0052
2757.00,0.0051
2756.00,0.0051
2755.00,0.0051
2754.00,0.0051
2753.00,0.0051
2752.00,0.0051
2751.00,0.0051
2750.00,0.0051
2749.00,0.0050
2748.00,0.0051
2747.00,0.0051
2746.00,0.0051
2745.00,0.0052
2744.00,0.0053
2743.00,0.0054
2742.00,0.0055
2741.00,0.0056
2740.00,0.0057
2739.00,0.0059
2738.00,0.0060
2737.00,0.0061
2736.00,0.0063
2735.00,0.0065
2734.00,0.0067
2733.00,0.0069
2732.00,0.0071
2731.00,0.0074
2730.00,0.0076
2729.00,0.0079
2728.00,0.0082
2727.00,0.0085
2726.00,0.0088
2725.00,0.0091
2724.00,0.0092
2723.00,0.0093
2722.00,0.0091
2721.00,0.0089
2720.00,0.0086
2719.00,0.0083
2718.00,0.0079
2717.00,0.0076
2716.00,0.0072
2715.00,0.0069
2714.00,0.0066
2713.00,0.0064
2712.00,0.0062
2711.00,0.0059
2710.00,0.0057
2709.00,0.0055
2708.00,0.0054
2707.00,0.0052
2706.00,0.0051
2705.00,0.0049
2704.00,0.0048
2703.00,0.0047
2702.00,0.0046
2701.00,0.0045
2700.00,0.0044
2699.00,0.0044
2698.00,0.0043
2697.00,0.0043
2696.00,0.0043
2695.00,0.0044
2694.00,0.0044
2693.00,0.0044
2692.00,0.0044
2691.00,0.0044
2690.00,0.0044
2689.00,0.0044
2688.00,0.0043
2687.00,0.0043
2686.00,0.0044
2685.00,0.0044
2684.00,0.0044
2683.00,0.0043
2682.00,0.0044
2681.00,0.0044
2680.00,0.0044
2679.00,0.0045
2678.00,0.0045
2677.00,0.0045
2676.00,0.0045
2675.00,0.0045
2674.00,0.0045
2673.00,0.0044
2672.00,0.0044
2671.00,0.0044
2670.00,0.0043
2669.00,0.0044
2668.00,0.0044
2667.00,0.0044
2666.00,0.0045
2665.00,0.0045
2664.00,0.0046
2663.00,0.0046
2662.00,0.0046
2661.00,0.0046
2660.00,0.0046
2659.00,0.0046
2658.00,0.0046
2657.00,0.0046
2656.00,0.0046
2655.00,0.0045
2654.00,0.0045
2653.00,0.0044
2652.00,0.0044
2651.00,0.0043
2650.00,0.0043
2649.00,0.0042
2648.00,0.0042
2647.00,0.0042
2646.00,0.0042
2645.00,0.0041
2644.00,0.0040
2643.00,0.0040
2642.00,0.0039
2641.00,0.0039
2640.00,0.0038
2639.00,0.0037
2638.00,0.0037
2637.00,0.0037
2636.00,0.0037
2635.00,0.0037
2634.00,0.0036
2633.00,0.0036
2632.00,0.0036
2631.00,0.0036
2630.00,0.0037
2629.00,0.0037
2628.00,0.0038
2627.00,0.0038
2626.00,0.0038
2625.00,0.0038
2624.00,0.0038
2623.00,0.0038
2622.00,0.0039
2621.00,0.0039
2620.00,0.0039
2619.00,0.0040
2618.00,0.0040
2617.00,0.0040
2616.00,0.0040
2615.00,0.0040
2614.00,0.0040
2613.00,0.0040
2612.00,0.0039
2611.00,0.0038
2610.00,0.0037
2609.00,0.0037
2608.00,0.0036
2607.00,0.0035
2606.00,0.0034
2605.00,0.0034
2604.00,0.0033
2603.00,0.0033
2602.00,0.0033
2601.00,0.0032
2600.00,0.0032
2599.00,0.0032
2598.00,0.0032
2597.00,0.0032
2596.00,0.0032
2595.00,0.0032
2594.00,0.0032
2593.00,0.0032
2592.00,0.0033
2591.00,0.0035
2590.00,0.0036
2589.00,0.0037
2588.00,0.0038
2587.00,0.0038
2586.00,0.0039
2585.00,0.0040
2584.00,0.0040
2583.00,0.0040
2582.00,0.0040
2581.00,0.0040
2580.00,0.0040
2579.00,0.0040
2578.00,0.0040
2577.00,0.0039
2576.00,0.0038
2575.00,0.0036
2574.00,0.0034
2573.00,0.0032
2572.00,0.0030
2571.00,0.0029
2570.00,0.0028
2569.00,0.0028
2568.00,0.0027
2567.00,0.0027
2566.00,0.0027
2565.00,0.0026
2564.00,0.0025
2563.00,0.0024
2562.00,0.0024
2561.00,0.0023
2560.00,0.0023
2559.00,0.0023
2558.00,0.0023
2557.00,0.0023
2556.00,0.0022
2555.00,0.0022
2554.00,0.0021
2553.00,0.0020
2552.00,0.0019
2551.00,0.0019
2550.00,0.0018
2549.00,0.0018
2548.00,0.0018
2547.00,0.0018
2546.00,0.0018
2545.00,0.0018
2544.00,0.0018
2543.00,0.0018
2542.00,0.0017
2541.00,0.0017
2540.00,0.0016
2539.00,0.0015
2538.00,0.0015
2537.00,0.0015
2536.00,0.0015
2535.00,0.0016
2534.00,0.0016
2533.00,0.0016
2532.00,0.0016
2531.00,0.0015
2530.00,0.0015
2529.00,0.0014
2528.00,0.0014
2527.00,0.0013
2526.00,0.0013
2525.00,0.0013
2524.00,0.0013
2523.00,0.0013
2522.00,0.0013
2521.00,0.0013
2520.00,0.0013
2519.00,0.0013
2518.00,0.0013
2517.00,0.0012
2516.00,0.0012
2515.00,0.0011
2514.00,0.0010
2513.00,0.0009
2512.00,0.0009
2511.00,0.0009
2510.00,0.0009
2509.00,0.0009
2508.00,0.0009
2507.00,0.0009
2506.00,0.0010
2505.00,0.0010
2504.00,0.0010
2503.00,0.0010
2502.00,0.0009
2501.00,0.0009
2500.00,0.0009
2499.00,0.0009
2498.00,0.0009
2497.00,0.0010
2496.00,0.0010
2495.00,0.0010
2494.00,0.0010
2493.00,0.0011
2492.00,0.0011
2491.00,0.0011
2490.00,0.0010
2489.00,0.0009
2488.00,0.0008
2487.00,0.0008
2486.00,0.0008
2485.00,0.0008
2484.00,0.0009
2483.00,0.0009
2482.00,0.0009
2481.00,0.0009
2480.00,0.0009
2479.00,0.0009
2478.00,0.0009
2477.00,0.0009
2476.00,0.0008
2475.00,0.0008
2474.00,0.0009
2473.00,0.0010
2472.00,0.0010
2471.00,0.0010
2470.00,0.0010
2469.00,0.0010
2468.00,0.0009
2467.00,0.0009
2466.00,0.0009
2465.00,0.0008
2464.00,0.0008
2463.00,0.0009
2462.00,0.0010
2461.00,0.0011
2460.00,0.0011
2459.00,0.0011
2458.00,0.0011
2457.00,0.0010
2456.00,0.0010
2455.00,0.0010
2454.00,0.0010
2453.00,0.0010
2452.00,0.0011
2451.00,0.0011
2450.00,0.0011
2449.00,0.0011
2448.00,0.0010
2447.00,0.0010
2446.00,0.0011
2445.00,0.0011
2444.00,0.0011
2443.00,0.0012
2442.00,0.0012
2441.00,0.0012
2440.00,0.0012
2439.00,0.0011
2438.00,0.0011
2437.00,0.0011
2436.00,0.0011
2435.00,0.0011
2434.00,0.0011
2433.00,0.0011
2432.00,0.0012
2431.00,0.0012
2430.00,0.0013
2429.00,0.0013
2428.00,0.0013
2427.00,0.0012
2426.00,0.0012
2425.00,0.0011
2424.00,0.0011
2423.00,0.0011
2422.00,0.0011
2421.00,0.0010
2420.00,0.0010
2419.00,0.0010
2418.00,0.0010
2417.00,0.0010
2416.00,0.0010
2415.00,0.0009
2414.00,0.0009
2413.00,0.0009
2412.00,0.0010
2411.00,0.0010
2410.00,0.0010
2409.00,0.0009
2408.00,0.0009
2407.00,0.0008
2406.00,0.0008
2405.00,0.0008
2404.00,0.0008
2403.00,0.0009
2402.00,0.0009
2401.00,0.0009
2400.00,0.0008
2399.00,0.0008
2398.00,0.0008
2397.00,0.0007
2396.00,0.0007
2395.00,0.0007
2394.00,0.0007
2393.00,0.0007
2392.00,0.0007
2391.00,0.0007
2390.00,0.0007
2389.00,0.0007
2388.00,0.0007
2387.00,0.0006
2386.00,0.0005
2385.00,0.0004
2384.00,0.0004
2383.00,0.0004
2382.00,0.0004
2381.00,0.0004
2380.00,0.0004
2379.00,0.0004
2378.00,0.0003
2377.00,0.0003
2376.00,0.0003
2375.00,0.0003
2374.00,0.0003
2373.00,0.0003
2372.00,0.0003
2371.00,0.0003
2370.00,0.0002
2369.00,0.0002
2368.00,0.0002
2367.00,0.0002
2366.00,0.0002
2365.00,0.0003
2364.00,0.0003
2363.00,0.0003
2362.00,0.0003
2361.00,0.0003
2360.00,0.0003
2359.00,0.0003
2358.00,0.0004
2357.00,0.0005
2356.00,0.0006
2355.00,0.0006
2354.00,0.0005
2353.00,0.0004
2352.00,0.0004
2351.00,0.0003
2350.00,0.0004
2349.00,0.0004
2348.00,0.0004
2347.00,0.0005
2346.00,0.0005
2345.00,0.0005
2344.00,0.0006
2343.00,0.0006
2342.00,0.0006
2341.00,0.0006
2340.00,0.0007
2339.00,0.0007
2338.00,0.0007
2337.00,0.0007
2336.00,0.0008
2335.00,0.0008
2334.00,0.0009
2333.00,0.0008
2332.00,0.0007
2331.00,0.0006
2330.00,0.0005
2329.00,0.0005
2328.00,0.0006
2327.00,0.0010
2326.00,0.0015
2325.00,0.0019
2324.00,0.0021
2323.00,0.0021
2322.00,0.0019
2321.00,0.0016
2320.00,0.0015
2319.00,0.0014
2318.00,0.0013
2317.00,0.0012
2316.00,0.0012
2315.00,0.0011
2314.00,0.0010
2313.00,0.0009
2312.00,0.0009
2311.00,0.0008
2310.00,0.0008
2309.00,0.0008
2308.00,0.0008
2307.00,0.0008
2306.00,0.0009
2305.00,0.0009
2304.00,0.0010
2303.00,0.0010
2302.00,0.0011
2301.00,0.0011
2300.00,0.0011
2299.00,0.0010
2298.00,0.0010
2297.00,0.0011
2296.00,0.0011
2295.00,0.0011
2294.00,0.0012
2293.00,0.0013
2292.00,0.0013
2291.00,0.0014
2290.00,0.0014
2289.00,0.0014
2288.00,0.0015
2287.00,0.0016
2286.00,0.0017
2285.00,0.0018
2284.00,0.0018
2283.00,0.0017
2282.00,0.0016
2281.00,0.0016
2280.00,0.0015
2279.00,0.0015
2278.00,0.0014
2277.00,0.0013
2276.00,0.0013
2275.00,0.0013
2274.00,0.0014
2273.00,0.0014
2272.00,0.0015
2271.00,0.0014
2270.00,0.0013
2269.00,0.0012
2268.00,0.0011
2267.00,0.0011
2266.00,0.0011
2265.00,0.0011
2264.00,0.0011
2263.00,0.0011
2262.00,0.0012
2261.00,0.0013
2260.00,0.0014
2259.00,0.0015
2258.00,0.0016
2257.00,0.0016
2256.00,0.0014
2255.00,0.0013
2254.00,0.0011
2253.00,0.0011
2252.00,0.0011
2251.00,0.0011
2250.00,0.0011
2249.00,0.0011
2248.00,0.0010
2247.00,0.0010
2246.00,0.0010
2245.00,0.0009
2244.00,0.0008
2243.00,0.0006
2242.00,0.0005
2241.00,0.0005
2240.00,0.0006
2239.00,0.0007
2238.00,0.0008
2237.00,0.0008
2236.00,0.0009
2235.00,0.0010
2234.00,0.0010
2233.00,0.0011
2232.00,0.0011
2231.00,0.0010
2230.00,0.0010
2229.00,0.0011
2228.00,0.0011
2227.00,0.0011
2226.00,0.0009
2225.00,0.0008
2224.00,0.0005
2223.00,0.0004
2222.00,0.0003
2221.00,0.0004
2220.00,0.0005
2219.00,0.0006
2218.00,0.0007
2217.00,0.0008
2216.00,0.0009
2215.00,0.0010
2214.00,0.0009
2213.00,0.0008
2212.00,0.0007
2211.00,0.0005
2210.00,0.0003
2209.00,0.0002
2208.00,0.0002
2207.00,0.0004
2206.00,0.0007
2205.00,0.0008
2204.00,0.0008
2203.00,0.0007
2202.00,0.0007
2201.00,0.0008
2200.00,0.0009
2199.00,0.0009
2198.00,0.0008
2197.00,0.0008
2196.00,0.0007
2195.00,0.0008
2194.00,0.0009
2193.00,0.0010
2192.00,0.0012
2191.00,0.0013
2190.00,0.0013
2189.00,0.0014
2188.00,0.0015
2187.00,0.0015
2186.00,0.0014
2185.00,0.0013
2184.00,0.0013
2183.00,0.0012
2182.00,0.0009
2181.00,0.0006
2180.00,0.0003
2179.00,0.0002
2178.00,0.0001
2177.00,-0.0001
2176.00,-0.0003
2175.00,-0.0004
2174.00,-0.0002
2173.00,0.0002
2172.00,0.0005
2171.00,0.0007
2170.00,0.0009
2169.00,0.0012
2168.00,0.0016
2167.00,0.0017
2166.00,0.0017
2165.00,0.0014
2164.00,0.0012
2163.00,0.0012
2162.00,0.0013
2161.00,0.0011
2160.00,0.0002
2159.00,-0.0011
2158.00,-0.0024
2157.00,-0.0030
2156.00,-0.0030
2155.00,-0.0027
2154.00,-0.0023
2153.00,-0.0018
2152.00,-0.0014
2151.00,-0.0012
2150.00,-0.0011
2149.00,-0.0012
2148.00,-0.0015
2147.00,-0.0016
2146.00,-0.0016
2145.00,-0.0014
2144.00,-0.0010
2143.00,-0.0008
2142.00,-0.0007
2141.00,-0.0009
2140.00,-0.0010
2139.00,-0.0012
2138.00,-0.0014
2137.00,-0.0015
2136.00,-0.0016
2135.00,-0.0016
2134.00,-0.0016
2133.00,-0.0015
2132.00,-0.0013
2131.00,-0.0013
2130.00,-0.0013
2129.00,-0.0011
2128.00,-0.0010
2127.00,-0.0008
2126.00,-0.0006
2125.00,-0.0005
2124.00,-0.0003
2123.00,-0.0003
2122.00,-0.0003
2121.00,-0.0003
2120.00,-0.0004
2119.00,-0.0004
2118.00,-0.0003
2117.00,-0.0001
2116.00,0.0001
2115.00,0.0003
2114.00,0.0003
2113.00,0.0003
2112.00,0.0002
2111.00,0.0001
2110.00,0.0000
2109.00,-0.0000
2108.00,-0.0001
2107.00,-0.0000
2106.00,0.0000
2105.00,0.0000
2104.00,0.0001
2103.00,0.0001
2102.00,0.0002
2101.00,0.0003
2100.00,0.0002
2099.00,0.0001
2098.00,-0.0001
2097.00,-0.0003
2096.00,-0.0004
2095.00,-0.0004
2094.00,-0.0004
2093.00,-0.0003
2092.00,-0.0002
2091.00,-0.0002
2090.00,-0.0001
2089.00,0.0001
2088.00,0.0002
2087.00,0.0002
2086.00,0.0001
2085.00,-0.0000
2084.00,-0.0001
2083.00,-0.0000
2082.00,0.0001
2081.00,0.0003
2080.00,0.0004
2079.00,0.0004
2078.00,0.0003
2077.00,0.0003
2076.00,0.0003
2075.00,0.0003
2074.00,0.0003
2073.00,0.0003
2072.00,0.0003
2071.00,0.0003
2070.00,0.0004
2069.00,0.0004
2068.00,0.0003
2067.00,0.0001
2066.00,-0.0001
2065.00,-0.0000
2064.00,0.0001
2063.00,0.0003
2062.00,0.0003
2061.00,0.0002
2060.00,0.0001
2059.00,0.0001
2058.00,0.0000
2057.00,0.0000
2056.00,-0.0001
2055.00,-0.0002
2054.00,-0.0001
2053.00,0.0004
2052.00,0.0010
2051.00,0.0014
2050.00,0.0012
2049.00,0.0006
2048.00,0.0001
2047.00,-0.0002
2046.00,-0.0002
2045.00,-0.0001
2044.00,-0.0002
2043.00,-0.0003
2042.00,-0.0003
2041.00,-0.0002
2040.00,0.0001
2039.00,0.0003
2038.00,0.0004
2037.00,0.0003
2036.00,0.0002
2035.00,-0.0000
2034.00,-0.0004
2033.00,-0.0007
2032.00,-0.0008
2031.00,-0.0009
2030.00,-0.0009
2029.00,-0.0009
2028.00,-0.0008
2027.00,-0.0007
2026.00,-0.0006
2025.00,-0.0005
2024.00,-0.0006
2023.00,-0.0005
2022.00,-0.0005
2021.00,-0.0005
2020.00,-0.0008
2019.00,-0.0013
2018.00,-0.0016
2017.00,-0.0015
2016.00,-0.0012
2015.00,-0.0008
2014.00,-0.0006
2013.00,-0.0004
2012.00,-0.0005
2011.00,-0.0005
2010.00,-0.0006
2009.00,-0.0007
2008.00,-0.0009
2007.00,-0.0012
2006.00,-0.0014
2005.00,-0.0015
2004.00,-0.0014
2003.00,-0.0012
2002.00,-0.0011
2001.00,-0.0009
2000.00,-0.0008
1999.00,-0.0009
1998.00,-0.0010
1997.00,-0.0011
1996.00,-0.0010
1995.00,-0.0009
1994.00,-0.0007
1993.00,-0.0004
1992.00,-0.0003
1991.00,-0.0005
1990.00,-0.0007
1989.00,-0.0007
1988.00,-0.0007
1987.00,-0.0006
1986.00,-0.0004
1985.00,-0.0001
1984.00,0.0002
1983.00,0.0003
1982.00,0.0004
1981.00,0.0006
1980.00,0.0007
1979.00,0.0007
1978.00,0.0005
1977.00,0.0001
1976.00,-0.0002
1975.00,-0.0005
1974.00,-0.0009
1973.00,-0.0011
1972.00,-0.0013
1971.00,-0.0013
1970.00,-0.0012
1969.00,-0.0011
1968.00,-0.0009
1967.00,-0.0007
1966.00,-0.0006
1965.00,-0.0007
1964.00,-0.0008
1963.00,-0.0011
1962.00,-0.0014
1961.00,-0.0016
1960.00,-0.0018
1959.00,-0.0019
1958.00,-0.0019
1957.00,-0.0018
1956.00,-0.0017
1955.00,-0.0017
1954.00,-0.0016
1953.00,-0.0016
1952.00,-0.0016
1951.00,-0.0017
1950.00,-0.0017
1949.00,-0.0016
1948.00,-0.0015
1947.00,-0.0015
1946.00,-0.0015
1945.00,-0.0015
1944.00,-0.0015
1943.00,-0.0015
1942.00,-0.0014
1941.00,-0.0013
1940.00,-0.0012
1939.00,-0.0011
1938.00,-0.0010
1937.00,-0.0009
1936.00,-0.0009
1935.00,-0.0009
1934.00,-0.0010
1933.00,-0.0011
1932.00,-0.0011
1931.00,-0.0011
1930.00,-0.0010
1929.00,-0.0010
1928.00,-0.0010
1927.00,-0.0010
1926.00,-0.0009
1925.00,-0.0009
1924.00,-0.0008
1923.00,-0.0007
1922.00,-0.0007
1921.00,-0.0006
1920.00,-0.0006
1919.00,-0.0005
1918.00,-0.0005
1917.00,-0.0004
1916.00,-0.0004
1915.00,-0.0004
1914.00,-0.0004
1913.00,-0.0004
1912.00,-0.0004
1911.00,-0.0003
1910.00,-0.0003
1909.00,-0.0003
1908.00,-0.0003
1907.00,-0.0003
1906.00,-0.0003
1905.00,-0.0003
1904.00,-0.0002
1903.00,-0.0001
1902.00,-0.0001
1901.00,-0.0000
1900.00,-0.0000
1899.00,-0.0000
1898.00,-0.0000
1897.00,-0.0001
1896.00,-0.0001
1895.00,-0.0001
1894.00,-0.0001
1893.00,0.0000
1892.00,0.0001
1891.00,0.0000
1890.00,-0.0000
1889.00,-0.0001
1888.00,-0.0001
1887.00,-0.0001
1886.00,-0.0001
1885.00,-0.0001
1884.00,-0.0001
1883.00,-0.0002
1882.00,-0.0003
1881.00,-0.0003
1880.00,-0.0003
1879.00,-0.0002
1878.00,-0.0002
1877.00,-0.0001
1876.00,-0.0001
1875.00,-0.0001
1874.00,-0.0002
1873.00,-0.0002
1872.00,-0.0003
1871.00,-0.0003
1870.00,-0.0003
1869.00,-0.0002
1868.00,-0.0001
1867.00,-0.0000
1866.00,-0.0000
1865.00,-0.0000
1864.00,-0.0000
1863.00,-0.0000
1862.00,-0.0000
1861.00,-0.0000
1860.00,-0.0000
1859.00,-0.0000
1858.00,-0.0000
1857.00,0.0000
1856.00,0.0000
1855.00,-0.0000
1854.00,-0.0000
1853.00,-0.0000
1852.00,-0.0000
1851.00,0.0000
1850.00,0.0000
1849.00,0.0000
1848.00,0.0000
1847.00,0.0001
1846.00,0.0001
1845.00,0.0000
1844.00,0.0000
1843.00,0.0000
1842.00,0.0001
1841.00,0.0001
1840.00,0.0002
1839.00,0.0002
1838.00,0.0002
1837.00,0.0001
1836.00,0.0001
1835.00,0.0001
1834.00,0.0001
1833.00,0.0002
1832.00,0.0003
1831.00,0.0004
1830.00,0.0005
1829.00,0.0005
1828.00,0.0005
1827.00,0.0005
1826.00,0.0004
1825.00,0.0004
1824.00,0.0004
1823.00,0.0004
1822.00,0.0003
1821.00,0.0003
1820.00,0.0002
1819.00,0.0000
1818.00,-0.0001
1817.00,-0.0002
1816.00,-0.0001
1815.00,-0.0000
1814.00,0.0000
1813.00,0.0001
1812.00,0.0001
1811.00,0.0001
1810.00,0.0001
1809.00,0.0002
1808.00,0.0003
1807.00,0.0004
1806.00,0.0004
1805.00,0.0004
1804.00,0.0004
1803.00,0.0004
1802.00,0.0004
1801.00,0.0003
1800.00,0.0004
1799.00,0.0004
1798.00,0.0004
1797.00,0.0005
1796.00,0.0005
1795.00,0.0005
1794.00,0.0005
1793.00,0.0006
1792.00,0.0006
1791.00,0.0007
1790.00,0.0007
1789.00,0.0007
1788.00,0.0007
1787.00,0.0007
1786.00,0.0007
1785.00,0.0007
1784.00,0.0007
1783.00,0.0007
1782.00,0.0007
1781.00,0.0008
1780.00,0.0008
1779.00,0.0008
1778.00,0.0008
1777.00,0.0008
1776.00,0.0008
1775.00,0.0008
1774.00,0.0008
1773.00,0.0008
1772.00,0.0009
1771.00,0.0010
1770.00,0.0010
1769.00,0.0011
1768.00,0.0011
1767.00,0.0010
1766.00,0.0010
1765.00,0.0010
1764.00,0.0010
1763.00,0.0010
1762.00,0.0010
1761.00,0.0011
1760.00,0.0012
1759.00,0.0012
1758.00,0.0012
1757.00,0.0012
1756.00,0.0012
1755.00,0.0012
1754.00,0.0013
1753.00,0.0013
1752.00,0.0013
1751.00,0.0014
1750.00,0.0014
1749.00,0.0015
1748.00,0.0016
1747.00,0.0016
1746.00,0.0017
1745.00,0.0017
1744.00,0.0017
1743.00,0.0018
1742.00,0.0018
1741.00,0.0019
1740.00,0.0019
1739.00,0.0020
1738.00,0.0020
1737.00,0.0020
1736.00,0.0020
1735.00,0.0020
1734.00,0.0020
1733.00,0.0021
1732.00,0.0021
1731.00,0.0021
1730.00,0.0021
1729.00,0.0021
1728.00,0.0021
1727.00,0.0021
1726.00,0.0020
1725.00,0.0020
1724.00,0.0020
1723.00,0.0020
1722.00,0.0020
1721.00,0.0020
1720.00,0.0020
1719.00,0.0020
1718.00,0.0020
1717.00,0.0021
1716.00,0.0021
1715.00,0.0022
1714.00,0.0022
1713.00,0.0022
1712.00,0.0022
1711.00,0.0022
1710.00,0.0022
1709.00,0.0023
1708.00,0.0024
1707.00,0.0025
1706.00,0.0025
1705.00,0.0025
1704.00,0.0026
1703.00,0.0026
1702.00,0.0027
1701.00,0.0027
1700.00,0.0027
1699.00,0.0027
1698.00,0.0028
1697.00,0.0028
1696.00,0.0029
1695.00,0.0029
1694.00,0.0030
1693.00,0.0030
1692.00,0.0031
1691.00,0.0031
1690.00,0.0031
1689.00,0.0032
1688.00,0.0032
1687.00,0.0033
1686.00,0.0033
1685.00,0.0033
1684.00,0.0033
1683.00,0.0035
1682.00,0.0036
1681.00,0.0037
1680.00,0.0038
1679.00,0.0038
1678.00,0.0038
1677.00,0.0039
1676.00,0.0040
1675.00,0.0041
1674.00,0.0041
1673.00,0.0042
1672.00,0.0043
1671.00,0.0043
1670.00,0.0044
1669.00,0.0044
1668.00,0.0044
1667.00,0.0045
1666.00,0.0045
1665.00,0.0046
1664.00,0.0047
1663.00,0.0047
1662.00,0.0048
1661.00,0.0050
1660.00,0.0051
1659.00,0.0051
1658.00,0.0051
1657.00,0.0052
1656.00,0.0053
1655.00,0.0054
1654.00,0.0056
1653.00,0.0058
1652.00,0.0059
1651.00,0.0059
1650.00,0.0059
1649.00,0.0060
1648.00,0.0062
1647.00,0.0064
1646.00,0.0065
1645.00,0.0066
1644.00,0.0066
1643.00,0.0065
1642.00,0.0064
1641.00,0.0064
1640.00,0.0064
1639.00,0.0063
1638.00,0.0063
1637.00,0.0062
1636.00,0.0062
1635.00,0.0062
1634.00,0.0062
1633.00,0.0062
1632.00,0.0062
1631.00,0.0062
1630.00,0.0062
1629.00,0.0062
1628.00,0.0062
1627.00,0.0061
1626.00,0.0061
1625.00,0.0061
1624.00,0.0060
1623.00,0.0060
1622.00,0.0059
1621.00,0.0059
1620.00,0.0059
1619.00,0.0059
1618.00,0.0059
1617.00,0.0058
1616.00,0.0058
1615.00,0.0057
1614.00,0.0057
1613.00,0.0057
1612.00,0.0057
1611.00,0.0057
1610.00,0.0056
1609.00,0.0056
1608.00,0.0056
1607.00,0.0057
1606.00,0.0056
1605.00,0.0056
1604.00,0.0056
1603.00,0.0056
1602.00,0.0055
1601.00,0.0055
1600.00,0.0055
1599.00,0.0054
1598.00,0.0054
1597.00,0.0054
1596.00,0.0054
1595.00,0.0053
1594.00,0.0053
1593.00,0.0052
1592.00,0.0052
1591.00,0.0052
1590.00,0.0052
1589.00,0.0052
1588.00,0.0052
1587.00,0.0052
1586.00,0.0053
1585.00,0.0053
1584.00,0.0054
1583.00,0.0054
1582.00,0.0054
1581.00,0.0055
1580.00,0.0055
1579.00,0.0055
1578.00,0.0056
1577.00,0.0056
1576.00,0.0056
1575.00,0.0055
1574.00,0.0055
1573.00,0.0055
1572.00,0.0055
1571.00,0.0055
1570.00,0.0055
1569.00,0.0055
1568.00,0.0056
1567.00,0.0056
1566.00,0.0056
1565.00,0.0056
1564.00,0.0057
1563.00,0.0057
1562.00,0.0058
1561.00,0.0060
1560.00,0.0060
1559.00,0.0060
1558.00,0.0059
1557.00,0.0060
1556.00,0.0061
1555.00,0.0062
1554.00,0.0062
1553.00,0.0063
1552.00,0.0063
1551.00,0.0064
1550.00,0.0064
1549.00,0.0064
1548.00,0.0065
1547.00,0.0066
1546.00,0.0067
1545.00,0.0068
1544.00,0.0069
1543.00,0.0070
1542.00,0.0069
1541.00,0.0069
1540.00,0.0068
1539.00,0.0066
1538.00,0.0064
1537.00,0.0064
1536.00,0.0063
1535.00,0.0063
1534.00,0.0061
1533.00,0.0060
1532.00,0.0059
1531.00,0.0058
1530.00,0.0057
1529.00,0.0057
1528.00,0.0057
1527.00,0.0056
1526.00,0.0056
1525.00,0.0056
1524.00,0.0057
1523.00,0.0057
1522.00,0.0056
1521.00,0.0055
1520.00,0.0056
1519.00,0.0056
1518.00,0.0056
1517.00,0.0056
1516.00,0.0056
1515.00,0.0056
1514.00,0.0055
1513.00,0.0056
1512.00,0.0057
1511.00,0.0057
1510.00,0.0057
1509.00,0.0059
1508.00,0.0061
1507.00,0.0062
1506.00,0.0062
1505.00,0.0063
1504.00,0.0064
1503.00,0.0065
1502.00,0.0066
1501.00,0.0068
1500.00,0.0071
1499.00,0.0073
1498.00,0.0076
1497.00,0.0079
1496.00,0.0084
1495.00,0.0087
1494.00,0.0090
1493.00,0.0094
1492.00,0.0098
1491.00,0.0102
1490.00,0.0105
1489.00,0.0109
1488.00,0.0114
1487.00,0.0118
1486.00,0.0122
1485.00,0.0128
1484.00,0.0134
1483.00,0.0141
1482.00,0.0149
1481.00,0.0158
1480.00,0.0169
1479.00,0.0181
1478.00,0.0195
1477.00,0.0215
1476.00,0.0237
1475.00,0.0263
1474.00,0.0300
1473.00,0.0356
1472.00,0.0425
1471.00,0.0492
1470.00,0.0557
1469.00,0.0624
1468.00,0.0698
1467.00,0.0780
1466.00,0.0875
1465.00,0.0978
1464.00,0.1071
1463.00,0.1138
1462.00,0.1183
1461.00,0.1214
1460.00,0.1237
1459.00,0.1251
1458.00,0.1260
1457.00,0.1264
1456.00,0.1261
1455.00,0.1251
1454.00,0.1237
1453.00,0.1218
1452.00,0.1189
1451.00,0.1147
1450.00,0.1089
1449.00,0.1010
1448.00,0.0912
1447.00,0.0809
1446.00,0.0719
1445.00,0.0643
1444.00,0.0579
1443.00,0.0527
1442.00,0.0489
1441.00,0.0465
1440.00,0.0451
1439.00,0.0449
1438.00,0.0455
1437.00,0.0462
1436.00,0.0456
1435.00,0.0430
1434.00,0.0389
1433.00,0.0339
1432.00,0.0287
1431.00,0.0242
1430.00,0.0208
1429.00,0.0184
1428.00,0.0167
1427.00,0.0157
1426.00,0.0151
1425.00,0.0145
1424.00,0.0139
1423.00,0.0136
1422.00,0.0134
1421.00,0.0133
1420.00,0.0130
1419.00,0.0128
1418.00,0.0126
1417.00,0.0124
1416.00,0.0122
1415.00,0.0121
1414.00,0.0121
1413.00,0.0119
1412.00,0.0118
1411.00,0.0116
1410.00,0.0116
1409.00,0.0115
1408.00,0.0114
1407.00,0.0115
1406.00,0.0116
1405.00,0.0116
1404.00,0.0116
1403.00,0.0116
1402.00,0.0118
1401.00,0.0119
1400.00,0.0120
1399.00,0.0122
1398.00,0.0124
1397.00,0.0126
1396.00,0.0129
1395.00,0.0134
1394.00,0.0140
1393.00,0.0145
1392.00,0.0152
1391.00,0.0161
1390.00,0.0173
1389.00,0.0191
1388.00,0.0218
1387.00,0.0258
1386.00,0.0310
1385.00,0.0375
1384.00,0.0460
1383.00,0.0576
1382.00,0.0731
1381.00,0.0934
1380.00,0.1194
1379.00,0.1503
1378.00,0.1821
1377.00,0.2080
1376.00,0.2204
1375.00,0.2137
1374.00,0.1892
1373.00,0.1569
1372.00,0.1262
1371.00,0.1003
1370.00,0.0795
1369.00,0.0637
1368.00,0.0528
1367.00,0.0461
1366.00,0.0426
1365.00,0.0412
1364.00,0.0415
1363.00,0.0433
1362.00,0.0460
1361.00,0.0489
1360.00,0.0511
1359.00,0.0518
1358.00,0.0506
1357.00,0.0474
1356.00,0.0429
1355.00,0.0378
1354.00,0.0328
1353.00,0.0287
1352.00,0.0254
1351.00,0.0227
1350.00,0.0206
1349.00,0.0189
1348.00,0.0175
1347.00,0.0164
1346.00,0.0155
1345.00,0.0148
1344.00,0.0143
1343.00,0.0139
1342.00,0.0135
1341.00,0.0132
1340.00,0.0129
1339.00,0.0126
1338.00,0.0124
1337.00,0.0124
1336.00,0.0124
1335.00,0.0126
1334.00,0.0130
1333.00,0.0135
1332.00,0.0140
1331.00,0.0144
1330.00,0.0146
1329.00,0.0145
1328.00,0.0141
1327.00,0.0135
1326.00,0.0127
1325.00,0.0120
1324.00,0.0113
1323.00,0.0107
1322.00,0.0103
1321.00,0.0099
1320.00,0.0096
1319.00,0.0093
1318.00,0.0091
1317.00,0.0089
1316.00,0.0087
1315.00,0.0085
1314.00,0.0084
1313.00,0.0084
1312.00,0.0086
1311.00,0.0088
1310.00,0.0091
1309.00,0.0096
1308.00,0.0102
1307.00,0.0110
1306.00,0.0119
1305.00,0.0125
1304.00,0.0128
1303.00,0.0128
1302.00,0.0127
1301.00,0.0126
1300.00,0.0127
1299.00,0.0129
1298.00,0.0131
1297.00,0.0133
1296.00,0.0133
1295.00,0.0131
1294.00,0.0127
1293.00,0.0121
1292.00,0.0114
1291.00,0.0108
1290.00,0.0103
1289.00,0.0098
1288.00,0.0094
1287.00,0.0091
1286.00,0.0088
1285.00,0.0086
1284.00,0.0084
1283.00,0.0082
1282.00,0.0081
1281.00,0.0079
1280.00,0.0078
1279.00,0.0078
1278.00,0.0077
1277.00,0.0076
1276.00,0.0076
1275.00,0.0075
1274.00,0.0075
1273.00,0.0075
1272.00,0.0075
1271.00,0.0075
1270.00,0.0076
1269.00,0.0077
1268.00,0.0078
1267.00,0.0079
1266.00,0.0080
1265.00,0.0081
1264.00,0.0083
1263.00,0.0086
1262.00,0.0088
1261.00,0.0092
1260.00,0.0096
1259.00,0.0101
1258.00,0.0106
1257.00,0.0111
1256.00,0.0113
1255.00,0.0113
1254.00,0.0110
1253.00,0.0105
1252.00,0.0100
1251.00,0.0095
1250.00,0.0092
1249.00,0.0090
1248.00,0.0088
1247.00,0.0087
1246.00,0.0086
1245.00,0.0084
1244.00,0.0084
1243.00,0.0083
1242.00,0.0082
1241.00,0.0081
1240.00,0.0080
1239.00,0.0079
1238.00,0.0079
1237.00,0.0078
1236.00,0.0078
1235.00,0.0078
1234.00,0.0078
1233.00,0.0077
1232.00,0.0077
1231.00,0.0077
1230.00,0.0078
1229.00,0.0079
1228.00,0.0080
1227.00,0.0082
1226.00,0.0084
1225.00,0.0086
1224.00,0.0089
1223.00,0.0093
1222.00,0.0098
1221.00,0.0101
1220.00,0.0104
1219.00,0.0105
1218.00,0.0105
1217.00,0.0103
1216.00,0.0100
1215.00,0.0096
1214.00,0.0092
1213.00,0.0088
1212.00,0.0084
1211.00,0.0081
1210.00,0.0078
1209.00,0.0076
1208.00,0.0074
1207.00,0.0073
1206.00,0.0072
1205.00,0.0071
1204.00,0.0071
1203.00,0.0070
1202.00,0.0070
1201.00,0.0069
1200.00,0.0069
1199.00,0.0069
1198.00,0.0069
1197.00,0.0069
1196.00,0.0069
1195.00,0.0069
1194.00,0.0068
1193.00,0.0068
1192.00,0.0068
1191.00,0.0069
1190.00,0.0069
1189.00,0.0069
1188.00,0.0069
1187.00,0.0069
1186.00,0.0070
1185.00,0.0070
1184.00,0.0071
1183.00,0.0072
1182.00,0.0073
1181.00,0.0075
1180.00,0.0078
1179.00,0.0082
1178.00,0.0087
1177.00,0.0093
1176.00,0.0102
1175.00,0.0113
1174.00,0.0127
1173.00,0.0146
1172.00,0.0167
1171.00,0.0191
1170.00,0.0214
1169.00,0.0233
1168.00,0.0247
1167.00,0.0252
1166.00,0.0251
1165.00,0.0244
1164.00,0.0234
1163.00,0.0224
1162.00,0.0214
1161.00,0.0206
1160.00,0.0200
1159.00,0.0195
1158.00,0.0191
1157.00,0.0189
1156.00,0.0188
1155.00,0.0188
1154.00,0.0188
1153.00,0.0187
1152.00,0.0185
1151.00,0.0180
1150.00,0.0172
1149.00,0.0164
1148.00,0.0154
1147.00,0.0146
1146.00,0.0137
1145.00,0.0129
1144.00,0.0123
1143.00,0.0117
1142.00,0.0112
1141.00,0.0108
1140.00,0.0104
1139.00,0.0100
1138.00,0.0096
1137.00,0.0093
1136.00,0.0089
1135.00,0.0087
1134.00,0.0085
1133.00,0.0084
1132.00,0.0083
1131.00,0.0083
1130.00,0.0083
1129.00,0.0084
1128.00,0.0086
1127.00,0.0087
1126.00,0.0089
1125.00,0.0089
1124.00,0.0088
1123.00,0.0088
1122.00,0.0088
1121.00,0.0089
1120.00,0.0091
1119.00,0.0092
1118.00,0.0093
1117.00,0.0095
1116.00,0.0097
1115.00,0.0098
1114.00,0.0099
1113.00,0.0100
1112.00,0.0102
1111.00,0.0104
1110.00,0.0108
1109.00,0.0113
1108.00,0.0119
1107.00,0.0126
1106.00,0.0135
1105.00,0.0144
1104.00,0.0151
1103.00,0.0155
1102.00,0.0155
1101.00,0.0152
1100.00,0.0147
1099.00,0.0140
1098.00,0.0132
1097.00,0.0125
1096.00,0.0118
1095.00,0.0112
1094.00,0.0107
1093.00,0.0104
1092.00,0.0101
1091.00,0.0099
1090.00,0.0097
1089.00,0.0096
1088.00,0.0094
1087.00,0.0092
1086.00,0.0091
1085.00,0.0091
1084.00,0.0091
1083.00,0.0090
1082.00,0.0090
1081.00,0.0088
1080.00,0.0086
1079.00,0.0084
1078.00,0.0082
1077.00,0.0082
1076.00,0.0082
1075.00,0.0083
1074.00,0.0083
1073.00,0.0083
1072.00,0.0082
1071.00,0.0081
1070.00,0.0080
1069.00,0.0080
1068.00,0.0080
1067.00,0.0081
1066.00,0.0081
1065.00,0.0081
1064.00,0.0080
1063.00,0.0079
1062.00,0.0078
1061.00,0.0078
1060.00,0.0079
1059.00,0.0080
1058.00,0.0081
1057.00,0.0082
1056.00,0.0082
1055.00,0.0082
1054.00,0.0082
1053.00,0.0082
1052.00,0.0083
1051.00,0.0084
1050.00,0.0086
1049.00,0.0088
1048.00,0.0090
1047.00,0.0092
1046.00,0.0093
1045.00,0.0093
1044.00,0.0093
1043.00,0.0092
1042.00,0.0090
1041.00,0.0089
1040.00,0.0089
1039.00,0.0089
1038.00,0.0089
1037.00,0.0090
1036.00,0.0089
1035.00,0.0089
1034.00,0.0088
1033.00,0.0088
1032.00,0.0088
1031.00,0.0087
1030.00,0.0087
1029.00,0.0087
1028.00,0.0087
1027.00,0.0087
1026.00,0.0086
1025.00,0.0085
1024.00,0.0085
1023.00,0.0085
1022.00,0.0086
1021.00,0.0086
1020.00,0.0086
1019.00,0.0087
1018.00,0.0089
1017.00,0.0090
1016.00,0.0092
1015.00,0.0094
1014.00,0.0095
1013.00,0.0097
1012.00,0.0098
1011.00,0.0100
1010.00,0.0102
1009.00,0.0105
1008.00,0.0109
1007.00,0.0115
1006.00,0.0123
1005.00,0.0132
1004.00,0.0144
1003.00,0.0159
1002.00,0.0178
1001.00,0.0202
1000.00,0.0226
999.00,0.0245
998.00,0.0254
997.00,0.0248
996.00,0.0229
995.00,0.0202
994.00,0.0174
993.00,0.0150
992.00,0.0131
991.00,0.0117
990.00,0.0108
989.00,0.0101
988.00,0.0098
987.00,0.0096
986.00,0.0097
985.00,0.0098
984.00,0.0102
983.00,0.0108
982.00,0.0117
981.00,0.0130
980.00,0.0149
979.00,0.0173
978.00,0.0203
977.00,0.0237
976.00,0.0272
975.00,0.0304
974.00,0.0325
973.00,0.0331
972.00,0.0318
971.00,0.0289
970.00,0.0253
969.00,0.0215
968.00,0.0183
967.00,0.0157
966.00,0.0138
965.00,0.0125
964.00,0.0115
963.00,0.0108
962.00,0.0102
961.00,0.0097
960.00,0.0093
959.00,0.0089
958.00,0.0087
957.00,0.0085
956.00,0.0083
955.00,0.0081
954.00,0.0079
953.00,0.0077
952.00,0.0076
951.00,0.0075
950.00,0.0076
949.00,0.0077
948.00,0.0078
947.00,0.0081
946.00,0.0083
945.00,0.0085
944.00,0.0088
943.00,0.0091
942.00,0.0095
941.00,0.0098
940.00,0.0099
939.00,0.0097
938.00,0.0092
937.00,0.0087
936.00,0.0081
935.00,0.0076
934.00,0.0072
933.00,0.0069
932.00,0.0068
931.00,0.0068
930.00,0.0067
929.00,0.0066
928.00,0.0065
927.00,0.0063
926.00,0.0062
925.00,0.0062
924.00,0.0062
923.00,0.0063
922.00,0.0064
921.00,0.0066
920.00,0.0067
919.00,0.0068
918.00,0.0070
917.00,0.0072
916.00,0.0073
915.00,0.0073
914.00,0.0073
913.00,0.0073
912.00,0.0073
911.00,0.0074
910.00,0.0075
909.00,0.0078
908.00,0.0082
907.00,0.0088
906.00,0.0096
905.00,0.0108
904.00,0.0123
903.00,0.0144
902.00,0.0168
901.00,0.0191
900.00,0.0206
899.00,0.0210
898.00,0.0201
897.00,0.0183
896.00,0.0160
895.00,0.0139
894.00,0.0121
893.00,0.0107
892.00,0.0096
891.00,0.0089
890.00,0.0083
889.00,0.0080
888.00,0.0078
887.00,0.0076
886.00,0.0075
885.00,0.0074
884.00,0.0072
883.00,0.0071
882.00,0.0070
881.00,0.0070
880.00,0.0071
879.00,0.0072
878.00,0.0072
877.00,0.0071
876.00,0.0069
875.00,0.0068
874.00,0.0068
873.00,0.0069
872.00,0.0070
871.00,0.0070
870.00,0.0071
869.00,0.0071
868.00,0.0072
867.00,0.0073
866.00,0.0074
865.00,0.0074
864.00,0.0075
863.00,0.0075
862.00,0.0077
861.00,0.0079
860.00,0.0081
859.00,0.0083
858.00,0.0085
857.00,0.0086
856.00,0.0087
855.00,0.0088
854.00,0.0089
853.00,0.0091
852.00,0.0092
851.00,0.0094
850.00,0.0097
849.00,0.0101
848.00,0.0108
847.00,0.0117
846.00,0.0132
845.00,0.0153
844.00,0.0180
843.00,0.0209
842.00,0.0230
841.00,0.0235
840.00,0.0221
839.00,0.0194
838.00,0.0166
837.00,0.0143
836.00,0.0128
835.00,0.0119
834.00,0.0114
833.00,0.0111
832.00,0.0109
831.00,0.0108
830.00,0.0106
829.00,0.0104
828.00,0.0103
827.00,0.0104
826.00,0.0104
825.00,0.0104
824.00,0.0103
823.00,0.0101
822.00,0.0101
821.00,0.0102
820.00,0.0105
819.00,0.0109
818.00,0.0113
817.00,0.0120
816.00,0.0130
815.00,0.0143
814.00,0.0160
813.00,0.0178
812.00,0.0198
811.00,0.0217
810.00,0.0232
809.00,0.0240
808.00,0.0238
807.00,0.0226
806.00,0.0208
805.00,0.0187
804.00,0.0168
803.00,0.0151
802.00,0.0138
801.00,0.0127
800.00,0.0119
799.00,0.0112
798.00,0.0107
797.00,0.0102
796.00,0.0097
795.00,0.0094
794.00,0.0092
793.00,0.0090
792.00,0.0087
791.00,0.0086
790.00,0.0085
789.00,0.0084
788.00,0.0083
787.00,0.0081
786.00,0.0079
785.00,0.0075
784.00,0.0072
783.00,0.0069
782.00,0.0068
781.00,0.0066
780.00,0.0064
779.00,0.0064
778.00,0.0064
777.00,0.0065
776.00,0.0065
775.00,0.0066
774.00,0.0068
773.00,0.0070
772.00,0.0073
771.00,0.0075
770.00,0.0075
769.00,0.0075
768.00,0.0075
767.00,0.0075
766.00,0.0075
765.00,0.0074
764.00,0.0073
763.00,0.0070
762.00,0.0067
761.00,0.0064
760.00,0.0062
759.00,0.0060
758.00,0.0059
757.00,0.0059
756.00,0.0059
755.00,0.0059
754.00,0.0058
753.00,0.0058
752.00,0.0056
751.00,0.0055
750.00,0.0055
749.00,0.0055
748.00,0.0054
747.00,0.0054
746.00,0.0054
745.00,0.0054
744.00,0.0055
743.00,0.0057
742.00,0.0059
741.00,0.0061
740.00,0.0063
739.00,0.0065
738.00,0.0067
737.00,0.0069
736.00,0.0069
735.00,0.0069
734.00,0.0069
733.00,0.0070
732.00,0.0070
731.00,0.0071
730.00,0.0071
729.00,0.0070
728.00,0.0071
727.00,0.0072
726.00,0.0073
725.00,0.0073
724.00,0.0073
723.00,0.0072
722.00,0.0071
721.00,0.0070
720.00,0.0070
719.00,0.0069
718.00,0.0067
717.00,0.0065
716.00,0.0063
715.00,0.0062
714.00,0.0062
713.00,0.0061
712.00,0.0060
711.00,0.0059
710.00,0.0059
709.00,0.0059
708.00,0.0060
707.00,0.0061
706.00,0.0062
705.00,0.0063
704.00,0.0063
703.00,0.0062
702.00,0.0061
701.00,0.0060
700.00,0.0058
699.00,0.0056
698.00,0.0054
697.00,0.0053
696.00,0.0052
695.00,0.0052
694.00,0.0051
693.00,0.0051
692.00,0.0052
691.00,0.0052
690.00,0.0051
689.00,0.0051
688.00,0.0051
687.00,0.0051
686.00,0.0052
685.00,0.0053
684.00,0.0054
683.00,0.0055
682.00,0.0057
681.00,0.0058
680.00,0.0058
679.00,0.0056
678.00,0.0054
677.00,0.0054
676.00,0.0053
675.00,0.0053
674.00,0.0052
673.00,0.0050
672.00,0.0050
671.00,0.0052
670.00,0.0054
669.00,0.0056
668.00,0.0058
667.00,0.0058
666.00,0.0057
665.00,0.0057
664.00,0.0058
663.00,0.0059
662.00,0.0058
661.00,0.0055
660.00,0.0052
659.00,0.0050
658.00,0.0051
657.00,0.0052
656.00,0.0054
655.00,0.0056
654.00,0.0057
653.00,0.0057
652.00,0.0057
651.00,0.0058
650.00,0.0059
649.00,0.0059
648.00,0.0058
647.00,0.0058
646.00,0.0059
645.00,0.0060
644.00,0.0060
643.00,0.0059
642.00,0.0056
641.00,0.0054
640.00,0.0054
639.00,0.0054
638.00,0.0056
637.00,0.0057
636.00,0.0058
635.00,0.0059
634.00,0.0060
633.00,0.0061
632.00,0.0062
631.00,0.0060
630.00,0.0058
629.00,0.0057
628.00,0.0057
627.00,0.0056
626.00,0.0056
625.00,0.0056
624.00,0.0057
623.00,0.0059
622.00,0.0059
621.00,0.0057
620.00,0.0056
619.00,0.0058
618.00,0.0060
617.00,0.0061
616.00,0.0060
615.00,0.0058
614.00,0.0056
613.00,0.0056
612.00,0.0056
611.00,0.0056
610.00,0.0057
609.00,0.0057
608.00,0.0058
607.00,0.0058
606.00,0.0057
605.00,0.0056
604.00,0.0055
603.00,0.0055
602.00,0.0056
601.00,0.0058
600.00,0.0057
599.00,0.0054
598.00,0.0051
597.00,0.0050
596.00,0.0050
595.00,0.0051
594.00,0.0054
593.00,0.0056
592.00,0.0057
591.00,0.0058
590.00,0.0058
589.00,0.0057
588.00,0.0057
587.00,0.0058
586.00,0.0058
585.00,0.0059
584.00,0.0059
583.00,0.0058
582.00,0.0058
581.00,0.0060
580.00,0.0064
579.00,0.0067
578.00,0.0067
577.00,0.0066
576.00,0.0064
575.00,0.0062
574.00,0.0060
573.00,0.0059
572.00,0.0059
571.00,0.0061
570.00,0.0064
569.00,0.0066
568.00,0.0066
567.00,0.0066
566.00,0.0064
565.00,0.0063
564.00,0.0062
563.00,0.0063
562.00,0.0064
561.00,0.0064
560.00,0.0064
559.00,0.0064
558.00,0.0064
557.00,0.0064
556.00,0.0065
555.00,0.0067
554.00,0.0069
553.00,0.0069
552.00,0.0068
551.00,0.0069
550.00,0.0072
549.00,0.0077
548.00,0.0079
547.00,0.0078
546.00,0.0074
545.00,0.0069
544.00,0.0065
543.00,0.0063
542.00,0.0061
541.00,0.0057
540.00,0.0055
539.00,0.0057
538.00,0.0064
537.00,0.0074
536.00,0.0082
535.00,0.0089
534.00,0.0093
533.00,0.0095
532.00,0.0093
531.00,0.0090
530.00,0.0087
529.00,0.0085
528.00,0.0083
527.00,0.0081
526.00,0.0081
525.00,0.0082
524.00,0.0083
523.00,0.0084
522.00,0.0084
521.00,0.0080
520.00,0.0075
519.00,0.0069
518.00,0.0066
517.00,0.0066
516.00,0.0068
515.00,0.0072
514.00,0.0075
513.00,0.0078
512.00,0.0079
511.00,0.0075
510.00,0.0069
509.00,0.0061
508.00,0.0055
507.00,0.0051
506.00,0.0052
505.00,0.0055
504.00,0.0056
503.00,0.0056
502.00,0.0057
501.00,0.0063
500.00,0.0071
499.00,0.0075
498.00,0.0072
497.00,0.0064
496.00,0.0056
495.00,0.0052
494.00,0.0053
493.00,0.0056
492.00,0.0059
491.00,0.0061
490.00,0.0063
489.00,0.0065
488.00,0.0065
487.00,0.0062
486.00,0.0059
485.00,0.0060
484.00,0.0067
483.00,0.0076
482.00,0.0080
481.00,0.0079
480.00,0.0074
479.00,0.0067
478.00,0.0062
477.00,0.0059
476.00,0.0060
475.00,0.0064
474.00,0.0070
473.00,0.0077
472.00,0.0083
471.00,0.0087
470.00,0.0088
469.00,0.0083
468.00,0.0072
467.00,0.0064
466.00,0.0067
465.00,0.0082
464.00,0.0099
463.00,0.0112
462.00,0.0122
461.00,0.0134
460.00,0.0147
459.00,0.0154
458.00,0.0146
457.00,0.0130
456.00,0.0118
455.00,0.0112
454.00,0.0109
453.00,0.0106
452.00,0.0103
451.00,0.0102
450.00,0.0102
