Created as New Dataset,Sample 045 By Administrator Date Wednesday, September 10 2025
cm-1,A
4000.00,0.0009
3999.00,0.0009
3998.00,0.0009
3997.00,0.0009
3996.00,0.0008
3995.00,0.0008
3994.00,0.0008
3993.00,0.0008
3992.00,0.0008
3991.00,0.0008
3990.00,0.0008
3989.00,0.0008
3988.00,0.0008
3987.00,0.0008
3986.00,0.0008
3985.00,0.0007
3984.00,0.0007
3983.00,0.0007
3982.00,0.0007
3981.00,0.0007
3980.00,0.0007
3979.00,0.0007
3978.00,0.0007
3977.00,0.0007
3976.00,0.0007
3975.00,0.0007
3974.00,0.0007
3973.00,0.0007
3972.00,0.0007
3971.00,0.0007
3970.00,0.0007
3969.00,0.0007
3968.00,0.0007
3967.00,0.0007
3966.00,0.0007
3965.00,0.0007
3964.00,0.0007
3963.00,0.0006
3962.00,0.0006
3961.00,0.0006
3960.00,0.0007
3959.00,0.0007
3958.00,0.0007
3957.00,0.0007
3956.00,0.0007
3955.00,0.0007
3954.00,0.0007
3953.00,0.0006
3952.00,0.0006
3951.00,0.0006
3950.00,0.0006
3949.00,0.0006
3948.00,0.0006
3947.00,0.0007
3946.00,0.0007
3945.00,0.0007
3944.00,0.0007
3943.00,0.0007
3942.00,0.0007
3941.00,0.0007
3940.00,0.0007
3939.00,0.0007
3938.00,0.0007
3937.00,0.0007
3936.00,0.0007
3935.00,0.0007
3934.00,0.0007
3933.00,0.0007
3932.00,0.0007
3931.00,0.0006
3930.00,0.0006
3929.00,0.0006
3928.00,0.0007
3927.00,0.0007
3926.00,0.0007
3925.00,0.0007
3924.00,0.0007
3923.00,0.0007
3922.00,0.0007
3921.00,0.0007
3920.00,0.0007
3919.00,0.0007
3918.00,0.0007
3917.00,0.0007
3916.00,0.0007
3915.00,0.0007
3914.00,0.0007
3913.00,0.0007
3912.00,0.0007
3911.00,0.0007
3910.00,0.0007
3909.00,0.0007
3908.00,0.0007
3907.00,0.0007
3906.00,0.0007
3905.00,0.0007
3904.00,0.0007
3903.00,0.0007
3902.00,0.0007
3901.00,0.0006
3900.00,0.0006
3899.00,0.0006
3898.00,0.0006
3897.00,0.0006
3896.00,0.0006
3895.00,0.0006
3894.00,0.0005
3893.00,0.0005
3892.00,0.0005
3891.00,0.0005
3890.00,0.0006
3889.00,0.0006
3888.00,0.0006
3887.00,0.0006
3886.00,0.0006
3885.00,0.0006
3884.00,0.0006
3883.00,0.0007
3882.00,0.0007
3881.00,0.0007
3880.00,0.0007
3879.00,0.0007
3878.00,0.0007
3877.00,0.0007
3876.00,0.0007
3875.00,0.0007
3874.00,0.0007
3873.00,0.0007
3872.00,0.0007
3871.00,0.0006
3870.00,0.0006
3869.00,0.0006
3868.00,0.0006
3867.00,0.0006
3866.00,0.0006
3865.00,0.0006
3864.00,0.0006
3863.00,0.0007
3862.00,0.0007
3861.00,0.0007
3860.00,0.0007
3859.00,0.0007
3858.00,0.0007
3857.00,0.0007
3856.00,0.0007
3855.00,0.0006
3854.00,0.0006
3853.00,0.0006
3852.00,0.0006
3851.00,0.0006
3850.00,0.0006
3849.00,0.0006
3848.00,0.0006
3847.00,0.0006
3846.00,0.0006
3845.00,0.0006
3844.00,0.0006
3843.00,0.0006
3842.00,0.0006
3841.00,0.0006
3840.00,0.0006
3839.00,0.0007
3838.00,0.0007
3837.00,0.0007
3836.00,0.0007
3835.00,0.0006
3834.00,0.0006
3833.00,0.0006
3832.00,0.0006
3831.00,0.0006
3830.00,0.0006
3829.00,0.0006
3828.00,0.0006
3827.00,0.0006
3826.00,0.0006
3825.00,0.0006
3824.00,0.0006
3823.00,0.0006
3822.00,0.0006
3821.00,0.0006
3820.00,0.0006
3819.00,0.0006
3818.00,0.0006
3817.00,0.0006
3816.00,0.0006
3815.00,0.0006
3814.00,0.0006
3813.00,0.0006
3812.00,0.0006
3811.00,0.0006
3810.00,0.0006
3809.00,0.0006
3808.00,0.0006
3807.00,0.0007
3806.00,0.0007
3805.00,0.0007
3804.00,0.0007
3803.00,0.0007
3802.00,0.0006
3801.00,0.0006
3800.00,0.0006
3799.00,0.0006
3798.00,0.0006
3797.00,0.0006
3796.00,0.0005
3795.00,0.0005
3794.00,0.0005
3793.00,0.0005
3792.00,0.0005
3791.00,0.0005
3790.00,0.0005
3789.00,0.0006
3788.00,0.0006
3787.00,0.0006
3786.00,0.0007
3785.00,0.0006
3784.00,0.0006
3783.00,0.0006
3782.00,0.0006
3781.00,0.0006
3780.00,0.0006
3779.00,0.0006
3778.00,0.0006
3777.00,0.0006
3776.00,0.0006
3775.00,0.0006
3774.00,0.0007
3773.00,0.0007
3772.00,0.0008
3771.00,0.0008
3770.00,0.0007
3769.00,0.0007
3768.00,0.0007
3767.00,0.0007
3766.00,0.0007
3765.00,0.0007
3764.00,0.0007
3763.00,0.0007
3762.00,0.0007
3761.00,0.0007
3760.00,0.0007
3759.00,0.0006
3758.00,0.0006
3757.00,0.0006
3756.00,0.0006
3755.00,0.0006
3754.00,0.0006
3753.00,0.0006
3752.00,0.0006
3751.00,0.0006
3750.00,0.0006
3749.00,0.0007
3748.00,0.0008
3747.00,0.0008
3746.00,0.0007
3745.00,0.0007
3744.00,0.0006
3743.00,0.0006
3742.00,0.0006
3741.00,0.0005
3740.00,0.0004
3739.00,0.0004
3738.00,0.0004
3737.00,0.0004
3736.00,0.0004
3735.00,0.0004
3734.00,0.0004
3733.00,0.0004
3732.00,0.0004
3731.00,0.0004
3730.00,0.0004
3729.00,0.0005
3728.00,0.0005
3727.00,0.0005
3726.00,0.0005
3725.00,0.0005
3724.00,0.0005
3723.00,0.0005
3722.00,0.0005
3721.00,0.0004
3720.00,0.0004
3719.00,0.0004
3718.00,0.0005
3717.00,0.0005
3716.00,0.0005
3715.00,0.0005
3714.00,0.0004
3713.00,0.0004
3712.00,0.0003
3711.00,0.0003
3710.00,0.0004
3709.00,0.0004
3708.00,0.0004
3707.00,0.0005
3706.00,0.0005
3705.00,0.0005
3704.00,0.0005
3703.00,0.0004
3702.00,0.0004
3701.00,0.0004
3700.00,0.0004
3699.00,0.0005
3698.00,0.0005
3697.00,0.0005
3696.00,0.0006
3695.00,0.0006
3694.00,0.0006
3693.00,0.0006
3692.00,0.0005
3691.00,0.0005
3690.00,0.0006
3689.00,0.0006
3688.00,0.0007
3687.00,0.0007
3686.00,0.0006
3685.00,0.0006
3684.00,0.0005
3683.00,0.0004
3682.00,0.0004
3681.00,0.0004
3680.00,0.0005
3679.00,0.0006
3678.00,0.0006
3677.00,0.0006
3676.00,0.0006
3675.00,0.0006
3674.00,0.0006
3673.00,0.0006
3672.00,0.0006
3671.00,0.0006
3670.00,0.0005
3669.00,0.0005
3668.00,0.0005
3667.00,0.0005
3666.00,0.0005
3665.00,0.0005
3664.00,0.0005
3663.00,0.0005
3662.00,0.0005
3661.00,0.0006
3660.00,0.0006
3659.00,0.0007
3658.00,0.0007
3657.00,0.0007
3656.00,0.0007
3655.00,0.0007
3654.00,0.0007
3653.00,0.0007
3652.00,0.0007
3651.00,0.0008
3650.00,0.0008
3649.00,0.0008
3648.00,0.0008
3647.00,0.0008
3646.00,0.0007
3645.00,0.0007
3644.00,0.0006
3643.00,0.0006
3642.00,0.0007
3641.00,0.0007
3640.00,0.0007
3639.00,0.0007
3638.00,0.0007
3637.00,0.0007
3636.00,0.0007
3635.00,0.0007
3634.00,0.0007
3633.00,0.0007
3632.00,0.0007
3631.00,0.0008
3630.00,0.0008
3629.00,0.0008
3628.00,0.0008
3627.00,0.0007
3626.00,0.0007
3625.00,0.0007
3624.00,0.0006
3623.00,0.0007
3622.00,0.0007
3621.00,0.0008
3620.00,0.0008
3619.00,0.0008
3618.00,0.0009
3617.00,0.0009
3616.00,0.0009
3615.00,0.0009
3614.00,0.0009
3613.00,0.0009
3612.00,0.0009
3611.00,0.0009
3610.00,0.0009
3609.00,0.0009
3608.00,0.0009
3607.00,0.0010
3606.00,0.0010
3605.00,0.0010
3604.00,0.0010
3603.00,0.0010
3602.00,0.0010
3601.00,0.0010
3600.00,0.0010
3599.00,0.0011
3598.00,0.0011
3597.00,0.0011
3596.00,0.0012
3595.00,0.0012
3594.00,0.0012
3593.00,0.0012
3592.00,0.0012
3591.00,0.0012
3590.00,0.0012
3589.00,0.0012
3588.00,0.0012
3587.00,0.0013
3586.00,0.0013
3585.00,0.0013
3584.00,0.0013
3583.00,0.0013
3582.00,0.0013
3581.00,0.0014
3580.00,0.0014
3579.00,0.0014
3578.00,0.0015
3577.00,0.0015
3576.00,0.0016
3575.00,0.0016
3574.00,0.0017
3573.00,0.0017
3572.00,0.0017
3571.00,0.0017
3570.00,0.0017
3569.00,0.0016
3568.00,0.0016
3567.00,0.0017
3566.00,0.0017
3565.00,0.0018
3564.00,0.0018
3563.00,0.0018
3562.00,0.0018
3561.00,0.0018
3560.00,0.0019
3559.00,0.0019
3558.00,0.0020
3557.00,0.0020
3556.00,0.0020
3555.00,0.0020
3554.00,0.0020
3553.00,0.0021
3552.00,0.0021
3551.00,0.0021
3550.00,0.0022
3549.00,0.0022
3548.00,0.0023
3547.00,0.0023
3546.00,0.0023
3545.00,0.0023
3544.00,0.0023
3543.00,0.0023
3542.00,0.0024
3541.00,0.0024
3540.00,0.0025
3539.00,0.0025
3538.00,0.0025
3537.00,0.0025
3536.00,0.0025
3535.00,0.0025
3534.00,0.0025
3533.00,0.0026
3532.00,0.0026
3531.00,0.0026
3530.00,0.0026
3529.00,0.0026
3528.00,0.0027
3527.00,0.0027
3526.00,0.0027
3525.00,0.0027
3524.00,0.0027
3523.00,0.0028
3522.00,0.0029
3521.00,0.0029
3520.00,0.0029
3519.00,0.0030
3518.00,0.0030
3517.00,0.0030
3516.00,0.0030
3515.00,0.0030
3514.00,0.0030
3513.00,0.0031
3512.00,0.0031
3511.00,0.0032
3510.00,0.0032
3509.00,0.0032
3508.00,0.0032
3507.00,0.0032
3506.00,0.0032
3505.00,0.0032
3504.00,0.0032
3503.00,0.0033
3502.00,0.0033
3501.00,0.0034
3500.00,0.0034
3499.00,0.0034
3498.00,0.0034
3497.00,0.0034
3496.00,0.0034
3495.00,0.0035
3494.00,0.0035
3493.00,0.0035
3492.00,0.0035
3491.00,0.0036
3490.00,0.0036
3489.00,0.0036
3488.00,0.0037
3487.00,0.0037
3486.00,0.0037
3485.00,0.0037
3484.00,0.0038
3483.00,0.0038
3482.00,0.0038
3481.00,0.0039
3480.00,0.0039
3479.00,0.0039
3478.00,0.0039
3477.00,0.0039
3476.00,0.0038
3475.00,0.0039
3474.00,0.0039
3473.00,0.0040
3472.00,0.0040
3471.00,0.0041
3470.00,0.0041
3469.00,0.0041
3468.00,0.0041
3467.00,0.0041
3466.00,0.0042
3465.00,0.0042
3464.00,0.0043
3463.00,0.0043
3462.00,0.0043
3461.00,0.0043
3460.00,0.0043
3459.00,0.0043
3458.00,0.0044
3457.00,0.0044
3456.00,0.0044
3455.00,0.0045
3454.00,0.0045
3453.00,0.0045
3452.00,0.0045
3451.00,0.0045
3450.00,0.0046
3449.00,0.0046
3448.00,0.0047
3447.00,0.0047
3446.00,0.0048
3445.00,0.0047
3444.00,0.0047
3443.00,0.0047
3442.00,0.0046
3441.00,0.0047
3440.00,0.0047
3439.00,0.0048
3438.00,0.0049
3437.00,0.0049
3436.00,0.0049
3435.00,0.0050
3434.00,0.0050
3433.00,0.0050
3432.00,0.0050
3431.00,0.0051
3430.00,0.0051
3429.00,0.0051
3428.00,0.0051
3427.00,0.0052
3426.00,0.0052
3425.00,0.0052
3424.00,0.0052
3423.00,0.0053
3422.00,0.0053
3421.00,0.0053
3420.00,0.0053
3419.00,0.0053
3418.00,0.0053
3417.00,0.0053
3416.00,0.0053
3415.00,0.0053
3414.00,0.0054
3413.00,0.0054
3412.00,0.0055
3411.00,0.0055
3410.00,0.0055
3409.00,0.0056
3408.00,0.0056
3407.00,0.0057
3406.00,0.0057
3405.00,0.0057
3404.00,0.0057
3403.00,0.0057
3402.00,0.0058
3401.00,0.0058
3400.00,0.0058
3399.00,0.0058
3398.00,0.0058
3397.00,0.0058
3396.00,0.0058
3395.00,0.0058
3394.00,0.0058
3393.00,0.0058
3392.00,0.0058
3391.00,0.0058
3390.00,0.0058
3389.00,0.0058
3388.00,0.0059
3387.00,0.0059
3386.00,0.0059
3385.00,0.0059
3384.00,0.0059
3383.00,0.0059
3382.00,0.0059
3381.00,0.0059
3380.00,0.0059
3379.00,0.0059
3378.00,0.0059
3377.00,0.0059
3376.00,0.0060
3375.00,0.0060
3374.00,0.0061
3373.00,0.0061
3372.00,0.0061
3371.00,0.0060
3370.00,0.0060
3369.00,0.0060
3368.00,0.0061
3367.00,0.0061
3366.00,0.0061
3365.00,0.0061
3364.00,0.0061
3363.00,0.0061
3362.00,0.0062
3361.00,0.0062
3360.00,0.0062
3359.00,0.0062
3358.00,0.0062
3357.00,0.0062
3356.00,0.0062
3355.00,0.0063
3354.00,0.0063
3353.00,0.0063
3352.00,0.0063
3351.00,0.0063
3350.00,0.0063
3349.00,0.0063
3348.00,0.0063
3347.00,0.0063
3346.00,0.0063
3345.00,0.0063
3344.00,0.0063
3343.00,0.0063
3342.00,0.0063
3341.00,0.0064
3340.00,0.0064
3339.00,0.0064
3338.00,0.0065
3337.00,0.0065
3336.00,0.0064
3335.00,0.0064
3334.00,0.0064
3333.00,0.0064
3332.00,0.0064
3331.00,0.0064
3330.00,0.0064
3329.00,0.0064
3328.00,0.0064
3327.00,0.0064
3326.00,0.0064
3325.00,0.0064
3324.00,0.0064
3323.00,0.0064
3322.00,0.0064
3321.00,0.0064
3320.00,0.0064
3319.00,0.0064
3318.00,0.0065
3317.00,0.0065
3316.00,0.0065
3315.00,0.0065
3314.00,0.0065
3313.00,0.0065
3312.00,0.0065
3311.00,0.0065
3310.00,0.0065
3309.00,0.0065
3308.00,0.0065
3307.00,0.0065
3306.00,0.0065
3305.00,0.0065
3304.00,0.0065
3303.00,0.0064
3302.00,0.0064
3301.00,0.0064
3300.00,0.0064
3299.00,0.0064
3298.00,0.0064
3297.00,0.0064
3296.00,0.0064
3295.00,0.0064
3294.00,0.0064
3293.00,0.0064
3292.00,0.0064
3291.00,0.0063
3290.00,0.0063
3289.00,0.0063
3288.00,0.0063
3287.00,0.0063
3286.00,0.0062
3285.00,0.0062
3284.00,0.0062
3283.00,0.0062
3282.00,0.0061
3281.00,0.0061
3280.00,0.0061
3279.00,0.0061
3278.00,0.0061
3277.00,0.0061
3276.00,0.0061
3275.00,0.0060
3274.00,0.0060
3273.00,0.0060
3272.00,0.0060
3271.00,0.0060
3270.00,0.0059
3269.00,0.0059
3268.00,0.0058
3267.00,0.0058
3266.00,0.0058
3265.00,0.0058
3264.00,0.0058
3263.00,0.0058
3262.00,0.0058
3261.00,0.0058
3260.00,0.0057
3259.00,0.0057
3258.00,0.0056
3257.00,0.0056
3256.00,0.0055
3255.00,0.0055
3254.00,0.0055
3253.00,0.0054
3252.00,0.0054
3251.00,0.0054
3250.00,0.0054
3249.00,0.0054
3248.00,0.0054
3247.00,0.0054
3246.00,0.0053
3245.00,0.0053
3244.00,0.0053
3243.00,0.0054
3242.00,0.0054
3241.00,0.0055
3240.00,0.0055
3239.00,0.0054
3238.00,0.0054
3237.00,0.0053
3236.00,0.0053
3235.00,0.0053
3234.00,0.0053
3233.00,0.0053
3232.00,0.0053
3231.00,0.0054
3230.00,0.0054
3229.00,0.0054
3228.00,0.0054
3227.00,0.0054
3226.00,0.0053
3225.00,0.0054
3224.00,0.0054
3223.00,0.0054
3222.00,0.0055
3221.00,0.0055
3220.00,0.0055
3219.00,0.0055
3218.00,0.0056
3217.00,0.0056
3216.00,0.0056
3215.00,0.0057
3214.00,0.0057
3213.00,0.0058
3212.00,0.0058
3211.00,0.0058
3210.00,0.0058
3209.00,0.0058
3208.00,0.0058
3207.00,0.0058
3206.00,0.0058
3205.00,0.0058
3204.00,0.0058
3203.00,0.0058
3202.00,0.0058
3201.00,0.0058
3200.00,0.0058
3199.00,0.0058
3198.00,0.0058
3197.00,0.0058
3196.00,0.0058
3195.00,0.0058
3194.00,0.0058
3193.00,0.0057
3192.00,0.0057
3191.00,0.0057
3190.00,0.0057
3189.00,0.0057
3188.00,0.0056
3187.00,0.0055
3186.00,0.0055
3185.00,0.0054
3184.00,0.0054
3183.00,0.0053
3182.00,0.0054
3181.00,0.0054
3180.00,0.0054
3179.00,0.0054
3178.00,0.0053
3177.00,0.0053
3176.00,0.0053
3175.00,0.0052
3174.00,0.0052
3173.00,0.0051
3172.00,0.0051
3171.00,0.0050
3170.00,0.0050
3169.00,0.0049
3168.00,0.0049
3167.00,0.0049
3166.00,0.0049
3165.00,0.0049
3164.00,0.0049
3163.00,0.0049
3162.00,0.0049
3161.00,0.0049
3160.00,0.0048
3159.00,0.0048
3158.00,0.0047
3157.00,0.0047
3156.00,0.0047
3155.00,0.0047
3154.00,0.0047
3153.00,0.0047
3152.00,0.0047
3151.00,0.0047
3150.00,0.0047
3149.00,0.0048
3148.00,0.0047
3147.00,0.0047
3146.00,0.0047
3145.00,0.0047
3144.00,0.0047
3143.00,0.0046
3142.00,0.0046
3141.00,0.0046
3140.00,0.0045
3139.00,0.0045
3138.00,0.0045
3137.00,0.0045
3136.00,0.0045
3135.00,0.0045
3134.00,0.0044
3133.00,0.0044
3132.00,0.0044
3131.00,0.0044
3130.00,0.0044
3129.00,0.0044
3128.00,0.0043
3127.00,0.0043
3126.00,0.0043
3125.00,0.0042
3124.00,0.0042
3123.00,0.0042
3122.00,0.0041
3121.00,0.0041
3120.00,0.0041
3119.00,0.0040
3118.00,0.0040
3117.00,0.0040
3116.00,0.0041
3115.00,0.0041
3114.00,0.0041
3113.00,0.0040
3112.00,0.0040
3111.00,0.0040
3110.00,0.0040
3109.00,0.0039
3108.00,0.0039
3107.00,0.0039
3106.00,0.0038
3105.00,0.0038
3104.00,0.0037
3103.00,0.0037
3102.00,0.0036
3101.00,0.0036
3100.00,0.0037
3099.00,0.0037
3098.00,0.0037
3097.00,0.0037
3096.00,0.0037
3095.00,0.0037
3094.00,0.0037
3093.00,0.0037
3092.00,0.0037
3091.00,0.0036
3090.00,0.0036
3089.00,0.0036
3088.00,0.0036
3087.00,0.0035
3086.00,0.0035
3085.00,0.0035
3084.00,0.0035
3083.00,0.0036
3082.00,0.0036
3081.00,0.0036
3080.00,0.0036
3079.00,0.0036
3078.00,0.0036
3077.00,0.0036
3076.00,0.0036
3075.00,0.0036
3074.00,0.0036
3073.00,0.0036
3072.00,0.0036
3071.00,0.0036
3070.00,0.0036
3069.00,0.0036
3068.00,0.0037
3067.00,0.0037
3066.00,0.0038
3065.00,0.0038
3064.00,0.0037
3063.00,0.0037
3062.00,0.0037
3061.00,0.0037
3060.00,0.0037
3059.00,0.0037
3058.00,0.0038
3057.00,0.0038
3056.00,0.0038
3055.00,0.0038
3054.00,0.0039
3053.00,0.0039
3052.00,0.0039
3051.00,0.0039
3050.00,0.0039
3049.00,0.0039
3048.00,0.0040
3047.00,0.0040
3046.00,0.0040
3045.00,0.0040
3044.00,0.0040
3043.00,0.0040
3042.00,0.0041
3041.00,0.0041
3040.00,0.0041
3039.00,0.0041
3038.00,0.0041
3037.00,0.0042
3036.00,0.0042
3035.00,0.0042
3034.00,0.0043
3033.00,0.0043
3032.00,0.0044
3031.00,0.0044
3030.00,0.0045
3029.00,0.0045
3028.00,0.0046
3027.00,0.0046
3026.00,0.0047
3025.00,0.0047
3024.00,0.0048
3023.00,0.0049
3022.00,0.0049
3021.00,0.0050
3020.00,0.0050
3019.00,0.0051
3018.00,0.0052
3017.00,0.0053
3016.00,0.0055
3015.00,0.0056
3014.00,0.0057
3013.00,0.0059
3012.00,0.0060
3011.00,0.0062
3010.00,0.0064
3009.00,0.0066
3008.00,0.0067
3007.00,0.0069
3006.00,0.0071
3005.00,0.0072
3004.00,0.0074
3003.00,0.0077
3002.00,0.0079
3001.00,0.0081
3000.00,0.0083
2999.00,0.0086
2998.00,0.0088
2997.00,0.0091
2996.00,0.0095
2995.00,0.0099
2994.00,0.0104
2993.00,0.0109
2992.00,0.0114
2991.00,0.0120
2990.00,0.0126
2989.00,0.0133
2988.00,0.0140
2987.00,0.0149
2986.00,0.0159
2985.00,0.0170
2984.00,0.0182
2983.00,0.0196
2982.00,0.0213
2981.00,0.0230
2980.00,0.0250
2979.00,0.0271
2978.00,0.0296
2977.00,0.0324
2976.00,0.0357
2975.00,0.0394
2974.00,0.0437
2973.00,0.0485
2972.00,0.0539
2971.00,0.0599
2970.00,0.0666
2969.00,0.0741
2968.00,0.0821
2967.00,0.0907
2966.00,0.0998
2965.00,0.1089
2964.00,0.1179
2963.00,0.1262
2962.00,0.1334
2961.00,0.1393
2960.00,0.1439
2959.00,0.1477
2958.00,0.1511
2957.00,0.1549
2956.00,0.1596
2955.00,0.1656
2954.00,0.1729
2953.00,0.1809
2952.00,0.1887
2951.00,0.1950
2950.00,0.1986
2949.00,0.1983
2948.00,0.1936
2947.00,0.1848
2946.00,0.1728
2945.00,0.1592
2944.00,0.1455
2943.00,0.1333
2942.00,0.1233
2941.00,0.1160
2940.00,0.1113
2939.00,0.1091
2938.00,0.1091
2937.00,0.1110
2936.00,0.1147
2935.00,0.1200
2934.00,0.1268
2933.00,0.1349
2932.00,0.1443
2931.00,0.1546
2930.00,0.1656
2929.00,0.1771
2928.00,0.1885
2927.00,0.1997
2926.00,0.2105
2925.00,0.2209
2924.00,0.2309
2923.00,0.2407
2922.00,0.2504
2921.00,0.2598
2920.00,0.2681
2919.00,0.2747
2918.00,0.2783
2917.00,0.2784
2916.00,0.2746
2915.00,0.2673
2914.00,0.2575
2913.00,0.2465
2912.00,0.2352
2911.00,0.2246
2910.00,0.2149
2909.00,0.2062
2908.00,0.1981
2907.00,0.1904
2906.00,0.1829
2905.00,0.1755
2904.00,0.1680
2903.00,0.1605
2902.00,0.1531
2901.00,0.1460
2900.00,0.1391
2899.00,0.1326
2898.00,0.1266
2897.00,0.1212
2896.00,0.1165
2895.00,0.1126
2894.00,0.1093
2893.00,0.1069
2892.00,0.1051
2891.00,0.1040
2890.00,0.1034
2889.00,0.1034
2888.00,0.1038
2887.00,0.1045
2886.00,0.1056
2885.00,0.1070
2884.00,0.1089
2883.00,0.1113
2882.00,0.1140
2881.00,0.1170
2880.00,0.1200
2879.00,0.1225
2878.00,0.1242
2877.00,0.1248
2876.00,0.1245
2875.00,0.1237
2874.00,0.1229
2873.00,0.1227
2872.00,0.1232
2871.00,0.1247
2870.00,0.1268
2869.00,0.1292
2868.00,0.1310
2867.00,0.1314
2866.00,0.1295
2865.00,0.1248
2864.00,0.1175
2863.00,0.1085
2862.00,0.0990
2861.00,0.0899
2860.00,0.0821
2859.00,0.0757
2858.00,0.0709
2857.00,0.0674
2856.00,0.0650
2855.00,0.0635
2854.00,0.0627
2853.00,0.0626
2852.00,0.0631
2851.00,0.0642
2850.00,0.0659
2849.00,0.0682
2848.00,0.0713
2847.00,0.0751
2846.00,0.0799
2845.00,0.0855
2844.00,0.0921
2843.00,0.0993
2842.00,0.1067
2841.00,0.1137
2840.00,0.1194
2839.00,0.1231
2838.00,0.1237
2837.00,0.1210
2836.00,0.1148
2835.00,0.1059
2834.00,0.0952
2833.00,0.0841
2832.00,0.0735
2831.00,0.0641
2830.00,0.0562
2829.00,0.0497
2828.00,0.0444
2827.00,0.0402
2826.00,0.0367
2825.00,0.0339
2824.00,0.0315
2823.00,0.0295
2822.00,0.0278
2821.00,0.0263
2820.00,0.0250
2819.00,0.0238
2818.00,0.0228
2817.00,0.0220
2816.00,0.0212
2815.00,0.0206
2814.00,0.0200
2813.00,0.0194
2812.00,0.0189
2811.00,0.0184
2810.00,0.0178
2809.00,0.0173
2808.00,0.0167
2807.00,0.0160
2806.00,0.0153
2805.00,0.0146
2804.00,0.0140
2803.00,0.0134
2802.00,0.0128
2801.00,0.0123
2800.00,0.0119
2799.00,0.0116
2798.00,0.0113
2797.00,0.0111
2796.00,0.0109
2795.00,0.0107
2794.00,0.0104
2793.00,0.0101
2792.00,0.0098
2791.00,0.0094
2790.00,0.0091
2789.00,0.0088
2788.00,0.0086
2787.00,0.0083
2786.00,0.0080
2785.00,0.0078
2784.00,0.0076
2783.00,0.0073
2782.00,0.0071
2781.00,0.0069
2780.00,0.0067
2779.00,0.0065
2778.00,0.0064
2777.00,0.0062
2776.00,0.0061
2775.00,0.0061
2774.00,0.0060
2773.00,0.0059
2772.00,0.0059
2771.00,0.0059
2770.00,0.0058
2769.00,0.0058
2768.00,0.0057
2767.00,0.0057
2766.00,0.0057
2765.00,0.0057
2764.00,0.0056
2763.00,0.0056
2762.00,0.0055
2761.00,0.0055
2760.00,0.0055
2759.00,0.0054
2758.00,0.0054
2757.00,0.0054
2756.00,0.0054
2755.00,0.0054
2754.00,0.0054
2753.00,0.0054
2752.00,0.0053
2751.00,0.0053
2750.00,0.0053
2749.00,0.0053
2748.00,0.0053
2747.00,0.0053
2746.00,0.0054
2745.00,0.0054
2744.00,0.0055
2743.00,0.0056
2742.00,0.0057
2741.00,0.0058
2740.00,0.0059
2739.00,0.0061
2738.00,0.0062
2737.00,0.0063
2736.00,0.0065
2735.00,0.0066
2734.00,0.0068
2733.00,0.0070
2732.00,0.0072
2731.00,0.0074
2730.00,0.0076
2729.00,0.0079
2728.00,0.0081
2727.00,0.0084
2726.00,0.0086
2725.00,0.0089
2724.00,0.0090
2723.00,0.0090
2722.00,0.0089
2721.00,0.0088
2720.00,0.0085
2719.00,0.0082
2718.00,0.0078
2717.00,0.0075
2716.00,0.0071
2715.00,0.0069
2714.00,0.0066
2713.00,0.0064
2712.00,0.0062
2711.00,0.0060
2710.00,0.0058
2709.00,0.0056
2708.00,0.0055
2707.00,0.0054
2706.00,0.0053
2705.00,0.0052
2704.00,0.0051
2703.00,0.0050
2702.00,0.0049
2701.00,0.0048
2700.00,0.0047
2699.00,0.0046
2698.00,0.0045
2697.00,0.0045
2696.00,0.0045
2695.00,0.0045
2694.00,0.0045
2693.00,0.0045
2692.00,0.0045
2691.00,0.0045
2690.00,0.0045
2689.00,0.0045
2688.00,0.0044
2687.00,0.0045
2686.00,0.0045
2685.00,0.0045
2684.00,0.0045
2683.00,0.0045
2682.00,0.0045
2681.00,0.0046
2680.00,0.0046
2679.00,0.0046
2678.00,0.0046
2677.00,0.0046
2676.00,0.0046
2675.00,0.0046
2674.00,0.0046
2673.00,0.0046
2672.00,0.0046
2671.00,0.0045
2670.00,0.0045
2669.00,0.0045
2668.00,0.0045
2667.00,0.0046
2666.00,0.0046
2665.00,0.0046
2664.00,0.0047
2663.00,0.0048
2662.00,0.0048
2661.00,0.0048
2660.00,0.0048
2659.00,0.0048
2658.00,0.0048
2657.00,0.0047
2656.00,0.0047
2655.00,0.0046
2654.00,0.0046
2653.00,0.0045
2652.00,0.0045
2651.00,0.0044
2650.00,0.0044
2649.00,0.0043
2648.00,0.0043
2647.00,0.0043
2646.00,0.0042
2645.00,0.0042
2644.00,0.0041
2643.00,0.0041
2642.00,0.0040
2641.00,0.0039
2640.00,0.0039
2639.00,0.0039
2638.00,0.0038
2637.00,0.0038
2636.00,0.0037
2635.00,0.0037
2634.00,0.0037
2633.00,0.0037
2632.00,0.0037
2631.00,0.0037
2630.00,0.0038
2629.00,0.0038
2628.00,0.0039
2627.00,0.0039
2626.00,0.0040
2625.00,0.0040
2624.00,0.0040
2623.00,0.0040
2622.00,0.0040
2621.00,0.0040
2620.00,0.0040
2619.00,0.0040
2618.00,0.0040
2617.00,0.0040
2616.00,0.0040
2615.00,0.0040
2614.00,0.0040
2613.00,0.0040
2612.00,0.0039
2611.00,0.0039
2610.00,0.0038
2609.00,0.0038
2608.00,0.0038
2607.00,0.0037
2606.00,0.0036
2605.00,0.0035
2604.00,0.0035
2603.00,0.0034
2602.00,0.0034
2601.00,0.0033
2600.00,0.0033
2599.00,0.0033
2598.00,0.0032
2597.00,0.0032
2596.00,0.0032
2595.00,0.0032
2594.00,0.0033
2593.00,0.0034
2592.00,0.0035
2591.00,0.0035
2590.00,0.0035
2589.00,0.0036
2588.00,0.0037
2587.00,0.0038
2586.00,0.0039
2585.00,0.0040
2584.00,0.0040
2583.00,0.0040
2582.00,0.0040
2581.00,0.0039
2580.00,0.0039
2579.00,0.0038
2578.00,0.0038
2577.00,0.0037
2576.00,0.0036
2575.00,0.0034
2574.00,0.0033
2573.00,0.0032
2572.00,0.0031
2571.00,0.0030
2570.00,0.0029
2569.00,0.0028
2568.00,0.0027
2567.00,0.0026
2566.00,0.0025
2565.00,0.0024
2564.00,0.0024
2563.00,0.0024
2562.00,0.0024
2561.00,0.0023
2560.00,0.0023
2559.00,0.0023
2558.00,0.0023
2557.00,0.0024
2556.00,0.0024
2555.00,0.0023
2554.00,0.0023
2553.00,0.0022
2552.00,0.0021
2551.00,0.0021
2550.00,0.0020
2549.00,0.0020
2548.00,0.0020
2547.00,0.0020
2546.00,0.0020
2545.00,0.0020
2544.00,0.0020
2543.00,0.0019
2542.00,0.0018
2541.00,0.0017
2540.00,0.0016
2539.00,0.0016
2538.00,0.0016
2537.00,0.0016
2536.00,0.0016
2535.00,0.0016
2534.00,0.0016
2533.00,0.0016
2532.00,0.0016
2531.00,0.0016
2530.00,0.0016
2529.00,0.0015
2528.00,0.0014
2527.00,0.0014
2526.00,0.0013
2525.00,0.0013
2524.00,0.0013
2523.00,0.0013
2522.00,0.0013
2521.00,0.0013
2520.00,0.0014
2519.00,0.0014
2518.00,0.0013
2517.00,0.0013
2516.00,0.0012
2515.00,0.0011
2514.00,0.0011
2513.00,0.0011
2512.00,0.0010
2511.00,0.0010
2510.00,0.0010
2509.00,0.0010
2508.00,0.0011
2507.00,0.0010
2506.00,0.0010
2505.00,0.0010
2504.00,0.0010
2503.00,0.0011
2502.00,0.0011
2501.00,0.0011
2500.00,0.0011
2499.00,0.0011
2498.00,0.0011
2497.00,0.0011
2496.00,0.0011
2495.00,0.0010
2494.00,0.0010
2493.00,0.0010
2492.00,0.0010
2491.00,0.0009
2490.00,0.0009
2489.00,0.0009
2488.00,0.0009
2487.00,0.0009
2486.00,0.0009
2485.00,0.0010
2484.00,0.0010
2483.00,0.0010
2482.00,0.0009
2481.00,0.0009
2480.00,0.0009
2479.00,0.0008
2478.00,0.0009
2477.00,0.0009
2476.00,0.0009
2475.00,0.0009
2474.00,0.0009
2473.00,0.0009
2472.00,0.0009
2471.00,0.0009
2470.00,0.0009
2469.00,0.0009
2468.00,0.0009
2467.00,0.0009
2466.00,0.0009
2465.00,0.0009
2464.00,0.0009
2463.00,0.0009
2462.00,0.0009
2461.00,0.0009
2460.00,0.0010
2459.00,0.0010
2458.00,0.0011
2457.00,0.0011
2456.00,0.0011
2455.00,0.0011
2454.00,0.0012
2453.00,0.0012
2452.00,0.0012
2451.00,0.0012
2450.00,0.0011
2449.00,0.0011
2448.00,0.0010
2447.00,0.0010
2446.00,0.0009
2445.00,0.0009
2444.00,0.0009
2443.00,0.0009
2442.00,0.0010
2441.00,0.0011
2440.00,0.0011
2439.00,0.0011
2438.00,0.0011
2437.00,0.0011
2436.00,0.0011
2435.00,0.0010
2434.00,0.0010
2433.00,0.0010
2432.00,0.0011
2431.00,0.0012
2430.00,0.0013
2429.00,0.0013
2428.00,0.0012
2427.00,0.0012
2426.00,0.0011
2425.00,0.0011
2424.00,0.0011
2423.00,0.0011
2422.00,0.0011
2421.00,0.0011
2420.00,0.0011
2419.00,0.0010
2418.00,0.0010
2417.00,0.0009
2416.00,0.0009
2415.00,0.0010
2414.00,0.0010
2413.00,0.0010
2412.00,0.0010
2411.00,0.0010
2410.00,0.0009
2409.00,0.0009
2408.00,0.0008
2407.00,0.0008
2406.00,0.0008
2405.00,0.0009
2404.00,0.0009
2403.00,0.0009
2402.00,0.0009
2401.00,0.0008
2400.00,0.0008
2399.00,0.0008
2398.00,0.0008
2397.00,0.0008
2396.00,0.0008
2395.00,0.0009
2394.00,0.0009
2393.00,0.0008
2392.00,0.0008
2391.00,0.0007
2390.00,0.0007
2389.00,0.0008
2388.00,0.0008
2387.00,0.0008
2386.00,0.0007
2385.00,0.0006
2384.00,0.0005
2383.00,0.0004
2382.00,0.0003
2381.00,0.0003
2380.00,0.0002
2379.00,0.0001
2378.00,0.0001
2377.00,0.0001
2376.00,0.0002
2375.00,0.0002
2374.00,0.0002
2373.00,0.0003
2372.00,0.0003
2371.00,0.0002
2370.00,0.0002
2369.00,0.0001
2368.00,0.0000
2367.00,-0.0001
2366.00,-0.0002
2365.00,-0.0002
2364.00,-0.0001
2363.00,0.0002
2362.00,0.0004
2361.00,0.0005
2360.00,0.0005
2359.00,0.0004
2358.00,0.0003
2357.00,0.0002
2356.00,0.0002
2355.00,0.0002
2354.00,0.0003
2353.00,0.0003
2352.00,0.0003
2351.00,0.0002
2350.00,0.0002
2349.00,0.0002
2348.00,0.0003
2347.00,0.0004
2346.00,0.0004
2345.00,0.0004
2344.00,0.0004
2343.00,0.0005
2342.00,0.0005
2341.00,0.0004
2340.00,0.0004
2339.00,0.0005
2338.00,0.0005
2337.00,0.0006
2336.00,0.0006
2335.00,0.0006
2334.00,0.0006
2333.00,0.0006
2332.00,0.0005
2331.00,0.0005
2330.00,0.0004
2329.00,0.0005
2328.00,0.0007
2327.00,0.0010
2326.00,0.0014
2325.00,0.0017
2324.00,0.0019
2323.00,0.0018
2322.00,0.0015
2321.00,0.0013
2320.00,0.0011
2319.00,0.0009
2318.00,0.0009
2317.00,0.0009
2316.00,0.0009
2315.00,0.0009
2314.00,0.0008
2313.00,0.0007
2312.00,0.0006
2311.00,0.0005
2310.00,0.0005
2309.00,0.0005
2308.00,0.0005
2307.00,0.0005
2306.00,0.0005
2305.00,0.0005
2304.00,0.0006
2303.00,0.0006
2302.00,0.0007
2301.00,0.0006
2300.00,0.0006
2299.00,0.0007
2298.00,0.0008
2297.00,0.0010
2296.00,0.0010
2295.00,0.0010
2294.00,0.0011
2293.00,0.0011
2292.00,0.0012
2291.00,0.0012
2290.00,0.0013
2289.00,0.0014
2288.00,0.0014
2287.00,0.0015
2286.00,0.0015
2285.00,0.0015
2284.00,0.0014
2283.00,0.0014
2282.00,0.0013
2281.00,0.0012
2280.00,0.0012
2279.00,0.0011
2278.00,0.0011
2277.00,0.0011
2276.00,0.0012
2275.00,0.0012
2274.00,0.0011
2273.00,0.0011
2272.00,0.0011
2271.00,0.0012
2270.00,0.0012
2269.00,0.0012
2268.00,0.0011
2267.00,0.0011
2266.00,0.0010
2265.00,0.0010
2264.00,0.0010
2263.00,0.0010
2262.00,0.0010
2261.00,0.0011
2260.00,0.0013
2259.00,0.0013
2258.00,0.0011
2257.00,0.0010
2256.00,0.0008
2255.00,0.0007
2254.00,0.0007
2253.00,0.0008
2252.00,0.0010
2251.00,0.0011
2250.00,0.0012
2249.00,0.0012
2248.00,0.0012
2247.00,0.0011
2246.00,0.0009
2245.00,0.0009
2244.00,0.0008
2243.00,0.0008
2242.00,0.0007
2241.00,0.0006
2240.00,0.0006
2239.00,0.0005
2238.00,0.0005
2237.00,0.0006
2236.00,0.0007
2235.00,0.0008
2234.00,0.0009
2233.00,0.0009
2232.00,0.0008
2231.00,0.0008
2230.00,0.0007
2229.00,0.0008
2228.00,0.0008
2227.00,0.0008
2226.00,0.0006
2225.00,0.0004
2224.00,0.0003
2223.00,0.0002
2222.00,0.0002
2221.00,0.0002
2220.00,0.0002
2219.00,0.0002
2218.00,0.0002
2217.00,0.0002
2216.00,0.0003
2215.00,0.0003
2214.00,0.0003
2213.00,0.0003
2212.00,0.0003
2211.00,0.0003
2210.00,0.0002
2209.00,0.0002
2208.00,0.0004
2207.00,0.0006
2206.00,0.0008
2205.00,0.0009
2204.00,0.0009
2203.00,0.0008
2202.00,0.0006
2201.00,0.0005
2200.00,0.0006
2199.00,0.0007
2198.00,0.0007
2197.00,0.0007
2196.00,0.0006
2195.00,0.0007
2194.00,0.0009
2193.00,0.0012
2192.00,0.0013
2191.00,0.0013
2190.00,0.0013
2189.00,0.0013
2188.00,0.0014
2187.00,0.0013
2186.00,0.0011
2185.00,0.0010
2184.00,0.0010
2183.00,0.0009
2182.00,0.0008
2181.00,0.0005
2180.00,0.0002
2179.00,-0.0001
2178.00,-0.0001
2177.00,0.0001
2176.00,0.0003
2175.00,0.0004
2174.00,0.0004
2173.00,0.0004
2172.00,0.0005
2171.00,0.0006
2170.00,0.0007
2169.00,0.0009
2168.00,0.0011
2167.00,0.0012
2166.00,0.0012
2165.00,0.0012
2164.00,0.0014
2163.00,0.0016
2162.00,0.0017
2161.00,0.0013
2160.00,0.0003
2159.00,-0.0011
2158.00,-0.0023
2157.00,-0.0029
2156.00,-0.0030
2155.00,-0.0029
2154.00,-0.0028
2153.00,-0.0026
2152.00,-0.0022
2151.00,-0.0019
2150.00,-0.0015
2149.00,-0.0013
2148.00,-0.0013
2147.00,-0.0014
2146.00,-0.0015
2145.00,-0.0016
2144.00,-0.0016
2143.00,-0.0015
2142.00,-0.0014
2141.00,-0.0013
2140.00,-0.0012
2139.00,-0.0012
2138.00,-0.0012
2137.00,-0.0012
2136.00,-0.0014
2135.00,-0.0016
2134.00,-0.0018
2133.00,-0.0017
2132.00,-0.0016
2131.00,-0.0014
2130.00,-0.0013
2129.00,-0.0012
2128.00,-0.0011
2127.00,-0.0010
2126.00,-0.0008
2125.00,-0.0007
2124.00,-0.0006
2123.00,-0.0006
2122.00,-0.0005
2121.00,-0.0005
2120.00,-0.0005
2119.00,-0.0004
2118.00,-0.0004
2117.00,-0.0004
2116.00,-0.0005
2115.00,-0.0004
2114.00,-0.0003
2113.00,-0.0001
2112.00,0.0001
2111.00,0.0001
2110.00,0.0001
2109.00,0.0001
2108.00,-0.0000
2107.00,-0.0001
2106.00,-0.0001
2105.00,-0.0000
2104.00,-0.0000
2103.00,-0.0000
2102.00,-0.0000
2101.00,0.0001
2100.00,0.0002
2099.00,0.0002
2098.00,0.0002
2097.00,0.0000
2096.00,-0.0002
2095.00,-0.0005
2094.00,-0.0007
2093.00,-0.0008
2092.00,-0.0007
2091.00,-0.0005
2090.00,-0.0003
2089.00,-0.0001
2088.00,0.0001
2087.00,0.0003
2086.00,0.0004
2085.00,0.0004
2084.00,0.0003
2083.00,0.0003
2082.00,0.0003
2081.00,0.0003
2080.00,0.0004
2079.00,0.0003
2078.00,0.0002
2077.00,0.0002
2076.00,0.0001
2075.00,0.0002
2074.00,0.0001
2073.00,0.0001
2072.00,0.0001
2071.00,0.0001
2070.00,0.0000
2069.00,-0.0000
2068.00,-0.0001
2067.00,-0.0002
2066.00,-0.0003
2065.00,-0.0003
2064.00,-0.0002
2063.00,-0.0001
2062.00,-0.0000
2061.00,-0.0001
2060.00,-0.0002
2059.00,-0.0003
2058.00,-0.0003
2057.00,-0.0002
2056.00,-0.0001
2055.00,-0.0000
2054.00,0.0001
2053.00,0.0004
2052.00,0.0008
2051.00,0.0011
2050.00,0.0010
2049.00,0.0007
2048.00,0.0002
2047.00,-0.0002
2046.00,-0.0005
2045.00,-0.0006
2044.00,-0.0005
2043.00,-0.0002
2042.00,0.0002
2041.00,0.0005
2040.00,0.0006
2039.00,0.0007
2038.00,0.0006
2037.00,0.0004
2036.00,0.0000
2035.00,-0.0004
2034.00,-0.0008
2033.00,-0.0009
2032.00,-0.0009
2031.00,-0.0009
2030.00,-0.0010
2029.00,-0.0012
2028.00,-0.0015
2027.00,-0.0016
2026.00,-0.0015
2025.00,-0.0012
2024.00,-0.0009
2023.00,-0.0008
2022.00,-0.0007
2021.00,-0.0005
2020.00,-0.0003
2019.00,-0.0002
2018.00,-0.0002
2017.00,-0.0003
2016.00,-0.0004
2015.00,-0.0005
2014.00,-0.0006
2013.00,-0.0008
2012.00,-0.0010
2011.00,-0.0011
2010.00,-0.0011
2009.00,-0.0010
2008.00,-0.0009
2007.00,-0.0010
2006.00,-0.0013
2005.00,-0.0016
2004.00,-0.0018
2003.00,-0.0020
2002.00,-0.0020
2001.00,-0.0018
2000.00,-0.0014
1999.00,-0.0011
1998.00,-0.0010
1997.00,-0.0011
1996.00,-0.0013
1995.00,-0.0016
1994.00,-0.0017
1993.00,-0.0018
1992.00,-0.0017
1991.00,-0.0014
1990.00,-0.0010
1989.00,-0.0005
1988.00,-0.0002
1987.00,-0.0001
1986.00,-0.0001
1985.00,0.0000
1984.00,0.0001
1983.00,0.0003
1982.00,0.0005
1981.00,0.0007
1980.00,0.0007
1979.00,0.0004
1978.00,-0.0003
1977.00,-0.0008
1976.00,-0.0012
1975.00,-0.0013
1974.00,-0.0014
1973.00,-0.0014
1972.00,-0.0013
1971.00,-0.0013
1970.00,-0.0012
1969.00,-0.0010
1968.00,-0.0007
1967.00,-0.0008
1966.00,-0.0011
1965.00,-0.0015
1964.00,-0.0016
1963.00,-0.0016
1962.00,-0.0015
1961.00,-0.0015
1960.00,-0.0014
1959.00,-0.0015
1958.00,-0.0017
1957.00,-0.0018
1956.00,-0.0018
1955.00,-0.0018
1954.00,-0.0018
1953.00,-0.0017
1952.00,-0.0017
1951.00,-0.0018
1950.00,-0.0019
1949.00,-0.0018
1948.00,-0.0017
1947.00,-0.0016
1946.00,-0.0014
1945.00,-0.0013
1944.00,-0.0013
1943.00,-0.0014
1942.00,-0.0014
1941.00,-0.0014
1940.00,-0.0012
1939.00,-0.0011
1938.00,-0.0011
1937.00,-0.0012
1936.00,-0.0012
1935.00,-0.0011
1934.00,-0.0011
1933.00,-0.0011
1932.00,-0.0011
1931.00,-0.0011
1930.00,-0.0011
1929.00,-0.0010
1928.00,-0.0009
1927.00,-0.0008
1926.00,-0.0006
1925.00,-0.0005
1924.00,-0.0004
1923.00,-0.0004
1922.00,-0.0003
1921.00,-0.0002
1920.00,-0.0003
1919.00,-0.0003
1918.00,-0.0004
1917.00,-0.0004
1916.00,-0.0004
1915.00,-0.0003
1914.00,-0.0003
1913.00,-0.0003
1912.00,-0.0002
1911.00,-0.0001
1910.00,-0.0002
1909.00,-0.0002
1908.00,-0.0002
1907.00,-0.0002
1906.00,-0.0002
1905.00,-0.0002
1904.00,-0.0002
1903.00,-0.0002
1902.00,-0.0003
1901.00,-0.0004
1900.00,-0.0003
1899.00,-0.0003
1898.00,-0.0002
1897.00,-0.0001
1896.00,0.0000
1895.00,0.0001
1894.00,0.0001
1893.00,0.0000
1892.00,-0.0001
1891.00,-0.0002
1890.00,-0.0003
1889.00,-0.0003
1888.00,-0.0003
1887.00,-0.0002
1886.00,-0.0003
1885.00,-0.0003
1884.00,-0.0003
1883.00,-0.0003
1882.00,-0.0003
1881.00,-0.0003
1880.00,-0.0003
1879.00,-0.0002
1878.00,-0.0002
1877.00,-0.0002
1876.00,-0.0001
1875.00,-0.0001
1874.00,-0.0001
1873.00,-0.0001
1872.00,-0.0000
1871.00,-0.0001
1870.00,-0.0001
1869.00,-0.0000
1868.00,-0.0000
1867.00,-0.0001
1866.00,-0.0001
1865.00,-0.0002
1864.00,-0.0002
1863.00,-0.0002
1862.00,-0.0002
1861.00,-0.0002
1860.00,-0.0001
1859.00,-0.0001
1858.00,-0.0000
1857.00,0.0001
1856.00,0.0001
1855.00,0.0002
1854.00,0.0002
1853.00,0.0002
1852.00,0.0002
1851.00,0.0001
1850.00,0.0001
1849.00,0.0001
1848.00,0.0001
1847.00,0.0001
1846.00,0.0001
1845.00,0.0000
1844.00,0.0000
1843.00,0.0001
1842.00,0.0001
1841.00,0.0001
1840.00,0.0001
1839.00,0.0001
1838.00,0.0001
1837.00,0.0001
1836.00,0.0002
1835.00,0.0002
1834.00,0.0002
1833.00,0.0002
1832.00,0.0002
1831.00,0.0001
1830.00,0.0001
1829.00,0.0001
1828.00,0.0002
1827.00,0.0002
1826.00,0.0002
1825.00,0.0002
1824.00,0.0002
1823.00,0.0002
1822.00,0.0002
1821.00,0.0002
1820.00,0.0002
1819.00,0.0001
1818.00,0.0000
1817.00,0.0001
1816.00,0.0001
1815.00,0.0002
1814.00,0.0003
1813.00,0.0003
1812.00,0.0003
1811.00,0.0003
1810.00,0.0003
1809.00,0.0003
1808.00,0.0003
1807.00,0.0003
1806.00,0.0003
1805.00,0.0003
1804.00,0.0004
1803.00,0.0004
1802.00,0.0005
1801.00,0.0005
1800.00,0.0004
1799.00,0.0004
1798.00,0.0004
1797.00,0.0005
1796.00,0.0006
1795.00,0.0006
1794.00,0.0006
1793.00,0.0006
1792.00,0.0006
1791.00,0.0006
1790.00,0.0007
1789.00,0.0008
1788.00,0.0009
1787.00,0.0009
1786.00,0.0009
1785.00,0.0009
1784.00,0.0009
1783.00,0.0010
1782.00,0.0010
1781.00,0.0010
1780.00,0.0010
1779.00,0.0010
1778.00,0.0010
1777.00,0.0010
1776.00,0.0010
1775.00,0.0010
1774.00,0.0011
1773.00,0.0011
1772.00,0.0012
1771.00,0.0013
1770.00,0.0013
1769.00,0.0014
1768.00,0.0015
1767.00,0.0015
1766.00,0.0016
1765.00,0.0018
1764.00,0.0020
1763.00,0.0021
1762.00,0.0023
1761.00,0.0024
1760.00,0.0027
1759.00,0.0029
1758.00,0.0032
1757.00,0.0036
1756.00,0.0040
1755.00,0.0044
1754.00,0.0047
1753.00,0.0051
1752.00,0.0055
1751.00,0.0060
1750.00,0.0063
1749.00,0.0066
1748.00,0.0068
1747.00,0.0069
1746.00,0.0069
1745.00,0.0068
1744.00,0.0067
1743.00,0.0066
1742.00,0.0064
1741.00,0.0062
1740.00,0.0059
1739.00,0.0057
1738.00,0.0055
1737.00,0.0054
1736.00,0.0053
1735.00,0.0051
1734.00,0.0047
1733.00,0.0045
1732.00,0.0043
1731.00,0.0042
1730.00,0.0041
1729.00,0.0040
1728.00,0.0039
1727.00,0.0037
1726.00,0.0036
1725.00,0.0035
1724.00,0.0035
1723.00,0.0034
1722.00,0.0033
1721.00,0.0033
1720.00,0.0033
1719.00,0.0033
1718.00,0.0032
1717.00,0.0031
1716.00,0.0031
1715.00,0.0031
1714.00,0.0030
1713.00,0.0031
1712.00,0.0031
1711.00,0.0032
1710.00,0.0033
1709.00,0.0034
1708.00,0.0034
1707.00,0.0034
1706.00,0.0034
1705.00,0.0034
1704.00,0.0035
1703.00,0.0036
1702.00,0.0037
1701.00,0.0038
1700.00,0.0038
1699.00,0.0039
1698.00,0.0039
1697.00,0.0040
1696.00,0.0041
1695.00,0.0042
1694.00,0.0044
1693.00,0.0045
1692.00,0.0046
1691.00,0.0046
1690.00,0.0047
1689.00,0.0048
1688.00,0.0050
1687.00,0.0051
1686.00,0.0052
1685.00,0.0052
1684.00,0.0053
1683.00,0.0055
1682.00,0.0056
1681.00,0.0057
1680.00,0.0059
1679.00,0.0060
1678.00,0.0062
1677.00,0.0063
1676.00,0.0065
1675.00,0.0066
1674.00,0.0067
1673.00,0.0068
1672.00,0.0069
1671.00,0.0070
1670.00,0.0071
1669.00,0.0072
1668.00,0.0073
1667.00,0.0074
1666.00,0.0074
1665.00,0.0075
1664.00,0.0076
1663.00,0.0076
1662.00,0.0077
1661.00,0.0078
1660.00,0.0079
1659.00,0.0080
1658.00,0.0081
1657.00,0.0082
1656.00,0.0083
1655.00,0.0084
1654.00,0.0085
1653.00,0.0087
1652.00,0.0089
1651.00,0.0089
1650.00,0.0090
1649.00,0.0090
1648.00,0.0091
1647.00,0.0092
1646.00,0.0093
1645.00,0.0094
1644.00,0.0094
1643.00,0.0094
1642.00,0.0093
1641.00,0.0093
1640.00,0.0092
1639.00,0.0091
1638.00,0.0090
1637.00,0.0089
1636.00,0.0088
1635.00,0.0088
1634.00,0.0088
1633.00,0.0088
1632.00,0.0088
1631.00,0.0087
1630.00,0.0086
1629.00,0.0085
1628.00,0.0084
1627.00,0.0083
1626.00,0.0082
1625.00,0.0081
1624.00,0.0080
1623.00,0.0079
1622.00,0.0078
1621.00,0.0077
1620.00,0.0076
1619.00,0.0075
1618.00,0.0073
1617.00,0.0072
1616.00,0.0071
1615.00,0.0070
1614.00,0.0070
1613.00,0.0070
1612.00,0.0070
1611.00,0.0070
1610.00,0.0070
1609.00,0.0070
1608.00,0.0071
1607.00,0.0071
1606.00,0.0071
1605.00,0.0071
1604.00,0.0071
1603.00,0.0071
1602.00,0.0070
1601.00,0.0069
1600.00,0.0069
1599.00,0.0069
1598.00,0.0069
1597.00,0.0069
1596.00,0.0068
1595.00,0.0068
1594.00,0.0067
1593.00,0.0067
1592.00,0.0067
1591.00,0.0068
1590.00,0.0068
1589.00,0.0068
1588.00,0.0069
1587.00,0.0069
1586.00,0.0070
1585.00,0.0071
1584.00,0.0072
1583.00,0.0074
1582.00,0.0075
1581.00,0.0077
1580.00,0.0078
1579.00,0.0079
1578.00,0.0080
1577.00,0.0079
1576.00,0.0079
1575.00,0.0078
1574.00,0.0078
1573.00,0.0078
1572.00,0.0077
1571.00,0.0076
1570.00,0.0075
1569.00,0.0074
1568.00,0.0074
1567.00,0.0074
1566.00,0.0073
1565.00,0.0073
1564.00,0.0073
1563.00,0.0072
1562.00,0.0072
1561.00,0.0073
1560.00,0.0073
1559.00,0.0074
1558.00,0.0075
1557.00,0.0076
1556.00,0.0078
1555.00,0.0079
1554.00,0.0079
1553.00,0.0080
1552.00,0.0081
1551.00,0.0082
1550.00,0.0083
1549.00,0.0085
1548.00,0.0087
1547.00,0.0088
1546.00,0.0090
1545.00,0.0093
1544.00,0.0096
1543.00,0.0099
1542.00,0.0100
1541.00,0.0100
1540.00,0.0099
1539.00,0.0099
1538.00,0.0098
1537.00,0.0098
1536.00,0.0097
1535.00,0.0095
1534.00,0.0092
1533.00,0.0090
1532.00,0.0088
1531.00,0.0086
1530.00,0.0084
1529.00,0.0082
1528.00,0.0080
1527.00,0.0078
1526.00,0.0076
1525.00,0.0075
1524.00,0.0075
1523.00,0.0074
1522.00,0.0073
1521.00,0.0073
1520.00,0.0073
1519.00,0.0073
1518.00,0.0072
1517.00,0.0072
1516.00,0.0073
1515.00,0.0073
1514.00,0.0073
1513.00,0.0073
1512.00,0.0074
1511.00,0.0074
1510.00,0.0074
1509.00,0.0075
1508.00,0.0076
1507.00,0.0076
1506.00,0.0076
1505.00,0.0077
1504.00,0.0079
1503.00,0.0080
1502.00,0.0082
1501.00,0.0084
1500.00,0.0087
1499.00,0.0090
1498.00,0.0093
1497.00,0.0098
1496.00,0.0103
1495.00,0.0107
1494.00,0.0110
1493.00,0.0113
1492.00,0.0116
1491.00,0.0118
1490.00,0.0120
1489.00,0.0123
1488.00,0.0128
1487.00,0.0132
1486.00,0.0137
1485.00,0.0143
1484.00,0.0150
1483.00,0.0157
1482.00,0.0165
1481.00,0.0176
1480.00,0.0188
1479.00,0.0199
1478.00,0.0214
1477.00,0.0233
1476.00,0.0255
1475.00,0.0281
1474.00,0.0317
1473.00,0.0371
1472.00,0.0437
1471.00,0.0502
1470.00,0.0565
1469.00,0.0631
1468.00,0.0702
1467.00,0.0781
1466.00,0.0872
1465.00,0.0971
1464.00,0.1059
1463.00,0.1122
1462.00,0.1164
1461.00,0.1196
1460.00,0.1219
1459.00,0.1235
1458.00,0.1247
1457.00,0.1257
1456.00,0.1261
1455.00,0.1258
1454.00,0.1252
1453.00,0.1240
1452.00,0.1218
1451.00,0.1182
1450.00,0.1130
1449.00,0.1056
1448.00,0.0959
1447.00,0.0857
1446.00,0.0764
1445.00,0.0686
1444.00,0.0619
1443.00,0.0564
1442.00,0.0524
1441.00,0.0497
1440.00,0.0481
1439.00,0.0475
1438.00,0.0478
1437.00,0.0481
1436.00,0.0472
1435.00,0.0446
1434.00,0.0407
1433.00,0.0359
1432.00,0.0309
1431.00,0.0266
1430.00,0.0233
1429.00,0.0209
1428.00,0.0193
1427.00,0.0184
1426.00,0.0178
1425.00,0.0172
1424.00,0.0167
1423.00,0.0164
1422.00,0.0163
1421.00,0.0162
1420.00,0.0159
1419.00,0.0156
1418.00,0.0155
1417.00,0.0152
1416.00,0.0149
1415.00,0.0147
1414.00,0.0145
1413.00,0.0143
1412.00,0.0141
1411.00,0.0140
1410.00,0.0139
1409.00,0.0138
1408.00,0.0137
1407.00,0.0136
1406.00,0.0137
1405.00,0.0137
1404.00,0.0136
1403.00,0.0137
1402.00,0.0138
1401.00,0.0139
1400.00,0.0140
1399.00,0.0142
1398.00,0.0144
1397.00,0.0146
1396.00,0.0147
1395.00,0.0151
1394.00,0.0156
1393.00,0.0162
1392.00,0.0168
1391.00,0.0176
1390.00,0.0189
1389.00,0.0206
1388.00,0.0231
1387.00,0.0270
1386.00,0.0321
1385.00,0.0384
1384.00,0.0466
1383.00,0.0576
1382.00,0.0721
1381.00,0.0908
1380.00,0.1147
1379.00,0.1429
1378.00,0.1718
1377.00,0.1952
1376.00,0.2063
1375.00,0.1999
1374.00,0.1774
1373.00,0.1478
1372.00,0.1196
1371.00,0.0959
1370.00,0.0768
1369.00,0.0622
1368.00,0.0521
1367.00,0.0459
1366.00,0.0425
1365.00,0.0412
1364.00,0.0415
1363.00,0.0430
1362.00,0.0455
1361.00,0.0482
1360.00,0.0502
1359.00,0.0509
1358.00,0.0497
1357.00,0.0467
1356.00,0.0424
1355.00,0.0376
1354.00,0.0329
1353.00,0.0290
1352.00,0.0258
1351.00,0.0234
1350.00,0.0214
1349.00,0.0198
1348.00,0.0185
1347.00,0.0174
1346.00,0.0165
1345.00,0.0159
1344.00,0.0154
1343.00,0.0150
1342.00,0.0147
1341.00,0.0143
1340.00,0.0140
1339.00,0.0138
1338.00,0.0137
1337.00,0.0136
1336.00,0.0137
1335.00,0.0139
1334.00,0.0142
1333.00,0.0146
1332.00,0.0151
1331.00,0.0155
1330.00,0.0156
1329.00,0.0155
1328.00,0.0150
1327.00,0.0144
1326.00,0.0138
1325.00,0.0131
1324.00,0.0124
1323.00,0.0119
1322.00,0.0114
1321.00,0.0111
1320.00,0.0109
1319.00,0.0106
1318.00,0.0104
1317.00,0.0102
1316.00,0.0100
1315.00,0.0099
1314.00,0.0099
1313.00,0.0099
1312.00,0.0100
1311.00,0.0103
1310.00,0.0107
1309.00,0.0113
1308.00,0.0122
1307.00,0.0133
1306.00,0.0144
1305.00,0.0151
1304.00,0.0154
1303.00,0.0153
1302.00,0.0149
1301.00,0.0146
1300.00,0.0144
1299.00,0.0144
1298.00,0.0144
1297.00,0.0145
1296.00,0.0144
1295.00,0.0142
1294.00,0.0138
1293.00,0.0133
1292.00,0.0127
1291.00,0.0122
1290.00,0.0117
1289.00,0.0113
1288.00,0.0109
1287.00,0.0106
1286.00,0.0104
1285.00,0.0101
1284.00,0.0099
1283.00,0.0097
1282.00,0.0096
1281.00,0.0096
1280.00,0.0095
1279.00,0.0094
1278.00,0.0093
1277.00,0.0093
1276.00,0.0092
1275.00,0.0092
1274.00,0.0093
1273.00,0.0093
1272.00,0.0094
1271.00,0.0095
1270.00,0.0096
1269.00,0.0097
1268.00,0.0099
1267.00,0.0101
1266.00,0.0103
1265.00,0.0106
1264.00,0.0109
1263.00,0.0112
1262.00,0.0116
1261.00,0.0120
1260.00,0.0125
1259.00,0.0131
1258.00,0.0138
1257.00,0.0145
1256.00,0.0148
1255.00,0.0146
1254.00,0.0141
1253.00,0.0133
1252.00,0.0126
1251.00,0.0120
1250.00,0.0116
1249.00,0.0113
1248.00,0.0111
1247.00,0.0110
1246.00,0.0108
1245.00,0.0107
1244.00,0.0106
1243.00,0.0106
1242.00,0.0105
1241.00,0.0104
1240.00,0.0103
1239.00,0.0102
1238.00,0.0102
1237.00,0.0101
1236.00,0.0100
1235.00,0.0099
1234.00,0.0099
1233.00,0.0099
1232.00,0.0099
1231.00,0.0099
1230.00,0.0099
1229.00,0.0099
1228.00,0.0099
1227.00,0.0100
1226.00,0.0102
1225.00,0.0105
1224.00,0.0109
1223.00,0.0114
1222.00,0.0118
1221.00,0.0121
1220.00,0.0122
1219.00,0.0123
1218.00,0.0123
1217.00,0.0121
1216.00,0.0117
1215.00,0.0113
1214.00,0.0109
1213.00,0.0105
1212.00,0.0102
1211.00,0.0100
1210.00,0.0098
1209.00,0.0097
1208.00,0.0096
1207.00,0.0095
1206.00,0.0094
1205.00,0.0093
1204.00,0.0093
1203.00,0.0093
1202.00,0.0093
1201.00,0.0093
1200.00,0.0093
1199.00,0.0093
1198.00,0.0093
1197.00,0.0093
1196.00,0.0092
1195.00,0.0093
1194.00,0.0093
1193.00,0.0094
1192.00,0.0094
1191.00,0.0094
1190.00,0.0095
1189.00,0.0096
1188.00,0.0097
1187.00,0.0098
1186.00,0.0099
1185.00,0.0100
1184.00,0.0101
1183.00,0.0103
1182.00,0.0106
1181.00,0.0109
1180.00,0.0112
1179.00,0.0117
1178.00,0.0123
1177.00,0.0131
1176.00,0.0142
1175.00,0.0158
1174.00,0.0177
1173.00,0.0202
1172.00,0.0231
1171.00,0.0263
1170.00,0.0294
1169.00,0.0319
1168.00,0.0335
1167.00,0.0339
1166.00,0.0333
1165.00,0.0320
1164.00,0.0303
1163.00,0.0285
1162.00,0.0270
1161.00,0.0257
1160.00,0.0248
1159.00,0.0240
1158.00,0.0234
1157.00,0.0230
1156.00,0.0227
1155.00,0.0224
1154.00,0.0222
1153.00,0.0220
1152.00,0.0216
1151.00,0.0209
1150.00,0.0201
1149.00,0.0192
1148.00,0.0182
1147.00,0.0172
1146.00,0.0164
1145.00,0.0156
1144.00,0.0149
1143.00,0.0142
1142.00,0.0136
1141.00,0.0130
1140.00,0.0126
1139.00,0.0121
1138.00,0.0116
1137.00,0.0112
1136.00,0.0108
1135.00,0.0105
1134.00,0.0103
1133.00,0.0101
1132.00,0.0100
1131.00,0.0100
1130.00,0.0100
1129.00,0.0101
1128.00,0.0101
1127.00,0.0102
1126.00,0.0102
1125.00,0.0103
1124.00,0.0105
1123.00,0.0106
1122.00,0.0106
1121.00,0.0107
1120.00,0.0107
1119.00,0.0109
1118.00,0.0111
1117.00,0.0112
1116.00,0.0114
1115.00,0.0115
1114.00,0.0116
1113.00,0.0117
1112.00,0.0118
1111.00,0.0121
1110.00,0.0125
1109.00,0.0129
1108.00,0.0134
1107.00,0.0142
1106.00,0.0150
1105.00,0.0159
1104.00,0.0166
1103.00,0.0171
1102.00,0.0172
1101.00,0.0169
1100.00,0.0163
1099.00,0.0156
1098.00,0.0148
1097.00,0.0142
1096.00,0.0137
1095.00,0.0132
1094.00,0.0127
1093.00,0.0123
1092.00,0.0120
1091.00,0.0118
1090.00,0.0118
1089.00,0.0117
1088.00,0.0115
1087.00,0.0113
1086.00,0.0111
1085.00,0.0111
1084.00,0.0110
1083.00,0.0110
1082.00,0.0109
1081.00,0.0107
1080.00,0.0104
1079.00,0.0102
1078.00,0.0100
1077.00,0.0099
1076.00,0.0098
1075.00,0.0098
1074.00,0.0098
1073.00,0.0098
1072.00,0.0098
1071.00,0.0099
1070.00,0.0099
1069.00,0.0098
1068.00,0.0098
1067.00,0.0098
1066.00,0.0098
1065.00,0.0098
1064.00,0.0098
1063.00,0.0097
1062.00,0.0097
1061.00,0.0097
1060.00,0.0096
1059.00,0.0096
1058.00,0.0096
1057.00,0.0096
1056.00,0.0096
1055.00,0.0097
1054.00,0.0098
1053.00,0.0098
1052.00,0.0099
1051.00,0.0101
1050.00,0.0104
1049.00,0.0107
1048.00,0.0110
1047.00,0.0113
1046.00,0.0114
1045.00,0.0115
1044.00,0.0114
1043.00,0.0113
1042.00,0.0111
1041.00,0.0109
1040.00,0.0108
1039.00,0.0107
1038.00,0.0107
1037.00,0.0108
1036.00,0.0108
1035.00,0.0108
1034.00,0.0107
1033.00,0.0105
1032.00,0.0104
1031.00,0.0104
1030.00,0.0105
1029.00,0.0105
1028.00,0.0105
1027.00,0.0104
1026.00,0.0102
1025.00,0.0101
1024.00,0.0101
1023.00,0.0102
1022.00,0.0103
1021.00,0.0104
1020.00,0.0104
1019.00,0.0104
1018.00,0.0104
1017.00,0.0105
1016.00,0.0107
1015.00,0.0110
1014.00,0.0114
1013.00,0.0116
1012.00,0.0119
1011.00,0.0121
1010.00,0.0124
1009.00,0.0127
1008.00,0.0131
1007.00,0.0138
1006.00,0.0146
1005.00,0.0157
1004.00,0.0171
1003.00,0.0192
1002.00,0.0219
1001.00,0.0253
1000.00,0.0288
999.00,0.0317
998.00,0.0330
997.00,0.0324
996.00,0.0298
995.00,0.0262
994.00,0.0224
993.00,0.0191
992.00,0.0165
991.00,0.0146
990.00,0.0132
989.00,0.0123
988.00,0.0117
987.00,0.0114
986.00,0.0113
985.00,0.0115
984.00,0.0120
983.00,0.0128
982.00,0.0140
981.00,0.0155
980.00,0.0176
979.00,0.0203
978.00,0.0236
977.00,0.0276
976.00,0.0319
975.00,0.0360
974.00,0.0391
973.00,0.0403
972.00,0.0392
971.00,0.0359
970.00,0.0312
969.00,0.0262
968.00,0.0219
967.00,0.0186
966.00,0.0161
965.00,0.0144
964.00,0.0132
963.00,0.0122
962.00,0.0115
961.00,0.0109
960.00,0.0104
959.00,0.0099
958.00,0.0095
957.00,0.0092
956.00,0.0089
955.00,0.0087
954.00,0.0086
953.00,0.0086
952.00,0.0086
951.00,0.0085
950.00,0.0084
949.00,0.0083
948.00,0.0084
947.00,0.0085
946.00,0.0087
945.00,0.0089
944.00,0.0092
943.00,0.0096
942.00,0.0100
941.00,0.0102
940.00,0.0101
939.00,0.0099
938.00,0.0095
937.00,0.0089
936.00,0.0083
935.00,0.0079
934.00,0.0076
933.00,0.0073
932.00,0.0072
931.00,0.0071
930.00,0.0070
929.00,0.0068
928.00,0.0067
927.00,0.0066
926.00,0.0066
925.00,0.0066
924.00,0.0067
923.00,0.0069
922.00,0.0070
921.00,0.0071
920.00,0.0072
919.00,0.0073
918.00,0.0073
917.00,0.0073
916.00,0.0073
915.00,0.0074
914.00,0.0075
913.00,0.0076
912.00,0.0077
911.00,0.0078
910.00,0.0079
909.00,0.0082
908.00,0.0085
907.00,0.0089
906.00,0.0096
905.00,0.0107
904.00,0.0123
903.00,0.0143
902.00,0.0166
901.00,0.0187
900.00,0.0202
899.00,0.0205
898.00,0.0198
897.00,0.0181
896.00,0.0160
895.00,0.0139
894.00,0.0121
893.00,0.0107
892.00,0.0097
891.00,0.0091
890.00,0.0087
889.00,0.0085
888.00,0.0083
887.00,0.0081
886.00,0.0079
885.00,0.0079
884.00,0.0078
883.00,0.0077
882.00,0.0076
881.00,0.0076
880.00,0.0077
879.00,0.0078
878.00,0.0080
877.00,0.0081
876.00,0.0081
875.00,0.0082
874.00,0.0082
873.00,0.0082
872.00,0.0082
871.00,0.0080
870.00,0.0079
869.00,0.0078
868.00,0.0078
867.00,0.0079
866.00,0.0079
865.00,0.0079
864.00,0.0079
863.00,0.0080
862.00,0.0080
861.00,0.0081
860.00,0.0084
859.00,0.0086
858.00,0.0088
857.00,0.0089
856.00,0.0090
855.00,0.0092
854.00,0.0093
853.00,0.0095
852.00,0.0097
851.00,0.0101
850.00,0.0107
849.00,0.0114
848.00,0.0123
847.00,0.0136
846.00,0.0156
845.00,0.0186
844.00,0.0226
843.00,0.0271
842.00,0.0305
841.00,0.0315
840.00,0.0296
839.00,0.0257
838.00,0.0215
837.00,0.0181
836.00,0.0158
835.00,0.0145
834.00,0.0136
833.00,0.0131
832.00,0.0127
831.00,0.0124
830.00,0.0121
829.00,0.0118
828.00,0.0115
827.00,0.0114
826.00,0.0114
825.00,0.0114
824.00,0.0113
823.00,0.0112
822.00,0.0112
821.00,0.0113
820.00,0.0115
819.00,0.0118
818.00,0.0123
817.00,0.0129
816.00,0.0137
815.00,0.0149
814.00,0.0164
813.00,0.0183
812.00,0.0203
811.00,0.0221
810.00,0.0233
809.00,0.0237
808.00,0.0234
807.00,0.0225
806.00,0.0210
805.00,0.0193
804.00,0.0176
803.00,0.0160
802.00,0.0145
801.00,0.0133
800.00,0.0124
799.00,0.0119
798.00,0.0115
797.00,0.0112
796.00,0.0109
795.00,0.0105
794.00,0.0102
793.00,0.0099
792.00,0.0096
791.00,0.0094
790.00,0.0091
789.00,0.0089
788.00,0.0086
787.00,0.0083
786.00,0.0081
785.00,0.0079
784.00,0.0076
783.00,0.0074
782.00,0.0072
781.00,0.0071
780.00,0.0070
779.00,0.0069
778.00,0.0069
777.00,0.0070
776.00,0.0071
775.00,0.0072
774.00,0.0073
773.00,0.0074
772.00,0.0077
771.00,0.0080
770.00,0.0083
769.00,0.0087
768.00,0.0089
767.00,0.0090
766.00,0.0089
765.00,0.0087
764.00,0.0084
763.00,0.0081
762.00,0.0077
761.00,0.0073
760.00,0.0069
759.00,0.0067
758.00,0.0065
757.00,0.0064
756.00,0.0064
755.00,0.0063
754.00,0.0063
753.00,0.0063
752.00,0.0063
751.00,0.0063
750.00,0.0063
749.00,0.0063
748.00,0.0064
747.00,0.0066
746.00,0.0068
745.00,0.0068
744.00,0.0068
743.00,0.0066
742.00,0.0065
741.00,0.0066
740.00,0.0068
739.00,0.0072
738.00,0.0075
737.00,0.0078
736.00,0.0079
735.00,0.0081
734.00,0.0082
733.00,0.0083
732.00,0.0085
731.00,0.0085
730.00,0.0084
729.00,0.0082
728.00,0.0080
727.00,0.0080
726.00,0.0081
725.00,0.0082
724.00,0.0083
723.00,0.0083
722.00,0.0083
721.00,0.0081
720.00,0.0079
719.00,0.0077
718.00,0.0076
717.00,0.0075
716.00,0.0074
715.00,0.0074
714.00,0.0073
713.00,0.0073
712.00,0.0072
711.00,0.0071
710.00,0.0071
709.00,0.0072
708.00,0.0074
707.00,0.0075
706.00,0.0074
705.00,0.0073
704.00,0.0071
703.00,0.0069
702.00,0.0067
701.00,0.0064
700.00,0.0062
699.00,0.0062
698.00,0.0063
697.00,0.0064
696.00,0.0064
695.00,0.0064
694.00,0.0064
693.00,0.0064
692.00,0.0063
691.00,0.0061
690.00,0.0060
689.00,0.0060
688.00,0.0061
687.00,0.0062
686.00,0.0063
685.00,0.0063
684.00,0.0062
683.00,0.0062
682.00,0.0063
681.00,0.0064
680.00,0.0064
679.00,0.0064
678.00,0.0064
677.00,0.0064
676.00,0.0064
675.00,0.0064
674.00,0.0065
673.00,0.0065
672.00,0.0064
671.00,0.0065
670.00,0.0066
669.00,0.0068
668.00,0.0069
667.00,0.0069
666.00,0.0066
665.00,0.0063
664.00,0.0062
663.00,0.0063
662.00,0.0064
661.00,0.0065
660.00,0.0063
659.00,0.0063
658.00,0.0063
657.00,0.0066
656.00,0.0068
655.00,0.0069
654.00,0.0068
653.00,0.0065
652.00,0.0062
651.00,0.0060
650.00,0.0060
649.00,0.0060
648.00,0.0061
647.00,0.0063
646.00,0.0063
645.00,0.0063
644.00,0.0063
643.00,0.0064
642.00,0.0065
641.00,0.0066
640.00,0.0065
639.00,0.0065
638.00,0.0065
637.00,0.0066
636.00,0.0066
635.00,0.0065
634.00,0.0063
633.00,0.0062
632.00,0.0061
631.00,0.0061
630.00,0.0063
629.00,0.0064
628.00,0.0065
627.00,0.0066
626.00,0.0066
625.00,0.0066
624.00,0.0065
623.00,0.0063
622.00,0.0061
621.00,0.0062
620.00,0.0063
619.00,0.0065
618.00,0.0066
617.00,0.0066
616.00,0.0064
615.00,0.0063
614.00,0.0063
613.00,0.0063
612.00,0.0064
611.00,0.0065
610.00,0.0065
609.00,0.0063
608.00,0.0060
607.00,0.0059
606.00,0.0059
605.00,0.0060
604.00,0.0061
603.00,0.0063
602.00,0.0065
601.00,0.0066
600.00,0.0065
599.00,0.0063
598.00,0.0060
597.00,0.0059
596.00,0.0059
595.00,0.0060
594.00,0.0063
593.00,0.0066
592.00,0.0067
591.00,0.0066
590.00,0.0065
589.00,0.0065
588.00,0.0066
587.00,0.0068
586.00,0.0068
585.00,0.0069
584.00,0.0069
583.00,0.0071
582.00,0.0072
581.00,0.0070
580.00,0.0067
579.00,0.0065
578.00,0.0066
577.00,0.0069
576.00,0.0072
575.00,0.0075
574.00,0.0076
573.00,0.0076
572.00,0.0075
571.00,0.0074
570.00,0.0074
569.00,0.0076
568.00,0.0078
567.00,0.0080
566.00,0.0079
565.00,0.0076
564.00,0.0071
563.00,0.0067
562.00,0.0067
561.00,0.0070
560.00,0.0074
559.00,0.0076
558.00,0.0075
557.00,0.0074
556.00,0.0072
555.00,0.0070
554.00,0.0066
553.00,0.0062
552.00,0.0059
551.00,0.0060
550.00,0.0064
549.00,0.0066
548.00,0.0067
547.00,0.0066
546.00,0.0067
545.00,0.0069
544.00,0.0073
543.00,0.0075
542.00,0.0077
541.00,0.0077
540.00,0.0078
539.00,0.0080
538.00,0.0084
537.00,0.0087
536.00,0.0089
535.00,0.0090
534.00,0.0090
533.00,0.0089
532.00,0.0087
531.00,0.0085
530.00,0.0085
529.00,0.0088
528.00,0.0094
527.00,0.0100
526.00,0.0103
525.00,0.0101
524.00,0.0097
523.00,0.0093
522.00,0.0090
521.00,0.0087
520.00,0.0082
519.00,0.0078
518.00,0.0076
517.00,0.0075
516.00,0.0074
515.00,0.0075
514.00,0.0073
513.00,0.0069
512.00,0.0063
511.00,0.0061
510.00,0.0066
509.00,0.0074
508.00,0.0081
507.00,0.0086
506.00,0.0087
505.00,0.0085
504.00,0.0078
503.00,0.0071
502.00,0.0065
501.00,0.0061
500.00,0.0058
499.00,0.0054
498.00,0.0052
497.00,0.0052
496.00,0.0054
495.00,0.0053
494.00,0.0049
493.00,0.0045
492.00,0.0046
491.00,0.0052
490.00,0.0061
489.00,0.0070
488.00,0.0074
487.00,0.0074
486.00,0.0072
485.00,0.0074
484.00,0.0082
483.00,0.0091
482.00,0.0094
481.00,0.0088
480.00,0.0078
479.00,0.0073
478.00,0.0073
477.00,0.0074
476.00,0.0074
475.00,0.0073
474.00,0.0077
473.00,0.0084
472.00,0.0092
471.00,0.0097
470.00,0.0098
469.00,0.0097
468.00,0.0097
467.00,0.0100
466.00,0.0106
465.00,0.0116
464.00,0.0129
463.00,0.0143
462.00,0.0155
461.00,0.0161
460.00,0.0162
459.00,0.0157
458.00,0.0150
457.00,0.0147
456.00,0.0151
455.00,0.0158
454.00,0.0158
453.00,0.0145
452.00,0.0123
451.00,0.0102
450.00,0.0091
