Created as New Dataset,Sample 019 By Administrator Date Wednesday, September 10 2025
cm-1,A
4000.00,0.0009
3999.00,0.0010
3998.00,0.0010
3997.00,0.0010
3996.00,0.0010
3995.00,0.0010
3994.00,0.0010
3993.00,0.0010
3992.00,0.0010
3991.00,0.0010
3990.00,0.0009
3989.00,0.0009
3988.00,0.0009
3987.00,0.0009
3986.00,0.0009
3985.00,0.0008
3984.00,0.0008
3983.00,0.0008
3982.00,0.0008
3981.00,0.0008
3980.00,0.0008
3979.00,0.0008
3978.00,0.0008
3977.00,0.0008
3976.00,0.0008
3975.00,0.0008
3974.00,0.0008
3973.00,0.0008
3972.00,0.0008
3971.00,0.0008
3970.00,0.0008
3969.00,0.0008
3968.00,0.0008
3967.00,0.0007
3966.00,0.0007
3965.00,0.0007
3964.00,0.0007
3963.00,0.0007
3962.00,0.0007
3961.00,0.0007
3960.00,0.0007
3959.00,0.0007
3958.00,0.0007
3957.00,0.0007
3956.00,0.0007
3955.00,0.0007
3954.00,0.0007
3953.00,0.0007
3952.00,0.0007
3951.00,0.0006
3950.00,0.0006
3949.00,0.0006
3948.00,0.0006
3947.00,0.0006
3946.00,0.0006
3945.00,0.0006
3944.00,0.0007
3943.00,0.0007
3942.00,0.0007
3941.00,0.0007
3940.00,0.0007
3939.00,0.0007
3938.00,0.0008
3937.00,0.0008
3936.00,0.0008
3935.00,0.0008
3934.00,0.0007
3933.00,0.0007
3932.00,0.0007
3931.00,0.0007
3930.00,0.0007
3929.00,0.0007
3928.00,0.0007
3927.00,0.0007
3926.00,0.0007
3925.00,0.0007
3924.00,0.0008
3923.00,0.0008
3922.00,0.0007
3921.00,0.0007
3920.00,0.0007
3919.00,0.0006
3918.00,0.0006
3917.00,0.0006
3916.00,0.0007
3915.00,0.0007
3914.00,0.0007
3913.00,0.0007
3912.00,0.0008
3911.00,0.0008
3910.00,0.0007
3909.00,0.0007
3908.00,0.0007
3907.00,0.0006
3906.00,0.0006
3905.00,0.0005
3904.00,0.0005
3903.00,0.0005
3902.00,0.0005
3901.00,0.0005
3900.00,0.0005
3899.00,0.0006
3898.00,0.0006
3897.00,0.0007
3896.00,0.0007
3895.00,0.0008
3894.00,0.0008
3893.00,0.0008
3892.00,0.0008
3891.00,0.0007
3890.00,0.0007
3889.00,0.0007
3888.00,0.0006
3887.00,0.0006
3886.00,0.0006
3885.00,0.0007
3884.00,0.0007
3883.00,0.0007
3882.00,0.0007
3881.00,0.0007
3880.00,0.0007
3879.00,0.0007
3878.00,0.0007
3877.00,0.0007
3876.00,0.0007
3875.00,0.0007
3874.00,0.0008
3873.00,0.0007
3872.00,0.0007
3871.00,0.0006
3870.00,0.0005
3869.00,0.0005
3868.00,0.0005
3867.00,0.0005
3866.00,0.0005
3865.00,0.0006
3864.00,0.0006
3863.00,0.0007
3862.00,0.0007
3861.00,0.0006
3860.00,0.0006
3859.00,0.0006
3858.00,0.0006
3857.00,0.0006
3856.00,0.0006
3855.00,0.0005
3854.00,0.0005
3853.00,0.0004
3852.00,0.0005
3851.00,0.0005
3850.00,0.0005
3849.00,0.0005
3848.00,0.0006
3847.00,0.0006
3846.00,0.0006
3845.00,0.0006
3844.00,0.0006
3843.00,0.0006
3842.00,0.0006
3841.00,0.0006
3840.00,0.0006
3839.00,0.0006
3838.00,0.0006
3837.00,0.0006
3836.00,0.0006
3835.00,0.0005
3834.00,0.0005
3833.00,0.0006
3832.00,0.0006
3831.00,0.0006
3830.00,0.0006
3829.00,0.0006
3828.00,0.0006
3827.00,0.0007
3826.00,0.0007
3825.00,0.0007
3824.00,0.0007
3823.00,0.0007
3822.00,0.0007
3821.00,0.0008
3820.00,0.0008
3819.00,0.0008
3818.00,0.0007
3817.00,0.0007
3816.00,0.0007
3815.00,0.0006
3814.00,0.0006
3813.00,0.0006
3812.00,0.0006
3811.00,0.0006
3810.00,0.0007
3809.00,0.0007
3808.00,0.0007
3807.00,0.0007
3806.00,0.0007
3805.00,0.0007
3804.00,0.0007
3803.00,0.0007
3802.00,0.0007
3801.00,0.0007
3800.00,0.0007
3799.00,0.0007
3798.00,0.0007
3797.00,0.0007
3796.00,0.0007
3795.00,0.0007
3794.00,0.0007
3793.00,0.0007
3792.00,0.0007
3791.00,0.0007
3790.00,0.0006
3789.00,0.0006
3788.00,0.0006
3787.00,0.0006
3786.00,0.0007
3785.00,0.0007
3784.00,0.0007
3783.00,0.0008
3782.00,0.0008
3781.00,0.0008
3780.00,0.0007
3779.00,0.0007
3778.00,0.0007
3777.00,0.0006
3776.00,0.0006
3775.00,0.0006
3774.00,0.0007
3773.00,0.0007
3772.00,0.0007
3771.00,0.0007
3770.00,0.0006
3769.00,0.0006
3768.00,0.0006
3767.00,0.0006
3766.00,0.0006
3765.00,0.0007
3764.00,0.0007
3763.00,0.0007
3762.00,0.0007
3761.00,0.0007
3760.00,0.0008
3759.00,0.0008
3758.00,0.0008
3757.00,0.0007
3756.00,0.0007
3755.00,0.0006
3754.00,0.0006
3753.00,0.0006
3752.00,0.0005
3751.00,0.0005
3750.00,0.0004
3749.00,0.0004
3748.00,0.0004
3747.00,0.0005
3746.00,0.0005
3745.00,0.0005
3744.00,0.0005
3743.00,0.0005
3742.00,0.0005
3741.00,0.0005
3740.00,0.0004
3739.00,0.0004
3738.00,0.0004
3737.00,0.0005
3736.00,0.0005
3735.00,0.0006
3734.00,0.0006
3733.00,0.0006
3732.00,0.0005
3731.00,0.0005
3730.00,0.0005
3729.00,0.0005
3728.00,0.0004
3727.00,0.0004
3726.00,0.0003
3725.00,0.0003
3724.00,0.0003
3723.00,0.0003
3722.00,0.0004
3721.00,0.0004
3720.00,0.0005
3719.00,0.0005
3718.00,0.0006
3717.00,0.0006
3716.00,0.0006
3715.00,0.0006
3714.00,0.0006
3713.00,0.0006
3712.00,0.0006
3711.00,0.0006
3710.00,0.0006
3709.00,0.0006
3708.00,0.0006
3707.00,0.0006
3706.00,0.0006
3705.00,0.0006
3704.00,0.0005
3703.00,0.0005
3702.00,0.0006
3701.00,0.0006
3700.00,0.0006
3699.00,0.0006
3698.00,0.0006
3697.00,0.0006
3696.00,0.0006
3695.00,0.0006
3694.00,0.0006
3693.00,0.0006
3692.00,0.0006
3691.00,0.0006
3690.00,0.0005
3689.00,0.0005
3688.00,0.0005
3687.00,0.0005
3686.00,0.0005
3685.00,0.0006
3684.00,0.0006
3683.00,0.0006
3682.00,0.0006
3681.00,0.0006
3680.00,0.0007
3679.00,0.0006
3678.00,0.0006
3677.00,0.0006
3676.00,0.0006
3675.00,0.0006
3674.00,0.0006
3673.00,0.0005
3672.00,0.0005
3671.00,0.0005
3670.00,0.0005
3669.00,0.0006
3668.00,0.0006
3667.00,0.0006
3666.00,0.0006
3665.00,0.0006
3664.00,0.0006
3663.00,0.0006
3662.00,0.0007
3661.00,0.0007
3660.00,0.0007
3659.00,0.0007
3658.00,0.0007
3657.00,0.0007
3656.00,0.0008
3655.00,0.0008
3654.00,0.0008
3653.00,0.0008
3652.00,0.0007
3651.00,0.0007
3650.00,0.0008
3649.00,0.0008
3648.00,0.0009
3647.00,0.0009
3646.00,0.0009
3645.00,0.0009
3644.00,0.0009
3643.00,0.0009
3642.00,0.0010
3641.00,0.0010
3640.00,0.0011
3639.00,0.0012
3638.00,0.0012
3637.00,0.0012
3636.00,0.0012
3635.00,0.0012
3634.00,0.0012
3633.00,0.0012
3632.00,0.0012
3631.00,0.0011
3630.00,0.0011
3629.00,0.0011
3628.00,0.0012
3627.00,0.0013
3626.00,0.0013
3625.00,0.0014
3624.00,0.0014
3623.00,0.0015
3622.00,0.0015
3621.00,0.0015
3620.00,0.0015
3619.00,0.0015
3618.00,0.0016
3617.00,0.0016
3616.00,0.0016
3615.00,0.0016
3614.00,0.0017
3613.00,0.0017
3612.00,0.0018
3611.00,0.0018
3610.00,0.0018
3609.00,0.0018
3608.00,0.0019
3607.00,0.0019
3606.00,0.0019
3605.00,0.0020
3604.00,0.0020
3603.00,0.0021
3602.00,0.0021
3601.00,0.0022
3600.00,0.0022
3599.00,0.0022
3598.00,0.0022
3597.00,0.0022
3596.00,0.0023
3595.00,0.0024
3594.00,0.0024
3593.00,0.0025
3592.00,0.0025
3591.00,0.0025
3590.00,0.0025
3589.00,0.0025
3588.00,0.0026
3587.00,0.0027
3586.00,0.0028
3585.00,0.0028
3584.00,0.0028
3583.00,0.0029
3582.00,0.0029
3581.00,0.0029
3580.00,0.0030
3579.00,0.0030
3578.00,0.0031
3577.00,0.0031
3576.00,0.0032
3575.00,0.0033
3574.00,0.0033
3573.00,0.0034
3572.00,0.0034
3571.00,0.0034
3570.00,0.0033
3569.00,0.0033
3568.00,0.0034
3567.00,0.0035
3566.00,0.0036
3565.00,0.0038
3564.00,0.0038
3563.00,0.0039
3562.00,0.0039
3561.00,0.0040
3560.00,0.0040
3559.00,0.0041
3558.00,0.0041
3557.00,0.0042
3556.00,0.0043
3555.00,0.0043
3554.00,0.0044
3553.00,0.0044
3552.00,0.0045
3551.00,0.0045
3550.00,0.0046
3549.00,0.0046
3548.00,0.0047
3547.00,0.0047
3546.00,0.0048
3545.00,0.0048
3544.00,0.0049
3543.00,0.0050
3542.00,0.0051
3541.00,0.0051
3540.00,0.0052
3539.00,0.0052
3538.00,0.0053
3537.00,0.0053
3536.00,0.0054
3535.00,0.0055
3534.00,0.0055
3533.00,0.0055
3532.00,0.0055
3531.00,0.0056
3530.00,0.0056
3529.00,0.0057
3528.00,0.0058
3527.00,0.0059
3526.00,0.0059
3525.00,0.0060
3524.00,0.0061
3523.00,0.0061
3522.00,0.0061
3521.00,0.0062
3520.00,0.0062
3519.00,0.0063
3518.00,0.0064
3517.00,0.0064
3516.00,0.0065
3515.00,0.0066
3514.00,0.0066
3513.00,0.0067
3512.00,0.0068
3511.00,0.0068
3510.00,0.0069
3509.00,0.0070
3508.00,0.0070
3507.00,0.0071
3506.00,0.0072
3505.00,0.0072
3504.00,0.0073
3503.00,0.0073
3502.00,0.0074
3501.00,0.0074
3500.00,0.0074
3499.00,0.0075
3498.00,0.0076
3497.00,0.0076
3496.00,0.0077
3495.00,0.0078
3494.00,0.0079
3493.00,0.0079
3492.00,0.0080
3491.00,0.0080
3490.00,0.0081
3489.00,0.0082
3488.00,0.0083
3487.00,0.0083
3486.00,0.0084
3485.00,0.0084
3484.00,0.0085
3483.00,0.0086
3482.00,0.0086
3481.00,0.0087
3480.00,0.0087
3479.00,0.0088
3478.00,0.0088
3477.00,0.0089
3476.00,0.0090
3475.00,0.0091
3474.00,0.0091
3473.00,0.0092
3472.00,0.0092
3471.00,0.0093
3470.00,0.0093
3469.00,0.0094
3468.00,0.0095
3467.00,0.0095
3466.00,0.0095
3465.00,0.0095
3464.00,0.0095
3463.00,0.0095
3462.00,0.0096
3461.00,0.0097
3460.00,0.0098
3459.00,0.0099
3458.00,0.0099
3457.00,0.0099
3456.00,0.0100
3455.00,0.0100
3454.00,0.0100
3453.00,0.0101
3452.00,0.0101
3451.00,0.0102
3450.00,0.0102
3449.00,0.0103
3448.00,0.0103
3447.00,0.0104
3446.00,0.0104
3445.00,0.0105
3444.00,0.0105
3443.00,0.0106
3442.00,0.0107
3441.00,0.0107
3440.00,0.0108
3439.00,0.0109
3438.00,0.0109
3437.00,0.0109
3436.00,0.0109
3435.00,0.0109
3434.00,0.0109
3433.00,0.0109
3432.00,0.0110
3431.00,0.0110
3430.00,0.0111
3429.00,0.0111
3428.00,0.0112
3427.00,0.0112
3426.00,0.0113
3425.00,0.0113
3424.00,0.0113
3423.00,0.0114
3422.00,0.0114
3421.00,0.0114
3420.00,0.0115
3419.00,0.0115
3418.00,0.0116
3417.00,0.0116
3416.00,0.0117
3415.00,0.0117
3414.00,0.0118
3413.00,0.0119
3412.00,0.0119
3411.00,0.0120
3410.00,0.0120
3409.00,0.0120
3408.00,0.0120
3407.00,0.0120
3406.00,0.0120
3405.00,0.0120
3404.00,0.0121
3403.00,0.0121
3402.00,0.0121
3401.00,0.0122
3400.00,0.0122
3399.00,0.0123
3398.00,0.0123
3397.00,0.0123
3396.00,0.0123
3395.00,0.0123
3394.00,0.0123
3393.00,0.0123
3392.00,0.0124
3391.00,0.0124
3390.00,0.0124
3389.00,0.0124
3388.00,0.0123
3387.00,0.0123
3386.00,0.0123
3385.00,0.0123
3384.00,0.0123
3383.00,0.0123
3382.00,0.0124
3381.00,0.0124
3380.00,0.0125
3379.00,0.0125
3378.00,0.0125
3377.00,0.0125
3376.00,0.0125
3375.00,0.0125
3374.00,0.0125
3373.00,0.0126
3372.00,0.0126
3371.00,0.0127
3370.00,0.0127
3369.00,0.0127
3368.00,0.0127
3367.00,0.0126
3366.00,0.0126
3365.00,0.0126
3364.00,0.0126
3363.00,0.0126
3362.00,0.0126
3361.00,0.0126
3360.00,0.0126
3359.00,0.0126
3358.00,0.0126
3357.00,0.0127
3356.00,0.0127
3355.00,0.0126
3354.00,0.0126
3353.00,0.0126
3352.00,0.0126
3351.00,0.0126
3350.00,0.0127
3349.00,0.0127
3348.00,0.0127
3347.00,0.0127
3346.00,0.0127
3345.00,0.0127
3344.00,0.0127
3343.00,0.0127
3342.00,0.0127
3341.00,0.0127
3340.00,0.0126
3339.00,0.0126
3338.00,0.0125
3337.00,0.0125
3336.00,0.0125
3335.00,0.0125
3334.00,0.0125
3333.00,0.0125
3332.00,0.0125
3331.00,0.0125
3330.00,0.0125
3329.00,0.0125
3328.00,0.0124
3327.00,0.0124
3326.00,0.0124
3325.00,0.0124
3324.00,0.0124
3323.00,0.0124
3322.00,0.0124
3321.00,0.0124
3320.00,0.0124
3319.00,0.0123
3318.00,0.0123
3317.00,0.0123
3316.00,0.0123
3315.00,0.0123
3314.00,0.0124
3313.00,0.0124
3312.00,0.0123
3311.00,0.0123
3310.00,0.0122
3309.00,0.0122
3308.00,0.0121
3307.00,0.0121
3306.00,0.0121
3305.00,0.0122
3304.00,0.0122
3303.00,0.0121
3302.00,0.0121
3301.00,0.0121
3300.00,0.0120
3299.00,0.0119
3298.00,0.0119
3297.00,0.0119
3296.00,0.0119
3295.00,0.0119
3294.00,0.0119
3293.00,0.0119
3292.00,0.0118
3291.00,0.0118
3290.00,0.0117
3289.00,0.0116
3288.00,0.0116
3287.00,0.0115
3286.00,0.0115
3285.00,0.0115
3284.00,0.0115
3283.00,0.0114
3282.00,0.0114
3281.00,0.0114
3280.00,0.0113
3279.00,0.0113
3278.00,0.0113
3277.00,0.0113
3276.00,0.0112
3275.00,0.0112
3274.00,0.0112
3273.00,0.0112
3272.00,0.0111
3271.00,0.0111
3270.00,0.0110
3269.00,0.0109
3268.00,0.0109
3267.00,0.0109
3266.00,0.0108
3265.00,0.0108
3264.00,0.0108
3263.00,0.0108
3262.00,0.0108
3261.00,0.0107
3260.00,0.0107
3259.00,0.0106
3258.00,0.0105
3257.00,0.0105
3256.00,0.0104
3255.00,0.0104
3254.00,0.0103
3253.00,0.0102
3252.00,0.0102
3251.00,0.0102
3250.00,0.0101
3249.00,0.0101
3248.00,0.0101
3247.00,0.0101
3246.00,0.0101
3245.00,0.0101
3244.00,0.0100
3243.00,0.0100
3242.00,0.0100
3241.00,0.0099
3240.00,0.0099
3239.00,0.0099
3238.00,0.0098
3237.00,0.0098
3236.00,0.0098
3235.00,0.0097
3234.00,0.0097
3233.00,0.0097
3232.00,0.0097
3231.00,0.0097
3230.00,0.0096
3229.00,0.0096
3228.00,0.0096
3227.00,0.0096
3226.00,0.0095
3225.00,0.0095
3224.00,0.0095
3223.00,0.0095
3222.00,0.0095
3221.00,0.0095
3220.00,0.0095
3219.00,0.0095
3218.00,0.0096
3217.00,0.0096
3216.00,0.0096
3215.00,0.0096
3214.00,0.0096
3213.00,0.0096
3212.00,0.0096
3211.00,0.0096
3210.00,0.0096
3209.00,0.0096
3208.00,0.0096
3207.00,0.0096
3206.00,0.0096
3205.00,0.0095
3204.00,0.0095
3203.00,0.0095
3202.00,0.0095
3201.00,0.0095
3200.00,0.0095
3199.00,0.0095
3198.00,0.0094
3197.00,0.0094
3196.00,0.0093
3195.00,0.0093
3194.00,0.0093
3193.00,0.0093
3192.00,0.0093
3191.00,0.0093
3190.00,0.0093
3189.00,0.0092
3188.00,0.0092
3187.00,0.0091
3186.00,0.0091
3185.00,0.0091
3184.00,0.0091
3183.00,0.0090
3182.00,0.0090
3181.00,0.0089
3180.00,0.0089
3179.00,0.0088
3178.00,0.0088
3177.00,0.0088
3176.00,0.0088
3175.00,0.0087
3174.00,0.0087
3173.00,0.0086
3172.00,0.0086
3171.00,0.0086
3170.00,0.0085
3169.00,0.0085
3168.00,0.0085
3167.00,0.0085
3166.00,0.0085
3165.00,0.0084
3164.00,0.0084
3163.00,0.0083
3162.00,0.0083
3161.00,0.0082
3160.00,0.0082
3159.00,0.0082
3158.00,0.0082
3157.00,0.0081
3156.00,0.0081
3155.00,0.0080
3154.00,0.0080
3153.00,0.0080
3152.00,0.0080
3151.00,0.0080
3150.00,0.0079
3149.00,0.0079
3148.00,0.0079
3147.00,0.0079
3146.00,0.0079
3145.00,0.0079
3144.00,0.0079
3143.00,0.0078
3142.00,0.0078
3141.00,0.0077
3140.00,0.0076
3139.00,0.0076
3138.00,0.0075
3137.00,0.0075
3136.00,0.0075
3135.00,0.0075
3134.00,0.0075
3133.00,0.0074
3132.00,0.0074
3131.00,0.0073
3130.00,0.0073
3129.00,0.0072
3128.00,0.0072
3127.00,0.0072
3126.00,0.0071
3125.00,0.0071
3124.00,0.0070
3123.00,0.0070
3122.00,0.0069
3121.00,0.0068
3120.00,0.0067
3119.00,0.0067
3118.00,0.0067
3117.00,0.0067
3116.00,0.0067
3115.00,0.0067
3114.00,0.0067
3113.00,0.0067
3112.00,0.0066
3111.00,0.0066
3110.00,0.0065
3109.00,0.0064
3108.00,0.0064
3107.00,0.0063
3106.00,0.0063
3105.00,0.0063
3104.00,0.0062
3103.00,0.0062
3102.00,0.0062
3101.00,0.0061
3100.00,0.0061
3099.00,0.0061
3098.00,0.0062
3097.00,0.0062
3096.00,0.0062
3095.00,0.0062
3094.00,0.0061
3093.00,0.0061
3092.00,0.0060
3091.00,0.0059
3090.00,0.0058
3089.00,0.0058
3088.00,0.0058
3087.00,0.0058
3086.00,0.0058
3085.00,0.0058
3084.00,0.0058
3083.00,0.0057
3082.00,0.0057
3081.00,0.0056
3080.00,0.0057
3079.00,0.0057
3078.00,0.0057
3077.00,0.0056
3076.00,0.0056
3075.00,0.0056
3074.00,0.0056
3073.00,0.0056
3072.00,0.0057
3071.00,0.0057
3070.00,0.0057
3069.00,0.0057
3068.00,0.0057
3067.00,0.0057
3066.00,0.0057
3065.00,0.0057
3064.00,0.0057
3063.00,0.0057
3062.00,0.0057
3061.00,0.0057
3060.00,0.0057
3059.00,0.0057
3058.00,0.0057
3057.00,0.0057
3056.00,0.0056
3055.00,0.0056
3054.00,0.0056
3053.00,0.0056
3052.00,0.0056
3051.00,0.0057
3050.00,0.0057
3049.00,0.0058
3048.00,0.0058
3047.00,0.0058
3046.00,0.0058
3045.00,0.0058
3044.00,0.0059
3043.00,0.0059
3042.00,0.0059
3041.00,0.0059
3040.00,0.0059
3039.00,0.0059
3038.00,0.0060
3037.00,0.0060
3036.00,0.0061
3035.00,0.0061
3034.00,0.0061
3033.00,0.0061
3032.00,0.0062
3031.00,0.0062
3030.00,0.0063
3029.00,0.0064
3028.00,0.0064
3027.00,0.0064
3026.00,0.0065
3025.00,0.0065
3024.00,0.0065
3023.00,0.0066
3022.00,0.0066
3021.00,0.0066
3020.00,0.0067
3019.00,0.0068
3018.00,0.0068
3017.00,0.0068
3016.00,0.0069
3015.00,0.0069
3014.00,0.0070
3013.00,0.0071
3012.00,0.0072
3011.00,0.0072
3010.00,0.0073
3009.00,0.0074
3008.00,0.0076
3007.00,0.0077
3006.00,0.0078
3005.00,0.0079
3004.00,0.0081
3003.00,0.0082
3002.00,0.0083
3001.00,0.0085
3000.00,0.0087
2999.00,0.0089
2998.00,0.0092
2997.00,0.0094
2996.00,0.0097
2995.00,0.0101
2994.00,0.0105
2993.00,0.0109
2992.00,0.0114
2991.00,0.0119
2990.00,0.0125
2989.00,0.0132
2988.00,0.0139
2987.00,0.0147
2986.00,0.0155
2985.00,0.0164
2984.00,0.0174
2983.00,0.0185
2982.00,0.0198
2981.00,0.0213
2980.00,0.0231
2979.00,0.0251
2978.00,0.0274
2977.00,0.0300
2976.00,0.0329
2975.00,0.0363
2974.00,0.0400
2973.00,0.0442
2972.00,0.0488
2971.00,0.0540
2970.00,0.0598
2969.00,0.0661
2968.00,0.0729
2967.00,0.0799
2966.00,0.0871
2965.00,0.0942
2964.00,0.1010
2963.00,0.1071
2962.00,0.1126
2961.00,0.1173
2960.00,0.1215
2959.00,0.1255
2958.00,0.1298
2957.00,0.1348
2956.00,0.1408
2955.00,0.1480
2954.00,0.1561
2953.00,0.1647
2952.00,0.1729
2951.00,0.1798
2950.00,0.1842
2949.00,0.1852
2948.00,0.1822
2947.00,0.1753
2946.00,0.1652
2945.00,0.1534
2944.00,0.1413
2943.00,0.1302
2942.00,0.1213
2941.00,0.1147
2940.00,0.1108
2939.00,0.1091
2938.00,0.1096
2937.00,0.1120
2936.00,0.1160
2935.00,0.1215
2934.00,0.1284
2933.00,0.1366
2932.00,0.1459
2931.00,0.1562
2930.00,0.1672
2929.00,0.1784
2928.00,0.1898
2927.00,0.2008
2926.00,0.2115
2925.00,0.2217
2924.00,0.2316
2923.00,0.2413
2922.00,0.2510
2921.00,0.2604
2920.00,0.2690
2919.00,0.2759
2918.00,0.2801
2917.00,0.2807
2916.00,0.2775
2915.00,0.2705
2914.00,0.2608
2913.00,0.2495
2912.00,0.2377
2911.00,0.2263
2910.00,0.2156
2909.00,0.2058
2908.00,0.1968
2907.00,0.1882
2906.00,0.1801
2905.00,0.1722
2904.00,0.1644
2903.00,0.1569
2902.00,0.1497
2901.00,0.1429
2900.00,0.1364
2899.00,0.1303
2898.00,0.1248
2897.00,0.1198
2896.00,0.1154
2895.00,0.1116
2894.00,0.1086
2893.00,0.1062
2892.00,0.1045
2891.00,0.1034
2890.00,0.1029
2889.00,0.1028
2888.00,0.1032
2887.00,0.1039
2886.00,0.1050
2885.00,0.1065
2884.00,0.1085
2883.00,0.1109
2882.00,0.1139
2881.00,0.1173
2880.00,0.1208
2879.00,0.1239
2878.00,0.1263
2877.00,0.1275
2876.00,0.1277
2875.00,0.1272
2874.00,0.1266
2873.00,0.1263
2872.00,0.1268
2871.00,0.1281
2870.00,0.1301
2869.00,0.1324
2868.00,0.1342
2867.00,0.1347
2866.00,0.1330
2865.00,0.1286
2864.00,0.1219
2863.00,0.1134
2862.00,0.1043
2861.00,0.0956
2860.00,0.0881
2859.00,0.0819
2858.00,0.0772
2857.00,0.0738
2856.00,0.0714
2855.00,0.0698
2854.00,0.0688
2853.00,0.0683
2852.00,0.0684
2851.00,0.0688
2850.00,0.0697
2849.00,0.0712
2848.00,0.0732
2847.00,0.0760
2846.00,0.0796
2845.00,0.0841
2844.00,0.0894
2843.00,0.0953
2842.00,0.1015
2841.00,0.1075
2840.00,0.1125
2839.00,0.1159
2838.00,0.1168
2837.00,0.1147
2836.00,0.1094
2835.00,0.1015
2834.00,0.0918
2833.00,0.0815
2832.00,0.0715
2831.00,0.0626
2830.00,0.0550
2829.00,0.0487
2828.00,0.0437
2827.00,0.0396
2826.00,0.0363
2825.00,0.0336
2824.00,0.0313
2823.00,0.0294
2822.00,0.0277
2821.00,0.0263
2820.00,0.0251
2819.00,0.0240
2818.00,0.0231
2817.00,0.0223
2816.00,0.0216
2815.00,0.0210
2814.00,0.0204
2813.00,0.0198
2812.00,0.0192
2811.00,0.0187
2810.00,0.0182
2809.00,0.0176
2808.00,0.0170
2807.00,0.0163
2806.00,0.0156
2805.00,0.0150
2804.00,0.0143
2803.00,0.0138
2802.00,0.0132
2801.00,0.0127
2800.00,0.0123
2799.00,0.0120
2798.00,0.0117
2797.00,0.0114
2796.00,0.0112
2795.00,0.0110
2794.00,0.0107
2793.00,0.0105
2792.00,0.0102
2791.00,0.0099
2790.00,0.0096
2789.00,0.0094
2788.00,0.0091
2787.00,0.0088
2786.00,0.0085
2785.00,0.0083
2784.00,0.0081
2783.00,0.0079
2782.00,0.0078
2781.00,0.0076
2780.00,0.0075
2779.00,0.0073
2778.00,0.0072
2777.00,0.0070
2776.00,0.0069
2775.00,0.0068
2774.00,0.0066
2773.00,0.0065
2772.00,0.0065
2771.00,0.0064
2770.00,0.0064
2769.00,0.0064
2768.00,0.0064
2767.00,0.0064
2766.00,0.0063
2765.00,0.0063
2764.00,0.0062
2763.00,0.0062
2762.00,0.0061
2761.00,0.0061
2760.00,0.0060
2759.00,0.0060
2758.00,0.0060
2757.00,0.0059
2756.00,0.0059
2755.00,0.0059
2754.00,0.0059
2753.00,0.0058
2752.00,0.0058
2751.00,0.0058
2750.00,0.0058
2749.00,0.0058
2748.00,0.0058
2747.00,0.0058
2746.00,0.0059
2745.00,0.0059
2744.00,0.0060
2743.00,0.0061
2742.00,0.0062
2741.00,0.0063
2740.00,0.0064
2739.00,0.0065
2738.00,0.0066
2737.00,0.0068
2736.00,0.0070
2735.00,0.0071
2734.00,0.0073
2733.00,0.0074
2732.00,0.0076
2731.00,0.0078
2730.00,0.0080
2729.00,0.0083
2728.00,0.0085
2727.00,0.0088
2726.00,0.0091
2725.00,0.0093
2724.00,0.0095
2723.00,0.0095
2722.00,0.0094
2721.00,0.0092
2720.00,0.0089
2719.00,0.0086
2718.00,0.0083
2717.00,0.0080
2716.00,0.0077
2715.00,0.0074
2714.00,0.0071
2713.00,0.0068
2712.00,0.0066
2711.00,0.0064
2710.00,0.0062
2709.00,0.0061
2708.00,0.0059
2707.00,0.0058
2706.00,0.0056
2705.00,0.0055
2704.00,0.0054
2703.00,0.0053
2702.00,0.0052
2701.00,0.0051
2700.00,0.0051
2699.00,0.0050
2698.00,0.0050
2697.00,0.0050
2696.00,0.0049
2695.00,0.0049
2694.00,0.0049
2693.00,0.0049
2692.00,0.0049
2691.00,0.0049
2690.00,0.0049
2689.00,0.0049
2688.00,0.0049
2687.00,0.0049
2686.00,0.0049
2685.00,0.0049
2684.00,0.0048
2683.00,0.0048
2682.00,0.0048
2681.00,0.0048
2680.00,0.0049
2679.00,0.0049
2678.00,0.0049
2677.00,0.0049
2676.00,0.0050
2675.00,0.0050
2674.00,0.0050
2673.00,0.0050
2672.00,0.0049
2671.00,0.0049
2670.00,0.0049
2669.00,0.0049
2668.00,0.0048
2667.00,0.0048
2666.00,0.0049
2665.00,0.0049
2664.00,0.0049
2663.00,0.0050
2662.00,0.0051
2661.00,0.0051
2660.00,0.0052
2659.00,0.0051
2658.00,0.0051
2657.00,0.0051
2656.00,0.0051
2655.00,0.0050
2654.00,0.0049
2653.00,0.0049
2652.00,0.0048
2651.00,0.0048
2650.00,0.0047
2649.00,0.0046
2648.00,0.0046
2647.00,0.0045
2646.00,0.0045
2645.00,0.0045
2644.00,0.0044
2643.00,0.0043
2642.00,0.0043
2641.00,0.0042
2640.00,0.0042
2639.00,0.0042
2638.00,0.0041
2637.00,0.0041
2636.00,0.0041
2635.00,0.0041
2634.00,0.0040
2633.00,0.0040
2632.00,0.0040
2631.00,0.0040
2630.00,0.0041
2629.00,0.0041
2628.00,0.0041
2627.00,0.0042
2626.00,0.0042
2625.00,0.0042
2624.00,0.0042
2623.00,0.0042
2622.00,0.0043
2621.00,0.0043
2620.00,0.0043
2619.00,0.0043
2618.00,0.0043
2617.00,0.0043
2616.00,0.0043
2615.00,0.0043
2614.00,0.0043
2613.00,0.0042
2612.00,0.0042
2611.00,0.0041
2610.00,0.0040
2609.00,0.0040
2608.00,0.0039
2607.00,0.0039
2606.00,0.0038
2605.00,0.0037
2604.00,0.0037
2603.00,0.0036
2602.00,0.0036
2601.00,0.0035
2600.00,0.0035
2599.00,0.0035
2598.00,0.0035
2597.00,0.0036
2596.00,0.0036
2595.00,0.0037
2594.00,0.0037
2593.00,0.0038
2592.00,0.0038
2591.00,0.0038
2590.00,0.0038
2589.00,0.0039
2588.00,0.0039
2587.00,0.0040
2586.00,0.0041
2585.00,0.0042
2584.00,0.0043
2583.00,0.0043
2582.00,0.0044
2581.00,0.0043
2580.00,0.0042
2579.00,0.0041
2578.00,0.0040
2577.00,0.0039
2576.00,0.0038
2575.00,0.0037
2574.00,0.0035
2573.00,0.0034
2572.00,0.0033
2571.00,0.0032
2570.00,0.0031
2569.00,0.0030
2568.00,0.0030
2567.00,0.0030
2566.00,0.0030
2565.00,0.0029
2564.00,0.0029
2563.00,0.0028
2562.00,0.0028
2561.00,0.0027
2560.00,0.0027
2559.00,0.0026
2558.00,0.0025
2557.00,0.0025
2556.00,0.0024
2555.00,0.0024
2554.00,0.0024
2553.00,0.0024
2552.00,0.0025
2551.00,0.0025
2550.00,0.0025
2549.00,0.0024
2548.00,0.0024
2547.00,0.0023
2546.00,0.0023
2545.00,0.0023
2544.00,0.0022
2543.00,0.0021
2542.00,0.0021
2541.00,0.0020
2540.00,0.0020
2539.00,0.0019
2538.00,0.0019
2537.00,0.0019
2536.00,0.0019
2535.00,0.0019
2534.00,0.0019
2533.00,0.0019
2532.00,0.0018
2531.00,0.0018
2530.00,0.0017
2529.00,0.0017
2528.00,0.0016
2527.00,0.0016
2526.00,0.0017
2525.00,0.0017
2524.00,0.0017
2523.00,0.0016
2522.00,0.0016
2521.00,0.0016
2520.00,0.0016
2519.00,0.0016
2518.00,0.0016
2517.00,0.0015
2516.00,0.0015
2515.00,0.0014
2514.00,0.0014
2513.00,0.0014
2512.00,0.0014
2511.00,0.0014
2510.00,0.0014
2509.00,0.0014
2508.00,0.0013
2507.00,0.0013
2506.00,0.0012
2505.00,0.0012
2504.00,0.0012
2503.00,0.0012
2502.00,0.0012
2501.00,0.0012
2500.00,0.0012
2499.00,0.0013
2498.00,0.0013
2497.00,0.0014
2496.00,0.0014
2495.00,0.0015
2494.00,0.0015
2493.00,0.0015
2492.00,0.0014
2491.00,0.0014
2490.00,0.0013
2489.00,0.0014
2488.00,0.0014
2487.00,0.0013
2486.00,0.0013
2485.00,0.0013
2484.00,0.0012
2483.00,0.0012
2482.00,0.0012
2481.00,0.0012
2480.00,0.0012
2479.00,0.0013
2478.00,0.0013
2477.00,0.0012
2476.00,0.0012
2475.00,0.0011
2474.00,0.0011
2473.00,0.0011
2472.00,0.0011
2471.00,0.0011
2470.00,0.0011
2469.00,0.0011
2468.00,0.0011
2467.00,0.0011
2466.00,0.0011
2465.00,0.0011
2464.00,0.0012
2463.00,0.0012
2462.00,0.0012
2461.00,0.0012
2460.00,0.0012
2459.00,0.0012
2458.00,0.0013
2457.00,0.0013
2456.00,0.0013
2455.00,0.0014
2454.00,0.0014
2453.00,0.0014
2452.00,0.0014
2451.00,0.0014
2450.00,0.0013
2449.00,0.0013
2448.00,0.0013
2447.00,0.0012
2446.00,0.0012
2445.00,0.0012
2444.00,0.0012
2443.00,0.0012
2442.00,0.0012
2441.00,0.0011
2440.00,0.0011
2439.00,0.0011
2438.00,0.0011
2437.00,0.0012
2436.00,0.0013
2435.00,0.0014
2434.00,0.0014
2433.00,0.0014
2432.00,0.0014
2431.00,0.0014
2430.00,0.0014
2429.00,0.0014
2428.00,0.0014
2427.00,0.0014
2426.00,0.0014
2425.00,0.0014
2424.00,0.0014
2423.00,0.0014
2422.00,0.0013
2421.00,0.0013
2420.00,0.0012
2419.00,0.0012
2418.00,0.0011
2417.00,0.0011
2416.00,0.0011
2415.00,0.0011
2414.00,0.0010
2413.00,0.0010
2412.00,0.0010
2411.00,0.0011
2410.00,0.0011
2409.00,0.0011
2408.00,0.0012
2407.00,0.0011
2406.00,0.0011
2405.00,0.0010
2404.00,0.0009
2403.00,0.0009
2402.00,0.0010
2401.00,0.0010
2400.00,0.0010
2399.00,0.0010
2398.00,0.0010
2397.00,0.0010
2396.00,0.0010
2395.00,0.0010
2394.00,0.0010
2393.00,0.0010
2392.00,0.0010
2391.00,0.0009
2390.00,0.0009
2389.00,0.0009
2388.00,0.0009
2387.00,0.0008
2386.00,0.0008
2385.00,0.0007
2384.00,0.0007
2383.00,0.0006
2382.00,0.0005
2381.00,0.0004
2380.00,0.0003
2379.00,0.0003
2378.00,0.0003
2377.00,0.0003
2376.00,0.0003
2375.00,0.0003
2374.00,0.0003
2373.00,0.0004
2372.00,0.0004
2371.00,0.0004
2370.00,0.0003
2369.00,0.0002
2368.00,0.0001
2367.00,-0.0000
2366.00,-0.0001
2365.00,-0.0001
2364.00,0.0000
2363.00,0.0001
2362.00,0.0002
2361.00,0.0002
2360.00,0.0002
2359.00,0.0002
2358.00,0.0001
2357.00,0.0002
2356.00,0.0002
2355.00,0.0002
2354.00,0.0002
2353.00,0.0002
2352.00,0.0002
2351.00,0.0002
2350.00,0.0002
2349.00,0.0002
2348.00,0.0003
2347.00,0.0004
2346.00,0.0005
2345.00,0.0005
2344.00,0.0004
2343.00,0.0003
2342.00,0.0003
2341.00,0.0004
2340.00,0.0005
2339.00,0.0005
2338.00,0.0005
2337.00,0.0005
2336.00,0.0005
2335.00,0.0005
2334.00,0.0005
2333.00,0.0005
2332.00,0.0005
2331.00,0.0006
2330.00,0.0006
2329.00,0.0007
2328.00,0.0008
2327.00,0.0011
2326.00,0.0015
2325.00,0.0018
2324.00,0.0019
2323.00,0.0018
2322.00,0.0016
2321.00,0.0014
2320.00,0.0012
2319.00,0.0011
2318.00,0.0010
2317.00,0.0009
2316.00,0.0008
2315.00,0.0008
2314.00,0.0008
2313.00,0.0009
2312.00,0.0008
2311.00,0.0008
2310.00,0.0007
2309.00,0.0006
2308.00,0.0006
2307.00,0.0006
2306.00,0.0006
2305.00,0.0007
2304.00,0.0008
2303.00,0.0009
2302.00,0.0009
2301.00,0.0009
2300.00,0.0010
2299.00,0.0010
2298.00,0.0011
2297.00,0.0011
2296.00,0.0011
2295.00,0.0011
2294.00,0.0012
2293.00,0.0013
2292.00,0.0014
2291.00,0.0015
2290.00,0.0017
2289.00,0.0018
2288.00,0.0018
2287.00,0.0019
2286.00,0.0019
2285.00,0.0019
2284.00,0.0019
2283.00,0.0019
2282.00,0.0018
2281.00,0.0017
2280.00,0.0016
2279.00,0.0016
2278.00,0.0015
2277.00,0.0014
2276.00,0.0014
2275.00,0.0014
2274.00,0.0014
2273.00,0.0014
2272.00,0.0016
2271.00,0.0017
2270.00,0.0017
2269.00,0.0017
2268.00,0.0015
2267.00,0.0012
2266.00,0.0011
2265.00,0.0010
2264.00,0.0010
2263.00,0.0011
2262.00,0.0011
2261.00,0.0012
2260.00,0.0013
2259.00,0.0014
2258.00,0.0014
2257.00,0.0014
2256.00,0.0013
2255.00,0.0012
2254.00,0.0011
2253.00,0.0011
2252.00,0.0011
2251.00,0.0011
2250.00,0.0011
2249.00,0.0011
2248.00,0.0012
2247.00,0.0012
2246.00,0.0012
2245.00,0.0012
2244.00,0.0011
2243.00,0.0010
2242.00,0.0010
2241.00,0.0010
2240.00,0.0012
2239.00,0.0013
2238.00,0.0015
2237.00,0.0015
2236.00,0.0015
2235.00,0.0013
2234.00,0.0011
2233.00,0.0010
2232.00,0.0009
2231.00,0.0010
2230.00,0.0011
2229.00,0.0011
2228.00,0.0011
2227.00,0.0011
2226.00,0.0010
2225.00,0.0010
2224.00,0.0009
2223.00,0.0007
2222.00,0.0006
2221.00,0.0007
2220.00,0.0008
2219.00,0.0009
2218.00,0.0009
2217.00,0.0009
2216.00,0.0008
2215.00,0.0007
2214.00,0.0006
2213.00,0.0006
2212.00,0.0007
2211.00,0.0007
2210.00,0.0008
2209.00,0.0008
2208.00,0.0008
2207.00,0.0008
2206.00,0.0008
2205.00,0.0008
2204.00,0.0008
2203.00,0.0008
2202.00,0.0008
2201.00,0.0010
2200.00,0.0011
2199.00,0.0011
2198.00,0.0010
2197.00,0.0009
2196.00,0.0009
2195.00,0.0011
2194.00,0.0013
2193.00,0.0015
2192.00,0.0015
2191.00,0.0015
2190.00,0.0015
2189.00,0.0014
2188.00,0.0013
2187.00,0.0012
2186.00,0.0012
2185.00,0.0011
2184.00,0.0010
2183.00,0.0007
2182.00,0.0005
2181.00,0.0004
2180.00,0.0006
2179.00,0.0009
2178.00,0.0010
2177.00,0.0010
2176.00,0.0008
2175.00,0.0007
2174.00,0.0008
2173.00,0.0009
2172.00,0.0010
2171.00,0.0010
2170.00,0.0011
2169.00,0.0012
2168.00,0.0016
2167.00,0.0020
2166.00,0.0023
2165.00,0.0025
2164.00,0.0027
2163.00,0.0028
2162.00,0.0029
2161.00,0.0024
2160.00,0.0014
2159.00,-0.0000
2158.00,-0.0013
2157.00,-0.0021
2156.00,-0.0024
2155.00,-0.0022
2154.00,-0.0019
2153.00,-0.0015
2152.00,-0.0012
2151.00,-0.0012
2150.00,-0.0013
2149.00,-0.0013
2148.00,-0.0013
2147.00,-0.0013
2146.00,-0.0012
2145.00,-0.0011
2144.00,-0.0009
2143.00,-0.0008
2142.00,-0.0007
2141.00,-0.0006
2140.00,-0.0006
2139.00,-0.0007
2138.00,-0.0009
2137.00,-0.0011
2136.00,-0.0013
2135.00,-0.0015
2134.00,-0.0015
2133.00,-0.0014
2132.00,-0.0013
2131.00,-0.0012
2130.00,-0.0012
2129.00,-0.0012
2128.00,-0.0011
2127.00,-0.0010
2126.00,-0.0008
2125.00,-0.0007
2124.00,-0.0005
2123.00,-0.0004
2122.00,-0.0003
2121.00,-0.0001
2120.00,0.0000
2119.00,0.0002
2118.00,0.0004
2117.00,0.0006
2116.00,0.0008
2115.00,0.0008
2114.00,0.0008
2113.00,0.0007
2112.00,0.0006
2111.00,0.0006
2110.00,0.0006
2109.00,0.0007
2108.00,0.0007
2107.00,0.0007
2106.00,0.0007
2105.00,0.0007
2104.00,0.0008
2103.00,0.0007
2102.00,0.0006
2101.00,0.0004
2100.00,0.0003
2099.00,0.0003
2098.00,0.0004
2097.00,0.0005
2096.00,0.0005
2095.00,0.0003
2094.00,0.0002
2093.00,0.0002
2092.00,0.0002
2091.00,0.0003
2090.00,0.0003
2089.00,0.0003
2088.00,0.0004
2087.00,0.0004
2086.00,0.0005
2085.00,0.0004
2084.00,0.0005
2083.00,0.0005
2082.00,0.0006
2081.00,0.0006
2080.00,0.0005
2079.00,0.0003
2078.00,0.0002
2077.00,0.0001
2076.00,0.0001
2075.00,0.0003
2074.00,0.0005
2073.00,0.0007
2072.00,0.0007
2071.00,0.0007
2070.00,0.0005
2069.00,0.0004
2068.00,0.0003
2067.00,0.0002
2066.00,0.0003
2065.00,0.0003
2064.00,0.0003
2063.00,0.0003
2062.00,0.0002
2061.00,0.0002
2060.00,0.0002
2059.00,0.0003
2058.00,0.0004
2057.00,0.0005
2056.00,0.0006
2055.00,0.0006
2054.00,0.0007
2053.00,0.0009
2052.00,0.0013
2051.00,0.0014
2050.00,0.0013
2049.00,0.0009
2048.00,0.0004
2047.00,0.0002
2046.00,0.0002
2045.00,0.0005
2044.00,0.0007
2043.00,0.0007
2042.00,0.0004
2041.00,0.0002
2040.00,-0.0000
2039.00,-0.0001
2038.00,-0.0002
2037.00,-0.0001
2036.00,-0.0000
2035.00,0.0001
2034.00,0.0002
2033.00,0.0002
2032.00,0.0001
2031.00,-0.0001
2030.00,-0.0002
2029.00,-0.0002
2028.00,-0.0002
2027.00,-0.0001
2026.00,-0.0002
2025.00,-0.0003
2024.00,-0.0005
2023.00,-0.0008
2022.00,-0.0010
2021.00,-0.0011
2020.00,-0.0012
2019.00,-0.0011
2018.00,-0.0011
2017.00,-0.0010
2016.00,-0.0009
2015.00,-0.0009
2014.00,-0.0009
2013.00,-0.0009
2012.00,-0.0009
2011.00,-0.0008
2010.00,-0.0008
2009.00,-0.0010
2008.00,-0.0014
2007.00,-0.0018
2006.00,-0.0020
2005.00,-0.0017
2004.00,-0.0013
2003.00,-0.0008
2002.00,-0.0006
2001.00,-0.0006
2000.00,-0.0005
1999.00,-0.0005
1998.00,-0.0004
1997.00,-0.0004
1996.00,-0.0004
1995.00,-0.0004
1994.00,-0.0004
1993.00,-0.0003
1992.00,-0.0002
1991.00,-0.0001
1990.00,0.0001
1989.00,0.0002
1988.00,0.0002
1987.00,0.0001
1986.00,0.0002
1985.00,0.0004
1984.00,0.0006
1983.00,0.0008
1982.00,0.0009
1981.00,0.0011
1980.00,0.0011
1979.00,0.0009
1978.00,0.0004
1977.00,-0.0002
1976.00,-0.0006
1975.00,-0.0008
1974.00,-0.0008
1973.00,-0.0009
1972.00,-0.0010
1971.00,-0.0012
1970.00,-0.0013
1969.00,-0.0012
1968.00,-0.0010
1967.00,-0.0009
1966.00,-0.0007
1965.00,-0.0008
1964.00,-0.0009
1963.00,-0.0011
1962.00,-0.0011
1961.00,-0.0010
1960.00,-0.0010
1959.00,-0.0011
1958.00,-0.0013
1957.00,-0.0013
1956.00,-0.0012
1955.00,-0.0011
1954.00,-0.0010
1953.00,-0.0010
1952.00,-0.0010
1951.00,-0.0012
1950.00,-0.0014
1949.00,-0.0016
1948.00,-0.0017
1947.00,-0.0018
1946.00,-0.0018
1945.00,-0.0017
1944.00,-0.0015
1943.00,-0.0013
1942.00,-0.0011
1941.00,-0.0010
1940.00,-0.0009
1939.00,-0.0009
1938.00,-0.0008
1937.00,-0.0008
1936.00,-0.0008
1935.00,-0.0009
1934.00,-0.0009
1933.00,-0.0008
1932.00,-0.0007
1931.00,-0.0007
1930.00,-0.0006
1929.00,-0.0005
1928.00,-0.0003
1927.00,-0.0002
1926.00,-0.0002
1925.00,-0.0002
1924.00,-0.0003
1923.00,-0.0004
1922.00,-0.0005
1921.00,-0.0005
1920.00,-0.0004
1919.00,-0.0004
1918.00,-0.0003
1917.00,-0.0002
1916.00,-0.0001
1915.00,0.0001
1914.00,0.0002
1913.00,0.0001
1912.00,0.0001
1911.00,-0.0000
1910.00,-0.0001
1909.00,-0.0000
1908.00,0.0000
1907.00,-0.0000
1906.00,-0.0001
1905.00,-0.0001
1904.00,-0.0001
1903.00,-0.0000
1902.00,0.0001
1901.00,0.0002
1900.00,0.0003
1899.00,0.0003
1898.00,0.0003
1897.00,0.0004
1896.00,0.0005
1895.00,0.0004
1894.00,0.0003
1893.00,0.0001
1892.00,0.0001
1891.00,0.0001
1890.00,0.0002
1889.00,0.0003
1888.00,0.0003
1887.00,0.0003
1886.00,0.0003
1885.00,0.0003
1884.00,0.0002
1883.00,0.0001
1882.00,0.0000
1881.00,-0.0000
1880.00,-0.0000
1879.00,-0.0001
1878.00,-0.0001
1877.00,-0.0002
1876.00,-0.0002
1875.00,-0.0001
1874.00,-0.0000
1873.00,0.0001
1872.00,0.0001
1871.00,0.0002
1870.00,0.0002
1869.00,0.0003
1868.00,0.0003
1867.00,0.0003
1866.00,0.0003
1865.00,0.0003
1864.00,0.0003
1863.00,0.0002
1862.00,0.0001
1861.00,0.0001
1860.00,0.0001
1859.00,0.0000
1858.00,0.0000
1857.00,0.0001
1856.00,0.0002
1855.00,0.0002
1854.00,0.0003
1853.00,0.0003
1852.00,0.0004
1851.00,0.0004
1850.00,0.0004
1849.00,0.0004
1848.00,0.0004
1847.00,0.0003
1846.00,0.0002
1845.00,0.0001
1844.00,0.0001
1843.00,0.0002
1842.00,0.0002
1841.00,0.0003
1840.00,0.0004
1839.00,0.0004
1838.00,0.0004
1837.00,0.0004
1836.00,0.0004
1835.00,0.0004
1834.00,0.0005
1833.00,0.0005
1832.00,0.0005
1831.00,0.0005
1830.00,0.0005
1829.00,0.0005
1828.00,0.0005
1827.00,0.0005
1826.00,0.0005
1825.00,0.0005
1824.00,0.0006
1823.00,0.0006
1822.00,0.0006
1821.00,0.0006
1820.00,0.0005
1819.00,0.0003
1818.00,0.0002
1817.00,0.0002
1816.00,0.0003
1815.00,0.0004
1814.00,0.0004
1813.00,0.0005
1812.00,0.0006
1811.00,0.0006
1810.00,0.0006
1809.00,0.0006
1808.00,0.0006
1807.00,0.0006
1806.00,0.0006
1805.00,0.0006
1804.00,0.0007
1803.00,0.0008
1802.00,0.0008
1801.00,0.0008
1800.00,0.0008
1799.00,0.0008
1798.00,0.0008
1797.00,0.0008
1796.00,0.0008
1795.00,0.0009
1794.00,0.0008
1793.00,0.0008
1792.00,0.0009
1791.00,0.0009
1790.00,0.0009
1789.00,0.0009
1788.00,0.0009
1787.00,0.0010
1786.00,0.0010
1785.00,0.0011
1784.00,0.0011
1783.00,0.0012
1782.00,0.0012
1781.00,0.0012
1780.00,0.0012
1779.00,0.0011
1778.00,0.0011
1777.00,0.0010
1776.00,0.0011
1775.00,0.0011
1774.00,0.0011
1773.00,0.0011
1772.00,0.0011
1771.00,0.0011
1770.00,0.0012
1769.00,0.0012
1768.00,0.0013
1767.00,0.0014
1766.00,0.0014
1765.00,0.0015
1764.00,0.0015
1763.00,0.0015
1762.00,0.0015
1761.00,0.0015
1760.00,0.0015
1759.00,0.0015
1758.00,0.0016
1757.00,0.0016
1756.00,0.0017
1755.00,0.0017
1754.00,0.0018
1753.00,0.0019
1752.00,0.0020
1751.00,0.0020
1750.00,0.0021
1749.00,0.0022
1748.00,0.0023
1747.00,0.0025
1746.00,0.0026
1745.00,0.0028
1744.00,0.0029
1743.00,0.0030
1742.00,0.0030
1741.00,0.0030
1740.00,0.0031
1739.00,0.0032
1738.00,0.0032
1737.00,0.0032
1736.00,0.0033
1735.00,0.0033
1734.00,0.0034
1733.00,0.0034
1732.00,0.0035
1731.00,0.0035
1730.00,0.0034
1729.00,0.0034
1728.00,0.0034
1727.00,0.0034
1726.00,0.0034
1725.00,0.0033
1724.00,0.0033
1723.00,0.0033
1722.00,0.0033
1721.00,0.0033
1720.00,0.0033
1719.00,0.0032
1718.00,0.0032
1717.00,0.0032
1716.00,0.0032
1715.00,0.0032
1714.00,0.0032
1713.00,0.0032
1712.00,0.0033
1711.00,0.0034
1710.00,0.0034
1709.00,0.0035
1708.00,0.0035
1707.00,0.0035
1706.00,0.0036
1705.00,0.0036
1704.00,0.0037
1703.00,0.0038
1702.00,0.0038
1701.00,0.0039
1700.00,0.0041
1699.00,0.0042
1698.00,0.0042
1697.00,0.0043
1696.00,0.0044
1695.00,0.0046
1694.00,0.0047
1693.00,0.0048
1692.00,0.0049
1691.00,0.0051
1690.00,0.0053
1689.00,0.0054
1688.00,0.0056
1687.00,0.0057
1686.00,0.0058
1685.00,0.0060
1684.00,0.0063
1683.00,0.0066
1682.00,0.0067
1681.00,0.0069
1680.00,0.0071
1679.00,0.0073
1678.00,0.0075
1677.00,0.0076
1676.00,0.0079
1675.00,0.0081
1674.00,0.0082
1673.00,0.0084
1672.00,0.0086
1671.00,0.0088
1670.00,0.0090
1669.00,0.0092
1668.00,0.0093
1667.00,0.0094
1666.00,0.0094
1665.00,0.0095
1664.00,0.0096
1663.00,0.0097
1662.00,0.0098
1661.00,0.0100
1660.00,0.0101
1659.00,0.0103
1658.00,0.0104
1657.00,0.0104
1656.00,0.0105
1655.00,0.0106
1654.00,0.0107
1653.00,0.0110
1652.00,0.0113
1651.00,0.0114
1650.00,0.0115
1649.00,0.0116
1648.00,0.0118
1647.00,0.0120
1646.00,0.0121
1645.00,0.0122
1644.00,0.0123
1643.00,0.0123
1642.00,0.0124
1641.00,0.0125
1640.00,0.0125
1639.00,0.0126
1638.00,0.0126
1637.00,0.0126
1636.00,0.0127
1635.00,0.0128
1634.00,0.0128
1633.00,0.0128
1632.00,0.0128
1631.00,0.0128
1630.00,0.0128
1629.00,0.0128
1628.00,0.0128
1627.00,0.0128
1626.00,0.0128
1625.00,0.0127
1624.00,0.0127
1623.00,0.0127
1622.00,0.0126
1621.00,0.0126
1620.00,0.0127
1619.00,0.0127
1618.00,0.0127
1617.00,0.0128
1616.00,0.0128
1615.00,0.0128
1614.00,0.0128
1613.00,0.0128
1612.00,0.0129
1611.00,0.0129
1610.00,0.0130
1609.00,0.0130
1608.00,0.0130
1607.00,0.0130
1606.00,0.0130
1605.00,0.0130
1604.00,0.0130
1603.00,0.0130
1602.00,0.0129
1601.00,0.0129
1600.00,0.0129
1599.00,0.0128
1598.00,0.0128
1597.00,0.0128
1596.00,0.0128
1595.00,0.0126
1594.00,0.0125
1593.00,0.0124
1592.00,0.0122
1591.00,0.0121
1590.00,0.0120
1589.00,0.0120
1588.00,0.0120
1587.00,0.0119
1586.00,0.0119
1585.00,0.0119
1584.00,0.0119
1583.00,0.0119
1582.00,0.0119
1581.00,0.0120
1580.00,0.0121
1579.00,0.0122
1578.00,0.0122
1577.00,0.0122
1576.00,0.0121
1575.00,0.0120
1574.00,0.0119
1573.00,0.0118
1572.00,0.0117
1571.00,0.0116
1570.00,0.0115
1569.00,0.0114
1568.00,0.0114
1567.00,0.0114
1566.00,0.0114
1565.00,0.0115
1564.00,0.0116
1563.00,0.0116
1562.00,0.0116
1561.00,0.0116
1560.00,0.0118
1559.00,0.0120
1558.00,0.0122
1557.00,0.0124
1556.00,0.0125
1555.00,0.0126
1554.00,0.0128
1553.00,0.0129
1552.00,0.0130
1551.00,0.0130
1550.00,0.0131
1549.00,0.0131
1548.00,0.0132
1547.00,0.0132
1546.00,0.0133
1545.00,0.0134
1544.00,0.0135
1543.00,0.0135
1542.00,0.0134
1541.00,0.0133
1540.00,0.0131
1539.00,0.0128
1538.00,0.0125
1537.00,0.0123
1536.00,0.0121
1535.00,0.0118
1534.00,0.0114
1533.00,0.0110
1532.00,0.0108
1531.00,0.0105
1530.00,0.0103
1529.00,0.0101
1528.00,0.0099
1527.00,0.0097
1526.00,0.0095
1525.00,0.0093
1524.00,0.0092
1523.00,0.0091
1522.00,0.0089
1521.00,0.0089
1520.00,0.0088
1519.00,0.0088
1518.00,0.0087
1517.00,0.0088
1516.00,0.0088
1515.00,0.0087
1514.00,0.0086
1513.00,0.0086
1512.00,0.0087
1511.00,0.0087
1510.00,0.0088
1509.00,0.0088
1508.00,0.0089
1507.00,0.0089
1506.00,0.0090
1505.00,0.0092
1504.00,0.0094
1503.00,0.0096
1502.00,0.0099
1501.00,0.0102
1500.00,0.0106
1499.00,0.0110
1498.00,0.0114
1497.00,0.0119
1496.00,0.0126
1495.00,0.0131
1494.00,0.0136
1493.00,0.0140
1492.00,0.0146
1491.00,0.0151
1490.00,0.0156
1489.00,0.0162
1488.00,0.0168
1487.00,0.0172
1486.00,0.0176
1485.00,0.0182
1484.00,0.0188
1483.00,0.0195
1482.00,0.0203
1481.00,0.0214
1480.00,0.0225
1479.00,0.0237
1478.00,0.0251
1477.00,0.0270
1476.00,0.0292
1475.00,0.0317
1474.00,0.0352
1473.00,0.0406
1472.00,0.0473
1471.00,0.0539
1470.00,0.0602
1469.00,0.0668
1468.00,0.0739
1467.00,0.0817
1466.00,0.0907
1465.00,0.1006
1464.00,0.1093
1463.00,0.1156
1462.00,0.1197
1461.00,0.1227
1460.00,0.1248
1459.00,0.1262
1458.00,0.1271
1457.00,0.1276
1456.00,0.1272
1455.00,0.1263
1454.00,0.1249
1453.00,0.1229
1452.00,0.1199
1451.00,0.1157
1450.00,0.1100
1449.00,0.1025
1448.00,0.0933
1447.00,0.0838
1446.00,0.0754
1445.00,0.0682
1444.00,0.0623
1443.00,0.0575
1442.00,0.0540
1441.00,0.0518
1440.00,0.0505
1439.00,0.0502
1438.00,0.0507
1437.00,0.0512
1436.00,0.0504
1435.00,0.0478
1434.00,0.0439
1433.00,0.0391
1432.00,0.0342
1431.00,0.0299
1430.00,0.0265
1429.00,0.0241
1428.00,0.0225
1427.00,0.0215
1426.00,0.0209
1425.00,0.0204
1424.00,0.0199
1423.00,0.0197
1422.00,0.0195
1421.00,0.0193
1420.00,0.0190
1419.00,0.0188
1418.00,0.0187
1417.00,0.0184
1416.00,0.0181
1415.00,0.0179
1414.00,0.0178
1413.00,0.0176
1412.00,0.0173
1411.00,0.0171
1410.00,0.0170
1409.00,0.0168
1408.00,0.0167
1407.00,0.0166
1406.00,0.0166
1405.00,0.0165
1404.00,0.0163
1403.00,0.0164
1402.00,0.0165
1401.00,0.0165
1400.00,0.0165
1399.00,0.0166
1398.00,0.0167
1397.00,0.0168
1396.00,0.0169
1395.00,0.0172
1394.00,0.0176
1393.00,0.0181
1392.00,0.0186
1391.00,0.0194
1390.00,0.0206
1389.00,0.0222
1388.00,0.0247
1387.00,0.0283
1386.00,0.0332
1385.00,0.0394
1384.00,0.0476
1383.00,0.0587
1382.00,0.0736
1381.00,0.0931
1380.00,0.1179
1379.00,0.1474
1378.00,0.1776
1377.00,0.2020
1376.00,0.2137
1375.00,0.2072
1374.00,0.1841
1373.00,0.1535
1372.00,0.1243
1371.00,0.0998
1370.00,0.0801
1369.00,0.0651
1368.00,0.0547
1367.00,0.0484
1366.00,0.0449
1365.00,0.0436
1364.00,0.0439
1363.00,0.0455
1362.00,0.0480
1361.00,0.0506
1360.00,0.0526
1359.00,0.0532
1358.00,0.0520
1357.00,0.0490
1356.00,0.0448
1355.00,0.0400
1354.00,0.0354
1353.00,0.0314
1352.00,0.0283
1351.00,0.0258
1350.00,0.0238
1349.00,0.0222
1348.00,0.0210
1347.00,0.0200
1346.00,0.0192
1345.00,0.0186
1344.00,0.0181
1343.00,0.0176
1342.00,0.0172
1341.00,0.0168
1340.00,0.0164
1339.00,0.0160
1338.00,0.0158
1337.00,0.0157
1336.00,0.0157
1335.00,0.0159
1334.00,0.0162
1333.00,0.0167
1332.00,0.0171
1331.00,0.0175
1330.00,0.0176
1329.00,0.0174
1328.00,0.0170
1327.00,0.0163
1326.00,0.0157
1325.00,0.0150
1324.00,0.0144
1323.00,0.0138
1322.00,0.0134
1321.00,0.0131
1320.00,0.0128
1319.00,0.0125
1318.00,0.0122
1317.00,0.0120
1316.00,0.0119
1315.00,0.0117
1314.00,0.0117
1313.00,0.0117
1312.00,0.0117
1311.00,0.0119
1310.00,0.0122
1309.00,0.0126
1308.00,0.0131
1307.00,0.0139
1306.00,0.0147
1305.00,0.0152
1304.00,0.0155
1303.00,0.0156
1302.00,0.0155
1301.00,0.0154
1300.00,0.0155
1299.00,0.0157
1298.00,0.0160
1297.00,0.0162
1296.00,0.0162
1295.00,0.0159
1294.00,0.0155
1293.00,0.0150
1292.00,0.0144
1291.00,0.0138
1290.00,0.0132
1289.00,0.0128
1288.00,0.0124
1287.00,0.0121
1286.00,0.0119
1285.00,0.0117
1284.00,0.0115
1283.00,0.0113
1282.00,0.0111
1281.00,0.0110
1280.00,0.0109
1279.00,0.0108
1278.00,0.0107
1277.00,0.0106
1276.00,0.0105
1275.00,0.0105
1274.00,0.0105
1273.00,0.0105
1272.00,0.0105
1271.00,0.0105
1270.00,0.0105
1269.00,0.0106
1268.00,0.0107
1267.00,0.0109
1266.00,0.0110
1265.00,0.0113
1264.00,0.0115
1263.00,0.0118
1262.00,0.0121
1261.00,0.0125
1260.00,0.0128
1259.00,0.0132
1258.00,0.0136
1257.00,0.0140
1256.00,0.0141
1255.00,0.0140
1254.00,0.0136
1253.00,0.0132
1252.00,0.0127
1251.00,0.0123
1250.00,0.0120
1249.00,0.0117
1248.00,0.0115
1247.00,0.0114
1246.00,0.0113
1245.00,0.0112
1244.00,0.0111
1243.00,0.0110
1242.00,0.0109
1241.00,0.0108
1240.00,0.0107
1239.00,0.0106
1238.00,0.0105
1237.00,0.0104
1236.00,0.0103
1235.00,0.0102
1234.00,0.0102
1233.00,0.0102
1232.00,0.0102
1231.00,0.0103
1230.00,0.0104
1229.00,0.0105
1228.00,0.0106
1227.00,0.0108
1226.00,0.0111
1225.00,0.0114
1224.00,0.0118
1223.00,0.0122
1222.00,0.0126
1221.00,0.0129
1220.00,0.0131
1219.00,0.0132
1218.00,0.0132
1217.00,0.0130
1216.00,0.0128
1215.00,0.0124
1214.00,0.0120
1213.00,0.0115
1212.00,0.0111
1211.00,0.0108
1210.00,0.0105
1209.00,0.0103
1208.00,0.0101
1207.00,0.0100
1206.00,0.0098
1205.00,0.0098
1204.00,0.0097
1203.00,0.0097
1202.00,0.0097
1201.00,0.0097
1200.00,0.0097
1199.00,0.0097
1198.00,0.0097
1197.00,0.0096
1196.00,0.0096
1195.00,0.0096
1194.00,0.0096
1193.00,0.0096
1192.00,0.0095
1191.00,0.0095
1190.00,0.0094
1189.00,0.0093
1188.00,0.0093
1187.00,0.0094
1186.00,0.0095
1185.00,0.0096
1184.00,0.0096
1183.00,0.0097
1182.00,0.0099
1181.00,0.0101
1180.00,0.0103
1179.00,0.0106
1178.00,0.0111
1177.00,0.0117
1176.00,0.0126
1175.00,0.0137
1174.00,0.0151
1173.00,0.0169
1172.00,0.0189
1171.00,0.0211
1170.00,0.0232
1169.00,0.0250
1168.00,0.0262
1167.00,0.0268
1166.00,0.0266
1165.00,0.0261
1164.00,0.0253
1163.00,0.0246
1162.00,0.0239
1161.00,0.0233
1160.00,0.0229
1159.00,0.0226
1158.00,0.0225
1157.00,0.0224
1156.00,0.0224
1155.00,0.0225
1154.00,0.0226
1153.00,0.0227
1152.00,0.0226
1151.00,0.0223
1150.00,0.0218
1149.00,0.0211
1148.00,0.0203
1147.00,0.0195
1146.00,0.0189
1145.00,0.0182
1144.00,0.0177
1143.00,0.0171
1142.00,0.0166
1141.00,0.0161
1140.00,0.0157
1139.00,0.0154
1138.00,0.0152
1137.00,0.0151
1136.00,0.0150
1135.00,0.0149
1134.00,0.0148
1133.00,0.0148
1132.00,0.0148
1131.00,0.0149
1130.00,0.0151
1129.00,0.0153
1128.00,0.0157
1127.00,0.0161
1126.00,0.0164
1125.00,0.0167
1124.00,0.0169
1123.00,0.0171
1122.00,0.0173
1121.00,0.0175
1120.00,0.0178
1119.00,0.0179
1118.00,0.0181
1117.00,0.0183
1116.00,0.0184
1115.00,0.0186
1114.00,0.0187
1113.00,0.0188
1112.00,0.0189
1111.00,0.0191
1110.00,0.0194
1109.00,0.0198
1108.00,0.0203
1107.00,0.0210
1106.00,0.0218
1105.00,0.0225
1104.00,0.0231
1103.00,0.0233
1102.00,0.0232
1101.00,0.0229
1100.00,0.0223
1099.00,0.0215
1098.00,0.0207
1097.00,0.0200
1096.00,0.0193
1095.00,0.0188
1094.00,0.0184
1093.00,0.0180
1092.00,0.0178
1091.00,0.0175
1090.00,0.0172
1089.00,0.0168
1088.00,0.0166
1087.00,0.0164
1086.00,0.0162
1085.00,0.0161
1084.00,0.0159
1083.00,0.0157
1082.00,0.0156
1081.00,0.0155
1080.00,0.0154
1079.00,0.0152
1078.00,0.0150
1077.00,0.0148
1076.00,0.0146
1075.00,0.0145
1074.00,0.0144
1073.00,0.0143
1072.00,0.0143
1071.00,0.0144
1070.00,0.0144
1069.00,0.0144
1068.00,0.0144
1067.00,0.0143
1066.00,0.0142
1065.00,0.0141
1064.00,0.0141
1063.00,0.0141
1062.00,0.0141
1061.00,0.0141
1060.00,0.0141
1059.00,0.0141
1058.00,0.0142
1057.00,0.0141
1056.00,0.0140
1055.00,0.0139
1054.00,0.0139
1053.00,0.0139
1052.00,0.0140
1051.00,0.0141
1050.00,0.0143
1049.00,0.0144
1048.00,0.0146
1047.00,0.0148
1046.00,0.0149
1045.00,0.0149
1044.00,0.0149
1043.00,0.0149
1042.00,0.0148
1041.00,0.0147
1040.00,0.0147
1039.00,0.0147
1038.00,0.0147
1037.00,0.0148
1036.00,0.0149
1035.00,0.0149
1034.00,0.0148
1033.00,0.0146
1032.00,0.0145
1031.00,0.0144
1030.00,0.0143
1029.00,0.0142
1028.00,0.0141
1027.00,0.0140
1026.00,0.0139
1025.00,0.0139
1024.00,0.0138
1023.00,0.0137
1022.00,0.0137
1021.00,0.0136
1020.00,0.0135
1019.00,0.0135
1018.00,0.0135
1017.00,0.0137
1016.00,0.0139
1015.00,0.0141
1014.00,0.0143
1013.00,0.0144
1012.00,0.0146
1011.00,0.0147
1010.00,0.0148
1009.00,0.0150
1008.00,0.0152
1007.00,0.0155
1006.00,0.0161
1005.00,0.0168
1004.00,0.0179
1003.00,0.0192
1002.00,0.0210
1001.00,0.0230
1000.00,0.0251
999.00,0.0267
998.00,0.0274
997.00,0.0268
996.00,0.0251
995.00,0.0227
994.00,0.0202
993.00,0.0180
992.00,0.0162
991.00,0.0148
990.00,0.0139
989.00,0.0132
988.00,0.0128
987.00,0.0126
986.00,0.0125
985.00,0.0127
984.00,0.0131
983.00,0.0137
982.00,0.0145
981.00,0.0158
980.00,0.0175
979.00,0.0199
978.00,0.0227
977.00,0.0258
976.00,0.0289
975.00,0.0316
974.00,0.0334
973.00,0.0337
972.00,0.0324
971.00,0.0297
970.00,0.0262
969.00,0.0228
968.00,0.0198
967.00,0.0175
966.00,0.0158
965.00,0.0145
964.00,0.0135
963.00,0.0127
962.00,0.0121
961.00,0.0117
960.00,0.0114
959.00,0.0111
958.00,0.0109
957.00,0.0106
956.00,0.0104
955.00,0.0101
954.00,0.0099
953.00,0.0097
952.00,0.0096
951.00,0.0095
950.00,0.0096
949.00,0.0096
948.00,0.0098
947.00,0.0101
946.00,0.0104
945.00,0.0106
944.00,0.0109
943.00,0.0112
942.00,0.0115
941.00,0.0117
940.00,0.0118
939.00,0.0115
938.00,0.0111
937.00,0.0107
936.00,0.0103
935.00,0.0100
934.00,0.0097
933.00,0.0095
932.00,0.0093
931.00,0.0091
930.00,0.0090
929.00,0.0089
928.00,0.0088
927.00,0.0087
926.00,0.0086
925.00,0.0086
924.00,0.0086
923.00,0.0087
922.00,0.0088
921.00,0.0089
920.00,0.0090
919.00,0.0092
918.00,0.0093
917.00,0.0095
916.00,0.0096
915.00,0.0096
914.00,0.0097
913.00,0.0097
912.00,0.0097
911.00,0.0098
910.00,0.0099
909.00,0.0101
908.00,0.0104
907.00,0.0109
906.00,0.0118
905.00,0.0130
904.00,0.0147
903.00,0.0167
902.00,0.0189
901.00,0.0210
900.00,0.0225
899.00,0.0229
898.00,0.0222
897.00,0.0204
896.00,0.0181
895.00,0.0160
894.00,0.0142
893.00,0.0128
892.00,0.0118
891.00,0.0111
890.00,0.0106
889.00,0.0103
888.00,0.0100
887.00,0.0098
886.00,0.0097
885.00,0.0097
884.00,0.0097
883.00,0.0098
882.00,0.0098
881.00,0.0098
880.00,0.0098
879.00,0.0099
878.00,0.0101
877.00,0.0103
876.00,0.0104
875.00,0.0104
874.00,0.0104
873.00,0.0103
872.00,0.0103
871.00,0.0101
870.00,0.0099
869.00,0.0098
868.00,0.0097
867.00,0.0097
866.00,0.0097
865.00,0.0098
864.00,0.0099
863.00,0.0100
862.00,0.0102
861.00,0.0103
860.00,0.0103
859.00,0.0104
858.00,0.0105
857.00,0.0105
856.00,0.0105
855.00,0.0105
854.00,0.0105
853.00,0.0106
852.00,0.0108
851.00,0.0110
850.00,0.0113
849.00,0.0118
848.00,0.0124
847.00,0.0133
846.00,0.0146
845.00,0.0167
844.00,0.0193
843.00,0.0220
842.00,0.0239
841.00,0.0242
840.00,0.0228
839.00,0.0204
838.00,0.0179
837.00,0.0159
836.00,0.0145
835.00,0.0137
834.00,0.0131
833.00,0.0126
832.00,0.0123
831.00,0.0121
830.00,0.0120
829.00,0.0119
828.00,0.0119
827.00,0.0119
826.00,0.0120
825.00,0.0121
824.00,0.0121
823.00,0.0121
822.00,0.0120
821.00,0.0121
820.00,0.0124
819.00,0.0128
818.00,0.0134
817.00,0.0140
816.00,0.0149
815.00,0.0162
814.00,0.0178
813.00,0.0198
812.00,0.0217
811.00,0.0235
810.00,0.0248
809.00,0.0255
808.00,0.0253
807.00,0.0244
806.00,0.0229
805.00,0.0211
804.00,0.0193
803.00,0.0177
802.00,0.0164
801.00,0.0154
800.00,0.0146
799.00,0.0140
798.00,0.0133
797.00,0.0128
796.00,0.0123
795.00,0.0120
794.00,0.0118
793.00,0.0116
792.00,0.0114
791.00,0.0112
790.00,0.0111
789.00,0.0110
788.00,0.0108
787.00,0.0106
786.00,0.0103
785.00,0.0101
784.00,0.0099
783.00,0.0097
782.00,0.0096
781.00,0.0094
780.00,0.0092
779.00,0.0090
778.00,0.0089
777.00,0.0089
776.00,0.0089
775.00,0.0090
774.00,0.0092
773.00,0.0095
772.00,0.0096
771.00,0.0097
770.00,0.0098
769.00,0.0099
768.00,0.0101
767.00,0.0102
766.00,0.0102
765.00,0.0101
764.00,0.0098
763.00,0.0095
762.00,0.0094
761.00,0.0093
760.00,0.0093
759.00,0.0093
758.00,0.0091
757.00,0.0089
756.00,0.0086
755.00,0.0083
754.00,0.0080
753.00,0.0079
752.00,0.0080
751.00,0.0080
750.00,0.0081
749.00,0.0082
748.00,0.0083
747.00,0.0086
746.00,0.0088
745.00,0.0090
744.00,0.0092
743.00,0.0094
742.00,0.0094
741.00,0.0094
740.00,0.0096
739.00,0.0098
738.00,0.0102
737.00,0.0106
736.00,0.0109
735.00,0.0112
734.00,0.0115
733.00,0.0118
732.00,0.0120
731.00,0.0122
730.00,0.0122
729.00,0.0123
728.00,0.0122
727.00,0.0122
726.00,0.0121
725.00,0.0121
724.00,0.0121
723.00,0.0121
722.00,0.0120
721.00,0.0118
720.00,0.0115
719.00,0.0112
718.00,0.0110
717.00,0.0108
716.00,0.0107
715.00,0.0105
714.00,0.0104
713.00,0.0104
712.00,0.0104
711.00,0.0105
710.00,0.0105
709.00,0.0106
708.00,0.0108
707.00,0.0110
706.00,0.0112
705.00,0.0112
704.00,0.0111
703.00,0.0108
702.00,0.0104
701.00,0.0100
700.00,0.0098
699.00,0.0096
698.00,0.0094
697.00,0.0092
696.00,0.0089
695.00,0.0088
694.00,0.0087
693.00,0.0087
692.00,0.0087
691.00,0.0088
690.00,0.0089
689.00,0.0090
688.00,0.0091
687.00,0.0091
686.00,0.0090
685.00,0.0088
684.00,0.0085
683.00,0.0085
682.00,0.0088
681.00,0.0091
680.00,0.0092
679.00,0.0092
678.00,0.0092
677.00,0.0091
676.00,0.0092
675.00,0.0094
674.00,0.0095
673.00,0.0095
672.00,0.0095
671.00,0.0096
670.00,0.0098
669.00,0.0100
668.00,0.0100
667.00,0.0100
666.00,0.0098
665.00,0.0096
664.00,0.0095
663.00,0.0095
662.00,0.0095
661.00,0.0097
660.00,0.0099
659.00,0.0099
658.00,0.0098
657.00,0.0097
656.00,0.0097
655.00,0.0097
654.00,0.0096
653.00,0.0095
652.00,0.0093
651.00,0.0094
650.00,0.0095
649.00,0.0097
648.00,0.0097
647.00,0.0097
646.00,0.0095
645.00,0.0095
644.00,0.0094
643.00,0.0095
642.00,0.0096
641.00,0.0098
640.00,0.0100
639.00,0.0102
638.00,0.0103
637.00,0.0103
636.00,0.0102
635.00,0.0100
634.00,0.0098
633.00,0.0096
632.00,0.0095
631.00,0.0095
630.00,0.0096
629.00,0.0098
628.00,0.0100
627.00,0.0102
626.00,0.0102
625.00,0.0102
624.00,0.0101
623.00,0.0100
622.00,0.0099
621.00,0.0097
620.00,0.0097
619.00,0.0098
618.00,0.0099
617.00,0.0101
616.00,0.0101
615.00,0.0101
614.00,0.0101
613.00,0.0102
612.00,0.0104
611.00,0.0105
610.00,0.0105
609.00,0.0104
608.00,0.0102
607.00,0.0100
606.00,0.0098
605.00,0.0097
604.00,0.0097
603.00,0.0097
602.00,0.0098
601.00,0.0100
600.00,0.0103
599.00,0.0105
598.00,0.0106
597.00,0.0104
596.00,0.0104
595.00,0.0107
594.00,0.0112
593.00,0.0115
592.00,0.0114
591.00,0.0111
590.00,0.0106
589.00,0.0102
588.00,0.0101
587.00,0.0102
586.00,0.0105
585.00,0.0109
584.00,0.0111
583.00,0.0111
582.00,0.0109
581.00,0.0106
580.00,0.0105
579.00,0.0106
578.00,0.0108
577.00,0.0109
576.00,0.0108
575.00,0.0104
574.00,0.0102
573.00,0.0102
572.00,0.0102
571.00,0.0102
570.00,0.0103
569.00,0.0104
568.00,0.0106
567.00,0.0107
566.00,0.0107
565.00,0.0108
564.00,0.0109
563.00,0.0110
562.00,0.0111
561.00,0.0110
560.00,0.0109
559.00,0.0110
558.00,0.0114
557.00,0.0117
556.00,0.0116
555.00,0.0111
554.00,0.0106
553.00,0.0103
552.00,0.0102
551.00,0.0105
550.00,0.0109
549.00,0.0113
548.00,0.0114
547.00,0.0113
546.00,0.0111
545.00,0.0110
544.00,0.0108
543.00,0.0105
542.00,0.0104
541.00,0.0105
540.00,0.0109
539.00,0.0116
538.00,0.0124
537.00,0.0128
536.00,0.0128
535.00,0.0125
534.00,0.0121
533.00,0.0121
532.00,0.0123
531.00,0.0125
530.00,0.0127
529.00,0.0128
528.00,0.0128
527.00,0.0127
526.00,0.0126
525.00,0.0126
524.00,0.0126
523.00,0.0124
522.00,0.0119
521.00,0.0114
520.00,0.0109
519.00,0.0105
518.00,0.0102
517.00,0.0101
516.00,0.0101
515.00,0.0100
514.00,0.0101
513.00,0.0103
512.00,0.0104
511.00,0.0104
510.00,0.0100
509.00,0.0095
508.00,0.0091
507.00,0.0091
506.00,0.0092
505.00,0.0092
504.00,0.0090
503.00,0.0089
502.00,0.0090
501.00,0.0094
500.00,0.0099
499.00,0.0104
498.00,0.0109
497.00,0.0114
496.00,0.0117
495.00,0.0115
494.00,0.0108
493.00,0.0104
492.00,0.0103
491.00,0.0103
490.00,0.0100
489.00,0.0097
488.00,0.0096
487.00,0.0100
486.00,0.0105
485.00,0.0109
484.00,0.0111
483.00,0.0112
482.00,0.0112
481.00,0.0111
480.00,0.0111
479.00,0.0112
478.00,0.0113
477.00,0.0113
476.00,0.0112
475.00,0.0113
474.00,0.0113
473.00,0.0113
472.00,0.0117
471.00,0.0125
470.00,0.0134
469.00,0.0141
468.00,0.0143
467.00,0.0143
466.00,0.0141
465.00,0.0141
464.00,0.0146
463.00,0.0155
462.00,0.0165
461.00,0.0175
460.00,0.0187
459.00,0.0200
458.00,0.0210
457.00,0.0210
456.00,0.0201
455.00,0.0188
454.00,0.0175
453.00,0.0164
452.00,0.0158
451.00,0.0155
450.00,0.0151
