Created as New Dataset,Sample 002 By Administrator Date Wednesday, September 10 2025
cm-1,A
4000.00,0.0009
3999.00,0.0009
3998.00,0.0008
3997.00,0.0008
3996.00,0.0008
3995.00,0.0008
3994.00,0.0008
3993.00,0.0009
3992.00,0.0009
3991.00,0.0009
3990.00,0.0009
3989.00,0.0009
3988.00,0.0008
3987.00,0.0008
3986.00,0.0008
3985.00,0.0007
3984.00,0.0007
3983.00,0.0007
3982.00,0.0007
3981.00,0.0007
3980.00,0.0007
3979.00,0.0007
3978.00,0.0007
3977.00,0.0007
3976.00,0.0007
3975.00,0.0007
3974.00,0.0007
3973.00,0.0007
3972.00,0.0007
3971.00,0.0006
3970.00,0.0006
3969.00,0.0006
3968.00,0.0006
3967.00,0.0006
3966.00,0.0006
3965.00,0.0006
3964.00,0.0006
3963.00,0.0006
3962.00,0.0006
3961.00,0.0006
3960.00,0.0006
3959.00,0.0006
3958.00,0.0006
3957.00,0.0006
3956.00,0.0006
3955.00,0.0006
3954.00,0.0006
3953.00,0.0006
3952.00,0.0006
3951.00,0.0006
3950.00,0.0005
3949.00,0.0005
3948.00,0.0005
3947.00,0.0005
3946.00,0.0005
3945.00,0.0005
3944.00,0.0005
3943.00,0.0005
3942.00,0.0006
3941.00,0.0006
3940.00,0.0006
3939.00,0.0006
3938.00,0.0006
3937.00,0.0006
3936.00,0.0006
3935.00,0.0006
3934.00,0.0006
3933.00,0.0006
3932.00,0.0005
3931.00,0.0005
3930.00,0.0005
3929.00,0.0005
3928.00,0.0006
3927.00,0.0006
3926.00,0.0006
3925.00,0.0006
3924.00,0.0006
3923.00,0.0006
3922.00,0.0006
3921.00,0.0006
3920.00,0.0006
3919.00,0.0006
3918.00,0.0006
3917.00,0.0006
3916.00,0.0006
3915.00,0.0007
3914.00,0.0007
3913.00,0.0007
3912.00,0.0007
3911.00,0.0007
3910.00,0.0006
3909.00,0.0006
3908.00,0.0006
3907.00,0.0005
3906.00,0.0005
3905.00,0.0005
3904.00,0.0005
3903.00,0.0005
3902.00,0.0005
3901.00,0.0005
3900.00,0.0005
3899.00,0.0005
3898.00,0.0006
3897.00,0.0006
3896.00,0.0006
3895.00,0.0007
3894.00,0.0007
3893.00,0.0006
3892.00,0.0006
3891.00,0.0006
3890.00,0.0006
3889.00,0.0006
3888.00,0.0007
3887.00,0.0007
3886.00,0.0007
3885.00,0.0006
3884.00,0.0006
3883.00,0.0006
3882.00,0.0006
3881.00,0.0006
3880.00,0.0006
3879.00,0.0006
3878.00,0.0007
3877.00,0.0007
3876.00,0.0007
3875.00,0.0007
3874.00,0.0007
3873.00,0.0007
3872.00,0.0006
3871.00,0.0006
3870.00,0.0005
3869.00,0.0005
3868.00,0.0006
3867.00,0.0006
3866.00,0.0006
3865.00,0.0006
3864.00,0.0007
3863.00,0.0007
3862.00,0.0007
3861.00,0.0006
3860.00,0.0006
3859.00,0.0006
3858.00,0.0005
3857.00,0.0006
3856.00,0.0006
3855.00,0.0006
3854.00,0.0006
3853.00,0.0006
3852.00,0.0006
3851.00,0.0006
3850.00,0.0006
3849.00,0.0006
3848.00,0.0006
3847.00,0.0006
3846.00,0.0006
3845.00,0.0006
3844.00,0.0006
3843.00,0.0005
3842.00,0.0006
3841.00,0.0006
3840.00,0.0006
3839.00,0.0007
3838.00,0.0007
3837.00,0.0007
3836.00,0.0007
3835.00,0.0006
3834.00,0.0006
3833.00,0.0006
3832.00,0.0007
3831.00,0.0006
3830.00,0.0006
3829.00,0.0006
3828.00,0.0006
3827.00,0.0006
3826.00,0.0007
3825.00,0.0007
3824.00,0.0008
3823.00,0.0008
3822.00,0.0008
3821.00,0.0008
3820.00,0.0008
3819.00,0.0008
3818.00,0.0008
3817.00,0.0007
3816.00,0.0007
3815.00,0.0007
3814.00,0.0007
3813.00,0.0007
3812.00,0.0007
3811.00,0.0006
3810.00,0.0006
3809.00,0.0006
3808.00,0.0006
3807.00,0.0007
3806.00,0.0007
3805.00,0.0007
3804.00,0.0007
3803.00,0.0007
3802.00,0.0007
3801.00,0.0007
3800.00,0.0007
3799.00,0.0007
3798.00,0.0007
3797.00,0.0007
3796.00,0.0006
3795.00,0.0006
3794.00,0.0006
3793.00,0.0006
3792.00,0.0006
3791.00,0.0006
3790.00,0.0005
3789.00,0.0005
3788.00,0.0005
3787.00,0.0005
3786.00,0.0006
3785.00,0.0006
3784.00,0.0006
3783.00,0.0006
3782.00,0.0007
3781.00,0.0007
3780.00,0.0007
3779.00,0.0006
3778.00,0.0006
3777.00,0.0006
3776.00,0.0006
3775.00,0.0006
3774.00,0.0006
3773.00,0.0006
3772.00,0.0007
3771.00,0.0007
3770.00,0.0007
3769.00,0.0007
3768.00,0.0008
3767.00,0.0008
3766.00,0.0008
3765.00,0.0008
3764.00,0.0007
3763.00,0.0007
3762.00,0.0007
3761.00,0.0008
3760.00,0.0008
3759.00,0.0008
3758.00,0.0008
3757.00,0.0007
3756.00,0.0007
3755.00,0.0007
3754.00,0.0007
3753.00,0.0007
3752.00,0.0007
3751.00,0.0007
3750.00,0.0007
3749.00,0.0008
3748.00,0.0008
3747.00,0.0008
3746.00,0.0008
3745.00,0.0008
3744.00,0.0008
3743.00,0.0007
3742.00,0.0007
3741.00,0.0006
3740.00,0.0005
3739.00,0.0005
3738.00,0.0005
3737.00,0.0005
3736.00,0.0005
3735.00,0.0005
3734.00,0.0006
3733.00,0.0006
3732.00,0.0006
3731.00,0.0005
3730.00,0.0005
3729.00,0.0004
3728.00,0.0003
3727.00,0.0003
3726.00,0.0003
3725.00,0.0003
3724.00,0.0003
3723.00,0.0003
3722.00,0.0003
3721.00,0.0003
3720.00,0.0003
3719.00,0.0004
3718.00,0.0004
3717.00,0.0005
3716.00,0.0005
3715.00,0.0005
3714.00,0.0005
3713.00,0.0005
3712.00,0.0005
3711.00,0.0005
3710.00,0.0006
3709.00,0.0006
3708.00,0.0006
3707.00,0.0005
3706.00,0.0005
3705.00,0.0004
3704.00,0.0004
3703.00,0.0003
3702.00,0.0004
3701.00,0.0004
3700.00,0.0004
3699.00,0.0004
3698.00,0.0003
3697.00,0.0003
3696.00,0.0003
3695.00,0.0004
3694.00,0.0004
3693.00,0.0005
3692.00,0.0005
3691.00,0.0005
3690.00,0.0005
3689.00,0.0005
3688.00,0.0005
3687.00,0.0005
3686.00,0.0005
3685.00,0.0004
3684.00,0.0004
3683.00,0.0004
3682.00,0.0004
3681.00,0.0004
3680.00,0.0004
3679.00,0.0004
3678.00,0.0004
3677.00,0.0005
3676.00,0.0005
3675.00,0.0006
3674.00,0.0006
3673.00,0.0005
3672.00,0.0005
3671.00,0.0004
3670.00,0.0004
3669.00,0.0004
3668.00,0.0004
3667.00,0.0004
3666.00,0.0004
3665.00,0.0004
3664.00,0.0004
3663.00,0.0004
3662.00,0.0004
3661.00,0.0004
3660.00,0.0004
3659.00,0.0004
3658.00,0.0004
3657.00,0.0004
3656.00,0.0004
3655.00,0.0004
3654.00,0.0004
3653.00,0.0004
3652.00,0.0004
3651.00,0.0005
3650.00,0.0005
3649.00,0.0005
3648.00,0.0005
3647.00,0.0005
3646.00,0.0005
3645.00,0.0004
3644.00,0.0004
3643.00,0.0003
3642.00,0.0003
3641.00,0.0003
3640.00,0.0003
3639.00,0.0004
3638.00,0.0004
3637.00,0.0004
3636.00,0.0004
3635.00,0.0004
3634.00,0.0004
3633.00,0.0004
3632.00,0.0004
3631.00,0.0004
3630.00,0.0004
3629.00,0.0004
3628.00,0.0004
3627.00,0.0004
3626.00,0.0004
3625.00,0.0005
3624.00,0.0005
3623.00,0.0005
3622.00,0.0005
3621.00,0.0005
3620.00,0.0004
3619.00,0.0004
3618.00,0.0005
3617.00,0.0005
3616.00,0.0005
3615.00,0.0004
3614.00,0.0004
3613.00,0.0004
3612.00,0.0005
3611.00,0.0005
3610.00,0.0005
3609.00,0.0005
3608.00,0.0004
3607.00,0.0004
3606.00,0.0004
3605.00,0.0004
3604.00,0.0004
3603.00,0.0005
3602.00,0.0005
3601.00,0.0005
3600.00,0.0005
3599.00,0.0005
3598.00,0.0005
3597.00,0.0005
3596.00,0.0005
3595.00,0.0006
3594.00,0.0007
3593.00,0.0007
3592.00,0.0008
3591.00,0.0008
3590.00,0.0007
3589.00,0.0007
3588.00,0.0006
3587.00,0.0007
3586.00,0.0007
3585.00,0.0007
3584.00,0.0007
3583.00,0.0007
3582.00,0.0007
3581.00,0.0007
3580.00,0.0007
3579.00,0.0007
3578.00,0.0008
3577.00,0.0008
3576.00,0.0008
3575.00,0.0009
3574.00,0.0009
3573.00,0.0009
3572.00,0.0009
3571.00,0.0009
3570.00,0.0009
3569.00,0.0008
3568.00,0.0008
3567.00,0.0008
3566.00,0.0009
3565.00,0.0010
3564.00,0.0011
3563.00,0.0011
3562.00,0.0012
3561.00,0.0012
3560.00,0.0012
3559.00,0.0012
3558.00,0.0012
3557.00,0.0012
3556.00,0.0012
3555.00,0.0012
3554.00,0.0012
3553.00,0.0012
3552.00,0.0012
3551.00,0.0013
3550.00,0.0014
3549.00,0.0014
3548.00,0.0015
3547.00,0.0015
3546.00,0.0015
3545.00,0.0014
3544.00,0.0014
3543.00,0.0015
3542.00,0.0015
3541.00,0.0015
3540.00,0.0016
3539.00,0.0016
3538.00,0.0016
3537.00,0.0016
3536.00,0.0016
3535.00,0.0016
3534.00,0.0016
3533.00,0.0016
3532.00,0.0016
3531.00,0.0016
3530.00,0.0017
3529.00,0.0017
3528.00,0.0018
3527.00,0.0018
3526.00,0.0019
3525.00,0.0019
3524.00,0.0019
3523.00,0.0019
3522.00,0.0019
3521.00,0.0019
3520.00,0.0019
3519.00,0.0020
3518.00,0.0020
3517.00,0.0020
3516.00,0.0020
3515.00,0.0021
3514.00,0.0021
3513.00,0.0021
3512.00,0.0022
3511.00,0.0022
3510.00,0.0022
3509.00,0.0022
3508.00,0.0022
3507.00,0.0022
3506.00,0.0022
3505.00,0.0023
3504.00,0.0022
3503.00,0.0022
3502.00,0.0022
3501.00,0.0023
3500.00,0.0023
3499.00,0.0024
3498.00,0.0024
3497.00,0.0024
3496.00,0.0024
3495.00,0.0025
3494.00,0.0025
3493.00,0.0025
3492.00,0.0025
3491.00,0.0025
3490.00,0.0026
3489.00,0.0026
3488.00,0.0026
3487.00,0.0026
3486.00,0.0026
3485.00,0.0026
3484.00,0.0027
3483.00,0.0027
3482.00,0.0027
3481.00,0.0027
3480.00,0.0027
3479.00,0.0028
3478.00,0.0028
3477.00,0.0029
3476.00,0.0029
3475.00,0.0030
3474.00,0.0030
3473.00,0.0030
3472.00,0.0030
3471.00,0.0030
3470.00,0.0030
3469.00,0.0030
3468.00,0.0031
3467.00,0.0031
3466.00,0.0031
3465.00,0.0031
3464.00,0.0031
3463.00,0.0031
3462.00,0.0031
3461.00,0.0032
3460.00,0.0032
3459.00,0.0032
3458.00,0.0032
3457.00,0.0032
3456.00,0.0032
3455.00,0.0032
3454.00,0.0033
3453.00,0.0033
3452.00,0.0033
3451.00,0.0033
3450.00,0.0033
3449.00,0.0034
3448.00,0.0034
3447.00,0.0035
3446.00,0.0035
3445.00,0.0036
3444.00,0.0036
3443.00,0.0036
3442.00,0.0035
3441.00,0.0035
3440.00,0.0036
3439.00,0.0036
3438.00,0.0036
3437.00,0.0036
3436.00,0.0037
3435.00,0.0037
3434.00,0.0037
3433.00,0.0037
3432.00,0.0037
3431.00,0.0037
3430.00,0.0037
3429.00,0.0037
3428.00,0.0037
3427.00,0.0037
3426.00,0.0037
3425.00,0.0038
3424.00,0.0038
3423.00,0.0038
3422.00,0.0038
3421.00,0.0038
3420.00,0.0038
3419.00,0.0039
3418.00,0.0039
3417.00,0.0039
3416.00,0.0039
3415.00,0.0039
3414.00,0.0039
3413.00,0.0040
3412.00,0.0040
3411.00,0.0040
3410.00,0.0041
3409.00,0.0041
3408.00,0.0041
3407.00,0.0041
3406.00,0.0040
3405.00,0.0040
3404.00,0.0040
3403.00,0.0040
3402.00,0.0040
3401.00,0.0040
3400.00,0.0040
3399.00,0.0040
3398.00,0.0041
3397.00,0.0041
3396.00,0.0041
3395.00,0.0041
3394.00,0.0041
3393.00,0.0041
3392.00,0.0041
3391.00,0.0041
3390.00,0.0041
3389.00,0.0041
3388.00,0.0041
3387.00,0.0041
3386.00,0.0040
3385.00,0.0040
3384.00,0.0041
3383.00,0.0041
3382.00,0.0041
3381.00,0.0041
3380.00,0.0041
3379.00,0.0041
3378.00,0.0041
3377.00,0.0041
3376.00,0.0041
3375.00,0.0041
3374.00,0.0041
3373.00,0.0042
3372.00,0.0042
3371.00,0.0042
3370.00,0.0043
3369.00,0.0043
3368.00,0.0043
3367.00,0.0043
3366.00,0.0042
3365.00,0.0042
3364.00,0.0042
3363.00,0.0042
3362.00,0.0042
3361.00,0.0041
3360.00,0.0041
3359.00,0.0041
3358.00,0.0041
3357.00,0.0042
3356.00,0.0042
3355.00,0.0042
3354.00,0.0042
3353.00,0.0043
3352.00,0.0043
3351.00,0.0043
3350.00,0.0043
3349.00,0.0043
3348.00,0.0043
3347.00,0.0043
3346.00,0.0043
3345.00,0.0043
3344.00,0.0043
3343.00,0.0042
3342.00,0.0042
3341.00,0.0042
3340.00,0.0042
3339.00,0.0041
3338.00,0.0041
3337.00,0.0041
3336.00,0.0041
3335.00,0.0041
3334.00,0.0041
3333.00,0.0041
3332.00,0.0041
3331.00,0.0041
3330.00,0.0040
3329.00,0.0040
3328.00,0.0040
3327.00,0.0039
3326.00,0.0039
3325.00,0.0039
3324.00,0.0040
3323.00,0.0040
3322.00,0.0040
3321.00,0.0040
3320.00,0.0040
3319.00,0.0039
3318.00,0.0039
3317.00,0.0039
3316.00,0.0039
3315.00,0.0039
3314.00,0.0038
3313.00,0.0038
3312.00,0.0038
3311.00,0.0038
3310.00,0.0038
3309.00,0.0038
3308.00,0.0038
3307.00,0.0038
3306.00,0.0038
3305.00,0.0038
3304.00,0.0038
3303.00,0.0038
3302.00,0.0038
3301.00,0.0038
3300.00,0.0038
3299.00,0.0038
3298.00,0.0038
3297.00,0.0038
3296.00,0.0038
3295.00,0.0038
3294.00,0.0038
3293.00,0.0038
3292.00,0.0038
3291.00,0.0038
3290.00,0.0038
3289.00,0.0038
3288.00,0.0038
3287.00,0.0037
3286.00,0.0037
3285.00,0.0037
3284.00,0.0037
3283.00,0.0037
3282.00,0.0037
3281.00,0.0037
3280.00,0.0037
3279.00,0.0037
3278.00,0.0037
3277.00,0.0037
3276.00,0.0037
3275.00,0.0037
3274.00,0.0037
3273.00,0.0036
3272.00,0.0036
3271.00,0.0036
3270.00,0.0036
3269.00,0.0036
3268.00,0.0036
3267.00,0.0036
3266.00,0.0035
3265.00,0.0035
3264.00,0.0035
3263.00,0.0035
3262.00,0.0035
3261.00,0.0035
3260.00,0.0035
3259.00,0.0034
3258.00,0.0034
3257.00,0.0034
3256.00,0.0033
3255.00,0.0033
3254.00,0.0033
3253.00,0.0033
3252.00,0.0033
3251.00,0.0033
3250.00,0.0033
3249.00,0.0033
3248.00,0.0033
3247.00,0.0033
3246.00,0.0033
3245.00,0.0033
3244.00,0.0033
3243.00,0.0034
3242.00,0.0034
3241.00,0.0034
3240.00,0.0034
3239.00,0.0033
3238.00,0.0034
3237.00,0.0034
3236.00,0.0034
3235.00,0.0033
3234.00,0.0033
3233.00,0.0033
3232.00,0.0033
3231.00,0.0033
3230.00,0.0033
3229.00,0.0033
3228.00,0.0033
3227.00,0.0034
3226.00,0.0034
3225.00,0.0034
3224.00,0.0034
3223.00,0.0034
3222.00,0.0034
3221.00,0.0034
3220.00,0.0035
3219.00,0.0035
3218.00,0.0035
3217.00,0.0035
3216.00,0.0036
3215.00,0.0036
3214.00,0.0036
3213.00,0.0036
3212.00,0.0036
3211.00,0.0036
3210.00,0.0036
3209.00,0.0037
3208.00,0.0037
3207.00,0.0037
3206.00,0.0037
3205.00,0.0037
3204.00,0.0037
3203.00,0.0037
3202.00,0.0037
3201.00,0.0037
3200.00,0.0037
3199.00,0.0037
3198.00,0.0037
3197.00,0.0037
3196.00,0.0037
3195.00,0.0037
3194.00,0.0037
3193.00,0.0037
3192.00,0.0037
3191.00,0.0037
3190.00,0.0037
3189.00,0.0037
3188.00,0.0037
3187.00,0.0036
3186.00,0.0036
3185.00,0.0036
3184.00,0.0036
3183.00,0.0036
3182.00,0.0036
3181.00,0.0035
3180.00,0.0035
3179.00,0.0035
3178.00,0.0034
3177.00,0.0034
3176.00,0.0034
3175.00,0.0033
3174.00,0.0033
3173.00,0.0033
3172.00,0.0033
3171.00,0.0033
3170.00,0.0032
3169.00,0.0032
3168.00,0.0033
3167.00,0.0033
3166.00,0.0034
3165.00,0.0034
3164.00,0.0034
3163.00,0.0034
3162.00,0.0033
3161.00,0.0033
3160.00,0.0033
3159.00,0.0033
3158.00,0.0033
3157.00,0.0032
3156.00,0.0032
3155.00,0.0033
3154.00,0.0033
3153.00,0.0033
3152.00,0.0033
3151.00,0.0033
3150.00,0.0033
3149.00,0.0032
3148.00,0.0032
3147.00,0.0033
3146.00,0.0033
3145.00,0.0034
3144.00,0.0034
3143.00,0.0034
3142.00,0.0033
3141.00,0.0033
3140.00,0.0033
3139.00,0.0032
3138.00,0.0032
3137.00,0.0032
3136.00,0.0032
3135.00,0.0032
3134.00,0.0032
3133.00,0.0032
3132.00,0.0032
3131.00,0.0031
3130.00,0.0031
3129.00,0.0030
3128.00,0.0030
3127.00,0.0030
3126.00,0.0030
3125.00,0.0030
3124.00,0.0030
3123.00,0.0029
3122.00,0.0028
3121.00,0.0028
3120.00,0.0027
3119.00,0.0027
3118.00,0.0027
3117.00,0.0027
3116.00,0.0027
3115.00,0.0028
3114.00,0.0028
3113.00,0.0028
3112.00,0.0028
3111.00,0.0027
3110.00,0.0027
3109.00,0.0026
3108.00,0.0026
3107.00,0.0026
3106.00,0.0025
3105.00,0.0025
3104.00,0.0025
3103.00,0.0025
3102.00,0.0026
3101.00,0.0026
3100.00,0.0026
3099.00,0.0026
3098.00,0.0026
3097.00,0.0026
3096.00,0.0026
3095.00,0.0026
3094.00,0.0026
3093.00,0.0026
3092.00,0.0025
3091.00,0.0025
3090.00,0.0025
3089.00,0.0025
3088.00,0.0025
3087.00,0.0026
3086.00,0.0026
3085.00,0.0026
3084.00,0.0025
3083.00,0.0025
3082.00,0.0025
3081.00,0.0024
3080.00,0.0024
3079.00,0.0025
3078.00,0.0025
3077.00,0.0025
3076.00,0.0025
3075.00,0.0025
3074.00,0.0025
3073.00,0.0025
3072.00,0.0025
3071.00,0.0025
3070.00,0.0026
3069.00,0.0026
3068.00,0.0026
3067.00,0.0026
3066.00,0.0026
3065.00,0.0027
3064.00,0.0027
3063.00,0.0028
3062.00,0.0028
3061.00,0.0028
3060.00,0.0028
3059.00,0.0028
3058.00,0.0028
3057.00,0.0028
3056.00,0.0028
3055.00,0.0028
3054.00,0.0028
3053.00,0.0028
3052.00,0.0028
3051.00,0.0028
3050.00,0.0029
3049.00,0.0029
3048.00,0.0029
3047.00,0.0030
3046.00,0.0030
3045.00,0.0031
3044.00,0.0031
3043.00,0.0031
3042.00,0.0031
3041.00,0.0031
3040.00,0.0031
3039.00,0.0031
3038.00,0.0032
3037.00,0.0033
3036.00,0.0033
3035.00,0.0033
3034.00,0.0034
3033.00,0.0034
3032.00,0.0035
3031.00,0.0035
3030.00,0.0035
3029.00,0.0036
3028.00,0.0036
3027.00,0.0037
3026.00,0.0038
3025.00,0.0038
3024.00,0.0039
3023.00,0.0040
3022.00,0.0040
3021.00,0.0041
3020.00,0.0041
3019.00,0.0042
3018.00,0.0043
3017.00,0.0044
3016.00,0.0045
3015.00,0.0046
3014.00,0.0047
3013.00,0.0048
3012.00,0.0049
3011.00,0.0050
3010.00,0.0051
3009.00,0.0053
3008.00,0.0055
3007.00,0.0057
3006.00,0.0059
3005.00,0.0061
3004.00,0.0063
3003.00,0.0065
3002.00,0.0067
3001.00,0.0070
3000.00,0.0073
2999.00,0.0076
2998.00,0.0079
2997.00,0.0083
2996.00,0.0086
2995.00,0.0090
2994.00,0.0095
2993.00,0.0100
2992.00,0.0105
2991.00,0.0111
2990.00,0.0118
2989.00,0.0126
2988.00,0.0135
2987.00,0.0144
2986.00,0.0155
2985.00,0.0167
2984.00,0.0179
2983.00,0.0194
2982.00,0.0210
2981.00,0.0229
2980.00,0.0250
2979.00,0.0273
2978.00,0.0300
2977.00,0.0331
2976.00,0.0366
2975.00,0.0406
2974.00,0.0452
2973.00,0.0504
2972.00,0.0562
2971.00,0.0628
2970.00,0.0702
2969.00,0.0784
2968.00,0.0874
2967.00,0.0971
2966.00,0.1073
2965.00,0.1179
2964.00,0.1284
2963.00,0.1384
2962.00,0.1474
2961.00,0.1550
2960.00,0.1610
2959.00,0.1657
2958.00,0.1694
2957.00,0.1729
2956.00,0.1768
2955.00,0.1815
2954.00,0.1871
2953.00,0.1932
2952.00,0.1990
2951.00,0.2033
2950.00,0.2050
2949.00,0.2030
2948.00,0.1970
2947.00,0.1870
2946.00,0.1742
2945.00,0.1600
2944.00,0.1459
2943.00,0.1334
2942.00,0.1231
2941.00,0.1156
2940.00,0.1108
2939.00,0.1085
2938.00,0.1085
2937.00,0.1104
2936.00,0.1141
2935.00,0.1194
2934.00,0.1262
2933.00,0.1344
2932.00,0.1436
2931.00,0.1538
2930.00,0.1645
2929.00,0.1755
2928.00,0.1863
2927.00,0.1968
2926.00,0.2068
2925.00,0.2163
2924.00,0.2253
2923.00,0.2341
2922.00,0.2427
2921.00,0.2508
2920.00,0.2580
2919.00,0.2635
2918.00,0.2664
2917.00,0.2662
2916.00,0.2627
2915.00,0.2563
2914.00,0.2479
2913.00,0.2385
2912.00,0.2290
2911.00,0.2200
2910.00,0.2118
2909.00,0.2043
2908.00,0.1973
2907.00,0.1906
2906.00,0.1838
2905.00,0.1768
2904.00,0.1697
2903.00,0.1624
2902.00,0.1551
2901.00,0.1479
2900.00,0.1409
2899.00,0.1344
2898.00,0.1282
2897.00,0.1227
2896.00,0.1178
2895.00,0.1137
2894.00,0.1104
2893.00,0.1078
2892.00,0.1060
2891.00,0.1048
2890.00,0.1042
2889.00,0.1041
2888.00,0.1044
2887.00,0.1051
2886.00,0.1062
2885.00,0.1076
2884.00,0.1095
2883.00,0.1118
2882.00,0.1146
2881.00,0.1176
2880.00,0.1205
2879.00,0.1230
2878.00,0.1245
2877.00,0.1251
2876.00,0.1247
2875.00,0.1238
2874.00,0.1229
2873.00,0.1225
2872.00,0.1229
2871.00,0.1242
2870.00,0.1261
2869.00,0.1282
2868.00,0.1295
2867.00,0.1293
2866.00,0.1267
2865.00,0.1215
2864.00,0.1138
2863.00,0.1045
2862.00,0.0947
2861.00,0.0854
2860.00,0.0774
2859.00,0.0709
2858.00,0.0660
2857.00,0.0624
2856.00,0.0600
2855.00,0.0586
2854.00,0.0579
2853.00,0.0580
2852.00,0.0587
2851.00,0.0601
2850.00,0.0622
2849.00,0.0651
2848.00,0.0688
2847.00,0.0733
2846.00,0.0789
2845.00,0.0854
2844.00,0.0927
2843.00,0.1006
2842.00,0.1088
2841.00,0.1164
2840.00,0.1229
2839.00,0.1271
2838.00,0.1282
2837.00,0.1256
2836.00,0.1194
2835.00,0.1102
2834.00,0.0991
2833.00,0.0874
2832.00,0.0762
2831.00,0.0663
2830.00,0.0579
2829.00,0.0510
2828.00,0.0454
2827.00,0.0409
2826.00,0.0373
2825.00,0.0343
2824.00,0.0318
2823.00,0.0298
2822.00,0.0280
2821.00,0.0264
2820.00,0.0251
2819.00,0.0239
2818.00,0.0228
2817.00,0.0220
2816.00,0.0212
2815.00,0.0205
2814.00,0.0199
2813.00,0.0193
2812.00,0.0188
2811.00,0.0183
2810.00,0.0177
2809.00,0.0171
2808.00,0.0165
2807.00,0.0158
2806.00,0.0152
2805.00,0.0145
2804.00,0.0139
2803.00,0.0133
2802.00,0.0127
2801.00,0.0122
2800.00,0.0118
2799.00,0.0115
2798.00,0.0113
2797.00,0.0110
2796.00,0.0108
2795.00,0.0105
2794.00,0.0103
2793.00,0.0100
2792.00,0.0097
2791.00,0.0093
2790.00,0.0090
2789.00,0.0087
2788.00,0.0083
2787.00,0.0080
2786.00,0.0077
2785.00,0.0074
2784.00,0.0072
2783.00,0.0071
2782.00,0.0069
2781.00,0.0067
2780.00,0.0065
2779.00,0.0063
2778.00,0.0062
2777.00,0.0060
2776.00,0.0059
2775.00,0.0058
2774.00,0.0057
2773.00,0.0056
2772.00,0.0055
2771.00,0.0055
2770.00,0.0054
2769.00,0.0054
2768.00,0.0054
2767.00,0.0053
2766.00,0.0053
2765.00,0.0053
2764.00,0.0053
2763.00,0.0052
2762.00,0.0052
2761.00,0.0051
2760.00,0.0051
2759.00,0.0050
2758.00,0.0050
2757.00,0.0050
2756.00,0.0050
2755.00,0.0049
2754.00,0.0050
2753.00,0.0050
2752.00,0.0049
2751.00,0.0049
2750.00,0.0049
2749.00,0.0049
2748.00,0.0049
2747.00,0.0050
2746.00,0.0050
2745.00,0.0051
2744.00,0.0052
2743.00,0.0052
2742.00,0.0054
2741.00,0.0055
2740.00,0.0056
2739.00,0.0058
2738.00,0.0059
2737.00,0.0061
2736.00,0.0062
2735.00,0.0064
2734.00,0.0065
2733.00,0.0067
2732.00,0.0069
2731.00,0.0070
2730.00,0.0073
2729.00,0.0075
2728.00,0.0078
2727.00,0.0081
2726.00,0.0084
2725.00,0.0087
2724.00,0.0089
2723.00,0.0089
2722.00,0.0089
2721.00,0.0087
2720.00,0.0084
2719.00,0.0080
2718.00,0.0077
2717.00,0.0073
2716.00,0.0070
2715.00,0.0067
2714.00,0.0064
2713.00,0.0062
2712.00,0.0060
2711.00,0.0058
2710.00,0.0056
2709.00,0.0055
2708.00,0.0053
2707.00,0.0052
2706.00,0.0050
2705.00,0.0049
2704.00,0.0048
2703.00,0.0047
2702.00,0.0047
2701.00,0.0046
2700.00,0.0045
2699.00,0.0044
2698.00,0.0044
2697.00,0.0043
2696.00,0.0043
2695.00,0.0043
2694.00,0.0043
2693.00,0.0043
2692.00,0.0043
2691.00,0.0043
2690.00,0.0043
2689.00,0.0043
2688.00,0.0044
2687.00,0.0044
2686.00,0.0043
2685.00,0.0043
2684.00,0.0043
2683.00,0.0043
2682.00,0.0043
2681.00,0.0043
2680.00,0.0043
2679.00,0.0044
2678.00,0.0044
2677.00,0.0044
2676.00,0.0044
2675.00,0.0044
2674.00,0.0044
2673.00,0.0044
2672.00,0.0043
2671.00,0.0043
2670.00,0.0043
2669.00,0.0043
2668.00,0.0043
2667.00,0.0043
2666.00,0.0043
2665.00,0.0044
2664.00,0.0044
2663.00,0.0045
2662.00,0.0045
2661.00,0.0046
2660.00,0.0047
2659.00,0.0047
2658.00,0.0047
2657.00,0.0046
2656.00,0.0046
2655.00,0.0045
2654.00,0.0044
2653.00,0.0044
2652.00,0.0043
2651.00,0.0043
2650.00,0.0042
2649.00,0.0042
2648.00,0.0042
2647.00,0.0041
2646.00,0.0040
2645.00,0.0040
2644.00,0.0039
2643.00,0.0038
2642.00,0.0038
2641.00,0.0038
2640.00,0.0038
2639.00,0.0038
2638.00,0.0037
2637.00,0.0037
2636.00,0.0037
2635.00,0.0037
2634.00,0.0037
2633.00,0.0037
2632.00,0.0037
2631.00,0.0037
2630.00,0.0037
2629.00,0.0037
2628.00,0.0038
2627.00,0.0038
2626.00,0.0039
2625.00,0.0040
2624.00,0.0040
2623.00,0.0041
2622.00,0.0041
2621.00,0.0041
2620.00,0.0041
2619.00,0.0040
2618.00,0.0040
2617.00,0.0040
2616.00,0.0040
2615.00,0.0040
2614.00,0.0039
2613.00,0.0039
2612.00,0.0038
2611.00,0.0038
2610.00,0.0037
2609.00,0.0036
2608.00,0.0036
2607.00,0.0035
2606.00,0.0035
2605.00,0.0034
2604.00,0.0033
2603.00,0.0032
2602.00,0.0031
2601.00,0.0031
2600.00,0.0030
2599.00,0.0031
2598.00,0.0031
2597.00,0.0031
2596.00,0.0032
2595.00,0.0032
2594.00,0.0033
2593.00,0.0033
2592.00,0.0034
2591.00,0.0034
2590.00,0.0034
2589.00,0.0035
2588.00,0.0036
2587.00,0.0036
2586.00,0.0037
2585.00,0.0038
2584.00,0.0038
2583.00,0.0039
2582.00,0.0039
2581.00,0.0039
2580.00,0.0039
2579.00,0.0038
2578.00,0.0038
2577.00,0.0036
2576.00,0.0035
2575.00,0.0034
2574.00,0.0032
2573.00,0.0031
2572.00,0.0029
2571.00,0.0028
2570.00,0.0027
2569.00,0.0027
2568.00,0.0027
2567.00,0.0026
2566.00,0.0026
2565.00,0.0025
2564.00,0.0025
2563.00,0.0024
2562.00,0.0023
2561.00,0.0023
2560.00,0.0022
2559.00,0.0022
2558.00,0.0022
2557.00,0.0022
2556.00,0.0022
2555.00,0.0021
2554.00,0.0021
2553.00,0.0021
2552.00,0.0021
2551.00,0.0021
2550.00,0.0021
2549.00,0.0020
2548.00,0.0020
2547.00,0.0019
2546.00,0.0019
2545.00,0.0018
2544.00,0.0017
2543.00,0.0016
2542.00,0.0016
2541.00,0.0015
2540.00,0.0015
2539.00,0.0014
2538.00,0.0014
2537.00,0.0014
2536.00,0.0014
2535.00,0.0014
2534.00,0.0014
2533.00,0.0014
2532.00,0.0014
2531.00,0.0013
2530.00,0.0013
2529.00,0.0013
2528.00,0.0013
2527.00,0.0014
2526.00,0.0013
2525.00,0.0013
2524.00,0.0013
2523.00,0.0012
2522.00,0.0012
2521.00,0.0011
2520.00,0.0011
2519.00,0.0011
2518.00,0.0011
2517.00,0.0011
2516.00,0.0011
2515.00,0.0010
2514.00,0.0010
2513.00,0.0009
2512.00,0.0008
2511.00,0.0008
2510.00,0.0008
2509.00,0.0008
2508.00,0.0009
2507.00,0.0009
2506.00,0.0009
2505.00,0.0009
2504.00,0.0009
2503.00,0.0009
2502.00,0.0009
2501.00,0.0009
2500.00,0.0009
2499.00,0.0009
2498.00,0.0009
2497.00,0.0010
2496.00,0.0010
2495.00,0.0011
2494.00,0.0011
2493.00,0.0012
2492.00,0.0012
2491.00,0.0012
2490.00,0.0011
2489.00,0.0011
2488.00,0.0010
2487.00,0.0010
2486.00,0.0009
2485.00,0.0009
2484.00,0.0008
2483.00,0.0008
2482.00,0.0008
2481.00,0.0007
2480.00,0.0007
2479.00,0.0008
2478.00,0.0009
2477.00,0.0009
2476.00,0.0009
2475.00,0.0009
2474.00,0.0009
2473.00,0.0008
2472.00,0.0008
2471.00,0.0007
2470.00,0.0007
2469.00,0.0007
2468.00,0.0007
2467.00,0.0008
2466.00,0.0008
2465.00,0.0008
2464.00,0.0008
2463.00,0.0009
2462.00,0.0009
2461.00,0.0008
2460.00,0.0008
2459.00,0.0008
2458.00,0.0009
2457.00,0.0009
2456.00,0.0010
2455.00,0.0010
2454.00,0.0011
2453.00,0.0011
2452.00,0.0011
2451.00,0.0011
2450.00,0.0010
2449.00,0.0010
2448.00,0.0009
2447.00,0.0009
2446.00,0.0008
2445.00,0.0008
2444.00,0.0008
2443.00,0.0008
2442.00,0.0008
2441.00,0.0009
2440.00,0.0009
2439.00,0.0009
2438.00,0.0009
2437.00,0.0010
2436.00,0.0011
2435.00,0.0011
2434.00,0.0012
2433.00,0.0011
2432.00,0.0011
2431.00,0.0011
2430.00,0.0011
2429.00,0.0011
2428.00,0.0011
2427.00,0.0011
2426.00,0.0010
2425.00,0.0010
2424.00,0.0010
2423.00,0.0010
2422.00,0.0010
2421.00,0.0009
2420.00,0.0009
2419.00,0.0009
2418.00,0.0009
2417.00,0.0009
2416.00,0.0009
2415.00,0.0009
2414.00,0.0008
2413.00,0.0008
2412.00,0.0008
2411.00,0.0008
2410.00,0.0008
2409.00,0.0009
2408.00,0.0009
2407.00,0.0009
2406.00,0.0009
2405.00,0.0008
2404.00,0.0008
2403.00,0.0008
2402.00,0.0008
2401.00,0.0008
2400.00,0.0007
2399.00,0.0007
2398.00,0.0007
2397.00,0.0008
2396.00,0.0008
2395.00,0.0007
2394.00,0.0007
2393.00,0.0007
2392.00,0.0007
2391.00,0.0007
2390.00,0.0007
2389.00,0.0007
2388.00,0.0007
2387.00,0.0007
2386.00,0.0006
2385.00,0.0006
2384.00,0.0005
2383.00,0.0004
2382.00,0.0004
2381.00,0.0003
2380.00,0.0002
2379.00,0.0001
2378.00,0.0001
2377.00,0.0001
2376.00,0.0002
2375.00,0.0002
2374.00,0.0002
2373.00,0.0002
2372.00,0.0002
2371.00,0.0002
2370.00,0.0002
2369.00,0.0002
2368.00,0.0001
2367.00,0.0001
2366.00,0.0001
2365.00,0.0001
2364.00,0.0001
2363.00,0.0001
2362.00,0.0001
2361.00,0.0001
2360.00,0.0001
2359.00,0.0001
2358.00,0.0001
2357.00,0.0002
2356.00,0.0002
2355.00,0.0003
2354.00,0.0002
2353.00,0.0002
2352.00,0.0002
2351.00,0.0002
2350.00,0.0002
2349.00,0.0002
2348.00,0.0002
2347.00,0.0003
2346.00,0.0003
2345.00,0.0003
2344.00,0.0002
2343.00,0.0001
2342.00,0.0001
2341.00,0.0002
2340.00,0.0003
2339.00,0.0004
2338.00,0.0005
2337.00,0.0005
2336.00,0.0005
2335.00,0.0005
2334.00,0.0006
2333.00,0.0006
2332.00,0.0006
2331.00,0.0006
2330.00,0.0006
2329.00,0.0007
2328.00,0.0009
2327.00,0.0012
2326.00,0.0016
2325.00,0.0019
2324.00,0.0020
2323.00,0.0020
2322.00,0.0017
2321.00,0.0015
2320.00,0.0013
2319.00,0.0011
2318.00,0.0010
2317.00,0.0009
2316.00,0.0008
2315.00,0.0009
2314.00,0.0009
2313.00,0.0009
2312.00,0.0008
2311.00,0.0008
2310.00,0.0007
2309.00,0.0007
2308.00,0.0007
2307.00,0.0008
2306.00,0.0008
2305.00,0.0009
2304.00,0.0010
2303.00,0.0010
2302.00,0.0010
2301.00,0.0010
2300.00,0.0011
2299.00,0.0011
2298.00,0.0011
2297.00,0.0011
2296.00,0.0011
2295.00,0.0011
2294.00,0.0012
2293.00,0.0013
2292.00,0.0014
2291.00,0.0015
2290.00,0.0016
2289.00,0.0017
2288.00,0.0018
2287.00,0.0018
2286.00,0.0019
2285.00,0.0019
2284.00,0.0019
2283.00,0.0018
2282.00,0.0017
2281.00,0.0016
2280.00,0.0015
2279.00,0.0014
2278.00,0.0013
2277.00,0.0012
2276.00,0.0011
2275.00,0.0011
2274.00,0.0012
2273.00,0.0013
2272.00,0.0014
2271.00,0.0015
2270.00,0.0015
2269.00,0.0015
2268.00,0.0015
2267.00,0.0014
2266.00,0.0012
2265.00,0.0011
2264.00,0.0010
2263.00,0.0010
2262.00,0.0009
2261.00,0.0009
2260.00,0.0009
2259.00,0.0010
2258.00,0.0012
2257.00,0.0013
2256.00,0.0013
2255.00,0.0012
2254.00,0.0011
2253.00,0.0010
2252.00,0.0010
2251.00,0.0009
2250.00,0.0009
2249.00,0.0009
2248.00,0.0009
2247.00,0.0010
2246.00,0.0011
2245.00,0.0012
2244.00,0.0012
2243.00,0.0011
2242.00,0.0011
2241.00,0.0011
2240.00,0.0012
2239.00,0.0013
2238.00,0.0014
2237.00,0.0014
2236.00,0.0013
2235.00,0.0011
2234.00,0.0010
2233.00,0.0009
2232.00,0.0008
2231.00,0.0008
2230.00,0.0009
2229.00,0.0009
2228.00,0.0009
2227.00,0.0007
2226.00,0.0006
2225.00,0.0005
2224.00,0.0004
2223.00,0.0005
2222.00,0.0005
2221.00,0.0006
2220.00,0.0007
2219.00,0.0007
2218.00,0.0007
2217.00,0.0007
2216.00,0.0006
2215.00,0.0006
2214.00,0.0006
2213.00,0.0006
2212.00,0.0007
2211.00,0.0007
2210.00,0.0005
2209.00,0.0003
2208.00,0.0003
2207.00,0.0003
2206.00,0.0003
2205.00,0.0004
2204.00,0.0004
2203.00,0.0006
2202.00,0.0007
2201.00,0.0008
2200.00,0.0008
2199.00,0.0007
2198.00,0.0006
2197.00,0.0006
2196.00,0.0006
2195.00,0.0008
2194.00,0.0010
2193.00,0.0012
2192.00,0.0013
2191.00,0.0012
2190.00,0.0011
2189.00,0.0010
2188.00,0.0009
2187.00,0.0009
2186.00,0.0009
2185.00,0.0009
2184.00,0.0008
2183.00,0.0006
2182.00,0.0003
2181.00,0.0002
2180.00,0.0002
2179.00,0.0003
2178.00,0.0004
2177.00,0.0004
2176.00,0.0003
2175.00,0.0001
2174.00,0.0001
2173.00,0.0003
2172.00,0.0004
2171.00,0.0005
2170.00,0.0008
2169.00,0.0011
2168.00,0.0015
2167.00,0.0017
2166.00,0.0019
2165.00,0.0021
2164.00,0.0024
2163.00,0.0028
2162.00,0.0028
2161.00,0.0023
2160.00,0.0011
2159.00,-0.0005
2158.00,-0.0019
2157.00,-0.0028
2156.00,-0.0031
2155.00,-0.0030
2154.00,-0.0028
2153.00,-0.0024
2152.00,-0.0020
2151.00,-0.0019
2150.00,-0.0019
2149.00,-0.0019
2148.00,-0.0018
2147.00,-0.0017
2146.00,-0.0017
2145.00,-0.0016
2144.00,-0.0016
2143.00,-0.0014
2142.00,-0.0012
2141.00,-0.0010
2140.00,-0.0009
2139.00,-0.0009
2138.00,-0.0009
2137.00,-0.0011
2136.00,-0.0013
2135.00,-0.0016
2134.00,-0.0017
2133.00,-0.0017
2132.00,-0.0016
2131.00,-0.0014
2130.00,-0.0013
2129.00,-0.0012
2128.00,-0.0012
2127.00,-0.0012
2126.00,-0.0011
2125.00,-0.0010
2124.00,-0.0008
2123.00,-0.0006
2122.00,-0.0005
2121.00,-0.0004
2120.00,-0.0003
2119.00,-0.0001
2118.00,0.0000
2117.00,0.0002
2116.00,0.0004
2115.00,0.0004
2114.00,0.0003
2113.00,0.0002
2112.00,0.0001
2111.00,0.0001
2110.00,0.0002
2109.00,0.0002
2108.00,0.0001
2107.00,0.0001
2106.00,0.0001
2105.00,0.0002
2104.00,0.0002
2103.00,0.0002
2102.00,0.0001
2101.00,0.0001
2100.00,0.0002
2099.00,0.0003
2098.00,0.0004
2097.00,0.0005
2096.00,0.0003
2095.00,0.0001
2094.00,-0.0001
2093.00,-0.0002
2092.00,-0.0002
2091.00,-0.0001
2090.00,0.0001
2089.00,0.0001
2088.00,0.0001
2087.00,0.0001
2086.00,-0.0001
2085.00,-0.0002
2084.00,-0.0002
2083.00,-0.0001
2082.00,0.0000
2081.00,0.0001
2080.00,0.0001
2079.00,0.0001
2078.00,0.0001
2077.00,0.0000
2076.00,0.0001
2075.00,0.0001
2074.00,0.0002
2073.00,0.0002
2072.00,0.0003
2071.00,0.0002
2070.00,0.0001
2069.00,-0.0000
2068.00,-0.0000
2067.00,-0.0000
2066.00,-0.0000
2065.00,-0.0001
2064.00,-0.0002
2063.00,-0.0002
2062.00,-0.0002
2061.00,-0.0002
2060.00,-0.0001
2059.00,-0.0002
2058.00,-0.0002
2057.00,-0.0001
2056.00,-0.0000
2055.00,0.0000
2054.00,0.0002
2053.00,0.0007
2052.00,0.0013
2051.00,0.0017
2050.00,0.0017
2049.00,0.0013
2048.00,0.0007
2047.00,0.0004
2046.00,0.0003
2045.00,0.0004
2044.00,0.0006
2043.00,0.0007
2042.00,0.0005
2041.00,0.0003
2040.00,0.0000
2039.00,-0.0002
2038.00,-0.0004
2037.00,-0.0004
2036.00,-0.0004
2035.00,-0.0002
2034.00,-0.0002
2033.00,-0.0002
2032.00,-0.0003
2031.00,-0.0006
2030.00,-0.0008
2029.00,-0.0009
2028.00,-0.0008
2027.00,-0.0007
2026.00,-0.0007
2025.00,-0.0008
2024.00,-0.0009
2023.00,-0.0010
2022.00,-0.0010
2021.00,-0.0009
2020.00,-0.0008
2019.00,-0.0008
2018.00,-0.0007
2017.00,-0.0006
2016.00,-0.0006
2015.00,-0.0007
2014.00,-0.0011
2013.00,-0.0014
2012.00,-0.0016
2011.00,-0.0016
2010.00,-0.0015
2009.00,-0.0015
2008.00,-0.0016
2007.00,-0.0018
2006.00,-0.0021
2005.00,-0.0022
2004.00,-0.0021
2003.00,-0.0019
2002.00,-0.0017
2001.00,-0.0014
2000.00,-0.0012
1999.00,-0.0010
1998.00,-0.0009
1997.00,-0.0010
1996.00,-0.0011
1995.00,-0.0012
1994.00,-0.0011
1993.00,-0.0010
1992.00,-0.0009
1991.00,-0.0007
1990.00,-0.0005
1989.00,-0.0003
1988.00,-0.0001
1987.00,0.0002
1986.00,0.0004
1985.00,0.0006
1984.00,0.0007
1983.00,0.0007
1982.00,0.0009
1981.00,0.0012
1980.00,0.0013
1979.00,0.0009
1978.00,0.0002
1977.00,-0.0005
1976.00,-0.0009
1975.00,-0.0010
1974.00,-0.0012
1973.00,-0.0014
1972.00,-0.0016
1971.00,-0.0018
1970.00,-0.0019
1969.00,-0.0019
1968.00,-0.0018
1967.00,-0.0015
1966.00,-0.0013
1965.00,-0.0013
1964.00,-0.0014
1963.00,-0.0016
1962.00,-0.0017
1961.00,-0.0016
1960.00,-0.0017
1959.00,-0.0019
1958.00,-0.0022
1957.00,-0.0023
1956.00,-0.0021
1955.00,-0.0019
1954.00,-0.0017
1953.00,-0.0016
1952.00,-0.0016
1951.00,-0.0017
1950.00,-0.0019
1949.00,-0.0021
1948.00,-0.0021
1947.00,-0.0022
1946.00,-0.0023
1945.00,-0.0023
1944.00,-0.0023
1943.00,-0.0022
1942.00,-0.0019
1941.00,-0.0017
1940.00,-0.0015
1939.00,-0.0014
1938.00,-0.0014
1937.00,-0.0013
1936.00,-0.0013
1935.00,-0.0012
1934.00,-0.0011
1933.00,-0.0010
1932.00,-0.0009
1931.00,-0.0008
1930.00,-0.0008
1929.00,-0.0007
1928.00,-0.0007
1927.00,-0.0007
1926.00,-0.0008
1925.00,-0.0009
1924.00,-0.0010
1923.00,-0.0010
1922.00,-0.0008
1921.00,-0.0006
1920.00,-0.0004
1919.00,-0.0002
1918.00,-0.0002
1917.00,-0.0002
1916.00,-0.0002
1915.00,-0.0002
1914.00,-0.0003
1913.00,-0.0004
1912.00,-0.0005
1911.00,-0.0007
1910.00,-0.0007
1909.00,-0.0007
1908.00,-0.0006
1907.00,-0.0005
1906.00,-0.0005
1905.00,-0.0005
1904.00,-0.0005
1903.00,-0.0004
1902.00,-0.0003
1901.00,-0.0002
1900.00,-0.0002
1899.00,-0.0001
1898.00,-0.0001
1897.00,-0.0001
1896.00,-0.0001
1895.00,-0.0002
1894.00,-0.0003
1893.00,-0.0003
1892.00,-0.0003
1891.00,-0.0002
1890.00,-0.0002
1889.00,-0.0002
1888.00,-0.0003
1887.00,-0.0003
1886.00,-0.0004
1885.00,-0.0005
1884.00,-0.0005
1883.00,-0.0005
1882.00,-0.0004
1881.00,-0.0004
1880.00,-0.0003
1879.00,-0.0002
1878.00,-0.0002
1877.00,-0.0002
1876.00,-0.0002
1875.00,-0.0003
1874.00,-0.0003
1873.00,-0.0002
1872.00,-0.0002
1871.00,-0.0001
1870.00,-0.0002
1869.00,-0.0002
1868.00,-0.0003
1867.00,-0.0003
1866.00,-0.0003
1865.00,-0.0003
1864.00,-0.0002
1863.00,-0.0002
1862.00,-0.0003
1861.00,-0.0003
1860.00,-0.0003
1859.00,-0.0003
1858.00,-0.0003
1857.00,-0.0003
1856.00,-0.0002
1855.00,-0.0002
1854.00,-0.0001
1853.00,-0.0001
1852.00,-0.0000
1851.00,-0.0000
1850.00,-0.0001
1849.00,-0.0001
1848.00,-0.0000
1847.00,-0.0001
1846.00,-0.0001
1845.00,-0.0002
1844.00,-0.0002
1843.00,-0.0001
1842.00,-0.0001
1841.00,-0.0000
1840.00,0.0000
1839.00,0.0000
1838.00,0.0000
1837.00,0.0001
1836.00,0.0001
1835.00,0.0002
1834.00,0.0002
1833.00,0.0001
1832.00,0.0001
1831.00,0.0000
1830.00,0.0000
1829.00,0.0001
1828.00,0.0002
1827.00,0.0002
1826.00,0.0001
1825.00,0.0001
1824.00,0.0000
1823.00,0.0001
1822.00,0.0001
1821.00,0.0001
1820.00,-0.0000
1819.00,-0.0002
1818.00,-0.0003
1817.00,-0.0003
1816.00,-0.0002
1815.00,-0.0000
1814.00,0.0001
1813.00,0.0001
1812.00,0.0001
1811.00,0.0001
1810.00,0.0001
1809.00,0.0001
1808.00,0.0001
1807.00,0.0002
1806.00,0.0002
1805.00,0.0002
1804.00,0.0003
1803.00,0.0003
1802.00,0.0002
1801.00,0.0002
1800.00,0.0002
1799.00,0.0002
1798.00,0.0003
1797.00,0.0003
1796.00,0.0003
1795.00,0.0004
1794.00,0.0004
1793.00,0.0004
1792.00,0.0005
1791.00,0.0005
1790.00,0.0004
1789.00,0.0004
1788.00,0.0005
1787.00,0.0005
1786.00,0.0005
1785.00,0.0005
1784.00,0.0006
1783.00,0.0006
1782.00,0.0006
1781.00,0.0005
1780.00,0.0005
1779.00,0.0005
1778.00,0.0004
1777.00,0.0005
1776.00,0.0005
1775.00,0.0005
1774.00,0.0006
1773.00,0.0006
1772.00,0.0006
1771.00,0.0007
1770.00,0.0008
1769.00,0.0008
1768.00,0.0009
1767.00,0.0009
1766.00,0.0009
1765.00,0.0009
1764.00,0.0009
1763.00,0.0009
1762.00,0.0009
1761.00,0.0008
1760.00,0.0009
1759.00,0.0009
1758.00,0.0010
1757.00,0.0010
1756.00,0.0010
1755.00,0.0011
1754.00,0.0011
1753.00,0.0011
1752.00,0.0011
1751.00,0.0011
1750.00,0.0012
1749.00,0.0012
1748.00,0.0013
1747.00,0.0013
1746.00,0.0014
1745.00,0.0015
1744.00,0.0015
1743.00,0.0016
1742.00,0.0016
1741.00,0.0016
1740.00,0.0016
1739.00,0.0016
1738.00,0.0016
1737.00,0.0016
1736.00,0.0016
1735.00,0.0016
1734.00,0.0016
1733.00,0.0017
1732.00,0.0017
1731.00,0.0017
1730.00,0.0018
1729.00,0.0018
1728.00,0.0018
1727.00,0.0018
1726.00,0.0018
1725.00,0.0018
1724.00,0.0018
1723.00,0.0018
1722.00,0.0018
1721.00,0.0019
1720.00,0.0019
1719.00,0.0018
1718.00,0.0017
1717.00,0.0016
1716.00,0.0017
1715.00,0.0017
1714.00,0.0018
1713.00,0.0018
1712.00,0.0018
1711.00,0.0019
1710.00,0.0019
1709.00,0.0019
1708.00,0.0019
1707.00,0.0019
1706.00,0.0019
1705.00,0.0020
1704.00,0.0020
1703.00,0.0021
1702.00,0.0021
1701.00,0.0021
1700.00,0.0022
1699.00,0.0022
1698.00,0.0023
1697.00,0.0023
1696.00,0.0023
1695.00,0.0024
1694.00,0.0024
1693.00,0.0024
1692.00,0.0025
1691.00,0.0025
1690.00,0.0024
1689.00,0.0024
1688.00,0.0024
1687.00,0.0025
1686.00,0.0025
1685.00,0.0025
1684.00,0.0025
1683.00,0.0025
1682.00,0.0026
1681.00,0.0026
1680.00,0.0027
1679.00,0.0028
1678.00,0.0029
1677.00,0.0029
1676.00,0.0029
1675.00,0.0029
1674.00,0.0029
1673.00,0.0030
1672.00,0.0031
1671.00,0.0032
1670.00,0.0033
1669.00,0.0033
1668.00,0.0034
1667.00,0.0033
1666.00,0.0033
1665.00,0.0033
1664.00,0.0033
1663.00,0.0033
1662.00,0.0034
1661.00,0.0035
1660.00,0.0037
1659.00,0.0037
1658.00,0.0037
1657.00,0.0038
1656.00,0.0038
1655.00,0.0039
1654.00,0.0039
1653.00,0.0039
1652.00,0.0039
1651.00,0.0039
1650.00,0.0039
1649.00,0.0040
1648.00,0.0041
1647.00,0.0042
1646.00,0.0043
1645.00,0.0043
1644.00,0.0043
1643.00,0.0043
1642.00,0.0043
1641.00,0.0044
1640.00,0.0044
1639.00,0.0044
1638.00,0.0045
1637.00,0.0045
1636.00,0.0046
1635.00,0.0045
1634.00,0.0045
1633.00,0.0045
1632.00,0.0045
1631.00,0.0045
1630.00,0.0045
1629.00,0.0045
1628.00,0.0045
1627.00,0.0045
1626.00,0.0045
1625.00,0.0045
1624.00,0.0044
1623.00,0.0044
1622.00,0.0043
1621.00,0.0043
1620.00,0.0044
1619.00,0.0044
1618.00,0.0044
1617.00,0.0043
1616.00,0.0043
1615.00,0.0043
1614.00,0.0042
1613.00,0.0042
1612.00,0.0043
1611.00,0.0043
1610.00,0.0043
1609.00,0.0043
1608.00,0.0043
1607.00,0.0043
1606.00,0.0042
1605.00,0.0042
1604.00,0.0042
1603.00,0.0042
1602.00,0.0042
1601.00,0.0041
1600.00,0.0041
1599.00,0.0041
1598.00,0.0041
1597.00,0.0041
1596.00,0.0041
1595.00,0.0041
1594.00,0.0040
1593.00,0.0039
1592.00,0.0039
1591.00,0.0039
1590.00,0.0039
1589.00,0.0039
1588.00,0.0040
1587.00,0.0040
1586.00,0.0040
1585.00,0.0040
1584.00,0.0041
1583.00,0.0041
1582.00,0.0041
1581.00,0.0042
1580.00,0.0042
1579.00,0.0043
1578.00,0.0042
1577.00,0.0042
1576.00,0.0042
1575.00,0.0042
1574.00,0.0042
1573.00,0.0042
1572.00,0.0042
1571.00,0.0041
1570.00,0.0041
1569.00,0.0041
1568.00,0.0041
1567.00,0.0042
1566.00,0.0042
1565.00,0.0043
1564.00,0.0043
1563.00,0.0044
1562.00,0.0044
1561.00,0.0044
1560.00,0.0044
1559.00,0.0045
1558.00,0.0046
1557.00,0.0047
1556.00,0.0047
1555.00,0.0048
1554.00,0.0048
1553.00,0.0048
1552.00,0.0049
1551.00,0.0049
1550.00,0.0050
1549.00,0.0050
1548.00,0.0050
1547.00,0.0050
1546.00,0.0050
1545.00,0.0051
1544.00,0.0052
1543.00,0.0053
1542.00,0.0052
1541.00,0.0052
1540.00,0.0051
1539.00,0.0051
1538.00,0.0050
1537.00,0.0050
1536.00,0.0051
1535.00,0.0050
1534.00,0.0049
1533.00,0.0048
1532.00,0.0047
1531.00,0.0047
1530.00,0.0046
1529.00,0.0046
1528.00,0.0046
1527.00,0.0045
1526.00,0.0044
1525.00,0.0044
1524.00,0.0045
1523.00,0.0045
1522.00,0.0045
1521.00,0.0045
1520.00,0.0045
1519.00,0.0045
1518.00,0.0045
1517.00,0.0046
1516.00,0.0047
1515.00,0.0047
1514.00,0.0047
1513.00,0.0048
1512.00,0.0050
1511.00,0.0050
1510.00,0.0050
1509.00,0.0051
1508.00,0.0052
1507.00,0.0052
1506.00,0.0054
1505.00,0.0055
1504.00,0.0057
1503.00,0.0058
1502.00,0.0060
1501.00,0.0062
1500.00,0.0065
1499.00,0.0067
1498.00,0.0069
1497.00,0.0073
1496.00,0.0077
1495.00,0.0080
1494.00,0.0083
1493.00,0.0087
1492.00,0.0091
1491.00,0.0094
1490.00,0.0097
1489.00,0.0102
1488.00,0.0107
1487.00,0.0110
1486.00,0.0115
1485.00,0.0120
1484.00,0.0126
1483.00,0.0133
1482.00,0.0141
1481.00,0.0151
1480.00,0.0162
1479.00,0.0174
1478.00,0.0187
1477.00,0.0206
1476.00,0.0228
1475.00,0.0254
1474.00,0.0289
1473.00,0.0342
1472.00,0.0408
1471.00,0.0473
1470.00,0.0535
1469.00,0.0601
1468.00,0.0672
1467.00,0.0750
1466.00,0.0841
1465.00,0.0941
1464.00,0.1030
1463.00,0.1094
1462.00,0.1138
1461.00,0.1171
1460.00,0.1195
1459.00,0.1213
1458.00,0.1230
1457.00,0.1246
1456.00,0.1254
1455.00,0.1254
1454.00,0.1250
1453.00,0.1239
1452.00,0.1216
1451.00,0.1179
1450.00,0.1126
1449.00,0.1049
1448.00,0.0950
1447.00,0.0845
1446.00,0.0750
1445.00,0.0668
1444.00,0.0598
1443.00,0.0542
1442.00,0.0500
1441.00,0.0472
1440.00,0.0454
1439.00,0.0447
1438.00,0.0447
1437.00,0.0447
1436.00,0.0435
1435.00,0.0406
1434.00,0.0366
1433.00,0.0319
1432.00,0.0270
1431.00,0.0228
1430.00,0.0196
1429.00,0.0172
1428.00,0.0156
1427.00,0.0146
1426.00,0.0139
1425.00,0.0133
1424.00,0.0127
1423.00,0.0124
1422.00,0.0122
1421.00,0.0120
1420.00,0.0117
1419.00,0.0114
1418.00,0.0114
1417.00,0.0112
1416.00,0.0110
1415.00,0.0109
1414.00,0.0108
1413.00,0.0108
1412.00,0.0106
1411.00,0.0106
1410.00,0.0106
1409.00,0.0106
1408.00,0.0105
1407.00,0.0105
1406.00,0.0106
1405.00,0.0106
1404.00,0.0106
1403.00,0.0106
1402.00,0.0108
1401.00,0.0110
1400.00,0.0111
1399.00,0.0113
1398.00,0.0116
1397.00,0.0118
1396.00,0.0120
1395.00,0.0125
1394.00,0.0131
1393.00,0.0137
1392.00,0.0144
1391.00,0.0153
1390.00,0.0166
1389.00,0.0183
1388.00,0.0210
1387.00,0.0250
1386.00,0.0303
1385.00,0.0369
1384.00,0.0455
1383.00,0.0571
1382.00,0.0723
1381.00,0.0916
1380.00,0.1154
1379.00,0.1429
1378.00,0.1700
1377.00,0.1906
1376.00,0.1988
1375.00,0.1904
1374.00,0.1675
1373.00,0.1389
1372.00,0.1122
1371.00,0.0899
1370.00,0.0719
1369.00,0.0582
1368.00,0.0488
1367.00,0.0429
1366.00,0.0397
1365.00,0.0385
1364.00,0.0388
1363.00,0.0403
1362.00,0.0426
1361.00,0.0451
1360.00,0.0468
1359.00,0.0473
1358.00,0.0460
1357.00,0.0432
1356.00,0.0391
1355.00,0.0346
1354.00,0.0302
1353.00,0.0264
1352.00,0.0234
1351.00,0.0211
1350.00,0.0192
1349.00,0.0176
1348.00,0.0164
1347.00,0.0154
1346.00,0.0146
1345.00,0.0139
1344.00,0.0134
1343.00,0.0131
1342.00,0.0128
1341.00,0.0125
1340.00,0.0122
1339.00,0.0120
1338.00,0.0118
1337.00,0.0117
1336.00,0.0118
1335.00,0.0120
1334.00,0.0123
1333.00,0.0128
1332.00,0.0132
1331.00,0.0136
1330.00,0.0137
1329.00,0.0136
1328.00,0.0132
1327.00,0.0126
1326.00,0.0120
1325.00,0.0113
1324.00,0.0106
1323.00,0.0100
1322.00,0.0096
1321.00,0.0092
1320.00,0.0090
1319.00,0.0087
1318.00,0.0085
1317.00,0.0083
1316.00,0.0081
1315.00,0.0081
1314.00,0.0081
1313.00,0.0082
1312.00,0.0084
1311.00,0.0087
1310.00,0.0091
1309.00,0.0099
1308.00,0.0109
1307.00,0.0121
1306.00,0.0134
1305.00,0.0142
1304.00,0.0145
1303.00,0.0143
1302.00,0.0137
1301.00,0.0132
1300.00,0.0128
1299.00,0.0127
1298.00,0.0127
1297.00,0.0128
1296.00,0.0127
1295.00,0.0125
1294.00,0.0121
1293.00,0.0115
1292.00,0.0109
1291.00,0.0104
1290.00,0.0098
1289.00,0.0094
1288.00,0.0090
1287.00,0.0088
1286.00,0.0086
1285.00,0.0084
1284.00,0.0082
1283.00,0.0080
1282.00,0.0078
1281.00,0.0077
1280.00,0.0076
1279.00,0.0075
1278.00,0.0074
1277.00,0.0074
1276.00,0.0073
1275.00,0.0073
1274.00,0.0074
1273.00,0.0074
1272.00,0.0074
1271.00,0.0074
1270.00,0.0074
1269.00,0.0074
1268.00,0.0074
1267.00,0.0075
1266.00,0.0076
1265.00,0.0078
1264.00,0.0081
1263.00,0.0084
1262.00,0.0088
1261.00,0.0093
1260.00,0.0100
1259.00,0.0108
1258.00,0.0116
1257.00,0.0123
1256.00,0.0127
1255.00,0.0127
1254.00,0.0121
1253.00,0.0113
1252.00,0.0105
1251.00,0.0098
1250.00,0.0093
1249.00,0.0089
1248.00,0.0086
1247.00,0.0084
1246.00,0.0083
1245.00,0.0082
1244.00,0.0081
1243.00,0.0080
1242.00,0.0080
1241.00,0.0079
1240.00,0.0078
1239.00,0.0077
1238.00,0.0075
1237.00,0.0074
1236.00,0.0073
1235.00,0.0073
1234.00,0.0073
1233.00,0.0073
1232.00,0.0073
1231.00,0.0073
1230.00,0.0073
1229.00,0.0073
1228.00,0.0074
1227.00,0.0076
1226.00,0.0078
1225.00,0.0080
1224.00,0.0083
1223.00,0.0086
1222.00,0.0090
1221.00,0.0093
1220.00,0.0095
1219.00,0.0096
1218.00,0.0095
1217.00,0.0094
1216.00,0.0092
1215.00,0.0089
1214.00,0.0086
1213.00,0.0083
1212.00,0.0080
1211.00,0.0077
1210.00,0.0075
1209.00,0.0073
1208.00,0.0072
1207.00,0.0071
1206.00,0.0070
1205.00,0.0069
1204.00,0.0068
1203.00,0.0068
1202.00,0.0068
1201.00,0.0068
1200.00,0.0067
1199.00,0.0067
1198.00,0.0067
1197.00,0.0067
1196.00,0.0066
1195.00,0.0067
1194.00,0.0067
1193.00,0.0067
1192.00,0.0067
1191.00,0.0067
1190.00,0.0068
1189.00,0.0068
1188.00,0.0068
1187.00,0.0069
1186.00,0.0069
1185.00,0.0070
1184.00,0.0071
1183.00,0.0073
1182.00,0.0075
1181.00,0.0078
1180.00,0.0082
1179.00,0.0088
1178.00,0.0095
1177.00,0.0105
1176.00,0.0118
1175.00,0.0135
1174.00,0.0157
1173.00,0.0184
1172.00,0.0217
1171.00,0.0253
1170.00,0.0288
1169.00,0.0317
1168.00,0.0336
1167.00,0.0341
1166.00,0.0334
1165.00,0.0318
1164.00,0.0298
1163.00,0.0277
1162.00,0.0257
1161.00,0.0240
1160.00,0.0227
1159.00,0.0217
1158.00,0.0210
1157.00,0.0205
1156.00,0.0202
1155.00,0.0199
1154.00,0.0197
1153.00,0.0194
1152.00,0.0190
1151.00,0.0183
1150.00,0.0175
1149.00,0.0165
1148.00,0.0155
1147.00,0.0145
1146.00,0.0136
1145.00,0.0129
1144.00,0.0122
1143.00,0.0115
1142.00,0.0108
1141.00,0.0102
1140.00,0.0096
1139.00,0.0092
1138.00,0.0089
1137.00,0.0086
1136.00,0.0083
1135.00,0.0081
1134.00,0.0079
1133.00,0.0076
1132.00,0.0074
1131.00,0.0074
1130.00,0.0074
1129.00,0.0076
1128.00,0.0078
1127.00,0.0079
1126.00,0.0079
1125.00,0.0079
1124.00,0.0079
1123.00,0.0079
1122.00,0.0079
1121.00,0.0080
1120.00,0.0081
1119.00,0.0081
1118.00,0.0082
1117.00,0.0082
1116.00,0.0084
1115.00,0.0085
1114.00,0.0086
1113.00,0.0088
1112.00,0.0089
1111.00,0.0092
1110.00,0.0095
1109.00,0.0100
1108.00,0.0105
1107.00,0.0112
1106.00,0.0120
1105.00,0.0127
1104.00,0.0133
1103.00,0.0136
1102.00,0.0136
1101.00,0.0133
1100.00,0.0128
1099.00,0.0122
1098.00,0.0115
1097.00,0.0109
1096.00,0.0103
1095.00,0.0099
1094.00,0.0095
1093.00,0.0092
1092.00,0.0089
1091.00,0.0087
1090.00,0.0084
1089.00,0.0081
1088.00,0.0079
1087.00,0.0078
1086.00,0.0077
1085.00,0.0075
1084.00,0.0074
1083.00,0.0073
1082.00,0.0072
1081.00,0.0072
1080.00,0.0072
1079.00,0.0072
1078.00,0.0071
1077.00,0.0070
1076.00,0.0069
1075.00,0.0069
1074.00,0.0069
1073.00,0.0070
1072.00,0.0071
1071.00,0.0071
1070.00,0.0072
1069.00,0.0071
1068.00,0.0071
1067.00,0.0070
1066.00,0.0070
1065.00,0.0070
1064.00,0.0070
1063.00,0.0070
1062.00,0.0070
1061.00,0.0071
1060.00,0.0072
1059.00,0.0072
1058.00,0.0073
1057.00,0.0073
1056.00,0.0072
1055.00,0.0072
1054.00,0.0072
1053.00,0.0072
1052.00,0.0074
1051.00,0.0077
1050.00,0.0079
1049.00,0.0082
1048.00,0.0085
1047.00,0.0088
1046.00,0.0092
1045.00,0.0094
1044.00,0.0094
1043.00,0.0092
1042.00,0.0090
1041.00,0.0086
1040.00,0.0084
1039.00,0.0082
1038.00,0.0081
1037.00,0.0081
1036.00,0.0080
1035.00,0.0080
1034.00,0.0079
1033.00,0.0079
1032.00,0.0079
1031.00,0.0078
1030.00,0.0079
1029.00,0.0079
1028.00,0.0079
1027.00,0.0080
1026.00,0.0080
1025.00,0.0080
1024.00,0.0080
1023.00,0.0080
1022.00,0.0080
1021.00,0.0079
1020.00,0.0080
1019.00,0.0081
1018.00,0.0083
1017.00,0.0086
1016.00,0.0090
1015.00,0.0094
1014.00,0.0097
1013.00,0.0101
1012.00,0.0104
1011.00,0.0108
1010.00,0.0111
1009.00,0.0116
1008.00,0.0122
1007.00,0.0129
1006.00,0.0140
1005.00,0.0154
1004.00,0.0173
1003.00,0.0197
1002.00,0.0229
1001.00,0.0267
1000.00,0.0307
999.00,0.0341
998.00,0.0358
997.00,0.0353
996.00,0.0326
995.00,0.0285
994.00,0.0241
993.00,0.0201
992.00,0.0170
991.00,0.0148
990.00,0.0132
989.00,0.0121
988.00,0.0115
987.00,0.0111
986.00,0.0110
985.00,0.0112
984.00,0.0116
983.00,0.0124
982.00,0.0136
981.00,0.0154
980.00,0.0179
979.00,0.0210
978.00,0.0249
977.00,0.0295
976.00,0.0345
975.00,0.0393
974.00,0.0430
973.00,0.0445
972.00,0.0433
971.00,0.0394
970.00,0.0340
969.00,0.0282
968.00,0.0233
967.00,0.0194
966.00,0.0166
965.00,0.0146
964.00,0.0130
963.00,0.0118
962.00,0.0108
961.00,0.0101
960.00,0.0096
959.00,0.0093
958.00,0.0090
957.00,0.0088
956.00,0.0085
955.00,0.0082
954.00,0.0079
953.00,0.0078
952.00,0.0077
951.00,0.0077
950.00,0.0076
949.00,0.0076
948.00,0.0076
947.00,0.0078
946.00,0.0080
945.00,0.0083
944.00,0.0086
943.00,0.0089
942.00,0.0092
941.00,0.0094
940.00,0.0093
939.00,0.0089
938.00,0.0085
937.00,0.0080
936.00,0.0077
935.00,0.0074
934.00,0.0071
933.00,0.0068
932.00,0.0066
931.00,0.0064
930.00,0.0063
929.00,0.0062
928.00,0.0062
927.00,0.0061
926.00,0.0061
925.00,0.0061
924.00,0.0062
923.00,0.0062
922.00,0.0063
921.00,0.0064
920.00,0.0065
919.00,0.0066
918.00,0.0068
917.00,0.0069
916.00,0.0069
915.00,0.0070
914.00,0.0071
913.00,0.0073
912.00,0.0074
911.00,0.0074
910.00,0.0075
909.00,0.0077
908.00,0.0080
907.00,0.0084
906.00,0.0091
905.00,0.0101
904.00,0.0115
903.00,0.0134
902.00,0.0155
901.00,0.0175
900.00,0.0188
899.00,0.0192
898.00,0.0184
897.00,0.0168
896.00,0.0148
895.00,0.0128
894.00,0.0111
893.00,0.0099
892.00,0.0089
891.00,0.0083
890.00,0.0078
889.00,0.0075
888.00,0.0073
887.00,0.0072
886.00,0.0072
885.00,0.0071
884.00,0.0071
883.00,0.0070
882.00,0.0069
881.00,0.0068
880.00,0.0068
879.00,0.0069
878.00,0.0070
877.00,0.0070
876.00,0.0070
875.00,0.0069
874.00,0.0069
873.00,0.0068
872.00,0.0069
871.00,0.0069
870.00,0.0069
869.00,0.0069
868.00,0.0070
867.00,0.0071
866.00,0.0072
865.00,0.0074
864.00,0.0075
863.00,0.0077
862.00,0.0079
861.00,0.0081
860.00,0.0083
859.00,0.0084
858.00,0.0086
857.00,0.0087
856.00,0.0088
855.00,0.0089
854.00,0.0091
853.00,0.0093
852.00,0.0096
851.00,0.0099
850.00,0.0104
849.00,0.0112
848.00,0.0123
847.00,0.0139
846.00,0.0164
845.00,0.0201
844.00,0.0251
843.00,0.0304
842.00,0.0345
841.00,0.0356
840.00,0.0333
839.00,0.0287
838.00,0.0235
837.00,0.0194
836.00,0.0165
835.00,0.0147
834.00,0.0136
833.00,0.0128
832.00,0.0122
831.00,0.0117
830.00,0.0113
829.00,0.0110
828.00,0.0107
827.00,0.0106
826.00,0.0106
825.00,0.0107
824.00,0.0106
823.00,0.0104
822.00,0.0103
821.00,0.0103
820.00,0.0104
819.00,0.0108
818.00,0.0112
817.00,0.0118
816.00,0.0125
815.00,0.0135
814.00,0.0149
813.00,0.0166
812.00,0.0184
811.00,0.0201
810.00,0.0212
809.00,0.0218
808.00,0.0216
807.00,0.0207
806.00,0.0192
805.00,0.0175
804.00,0.0158
803.00,0.0143
802.00,0.0131
801.00,0.0121
800.00,0.0113
799.00,0.0106
798.00,0.0100
797.00,0.0095
796.00,0.0093
795.00,0.0091
794.00,0.0089
793.00,0.0087
792.00,0.0084
791.00,0.0082
790.00,0.0080
789.00,0.0079
788.00,0.0076
787.00,0.0074
786.00,0.0071
785.00,0.0070
784.00,0.0069
783.00,0.0069
782.00,0.0067
781.00,0.0065
780.00,0.0062
779.00,0.0062
778.00,0.0062
777.00,0.0064
776.00,0.0065
775.00,0.0066
774.00,0.0068
773.00,0.0070
772.00,0.0073
771.00,0.0076
770.00,0.0078
769.00,0.0079
768.00,0.0078
767.00,0.0077
766.00,0.0075
765.00,0.0074
764.00,0.0073
763.00,0.0071
762.00,0.0068
761.00,0.0065
760.00,0.0061
759.00,0.0059
758.00,0.0057
757.00,0.0055
756.00,0.0052
755.00,0.0049
754.00,0.0047
753.00,0.0046
752.00,0.0047
751.00,0.0048
750.00,0.0049
749.00,0.0050
748.00,0.0051
747.00,0.0052
746.00,0.0053
745.00,0.0053
744.00,0.0053
743.00,0.0052
742.00,0.0050
741.00,0.0050
740.00,0.0050
739.00,0.0053
738.00,0.0055
737.00,0.0057
736.00,0.0059
735.00,0.0060
734.00,0.0063
733.00,0.0065
732.00,0.0066
731.00,0.0066
730.00,0.0066
729.00,0.0065
728.00,0.0064
727.00,0.0063
726.00,0.0062
725.00,0.0063
724.00,0.0064
723.00,0.0065
722.00,0.0066
721.00,0.0065
720.00,0.0062
719.00,0.0060
718.00,0.0058
717.00,0.0057
716.00,0.0058
715.00,0.0059
714.00,0.0060
713.00,0.0060
712.00,0.0060
711.00,0.0060
710.00,0.0060
709.00,0.0060
708.00,0.0060
707.00,0.0060
706.00,0.0060
705.00,0.0059
704.00,0.0057
703.00,0.0055
702.00,0.0053
701.00,0.0052
700.00,0.0052
699.00,0.0051
698.00,0.0050
697.00,0.0049
696.00,0.0048
695.00,0.0048
694.00,0.0048
693.00,0.0048
692.00,0.0047
691.00,0.0048
690.00,0.0049
689.00,0.0050
688.00,0.0051
687.00,0.0051
686.00,0.0050
685.00,0.0048
684.00,0.0047
683.00,0.0046
682.00,0.0047
681.00,0.0048
680.00,0.0049
679.00,0.0049
678.00,0.0047
677.00,0.0046
676.00,0.0046
675.00,0.0046
674.00,0.0046
673.00,0.0045
672.00,0.0045
671.00,0.0048
670.00,0.0053
669.00,0.0056
668.00,0.0056
667.00,0.0054
666.00,0.0051
665.00,0.0048
664.00,0.0047
663.00,0.0046
662.00,0.0047
661.00,0.0048
660.00,0.0050
659.00,0.0052
658.00,0.0052
657.00,0.0052
656.00,0.0052
655.00,0.0050
654.00,0.0049
653.00,0.0049
652.00,0.0050
651.00,0.0052
650.00,0.0052
649.00,0.0051
648.00,0.0049
647.00,0.0048
646.00,0.0048
645.00,0.0048
644.00,0.0049
643.00,0.0050
642.00,0.0051
641.00,0.0052
640.00,0.0053
639.00,0.0054
638.00,0.0056
637.00,0.0056
636.00,0.0054
635.00,0.0050
634.00,0.0048
633.00,0.0047
632.00,0.0048
631.00,0.0049
630.00,0.0049
629.00,0.0049
628.00,0.0050
627.00,0.0050
626.00,0.0051
625.00,0.0052
624.00,0.0054
623.00,0.0056
622.00,0.0056
621.00,0.0053
620.00,0.0049
619.00,0.0047
618.00,0.0048
617.00,0.0051
616.00,0.0055
615.00,0.0055
614.00,0.0054
613.00,0.0052
612.00,0.0051
611.00,0.0051
610.00,0.0053
609.00,0.0055
608.00,0.0057
607.00,0.0057
606.00,0.0054
605.00,0.0050
604.00,0.0048
603.00,0.0047
602.00,0.0048
601.00,0.0051
600.00,0.0053
599.00,0.0055
598.00,0.0055
597.00,0.0054
596.00,0.0054
595.00,0.0058
594.00,0.0062
593.00,0.0063
592.00,0.0059
591.00,0.0053
590.00,0.0047
589.00,0.0046
588.00,0.0049
587.00,0.0053
586.00,0.0057
585.00,0.0058
584.00,0.0058
583.00,0.0059
582.00,0.0060
581.00,0.0061
580.00,0.0061
579.00,0.0061
578.00,0.0060
577.00,0.0057
576.00,0.0053
575.00,0.0051
574.00,0.0053
573.00,0.0057
572.00,0.0060
571.00,0.0059
570.00,0.0055
569.00,0.0053
568.00,0.0055
567.00,0.0061
566.00,0.0066
565.00,0.0067
564.00,0.0065
563.00,0.0062
562.00,0.0060
561.00,0.0060
560.00,0.0060
559.00,0.0062
558.00,0.0063
557.00,0.0062
556.00,0.0060
555.00,0.0057
554.00,0.0056
553.00,0.0055
552.00,0.0056
551.00,0.0057
550.00,0.0057
549.00,0.0057
548.00,0.0056
547.00,0.0056
546.00,0.0058
545.00,0.0059
544.00,0.0058
543.00,0.0055
542.00,0.0053
541.00,0.0053
540.00,0.0055
539.00,0.0059
538.00,0.0065
537.00,0.0070
536.00,0.0071
535.00,0.0071
534.00,0.0072
533.00,0.0074
532.00,0.0077
531.00,0.0080
530.00,0.0084
529.00,0.0086
528.00,0.0088
527.00,0.0088
526.00,0.0090
525.00,0.0091
524.00,0.0090
523.00,0.0084
522.00,0.0077
521.00,0.0069
520.00,0.0064
519.00,0.0061
518.00,0.0059
517.00,0.0059
516.00,0.0061
515.00,0.0066
514.00,0.0069
513.00,0.0071
512.00,0.0068
511.00,0.0064
510.00,0.0059
509.00,0.0055
508.00,0.0055
507.00,0.0055
506.00,0.0054
505.00,0.0049
504.00,0.0041
503.00,0.0035
502.00,0.0034
501.00,0.0038
500.00,0.0045
499.00,0.0051
498.00,0.0056
497.00,0.0059
496.00,0.0061
495.00,0.0063
494.00,0.0065
493.00,0.0067
492.00,0.0068
491.00,0.0066
490.00,0.0063
489.00,0.0060
488.00,0.0060
487.00,0.0063
486.00,0.0068
485.00,0.0071
484.00,0.0075
483.00,0.0080
482.00,0.0083
481.00,0.0082
480.00,0.0075
479.00,0.0067
478.00,0.0060
477.00,0.0057
476.00,0.0058
475.00,0.0061
474.00,0.0064
473.00,0.0067
472.00,0.0075
471.00,0.0083
470.00,0.0088
469.00,0.0088
468.00,0.0085
467.00,0.0084
466.00,0.0086
465.00,0.0091
464.00,0.0097
463.00,0.0105
462.00,0.0115
461.00,0.0127
460.00,0.0142
459.00,0.0156
458.00,0.0161
457.00,0.0149
456.00,0.0129
455.00,0.0116
454.00,0.0116
453.00,0.0122
452.00,0.0124
451.00,0.0115
450.00,0.0100
