Created as New Dataset,Sample 103 By Administrator Date Wednesday, September 10 2025
cm-1,A
4000.00,0.0014
3999.00,0.0014
3998.00,0.0014
3997.00,0.0014
3996.00,0.0013
3995.00,0.0013
3994.00,0.0013
3993.00,0.0013
3992.00,0.0013
3991.00,0.0013
3990.00,0.0013
3989.00,0.0013
3988.00,0.0013
3987.00,0.0013
3986.00,0.0013
3985.00,0.0013
3984.00,0.0013
3983.00,0.0013
3982.00,0.0013
3981.00,0.0013
3980.00,0.0013
3979.00,0.0013
3978.00,0.0013
3977.00,0.0013
3976.00,0.0012
3975.00,0.0012
3974.00,0.0012
3973.00,0.0012
3972.00,0.0012
3971.00,0.0012
3970.00,0.0011
3969.00,0.0011
3968.00,0.0012
3967.00,0.0012
3966.00,0.0012
3965.00,0.0012
3964.00,0.0012
3963.00,0.0012
3962.00,0.0012
3961.00,0.0012
3960.00,0.0012
3959.00,0.0011
3958.00,0.0011
3957.00,0.0011
3956.00,0.0011
3955.00,0.0012
3954.00,0.0012
3953.00,0.0012
3952.00,0.0012
3951.00,0.0012
3950.00,0.0012
3949.00,0.0012
3948.00,0.0012
3947.00,0.0012
3946.00,0.0012
3945.00,0.0012
3944.00,0.0012
3943.00,0.0012
3942.00,0.0012
3941.00,0.0011
3940.00,0.0011
3939.00,0.0011
3938.00,0.0012
3937.00,0.0012
3936.00,0.0012
3935.00,0.0012
3934.00,0.0012
3933.00,0.0012
3932.00,0.0012
3931.00,0.0012
3930.00,0.0012
3929.00,0.0012
3928.00,0.0012
3927.00,0.0012
3926.00,0.0012
3925.00,0.0012
3924.00,0.0012
3923.00,0.0012
3922.00,0.0012
3921.00,0.0012
3920.00,0.0012
3919.00,0.0013
3918.00,0.0013
3917.00,0.0012
3916.00,0.0012
3915.00,0.0012
3914.00,0.0012
3913.00,0.0012
3912.00,0.0012
3911.00,0.0012
3910.00,0.0012
3909.00,0.0012
3908.00,0.0012
3907.00,0.0012
3906.00,0.0011
3905.00,0.0011
3904.00,0.0011
3903.00,0.0012
3902.00,0.0012
3901.00,0.0012
3900.00,0.0013
3899.00,0.0013
3898.00,0.0013
3897.00,0.0013
3896.00,0.0013
3895.00,0.0013
3894.00,0.0013
3893.00,0.0013
3892.00,0.0013
3891.00,0.0013
3890.00,0.0013
3889.00,0.0012
3888.00,0.0012
3887.00,0.0012
3886.00,0.0012
3885.00,0.0012
3884.00,0.0012
3883.00,0.0012
3882.00,0.0012
3881.00,0.0013
3880.00,0.0013
3879.00,0.0013
3878.00,0.0013
3877.00,0.0012
3876.00,0.0012
3875.00,0.0012
3874.00,0.0012
3873.00,0.0012
3872.00,0.0011
3871.00,0.0011
3870.00,0.0011
3869.00,0.0012
3868.00,0.0012
3867.00,0.0012
3866.00,0.0011
3865.00,0.0011
3864.00,0.0011
3863.00,0.0011
3862.00,0.0011
3861.00,0.0011
3860.00,0.0012
3859.00,0.0012
3858.00,0.0013
3857.00,0.0013
3856.00,0.0013
3855.00,0.0013
3854.00,0.0013
3853.00,0.0013
3852.00,0.0013
3851.00,0.0012
3850.00,0.0012
3849.00,0.0012
3848.00,0.0012
3847.00,0.0012
3846.00,0.0012
3845.00,0.0012
3844.00,0.0012
3843.00,0.0012
3842.00,0.0012
3841.00,0.0012
3840.00,0.0012
3839.00,0.0011
3838.00,0.0011
3837.00,0.0011
3836.00,0.0011
3835.00,0.0012
3834.00,0.0012
3833.00,0.0013
3832.00,0.0013
3831.00,0.0013
3830.00,0.0012
3829.00,0.0012
3828.00,0.0011
3827.00,0.0011
3826.00,0.0011
3825.00,0.0011
3824.00,0.0011
3823.00,0.0011
3822.00,0.0011
3821.00,0.0011
3820.00,0.0011
3819.00,0.0012
3818.00,0.0012
3817.00,0.0012
3816.00,0.0013
3815.00,0.0013
3814.00,0.0013
3813.00,0.0013
3812.00,0.0012
3811.00,0.0012
3810.00,0.0012
3809.00,0.0012
3808.00,0.0012
3807.00,0.0012
3806.00,0.0013
3805.00,0.0013
3804.00,0.0013
3803.00,0.0013
3802.00,0.0013
3801.00,0.0013
3800.00,0.0013
3799.00,0.0012
3798.00,0.0012
3797.00,0.0012
3796.00,0.0012
3795.00,0.0012
3794.00,0.0012
3793.00,0.0012
3792.00,0.0012
3791.00,0.0012
3790.00,0.0012
3789.00,0.0012
3788.00,0.0012
3787.00,0.0012
3786.00,0.0012
3785.00,0.0012
3784.00,0.0012
3783.00,0.0012
3782.00,0.0012
3781.00,0.0012
3780.00,0.0012
3779.00,0.0012
3778.00,0.0012
3777.00,0.0012
3776.00,0.0012
3775.00,0.0012
3774.00,0.0012
3773.00,0.0013
3772.00,0.0013
3771.00,0.0013
3770.00,0.0013
3769.00,0.0013
3768.00,0.0014
3767.00,0.0014
3766.00,0.0014
3765.00,0.0013
3764.00,0.0013
3763.00,0.0013
3762.00,0.0013
3761.00,0.0013
3760.00,0.0013
3759.00,0.0013
3758.00,0.0013
3757.00,0.0013
3756.00,0.0013
3755.00,0.0013
3754.00,0.0013
3753.00,0.0014
3752.00,0.0014
3751.00,0.0014
3750.00,0.0014
3749.00,0.0014
3748.00,0.0013
3747.00,0.0013
3746.00,0.0013
3745.00,0.0013
3744.00,0.0013
3743.00,0.0013
3742.00,0.0013
3741.00,0.0013
3740.00,0.0013
3739.00,0.0013
3738.00,0.0013
3737.00,0.0013
3736.00,0.0013
3735.00,0.0013
3734.00,0.0012
3733.00,0.0012
3732.00,0.0012
3731.00,0.0013
3730.00,0.0013
3729.00,0.0013
3728.00,0.0013
3727.00,0.0013
3726.00,0.0013
3725.00,0.0013
3724.00,0.0012
3723.00,0.0012
3722.00,0.0012
3721.00,0.0012
3720.00,0.0012
3719.00,0.0012
3718.00,0.0012
3717.00,0.0012
3716.00,0.0012
3715.00,0.0013
3714.00,0.0013
3713.00,0.0013
3712.00,0.0012
3711.00,0.0012
3710.00,0.0011
3709.00,0.0011
3708.00,0.0011
3707.00,0.0011
3706.00,0.0011
3705.00,0.0011
3704.00,0.0010
3703.00,0.0011
3702.00,0.0011
3701.00,0.0011
3700.00,0.0012
3699.00,0.0012
3698.00,0.0012
3697.00,0.0012
3696.00,0.0012
3695.00,0.0012
3694.00,0.0012
3693.00,0.0012
3692.00,0.0011
3691.00,0.0011
3690.00,0.0012
3689.00,0.0012
3688.00,0.0012
3687.00,0.0012
3686.00,0.0012
3685.00,0.0011
3684.00,0.0011
3683.00,0.0011
3682.00,0.0011
3681.00,0.0012
3680.00,0.0012
3679.00,0.0013
3678.00,0.0013
3677.00,0.0014
3676.00,0.0014
3675.00,0.0014
3674.00,0.0013
3673.00,0.0013
3672.00,0.0012
3671.00,0.0013
3670.00,0.0013
3669.00,0.0013
3668.00,0.0012
3667.00,0.0012
3666.00,0.0012
3665.00,0.0011
3664.00,0.0011
3663.00,0.0011
3662.00,0.0011
3661.00,0.0011
3660.00,0.0011
3659.00,0.0011
3658.00,0.0011
3657.00,0.0011
3656.00,0.0011
3655.00,0.0011
3654.00,0.0011
3653.00,0.0011
3652.00,0.0012
3651.00,0.0012
3650.00,0.0012
3649.00,0.0012
3648.00,0.0012
3647.00,0.0012
3646.00,0.0012
3645.00,0.0012
3644.00,0.0012
3643.00,0.0011
3642.00,0.0011
3641.00,0.0011
3640.00,0.0011
3639.00,0.0011
3638.00,0.0011
3637.00,0.0011
3636.00,0.0012
3635.00,0.0012
3634.00,0.0012
3633.00,0.0012
3632.00,0.0013
3631.00,0.0013
3630.00,0.0013
3629.00,0.0012
3628.00,0.0012
3627.00,0.0012
3626.00,0.0011
3625.00,0.0011
3624.00,0.0011
3623.00,0.0011
3622.00,0.0011
3621.00,0.0011
3620.00,0.0011
3619.00,0.0011
3618.00,0.0012
3617.00,0.0013
3616.00,0.0013
3615.00,0.0013
3614.00,0.0013
3613.00,0.0014
3612.00,0.0014
3611.00,0.0014
3610.00,0.0014
3609.00,0.0014
3608.00,0.0014
3607.00,0.0014
3606.00,0.0013
3605.00,0.0013
3604.00,0.0012
3603.00,0.0012
3602.00,0.0012
3601.00,0.0013
3600.00,0.0013
3599.00,0.0013
3598.00,0.0013
3597.00,0.0013
3596.00,0.0013
3595.00,0.0014
3594.00,0.0014
3593.00,0.0015
3592.00,0.0015
3591.00,0.0015
3590.00,0.0015
3589.00,0.0015
3588.00,0.0015
3587.00,0.0016
3586.00,0.0016
3585.00,0.0016
3584.00,0.0016
3583.00,0.0015
3582.00,0.0015
3581.00,0.0015
3580.00,0.0015
3579.00,0.0015
3578.00,0.0016
3577.00,0.0016
3576.00,0.0016
3575.00,0.0016
3574.00,0.0016
3573.00,0.0016
3572.00,0.0016
3571.00,0.0016
3570.00,0.0016
3569.00,0.0016
3568.00,0.0016
3567.00,0.0017
3566.00,0.0017
3565.00,0.0017
3564.00,0.0017
3563.00,0.0018
3562.00,0.0018
3561.00,0.0018
3560.00,0.0018
3559.00,0.0018
3558.00,0.0019
3557.00,0.0019
3556.00,0.0018
3555.00,0.0018
3554.00,0.0018
3553.00,0.0018
3552.00,0.0019
3551.00,0.0019
3550.00,0.0019
3549.00,0.0019
3548.00,0.0019
3547.00,0.0020
3546.00,0.0020
3545.00,0.0020
3544.00,0.0020
3543.00,0.0020
3542.00,0.0020
3541.00,0.0020
3540.00,0.0020
3539.00,0.0021
3538.00,0.0021
3537.00,0.0021
3536.00,0.0022
3535.00,0.0022
3534.00,0.0022
3533.00,0.0022
3532.00,0.0022
3531.00,0.0022
3530.00,0.0022
3529.00,0.0022
3528.00,0.0022
3527.00,0.0023
3526.00,0.0023
3525.00,0.0024
3524.00,0.0024
3523.00,0.0024
3522.00,0.0024
3521.00,0.0024
3520.00,0.0024
3519.00,0.0024
3518.00,0.0024
3517.00,0.0024
3516.00,0.0024
3515.00,0.0024
3514.00,0.0024
3513.00,0.0025
3512.00,0.0025
3511.00,0.0025
3510.00,0.0026
3509.00,0.0026
3508.00,0.0026
3507.00,0.0026
3506.00,0.0026
3505.00,0.0026
3504.00,0.0026
3503.00,0.0026
3502.00,0.0027
3501.00,0.0027
3500.00,0.0027
3499.00,0.0027
3498.00,0.0027
3497.00,0.0027
3496.00,0.0027
3495.00,0.0028
3494.00,0.0028
3493.00,0.0028
3492.00,0.0028
3491.00,0.0028
3490.00,0.0028
3489.00,0.0028
3488.00,0.0028
3487.00,0.0029
3486.00,0.0029
3485.00,0.0029
3484.00,0.0029
3483.00,0.0029
3482.00,0.0029
3481.00,0.0030
3480.00,0.0030
3479.00,0.0030
3478.00,0.0030
3477.00,0.0030
3476.00,0.0031
3475.00,0.0031
3474.00,0.0031
3473.00,0.0032
3472.00,0.0032
3471.00,0.0031
3470.00,0.0031
3469.00,0.0031
3468.00,0.0031
3467.00,0.0031
3466.00,0.0031
3465.00,0.0031
3464.00,0.0031
3463.00,0.0032
3462.00,0.0032
3461.00,0.0033
3460.00,0.0033
3459.00,0.0034
3458.00,0.0034
3457.00,0.0034
3456.00,0.0033
3455.00,0.0033
3454.00,0.0033
3453.00,0.0033
3452.00,0.0033
3451.00,0.0034
3450.00,0.0034
3449.00,0.0035
3448.00,0.0035
3447.00,0.0035
3446.00,0.0035
3445.00,0.0036
3444.00,0.0036
3443.00,0.0036
3442.00,0.0036
3441.00,0.0036
3440.00,0.0036
3439.00,0.0036
3438.00,0.0036
3437.00,0.0035
3436.00,0.0035
3435.00,0.0036
3434.00,0.0036
3433.00,0.0036
3432.00,0.0037
3431.00,0.0037
3430.00,0.0037
3429.00,0.0037
3428.00,0.0037
3427.00,0.0037
3426.00,0.0038
3425.00,0.0038
3424.00,0.0038
3423.00,0.0039
3422.00,0.0038
3421.00,0.0038
3420.00,0.0038
3419.00,0.0038
3418.00,0.0038
3417.00,0.0038
3416.00,0.0038
3415.00,0.0038
3414.00,0.0038
3413.00,0.0039
3412.00,0.0039
3411.00,0.0039
3410.00,0.0040
3409.00,0.0040
3408.00,0.0040
3407.00,0.0040
3406.00,0.0040
3405.00,0.0040
3404.00,0.0040
3403.00,0.0040
3402.00,0.0040
3401.00,0.0040
3400.00,0.0040
3399.00,0.0041
3398.00,0.0041
3397.00,0.0041
3396.00,0.0041
3395.00,0.0041
3394.00,0.0041
3393.00,0.0041
3392.00,0.0041
3391.00,0.0041
3390.00,0.0041
3389.00,0.0041
3388.00,0.0041
3387.00,0.0041
3386.00,0.0041
3385.00,0.0041
3384.00,0.0041
3383.00,0.0042
3382.00,0.0042
3381.00,0.0042
3380.00,0.0042
3379.00,0.0042
3378.00,0.0041
3377.00,0.0041
3376.00,0.0041
3375.00,0.0041
3374.00,0.0042
3373.00,0.0042
3372.00,0.0042
3371.00,0.0042
3370.00,0.0042
3369.00,0.0042
3368.00,0.0042
3367.00,0.0042
3366.00,0.0042
3365.00,0.0042
3364.00,0.0042
3363.00,0.0042
3362.00,0.0042
3361.00,0.0043
3360.00,0.0043
3359.00,0.0043
3358.00,0.0043
3357.00,0.0043
3356.00,0.0043
3355.00,0.0043
3354.00,0.0043
3353.00,0.0043
3352.00,0.0043
3351.00,0.0043
3350.00,0.0043
3349.00,0.0043
3348.00,0.0043
3347.00,0.0043
3346.00,0.0043
3345.00,0.0043
3344.00,0.0043
3343.00,0.0043
3342.00,0.0043
3341.00,0.0043
3340.00,0.0043
3339.00,0.0043
3338.00,0.0043
3337.00,0.0043
3336.00,0.0042
3335.00,0.0042
3334.00,0.0042
3333.00,0.0042
3332.00,0.0042
3331.00,0.0041
3330.00,0.0041
3329.00,0.0042
3328.00,0.0042
3327.00,0.0042
3326.00,0.0042
3325.00,0.0042
3324.00,0.0043
3323.00,0.0043
3322.00,0.0042
3321.00,0.0042
3320.00,0.0042
3319.00,0.0042
3318.00,0.0042
3317.00,0.0042
3316.00,0.0042
3315.00,0.0042
3314.00,0.0042
3313.00,0.0042
3312.00,0.0042
3311.00,0.0042
3310.00,0.0042
3309.00,0.0042
3308.00,0.0042
3307.00,0.0042
3306.00,0.0042
3305.00,0.0042
3304.00,0.0042
3303.00,0.0042
3302.00,0.0042
3301.00,0.0042
3300.00,0.0042
3299.00,0.0042
3298.00,0.0041
3297.00,0.0041
3296.00,0.0041
3295.00,0.0041
3294.00,0.0041
3293.00,0.0041
3292.00,0.0042
3291.00,0.0042
3290.00,0.0041
3289.00,0.0041
3288.00,0.0041
3287.00,0.0041
3286.00,0.0041
3285.00,0.0040
3284.00,0.0040
3283.00,0.0040
3282.00,0.0040
3281.00,0.0040
3280.00,0.0041
3279.00,0.0041
3278.00,0.0041
3277.00,0.0041
3276.00,0.0040
3275.00,0.0040
3274.00,0.0039
3273.00,0.0039
3272.00,0.0039
3271.00,0.0039
3270.00,0.0040
3269.00,0.0040
3268.00,0.0040
3267.00,0.0040
3266.00,0.0040
3265.00,0.0040
3264.00,0.0040
3263.00,0.0040
3262.00,0.0040
3261.00,0.0039
3260.00,0.0039
3259.00,0.0039
3258.00,0.0039
3257.00,0.0039
3256.00,0.0038
3255.00,0.0038
3254.00,0.0038
3253.00,0.0038
3252.00,0.0038
3251.00,0.0038
3250.00,0.0037
3249.00,0.0037
3248.00,0.0037
3247.00,0.0037
3246.00,0.0037
3245.00,0.0037
3244.00,0.0037
3243.00,0.0037
3242.00,0.0037
3241.00,0.0037
3240.00,0.0037
3239.00,0.0037
3238.00,0.0037
3237.00,0.0037
3236.00,0.0037
3235.00,0.0037
3234.00,0.0037
3233.00,0.0037
3232.00,0.0037
3231.00,0.0038
3230.00,0.0038
3229.00,0.0038
3228.00,0.0038
3227.00,0.0038
3226.00,0.0038
3225.00,0.0038
3224.00,0.0039
3223.00,0.0039
3222.00,0.0039
3221.00,0.0039
3220.00,0.0039
3219.00,0.0040
3218.00,0.0040
3217.00,0.0040
3216.00,0.0039
3215.00,0.0039
3214.00,0.0039
3213.00,0.0039
3212.00,0.0040
3211.00,0.0040
3210.00,0.0040
3209.00,0.0040
3208.00,0.0040
3207.00,0.0040
3206.00,0.0040
3205.00,0.0040
3204.00,0.0040
3203.00,0.0040
3202.00,0.0041
3201.00,0.0041
3200.00,0.0041
3199.00,0.0041
3198.00,0.0040
3197.00,0.0040
3196.00,0.0040
3195.00,0.0040
3194.00,0.0040
3193.00,0.0040
3192.00,0.0040
3191.00,0.0040
3190.00,0.0040
3189.00,0.0041
3188.00,0.0040
3187.00,0.0040
3186.00,0.0040
3185.00,0.0039
3184.00,0.0039
3183.00,0.0039
3182.00,0.0039
3181.00,0.0039
3180.00,0.0039
3179.00,0.0038
3178.00,0.0038
3177.00,0.0038
3176.00,0.0038
3175.00,0.0037
3174.00,0.0037
3173.00,0.0037
3172.00,0.0037
3171.00,0.0037
3170.00,0.0037
3169.00,0.0037
3168.00,0.0037
3167.00,0.0037
3166.00,0.0037
3165.00,0.0036
3164.00,0.0036
3163.00,0.0036
3162.00,0.0036
3161.00,0.0036
3160.00,0.0035
3159.00,0.0035
3158.00,0.0035
3157.00,0.0035
3156.00,0.0035
3155.00,0.0035
3154.00,0.0036
3153.00,0.0036
3152.00,0.0036
3151.00,0.0036
3150.00,0.0036
3149.00,0.0036
3148.00,0.0036
3147.00,0.0036
3146.00,0.0036
3145.00,0.0036
3144.00,0.0036
3143.00,0.0036
3142.00,0.0035
3141.00,0.0035
3140.00,0.0035
3139.00,0.0035
3138.00,0.0035
3137.00,0.0034
3136.00,0.0034
3135.00,0.0034
3134.00,0.0034
3133.00,0.0034
3132.00,0.0033
3131.00,0.0033
3130.00,0.0033
3129.00,0.0033
3128.00,0.0033
3127.00,0.0033
3126.00,0.0033
3125.00,0.0033
3124.00,0.0032
3123.00,0.0032
3122.00,0.0031
3121.00,0.0031
3120.00,0.0031
3119.00,0.0031
3118.00,0.0031
3117.00,0.0031
3116.00,0.0031
3115.00,0.0030
3114.00,0.0030
3113.00,0.0030
3112.00,0.0030
3111.00,0.0030
3110.00,0.0030
3109.00,0.0030
3108.00,0.0030
3107.00,0.0030
3106.00,0.0031
3105.00,0.0031
3104.00,0.0031
3103.00,0.0031
3102.00,0.0030
3101.00,0.0030
3100.00,0.0029
3099.00,0.0029
3098.00,0.0029
3097.00,0.0029
3096.00,0.0029
3095.00,0.0029
3094.00,0.0029
3093.00,0.0029
3092.00,0.0029
3091.00,0.0029
3090.00,0.0029
3089.00,0.0029
3088.00,0.0029
3087.00,0.0029
3086.00,0.0029
3085.00,0.0029
3084.00,0.0029
3083.00,0.0028
3082.00,0.0028
3081.00,0.0028
3080.00,0.0028
3079.00,0.0028
3078.00,0.0028
3077.00,0.0028
3076.00,0.0028
3075.00,0.0028
3074.00,0.0028
3073.00,0.0028
3072.00,0.0029
3071.00,0.0029
3070.00,0.0029
3069.00,0.0029
3068.00,0.0029
3067.00,0.0029
3066.00,0.0029
3065.00,0.0029
3064.00,0.0029
3063.00,0.0029
3062.00,0.0029
3061.00,0.0029
3060.00,0.0030
3059.00,0.0029
3058.00,0.0029
3057.00,0.0029
3056.00,0.0029
3055.00,0.0030
3054.00,0.0030
3053.00,0.0031
3052.00,0.0031
3051.00,0.0031
3050.00,0.0031
3049.00,0.0031
3048.00,0.0031
3047.00,0.0031
3046.00,0.0031
3045.00,0.0031
3044.00,0.0031
3043.00,0.0031
3042.00,0.0031
3041.00,0.0032
3040.00,0.0032
3039.00,0.0033
3038.00,0.0033
3037.00,0.0033
3036.00,0.0033
3035.00,0.0034
3034.00,0.0034
3033.00,0.0034
3032.00,0.0035
3031.00,0.0035
3030.00,0.0036
3029.00,0.0036
3028.00,0.0036
3027.00,0.0037
3026.00,0.0037
3025.00,0.0037
3024.00,0.0037
3023.00,0.0038
3022.00,0.0038
3021.00,0.0039
3020.00,0.0040
3019.00,0.0041
3018.00,0.0042
3017.00,0.0042
3016.00,0.0043
3015.00,0.0044
3014.00,0.0045
3013.00,0.0046
3012.00,0.0047
3011.00,0.0048
3010.00,0.0050
3009.00,0.0051
3008.00,0.0052
3007.00,0.0053
3006.00,0.0055
3005.00,0.0057
3004.00,0.0058
3003.00,0.0060
3002.00,0.0062
3001.00,0.0064
3000.00,0.0066
2999.00,0.0069
2998.00,0.0072
2997.00,0.0075
2996.00,0.0079
2995.00,0.0083
2994.00,0.0087
2993.00,0.0091
2992.00,0.0096
2991.00,0.0101
2990.00,0.0107
2989.00,0.0113
2988.00,0.0121
2987.00,0.0129
2986.00,0.0138
2985.00,0.0148
2984.00,0.0160
2983.00,0.0173
2982.00,0.0187
2981.00,0.0203
2980.00,0.0221
2979.00,0.0241
2978.00,0.0263
2977.00,0.0289
2976.00,0.0318
2975.00,0.0350
2974.00,0.0387
2973.00,0.0428
2972.00,0.0473
2971.00,0.0522
2970.00,0.0576
2969.00,0.0634
2968.00,0.0695
2967.00,0.0760
2966.00,0.0827
2965.00,0.0894
2964.00,0.0958
2963.00,0.1018
2962.00,0.1070
2961.00,0.1113
2960.00,0.1148
2959.00,0.1177
2958.00,0.1202
2957.00,0.1227
2956.00,0.1256
2955.00,0.1289
2954.00,0.1325
2953.00,0.1361
2952.00,0.1390
2951.00,0.1408
2950.00,0.1406
2949.00,0.1382
2948.00,0.1333
2947.00,0.1263
2946.00,0.1178
2945.00,0.1088
2944.00,0.1001
2943.00,0.0926
2942.00,0.0866
2941.00,0.0825
2940.00,0.0801
2939.00,0.0794
2938.00,0.0801
2937.00,0.0821
2936.00,0.0852
2935.00,0.0893
2934.00,0.0943
2933.00,0.1001
2932.00,0.1064
2931.00,0.1132
2930.00,0.1202
2929.00,0.1272
2928.00,0.1341
2927.00,0.1406
2926.00,0.1467
2925.00,0.1525
2924.00,0.1581
2923.00,0.1635
2922.00,0.1686
2921.00,0.1734
2920.00,0.1775
2919.00,0.1806
2918.00,0.1821
2917.00,0.1817
2916.00,0.1796
2915.00,0.1759
2914.00,0.1710
2913.00,0.1657
2912.00,0.1601
2911.00,0.1548
2910.00,0.1498
2909.00,0.1451
2908.00,0.1405
2907.00,0.1360
2906.00,0.1316
2905.00,0.1270
2904.00,0.1224
2903.00,0.1177
2902.00,0.1130
2901.00,0.1084
2900.00,0.1038
2899.00,0.0995
2898.00,0.0955
2897.00,0.0919
2896.00,0.0886
2895.00,0.0858
2894.00,0.0835
2893.00,0.0817
2892.00,0.0803
2891.00,0.0793
2890.00,0.0787
2889.00,0.0785
2888.00,0.0785
2887.00,0.0788
2886.00,0.0793
2885.00,0.0802
2884.00,0.0813
2883.00,0.0828
2882.00,0.0846
2881.00,0.0864
2880.00,0.0881
2879.00,0.0895
2878.00,0.0902
2877.00,0.0904
2876.00,0.0901
2875.00,0.0895
2874.00,0.0891
2873.00,0.0891
2872.00,0.0896
2871.00,0.0905
2870.00,0.0917
2869.00,0.0926
2868.00,0.0928
2867.00,0.0917
2866.00,0.0891
2865.00,0.0847
2864.00,0.0790
2863.00,0.0726
2862.00,0.0661
2861.00,0.0601
2860.00,0.0551
2859.00,0.0511
2858.00,0.0482
2857.00,0.0462
2856.00,0.0450
2855.00,0.0444
2854.00,0.0444
2853.00,0.0450
2852.00,0.0459
2851.00,0.0473
2850.00,0.0490
2849.00,0.0513
2848.00,0.0540
2847.00,0.0572
2846.00,0.0610
2845.00,0.0653
2844.00,0.0699
2843.00,0.0749
2842.00,0.0798
2841.00,0.0842
2840.00,0.0877
2839.00,0.0895
2838.00,0.0894
2837.00,0.0869
2836.00,0.0823
2835.00,0.0759
2834.00,0.0684
2833.00,0.0607
2832.00,0.0534
2831.00,0.0470
2830.00,0.0415
2829.00,0.0370
2828.00,0.0333
2827.00,0.0303
2826.00,0.0279
2825.00,0.0259
2824.00,0.0242
2823.00,0.0228
2822.00,0.0215
2821.00,0.0205
2820.00,0.0195
2819.00,0.0187
2818.00,0.0180
2817.00,0.0173
2816.00,0.0167
2815.00,0.0162
2814.00,0.0157
2813.00,0.0153
2812.00,0.0149
2811.00,0.0145
2810.00,0.0141
2809.00,0.0137
2808.00,0.0132
2807.00,0.0127
2806.00,0.0122
2805.00,0.0117
2804.00,0.0113
2803.00,0.0109
2802.00,0.0105
2801.00,0.0101
2800.00,0.0099
2799.00,0.0096
2798.00,0.0094
2797.00,0.0092
2796.00,0.0090
2795.00,0.0088
2794.00,0.0086
2793.00,0.0084
2792.00,0.0082
2791.00,0.0080
2790.00,0.0077
2789.00,0.0074
2788.00,0.0072
2787.00,0.0070
2786.00,0.0068
2785.00,0.0066
2784.00,0.0065
2783.00,0.0063
2782.00,0.0061
2781.00,0.0060
2780.00,0.0059
2779.00,0.0058
2778.00,0.0057
2777.00,0.0056
2776.00,0.0055
2775.00,0.0054
2774.00,0.0053
2773.00,0.0052
2772.00,0.0051
2771.00,0.0051
2770.00,0.0051
2769.00,0.0051
2768.00,0.0051
2767.00,0.0051
2766.00,0.0051
2765.00,0.0050
2764.00,0.0050
2763.00,0.0049
2762.00,0.0049
2761.00,0.0049
2760.00,0.0049
2759.00,0.0049
2758.00,0.0049
2757.00,0.0049
2756.00,0.0049
2755.00,0.0049
2754.00,0.0048
2753.00,0.0048
2752.00,0.0047
2751.00,0.0047
2750.00,0.0047
2749.00,0.0047
2748.00,0.0047
2747.00,0.0048
2746.00,0.0048
2745.00,0.0049
2744.00,0.0049
2743.00,0.0050
2742.00,0.0051
2741.00,0.0051
2740.00,0.0053
2739.00,0.0054
2738.00,0.0055
2737.00,0.0056
2736.00,0.0057
2735.00,0.0058
2734.00,0.0059
2733.00,0.0060
2732.00,0.0061
2731.00,0.0063
2730.00,0.0065
2729.00,0.0067
2728.00,0.0069
2727.00,0.0071
2726.00,0.0072
2725.00,0.0074
2724.00,0.0075
2723.00,0.0075
2722.00,0.0074
2721.00,0.0072
2720.00,0.0070
2719.00,0.0068
2718.00,0.0065
2717.00,0.0063
2716.00,0.0060
2715.00,0.0058
2714.00,0.0057
2713.00,0.0055
2712.00,0.0054
2711.00,0.0052
2710.00,0.0051
2709.00,0.0050
2708.00,0.0049
2707.00,0.0048
2706.00,0.0047
2705.00,0.0046
2704.00,0.0046
2703.00,0.0045
2702.00,0.0044
2701.00,0.0044
2700.00,0.0043
2699.00,0.0043
2698.00,0.0043
2697.00,0.0042
2696.00,0.0042
2695.00,0.0042
2694.00,0.0042
2693.00,0.0042
2692.00,0.0042
2691.00,0.0042
2690.00,0.0042
2689.00,0.0042
2688.00,0.0041
2687.00,0.0041
2686.00,0.0042
2685.00,0.0042
2684.00,0.0042
2683.00,0.0042
2682.00,0.0042
2681.00,0.0042
2680.00,0.0043
2679.00,0.0043
2678.00,0.0043
2677.00,0.0043
2676.00,0.0042
2675.00,0.0042
2674.00,0.0041
2673.00,0.0041
2672.00,0.0041
2671.00,0.0041
2670.00,0.0041
2669.00,0.0041
2668.00,0.0042
2667.00,0.0042
2666.00,0.0042
2665.00,0.0042
2664.00,0.0043
2663.00,0.0044
2662.00,0.0044
2661.00,0.0045
2660.00,0.0045
2659.00,0.0045
2658.00,0.0045
2657.00,0.0045
2656.00,0.0045
2655.00,0.0045
2654.00,0.0045
2653.00,0.0045
2652.00,0.0044
2651.00,0.0044
2650.00,0.0043
2649.00,0.0043
2648.00,0.0043
2647.00,0.0043
2646.00,0.0043
2645.00,0.0043
2644.00,0.0042
2643.00,0.0042
2642.00,0.0042
2641.00,0.0041
2640.00,0.0041
2639.00,0.0040
2638.00,0.0040
2637.00,0.0040
2636.00,0.0040
2635.00,0.0039
2634.00,0.0039
2633.00,0.0039
2632.00,0.0039
2631.00,0.0039
2630.00,0.0039
2629.00,0.0039
2628.00,0.0039
2627.00,0.0039
2626.00,0.0040
2625.00,0.0040
2624.00,0.0040
2623.00,0.0041
2622.00,0.0041
2621.00,0.0041
2620.00,0.0041
2619.00,0.0041
2618.00,0.0041
2617.00,0.0041
2616.00,0.0041
2615.00,0.0040
2614.00,0.0040
2613.00,0.0039
2612.00,0.0039
2611.00,0.0039
2610.00,0.0039
2609.00,0.0038
2608.00,0.0038
2607.00,0.0037
2606.00,0.0036
2605.00,0.0035
2604.00,0.0035
2603.00,0.0034
2602.00,0.0034
2601.00,0.0034
2600.00,0.0034
2599.00,0.0035
2598.00,0.0035
2597.00,0.0036
2596.00,0.0035
2595.00,0.0035
2594.00,0.0035
2593.00,0.0035
2592.00,0.0035
2591.00,0.0036
2590.00,0.0036
2589.00,0.0037
2588.00,0.0038
2587.00,0.0038
2586.00,0.0038
2585.00,0.0038
2584.00,0.0038
2583.00,0.0038
2582.00,0.0039
2581.00,0.0039
2580.00,0.0038
2579.00,0.0038
2578.00,0.0037
2577.00,0.0036
2576.00,0.0035
2575.00,0.0034
2574.00,0.0033
2573.00,0.0032
2572.00,0.0031
2571.00,0.0030
2570.00,0.0030
2569.00,0.0030
2568.00,0.0030
2567.00,0.0029
2566.00,0.0029
2565.00,0.0028
2564.00,0.0027
2563.00,0.0026
2562.00,0.0026
2561.00,0.0027
2560.00,0.0027
2559.00,0.0027
2558.00,0.0027
2557.00,0.0027
2556.00,0.0027
2555.00,0.0026
2554.00,0.0025
2553.00,0.0025
2552.00,0.0025
2551.00,0.0025
2550.00,0.0025
2549.00,0.0024
2548.00,0.0024
2547.00,0.0023
2546.00,0.0023
2545.00,0.0022
2544.00,0.0022
2543.00,0.0021
2542.00,0.0020
2541.00,0.0020
2540.00,0.0021
2539.00,0.0021
2538.00,0.0021
2537.00,0.0021
2536.00,0.0021
2535.00,0.0021
2534.00,0.0021
2533.00,0.0020
2532.00,0.0020
2531.00,0.0019
2530.00,0.0019
2529.00,0.0019
2528.00,0.0019
2527.00,0.0018
2526.00,0.0018
2525.00,0.0018
2524.00,0.0019
2523.00,0.0019
2522.00,0.0019
2521.00,0.0019
2520.00,0.0018
2519.00,0.0018
2518.00,0.0018
2517.00,0.0018
2516.00,0.0018
2515.00,0.0018
2514.00,0.0017
2513.00,0.0017
2512.00,0.0016
2511.00,0.0016
2510.00,0.0016
2509.00,0.0016
2508.00,0.0016
2507.00,0.0016
2506.00,0.0016
2505.00,0.0016
2504.00,0.0015
2503.00,0.0015
2502.00,0.0015
2501.00,0.0015
2500.00,0.0015
2499.00,0.0015
2498.00,0.0015
2497.00,0.0015
2496.00,0.0015
2495.00,0.0016
2494.00,0.0016
2493.00,0.0017
2492.00,0.0017
2491.00,0.0017
2490.00,0.0017
2489.00,0.0016
2488.00,0.0016
2487.00,0.0016
2486.00,0.0015
2485.00,0.0016
2484.00,0.0016
2483.00,0.0017
2482.00,0.0017
2481.00,0.0017
2480.00,0.0017
2479.00,0.0016
2478.00,0.0016
2477.00,0.0015
2476.00,0.0015
2475.00,0.0014
2474.00,0.0014
2473.00,0.0015
2472.00,0.0015
2471.00,0.0015
2470.00,0.0015
2469.00,0.0015
2468.00,0.0014
2467.00,0.0014
2466.00,0.0014
2465.00,0.0014
2464.00,0.0015
2463.00,0.0015
2462.00,0.0015
2461.00,0.0015
2460.00,0.0015
2459.00,0.0016
2458.00,0.0016
2457.00,0.0016
2456.00,0.0016
2455.00,0.0017
2454.00,0.0017
2453.00,0.0017
2452.00,0.0016
2451.00,0.0016
2450.00,0.0015
2449.00,0.0015
2448.00,0.0016
2447.00,0.0016
2446.00,0.0016
2445.00,0.0016
2444.00,0.0015
2443.00,0.0015
2442.00,0.0015
2441.00,0.0014
2440.00,0.0014
2439.00,0.0014
2438.00,0.0014
2437.00,0.0014
2436.00,0.0015
2435.00,0.0016
2434.00,0.0017
2433.00,0.0017
2432.00,0.0017
2431.00,0.0017
2430.00,0.0016
2429.00,0.0017
2428.00,0.0017
2427.00,0.0017
2426.00,0.0017
2425.00,0.0016
2424.00,0.0015
2423.00,0.0015
2422.00,0.0015
2421.00,0.0015
2420.00,0.0015
2419.00,0.0015
2418.00,0.0015
2417.00,0.0014
2416.00,0.0013
2415.00,0.0013
2414.00,0.0013
2413.00,0.0014
2412.00,0.0015
2411.00,0.0015
2410.00,0.0015
2409.00,0.0014
2408.00,0.0013
2407.00,0.0012
2406.00,0.0011
2405.00,0.0011
2404.00,0.0012
2403.00,0.0013
2402.00,0.0013
2401.00,0.0013
2400.00,0.0013
2399.00,0.0013
2398.00,0.0012
2397.00,0.0012
2396.00,0.0012
2395.00,0.0012
2394.00,0.0011
2393.00,0.0011
2392.00,0.0011
2391.00,0.0011
2390.00,0.0011
2389.00,0.0012
2388.00,0.0012
2387.00,0.0012
2386.00,0.0011
2385.00,0.0011
2384.00,0.0011
2383.00,0.0010
2382.00,0.0010
2381.00,0.0010
2380.00,0.0010
2379.00,0.0009
2378.00,0.0009
2377.00,0.0010
2376.00,0.0010
2375.00,0.0011
2374.00,0.0011
2373.00,0.0011
2372.00,0.0010
2371.00,0.0010
2370.00,0.0010
2369.00,0.0010
2368.00,0.0010
2367.00,0.0010
2366.00,0.0010
2365.00,0.0011
2364.00,0.0011
2363.00,0.0011
2362.00,0.0012
2361.00,0.0013
2360.00,0.0014
2359.00,0.0014
2358.00,0.0014
2357.00,0.0014
2356.00,0.0013
2355.00,0.0013
2354.00,0.0012
2353.00,0.0011
2352.00,0.0010
2351.00,0.0010
2350.00,0.0011
2349.00,0.0012
2348.00,0.0014
2347.00,0.0014
2346.00,0.0014
2345.00,0.0014
2344.00,0.0013
2343.00,0.0014
2342.00,0.0014
2341.00,0.0015
2340.00,0.0015
2339.00,0.0015
2338.00,0.0014
2337.00,0.0014
2336.00,0.0014
2335.00,0.0014
2334.00,0.0014
2333.00,0.0014
2332.00,0.0014
2331.00,0.0014
2330.00,0.0013
2329.00,0.0014
2328.00,0.0017
2327.00,0.0021
2326.00,0.0026
2325.00,0.0031
2324.00,0.0032
2323.00,0.0031
2322.00,0.0028
2321.00,0.0025
2320.00,0.0023
2319.00,0.0022
2318.00,0.0022
2317.00,0.0021
2316.00,0.0021
2315.00,0.0021
2314.00,0.0021
2313.00,0.0020
2312.00,0.0018
2311.00,0.0017
2310.00,0.0017
2309.00,0.0017
2308.00,0.0017
2307.00,0.0018
2306.00,0.0018
2305.00,0.0018
2304.00,0.0018
2303.00,0.0018
2302.00,0.0019
2301.00,0.0019
2300.00,0.0019
2299.00,0.0020
2298.00,0.0020
2297.00,0.0020
2296.00,0.0021
2295.00,0.0021
2294.00,0.0022
2293.00,0.0023
2292.00,0.0024
2291.00,0.0025
2290.00,0.0026
2289.00,0.0027
2288.00,0.0027
2287.00,0.0027
2286.00,0.0027
2285.00,0.0026
2284.00,0.0025
2283.00,0.0024
2282.00,0.0023
2281.00,0.0023
2280.00,0.0023
2279.00,0.0023
2278.00,0.0023
2277.00,0.0024
2276.00,0.0024
2275.00,0.0023
2274.00,0.0023
2273.00,0.0022
2272.00,0.0021
2271.00,0.0020
2270.00,0.0020
2269.00,0.0020
2268.00,0.0020
2267.00,0.0018
2266.00,0.0017
2265.00,0.0015
2264.00,0.0014
2263.00,0.0015
2262.00,0.0017
2261.00,0.0019
2260.00,0.0020
2259.00,0.0021
2258.00,0.0021
2257.00,0.0020
2256.00,0.0019
2255.00,0.0017
2254.00,0.0016
2253.00,0.0016
2252.00,0.0016
2251.00,0.0017
2250.00,0.0017
2249.00,0.0018
2248.00,0.0017
2247.00,0.0017
2246.00,0.0016
2245.00,0.0016
2244.00,0.0016
2243.00,0.0015
2242.00,0.0014
2241.00,0.0014
2240.00,0.0014
2239.00,0.0014
2238.00,0.0014
2237.00,0.0015
2236.00,0.0015
2235.00,0.0015
2234.00,0.0015
2233.00,0.0016
2232.00,0.0016
2231.00,0.0016
2230.00,0.0017
2229.00,0.0017
2228.00,0.0016
2227.00,0.0014
2226.00,0.0013
2225.00,0.0013
2224.00,0.0014
2223.00,0.0016
2222.00,0.0016
2221.00,0.0016
2220.00,0.0015
2219.00,0.0014
2218.00,0.0013
2217.00,0.0012
2216.00,0.0011
2215.00,0.0012
2214.00,0.0013
2213.00,0.0015
2212.00,0.0016
2211.00,0.0016
2210.00,0.0015
2209.00,0.0015
2208.00,0.0016
2207.00,0.0017
2206.00,0.0018
2205.00,0.0018
2204.00,0.0017
2203.00,0.0016
2202.00,0.0014
2201.00,0.0013
2200.00,0.0012
2199.00,0.0011
2198.00,0.0011
2197.00,0.0012
2196.00,0.0013
2195.00,0.0014
2194.00,0.0015
2193.00,0.0016
2192.00,0.0016
2191.00,0.0017
2190.00,0.0019
2189.00,0.0020
2188.00,0.0021
2187.00,0.0020
2186.00,0.0018
2185.00,0.0017
2184.00,0.0015
2183.00,0.0014
2182.00,0.0013
2181.00,0.0013
2180.00,0.0013
2179.00,0.0013
2178.00,0.0012
2177.00,0.0011
2176.00,0.0010
2175.00,0.0009
2174.00,0.0010
2173.00,0.0013
2172.00,0.0015
2171.00,0.0018
2170.00,0.0021
2169.00,0.0025
2168.00,0.0028
2167.00,0.0031
2166.00,0.0032
2165.00,0.0032
2164.00,0.0032
2163.00,0.0033
2162.00,0.0032
2161.00,0.0025
2160.00,0.0011
2159.00,-0.0008
2158.00,-0.0023
2157.00,-0.0030
2156.00,-0.0031
2155.00,-0.0028
2154.00,-0.0022
2153.00,-0.0016
2152.00,-0.0011
2151.00,-0.0007
2150.00,-0.0006
2149.00,-0.0005
2148.00,-0.0006
2147.00,-0.0008
2146.00,-0.0011
2145.00,-0.0012
2144.00,-0.0011
2143.00,-0.0009
2142.00,-0.0007
2141.00,-0.0005
2140.00,-0.0004
2139.00,-0.0004
2138.00,-0.0006
2137.00,-0.0007
2136.00,-0.0009
2135.00,-0.0012
2134.00,-0.0014
2133.00,-0.0015
2132.00,-0.0014
2131.00,-0.0012
2130.00,-0.0010
2129.00,-0.0008
2128.00,-0.0006
2127.00,-0.0004
2126.00,-0.0003
2125.00,-0.0002
2124.00,-0.0001
2123.00,0.0000
2122.00,0.0001
2121.00,0.0003
2120.00,0.0004
2119.00,0.0006
2118.00,0.0007
2117.00,0.0008
2116.00,0.0009
2115.00,0.0010
2114.00,0.0011
2113.00,0.0012
2112.00,0.0012
2111.00,0.0011
2110.00,0.0010
2109.00,0.0009
2108.00,0.0008
2107.00,0.0009
2106.00,0.0009
2105.00,0.0008
2104.00,0.0008
2103.00,0.0008
2102.00,0.0008
2101.00,0.0009
2100.00,0.0010
2099.00,0.0010
2098.00,0.0010
2097.00,0.0009
2096.00,0.0007
2095.00,0.0004
2094.00,0.0002
2093.00,0.0002
2092.00,0.0003
2091.00,0.0004
2090.00,0.0006
2089.00,0.0007
2088.00,0.0008
2087.00,0.0008
2086.00,0.0008
2085.00,0.0010
2084.00,0.0011
2083.00,0.0011
2082.00,0.0011
2081.00,0.0011
2080.00,0.0011
2079.00,0.0011
2078.00,0.0011
2077.00,0.0012
2076.00,0.0013
2075.00,0.0014
2074.00,0.0013
2073.00,0.0012
2072.00,0.0010
2071.00,0.0008
2070.00,0.0006
2069.00,0.0006
2068.00,0.0006
2067.00,0.0005
2066.00,0.0004
2065.00,0.0004
2064.00,0.0004
2063.00,0.0005
2062.00,0.0007
2061.00,0.0008
2060.00,0.0009
2059.00,0.0011
2058.00,0.0012
2057.00,0.0014
2056.00,0.0014
2055.00,0.0012
2054.00,0.0012
2053.00,0.0015
2052.00,0.0020
2051.00,0.0025
2050.00,0.0027
2049.00,0.0025
2048.00,0.0022
2047.00,0.0018
2046.00,0.0016
2045.00,0.0016
2044.00,0.0016
2043.00,0.0016
2042.00,0.0016
2041.00,0.0014
2040.00,0.0010
2039.00,0.0007
2038.00,0.0005
2037.00,0.0005
2036.00,0.0004
2035.00,0.0004
2034.00,0.0004
2033.00,0.0006
2032.00,0.0007
2031.00,0.0005
2030.00,0.0002
2029.00,0.0000
2028.00,-0.0000
2027.00,-0.0001
2026.00,-0.0000
2025.00,0.0000
2024.00,0.0002
2023.00,0.0003
2022.00,0.0003
2021.00,0.0002
2020.00,0.0001
2019.00,0.0001
2018.00,0.0004
2017.00,0.0008
2016.00,0.0009
2015.00,0.0007
2014.00,0.0003
2013.00,0.0000
2012.00,0.0000
2011.00,0.0003
2010.00,0.0005
2009.00,0.0005
2008.00,0.0001
2007.00,-0.0006
2006.00,-0.0010
2005.00,-0.0010
2004.00,-0.0008
2003.00,-0.0005
2002.00,-0.0004
2001.00,-0.0004
2000.00,-0.0003
1999.00,-0.0001
1998.00,0.0001
1997.00,0.0002
1996.00,0.0001
1995.00,-0.0000
1994.00,-0.0001
1993.00,-0.0000
1992.00,0.0001
1991.00,0.0001
1990.00,0.0001
1989.00,0.0002
1988.00,0.0004
1987.00,0.0006
1986.00,0.0008
1985.00,0.0010
1984.00,0.0013
1983.00,0.0016
1982.00,0.0019
1981.00,0.0021
1980.00,0.0019
1979.00,0.0014
1978.00,0.0007
1977.00,0.0000
1976.00,-0.0003
1975.00,-0.0004
1974.00,-0.0005
1973.00,-0.0007
1972.00,-0.0007
1971.00,-0.0005
1970.00,-0.0003
1969.00,0.0000
1968.00,0.0002
1967.00,0.0002
1966.00,0.0003
1965.00,0.0004
1964.00,0.0004
1963.00,0.0002
1962.00,-0.0002
1961.00,-0.0004
1960.00,-0.0006
1959.00,-0.0007
1958.00,-0.0007
1957.00,-0.0007
1956.00,-0.0006
1955.00,-0.0005
1954.00,-0.0004
1953.00,-0.0003
1952.00,-0.0003
1951.00,-0.0003
1950.00,-0.0004
1949.00,-0.0005
1948.00,-0.0006
1947.00,-0.0007
1946.00,-0.0008
1945.00,-0.0008
1944.00,-0.0007
1943.00,-0.0005
1942.00,-0.0004
1941.00,-0.0004
1940.00,-0.0003
1939.00,-0.0003
1938.00,-0.0002
1937.00,-0.0001
1936.00,-0.0001
1935.00,-0.0001
1934.00,-0.0001
1933.00,-0.0000
1932.00,0.0000
1931.00,0.0000
1930.00,0.0000
1929.00,0.0001
1928.00,0.0002
1927.00,0.0003
1926.00,0.0003
1925.00,0.0002
1924.00,0.0001
1923.00,0.0000
1922.00,0.0000
1921.00,0.0001
1920.00,0.0002
1919.00,0.0003
1918.00,0.0003
1917.00,0.0003
1916.00,0.0003
1915.00,0.0002
1914.00,0.0002
1913.00,0.0002
1912.00,0.0002
1911.00,0.0002
1910.00,0.0003
1909.00,0.0004
1908.00,0.0006
1907.00,0.0006
1906.00,0.0006
1905.00,0.0006
1904.00,0.0006
1903.00,0.0006
1902.00,0.0006
1901.00,0.0006
1900.00,0.0005
1899.00,0.0005
1898.00,0.0005
1897.00,0.0005
1896.00,0.0005
1895.00,0.0005
1894.00,0.0006
1893.00,0.0006
1892.00,0.0006
1891.00,0.0007
1890.00,0.0007
1889.00,0.0008
1888.00,0.0007
1887.00,0.0007
1886.00,0.0006
1885.00,0.0006
1884.00,0.0005
1883.00,0.0006
1882.00,0.0006
1881.00,0.0007
1880.00,0.0007
1879.00,0.0007
1878.00,0.0006
1877.00,0.0006
1876.00,0.0007
1875.00,0.0007
1874.00,0.0008
1873.00,0.0008
1872.00,0.0008
1871.00,0.0007
1870.00,0.0007
1869.00,0.0007
1868.00,0.0007
1867.00,0.0006
1866.00,0.0005
1865.00,0.0006
1864.00,0.0006
1863.00,0.0007
1862.00,0.0008
1861.00,0.0008
1860.00,0.0007
1859.00,0.0007
1858.00,0.0008
1857.00,0.0008
1856.00,0.0008
1855.00,0.0008
1854.00,0.0008
1853.00,0.0008
1852.00,0.0008
1851.00,0.0008
1850.00,0.0008
1849.00,0.0008
1848.00,0.0009
1847.00,0.0009
1846.00,0.0009
1845.00,0.0009
1844.00,0.0009
1843.00,0.0009
1842.00,0.0009
1841.00,0.0010
1840.00,0.0010
1839.00,0.0010
1838.00,0.0010
1837.00,0.0010
1836.00,0.0010
1835.00,0.0010
1834.00,0.0010
1833.00,0.0010
1832.00,0.0010
1831.00,0.0010
1830.00,0.0010
1829.00,0.0011
1828.00,0.0011
1827.00,0.0011
1826.00,0.0011
1825.00,0.0011
1824.00,0.0012
1823.00,0.0012
1822.00,0.0012
1821.00,0.0011
1820.00,0.0010
1819.00,0.0009
1818.00,0.0008
1817.00,0.0008
1816.00,0.0008
1815.00,0.0008
1814.00,0.0008
1813.00,0.0009
1812.00,0.0009
1811.00,0.0010
1810.00,0.0011
1809.00,0.0011
1808.00,0.0011
1807.00,0.0011
1806.00,0.0011
1805.00,0.0011
1804.00,0.0011
1803.00,0.0011
1802.00,0.0011
1801.00,0.0012
1800.00,0.0012
1799.00,0.0013
1798.00,0.0014
1797.00,0.0015
1796.00,0.0016
1795.00,0.0016
1794.00,0.0016
1793.00,0.0016
1792.00,0.0014
1791.00,0.0013
1790.00,0.0013
1789.00,0.0014
1788.00,0.0014
1787.00,0.0015
1786.00,0.0015
1785.00,0.0015
1784.00,0.0015
1783.00,0.0015
1782.00,0.0015
1781.00,0.0015
1780.00,0.0015
1779.00,0.0015
1778.00,0.0015
1777.00,0.0015
1776.00,0.0015
1775.00,0.0015
1774.00,0.0014
1773.00,0.0014
1772.00,0.0014
1771.00,0.0014
1770.00,0.0015
1769.00,0.0015
1768.00,0.0016
1767.00,0.0016
1766.00,0.0016
1765.00,0.0016
1764.00,0.0016
1763.00,0.0016
1762.00,0.0016
1761.00,0.0016
1760.00,0.0017
1759.00,0.0017
1758.00,0.0017
1757.00,0.0018
1756.00,0.0018
1755.00,0.0019
1754.00,0.0019
1753.00,0.0020
1752.00,0.0021
1751.00,0.0021
1750.00,0.0022
1749.00,0.0022
1748.00,0.0022
1747.00,0.0022
1746.00,0.0021
1745.00,0.0021
1744.00,0.0022
1743.00,0.0022
1742.00,0.0023
1741.00,0.0023
1740.00,0.0023
1739.00,0.0022
1738.00,0.0022
1737.00,0.0022
1736.00,0.0023
1735.00,0.0023
1734.00,0.0022
1733.00,0.0022
1732.00,0.0022
1731.00,0.0022
1730.00,0.0022
1729.00,0.0023
1728.00,0.0024
1727.00,0.0024
1726.00,0.0024
1725.00,0.0024
1724.00,0.0025
1723.00,0.0024
1722.00,0.0024
1721.00,0.0024
1720.00,0.0023
1719.00,0.0023
1718.00,0.0023
1717.00,0.0023
1716.00,0.0023
1715.00,0.0023
1714.00,0.0024
1713.00,0.0024
1712.00,0.0025
1711.00,0.0025
1710.00,0.0025
1709.00,0.0026
1708.00,0.0026
1707.00,0.0026
1706.00,0.0026
1705.00,0.0026
1704.00,0.0027
1703.00,0.0027
1702.00,0.0028
1701.00,0.0028
1700.00,0.0029
1699.00,0.0030
1698.00,0.0030
1697.00,0.0031
1696.00,0.0031
1695.00,0.0031
1694.00,0.0030
1693.00,0.0030
1692.00,0.0031
1691.00,0.0031
1690.00,0.0032
1689.00,0.0033
1688.00,0.0033
1687.00,0.0033
1686.00,0.0033
1685.00,0.0034
1684.00,0.0034
1683.00,0.0035
1682.00,0.0036
1681.00,0.0037
1680.00,0.0037
1679.00,0.0038
1678.00,0.0039
1677.00,0.0039
1676.00,0.0040
1675.00,0.0041
1674.00,0.0041
1673.00,0.0041
1672.00,0.0041
1671.00,0.0042
1670.00,0.0042
1669.00,0.0043
1668.00,0.0043
1667.00,0.0043
1666.00,0.0043
1665.00,0.0044
1664.00,0.0044
1663.00,0.0045
1662.00,0.0046
1661.00,0.0047
1660.00,0.0048
1659.00,0.0049
1658.00,0.0049
1657.00,0.0050
1656.00,0.0051
1655.00,0.0051
1654.00,0.0050
1653.00,0.0051
1652.00,0.0051
1651.00,0.0051
1650.00,0.0052
1649.00,0.0053
1648.00,0.0054
1647.00,0.0056
1646.00,0.0056
1645.00,0.0056
1644.00,0.0056
1643.00,0.0056
1642.00,0.0056
1641.00,0.0056
1640.00,0.0056
1639.00,0.0056
1638.00,0.0056
1637.00,0.0057
1636.00,0.0057
1635.00,0.0056
1634.00,0.0056
1633.00,0.0055
1632.00,0.0055
1631.00,0.0055
1630.00,0.0055
1629.00,0.0055
1628.00,0.0055
1627.00,0.0055
1626.00,0.0055
1625.00,0.0055
1624.00,0.0055
1623.00,0.0054
1622.00,0.0054
1621.00,0.0053
1620.00,0.0053
1619.00,0.0052
1618.00,0.0052
1617.00,0.0052
1616.00,0.0052
1615.00,0.0052
1614.00,0.0052
1613.00,0.0052
1612.00,0.0052
1611.00,0.0053
1610.00,0.0053
1609.00,0.0053
1608.00,0.0054
1607.00,0.0054
1606.00,0.0054
1605.00,0.0054
1604.00,0.0054
1603.00,0.0053
1602.00,0.0053
1601.00,0.0053
1600.00,0.0053
1599.00,0.0053
1598.00,0.0053
1597.00,0.0053
1596.00,0.0053
1595.00,0.0053
1594.00,0.0053
1593.00,0.0053
1592.00,0.0053
1591.00,0.0053
1590.00,0.0053
1589.00,0.0053
1588.00,0.0054
1587.00,0.0054
1586.00,0.0055
1585.00,0.0056
1584.00,0.0056
1583.00,0.0057
1582.00,0.0058
1581.00,0.0059
1580.00,0.0060
1579.00,0.0060
1578.00,0.0060
1577.00,0.0059
1576.00,0.0059
1575.00,0.0059
1574.00,0.0059
1573.00,0.0059
1572.00,0.0059
1571.00,0.0059
1570.00,0.0059
1569.00,0.0059
1568.00,0.0058
1567.00,0.0058
1566.00,0.0058
1565.00,0.0058
1564.00,0.0058
1563.00,0.0058
1562.00,0.0058
1561.00,0.0059
1560.00,0.0060
1559.00,0.0061
1558.00,0.0062
1557.00,0.0063
1556.00,0.0063
1555.00,0.0063
1554.00,0.0064
1553.00,0.0064
1552.00,0.0064
1551.00,0.0065
1550.00,0.0066
1549.00,0.0067
1548.00,0.0069
1547.00,0.0070
1546.00,0.0070
1545.00,0.0071
1544.00,0.0073
1543.00,0.0074
1542.00,0.0074
1541.00,0.0075
1540.00,0.0075
1539.00,0.0074
1538.00,0.0073
1537.00,0.0073
1536.00,0.0072
1535.00,0.0071
1534.00,0.0069
1533.00,0.0068
1532.00,0.0067
1531.00,0.0067
1530.00,0.0067
1529.00,0.0067
1528.00,0.0068
1527.00,0.0068
1526.00,0.0068
1525.00,0.0068
1524.00,0.0068
1523.00,0.0068
1522.00,0.0068
1521.00,0.0069
1520.00,0.0070
1519.00,0.0070
1518.00,0.0071
1517.00,0.0072
1516.00,0.0074
1515.00,0.0075
1514.00,0.0075
1513.00,0.0076
1512.00,0.0077
1511.00,0.0077
1510.00,0.0077
1509.00,0.0078
1508.00,0.0080
1507.00,0.0083
1506.00,0.0085
1505.00,0.0088
1504.00,0.0090
1503.00,0.0091
1502.00,0.0092
1501.00,0.0095
1500.00,0.0097
1499.00,0.0100
1498.00,0.0103
1497.00,0.0107
1496.00,0.0112
1495.00,0.0115
1494.00,0.0118
1493.00,0.0120
1492.00,0.0123
1491.00,0.0126
1490.00,0.0129
1489.00,0.0135
1488.00,0.0140
1487.00,0.0144
1486.00,0.0149
1485.00,0.0154
1484.00,0.0160
1483.00,0.0166
1482.00,0.0173
1481.00,0.0182
1480.00,0.0192
1479.00,0.0201
1478.00,0.0212
1477.00,0.0228
1476.00,0.0245
1475.00,0.0266
1474.00,0.0295
1473.00,0.0340
1472.00,0.0394
1471.00,0.0444
1470.00,0.0489
1469.00,0.0534
1468.00,0.0583
1467.00,0.0636
1466.00,0.0701
1465.00,0.0775
1464.00,0.0841
1463.00,0.0885
1462.00,0.0911
1461.00,0.0926
1460.00,0.0936
1459.00,0.0945
1458.00,0.0966
1457.00,0.0996
1456.00,0.1013
1455.00,0.1011
1454.00,0.0997
1453.00,0.0980
1452.00,0.0957
1451.00,0.0927
1450.00,0.0887
1449.00,0.0835
1448.00,0.0772
1447.00,0.0707
1446.00,0.0647
1445.00,0.0595
1444.00,0.0550
1443.00,0.0514
1442.00,0.0488
1441.00,0.0469
1440.00,0.0457
1439.00,0.0451
1438.00,0.0450
1437.00,0.0452
1436.00,0.0446
1435.00,0.0426
1434.00,0.0396
1433.00,0.0360
1432.00,0.0325
1431.00,0.0294
1430.00,0.0272
1429.00,0.0255
1428.00,0.0243
1427.00,0.0235
1426.00,0.0229
1425.00,0.0224
1424.00,0.0219
1423.00,0.0216
1422.00,0.0214
1421.00,0.0210
1420.00,0.0207
1419.00,0.0204
1418.00,0.0201
1417.00,0.0197
1416.00,0.0193
1415.00,0.0189
1414.00,0.0186
1413.00,0.0182
1412.00,0.0178
1411.00,0.0174
1410.00,0.0171
1409.00,0.0167
1408.00,0.0164
1407.00,0.0161
1406.00,0.0159
1405.00,0.0157
1404.00,0.0155
1403.00,0.0154
1402.00,0.0154
1401.00,0.0153
1400.00,0.0152
1399.00,0.0152
1398.00,0.0152
1397.00,0.0152
1396.00,0.0152
1395.00,0.0154
1394.00,0.0156
1393.00,0.0159
1392.00,0.0163
1391.00,0.0168
1390.00,0.0176
1389.00,0.0188
1388.00,0.0208
1387.00,0.0239
1386.00,0.0279
1385.00,0.0331
1384.00,0.0398
1383.00,0.0487
1382.00,0.0602
1381.00,0.0745
1380.00,0.0914
1379.00,0.1099
1378.00,0.1269
1377.00,0.1385
1376.00,0.1418
1375.00,0.1350
1374.00,0.1197
1373.00,0.1009
1372.00,0.0830
1371.00,0.0678
1370.00,0.0553
1369.00,0.0458
1368.00,0.0392
1367.00,0.0351
1366.00,0.0328
1365.00,0.0318
1364.00,0.0319
1363.00,0.0330
1362.00,0.0345
1361.00,0.0360
1360.00,0.0369
1359.00,0.0369
1358.00,0.0357
1357.00,0.0335
1356.00,0.0306
1355.00,0.0275
1354.00,0.0245
1353.00,0.0219
1352.00,0.0198
1351.00,0.0181
1350.00,0.0167
1349.00,0.0156
1348.00,0.0147
1347.00,0.0140
1346.00,0.0134
1345.00,0.0129
1344.00,0.0126
1343.00,0.0122
1342.00,0.0119
1341.00,0.0117
1340.00,0.0115
1339.00,0.0114
1338.00,0.0113
1337.00,0.0112
1336.00,0.0113
1335.00,0.0114
1334.00,0.0116
1333.00,0.0119
1332.00,0.0121
1331.00,0.0123
1330.00,0.0123
1329.00,0.0121
1328.00,0.0118
1327.00,0.0113
1326.00,0.0108
1325.00,0.0103
1324.00,0.0099
1323.00,0.0096
1322.00,0.0093
1321.00,0.0091
1320.00,0.0089
1319.00,0.0087
1318.00,0.0085
1317.00,0.0083
1316.00,0.0082
1315.00,0.0081
1314.00,0.0080
1313.00,0.0080
1312.00,0.0081
1311.00,0.0083
1310.00,0.0086
1309.00,0.0091
1308.00,0.0098
1307.00,0.0106
1306.00,0.0114
1305.00,0.0119
1304.00,0.0121
1303.00,0.0119
1302.00,0.0116
1301.00,0.0114
1300.00,0.0112
1299.00,0.0111
1298.00,0.0111
1297.00,0.0111
1296.00,0.0110
1295.00,0.0108
1294.00,0.0106
1293.00,0.0103
1292.00,0.0099
1291.00,0.0096
1290.00,0.0092
1289.00,0.0089
1288.00,0.0086
1287.00,0.0084
1286.00,0.0082
1285.00,0.0080
1284.00,0.0079
1283.00,0.0077
1282.00,0.0076
1281.00,0.0075
1280.00,0.0074
1279.00,0.0074
1278.00,0.0073
1277.00,0.0073
1276.00,0.0072
1275.00,0.0072
1274.00,0.0073
1273.00,0.0073
1272.00,0.0073
1271.00,0.0073
1270.00,0.0074
1269.00,0.0074
1268.00,0.0075
1267.00,0.0076
1266.00,0.0078
1265.00,0.0080
1264.00,0.0083
1263.00,0.0086
1262.00,0.0089
1261.00,0.0093
1260.00,0.0097
1259.00,0.0103
1258.00,0.0108
1257.00,0.0112
1256.00,0.0113
1255.00,0.0111
1254.00,0.0106
1253.00,0.0100
1252.00,0.0095
1251.00,0.0090
1250.00,0.0086
1249.00,0.0084
1248.00,0.0082
1247.00,0.0081
1246.00,0.0080
1245.00,0.0079
1244.00,0.0079
1243.00,0.0078
1242.00,0.0078
1241.00,0.0078
1240.00,0.0077
1239.00,0.0076
1238.00,0.0075
1237.00,0.0074
1236.00,0.0073
1235.00,0.0073
1234.00,0.0073
1233.00,0.0073
1232.00,0.0073
1231.00,0.0073
1230.00,0.0073
1229.00,0.0074
1228.00,0.0075
1227.00,0.0076
1226.00,0.0078
1225.00,0.0079
1224.00,0.0081
1223.00,0.0083
1222.00,0.0085
1221.00,0.0087
1220.00,0.0088
1219.00,0.0089
1218.00,0.0089
1217.00,0.0087
1216.00,0.0085
1215.00,0.0083
1214.00,0.0080
1213.00,0.0078
1212.00,0.0076
1211.00,0.0074
1210.00,0.0072
1209.00,0.0071
1208.00,0.0070
1207.00,0.0070
1206.00,0.0069
1205.00,0.0068
1204.00,0.0067
1203.00,0.0067
1202.00,0.0066
1201.00,0.0066
1200.00,0.0066
1199.00,0.0066
1198.00,0.0066
1197.00,0.0067
1196.00,0.0066
1195.00,0.0066
1194.00,0.0066
1193.00,0.0066
1192.00,0.0067
1191.00,0.0067
1190.00,0.0067
1189.00,0.0067
1188.00,0.0067
1187.00,0.0067
1186.00,0.0068
1185.00,0.0069
1184.00,0.0070
1183.00,0.0071
1182.00,0.0073
1181.00,0.0075
1180.00,0.0079
1179.00,0.0083
1178.00,0.0089
1177.00,0.0097
1176.00,0.0107
1175.00,0.0119
1174.00,0.0135
1173.00,0.0155
1172.00,0.0177
1171.00,0.0201
1170.00,0.0223
1169.00,0.0241
1168.00,0.0252
1167.00,0.0254
1166.00,0.0250
1165.00,0.0241
1164.00,0.0230
1163.00,0.0219
1162.00,0.0208
1161.00,0.0199
1160.00,0.0192
1159.00,0.0186
1158.00,0.0182
1157.00,0.0179
1156.00,0.0177
1155.00,0.0175
1154.00,0.0173
1153.00,0.0170
1152.00,0.0166
1151.00,0.0160
1150.00,0.0154
1149.00,0.0146
1148.00,0.0138
1147.00,0.0130
1146.00,0.0123
1145.00,0.0117
1144.00,0.0112
1143.00,0.0108
1142.00,0.0104
1141.00,0.0099
1140.00,0.0095
1139.00,0.0091
1138.00,0.0087
1137.00,0.0085
1136.00,0.0084
1135.00,0.0083
1134.00,0.0083
1133.00,0.0082
1132.00,0.0081
1131.00,0.0081
1130.00,0.0081
1129.00,0.0081
1128.00,0.0081
1127.00,0.0082
1126.00,0.0083
1125.00,0.0083
1124.00,0.0084
1123.00,0.0084
1122.00,0.0083
1121.00,0.0084
1120.00,0.0084
1119.00,0.0085
1118.00,0.0086
1117.00,0.0087
1116.00,0.0089
1115.00,0.0090
1114.00,0.0091
1113.00,0.0092
1112.00,0.0094
1111.00,0.0096
1110.00,0.0099
1109.00,0.0103
1108.00,0.0107
1107.00,0.0112
1106.00,0.0117
1105.00,0.0121
1104.00,0.0124
1103.00,0.0126
1102.00,0.0125
1101.00,0.0124
1100.00,0.0121
1099.00,0.0117
1098.00,0.0113
1097.00,0.0108
1096.00,0.0105
1095.00,0.0102
1094.00,0.0099
1093.00,0.0097
1092.00,0.0096
1091.00,0.0094
1090.00,0.0091
1089.00,0.0089
1088.00,0.0088
1087.00,0.0087
1086.00,0.0087
1085.00,0.0087
1084.00,0.0086
1083.00,0.0085
1082.00,0.0084
1081.00,0.0083
1080.00,0.0082
1079.00,0.0081
1078.00,0.0080
1077.00,0.0079
1076.00,0.0079
1075.00,0.0078
1074.00,0.0079
1073.00,0.0080
1072.00,0.0081
1071.00,0.0081
1070.00,0.0081
1069.00,0.0080
1068.00,0.0080
1067.00,0.0080
1066.00,0.0080
1065.00,0.0080
1064.00,0.0079
1063.00,0.0079
1062.00,0.0080
1061.00,0.0080
1060.00,0.0080
1059.00,0.0080
1058.00,0.0081
1057.00,0.0080
1056.00,0.0080
1055.00,0.0080
1054.00,0.0080
1053.00,0.0081
1052.00,0.0083
1051.00,0.0085
1050.00,0.0088
1049.00,0.0090
1048.00,0.0093
1047.00,0.0094
1046.00,0.0095
1045.00,0.0095
1044.00,0.0094
1043.00,0.0094
1042.00,0.0093
1041.00,0.0092
1040.00,0.0092
1039.00,0.0091
1038.00,0.0090
1037.00,0.0090
1036.00,0.0089
1035.00,0.0089
1034.00,0.0088
1033.00,0.0088
1032.00,0.0088
1031.00,0.0088
1030.00,0.0088
1029.00,0.0088
1028.00,0.0088
1027.00,0.0087
1026.00,0.0087
1025.00,0.0087
1024.00,0.0088
1023.00,0.0088
1022.00,0.0089
1021.00,0.0090
1020.00,0.0089
1019.00,0.0089
1018.00,0.0090
1017.00,0.0091
1016.00,0.0093
1015.00,0.0094
1014.00,0.0096
1013.00,0.0098
1012.00,0.0100
1011.00,0.0103
1010.00,0.0106
1009.00,0.0109
1008.00,0.0113
1007.00,0.0118
1006.00,0.0125
1005.00,0.0134
1004.00,0.0147
1003.00,0.0163
1002.00,0.0185
1001.00,0.0210
1000.00,0.0235
999.00,0.0255
998.00,0.0263
997.00,0.0256
996.00,0.0236
995.00,0.0209
994.00,0.0181
993.00,0.0156
992.00,0.0135
991.00,0.0120
990.00,0.0110
989.00,0.0104
988.00,0.0100
987.00,0.0099
986.00,0.0099
985.00,0.0101
984.00,0.0104
983.00,0.0110
982.00,0.0119
981.00,0.0133
980.00,0.0152
979.00,0.0177
978.00,0.0207
977.00,0.0241
976.00,0.0276
975.00,0.0306
974.00,0.0326
973.00,0.0330
972.00,0.0317
971.00,0.0288
970.00,0.0251
969.00,0.0213
968.00,0.0181
967.00,0.0156
966.00,0.0138
965.00,0.0124
964.00,0.0113
963.00,0.0105
962.00,0.0098
961.00,0.0092
960.00,0.0088
959.00,0.0085
958.00,0.0082
957.00,0.0080
956.00,0.0078
955.00,0.0076
954.00,0.0075
953.00,0.0073
952.00,0.0072
951.00,0.0071
950.00,0.0071
949.00,0.0071
948.00,0.0071
947.00,0.0073
946.00,0.0074
945.00,0.0075
944.00,0.0076
943.00,0.0078
942.00,0.0080
941.00,0.0081
940.00,0.0081
939.00,0.0079
938.00,0.0075
937.00,0.0072
936.00,0.0068
935.00,0.0065
934.00,0.0064
933.00,0.0063
932.00,0.0062
931.00,0.0061
930.00,0.0060
929.00,0.0059
928.00,0.0058
927.00,0.0057
926.00,0.0057
925.00,0.0058
924.00,0.0058
923.00,0.0058
922.00,0.0059
921.00,0.0059
920.00,0.0061
919.00,0.0063
918.00,0.0064
917.00,0.0064
916.00,0.0064
915.00,0.0064
914.00,0.0065
913.00,0.0066
912.00,0.0066
911.00,0.0067
910.00,0.0067
909.00,0.0067
908.00,0.0069
907.00,0.0073
906.00,0.0080
905.00,0.0089
904.00,0.0101
903.00,0.0115
902.00,0.0129
901.00,0.0142
900.00,0.0151
899.00,0.0154
898.00,0.0149
897.00,0.0138
896.00,0.0124
895.00,0.0110
894.00,0.0099
893.00,0.0090
892.00,0.0083
891.00,0.0077
890.00,0.0074
889.00,0.0073
888.00,0.0072
887.00,0.0072
886.00,0.0073
885.00,0.0074
884.00,0.0075
883.00,0.0077
882.00,0.0080
881.00,0.0085
880.00,0.0091
879.00,0.0098
878.00,0.0104
877.00,0.0109
876.00,0.0112
875.00,0.0113
874.00,0.0112
873.00,0.0107
872.00,0.0100
871.00,0.0092
870.00,0.0085
869.00,0.0080
868.00,0.0078
867.00,0.0077
866.00,0.0076
865.00,0.0075
864.00,0.0075
863.00,0.0075
862.00,0.0075
861.00,0.0076
860.00,0.0077
859.00,0.0078
858.00,0.0078
857.00,0.0079
856.00,0.0079
855.00,0.0081
854.00,0.0083
853.00,0.0086
852.00,0.0089
851.00,0.0094
850.00,0.0099
849.00,0.0105
848.00,0.0114
847.00,0.0126
846.00,0.0144
845.00,0.0168
844.00,0.0198
843.00,0.0229
842.00,0.0249
841.00,0.0249
840.00,0.0229
839.00,0.0198
838.00,0.0167
837.00,0.0144
836.00,0.0130
835.00,0.0121
834.00,0.0116
833.00,0.0112
832.00,0.0109
831.00,0.0106
830.00,0.0105
829.00,0.0103
828.00,0.0102
827.00,0.0100
826.00,0.0099
825.00,0.0097
824.00,0.0096
823.00,0.0097
822.00,0.0098
821.00,0.0099
820.00,0.0100
819.00,0.0101
818.00,0.0103
817.00,0.0106
816.00,0.0113
815.00,0.0122
814.00,0.0133
813.00,0.0147
812.00,0.0160
811.00,0.0171
810.00,0.0178
809.00,0.0179
808.00,0.0174
807.00,0.0166
806.00,0.0155
805.00,0.0145
804.00,0.0135
803.00,0.0127
802.00,0.0121
801.00,0.0115
800.00,0.0111
799.00,0.0107
798.00,0.0103
797.00,0.0100
796.00,0.0096
795.00,0.0093
794.00,0.0090
793.00,0.0087
792.00,0.0084
791.00,0.0081
790.00,0.0078
789.00,0.0077
788.00,0.0076
787.00,0.0073
786.00,0.0071
785.00,0.0068
784.00,0.0067
783.00,0.0066
782.00,0.0064
781.00,0.0062
780.00,0.0059
779.00,0.0058
778.00,0.0059
777.00,0.0062
776.00,0.0064
775.00,0.0064
774.00,0.0063
773.00,0.0063
772.00,0.0063
771.00,0.0066
770.00,0.0069
769.00,0.0072
768.00,0.0073
767.00,0.0074
766.00,0.0073
765.00,0.0072
764.00,0.0070
763.00,0.0066
762.00,0.0062
761.00,0.0059
760.00,0.0057
759.00,0.0056
758.00,0.0056
757.00,0.0055
756.00,0.0055
755.00,0.0054
754.00,0.0054
753.00,0.0054
752.00,0.0055
751.00,0.0056
750.00,0.0057
749.00,0.0057
748.00,0.0057
747.00,0.0057
746.00,0.0056
745.00,0.0056
744.00,0.0056
743.00,0.0057
742.00,0.0057
741.00,0.0057
740.00,0.0056
739.00,0.0056
738.00,0.0056
737.00,0.0056
736.00,0.0057
735.00,0.0059
734.00,0.0062
733.00,0.0064
732.00,0.0064
731.00,0.0065
730.00,0.0064
729.00,0.0064
728.00,0.0064
727.00,0.0064
726.00,0.0063
725.00,0.0061
724.00,0.0059
723.00,0.0059
722.00,0.0059
721.00,0.0060
720.00,0.0060
719.00,0.0061
718.00,0.0062
717.00,0.0062
716.00,0.0061
715.00,0.0061
714.00,0.0062
713.00,0.0063
712.00,0.0064
711.00,0.0063
710.00,0.0062
709.00,0.0061
708.00,0.0060
707.00,0.0060
706.00,0.0060
705.00,0.0060
704.00,0.0059
703.00,0.0060
702.00,0.0061
701.00,0.0061
700.00,0.0061
699.00,0.0059
698.00,0.0057
697.00,0.0054
696.00,0.0053
695.00,0.0052
694.00,0.0052
693.00,0.0054
692.00,0.0056
691.00,0.0058
690.00,0.0060
689.00,0.0059
688.00,0.0058
687.00,0.0056
686.00,0.0056
685.00,0.0057
684.00,0.0058
683.00,0.0058
682.00,0.0057
681.00,0.0054
680.00,0.0052
679.00,0.0051
678.00,0.0052
677.00,0.0054
676.00,0.0056
675.00,0.0058
674.00,0.0057
673.00,0.0056
672.00,0.0055
671.00,0.0056
670.00,0.0059
669.00,0.0060
668.00,0.0057
667.00,0.0054
666.00,0.0053
665.00,0.0053
664.00,0.0053
663.00,0.0054
662.00,0.0055
661.00,0.0055
660.00,0.0054
659.00,0.0054
658.00,0.0053
657.00,0.0054
656.00,0.0054
655.00,0.0053
654.00,0.0052
653.00,0.0051
652.00,0.0050
651.00,0.0050
650.00,0.0052
649.00,0.0054
648.00,0.0055
647.00,0.0055
646.00,0.0054
645.00,0.0053
644.00,0.0052
643.00,0.0052
642.00,0.0053
641.00,0.0054
640.00,0.0056
639.00,0.0056
638.00,0.0056
637.00,0.0056
636.00,0.0056
635.00,0.0057
634.00,0.0058
633.00,0.0059
632.00,0.0057
631.00,0.0055
630.00,0.0054
629.00,0.0054
628.00,0.0056
627.00,0.0058
626.00,0.0059
625.00,0.0057
624.00,0.0055
623.00,0.0053
622.00,0.0054
621.00,0.0056
620.00,0.0058
619.00,0.0059
618.00,0.0059
617.00,0.0060
616.00,0.0059
615.00,0.0058
614.00,0.0056
613.00,0.0055
612.00,0.0055
611.00,0.0056
610.00,0.0059
609.00,0.0062
608.00,0.0065
607.00,0.0067
606.00,0.0066
605.00,0.0064
604.00,0.0063
603.00,0.0061
602.00,0.0059
601.00,0.0058
600.00,0.0059
599.00,0.0061
598.00,0.0064
597.00,0.0065
596.00,0.0064
595.00,0.0062
594.00,0.0060
593.00,0.0058
592.00,0.0057
591.00,0.0057
590.00,0.0057
589.00,0.0060
588.00,0.0065
587.00,0.0069
586.00,0.0070
585.00,0.0066
584.00,0.0061
583.00,0.0058
582.00,0.0056
581.00,0.0057
580.00,0.0059
579.00,0.0061
578.00,0.0063
577.00,0.0063
576.00,0.0062
575.00,0.0062
574.00,0.0063
573.00,0.0065
572.00,0.0066
571.00,0.0065
570.00,0.0061
569.00,0.0056
568.00,0.0054
567.00,0.0054
566.00,0.0056
565.00,0.0059
564.00,0.0062
563.00,0.0064
562.00,0.0065
561.00,0.0064
560.00,0.0062
559.00,0.0060
558.00,0.0060
557.00,0.0059
556.00,0.0059
555.00,0.0058
554.00,0.0058
553.00,0.0060
552.00,0.0063
551.00,0.0065
550.00,0.0065
549.00,0.0063
548.00,0.0062
547.00,0.0064
546.00,0.0067
545.00,0.0069
544.00,0.0069
543.00,0.0069
542.00,0.0069
541.00,0.0071
540.00,0.0072
539.00,0.0073
538.00,0.0074
537.00,0.0075
536.00,0.0076
535.00,0.0077
534.00,0.0077
533.00,0.0077
532.00,0.0077
531.00,0.0078
530.00,0.0081
529.00,0.0085
528.00,0.0086
527.00,0.0085
526.00,0.0081
525.00,0.0076
524.00,0.0073
523.00,0.0073
522.00,0.0075
521.00,0.0077
520.00,0.0077
519.00,0.0075
518.00,0.0073
517.00,0.0074
516.00,0.0074
515.00,0.0071
514.00,0.0065
513.00,0.0058
512.00,0.0054
511.00,0.0054
510.00,0.0056
509.00,0.0057
508.00,0.0057
507.00,0.0060
506.00,0.0064
505.00,0.0065
504.00,0.0063
503.00,0.0061
502.00,0.0061
501.00,0.0062
500.00,0.0059
499.00,0.0054
498.00,0.0050
497.00,0.0052
496.00,0.0055
495.00,0.0056
494.00,0.0057
493.00,0.0058
492.00,0.0060
491.00,0.0058
490.00,0.0054
489.00,0.0050
488.00,0.0047
487.00,0.0047
486.00,0.0050
485.00,0.0055
484.00,0.0059
483.00,0.0060
482.00,0.0057
481.00,0.0054
480.00,0.0056
479.00,0.0062
478.00,0.0070
477.00,0.0078
476.00,0.0082
475.00,0.0084
474.00,0.0085
473.00,0.0084
472.00,0.0079
471.00,0.0067
470.00,0.0055
469.00,0.0053
468.00,0.0062
467.00,0.0080
466.00,0.0099
465.00,0.0115
464.00,0.0125
463.00,0.0127
462.00,0.0121
461.00,0.0115
460.00,0.0112
459.00,0.0110
458.00,0.0104
457.00,0.0098
456.00,0.0098
455.00,0.0104
454.00,0.0111
453.00,0.0116
452.00,0.0117
451.00,0.0114
450.00,0.0108
