Created as New Dataset,Sample 179 By Administrator Date Wednesday, September 10 2025
cm-1,A
4000.00,0.0028
3999.00,0.0028
3998.00,0.0028
3997.00,0.0028
3996.00,0.0028
3995.00,0.0028
3994.00,0.0027
3993.00,0.0027
3992.00,0.0027
3991.00,0.0028
3990.00,0.0028
3989.00,0.0028
3988.00,0.0028
3987.00,0.0028
3986.00,0.0028
3985.00,0.0028
3984.00,0.0028
3983.00,0.0027
3982.00,0.0027
3981.00,0.0027
3980.00,0.0027
3979.00,0.0027
3978.00,0.0027
3977.00,0.0026
3976.00,0.0026
3975.00,0.0026
3974.00,0.0026
3973.00,0.0026
3972.00,0.0026
3971.00,0.0027
3970.00,0.0027
3969.00,0.0027
3968.00,0.0027
3967.00,0.0027
3966.00,0.0027
3965.00,0.0027
3964.00,0.0027
3963.00,0.0027
3962.00,0.0027
3961.00,0.0026
3960.00,0.0026
3959.00,0.0026
3958.00,0.0026
3957.00,0.0026
3956.00,0.0027
3955.00,0.0027
3954.00,0.0027
3953.00,0.0027
3952.00,0.0027
3951.00,0.0027
3950.00,0.0027
3949.00,0.0027
3948.00,0.0026
3947.00,0.0026
3946.00,0.0027
3945.00,0.0027
3944.00,0.0027
3943.00,0.0027
3942.00,0.0027
3941.00,0.0027
3940.00,0.0027
3939.00,0.0027
3938.00,0.0027
3937.00,0.0027
3936.00,0.0027
3935.00,0.0027
3934.00,0.0027
3933.00,0.0027
3932.00,0.0027
3931.00,0.0027
3930.00,0.0027
3929.00,0.0027
3928.00,0.0027
3927.00,0.0027
3926.00,0.0027
3925.00,0.0027
3924.00,0.0027
3923.00,0.0027
3922.00,0.0027
3921.00,0.0026
3920.00,0.0026
3919.00,0.0026
3918.00,0.0026
3917.00,0.0026
3916.00,0.0027
3915.00,0.0027
3914.00,0.0027
3913.00,0.0027
3912.00,0.0026
3911.00,0.0026
3910.00,0.0026
3909.00,0.0026
3908.00,0.0026
3907.00,0.0026
3906.00,0.0026
3905.00,0.0027
3904.00,0.0027
3903.00,0.0027
3902.00,0.0027
3901.00,0.0026
3900.00,0.0026
3899.00,0.0026
3898.00,0.0026
3897.00,0.0026
3896.00,0.0026
3895.00,0.0026
3894.00,0.0027
3893.00,0.0027
3892.00,0.0027
3891.00,0.0027
3890.00,0.0027
3889.00,0.0027
3888.00,0.0027
3887.00,0.0027
3886.00,0.0026
3885.00,0.0026
3884.00,0.0026
3883.00,0.0026
3882.00,0.0026
3881.00,0.0027
3880.00,0.0027
3879.00,0.0027
3878.00,0.0027
3877.00,0.0027
3876.00,0.0027
3875.00,0.0027
3874.00,0.0026
3873.00,0.0026
3872.00,0.0025
3871.00,0.0025
3870.00,0.0025
3869.00,0.0026
3868.00,0.0026
3867.00,0.0027
3866.00,0.0027
3865.00,0.0027
3864.00,0.0027
3863.00,0.0027
3862.00,0.0026
3861.00,0.0026
3860.00,0.0025
3859.00,0.0025
3858.00,0.0025
3857.00,0.0025
3856.00,0.0025
3855.00,0.0025
3854.00,0.0025
3853.00,0.0025
3852.00,0.0025
3851.00,0.0025
3850.00,0.0025
3849.00,0.0025
3848.00,0.0025
3847.00,0.0025
3846.00,0.0025
3845.00,0.0025
3844.00,0.0026
3843.00,0.0026
3842.00,0.0026
3841.00,0.0026
3840.00,0.0025
3839.00,0.0025
3838.00,0.0024
3837.00,0.0024
3836.00,0.0024
3835.00,0.0025
3834.00,0.0025
3833.00,0.0025
3832.00,0.0025
3831.00,0.0025
3830.00,0.0025
3829.00,0.0025
3828.00,0.0025
3827.00,0.0025
3826.00,0.0025
3825.00,0.0025
3824.00,0.0025
3823.00,0.0025
3822.00,0.0025
3821.00,0.0025
3820.00,0.0025
3819.00,0.0025
3818.00,0.0025
3817.00,0.0026
3816.00,0.0027
3815.00,0.0027
3814.00,0.0027
3813.00,0.0026
3812.00,0.0026
3811.00,0.0026
3810.00,0.0025
3809.00,0.0025
3808.00,0.0025
3807.00,0.0025
3806.00,0.0025
3805.00,0.0025
3804.00,0.0025
3803.00,0.0025
3802.00,0.0025
3801.00,0.0025
3800.00,0.0025
3799.00,0.0025
3798.00,0.0025
3797.00,0.0025
3796.00,0.0025
3795.00,0.0025
3794.00,0.0025
3793.00,0.0025
3792.00,0.0025
3791.00,0.0025
3790.00,0.0025
3789.00,0.0025
3788.00,0.0026
3787.00,0.0026
3786.00,0.0026
3785.00,0.0026
3784.00,0.0026
3783.00,0.0026
3782.00,0.0026
3781.00,0.0026
3780.00,0.0026
3779.00,0.0026
3778.00,0.0026
3777.00,0.0026
3776.00,0.0025
3775.00,0.0025
3774.00,0.0025
3773.00,0.0025
3772.00,0.0025
3771.00,0.0025
3770.00,0.0025
3769.00,0.0025
3768.00,0.0026
3767.00,0.0026
3766.00,0.0026
3765.00,0.0026
3764.00,0.0026
3763.00,0.0026
3762.00,0.0026
3761.00,0.0026
3760.00,0.0026
3759.00,0.0026
3758.00,0.0026
3757.00,0.0026
3756.00,0.0025
3755.00,0.0025
3754.00,0.0025
3753.00,0.0024
3752.00,0.0024
3751.00,0.0024
3750.00,0.0024
3749.00,0.0024
3748.00,0.0024
3747.00,0.0024
3746.00,0.0024
3745.00,0.0024
3744.00,0.0025
3743.00,0.0025
3742.00,0.0025
3741.00,0.0025
3740.00,0.0025
3739.00,0.0025
3738.00,0.0024
3737.00,0.0024
3736.00,0.0024
3735.00,0.0024
3734.00,0.0023
3733.00,0.0023
3732.00,0.0023
3731.00,0.0023
3730.00,0.0024
3729.00,0.0024
3728.00,0.0024
3727.00,0.0024
3726.00,0.0024
3725.00,0.0024
3724.00,0.0024
3723.00,0.0023
3722.00,0.0023
3721.00,0.0022
3720.00,0.0022
3719.00,0.0022
3718.00,0.0023
3717.00,0.0023
3716.00,0.0024
3715.00,0.0024
3714.00,0.0024
3713.00,0.0024
3712.00,0.0024
3711.00,0.0024
3710.00,0.0025
3709.00,0.0025
3708.00,0.0025
3707.00,0.0025
3706.00,0.0025
3705.00,0.0024
3704.00,0.0024
3703.00,0.0024
3702.00,0.0024
3701.00,0.0023
3700.00,0.0023
3699.00,0.0023
3698.00,0.0023
3697.00,0.0023
3696.00,0.0023
3695.00,0.0023
3694.00,0.0022
3693.00,0.0022
3692.00,0.0021
3691.00,0.0021
3690.00,0.0022
3689.00,0.0022
3688.00,0.0023
3687.00,0.0024
3686.00,0.0024
3685.00,0.0024
3684.00,0.0024
3683.00,0.0024
3682.00,0.0024
3681.00,0.0023
3680.00,0.0023
3679.00,0.0023
3678.00,0.0023
3677.00,0.0024
3676.00,0.0024
3675.00,0.0024
3674.00,0.0024
3673.00,0.0024
3672.00,0.0024
3671.00,0.0024
3670.00,0.0024
3669.00,0.0023
3668.00,0.0023
3667.00,0.0023
3666.00,0.0023
3665.00,0.0023
3664.00,0.0024
3663.00,0.0024
3662.00,0.0024
3661.00,0.0024
3660.00,0.0024
3659.00,0.0024
3658.00,0.0024
3657.00,0.0024
3656.00,0.0024
3655.00,0.0023
3654.00,0.0023
3653.00,0.0023
3652.00,0.0023
3651.00,0.0025
3650.00,0.0026
3649.00,0.0026
3648.00,0.0026
3647.00,0.0025
3646.00,0.0024
3645.00,0.0024
3644.00,0.0024
3643.00,0.0024
3642.00,0.0024
3641.00,0.0025
3640.00,0.0025
3639.00,0.0025
3638.00,0.0025
3637.00,0.0025
3636.00,0.0025
3635.00,0.0024
3634.00,0.0024
3633.00,0.0023
3632.00,0.0023
3631.00,0.0024
3630.00,0.0024
3629.00,0.0025
3628.00,0.0025
3627.00,0.0025
3626.00,0.0025
3625.00,0.0025
3624.00,0.0026
3623.00,0.0026
3622.00,0.0026
3621.00,0.0026
3620.00,0.0025
3619.00,0.0026
3618.00,0.0026
3617.00,0.0027
3616.00,0.0027
3615.00,0.0027
3614.00,0.0027
3613.00,0.0028
3612.00,0.0028
3611.00,0.0029
3610.00,0.0029
3609.00,0.0029
3608.00,0.0028
3607.00,0.0028
3606.00,0.0027
3605.00,0.0027
3604.00,0.0027
3603.00,0.0027
3602.00,0.0027
3601.00,0.0028
3600.00,0.0028
3599.00,0.0029
3598.00,0.0029
3597.00,0.0029
3596.00,0.0028
3595.00,0.0028
3594.00,0.0028
3593.00,0.0028
3592.00,0.0028
3591.00,0.0029
3590.00,0.0029
3589.00,0.0029
3588.00,0.0029
3587.00,0.0029
3586.00,0.0029
3585.00,0.0030
3584.00,0.0030
3583.00,0.0031
3582.00,0.0031
3581.00,0.0031
3580.00,0.0032
3579.00,0.0032
3578.00,0.0032
3577.00,0.0033
3576.00,0.0033
3575.00,0.0033
3574.00,0.0033
3573.00,0.0033
3572.00,0.0033
3571.00,0.0033
3570.00,0.0033
3569.00,0.0033
3568.00,0.0033
3567.00,0.0033
3566.00,0.0034
3565.00,0.0034
3564.00,0.0035
3563.00,0.0035
3562.00,0.0036
3561.00,0.0036
3560.00,0.0036
3559.00,0.0036
3558.00,0.0037
3557.00,0.0037
3556.00,0.0037
3555.00,0.0037
3554.00,0.0037
3553.00,0.0037
3552.00,0.0037
3551.00,0.0037
3550.00,0.0037
3549.00,0.0038
3548.00,0.0039
3547.00,0.0039
3546.00,0.0040
3545.00,0.0040
3544.00,0.0040
3543.00,0.0039
3542.00,0.0039
3541.00,0.0039
3540.00,0.0039
3539.00,0.0039
3538.00,0.0040
3537.00,0.0041
3536.00,0.0041
3535.00,0.0041
3534.00,0.0041
3533.00,0.0042
3532.00,0.0042
3531.00,0.0042
3530.00,0.0042
3529.00,0.0042
3528.00,0.0042
3527.00,0.0042
3526.00,0.0042
3525.00,0.0043
3524.00,0.0043
3523.00,0.0043
3522.00,0.0043
3521.00,0.0044
3520.00,0.0044
3519.00,0.0044
3518.00,0.0044
3517.00,0.0044
3516.00,0.0044
3515.00,0.0044
3514.00,0.0045
3513.00,0.0045
3512.00,0.0045
3511.00,0.0046
3510.00,0.0046
3509.00,0.0046
3508.00,0.0046
3507.00,0.0046
3506.00,0.0046
3505.00,0.0046
3504.00,0.0046
3503.00,0.0047
3502.00,0.0047
3501.00,0.0047
3500.00,0.0047
3499.00,0.0048
3498.00,0.0048
3497.00,0.0048
3496.00,0.0049
3495.00,0.0049
3494.00,0.0049
3493.00,0.0049
3492.00,0.0049
3491.00,0.0050
3490.00,0.0050
3489.00,0.0051
3488.00,0.0051
3487.00,0.0051
3486.00,0.0051
3485.00,0.0051
3484.00,0.0051
3483.00,0.0051
3482.00,0.0051
3481.00,0.0052
3480.00,0.0052
3479.00,0.0052
3478.00,0.0052
3477.00,0.0053
3476.00,0.0053
3475.00,0.0053
3474.00,0.0053
3473.00,0.0053
3472.00,0.0052
3471.00,0.0052
3470.00,0.0053
3469.00,0.0053
3468.00,0.0054
3467.00,0.0054
3466.00,0.0054
3465.00,0.0054
3464.00,0.0055
3463.00,0.0055
3462.00,0.0055
3461.00,0.0056
3460.00,0.0056
3459.00,0.0056
3458.00,0.0056
3457.00,0.0056
3456.00,0.0056
3455.00,0.0056
3454.00,0.0057
3453.00,0.0057
3452.00,0.0057
3451.00,0.0057
3450.00,0.0056
3449.00,0.0056
3448.00,0.0056
3447.00,0.0057
3446.00,0.0057
3445.00,0.0058
3444.00,0.0059
3443.00,0.0059
3442.00,0.0059
3441.00,0.0059
3440.00,0.0059
3439.00,0.0059
3438.00,0.0059
3437.00,0.0059
3436.00,0.0059
3435.00,0.0059
3434.00,0.0060
3433.00,0.0060
3432.00,0.0061
3431.00,0.0061
3430.00,0.0061
3429.00,0.0062
3428.00,0.0062
3427.00,0.0062
3426.00,0.0062
3425.00,0.0062
3424.00,0.0063
3423.00,0.0063
3422.00,0.0063
3421.00,0.0064
3420.00,0.0064
3419.00,0.0064
3418.00,0.0064
3417.00,0.0064
3416.00,0.0064
3415.00,0.0064
3414.00,0.0063
3413.00,0.0064
3412.00,0.0064
3411.00,0.0065
3410.00,0.0065
3409.00,0.0065
3408.00,0.0066
3407.00,0.0066
3406.00,0.0066
3405.00,0.0066
3404.00,0.0066
3403.00,0.0066
3402.00,0.0067
3401.00,0.0067
3400.00,0.0067
3399.00,0.0067
3398.00,0.0067
3397.00,0.0067
3396.00,0.0067
3395.00,0.0067
3394.00,0.0067
3393.00,0.0067
3392.00,0.0067
3391.00,0.0067
3390.00,0.0067
3389.00,0.0067
3388.00,0.0067
3387.00,0.0067
3386.00,0.0067
3385.00,0.0067
3384.00,0.0066
3383.00,0.0067
3382.00,0.0067
3381.00,0.0067
3380.00,0.0067
3379.00,0.0068
3378.00,0.0068
3377.00,0.0068
3376.00,0.0068
3375.00,0.0068
3374.00,0.0068
3373.00,0.0067
3372.00,0.0067
3371.00,0.0068
3370.00,0.0068
3369.00,0.0068
3368.00,0.0068
3367.00,0.0069
3366.00,0.0069
3365.00,0.0069
3364.00,0.0069
3363.00,0.0069
3362.00,0.0069
3361.00,0.0069
3360.00,0.0069
3359.00,0.0069
3358.00,0.0070
3357.00,0.0070
3356.00,0.0070
3355.00,0.0070
3354.00,0.0070
3353.00,0.0070
3352.00,0.0071
3351.00,0.0071
3350.00,0.0071
3349.00,0.0071
3348.00,0.0071
3347.00,0.0071
3346.00,0.0071
3345.00,0.0071
3344.00,0.0071
3343.00,0.0071
3342.00,0.0071
3341.00,0.0071
3340.00,0.0071
3339.00,0.0071
3338.00,0.0071
3337.00,0.0071
3336.00,0.0070
3335.00,0.0070
3334.00,0.0070
3333.00,0.0071
3332.00,0.0071
3331.00,0.0071
3330.00,0.0071
3329.00,0.0071
3328.00,0.0071
3327.00,0.0071
3326.00,0.0071
3325.00,0.0071
3324.00,0.0071
3323.00,0.0071
3322.00,0.0071
3321.00,0.0071
3320.00,0.0071
3319.00,0.0071
3318.00,0.0071
3317.00,0.0071
3316.00,0.0071
3315.00,0.0071
3314.00,0.0071
3313.00,0.0071
3312.00,0.0071
3311.00,0.0072
3310.00,0.0072
3309.00,0.0072
3308.00,0.0072
3307.00,0.0072
3306.00,0.0072
3305.00,0.0072
3304.00,0.0072
3303.00,0.0071
3302.00,0.0071
3301.00,0.0072
3300.00,0.0072
3299.00,0.0072
3298.00,0.0072
3297.00,0.0072
3296.00,0.0072
3295.00,0.0071
3294.00,0.0071
3293.00,0.0071
3292.00,0.0071
3291.00,0.0072
3290.00,0.0072
3289.00,0.0072
3288.00,0.0072
3287.00,0.0072
3286.00,0.0072
3285.00,0.0072
3284.00,0.0072
3283.00,0.0072
3282.00,0.0071
3281.00,0.0071
3280.00,0.0071
3279.00,0.0071
3278.00,0.0071
3277.00,0.0071
3276.00,0.0071
3275.00,0.0070
3274.00,0.0070
3273.00,0.0069
3272.00,0.0069
3271.00,0.0069
3270.00,0.0069
3269.00,0.0070
3268.00,0.0070
3267.00,0.0070
3266.00,0.0070
3265.00,0.0070
3264.00,0.0070
3263.00,0.0070
3262.00,0.0070
3261.00,0.0070
3260.00,0.0070
3259.00,0.0069
3258.00,0.0069
3257.00,0.0069
3256.00,0.0068
3255.00,0.0068
3254.00,0.0068
3253.00,0.0067
3252.00,0.0067
3251.00,0.0067
3250.00,0.0066
3249.00,0.0066
3248.00,0.0065
3247.00,0.0065
3246.00,0.0065
3245.00,0.0065
3244.00,0.0065
3243.00,0.0066
3242.00,0.0066
3241.00,0.0066
3240.00,0.0067
3239.00,0.0067
3238.00,0.0067
3237.00,0.0067
3236.00,0.0067
3235.00,0.0067
3234.00,0.0067
3233.00,0.0067
3232.00,0.0067
3231.00,0.0067
3230.00,0.0068
3229.00,0.0068
3228.00,0.0068
3227.00,0.0068
3226.00,0.0068
3225.00,0.0068
3224.00,0.0068
3223.00,0.0068
3222.00,0.0069
3221.00,0.0069
3220.00,0.0069
3219.00,0.0069
3218.00,0.0069
3217.00,0.0069
3216.00,0.0069
3215.00,0.0069
3214.00,0.0069
3213.00,0.0070
3212.00,0.0070
3211.00,0.0071
3210.00,0.0071
3209.00,0.0071
3208.00,0.0071
3207.00,0.0071
3206.00,0.0071
3205.00,0.0071
3204.00,0.0071
3203.00,0.0072
3202.00,0.0072
3201.00,0.0071
3200.00,0.0071
3199.00,0.0071
3198.00,0.0071
3197.00,0.0071
3196.00,0.0071
3195.00,0.0071
3194.00,0.0071
3193.00,0.0071
3192.00,0.0072
3191.00,0.0072
3190.00,0.0072
3189.00,0.0071
3188.00,0.0071
3187.00,0.0071
3186.00,0.0070
3185.00,0.0070
3184.00,0.0069
3183.00,0.0069
3182.00,0.0068
3181.00,0.0068
3180.00,0.0068
3179.00,0.0068
3178.00,0.0068
3177.00,0.0067
3176.00,0.0067
3175.00,0.0067
3174.00,0.0067
3173.00,0.0067
3172.00,0.0066
3171.00,0.0066
3170.00,0.0065
3169.00,0.0065
3168.00,0.0064
3167.00,0.0064
3166.00,0.0064
3165.00,0.0064
3164.00,0.0064
3163.00,0.0064
3162.00,0.0064
3161.00,0.0064
3160.00,0.0063
3159.00,0.0063
3158.00,0.0062
3157.00,0.0062
3156.00,0.0062
3155.00,0.0062
3154.00,0.0062
3153.00,0.0062
3152.00,0.0062
3151.00,0.0062
3150.00,0.0061
3149.00,0.0061
3148.00,0.0061
3147.00,0.0061
3146.00,0.0061
3145.00,0.0061
3144.00,0.0061
3143.00,0.0060
3142.00,0.0060
3141.00,0.0059
3140.00,0.0059
3139.00,0.0059
3138.00,0.0059
3137.00,0.0058
3136.00,0.0058
3135.00,0.0058
3134.00,0.0058
3133.00,0.0058
3132.00,0.0058
3131.00,0.0058
3130.00,0.0057
3129.00,0.0057
3128.00,0.0056
3127.00,0.0056
3126.00,0.0056
3125.00,0.0055
3124.00,0.0054
3123.00,0.0054
3122.00,0.0054
3121.00,0.0054
3120.00,0.0054
3119.00,0.0054
3118.00,0.0054
3117.00,0.0053
3116.00,0.0053
3115.00,0.0052
3114.00,0.0052
3113.00,0.0052
3112.00,0.0052
3111.00,0.0052
3110.00,0.0051
3109.00,0.0051
3108.00,0.0051
3107.00,0.0051
3106.00,0.0051
3105.00,0.0050
3104.00,0.0050
3103.00,0.0049
3102.00,0.0049
3101.00,0.0049
3100.00,0.0049
3099.00,0.0049
3098.00,0.0049
3097.00,0.0049
3096.00,0.0049
3095.00,0.0049
3094.00,0.0048
3093.00,0.0048
3092.00,0.0048
3091.00,0.0048
3090.00,0.0048
3089.00,0.0048
3088.00,0.0048
3087.00,0.0048
3086.00,0.0048
3085.00,0.0048
3084.00,0.0048
3083.00,0.0047
3082.00,0.0047
3081.00,0.0047
3080.00,0.0047
3079.00,0.0047
3078.00,0.0047
3077.00,0.0047
3076.00,0.0047
3075.00,0.0047
3074.00,0.0048
3073.00,0.0048
3072.00,0.0048
3071.00,0.0048
3070.00,0.0047
3069.00,0.0047
3068.00,0.0047
3067.00,0.0047
3066.00,0.0047
3065.00,0.0048
3064.00,0.0048
3063.00,0.0048
3062.00,0.0049
3061.00,0.0049
3060.00,0.0049
3059.00,0.0048
3058.00,0.0048
3057.00,0.0048
3056.00,0.0048
3055.00,0.0048
3054.00,0.0049
3053.00,0.0049
3052.00,0.0049
3051.00,0.0048
3050.00,0.0048
3049.00,0.0048
3048.00,0.0048
3047.00,0.0048
3046.00,0.0048
3045.00,0.0048
3044.00,0.0048
3043.00,0.0049
3042.00,0.0049
3041.00,0.0050
3040.00,0.0050
3039.00,0.0050
3038.00,0.0050
3037.00,0.0050
3036.00,0.0050
3035.00,0.0050
3034.00,0.0050
3033.00,0.0050
3032.00,0.0051
3031.00,0.0051
3030.00,0.0052
3029.00,0.0053
3028.00,0.0054
3027.00,0.0054
3026.00,0.0055
3025.00,0.0055
3024.00,0.0055
3023.00,0.0055
3022.00,0.0055
3021.00,0.0056
3020.00,0.0057
3019.00,0.0058
3018.00,0.0059
3017.00,0.0060
3016.00,0.0060
3015.00,0.0061
3014.00,0.0062
3013.00,0.0063
3012.00,0.0064
3011.00,0.0065
3010.00,0.0067
3009.00,0.0068
3008.00,0.0070
3007.00,0.0071
3006.00,0.0072
3005.00,0.0074
3004.00,0.0076
3003.00,0.0077
3002.00,0.0080
3001.00,0.0082
3000.00,0.0084
2999.00,0.0087
2998.00,0.0089
2997.00,0.0092
2996.00,0.0095
2995.00,0.0099
2994.00,0.0103
2993.00,0.0108
2992.00,0.0114
2991.00,0.0120
2990.00,0.0126
2989.00,0.0133
2988.00,0.0141
2987.00,0.0150
2986.00,0.0159
2985.00,0.0169
2984.00,0.0181
2983.00,0.0195
2982.00,0.0210
2981.00,0.0227
2980.00,0.0247
2979.00,0.0269
2978.00,0.0294
2977.00,0.0323
2976.00,0.0356
2975.00,0.0392
2974.00,0.0434
2973.00,0.0480
2972.00,0.0531
2971.00,0.0588
2970.00,0.0651
2969.00,0.0720
2968.00,0.0795
2967.00,0.0874
2966.00,0.0958
2965.00,0.1043
2964.00,0.1126
2963.00,0.1205
2962.00,0.1275
2961.00,0.1333
2960.00,0.1380
2959.00,0.1417
2958.00,0.1448
2957.00,0.1478
2956.00,0.1511
2955.00,0.1551
2954.00,0.1597
2953.00,0.1645
2952.00,0.1688
2951.00,0.1718
2950.00,0.1726
2949.00,0.1706
2948.00,0.1654
2947.00,0.1574
2946.00,0.1472
2945.00,0.1361
2944.00,0.1252
2943.00,0.1155
2942.00,0.1077
2941.00,0.1021
2940.00,0.0985
2939.00,0.0970
2938.00,0.0972
2937.00,0.0991
2936.00,0.1024
2935.00,0.1070
2934.00,0.1128
2933.00,0.1196
2932.00,0.1273
2931.00,0.1356
2930.00,0.1444
2929.00,0.1533
2928.00,0.1620
2927.00,0.1703
2926.00,0.1781
2925.00,0.1855
2924.00,0.1925
2923.00,0.1994
2922.00,0.2060
2921.00,0.2124
2920.00,0.2180
2919.00,0.2224
2918.00,0.2250
2917.00,0.2254
2916.00,0.2234
2915.00,0.2192
2914.00,0.2134
2913.00,0.2066
2912.00,0.1994
2911.00,0.1925
2910.00,0.1860
2909.00,0.1799
2908.00,0.1742
2907.00,0.1687
2906.00,0.1633
2905.00,0.1577
2904.00,0.1520
2903.00,0.1463
2902.00,0.1405
2901.00,0.1348
2900.00,0.1291
2899.00,0.1237
2898.00,0.1186
2897.00,0.1140
2896.00,0.1099
2895.00,0.1063
2894.00,0.1033
2893.00,0.1008
2892.00,0.0989
2891.00,0.0975
2890.00,0.0965
2889.00,0.0961
2888.00,0.0959
2887.00,0.0962
2886.00,0.0967
2885.00,0.0976
2884.00,0.0989
2883.00,0.1005
2882.00,0.1024
2881.00,0.1045
2880.00,0.1065
2879.00,0.1081
2878.00,0.1091
2877.00,0.1093
2876.00,0.1089
2875.00,0.1083
2874.00,0.1078
2873.00,0.1078
2872.00,0.1085
2871.00,0.1097
2870.00,0.1112
2869.00,0.1127
2868.00,0.1133
2867.00,0.1126
2866.00,0.1100
2865.00,0.1054
2864.00,0.0990
2863.00,0.0916
2862.00,0.0840
2861.00,0.0769
2860.00,0.0710
2859.00,0.0663
2858.00,0.0628
2857.00,0.0604
2856.00,0.0588
2855.00,0.0580
2854.00,0.0578
2853.00,0.0580
2852.00,0.0588
2851.00,0.0600
2850.00,0.0617
2849.00,0.0640
2848.00,0.0668
2847.00,0.0703
2846.00,0.0745
2845.00,0.0795
2844.00,0.0850
2843.00,0.0910
2842.00,0.0970
2841.00,0.1026
2840.00,0.1071
2839.00,0.1099
2838.00,0.1103
2837.00,0.1077
2836.00,0.1024
2835.00,0.0947
2834.00,0.0857
2833.00,0.0763
2832.00,0.0672
2831.00,0.0592
2830.00,0.0524
2829.00,0.0467
2828.00,0.0421
2827.00,0.0384
2826.00,0.0354
2825.00,0.0329
2824.00,0.0308
2823.00,0.0290
2822.00,0.0274
2821.00,0.0261
2820.00,0.0249
2819.00,0.0239
2818.00,0.0230
2817.00,0.0222
2816.00,0.0215
2815.00,0.0209
2814.00,0.0204
2813.00,0.0198
2812.00,0.0193
2811.00,0.0188
2810.00,0.0183
2809.00,0.0178
2808.00,0.0173
2807.00,0.0167
2806.00,0.0162
2805.00,0.0156
2804.00,0.0151
2803.00,0.0145
2802.00,0.0140
2801.00,0.0136
2800.00,0.0132
2799.00,0.0129
2798.00,0.0127
2797.00,0.0125
2796.00,0.0123
2795.00,0.0120
2794.00,0.0118
2793.00,0.0115
2792.00,0.0112
2791.00,0.0109
2790.00,0.0106
2789.00,0.0103
2788.00,0.0100
2787.00,0.0097
2786.00,0.0095
2785.00,0.0093
2784.00,0.0091
2783.00,0.0089
2782.00,0.0087
2781.00,0.0085
2780.00,0.0083
2779.00,0.0082
2778.00,0.0080
2777.00,0.0079
2776.00,0.0078
2775.00,0.0077
2774.00,0.0076
2773.00,0.0075
2772.00,0.0075
2771.00,0.0075
2770.00,0.0074
2769.00,0.0074
2768.00,0.0074
2767.00,0.0073
2766.00,0.0073
2765.00,0.0073
2764.00,0.0072
2763.00,0.0072
2762.00,0.0071
2761.00,0.0071
2760.00,0.0071
2759.00,0.0070
2758.00,0.0069
2757.00,0.0069
2756.00,0.0069
2755.00,0.0070
2754.00,0.0070
2753.00,0.0070
2752.00,0.0070
2751.00,0.0070
2750.00,0.0069
2749.00,0.0069
2748.00,0.0068
2747.00,0.0069
2746.00,0.0069
2745.00,0.0070
2744.00,0.0071
2743.00,0.0071
2742.00,0.0072
2741.00,0.0073
2740.00,0.0074
2739.00,0.0075
2738.00,0.0077
2737.00,0.0078
2736.00,0.0079
2735.00,0.0080
2734.00,0.0081
2733.00,0.0083
2732.00,0.0084
2731.00,0.0086
2730.00,0.0088
2729.00,0.0090
2728.00,0.0092
2727.00,0.0094
2726.00,0.0097
2725.00,0.0098
2724.00,0.0100
2723.00,0.0100
2722.00,0.0099
2721.00,0.0097
2720.00,0.0095
2719.00,0.0092
2718.00,0.0090
2717.00,0.0087
2716.00,0.0085
2715.00,0.0083
2714.00,0.0081
2713.00,0.0078
2712.00,0.0076
2711.00,0.0074
2710.00,0.0073
2709.00,0.0071
2708.00,0.0070
2707.00,0.0069
2706.00,0.0068
2705.00,0.0067
2704.00,0.0066
2703.00,0.0066
2702.00,0.0065
2701.00,0.0064
2700.00,0.0063
2699.00,0.0063
2698.00,0.0063
2697.00,0.0063
2696.00,0.0063
2695.00,0.0063
2694.00,0.0062
2693.00,0.0062
2692.00,0.0061
2691.00,0.0061
2690.00,0.0061
2689.00,0.0061
2688.00,0.0061
2687.00,0.0061
2686.00,0.0061
2685.00,0.0061
2684.00,0.0061
2683.00,0.0062
2682.00,0.0062
2681.00,0.0062
2680.00,0.0062
2679.00,0.0062
2678.00,0.0062
2677.00,0.0062
2676.00,0.0062
2675.00,0.0061
2674.00,0.0061
2673.00,0.0061
2672.00,0.0061
2671.00,0.0061
2670.00,0.0061
2669.00,0.0061
2668.00,0.0061
2667.00,0.0061
2666.00,0.0061
2665.00,0.0061
2664.00,0.0062
2663.00,0.0062
2662.00,0.0063
2661.00,0.0063
2660.00,0.0064
2659.00,0.0064
2658.00,0.0064
2657.00,0.0064
2656.00,0.0063
2655.00,0.0063
2654.00,0.0062
2653.00,0.0062
2652.00,0.0061
2651.00,0.0061
2650.00,0.0061
2649.00,0.0060
2648.00,0.0060
2647.00,0.0059
2646.00,0.0058
2645.00,0.0058
2644.00,0.0057
2643.00,0.0057
2642.00,0.0057
2641.00,0.0057
2640.00,0.0056
2639.00,0.0056
2638.00,0.0056
2637.00,0.0056
2636.00,0.0055
2635.00,0.0055
2634.00,0.0055
2633.00,0.0054
2632.00,0.0054
2631.00,0.0054
2630.00,0.0054
2629.00,0.0054
2628.00,0.0055
2627.00,0.0055
2626.00,0.0055
2625.00,0.0055
2624.00,0.0055
2623.00,0.0055
2622.00,0.0056
2621.00,0.0056
2620.00,0.0057
2619.00,0.0056
2618.00,0.0056
2617.00,0.0055
2616.00,0.0055
2615.00,0.0055
2614.00,0.0055
2613.00,0.0055
2612.00,0.0054
2611.00,0.0054
2610.00,0.0054
2609.00,0.0053
2608.00,0.0053
2607.00,0.0052
2606.00,0.0052
2605.00,0.0051
2604.00,0.0050
2603.00,0.0050
2602.00,0.0049
2601.00,0.0049
2600.00,0.0049
2599.00,0.0049
2598.00,0.0049
2597.00,0.0050
2596.00,0.0050
2595.00,0.0050
2594.00,0.0050
2593.00,0.0051
2592.00,0.0051
2591.00,0.0052
2590.00,0.0052
2589.00,0.0052
2588.00,0.0052
2587.00,0.0053
2586.00,0.0053
2585.00,0.0054
2584.00,0.0055
2583.00,0.0055
2582.00,0.0055
2581.00,0.0054
2580.00,0.0054
2579.00,0.0053
2578.00,0.0053
2577.00,0.0052
2576.00,0.0051
2575.00,0.0050
2574.00,0.0050
2573.00,0.0049
2572.00,0.0048
2571.00,0.0047
2570.00,0.0046
2569.00,0.0045
2568.00,0.0044
2567.00,0.0044
2566.00,0.0043
2565.00,0.0043
2564.00,0.0043
2563.00,0.0043
2562.00,0.0042
2561.00,0.0042
2560.00,0.0042
2559.00,0.0041
2558.00,0.0041
2557.00,0.0041
2556.00,0.0041
2555.00,0.0041
2554.00,0.0041
2553.00,0.0041
2552.00,0.0041
2551.00,0.0040
2550.00,0.0039
2549.00,0.0038
2548.00,0.0038
2547.00,0.0037
2546.00,0.0037
2545.00,0.0037
2544.00,0.0036
2543.00,0.0036
2542.00,0.0035
2541.00,0.0035
2540.00,0.0035
2539.00,0.0035
2538.00,0.0035
2537.00,0.0035
2536.00,0.0036
2535.00,0.0036
2534.00,0.0036
2533.00,0.0036
2532.00,0.0036
2531.00,0.0036
2530.00,0.0036
2529.00,0.0036
2528.00,0.0036
2527.00,0.0036
2526.00,0.0035
2525.00,0.0035
2524.00,0.0035
2523.00,0.0035
2522.00,0.0035
2521.00,0.0034
2520.00,0.0033
2519.00,0.0033
2518.00,0.0033
2517.00,0.0033
2516.00,0.0033
2515.00,0.0033
2514.00,0.0033
2513.00,0.0032
2512.00,0.0032
2511.00,0.0032
2510.00,0.0032
2509.00,0.0032
2508.00,0.0032
2507.00,0.0032
2506.00,0.0031
2505.00,0.0031
2504.00,0.0032
2503.00,0.0032
2502.00,0.0032
2501.00,0.0032
2500.00,0.0032
2499.00,0.0031
2498.00,0.0031
2497.00,0.0031
2496.00,0.0030
2495.00,0.0030
2494.00,0.0030
2493.00,0.0030
2492.00,0.0031
2491.00,0.0031
2490.00,0.0031
2489.00,0.0031
2488.00,0.0030
2487.00,0.0030
2486.00,0.0030
2485.00,0.0030
2484.00,0.0030
2483.00,0.0030
2482.00,0.0029
2481.00,0.0028
2480.00,0.0027
2479.00,0.0027
2478.00,0.0027
2477.00,0.0027
2476.00,0.0027
2475.00,0.0028
2474.00,0.0027
2473.00,0.0027
2472.00,0.0027
2471.00,0.0027
2470.00,0.0027
2469.00,0.0027
2468.00,0.0027
2467.00,0.0027
2466.00,0.0027
2465.00,0.0028
2464.00,0.0029
2463.00,0.0030
2462.00,0.0030
2461.00,0.0030
2460.00,0.0029
2459.00,0.0028
2458.00,0.0028
2457.00,0.0028
2456.00,0.0029
2455.00,0.0029
2454.00,0.0029
2453.00,0.0030
2452.00,0.0030
2451.00,0.0031
2450.00,0.0031
2449.00,0.0030
2448.00,0.0030
2447.00,0.0030
2446.00,0.0029
2445.00,0.0029
2444.00,0.0029
2443.00,0.0029
2442.00,0.0030
2441.00,0.0030
2440.00,0.0030
2439.00,0.0030
2438.00,0.0030
2437.00,0.0030
2436.00,0.0030
2435.00,0.0030
2434.00,0.0030
2433.00,0.0030
2432.00,0.0031
2431.00,0.0031
2430.00,0.0031
2429.00,0.0031
2428.00,0.0030
2427.00,0.0030
2426.00,0.0030
2425.00,0.0030
2424.00,0.0030
2423.00,0.0030
2422.00,0.0029
2421.00,0.0029
2420.00,0.0028
2419.00,0.0027
2418.00,0.0027
2417.00,0.0027
2416.00,0.0028
2415.00,0.0028
2414.00,0.0028
2413.00,0.0028
2412.00,0.0029
2411.00,0.0029
2410.00,0.0030
2409.00,0.0030
2408.00,0.0029
2407.00,0.0029
2406.00,0.0028
2405.00,0.0027
2404.00,0.0027
2403.00,0.0027
2402.00,0.0028
2401.00,0.0028
2400.00,0.0028
2399.00,0.0028
2398.00,0.0028
2397.00,0.0028
2396.00,0.0028
2395.00,0.0027
2394.00,0.0027
2393.00,0.0026
2392.00,0.0026
2391.00,0.0026
2390.00,0.0025
2389.00,0.0025
2388.00,0.0024
2387.00,0.0023
2386.00,0.0023
2385.00,0.0022
2384.00,0.0022
2383.00,0.0020
2382.00,0.0019
2381.00,0.0018
2380.00,0.0016
2379.00,0.0015
2378.00,0.0015
2377.00,0.0015
2376.00,0.0015
2375.00,0.0016
2374.00,0.0016
2373.00,0.0016
2372.00,0.0016
2371.00,0.0015
2370.00,0.0015
2369.00,0.0015
2368.00,0.0015
2367.00,0.0015
2366.00,0.0014
2365.00,0.0014
2364.00,0.0014
2363.00,0.0014
2362.00,0.0015
2361.00,0.0015
2360.00,0.0015
2359.00,0.0014
2358.00,0.0014
2357.00,0.0013
2356.00,0.0013
2355.00,0.0012
2354.00,0.0012
2353.00,0.0012
2352.00,0.0011
2351.00,0.0011
2350.00,0.0011
2349.00,0.0012
2348.00,0.0013
2347.00,0.0015
2346.00,0.0015
2345.00,0.0016
2344.00,0.0016
2343.00,0.0016
2342.00,0.0016
2341.00,0.0016
2340.00,0.0017
2339.00,0.0017
2338.00,0.0018
2337.00,0.0019
2336.00,0.0019
2335.00,0.0019
2334.00,0.0018
2333.00,0.0017
2332.00,0.0017
2331.00,0.0017
2330.00,0.0017
2329.00,0.0017
2328.00,0.0019
2327.00,0.0022
2326.00,0.0026
2325.00,0.0030
2324.00,0.0031
2323.00,0.0030
2322.00,0.0029
2321.00,0.0027
2320.00,0.0027
2319.00,0.0026
2318.00,0.0026
2317.00,0.0026
2316.00,0.0025
2315.00,0.0025
2314.00,0.0024
2313.00,0.0024
2312.00,0.0023
2311.00,0.0023
2310.00,0.0023
2309.00,0.0023
2308.00,0.0024
2307.00,0.0024
2306.00,0.0025
2305.00,0.0025
2304.00,0.0025
2303.00,0.0026
2302.00,0.0026
2301.00,0.0026
2300.00,0.0026
2299.00,0.0027
2298.00,0.0027
2297.00,0.0028
2296.00,0.0028
2295.00,0.0029
2294.00,0.0030
2293.00,0.0030
2292.00,0.0031
2291.00,0.0032
2290.00,0.0033
2289.00,0.0034
2288.00,0.0035
2287.00,0.0036
2286.00,0.0036
2285.00,0.0035
2284.00,0.0035
2283.00,0.0034
2282.00,0.0033
2281.00,0.0033
2280.00,0.0032
2279.00,0.0031
2278.00,0.0031
2277.00,0.0030
2276.00,0.0030
2275.00,0.0030
2274.00,0.0030
2273.00,0.0030
2272.00,0.0030
2271.00,0.0030
2270.00,0.0029
2269.00,0.0029
2268.00,0.0029
2267.00,0.0030
2266.00,0.0030
2265.00,0.0030
2264.00,0.0030
2263.00,0.0030
2262.00,0.0030
2261.00,0.0030
2260.00,0.0030
2259.00,0.0030
2258.00,0.0029
2257.00,0.0028
2256.00,0.0027
2255.00,0.0027
2254.00,0.0027
2253.00,0.0027
2252.00,0.0026
2251.00,0.0026
2250.00,0.0025
2249.00,0.0025
2248.00,0.0025
2247.00,0.0025
2246.00,0.0025
2245.00,0.0025
2244.00,0.0025
2243.00,0.0024
2242.00,0.0025
2241.00,0.0026
2240.00,0.0026
2239.00,0.0026
2238.00,0.0026
2237.00,0.0026
2236.00,0.0026
2235.00,0.0026
2234.00,0.0026
2233.00,0.0027
2232.00,0.0027
2231.00,0.0027
2230.00,0.0027
2229.00,0.0028
2228.00,0.0027
2227.00,0.0026
2226.00,0.0025
2225.00,0.0026
2224.00,0.0026
2223.00,0.0026
2222.00,0.0024
2221.00,0.0023
2220.00,0.0022
2219.00,0.0022
2218.00,0.0022
2217.00,0.0021
2216.00,0.0020
2215.00,0.0020
2214.00,0.0020
2213.00,0.0020
2212.00,0.0020
2211.00,0.0020
2210.00,0.0020
2209.00,0.0020
2208.00,0.0021
2207.00,0.0023
2206.00,0.0024
2205.00,0.0025
2204.00,0.0026
2203.00,0.0027
2202.00,0.0027
2201.00,0.0026
2200.00,0.0025
2199.00,0.0024
2198.00,0.0024
2197.00,0.0026
2196.00,0.0028
2195.00,0.0029
2194.00,0.0030
2193.00,0.0029
2192.00,0.0027
2191.00,0.0026
2190.00,0.0027
2189.00,0.0029
2188.00,0.0031
2187.00,0.0031
2186.00,0.0029
2185.00,0.0028
2184.00,0.0027
2183.00,0.0027
2182.00,0.0028
2181.00,0.0028
2180.00,0.0028
2179.00,0.0029
2178.00,0.0031
2177.00,0.0032
2176.00,0.0030
2175.00,0.0027
2174.00,0.0024
2173.00,0.0022
2172.00,0.0023
2171.00,0.0026
2170.00,0.0028
2169.00,0.0031
2168.00,0.0033
2167.00,0.0034
2166.00,0.0036
2165.00,0.0036
2164.00,0.0035
2163.00,0.0033
2162.00,0.0032
2161.00,0.0030
2160.00,0.0022
2159.00,0.0009
2158.00,-0.0003
2157.00,-0.0009
2156.00,-0.0009
2155.00,-0.0006
2154.00,-0.0003
2153.00,-0.0000
2152.00,0.0001
2151.00,0.0002
2150.00,0.0002
2149.00,0.0003
2148.00,0.0004
2147.00,0.0005
2146.00,0.0005
2145.00,0.0006
2144.00,0.0007
2143.00,0.0008
2142.00,0.0009
2141.00,0.0009
2140.00,0.0007
2139.00,0.0006
2138.00,0.0004
2137.00,0.0003
2136.00,0.0001
2135.00,-0.0001
2134.00,-0.0004
2133.00,-0.0003
2132.00,-0.0001
2131.00,0.0002
2130.00,0.0006
2129.00,0.0008
2128.00,0.0011
2127.00,0.0012
2126.00,0.0012
2125.00,0.0012
2124.00,0.0011
2123.00,0.0011
2122.00,0.0012
2121.00,0.0013
2120.00,0.0014
2119.00,0.0015
2118.00,0.0017
2117.00,0.0019
2116.00,0.0021
2115.00,0.0021
2114.00,0.0021
2113.00,0.0021
2112.00,0.0021
2111.00,0.0022
2110.00,0.0022
2109.00,0.0021
2108.00,0.0021
2107.00,0.0019
2106.00,0.0018
2105.00,0.0019
2104.00,0.0019
2103.00,0.0019
2102.00,0.0018
2101.00,0.0017
2100.00,0.0017
2099.00,0.0017
2098.00,0.0017
2097.00,0.0016
2096.00,0.0014
2095.00,0.0012
2094.00,0.0011
2093.00,0.0011
2092.00,0.0012
2091.00,0.0011
2090.00,0.0010
2089.00,0.0010
2088.00,0.0012
2087.00,0.0015
2086.00,0.0017
2085.00,0.0019
2084.00,0.0021
2083.00,0.0021
2082.00,0.0020
2081.00,0.0019
2080.00,0.0019
2079.00,0.0019
2078.00,0.0019
2077.00,0.0020
2076.00,0.0020
2075.00,0.0019
2074.00,0.0018
2073.00,0.0018
2072.00,0.0019
2071.00,0.0020
2070.00,0.0020
2069.00,0.0018
2068.00,0.0016
2067.00,0.0014
2066.00,0.0012
2065.00,0.0013
2064.00,0.0014
2063.00,0.0015
2062.00,0.0015
2061.00,0.0014
2060.00,0.0013
2059.00,0.0013
2058.00,0.0013
2057.00,0.0014
2056.00,0.0014
2055.00,0.0014
2054.00,0.0014
2053.00,0.0016
2052.00,0.0021
2051.00,0.0024
2050.00,0.0025
2049.00,0.0023
2048.00,0.0021
2047.00,0.0019
2046.00,0.0018
2045.00,0.0019
2044.00,0.0020
2043.00,0.0020
2042.00,0.0020
2041.00,0.0020
2040.00,0.0020
2039.00,0.0018
2038.00,0.0015
2037.00,0.0013
2036.00,0.0012
2035.00,0.0012
2034.00,0.0012
2033.00,0.0012
2032.00,0.0012
2031.00,0.0011
2030.00,0.0009
2029.00,0.0006
2028.00,0.0004
2027.00,0.0003
2026.00,0.0002
2025.00,0.0001
2024.00,0.0000
2023.00,0.0001
2022.00,0.0004
2021.00,0.0008
2020.00,0.0011
2019.00,0.0011
2018.00,0.0010
2017.00,0.0009
2016.00,0.0010
2015.00,0.0009
2014.00,0.0007
2013.00,0.0004
2012.00,0.0002
2011.00,0.0000
2010.00,-0.0002
2009.00,-0.0004
2008.00,-0.0005
2007.00,-0.0005
2006.00,-0.0005
2005.00,-0.0003
2004.00,-0.0001
2003.00,0.0000
2002.00,0.0002
2001.00,0.0004
2000.00,0.0006
1999.00,0.0007
1998.00,0.0007
1997.00,0.0007
1996.00,0.0007
1995.00,0.0005
1994.00,0.0003
1993.00,0.0002
1992.00,0.0002
1991.00,0.0004
1990.00,0.0006
1989.00,0.0009
1988.00,0.0012
1987.00,0.0014
1986.00,0.0014
1985.00,0.0015
1984.00,0.0017
1983.00,0.0019
1982.00,0.0021
1981.00,0.0022
1980.00,0.0021
1979.00,0.0017
1978.00,0.0012
1977.00,0.0007
1976.00,0.0004
1975.00,0.0003
1974.00,0.0001
1973.00,-0.0001
1972.00,-0.0003
1971.00,-0.0003
1970.00,-0.0002
1969.00,0.0000
1968.00,0.0002
1967.00,0.0002
1966.00,-0.0001
1965.00,-0.0002
1964.00,-0.0003
1963.00,-0.0003
1962.00,-0.0002
1961.00,-0.0002
1960.00,-0.0003
1959.00,-0.0005
1958.00,-0.0005
1957.00,-0.0003
1956.00,0.0001
1955.00,0.0004
1954.00,0.0005
1953.00,0.0004
1952.00,0.0003
1951.00,0.0002
1950.00,0.0000
1949.00,-0.0000
1948.00,-0.0000
1947.00,0.0000
1946.00,0.0000
1945.00,0.0000
1944.00,0.0000
1943.00,0.0000
1942.00,0.0001
1941.00,0.0003
1940.00,0.0005
1939.00,0.0006
1938.00,0.0007
1937.00,0.0007
1936.00,0.0007
1935.00,0.0006
1934.00,0.0006
1933.00,0.0007
1932.00,0.0008
1931.00,0.0009
1930.00,0.0009
1929.00,0.0008
1928.00,0.0008
1927.00,0.0008
1926.00,0.0009
1925.00,0.0010
1924.00,0.0010
1923.00,0.0011
1922.00,0.0012
1921.00,0.0014
1920.00,0.0015
1919.00,0.0014
1918.00,0.0014
1917.00,0.0013
1916.00,0.0013
1915.00,0.0013
1914.00,0.0013
1913.00,0.0014
1912.00,0.0013
1911.00,0.0013
1910.00,0.0012
1909.00,0.0012
1908.00,0.0012
1907.00,0.0012
1906.00,0.0012
1905.00,0.0013
1904.00,0.0013
1903.00,0.0013
1902.00,0.0012
1901.00,0.0011
1900.00,0.0011
1899.00,0.0011
1898.00,0.0011
1897.00,0.0012
1896.00,0.0012
1895.00,0.0013
1894.00,0.0014
1893.00,0.0015
1892.00,0.0016
1891.00,0.0016
1890.00,0.0016
1889.00,0.0015
1888.00,0.0015
1887.00,0.0014
1886.00,0.0013
1885.00,0.0014
1884.00,0.0014
1883.00,0.0014
1882.00,0.0014
1881.00,0.0014
1880.00,0.0014
1879.00,0.0014
1878.00,0.0014
1877.00,0.0014
1876.00,0.0015
1875.00,0.0016
1874.00,0.0016
1873.00,0.0016
1872.00,0.0015
1871.00,0.0014
1870.00,0.0013
1869.00,0.0013
1868.00,0.0014
1867.00,0.0015
1866.00,0.0015
1865.00,0.0016
1864.00,0.0016
1863.00,0.0016
1862.00,0.0016
1861.00,0.0017
1860.00,0.0017
1859.00,0.0017
1858.00,0.0017
1857.00,0.0016
1856.00,0.0016
1855.00,0.0016
1854.00,0.0016
1853.00,0.0017
1852.00,0.0017
1851.00,0.0017
1850.00,0.0017
1849.00,0.0017
1848.00,0.0016
1847.00,0.0016
1846.00,0.0015
1845.00,0.0016
1844.00,0.0016
1843.00,0.0017
1842.00,0.0017
1841.00,0.0018
1840.00,0.0019
1839.00,0.0020
1838.00,0.0020
1837.00,0.0019
1836.00,0.0018
1835.00,0.0017
1834.00,0.0017
1833.00,0.0017
1832.00,0.0017
1831.00,0.0017
1830.00,0.0017
1829.00,0.0017
1828.00,0.0018
1827.00,0.0018
1826.00,0.0018
1825.00,0.0019
1824.00,0.0019
1823.00,0.0019
1822.00,0.0019
1821.00,0.0018
1820.00,0.0018
1819.00,0.0017
1818.00,0.0016
1817.00,0.0015
1816.00,0.0015
1815.00,0.0015
1814.00,0.0016
1813.00,0.0018
1812.00,0.0019
1811.00,0.0019
1810.00,0.0019
1809.00,0.0019
1808.00,0.0019
1807.00,0.0020
1806.00,0.0020
1805.00,0.0020
1804.00,0.0021
1803.00,0.0021
1802.00,0.0022
1801.00,0.0023
1800.00,0.0024
1799.00,0.0025
1798.00,0.0024
1797.00,0.0024
1796.00,0.0024
1795.00,0.0024
1794.00,0.0024
1793.00,0.0024
1792.00,0.0023
1791.00,0.0023
1790.00,0.0023
1789.00,0.0023
1788.00,0.0024
1787.00,0.0024
1786.00,0.0024
1785.00,0.0024
1784.00,0.0025
1783.00,0.0025
1782.00,0.0025
1781.00,0.0025
1780.00,0.0025
1779.00,0.0024
1778.00,0.0024
1777.00,0.0024
1776.00,0.0024
1775.00,0.0023
1774.00,0.0023
1773.00,0.0024
1772.00,0.0024
1771.00,0.0025
1770.00,0.0025
1769.00,0.0025
1768.00,0.0026
1767.00,0.0026
1766.00,0.0026
1765.00,0.0026
1764.00,0.0026
1763.00,0.0025
1762.00,0.0025
1761.00,0.0026
1760.00,0.0026
1759.00,0.0027
1758.00,0.0027
1757.00,0.0027
1756.00,0.0028
1755.00,0.0029
1754.00,0.0029
1753.00,0.0030
1752.00,0.0031
1751.00,0.0031
1750.00,0.0032
1749.00,0.0033
1748.00,0.0033
1747.00,0.0034
1746.00,0.0035
1745.00,0.0035
1744.00,0.0036
1743.00,0.0036
1742.00,0.0037
1741.00,0.0037
1740.00,0.0038
1739.00,0.0039
1738.00,0.0039
1737.00,0.0040
1736.00,0.0041
1735.00,0.0041
1734.00,0.0040
1733.00,0.0040
1732.00,0.0039
1731.00,0.0039
1730.00,0.0038
1729.00,0.0039
1728.00,0.0039
1727.00,0.0040
1726.00,0.0040
1725.00,0.0040
1724.00,0.0040
1723.00,0.0040
1722.00,0.0039
1721.00,0.0039
1720.00,0.0039
1719.00,0.0039
1718.00,0.0039
1717.00,0.0039
1716.00,0.0039
1715.00,0.0039
1714.00,0.0038
1713.00,0.0038
1712.00,0.0039
1711.00,0.0039
1710.00,0.0039
1709.00,0.0039
1708.00,0.0040
1707.00,0.0040
1706.00,0.0040
1705.00,0.0041
1704.00,0.0042
1703.00,0.0043
1702.00,0.0043
1701.00,0.0044
1700.00,0.0044
1699.00,0.0044
1698.00,0.0044
1697.00,0.0045
1696.00,0.0046
1695.00,0.0048
1694.00,0.0049
1693.00,0.0051
1692.00,0.0052
1691.00,0.0054
1690.00,0.0055
1689.00,0.0057
1688.00,0.0058
1687.00,0.0059
1686.00,0.0060
1685.00,0.0061
1684.00,0.0063
1683.00,0.0065
1682.00,0.0066
1681.00,0.0068
1680.00,0.0070
1679.00,0.0072
1678.00,0.0074
1677.00,0.0075
1676.00,0.0076
1675.00,0.0077
1674.00,0.0078
1673.00,0.0079
1672.00,0.0081
1671.00,0.0082
1670.00,0.0082
1669.00,0.0083
1668.00,0.0084
1667.00,0.0085
1666.00,0.0086
1665.00,0.0087
1664.00,0.0087
1663.00,0.0088
1662.00,0.0088
1661.00,0.0088
1660.00,0.0089
1659.00,0.0089
1658.00,0.0088
1657.00,0.0088
1656.00,0.0088
1655.00,0.0087
1654.00,0.0087
1653.00,0.0088
1652.00,0.0089
1651.00,0.0089
1650.00,0.0089
1649.00,0.0090
1648.00,0.0090
1647.00,0.0091
1646.00,0.0091
1645.00,0.0091
1644.00,0.0091
1643.00,0.0090
1642.00,0.0089
1641.00,0.0088
1640.00,0.0087
1639.00,0.0086
1638.00,0.0085
1637.00,0.0085
1636.00,0.0086
1635.00,0.0086
1634.00,0.0085
1633.00,0.0085
1632.00,0.0085
1631.00,0.0085
1630.00,0.0084
1629.00,0.0083
1628.00,0.0083
1627.00,0.0082
1626.00,0.0082
1625.00,0.0081
1624.00,0.0081
1623.00,0.0081
1622.00,0.0081
1621.00,0.0081
1620.00,0.0081
1619.00,0.0081
1618.00,0.0081
1617.00,0.0080
1616.00,0.0080
1615.00,0.0080
1614.00,0.0080
1613.00,0.0081
1612.00,0.0081
1611.00,0.0081
1610.00,0.0081
1609.00,0.0080
1608.00,0.0080
1607.00,0.0080
1606.00,0.0080
1605.00,0.0080
1604.00,0.0081
1603.00,0.0080
1602.00,0.0080
1601.00,0.0080
1600.00,0.0080
1599.00,0.0080
1598.00,0.0080
1597.00,0.0080
1596.00,0.0080
1595.00,0.0080
1594.00,0.0080
1593.00,0.0081
1592.00,0.0081
1591.00,0.0081
1590.00,0.0081
1589.00,0.0082
1588.00,0.0083
1587.00,0.0083
1586.00,0.0084
1585.00,0.0085
1584.00,0.0086
1583.00,0.0087
1582.00,0.0088
1581.00,0.0089
1580.00,0.0091
1579.00,0.0092
1578.00,0.0092
1577.00,0.0092
1576.00,0.0091
1575.00,0.0091
1574.00,0.0090
1573.00,0.0090
1572.00,0.0090
1571.00,0.0089
1570.00,0.0089
1569.00,0.0088
1568.00,0.0088
1567.00,0.0088
1566.00,0.0088
1565.00,0.0088
1564.00,0.0088
1563.00,0.0089
1562.00,0.0089
1561.00,0.0089
1560.00,0.0090
1559.00,0.0091
1558.00,0.0092
1557.00,0.0093
1556.00,0.0095
1555.00,0.0096
1554.00,0.0096
1553.00,0.0097
1552.00,0.0098
1551.00,0.0099
1550.00,0.0100
1549.00,0.0102
1548.00,0.0104
1547.00,0.0105
1546.00,0.0106
1545.00,0.0107
1544.00,0.0109
1543.00,0.0110
1542.00,0.0110
1541.00,0.0110
1540.00,0.0109
1539.00,0.0107
1538.00,0.0105
1537.00,0.0104
1536.00,0.0103
1535.00,0.0102
1534.00,0.0100
1533.00,0.0098
1532.00,0.0098
1531.00,0.0097
1530.00,0.0097
1529.00,0.0097
1528.00,0.0098
1527.00,0.0097
1526.00,0.0096
1525.00,0.0096
1524.00,0.0097
1523.00,0.0097
1522.00,0.0098
1521.00,0.0100
1520.00,0.0101
1519.00,0.0102
1518.00,0.0103
1517.00,0.0105
1516.00,0.0107
1515.00,0.0109
1514.00,0.0110
1513.00,0.0112
1512.00,0.0114
1511.00,0.0116
1510.00,0.0117
1509.00,0.0119
1508.00,0.0121
1507.00,0.0123
1506.00,0.0127
1505.00,0.0131
1504.00,0.0134
1503.00,0.0137
1502.00,0.0140
1501.00,0.0143
1500.00,0.0147
1499.00,0.0151
1498.00,0.0154
1497.00,0.0159
1496.00,0.0164
1495.00,0.0168
1494.00,0.0171
1493.00,0.0175
1492.00,0.0179
1491.00,0.0183
1490.00,0.0188
1489.00,0.0194
1488.00,0.0201
1487.00,0.0208
1486.00,0.0214
1485.00,0.0222
1484.00,0.0231
1483.00,0.0239
1482.00,0.0249
1481.00,0.0260
1480.00,0.0273
1479.00,0.0285
1478.00,0.0300
1477.00,0.0320
1476.00,0.0343
1475.00,0.0368
1474.00,0.0403
1473.00,0.0453
1472.00,0.0515
1471.00,0.0574
1470.00,0.0630
1469.00,0.0689
1468.00,0.0752
1467.00,0.0821
1466.00,0.0902
1465.00,0.0991
1464.00,0.1073
1463.00,0.1132
1462.00,0.1174
1461.00,0.1205
1460.00,0.1229
1459.00,0.1248
1458.00,0.1267
1457.00,0.1287
1456.00,0.1297
1455.00,0.1297
1454.00,0.1290
1453.00,0.1277
1452.00,0.1256
1451.00,0.1223
1450.00,0.1178
1449.00,0.1116
1448.00,0.1037
1447.00,0.0953
1446.00,0.0878
1445.00,0.0812
1444.00,0.0756
1443.00,0.0708
1442.00,0.0672
1441.00,0.0647
1440.00,0.0630
1439.00,0.0622
1438.00,0.0621
1437.00,0.0622
1436.00,0.0612
1435.00,0.0588
1434.00,0.0554
1433.00,0.0513
1432.00,0.0471
1431.00,0.0434
1430.00,0.0405
1429.00,0.0383
1428.00,0.0369
1427.00,0.0359
1426.00,0.0352
1425.00,0.0345
1424.00,0.0338
1423.00,0.0332
1422.00,0.0328
1421.00,0.0323
1420.00,0.0316
1419.00,0.0308
1418.00,0.0301
1417.00,0.0294
1416.00,0.0287
1415.00,0.0282
1414.00,0.0276
1413.00,0.0271
1412.00,0.0265
1411.00,0.0260
1410.00,0.0255
1409.00,0.0250
1408.00,0.0244
1407.00,0.0239
1406.00,0.0235
1405.00,0.0231
1404.00,0.0228
1403.00,0.0226
1402.00,0.0226
1401.00,0.0225
1400.00,0.0224
1399.00,0.0223
1398.00,0.0222
1397.00,0.0220
1396.00,0.0218
1395.00,0.0217
1394.00,0.0218
1393.00,0.0220
1392.00,0.0222
1391.00,0.0226
1390.00,0.0234
1389.00,0.0247
1388.00,0.0267
1387.00,0.0298
1386.00,0.0341
1385.00,0.0398
1384.00,0.0474
1383.00,0.0579
1382.00,0.0717
1381.00,0.0893
1380.00,0.1107
1379.00,0.1348
1378.00,0.1580
1377.00,0.1753
1376.00,0.1817
1375.00,0.1739
1374.00,0.1540
1373.00,0.1292
1372.00,0.1061
1371.00,0.0867
1370.00,0.0710
1369.00,0.0589
1368.00,0.0504
1367.00,0.0450
1366.00,0.0419
1365.00,0.0405
1364.00,0.0404
1363.00,0.0415
1362.00,0.0432
1361.00,0.0451
1360.00,0.0465
1359.00,0.0468
1358.00,0.0456
1357.00,0.0430
1356.00,0.0395
1355.00,0.0356
1354.00,0.0319
1353.00,0.0287
1352.00,0.0262
1351.00,0.0241
1350.00,0.0223
1349.00,0.0209
1348.00,0.0198
1347.00,0.0189
1346.00,0.0182
1345.00,0.0177
1344.00,0.0174
1343.00,0.0172
1342.00,0.0171
1341.00,0.0168
1340.00,0.0165
1339.00,0.0162
1338.00,0.0159
1337.00,0.0158
1336.00,0.0158
1335.00,0.0159
1334.00,0.0161
1333.00,0.0164
1332.00,0.0167
1331.00,0.0170
1330.00,0.0171
1329.00,0.0171
1328.00,0.0169
1327.00,0.0165
1326.00,0.0159
1325.00,0.0152
1324.00,0.0145
1323.00,0.0139
1322.00,0.0134
1321.00,0.0130
1320.00,0.0127
1319.00,0.0124
1318.00,0.0122
1317.00,0.0119
1316.00,0.0117
1315.00,0.0116
1314.00,0.0115
1313.00,0.0115
1312.00,0.0116
1311.00,0.0119
1310.00,0.0123
1309.00,0.0130
1308.00,0.0138
1307.00,0.0148
1306.00,0.0159
1305.00,0.0166
1304.00,0.0168
1303.00,0.0167
1302.00,0.0163
1301.00,0.0158
1300.00,0.0156
1299.00,0.0155
1298.00,0.0155
1297.00,0.0155
1296.00,0.0154
1295.00,0.0152
1294.00,0.0149
1293.00,0.0145
1292.00,0.0141
1291.00,0.0137
1290.00,0.0133
1289.00,0.0129
1288.00,0.0126
1287.00,0.0123
1286.00,0.0120
1285.00,0.0117
1284.00,0.0115
1283.00,0.0114
1282.00,0.0112
1281.00,0.0111
1280.00,0.0109
1279.00,0.0108
1278.00,0.0107
1277.00,0.0106
1276.00,0.0105
1275.00,0.0105
1274.00,0.0105
1273.00,0.0105
1272.00,0.0105
1271.00,0.0105
1270.00,0.0105
1269.00,0.0106
1268.00,0.0107
1267.00,0.0109
1266.00,0.0111
1265.00,0.0114
1264.00,0.0117
1263.00,0.0120
1262.00,0.0123
1261.00,0.0127
1260.00,0.0132
1259.00,0.0138
1258.00,0.0145
1257.00,0.0150
1256.00,0.0153
1255.00,0.0151
1254.00,0.0146
1253.00,0.0139
1252.00,0.0131
1251.00,0.0125
1250.00,0.0121
1249.00,0.0118
1248.00,0.0116
1247.00,0.0115
1246.00,0.0113
1245.00,0.0112
1244.00,0.0110
1243.00,0.0109
1242.00,0.0108
1241.00,0.0108
1240.00,0.0107
1239.00,0.0106
1238.00,0.0105
1237.00,0.0105
1236.00,0.0104
1235.00,0.0103
1234.00,0.0103
1233.00,0.0103
1232.00,0.0103
1231.00,0.0103
1230.00,0.0104
1229.00,0.0105
1228.00,0.0106
1227.00,0.0107
1226.00,0.0108
1225.00,0.0110
1224.00,0.0113
1223.00,0.0116
1222.00,0.0119
1221.00,0.0121
1220.00,0.0123
1219.00,0.0124
1218.00,0.0125
1217.00,0.0125
1216.00,0.0125
1215.00,0.0123
1214.00,0.0121
1213.00,0.0118
1212.00,0.0115
1211.00,0.0113
1210.00,0.0111
1209.00,0.0109
1208.00,0.0108
1207.00,0.0106
1206.00,0.0104
1205.00,0.0103
1204.00,0.0102
1203.00,0.0101
1202.00,0.0102
1201.00,0.0102
1200.00,0.0102
1199.00,0.0102
1198.00,0.0102
1197.00,0.0102
1196.00,0.0103
1195.00,0.0103
1194.00,0.0103
1193.00,0.0103
1192.00,0.0104
1191.00,0.0104
1190.00,0.0105
1189.00,0.0105
1188.00,0.0105
1187.00,0.0105
1186.00,0.0106
1185.00,0.0106
1184.00,0.0107
1183.00,0.0109
1182.00,0.0111
1181.00,0.0113
1180.00,0.0116
1179.00,0.0122
1178.00,0.0129
1177.00,0.0138
1176.00,0.0151
1175.00,0.0168
1174.00,0.0189
1173.00,0.0214
1172.00,0.0244
1171.00,0.0276
1170.00,0.0309
1169.00,0.0336
1168.00,0.0354
1167.00,0.0360
1166.00,0.0356
1165.00,0.0344
1164.00,0.0327
1163.00,0.0309
1162.00,0.0292
1161.00,0.0278
1160.00,0.0266
1159.00,0.0256
1158.00,0.0248
1157.00,0.0241
1156.00,0.0236
1155.00,0.0232
1154.00,0.0229
1153.00,0.0225
1152.00,0.0219
1151.00,0.0212
1150.00,0.0204
1149.00,0.0195
1148.00,0.0186
1147.00,0.0178
1146.00,0.0171
1145.00,0.0164
1144.00,0.0156
1143.00,0.0150
1142.00,0.0144
1141.00,0.0139
1140.00,0.0135
1139.00,0.0131
1138.00,0.0128
1137.00,0.0125
1136.00,0.0123
1135.00,0.0122
1134.00,0.0121
1133.00,0.0121
1132.00,0.0122
1131.00,0.0123
1130.00,0.0126
1129.00,0.0129
1128.00,0.0134
1127.00,0.0137
1126.00,0.0139
1125.00,0.0138
1124.00,0.0135
1123.00,0.0131
1122.00,0.0128
1121.00,0.0126
1120.00,0.0126
1119.00,0.0127
1118.00,0.0129
1117.00,0.0131
1116.00,0.0132
1115.00,0.0133
1114.00,0.0133
1113.00,0.0134
1112.00,0.0135
1111.00,0.0137
1110.00,0.0141
1109.00,0.0146
1108.00,0.0153
1107.00,0.0160
1106.00,0.0169
1105.00,0.0178
1104.00,0.0188
1103.00,0.0198
1102.00,0.0206
1101.00,0.0211
1100.00,0.0212
1099.00,0.0209
1098.00,0.0202
1097.00,0.0193
1096.00,0.0184
1095.00,0.0176
1094.00,0.0171
1093.00,0.0166
1092.00,0.0162
1091.00,0.0158
1090.00,0.0153
1089.00,0.0149
1088.00,0.0144
1087.00,0.0141
1086.00,0.0139
1085.00,0.0138
1084.00,0.0137
1083.00,0.0135
1082.00,0.0132
1081.00,0.0128
1080.00,0.0123
1079.00,0.0120
1078.00,0.0117
1077.00,0.0115
1076.00,0.0115
1075.00,0.0115
1074.00,0.0115
1073.00,0.0116
1072.00,0.0117
1071.00,0.0119
1070.00,0.0121
1069.00,0.0122
1068.00,0.0121
1067.00,0.0120
1066.00,0.0119
1065.00,0.0117
1064.00,0.0117
1063.00,0.0117
1062.00,0.0118
1061.00,0.0119
1060.00,0.0121
1059.00,0.0122
1058.00,0.0123
1057.00,0.0123
1056.00,0.0123
1055.00,0.0122
1054.00,0.0121
1053.00,0.0121
1052.00,0.0122
1051.00,0.0124
1050.00,0.0127
1049.00,0.0130
1048.00,0.0133
1047.00,0.0136
1046.00,0.0138
1045.00,0.0138
1044.00,0.0137
1043.00,0.0135
1042.00,0.0133
1041.00,0.0130
1040.00,0.0128
1039.00,0.0127
1038.00,0.0127
1037.00,0.0128
1036.00,0.0130
1035.00,0.0132
1034.00,0.0135
1033.00,0.0139
1032.00,0.0142
1031.00,0.0146
1030.00,0.0149
1029.00,0.0153
1028.00,0.0155
1027.00,0.0156
1026.00,0.0154
1025.00,0.0151
1024.00,0.0147
1023.00,0.0144
1022.00,0.0141
1021.00,0.0138
1020.00,0.0136
1019.00,0.0134
1018.00,0.0133
1017.00,0.0133
1016.00,0.0134
1015.00,0.0137
1014.00,0.0140
1013.00,0.0144
1012.00,0.0147
1011.00,0.0150
1010.00,0.0152
1009.00,0.0155
1008.00,0.0158
1007.00,0.0164
1006.00,0.0172
1005.00,0.0184
1004.00,0.0201
1003.00,0.0225
1002.00,0.0256
1001.00,0.0294
1000.00,0.0332
999.00,0.0364
998.00,0.0380
997.00,0.0375
996.00,0.0349
995.00,0.0310
994.00,0.0268
993.00,0.0231
992.00,0.0202
991.00,0.0180
990.00,0.0165
989.00,0.0155
988.00,0.0150
987.00,0.0147
986.00,0.0147
985.00,0.0149
984.00,0.0155
983.00,0.0165
982.00,0.0178
981.00,0.0195
980.00,0.0217
979.00,0.0244
978.00,0.0277
977.00,0.0317
976.00,0.0361
975.00,0.0403
974.00,0.0434
973.00,0.0444
972.00,0.0429
971.00,0.0391
970.00,0.0341
969.00,0.0289
968.00,0.0243
967.00,0.0207
966.00,0.0181
965.00,0.0162
964.00,0.0148
963.00,0.0138
962.00,0.0130
961.00,0.0123
960.00,0.0118
959.00,0.0114
958.00,0.0111
957.00,0.0109
956.00,0.0107
955.00,0.0106
954.00,0.0104
953.00,0.0103
952.00,0.0102
951.00,0.0101
950.00,0.0101
949.00,0.0101
948.00,0.0101
947.00,0.0101
946.00,0.0102
945.00,0.0103
944.00,0.0105
943.00,0.0108
942.00,0.0110
941.00,0.0111
940.00,0.0110
939.00,0.0108
938.00,0.0106
937.00,0.0103
936.00,0.0099
935.00,0.0096
934.00,0.0092
933.00,0.0089
932.00,0.0086
931.00,0.0084
930.00,0.0082
929.00,0.0080
928.00,0.0079
927.00,0.0079
926.00,0.0079
925.00,0.0079
924.00,0.0080
923.00,0.0080
922.00,0.0081
921.00,0.0081
920.00,0.0081
919.00,0.0081
918.00,0.0082
917.00,0.0084
916.00,0.0085
915.00,0.0086
914.00,0.0087
913.00,0.0088
912.00,0.0089
911.00,0.0090
910.00,0.0091
909.00,0.0092
908.00,0.0094
907.00,0.0098
906.00,0.0105
905.00,0.0116
904.00,0.0130
903.00,0.0148
902.00,0.0168
901.00,0.0186
900.00,0.0198
899.00,0.0201
898.00,0.0193
897.00,0.0179
896.00,0.0160
895.00,0.0143
894.00,0.0129
893.00,0.0117
892.00,0.0110
891.00,0.0105
890.00,0.0102
889.00,0.0100
888.00,0.0100
887.00,0.0101
886.00,0.0104
885.00,0.0107
884.00,0.0111
883.00,0.0117
882.00,0.0124
881.00,0.0132
880.00,0.0142
879.00,0.0152
878.00,0.0161
877.00,0.0167
876.00,0.0170
875.00,0.0169
874.00,0.0163
873.00,0.0153
872.00,0.0140
871.00,0.0126
870.00,0.0114
869.00,0.0106
868.00,0.0101
867.00,0.0099
866.00,0.0099
865.00,0.0100
864.00,0.0101
863.00,0.0102
862.00,0.0104
861.00,0.0107
860.00,0.0110
859.00,0.0114
858.00,0.0117
857.00,0.0118
856.00,0.0118
855.00,0.0117
854.00,0.0117
853.00,0.0118
852.00,0.0120
851.00,0.0124
850.00,0.0130
849.00,0.0137
848.00,0.0146
847.00,0.0160
846.00,0.0182
845.00,0.0214
844.00,0.0255
843.00,0.0300
842.00,0.0332
841.00,0.0340
840.00,0.0318
839.00,0.0277
838.00,0.0234
837.00,0.0199
836.00,0.0175
835.00,0.0160
834.00,0.0152
833.00,0.0148
832.00,0.0145
831.00,0.0142
830.00,0.0139
829.00,0.0136
828.00,0.0134
827.00,0.0135
826.00,0.0139
825.00,0.0143
824.00,0.0145
823.00,0.0144
822.00,0.0140
821.00,0.0136
820.00,0.0134
819.00,0.0134
818.00,0.0137
817.00,0.0142
816.00,0.0150
815.00,0.0160
814.00,0.0171
813.00,0.0184
812.00,0.0197
811.00,0.0210
810.00,0.0220
809.00,0.0226
808.00,0.0224
807.00,0.0215
806.00,0.0202
805.00,0.0188
804.00,0.0174
803.00,0.0162
802.00,0.0153
801.00,0.0146
800.00,0.0141
799.00,0.0137
798.00,0.0133
797.00,0.0129
796.00,0.0126
795.00,0.0123
794.00,0.0122
793.00,0.0121
792.00,0.0121
791.00,0.0121
790.00,0.0118
789.00,0.0113
788.00,0.0107
787.00,0.0101
786.00,0.0097
785.00,0.0095
784.00,0.0093
783.00,0.0091
782.00,0.0088
781.00,0.0085
780.00,0.0083
779.00,0.0083
778.00,0.0084
777.00,0.0086
776.00,0.0088
775.00,0.0090
774.00,0.0093
773.00,0.0097
772.00,0.0101
771.00,0.0104
770.00,0.0106
769.00,0.0106
768.00,0.0104
767.00,0.0101
766.00,0.0098
765.00,0.0095
764.00,0.0092
763.00,0.0090
762.00,0.0088
761.00,0.0086
760.00,0.0084
759.00,0.0082
758.00,0.0080
757.00,0.0077
756.00,0.0076
755.00,0.0075
754.00,0.0076
753.00,0.0077
752.00,0.0078
751.00,0.0078
750.00,0.0078
749.00,0.0078
748.00,0.0079
747.00,0.0081
746.00,0.0082
745.00,0.0083
744.00,0.0084
743.00,0.0085
742.00,0.0087
741.00,0.0088
740.00,0.0090
739.00,0.0092
738.00,0.0094
737.00,0.0096
736.00,0.0098
735.00,0.0099
734.00,0.0100
733.00,0.0101
732.00,0.0101
731.00,0.0101
730.00,0.0100
729.00,0.0099
728.00,0.0098
727.00,0.0098
726.00,0.0098
725.00,0.0098
724.00,0.0097
723.00,0.0097
722.00,0.0095
721.00,0.0093
720.00,0.0091
719.00,0.0089
718.00,0.0089
717.00,0.0089
716.00,0.0091
715.00,0.0093
714.00,0.0094
713.00,0.0094
712.00,0.0092
711.00,0.0091
710.00,0.0089
709.00,0.0089
708.00,0.0088
707.00,0.0088
706.00,0.0087
705.00,0.0085
704.00,0.0084
703.00,0.0084
702.00,0.0084
701.00,0.0083
700.00,0.0081
699.00,0.0080
698.00,0.0081
697.00,0.0082
696.00,0.0083
695.00,0.0083
694.00,0.0083
693.00,0.0083
692.00,0.0082
691.00,0.0080
690.00,0.0078
689.00,0.0076
688.00,0.0075
687.00,0.0077
686.00,0.0079
685.00,0.0080
684.00,0.0079
683.00,0.0079
682.00,0.0079
681.00,0.0080
680.00,0.0080
679.00,0.0079
678.00,0.0078
677.00,0.0078
676.00,0.0076
675.00,0.0075
674.00,0.0074
673.00,0.0075
672.00,0.0077
671.00,0.0079
670.00,0.0079
669.00,0.0078
668.00,0.0078
667.00,0.0081
666.00,0.0082
665.00,0.0083
664.00,0.0082
663.00,0.0081
662.00,0.0079
661.00,0.0077
660.00,0.0076
659.00,0.0076
658.00,0.0076
657.00,0.0077
656.00,0.0077
655.00,0.0078
654.00,0.0077
653.00,0.0076
652.00,0.0075
651.00,0.0074
650.00,0.0075
649.00,0.0076
648.00,0.0077
647.00,0.0077
646.00,0.0075
645.00,0.0074
644.00,0.0074
643.00,0.0076
642.00,0.0079
641.00,0.0081
640.00,0.0081
639.00,0.0080
638.00,0.0078
637.00,0.0077
636.00,0.0077
635.00,0.0078
634.00,0.0078
633.00,0.0079
632.00,0.0080
631.00,0.0083
630.00,0.0085
629.00,0.0085
628.00,0.0084
627.00,0.0083
626.00,0.0082
625.00,0.0081
624.00,0.0079
623.00,0.0077
622.00,0.0076
621.00,0.0077
620.00,0.0079
619.00,0.0082
618.00,0.0084
617.00,0.0086
616.00,0.0089
615.00,0.0092
614.00,0.0092
613.00,0.0090
612.00,0.0085
611.00,0.0082
610.00,0.0079
609.00,0.0077
608.00,0.0077
607.00,0.0078
606.00,0.0080
605.00,0.0081
604.00,0.0083
603.00,0.0085
602.00,0.0087
601.00,0.0088
600.00,0.0088
599.00,0.0088
598.00,0.0088
597.00,0.0085
596.00,0.0082
595.00,0.0079
594.00,0.0079
593.00,0.0081
592.00,0.0083
591.00,0.0084
590.00,0.0085
589.00,0.0087
588.00,0.0089
587.00,0.0091
586.00,0.0090
585.00,0.0086
584.00,0.0082
583.00,0.0079
582.00,0.0080
581.00,0.0082
580.00,0.0084
579.00,0.0086
578.00,0.0087
577.00,0.0088
576.00,0.0088
575.00,0.0088
574.00,0.0087
573.00,0.0086
572.00,0.0083
571.00,0.0082
570.00,0.0083
569.00,0.0086
568.00,0.0088
567.00,0.0089
566.00,0.0089
565.00,0.0089
564.00,0.0089
563.00,0.0087
562.00,0.0086
561.00,0.0086
560.00,0.0086
559.00,0.0086
558.00,0.0084
557.00,0.0080
556.00,0.0077
555.00,0.0078
554.00,0.0081
553.00,0.0082
552.00,0.0083
551.00,0.0084
550.00,0.0088
549.00,0.0091
548.00,0.0092
547.00,0.0091
546.00,0.0089
545.00,0.0088
544.00,0.0089
543.00,0.0092
542.00,0.0096
541.00,0.0097
540.00,0.0095
539.00,0.0092
538.00,0.0090
537.00,0.0091
536.00,0.0095
535.00,0.0100
534.00,0.0104
533.00,0.0105
532.00,0.0106
531.00,0.0106
530.00,0.0107
529.00,0.0106
528.00,0.0103
527.00,0.0100
526.00,0.0099
525.00,0.0097
524.00,0.0095
523.00,0.0095
522.00,0.0097
521.00,0.0097
520.00,0.0093
519.00,0.0087
518.00,0.0085
517.00,0.0088
516.00,0.0092
515.00,0.0095
514.00,0.0095
513.00,0.0092
512.00,0.0087
511.00,0.0084
510.00,0.0087
509.00,0.0091
508.00,0.0091
507.00,0.0087
506.00,0.0085
505.00,0.0089
504.00,0.0092
503.00,0.0092
502.00,0.0088
501.00,0.0082
500.00,0.0078
499.00,0.0077
498.00,0.0077
497.00,0.0079
496.00,0.0079
495.00,0.0077
494.00,0.0075
493.00,0.0076
492.00,0.0079
491.00,0.0085
490.00,0.0091
489.00,0.0097
488.00,0.0101
487.00,0.0103
486.00,0.0104
485.00,0.0105
484.00,0.0105
483.00,0.0103
482.00,0.0103
481.00,0.0102
480.00,0.0099
479.00,0.0091
478.00,0.0082
477.00,0.0075
476.00,0.0074
475.00,0.0075
474.00,0.0079
473.00,0.0086
472.00,0.0094
471.00,0.0099
470.00,0.0100
469.00,0.0096
468.00,0.0095
467.00,0.0101
466.00,0.0116
465.00,0.0132
464.00,0.0146
463.00,0.0154
462.00,0.0161
461.00,0.0169
460.00,0.0180
459.00,0.0192
458.00,0.0199
457.00,0.0193
456.00,0.0177
455.00,0.0157
454.00,0.0141
453.00,0.0131
452.00,0.0123
451.00,0.0116
450.00,0.0107
