Created as New Dataset,Sample 013 By Administrator Date Wednesday, September 10 2025
cm-1,A
4000.00,0.0008
3999.00,0.0008
3998.00,0.0008
3997.00,0.0008
3996.00,0.0008
3995.00,0.0008
3994.00,0.0008
3993.00,0.0008
3992.00,0.0008
3991.00,0.0008
3990.00,0.0008
3989.00,0.0008
3988.00,0.0008
3987.00,0.0007
3986.00,0.0007
3985.00,0.0007
3984.00,0.0007
3983.00,0.0007
3982.00,0.0007
3981.00,0.0007
3980.00,0.0007
3979.00,0.0007
3978.00,0.0007
3977.00,0.0007
3976.00,0.0007
3975.00,0.0007
3974.00,0.0006
3973.00,0.0006
3972.00,0.0006
3971.00,0.0007
3970.00,0.0007
3969.00,0.0007
3968.00,0.0007
3967.00,0.0007
3966.00,0.0007
3965.00,0.0006
3964.00,0.0006
3963.00,0.0006
3962.00,0.0006
3961.00,0.0007
3960.00,0.0007
3959.00,0.0007
3958.00,0.0007
3957.00,0.0007
3956.00,0.0006
3955.00,0.0006
3954.00,0.0006
3953.00,0.0006
3952.00,0.0006
3951.00,0.0006
3950.00,0.0007
3949.00,0.0007
3948.00,0.0007
3947.00,0.0007
3946.00,0.0007
3945.00,0.0006
3944.00,0.0006
3943.00,0.0006
3942.00,0.0006
3941.00,0.0006
3940.00,0.0006
3939.00,0.0006
3938.00,0.0006
3937.00,0.0006
3936.00,0.0006
3935.00,0.0006
3934.00,0.0006
3933.00,0.0007
3932.00,0.0007
3931.00,0.0007
3930.00,0.0007
3929.00,0.0007
3928.00,0.0007
3927.00,0.0007
3926.00,0.0007
3925.00,0.0007
3924.00,0.0006
3923.00,0.0006
3922.00,0.0006
3921.00,0.0006
3920.00,0.0006
3919.00,0.0007
3918.00,0.0007
3917.00,0.0007
3916.00,0.0007
3915.00,0.0007
3914.00,0.0007
3913.00,0.0007
3912.00,0.0006
3911.00,0.0006
3910.00,0.0006
3909.00,0.0006
3908.00,0.0006
3907.00,0.0006
3906.00,0.0007
3905.00,0.0007
3904.00,0.0007
3903.00,0.0007
3902.00,0.0007
3901.00,0.0007
3900.00,0.0007
3899.00,0.0007
3898.00,0.0007
3897.00,0.0006
3896.00,0.0006
3895.00,0.0006
3894.00,0.0005
3893.00,0.0005
3892.00,0.0006
3891.00,0.0006
3890.00,0.0007
3889.00,0.0007
3888.00,0.0006
3887.00,0.0006
3886.00,0.0006
3885.00,0.0006
3884.00,0.0006
3883.00,0.0007
3882.00,0.0007
3881.00,0.0006
3880.00,0.0006
3879.00,0.0007
3878.00,0.0007
3877.00,0.0006
3876.00,0.0006
3875.00,0.0005
3874.00,0.0005
3873.00,0.0005
3872.00,0.0006
3871.00,0.0006
3870.00,0.0006
3869.00,0.0007
3868.00,0.0007
3867.00,0.0007
3866.00,0.0007
3865.00,0.0006
3864.00,0.0006
3863.00,0.0005
3862.00,0.0005
3861.00,0.0006
3860.00,0.0006
3859.00,0.0006
3858.00,0.0006
3857.00,0.0006
3856.00,0.0007
3855.00,0.0007
3854.00,0.0007
3853.00,0.0007
3852.00,0.0007
3851.00,0.0006
3850.00,0.0006
3849.00,0.0006
3848.00,0.0005
3847.00,0.0006
3846.00,0.0006
3845.00,0.0006
3844.00,0.0006
3843.00,0.0006
3842.00,0.0006
3841.00,0.0006
3840.00,0.0006
3839.00,0.0006
3838.00,0.0005
3837.00,0.0005
3836.00,0.0006
3835.00,0.0006
3834.00,0.0006
3833.00,0.0006
3832.00,0.0006
3831.00,0.0006
3830.00,0.0006
3829.00,0.0006
3828.00,0.0006
3827.00,0.0006
3826.00,0.0006
3825.00,0.0006
3824.00,0.0006
3823.00,0.0006
3822.00,0.0006
3821.00,0.0005
3820.00,0.0005
3819.00,0.0005
3818.00,0.0005
3817.00,0.0005
3816.00,0.0005
3815.00,0.0005
3814.00,0.0005
3813.00,0.0005
3812.00,0.0005
3811.00,0.0006
3810.00,0.0006
3809.00,0.0005
3808.00,0.0005
3807.00,0.0004
3806.00,0.0004
3805.00,0.0005
3804.00,0.0005
3803.00,0.0005
3802.00,0.0005
3801.00,0.0006
3800.00,0.0006
3799.00,0.0006
3798.00,0.0006
3797.00,0.0006
3796.00,0.0006
3795.00,0.0006
3794.00,0.0006
3793.00,0.0006
3792.00,0.0005
3791.00,0.0006
3790.00,0.0006
3789.00,0.0006
3788.00,0.0006
3787.00,0.0006
3786.00,0.0006
3785.00,0.0006
3784.00,0.0006
3783.00,0.0006
3782.00,0.0006
3781.00,0.0006
3780.00,0.0006
3779.00,0.0006
3778.00,0.0005
3777.00,0.0005
3776.00,0.0005
3775.00,0.0005
3774.00,0.0005
3773.00,0.0006
3772.00,0.0006
3771.00,0.0006
3770.00,0.0007
3769.00,0.0007
3768.00,0.0007
3767.00,0.0007
3766.00,0.0007
3765.00,0.0007
3764.00,0.0007
3763.00,0.0007
3762.00,0.0007
3761.00,0.0007
3760.00,0.0007
3759.00,0.0007
3758.00,0.0007
3757.00,0.0007
3756.00,0.0007
3755.00,0.0007
3754.00,0.0007
3753.00,0.0006
3752.00,0.0006
3751.00,0.0006
3750.00,0.0005
3749.00,0.0005
3748.00,0.0006
3747.00,0.0006
3746.00,0.0005
3745.00,0.0005
3744.00,0.0005
3743.00,0.0006
3742.00,0.0006
3741.00,0.0006
3740.00,0.0006
3739.00,0.0006
3738.00,0.0006
3737.00,0.0007
3736.00,0.0007
3735.00,0.0006
3734.00,0.0006
3733.00,0.0006
3732.00,0.0006
3731.00,0.0006
3730.00,0.0006
3729.00,0.0006
3728.00,0.0005
3727.00,0.0005
3726.00,0.0005
3725.00,0.0005
3724.00,0.0005
3723.00,0.0004
3722.00,0.0004
3721.00,0.0005
3720.00,0.0005
3719.00,0.0005
3718.00,0.0005
3717.00,0.0005
3716.00,0.0004
3715.00,0.0004
3714.00,0.0004
3713.00,0.0004
3712.00,0.0004
3711.00,0.0005
3710.00,0.0005
3709.00,0.0004
3708.00,0.0004
3707.00,0.0003
3706.00,0.0003
3705.00,0.0003
3704.00,0.0003
3703.00,0.0003
3702.00,0.0004
3701.00,0.0004
3700.00,0.0004
3699.00,0.0004
3698.00,0.0004
3697.00,0.0003
3696.00,0.0003
3695.00,0.0003
3694.00,0.0003
3693.00,0.0003
3692.00,0.0003
3691.00,0.0003
3690.00,0.0003
3689.00,0.0002
3688.00,0.0002
3687.00,0.0002
3686.00,0.0002
3685.00,0.0002
3684.00,0.0003
3683.00,0.0003
3682.00,0.0004
3681.00,0.0004
3680.00,0.0005
3679.00,0.0005
3678.00,0.0005
3677.00,0.0005
3676.00,0.0004
3675.00,0.0004
3674.00,0.0004
3673.00,0.0005
3672.00,0.0005
3671.00,0.0005
3670.00,0.0004
3669.00,0.0004
3668.00,0.0004
3667.00,0.0004
3666.00,0.0004
3665.00,0.0004
3664.00,0.0004
3663.00,0.0004
3662.00,0.0004
3661.00,0.0004
3660.00,0.0004
3659.00,0.0004
3658.00,0.0004
3657.00,0.0004
3656.00,0.0004
3655.00,0.0004
3654.00,0.0004
3653.00,0.0004
3652.00,0.0005
3651.00,0.0005
3650.00,0.0005
3649.00,0.0005
3648.00,0.0004
3647.00,0.0004
3646.00,0.0003
3645.00,0.0003
3644.00,0.0003
3643.00,0.0003
3642.00,0.0003
3641.00,0.0003
3640.00,0.0003
3639.00,0.0003
3638.00,0.0003
3637.00,0.0003
3636.00,0.0003
3635.00,0.0004
3634.00,0.0004
3633.00,0.0004
3632.00,0.0004
3631.00,0.0004
3630.00,0.0004
3629.00,0.0004
3628.00,0.0004
3627.00,0.0005
3626.00,0.0005
3625.00,0.0005
3624.00,0.0004
3623.00,0.0004
3622.00,0.0004
3621.00,0.0004
3620.00,0.0004
3619.00,0.0004
3618.00,0.0004
3617.00,0.0004
3616.00,0.0004
3615.00,0.0005
3614.00,0.0005
3613.00,0.0006
3612.00,0.0007
3611.00,0.0007
3610.00,0.0007
3609.00,0.0006
3608.00,0.0005
3607.00,0.0005
3606.00,0.0005
3605.00,0.0005
3604.00,0.0005
3603.00,0.0005
3602.00,0.0005
3601.00,0.0005
3600.00,0.0006
3599.00,0.0006
3598.00,0.0006
3597.00,0.0006
3596.00,0.0006
3595.00,0.0006
3594.00,0.0006
3593.00,0.0006
3592.00,0.0006
3591.00,0.0006
3590.00,0.0007
3589.00,0.0007
3588.00,0.0007
3587.00,0.0007
3586.00,0.0007
3585.00,0.0007
3584.00,0.0007
3583.00,0.0007
3582.00,0.0007
3581.00,0.0007
3580.00,0.0007
3579.00,0.0007
3578.00,0.0007
3577.00,0.0007
3576.00,0.0008
3575.00,0.0008
3574.00,0.0008
3573.00,0.0008
3572.00,0.0008
3571.00,0.0008
3570.00,0.0008
3569.00,0.0008
3568.00,0.0008
3567.00,0.0008
3566.00,0.0008
3565.00,0.0009
3564.00,0.0009
3563.00,0.0009
3562.00,0.0008
3561.00,0.0009
3560.00,0.0009
3559.00,0.0009
3558.00,0.0010
3557.00,0.0010
3556.00,0.0011
3555.00,0.0011
3554.00,0.0011
3553.00,0.0011
3552.00,0.0011
3551.00,0.0011
3550.00,0.0011
3549.00,0.0012
3548.00,0.0012
3547.00,0.0013
3546.00,0.0013
3545.00,0.0013
3544.00,0.0013
3543.00,0.0013
3542.00,0.0013
3541.00,0.0012
3540.00,0.0013
3539.00,0.0013
3538.00,0.0013
3537.00,0.0014
3536.00,0.0014
3535.00,0.0014
3534.00,0.0014
3533.00,0.0015
3532.00,0.0015
3531.00,0.0015
3530.00,0.0015
3529.00,0.0015
3528.00,0.0015
3527.00,0.0015
3526.00,0.0015
3525.00,0.0016
3524.00,0.0016
3523.00,0.0016
3522.00,0.0016
3521.00,0.0016
3520.00,0.0016
3519.00,0.0017
3518.00,0.0017
3517.00,0.0017
3516.00,0.0017
3515.00,0.0017
3514.00,0.0017
3513.00,0.0017
3512.00,0.0017
3511.00,0.0018
3510.00,0.0018
3509.00,0.0018
3508.00,0.0018
3507.00,0.0018
3506.00,0.0018
3505.00,0.0018
3504.00,0.0018
3503.00,0.0018
3502.00,0.0018
3501.00,0.0019
3500.00,0.0019
3499.00,0.0020
3498.00,0.0020
3497.00,0.0020
3496.00,0.0020
3495.00,0.0019
3494.00,0.0019
3493.00,0.0019
3492.00,0.0020
3491.00,0.0020
3490.00,0.0021
3489.00,0.0021
3488.00,0.0021
3487.00,0.0021
3486.00,0.0021
3485.00,0.0021
3484.00,0.0022
3483.00,0.0022
3482.00,0.0022
3481.00,0.0022
3480.00,0.0023
3479.00,0.0023
3478.00,0.0023
3477.00,0.0023
3476.00,0.0023
3475.00,0.0023
3474.00,0.0023
3473.00,0.0023
3472.00,0.0024
3471.00,0.0024
3470.00,0.0024
3469.00,0.0025
3468.00,0.0025
3467.00,0.0025
3466.00,0.0025
3465.00,0.0025
3464.00,0.0026
3463.00,0.0026
3462.00,0.0026
3461.00,0.0026
3460.00,0.0026
3459.00,0.0026
3458.00,0.0026
3457.00,0.0026
3456.00,0.0026
3455.00,0.0026
3454.00,0.0026
3453.00,0.0026
3452.00,0.0026
3451.00,0.0026
3450.00,0.0026
3449.00,0.0026
3448.00,0.0027
3447.00,0.0027
3446.00,0.0027
3445.00,0.0028
3444.00,0.0028
3443.00,0.0029
3442.00,0.0029
3441.00,0.0029
3440.00,0.0029
3439.00,0.0029
3438.00,0.0029
3437.00,0.0029
3436.00,0.0029
3435.00,0.0029
3434.00,0.0030
3433.00,0.0030
3432.00,0.0030
3431.00,0.0030
3430.00,0.0030
3429.00,0.0030
3428.00,0.0031
3427.00,0.0031
3426.00,0.0032
3425.00,0.0032
3424.00,0.0032
3423.00,0.0032
3422.00,0.0032
3421.00,0.0032
3420.00,0.0032
3419.00,0.0033
3418.00,0.0033
3417.00,0.0033
3416.00,0.0033
3415.00,0.0033
3414.00,0.0033
3413.00,0.0033
3412.00,0.0033
3411.00,0.0033
3410.00,0.0033
3409.00,0.0033
3408.00,0.0033
3407.00,0.0033
3406.00,0.0033
3405.00,0.0033
3404.00,0.0033
3403.00,0.0033
3402.00,0.0033
3401.00,0.0033
3400.00,0.0033
3399.00,0.0033
3398.00,0.0033
3397.00,0.0032
3396.00,0.0032
3395.00,0.0032
3394.00,0.0033
3393.00,0.0033
3392.00,0.0033
3391.00,0.0033
3390.00,0.0033
3389.00,0.0033
3388.00,0.0033
3387.00,0.0033
3386.00,0.0033
3385.00,0.0033
3384.00,0.0033
3383.00,0.0033
3382.00,0.0033
3381.00,0.0033
3380.00,0.0033
3379.00,0.0034
3378.00,0.0034
3377.00,0.0034
3376.00,0.0034
3375.00,0.0034
3374.00,0.0035
3373.00,0.0035
3372.00,0.0034
3371.00,0.0034
3370.00,0.0033
3369.00,0.0033
3368.00,0.0033
3367.00,0.0033
3366.00,0.0034
3365.00,0.0034
3364.00,0.0034
3363.00,0.0035
3362.00,0.0034
3361.00,0.0034
3360.00,0.0034
3359.00,0.0034
3358.00,0.0034
3357.00,0.0034
3356.00,0.0035
3355.00,0.0035
3354.00,0.0035
3353.00,0.0035
3352.00,0.0035
3351.00,0.0035
3350.00,0.0035
3349.00,0.0035
3348.00,0.0035
3347.00,0.0035
3346.00,0.0036
3345.00,0.0036
3344.00,0.0036
3343.00,0.0036
3342.00,0.0035
3341.00,0.0035
3340.00,0.0035
3339.00,0.0035
3338.00,0.0034
3337.00,0.0034
3336.00,0.0034
3335.00,0.0034
3334.00,0.0034
3333.00,0.0034
3332.00,0.0033
3331.00,0.0033
3330.00,0.0033
3329.00,0.0033
3328.00,0.0033
3327.00,0.0032
3326.00,0.0032
3325.00,0.0033
3324.00,0.0033
3323.00,0.0033
3322.00,0.0032
3321.00,0.0032
3320.00,0.0032
3319.00,0.0032
3318.00,0.0032
3317.00,0.0032
3316.00,0.0033
3315.00,0.0033
3314.00,0.0033
3313.00,0.0033
3312.00,0.0033
3311.00,0.0032
3310.00,0.0032
3309.00,0.0032
3308.00,0.0033
3307.00,0.0033
3306.00,0.0033
3305.00,0.0033
3304.00,0.0033
3303.00,0.0032
3302.00,0.0032
3301.00,0.0032
3300.00,0.0032
3299.00,0.0032
3298.00,0.0032
3297.00,0.0032
3296.00,0.0032
3295.00,0.0032
3294.00,0.0032
3293.00,0.0031
3292.00,0.0031
3291.00,0.0031
3290.00,0.0031
3289.00,0.0031
3288.00,0.0031
3287.00,0.0031
3286.00,0.0031
3285.00,0.0031
3284.00,0.0031
3283.00,0.0031
3282.00,0.0031
3281.00,0.0031
3280.00,0.0031
3279.00,0.0031
3278.00,0.0031
3277.00,0.0030
3276.00,0.0030
3275.00,0.0030
3274.00,0.0031
3273.00,0.0031
3272.00,0.0031
3271.00,0.0031
3270.00,0.0031
3269.00,0.0031
3268.00,0.0031
3267.00,0.0030
3266.00,0.0030
3265.00,0.0029
3264.00,0.0029
3263.00,0.0029
3262.00,0.0029
3261.00,0.0029
3260.00,0.0029
3259.00,0.0029
3258.00,0.0029
3257.00,0.0028
3256.00,0.0028
3255.00,0.0028
3254.00,0.0028
3253.00,0.0028
3252.00,0.0028
3251.00,0.0028
3250.00,0.0029
3249.00,0.0029
3248.00,0.0029
3247.00,0.0029
3246.00,0.0029
3245.00,0.0029
3244.00,0.0028
3243.00,0.0028
3242.00,0.0028
3241.00,0.0028
3240.00,0.0028
3239.00,0.0028
3238.00,0.0028
3237.00,0.0027
3236.00,0.0027
3235.00,0.0028
3234.00,0.0028
3233.00,0.0028
3232.00,0.0028
3231.00,0.0029
3230.00,0.0029
3229.00,0.0029
3228.00,0.0029
3227.00,0.0029
3226.00,0.0030
3225.00,0.0030
3224.00,0.0030
3223.00,0.0030
3222.00,0.0030
3221.00,0.0031
3220.00,0.0031
3219.00,0.0031
3218.00,0.0031
3217.00,0.0031
3216.00,0.0032
3215.00,0.0032
3214.00,0.0032
3213.00,0.0032
3212.00,0.0032
3211.00,0.0032
3210.00,0.0033
3209.00,0.0033
3208.00,0.0034
3207.00,0.0034
3206.00,0.0034
3205.00,0.0034
3204.00,0.0034
3203.00,0.0034
3202.00,0.0034
3201.00,0.0034
3200.00,0.0034
3199.00,0.0035
3198.00,0.0035
3197.00,0.0034
3196.00,0.0034
3195.00,0.0034
3194.00,0.0034
3193.00,0.0034
3192.00,0.0033
3191.00,0.0033
3190.00,0.0033
3189.00,0.0033
3188.00,0.0033
3187.00,0.0033
3186.00,0.0033
3185.00,0.0033
3184.00,0.0032
3183.00,0.0032
3182.00,0.0032
3181.00,0.0032
3180.00,0.0032
3179.00,0.0033
3178.00,0.0032
3177.00,0.0032
3176.00,0.0032
3175.00,0.0031
3174.00,0.0031
3173.00,0.0031
3172.00,0.0031
3171.00,0.0031
3170.00,0.0030
3169.00,0.0030
3168.00,0.0030
3167.00,0.0030
3166.00,0.0030
3165.00,0.0030
3164.00,0.0030
3163.00,0.0029
3162.00,0.0029
3161.00,0.0029
3160.00,0.0029
3159.00,0.0029
3158.00,0.0028
3157.00,0.0028
3156.00,0.0028
3155.00,0.0028
3154.00,0.0028
3153.00,0.0028
3152.00,0.0029
3151.00,0.0029
3150.00,0.0029
3149.00,0.0030
3148.00,0.0030
3147.00,0.0030
3146.00,0.0030
3145.00,0.0030
3144.00,0.0030
3143.00,0.0030
3142.00,0.0030
3141.00,0.0030
3140.00,0.0030
3139.00,0.0029
3138.00,0.0029
3137.00,0.0029
3136.00,0.0029
3135.00,0.0029
3134.00,0.0029
3133.00,0.0029
3132.00,0.0029
3131.00,0.0029
3130.00,0.0028
3129.00,0.0028
3128.00,0.0027
3127.00,0.0027
3126.00,0.0026
3125.00,0.0026
3124.00,0.0026
3123.00,0.0025
3122.00,0.0025
3121.00,0.0025
3120.00,0.0025
3119.00,0.0025
3118.00,0.0025
3117.00,0.0025
3116.00,0.0025
3115.00,0.0025
3114.00,0.0025
3113.00,0.0025
3112.00,0.0025
3111.00,0.0024
3110.00,0.0024
3109.00,0.0024
3108.00,0.0024
3107.00,0.0024
3106.00,0.0024
3105.00,0.0024
3104.00,0.0024
3103.00,0.0024
3102.00,0.0024
3101.00,0.0023
3100.00,0.0023
3099.00,0.0023
3098.00,0.0023
3097.00,0.0023
3096.00,0.0023
3095.00,0.0023
3094.00,0.0023
3093.00,0.0023
3092.00,0.0023
3091.00,0.0023
3090.00,0.0023
3089.00,0.0023
3088.00,0.0023
3087.00,0.0023
3086.00,0.0023
3085.00,0.0022
3084.00,0.0022
3083.00,0.0022
3082.00,0.0022
3081.00,0.0022
3080.00,0.0022
3079.00,0.0023
3078.00,0.0023
3077.00,0.0023
3076.00,0.0023
3075.00,0.0023
3074.00,0.0023
3073.00,0.0023
3072.00,0.0023
3071.00,0.0023
3070.00,0.0023
3069.00,0.0024
3068.00,0.0024
3067.00,0.0024
3066.00,0.0024
3065.00,0.0024
3064.00,0.0025
3063.00,0.0025
3062.00,0.0025
3061.00,0.0025
3060.00,0.0025
3059.00,0.0025
3058.00,0.0025
3057.00,0.0025
3056.00,0.0025
3055.00,0.0026
3054.00,0.0026
3053.00,0.0027
3052.00,0.0027
3051.00,0.0027
3050.00,0.0027
3049.00,0.0027
3048.00,0.0027
3047.00,0.0027
3046.00,0.0027
3045.00,0.0028
3044.00,0.0028
3043.00,0.0028
3042.00,0.0028
3041.00,0.0028
3040.00,0.0028
3039.00,0.0028
3038.00,0.0028
3037.00,0.0029
3036.00,0.0030
3035.00,0.0030
3034.00,0.0030
3033.00,0.0030
3032.00,0.0031
3031.00,0.0031
3030.00,0.0032
3029.00,0.0032
3028.00,0.0033
3027.00,0.0034
3026.00,0.0034
3025.00,0.0035
3024.00,0.0036
3023.00,0.0037
3022.00,0.0038
3021.00,0.0039
3020.00,0.0040
3019.00,0.0041
3018.00,0.0042
3017.00,0.0043
3016.00,0.0044
3015.00,0.0044
3014.00,0.0045
3013.00,0.0047
3012.00,0.0048
3011.00,0.0049
3010.00,0.0051
3009.00,0.0053
3008.00,0.0055
3007.00,0.0057
3006.00,0.0059
3005.00,0.0061
3004.00,0.0063
3003.00,0.0065
3002.00,0.0068
3001.00,0.0070
3000.00,0.0073
2999.00,0.0076
2998.00,0.0080
2997.00,0.0083
2996.00,0.0088
2995.00,0.0093
2994.00,0.0098
2993.00,0.0103
2992.00,0.0109
2991.00,0.0115
2990.00,0.0122
2989.00,0.0130
2988.00,0.0140
2987.00,0.0150
2986.00,0.0161
2985.00,0.0174
2984.00,0.0188
2983.00,0.0204
2982.00,0.0221
2981.00,0.0241
2980.00,0.0263
2979.00,0.0288
2978.00,0.0317
2977.00,0.0350
2976.00,0.0387
2975.00,0.0430
2974.00,0.0480
2973.00,0.0536
2972.00,0.0599
2971.00,0.0670
2970.00,0.0750
2969.00,0.0839
2968.00,0.0937
2967.00,0.1045
2966.00,0.1162
2965.00,0.1285
2964.00,0.1413
2963.00,0.1542
2962.00,0.1665
2961.00,0.1777
2960.00,0.1872
2959.00,0.1946
2958.00,0.1998
2957.00,0.2032
2956.00,0.2052
2955.00,0.2064
2954.00,0.2075
2953.00,0.2085
2952.00,0.2091
2951.00,0.2086
2950.00,0.2063
2949.00,0.2014
2948.00,0.1934
2947.00,0.1825
2946.00,0.1695
2945.00,0.1556
2944.00,0.1422
2943.00,0.1302
2942.00,0.1204
2941.00,0.1131
2940.00,0.1085
2939.00,0.1061
2938.00,0.1059
2937.00,0.1076
2936.00,0.1110
2935.00,0.1158
2934.00,0.1219
2933.00,0.1292
2932.00,0.1374
2931.00,0.1463
2930.00,0.1556
2929.00,0.1650
2928.00,0.1741
2927.00,0.1827
2926.00,0.1907
2925.00,0.1981
2924.00,0.2051
2923.00,0.2117
2922.00,0.2181
2921.00,0.2243
2920.00,0.2298
2919.00,0.2341
2918.00,0.2368
2917.00,0.2372
2916.00,0.2354
2915.00,0.2315
2914.00,0.2260
2913.00,0.2197
2912.00,0.2132
2911.00,0.2069
2910.00,0.2012
2909.00,0.1960
2908.00,0.1909
2907.00,0.1859
2906.00,0.1805
2905.00,0.1747
2904.00,0.1684
2903.00,0.1616
2902.00,0.1547
2901.00,0.1476
2900.00,0.1407
2899.00,0.1340
2898.00,0.1278
2897.00,0.1222
2896.00,0.1172
2895.00,0.1129
2894.00,0.1095
2893.00,0.1068
2892.00,0.1048
2891.00,0.1034
2890.00,0.1026
2889.00,0.1023
2888.00,0.1024
2887.00,0.1030
2886.00,0.1039
2885.00,0.1051
2884.00,0.1068
2883.00,0.1088
2882.00,0.1111
2881.00,0.1135
2880.00,0.1159
2879.00,0.1178
2878.00,0.1189
2877.00,0.1191
2876.00,0.1185
2875.00,0.1175
2874.00,0.1166
2873.00,0.1161
2872.00,0.1165
2871.00,0.1176
2870.00,0.1192
2869.00,0.1208
2868.00,0.1218
2867.00,0.1213
2866.00,0.1186
2865.00,0.1135
2864.00,0.1062
2863.00,0.0976
2862.00,0.0886
2861.00,0.0801
2860.00,0.0727
2859.00,0.0667
2858.00,0.0621
2857.00,0.0589
2856.00,0.0567
2855.00,0.0554
2854.00,0.0549
2853.00,0.0551
2852.00,0.0561
2851.00,0.0577
2850.00,0.0601
2849.00,0.0632
2848.00,0.0672
2847.00,0.0722
2846.00,0.0782
2845.00,0.0851
2844.00,0.0929
2843.00,0.1014
2842.00,0.1102
2841.00,0.1186
2840.00,0.1258
2839.00,0.1306
2838.00,0.1323
2837.00,0.1300
2836.00,0.1238
2835.00,0.1144
2834.00,0.1029
2833.00,0.0907
2832.00,0.0790
2831.00,0.0686
2830.00,0.0598
2829.00,0.0526
2828.00,0.0468
2827.00,0.0422
2826.00,0.0384
2825.00,0.0352
2824.00,0.0326
2823.00,0.0304
2822.00,0.0285
2821.00,0.0269
2820.00,0.0255
2819.00,0.0243
2818.00,0.0232
2817.00,0.0223
2816.00,0.0215
2815.00,0.0207
2814.00,0.0201
2813.00,0.0195
2812.00,0.0190
2811.00,0.0185
2810.00,0.0180
2809.00,0.0174
2808.00,0.0168
2807.00,0.0162
2806.00,0.0156
2805.00,0.0149
2804.00,0.0143
2803.00,0.0137
2802.00,0.0131
2801.00,0.0126
2800.00,0.0122
2799.00,0.0119
2798.00,0.0116
2797.00,0.0114
2796.00,0.0112
2795.00,0.0110
2794.00,0.0107
2793.00,0.0104
2792.00,0.0100
2791.00,0.0096
2790.00,0.0093
2789.00,0.0090
2788.00,0.0086
2787.00,0.0083
2786.00,0.0079
2785.00,0.0076
2784.00,0.0073
2783.00,0.0070
2782.00,0.0068
2781.00,0.0065
2780.00,0.0064
2779.00,0.0062
2778.00,0.0061
2777.00,0.0060
2776.00,0.0058
2775.00,0.0057
2774.00,0.0057
2773.00,0.0056
2772.00,0.0055
2771.00,0.0055
2770.00,0.0054
2769.00,0.0054
2768.00,0.0054
2767.00,0.0053
2766.00,0.0053
2765.00,0.0053
2764.00,0.0052
2763.00,0.0052
2762.00,0.0051
2761.00,0.0051
2760.00,0.0051
2759.00,0.0051
2758.00,0.0051
2757.00,0.0050
2756.00,0.0050
2755.00,0.0049
2754.00,0.0049
2753.00,0.0049
2752.00,0.0049
2751.00,0.0049
2750.00,0.0049
2749.00,0.0049
2748.00,0.0049
2747.00,0.0050
2746.00,0.0050
2745.00,0.0051
2744.00,0.0051
2743.00,0.0052
2742.00,0.0053
2741.00,0.0054
2740.00,0.0056
2739.00,0.0057
2738.00,0.0058
2737.00,0.0059
2736.00,0.0061
2735.00,0.0062
2734.00,0.0064
2733.00,0.0066
2732.00,0.0068
2731.00,0.0070
2730.00,0.0072
2729.00,0.0074
2728.00,0.0077
2727.00,0.0080
2726.00,0.0083
2725.00,0.0085
2724.00,0.0087
2723.00,0.0087
2722.00,0.0087
2721.00,0.0085
2720.00,0.0082
2719.00,0.0078
2718.00,0.0074
2717.00,0.0071
2716.00,0.0068
2715.00,0.0066
2714.00,0.0064
2713.00,0.0062
2712.00,0.0059
2711.00,0.0057
2710.00,0.0056
2709.00,0.0054
2708.00,0.0053
2707.00,0.0051
2706.00,0.0050
2705.00,0.0049
2704.00,0.0049
2703.00,0.0048
2702.00,0.0047
2701.00,0.0046
2700.00,0.0045
2699.00,0.0044
2698.00,0.0044
2697.00,0.0044
2696.00,0.0044
2695.00,0.0044
2694.00,0.0044
2693.00,0.0044
2692.00,0.0044
2691.00,0.0044
2690.00,0.0044
2689.00,0.0044
2688.00,0.0044
2687.00,0.0044
2686.00,0.0044
2685.00,0.0044
2684.00,0.0044
2683.00,0.0044
2682.00,0.0044
2681.00,0.0044
2680.00,0.0044
2679.00,0.0044
2678.00,0.0044
2677.00,0.0045
2676.00,0.0045
2675.00,0.0045
2674.00,0.0044
2673.00,0.0044
2672.00,0.0043
2671.00,0.0043
2670.00,0.0042
2669.00,0.0043
2668.00,0.0043
2667.00,0.0044
2666.00,0.0044
2665.00,0.0044
2664.00,0.0045
2663.00,0.0045
2662.00,0.0045
2661.00,0.0046
2660.00,0.0046
2659.00,0.0046
2658.00,0.0046
2657.00,0.0046
2656.00,0.0045
2655.00,0.0045
2654.00,0.0044
2653.00,0.0043
2652.00,0.0043
2651.00,0.0042
2650.00,0.0041
2649.00,0.0041
2648.00,0.0041
2647.00,0.0040
2646.00,0.0040
2645.00,0.0040
2644.00,0.0040
2643.00,0.0040
2642.00,0.0039
2641.00,0.0039
2640.00,0.0038
2639.00,0.0037
2638.00,0.0037
2637.00,0.0037
2636.00,0.0037
2635.00,0.0036
2634.00,0.0036
2633.00,0.0036
2632.00,0.0036
2631.00,0.0036
2630.00,0.0037
2629.00,0.0038
2628.00,0.0038
2627.00,0.0038
2626.00,0.0038
2625.00,0.0038
2624.00,0.0038
2623.00,0.0038
2622.00,0.0039
2621.00,0.0039
2620.00,0.0040
2619.00,0.0040
2618.00,0.0040
2617.00,0.0040
2616.00,0.0040
2615.00,0.0040
2614.00,0.0040
2613.00,0.0039
2612.00,0.0039
2611.00,0.0038
2610.00,0.0037
2609.00,0.0036
2608.00,0.0035
2607.00,0.0033
2606.00,0.0032
2605.00,0.0031
2604.00,0.0031
2603.00,0.0031
2602.00,0.0031
2601.00,0.0030
2600.00,0.0030
2599.00,0.0030
2598.00,0.0031
2597.00,0.0031
2596.00,0.0031
2595.00,0.0031
2594.00,0.0031
2593.00,0.0031
2592.00,0.0032
2591.00,0.0033
2590.00,0.0033
2589.00,0.0034
2588.00,0.0035
2587.00,0.0036
2586.00,0.0036
2585.00,0.0036
2584.00,0.0037
2583.00,0.0037
2582.00,0.0037
2581.00,0.0037
2580.00,0.0036
2579.00,0.0036
2578.00,0.0036
2577.00,0.0035
2576.00,0.0035
2575.00,0.0033
2574.00,0.0031
2573.00,0.0029
2572.00,0.0028
2571.00,0.0027
2570.00,0.0026
2569.00,0.0026
2568.00,0.0026
2567.00,0.0025
2566.00,0.0025
2565.00,0.0025
2564.00,0.0024
2563.00,0.0023
2562.00,0.0022
2561.00,0.0021
2560.00,0.0021
2559.00,0.0021
2558.00,0.0021
2557.00,0.0021
2556.00,0.0021
2555.00,0.0021
2554.00,0.0020
2553.00,0.0019
2552.00,0.0018
2551.00,0.0017
2550.00,0.0017
2549.00,0.0018
2548.00,0.0018
2547.00,0.0018
2546.00,0.0018
2545.00,0.0018
2544.00,0.0018
2543.00,0.0018
2542.00,0.0018
2541.00,0.0017
2540.00,0.0016
2539.00,0.0015
2538.00,0.0015
2537.00,0.0015
2536.00,0.0015
2535.00,0.0016
2534.00,0.0016
2533.00,0.0017
2532.00,0.0016
2531.00,0.0015
2530.00,0.0014
2529.00,0.0013
2528.00,0.0012
2527.00,0.0012
2526.00,0.0011
2525.00,0.0012
2524.00,0.0012
2523.00,0.0012
2522.00,0.0012
2521.00,0.0011
2520.00,0.0011
2519.00,0.0011
2518.00,0.0011
2517.00,0.0011
2516.00,0.0010
2515.00,0.0010
2514.00,0.0009
2513.00,0.0008
2512.00,0.0008
2511.00,0.0008
2510.00,0.0008
2509.00,0.0009
2508.00,0.0009
2507.00,0.0008
2506.00,0.0008
2505.00,0.0008
2504.00,0.0008
2503.00,0.0008
2502.00,0.0008
2501.00,0.0009
2500.00,0.0009
2499.00,0.0010
2498.00,0.0010
2497.00,0.0010
2496.00,0.0009
2495.00,0.0009
2494.00,0.0009
2493.00,0.0009
2492.00,0.0009
2491.00,0.0009
2490.00,0.0009
2489.00,0.0008
2488.00,0.0008
2487.00,0.0008
2486.00,0.0007
2485.00,0.0008
2484.00,0.0008
2483.00,0.0008
2482.00,0.0008
2481.00,0.0008
2480.00,0.0007
2479.00,0.0007
2478.00,0.0007
2477.00,0.0007
2476.00,0.0007
2475.00,0.0007
2474.00,0.0007
2473.00,0.0007
2472.00,0.0007
2471.00,0.0007
2470.00,0.0007
2469.00,0.0008
2468.00,0.0008
2467.00,0.0008
2466.00,0.0008
2465.00,0.0008
2464.00,0.0008
2463.00,0.0008
2462.00,0.0008
2461.00,0.0008
2460.00,0.0009
2459.00,0.0009
2458.00,0.0009
2457.00,0.0008
2456.00,0.0008
2455.00,0.0008
2454.00,0.0009
2453.00,0.0009
2452.00,0.0010
2451.00,0.0010
2450.00,0.0010
2449.00,0.0010
2448.00,0.0009
2447.00,0.0009
2446.00,0.0009
2445.00,0.0010
2444.00,0.0010
2443.00,0.0010
2442.00,0.0011
2441.00,0.0011
2440.00,0.0011
2439.00,0.0010
2438.00,0.0010
2437.00,0.0011
2436.00,0.0011
2435.00,0.0011
2434.00,0.0012
2433.00,0.0012
2432.00,0.0012
2431.00,0.0012
2430.00,0.0012
2429.00,0.0012
2428.00,0.0011
2427.00,0.0011
2426.00,0.0011
2425.00,0.0010
2424.00,0.0010
2423.00,0.0010
2422.00,0.0010
2421.00,0.0009
2420.00,0.0009
2419.00,0.0008
2418.00,0.0008
2417.00,0.0009
2416.00,0.0009
2415.00,0.0009
2414.00,0.0009
2413.00,0.0009
2412.00,0.0008
2411.00,0.0008
2410.00,0.0008
2409.00,0.0008
2408.00,0.0008
2407.00,0.0008
2406.00,0.0008
2405.00,0.0008
2404.00,0.0007
2403.00,0.0008
2402.00,0.0008
2401.00,0.0008
2400.00,0.0008
2399.00,0.0008
2398.00,0.0008
2397.00,0.0008
2396.00,0.0008
2395.00,0.0008
2394.00,0.0008
2393.00,0.0008
2392.00,0.0008
2391.00,0.0008
2390.00,0.0008
2389.00,0.0008
2388.00,0.0007
2387.00,0.0006
2386.00,0.0005
2385.00,0.0004
2384.00,0.0004
2383.00,0.0003
2382.00,0.0003
2381.00,0.0002
2380.00,0.0002
2379.00,0.0003
2378.00,0.0003
2377.00,0.0003
2376.00,0.0003
2375.00,0.0002
2374.00,0.0002
2373.00,0.0002
2372.00,0.0003
2371.00,0.0003
2370.00,0.0003
2369.00,0.0002
2368.00,0.0001
2367.00,0.0001
2366.00,0.0001
2365.00,0.0001
2364.00,0.0001
2363.00,0.0001
2362.00,0.0001
2361.00,0.0001
2360.00,0.0002
2359.00,0.0003
2358.00,0.0004
2357.00,0.0005
2356.00,0.0006
2355.00,0.0006
2354.00,0.0006
2353.00,0.0005
2352.00,0.0004
2351.00,0.0004
2350.00,0.0003
2349.00,0.0003
2348.00,0.0003
2347.00,0.0004
2346.00,0.0004
2345.00,0.0004
2344.00,0.0005
2343.00,0.0005
2342.00,0.0005
2341.00,0.0005
2340.00,0.0005
2339.00,0.0006
2338.00,0.0006
2337.00,0.0006
2336.00,0.0007
2335.00,0.0007
2334.00,0.0007
2333.00,0.0007
2332.00,0.0006
2331.00,0.0006
2330.00,0.0005
2329.00,0.0005
2328.00,0.0007
2327.00,0.0010
2326.00,0.0014
2325.00,0.0018
2324.00,0.0020
2323.00,0.0020
2322.00,0.0018
2321.00,0.0016
2320.00,0.0015
2319.00,0.0014
2318.00,0.0013
2317.00,0.0012
2316.00,0.0011
2315.00,0.0011
2314.00,0.0010
2313.00,0.0009
2312.00,0.0009
2311.00,0.0008
2310.00,0.0008
2309.00,0.0008
2308.00,0.0008
2307.00,0.0008
2306.00,0.0008
2305.00,0.0009
2304.00,0.0010
2303.00,0.0010
2302.00,0.0010
2301.00,0.0010
2300.00,0.0010
2299.00,0.0010
2298.00,0.0010
2297.00,0.0010
2296.00,0.0011
2295.00,0.0011
2294.00,0.0012
2293.00,0.0013
2292.00,0.0014
2291.00,0.0014
2290.00,0.0014
2289.00,0.0015
2288.00,0.0015
2287.00,0.0016
2286.00,0.0016
2285.00,0.0016
2284.00,0.0017
2283.00,0.0017
2282.00,0.0016
2281.00,0.0016
2280.00,0.0014
2279.00,0.0013
2278.00,0.0013
2277.00,0.0013
2276.00,0.0013
2275.00,0.0013
2274.00,0.0013
2273.00,0.0014
2272.00,0.0014
2271.00,0.0013
2270.00,0.0012
2269.00,0.0011
2268.00,0.0010
2267.00,0.0010
2266.00,0.0009
2265.00,0.0008
2264.00,0.0008
2263.00,0.0007
2262.00,0.0008
2261.00,0.0009
2260.00,0.0010
2259.00,0.0012
2258.00,0.0014
2257.00,0.0015
2256.00,0.0015
2255.00,0.0014
2254.00,0.0012
2253.00,0.0012
2252.00,0.0011
2251.00,0.0011
2250.00,0.0010
2249.00,0.0009
2248.00,0.0008
2247.00,0.0008
2246.00,0.0008
2245.00,0.0008
2244.00,0.0008
2243.00,0.0008
2242.00,0.0007
2241.00,0.0006
2240.00,0.0006
2239.00,0.0006
2238.00,0.0006
2237.00,0.0007
2236.00,0.0008
2235.00,0.0009
2234.00,0.0009
2233.00,0.0008
2232.00,0.0007
2231.00,0.0006
2230.00,0.0007
2229.00,0.0008
2228.00,0.0009
2227.00,0.0009
2226.00,0.0009
2225.00,0.0008
2224.00,0.0006
2223.00,0.0005
2222.00,0.0005
2221.00,0.0006
2220.00,0.0007
2219.00,0.0008
2218.00,0.0007
2217.00,0.0005
2216.00,0.0003
2215.00,0.0002
2214.00,0.0002
2213.00,0.0002
2212.00,0.0002
2211.00,0.0001
2210.00,0.0001
2209.00,0.0002
2208.00,0.0004
2207.00,0.0006
2206.00,0.0007
2205.00,0.0007
2204.00,0.0007
2203.00,0.0007
2202.00,0.0007
2201.00,0.0008
2200.00,0.0009
2199.00,0.0009
2198.00,0.0010
2197.00,0.0010
2196.00,0.0010
2195.00,0.0010
2194.00,0.0009
2193.00,0.0007
2192.00,0.0007
2191.00,0.0007
2190.00,0.0008
2189.00,0.0010
2188.00,0.0011
2187.00,0.0012
2186.00,0.0011
2185.00,0.0010
2184.00,0.0008
2183.00,0.0006
2182.00,0.0004
2181.00,0.0001
2180.00,-0.0001
2179.00,-0.0003
2178.00,-0.0004
2177.00,-0.0004
2176.00,-0.0005
2175.00,-0.0005
2174.00,-0.0003
2173.00,-0.0001
2172.00,0.0002
2171.00,0.0006
2170.00,0.0010
2169.00,0.0013
2168.00,0.0015
2167.00,0.0015
2166.00,0.0012
2165.00,0.0009
2164.00,0.0008
2163.00,0.0011
2162.00,0.0014
2161.00,0.0014
2160.00,0.0005
2159.00,-0.0011
2158.00,-0.0027
2157.00,-0.0036
2156.00,-0.0037
2155.00,-0.0033
2154.00,-0.0028
2153.00,-0.0024
2152.00,-0.0020
2151.00,-0.0018
2150.00,-0.0017
2149.00,-0.0017
2148.00,-0.0018
2147.00,-0.0020
2146.00,-0.0020
2145.00,-0.0019
2144.00,-0.0016
2143.00,-0.0014
2142.00,-0.0014
2141.00,-0.0014
2140.00,-0.0014
2139.00,-0.0013
2138.00,-0.0013
2137.00,-0.0012
2136.00,-0.0013
2135.00,-0.0015
2134.00,-0.0017
2133.00,-0.0018
2132.00,-0.0018
2131.00,-0.0017
2130.00,-0.0016
2129.00,-0.0015
2128.00,-0.0013
2127.00,-0.0011
2126.00,-0.0010
2125.00,-0.0008
2124.00,-0.0007
2123.00,-0.0007
2122.00,-0.0006
2121.00,-0.0005
2120.00,-0.0004
2119.00,-0.0003
2118.00,-0.0002
2117.00,-0.0001
2116.00,0.0000
2115.00,0.0001
2114.00,0.0001
2113.00,0.0000
2112.00,0.0000
2111.00,0.0000
2110.00,0.0000
2109.00,0.0000
2108.00,0.0000
2107.00,0.0001
2106.00,0.0001
2105.00,0.0001
2104.00,0.0000
2103.00,-0.0001
2102.00,-0.0000
2101.00,0.0000
2100.00,0.0000
2099.00,-0.0001
2098.00,-0.0002
2097.00,-0.0003
2096.00,-0.0004
2095.00,-0.0004
2094.00,-0.0005
2093.00,-0.0004
2092.00,-0.0003
2091.00,-0.0001
2090.00,0.0000
2089.00,0.0002
2088.00,0.0003
2087.00,0.0003
2086.00,0.0003
2085.00,0.0002
2084.00,0.0002
2083.00,0.0001
2082.00,0.0000
2081.00,0.0000
2080.00,0.0001
2079.00,0.0003
2078.00,0.0003
2077.00,0.0003
2076.00,0.0002
2075.00,-0.0001
2074.00,-0.0003
2073.00,-0.0004
2072.00,-0.0004
2071.00,-0.0003
2070.00,-0.0000
2069.00,0.0002
2068.00,0.0003
2067.00,0.0002
2066.00,0.0001
2065.00,0.0000
2064.00,0.0001
2063.00,0.0001
2062.00,0.0001
2061.00,-0.0001
2060.00,-0.0001
2059.00,-0.0001
2058.00,-0.0001
2057.00,-0.0000
2056.00,-0.0001
2055.00,-0.0002
2054.00,-0.0001
2053.00,0.0003
2052.00,0.0009
2051.00,0.0012
2050.00,0.0012
2049.00,0.0008
2048.00,0.0004
2047.00,0.0001
2046.00,-0.0000
2045.00,-0.0001
2044.00,-0.0003
2043.00,-0.0006
2042.00,-0.0008
2041.00,-0.0008
2040.00,-0.0007
2039.00,-0.0004
2038.00,-0.0001
2037.00,0.0001
2036.00,0.0002
2035.00,-0.0000
2034.00,-0.0004
2033.00,-0.0008
2032.00,-0.0010
2031.00,-0.0011
2030.00,-0.0012
2029.00,-0.0011
2028.00,-0.0009
2027.00,-0.0007
2026.00,-0.0004
2025.00,-0.0003
2024.00,-0.0003
2023.00,-0.0004
2022.00,-0.0005
2021.00,-0.0005
2020.00,-0.0006
2019.00,-0.0008
2018.00,-0.0011
2017.00,-0.0012
2016.00,-0.0013
2015.00,-0.0013
2014.00,-0.0014
2013.00,-0.0014
2012.00,-0.0012
2011.00,-0.0009
2010.00,-0.0006
2009.00,-0.0005
2008.00,-0.0008
2007.00,-0.0012
2006.00,-0.0015
2005.00,-0.0016
2004.00,-0.0014
2003.00,-0.0011
2002.00,-0.0009
2001.00,-0.0009
2000.00,-0.0009
1999.00,-0.0012
1998.00,-0.0014
1997.00,-0.0015
1996.00,-0.0014
1995.00,-0.0012
1994.00,-0.0010
1993.00,-0.0010
1992.00,-0.0010
1991.00,-0.0012
1990.00,-0.0012
1989.00,-0.0012
1988.00,-0.0010
1987.00,-0.0009
1986.00,-0.0007
1985.00,-0.0004
1984.00,-0.0002
1983.00,0.0001
1982.00,0.0004
1981.00,0.0007
1980.00,0.0009
1979.00,0.0007
1978.00,0.0000
1977.00,-0.0006
1976.00,-0.0011
1975.00,-0.0013
1974.00,-0.0013
1973.00,-0.0013
1972.00,-0.0013
1971.00,-0.0012
1970.00,-0.0012
1969.00,-0.0011
1968.00,-0.0011
1967.00,-0.0011
1966.00,-0.0012
1965.00,-0.0014
1964.00,-0.0016
1963.00,-0.0018
1962.00,-0.0020
1961.00,-0.0020
1960.00,-0.0020
1959.00,-0.0020
1958.00,-0.0021
1957.00,-0.0020
1956.00,-0.0020
1955.00,-0.0019
1954.00,-0.0020
1953.00,-0.0020
1952.00,-0.0020
1951.00,-0.0020
1950.00,-0.0021
1949.00,-0.0020
1948.00,-0.0019
1947.00,-0.0018
1946.00,-0.0018
1945.00,-0.0018
1944.00,-0.0018
1943.00,-0.0018
1942.00,-0.0018
1941.00,-0.0016
1940.00,-0.0014
1939.00,-0.0013
1938.00,-0.0013
1937.00,-0.0012
1936.00,-0.0012
1935.00,-0.0011
1934.00,-0.0012
1933.00,-0.0012
1932.00,-0.0012
1931.00,-0.0012
1930.00,-0.0012
1929.00,-0.0012
1928.00,-0.0012
1927.00,-0.0011
1926.00,-0.0011
1925.00,-0.0010
1924.00,-0.0010
1923.00,-0.0009
1922.00,-0.0008
1921.00,-0.0007
1920.00,-0.0006
1919.00,-0.0006
1918.00,-0.0006
1917.00,-0.0006
1916.00,-0.0006
1915.00,-0.0007
1914.00,-0.0007
1913.00,-0.0006
1912.00,-0.0005
1911.00,-0.0005
1910.00,-0.0005
1909.00,-0.0006
1908.00,-0.0006
1907.00,-0.0007
1906.00,-0.0007
1905.00,-0.0007
1904.00,-0.0007
1903.00,-0.0006
1902.00,-0.0005
1901.00,-0.0004
1900.00,-0.0003
1899.00,-0.0002
1898.00,-0.0002
1897.00,-0.0002
1896.00,-0.0002
1895.00,-0.0002
1894.00,-0.0002
1893.00,-0.0003
1892.00,-0.0003
1891.00,-0.0003
1890.00,-0.0004
1889.00,-0.0004
1888.00,-0.0004
1887.00,-0.0005
1886.00,-0.0005
1885.00,-0.0005
1884.00,-0.0004
1883.00,-0.0004
1882.00,-0.0004
1881.00,-0.0004
1880.00,-0.0004
1879.00,-0.0004
1878.00,-0.0003
1877.00,-0.0003
1876.00,-0.0003
1875.00,-0.0003
1874.00,-0.0004
1873.00,-0.0004
1872.00,-0.0005
1871.00,-0.0005
1870.00,-0.0005
1869.00,-0.0005
1868.00,-0.0004
1867.00,-0.0003
1866.00,-0.0003
1865.00,-0.0002
1864.00,-0.0002
1863.00,-0.0003
1862.00,-0.0003
1861.00,-0.0003
1860.00,-0.0002
1859.00,-0.0002
1858.00,-0.0001
1857.00,-0.0001
1856.00,-0.0001
1855.00,-0.0002
1854.00,-0.0002
1853.00,-0.0001
1852.00,-0.0001
1851.00,-0.0001
1850.00,-0.0002
1849.00,-0.0002
1848.00,-0.0002
1847.00,-0.0001
1846.00,-0.0001
1845.00,-0.0001
1844.00,-0.0001
1843.00,-0.0001
1842.00,-0.0001
1841.00,-0.0000
1840.00,0.0001
1839.00,0.0001
1838.00,0.0001
1837.00,0.0001
1836.00,0.0001
1835.00,0.0000
1834.00,0.0000
1833.00,0.0000
1832.00,0.0001
1831.00,0.0001
1830.00,0.0002
1829.00,0.0002
1828.00,0.0003
1827.00,0.0003
1826.00,0.0004
1825.00,0.0004
1824.00,0.0003
1823.00,0.0002
1822.00,0.0001
1821.00,0.0001
1820.00,-0.0000
1819.00,-0.0001
1818.00,-0.0003
1817.00,-0.0004
1816.00,-0.0003
1815.00,-0.0002
1814.00,-0.0001
1813.00,-0.0000
1812.00,0.0000
1811.00,0.0001
1810.00,0.0001
1809.00,0.0002
1808.00,0.0002
1807.00,0.0002
1806.00,0.0002
1805.00,0.0002
1804.00,0.0003
1803.00,0.0003
1802.00,0.0002
1801.00,0.0002
1800.00,0.0002
1799.00,0.0002
1798.00,0.0002
1797.00,0.0003
1796.00,0.0003
1795.00,0.0004
1794.00,0.0004
1793.00,0.0005
1792.00,0.0005
1791.00,0.0005
1790.00,0.0005
1789.00,0.0005
1788.00,0.0005
1787.00,0.0005
1786.00,0.0005
1785.00,0.0005
1784.00,0.0005
1783.00,0.0005
1782.00,0.0005
1781.00,0.0005
1780.00,0.0005
1779.00,0.0005
1778.00,0.0006
1777.00,0.0006
1776.00,0.0006
1775.00,0.0006
1774.00,0.0006
1773.00,0.0007
1772.00,0.0008
1771.00,0.0008
1770.00,0.0009
1769.00,0.0009
1768.00,0.0009
1767.00,0.0008
1766.00,0.0008
1765.00,0.0008
1764.00,0.0007
1763.00,0.0008
1762.00,0.0009
1761.00,0.0010
1760.00,0.0011
1759.00,0.0010
1758.00,0.0010
1757.00,0.0011
1756.00,0.0011
1755.00,0.0011
1754.00,0.0011
1753.00,0.0012
1752.00,0.0012
1751.00,0.0013
1750.00,0.0013
1749.00,0.0013
1748.00,0.0012
1747.00,0.0012
1746.00,0.0012
1745.00,0.0013
1744.00,0.0013
1743.00,0.0014
1742.00,0.0015
1741.00,0.0015
1740.00,0.0016
1739.00,0.0016
1738.00,0.0015
1737.00,0.0015
1736.00,0.0014
1735.00,0.0014
1734.00,0.0014
1733.00,0.0015
1732.00,0.0015
1731.00,0.0015
1730.00,0.0015
1729.00,0.0016
1728.00,0.0016
1727.00,0.0016
1726.00,0.0016
1725.00,0.0016
1724.00,0.0016
1723.00,0.0016
1722.00,0.0016
1721.00,0.0017
1720.00,0.0017
1719.00,0.0018
1718.00,0.0018
1717.00,0.0018
1716.00,0.0017
1715.00,0.0017
1714.00,0.0017
1713.00,0.0016
1712.00,0.0016
1711.00,0.0017
1710.00,0.0017
1709.00,0.0018
1708.00,0.0018
1707.00,0.0019
1706.00,0.0019
1705.00,0.0019
1704.00,0.0020
1703.00,0.0020
1702.00,0.0020
1701.00,0.0020
1700.00,0.0020
1699.00,0.0021
1698.00,0.0021
1697.00,0.0021
1696.00,0.0022
1695.00,0.0022
1694.00,0.0023
1693.00,0.0023
1692.00,0.0023
1691.00,0.0023
1690.00,0.0023
1689.00,0.0023
1688.00,0.0023
1687.00,0.0023
1686.00,0.0023
1685.00,0.0022
1684.00,0.0022
1683.00,0.0022
1682.00,0.0023
1681.00,0.0024
1680.00,0.0024
1679.00,0.0024
1678.00,0.0024
1677.00,0.0024
1676.00,0.0025
1675.00,0.0025
1674.00,0.0026
1673.00,0.0027
1672.00,0.0027
1671.00,0.0027
1670.00,0.0027
1669.00,0.0027
1668.00,0.0028
1667.00,0.0028
1666.00,0.0028
1665.00,0.0028
1664.00,0.0029
1663.00,0.0029
1662.00,0.0030
1661.00,0.0031
1660.00,0.0032
1659.00,0.0032
1658.00,0.0032
1657.00,0.0032
1656.00,0.0032
1655.00,0.0032
1654.00,0.0032
1653.00,0.0033
1652.00,0.0035
1651.00,0.0035
1650.00,0.0035
1649.00,0.0036
1648.00,0.0036
1647.00,0.0037
1646.00,0.0037
1645.00,0.0038
1644.00,0.0038
1643.00,0.0039
1642.00,0.0039
1641.00,0.0039
1640.00,0.0039
1639.00,0.0039
1638.00,0.0039
1637.00,0.0040
1636.00,0.0040
1635.00,0.0040
1634.00,0.0040
1633.00,0.0039
1632.00,0.0039
1631.00,0.0039
1630.00,0.0039
1629.00,0.0039
1628.00,0.0039
1627.00,0.0039
1626.00,0.0039
1625.00,0.0039
1624.00,0.0039
1623.00,0.0038
1622.00,0.0037
1621.00,0.0037
1620.00,0.0038
1619.00,0.0038
1618.00,0.0038
1617.00,0.0038
1616.00,0.0038
1615.00,0.0037
1614.00,0.0037
1613.00,0.0037
1612.00,0.0037
1611.00,0.0037
1610.00,0.0037
1609.00,0.0036
1608.00,0.0036
1607.00,0.0036
1606.00,0.0036
1605.00,0.0036
1604.00,0.0036
1603.00,0.0036
1602.00,0.0036
1601.00,0.0036
1600.00,0.0036
1599.00,0.0035
1598.00,0.0035
1597.00,0.0035
1596.00,0.0035
1595.00,0.0035
1594.00,0.0035
1593.00,0.0034
1592.00,0.0034
1591.00,0.0034
1590.00,0.0034
1589.00,0.0035
1588.00,0.0035
1587.00,0.0035
1586.00,0.0036
1585.00,0.0036
1584.00,0.0036
1583.00,0.0036
1582.00,0.0036
1581.00,0.0036
1580.00,0.0037
1579.00,0.0037
1578.00,0.0037
1577.00,0.0037
1576.00,0.0037
1575.00,0.0037
1574.00,0.0037
1573.00,0.0037
1572.00,0.0037
1571.00,0.0038
1570.00,0.0038
1569.00,0.0038
1568.00,0.0038
1567.00,0.0038
1566.00,0.0038
1565.00,0.0038
1564.00,0.0039
1563.00,0.0040
1562.00,0.0041
1561.00,0.0042
1560.00,0.0042
1559.00,0.0041
1558.00,0.0040
1557.00,0.0041
1556.00,0.0042
1555.00,0.0043
1554.00,0.0043
1553.00,0.0044
1552.00,0.0044
1551.00,0.0045
1550.00,0.0045
1549.00,0.0045
1548.00,0.0045
1547.00,0.0046
1546.00,0.0046
1545.00,0.0047
1544.00,0.0048
1543.00,0.0048
1542.00,0.0047
1541.00,0.0046
1540.00,0.0046
1539.00,0.0045
1538.00,0.0045
1537.00,0.0044
1536.00,0.0044
1535.00,0.0044
1534.00,0.0043
1533.00,0.0043
1532.00,0.0043
1531.00,0.0042
1530.00,0.0041
1529.00,0.0041
1528.00,0.0041
1527.00,0.0041
1526.00,0.0041
1525.00,0.0042
1524.00,0.0043
1523.00,0.0044
1522.00,0.0044
1521.00,0.0044
1520.00,0.0045
1519.00,0.0044
1518.00,0.0044
1517.00,0.0043
1516.00,0.0043
1515.00,0.0043
1514.00,0.0044
1513.00,0.0045
1512.00,0.0047
1511.00,0.0047
1510.00,0.0048
1509.00,0.0049
1508.00,0.0052
1507.00,0.0054
1506.00,0.0054
1505.00,0.0055
1504.00,0.0056
1503.00,0.0057
1502.00,0.0058
1501.00,0.0059
1500.00,0.0062
1499.00,0.0063
1498.00,0.0065
1497.00,0.0068
1496.00,0.0071
1495.00,0.0074
1494.00,0.0076
1493.00,0.0079
1492.00,0.0083
1491.00,0.0087
1490.00,0.0090
1489.00,0.0095
1488.00,0.0099
1487.00,0.0103
1486.00,0.0108
1485.00,0.0113
1484.00,0.0120
1483.00,0.0126
1482.00,0.0134
1481.00,0.0143
1480.00,0.0154
1479.00,0.0166
1478.00,0.0179
1477.00,0.0198
1476.00,0.0220
1475.00,0.0245
1474.00,0.0280
1473.00,0.0332
1472.00,0.0396
1471.00,0.0459
1470.00,0.0519
1469.00,0.0582
1468.00,0.0651
1467.00,0.0727
1466.00,0.0814
1465.00,0.0910
1464.00,0.0996
1463.00,0.1059
1462.00,0.1103
1461.00,0.1137
1460.00,0.1165
1459.00,0.1187
1458.00,0.1211
1457.00,0.1235
1456.00,0.1252
1455.00,0.1259
1454.00,0.1260
1453.00,0.1256
1452.00,0.1240
1451.00,0.1209
1450.00,0.1160
1449.00,0.1085
1448.00,0.0986
1447.00,0.0878
1446.00,0.0778
1445.00,0.0692
1444.00,0.0618
1443.00,0.0557
1442.00,0.0512
1441.00,0.0481
1440.00,0.0461
1439.00,0.0450
1438.00,0.0446
1437.00,0.0442
1436.00,0.0426
1435.00,0.0396
1434.00,0.0357
1433.00,0.0311
1432.00,0.0265
1431.00,0.0224
1430.00,0.0193
1429.00,0.0170
1428.00,0.0154
1427.00,0.0145
1426.00,0.0139
1425.00,0.0133
1424.00,0.0127
1423.00,0.0123
1422.00,0.0121
1421.00,0.0119
1420.00,0.0117
1419.00,0.0115
1418.00,0.0113
1417.00,0.0111
1416.00,0.0109
1415.00,0.0108
1414.00,0.0107
1413.00,0.0106
1412.00,0.0105
1411.00,0.0105
1410.00,0.0105
1409.00,0.0104
1408.00,0.0104
1407.00,0.0104
1406.00,0.0105
1405.00,0.0106
1404.00,0.0106
1403.00,0.0107
1402.00,0.0109
1401.00,0.0110
1400.00,0.0111
1399.00,0.0113
1398.00,0.0115
1397.00,0.0117
1396.00,0.0120
1395.00,0.0125
1394.00,0.0131
1393.00,0.0137
1392.00,0.0143
1391.00,0.0152
1390.00,0.0165
1389.00,0.0184
1388.00,0.0211
1387.00,0.0252
1386.00,0.0306
1385.00,0.0372
1384.00,0.0459
1383.00,0.0573
1382.00,0.0720
1381.00,0.0902
1380.00,0.1121
1379.00,0.1362
1378.00,0.1590
1377.00,0.1752
1376.00,0.1803
1375.00,0.1715
1374.00,0.1509
1373.00,0.1258
1372.00,0.1025
1371.00,0.0829
1370.00,0.0670
1369.00,0.0546
1368.00,0.0460
1367.00,0.0406
1366.00,0.0377
1365.00,0.0366
1364.00,0.0368
1363.00,0.0382
1362.00,0.0403
1361.00,0.0425
1360.00,0.0441
1359.00,0.0445
1358.00,0.0434
1357.00,0.0407
1356.00,0.0371
1355.00,0.0329
1354.00,0.0288
1353.00,0.0253
1352.00,0.0225
1351.00,0.0203
1350.00,0.0184
1349.00,0.0170
1348.00,0.0158
1347.00,0.0149
1346.00,0.0141
1345.00,0.0135
1344.00,0.0131
1343.00,0.0127
1342.00,0.0124
1341.00,0.0121
1340.00,0.0118
1339.00,0.0116
1338.00,0.0115
1337.00,0.0114
1336.00,0.0114
1335.00,0.0116
1334.00,0.0119
1333.00,0.0123
1332.00,0.0128
1331.00,0.0131
1330.00,0.0133
1329.00,0.0132
1328.00,0.0129
1327.00,0.0124
1326.00,0.0118
1325.00,0.0112
1324.00,0.0106
1323.00,0.0100
1322.00,0.0096
1321.00,0.0092
1320.00,0.0089
1319.00,0.0087
1318.00,0.0085
1317.00,0.0083
1316.00,0.0082
1315.00,0.0081
1314.00,0.0081
1313.00,0.0082
1312.00,0.0084
1311.00,0.0088
1310.00,0.0094
1309.00,0.0104
1308.00,0.0117
1307.00,0.0134
1306.00,0.0150
1305.00,0.0161
1304.00,0.0164
1303.00,0.0159
1302.00,0.0150
1301.00,0.0141
1300.00,0.0135
1299.00,0.0132
1298.00,0.0130
1297.00,0.0129
1296.00,0.0127
1295.00,0.0123
1294.00,0.0119
1293.00,0.0113
1292.00,0.0107
1291.00,0.0101
1290.00,0.0096
1289.00,0.0092
1288.00,0.0089
1287.00,0.0086
1286.00,0.0083
1285.00,0.0081
1284.00,0.0079
1283.00,0.0077
1282.00,0.0075
1281.00,0.0074
1280.00,0.0073
1279.00,0.0072
1278.00,0.0072
1277.00,0.0071
1276.00,0.0071
1275.00,0.0071
1274.00,0.0072
1273.00,0.0072
1272.00,0.0072
1271.00,0.0072
1270.00,0.0072
1269.00,0.0073
1268.00,0.0074
1267.00,0.0075
1266.00,0.0077
1265.00,0.0079
1264.00,0.0081
1263.00,0.0085
1262.00,0.0090
1261.00,0.0097
1260.00,0.0106
1259.00,0.0117
1258.00,0.0128
1257.00,0.0138
1256.00,0.0143
1255.00,0.0141
1254.00,0.0134
1253.00,0.0123
1252.00,0.0113
1251.00,0.0103
1250.00,0.0097
1249.00,0.0092
1248.00,0.0088
1247.00,0.0086
1246.00,0.0084
1245.00,0.0083
1244.00,0.0082
1243.00,0.0081
1242.00,0.0080
1241.00,0.0079
1240.00,0.0078
1239.00,0.0077
1238.00,0.0076
1237.00,0.0076
1236.00,0.0075
1235.00,0.0075
1234.00,0.0074
1233.00,0.0073
1232.00,0.0072
1231.00,0.0072
1230.00,0.0072
1229.00,0.0072
1228.00,0.0072
1227.00,0.0073
1226.00,0.0075
1225.00,0.0077
1224.00,0.0080
1223.00,0.0084
1222.00,0.0087
1221.00,0.0090
1220.00,0.0092
1219.00,0.0093
1218.00,0.0092
1217.00,0.0090
1216.00,0.0088
1215.00,0.0085
1214.00,0.0082
1213.00,0.0079
1212.00,0.0076
1211.00,0.0074
1210.00,0.0072
1209.00,0.0070
1208.00,0.0069
1207.00,0.0068
1206.00,0.0067
1205.00,0.0067
1204.00,0.0066
1203.00,0.0066
1202.00,0.0065
1201.00,0.0065
1200.00,0.0065
1199.00,0.0065
1198.00,0.0066
1197.00,0.0066
1196.00,0.0067
1195.00,0.0067
1194.00,0.0067
1193.00,0.0067
1192.00,0.0067
1191.00,0.0067
1190.00,0.0068
1189.00,0.0069
1188.00,0.0069
1187.00,0.0070
1186.00,0.0071
1185.00,0.0072
1184.00,0.0073
1183.00,0.0075
1182.00,0.0078
1181.00,0.0081
1180.00,0.0087
1179.00,0.0094
1178.00,0.0104
1177.00,0.0116
1176.00,0.0131
1175.00,0.0152
1174.00,0.0179
1173.00,0.0213
1172.00,0.0254
1171.00,0.0300
1170.00,0.0345
1169.00,0.0382
1168.00,0.0407
1167.00,0.0414
1166.00,0.0405
1165.00,0.0384
1164.00,0.0357
1163.00,0.0328
1162.00,0.0302
1161.00,0.0279
1160.00,0.0261
1159.00,0.0247
1158.00,0.0235
1157.00,0.0226
1156.00,0.0219
1155.00,0.0213
1154.00,0.0209
1153.00,0.0204
1152.00,0.0198
1151.00,0.0190
1150.00,0.0181
1149.00,0.0171
1148.00,0.0161
1147.00,0.0151
1146.00,0.0142
1145.00,0.0134
1144.00,0.0127
1143.00,0.0120
1142.00,0.0114
1141.00,0.0108
1140.00,0.0103
1139.00,0.0098
1138.00,0.0093
1137.00,0.0089
1136.00,0.0085
1135.00,0.0081
1134.00,0.0078
1133.00,0.0077
1132.00,0.0076
1131.00,0.0075
1130.00,0.0075
1129.00,0.0074
1128.00,0.0074
1127.00,0.0075
1126.00,0.0077
1125.00,0.0077
1124.00,0.0077
1123.00,0.0076
1122.00,0.0075
1121.00,0.0075
1120.00,0.0075
1119.00,0.0076
1118.00,0.0078
1117.00,0.0079
1116.00,0.0081
1115.00,0.0082
1114.00,0.0083
1113.00,0.0084
1112.00,0.0086
1111.00,0.0089
1110.00,0.0092
1109.00,0.0095
1108.00,0.0100
1107.00,0.0106
1106.00,0.0113
1105.00,0.0120
1104.00,0.0126
1103.00,0.0129
1102.00,0.0130
1101.00,0.0127
1100.00,0.0123
1099.00,0.0117
1098.00,0.0111
1097.00,0.0104
1096.00,0.0098
1095.00,0.0093
1094.00,0.0090
1093.00,0.0087
1092.00,0.0084
1091.00,0.0082
1090.00,0.0080
1089.00,0.0078
1088.00,0.0077
1087.00,0.0077
1086.00,0.0077
1085.00,0.0076
1084.00,0.0075
1083.00,0.0075
1082.00,0.0074
1081.00,0.0073
1080.00,0.0072
1079.00,0.0071
1078.00,0.0070
1077.00,0.0069
1076.00,0.0068
1075.00,0.0068
1074.00,0.0068
1073.00,0.0068
1072.00,0.0069
1071.00,0.0069
1070.00,0.0069
1069.00,0.0069
1068.00,0.0069
1067.00,0.0069
1066.00,0.0069
1065.00,0.0069
1064.00,0.0069
1063.00,0.0069
1062.00,0.0069
1061.00,0.0070
1060.00,0.0071
1059.00,0.0072
1058.00,0.0073
1057.00,0.0073
1056.00,0.0073
1055.00,0.0074
1054.00,0.0076
1053.00,0.0078
1052.00,0.0079
1051.00,0.0081
1050.00,0.0084
1049.00,0.0087
1048.00,0.0092
1047.00,0.0096
1046.00,0.0100
1045.00,0.0102
1044.00,0.0101
1043.00,0.0098
1042.00,0.0094
1041.00,0.0090
1040.00,0.0087
1039.00,0.0084
1038.00,0.0083
1037.00,0.0081
1036.00,0.0080
1035.00,0.0080
1034.00,0.0080
1033.00,0.0080
1032.00,0.0079
1031.00,0.0079
1030.00,0.0079
1029.00,0.0080
1028.00,0.0080
1027.00,0.0080
1026.00,0.0080
1025.00,0.0080
1024.00,0.0080
1023.00,0.0081
1022.00,0.0082
1021.00,0.0084
1020.00,0.0086
1019.00,0.0088
1018.00,0.0090
1017.00,0.0093
1016.00,0.0096
1015.00,0.0099
1014.00,0.0102
1013.00,0.0106
1012.00,0.0109
1011.00,0.0113
1010.00,0.0118
1009.00,0.0124
1008.00,0.0132
1007.00,0.0143
1006.00,0.0157
1005.00,0.0175
1004.00,0.0198
1003.00,0.0228
1002.00,0.0268
1001.00,0.0316
1000.00,0.0370
999.00,0.0417
998.00,0.0444
997.00,0.0441
996.00,0.0409
995.00,0.0357
994.00,0.0300
993.00,0.0248
992.00,0.0207
991.00,0.0177
990.00,0.0156
989.00,0.0142
988.00,0.0133
987.00,0.0127
986.00,0.0125
985.00,0.0126
984.00,0.0131
983.00,0.0141
982.00,0.0155
981.00,0.0174
980.00,0.0200
979.00,0.0234
978.00,0.0279
977.00,0.0333
976.00,0.0395
975.00,0.0457
974.00,0.0507
973.00,0.0532
972.00,0.0523
971.00,0.0481
970.00,0.0416
969.00,0.0345
968.00,0.0281
967.00,0.0230
966.00,0.0193
965.00,0.0165
964.00,0.0145
963.00,0.0131
962.00,0.0120
961.00,0.0112
960.00,0.0106
959.00,0.0101
958.00,0.0096
957.00,0.0092
956.00,0.0088
955.00,0.0086
954.00,0.0083
953.00,0.0081
952.00,0.0079
951.00,0.0078
950.00,0.0078
949.00,0.0077
948.00,0.0077
947.00,0.0078
946.00,0.0078
945.00,0.0080
944.00,0.0082
943.00,0.0085
942.00,0.0088
941.00,0.0091
940.00,0.0091
939.00,0.0089
938.00,0.0085
937.00,0.0081
936.00,0.0076
935.00,0.0072
934.00,0.0068
933.00,0.0066
932.00,0.0064
931.00,0.0064
930.00,0.0063
929.00,0.0062
928.00,0.0061
927.00,0.0061
926.00,0.0060
925.00,0.0060
924.00,0.0060
923.00,0.0060
922.00,0.0061
921.00,0.0061
920.00,0.0062
919.00,0.0064
918.00,0.0065
917.00,0.0067
916.00,0.0068
915.00,0.0069
914.00,0.0070
913.00,0.0070
912.00,0.0071
911.00,0.0072
910.00,0.0073
909.00,0.0074
908.00,0.0076
907.00,0.0080
906.00,0.0086
905.00,0.0095
904.00,0.0109
903.00,0.0126
902.00,0.0145
901.00,0.0162
900.00,0.0175
899.00,0.0178
898.00,0.0172
897.00,0.0158
896.00,0.0139
895.00,0.0121
894.00,0.0105
893.00,0.0094
892.00,0.0085
891.00,0.0080
890.00,0.0076
889.00,0.0073
888.00,0.0071
887.00,0.0069
886.00,0.0068
885.00,0.0067
884.00,0.0066
883.00,0.0066
882.00,0.0066
881.00,0.0067
880.00,0.0069
879.00,0.0071
878.00,0.0072
877.00,0.0071
876.00,0.0069
875.00,0.0068
874.00,0.0068
873.00,0.0069
872.00,0.0069
871.00,0.0068
870.00,0.0068
869.00,0.0068
868.00,0.0068
867.00,0.0070
866.00,0.0071
865.00,0.0072
864.00,0.0074
863.00,0.0075
862.00,0.0077
861.00,0.0079
860.00,0.0081
859.00,0.0082
858.00,0.0084
857.00,0.0086
856.00,0.0088
855.00,0.0090
854.00,0.0092
853.00,0.0096
852.00,0.0102
851.00,0.0108
850.00,0.0116
849.00,0.0126
848.00,0.0140
847.00,0.0161
846.00,0.0193
845.00,0.0241
844.00,0.0304
843.00,0.0375
842.00,0.0432
841.00,0.0453
840.00,0.0426
839.00,0.0365
838.00,0.0295
837.00,0.0237
836.00,0.0198
835.00,0.0173
834.00,0.0158
833.00,0.0148
832.00,0.0140
831.00,0.0134
830.00,0.0128
829.00,0.0122
828.00,0.0119
827.00,0.0118
826.00,0.0118
825.00,0.0117
824.00,0.0114
823.00,0.0110
822.00,0.0108
821.00,0.0107
820.00,0.0109
819.00,0.0111
818.00,0.0115
817.00,0.0119
816.00,0.0125
815.00,0.0134
814.00,0.0147
813.00,0.0161
812.00,0.0177
811.00,0.0191
810.00,0.0202
809.00,0.0206
808.00,0.0204
807.00,0.0194
806.00,0.0181
805.00,0.0165
804.00,0.0151
803.00,0.0138
802.00,0.0127
801.00,0.0119
800.00,0.0113
799.00,0.0108
798.00,0.0103
797.00,0.0098
796.00,0.0093
795.00,0.0089
794.00,0.0087
793.00,0.0084
792.00,0.0082
791.00,0.0080
790.00,0.0079
789.00,0.0078
788.00,0.0076
787.00,0.0074
786.00,0.0072
785.00,0.0069
784.00,0.0065
783.00,0.0062
782.00,0.0061
781.00,0.0059
780.00,0.0058
779.00,0.0058
778.00,0.0058
777.00,0.0060
776.00,0.0061
775.00,0.0063
774.00,0.0066
773.00,0.0070
772.00,0.0073
771.00,0.0076
770.00,0.0078
769.00,0.0079
768.00,0.0080
767.00,0.0080
766.00,0.0079
765.00,0.0078
764.00,0.0075
763.00,0.0071
762.00,0.0067
761.00,0.0064
760.00,0.0060
759.00,0.0057
758.00,0.0055
757.00,0.0053
756.00,0.0052
755.00,0.0052
754.00,0.0053
753.00,0.0053
752.00,0.0052
751.00,0.0051
750.00,0.0050
749.00,0.0049
748.00,0.0048
747.00,0.0047
746.00,0.0047
745.00,0.0047
744.00,0.0048
743.00,0.0050
742.00,0.0052
741.00,0.0053
740.00,0.0055
739.00,0.0056
738.00,0.0056
737.00,0.0056
736.00,0.0056
735.00,0.0057
734.00,0.0058
733.00,0.0061
732.00,0.0062
731.00,0.0062
730.00,0.0060
729.00,0.0058
728.00,0.0057
727.00,0.0057
726.00,0.0057
725.00,0.0057
724.00,0.0057
723.00,0.0056
722.00,0.0056
721.00,0.0057
720.00,0.0058
719.00,0.0058
718.00,0.0056
717.00,0.0054
716.00,0.0052
715.00,0.0051
714.00,0.0052
713.00,0.0053
712.00,0.0053
711.00,0.0052
710.00,0.0051
709.00,0.0051
708.00,0.0051
707.00,0.0052
706.00,0.0052
705.00,0.0051
704.00,0.0050
703.00,0.0050
702.00,0.0051
701.00,0.0051
700.00,0.0050
699.00,0.0047
698.00,0.0045
697.00,0.0044
696.00,0.0043
695.00,0.0043
694.00,0.0044
693.00,0.0044
692.00,0.0045
691.00,0.0044
690.00,0.0044
689.00,0.0043
688.00,0.0044
687.00,0.0044
686.00,0.0044
685.00,0.0043
684.00,0.0042
683.00,0.0042
682.00,0.0043
681.00,0.0044
680.00,0.0045
679.00,0.0046
678.00,0.0047
677.00,0.0048
676.00,0.0049
675.00,0.0050
674.00,0.0050
673.00,0.0049
672.00,0.0048
671.00,0.0046
670.00,0.0045
669.00,0.0046
668.00,0.0046
667.00,0.0047
666.00,0.0047
665.00,0.0047
664.00,0.0049
663.00,0.0051
662.00,0.0051
661.00,0.0049
660.00,0.0045
659.00,0.0042
658.00,0.0041
657.00,0.0040
656.00,0.0041
655.00,0.0042
654.00,0.0044
653.00,0.0045
652.00,0.0045
651.00,0.0045
650.00,0.0045
649.00,0.0045
648.00,0.0045
647.00,0.0045
646.00,0.0045
645.00,0.0047
644.00,0.0048
643.00,0.0050
642.00,0.0050
641.00,0.0049
640.00,0.0048
639.00,0.0047
638.00,0.0047
637.00,0.0048
636.00,0.0049
635.00,0.0048
634.00,0.0048
633.00,0.0048
632.00,0.0049
631.00,0.0049
630.00,0.0049
629.00,0.0048
628.00,0.0048
627.00,0.0047
626.00,0.0046
625.00,0.0046
624.00,0.0048
623.00,0.0049
622.00,0.0049
621.00,0.0048
620.00,0.0047
619.00,0.0046
618.00,0.0045
617.00,0.0044
616.00,0.0044
615.00,0.0045
614.00,0.0049
613.00,0.0052
612.00,0.0054
611.00,0.0053
610.00,0.0053
609.00,0.0052
608.00,0.0051
607.00,0.0050
606.00,0.0048
605.00,0.0047
604.00,0.0047
603.00,0.0047
602.00,0.0048
601.00,0.0050
600.00,0.0052
599.00,0.0053
598.00,0.0053
597.00,0.0052
596.00,0.0051
595.00,0.0049
594.00,0.0047
593.00,0.0047
592.00,0.0047
591.00,0.0048
590.00,0.0050
589.00,0.0052
588.00,0.0056
587.00,0.0060
586.00,0.0061
585.00,0.0060
584.00,0.0056
583.00,0.0051
582.00,0.0049
581.00,0.0049
580.00,0.0052
579.00,0.0054
578.00,0.0055
577.00,0.0054
576.00,0.0052
575.00,0.0050
574.00,0.0049
573.00,0.0049
572.00,0.0050
571.00,0.0052
570.00,0.0052
569.00,0.0051
568.00,0.0050
567.00,0.0050
566.00,0.0052
565.00,0.0054
564.00,0.0055
563.00,0.0054
562.00,0.0053
561.00,0.0053
560.00,0.0055
559.00,0.0056
558.00,0.0056
557.00,0.0056
556.00,0.0057
555.00,0.0057
554.00,0.0056
553.00,0.0055
552.00,0.0054
551.00,0.0055
550.00,0.0058
549.00,0.0059
548.00,0.0059
547.00,0.0057
546.00,0.0055
545.00,0.0054
544.00,0.0054
543.00,0.0056
542.00,0.0059
541.00,0.0060
540.00,0.0061
539.00,0.0060
538.00,0.0060
537.00,0.0059
536.00,0.0059
535.00,0.0061
534.00,0.0067
533.00,0.0075
532.00,0.0082
531.00,0.0086
530.00,0.0085
529.00,0.0081
528.00,0.0077
527.00,0.0074
526.00,0.0071
525.00,0.0067
524.00,0.0063
523.00,0.0063
522.00,0.0066
521.00,0.0067
520.00,0.0065
519.00,0.0060
518.00,0.0054
517.00,0.0051
516.00,0.0052
515.00,0.0057
514.00,0.0061
513.00,0.0064
512.00,0.0064
511.00,0.0063
510.00,0.0062
509.00,0.0061
508.00,0.0059
507.00,0.0058
506.00,0.0059
505.00,0.0059
504.00,0.0056
503.00,0.0052
502.00,0.0048
501.00,0.0050
500.00,0.0055
499.00,0.0056
498.00,0.0052
497.00,0.0046
496.00,0.0044
495.00,0.0048
494.00,0.0056
493.00,0.0061
492.00,0.0060
491.00,0.0055
490.00,0.0049
489.00,0.0044
488.00,0.0040
487.00,0.0040
486.00,0.0047
485.00,0.0060
484.00,0.0073
483.00,0.0083
482.00,0.0090
481.00,0.0093
480.00,0.0092
479.00,0.0088
478.00,0.0083
477.00,0.0079
476.00,0.0077
475.00,0.0076
474.00,0.0075
473.00,0.0074
472.00,0.0073
471.00,0.0071
470.00,0.0066
469.00,0.0061
468.00,0.0059
467.00,0.0061
466.00,0.0070
465.00,0.0083
464.00,0.0096
463.00,0.0111
462.00,0.0127
461.00,0.0143
460.00,0.0153
459.00,0.0155
458.00,0.0150
457.00,0.0145
456.00,0.0137
455.00,0.0127
454.00,0.0115
453.00,0.0105
452.00,0.0102
451.00,0.0104
450.00,0.0107
