Created as New Dataset,Sample 116 By Administrator Date Wednesday, September 10 2025
cm-1,A
4000.00,0.0010
3999.00,0.0010
3998.00,0.0011
3997.00,0.0010
3996.00,0.0010
3995.00,0.0010
3994.00,0.0009
3993.00,0.0009
3992.00,0.0010
3991.00,0.0010
3990.00,0.0010
3989.00,0.0010
3988.00,0.0010
3987.00,0.0010
3986.00,0.0010
3985.00,0.0010
3984.00,0.0009
3983.00,0.0009
3982.00,0.0009
3981.00,0.0009
3980.00,0.0009
3979.00,0.0009
3978.00,0.0009
3977.00,0.0009
3976.00,0.0008
3975.00,0.0008
3974.00,0.0008
3973.00,0.0009
3972.00,0.0009
3971.00,0.0009
3970.00,0.0009
3969.00,0.0009
3968.00,0.0008
3967.00,0.0008
3966.00,0.0008
3965.00,0.0008
3964.00,0.0008
3963.00,0.0008
3962.00,0.0008
3961.00,0.0008
3960.00,0.0008
3959.00,0.0008
3958.00,0.0008
3957.00,0.0008
3956.00,0.0007
3955.00,0.0008
3954.00,0.0008
3953.00,0.0008
3952.00,0.0008
3951.00,0.0009
3950.00,0.0009
3949.00,0.0009
3948.00,0.0009
3947.00,0.0008
3946.00,0.0008
3945.00,0.0008
3944.00,0.0008
3943.00,0.0008
3942.00,0.0008
3941.00,0.0008
3940.00,0.0008
3939.00,0.0008
3938.00,0.0008
3937.00,0.0008
3936.00,0.0008
3935.00,0.0008
3934.00,0.0008
3933.00,0.0008
3932.00,0.0008
3931.00,0.0008
3930.00,0.0008
3929.00,0.0008
3928.00,0.0008
3927.00,0.0008
3926.00,0.0007
3925.00,0.0008
3924.00,0.0008
3923.00,0.0008
3922.00,0.0009
3921.00,0.0009
3920.00,0.0009
3919.00,0.0009
3918.00,0.0009
3917.00,0.0009
3916.00,0.0008
3915.00,0.0008
3914.00,0.0008
3913.00,0.0008
3912.00,0.0008
3911.00,0.0007
3910.00,0.0007
3909.00,0.0007
3908.00,0.0007
3907.00,0.0007
3906.00,0.0007
3905.00,0.0008
3904.00,0.0008
3903.00,0.0009
3902.00,0.0009
3901.00,0.0009
3900.00,0.0009
3899.00,0.0009
3898.00,0.0008
3897.00,0.0008
3896.00,0.0009
3895.00,0.0009
3894.00,0.0009
3893.00,0.0009
3892.00,0.0009
3891.00,0.0009
3890.00,0.0009
3889.00,0.0009
3888.00,0.0008
3887.00,0.0008
3886.00,0.0008
3885.00,0.0008
3884.00,0.0008
3883.00,0.0008
3882.00,0.0008
3881.00,0.0008
3880.00,0.0008
3879.00,0.0008
3878.00,0.0008
3877.00,0.0008
3876.00,0.0007
3875.00,0.0007
3874.00,0.0007
3873.00,0.0007
3872.00,0.0007
3871.00,0.0007
3870.00,0.0007
3869.00,0.0008
3868.00,0.0008
3867.00,0.0007
3866.00,0.0007
3865.00,0.0007
3864.00,0.0007
3863.00,0.0007
3862.00,0.0007
3861.00,0.0007
3860.00,0.0007
3859.00,0.0007
3858.00,0.0007
3857.00,0.0007
3856.00,0.0007
3855.00,0.0007
3854.00,0.0007
3853.00,0.0007
3852.00,0.0006
3851.00,0.0006
3850.00,0.0006
3849.00,0.0006
3848.00,0.0006
3847.00,0.0006
3846.00,0.0006
3845.00,0.0006
3844.00,0.0006
3843.00,0.0007
3842.00,0.0007
3841.00,0.0007
3840.00,0.0006
3839.00,0.0006
3838.00,0.0007
3837.00,0.0007
3836.00,0.0007
3835.00,0.0007
3834.00,0.0007
3833.00,0.0007
3832.00,0.0008
3831.00,0.0008
3830.00,0.0007
3829.00,0.0007
3828.00,0.0007
3827.00,0.0007
3826.00,0.0007
3825.00,0.0007
3824.00,0.0007
3823.00,0.0007
3822.00,0.0007
3821.00,0.0007
3820.00,0.0007
3819.00,0.0007
3818.00,0.0007
3817.00,0.0007
3816.00,0.0007
3815.00,0.0008
3814.00,0.0008
3813.00,0.0008
3812.00,0.0008
3811.00,0.0008
3810.00,0.0008
3809.00,0.0007
3808.00,0.0007
3807.00,0.0007
3806.00,0.0007
3805.00,0.0006
3804.00,0.0006
3803.00,0.0006
3802.00,0.0006
3801.00,0.0007
3800.00,0.0007
3799.00,0.0007
3798.00,0.0007
3797.00,0.0007
3796.00,0.0007
3795.00,0.0007
3794.00,0.0007
3793.00,0.0007
3792.00,0.0007
3791.00,0.0007
3790.00,0.0007
3789.00,0.0007
3788.00,0.0007
3787.00,0.0007
3786.00,0.0007
3785.00,0.0007
3784.00,0.0007
3783.00,0.0007
3782.00,0.0007
3781.00,0.0007
3780.00,0.0007
3779.00,0.0007
3778.00,0.0008
3777.00,0.0008
3776.00,0.0008
3775.00,0.0008
3774.00,0.0008
3773.00,0.0008
3772.00,0.0008
3771.00,0.0009
3770.00,0.0009
3769.00,0.0009
3768.00,0.0009
3767.00,0.0009
3766.00,0.0009
3765.00,0.0009
3764.00,0.0009
3763.00,0.0009
3762.00,0.0009
3761.00,0.0009
3760.00,0.0009
3759.00,0.0009
3758.00,0.0009
3757.00,0.0009
3756.00,0.0009
3755.00,0.0009
3754.00,0.0010
3753.00,0.0010
3752.00,0.0010
3751.00,0.0010
3750.00,0.0010
3749.00,0.0009
3748.00,0.0008
3747.00,0.0008
3746.00,0.0007
3745.00,0.0008
3744.00,0.0008
3743.00,0.0008
3742.00,0.0007
3741.00,0.0007
3740.00,0.0008
3739.00,0.0008
3738.00,0.0008
3737.00,0.0007
3736.00,0.0007
3735.00,0.0006
3734.00,0.0006
3733.00,0.0006
3732.00,0.0007
3731.00,0.0007
3730.00,0.0007
3729.00,0.0007
3728.00,0.0007
3727.00,0.0008
3726.00,0.0008
3725.00,0.0008
3724.00,0.0008
3723.00,0.0008
3722.00,0.0008
3721.00,0.0008
3720.00,0.0007
3719.00,0.0007
3718.00,0.0007
3717.00,0.0007
3716.00,0.0007
3715.00,0.0007
3714.00,0.0006
3713.00,0.0005
3712.00,0.0005
3711.00,0.0005
3710.00,0.0006
3709.00,0.0006
3708.00,0.0006
3707.00,0.0006
3706.00,0.0006
3705.00,0.0007
3704.00,0.0007
3703.00,0.0007
3702.00,0.0007
3701.00,0.0007
3700.00,0.0007
3699.00,0.0007
3698.00,0.0007
3697.00,0.0007
3696.00,0.0007
3695.00,0.0007
3694.00,0.0007
3693.00,0.0006
3692.00,0.0006
3691.00,0.0006
3690.00,0.0006
3689.00,0.0007
3688.00,0.0007
3687.00,0.0007
3686.00,0.0006
3685.00,0.0006
3684.00,0.0006
3683.00,0.0006
3682.00,0.0006
3681.00,0.0007
3680.00,0.0007
3679.00,0.0008
3678.00,0.0008
3677.00,0.0008
3676.00,0.0007
3675.00,0.0007
3674.00,0.0007
3673.00,0.0006
3672.00,0.0006
3671.00,0.0006
3670.00,0.0006
3669.00,0.0006
3668.00,0.0006
3667.00,0.0006
3666.00,0.0006
3665.00,0.0007
3664.00,0.0007
3663.00,0.0007
3662.00,0.0006
3661.00,0.0006
3660.00,0.0006
3659.00,0.0006
3658.00,0.0006
3657.00,0.0006
3656.00,0.0005
3655.00,0.0006
3654.00,0.0006
3653.00,0.0006
3652.00,0.0006
3651.00,0.0006
3650.00,0.0006
3649.00,0.0007
3648.00,0.0007
3647.00,0.0007
3646.00,0.0007
3645.00,0.0008
3644.00,0.0008
3643.00,0.0009
3642.00,0.0009
3641.00,0.0009
3640.00,0.0008
3639.00,0.0008
3638.00,0.0008
3637.00,0.0007
3636.00,0.0007
3635.00,0.0007
3634.00,0.0008
3633.00,0.0008
3632.00,0.0008
3631.00,0.0008
3630.00,0.0008
3629.00,0.0008
3628.00,0.0009
3627.00,0.0008
3626.00,0.0008
3625.00,0.0008
3624.00,0.0008
3623.00,0.0008
3622.00,0.0008
3621.00,0.0008
3620.00,0.0008
3619.00,0.0009
3618.00,0.0009
3617.00,0.0009
3616.00,0.0009
3615.00,0.0010
3614.00,0.0011
3613.00,0.0012
3612.00,0.0013
3611.00,0.0014
3610.00,0.0014
3609.00,0.0013
3608.00,0.0013
3607.00,0.0013
3606.00,0.0013
3605.00,0.0013
3604.00,0.0012
3603.00,0.0012
3602.00,0.0012
3601.00,0.0012
3600.00,0.0012
3599.00,0.0012
3598.00,0.0012
3597.00,0.0012
3596.00,0.0012
3595.00,0.0013
3594.00,0.0013
3593.00,0.0013
3592.00,0.0014
3591.00,0.0014
3590.00,0.0015
3589.00,0.0015
3588.00,0.0016
3587.00,0.0016
3586.00,0.0016
3585.00,0.0017
3584.00,0.0016
3583.00,0.0016
3582.00,0.0016
3581.00,0.0016
3580.00,0.0016
3579.00,0.0016
3578.00,0.0016
3577.00,0.0016
3576.00,0.0017
3575.00,0.0017
3574.00,0.0018
3573.00,0.0018
3572.00,0.0018
3571.00,0.0018
3570.00,0.0018
3569.00,0.0018
3568.00,0.0018
3567.00,0.0018
3566.00,0.0018
3565.00,0.0019
3564.00,0.0020
3563.00,0.0020
3562.00,0.0021
3561.00,0.0021
3560.00,0.0021
3559.00,0.0021
3558.00,0.0021
3557.00,0.0021
3556.00,0.0022
3555.00,0.0022
3554.00,0.0022
3553.00,0.0022
3552.00,0.0022
3551.00,0.0022
3550.00,0.0023
3549.00,0.0023
3548.00,0.0024
3547.00,0.0025
3546.00,0.0025
3545.00,0.0025
3544.00,0.0025
3543.00,0.0025
3542.00,0.0025
3541.00,0.0025
3540.00,0.0025
3539.00,0.0026
3538.00,0.0026
3537.00,0.0026
3536.00,0.0026
3535.00,0.0027
3534.00,0.0027
3533.00,0.0028
3532.00,0.0028
3531.00,0.0028
3530.00,0.0028
3529.00,0.0028
3528.00,0.0028
3527.00,0.0029
3526.00,0.0030
3525.00,0.0030
3524.00,0.0030
3523.00,0.0030
3522.00,0.0030
3521.00,0.0030
3520.00,0.0030
3519.00,0.0031
3518.00,0.0031
3517.00,0.0031
3516.00,0.0032
3515.00,0.0032
3514.00,0.0032
3513.00,0.0032
3512.00,0.0032
3511.00,0.0033
3510.00,0.0033
3509.00,0.0034
3508.00,0.0034
3507.00,0.0034
3506.00,0.0034
3505.00,0.0034
3504.00,0.0035
3503.00,0.0035
3502.00,0.0035
3501.00,0.0036
3500.00,0.0036
3499.00,0.0036
3498.00,0.0036
3497.00,0.0037
3496.00,0.0037
3495.00,0.0037
3494.00,0.0037
3493.00,0.0037
3492.00,0.0037
3491.00,0.0037
3490.00,0.0037
3489.00,0.0037
3488.00,0.0038
3487.00,0.0038
3486.00,0.0038
3485.00,0.0039
3484.00,0.0039
3483.00,0.0039
3482.00,0.0039
3481.00,0.0039
3480.00,0.0039
3479.00,0.0040
3478.00,0.0040
3477.00,0.0040
3476.00,0.0041
3475.00,0.0041
3474.00,0.0041
3473.00,0.0041
3472.00,0.0041
3471.00,0.0041
3470.00,0.0042
3469.00,0.0042
3468.00,0.0042
3467.00,0.0042
3466.00,0.0042
3465.00,0.0042
3464.00,0.0042
3463.00,0.0043
3462.00,0.0043
3461.00,0.0044
3460.00,0.0044
3459.00,0.0045
3458.00,0.0045
3457.00,0.0045
3456.00,0.0045
3455.00,0.0045
3454.00,0.0045
3453.00,0.0046
3452.00,0.0046
3451.00,0.0046
3450.00,0.0046
3449.00,0.0046
3448.00,0.0047
3447.00,0.0047
3446.00,0.0047
3445.00,0.0048
3444.00,0.0048
3443.00,0.0049
3442.00,0.0049
3441.00,0.0049
3440.00,0.0049
3439.00,0.0049
3438.00,0.0049
3437.00,0.0049
3436.00,0.0049
3435.00,0.0049
3434.00,0.0049
3433.00,0.0050
3432.00,0.0050
3431.00,0.0050
3430.00,0.0051
3429.00,0.0051
3428.00,0.0051
3427.00,0.0051
3426.00,0.0051
3425.00,0.0051
3424.00,0.0052
3423.00,0.0052
3422.00,0.0052
3421.00,0.0052
3420.00,0.0052
3419.00,0.0053
3418.00,0.0053
3417.00,0.0053
3416.00,0.0054
3415.00,0.0054
3414.00,0.0054
3413.00,0.0054
3412.00,0.0054
3411.00,0.0054
3410.00,0.0055
3409.00,0.0055
3408.00,0.0055
3407.00,0.0055
3406.00,0.0055
3405.00,0.0055
3404.00,0.0055
3403.00,0.0055
3402.00,0.0056
3401.00,0.0056
3400.00,0.0056
3399.00,0.0056
3398.00,0.0056
3397.00,0.0056
3396.00,0.0056
3395.00,0.0056
3394.00,0.0056
3393.00,0.0056
3392.00,0.0056
3391.00,0.0056
3390.00,0.0056
3389.00,0.0057
3388.00,0.0057
3387.00,0.0057
3386.00,0.0057
3385.00,0.0057
3384.00,0.0057
3383.00,0.0057
3382.00,0.0058
3381.00,0.0057
3380.00,0.0057
3379.00,0.0057
3378.00,0.0057
3377.00,0.0058
3376.00,0.0058
3375.00,0.0058
3374.00,0.0058
3373.00,0.0058
3372.00,0.0059
3371.00,0.0059
3370.00,0.0059
3369.00,0.0059
3368.00,0.0059
3367.00,0.0059
3366.00,0.0059
3365.00,0.0059
3364.00,0.0059
3363.00,0.0059
3362.00,0.0059
3361.00,0.0060
3360.00,0.0060
3359.00,0.0060
3358.00,0.0060
3357.00,0.0060
3356.00,0.0060
3355.00,0.0060
3354.00,0.0060
3353.00,0.0060
3352.00,0.0060
3351.00,0.0061
3350.00,0.0061
3349.00,0.0061
3348.00,0.0061
3347.00,0.0061
3346.00,0.0061
3345.00,0.0061
3344.00,0.0061
3343.00,0.0062
3342.00,0.0062
3341.00,0.0061
3340.00,0.0061
3339.00,0.0061
3338.00,0.0061
3337.00,0.0061
3336.00,0.0061
3335.00,0.0060
3334.00,0.0060
3333.00,0.0060
3332.00,0.0060
3331.00,0.0059
3330.00,0.0059
3329.00,0.0059
3328.00,0.0059
3327.00,0.0060
3326.00,0.0060
3325.00,0.0060
3324.00,0.0060
3323.00,0.0060
3322.00,0.0060
3321.00,0.0060
3320.00,0.0060
3319.00,0.0060
3318.00,0.0060
3317.00,0.0060
3316.00,0.0060
3315.00,0.0060
3314.00,0.0060
3313.00,0.0060
3312.00,0.0059
3311.00,0.0059
3310.00,0.0059
3309.00,0.0059
3308.00,0.0060
3307.00,0.0060
3306.00,0.0060
3305.00,0.0060
3304.00,0.0060
3303.00,0.0060
3302.00,0.0060
3301.00,0.0060
3300.00,0.0060
3299.00,0.0060
3298.00,0.0059
3297.00,0.0059
3296.00,0.0058
3295.00,0.0058
3294.00,0.0058
3293.00,0.0058
3292.00,0.0058
3291.00,0.0058
3290.00,0.0058
3289.00,0.0058
3288.00,0.0058
3287.00,0.0058
3286.00,0.0058
3285.00,0.0057
3284.00,0.0057
3283.00,0.0057
3282.00,0.0057
3281.00,0.0057
3280.00,0.0057
3279.00,0.0058
3278.00,0.0058
3277.00,0.0057
3276.00,0.0057
3275.00,0.0056
3274.00,0.0055
3273.00,0.0055
3272.00,0.0055
3271.00,0.0055
3270.00,0.0055
3269.00,0.0055
3268.00,0.0055
3267.00,0.0055
3266.00,0.0055
3265.00,0.0055
3264.00,0.0055
3263.00,0.0055
3262.00,0.0055
3261.00,0.0055
3260.00,0.0055
3259.00,0.0054
3258.00,0.0054
3257.00,0.0054
3256.00,0.0053
3255.00,0.0053
3254.00,0.0053
3253.00,0.0053
3252.00,0.0053
3251.00,0.0053
3250.00,0.0052
3249.00,0.0052
3248.00,0.0052
3247.00,0.0052
3246.00,0.0052
3245.00,0.0052
3244.00,0.0052
3243.00,0.0052
3242.00,0.0052
3241.00,0.0052
3240.00,0.0052
3239.00,0.0052
3238.00,0.0052
3237.00,0.0052
3236.00,0.0052
3235.00,0.0052
3234.00,0.0052
3233.00,0.0052
3232.00,0.0052
3231.00,0.0052
3230.00,0.0052
3229.00,0.0052
3228.00,0.0053
3227.00,0.0053
3226.00,0.0053
3225.00,0.0053
3224.00,0.0053
3223.00,0.0053
3222.00,0.0053
3221.00,0.0053
3220.00,0.0053
3219.00,0.0054
3218.00,0.0054
3217.00,0.0054
3216.00,0.0054
3215.00,0.0054
3214.00,0.0055
3213.00,0.0055
3212.00,0.0056
3211.00,0.0056
3210.00,0.0056
3209.00,0.0055
3208.00,0.0055
3207.00,0.0055
3206.00,0.0055
3205.00,0.0055
3204.00,0.0056
3203.00,0.0056
3202.00,0.0056
3201.00,0.0056
3200.00,0.0055
3199.00,0.0055
3198.00,0.0055
3197.00,0.0055
3196.00,0.0055
3195.00,0.0055
3194.00,0.0055
3193.00,0.0055
3192.00,0.0054
3191.00,0.0054
3190.00,0.0054
3189.00,0.0054
3188.00,0.0054
3187.00,0.0054
3186.00,0.0054
3185.00,0.0053
3184.00,0.0053
3183.00,0.0053
3182.00,0.0053
3181.00,0.0053
3180.00,0.0052
3179.00,0.0052
3178.00,0.0051
3177.00,0.0050
3176.00,0.0050
3175.00,0.0050
3174.00,0.0050
3173.00,0.0050
3172.00,0.0050
3171.00,0.0050
3170.00,0.0049
3169.00,0.0049
3168.00,0.0049
3167.00,0.0049
3166.00,0.0049
3165.00,0.0049
3164.00,0.0050
3163.00,0.0050
3162.00,0.0050
3161.00,0.0049
3160.00,0.0049
3159.00,0.0049
3158.00,0.0048
3157.00,0.0048
3156.00,0.0048
3155.00,0.0047
3154.00,0.0048
3153.00,0.0048
3152.00,0.0048
3151.00,0.0048
3150.00,0.0048
3149.00,0.0048
3148.00,0.0048
3147.00,0.0047
3146.00,0.0047
3145.00,0.0047
3144.00,0.0047
3143.00,0.0047
3142.00,0.0047
3141.00,0.0047
3140.00,0.0047
3139.00,0.0046
3138.00,0.0046
3137.00,0.0046
3136.00,0.0046
3135.00,0.0045
3134.00,0.0045
3133.00,0.0045
3132.00,0.0045
3131.00,0.0044
3130.00,0.0044
3129.00,0.0044
3128.00,0.0043
3127.00,0.0043
3126.00,0.0043
3125.00,0.0042
3124.00,0.0042
3123.00,0.0042
3122.00,0.0041
3121.00,0.0041
3120.00,0.0041
3119.00,0.0041
3118.00,0.0040
3117.00,0.0040
3116.00,0.0039
3115.00,0.0039
3114.00,0.0039
3113.00,0.0039
3112.00,0.0039
3111.00,0.0039
3110.00,0.0039
3109.00,0.0039
3108.00,0.0039
3107.00,0.0039
3106.00,0.0039
3105.00,0.0039
3104.00,0.0039
3103.00,0.0038
3102.00,0.0038
3101.00,0.0037
3100.00,0.0037
3099.00,0.0037
3098.00,0.0037
3097.00,0.0037
3096.00,0.0037
3095.00,0.0037
3094.00,0.0037
3093.00,0.0037
3092.00,0.0036
3091.00,0.0036
3090.00,0.0036
3089.00,0.0036
3088.00,0.0036
3087.00,0.0036
3086.00,0.0036
3085.00,0.0036
3084.00,0.0036
3083.00,0.0036
3082.00,0.0036
3081.00,0.0036
3080.00,0.0036
3079.00,0.0036
3078.00,0.0036
3077.00,0.0035
3076.00,0.0035
3075.00,0.0035
3074.00,0.0036
3073.00,0.0036
3072.00,0.0036
3071.00,0.0036
3070.00,0.0036
3069.00,0.0036
3068.00,0.0036
3067.00,0.0036
3066.00,0.0036
3065.00,0.0036
3064.00,0.0036
3063.00,0.0036
3062.00,0.0036
3061.00,0.0036
3060.00,0.0037
3059.00,0.0037
3058.00,0.0037
3057.00,0.0037
3056.00,0.0037
3055.00,0.0038
3054.00,0.0038
3053.00,0.0038
3052.00,0.0039
3051.00,0.0039
3050.00,0.0039
3049.00,0.0039
3048.00,0.0039
3047.00,0.0039
3046.00,0.0039
3045.00,0.0039
3044.00,0.0039
3043.00,0.0040
3042.00,0.0040
3041.00,0.0040
3040.00,0.0041
3039.00,0.0041
3038.00,0.0041
3037.00,0.0041
3036.00,0.0042
3035.00,0.0042
3034.00,0.0042
3033.00,0.0042
3032.00,0.0043
3031.00,0.0043
3030.00,0.0044
3029.00,0.0044
3028.00,0.0045
3027.00,0.0045
3026.00,0.0045
3025.00,0.0045
3024.00,0.0046
3023.00,0.0046
3022.00,0.0047
3021.00,0.0048
3020.00,0.0048
3019.00,0.0049
3018.00,0.0050
3017.00,0.0051
3016.00,0.0052
3015.00,0.0053
3014.00,0.0054
3013.00,0.0055
3012.00,0.0057
3011.00,0.0058
3010.00,0.0059
3009.00,0.0060
3008.00,0.0061
3007.00,0.0063
3006.00,0.0065
3005.00,0.0067
3004.00,0.0069
3003.00,0.0071
3002.00,0.0073
3001.00,0.0076
3000.00,0.0078
2999.00,0.0080
2998.00,0.0083
2997.00,0.0087
2996.00,0.0091
2995.00,0.0095
2994.00,0.0099
2993.00,0.0104
2992.00,0.0109
2991.00,0.0114
2990.00,0.0120
2989.00,0.0127
2988.00,0.0135
2987.00,0.0144
2986.00,0.0153
2985.00,0.0163
2984.00,0.0175
2983.00,0.0188
2982.00,0.0204
2981.00,0.0221
2980.00,0.0241
2979.00,0.0263
2978.00,0.0288
2977.00,0.0317
2976.00,0.0349
2975.00,0.0387
2974.00,0.0429
2973.00,0.0476
2972.00,0.0529
2971.00,0.0588
2970.00,0.0654
2969.00,0.0726
2968.00,0.0804
2967.00,0.0886
2966.00,0.0972
2965.00,0.1058
2964.00,0.1142
2963.00,0.1220
2962.00,0.1287
2961.00,0.1344
2960.00,0.1391
2959.00,0.1432
2958.00,0.1473
2957.00,0.1519
2956.00,0.1576
2955.00,0.1646
2954.00,0.1727
2953.00,0.1814
2952.00,0.1897
2951.00,0.1965
2950.00,0.2005
2949.00,0.2006
2948.00,0.1962
2947.00,0.1875
2946.00,0.1754
2945.00,0.1615
2944.00,0.1475
2943.00,0.1348
2942.00,0.1244
2941.00,0.1167
2940.00,0.1118
2939.00,0.1094
2938.00,0.1094
2937.00,0.1114
2936.00,0.1153
2935.00,0.1208
2934.00,0.1279
2933.00,0.1364
2932.00,0.1461
2931.00,0.1568
2930.00,0.1682
2929.00,0.1800
2928.00,0.1919
2927.00,0.2036
2926.00,0.2148
2925.00,0.2256
2924.00,0.2361
2923.00,0.2465
2922.00,0.2569
2921.00,0.2669
2920.00,0.2759
2919.00,0.2831
2918.00,0.2872
2917.00,0.2875
2916.00,0.2837
2915.00,0.2761
2914.00,0.2659
2913.00,0.2542
2912.00,0.2422
2911.00,0.2309
2910.00,0.2204
2909.00,0.2108
2908.00,0.2019
2907.00,0.1936
2906.00,0.1855
2905.00,0.1776
2904.00,0.1697
2903.00,0.1620
2902.00,0.1545
2901.00,0.1473
2900.00,0.1404
2899.00,0.1339
2898.00,0.1279
2897.00,0.1226
2896.00,0.1179
2895.00,0.1140
2894.00,0.1108
2893.00,0.1083
2892.00,0.1066
2891.00,0.1056
2890.00,0.1051
2889.00,0.1052
2888.00,0.1056
2887.00,0.1065
2886.00,0.1077
2885.00,0.1093
2884.00,0.1114
2883.00,0.1141
2882.00,0.1172
2881.00,0.1207
2880.00,0.1242
2879.00,0.1272
2878.00,0.1293
2877.00,0.1302
2876.00,0.1300
2875.00,0.1291
2874.00,0.1281
2873.00,0.1277
2872.00,0.1281
2871.00,0.1295
2870.00,0.1316
2869.00,0.1339
2868.00,0.1356
2867.00,0.1357
2866.00,0.1333
2865.00,0.1280
2864.00,0.1200
2863.00,0.1103
2862.00,0.0999
2861.00,0.0900
2860.00,0.0814
2859.00,0.0744
2858.00,0.0691
2857.00,0.0653
2856.00,0.0628
2855.00,0.0613
2854.00,0.0607
2853.00,0.0609
2852.00,0.0618
2851.00,0.0633
2850.00,0.0653
2849.00,0.0678
2848.00,0.0710
2847.00,0.0749
2846.00,0.0796
2845.00,0.0853
2844.00,0.0919
2843.00,0.0991
2842.00,0.1066
2841.00,0.1138
2840.00,0.1199
2839.00,0.1239
2838.00,0.1250
2837.00,0.1225
2836.00,0.1166
2835.00,0.1077
2834.00,0.0970
2833.00,0.0857
2832.00,0.0748
2831.00,0.0652
2830.00,0.0570
2829.00,0.0503
2828.00,0.0449
2827.00,0.0405
2826.00,0.0369
2825.00,0.0340
2824.00,0.0316
2823.00,0.0296
2822.00,0.0279
2821.00,0.0264
2820.00,0.0251
2819.00,0.0240
2818.00,0.0231
2817.00,0.0222
2816.00,0.0214
2815.00,0.0207
2814.00,0.0201
2813.00,0.0195
2812.00,0.0189
2811.00,0.0184
2810.00,0.0179
2809.00,0.0173
2808.00,0.0166
2807.00,0.0160
2806.00,0.0153
2805.00,0.0146
2804.00,0.0139
2803.00,0.0134
2802.00,0.0128
2801.00,0.0124
2800.00,0.0120
2799.00,0.0117
2798.00,0.0114
2797.00,0.0111
2796.00,0.0109
2795.00,0.0106
2794.00,0.0104
2793.00,0.0101
2792.00,0.0098
2791.00,0.0095
2790.00,0.0091
2789.00,0.0088
2788.00,0.0085
2787.00,0.0082
2786.00,0.0080
2785.00,0.0078
2784.00,0.0076
2783.00,0.0074
2782.00,0.0072
2781.00,0.0070
2780.00,0.0069
2779.00,0.0067
2778.00,0.0066
2777.00,0.0064
2776.00,0.0063
2775.00,0.0062
2774.00,0.0061
2773.00,0.0060
2772.00,0.0059
2771.00,0.0059
2770.00,0.0059
2769.00,0.0058
2768.00,0.0058
2767.00,0.0058
2766.00,0.0057
2765.00,0.0057
2764.00,0.0057
2763.00,0.0056
2762.00,0.0056
2761.00,0.0056
2760.00,0.0056
2759.00,0.0055
2758.00,0.0055
2757.00,0.0055
2756.00,0.0055
2755.00,0.0054
2754.00,0.0054
2753.00,0.0054
2752.00,0.0053
2751.00,0.0053
2750.00,0.0053
2749.00,0.0053
2748.00,0.0053
2747.00,0.0054
2746.00,0.0054
2745.00,0.0055
2744.00,0.0055
2743.00,0.0056
2742.00,0.0057
2741.00,0.0059
2740.00,0.0060
2739.00,0.0062
2738.00,0.0064
2737.00,0.0065
2736.00,0.0067
2735.00,0.0068
2734.00,0.0069
2733.00,0.0071
2732.00,0.0073
2731.00,0.0075
2730.00,0.0078
2729.00,0.0081
2728.00,0.0084
2727.00,0.0087
2726.00,0.0090
2725.00,0.0092
2724.00,0.0094
2723.00,0.0094
2722.00,0.0093
2721.00,0.0091
2720.00,0.0088
2719.00,0.0085
2718.00,0.0081
2717.00,0.0078
2716.00,0.0074
2715.00,0.0071
2714.00,0.0069
2713.00,0.0066
2712.00,0.0064
2711.00,0.0061
2710.00,0.0060
2709.00,0.0058
2708.00,0.0056
2707.00,0.0055
2706.00,0.0054
2705.00,0.0053
2704.00,0.0051
2703.00,0.0050
2702.00,0.0049
2701.00,0.0048
2700.00,0.0047
2699.00,0.0047
2698.00,0.0047
2697.00,0.0047
2696.00,0.0046
2695.00,0.0046
2694.00,0.0046
2693.00,0.0046
2692.00,0.0046
2691.00,0.0046
2690.00,0.0046
2689.00,0.0046
2688.00,0.0046
2687.00,0.0046
2686.00,0.0046
2685.00,0.0046
2684.00,0.0046
2683.00,0.0047
2682.00,0.0047
2681.00,0.0048
2680.00,0.0048
2679.00,0.0048
2678.00,0.0048
2677.00,0.0048
2676.00,0.0047
2675.00,0.0047
2674.00,0.0046
2673.00,0.0046
2672.00,0.0046
2671.00,0.0046
2670.00,0.0046
2669.00,0.0046
2668.00,0.0046
2667.00,0.0046
2666.00,0.0047
2665.00,0.0047
2664.00,0.0047
2663.00,0.0048
2662.00,0.0048
2661.00,0.0049
2660.00,0.0049
2659.00,0.0049
2658.00,0.0049
2657.00,0.0049
2656.00,0.0048
2655.00,0.0048
2654.00,0.0047
2653.00,0.0046
2652.00,0.0046
2651.00,0.0045
2650.00,0.0045
2649.00,0.0045
2648.00,0.0044
2647.00,0.0044
2646.00,0.0044
2645.00,0.0043
2644.00,0.0043
2643.00,0.0042
2642.00,0.0042
2641.00,0.0041
2640.00,0.0041
2639.00,0.0040
2638.00,0.0040
2637.00,0.0040
2636.00,0.0040
2635.00,0.0040
2634.00,0.0040
2633.00,0.0039
2632.00,0.0039
2631.00,0.0039
2630.00,0.0040
2629.00,0.0040
2628.00,0.0040
2627.00,0.0040
2626.00,0.0040
2625.00,0.0040
2624.00,0.0041
2623.00,0.0041
2622.00,0.0042
2621.00,0.0042
2620.00,0.0043
2619.00,0.0043
2618.00,0.0043
2617.00,0.0043
2616.00,0.0042
2615.00,0.0041
2614.00,0.0041
2613.00,0.0040
2612.00,0.0039
2611.00,0.0039
2610.00,0.0038
2609.00,0.0038
2608.00,0.0038
2607.00,0.0037
2606.00,0.0036
2605.00,0.0035
2604.00,0.0035
2603.00,0.0034
2602.00,0.0034
2601.00,0.0034
2600.00,0.0034
2599.00,0.0034
2598.00,0.0035
2597.00,0.0035
2596.00,0.0035
2595.00,0.0035
2594.00,0.0035
2593.00,0.0035
2592.00,0.0036
2591.00,0.0037
2590.00,0.0037
2589.00,0.0038
2588.00,0.0039
2587.00,0.0040
2586.00,0.0041
2585.00,0.0042
2584.00,0.0042
2583.00,0.0043
2582.00,0.0043
2581.00,0.0043
2580.00,0.0042
2579.00,0.0041
2578.00,0.0040
2577.00,0.0038
2576.00,0.0037
2575.00,0.0036
2574.00,0.0034
2573.00,0.0033
2572.00,0.0032
2571.00,0.0030
2570.00,0.0029
2569.00,0.0029
2568.00,0.0029
2567.00,0.0029
2566.00,0.0029
2565.00,0.0028
2564.00,0.0026
2563.00,0.0026
2562.00,0.0025
2561.00,0.0025
2560.00,0.0026
2559.00,0.0026
2558.00,0.0027
2557.00,0.0027
2556.00,0.0026
2555.00,0.0025
2554.00,0.0024
2553.00,0.0023
2552.00,0.0023
2551.00,0.0022
2550.00,0.0022
2549.00,0.0022
2548.00,0.0021
2547.00,0.0021
2546.00,0.0021
2545.00,0.0020
2544.00,0.0020
2543.00,0.0019
2542.00,0.0019
2541.00,0.0018
2540.00,0.0019
2539.00,0.0019
2538.00,0.0019
2537.00,0.0019
2536.00,0.0019
2535.00,0.0018
2534.00,0.0017
2533.00,0.0016
2532.00,0.0015
2531.00,0.0015
2530.00,0.0015
2529.00,0.0015
2528.00,0.0016
2527.00,0.0016
2526.00,0.0016
2525.00,0.0016
2524.00,0.0016
2523.00,0.0015
2522.00,0.0015
2521.00,0.0015
2520.00,0.0014
2519.00,0.0014
2518.00,0.0014
2517.00,0.0013
2516.00,0.0013
2515.00,0.0013
2514.00,0.0012
2513.00,0.0012
2512.00,0.0012
2511.00,0.0011
2510.00,0.0011
2509.00,0.0011
2508.00,0.0011
2507.00,0.0011
2506.00,0.0011
2505.00,0.0011
2504.00,0.0011
2503.00,0.0011
2502.00,0.0010
2501.00,0.0011
2500.00,0.0011
2499.00,0.0011
2498.00,0.0012
2497.00,0.0012
2496.00,0.0013
2495.00,0.0013
2494.00,0.0014
2493.00,0.0014
2492.00,0.0013
2491.00,0.0013
2490.00,0.0012
2489.00,0.0011
2488.00,0.0011
2487.00,0.0011
2486.00,0.0012
2485.00,0.0012
2484.00,0.0012
2483.00,0.0011
2482.00,0.0011
2481.00,0.0011
2480.00,0.0011
2479.00,0.0011
2478.00,0.0011
2477.00,0.0011
2476.00,0.0011
2475.00,0.0011
2474.00,0.0010
2473.00,0.0011
2472.00,0.0011
2471.00,0.0011
2470.00,0.0011
2469.00,0.0011
2468.00,0.0010
2467.00,0.0010
2466.00,0.0010
2465.00,0.0010
2464.00,0.0010
2463.00,0.0010
2462.00,0.0010
2461.00,0.0011
2460.00,0.0011
2459.00,0.0012
2458.00,0.0012
2457.00,0.0013
2456.00,0.0013
2455.00,0.0013
2454.00,0.0013
2453.00,0.0013
2452.00,0.0013
2451.00,0.0013
2450.00,0.0013
2449.00,0.0013
2448.00,0.0013
2447.00,0.0013
2446.00,0.0013
2445.00,0.0012
2444.00,0.0012
2443.00,0.0011
2442.00,0.0011
2441.00,0.0011
2440.00,0.0012
2439.00,0.0012
2438.00,0.0012
2437.00,0.0012
2436.00,0.0013
2435.00,0.0014
2434.00,0.0014
2433.00,0.0014
2432.00,0.0014
2431.00,0.0014
2430.00,0.0014
2429.00,0.0014
2428.00,0.0015
2427.00,0.0015
2426.00,0.0015
2425.00,0.0014
2424.00,0.0014
2423.00,0.0013
2422.00,0.0012
2421.00,0.0012
2420.00,0.0012
2419.00,0.0012
2418.00,0.0012
2417.00,0.0012
2416.00,0.0012
2415.00,0.0011
2414.00,0.0010
2413.00,0.0011
2412.00,0.0011
2411.00,0.0011
2410.00,0.0012
2409.00,0.0011
2408.00,0.0011
2407.00,0.0011
2406.00,0.0010
2405.00,0.0010
2404.00,0.0010
2403.00,0.0010
2402.00,0.0009
2401.00,0.0009
2400.00,0.0009
2399.00,0.0009
2398.00,0.0009
2397.00,0.0009
2396.00,0.0009
2395.00,0.0008
2394.00,0.0008
2393.00,0.0008
2392.00,0.0008
2391.00,0.0009
2390.00,0.0009
2389.00,0.0009
2388.00,0.0009
2387.00,0.0008
2386.00,0.0008
2385.00,0.0007
2384.00,0.0006
2383.00,0.0005
2382.00,0.0004
2381.00,0.0003
2380.00,0.0002
2379.00,0.0002
2378.00,0.0002
2377.00,0.0003
2376.00,0.0003
2375.00,0.0004
2374.00,0.0004
2373.00,0.0004
2372.00,0.0004
2371.00,0.0003
2370.00,0.0003
2369.00,0.0003
2368.00,0.0003
2367.00,0.0003
2366.00,0.0004
2365.00,0.0005
2364.00,0.0004
2363.00,0.0004
2362.00,0.0004
2361.00,0.0004
2360.00,0.0003
2359.00,0.0003
2358.00,0.0002
2357.00,0.0002
2356.00,0.0003
2355.00,0.0004
2354.00,0.0004
2353.00,0.0003
2352.00,0.0003
2351.00,0.0003
2350.00,0.0003
2349.00,0.0004
2348.00,0.0005
2347.00,0.0005
2346.00,0.0005
2345.00,0.0004
2344.00,0.0005
2343.00,0.0005
2342.00,0.0006
2341.00,0.0005
2340.00,0.0005
2339.00,0.0005
2338.00,0.0005
2337.00,0.0006
2336.00,0.0006
2335.00,0.0007
2334.00,0.0007
2333.00,0.0006
2332.00,0.0005
2331.00,0.0004
2330.00,0.0004
2329.00,0.0004
2328.00,0.0006
2327.00,0.0009
2326.00,0.0013
2325.00,0.0016
2324.00,0.0017
2323.00,0.0016
2322.00,0.0014
2321.00,0.0011
2320.00,0.0010
2319.00,0.0010
2318.00,0.0010
2317.00,0.0010
2316.00,0.0010
2315.00,0.0010
2314.00,0.0009
2313.00,0.0008
2312.00,0.0007
2311.00,0.0006
2310.00,0.0006
2309.00,0.0006
2308.00,0.0006
2307.00,0.0007
2306.00,0.0008
2305.00,0.0008
2304.00,0.0009
2303.00,0.0009
2302.00,0.0009
2301.00,0.0009
2300.00,0.0010
2299.00,0.0010
2298.00,0.0010
2297.00,0.0011
2296.00,0.0013
2295.00,0.0014
2294.00,0.0015
2293.00,0.0016
2292.00,0.0017
2291.00,0.0018
2290.00,0.0019
2289.00,0.0020
2288.00,0.0020
2287.00,0.0019
2286.00,0.0018
2285.00,0.0018
2284.00,0.0018
2283.00,0.0018
2282.00,0.0018
2281.00,0.0018
2280.00,0.0017
2279.00,0.0016
2278.00,0.0016
2277.00,0.0016
2276.00,0.0016
2275.00,0.0016
2274.00,0.0015
2273.00,0.0015
2272.00,0.0015
2271.00,0.0014
2270.00,0.0014
2269.00,0.0015
2268.00,0.0015
2267.00,0.0015
2266.00,0.0014
2265.00,0.0012
2264.00,0.0010
2263.00,0.0010
2262.00,0.0010
2261.00,0.0012
2260.00,0.0013
2259.00,0.0014
2258.00,0.0014
2257.00,0.0014
2256.00,0.0013
2255.00,0.0012
2254.00,0.0010
2253.00,0.0009
2252.00,0.0010
2251.00,0.0010
2250.00,0.0011
2249.00,0.0011
2248.00,0.0011
2247.00,0.0011
2246.00,0.0012
2245.00,0.0013
2244.00,0.0013
2243.00,0.0013
2242.00,0.0012
2241.00,0.0011
2240.00,0.0009
2239.00,0.0008
2238.00,0.0008
2237.00,0.0008
2236.00,0.0009
2235.00,0.0009
2234.00,0.0009
2233.00,0.0010
2232.00,0.0011
2231.00,0.0012
2230.00,0.0012
2229.00,0.0012
2228.00,0.0011
2227.00,0.0009
2226.00,0.0007
2225.00,0.0007
2224.00,0.0008
2223.00,0.0008
2222.00,0.0008
2221.00,0.0007
2220.00,0.0007
2219.00,0.0006
2218.00,0.0006
2217.00,0.0007
2216.00,0.0008
2215.00,0.0009
2214.00,0.0010
2213.00,0.0011
2212.00,0.0010
2211.00,0.0009
2210.00,0.0008
2209.00,0.0008
2208.00,0.0009
2207.00,0.0008
2206.00,0.0007
2205.00,0.0006
2204.00,0.0005
2203.00,0.0005
2202.00,0.0005
2201.00,0.0004
2200.00,0.0004
2199.00,0.0003
2198.00,0.0004
2197.00,0.0006
2196.00,0.0008
2195.00,0.0011
2194.00,0.0013
2193.00,0.0014
2192.00,0.0015
2191.00,0.0015
2190.00,0.0013
2189.00,0.0012
2188.00,0.0012
2187.00,0.0011
2186.00,0.0011
2185.00,0.0010
2184.00,0.0007
2183.00,0.0006
2182.00,0.0006
2181.00,0.0008
2180.00,0.0011
2179.00,0.0013
2178.00,0.0013
2177.00,0.0011
2176.00,0.0010
2175.00,0.0009
2174.00,0.0010
2173.00,0.0011
2172.00,0.0013
2171.00,0.0014
2170.00,0.0014
2169.00,0.0015
2168.00,0.0017
2167.00,0.0018
2166.00,0.0019
2165.00,0.0018
2164.00,0.0017
2163.00,0.0017
2162.00,0.0016
2161.00,0.0013
2160.00,0.0004
2159.00,-0.0009
2158.00,-0.0019
2157.00,-0.0024
2156.00,-0.0025
2155.00,-0.0024
2154.00,-0.0021
2153.00,-0.0017
2152.00,-0.0013
2151.00,-0.0008
2150.00,-0.0006
2149.00,-0.0006
2148.00,-0.0009
2147.00,-0.0012
2146.00,-0.0015
2145.00,-0.0016
2144.00,-0.0015
2143.00,-0.0014
2142.00,-0.0013
2141.00,-0.0010
2140.00,-0.0009
2139.00,-0.0008
2138.00,-0.0008
2137.00,-0.0010
2136.00,-0.0012
2135.00,-0.0015
2134.00,-0.0017
2133.00,-0.0018
2132.00,-0.0018
2131.00,-0.0017
2130.00,-0.0015
2129.00,-0.0013
2128.00,-0.0010
2127.00,-0.0007
2126.00,-0.0006
2125.00,-0.0005
2124.00,-0.0005
2123.00,-0.0005
2122.00,-0.0004
2121.00,-0.0002
2120.00,-0.0001
2119.00,-0.0001
2118.00,-0.0000
2117.00,0.0001
2116.00,0.0002
2115.00,0.0003
2114.00,0.0004
2113.00,0.0004
2112.00,0.0004
2111.00,0.0004
2110.00,0.0004
2109.00,0.0004
2108.00,0.0004
2107.00,0.0004
2106.00,0.0004
2105.00,0.0003
2104.00,0.0002
2103.00,0.0002
2102.00,0.0003
2101.00,0.0004
2100.00,0.0004
2099.00,0.0005
2098.00,0.0004
2097.00,0.0003
2096.00,0.0001
2095.00,-0.0002
2094.00,-0.0003
2093.00,-0.0003
2092.00,-0.0002
2091.00,-0.0000
2090.00,0.0000
2089.00,0.0000
2088.00,0.0000
2087.00,0.0001
2086.00,0.0002
2085.00,0.0004
2084.00,0.0004
2083.00,0.0004
2082.00,0.0003
2081.00,0.0003
2080.00,0.0004
2079.00,0.0005
2078.00,0.0006
2077.00,0.0007
2076.00,0.0009
2075.00,0.0010
2074.00,0.0009
2073.00,0.0006
2072.00,0.0003
2071.00,0.0000
2070.00,-0.0002
2069.00,-0.0003
2068.00,-0.0004
2067.00,-0.0003
2066.00,-0.0002
2065.00,-0.0000
2064.00,0.0001
2063.00,0.0002
2062.00,0.0003
2061.00,0.0003
2060.00,0.0002
2059.00,0.0003
2058.00,0.0004
2057.00,0.0005
2056.00,0.0006
2055.00,0.0006
2054.00,0.0007
2053.00,0.0010
2052.00,0.0013
2051.00,0.0015
2050.00,0.0014
2049.00,0.0010
2048.00,0.0006
2047.00,0.0003
2046.00,0.0001
2045.00,0.0001
2044.00,0.0002
2043.00,0.0002
2042.00,0.0000
2041.00,-0.0002
2040.00,-0.0004
2039.00,-0.0005
2038.00,-0.0003
2037.00,-0.0002
2036.00,-0.0002
2035.00,-0.0005
2034.00,-0.0007
2033.00,-0.0006
2032.00,-0.0002
2031.00,0.0001
2030.00,0.0003
2029.00,0.0001
2028.00,-0.0001
2027.00,-0.0005
2026.00,-0.0008
2025.00,-0.0010
2024.00,-0.0011
2023.00,-0.0011
2022.00,-0.0010
2021.00,-0.0008
2020.00,-0.0006
2019.00,-0.0004
2018.00,-0.0002
2017.00,-0.0002
2016.00,-0.0004
2015.00,-0.0008
2014.00,-0.0012
2013.00,-0.0013
2012.00,-0.0012
2011.00,-0.0009
2010.00,-0.0007
2009.00,-0.0008
2008.00,-0.0011
2007.00,-0.0016
2006.00,-0.0019
2005.00,-0.0018
2004.00,-0.0016
2003.00,-0.0014
2002.00,-0.0013
2001.00,-0.0011
2000.00,-0.0010
1999.00,-0.0010
1998.00,-0.0011
1997.00,-0.0012
1996.00,-0.0012
1995.00,-0.0013
1994.00,-0.0012
1993.00,-0.0011
1992.00,-0.0009
1991.00,-0.0008
1990.00,-0.0008
1989.00,-0.0008
1988.00,-0.0008
1987.00,-0.0007
1986.00,-0.0005
1985.00,-0.0002
1984.00,0.0001
1983.00,0.0004
1982.00,0.0008
1981.00,0.0011
1980.00,0.0012
1979.00,0.0009
1978.00,0.0003
1977.00,-0.0005
1976.00,-0.0011
1975.00,-0.0016
1974.00,-0.0018
1973.00,-0.0017
1972.00,-0.0013
1971.00,-0.0009
1970.00,-0.0005
1969.00,-0.0004
1968.00,-0.0005
1967.00,-0.0005
1966.00,-0.0005
1965.00,-0.0004
1964.00,-0.0002
1963.00,-0.0002
1962.00,-0.0003
1961.00,-0.0005
1960.00,-0.0007
1959.00,-0.0011
1958.00,-0.0013
1957.00,-0.0014
1956.00,-0.0014
1955.00,-0.0014
1954.00,-0.0013
1953.00,-0.0012
1952.00,-0.0011
1951.00,-0.0009
1950.00,-0.0008
1949.00,-0.0008
1948.00,-0.0009
1947.00,-0.0012
1946.00,-0.0014
1945.00,-0.0016
1944.00,-0.0017
1943.00,-0.0016
1942.00,-0.0015
1941.00,-0.0013
1940.00,-0.0011
1939.00,-0.0010
1938.00,-0.0009
1937.00,-0.0010
1936.00,-0.0010
1935.00,-0.0010
1934.00,-0.0009
1933.00,-0.0008
1932.00,-0.0007
1931.00,-0.0006
1930.00,-0.0007
1929.00,-0.0008
1928.00,-0.0009
1927.00,-0.0009
1926.00,-0.0008
1925.00,-0.0007
1924.00,-0.0006
1923.00,-0.0005
1922.00,-0.0004
1921.00,-0.0003
1920.00,-0.0003
1919.00,-0.0003
1918.00,-0.0003
1917.00,-0.0002
1916.00,-0.0002
1915.00,-0.0001
1914.00,-0.0002
1913.00,-0.0003
1912.00,-0.0004
1911.00,-0.0004
1910.00,-0.0005
1909.00,-0.0004
1908.00,-0.0003
1907.00,-0.0002
1906.00,-0.0002
1905.00,-0.0001
1904.00,-0.0001
1903.00,-0.0000
1902.00,0.0000
1901.00,0.0000
1900.00,0.0000
1899.00,-0.0000
1898.00,-0.0001
1897.00,-0.0001
1896.00,-0.0002
1895.00,-0.0001
1894.00,-0.0001
1893.00,-0.0001
1892.00,-0.0001
1891.00,-0.0000
1890.00,0.0001
1889.00,0.0001
1888.00,0.0001
1887.00,0.0000
1886.00,-0.0001
1885.00,-0.0001
1884.00,-0.0001
1883.00,0.0000
1882.00,0.0001
1881.00,0.0001
1880.00,0.0001
1879.00,0.0001
1878.00,0.0000
1877.00,0.0000
1876.00,0.0001
1875.00,0.0002
1874.00,0.0003
1873.00,0.0004
1872.00,0.0003
1871.00,0.0003
1870.00,0.0002
1869.00,0.0002
1868.00,0.0003
1867.00,0.0002
1866.00,0.0001
1865.00,-0.0000
1864.00,-0.0000
1863.00,0.0000
1862.00,0.0001
1861.00,0.0001
1860.00,0.0002
1859.00,0.0002
1858.00,0.0002
1857.00,0.0001
1856.00,0.0001
1855.00,0.0001
1854.00,0.0000
1853.00,0.0000
1852.00,0.0000
1851.00,0.0001
1850.00,0.0001
1849.00,0.0003
1848.00,0.0004
1847.00,0.0006
1846.00,0.0006
1845.00,0.0006
1844.00,0.0005
1843.00,0.0005
1842.00,0.0005
1841.00,0.0004
1840.00,0.0004
1839.00,0.0004
1838.00,0.0004
1837.00,0.0005
1836.00,0.0005
1835.00,0.0005
1834.00,0.0004
1833.00,0.0004
1832.00,0.0003
1831.00,0.0003
1830.00,0.0004
1829.00,0.0005
1828.00,0.0004
1827.00,0.0004
1826.00,0.0003
1825.00,0.0003
1824.00,0.0004
1823.00,0.0005
1822.00,0.0005
1821.00,0.0005
1820.00,0.0005
1819.00,0.0004
1818.00,0.0003
1817.00,0.0002
1816.00,0.0002
1815.00,0.0002
1814.00,0.0003
1813.00,0.0003
1812.00,0.0004
1811.00,0.0004
1810.00,0.0005
1809.00,0.0006
1808.00,0.0006
1807.00,0.0005
1806.00,0.0005
1805.00,0.0005
1804.00,0.0005
1803.00,0.0005
1802.00,0.0005
1801.00,0.0006
1800.00,0.0006
1799.00,0.0006
1798.00,0.0007
1797.00,0.0007
1796.00,0.0007
1795.00,0.0008
1794.00,0.0008
1793.00,0.0008
1792.00,0.0009
1791.00,0.0009
1790.00,0.0008
1789.00,0.0008
1788.00,0.0008
1787.00,0.0009
1786.00,0.0009
1785.00,0.0010
1784.00,0.0010
1783.00,0.0010
1782.00,0.0010
1781.00,0.0010
1780.00,0.0010
1779.00,0.0010
1778.00,0.0010
1777.00,0.0010
1776.00,0.0010
1775.00,0.0011
1774.00,0.0011
1773.00,0.0011
1772.00,0.0011
1771.00,0.0011
1770.00,0.0012
1769.00,0.0012
1768.00,0.0012
1767.00,0.0012
1766.00,0.0012
1765.00,0.0012
1764.00,0.0012
1763.00,0.0013
1762.00,0.0014
1761.00,0.0015
1760.00,0.0016
1759.00,0.0016
1758.00,0.0016
1757.00,0.0017
1756.00,0.0019
1755.00,0.0019
1754.00,0.0020
1753.00,0.0021
1752.00,0.0021
1751.00,0.0022
1750.00,0.0024
1749.00,0.0025
1748.00,0.0026
1747.00,0.0026
1746.00,0.0026
1745.00,0.0026
1744.00,0.0027
1743.00,0.0028
1742.00,0.0028
1741.00,0.0028
1740.00,0.0028
1739.00,0.0027
1738.00,0.0027
1737.00,0.0028
1736.00,0.0028
1735.00,0.0028
1734.00,0.0028
1733.00,0.0027
1732.00,0.0026
1731.00,0.0025
1730.00,0.0025
1729.00,0.0025
1728.00,0.0026
1727.00,0.0026
1726.00,0.0026
1725.00,0.0026
1724.00,0.0026
1723.00,0.0026
1722.00,0.0026
1721.00,0.0026
1720.00,0.0025
1719.00,0.0025
1718.00,0.0025
1717.00,0.0026
1716.00,0.0026
1715.00,0.0027
1714.00,0.0027
1713.00,0.0027
1712.00,0.0027
1711.00,0.0027
1710.00,0.0027
1709.00,0.0027
1708.00,0.0028
1707.00,0.0028
1706.00,0.0028
1705.00,0.0029
1704.00,0.0031
1703.00,0.0033
1702.00,0.0034
1701.00,0.0035
1700.00,0.0036
1699.00,0.0036
1698.00,0.0037
1697.00,0.0037
1696.00,0.0038
1695.00,0.0038
1694.00,0.0039
1693.00,0.0039
1692.00,0.0039
1691.00,0.0039
1690.00,0.0040
1689.00,0.0042
1688.00,0.0043
1687.00,0.0043
1686.00,0.0043
1685.00,0.0044
1684.00,0.0048
1683.00,0.0050
1682.00,0.0051
1681.00,0.0051
1680.00,0.0052
1679.00,0.0053
1678.00,0.0054
1677.00,0.0056
1676.00,0.0057
1675.00,0.0058
1674.00,0.0059
1673.00,0.0060
1672.00,0.0061
1671.00,0.0062
1670.00,0.0063
1669.00,0.0064
1668.00,0.0065
1667.00,0.0065
1666.00,0.0066
1665.00,0.0066
1664.00,0.0067
1663.00,0.0068
1662.00,0.0069
1661.00,0.0070
1660.00,0.0070
1659.00,0.0071
1658.00,0.0073
1657.00,0.0074
1656.00,0.0075
1655.00,0.0075
1654.00,0.0074
1653.00,0.0075
1652.00,0.0077
1651.00,0.0078
1650.00,0.0079
1649.00,0.0081
1648.00,0.0082
1647.00,0.0083
1646.00,0.0083
1645.00,0.0083
1644.00,0.0083
1643.00,0.0083
1642.00,0.0083
1641.00,0.0084
1640.00,0.0084
1639.00,0.0085
1638.00,0.0085
1637.00,0.0085
1636.00,0.0085
1635.00,0.0085
1634.00,0.0084
1633.00,0.0084
1632.00,0.0083
1631.00,0.0083
1630.00,0.0083
1629.00,0.0082
1628.00,0.0082
1627.00,0.0082
1626.00,0.0083
1625.00,0.0083
1624.00,0.0083
1623.00,0.0082
1622.00,0.0082
1621.00,0.0081
1620.00,0.0081
1619.00,0.0080
1618.00,0.0078
1617.00,0.0078
1616.00,0.0078
1615.00,0.0079
1614.00,0.0079
1613.00,0.0080
1612.00,0.0080
1611.00,0.0080
1610.00,0.0080
1609.00,0.0080
1608.00,0.0080
1607.00,0.0081
1606.00,0.0081
1605.00,0.0081
1604.00,0.0082
1603.00,0.0082
1602.00,0.0081
1601.00,0.0081
1600.00,0.0081
1599.00,0.0081
1598.00,0.0081
1597.00,0.0081
1596.00,0.0081
1595.00,0.0081
1594.00,0.0081
1593.00,0.0081
1592.00,0.0081
1591.00,0.0081
1590.00,0.0081
1589.00,0.0081
1588.00,0.0082
1587.00,0.0083
1586.00,0.0085
1585.00,0.0086
1584.00,0.0088
1583.00,0.0089
1582.00,0.0090
1581.00,0.0092
1580.00,0.0093
1579.00,0.0094
1578.00,0.0094
1577.00,0.0094
1576.00,0.0093
1575.00,0.0092
1574.00,0.0091
1573.00,0.0090
1572.00,0.0090
1571.00,0.0088
1570.00,0.0087
1569.00,0.0085
1568.00,0.0084
1567.00,0.0083
1566.00,0.0082
1565.00,0.0082
1564.00,0.0082
1563.00,0.0082
1562.00,0.0083
1561.00,0.0083
1560.00,0.0084
1559.00,0.0085
1558.00,0.0086
1557.00,0.0086
1556.00,0.0086
1555.00,0.0087
1554.00,0.0087
1553.00,0.0087
1552.00,0.0088
1551.00,0.0089
1550.00,0.0091
1549.00,0.0093
1548.00,0.0095
1547.00,0.0097
1546.00,0.0100
1545.00,0.0103
1544.00,0.0106
1543.00,0.0108
1542.00,0.0109
1541.00,0.0108
1540.00,0.0105
1539.00,0.0101
1538.00,0.0098
1537.00,0.0096
1536.00,0.0094
1535.00,0.0091
1534.00,0.0088
1533.00,0.0084
1532.00,0.0081
1531.00,0.0079
1530.00,0.0077
1529.00,0.0076
1528.00,0.0075
1527.00,0.0074
1526.00,0.0073
1525.00,0.0072
1524.00,0.0072
1523.00,0.0070
1522.00,0.0069
1521.00,0.0068
1520.00,0.0068
1519.00,0.0068
1518.00,0.0068
1517.00,0.0069
1516.00,0.0069
1515.00,0.0069
1514.00,0.0069
1513.00,0.0069
1512.00,0.0070
1511.00,0.0070
1510.00,0.0070
1509.00,0.0071
1508.00,0.0072
1507.00,0.0073
1506.00,0.0073
1505.00,0.0074
1504.00,0.0075
1503.00,0.0076
1502.00,0.0078
1501.00,0.0080
1500.00,0.0083
1499.00,0.0086
1498.00,0.0088
1497.00,0.0091
1496.00,0.0095
1495.00,0.0097
1494.00,0.0100
1493.00,0.0103
1492.00,0.0106
1491.00,0.0110
1490.00,0.0113
1489.00,0.0118
1488.00,0.0122
1487.00,0.0127
1486.00,0.0131
1485.00,0.0138
1484.00,0.0145
1483.00,0.0152
1482.00,0.0161
1481.00,0.0173
1480.00,0.0186
1479.00,0.0199
1478.00,0.0214
1477.00,0.0235
1476.00,0.0259
1475.00,0.0287
1474.00,0.0323
1473.00,0.0376
1472.00,0.0441
1471.00,0.0505
1470.00,0.0568
1469.00,0.0634
1468.00,0.0707
1467.00,0.0789
1466.00,0.0883
1465.00,0.0985
1464.00,0.1076
1463.00,0.1141
1462.00,0.1184
1461.00,0.1215
1460.00,0.1238
1459.00,0.1253
1458.00,0.1265
1457.00,0.1274
1456.00,0.1274
1455.00,0.1266
1454.00,0.1254
1453.00,0.1235
1452.00,0.1207
1451.00,0.1166
1450.00,0.1110
1449.00,0.1032
1448.00,0.0934
1447.00,0.0830
1446.00,0.0739
1445.00,0.0662
1444.00,0.0597
1443.00,0.0545
1442.00,0.0508
1441.00,0.0484
1440.00,0.0471
1439.00,0.0469
1438.00,0.0474
1437.00,0.0479
1436.00,0.0470
1435.00,0.0443
1434.00,0.0401
1433.00,0.0352
1432.00,0.0301
1431.00,0.0257
1430.00,0.0224
1429.00,0.0200
1428.00,0.0185
1427.00,0.0175
1426.00,0.0169
1425.00,0.0163
1424.00,0.0158
1423.00,0.0155
1422.00,0.0155
1421.00,0.0153
1420.00,0.0150
1419.00,0.0148
1418.00,0.0147
1417.00,0.0144
1416.00,0.0141
1415.00,0.0138
1414.00,0.0137
1413.00,0.0135
1412.00,0.0134
1411.00,0.0132
1410.00,0.0132
1409.00,0.0131
1408.00,0.0130
1407.00,0.0130
1406.00,0.0130
1405.00,0.0131
1404.00,0.0130
1403.00,0.0131
1402.00,0.0132
1401.00,0.0133
1400.00,0.0133
1399.00,0.0135
1398.00,0.0138
1397.00,0.0140
1396.00,0.0142
1395.00,0.0145
1394.00,0.0151
1393.00,0.0156
1392.00,0.0162
1391.00,0.0171
1390.00,0.0184
1389.00,0.0201
1388.00,0.0228
1387.00,0.0267
1386.00,0.0319
1385.00,0.0385
1384.00,0.0471
1383.00,0.0587
1382.00,0.0742
1381.00,0.0943
1380.00,0.1196
1379.00,0.1493
1378.00,0.1795
1377.00,0.2035
1376.00,0.2143
1375.00,0.2067
1374.00,0.1826
1373.00,0.1514
1372.00,0.1221
1371.00,0.0976
1370.00,0.0779
1369.00,0.0629
1368.00,0.0526
1367.00,0.0463
1366.00,0.0429
1365.00,0.0417
1364.00,0.0420
1363.00,0.0437
1362.00,0.0463
1361.00,0.0489
1360.00,0.0509
1359.00,0.0514
1358.00,0.0502
1357.00,0.0472
1356.00,0.0429
1355.00,0.0380
1354.00,0.0333
1353.00,0.0292
1352.00,0.0260
1351.00,0.0234
1350.00,0.0214
1349.00,0.0198
1348.00,0.0185
1347.00,0.0175
1346.00,0.0167
1345.00,0.0160
1344.00,0.0155
1343.00,0.0151
1342.00,0.0148
1341.00,0.0144
1340.00,0.0141
1339.00,0.0139
1338.00,0.0137
1337.00,0.0136
1336.00,0.0137
1335.00,0.0139
1334.00,0.0142
1333.00,0.0147
1332.00,0.0152
1331.00,0.0156
1330.00,0.0157
1329.00,0.0156
1328.00,0.0151
1327.00,0.0145
1326.00,0.0137
1325.00,0.0130
1324.00,0.0123
1323.00,0.0118
1322.00,0.0113
1321.00,0.0110
1320.00,0.0108
1319.00,0.0105
1318.00,0.0103
1317.00,0.0100
1316.00,0.0099
1315.00,0.0097
1314.00,0.0097
1313.00,0.0097
1312.00,0.0098
1311.00,0.0099
1310.00,0.0102
1309.00,0.0107
1308.00,0.0115
1307.00,0.0124
1306.00,0.0134
1305.00,0.0140
1304.00,0.0143
1303.00,0.0142
1302.00,0.0140
1301.00,0.0138
1300.00,0.0138
1299.00,0.0139
1298.00,0.0141
1297.00,0.0143
1296.00,0.0143
1295.00,0.0140
1294.00,0.0136
1293.00,0.0131
1292.00,0.0125
1291.00,0.0120
1290.00,0.0115
1289.00,0.0110
1288.00,0.0106
1287.00,0.0103
1286.00,0.0101
1285.00,0.0098
1284.00,0.0096
1283.00,0.0094
1282.00,0.0092
1281.00,0.0091
1280.00,0.0090
1279.00,0.0089
1278.00,0.0088
1277.00,0.0087
1276.00,0.0086
1275.00,0.0086
1274.00,0.0086
1273.00,0.0087
1272.00,0.0087
1271.00,0.0088
1270.00,0.0089
1269.00,0.0090
1268.00,0.0091
1267.00,0.0093
1266.00,0.0096
1265.00,0.0098
1264.00,0.0101
1263.00,0.0103
1262.00,0.0106
1261.00,0.0110
1260.00,0.0115
1259.00,0.0120
1258.00,0.0126
1257.00,0.0130
1256.00,0.0132
1255.00,0.0130
1254.00,0.0125
1253.00,0.0118
1252.00,0.0111
1251.00,0.0106
1250.00,0.0102
1249.00,0.0099
1248.00,0.0097
1247.00,0.0096
1246.00,0.0095
1245.00,0.0094
1244.00,0.0093
1243.00,0.0092
1242.00,0.0092
1241.00,0.0091
1240.00,0.0090
1239.00,0.0090
1238.00,0.0089
1237.00,0.0088
1236.00,0.0087
1235.00,0.0087
1234.00,0.0087
1233.00,0.0088
1232.00,0.0088
1231.00,0.0088
1230.00,0.0089
1229.00,0.0089
1228.00,0.0091
1227.00,0.0093
1226.00,0.0096
1225.00,0.0099
1224.00,0.0102
1223.00,0.0106
1222.00,0.0109
1221.00,0.0111
1220.00,0.0113
1219.00,0.0114
1218.00,0.0113
1217.00,0.0112
1216.00,0.0109
1215.00,0.0105
1214.00,0.0102
1213.00,0.0098
1212.00,0.0095
1211.00,0.0092
1210.00,0.0090
1209.00,0.0088
1208.00,0.0087
1207.00,0.0085
1206.00,0.0084
1205.00,0.0083
1204.00,0.0082
1203.00,0.0082
1202.00,0.0081
1201.00,0.0081
1200.00,0.0081
1199.00,0.0081
1198.00,0.0081
1197.00,0.0081
1196.00,0.0081
1195.00,0.0081
1194.00,0.0081
1193.00,0.0081
1192.00,0.0081
1191.00,0.0081
1190.00,0.0081
1189.00,0.0081
1188.00,0.0081
1187.00,0.0081
1186.00,0.0082
1185.00,0.0083
1184.00,0.0084
1183.00,0.0086
1182.00,0.0087
1181.00,0.0089
1180.00,0.0091
1179.00,0.0095
1178.00,0.0101
1177.00,0.0108
1176.00,0.0119
1175.00,0.0132
1174.00,0.0150
1173.00,0.0171
1172.00,0.0197
1171.00,0.0224
1170.00,0.0251
1169.00,0.0272
1168.00,0.0285
1167.00,0.0289
1166.00,0.0285
1165.00,0.0275
1164.00,0.0263
1163.00,0.0250
1162.00,0.0238
1161.00,0.0227
1160.00,0.0219
1159.00,0.0213
1158.00,0.0209
1157.00,0.0206
1156.00,0.0205
1155.00,0.0205
1154.00,0.0204
1153.00,0.0202
1152.00,0.0198
1151.00,0.0192
1150.00,0.0185
1149.00,0.0176
1148.00,0.0166
1147.00,0.0157
1146.00,0.0149
1145.00,0.0142
1144.00,0.0136
1143.00,0.0130
1142.00,0.0126
1141.00,0.0121
1140.00,0.0116
1139.00,0.0111
1138.00,0.0108
1137.00,0.0105
1136.00,0.0104
1135.00,0.0102
1134.00,0.0101
1133.00,0.0100
1132.00,0.0100
1131.00,0.0100
1130.00,0.0101
1129.00,0.0102
1128.00,0.0104
1127.00,0.0106
1126.00,0.0108
1125.00,0.0108
1124.00,0.0109
1123.00,0.0109
1122.00,0.0110
1121.00,0.0111
1120.00,0.0112
1119.00,0.0113
1118.00,0.0115
1117.00,0.0117
1116.00,0.0119
1115.00,0.0120
1114.00,0.0121
1113.00,0.0122
1112.00,0.0124
1111.00,0.0127
1110.00,0.0131
1109.00,0.0137
1108.00,0.0143
1107.00,0.0151
1106.00,0.0158
1105.00,0.0166
1104.00,0.0171
1103.00,0.0174
1102.00,0.0174
1101.00,0.0172
1100.00,0.0167
1099.00,0.0161
1098.00,0.0154
1097.00,0.0147
1096.00,0.0141
1095.00,0.0136
1094.00,0.0132
1093.00,0.0128
1092.00,0.0125
1091.00,0.0121
1090.00,0.0118
1089.00,0.0114
1088.00,0.0112
1087.00,0.0111
1086.00,0.0111
1085.00,0.0110
1084.00,0.0109
1083.00,0.0108
1082.00,0.0107
1081.00,0.0105
1080.00,0.0104
1079.00,0.0102
1078.00,0.0101
1077.00,0.0100
1076.00,0.0099
1075.00,0.0098
1074.00,0.0098
1073.00,0.0099
1072.00,0.0099
1071.00,0.0099
1070.00,0.0099
1069.00,0.0099
1068.00,0.0098
1067.00,0.0097
1066.00,0.0097
1065.00,0.0097
1064.00,0.0097
1063.00,0.0097
1062.00,0.0097
1061.00,0.0098
1060.00,0.0099
1059.00,0.0099
1058.00,0.0099
1057.00,0.0099
1056.00,0.0099
1055.00,0.0100
1054.00,0.0101
1053.00,0.0101
1052.00,0.0103
1051.00,0.0104
1050.00,0.0106
1049.00,0.0108
1048.00,0.0111
1047.00,0.0113
1046.00,0.0115
1045.00,0.0116
1044.00,0.0116
1043.00,0.0116
1042.00,0.0115
1041.00,0.0114
1040.00,0.0113
1039.00,0.0113
1038.00,0.0112
1037.00,0.0112
1036.00,0.0111
1035.00,0.0110
1034.00,0.0110
1033.00,0.0108
1032.00,0.0108
1031.00,0.0107
1030.00,0.0106
1029.00,0.0106
1028.00,0.0106
1027.00,0.0107
1026.00,0.0107
1025.00,0.0107
1024.00,0.0107
1023.00,0.0107
1022.00,0.0106
1021.00,0.0107
1020.00,0.0107
1019.00,0.0108
1018.00,0.0109
1017.00,0.0111
1016.00,0.0113
1015.00,0.0114
1014.00,0.0116
1013.00,0.0118
1012.00,0.0120
1011.00,0.0122
1010.00,0.0124
1009.00,0.0127
1008.00,0.0130
1007.00,0.0135
1006.00,0.0142
1005.00,0.0151
1004.00,0.0163
1003.00,0.0181
1002.00,0.0204
1001.00,0.0232
1000.00,0.0261
999.00,0.0284
998.00,0.0294
997.00,0.0287
996.00,0.0266
995.00,0.0235
994.00,0.0204
993.00,0.0175
992.00,0.0153
991.00,0.0136
990.00,0.0124
989.00,0.0115
988.00,0.0110
987.00,0.0108
986.00,0.0108
985.00,0.0110
984.00,0.0114
983.00,0.0121
982.00,0.0131
981.00,0.0146
980.00,0.0165
979.00,0.0191
978.00,0.0224
977.00,0.0262
976.00,0.0302
975.00,0.0337
974.00,0.0362
973.00,0.0368
972.00,0.0354
971.00,0.0322
970.00,0.0280
969.00,0.0237
968.00,0.0201
967.00,0.0173
966.00,0.0152
965.00,0.0137
964.00,0.0124
963.00,0.0115
962.00,0.0107
961.00,0.0102
960.00,0.0097
959.00,0.0093
958.00,0.0090
957.00,0.0087
956.00,0.0084
955.00,0.0083
954.00,0.0082
953.00,0.0082
952.00,0.0081
951.00,0.0081
950.00,0.0081
949.00,0.0081
948.00,0.0081
947.00,0.0083
946.00,0.0085
945.00,0.0088
944.00,0.0092
943.00,0.0096
942.00,0.0099
941.00,0.0101
940.00,0.0101
939.00,0.0098
938.00,0.0093
937.00,0.0087
936.00,0.0081
935.00,0.0076
934.00,0.0073
933.00,0.0071
932.00,0.0070
931.00,0.0069
930.00,0.0068
929.00,0.0067
928.00,0.0066
927.00,0.0065
926.00,0.0065
925.00,0.0065
924.00,0.0066
923.00,0.0067
922.00,0.0068
921.00,0.0069
920.00,0.0071
919.00,0.0073
918.00,0.0075
917.00,0.0076
916.00,0.0076
915.00,0.0076
914.00,0.0076
913.00,0.0077
912.00,0.0078
911.00,0.0079
910.00,0.0080
909.00,0.0081
908.00,0.0083
907.00,0.0087
906.00,0.0095
905.00,0.0108
904.00,0.0125
903.00,0.0146
902.00,0.0169
901.00,0.0191
900.00,0.0206
899.00,0.0210
898.00,0.0202
897.00,0.0183
896.00,0.0160
895.00,0.0139
894.00,0.0121
893.00,0.0108
892.00,0.0098
891.00,0.0091
890.00,0.0085
889.00,0.0082
888.00,0.0079
887.00,0.0078
886.00,0.0077
885.00,0.0077
884.00,0.0075
883.00,0.0073
882.00,0.0072
881.00,0.0072
880.00,0.0073
879.00,0.0075
878.00,0.0077
877.00,0.0078
876.00,0.0078
875.00,0.0076
874.00,0.0075
873.00,0.0075
872.00,0.0075
871.00,0.0076
870.00,0.0077
869.00,0.0078
868.00,0.0078
867.00,0.0079
866.00,0.0079
865.00,0.0080
864.00,0.0081
863.00,0.0082
862.00,0.0084
861.00,0.0085
860.00,0.0086
859.00,0.0087
858.00,0.0088
857.00,0.0088
856.00,0.0090
855.00,0.0092
854.00,0.0094
853.00,0.0096
852.00,0.0099
851.00,0.0102
850.00,0.0106
849.00,0.0111
848.00,0.0118
847.00,0.0130
846.00,0.0149
845.00,0.0175
844.00,0.0208
843.00,0.0244
842.00,0.0270
841.00,0.0275
840.00,0.0257
839.00,0.0225
838.00,0.0191
837.00,0.0164
836.00,0.0146
835.00,0.0136
834.00,0.0130
833.00,0.0126
832.00,0.0123
831.00,0.0122
830.00,0.0120
829.00,0.0118
828.00,0.0116
827.00,0.0113
826.00,0.0112
825.00,0.0111
824.00,0.0112
823.00,0.0112
822.00,0.0112
821.00,0.0113
820.00,0.0114
819.00,0.0117
818.00,0.0121
817.00,0.0127
816.00,0.0135
815.00,0.0147
814.00,0.0164
813.00,0.0183
812.00,0.0204
811.00,0.0223
810.00,0.0236
809.00,0.0242
808.00,0.0239
807.00,0.0228
806.00,0.0212
805.00,0.0194
804.00,0.0178
803.00,0.0164
802.00,0.0153
801.00,0.0143
800.00,0.0135
799.00,0.0128
798.00,0.0122
797.00,0.0117
796.00,0.0112
795.00,0.0109
794.00,0.0106
793.00,0.0103
792.00,0.0099
791.00,0.0096
790.00,0.0092
789.00,0.0089
788.00,0.0087
787.00,0.0084
786.00,0.0082
785.00,0.0079
784.00,0.0077
783.00,0.0074
782.00,0.0072
781.00,0.0071
780.00,0.0070
779.00,0.0069
778.00,0.0070
777.00,0.0071
776.00,0.0072
775.00,0.0073
774.00,0.0073
773.00,0.0074
772.00,0.0076
771.00,0.0079
770.00,0.0083
769.00,0.0086
768.00,0.0087
767.00,0.0087
766.00,0.0086
765.00,0.0085
764.00,0.0082
763.00,0.0077
762.00,0.0073
761.00,0.0069
760.00,0.0067
759.00,0.0066
758.00,0.0065
757.00,0.0064
756.00,0.0062
755.00,0.0061
754.00,0.0060
753.00,0.0060
752.00,0.0060
751.00,0.0061
750.00,0.0062
749.00,0.0062
748.00,0.0063
747.00,0.0064
746.00,0.0064
745.00,0.0065
744.00,0.0067
743.00,0.0067
742.00,0.0067
741.00,0.0067
740.00,0.0067
739.00,0.0068
738.00,0.0069
737.00,0.0070
736.00,0.0072
735.00,0.0073
734.00,0.0074
733.00,0.0075
732.00,0.0076
731.00,0.0076
730.00,0.0077
729.00,0.0076
728.00,0.0075
727.00,0.0075
726.00,0.0076
725.00,0.0075
724.00,0.0074
723.00,0.0073
722.00,0.0074
721.00,0.0075
720.00,0.0076
719.00,0.0076
718.00,0.0075
717.00,0.0073
716.00,0.0071
715.00,0.0068
714.00,0.0067
713.00,0.0067
712.00,0.0068
711.00,0.0068
710.00,0.0067
709.00,0.0066
708.00,0.0067
707.00,0.0069
706.00,0.0070
705.00,0.0070
704.00,0.0070
703.00,0.0069
702.00,0.0068
701.00,0.0065
700.00,0.0063
699.00,0.0062
698.00,0.0063
697.00,0.0063
696.00,0.0062
695.00,0.0060
694.00,0.0058
693.00,0.0058
692.00,0.0060
691.00,0.0062
690.00,0.0064
689.00,0.0066
688.00,0.0066
687.00,0.0066
686.00,0.0066
685.00,0.0067
684.00,0.0067
683.00,0.0066
682.00,0.0064
681.00,0.0063
680.00,0.0061
679.00,0.0062
678.00,0.0064
677.00,0.0067
676.00,0.0070
675.00,0.0073
674.00,0.0073
673.00,0.0069
672.00,0.0064
671.00,0.0060
670.00,0.0058
669.00,0.0059
668.00,0.0060
667.00,0.0063
666.00,0.0065
665.00,0.0065
664.00,0.0064
663.00,0.0062
662.00,0.0061
661.00,0.0061
660.00,0.0063
659.00,0.0064
658.00,0.0066
657.00,0.0066
656.00,0.0065
655.00,0.0062
654.00,0.0061
653.00,0.0060
652.00,0.0062
651.00,0.0063
650.00,0.0064
649.00,0.0063
648.00,0.0062
647.00,0.0062
646.00,0.0062
645.00,0.0063
644.00,0.0064
643.00,0.0064
642.00,0.0065
641.00,0.0064
640.00,0.0062
639.00,0.0060
638.00,0.0059
637.00,0.0058
636.00,0.0057
635.00,0.0057
634.00,0.0059
633.00,0.0063
632.00,0.0066
631.00,0.0068
630.00,0.0070
629.00,0.0070
628.00,0.0069
627.00,0.0067
626.00,0.0063
625.00,0.0061
624.00,0.0060
623.00,0.0060
622.00,0.0060
621.00,0.0060
620.00,0.0061
619.00,0.0062
618.00,0.0065
617.00,0.0070
616.00,0.0074
615.00,0.0073
614.00,0.0067
613.00,0.0061
612.00,0.0059
611.00,0.0062
610.00,0.0068
609.00,0.0070
608.00,0.0068
607.00,0.0063
606.00,0.0059
605.00,0.0058
604.00,0.0061
603.00,0.0064
602.00,0.0067
601.00,0.0068
600.00,0.0068
599.00,0.0069
598.00,0.0072
597.00,0.0075
596.00,0.0075
595.00,0.0071
594.00,0.0068
593.00,0.0069
592.00,0.0073
591.00,0.0076
590.00,0.0074
589.00,0.0072
588.00,0.0071
587.00,0.0074
586.00,0.0079
585.00,0.0083
584.00,0.0085
583.00,0.0084
582.00,0.0082
581.00,0.0078
580.00,0.0075
579.00,0.0073
578.00,0.0073
577.00,0.0073
576.00,0.0074
575.00,0.0074
574.00,0.0074
573.00,0.0072
572.00,0.0069
571.00,0.0066
570.00,0.0066
569.00,0.0067
568.00,0.0070
567.00,0.0069
566.00,0.0063
565.00,0.0056
564.00,0.0052
563.00,0.0053
562.00,0.0057
561.00,0.0060
560.00,0.0060
559.00,0.0061
558.00,0.0063
557.00,0.0067
556.00,0.0072
555.00,0.0078
554.00,0.0083
553.00,0.0085
552.00,0.0083
551.00,0.0078
550.00,0.0073
549.00,0.0070
548.00,0.0070
547.00,0.0074
546.00,0.0080
545.00,0.0085
544.00,0.0090
543.00,0.0093
542.00,0.0096
541.00,0.0099
540.00,0.0102
539.00,0.0104
538.00,0.0103
537.00,0.0103
536.00,0.0102
535.00,0.0101
534.00,0.0098
533.00,0.0094
532.00,0.0091
531.00,0.0090
530.00,0.0091
529.00,0.0095
528.00,0.0101
527.00,0.0104
526.00,0.0100
525.00,0.0091
524.00,0.0083
523.00,0.0082
522.00,0.0088
521.00,0.0094
520.00,0.0095
519.00,0.0089
518.00,0.0076
517.00,0.0065
516.00,0.0059
515.00,0.0058
514.00,0.0060
513.00,0.0060
512.00,0.0061
511.00,0.0064
510.00,0.0066
509.00,0.0066
508.00,0.0061
507.00,0.0056
506.00,0.0056
505.00,0.0060
504.00,0.0065
503.00,0.0064
502.00,0.0059
501.00,0.0054
500.00,0.0052
499.00,0.0056
498.00,0.0066
497.00,0.0080
496.00,0.0093
495.00,0.0101
494.00,0.0102
493.00,0.0098
492.00,0.0091
491.00,0.0085
490.00,0.0079
489.00,0.0073
488.00,0.0069
487.00,0.0069
486.00,0.0073
485.00,0.0080
484.00,0.0084
483.00,0.0084
482.00,0.0084
481.00,0.0083
480.00,0.0083
479.00,0.0082
478.00,0.0082
477.00,0.0083
476.00,0.0082
475.00,0.0078
474.00,0.0071
473.00,0.0068
472.00,0.0072
471.00,0.0076
470.00,0.0075
469.00,0.0072
468.00,0.0073
467.00,0.0082
466.00,0.0098
465.00,0.0116
464.00,0.0132
463.00,0.0140
462.00,0.0136
461.00,0.0127
460.00,0.0123
459.00,0.0127
458.00,0.0136
457.00,0.0140
456.00,0.0136
455.00,0.0130
454.00,0.0126
453.00,0.0125
452.00,0.0126
451.00,0.0125
450.00,0.0119
