Created as New Dataset,Sample 181 By Administrator Date Wednesday, September 10 2025
cm-1,A
4000.00,0.0009
3999.00,0.0009
3998.00,0.0009
3997.00,0.0009
3996.00,0.0009
3995.00,0.0009
3994.00,0.0009
3993.00,0.0009
3992.00,0.0008
3991.00,0.0008
3990.00,0.0008
3989.00,0.0008
3988.00,0.0008
3987.00,0.0008
3986.00,0.0008
3985.00,0.0008
3984.00,0.0008
3983.00,0.0008
3982.00,0.0008
3981.00,0.0007
3980.00,0.0007
3979.00,0.0007
3978.00,0.0007
3977.00,0.0007
3976.00,0.0007
3975.00,0.0007
3974.00,0.0007
3973.00,0.0007
3972.00,0.0008
3971.00,0.0008
3970.00,0.0008
3969.00,0.0008
3968.00,0.0007
3967.00,0.0007
3966.00,0.0007
3965.00,0.0007
3964.00,0.0007
3963.00,0.0007
3962.00,0.0007
3961.00,0.0007
3960.00,0.0007
3959.00,0.0007
3958.00,0.0007
3957.00,0.0007
3956.00,0.0007
3955.00,0.0007
3954.00,0.0006
3953.00,0.0006
3952.00,0.0007
3951.00,0.0006
3950.00,0.0006
3949.00,0.0006
3948.00,0.0006
3947.00,0.0006
3946.00,0.0007
3945.00,0.0007
3944.00,0.0007
3943.00,0.0007
3942.00,0.0007
3941.00,0.0007
3940.00,0.0007
3939.00,0.0007
3938.00,0.0007
3937.00,0.0007
3936.00,0.0007
3935.00,0.0007
3934.00,0.0007
3933.00,0.0007
3932.00,0.0007
3931.00,0.0008
3930.00,0.0008
3929.00,0.0008
3928.00,0.0008
3927.00,0.0007
3926.00,0.0007
3925.00,0.0007
3924.00,0.0007
3923.00,0.0007
3922.00,0.0007
3921.00,0.0007
3920.00,0.0007
3919.00,0.0007
3918.00,0.0007
3917.00,0.0008
3916.00,0.0008
3915.00,0.0008
3914.00,0.0008
3913.00,0.0007
3912.00,0.0007
3911.00,0.0007
3910.00,0.0007
3909.00,0.0007
3908.00,0.0007
3907.00,0.0007
3906.00,0.0007
3905.00,0.0007
3904.00,0.0007
3903.00,0.0007
3902.00,0.0007
3901.00,0.0006
3900.00,0.0006
3899.00,0.0006
3898.00,0.0006
3897.00,0.0006
3896.00,0.0007
3895.00,0.0007
3894.00,0.0007
3893.00,0.0007
3892.00,0.0008
3891.00,0.0008
3890.00,0.0008
3889.00,0.0008
3888.00,0.0008
3887.00,0.0007
3886.00,0.0006
3885.00,0.0006
3884.00,0.0006
3883.00,0.0006
3882.00,0.0006
3881.00,0.0006
3880.00,0.0007
3879.00,0.0007
3878.00,0.0008
3877.00,0.0008
3876.00,0.0007
3875.00,0.0007
3874.00,0.0007
3873.00,0.0007
3872.00,0.0007
3871.00,0.0007
3870.00,0.0007
3869.00,0.0008
3868.00,0.0008
3867.00,0.0008
3866.00,0.0008
3865.00,0.0008
3864.00,0.0008
3863.00,0.0007
3862.00,0.0007
3861.00,0.0006
3860.00,0.0006
3859.00,0.0007
3858.00,0.0007
3857.00,0.0007
3856.00,0.0007
3855.00,0.0007
3854.00,0.0007
3853.00,0.0007
3852.00,0.0007
3851.00,0.0007
3850.00,0.0007
3849.00,0.0006
3848.00,0.0006
3847.00,0.0006
3846.00,0.0006
3845.00,0.0006
3844.00,0.0007
3843.00,0.0008
3842.00,0.0008
3841.00,0.0008
3840.00,0.0008
3839.00,0.0007
3838.00,0.0007
3837.00,0.0007
3836.00,0.0007
3835.00,0.0007
3834.00,0.0007
3833.00,0.0007
3832.00,0.0007
3831.00,0.0007
3830.00,0.0007
3829.00,0.0006
3828.00,0.0006
3827.00,0.0006
3826.00,0.0006
3825.00,0.0006
3824.00,0.0007
3823.00,0.0007
3822.00,0.0007
3821.00,0.0007
3820.00,0.0007
3819.00,0.0007
3818.00,0.0008
3817.00,0.0008
3816.00,0.0008
3815.00,0.0008
3814.00,0.0008
3813.00,0.0007
3812.00,0.0007
3811.00,0.0007
3810.00,0.0007
3809.00,0.0007
3808.00,0.0007
3807.00,0.0007
3806.00,0.0008
3805.00,0.0008
3804.00,0.0008
3803.00,0.0007
3802.00,0.0007
3801.00,0.0007
3800.00,0.0007
3799.00,0.0007
3798.00,0.0007
3797.00,0.0007
3796.00,0.0007
3795.00,0.0008
3794.00,0.0008
3793.00,0.0007
3792.00,0.0007
3791.00,0.0007
3790.00,0.0006
3789.00,0.0007
3788.00,0.0007
3787.00,0.0007
3786.00,0.0007
3785.00,0.0007
3784.00,0.0007
3783.00,0.0007
3782.00,0.0007
3781.00,0.0007
3780.00,0.0007
3779.00,0.0007
3778.00,0.0007
3777.00,0.0007
3776.00,0.0007
3775.00,0.0007
3774.00,0.0007
3773.00,0.0007
3772.00,0.0007
3771.00,0.0007
3770.00,0.0007
3769.00,0.0007
3768.00,0.0007
3767.00,0.0007
3766.00,0.0007
3765.00,0.0007
3764.00,0.0007
3763.00,0.0008
3762.00,0.0008
3761.00,0.0008
3760.00,0.0008
3759.00,0.0008
3758.00,0.0008
3757.00,0.0008
3756.00,0.0008
3755.00,0.0007
3754.00,0.0007
3753.00,0.0007
3752.00,0.0007
3751.00,0.0008
3750.00,0.0008
3749.00,0.0007
3748.00,0.0007
3747.00,0.0007
3746.00,0.0006
3745.00,0.0006
3744.00,0.0007
3743.00,0.0006
3742.00,0.0006
3741.00,0.0005
3740.00,0.0005
3739.00,0.0005
3738.00,0.0004
3737.00,0.0004
3736.00,0.0004
3735.00,0.0004
3734.00,0.0004
3733.00,0.0005
3732.00,0.0005
3731.00,0.0005
3730.00,0.0006
3729.00,0.0006
3728.00,0.0007
3727.00,0.0007
3726.00,0.0007
3725.00,0.0006
3724.00,0.0006
3723.00,0.0005
3722.00,0.0005
3721.00,0.0004
3720.00,0.0004
3719.00,0.0004
3718.00,0.0004
3717.00,0.0005
3716.00,0.0006
3715.00,0.0006
3714.00,0.0007
3713.00,0.0007
3712.00,0.0007
3711.00,0.0007
3710.00,0.0007
3709.00,0.0006
3708.00,0.0006
3707.00,0.0006
3706.00,0.0006
3705.00,0.0006
3704.00,0.0006
3703.00,0.0005
3702.00,0.0005
3701.00,0.0005
3700.00,0.0005
3699.00,0.0005
3698.00,0.0005
3697.00,0.0005
3696.00,0.0005
3695.00,0.0005
3694.00,0.0005
3693.00,0.0005
3692.00,0.0005
3691.00,0.0005
3690.00,0.0006
3689.00,0.0006
3688.00,0.0006
3687.00,0.0006
3686.00,0.0006
3685.00,0.0006
3684.00,0.0006
3683.00,0.0006
3682.00,0.0006
3681.00,0.0005
3680.00,0.0005
3679.00,0.0005
3678.00,0.0006
3677.00,0.0006
3676.00,0.0007
3675.00,0.0007
3674.00,0.0007
3673.00,0.0007
3672.00,0.0007
3671.00,0.0007
3670.00,0.0007
3669.00,0.0006
3668.00,0.0005
3667.00,0.0005
3666.00,0.0004
3665.00,0.0004
3664.00,0.0005
3663.00,0.0005
3662.00,0.0006
3661.00,0.0006
3660.00,0.0006
3659.00,0.0006
3658.00,0.0006
3657.00,0.0005
3656.00,0.0005
3655.00,0.0005
3654.00,0.0005
3653.00,0.0005
3652.00,0.0006
3651.00,0.0007
3650.00,0.0008
3649.00,0.0008
3648.00,0.0007
3647.00,0.0006
3646.00,0.0006
3645.00,0.0006
3644.00,0.0005
3643.00,0.0005
3642.00,0.0005
3641.00,0.0006
3640.00,0.0006
3639.00,0.0006
3638.00,0.0006
3637.00,0.0006
3636.00,0.0006
3635.00,0.0006
3634.00,0.0006
3633.00,0.0006
3632.00,0.0006
3631.00,0.0007
3630.00,0.0007
3629.00,0.0007
3628.00,0.0008
3627.00,0.0008
3626.00,0.0008
3625.00,0.0007
3624.00,0.0007
3623.00,0.0007
3622.00,0.0007
3621.00,0.0007
3620.00,0.0007
3619.00,0.0007
3618.00,0.0007
3617.00,0.0008
3616.00,0.0008
3615.00,0.0008
3614.00,0.0009
3613.00,0.0009
3612.00,0.0010
3611.00,0.0010
3610.00,0.0010
3609.00,0.0009
3608.00,0.0009
3607.00,0.0009
3606.00,0.0009
3605.00,0.0009
3604.00,0.0009
3603.00,0.0010
3602.00,0.0010
3601.00,0.0011
3600.00,0.0011
3599.00,0.0011
3598.00,0.0011
3597.00,0.0011
3596.00,0.0011
3595.00,0.0010
3594.00,0.0010
3593.00,0.0010
3592.00,0.0010
3591.00,0.0011
3590.00,0.0011
3589.00,0.0010
3588.00,0.0010
3587.00,0.0011
3586.00,0.0011
3585.00,0.0012
3584.00,0.0012
3583.00,0.0013
3582.00,0.0013
3581.00,0.0014
3580.00,0.0014
3579.00,0.0014
3578.00,0.0014
3577.00,0.0014
3576.00,0.0014
3575.00,0.0014
3574.00,0.0014
3573.00,0.0014
3572.00,0.0014
3571.00,0.0014
3570.00,0.0013
3569.00,0.0013
3568.00,0.0013
3567.00,0.0013
3566.00,0.0014
3565.00,0.0015
3564.00,0.0016
3563.00,0.0016
3562.00,0.0017
3561.00,0.0018
3560.00,0.0018
3559.00,0.0019
3558.00,0.0019
3557.00,0.0019
3556.00,0.0019
3555.00,0.0019
3554.00,0.0019
3553.00,0.0018
3552.00,0.0018
3551.00,0.0018
3550.00,0.0019
3549.00,0.0019
3548.00,0.0020
3547.00,0.0021
3546.00,0.0021
3545.00,0.0022
3544.00,0.0022
3543.00,0.0021
3542.00,0.0021
3541.00,0.0021
3540.00,0.0021
3539.00,0.0021
3538.00,0.0022
3537.00,0.0022
3536.00,0.0022
3535.00,0.0022
3534.00,0.0023
3533.00,0.0023
3532.00,0.0023
3531.00,0.0024
3530.00,0.0024
3529.00,0.0024
3528.00,0.0024
3527.00,0.0024
3526.00,0.0024
3525.00,0.0024
3524.00,0.0024
3523.00,0.0024
3522.00,0.0025
3521.00,0.0025
3520.00,0.0025
3519.00,0.0026
3518.00,0.0026
3517.00,0.0026
3516.00,0.0026
3515.00,0.0026
3514.00,0.0027
3513.00,0.0027
3512.00,0.0027
3511.00,0.0027
3510.00,0.0027
3509.00,0.0028
3508.00,0.0028
3507.00,0.0028
3506.00,0.0029
3505.00,0.0029
3504.00,0.0029
3503.00,0.0029
3502.00,0.0030
3501.00,0.0030
3500.00,0.0030
3499.00,0.0030
3498.00,0.0030
3497.00,0.0030
3496.00,0.0030
3495.00,0.0031
3494.00,0.0031
3493.00,0.0031
3492.00,0.0032
3491.00,0.0032
3490.00,0.0032
3489.00,0.0033
3488.00,0.0033
3487.00,0.0033
3486.00,0.0033
3485.00,0.0033
3484.00,0.0033
3483.00,0.0032
3482.00,0.0032
3481.00,0.0033
3480.00,0.0033
3479.00,0.0033
3478.00,0.0033
3477.00,0.0034
3476.00,0.0034
3475.00,0.0034
3474.00,0.0034
3473.00,0.0034
3472.00,0.0034
3471.00,0.0034
3470.00,0.0035
3469.00,0.0035
3468.00,0.0035
3467.00,0.0036
3466.00,0.0036
3465.00,0.0036
3464.00,0.0036
3463.00,0.0037
3462.00,0.0037
3461.00,0.0037
3460.00,0.0038
3459.00,0.0038
3458.00,0.0038
3457.00,0.0038
3456.00,0.0038
3455.00,0.0038
3454.00,0.0038
3453.00,0.0038
3452.00,0.0038
3451.00,0.0038
3450.00,0.0038
3449.00,0.0038
3448.00,0.0038
3447.00,0.0038
3446.00,0.0039
3445.00,0.0039
3444.00,0.0040
3443.00,0.0040
3442.00,0.0040
3441.00,0.0041
3440.00,0.0041
3439.00,0.0041
3438.00,0.0042
3437.00,0.0042
3436.00,0.0042
3435.00,0.0041
3434.00,0.0041
3433.00,0.0041
3432.00,0.0041
3431.00,0.0042
3430.00,0.0042
3429.00,0.0043
3428.00,0.0043
3427.00,0.0043
3426.00,0.0044
3425.00,0.0044
3424.00,0.0044
3423.00,0.0044
3422.00,0.0044
3421.00,0.0044
3420.00,0.0045
3419.00,0.0045
3418.00,0.0045
3417.00,0.0045
3416.00,0.0045
3415.00,0.0045
3414.00,0.0046
3413.00,0.0046
3412.00,0.0047
3411.00,0.0047
3410.00,0.0047
3409.00,0.0047
3408.00,0.0047
3407.00,0.0047
3406.00,0.0048
3405.00,0.0048
3404.00,0.0048
3403.00,0.0048
3402.00,0.0048
3401.00,0.0048
3400.00,0.0048
3399.00,0.0048
3398.00,0.0048
3397.00,0.0048
3396.00,0.0048
3395.00,0.0048
3394.00,0.0048
3393.00,0.0048
3392.00,0.0048
3391.00,0.0048
3390.00,0.0049
3389.00,0.0049
3388.00,0.0048
3387.00,0.0048
3386.00,0.0048
3385.00,0.0048
3384.00,0.0047
3383.00,0.0047
3382.00,0.0048
3381.00,0.0048
3380.00,0.0048
3379.00,0.0049
3378.00,0.0049
3377.00,0.0050
3376.00,0.0050
3375.00,0.0050
3374.00,0.0049
3373.00,0.0049
3372.00,0.0049
3371.00,0.0050
3370.00,0.0050
3369.00,0.0050
3368.00,0.0050
3367.00,0.0050
3366.00,0.0049
3365.00,0.0049
3364.00,0.0050
3363.00,0.0050
3362.00,0.0050
3361.00,0.0050
3360.00,0.0051
3359.00,0.0051
3358.00,0.0051
3357.00,0.0051
3356.00,0.0051
3355.00,0.0051
3354.00,0.0051
3353.00,0.0052
3352.00,0.0051
3351.00,0.0051
3350.00,0.0051
3349.00,0.0051
3348.00,0.0052
3347.00,0.0052
3346.00,0.0052
3345.00,0.0052
3344.00,0.0052
3343.00,0.0051
3342.00,0.0051
3341.00,0.0051
3340.00,0.0051
3339.00,0.0051
3338.00,0.0051
3337.00,0.0051
3336.00,0.0051
3335.00,0.0051
3334.00,0.0051
3333.00,0.0051
3332.00,0.0050
3331.00,0.0050
3330.00,0.0050
3329.00,0.0050
3328.00,0.0051
3327.00,0.0051
3326.00,0.0051
3325.00,0.0050
3324.00,0.0050
3323.00,0.0050
3322.00,0.0050
3321.00,0.0050
3320.00,0.0050
3319.00,0.0050
3318.00,0.0050
3317.00,0.0050
3316.00,0.0050
3315.00,0.0050
3314.00,0.0050
3313.00,0.0050
3312.00,0.0050
3311.00,0.0050
3310.00,0.0049
3309.00,0.0049
3308.00,0.0049
3307.00,0.0050
3306.00,0.0050
3305.00,0.0049
3304.00,0.0049
3303.00,0.0049
3302.00,0.0049
3301.00,0.0049
3300.00,0.0049
3299.00,0.0049
3298.00,0.0049
3297.00,0.0049
3296.00,0.0049
3295.00,0.0048
3294.00,0.0048
3293.00,0.0048
3292.00,0.0048
3291.00,0.0048
3290.00,0.0048
3289.00,0.0048
3288.00,0.0048
3287.00,0.0048
3286.00,0.0048
3285.00,0.0047
3284.00,0.0047
3283.00,0.0047
3282.00,0.0047
3281.00,0.0047
3280.00,0.0047
3279.00,0.0047
3278.00,0.0046
3277.00,0.0046
3276.00,0.0046
3275.00,0.0046
3274.00,0.0046
3273.00,0.0046
3272.00,0.0046
3271.00,0.0045
3270.00,0.0045
3269.00,0.0045
3268.00,0.0045
3267.00,0.0045
3266.00,0.0045
3265.00,0.0045
3264.00,0.0045
3263.00,0.0045
3262.00,0.0045
3261.00,0.0045
3260.00,0.0045
3259.00,0.0045
3258.00,0.0044
3257.00,0.0044
3256.00,0.0043
3255.00,0.0043
3254.00,0.0043
3253.00,0.0043
3252.00,0.0042
3251.00,0.0042
3250.00,0.0042
3249.00,0.0041
3248.00,0.0041
3247.00,0.0041
3246.00,0.0041
3245.00,0.0041
3244.00,0.0041
3243.00,0.0042
3242.00,0.0042
3241.00,0.0042
3240.00,0.0043
3239.00,0.0043
3238.00,0.0043
3237.00,0.0042
3236.00,0.0042
3235.00,0.0042
3234.00,0.0042
3233.00,0.0042
3232.00,0.0042
3231.00,0.0042
3230.00,0.0043
3229.00,0.0043
3228.00,0.0043
3227.00,0.0043
3226.00,0.0043
3225.00,0.0043
3224.00,0.0043
3223.00,0.0043
3222.00,0.0043
3221.00,0.0043
3220.00,0.0043
3219.00,0.0044
3218.00,0.0044
3217.00,0.0044
3216.00,0.0045
3215.00,0.0045
3214.00,0.0045
3213.00,0.0045
3212.00,0.0045
3211.00,0.0045
3210.00,0.0045
3209.00,0.0046
3208.00,0.0046
3207.00,0.0046
3206.00,0.0047
3205.00,0.0047
3204.00,0.0048
3203.00,0.0048
3202.00,0.0048
3201.00,0.0047
3200.00,0.0047
3199.00,0.0046
3198.00,0.0046
3197.00,0.0045
3196.00,0.0045
3195.00,0.0045
3194.00,0.0045
3193.00,0.0046
3192.00,0.0046
3191.00,0.0046
3190.00,0.0047
3189.00,0.0046
3188.00,0.0046
3187.00,0.0046
3186.00,0.0046
3185.00,0.0045
3184.00,0.0045
3183.00,0.0045
3182.00,0.0045
3181.00,0.0044
3180.00,0.0044
3179.00,0.0044
3178.00,0.0044
3177.00,0.0044
3176.00,0.0044
3175.00,0.0044
3174.00,0.0043
3173.00,0.0043
3172.00,0.0043
3171.00,0.0043
3170.00,0.0042
3169.00,0.0042
3168.00,0.0042
3167.00,0.0042
3166.00,0.0042
3165.00,0.0042
3164.00,0.0041
3163.00,0.0041
3162.00,0.0041
3161.00,0.0040
3160.00,0.0040
3159.00,0.0040
3158.00,0.0040
3157.00,0.0040
3156.00,0.0040
3155.00,0.0040
3154.00,0.0040
3153.00,0.0040
3152.00,0.0040
3151.00,0.0040
3150.00,0.0040
3149.00,0.0040
3148.00,0.0040
3147.00,0.0040
3146.00,0.0040
3145.00,0.0040
3144.00,0.0040
3143.00,0.0040
3142.00,0.0039
3141.00,0.0039
3140.00,0.0039
3139.00,0.0039
3138.00,0.0039
3137.00,0.0038
3136.00,0.0038
3135.00,0.0038
3134.00,0.0038
3133.00,0.0038
3132.00,0.0038
3131.00,0.0037
3130.00,0.0037
3129.00,0.0037
3128.00,0.0036
3127.00,0.0036
3126.00,0.0036
3125.00,0.0035
3124.00,0.0035
3123.00,0.0034
3122.00,0.0034
3121.00,0.0034
3120.00,0.0034
3119.00,0.0034
3118.00,0.0034
3117.00,0.0033
3116.00,0.0033
3115.00,0.0033
3114.00,0.0033
3113.00,0.0033
3112.00,0.0033
3111.00,0.0032
3110.00,0.0032
3109.00,0.0032
3108.00,0.0032
3107.00,0.0032
3106.00,0.0032
3105.00,0.0031
3104.00,0.0031
3103.00,0.0031
3102.00,0.0031
3101.00,0.0031
3100.00,0.0031
3099.00,0.0031
3098.00,0.0031
3097.00,0.0031
3096.00,0.0031
3095.00,0.0030
3094.00,0.0030
3093.00,0.0030
3092.00,0.0030
3091.00,0.0030
3090.00,0.0030
3089.00,0.0031
3088.00,0.0031
3087.00,0.0031
3086.00,0.0031
3085.00,0.0031
3084.00,0.0030
3083.00,0.0030
3082.00,0.0029
3081.00,0.0029
3080.00,0.0029
3079.00,0.0030
3078.00,0.0030
3077.00,0.0030
3076.00,0.0030
3075.00,0.0030
3074.00,0.0030
3073.00,0.0030
3072.00,0.0031
3071.00,0.0031
3070.00,0.0031
3069.00,0.0030
3068.00,0.0030
3067.00,0.0031
3066.00,0.0031
3065.00,0.0031
3064.00,0.0031
3063.00,0.0032
3062.00,0.0032
3061.00,0.0032
3060.00,0.0031
3059.00,0.0031
3058.00,0.0031
3057.00,0.0031
3056.00,0.0031
3055.00,0.0032
3054.00,0.0032
3053.00,0.0033
3052.00,0.0033
3051.00,0.0033
3050.00,0.0033
3049.00,0.0033
3048.00,0.0033
3047.00,0.0033
3046.00,0.0033
3045.00,0.0033
3044.00,0.0033
3043.00,0.0033
3042.00,0.0033
3041.00,0.0034
3040.00,0.0035
3039.00,0.0035
3038.00,0.0035
3037.00,0.0035
3036.00,0.0035
3035.00,0.0035
3034.00,0.0036
3033.00,0.0036
3032.00,0.0037
3031.00,0.0037
3030.00,0.0037
3029.00,0.0038
3028.00,0.0039
3027.00,0.0039
3026.00,0.0039
3025.00,0.0040
3024.00,0.0040
3023.00,0.0041
3022.00,0.0042
3021.00,0.0043
3020.00,0.0044
3019.00,0.0045
3018.00,0.0046
3017.00,0.0046
3016.00,0.0047
3015.00,0.0048
3014.00,0.0049
3013.00,0.0050
3012.00,0.0051
3011.00,0.0053
3010.00,0.0054
3009.00,0.0055
3008.00,0.0057
3007.00,0.0058
3006.00,0.0060
3005.00,0.0061
3004.00,0.0063
3003.00,0.0065
3002.00,0.0068
3001.00,0.0070
3000.00,0.0073
2999.00,0.0076
2998.00,0.0079
2997.00,0.0082
2996.00,0.0085
2995.00,0.0089
2994.00,0.0094
2993.00,0.0099
2992.00,0.0105
2991.00,0.0111
2990.00,0.0117
2989.00,0.0125
2988.00,0.0133
2987.00,0.0141
2986.00,0.0150
2985.00,0.0161
2984.00,0.0173
2983.00,0.0186
2982.00,0.0202
2981.00,0.0219
2980.00,0.0239
2979.00,0.0261
2978.00,0.0287
2977.00,0.0316
2976.00,0.0348
2975.00,0.0385
2974.00,0.0427
2973.00,0.0475
2972.00,0.0529
2971.00,0.0589
2970.00,0.0656
2969.00,0.0729
2968.00,0.0808
2967.00,0.0892
2966.00,0.0978
2965.00,0.1066
2964.00,0.1150
2963.00,0.1228
2962.00,0.1296
2961.00,0.1354
2960.00,0.1402
2959.00,0.1443
2958.00,0.1485
2957.00,0.1531
2956.00,0.1586
2955.00,0.1654
2954.00,0.1731
2953.00,0.1814
2952.00,0.1892
2951.00,0.1954
2950.00,0.1988
2949.00,0.1984
2948.00,0.1937
2947.00,0.1849
2946.00,0.1730
2945.00,0.1594
2944.00,0.1458
2943.00,0.1334
2942.00,0.1233
2941.00,0.1159
2940.00,0.1111
2939.00,0.1089
2938.00,0.1089
2937.00,0.1109
2936.00,0.1147
2935.00,0.1202
2934.00,0.1272
2933.00,0.1355
2932.00,0.1450
2931.00,0.1555
2930.00,0.1667
2929.00,0.1782
2928.00,0.1897
2927.00,0.2010
2926.00,0.2117
2925.00,0.2221
2924.00,0.2321
2923.00,0.2420
2922.00,0.2518
2921.00,0.2613
2920.00,0.2700
2919.00,0.2771
2918.00,0.2814
2917.00,0.2822
2916.00,0.2790
2915.00,0.2723
2914.00,0.2629
2913.00,0.2521
2912.00,0.2408
2911.00,0.2300
2910.00,0.2199
2909.00,0.2107
2908.00,0.2022
2907.00,0.1941
2906.00,0.1862
2905.00,0.1784
2904.00,0.1707
2903.00,0.1631
2902.00,0.1557
2901.00,0.1486
2900.00,0.1418
2899.00,0.1354
2898.00,0.1295
2897.00,0.1242
2896.00,0.1195
2895.00,0.1156
2894.00,0.1123
2893.00,0.1097
2892.00,0.1079
2891.00,0.1067
2890.00,0.1061
2889.00,0.1060
2888.00,0.1063
2887.00,0.1070
2886.00,0.1080
2885.00,0.1094
2884.00,0.1113
2883.00,0.1137
2882.00,0.1166
2881.00,0.1198
2880.00,0.1230
2879.00,0.1258
2878.00,0.1278
2877.00,0.1287
2876.00,0.1285
2875.00,0.1278
2874.00,0.1270
2873.00,0.1267
2872.00,0.1271
2871.00,0.1285
2870.00,0.1304
2869.00,0.1325
2868.00,0.1340
2867.00,0.1338
2866.00,0.1312
2865.00,0.1258
2864.00,0.1179
2863.00,0.1084
2862.00,0.0984
2861.00,0.0890
2860.00,0.0809
2859.00,0.0744
2858.00,0.0695
2857.00,0.0660
2856.00,0.0635
2855.00,0.0620
2854.00,0.0614
2853.00,0.0614
2852.00,0.0622
2851.00,0.0636
2850.00,0.0656
2849.00,0.0682
2848.00,0.0715
2847.00,0.0754
2846.00,0.0803
2845.00,0.0860
2844.00,0.0925
2843.00,0.0996
2842.00,0.1069
2841.00,0.1138
2840.00,0.1196
2839.00,0.1234
2838.00,0.1243
2837.00,0.1218
2836.00,0.1159
2835.00,0.1071
2834.00,0.0964
2833.00,0.0851
2832.00,0.0743
2831.00,0.0646
2830.00,0.0564
2829.00,0.0497
2828.00,0.0443
2827.00,0.0400
2826.00,0.0365
2825.00,0.0336
2824.00,0.0312
2823.00,0.0292
2822.00,0.0275
2821.00,0.0259
2820.00,0.0246
2819.00,0.0235
2818.00,0.0226
2817.00,0.0217
2816.00,0.0210
2815.00,0.0204
2814.00,0.0198
2813.00,0.0192
2812.00,0.0187
2811.00,0.0181
2810.00,0.0175
2809.00,0.0169
2808.00,0.0163
2807.00,0.0156
2806.00,0.0149
2805.00,0.0142
2804.00,0.0136
2803.00,0.0130
2802.00,0.0125
2801.00,0.0120
2800.00,0.0116
2799.00,0.0112
2798.00,0.0110
2797.00,0.0107
2796.00,0.0105
2795.00,0.0103
2794.00,0.0100
2793.00,0.0097
2792.00,0.0094
2791.00,0.0091
2790.00,0.0087
2789.00,0.0084
2788.00,0.0082
2787.00,0.0079
2786.00,0.0077
2785.00,0.0075
2784.00,0.0073
2783.00,0.0071
2782.00,0.0069
2781.00,0.0067
2780.00,0.0065
2779.00,0.0063
2778.00,0.0062
2777.00,0.0061
2776.00,0.0059
2775.00,0.0058
2774.00,0.0058
2773.00,0.0057
2772.00,0.0057
2771.00,0.0056
2770.00,0.0056
2769.00,0.0056
2768.00,0.0055
2767.00,0.0055
2766.00,0.0055
2765.00,0.0054
2764.00,0.0054
2763.00,0.0054
2762.00,0.0053
2761.00,0.0053
2760.00,0.0052
2759.00,0.0052
2758.00,0.0052
2757.00,0.0052
2756.00,0.0052
2755.00,0.0052
2754.00,0.0052
2753.00,0.0052
2752.00,0.0052
2751.00,0.0051
2750.00,0.0051
2749.00,0.0051
2748.00,0.0051
2747.00,0.0051
2746.00,0.0051
2745.00,0.0052
2744.00,0.0053
2743.00,0.0054
2742.00,0.0055
2741.00,0.0055
2740.00,0.0057
2739.00,0.0058
2738.00,0.0060
2737.00,0.0061
2736.00,0.0063
2735.00,0.0065
2734.00,0.0066
2733.00,0.0068
2732.00,0.0070
2731.00,0.0072
2730.00,0.0075
2729.00,0.0077
2728.00,0.0080
2727.00,0.0083
2726.00,0.0086
2725.00,0.0089
2724.00,0.0090
2723.00,0.0091
2722.00,0.0090
2721.00,0.0088
2720.00,0.0085
2719.00,0.0082
2718.00,0.0078
2717.00,0.0075
2716.00,0.0072
2715.00,0.0069
2714.00,0.0066
2713.00,0.0063
2712.00,0.0061
2711.00,0.0059
2710.00,0.0057
2709.00,0.0055
2708.00,0.0054
2707.00,0.0052
2706.00,0.0051
2705.00,0.0050
2704.00,0.0049
2703.00,0.0048
2702.00,0.0047
2701.00,0.0046
2700.00,0.0046
2699.00,0.0045
2698.00,0.0045
2697.00,0.0044
2696.00,0.0044
2695.00,0.0044
2694.00,0.0043
2693.00,0.0043
2692.00,0.0043
2691.00,0.0043
2690.00,0.0043
2689.00,0.0043
2688.00,0.0043
2687.00,0.0043
2686.00,0.0043
2685.00,0.0043
2684.00,0.0043
2683.00,0.0044
2682.00,0.0044
2681.00,0.0044
2680.00,0.0045
2679.00,0.0045
2678.00,0.0045
2677.00,0.0044
2676.00,0.0044
2675.00,0.0044
2674.00,0.0044
2673.00,0.0044
2672.00,0.0044
2671.00,0.0044
2670.00,0.0044
2669.00,0.0044
2668.00,0.0044
2667.00,0.0044
2666.00,0.0045
2665.00,0.0045
2664.00,0.0045
2663.00,0.0046
2662.00,0.0047
2661.00,0.0047
2660.00,0.0047
2659.00,0.0047
2658.00,0.0047
2657.00,0.0047
2656.00,0.0046
2655.00,0.0046
2654.00,0.0045
2653.00,0.0045
2652.00,0.0044
2651.00,0.0043
2650.00,0.0043
2649.00,0.0042
2648.00,0.0042
2647.00,0.0041
2646.00,0.0041
2645.00,0.0040
2644.00,0.0040
2643.00,0.0039
2642.00,0.0039
2641.00,0.0039
2640.00,0.0039
2639.00,0.0039
2638.00,0.0039
2637.00,0.0039
2636.00,0.0039
2635.00,0.0038
2634.00,0.0038
2633.00,0.0038
2632.00,0.0037
2631.00,0.0037
2630.00,0.0038
2629.00,0.0038
2628.00,0.0038
2627.00,0.0038
2626.00,0.0038
2625.00,0.0038
2624.00,0.0038
2623.00,0.0039
2622.00,0.0039
2621.00,0.0039
2620.00,0.0039
2619.00,0.0040
2618.00,0.0039
2617.00,0.0039
2616.00,0.0039
2615.00,0.0039
2614.00,0.0039
2613.00,0.0039
2612.00,0.0039
2611.00,0.0038
2610.00,0.0037
2609.00,0.0037
2608.00,0.0036
2607.00,0.0035
2606.00,0.0034
2605.00,0.0033
2604.00,0.0032
2603.00,0.0032
2602.00,0.0032
2601.00,0.0032
2600.00,0.0031
2599.00,0.0031
2598.00,0.0031
2597.00,0.0032
2596.00,0.0032
2595.00,0.0033
2594.00,0.0033
2593.00,0.0034
2592.00,0.0034
2591.00,0.0035
2590.00,0.0036
2589.00,0.0036
2588.00,0.0036
2587.00,0.0036
2586.00,0.0037
2585.00,0.0038
2584.00,0.0040
2583.00,0.0040
2582.00,0.0040
2581.00,0.0040
2580.00,0.0039
2579.00,0.0038
2578.00,0.0037
2577.00,0.0037
2576.00,0.0036
2575.00,0.0035
2574.00,0.0034
2573.00,0.0032
2572.00,0.0031
2571.00,0.0029
2570.00,0.0028
2569.00,0.0027
2568.00,0.0026
2567.00,0.0025
2566.00,0.0025
2565.00,0.0024
2564.00,0.0024
2563.00,0.0024
2562.00,0.0024
2561.00,0.0024
2560.00,0.0023
2559.00,0.0022
2558.00,0.0022
2557.00,0.0022
2556.00,0.0022
2555.00,0.0022
2554.00,0.0022
2553.00,0.0022
2552.00,0.0021
2551.00,0.0020
2550.00,0.0020
2549.00,0.0019
2548.00,0.0019
2547.00,0.0018
2546.00,0.0018
2545.00,0.0017
2544.00,0.0016
2543.00,0.0016
2542.00,0.0016
2541.00,0.0016
2540.00,0.0016
2539.00,0.0017
2538.00,0.0017
2537.00,0.0017
2536.00,0.0017
2535.00,0.0017
2534.00,0.0016
2533.00,0.0016
2532.00,0.0016
2531.00,0.0016
2530.00,0.0016
2529.00,0.0016
2528.00,0.0016
2527.00,0.0016
2526.00,0.0015
2525.00,0.0015
2524.00,0.0014
2523.00,0.0014
2522.00,0.0013
2521.00,0.0013
2520.00,0.0013
2519.00,0.0013
2518.00,0.0013
2517.00,0.0013
2516.00,0.0013
2515.00,0.0012
2514.00,0.0012
2513.00,0.0012
2512.00,0.0011
2511.00,0.0011
2510.00,0.0011
2509.00,0.0010
2508.00,0.0010
2507.00,0.0010
2506.00,0.0009
2505.00,0.0009
2504.00,0.0009
2503.00,0.0009
2502.00,0.0010
2501.00,0.0011
2500.00,0.0012
2499.00,0.0012
2498.00,0.0011
2497.00,0.0011
2496.00,0.0010
2495.00,0.0010
2494.00,0.0010
2493.00,0.0010
2492.00,0.0010
2491.00,0.0010
2490.00,0.0010
2489.00,0.0010
2488.00,0.0010
2487.00,0.0010
2486.00,0.0010
2485.00,0.0010
2484.00,0.0010
2483.00,0.0010
2482.00,0.0010
2481.00,0.0009
2480.00,0.0009
2479.00,0.0009
2478.00,0.0008
2477.00,0.0008
2476.00,0.0008
2475.00,0.0008
2474.00,0.0008
2473.00,0.0008
2472.00,0.0009
2471.00,0.0009
2470.00,0.0010
2469.00,0.0011
2468.00,0.0010
2467.00,0.0010
2466.00,0.0009
2465.00,0.0009
2464.00,0.0009
2463.00,0.0010
2462.00,0.0010
2461.00,0.0010
2460.00,0.0010
2459.00,0.0009
2458.00,0.0010
2457.00,0.0010
2456.00,0.0010
2455.00,0.0011
2454.00,0.0011
2453.00,0.0011
2452.00,0.0011
2451.00,0.0012
2450.00,0.0012
2449.00,0.0012
2448.00,0.0011
2447.00,0.0010
2446.00,0.0010
2445.00,0.0009
2444.00,0.0009
2443.00,0.0009
2442.00,0.0009
2441.00,0.0010
2440.00,0.0010
2439.00,0.0010
2438.00,0.0010
2437.00,0.0010
2436.00,0.0010
2435.00,0.0011
2434.00,0.0012
2433.00,0.0012
2432.00,0.0013
2431.00,0.0013
2430.00,0.0013
2429.00,0.0013
2428.00,0.0012
2427.00,0.0012
2426.00,0.0011
2425.00,0.0012
2424.00,0.0012
2423.00,0.0012
2422.00,0.0011
2421.00,0.0011
2420.00,0.0010
2419.00,0.0009
2418.00,0.0009
2417.00,0.0009
2416.00,0.0008
2415.00,0.0008
2414.00,0.0009
2413.00,0.0009
2412.00,0.0010
2411.00,0.0011
2410.00,0.0011
2409.00,0.0011
2408.00,0.0011
2407.00,0.0010
2406.00,0.0009
2405.00,0.0009
2404.00,0.0009
2403.00,0.0009
2402.00,0.0009
2401.00,0.0008
2400.00,0.0009
2399.00,0.0009
2398.00,0.0009
2397.00,0.0009
2396.00,0.0009
2395.00,0.0008
2394.00,0.0008
2393.00,0.0007
2392.00,0.0007
2391.00,0.0006
2390.00,0.0007
2389.00,0.0006
2388.00,0.0006
2387.00,0.0006
2386.00,0.0005
2385.00,0.0004
2384.00,0.0003
2383.00,0.0002
2382.00,0.0001
2381.00,0.0000
2380.00,-0.0000
2379.00,-0.0001
2378.00,-0.0001
2377.00,-0.0001
2376.00,-0.0001
2375.00,-0.0001
2374.00,0.0000
2373.00,0.0001
2372.00,0.0002
2371.00,0.0001
2370.00,0.0000
2369.00,-0.0000
2368.00,-0.0001
2367.00,-0.0001
2366.00,-0.0001
2365.00,-0.0001
2364.00,0.0000
2363.00,0.0002
2362.00,0.0004
2361.00,0.0005
2360.00,0.0004
2359.00,0.0003
2358.00,0.0002
2357.00,0.0001
2356.00,0.0000
2355.00,-0.0000
2354.00,-0.0001
2353.00,-0.0001
2352.00,-0.0000
2351.00,0.0001
2350.00,0.0003
2349.00,0.0004
2348.00,0.0004
2347.00,0.0003
2346.00,0.0002
2345.00,0.0003
2344.00,0.0003
2343.00,0.0003
2342.00,0.0003
2341.00,0.0004
2340.00,0.0004
2339.00,0.0004
2338.00,0.0004
2337.00,0.0005
2336.00,0.0004
2335.00,0.0004
2334.00,0.0003
2333.00,0.0002
2332.00,0.0002
2331.00,0.0002
2330.00,0.0002
2329.00,0.0003
2328.00,0.0005
2327.00,0.0008
2326.00,0.0012
2325.00,0.0015
2324.00,0.0016
2323.00,0.0016
2322.00,0.0014
2321.00,0.0012
2320.00,0.0010
2319.00,0.0009
2318.00,0.0009
2317.00,0.0008
2316.00,0.0008
2315.00,0.0007
2314.00,0.0007
2313.00,0.0006
2312.00,0.0006
2311.00,0.0006
2310.00,0.0006
2309.00,0.0007
2308.00,0.0007
2307.00,0.0008
2306.00,0.0008
2305.00,0.0007
2304.00,0.0008
2303.00,0.0008
2302.00,0.0008
2301.00,0.0009
2300.00,0.0009
2299.00,0.0010
2298.00,0.0010
2297.00,0.0011
2296.00,0.0011
2295.00,0.0012
2294.00,0.0013
2293.00,0.0013
2292.00,0.0014
2291.00,0.0015
2290.00,0.0016
2289.00,0.0017
2288.00,0.0017
2287.00,0.0017
2286.00,0.0018
2285.00,0.0018
2284.00,0.0017
2283.00,0.0016
2282.00,0.0015
2281.00,0.0013
2280.00,0.0012
2279.00,0.0012
2278.00,0.0012
2277.00,0.0012
2276.00,0.0013
2275.00,0.0014
2274.00,0.0014
2273.00,0.0013
2272.00,0.0013
2271.00,0.0012
2270.00,0.0011
2269.00,0.0011
2268.00,0.0011
2267.00,0.0011
2266.00,0.0011
2265.00,0.0011
2264.00,0.0011
2263.00,0.0012
2262.00,0.0012
2261.00,0.0012
2260.00,0.0012
2259.00,0.0011
2258.00,0.0010
2257.00,0.0009
2256.00,0.0008
2255.00,0.0008
2254.00,0.0008
2253.00,0.0008
2252.00,0.0008
2251.00,0.0009
2250.00,0.0010
2249.00,0.0010
2248.00,0.0010
2247.00,0.0009
2246.00,0.0008
2245.00,0.0007
2244.00,0.0006
2243.00,0.0006
2242.00,0.0007
2241.00,0.0008
2240.00,0.0009
2239.00,0.0008
2238.00,0.0007
2237.00,0.0005
2236.00,0.0005
2235.00,0.0006
2234.00,0.0007
2233.00,0.0009
2232.00,0.0009
2231.00,0.0010
2230.00,0.0010
2229.00,0.0010
2228.00,0.0009
2227.00,0.0007
2226.00,0.0006
2225.00,0.0006
2224.00,0.0007
2223.00,0.0006
2222.00,0.0004
2221.00,0.0001
2220.00,-0.0000
2219.00,-0.0000
2218.00,0.0000
2217.00,0.0001
2216.00,0.0002
2215.00,0.0004
2214.00,0.0005
2213.00,0.0006
2212.00,0.0007
2211.00,0.0006
2210.00,0.0005
2209.00,0.0004
2208.00,0.0004
2207.00,0.0003
2206.00,0.0004
2205.00,0.0006
2204.00,0.0007
2203.00,0.0008
2202.00,0.0007
2201.00,0.0007
2200.00,0.0007
2199.00,0.0008
2198.00,0.0011
2197.00,0.0013
2196.00,0.0014
2195.00,0.0014
2194.00,0.0012
2193.00,0.0010
2192.00,0.0010
2191.00,0.0011
2190.00,0.0012
2189.00,0.0013
2188.00,0.0013
2187.00,0.0010
2186.00,0.0008
2185.00,0.0006
2184.00,0.0006
2183.00,0.0007
2182.00,0.0009
2181.00,0.0011
2180.00,0.0013
2179.00,0.0013
2178.00,0.0012
2177.00,0.0010
2176.00,0.0007
2175.00,0.0005
2174.00,0.0004
2173.00,0.0005
2172.00,0.0007
2171.00,0.0009
2170.00,0.0012
2169.00,0.0014
2168.00,0.0015
2167.00,0.0014
2166.00,0.0013
2165.00,0.0012
2164.00,0.0012
2163.00,0.0013
2162.00,0.0014
2161.00,0.0011
2160.00,0.0002
2159.00,-0.0011
2158.00,-0.0023
2157.00,-0.0027
2156.00,-0.0026
2155.00,-0.0023
2154.00,-0.0019
2153.00,-0.0017
2152.00,-0.0016
2151.00,-0.0016
2150.00,-0.0015
2149.00,-0.0013
2148.00,-0.0012
2147.00,-0.0011
2146.00,-0.0011
2145.00,-0.0011
2144.00,-0.0011
2143.00,-0.0010
2142.00,-0.0009
2141.00,-0.0008
2140.00,-0.0009
2139.00,-0.0011
2138.00,-0.0012
2137.00,-0.0012
2136.00,-0.0013
2135.00,-0.0015
2134.00,-0.0017
2133.00,-0.0017
2132.00,-0.0015
2131.00,-0.0012
2130.00,-0.0011
2129.00,-0.0010
2128.00,-0.0009
2127.00,-0.0009
2126.00,-0.0008
2125.00,-0.0007
2124.00,-0.0006
2123.00,-0.0006
2122.00,-0.0005
2121.00,-0.0004
2120.00,-0.0003
2119.00,-0.0002
2118.00,-0.0001
2117.00,0.0000
2116.00,0.0002
2115.00,0.0003
2114.00,0.0003
2113.00,0.0003
2112.00,0.0003
2111.00,0.0003
2110.00,0.0003
2109.00,0.0003
2108.00,0.0002
2107.00,0.0001
2106.00,0.0001
2105.00,0.0002
2104.00,0.0003
2103.00,0.0002
2102.00,0.0002
2101.00,0.0001
2100.00,0.0002
2099.00,0.0003
2098.00,0.0003
2097.00,0.0001
2096.00,-0.0002
2095.00,-0.0005
2094.00,-0.0005
2093.00,-0.0004
2092.00,-0.0003
2091.00,-0.0003
2090.00,-0.0003
2089.00,-0.0003
2088.00,-0.0003
2087.00,-0.0002
2086.00,-0.0001
2085.00,-0.0000
2084.00,0.0001
2083.00,0.0001
2082.00,0.0001
2081.00,0.0001
2080.00,0.0002
2079.00,0.0003
2078.00,0.0003
2077.00,0.0003
2076.00,0.0003
2075.00,0.0002
2074.00,0.0001
2073.00,0.0001
2072.00,0.0001
2071.00,0.0002
2070.00,0.0002
2069.00,0.0001
2068.00,0.0000
2067.00,-0.0001
2066.00,-0.0002
2065.00,-0.0001
2064.00,0.0001
2063.00,0.0002
2062.00,0.0002
2061.00,0.0000
2060.00,-0.0002
2059.00,-0.0004
2058.00,-0.0005
2057.00,-0.0005
2056.00,-0.0004
2055.00,-0.0004
2054.00,-0.0003
2053.00,0.0001
2052.00,0.0008
2051.00,0.0014
2050.00,0.0015
2049.00,0.0013
2048.00,0.0009
2047.00,0.0005
2046.00,0.0003
2045.00,0.0002
2044.00,0.0001
2043.00,0.0000
2042.00,0.0001
2041.00,0.0004
2040.00,0.0006
2039.00,0.0006
2038.00,0.0005
2037.00,0.0002
2036.00,0.0000
2035.00,-0.0001
2034.00,-0.0002
2033.00,-0.0004
2032.00,-0.0006
2031.00,-0.0009
2030.00,-0.0012
2029.00,-0.0013
2028.00,-0.0012
2027.00,-0.0012
2026.00,-0.0013
2025.00,-0.0015
2024.00,-0.0017
2023.00,-0.0017
2022.00,-0.0015
2021.00,-0.0012
2020.00,-0.0009
2019.00,-0.0008
2018.00,-0.0008
2017.00,-0.0008
2016.00,-0.0007
2015.00,-0.0008
2014.00,-0.0010
2013.00,-0.0011
2012.00,-0.0011
2011.00,-0.0010
2010.00,-0.0009
2009.00,-0.0010
2008.00,-0.0012
2007.00,-0.0015
2006.00,-0.0018
2005.00,-0.0018
2004.00,-0.0017
2003.00,-0.0016
2002.00,-0.0015
2001.00,-0.0013
2000.00,-0.0011
1999.00,-0.0009
1998.00,-0.0007
1997.00,-0.0006
1996.00,-0.0006
1995.00,-0.0006
1994.00,-0.0008
1993.00,-0.0009
1992.00,-0.0008
1991.00,-0.0007
1990.00,-0.0007
1989.00,-0.0005
1988.00,-0.0004
1987.00,-0.0003
1986.00,-0.0002
1985.00,-0.0001
1984.00,-0.0000
1983.00,0.0001
1982.00,0.0002
1981.00,0.0002
1980.00,0.0002
1979.00,0.0000
1978.00,-0.0003
1977.00,-0.0006
1976.00,-0.0007
1975.00,-0.0009
1974.00,-0.0012
1973.00,-0.0015
1972.00,-0.0016
1971.00,-0.0016
1970.00,-0.0014
1969.00,-0.0012
1968.00,-0.0009
1967.00,-0.0008
1966.00,-0.0010
1965.00,-0.0012
1964.00,-0.0015
1963.00,-0.0017
1962.00,-0.0018
1961.00,-0.0019
1960.00,-0.0020
1959.00,-0.0022
1958.00,-0.0021
1957.00,-0.0019
1956.00,-0.0015
1955.00,-0.0012
1954.00,-0.0011
1953.00,-0.0011
1952.00,-0.0011
1951.00,-0.0012
1950.00,-0.0014
1949.00,-0.0015
1948.00,-0.0016
1947.00,-0.0015
1946.00,-0.0015
1945.00,-0.0014
1944.00,-0.0014
1943.00,-0.0014
1942.00,-0.0015
1941.00,-0.0015
1940.00,-0.0013
1939.00,-0.0012
1938.00,-0.0012
1937.00,-0.0011
1936.00,-0.0011
1935.00,-0.0012
1934.00,-0.0012
1933.00,-0.0011
1932.00,-0.0010
1931.00,-0.0009
1930.00,-0.0008
1929.00,-0.0007
1928.00,-0.0006
1927.00,-0.0006
1926.00,-0.0005
1925.00,-0.0004
1924.00,-0.0004
1923.00,-0.0004
1922.00,-0.0004
1921.00,-0.0003
1920.00,-0.0002
1919.00,-0.0001
1918.00,-0.0002
1917.00,-0.0003
1916.00,-0.0004
1915.00,-0.0004
1914.00,-0.0004
1913.00,-0.0004
1912.00,-0.0004
1911.00,-0.0004
1910.00,-0.0004
1909.00,-0.0004
1908.00,-0.0004
1907.00,-0.0003
1906.00,-0.0003
1905.00,-0.0003
1904.00,-0.0003
1903.00,-0.0003
1902.00,-0.0002
1901.00,-0.0002
1900.00,-0.0003
1899.00,-0.0003
1898.00,-0.0004
1897.00,-0.0003
1896.00,-0.0002
1895.00,-0.0001
1894.00,-0.0001
1893.00,-0.0000
1892.00,-0.0001
1891.00,-0.0001
1890.00,-0.0002
1889.00,-0.0003
1888.00,-0.0004
1887.00,-0.0004
1886.00,-0.0004
1885.00,-0.0003
1884.00,-0.0003
1883.00,-0.0003
1882.00,-0.0003
1881.00,-0.0003
1880.00,-0.0003
1879.00,-0.0002
1878.00,-0.0002
1877.00,-0.0002
1876.00,-0.0002
1875.00,-0.0001
1874.00,-0.0001
1873.00,-0.0000
1872.00,-0.0001
1871.00,-0.0002
1870.00,-0.0004
1869.00,-0.0004
1868.00,-0.0003
1867.00,-0.0002
1866.00,-0.0002
1865.00,-0.0001
1864.00,-0.0001
1863.00,-0.0001
1862.00,-0.0001
1861.00,-0.0001
1860.00,-0.0001
1859.00,-0.0001
1858.00,-0.0000
1857.00,-0.0000
1856.00,-0.0000
1855.00,-0.0001
1854.00,-0.0001
1853.00,-0.0000
1852.00,0.0001
1851.00,0.0001
1850.00,0.0000
1849.00,0.0000
1848.00,-0.0000
1847.00,-0.0001
1846.00,-0.0000
1845.00,0.0001
1844.00,0.0001
1843.00,0.0001
1842.00,0.0001
1841.00,0.0001
1840.00,0.0001
1839.00,0.0002
1838.00,0.0002
1837.00,0.0002
1836.00,0.0002
1835.00,0.0002
1834.00,0.0001
1833.00,0.0001
1832.00,0.0002
1831.00,0.0001
1830.00,0.0001
1829.00,0.0001
1828.00,0.0001
1827.00,0.0002
1826.00,0.0002
1825.00,0.0002
1824.00,0.0002
1823.00,0.0002
1822.00,0.0002
1821.00,0.0002
1820.00,0.0001
1819.00,0.0001
1818.00,-0.0000
1817.00,-0.0001
1816.00,-0.0001
1815.00,-0.0000
1814.00,0.0001
1813.00,0.0002
1812.00,0.0003
1811.00,0.0003
1810.00,0.0003
1809.00,0.0003
1808.00,0.0003
1807.00,0.0003
1806.00,0.0003
1805.00,0.0003
1804.00,0.0003
1803.00,0.0004
1802.00,0.0005
1801.00,0.0005
1800.00,0.0005
1799.00,0.0005
1798.00,0.0005
1797.00,0.0005
1796.00,0.0005
1795.00,0.0005
1794.00,0.0005
1793.00,0.0006
1792.00,0.0006
1791.00,0.0005
1790.00,0.0005
1789.00,0.0006
1788.00,0.0006
1787.00,0.0007
1786.00,0.0007
1785.00,0.0008
1784.00,0.0008
1783.00,0.0008
1782.00,0.0008
1781.00,0.0008
1780.00,0.0008
1779.00,0.0008
1778.00,0.0008
1777.00,0.0008
1776.00,0.0008
1775.00,0.0008
1774.00,0.0008
1773.00,0.0009
1772.00,0.0009
1771.00,0.0009
1770.00,0.0009
1769.00,0.0009
1768.00,0.0009
1767.00,0.0010
1766.00,0.0010
1765.00,0.0010
1764.00,0.0010
1763.00,0.0009
1762.00,0.0010
1761.00,0.0010
1760.00,0.0011
1759.00,0.0012
1758.00,0.0012
1757.00,0.0012
1756.00,0.0012
1755.00,0.0012
1754.00,0.0013
1753.00,0.0014
1752.00,0.0015
1751.00,0.0016
1750.00,0.0017
1749.00,0.0017
1748.00,0.0018
1747.00,0.0018
1746.00,0.0019
1745.00,0.0019
1744.00,0.0020
1743.00,0.0021
1742.00,0.0022
1741.00,0.0022
1740.00,0.0022
1739.00,0.0022
1738.00,0.0023
1737.00,0.0023
1736.00,0.0024
1735.00,0.0023
1734.00,0.0023
1733.00,0.0023
1732.00,0.0023
1731.00,0.0023
1730.00,0.0023
1729.00,0.0023
1728.00,0.0023
1727.00,0.0023
1726.00,0.0023
1725.00,0.0023
1724.00,0.0023
1723.00,0.0023
1722.00,0.0023
1721.00,0.0023
1720.00,0.0023
1719.00,0.0023
1718.00,0.0023
1717.00,0.0023
1716.00,0.0023
1715.00,0.0023
1714.00,0.0023
1713.00,0.0023
1712.00,0.0023
1711.00,0.0023
1710.00,0.0024
1709.00,0.0024
1708.00,0.0025
1707.00,0.0026
1706.00,0.0026
1705.00,0.0026
1704.00,0.0027
1703.00,0.0029
1702.00,0.0029
1701.00,0.0030
1700.00,0.0030
1699.00,0.0030
1698.00,0.0030
1697.00,0.0030
1696.00,0.0031
1695.00,0.0033
1694.00,0.0035
1693.00,0.0036
1692.00,0.0038
1691.00,0.0040
1690.00,0.0041
1689.00,0.0042
1688.00,0.0044
1687.00,0.0045
1686.00,0.0046
1685.00,0.0048
1684.00,0.0050
1683.00,0.0052
1682.00,0.0053
1681.00,0.0055
1680.00,0.0056
1679.00,0.0058
1678.00,0.0060
1677.00,0.0061
1676.00,0.0063
1675.00,0.0064
1674.00,0.0065
1673.00,0.0067
1672.00,0.0068
1671.00,0.0069
1670.00,0.0069
1669.00,0.0070
1668.00,0.0070
1667.00,0.0071
1666.00,0.0071
1665.00,0.0071
1664.00,0.0072
1663.00,0.0072
1662.00,0.0072
1661.00,0.0073
1660.00,0.0073
1659.00,0.0073
1658.00,0.0073
1657.00,0.0073
1656.00,0.0073
1655.00,0.0072
1654.00,0.0072
1653.00,0.0073
1652.00,0.0074
1651.00,0.0075
1650.00,0.0075
1649.00,0.0075
1648.00,0.0075
1647.00,0.0075
1646.00,0.0075
1645.00,0.0076
1644.00,0.0076
1643.00,0.0075
1642.00,0.0074
1641.00,0.0073
1640.00,0.0072
1639.00,0.0072
1638.00,0.0071
1637.00,0.0071
1636.00,0.0071
1635.00,0.0071
1634.00,0.0070
1633.00,0.0070
1632.00,0.0070
1631.00,0.0069
1630.00,0.0069
1629.00,0.0069
1628.00,0.0068
1627.00,0.0068
1626.00,0.0067
1625.00,0.0066
1624.00,0.0066
1623.00,0.0065
1622.00,0.0065
1621.00,0.0065
1620.00,0.0065
1619.00,0.0065
1618.00,0.0064
1617.00,0.0064
1616.00,0.0063
1615.00,0.0063
1614.00,0.0063
1613.00,0.0063
1612.00,0.0064
1611.00,0.0064
1610.00,0.0064
1609.00,0.0064
1608.00,0.0063
1607.00,0.0063
1606.00,0.0063
1605.00,0.0063
1604.00,0.0063
1603.00,0.0063
1602.00,0.0062
1601.00,0.0062
1600.00,0.0062
1599.00,0.0062
1598.00,0.0062
1597.00,0.0062
1596.00,0.0062
1595.00,0.0062
1594.00,0.0063
1593.00,0.0063
1592.00,0.0063
1591.00,0.0064
1590.00,0.0064
1589.00,0.0065
1588.00,0.0066
1587.00,0.0066
1586.00,0.0068
1585.00,0.0069
1584.00,0.0072
1583.00,0.0074
1582.00,0.0077
1581.00,0.0080
1580.00,0.0083
1579.00,0.0085
1578.00,0.0086
1577.00,0.0086
1576.00,0.0085
1575.00,0.0084
1574.00,0.0082
1573.00,0.0082
1572.00,0.0081
1571.00,0.0079
1570.00,0.0077
1569.00,0.0074
1568.00,0.0073
1567.00,0.0072
1566.00,0.0072
1565.00,0.0072
1564.00,0.0071
1563.00,0.0071
1562.00,0.0071
1561.00,0.0071
1560.00,0.0072
1559.00,0.0072
1558.00,0.0072
1557.00,0.0073
1556.00,0.0074
1555.00,0.0075
1554.00,0.0076
1553.00,0.0077
1552.00,0.0078
1551.00,0.0079
1550.00,0.0080
1549.00,0.0082
1548.00,0.0083
1547.00,0.0085
1546.00,0.0087
1545.00,0.0090
1544.00,0.0093
1543.00,0.0096
1542.00,0.0097
1541.00,0.0098
1540.00,0.0095
1539.00,0.0091
1538.00,0.0087
1537.00,0.0085
1536.00,0.0083
1535.00,0.0080
1534.00,0.0075
1533.00,0.0071
1532.00,0.0068
1531.00,0.0066
1530.00,0.0065
1529.00,0.0064
1528.00,0.0063
1527.00,0.0062
1526.00,0.0061
1525.00,0.0061
1524.00,0.0061
1523.00,0.0060
1522.00,0.0059
1521.00,0.0059
1520.00,0.0059
1519.00,0.0059
1518.00,0.0059
1517.00,0.0059
1516.00,0.0060
1515.00,0.0061
1514.00,0.0061
1513.00,0.0062
1512.00,0.0062
1511.00,0.0063
1510.00,0.0064
1509.00,0.0065
1508.00,0.0066
1507.00,0.0066
1506.00,0.0066
1505.00,0.0068
1504.00,0.0070
1503.00,0.0071
1502.00,0.0073
1501.00,0.0076
1500.00,0.0079
1499.00,0.0082
1498.00,0.0083
1497.00,0.0086
1496.00,0.0089
1495.00,0.0092
1494.00,0.0094
1493.00,0.0098
1492.00,0.0101
1491.00,0.0105
1490.00,0.0108
1489.00,0.0113
1488.00,0.0119
1487.00,0.0124
1486.00,0.0130
1485.00,0.0137
1484.00,0.0145
1483.00,0.0154
1482.00,0.0165
1481.00,0.0177
1480.00,0.0190
1479.00,0.0203
1478.00,0.0218
1477.00,0.0238
1476.00,0.0262
1475.00,0.0288
1474.00,0.0324
1473.00,0.0377
1472.00,0.0442
1471.00,0.0506
1470.00,0.0567
1469.00,0.0633
1468.00,0.0704
1467.00,0.0784
1466.00,0.0877
1465.00,0.0979
1464.00,0.1070
1463.00,0.1136
1462.00,0.1180
1461.00,0.1212
1460.00,0.1235
1459.00,0.1250
1458.00,0.1261
1457.00,0.1270
1456.00,0.1270
1455.00,0.1264
1454.00,0.1253
1453.00,0.1236
1452.00,0.1209
1451.00,0.1169
1450.00,0.1113
1449.00,0.1035
1448.00,0.0936
1447.00,0.0833
1446.00,0.0742
1445.00,0.0666
1444.00,0.0603
1443.00,0.0551
1442.00,0.0513
1441.00,0.0489
1440.00,0.0475
1439.00,0.0471
1438.00,0.0476
1437.00,0.0480
1436.00,0.0472
1435.00,0.0446
1434.00,0.0406
1433.00,0.0358
1432.00,0.0308
1431.00,0.0264
1430.00,0.0231
1429.00,0.0207
1428.00,0.0191
1427.00,0.0182
1426.00,0.0176
1425.00,0.0170
1424.00,0.0164
1423.00,0.0160
1422.00,0.0158
1421.00,0.0156
1420.00,0.0152
1419.00,0.0148
1418.00,0.0145
1417.00,0.0141
1416.00,0.0138
1415.00,0.0136
1414.00,0.0134
1413.00,0.0132
1412.00,0.0130
1411.00,0.0129
1410.00,0.0128
1409.00,0.0126
1408.00,0.0124
1407.00,0.0124
1406.00,0.0125
1405.00,0.0124
1404.00,0.0123
1403.00,0.0124
1402.00,0.0125
1401.00,0.0126
1400.00,0.0127
1399.00,0.0129
1398.00,0.0131
1397.00,0.0132
1396.00,0.0134
1395.00,0.0137
1394.00,0.0143
1393.00,0.0148
1392.00,0.0154
1391.00,0.0163
1390.00,0.0175
1389.00,0.0192
1388.00,0.0216
1387.00,0.0253
1386.00,0.0303
1385.00,0.0366
1384.00,0.0450
1383.00,0.0566
1382.00,0.0721
1381.00,0.0923
1380.00,0.1177
1379.00,0.1475
1378.00,0.1773
1377.00,0.2007
1376.00,0.2108
1375.00,0.2029
1374.00,0.1789
1373.00,0.1482
1372.00,0.1195
1371.00,0.0954
1370.00,0.0761
1369.00,0.0613
1368.00,0.0512
1367.00,0.0449
1366.00,0.0416
1365.00,0.0403
1364.00,0.0405
1363.00,0.0421
1362.00,0.0446
1361.00,0.0472
1360.00,0.0492
1359.00,0.0498
1358.00,0.0486
1357.00,0.0456
1356.00,0.0414
1355.00,0.0367
1354.00,0.0322
1353.00,0.0282
1352.00,0.0251
1351.00,0.0225
1350.00,0.0205
1349.00,0.0189
1348.00,0.0176
1347.00,0.0165
1346.00,0.0156
1345.00,0.0149
1344.00,0.0144
1343.00,0.0139
1342.00,0.0136
1341.00,0.0133
1340.00,0.0130
1339.00,0.0128
1338.00,0.0127
1337.00,0.0127
1336.00,0.0128
1335.00,0.0130
1334.00,0.0134
1333.00,0.0139
1332.00,0.0144
1331.00,0.0147
1330.00,0.0149
1329.00,0.0148
1328.00,0.0144
1327.00,0.0138
1326.00,0.0131
1325.00,0.0124
1324.00,0.0117
1323.00,0.0111
1322.00,0.0107
1321.00,0.0104
1320.00,0.0101
1319.00,0.0099
1318.00,0.0096
1317.00,0.0094
1316.00,0.0092
1315.00,0.0091
1314.00,0.0090
1313.00,0.0090
1312.00,0.0091
1311.00,0.0093
1310.00,0.0096
1309.00,0.0101
1308.00,0.0109
1307.00,0.0119
1306.00,0.0128
1305.00,0.0136
1304.00,0.0139
1303.00,0.0139
1302.00,0.0137
1301.00,0.0135
1300.00,0.0135
1299.00,0.0137
1298.00,0.0139
1297.00,0.0140
1296.00,0.0140
1295.00,0.0138
1294.00,0.0134
1293.00,0.0130
1292.00,0.0124
1291.00,0.0119
1290.00,0.0114
1289.00,0.0109
1288.00,0.0105
1287.00,0.0102
1286.00,0.0099
1285.00,0.0096
1284.00,0.0093
1283.00,0.0091
1282.00,0.0090
1281.00,0.0088
1280.00,0.0087
1279.00,0.0086
1278.00,0.0085
1277.00,0.0084
1276.00,0.0083
1275.00,0.0083
1274.00,0.0083
1273.00,0.0082
1272.00,0.0082
1271.00,0.0082
1270.00,0.0083
1269.00,0.0083
1268.00,0.0084
1267.00,0.0085
1266.00,0.0087
1265.00,0.0088
1264.00,0.0090
1263.00,0.0093
1262.00,0.0096
1261.00,0.0099
1260.00,0.0104
1259.00,0.0110
1258.00,0.0116
1257.00,0.0121
1256.00,0.0123
1255.00,0.0121
1254.00,0.0116
1253.00,0.0110
1252.00,0.0103
1251.00,0.0098
1250.00,0.0095
1249.00,0.0092
1248.00,0.0090
1247.00,0.0089
1246.00,0.0087
1245.00,0.0086
1244.00,0.0084
1243.00,0.0083
1242.00,0.0083
1241.00,0.0082
1240.00,0.0082
1239.00,0.0081
1238.00,0.0081
1237.00,0.0081
1236.00,0.0081
1235.00,0.0081
1234.00,0.0081
1233.00,0.0081
1232.00,0.0081
1231.00,0.0081
1230.00,0.0082
1229.00,0.0084
1228.00,0.0085
1227.00,0.0087
1226.00,0.0089
1225.00,0.0091
1224.00,0.0093
1223.00,0.0097
1222.00,0.0100
1221.00,0.0104
1220.00,0.0106
1219.00,0.0106
1218.00,0.0106
1217.00,0.0105
1216.00,0.0103
1215.00,0.0100
1214.00,0.0098
1213.00,0.0094
1212.00,0.0091
1211.00,0.0089
1210.00,0.0086
1209.00,0.0085
1208.00,0.0083
1207.00,0.0081
1206.00,0.0080
1205.00,0.0079
1204.00,0.0078
1203.00,0.0078
1202.00,0.0078
1201.00,0.0077
1200.00,0.0077
1199.00,0.0077
1198.00,0.0077
1197.00,0.0077
1196.00,0.0077
1195.00,0.0077
1194.00,0.0078
1193.00,0.0078
1192.00,0.0078
1191.00,0.0078
1190.00,0.0077
1189.00,0.0077
1188.00,0.0077
1187.00,0.0078
1186.00,0.0079
1185.00,0.0080
1184.00,0.0082
1183.00,0.0083
1182.00,0.0085
1181.00,0.0086
1180.00,0.0089
1179.00,0.0093
1178.00,0.0098
1177.00,0.0104
1176.00,0.0114
1175.00,0.0127
1174.00,0.0143
1173.00,0.0165
1172.00,0.0190
1171.00,0.0219
1170.00,0.0247
1169.00,0.0270
1168.00,0.0285
1167.00,0.0289
1166.00,0.0285
1165.00,0.0274
1164.00,0.0261
1163.00,0.0247
1162.00,0.0234
1161.00,0.0224
1160.00,0.0216
1159.00,0.0209
1158.00,0.0204
1157.00,0.0201
1156.00,0.0198
1155.00,0.0197
1154.00,0.0196
1153.00,0.0194
1152.00,0.0190
1151.00,0.0183
1150.00,0.0174
1149.00,0.0165
1148.00,0.0155
1147.00,0.0147
1146.00,0.0139
1145.00,0.0132
1144.00,0.0125
1143.00,0.0118
1142.00,0.0112
1141.00,0.0106
1140.00,0.0101
1139.00,0.0097
1138.00,0.0094
1137.00,0.0091
1136.00,0.0090
1135.00,0.0089
1134.00,0.0088
1133.00,0.0087
1132.00,0.0086
1131.00,0.0085
1130.00,0.0085
1129.00,0.0086
1128.00,0.0088
1127.00,0.0090
1126.00,0.0091
1125.00,0.0092
1124.00,0.0091
1123.00,0.0090
1122.00,0.0089
1121.00,0.0090
1120.00,0.0090
1119.00,0.0092
1118.00,0.0093
1117.00,0.0095
1116.00,0.0098
1115.00,0.0100
1114.00,0.0102
1113.00,0.0102
1112.00,0.0103
1111.00,0.0105
1110.00,0.0109
1109.00,0.0115
1108.00,0.0121
1107.00,0.0129
1106.00,0.0137
1105.00,0.0144
1104.00,0.0150
1103.00,0.0154
1102.00,0.0154
1101.00,0.0151
1100.00,0.0145
1099.00,0.0138
1098.00,0.0130
1097.00,0.0123
1096.00,0.0116
1095.00,0.0111
1094.00,0.0107
1093.00,0.0103
1092.00,0.0100
1091.00,0.0098
1090.00,0.0096
1089.00,0.0094
1088.00,0.0093
1087.00,0.0092
1086.00,0.0091
1085.00,0.0090
1084.00,0.0090
1083.00,0.0089
1082.00,0.0088
1081.00,0.0086
1080.00,0.0084
1079.00,0.0083
1078.00,0.0081
1077.00,0.0080
1076.00,0.0080
1075.00,0.0080
1074.00,0.0080
1073.00,0.0080
1072.00,0.0080
1071.00,0.0081
1070.00,0.0082
1069.00,0.0082
1068.00,0.0082
1067.00,0.0082
1066.00,0.0081
1065.00,0.0081
1064.00,0.0081
1063.00,0.0081
1062.00,0.0081
1061.00,0.0081
1060.00,0.0082
1059.00,0.0083
1058.00,0.0085
1057.00,0.0085
1056.00,0.0086
1055.00,0.0085
1054.00,0.0085
1053.00,0.0084
1052.00,0.0084
1051.00,0.0086
1050.00,0.0089
1049.00,0.0093
1048.00,0.0095
1047.00,0.0098
1046.00,0.0099
1045.00,0.0100
1044.00,0.0100
1043.00,0.0099
1042.00,0.0098
1041.00,0.0097
1040.00,0.0096
1039.00,0.0096
1038.00,0.0096
1037.00,0.0096
1036.00,0.0095
1035.00,0.0094
1034.00,0.0093
1033.00,0.0092
1032.00,0.0092
1031.00,0.0091
1030.00,0.0091
1029.00,0.0092
1028.00,0.0092
1027.00,0.0092
1026.00,0.0092
1025.00,0.0091
1024.00,0.0090
1023.00,0.0090
1022.00,0.0090
1021.00,0.0090
1020.00,0.0090
1019.00,0.0089
1018.00,0.0089
1017.00,0.0090
1016.00,0.0091
1015.00,0.0094
1014.00,0.0097
1013.00,0.0101
1012.00,0.0104
1011.00,0.0107
1010.00,0.0109
1009.00,0.0112
1008.00,0.0116
1007.00,0.0121
1006.00,0.0128
1005.00,0.0138
1004.00,0.0152
1003.00,0.0171
1002.00,0.0196
1001.00,0.0225
1000.00,0.0255
999.00,0.0280
998.00,0.0291
997.00,0.0285
996.00,0.0262
995.00,0.0229
994.00,0.0195
993.00,0.0166
992.00,0.0144
991.00,0.0129
990.00,0.0118
989.00,0.0111
988.00,0.0107
987.00,0.0106
986.00,0.0106
985.00,0.0109
984.00,0.0113
983.00,0.0121
982.00,0.0133
981.00,0.0148
980.00,0.0169
979.00,0.0195
978.00,0.0227
977.00,0.0263
976.00,0.0302
975.00,0.0337
974.00,0.0362
973.00,0.0369
972.00,0.0354
971.00,0.0321
970.00,0.0278
969.00,0.0234
968.00,0.0196
967.00,0.0166
966.00,0.0144
965.00,0.0129
964.00,0.0118
963.00,0.0110
962.00,0.0104
961.00,0.0099
960.00,0.0095
959.00,0.0091
958.00,0.0088
957.00,0.0086
956.00,0.0083
955.00,0.0082
954.00,0.0081
953.00,0.0080
952.00,0.0079
951.00,0.0079
950.00,0.0079
949.00,0.0079
948.00,0.0079
947.00,0.0080
946.00,0.0082
945.00,0.0085
944.00,0.0087
943.00,0.0091
942.00,0.0093
941.00,0.0095
940.00,0.0095
939.00,0.0094
938.00,0.0091
937.00,0.0086
936.00,0.0081
935.00,0.0076
934.00,0.0072
933.00,0.0069
932.00,0.0066
931.00,0.0065
930.00,0.0063
929.00,0.0062
928.00,0.0062
927.00,0.0062
926.00,0.0062
925.00,0.0062
924.00,0.0063
923.00,0.0064
922.00,0.0065
921.00,0.0066
920.00,0.0066
919.00,0.0066
918.00,0.0067
917.00,0.0069
916.00,0.0071
915.00,0.0071
914.00,0.0071
913.00,0.0071
912.00,0.0071
911.00,0.0072
910.00,0.0073
909.00,0.0074
908.00,0.0076
907.00,0.0081
906.00,0.0090
905.00,0.0102
904.00,0.0119
903.00,0.0140
902.00,0.0162
901.00,0.0183
900.00,0.0197
899.00,0.0200
898.00,0.0191
897.00,0.0174
896.00,0.0154
895.00,0.0133
894.00,0.0115
893.00,0.0101
892.00,0.0091
891.00,0.0084
890.00,0.0080
889.00,0.0076
888.00,0.0074
887.00,0.0072
886.00,0.0072
885.00,0.0071
884.00,0.0069
883.00,0.0067
882.00,0.0067
881.00,0.0067
880.00,0.0069
879.00,0.0070
878.00,0.0073
877.00,0.0075
876.00,0.0077
875.00,0.0078
874.00,0.0079
873.00,0.0079
872.00,0.0077
871.00,0.0075
870.00,0.0073
869.00,0.0072
868.00,0.0072
867.00,0.0073
866.00,0.0074
865.00,0.0075
864.00,0.0076
863.00,0.0077
862.00,0.0078
861.00,0.0080
860.00,0.0081
859.00,0.0083
858.00,0.0085
857.00,0.0087
856.00,0.0089
855.00,0.0090
854.00,0.0091
853.00,0.0091
852.00,0.0093
851.00,0.0096
850.00,0.0102
849.00,0.0109
848.00,0.0118
847.00,0.0130
846.00,0.0148
845.00,0.0173
844.00,0.0207
843.00,0.0244
842.00,0.0271
841.00,0.0276
840.00,0.0257
839.00,0.0223
838.00,0.0186
837.00,0.0158
836.00,0.0139
835.00,0.0128
834.00,0.0121
833.00,0.0117
832.00,0.0114
831.00,0.0111
830.00,0.0108
829.00,0.0106
828.00,0.0103
827.00,0.0102
826.00,0.0101
825.00,0.0101
824.00,0.0102
823.00,0.0103
822.00,0.0105
821.00,0.0107
820.00,0.0109
819.00,0.0112
818.00,0.0116
817.00,0.0122
816.00,0.0133
815.00,0.0146
814.00,0.0161
813.00,0.0177
812.00,0.0194
811.00,0.0211
810.00,0.0223
809.00,0.0230
808.00,0.0228
807.00,0.0218
806.00,0.0202
805.00,0.0184
804.00,0.0165
803.00,0.0149
802.00,0.0136
801.00,0.0126
800.00,0.0119
799.00,0.0113
798.00,0.0108
797.00,0.0104
796.00,0.0100
795.00,0.0097
794.00,0.0094
793.00,0.0091
792.00,0.0088
791.00,0.0085
790.00,0.0083
789.00,0.0080
788.00,0.0078
787.00,0.0076
786.00,0.0075
785.00,0.0073
784.00,0.0071
783.00,0.0068
782.00,0.0066
781.00,0.0063
780.00,0.0062
779.00,0.0062
778.00,0.0062
777.00,0.0062
776.00,0.0063
775.00,0.0063
774.00,0.0064
773.00,0.0066
772.00,0.0067
771.00,0.0068
770.00,0.0070
769.00,0.0071
768.00,0.0071
767.00,0.0072
766.00,0.0071
765.00,0.0070
764.00,0.0068
763.00,0.0065
762.00,0.0063
761.00,0.0060
760.00,0.0058
759.00,0.0057
758.00,0.0055
757.00,0.0054
756.00,0.0053
755.00,0.0054
754.00,0.0054
753.00,0.0055
752.00,0.0055
751.00,0.0055
750.00,0.0056
749.00,0.0056
748.00,0.0058
747.00,0.0059
746.00,0.0061
745.00,0.0062
744.00,0.0063
743.00,0.0063
742.00,0.0063
741.00,0.0064
740.00,0.0066
739.00,0.0068
738.00,0.0071
737.00,0.0073
736.00,0.0075
735.00,0.0077
734.00,0.0079
733.00,0.0081
732.00,0.0082
731.00,0.0082
730.00,0.0082
729.00,0.0081
728.00,0.0080
727.00,0.0079
726.00,0.0078
725.00,0.0076
724.00,0.0073
723.00,0.0071
722.00,0.0068
721.00,0.0066
720.00,0.0064
719.00,0.0064
718.00,0.0064
717.00,0.0065
716.00,0.0065
715.00,0.0065
714.00,0.0063
713.00,0.0062
712.00,0.0061
711.00,0.0061
710.00,0.0062
709.00,0.0062
708.00,0.0062
707.00,0.0061
706.00,0.0060
705.00,0.0060
704.00,0.0060
703.00,0.0061
702.00,0.0060
701.00,0.0059
700.00,0.0057
699.00,0.0056
698.00,0.0056
697.00,0.0056
696.00,0.0057
695.00,0.0058
694.00,0.0060
693.00,0.0060
692.00,0.0059
691.00,0.0057
690.00,0.0055
689.00,0.0054
688.00,0.0054
687.00,0.0054
686.00,0.0055
685.00,0.0056
684.00,0.0057
683.00,0.0057
682.00,0.0057
681.00,0.0058
680.00,0.0057
679.00,0.0057
678.00,0.0057
677.00,0.0056
676.00,0.0055
675.00,0.0055
674.00,0.0056
673.00,0.0059
672.00,0.0062
671.00,0.0064
670.00,0.0067
669.00,0.0068
668.00,0.0069
667.00,0.0070
666.00,0.0070
665.00,0.0068
664.00,0.0065
663.00,0.0061
662.00,0.0058
661.00,0.0055
660.00,0.0055
659.00,0.0055
658.00,0.0056
657.00,0.0058
656.00,0.0060
655.00,0.0061
654.00,0.0061
653.00,0.0059
652.00,0.0058
651.00,0.0057
650.00,0.0056
649.00,0.0056
648.00,0.0056
647.00,0.0056
646.00,0.0054
645.00,0.0053
644.00,0.0053
643.00,0.0055
642.00,0.0057
641.00,0.0059
640.00,0.0059
639.00,0.0058
638.00,0.0058
637.00,0.0057
636.00,0.0057
635.00,0.0056
634.00,0.0055
633.00,0.0054
632.00,0.0055
631.00,0.0057
630.00,0.0059
629.00,0.0060
628.00,0.0060
627.00,0.0059
626.00,0.0059
625.00,0.0058
624.00,0.0058
623.00,0.0058
622.00,0.0058
621.00,0.0058
620.00,0.0057
619.00,0.0057
618.00,0.0058
617.00,0.0061
616.00,0.0063
615.00,0.0064
614.00,0.0063
613.00,0.0061
612.00,0.0058
611.00,0.0058
610.00,0.0059
609.00,0.0060
608.00,0.0061
607.00,0.0062
606.00,0.0063
605.00,0.0065
604.00,0.0067
603.00,0.0068
602.00,0.0069
601.00,0.0070
600.00,0.0070
599.00,0.0070
598.00,0.0068
597.00,0.0066
596.00,0.0063
595.00,0.0062
594.00,0.0063
593.00,0.0063
592.00,0.0062
591.00,0.0060
590.00,0.0058
589.00,0.0058
588.00,0.0059
587.00,0.0060
586.00,0.0060
585.00,0.0057
584.00,0.0052
583.00,0.0048
582.00,0.0048
581.00,0.0050
580.00,0.0055
579.00,0.0058
578.00,0.0061
577.00,0.0061
576.00,0.0062
575.00,0.0062
574.00,0.0062
573.00,0.0062
572.00,0.0061
571.00,0.0061
570.00,0.0063
569.00,0.0066
568.00,0.0068
567.00,0.0068
566.00,0.0065
565.00,0.0061
564.00,0.0057
563.00,0.0056
562.00,0.0057
561.00,0.0060
560.00,0.0061
559.00,0.0062
558.00,0.0060
557.00,0.0059
556.00,0.0059
555.00,0.0061
554.00,0.0061
553.00,0.0061
552.00,0.0062
551.00,0.0065
550.00,0.0068
549.00,0.0071
548.00,0.0072
547.00,0.0073
546.00,0.0074
545.00,0.0076
544.00,0.0079
543.00,0.0081
542.00,0.0081
541.00,0.0079
540.00,0.0076
539.00,0.0072
538.00,0.0069
537.00,0.0067
536.00,0.0067
535.00,0.0070
534.00,0.0075
533.00,0.0079
532.00,0.0081
531.00,0.0083
530.00,0.0084
529.00,0.0084
528.00,0.0084
527.00,0.0086
526.00,0.0088
525.00,0.0086
524.00,0.0083
523.00,0.0083
522.00,0.0086
521.00,0.0088
520.00,0.0087
519.00,0.0083
518.00,0.0080
517.00,0.0077
516.00,0.0074
515.00,0.0073
514.00,0.0074
513.00,0.0074
512.00,0.0070
511.00,0.0063
510.00,0.0057
509.00,0.0054
508.00,0.0053
507.00,0.0054
506.00,0.0059
505.00,0.0068
504.00,0.0075
503.00,0.0075
502.00,0.0069
501.00,0.0062
500.00,0.0059
499.00,0.0060
498.00,0.0063
497.00,0.0066
496.00,0.0068
495.00,0.0073
494.00,0.0079
493.00,0.0083
492.00,0.0083
491.00,0.0080
490.00,0.0078
489.00,0.0078
488.00,0.0078
487.00,0.0078
486.00,0.0079
485.00,0.0080
484.00,0.0082
483.00,0.0083
482.00,0.0083
481.00,0.0081
480.00,0.0076
479.00,0.0070
478.00,0.0067
477.00,0.0068
476.00,0.0072
475.00,0.0074
474.00,0.0074
473.00,0.0075
472.00,0.0076
471.00,0.0076
470.00,0.0075
469.00,0.0071
468.00,0.0067
467.00,0.0070
466.00,0.0083
465.00,0.0104
464.00,0.0122
463.00,0.0132
462.00,0.0135
461.00,0.0141
460.00,0.0152
459.00,0.0165
458.00,0.0171
457.00,0.0163
456.00,0.0144
455.00,0.0123
454.00,0.0108
453.00,0.0102
452.00,0.0101
451.00,0.0099
450.00,0.0094
