Created as New Dataset,Sample 097 By Administrator Date Wednesday, September 10 2025
cm-1,A
4000.00,0.0009
3999.00,0.0009
3998.00,0.0009
3997.00,0.0009
3996.00,0.0009
3995.00,0.0008
3994.00,0.0008
3993.00,0.0009
3992.00,0.0009
3991.00,0.0009
3990.00,0.0009
3989.00,0.0009
3988.00,0.0010
3987.00,0.0010
3986.00,0.0010
3985.00,0.0009
3984.00,0.0009
3983.00,0.0008
3982.00,0.0008
3981.00,0.0008
3980.00,0.0008
3979.00,0.0008
3978.00,0.0008
3977.00,0.0008
3976.00,0.0008
3975.00,0.0008
3974.00,0.0008
3973.00,0.0008
3972.00,0.0007
3971.00,0.0007
3970.00,0.0007
3969.00,0.0007
3968.00,0.0007
3967.00,0.0007
3966.00,0.0007
3965.00,0.0007
3964.00,0.0007
3963.00,0.0007
3962.00,0.0007
3961.00,0.0007
3960.00,0.0007
3959.00,0.0007
3958.00,0.0006
3957.00,0.0006
3956.00,0.0006
3955.00,0.0006
3954.00,0.0006
3953.00,0.0007
3952.00,0.0007
3951.00,0.0007
3950.00,0.0007
3949.00,0.0007
3948.00,0.0007
3947.00,0.0006
3946.00,0.0006
3945.00,0.0006
3944.00,0.0006
3943.00,0.0006
3942.00,0.0006
3941.00,0.0006
3940.00,0.0006
3939.00,0.0006
3938.00,0.0006
3937.00,0.0007
3936.00,0.0007
3935.00,0.0007
3934.00,0.0007
3933.00,0.0008
3932.00,0.0008
3931.00,0.0007
3930.00,0.0007
3929.00,0.0007
3928.00,0.0007
3927.00,0.0007
3926.00,0.0007
3925.00,0.0007
3924.00,0.0008
3923.00,0.0008
3922.00,0.0008
3921.00,0.0007
3920.00,0.0007
3919.00,0.0007
3918.00,0.0007
3917.00,0.0007
3916.00,0.0007
3915.00,0.0007
3914.00,0.0007
3913.00,0.0007
3912.00,0.0008
3911.00,0.0008
3910.00,0.0007
3909.00,0.0007
3908.00,0.0007
3907.00,0.0006
3906.00,0.0006
3905.00,0.0005
3904.00,0.0006
3903.00,0.0006
3902.00,0.0007
3901.00,0.0007
3900.00,0.0007
3899.00,0.0007
3898.00,0.0007
3897.00,0.0007
3896.00,0.0007
3895.00,0.0007
3894.00,0.0007
3893.00,0.0007
3892.00,0.0007
3891.00,0.0007
3890.00,0.0007
3889.00,0.0006
3888.00,0.0006
3887.00,0.0006
3886.00,0.0006
3885.00,0.0006
3884.00,0.0007
3883.00,0.0007
3882.00,0.0007
3881.00,0.0007
3880.00,0.0007
3879.00,0.0007
3878.00,0.0007
3877.00,0.0007
3876.00,0.0006
3875.00,0.0006
3874.00,0.0006
3873.00,0.0006
3872.00,0.0005
3871.00,0.0006
3870.00,0.0006
3869.00,0.0006
3868.00,0.0006
3867.00,0.0006
3866.00,0.0005
3865.00,0.0005
3864.00,0.0005
3863.00,0.0005
3862.00,0.0005
3861.00,0.0006
3860.00,0.0006
3859.00,0.0006
3858.00,0.0006
3857.00,0.0006
3856.00,0.0006
3855.00,0.0006
3854.00,0.0006
3853.00,0.0006
3852.00,0.0006
3851.00,0.0005
3850.00,0.0005
3849.00,0.0005
3848.00,0.0005
3847.00,0.0005
3846.00,0.0005
3845.00,0.0004
3844.00,0.0004
3843.00,0.0005
3842.00,0.0005
3841.00,0.0005
3840.00,0.0005
3839.00,0.0005
3838.00,0.0004
3837.00,0.0005
3836.00,0.0005
3835.00,0.0005
3834.00,0.0005
3833.00,0.0005
3832.00,0.0006
3831.00,0.0006
3830.00,0.0006
3829.00,0.0005
3828.00,0.0005
3827.00,0.0005
3826.00,0.0005
3825.00,0.0006
3824.00,0.0006
3823.00,0.0006
3822.00,0.0005
3821.00,0.0005
3820.00,0.0005
3819.00,0.0006
3818.00,0.0006
3817.00,0.0006
3816.00,0.0006
3815.00,0.0006
3814.00,0.0007
3813.00,0.0007
3812.00,0.0007
3811.00,0.0007
3810.00,0.0006
3809.00,0.0006
3808.00,0.0006
3807.00,0.0006
3806.00,0.0006
3805.00,0.0005
3804.00,0.0005
3803.00,0.0005
3802.00,0.0006
3801.00,0.0006
3800.00,0.0006
3799.00,0.0006
3798.00,0.0006
3797.00,0.0006
3796.00,0.0006
3795.00,0.0006
3794.00,0.0006
3793.00,0.0006
3792.00,0.0006
3791.00,0.0006
3790.00,0.0006
3789.00,0.0006
3788.00,0.0007
3787.00,0.0007
3786.00,0.0007
3785.00,0.0007
3784.00,0.0006
3783.00,0.0006
3782.00,0.0006
3781.00,0.0006
3780.00,0.0006
3779.00,0.0007
3778.00,0.0007
3777.00,0.0007
3776.00,0.0007
3775.00,0.0007
3774.00,0.0007
3773.00,0.0007
3772.00,0.0007
3771.00,0.0007
3770.00,0.0007
3769.00,0.0007
3768.00,0.0007
3767.00,0.0007
3766.00,0.0007
3765.00,0.0007
3764.00,0.0007
3763.00,0.0007
3762.00,0.0007
3761.00,0.0007
3760.00,0.0007
3759.00,0.0008
3758.00,0.0008
3757.00,0.0008
3756.00,0.0008
3755.00,0.0008
3754.00,0.0007
3753.00,0.0007
3752.00,0.0007
3751.00,0.0007
3750.00,0.0008
3749.00,0.0007
3748.00,0.0007
3747.00,0.0006
3746.00,0.0005
3745.00,0.0005
3744.00,0.0005
3743.00,0.0005
3742.00,0.0005
3741.00,0.0006
3740.00,0.0006
3739.00,0.0006
3738.00,0.0006
3737.00,0.0005
3736.00,0.0005
3735.00,0.0004
3734.00,0.0004
3733.00,0.0004
3732.00,0.0004
3731.00,0.0005
3730.00,0.0005
3729.00,0.0005
3728.00,0.0005
3727.00,0.0005
3726.00,0.0005
3725.00,0.0005
3724.00,0.0005
3723.00,0.0005
3722.00,0.0005
3721.00,0.0006
3720.00,0.0006
3719.00,0.0006
3718.00,0.0006
3717.00,0.0006
3716.00,0.0006
3715.00,0.0005
3714.00,0.0005
3713.00,0.0005
3712.00,0.0004
3711.00,0.0004
3710.00,0.0004
3709.00,0.0004
3708.00,0.0004
3707.00,0.0004
3706.00,0.0004
3705.00,0.0004
3704.00,0.0004
3703.00,0.0005
3702.00,0.0005
3701.00,0.0005
3700.00,0.0006
3699.00,0.0006
3698.00,0.0006
3697.00,0.0006
3696.00,0.0006
3695.00,0.0006
3694.00,0.0006
3693.00,0.0005
3692.00,0.0005
3691.00,0.0006
3690.00,0.0006
3689.00,0.0006
3688.00,0.0007
3687.00,0.0007
3686.00,0.0006
3685.00,0.0006
3684.00,0.0006
3683.00,0.0006
3682.00,0.0006
3681.00,0.0006
3680.00,0.0007
3679.00,0.0007
3678.00,0.0007
3677.00,0.0007
3676.00,0.0007
3675.00,0.0007
3674.00,0.0007
3673.00,0.0006
3672.00,0.0006
3671.00,0.0006
3670.00,0.0007
3669.00,0.0007
3668.00,0.0007
3667.00,0.0007
3666.00,0.0007
3665.00,0.0007
3664.00,0.0007
3663.00,0.0007
3662.00,0.0007
3661.00,0.0007
3660.00,0.0007
3659.00,0.0007
3658.00,0.0007
3657.00,0.0006
3656.00,0.0006
3655.00,0.0006
3654.00,0.0006
3653.00,0.0006
3652.00,0.0006
3651.00,0.0007
3650.00,0.0007
3649.00,0.0008
3648.00,0.0008
3647.00,0.0007
3646.00,0.0007
3645.00,0.0008
3644.00,0.0008
3643.00,0.0009
3642.00,0.0009
3641.00,0.0009
3640.00,0.0009
3639.00,0.0008
3638.00,0.0008
3637.00,0.0008
3636.00,0.0007
3635.00,0.0007
3634.00,0.0007
3633.00,0.0007
3632.00,0.0007
3631.00,0.0007
3630.00,0.0007
3629.00,0.0007
3628.00,0.0007
3627.00,0.0007
3626.00,0.0007
3625.00,0.0007
3624.00,0.0008
3623.00,0.0008
3622.00,0.0008
3621.00,0.0008
3620.00,0.0008
3619.00,0.0008
3618.00,0.0008
3617.00,0.0009
3616.00,0.0009
3615.00,0.0009
3614.00,0.0009
3613.00,0.0010
3612.00,0.0010
3611.00,0.0011
3610.00,0.0011
3609.00,0.0011
3608.00,0.0011
3607.00,0.0010
3606.00,0.0010
3605.00,0.0010
3604.00,0.0010
3603.00,0.0010
3602.00,0.0011
3601.00,0.0011
3600.00,0.0011
3599.00,0.0011
3598.00,0.0012
3597.00,0.0012
3596.00,0.0012
3595.00,0.0013
3594.00,0.0013
3593.00,0.0013
3592.00,0.0013
3591.00,0.0013
3590.00,0.0014
3589.00,0.0014
3588.00,0.0014
3587.00,0.0014
3586.00,0.0015
3585.00,0.0015
3584.00,0.0015
3583.00,0.0015
3582.00,0.0015
3581.00,0.0015
3580.00,0.0015
3579.00,0.0016
3578.00,0.0016
3577.00,0.0017
3576.00,0.0017
3575.00,0.0017
3574.00,0.0018
3573.00,0.0018
3572.00,0.0017
3571.00,0.0017
3570.00,0.0016
3569.00,0.0016
3568.00,0.0016
3567.00,0.0017
3566.00,0.0018
3565.00,0.0019
3564.00,0.0020
3563.00,0.0020
3562.00,0.0020
3561.00,0.0021
3560.00,0.0021
3559.00,0.0021
3558.00,0.0022
3557.00,0.0022
3556.00,0.0022
3555.00,0.0022
3554.00,0.0022
3553.00,0.0022
3552.00,0.0022
3551.00,0.0022
3550.00,0.0023
3549.00,0.0023
3548.00,0.0024
3547.00,0.0024
3546.00,0.0025
3545.00,0.0025
3544.00,0.0026
3543.00,0.0026
3542.00,0.0026
3541.00,0.0026
3540.00,0.0027
3539.00,0.0027
3538.00,0.0027
3537.00,0.0027
3536.00,0.0028
3535.00,0.0028
3534.00,0.0029
3533.00,0.0029
3532.00,0.0028
3531.00,0.0028
3530.00,0.0028
3529.00,0.0029
3528.00,0.0029
3527.00,0.0030
3526.00,0.0031
3525.00,0.0031
3524.00,0.0032
3523.00,0.0032
3522.00,0.0032
3521.00,0.0032
3520.00,0.0032
3519.00,0.0033
3518.00,0.0033
3517.00,0.0034
3516.00,0.0034
3515.00,0.0034
3514.00,0.0034
3513.00,0.0035
3512.00,0.0035
3511.00,0.0036
3510.00,0.0036
3509.00,0.0037
3508.00,0.0037
3507.00,0.0037
3506.00,0.0037
3505.00,0.0038
3504.00,0.0038
3503.00,0.0038
3502.00,0.0038
3501.00,0.0039
3500.00,0.0039
3499.00,0.0040
3498.00,0.0040
3497.00,0.0041
3496.00,0.0041
3495.00,0.0041
3494.00,0.0041
3493.00,0.0041
3492.00,0.0041
3491.00,0.0041
3490.00,0.0042
3489.00,0.0042
3488.00,0.0043
3487.00,0.0044
3486.00,0.0044
3485.00,0.0044
3484.00,0.0044
3483.00,0.0044
3482.00,0.0044
3481.00,0.0044
3480.00,0.0044
3479.00,0.0045
3478.00,0.0045
3477.00,0.0046
3476.00,0.0046
3475.00,0.0047
3474.00,0.0047
3473.00,0.0047
3472.00,0.0047
3471.00,0.0047
3470.00,0.0047
3469.00,0.0047
3468.00,0.0048
3467.00,0.0048
3466.00,0.0049
3465.00,0.0049
3464.00,0.0049
3463.00,0.0050
3462.00,0.0050
3461.00,0.0051
3460.00,0.0051
3459.00,0.0051
3458.00,0.0051
3457.00,0.0051
3456.00,0.0051
3455.00,0.0051
3454.00,0.0052
3453.00,0.0052
3452.00,0.0052
3451.00,0.0052
3450.00,0.0053
3449.00,0.0053
3448.00,0.0054
3447.00,0.0054
3446.00,0.0054
3445.00,0.0055
3444.00,0.0055
3443.00,0.0055
3442.00,0.0055
3441.00,0.0055
3440.00,0.0055
3439.00,0.0055
3438.00,0.0055
3437.00,0.0056
3436.00,0.0056
3435.00,0.0056
3434.00,0.0057
3433.00,0.0057
3432.00,0.0058
3431.00,0.0058
3430.00,0.0058
3429.00,0.0058
3428.00,0.0058
3427.00,0.0058
3426.00,0.0058
3425.00,0.0058
3424.00,0.0058
3423.00,0.0058
3422.00,0.0058
3421.00,0.0058
3420.00,0.0058
3419.00,0.0059
3418.00,0.0059
3417.00,0.0060
3416.00,0.0060
3415.00,0.0060
3414.00,0.0061
3413.00,0.0061
3412.00,0.0061
3411.00,0.0061
3410.00,0.0061
3409.00,0.0061
3408.00,0.0061
3407.00,0.0061
3406.00,0.0061
3405.00,0.0062
3404.00,0.0062
3403.00,0.0062
3402.00,0.0062
3401.00,0.0063
3400.00,0.0063
3399.00,0.0063
3398.00,0.0063
3397.00,0.0063
3396.00,0.0064
3395.00,0.0064
3394.00,0.0064
3393.00,0.0063
3392.00,0.0063
3391.00,0.0063
3390.00,0.0063
3389.00,0.0063
3388.00,0.0063
3387.00,0.0063
3386.00,0.0063
3385.00,0.0063
3384.00,0.0063
3383.00,0.0063
3382.00,0.0063
3381.00,0.0063
3380.00,0.0063
3379.00,0.0063
3378.00,0.0062
3377.00,0.0062
3376.00,0.0062
3375.00,0.0062
3374.00,0.0062
3373.00,0.0063
3372.00,0.0063
3371.00,0.0063
3370.00,0.0063
3369.00,0.0062
3368.00,0.0062
3367.00,0.0062
3366.00,0.0062
3365.00,0.0062
3364.00,0.0063
3363.00,0.0063
3362.00,0.0063
3361.00,0.0063
3360.00,0.0063
3359.00,0.0063
3358.00,0.0062
3357.00,0.0062
3356.00,0.0062
3355.00,0.0062
3354.00,0.0062
3353.00,0.0062
3352.00,0.0062
3351.00,0.0062
3350.00,0.0062
3349.00,0.0062
3348.00,0.0061
3347.00,0.0061
3346.00,0.0061
3345.00,0.0061
3344.00,0.0061
3343.00,0.0061
3342.00,0.0061
3341.00,0.0061
3340.00,0.0061
3339.00,0.0061
3338.00,0.0061
3337.00,0.0060
3336.00,0.0060
3335.00,0.0060
3334.00,0.0060
3333.00,0.0059
3332.00,0.0059
3331.00,0.0059
3330.00,0.0058
3329.00,0.0058
3328.00,0.0058
3327.00,0.0058
3326.00,0.0058
3325.00,0.0058
3324.00,0.0058
3323.00,0.0058
3322.00,0.0057
3321.00,0.0057
3320.00,0.0056
3319.00,0.0056
3318.00,0.0056
3317.00,0.0056
3316.00,0.0056
3315.00,0.0056
3314.00,0.0056
3313.00,0.0056
3312.00,0.0056
3311.00,0.0056
3310.00,0.0056
3309.00,0.0056
3308.00,0.0055
3307.00,0.0055
3306.00,0.0054
3305.00,0.0054
3304.00,0.0055
3303.00,0.0055
3302.00,0.0056
3301.00,0.0056
3300.00,0.0055
3299.00,0.0055
3298.00,0.0055
3297.00,0.0054
3296.00,0.0054
3295.00,0.0054
3294.00,0.0054
3293.00,0.0054
3292.00,0.0054
3291.00,0.0053
3290.00,0.0053
3289.00,0.0053
3288.00,0.0053
3287.00,0.0053
3286.00,0.0053
3285.00,0.0052
3284.00,0.0052
3283.00,0.0051
3282.00,0.0051
3281.00,0.0051
3280.00,0.0052
3279.00,0.0052
3278.00,0.0052
3277.00,0.0052
3276.00,0.0051
3275.00,0.0051
3274.00,0.0050
3273.00,0.0050
3272.00,0.0050
3271.00,0.0050
3270.00,0.0050
3269.00,0.0050
3268.00,0.0050
3267.00,0.0050
3266.00,0.0050
3265.00,0.0050
3264.00,0.0050
3263.00,0.0050
3262.00,0.0049
3261.00,0.0049
3260.00,0.0048
3259.00,0.0048
3258.00,0.0048
3257.00,0.0048
3256.00,0.0048
3255.00,0.0048
3254.00,0.0048
3253.00,0.0048
3252.00,0.0048
3251.00,0.0047
3250.00,0.0046
3249.00,0.0046
3248.00,0.0045
3247.00,0.0045
3246.00,0.0046
3245.00,0.0046
3244.00,0.0046
3243.00,0.0046
3242.00,0.0045
3241.00,0.0045
3240.00,0.0045
3239.00,0.0045
3238.00,0.0045
3237.00,0.0045
3236.00,0.0045
3235.00,0.0046
3234.00,0.0046
3233.00,0.0046
3232.00,0.0046
3231.00,0.0046
3230.00,0.0046
3229.00,0.0046
3228.00,0.0046
3227.00,0.0046
3226.00,0.0046
3225.00,0.0046
3224.00,0.0047
3223.00,0.0047
3222.00,0.0047
3221.00,0.0047
3220.00,0.0047
3219.00,0.0047
3218.00,0.0047
3217.00,0.0047
3216.00,0.0047
3215.00,0.0047
3214.00,0.0048
3213.00,0.0048
3212.00,0.0049
3211.00,0.0049
3210.00,0.0049
3209.00,0.0048
3208.00,0.0048
3207.00,0.0048
3206.00,0.0048
3205.00,0.0048
3204.00,0.0048
3203.00,0.0049
3202.00,0.0049
3201.00,0.0048
3200.00,0.0048
3199.00,0.0048
3198.00,0.0048
3197.00,0.0048
3196.00,0.0048
3195.00,0.0048
3194.00,0.0048
3193.00,0.0047
3192.00,0.0047
3191.00,0.0047
3190.00,0.0047
3189.00,0.0048
3188.00,0.0048
3187.00,0.0047
3186.00,0.0047
3185.00,0.0046
3184.00,0.0046
3183.00,0.0045
3182.00,0.0045
3181.00,0.0045
3180.00,0.0045
3179.00,0.0044
3178.00,0.0044
3177.00,0.0043
3176.00,0.0043
3175.00,0.0042
3174.00,0.0042
3173.00,0.0042
3172.00,0.0042
3171.00,0.0041
3170.00,0.0041
3169.00,0.0041
3168.00,0.0041
3167.00,0.0041
3166.00,0.0041
3165.00,0.0041
3164.00,0.0041
3163.00,0.0041
3162.00,0.0040
3161.00,0.0040
3160.00,0.0040
3159.00,0.0040
3158.00,0.0040
3157.00,0.0039
3156.00,0.0039
3155.00,0.0039
3154.00,0.0039
3153.00,0.0040
3152.00,0.0040
3151.00,0.0040
3150.00,0.0040
3149.00,0.0040
3148.00,0.0039
3147.00,0.0039
3146.00,0.0039
3145.00,0.0039
3144.00,0.0039
3143.00,0.0039
3142.00,0.0039
3141.00,0.0038
3140.00,0.0038
3139.00,0.0038
3138.00,0.0038
3137.00,0.0038
3136.00,0.0038
3135.00,0.0038
3134.00,0.0038
3133.00,0.0037
3132.00,0.0037
3131.00,0.0036
3130.00,0.0036
3129.00,0.0036
3128.00,0.0036
3127.00,0.0035
3126.00,0.0035
3125.00,0.0035
3124.00,0.0034
3123.00,0.0034
3122.00,0.0033
3121.00,0.0033
3120.00,0.0033
3119.00,0.0033
3118.00,0.0033
3117.00,0.0033
3116.00,0.0032
3115.00,0.0032
3114.00,0.0032
3113.00,0.0032
3112.00,0.0032
3111.00,0.0032
3110.00,0.0032
3109.00,0.0032
3108.00,0.0032
3107.00,0.0032
3106.00,0.0031
3105.00,0.0031
3104.00,0.0031
3103.00,0.0031
3102.00,0.0031
3101.00,0.0030
3100.00,0.0030
3099.00,0.0030
3098.00,0.0030
3097.00,0.0030
3096.00,0.0030
3095.00,0.0030
3094.00,0.0030
3093.00,0.0030
3092.00,0.0030
3091.00,0.0030
3090.00,0.0030
3089.00,0.0030
3088.00,0.0030
3087.00,0.0030
3086.00,0.0030
3085.00,0.0029
3084.00,0.0029
3083.00,0.0029
3082.00,0.0029
3081.00,0.0029
3080.00,0.0029
3079.00,0.0029
3078.00,0.0029
3077.00,0.0029
3076.00,0.0029
3075.00,0.0029
3074.00,0.0029
3073.00,0.0030
3072.00,0.0030
3071.00,0.0030
3070.00,0.0031
3069.00,0.0031
3068.00,0.0031
3067.00,0.0031
3066.00,0.0031
3065.00,0.0031
3064.00,0.0031
3063.00,0.0031
3062.00,0.0031
3061.00,0.0031
3060.00,0.0031
3059.00,0.0031
3058.00,0.0032
3057.00,0.0032
3056.00,0.0032
3055.00,0.0032
3054.00,0.0033
3053.00,0.0033
3052.00,0.0034
3051.00,0.0034
3050.00,0.0034
3049.00,0.0034
3048.00,0.0034
3047.00,0.0033
3046.00,0.0034
3045.00,0.0034
3044.00,0.0034
3043.00,0.0035
3042.00,0.0035
3041.00,0.0036
3040.00,0.0036
3039.00,0.0036
3038.00,0.0036
3037.00,0.0037
3036.00,0.0037
3035.00,0.0037
3034.00,0.0038
3033.00,0.0038
3032.00,0.0039
3031.00,0.0039
3030.00,0.0040
3029.00,0.0040
3028.00,0.0041
3027.00,0.0041
3026.00,0.0042
3025.00,0.0042
3024.00,0.0042
3023.00,0.0043
3022.00,0.0043
3021.00,0.0044
3020.00,0.0045
3019.00,0.0046
3018.00,0.0047
3017.00,0.0048
3016.00,0.0049
3015.00,0.0050
3014.00,0.0051
3013.00,0.0052
3012.00,0.0054
3011.00,0.0055
3010.00,0.0056
3009.00,0.0058
3008.00,0.0060
3007.00,0.0061
3006.00,0.0063
3005.00,0.0065
3004.00,0.0067
3003.00,0.0070
3002.00,0.0072
3001.00,0.0075
3000.00,0.0078
2999.00,0.0080
2998.00,0.0084
2997.00,0.0087
2996.00,0.0091
2995.00,0.0095
2994.00,0.0100
2993.00,0.0105
2992.00,0.0110
2991.00,0.0116
2990.00,0.0122
2989.00,0.0129
2988.00,0.0137
2987.00,0.0146
2986.00,0.0155
2985.00,0.0166
2984.00,0.0179
2983.00,0.0192
2982.00,0.0208
2981.00,0.0224
2980.00,0.0243
2979.00,0.0263
2978.00,0.0287
2977.00,0.0314
2976.00,0.0345
2975.00,0.0380
2974.00,0.0420
2973.00,0.0465
2972.00,0.0515
2971.00,0.0572
2970.00,0.0634
2969.00,0.0701
2968.00,0.0773
2967.00,0.0849
2966.00,0.0927
2965.00,0.1005
2964.00,0.1078
2963.00,0.1145
2962.00,0.1204
2961.00,0.1253
2960.00,0.1295
2959.00,0.1336
2958.00,0.1379
2957.00,0.1431
2956.00,0.1496
2955.00,0.1574
2954.00,0.1664
2953.00,0.1761
2952.00,0.1854
2951.00,0.1931
2950.00,0.1981
2949.00,0.1991
2948.00,0.1955
2947.00,0.1874
2946.00,0.1757
2945.00,0.1620
2944.00,0.1480
2943.00,0.1353
2942.00,0.1249
2941.00,0.1172
2940.00,0.1123
2939.00,0.1099
2938.00,0.1099
2937.00,0.1120
2936.00,0.1159
2935.00,0.1216
2934.00,0.1288
2933.00,0.1374
2932.00,0.1473
2931.00,0.1582
2930.00,0.1699
2929.00,0.1820
2928.00,0.1942
2927.00,0.2062
2926.00,0.2178
2925.00,0.2290
2924.00,0.2399
2923.00,0.2506
2922.00,0.2613
2921.00,0.2716
2920.00,0.2810
2919.00,0.2885
2918.00,0.2930
2917.00,0.2935
2916.00,0.2896
2915.00,0.2819
2914.00,0.2713
2913.00,0.2592
2912.00,0.2466
2911.00,0.2344
2910.00,0.2232
2909.00,0.2128
2908.00,0.2032
2907.00,0.1941
2906.00,0.1855
2905.00,0.1771
2904.00,0.1690
2903.00,0.1611
2902.00,0.1535
2901.00,0.1462
2900.00,0.1393
2899.00,0.1328
2898.00,0.1269
2897.00,0.1217
2896.00,0.1171
2895.00,0.1133
2894.00,0.1101
2893.00,0.1077
2892.00,0.1060
2891.00,0.1050
2890.00,0.1046
2889.00,0.1048
2888.00,0.1053
2887.00,0.1062
2886.00,0.1075
2885.00,0.1092
2884.00,0.1114
2883.00,0.1141
2882.00,0.1174
2881.00,0.1211
2880.00,0.1248
2879.00,0.1281
2878.00,0.1304
2877.00,0.1315
2876.00,0.1315
2875.00,0.1307
2874.00,0.1298
2873.00,0.1294
2872.00,0.1298
2871.00,0.1313
2870.00,0.1335
2869.00,0.1359
2868.00,0.1379
2867.00,0.1382
2866.00,0.1361
2865.00,0.1309
2864.00,0.1230
2863.00,0.1132
2862.00,0.1026
2861.00,0.0926
2860.00,0.0838
2859.00,0.0766
2858.00,0.0711
2857.00,0.0671
2856.00,0.0643
2855.00,0.0625
2854.00,0.0615
2853.00,0.0613
2852.00,0.0617
2851.00,0.0627
2850.00,0.0643
2849.00,0.0666
2848.00,0.0696
2847.00,0.0734
2846.00,0.0782
2845.00,0.0838
2844.00,0.0902
2843.00,0.0972
2842.00,0.1045
2841.00,0.1115
2840.00,0.1174
2839.00,0.1213
2838.00,0.1224
2837.00,0.1201
2836.00,0.1143
2835.00,0.1057
2834.00,0.0952
2833.00,0.0840
2832.00,0.0733
2831.00,0.0638
2830.00,0.0558
2829.00,0.0492
2828.00,0.0438
2827.00,0.0395
2826.00,0.0360
2825.00,0.0331
2824.00,0.0308
2823.00,0.0288
2822.00,0.0271
2821.00,0.0257
2820.00,0.0244
2819.00,0.0233
2818.00,0.0224
2817.00,0.0215
2816.00,0.0208
2815.00,0.0201
2814.00,0.0195
2813.00,0.0189
2812.00,0.0184
2811.00,0.0178
2810.00,0.0173
2809.00,0.0167
2808.00,0.0161
2807.00,0.0154
2806.00,0.0147
2805.00,0.0141
2804.00,0.0134
2803.00,0.0128
2802.00,0.0122
2801.00,0.0118
2800.00,0.0114
2799.00,0.0110
2798.00,0.0107
2797.00,0.0105
2796.00,0.0102
2795.00,0.0100
2794.00,0.0097
2793.00,0.0095
2792.00,0.0092
2791.00,0.0089
2790.00,0.0086
2789.00,0.0083
2788.00,0.0080
2787.00,0.0078
2786.00,0.0075
2785.00,0.0073
2784.00,0.0071
2783.00,0.0070
2782.00,0.0068
2781.00,0.0066
2780.00,0.0065
2779.00,0.0063
2778.00,0.0062
2777.00,0.0060
2776.00,0.0059
2775.00,0.0058
2774.00,0.0057
2773.00,0.0056
2772.00,0.0056
2771.00,0.0055
2770.00,0.0055
2769.00,0.0055
2768.00,0.0055
2767.00,0.0055
2766.00,0.0055
2765.00,0.0054
2764.00,0.0053
2763.00,0.0053
2762.00,0.0053
2761.00,0.0053
2760.00,0.0053
2759.00,0.0052
2758.00,0.0052
2757.00,0.0052
2756.00,0.0052
2755.00,0.0052
2754.00,0.0052
2753.00,0.0051
2752.00,0.0051
2751.00,0.0050
2750.00,0.0050
2749.00,0.0050
2748.00,0.0050
2747.00,0.0050
2746.00,0.0051
2745.00,0.0052
2744.00,0.0053
2743.00,0.0054
2742.00,0.0055
2741.00,0.0056
2740.00,0.0057
2739.00,0.0059
2738.00,0.0061
2737.00,0.0062
2736.00,0.0064
2735.00,0.0065
2734.00,0.0066
2733.00,0.0068
2732.00,0.0070
2731.00,0.0072
2730.00,0.0075
2729.00,0.0078
2728.00,0.0080
2727.00,0.0084
2726.00,0.0087
2725.00,0.0089
2724.00,0.0091
2723.00,0.0091
2722.00,0.0090
2721.00,0.0088
2720.00,0.0085
2719.00,0.0082
2718.00,0.0078
2717.00,0.0075
2716.00,0.0072
2715.00,0.0069
2714.00,0.0066
2713.00,0.0063
2712.00,0.0060
2711.00,0.0058
2710.00,0.0056
2709.00,0.0055
2708.00,0.0053
2707.00,0.0052
2706.00,0.0051
2705.00,0.0050
2704.00,0.0049
2703.00,0.0047
2702.00,0.0047
2701.00,0.0046
2700.00,0.0045
2699.00,0.0044
2698.00,0.0044
2697.00,0.0043
2696.00,0.0043
2695.00,0.0043
2694.00,0.0044
2693.00,0.0044
2692.00,0.0043
2691.00,0.0043
2690.00,0.0042
2689.00,0.0042
2688.00,0.0042
2687.00,0.0042
2686.00,0.0042
2685.00,0.0042
2684.00,0.0043
2683.00,0.0043
2682.00,0.0044
2681.00,0.0044
2680.00,0.0045
2679.00,0.0045
2678.00,0.0045
2677.00,0.0044
2676.00,0.0044
2675.00,0.0044
2674.00,0.0043
2673.00,0.0043
2672.00,0.0044
2671.00,0.0044
2670.00,0.0044
2669.00,0.0043
2668.00,0.0043
2667.00,0.0043
2666.00,0.0044
2665.00,0.0044
2664.00,0.0045
2663.00,0.0045
2662.00,0.0046
2661.00,0.0046
2660.00,0.0046
2659.00,0.0046
2658.00,0.0046
2657.00,0.0046
2656.00,0.0046
2655.00,0.0045
2654.00,0.0044
2653.00,0.0043
2652.00,0.0043
2651.00,0.0042
2650.00,0.0041
2649.00,0.0041
2648.00,0.0041
2647.00,0.0041
2646.00,0.0041
2645.00,0.0040
2644.00,0.0040
2643.00,0.0040
2642.00,0.0039
2641.00,0.0038
2640.00,0.0037
2639.00,0.0037
2638.00,0.0036
2637.00,0.0036
2636.00,0.0036
2635.00,0.0036
2634.00,0.0036
2633.00,0.0036
2632.00,0.0036
2631.00,0.0037
2630.00,0.0037
2629.00,0.0037
2628.00,0.0037
2627.00,0.0038
2626.00,0.0038
2625.00,0.0038
2624.00,0.0038
2623.00,0.0039
2622.00,0.0039
2621.00,0.0040
2620.00,0.0040
2619.00,0.0040
2618.00,0.0040
2617.00,0.0040
2616.00,0.0039
2615.00,0.0039
2614.00,0.0039
2613.00,0.0038
2612.00,0.0037
2611.00,0.0037
2610.00,0.0037
2609.00,0.0036
2608.00,0.0035
2607.00,0.0035
2606.00,0.0034
2605.00,0.0033
2604.00,0.0032
2603.00,0.0032
2602.00,0.0031
2601.00,0.0031
2600.00,0.0031
2599.00,0.0032
2598.00,0.0032
2597.00,0.0033
2596.00,0.0032
2595.00,0.0032
2594.00,0.0032
2593.00,0.0032
2592.00,0.0033
2591.00,0.0034
2590.00,0.0035
2589.00,0.0036
2588.00,0.0037
2587.00,0.0038
2586.00,0.0039
2585.00,0.0040
2584.00,0.0040
2583.00,0.0041
2582.00,0.0041
2581.00,0.0041
2580.00,0.0040
2579.00,0.0039
2578.00,0.0038
2577.00,0.0037
2576.00,0.0035
2575.00,0.0034
2574.00,0.0032
2573.00,0.0030
2572.00,0.0028
2571.00,0.0027
2570.00,0.0026
2569.00,0.0026
2568.00,0.0025
2567.00,0.0025
2566.00,0.0025
2565.00,0.0024
2564.00,0.0024
2563.00,0.0023
2562.00,0.0023
2561.00,0.0023
2560.00,0.0024
2559.00,0.0024
2558.00,0.0024
2557.00,0.0023
2556.00,0.0023
2555.00,0.0022
2554.00,0.0021
2553.00,0.0020
2552.00,0.0020
2551.00,0.0021
2550.00,0.0021
2549.00,0.0021
2548.00,0.0020
2547.00,0.0020
2546.00,0.0019
2545.00,0.0018
2544.00,0.0017
2543.00,0.0016
2542.00,0.0015
2541.00,0.0016
2540.00,0.0016
2539.00,0.0017
2538.00,0.0017
2537.00,0.0017
2536.00,0.0017
2535.00,0.0015
2534.00,0.0014
2533.00,0.0013
2532.00,0.0013
2531.00,0.0013
2530.00,0.0013
2529.00,0.0013
2528.00,0.0013
2527.00,0.0013
2526.00,0.0013
2525.00,0.0013
2524.00,0.0013
2523.00,0.0013
2522.00,0.0012
2521.00,0.0012
2520.00,0.0012
2519.00,0.0012
2518.00,0.0011
2517.00,0.0011
2516.00,0.0011
2515.00,0.0010
2514.00,0.0010
2513.00,0.0010
2512.00,0.0009
2511.00,0.0009
2510.00,0.0009
2509.00,0.0009
2508.00,0.0009
2507.00,0.0008
2506.00,0.0008
2505.00,0.0008
2504.00,0.0009
2503.00,0.0009
2502.00,0.0009
2501.00,0.0010
2500.00,0.0010
2499.00,0.0010
2498.00,0.0010
2497.00,0.0010
2496.00,0.0010
2495.00,0.0010
2494.00,0.0010
2493.00,0.0010
2492.00,0.0010
2491.00,0.0010
2490.00,0.0010
2489.00,0.0010
2488.00,0.0009
2487.00,0.0009
2486.00,0.0009
2485.00,0.0009
2484.00,0.0009
2483.00,0.0009
2482.00,0.0010
2481.00,0.0010
2480.00,0.0011
2479.00,0.0011
2478.00,0.0010
2477.00,0.0010
2476.00,0.0009
2475.00,0.0009
2474.00,0.0008
2473.00,0.0008
2472.00,0.0008
2471.00,0.0008
2470.00,0.0008
2469.00,0.0008
2468.00,0.0008
2467.00,0.0008
2466.00,0.0008
2465.00,0.0009
2464.00,0.0009
2463.00,0.0010
2462.00,0.0010
2461.00,0.0010
2460.00,0.0010
2459.00,0.0010
2458.00,0.0010
2457.00,0.0010
2456.00,0.0010
2455.00,0.0011
2454.00,0.0011
2453.00,0.0011
2452.00,0.0010
2451.00,0.0010
2450.00,0.0010
2449.00,0.0010
2448.00,0.0011
2447.00,0.0011
2446.00,0.0011
2445.00,0.0010
2444.00,0.0010
2443.00,0.0009
2442.00,0.0009
2441.00,0.0009
2440.00,0.0009
2439.00,0.0009
2438.00,0.0010
2437.00,0.0010
2436.00,0.0011
2435.00,0.0012
2434.00,0.0012
2433.00,0.0012
2432.00,0.0011
2431.00,0.0011
2430.00,0.0011
2429.00,0.0011
2428.00,0.0011
2427.00,0.0012
2426.00,0.0012
2425.00,0.0012
2424.00,0.0012
2423.00,0.0011
2422.00,0.0010
2421.00,0.0010
2420.00,0.0010
2419.00,0.0010
2418.00,0.0009
2417.00,0.0009
2416.00,0.0008
2415.00,0.0008
2414.00,0.0007
2413.00,0.0008
2412.00,0.0008
2411.00,0.0009
2410.00,0.0010
2409.00,0.0010
2408.00,0.0010
2407.00,0.0009
2406.00,0.0008
2405.00,0.0008
2404.00,0.0008
2403.00,0.0008
2402.00,0.0008
2401.00,0.0008
2400.00,0.0008
2399.00,0.0008
2398.00,0.0008
2397.00,0.0007
2396.00,0.0007
2395.00,0.0007
2394.00,0.0007
2393.00,0.0006
2392.00,0.0006
2391.00,0.0006
2390.00,0.0006
2389.00,0.0006
2388.00,0.0006
2387.00,0.0006
2386.00,0.0006
2385.00,0.0005
2384.00,0.0005
2383.00,0.0004
2382.00,0.0004
2381.00,0.0003
2380.00,0.0003
2379.00,0.0002
2378.00,0.0002
2377.00,0.0003
2376.00,0.0003
2375.00,0.0004
2374.00,0.0004
2373.00,0.0003
2372.00,0.0003
2371.00,0.0002
2370.00,0.0002
2369.00,0.0001
2368.00,0.0001
2367.00,0.0001
2366.00,0.0002
2365.00,0.0003
2364.00,0.0003
2363.00,0.0003
2362.00,0.0003
2361.00,0.0003
2360.00,0.0003
2359.00,0.0003
2358.00,0.0003
2357.00,0.0003
2356.00,0.0004
2355.00,0.0004
2354.00,0.0003
2353.00,0.0003
2352.00,0.0003
2351.00,0.0003
2350.00,0.0003
2349.00,0.0004
2348.00,0.0004
2347.00,0.0004
2346.00,0.0004
2345.00,0.0005
2344.00,0.0005
2343.00,0.0006
2342.00,0.0006
2341.00,0.0007
2340.00,0.0006
2339.00,0.0005
2338.00,0.0004
2337.00,0.0004
2336.00,0.0004
2335.00,0.0004
2334.00,0.0004
2333.00,0.0005
2332.00,0.0005
2331.00,0.0004
2330.00,0.0004
2329.00,0.0005
2328.00,0.0007
2327.00,0.0010
2326.00,0.0015
2325.00,0.0019
2324.00,0.0020
2323.00,0.0020
2322.00,0.0018
2321.00,0.0016
2320.00,0.0014
2319.00,0.0013
2318.00,0.0013
2317.00,0.0012
2316.00,0.0012
2315.00,0.0012
2314.00,0.0011
2313.00,0.0011
2312.00,0.0010
2311.00,0.0009
2310.00,0.0009
2309.00,0.0009
2308.00,0.0009
2307.00,0.0010
2306.00,0.0009
2305.00,0.0009
2304.00,0.0009
2303.00,0.0009
2302.00,0.0010
2301.00,0.0010
2300.00,0.0010
2299.00,0.0010
2298.00,0.0011
2297.00,0.0011
2296.00,0.0012
2295.00,0.0013
2294.00,0.0014
2293.00,0.0015
2292.00,0.0016
2291.00,0.0017
2290.00,0.0017
2289.00,0.0017
2288.00,0.0017
2287.00,0.0017
2286.00,0.0017
2285.00,0.0016
2284.00,0.0016
2283.00,0.0015
2282.00,0.0015
2281.00,0.0014
2280.00,0.0014
2279.00,0.0014
2278.00,0.0013
2277.00,0.0013
2276.00,0.0013
2275.00,0.0013
2274.00,0.0013
2273.00,0.0013
2272.00,0.0013
2271.00,0.0014
2270.00,0.0014
2269.00,0.0015
2268.00,0.0015
2267.00,0.0014
2266.00,0.0013
2265.00,0.0011
2264.00,0.0009
2263.00,0.0009
2262.00,0.0009
2261.00,0.0010
2260.00,0.0011
2259.00,0.0012
2258.00,0.0013
2257.00,0.0012
2256.00,0.0011
2255.00,0.0009
2254.00,0.0007
2253.00,0.0005
2252.00,0.0006
2251.00,0.0007
2250.00,0.0008
2249.00,0.0008
2248.00,0.0008
2247.00,0.0007
2246.00,0.0007
2245.00,0.0008
2244.00,0.0008
2243.00,0.0008
2242.00,0.0008
2241.00,0.0007
2240.00,0.0006
2239.00,0.0005
2238.00,0.0005
2237.00,0.0005
2236.00,0.0005
2235.00,0.0006
2234.00,0.0006
2233.00,0.0007
2232.00,0.0007
2231.00,0.0007
2230.00,0.0007
2229.00,0.0008
2228.00,0.0008
2227.00,0.0007
2226.00,0.0006
2225.00,0.0005
2224.00,0.0005
2223.00,0.0006
2222.00,0.0007
2221.00,0.0007
2220.00,0.0006
2219.00,0.0005
2218.00,0.0005
2217.00,0.0004
2216.00,0.0005
2215.00,0.0006
2214.00,0.0008
2213.00,0.0009
2212.00,0.0009
2211.00,0.0008
2210.00,0.0007
2209.00,0.0007
2208.00,0.0006
2207.00,0.0005
2206.00,0.0004
2205.00,0.0004
2204.00,0.0005
2203.00,0.0005
2202.00,0.0004
2201.00,0.0002
2200.00,0.0000
2199.00,-0.0002
2198.00,-0.0002
2197.00,-0.0001
2196.00,0.0002
2195.00,0.0004
2194.00,0.0006
2193.00,0.0008
2192.00,0.0008
2191.00,0.0009
2190.00,0.0010
2189.00,0.0011
2188.00,0.0012
2187.00,0.0012
2186.00,0.0011
2185.00,0.0009
2184.00,0.0007
2183.00,0.0005
2182.00,0.0003
2181.00,0.0003
2180.00,0.0004
2179.00,0.0004
2178.00,0.0004
2177.00,0.0003
2176.00,0.0003
2175.00,0.0003
2174.00,0.0004
2173.00,0.0005
2172.00,0.0007
2171.00,0.0009
2170.00,0.0011
2169.00,0.0015
2168.00,0.0019
2167.00,0.0022
2166.00,0.0023
2165.00,0.0023
2164.00,0.0022
2163.00,0.0020
2162.00,0.0017
2161.00,0.0011
2160.00,0.0001
2159.00,-0.0012
2158.00,-0.0021
2157.00,-0.0024
2156.00,-0.0024
2155.00,-0.0023
2154.00,-0.0021
2153.00,-0.0019
2152.00,-0.0016
2151.00,-0.0013
2150.00,-0.0011
2149.00,-0.0010
2148.00,-0.0011
2147.00,-0.0012
2146.00,-0.0014
2145.00,-0.0014
2144.00,-0.0012
2143.00,-0.0011
2142.00,-0.0011
2141.00,-0.0011
2140.00,-0.0013
2139.00,-0.0014
2138.00,-0.0015
2137.00,-0.0015
2136.00,-0.0016
2135.00,-0.0017
2134.00,-0.0018
2133.00,-0.0018
2132.00,-0.0016
2131.00,-0.0014
2130.00,-0.0013
2129.00,-0.0012
2128.00,-0.0010
2127.00,-0.0009
2126.00,-0.0008
2125.00,-0.0007
2124.00,-0.0007
2123.00,-0.0006
2122.00,-0.0005
2121.00,-0.0003
2120.00,-0.0002
2119.00,-0.0001
2118.00,0.0000
2117.00,0.0001
2116.00,0.0002
2115.00,0.0002
2114.00,0.0002
2113.00,0.0002
2112.00,0.0001
2111.00,0.0001
2110.00,0.0001
2109.00,0.0001
2108.00,0.0002
2107.00,0.0002
2106.00,0.0002
2105.00,0.0001
2104.00,0.0001
2103.00,0.0001
2102.00,0.0002
2101.00,0.0003
2100.00,0.0004
2099.00,0.0004
2098.00,0.0003
2097.00,0.0003
2096.00,0.0001
2095.00,-0.0001
2094.00,-0.0003
2093.00,-0.0005
2092.00,-0.0005
2091.00,-0.0005
2090.00,-0.0005
2089.00,-0.0004
2088.00,-0.0002
2087.00,-0.0001
2086.00,0.0001
2085.00,0.0001
2084.00,0.0001
2083.00,0.0000
2082.00,-0.0000
2081.00,-0.0001
2080.00,-0.0001
2079.00,-0.0000
2078.00,0.0001
2077.00,0.0004
2076.00,0.0006
2075.00,0.0006
2074.00,0.0005
2073.00,0.0003
2072.00,0.0000
2071.00,-0.0003
2070.00,-0.0004
2069.00,-0.0005
2068.00,-0.0004
2067.00,-0.0003
2066.00,-0.0002
2065.00,-0.0001
2064.00,-0.0000
2063.00,0.0001
2062.00,0.0002
2061.00,0.0002
2060.00,0.0003
2059.00,0.0003
2058.00,0.0004
2057.00,0.0005
2056.00,0.0005
2055.00,0.0004
2054.00,0.0004
2053.00,0.0006
2052.00,0.0009
2051.00,0.0012
2050.00,0.0012
2049.00,0.0010
2048.00,0.0006
2047.00,0.0002
2046.00,-0.0000
2045.00,-0.0001
2044.00,-0.0001
2043.00,-0.0000
2042.00,-0.0000
2041.00,-0.0001
2040.00,-0.0002
2039.00,-0.0004
2038.00,-0.0004
2037.00,-0.0004
2036.00,-0.0003
2035.00,-0.0003
2034.00,-0.0002
2033.00,0.0001
2032.00,0.0002
2031.00,0.0001
2030.00,-0.0002
2029.00,-0.0006
2028.00,-0.0008
2027.00,-0.0011
2026.00,-0.0012
2025.00,-0.0012
2024.00,-0.0012
2023.00,-0.0011
2022.00,-0.0011
2021.00,-0.0010
2020.00,-0.0008
2019.00,-0.0006
2018.00,-0.0004
2017.00,-0.0003
2016.00,-0.0004
2015.00,-0.0006
2014.00,-0.0008
2013.00,-0.0009
2012.00,-0.0008
2011.00,-0.0005
2010.00,-0.0003
2009.00,-0.0002
2008.00,-0.0006
2007.00,-0.0011
2006.00,-0.0015
2005.00,-0.0018
2004.00,-0.0019
2003.00,-0.0019
2002.00,-0.0018
2001.00,-0.0017
2000.00,-0.0015
1999.00,-0.0015
1998.00,-0.0013
1997.00,-0.0012
1996.00,-0.0011
1995.00,-0.0011
1994.00,-0.0011
1993.00,-0.0012
1992.00,-0.0012
1991.00,-0.0011
1990.00,-0.0009
1989.00,-0.0007
1988.00,-0.0005
1987.00,-0.0003
1986.00,-0.0001
1985.00,-0.0000
1984.00,0.0001
1983.00,0.0003
1982.00,0.0006
1981.00,0.0010
1980.00,0.0011
1979.00,0.0007
1978.00,-0.0000
1977.00,-0.0009
1976.00,-0.0014
1975.00,-0.0017
1974.00,-0.0017
1973.00,-0.0017
1972.00,-0.0017
1971.00,-0.0017
1970.00,-0.0017
1969.00,-0.0017
1968.00,-0.0016
1967.00,-0.0014
1966.00,-0.0011
1965.00,-0.0007
1964.00,-0.0003
1963.00,-0.0003
1962.00,-0.0005
1961.00,-0.0008
1960.00,-0.0011
1959.00,-0.0013
1958.00,-0.0014
1957.00,-0.0014
1956.00,-0.0014
1955.00,-0.0015
1954.00,-0.0016
1953.00,-0.0016
1952.00,-0.0015
1951.00,-0.0014
1950.00,-0.0013
1949.00,-0.0013
1948.00,-0.0013
1947.00,-0.0013
1946.00,-0.0013
1945.00,-0.0012
1944.00,-0.0012
1943.00,-0.0013
1942.00,-0.0013
1941.00,-0.0012
1940.00,-0.0011
1939.00,-0.0011
1938.00,-0.0009
1937.00,-0.0008
1936.00,-0.0007
1935.00,-0.0007
1934.00,-0.0007
1933.00,-0.0007
1932.00,-0.0007
1931.00,-0.0007
1930.00,-0.0009
1929.00,-0.0010
1928.00,-0.0010
1927.00,-0.0009
1926.00,-0.0007
1925.00,-0.0006
1924.00,-0.0004
1923.00,-0.0004
1922.00,-0.0003
1921.00,-0.0003
1920.00,-0.0003
1919.00,-0.0003
1918.00,-0.0004
1917.00,-0.0004
1916.00,-0.0003
1915.00,-0.0003
1914.00,-0.0004
1913.00,-0.0005
1912.00,-0.0006
1911.00,-0.0007
1910.00,-0.0007
1909.00,-0.0006
1908.00,-0.0005
1907.00,-0.0004
1906.00,-0.0003
1905.00,-0.0003
1904.00,-0.0004
1903.00,-0.0004
1902.00,-0.0004
1901.00,-0.0003
1900.00,-0.0003
1899.00,-0.0003
1898.00,-0.0004
1897.00,-0.0004
1896.00,-0.0004
1895.00,-0.0004
1894.00,-0.0003
1893.00,-0.0001
1892.00,-0.0000
1891.00,0.0001
1890.00,0.0002
1889.00,0.0002
1888.00,0.0001
1887.00,-0.0000
1886.00,-0.0002
1885.00,-0.0002
1884.00,-0.0002
1883.00,-0.0001
1882.00,-0.0001
1881.00,-0.0000
1880.00,-0.0000
1879.00,-0.0001
1878.00,-0.0002
1877.00,-0.0002
1876.00,-0.0002
1875.00,-0.0002
1874.00,-0.0002
1873.00,-0.0002
1872.00,-0.0002
1871.00,-0.0003
1870.00,-0.0003
1869.00,-0.0003
1868.00,-0.0002
1867.00,-0.0003
1866.00,-0.0003
1865.00,-0.0002
1864.00,-0.0001
1863.00,-0.0001
1862.00,-0.0001
1861.00,-0.0001
1860.00,-0.0001
1859.00,-0.0000
1858.00,0.0000
1857.00,0.0000
1856.00,-0.0000
1855.00,-0.0001
1854.00,-0.0001
1853.00,-0.0001
1852.00,-0.0000
1851.00,-0.0001
1850.00,-0.0001
1849.00,-0.0001
1848.00,-0.0001
1847.00,-0.0000
1846.00,0.0000
1845.00,0.0001
1844.00,0.0001
1843.00,0.0001
1842.00,0.0001
1841.00,0.0001
1840.00,0.0001
1839.00,0.0001
1838.00,0.0002
1837.00,0.0003
1836.00,0.0004
1835.00,0.0004
1834.00,0.0003
1833.00,0.0003
1832.00,0.0002
1831.00,0.0002
1830.00,0.0003
1829.00,0.0003
1828.00,0.0003
1827.00,0.0002
1826.00,0.0002
1825.00,0.0002
1824.00,0.0003
1823.00,0.0004
1822.00,0.0005
1821.00,0.0005
1820.00,0.0004
1819.00,0.0003
1818.00,0.0001
1817.00,-0.0000
1816.00,-0.0001
1815.00,-0.0000
1814.00,0.0000
1813.00,0.0001
1812.00,0.0002
1811.00,0.0002
1810.00,0.0003
1809.00,0.0003
1808.00,0.0004
1807.00,0.0004
1806.00,0.0003
1805.00,0.0003
1804.00,0.0003
1803.00,0.0002
1802.00,0.0003
1801.00,0.0003
1800.00,0.0004
1799.00,0.0004
1798.00,0.0005
1797.00,0.0005
1796.00,0.0005
1795.00,0.0006
1794.00,0.0006
1793.00,0.0006
1792.00,0.0006
1791.00,0.0005
1790.00,0.0006
1789.00,0.0006
1788.00,0.0006
1787.00,0.0007
1786.00,0.0007
1785.00,0.0007
1784.00,0.0007
1783.00,0.0007
1782.00,0.0007
1781.00,0.0008
1780.00,0.0008
1779.00,0.0008
1778.00,0.0008
1777.00,0.0007
1776.00,0.0007
1775.00,0.0006
1774.00,0.0006
1773.00,0.0006
1772.00,0.0006
1771.00,0.0007
1770.00,0.0007
1769.00,0.0008
1768.00,0.0008
1767.00,0.0009
1766.00,0.0009
1765.00,0.0009
1764.00,0.0009
1763.00,0.0009
1762.00,0.0009
1761.00,0.0009
1760.00,0.0009
1759.00,0.0009
1758.00,0.0010
1757.00,0.0011
1756.00,0.0012
1755.00,0.0013
1754.00,0.0013
1753.00,0.0014
1752.00,0.0014
1751.00,0.0015
1750.00,0.0015
1749.00,0.0016
1748.00,0.0016
1747.00,0.0016
1746.00,0.0016
1745.00,0.0016
1744.00,0.0016
1743.00,0.0017
1742.00,0.0018
1741.00,0.0019
1740.00,0.0019
1739.00,0.0019
1738.00,0.0019
1737.00,0.0019
1736.00,0.0019
1735.00,0.0019
1734.00,0.0019
1733.00,0.0019
1732.00,0.0019
1731.00,0.0019
1730.00,0.0019
1729.00,0.0020
1728.00,0.0020
1727.00,0.0020
1726.00,0.0020
1725.00,0.0020
1724.00,0.0021
1723.00,0.0020
1722.00,0.0020
1721.00,0.0019
1720.00,0.0019
1719.00,0.0019
1718.00,0.0019
1717.00,0.0019
1716.00,0.0020
1715.00,0.0020
1714.00,0.0021
1713.00,0.0021
1712.00,0.0021
1711.00,0.0021
1710.00,0.0022
1709.00,0.0023
1708.00,0.0023
1707.00,0.0023
1706.00,0.0022
1705.00,0.0022
1704.00,0.0022
1703.00,0.0021
1702.00,0.0021
1701.00,0.0021
1700.00,0.0022
1699.00,0.0023
1698.00,0.0025
1697.00,0.0026
1696.00,0.0028
1695.00,0.0028
1694.00,0.0028
1693.00,0.0028
1692.00,0.0028
1691.00,0.0028
1690.00,0.0029
1689.00,0.0030
1688.00,0.0031
1687.00,0.0031
1686.00,0.0031
1685.00,0.0031
1684.00,0.0031
1683.00,0.0032
1682.00,0.0033
1681.00,0.0034
1680.00,0.0035
1679.00,0.0035
1678.00,0.0036
1677.00,0.0036
1676.00,0.0037
1675.00,0.0038
1674.00,0.0038
1673.00,0.0038
1672.00,0.0038
1671.00,0.0039
1670.00,0.0040
1669.00,0.0041
1668.00,0.0041
1667.00,0.0041
1666.00,0.0041
1665.00,0.0042
1664.00,0.0043
1663.00,0.0044
1662.00,0.0045
1661.00,0.0046
1660.00,0.0046
1659.00,0.0047
1658.00,0.0047
1657.00,0.0048
1656.00,0.0048
1655.00,0.0048
1654.00,0.0049
1653.00,0.0051
1652.00,0.0052
1651.00,0.0053
1650.00,0.0054
1649.00,0.0055
1648.00,0.0056
1647.00,0.0057
1646.00,0.0058
1645.00,0.0059
1644.00,0.0059
1643.00,0.0059
1642.00,0.0059
1641.00,0.0059
1640.00,0.0059
1639.00,0.0059
1638.00,0.0059
1637.00,0.0059
1636.00,0.0060
1635.00,0.0060
1634.00,0.0059
1633.00,0.0059
1632.00,0.0059
1631.00,0.0058
1630.00,0.0058
1629.00,0.0058
1628.00,0.0058
1627.00,0.0057
1626.00,0.0057
1625.00,0.0057
1624.00,0.0056
1623.00,0.0056
1622.00,0.0055
1621.00,0.0055
1620.00,0.0054
1619.00,0.0054
1618.00,0.0053
1617.00,0.0053
1616.00,0.0053
1615.00,0.0053
1614.00,0.0052
1613.00,0.0052
1612.00,0.0052
1611.00,0.0052
1610.00,0.0052
1609.00,0.0052
1608.00,0.0052
1607.00,0.0052
1606.00,0.0052
1605.00,0.0052
1604.00,0.0052
1603.00,0.0051
1602.00,0.0050
1601.00,0.0050
1600.00,0.0050
1599.00,0.0050
1598.00,0.0050
1597.00,0.0050
1596.00,0.0050
1595.00,0.0050
1594.00,0.0049
1593.00,0.0049
1592.00,0.0048
1591.00,0.0048
1590.00,0.0047
1589.00,0.0047
1588.00,0.0047
1587.00,0.0047
1586.00,0.0047
1585.00,0.0048
1584.00,0.0048
1583.00,0.0049
1582.00,0.0049
1581.00,0.0049
1580.00,0.0050
1579.00,0.0050
1578.00,0.0051
1577.00,0.0051
1576.00,0.0051
1575.00,0.0051
1574.00,0.0051
1573.00,0.0051
1572.00,0.0051
1571.00,0.0051
1570.00,0.0050
1569.00,0.0050
1568.00,0.0051
1567.00,0.0051
1566.00,0.0051
1565.00,0.0051
1564.00,0.0051
1563.00,0.0052
1562.00,0.0052
1561.00,0.0053
1560.00,0.0054
1559.00,0.0054
1558.00,0.0054
1557.00,0.0054
1556.00,0.0055
1555.00,0.0056
1554.00,0.0056
1553.00,0.0057
1552.00,0.0057
1551.00,0.0058
1550.00,0.0059
1549.00,0.0060
1548.00,0.0060
1547.00,0.0061
1546.00,0.0061
1545.00,0.0061
1544.00,0.0062
1543.00,0.0062
1542.00,0.0062
1541.00,0.0062
1540.00,0.0061
1539.00,0.0060
1538.00,0.0059
1537.00,0.0059
1536.00,0.0059
1535.00,0.0058
1534.00,0.0057
1533.00,0.0057
1532.00,0.0056
1531.00,0.0055
1530.00,0.0054
1529.00,0.0054
1528.00,0.0054
1527.00,0.0054
1526.00,0.0053
1525.00,0.0052
1524.00,0.0051
1523.00,0.0050
1522.00,0.0049
1521.00,0.0050
1520.00,0.0050
1519.00,0.0051
1518.00,0.0051
1517.00,0.0051
1516.00,0.0052
1515.00,0.0051
1514.00,0.0051
1513.00,0.0052
1512.00,0.0053
1511.00,0.0053
1510.00,0.0053
1509.00,0.0054
1508.00,0.0055
1507.00,0.0056
1506.00,0.0058
1505.00,0.0060
1504.00,0.0062
1503.00,0.0064
1502.00,0.0066
1501.00,0.0069
1500.00,0.0072
1499.00,0.0075
1498.00,0.0078
1497.00,0.0082
1496.00,0.0087
1495.00,0.0091
1494.00,0.0095
1493.00,0.0099
1492.00,0.0103
1491.00,0.0106
1490.00,0.0109
1489.00,0.0113
1488.00,0.0118
1487.00,0.0122
1486.00,0.0127
1485.00,0.0133
1484.00,0.0140
1483.00,0.0146
1482.00,0.0154
1481.00,0.0164
1480.00,0.0175
1479.00,0.0187
1478.00,0.0200
1477.00,0.0219
1476.00,0.0241
1475.00,0.0267
1474.00,0.0303
1473.00,0.0358
1472.00,0.0425
1471.00,0.0491
1470.00,0.0556
1469.00,0.0624
1468.00,0.0698
1467.00,0.0779
1466.00,0.0874
1465.00,0.0977
1464.00,0.1069
1463.00,0.1135
1462.00,0.1180
1461.00,0.1211
1460.00,0.1233
1459.00,0.1246
1458.00,0.1255
1457.00,0.1258
1456.00,0.1254
1455.00,0.1244
1454.00,0.1230
1453.00,0.1210
1452.00,0.1179
1451.00,0.1135
1450.00,0.1076
1449.00,0.0997
1448.00,0.0899
1447.00,0.0797
1446.00,0.0708
1445.00,0.0634
1444.00,0.0572
1443.00,0.0522
1442.00,0.0486
1441.00,0.0462
1440.00,0.0449
1439.00,0.0446
1438.00,0.0452
1437.00,0.0458
1436.00,0.0451
1435.00,0.0425
1434.00,0.0384
1433.00,0.0335
1432.00,0.0284
1431.00,0.0239
1430.00,0.0205
1429.00,0.0181
1428.00,0.0165
1427.00,0.0155
1426.00,0.0149
1425.00,0.0143
1424.00,0.0138
1423.00,0.0135
1422.00,0.0134
1421.00,0.0131
1420.00,0.0128
1419.00,0.0125
1418.00,0.0124
1417.00,0.0122
1416.00,0.0120
1415.00,0.0119
1414.00,0.0119
1413.00,0.0118
1412.00,0.0116
1411.00,0.0115
1410.00,0.0114
1409.00,0.0113
1408.00,0.0112
1407.00,0.0112
1406.00,0.0113
1405.00,0.0113
1404.00,0.0114
1403.00,0.0115
1402.00,0.0117
1401.00,0.0118
1400.00,0.0119
1399.00,0.0121
1398.00,0.0124
1397.00,0.0127
1396.00,0.0129
1395.00,0.0134
1394.00,0.0139
1393.00,0.0145
1392.00,0.0151
1391.00,0.0161
1390.00,0.0174
1389.00,0.0191
1388.00,0.0218
1387.00,0.0257
1386.00,0.0309
1385.00,0.0374
1384.00,0.0459
1383.00,0.0576
1382.00,0.0730
1381.00,0.0932
1380.00,0.1190
1379.00,0.1496
1378.00,0.1811
1377.00,0.2066
1376.00,0.2187
1375.00,0.2117
1374.00,0.1873
1373.00,0.1552
1372.00,0.1247
1371.00,0.0991
1370.00,0.0786
1369.00,0.0630
1368.00,0.0523
1367.00,0.0458
1366.00,0.0423
1365.00,0.0409
1364.00,0.0413
1363.00,0.0430
1362.00,0.0456
1361.00,0.0485
1360.00,0.0506
1359.00,0.0512
1358.00,0.0500
1357.00,0.0469
1356.00,0.0425
1355.00,0.0375
1354.00,0.0327
1353.00,0.0285
1352.00,0.0252
1351.00,0.0226
1350.00,0.0204
1349.00,0.0188
1348.00,0.0175
1347.00,0.0164
1346.00,0.0155
1345.00,0.0149
1344.00,0.0144
1343.00,0.0140
1342.00,0.0136
1341.00,0.0132
1340.00,0.0128
1339.00,0.0126
1338.00,0.0124
1337.00,0.0124
1336.00,0.0125
1335.00,0.0127
1334.00,0.0131
1333.00,0.0136
1332.00,0.0141
1331.00,0.0144
1330.00,0.0145
1329.00,0.0143
1328.00,0.0138
1327.00,0.0131
1326.00,0.0124
1325.00,0.0116
1324.00,0.0109
1323.00,0.0104
1322.00,0.0100
1321.00,0.0097
1320.00,0.0094
1319.00,0.0092
1318.00,0.0089
1317.00,0.0087
1316.00,0.0085
1315.00,0.0084
1314.00,0.0084
1313.00,0.0084
1312.00,0.0084
1311.00,0.0086
1310.00,0.0089
1309.00,0.0093
1308.00,0.0099
1307.00,0.0107
1306.00,0.0115
1305.00,0.0121
1304.00,0.0124
1303.00,0.0124
1302.00,0.0124
1301.00,0.0123
1300.00,0.0125
1299.00,0.0127
1298.00,0.0130
1297.00,0.0131
1296.00,0.0131
1295.00,0.0129
1294.00,0.0125
1293.00,0.0119
1292.00,0.0114
1291.00,0.0109
1290.00,0.0104
1289.00,0.0099
1288.00,0.0095
1287.00,0.0092
1286.00,0.0089
1285.00,0.0087
1284.00,0.0085
1283.00,0.0083
1282.00,0.0082
1281.00,0.0080
1280.00,0.0079
1279.00,0.0079
1278.00,0.0078
1277.00,0.0078
1276.00,0.0078
1275.00,0.0077
1274.00,0.0078
1273.00,0.0078
1272.00,0.0079
1271.00,0.0080
1270.00,0.0081
1269.00,0.0083
1268.00,0.0086
1267.00,0.0089
1266.00,0.0092
1265.00,0.0095
1264.00,0.0098
1263.00,0.0101
1262.00,0.0104
1261.00,0.0107
1260.00,0.0110
1259.00,0.0114
1258.00,0.0117
1257.00,0.0120
1256.00,0.0121
1255.00,0.0119
1254.00,0.0115
1253.00,0.0109
1252.00,0.0102
1251.00,0.0097
1250.00,0.0094
1249.00,0.0091
1248.00,0.0089
1247.00,0.0088
1246.00,0.0087
1245.00,0.0086
1244.00,0.0085
1243.00,0.0084
1242.00,0.0084
1241.00,0.0083
1240.00,0.0082
1239.00,0.0081
1238.00,0.0081
1237.00,0.0080
1236.00,0.0079
1235.00,0.0078
1234.00,0.0078
1233.00,0.0078
1232.00,0.0078
1231.00,0.0078
1230.00,0.0078
1229.00,0.0079
1228.00,0.0081
1227.00,0.0082
1226.00,0.0085
1225.00,0.0088
1224.00,0.0091
1223.00,0.0095
1222.00,0.0099
1221.00,0.0102
1220.00,0.0104
1219.00,0.0105
1218.00,0.0105
1217.00,0.0103
1216.00,0.0100
1215.00,0.0096
1214.00,0.0091
1213.00,0.0088
1212.00,0.0084
1211.00,0.0082
1210.00,0.0079
1209.00,0.0077
1208.00,0.0074
1207.00,0.0073
1206.00,0.0071
1205.00,0.0071
1204.00,0.0071
1203.00,0.0070
1202.00,0.0070
1201.00,0.0070
1200.00,0.0070
1199.00,0.0070
1198.00,0.0070
1197.00,0.0070
1196.00,0.0069
1195.00,0.0069
1194.00,0.0068
1193.00,0.0068
1192.00,0.0068
1191.00,0.0069
1190.00,0.0069
1189.00,0.0069
1188.00,0.0069
1187.00,0.0070
1186.00,0.0070
1185.00,0.0071
1184.00,0.0072
1183.00,0.0072
1182.00,0.0074
1181.00,0.0076
1180.00,0.0078
1179.00,0.0082
1178.00,0.0087
1177.00,0.0094
1176.00,0.0103
1175.00,0.0114
1174.00,0.0129
1173.00,0.0146
1172.00,0.0168
1171.00,0.0191
1170.00,0.0213
1169.00,0.0232
1168.00,0.0243
1167.00,0.0247
1166.00,0.0244
1165.00,0.0237
1164.00,0.0228
1163.00,0.0219
1162.00,0.0210
1161.00,0.0203
1160.00,0.0198
1159.00,0.0194
1158.00,0.0192
1157.00,0.0190
1156.00,0.0190
1155.00,0.0190
1154.00,0.0190
1153.00,0.0189
1152.00,0.0187
1151.00,0.0181
1150.00,0.0174
1149.00,0.0166
1148.00,0.0157
1147.00,0.0148
1146.00,0.0140
1145.00,0.0133
1144.00,0.0127
1143.00,0.0122
1142.00,0.0117
1141.00,0.0112
1140.00,0.0107
1139.00,0.0102
1138.00,0.0098
1137.00,0.0095
1136.00,0.0094
1135.00,0.0092
1134.00,0.0091
1133.00,0.0090
1132.00,0.0089
1131.00,0.0089
1130.00,0.0088
1129.00,0.0088
1128.00,0.0089
1127.00,0.0089
1126.00,0.0091
1125.00,0.0092
1124.00,0.0093
1123.00,0.0095
1122.00,0.0096
1121.00,0.0098
1120.00,0.0099
1119.00,0.0100
1118.00,0.0101
1117.00,0.0102
1116.00,0.0103
1115.00,0.0105
1114.00,0.0106
1113.00,0.0108
1112.00,0.0110
1111.00,0.0114
1110.00,0.0119
1109.00,0.0125
1108.00,0.0132
1107.00,0.0139
1106.00,0.0147
1105.00,0.0155
1104.00,0.0161
1103.00,0.0165
1102.00,0.0166
1101.00,0.0163
1100.00,0.0158
1099.00,0.0152
1098.00,0.0144
1097.00,0.0137
1096.00,0.0131
1095.00,0.0125
1094.00,0.0120
1093.00,0.0116
1092.00,0.0113
1091.00,0.0110
1090.00,0.0108
1089.00,0.0105
1088.00,0.0103
1087.00,0.0102
1086.00,0.0101
1085.00,0.0100
1084.00,0.0098
1083.00,0.0097
1082.00,0.0095
1081.00,0.0094
1080.00,0.0093
1079.00,0.0092
1078.00,0.0092
1077.00,0.0091
1076.00,0.0089
1075.00,0.0088
1074.00,0.0088
1073.00,0.0088
1072.00,0.0087
1071.00,0.0087
1070.00,0.0088
1069.00,0.0088
1068.00,0.0088
1067.00,0.0088
1066.00,0.0088
1065.00,0.0088
1064.00,0.0088
1063.00,0.0087
1062.00,0.0087
1061.00,0.0087
1060.00,0.0087
1059.00,0.0087
1058.00,0.0087
1057.00,0.0087
1056.00,0.0086
1055.00,0.0086
1054.00,0.0086
1053.00,0.0086
1052.00,0.0087
1051.00,0.0088
1050.00,0.0090
1049.00,0.0092
1048.00,0.0094
1047.00,0.0096
1046.00,0.0096
1045.00,0.0096
1044.00,0.0096
1043.00,0.0095
1042.00,0.0095
1041.00,0.0095
1040.00,0.0096
1039.00,0.0096
1038.00,0.0096
1037.00,0.0096
1036.00,0.0096
1035.00,0.0097
1034.00,0.0097
1033.00,0.0097
1032.00,0.0097
1031.00,0.0096
1030.00,0.0096
1029.00,0.0096
1028.00,0.0096
1027.00,0.0096
1026.00,0.0095
1025.00,0.0094
1024.00,0.0094
1023.00,0.0094
1022.00,0.0094
1021.00,0.0095
1020.00,0.0094
1019.00,0.0094
1018.00,0.0095
1017.00,0.0096
1016.00,0.0098
1015.00,0.0099
1014.00,0.0100
1013.00,0.0101
1012.00,0.0103
1011.00,0.0105
1010.00,0.0108
1009.00,0.0111
1008.00,0.0114
1007.00,0.0118
1006.00,0.0123
1005.00,0.0130
1004.00,0.0141
1003.00,0.0156
1002.00,0.0174
1001.00,0.0196
1000.00,0.0218
999.00,0.0235
998.00,0.0243
997.00,0.0237
996.00,0.0219
995.00,0.0196
994.00,0.0171
993.00,0.0149
992.00,0.0131
991.00,0.0117
990.00,0.0108
989.00,0.0101
988.00,0.0098
987.00,0.0097
986.00,0.0097
985.00,0.0099
984.00,0.0102
983.00,0.0109
982.00,0.0119
981.00,0.0133
980.00,0.0152
979.00,0.0176
978.00,0.0205
977.00,0.0237
976.00,0.0271
975.00,0.0300
974.00,0.0319
973.00,0.0323
972.00,0.0309
971.00,0.0282
970.00,0.0246
969.00,0.0211
968.00,0.0180
967.00,0.0156
966.00,0.0138
965.00,0.0125
964.00,0.0115
963.00,0.0108
962.00,0.0102
961.00,0.0097
960.00,0.0093
959.00,0.0090
958.00,0.0087
957.00,0.0085
956.00,0.0083
955.00,0.0081
954.00,0.0080
953.00,0.0080
952.00,0.0080
951.00,0.0081
950.00,0.0081
949.00,0.0081
948.00,0.0081
947.00,0.0082
946.00,0.0085
945.00,0.0088
944.00,0.0092
943.00,0.0096
942.00,0.0100
941.00,0.0103
940.00,0.0102
939.00,0.0099
938.00,0.0093
937.00,0.0087
936.00,0.0082
935.00,0.0077
934.00,0.0074
933.00,0.0072
932.00,0.0071
931.00,0.0070
930.00,0.0069
929.00,0.0067
928.00,0.0066
927.00,0.0065
926.00,0.0064
925.00,0.0064
924.00,0.0065
923.00,0.0066
922.00,0.0068
921.00,0.0069
920.00,0.0071
919.00,0.0072
918.00,0.0073
917.00,0.0074
916.00,0.0074
915.00,0.0075
914.00,0.0076
913.00,0.0077
912.00,0.0078
911.00,0.0079
910.00,0.0081
909.00,0.0082
908.00,0.0085
907.00,0.0090
906.00,0.0098
905.00,0.0110
904.00,0.0127
903.00,0.0148
902.00,0.0172
901.00,0.0193
900.00,0.0208
899.00,0.0212
898.00,0.0204
897.00,0.0187
896.00,0.0164
895.00,0.0142
894.00,0.0123
893.00,0.0109
892.00,0.0099
891.00,0.0091
890.00,0.0085
889.00,0.0081
888.00,0.0079
887.00,0.0077
886.00,0.0077
885.00,0.0076
884.00,0.0075
883.00,0.0073
882.00,0.0072
881.00,0.0073
880.00,0.0074
879.00,0.0075
878.00,0.0075
877.00,0.0075
876.00,0.0076
875.00,0.0076
874.00,0.0077
873.00,0.0077
872.00,0.0076
871.00,0.0075
870.00,0.0075
869.00,0.0076
868.00,0.0077
867.00,0.0079
866.00,0.0079
865.00,0.0079
864.00,0.0079
863.00,0.0079
862.00,0.0080
861.00,0.0081
860.00,0.0083
859.00,0.0084
858.00,0.0084
857.00,0.0084
856.00,0.0084
855.00,0.0085
854.00,0.0087
853.00,0.0090
852.00,0.0093
851.00,0.0096
850.00,0.0099
849.00,0.0104
848.00,0.0111
847.00,0.0120
846.00,0.0133
845.00,0.0153
844.00,0.0179
843.00,0.0206
842.00,0.0224
841.00,0.0227
840.00,0.0212
839.00,0.0187
838.00,0.0162
837.00,0.0142
836.00,0.0129
835.00,0.0121
834.00,0.0116
833.00,0.0114
832.00,0.0112
831.00,0.0111
830.00,0.0111
829.00,0.0110
828.00,0.0109
827.00,0.0108
826.00,0.0108
825.00,0.0108
824.00,0.0110
823.00,0.0112
822.00,0.0114
821.00,0.0116
820.00,0.0118
819.00,0.0120
818.00,0.0123
817.00,0.0129
816.00,0.0139
815.00,0.0153
814.00,0.0171
813.00,0.0191
812.00,0.0213
811.00,0.0233
810.00,0.0247
809.00,0.0253
808.00,0.0250
807.00,0.0238
806.00,0.0221
805.00,0.0202
804.00,0.0183
803.00,0.0166
802.00,0.0153
801.00,0.0143
800.00,0.0136
799.00,0.0130
798.00,0.0124
797.00,0.0118
796.00,0.0113
795.00,0.0109
794.00,0.0105
793.00,0.0102
792.00,0.0099
791.00,0.0096
790.00,0.0094
789.00,0.0091
788.00,0.0089
787.00,0.0085
786.00,0.0082
785.00,0.0079
784.00,0.0077
783.00,0.0075
782.00,0.0073
781.00,0.0070
780.00,0.0067
779.00,0.0065
778.00,0.0065
777.00,0.0066
776.00,0.0067
775.00,0.0067
774.00,0.0067
773.00,0.0068
772.00,0.0069
771.00,0.0072
770.00,0.0076
769.00,0.0080
768.00,0.0081
767.00,0.0081
766.00,0.0079
765.00,0.0077
764.00,0.0074
763.00,0.0071
762.00,0.0068
761.00,0.0065
760.00,0.0063
759.00,0.0063
758.00,0.0062
757.00,0.0061
756.00,0.0061
755.00,0.0060
754.00,0.0059
753.00,0.0058
752.00,0.0057
751.00,0.0058
750.00,0.0059
749.00,0.0060
748.00,0.0061
747.00,0.0062
746.00,0.0064
745.00,0.0064
744.00,0.0064
743.00,0.0064
742.00,0.0063
741.00,0.0063
740.00,0.0063
739.00,0.0064
738.00,0.0066
737.00,0.0068
736.00,0.0070
735.00,0.0073
734.00,0.0075
733.00,0.0076
732.00,0.0078
731.00,0.0079
730.00,0.0080
729.00,0.0080
728.00,0.0079
727.00,0.0078
726.00,0.0076
725.00,0.0074
724.00,0.0073
723.00,0.0072
722.00,0.0071
721.00,0.0071
720.00,0.0071
719.00,0.0071
718.00,0.0071
717.00,0.0070
716.00,0.0068
715.00,0.0065
714.00,0.0062
713.00,0.0061
712.00,0.0062
711.00,0.0064
710.00,0.0065
709.00,0.0066
708.00,0.0066
707.00,0.0067
706.00,0.0067
705.00,0.0067
704.00,0.0067
703.00,0.0066
702.00,0.0065
701.00,0.0064
700.00,0.0062
699.00,0.0062
698.00,0.0061
697.00,0.0060
696.00,0.0058
695.00,0.0057
694.00,0.0056
693.00,0.0055
692.00,0.0056
691.00,0.0057
690.00,0.0057
689.00,0.0057
688.00,0.0056
687.00,0.0056
686.00,0.0057
685.00,0.0057
684.00,0.0056
683.00,0.0055
682.00,0.0054
681.00,0.0053
680.00,0.0052
679.00,0.0053
678.00,0.0055
677.00,0.0058
676.00,0.0061
675.00,0.0062
674.00,0.0061
673.00,0.0058
672.00,0.0054
671.00,0.0051
670.00,0.0051
669.00,0.0053
668.00,0.0057
667.00,0.0059
666.00,0.0059
665.00,0.0058
664.00,0.0058
663.00,0.0058
662.00,0.0058
661.00,0.0057
660.00,0.0057
659.00,0.0056
658.00,0.0057
657.00,0.0058
656.00,0.0058
655.00,0.0057
654.00,0.0057
653.00,0.0057
652.00,0.0057
651.00,0.0057
650.00,0.0056
649.00,0.0056
648.00,0.0056
647.00,0.0055
646.00,0.0054
645.00,0.0054
644.00,0.0055
643.00,0.0057
642.00,0.0059
641.00,0.0061
640.00,0.0061
639.00,0.0061
638.00,0.0061
637.00,0.0061
636.00,0.0061
635.00,0.0061
634.00,0.0062
633.00,0.0062
632.00,0.0062
631.00,0.0063
630.00,0.0063
629.00,0.0064
628.00,0.0064
627.00,0.0062
626.00,0.0060
625.00,0.0059
624.00,0.0060
623.00,0.0061
622.00,0.0063
621.00,0.0063
620.00,0.0062
619.00,0.0061
618.00,0.0061
617.00,0.0061
616.00,0.0061
615.00,0.0061
614.00,0.0061
613.00,0.0063
612.00,0.0064
611.00,0.0066
610.00,0.0067
609.00,0.0068
608.00,0.0068
607.00,0.0068
606.00,0.0067
605.00,0.0064
604.00,0.0061
603.00,0.0058
602.00,0.0058
601.00,0.0061
600.00,0.0064
599.00,0.0067
598.00,0.0067
597.00,0.0065
596.00,0.0062
595.00,0.0059
594.00,0.0057
593.00,0.0056
592.00,0.0056
591.00,0.0058
590.00,0.0061
589.00,0.0066
588.00,0.0071
587.00,0.0074
586.00,0.0074
585.00,0.0073
584.00,0.0072
583.00,0.0073
582.00,0.0073
581.00,0.0072
580.00,0.0070
579.00,0.0069
578.00,0.0069
577.00,0.0069
576.00,0.0069
575.00,0.0068
574.00,0.0069
573.00,0.0072
572.00,0.0073
571.00,0.0071
570.00,0.0067
569.00,0.0062
568.00,0.0059
567.00,0.0057
566.00,0.0058
565.00,0.0059
564.00,0.0062
563.00,0.0064
562.00,0.0064
561.00,0.0064
560.00,0.0065
559.00,0.0067
558.00,0.0072
557.00,0.0076
556.00,0.0077
555.00,0.0076
554.00,0.0073
553.00,0.0071
552.00,0.0071
551.00,0.0073
550.00,0.0075
549.00,0.0076
548.00,0.0076
547.00,0.0077
546.00,0.0078
545.00,0.0080
544.00,0.0082
543.00,0.0083
542.00,0.0083
541.00,0.0082
540.00,0.0079
539.00,0.0077
538.00,0.0077
537.00,0.0080
536.00,0.0083
535.00,0.0088
534.00,0.0092
533.00,0.0095
532.00,0.0096
531.00,0.0096
530.00,0.0096
529.00,0.0097
528.00,0.0098
527.00,0.0098
526.00,0.0097
525.00,0.0095
524.00,0.0094
523.00,0.0092
522.00,0.0090
521.00,0.0088
520.00,0.0085
519.00,0.0083
518.00,0.0081
517.00,0.0080
516.00,0.0078
515.00,0.0076
514.00,0.0073
513.00,0.0070
512.00,0.0069
511.00,0.0069
510.00,0.0068
509.00,0.0063
508.00,0.0058
507.00,0.0054
506.00,0.0055
505.00,0.0057
504.00,0.0057
503.00,0.0055
502.00,0.0053
501.00,0.0052
500.00,0.0054
499.00,0.0059
498.00,0.0066
497.00,0.0072
496.00,0.0073
495.00,0.0070
494.00,0.0066
493.00,0.0063
492.00,0.0063
491.00,0.0064
490.00,0.0065
489.00,0.0065
488.00,0.0063
487.00,0.0059
486.00,0.0057
485.00,0.0059
484.00,0.0065
483.00,0.0071
482.00,0.0072
481.00,0.0072
480.00,0.0071
479.00,0.0072
478.00,0.0076
477.00,0.0081
476.00,0.0088
475.00,0.0096
474.00,0.0102
473.00,0.0102
472.00,0.0097
471.00,0.0089
470.00,0.0084
469.00,0.0084
468.00,0.0090
467.00,0.0101
466.00,0.0112
465.00,0.0122
464.00,0.0134
463.00,0.0147
462.00,0.0156
461.00,0.0161
460.00,0.0165
459.00,0.0171
458.00,0.0175
457.00,0.0171
456.00,0.0161
455.00,0.0153
454.00,0.0144
453.00,0.0131
452.00,0.0115
451.00,0.0103
450.00,0.0098
