Created as New Dataset,Sample 011 By Administrator Date Wednesday, September 10 2025
cm-1,A
4000.00,0.0009
3999.00,0.0009
3998.00,0.0009
3997.00,0.0009
3996.00,0.0009
3995.00,0.0009
3994.00,0.0009
3993.00,0.0009
3992.00,0.0009
3991.00,0.0009
3990.00,0.0009
3989.00,0.0009
3988.00,0.0009
3987.00,0.0008
3986.00,0.0008
3985.00,0.0008
3984.00,0.0008
3983.00,0.0008
3982.00,0.0008
3981.00,0.0008
3980.00,0.0007
3979.00,0.0007
3978.00,0.0008
3977.00,0.0008
3976.00,0.0008
3975.00,0.0008
3974.00,0.0008
3973.00,0.0008
3972.00,0.0007
3971.00,0.0007
3970.00,0.0007
3969.00,0.0007
3968.00,0.0007
3967.00,0.0007
3966.00,0.0007
3965.00,0.0007
3964.00,0.0007
3963.00,0.0007
3962.00,0.0007
3961.00,0.0007
3960.00,0.0006
3959.00,0.0006
3958.00,0.0006
3957.00,0.0006
3956.00,0.0006
3955.00,0.0006
3954.00,0.0006
3953.00,0.0007
3952.00,0.0006
3951.00,0.0006
3950.00,0.0006
3949.00,0.0006
3948.00,0.0006
3947.00,0.0006
3946.00,0.0006
3945.00,0.0006
3944.00,0.0006
3943.00,0.0007
3942.00,0.0007
3941.00,0.0007
3940.00,0.0007
3939.00,0.0007
3938.00,0.0007
3937.00,0.0007
3936.00,0.0007
3935.00,0.0007
3934.00,0.0007
3933.00,0.0007
3932.00,0.0007
3931.00,0.0006
3930.00,0.0006
3929.00,0.0006
3928.00,0.0006
3927.00,0.0006
3926.00,0.0007
3925.00,0.0007
3924.00,0.0007
3923.00,0.0007
3922.00,0.0007
3921.00,0.0007
3920.00,0.0006
3919.00,0.0006
3918.00,0.0006
3917.00,0.0006
3916.00,0.0006
3915.00,0.0006
3914.00,0.0006
3913.00,0.0007
3912.00,0.0007
3911.00,0.0007
3910.00,0.0007
3909.00,0.0007
3908.00,0.0006
3907.00,0.0006
3906.00,0.0005
3905.00,0.0005
3904.00,0.0005
3903.00,0.0005
3902.00,0.0005
3901.00,0.0005
3900.00,0.0005
3899.00,0.0005
3898.00,0.0006
3897.00,0.0006
3896.00,0.0007
3895.00,0.0007
3894.00,0.0007
3893.00,0.0007
3892.00,0.0007
3891.00,0.0007
3890.00,0.0007
3889.00,0.0006
3888.00,0.0006
3887.00,0.0006
3886.00,0.0006
3885.00,0.0006
3884.00,0.0006
3883.00,0.0006
3882.00,0.0006
3881.00,0.0006
3880.00,0.0006
3879.00,0.0006
3878.00,0.0006
3877.00,0.0006
3876.00,0.0006
3875.00,0.0006
3874.00,0.0006
3873.00,0.0006
3872.00,0.0005
3871.00,0.0005
3870.00,0.0004
3869.00,0.0005
3868.00,0.0005
3867.00,0.0005
3866.00,0.0005
3865.00,0.0006
3864.00,0.0006
3863.00,0.0007
3862.00,0.0007
3861.00,0.0006
3860.00,0.0006
3859.00,0.0006
3858.00,0.0006
3857.00,0.0006
3856.00,0.0005
3855.00,0.0005
3854.00,0.0005
3853.00,0.0005
3852.00,0.0005
3851.00,0.0005
3850.00,0.0005
3849.00,0.0005
3848.00,0.0005
3847.00,0.0006
3846.00,0.0006
3845.00,0.0006
3844.00,0.0006
3843.00,0.0006
3842.00,0.0006
3841.00,0.0005
3840.00,0.0005
3839.00,0.0005
3838.00,0.0005
3837.00,0.0005
3836.00,0.0005
3835.00,0.0005
3834.00,0.0006
3833.00,0.0006
3832.00,0.0006
3831.00,0.0006
3830.00,0.0006
3829.00,0.0006
3828.00,0.0006
3827.00,0.0006
3826.00,0.0006
3825.00,0.0007
3824.00,0.0007
3823.00,0.0007
3822.00,0.0007
3821.00,0.0008
3820.00,0.0008
3819.00,0.0008
3818.00,0.0008
3817.00,0.0007
3816.00,0.0007
3815.00,0.0007
3814.00,0.0007
3813.00,0.0007
3812.00,0.0006
3811.00,0.0006
3810.00,0.0006
3809.00,0.0006
3808.00,0.0006
3807.00,0.0006
3806.00,0.0006
3805.00,0.0006
3804.00,0.0006
3803.00,0.0006
3802.00,0.0007
3801.00,0.0007
3800.00,0.0007
3799.00,0.0007
3798.00,0.0007
3797.00,0.0007
3796.00,0.0007
3795.00,0.0007
3794.00,0.0006
3793.00,0.0006
3792.00,0.0006
3791.00,0.0006
3790.00,0.0006
3789.00,0.0006
3788.00,0.0005
3787.00,0.0005
3786.00,0.0006
3785.00,0.0006
3784.00,0.0006
3783.00,0.0007
3782.00,0.0006
3781.00,0.0006
3780.00,0.0006
3779.00,0.0006
3778.00,0.0006
3777.00,0.0006
3776.00,0.0006
3775.00,0.0006
3774.00,0.0007
3773.00,0.0007
3772.00,0.0007
3771.00,0.0007
3770.00,0.0007
3769.00,0.0007
3768.00,0.0007
3767.00,0.0007
3766.00,0.0007
3765.00,0.0007
3764.00,0.0007
3763.00,0.0007
3762.00,0.0007
3761.00,0.0007
3760.00,0.0007
3759.00,0.0007
3758.00,0.0007
3757.00,0.0007
3756.00,0.0007
3755.00,0.0006
3754.00,0.0006
3753.00,0.0005
3752.00,0.0005
3751.00,0.0005
3750.00,0.0005
3749.00,0.0005
3748.00,0.0005
3747.00,0.0006
3746.00,0.0006
3745.00,0.0006
3744.00,0.0006
3743.00,0.0005
3742.00,0.0005
3741.00,0.0004
3740.00,0.0004
3739.00,0.0004
3738.00,0.0004
3737.00,0.0005
3736.00,0.0006
3735.00,0.0006
3734.00,0.0006
3733.00,0.0006
3732.00,0.0005
3731.00,0.0005
3730.00,0.0005
3729.00,0.0005
3728.00,0.0004
3727.00,0.0004
3726.00,0.0003
3725.00,0.0003
3724.00,0.0003
3723.00,0.0004
3722.00,0.0004
3721.00,0.0005
3720.00,0.0005
3719.00,0.0005
3718.00,0.0005
3717.00,0.0005
3716.00,0.0005
3715.00,0.0005
3714.00,0.0006
3713.00,0.0006
3712.00,0.0007
3711.00,0.0007
3710.00,0.0007
3709.00,0.0007
3708.00,0.0006
3707.00,0.0006
3706.00,0.0006
3705.00,0.0005
3704.00,0.0005
3703.00,0.0005
3702.00,0.0005
3701.00,0.0005
3700.00,0.0005
3699.00,0.0005
3698.00,0.0005
3697.00,0.0005
3696.00,0.0005
3695.00,0.0006
3694.00,0.0006
3693.00,0.0006
3692.00,0.0006
3691.00,0.0006
3690.00,0.0006
3689.00,0.0005
3688.00,0.0005
3687.00,0.0005
3686.00,0.0005
3685.00,0.0005
3684.00,0.0005
3683.00,0.0005
3682.00,0.0005
3681.00,0.0005
3680.00,0.0005
3679.00,0.0005
3678.00,0.0005
3677.00,0.0005
3676.00,0.0005
3675.00,0.0005
3674.00,0.0005
3673.00,0.0004
3672.00,0.0004
3671.00,0.0004
3670.00,0.0004
3669.00,0.0004
3668.00,0.0004
3667.00,0.0005
3666.00,0.0005
3665.00,0.0005
3664.00,0.0005
3663.00,0.0005
3662.00,0.0005
3661.00,0.0005
3660.00,0.0006
3659.00,0.0005
3658.00,0.0005
3657.00,0.0005
3656.00,0.0005
3655.00,0.0005
3654.00,0.0005
3653.00,0.0004
3652.00,0.0004
3651.00,0.0004
3650.00,0.0005
3649.00,0.0006
3648.00,0.0007
3647.00,0.0007
3646.00,0.0007
3645.00,0.0006
3644.00,0.0006
3643.00,0.0006
3642.00,0.0006
3641.00,0.0006
3640.00,0.0007
3639.00,0.0007
3638.00,0.0008
3637.00,0.0008
3636.00,0.0008
3635.00,0.0008
3634.00,0.0008
3633.00,0.0008
3632.00,0.0008
3631.00,0.0007
3630.00,0.0007
3629.00,0.0007
3628.00,0.0007
3627.00,0.0008
3626.00,0.0009
3625.00,0.0009
3624.00,0.0010
3623.00,0.0010
3622.00,0.0010
3621.00,0.0010
3620.00,0.0010
3619.00,0.0010
3618.00,0.0011
3617.00,0.0011
3616.00,0.0011
3615.00,0.0011
3614.00,0.0011
3613.00,0.0011
3612.00,0.0011
3611.00,0.0011
3610.00,0.0011
3609.00,0.0010
3608.00,0.0011
3607.00,0.0011
3606.00,0.0011
3605.00,0.0012
3604.00,0.0012
3603.00,0.0012
3602.00,0.0013
3601.00,0.0014
3600.00,0.0014
3599.00,0.0013
3598.00,0.0013
3597.00,0.0012
3596.00,0.0012
3595.00,0.0013
3594.00,0.0014
3593.00,0.0015
3592.00,0.0015
3591.00,0.0015
3590.00,0.0015
3589.00,0.0015
3588.00,0.0015
3587.00,0.0015
3586.00,0.0016
3585.00,0.0016
3584.00,0.0016
3583.00,0.0016
3582.00,0.0016
3581.00,0.0017
3580.00,0.0017
3579.00,0.0017
3578.00,0.0018
3577.00,0.0018
3576.00,0.0018
3575.00,0.0019
3574.00,0.0019
3573.00,0.0019
3572.00,0.0020
3571.00,0.0020
3570.00,0.0020
3569.00,0.0020
3568.00,0.0020
3567.00,0.0021
3566.00,0.0022
3565.00,0.0022
3564.00,0.0023
3563.00,0.0023
3562.00,0.0023
3561.00,0.0023
3560.00,0.0023
3559.00,0.0024
3558.00,0.0024
3557.00,0.0024
3556.00,0.0024
3555.00,0.0024
3554.00,0.0024
3553.00,0.0025
3552.00,0.0026
3551.00,0.0026
3550.00,0.0026
3549.00,0.0026
3548.00,0.0027
3547.00,0.0027
3546.00,0.0028
3545.00,0.0028
3544.00,0.0029
3543.00,0.0029
3542.00,0.0030
3541.00,0.0030
3540.00,0.0030
3539.00,0.0029
3538.00,0.0030
3537.00,0.0030
3536.00,0.0031
3535.00,0.0031
3534.00,0.0032
3533.00,0.0032
3532.00,0.0032
3531.00,0.0032
3530.00,0.0033
3529.00,0.0034
3528.00,0.0034
3527.00,0.0035
3526.00,0.0035
3525.00,0.0035
3524.00,0.0035
3523.00,0.0035
3522.00,0.0035
3521.00,0.0035
3520.00,0.0036
3519.00,0.0036
3518.00,0.0037
3517.00,0.0037
3516.00,0.0037
3515.00,0.0037
3514.00,0.0038
3513.00,0.0038
3512.00,0.0039
3511.00,0.0039
3510.00,0.0040
3509.00,0.0040
3508.00,0.0040
3507.00,0.0041
3506.00,0.0041
3505.00,0.0041
3504.00,0.0042
3503.00,0.0042
3502.00,0.0043
3501.00,0.0043
3500.00,0.0044
3499.00,0.0044
3498.00,0.0044
3497.00,0.0044
3496.00,0.0044
3495.00,0.0045
3494.00,0.0045
3493.00,0.0046
3492.00,0.0046
3491.00,0.0046
3490.00,0.0046
3489.00,0.0047
3488.00,0.0047
3487.00,0.0048
3486.00,0.0048
3485.00,0.0049
3484.00,0.0049
3483.00,0.0049
3482.00,0.0049
3481.00,0.0050
3480.00,0.0050
3479.00,0.0050
3478.00,0.0050
3477.00,0.0051
3476.00,0.0051
3475.00,0.0052
3474.00,0.0052
3473.00,0.0052
3472.00,0.0052
3471.00,0.0052
3470.00,0.0053
3469.00,0.0053
3468.00,0.0054
3467.00,0.0054
3466.00,0.0055
3465.00,0.0055
3464.00,0.0055
3463.00,0.0055
3462.00,0.0055
3461.00,0.0055
3460.00,0.0056
3459.00,0.0056
3458.00,0.0057
3457.00,0.0057
3456.00,0.0057
3455.00,0.0057
3454.00,0.0057
3453.00,0.0058
3452.00,0.0058
3451.00,0.0058
3450.00,0.0058
3449.00,0.0059
3448.00,0.0059
3447.00,0.0059
3446.00,0.0060
3445.00,0.0060
3444.00,0.0060
3443.00,0.0060
3442.00,0.0061
3441.00,0.0061
3440.00,0.0061
3439.00,0.0062
3438.00,0.0062
3437.00,0.0062
3436.00,0.0062
3435.00,0.0062
3434.00,0.0063
3433.00,0.0063
3432.00,0.0063
3431.00,0.0063
3430.00,0.0064
3429.00,0.0064
3428.00,0.0064
3427.00,0.0064
3426.00,0.0065
3425.00,0.0065
3424.00,0.0065
3423.00,0.0065
3422.00,0.0066
3421.00,0.0066
3420.00,0.0066
3419.00,0.0066
3418.00,0.0067
3417.00,0.0067
3416.00,0.0068
3415.00,0.0068
3414.00,0.0068
3413.00,0.0069
3412.00,0.0069
3411.00,0.0069
3410.00,0.0069
3409.00,0.0069
3408.00,0.0069
3407.00,0.0069
3406.00,0.0069
3405.00,0.0070
3404.00,0.0070
3403.00,0.0070
3402.00,0.0070
3401.00,0.0071
3400.00,0.0071
3399.00,0.0071
3398.00,0.0071
3397.00,0.0071
3396.00,0.0071
3395.00,0.0071
3394.00,0.0071
3393.00,0.0071
3392.00,0.0072
3391.00,0.0072
3390.00,0.0072
3389.00,0.0072
3388.00,0.0072
3387.00,0.0071
3386.00,0.0071
3385.00,0.0071
3384.00,0.0071
3383.00,0.0072
3382.00,0.0072
3381.00,0.0072
3380.00,0.0072
3379.00,0.0073
3378.00,0.0073
3377.00,0.0073
3376.00,0.0072
3375.00,0.0072
3374.00,0.0072
3373.00,0.0073
3372.00,0.0073
3371.00,0.0074
3370.00,0.0074
3369.00,0.0074
3368.00,0.0074
3367.00,0.0074
3366.00,0.0074
3365.00,0.0074
3364.00,0.0074
3363.00,0.0073
3362.00,0.0073
3361.00,0.0072
3360.00,0.0072
3359.00,0.0072
3358.00,0.0072
3357.00,0.0073
3356.00,0.0073
3355.00,0.0073
3354.00,0.0073
3353.00,0.0073
3352.00,0.0074
3351.00,0.0074
3350.00,0.0074
3349.00,0.0074
3348.00,0.0074
3347.00,0.0074
3346.00,0.0074
3345.00,0.0074
3344.00,0.0074
3343.00,0.0074
3342.00,0.0073
3341.00,0.0073
3340.00,0.0073
3339.00,0.0073
3338.00,0.0073
3337.00,0.0073
3336.00,0.0072
3335.00,0.0072
3334.00,0.0072
3333.00,0.0072
3332.00,0.0072
3331.00,0.0073
3330.00,0.0073
3329.00,0.0072
3328.00,0.0072
3327.00,0.0072
3326.00,0.0071
3325.00,0.0072
3324.00,0.0072
3323.00,0.0072
3322.00,0.0072
3321.00,0.0072
3320.00,0.0072
3319.00,0.0071
3318.00,0.0071
3317.00,0.0071
3316.00,0.0071
3315.00,0.0071
3314.00,0.0071
3313.00,0.0071
3312.00,0.0071
3311.00,0.0070
3310.00,0.0070
3309.00,0.0070
3308.00,0.0070
3307.00,0.0070
3306.00,0.0070
3305.00,0.0070
3304.00,0.0070
3303.00,0.0070
3302.00,0.0070
3301.00,0.0070
3300.00,0.0070
3299.00,0.0070
3298.00,0.0070
3297.00,0.0070
3296.00,0.0069
3295.00,0.0069
3294.00,0.0068
3293.00,0.0068
3292.00,0.0068
3291.00,0.0068
3290.00,0.0068
3289.00,0.0068
3288.00,0.0067
3287.00,0.0067
3286.00,0.0067
3285.00,0.0067
3284.00,0.0067
3283.00,0.0067
3282.00,0.0066
3281.00,0.0066
3280.00,0.0065
3279.00,0.0065
3278.00,0.0065
3277.00,0.0065
3276.00,0.0065
3275.00,0.0065
3274.00,0.0065
3273.00,0.0065
3272.00,0.0065
3271.00,0.0064
3270.00,0.0063
3269.00,0.0063
3268.00,0.0063
3267.00,0.0063
3266.00,0.0063
3265.00,0.0062
3264.00,0.0062
3263.00,0.0062
3262.00,0.0062
3261.00,0.0062
3260.00,0.0062
3259.00,0.0061
3258.00,0.0061
3257.00,0.0060
3256.00,0.0060
3255.00,0.0060
3254.00,0.0060
3253.00,0.0059
3252.00,0.0059
3251.00,0.0059
3250.00,0.0059
3249.00,0.0059
3248.00,0.0059
3247.00,0.0059
3246.00,0.0058
3245.00,0.0058
3244.00,0.0058
3243.00,0.0058
3242.00,0.0058
3241.00,0.0058
3240.00,0.0058
3239.00,0.0057
3238.00,0.0057
3237.00,0.0057
3236.00,0.0057
3235.00,0.0057
3234.00,0.0057
3233.00,0.0057
3232.00,0.0057
3231.00,0.0057
3230.00,0.0057
3229.00,0.0057
3228.00,0.0057
3227.00,0.0057
3226.00,0.0057
3225.00,0.0057
3224.00,0.0057
3223.00,0.0057
3222.00,0.0057
3221.00,0.0057
3220.00,0.0057
3219.00,0.0057
3218.00,0.0057
3217.00,0.0058
3216.00,0.0058
3215.00,0.0059
3214.00,0.0059
3213.00,0.0059
3212.00,0.0059
3211.00,0.0059
3210.00,0.0059
3209.00,0.0059
3208.00,0.0059
3207.00,0.0059
3206.00,0.0059
3205.00,0.0059
3204.00,0.0059
3203.00,0.0059
3202.00,0.0059
3201.00,0.0059
3200.00,0.0059
3199.00,0.0059
3198.00,0.0058
3197.00,0.0058
3196.00,0.0058
3195.00,0.0058
3194.00,0.0058
3193.00,0.0058
3192.00,0.0058
3191.00,0.0058
3190.00,0.0058
3189.00,0.0059
3188.00,0.0059
3187.00,0.0058
3186.00,0.0058
3185.00,0.0058
3184.00,0.0057
3183.00,0.0056
3182.00,0.0056
3181.00,0.0055
3180.00,0.0055
3179.00,0.0054
3178.00,0.0054
3177.00,0.0054
3176.00,0.0054
3175.00,0.0054
3174.00,0.0054
3173.00,0.0054
3172.00,0.0053
3171.00,0.0053
3170.00,0.0053
3169.00,0.0053
3168.00,0.0053
3167.00,0.0053
3166.00,0.0053
3165.00,0.0053
3164.00,0.0053
3163.00,0.0053
3162.00,0.0052
3161.00,0.0052
3160.00,0.0051
3159.00,0.0051
3158.00,0.0050
3157.00,0.0050
3156.00,0.0050
3155.00,0.0050
3154.00,0.0051
3153.00,0.0051
3152.00,0.0051
3151.00,0.0050
3150.00,0.0050
3149.00,0.0050
3148.00,0.0050
3147.00,0.0050
3146.00,0.0050
3145.00,0.0050
3144.00,0.0050
3143.00,0.0049
3142.00,0.0049
3141.00,0.0048
3140.00,0.0047
3139.00,0.0047
3138.00,0.0047
3137.00,0.0047
3136.00,0.0047
3135.00,0.0047
3134.00,0.0047
3133.00,0.0047
3132.00,0.0047
3131.00,0.0046
3130.00,0.0046
3129.00,0.0046
3128.00,0.0045
3127.00,0.0044
3126.00,0.0044
3125.00,0.0044
3124.00,0.0044
3123.00,0.0043
3122.00,0.0043
3121.00,0.0042
3120.00,0.0042
3119.00,0.0042
3118.00,0.0042
3117.00,0.0042
3116.00,0.0042
3115.00,0.0042
3114.00,0.0042
3113.00,0.0041
3112.00,0.0041
3111.00,0.0040
3110.00,0.0040
3109.00,0.0040
3108.00,0.0040
3107.00,0.0039
3106.00,0.0039
3105.00,0.0039
3104.00,0.0039
3103.00,0.0039
3102.00,0.0039
3101.00,0.0039
3100.00,0.0039
3099.00,0.0039
3098.00,0.0039
3097.00,0.0039
3096.00,0.0039
3095.00,0.0039
3094.00,0.0038
3093.00,0.0038
3092.00,0.0038
3091.00,0.0038
3090.00,0.0038
3089.00,0.0038
3088.00,0.0038
3087.00,0.0038
3086.00,0.0037
3085.00,0.0037
3084.00,0.0037
3083.00,0.0037
3082.00,0.0037
3081.00,0.0037
3080.00,0.0037
3079.00,0.0036
3078.00,0.0036
3077.00,0.0036
3076.00,0.0036
3075.00,0.0037
3074.00,0.0037
3073.00,0.0037
3072.00,0.0038
3071.00,0.0038
3070.00,0.0038
3069.00,0.0038
3068.00,0.0038
3067.00,0.0038
3066.00,0.0038
3065.00,0.0039
3064.00,0.0039
3063.00,0.0039
3062.00,0.0039
3061.00,0.0039
3060.00,0.0039
3059.00,0.0039
3058.00,0.0039
3057.00,0.0039
3056.00,0.0039
3055.00,0.0038
3054.00,0.0038
3053.00,0.0039
3052.00,0.0039
3051.00,0.0039
3050.00,0.0040
3049.00,0.0040
3048.00,0.0040
3047.00,0.0040
3046.00,0.0040
3045.00,0.0040
3044.00,0.0041
3043.00,0.0041
3042.00,0.0041
3041.00,0.0041
3040.00,0.0042
3039.00,0.0043
3038.00,0.0043
3037.00,0.0044
3036.00,0.0044
3035.00,0.0044
3034.00,0.0044
3033.00,0.0044
3032.00,0.0045
3031.00,0.0045
3030.00,0.0046
3029.00,0.0046
3028.00,0.0046
3027.00,0.0047
3026.00,0.0048
3025.00,0.0048
3024.00,0.0049
3023.00,0.0049
3022.00,0.0050
3021.00,0.0050
3020.00,0.0051
3019.00,0.0052
3018.00,0.0052
3017.00,0.0053
3016.00,0.0053
3015.00,0.0054
3014.00,0.0055
3013.00,0.0056
3012.00,0.0057
3011.00,0.0058
3010.00,0.0059
3009.00,0.0061
3008.00,0.0062
3007.00,0.0064
3006.00,0.0065
3005.00,0.0067
3004.00,0.0068
3003.00,0.0070
3002.00,0.0072
3001.00,0.0073
3000.00,0.0076
2999.00,0.0079
2998.00,0.0082
2997.00,0.0085
2996.00,0.0088
2995.00,0.0092
2994.00,0.0096
2993.00,0.0101
2992.00,0.0106
2991.00,0.0112
2990.00,0.0118
2989.00,0.0125
2988.00,0.0132
2987.00,0.0141
2986.00,0.0150
2985.00,0.0160
2984.00,0.0171
2983.00,0.0184
2982.00,0.0199
2981.00,0.0215
2980.00,0.0234
2979.00,0.0256
2978.00,0.0280
2977.00,0.0308
2976.00,0.0340
2975.00,0.0375
2974.00,0.0416
2973.00,0.0462
2972.00,0.0514
2971.00,0.0571
2970.00,0.0636
2969.00,0.0706
2968.00,0.0782
2967.00,0.0861
2966.00,0.0944
2965.00,0.1026
2964.00,0.1105
2963.00,0.1177
2962.00,0.1240
2961.00,0.1293
2960.00,0.1337
2959.00,0.1377
2958.00,0.1417
2957.00,0.1463
2956.00,0.1520
2955.00,0.1589
2954.00,0.1670
2953.00,0.1756
2952.00,0.1839
2951.00,0.1907
2950.00,0.1948
2949.00,0.1950
2948.00,0.1908
2947.00,0.1825
2946.00,0.1710
2945.00,0.1578
2944.00,0.1444
2943.00,0.1323
2942.00,0.1225
2941.00,0.1153
2940.00,0.1108
2939.00,0.1088
2938.00,0.1090
2937.00,0.1112
2936.00,0.1151
2935.00,0.1207
2934.00,0.1277
2933.00,0.1361
2932.00,0.1457
2931.00,0.1563
2930.00,0.1676
2929.00,0.1793
2928.00,0.1911
2927.00,0.2026
2926.00,0.2137
2925.00,0.2243
2924.00,0.2347
2923.00,0.2449
2922.00,0.2550
2921.00,0.2648
2920.00,0.2736
2919.00,0.2806
2918.00,0.2846
2917.00,0.2848
2916.00,0.2810
2915.00,0.2735
2914.00,0.2633
2913.00,0.2516
2912.00,0.2397
2911.00,0.2282
2910.00,0.2177
2909.00,0.2081
2908.00,0.1992
2907.00,0.1909
2906.00,0.1829
2905.00,0.1750
2904.00,0.1672
2903.00,0.1596
2902.00,0.1521
2901.00,0.1450
2900.00,0.1382
2899.00,0.1318
2898.00,0.1260
2897.00,0.1207
2896.00,0.1162
2895.00,0.1123
2894.00,0.1091
2893.00,0.1067
2892.00,0.1050
2891.00,0.1039
2890.00,0.1034
2889.00,0.1033
2888.00,0.1037
2887.00,0.1045
2886.00,0.1057
2885.00,0.1072
2884.00,0.1092
2883.00,0.1118
2882.00,0.1148
2881.00,0.1182
2880.00,0.1216
2879.00,0.1246
2878.00,0.1267
2877.00,0.1277
2876.00,0.1278
2875.00,0.1271
2874.00,0.1264
2873.00,0.1261
2872.00,0.1265
2871.00,0.1278
2870.00,0.1298
2869.00,0.1321
2868.00,0.1339
2867.00,0.1342
2866.00,0.1322
2865.00,0.1273
2864.00,0.1198
2863.00,0.1106
2862.00,0.1008
2861.00,0.0915
2860.00,0.0834
2859.00,0.0769
2858.00,0.0720
2857.00,0.0684
2856.00,0.0660
2855.00,0.0646
2854.00,0.0639
2853.00,0.0638
2852.00,0.0644
2851.00,0.0654
2850.00,0.0670
2849.00,0.0690
2848.00,0.0718
2847.00,0.0752
2846.00,0.0796
2845.00,0.0848
2844.00,0.0909
2843.00,0.0976
2842.00,0.1046
2841.00,0.1112
2840.00,0.1168
2839.00,0.1205
2838.00,0.1215
2837.00,0.1192
2836.00,0.1134
2835.00,0.1049
2834.00,0.0945
2833.00,0.0836
2832.00,0.0730
2831.00,0.0637
2830.00,0.0557
2829.00,0.0492
2828.00,0.0439
2827.00,0.0397
2826.00,0.0362
2825.00,0.0334
2824.00,0.0310
2823.00,0.0290
2822.00,0.0274
2821.00,0.0259
2820.00,0.0246
2819.00,0.0235
2818.00,0.0226
2817.00,0.0218
2816.00,0.0210
2815.00,0.0204
2814.00,0.0198
2813.00,0.0192
2812.00,0.0186
2811.00,0.0181
2810.00,0.0175
2809.00,0.0169
2808.00,0.0163
2807.00,0.0156
2806.00,0.0149
2805.00,0.0143
2804.00,0.0137
2803.00,0.0131
2802.00,0.0126
2801.00,0.0121
2800.00,0.0117
2799.00,0.0114
2798.00,0.0111
2797.00,0.0108
2796.00,0.0105
2795.00,0.0103
2794.00,0.0101
2793.00,0.0098
2792.00,0.0096
2791.00,0.0093
2790.00,0.0090
2789.00,0.0087
2788.00,0.0084
2787.00,0.0081
2786.00,0.0078
2785.00,0.0076
2784.00,0.0074
2783.00,0.0072
2782.00,0.0070
2781.00,0.0069
2780.00,0.0067
2779.00,0.0066
2778.00,0.0064
2777.00,0.0063
2776.00,0.0062
2775.00,0.0061
2774.00,0.0059
2773.00,0.0058
2772.00,0.0058
2771.00,0.0057
2770.00,0.0057
2769.00,0.0057
2768.00,0.0056
2767.00,0.0056
2766.00,0.0056
2765.00,0.0056
2764.00,0.0055
2763.00,0.0055
2762.00,0.0055
2761.00,0.0054
2760.00,0.0053
2759.00,0.0053
2758.00,0.0052
2757.00,0.0052
2756.00,0.0052
2755.00,0.0052
2754.00,0.0052
2753.00,0.0052
2752.00,0.0052
2751.00,0.0051
2750.00,0.0051
2749.00,0.0051
2748.00,0.0052
2747.00,0.0052
2746.00,0.0053
2745.00,0.0053
2744.00,0.0054
2743.00,0.0055
2742.00,0.0056
2741.00,0.0057
2740.00,0.0058
2739.00,0.0060
2738.00,0.0061
2737.00,0.0063
2736.00,0.0064
2735.00,0.0066
2734.00,0.0067
2733.00,0.0069
2732.00,0.0071
2731.00,0.0073
2730.00,0.0076
2729.00,0.0078
2728.00,0.0081
2727.00,0.0084
2726.00,0.0087
2725.00,0.0089
2724.00,0.0091
2723.00,0.0091
2722.00,0.0090
2721.00,0.0088
2720.00,0.0085
2719.00,0.0082
2718.00,0.0079
2717.00,0.0076
2716.00,0.0073
2715.00,0.0070
2714.00,0.0067
2713.00,0.0064
2712.00,0.0061
2711.00,0.0059
2710.00,0.0057
2709.00,0.0056
2708.00,0.0055
2707.00,0.0053
2706.00,0.0052
2705.00,0.0051
2704.00,0.0050
2703.00,0.0049
2702.00,0.0048
2701.00,0.0047
2700.00,0.0046
2699.00,0.0046
2698.00,0.0045
2697.00,0.0044
2696.00,0.0044
2695.00,0.0044
2694.00,0.0044
2693.00,0.0044
2692.00,0.0045
2691.00,0.0045
2690.00,0.0045
2689.00,0.0045
2688.00,0.0045
2687.00,0.0045
2686.00,0.0045
2685.00,0.0045
2684.00,0.0045
2683.00,0.0044
2682.00,0.0044
2681.00,0.0044
2680.00,0.0044
2679.00,0.0044
2678.00,0.0045
2677.00,0.0045
2676.00,0.0045
2675.00,0.0045
2674.00,0.0045
2673.00,0.0045
2672.00,0.0045
2671.00,0.0044
2670.00,0.0044
2669.00,0.0044
2668.00,0.0044
2667.00,0.0044
2666.00,0.0044
2665.00,0.0045
2664.00,0.0045
2663.00,0.0046
2662.00,0.0047
2661.00,0.0047
2660.00,0.0048
2659.00,0.0048
2658.00,0.0048
2657.00,0.0048
2656.00,0.0047
2655.00,0.0046
2654.00,0.0046
2653.00,0.0045
2652.00,0.0045
2651.00,0.0044
2650.00,0.0043
2649.00,0.0042
2648.00,0.0042
2647.00,0.0042
2646.00,0.0041
2645.00,0.0041
2644.00,0.0040
2643.00,0.0040
2642.00,0.0039
2641.00,0.0039
2640.00,0.0038
2639.00,0.0038
2638.00,0.0038
2637.00,0.0038
2636.00,0.0038
2635.00,0.0038
2634.00,0.0038
2633.00,0.0037
2632.00,0.0037
2631.00,0.0037
2630.00,0.0037
2629.00,0.0038
2628.00,0.0038
2627.00,0.0039
2626.00,0.0039
2625.00,0.0039
2624.00,0.0040
2623.00,0.0040
2622.00,0.0040
2621.00,0.0040
2620.00,0.0040
2619.00,0.0040
2618.00,0.0040
2617.00,0.0040
2616.00,0.0040
2615.00,0.0040
2614.00,0.0040
2613.00,0.0039
2612.00,0.0038
2611.00,0.0037
2610.00,0.0036
2609.00,0.0036
2608.00,0.0035
2607.00,0.0035
2606.00,0.0034
2605.00,0.0034
2604.00,0.0033
2603.00,0.0032
2602.00,0.0032
2601.00,0.0032
2600.00,0.0032
2599.00,0.0033
2598.00,0.0033
2597.00,0.0033
2596.00,0.0033
2595.00,0.0033
2594.00,0.0033
2593.00,0.0034
2592.00,0.0034
2591.00,0.0034
2590.00,0.0035
2589.00,0.0035
2588.00,0.0036
2587.00,0.0037
2586.00,0.0038
2585.00,0.0039
2584.00,0.0040
2583.00,0.0040
2582.00,0.0040
2581.00,0.0040
2580.00,0.0039
2579.00,0.0038
2578.00,0.0037
2577.00,0.0036
2576.00,0.0035
2575.00,0.0034
2574.00,0.0033
2573.00,0.0032
2572.00,0.0031
2571.00,0.0030
2570.00,0.0030
2569.00,0.0029
2568.00,0.0028
2567.00,0.0027
2566.00,0.0026
2565.00,0.0025
2564.00,0.0025
2563.00,0.0025
2562.00,0.0024
2561.00,0.0024
2560.00,0.0023
2559.00,0.0023
2558.00,0.0022
2557.00,0.0022
2556.00,0.0022
2555.00,0.0022
2554.00,0.0022
2553.00,0.0022
2552.00,0.0022
2551.00,0.0022
2550.00,0.0021
2549.00,0.0021
2548.00,0.0020
2547.00,0.0020
2546.00,0.0019
2545.00,0.0019
2544.00,0.0019
2543.00,0.0019
2542.00,0.0018
2541.00,0.0018
2540.00,0.0017
2539.00,0.0017
2538.00,0.0016
2537.00,0.0016
2536.00,0.0016
2535.00,0.0016
2534.00,0.0017
2533.00,0.0016
2532.00,0.0016
2531.00,0.0015
2530.00,0.0015
2529.00,0.0015
2528.00,0.0015
2527.00,0.0015
2526.00,0.0015
2525.00,0.0015
2524.00,0.0014
2523.00,0.0014
2522.00,0.0013
2521.00,0.0013
2520.00,0.0013
2519.00,0.0013
2518.00,0.0014
2517.00,0.0014
2516.00,0.0013
2515.00,0.0012
2514.00,0.0011
2513.00,0.0011
2512.00,0.0011
2511.00,0.0011
2510.00,0.0011
2509.00,0.0010
2508.00,0.0010
2507.00,0.0010
2506.00,0.0010
2505.00,0.0011
2504.00,0.0011
2503.00,0.0011
2502.00,0.0010
2501.00,0.0010
2500.00,0.0010
2499.00,0.0010
2498.00,0.0010
2497.00,0.0010
2496.00,0.0011
2495.00,0.0011
2494.00,0.0011
2493.00,0.0011
2492.00,0.0011
2491.00,0.0011
2490.00,0.0011
2489.00,0.0011
2488.00,0.0011
2487.00,0.0011
2486.00,0.0010
2485.00,0.0010
2484.00,0.0010
2483.00,0.0009
2482.00,0.0009
2481.00,0.0009
2480.00,0.0008
2479.00,0.0009
2478.00,0.0010
2477.00,0.0010
2476.00,0.0010
2475.00,0.0010
2474.00,0.0009
2473.00,0.0009
2472.00,0.0009
2471.00,0.0009
2470.00,0.0009
2469.00,0.0009
2468.00,0.0009
2467.00,0.0009
2466.00,0.0008
2465.00,0.0008
2464.00,0.0009
2463.00,0.0009
2462.00,0.0009
2461.00,0.0009
2460.00,0.0009
2459.00,0.0009
2458.00,0.0009
2457.00,0.0010
2456.00,0.0011
2455.00,0.0011
2454.00,0.0011
2453.00,0.0011
2452.00,0.0011
2451.00,0.0011
2450.00,0.0011
2449.00,0.0011
2448.00,0.0011
2447.00,0.0011
2446.00,0.0011
2445.00,0.0011
2444.00,0.0011
2443.00,0.0011
2442.00,0.0010
2441.00,0.0009
2440.00,0.0009
2439.00,0.0009
2438.00,0.0009
2437.00,0.0010
2436.00,0.0011
2435.00,0.0012
2434.00,0.0012
2433.00,0.0012
2432.00,0.0012
2431.00,0.0011
2430.00,0.0011
2429.00,0.0011
2428.00,0.0011
2427.00,0.0011
2426.00,0.0011
2425.00,0.0011
2424.00,0.0011
2423.00,0.0011
2422.00,0.0011
2421.00,0.0011
2420.00,0.0011
2419.00,0.0010
2418.00,0.0010
2417.00,0.0010
2416.00,0.0010
2415.00,0.0010
2414.00,0.0010
2413.00,0.0010
2412.00,0.0010
2411.00,0.0010
2410.00,0.0010
2409.00,0.0010
2408.00,0.0010
2407.00,0.0010
2406.00,0.0009
2405.00,0.0009
2404.00,0.0008
2403.00,0.0007
2402.00,0.0007
2401.00,0.0007
2400.00,0.0008
2399.00,0.0008
2398.00,0.0009
2397.00,0.0009
2396.00,0.0009
2395.00,0.0009
2394.00,0.0009
2393.00,0.0008
2392.00,0.0007
2391.00,0.0007
2390.00,0.0007
2389.00,0.0007
2388.00,0.0007
2387.00,0.0007
2386.00,0.0008
2385.00,0.0008
2384.00,0.0008
2383.00,0.0008
2382.00,0.0007
2381.00,0.0006
2380.00,0.0005
2379.00,0.0004
2378.00,0.0004
2377.00,0.0004
2376.00,0.0004
2375.00,0.0004
2374.00,0.0004
2373.00,0.0004
2372.00,0.0004
2371.00,0.0004
2370.00,0.0003
2369.00,0.0003
2368.00,0.0002
2367.00,0.0002
2366.00,0.0002
2365.00,0.0002
2364.00,0.0002
2363.00,0.0002
2362.00,0.0002
2361.00,0.0003
2360.00,0.0003
2359.00,0.0003
2358.00,0.0004
2357.00,0.0004
2356.00,0.0004
2355.00,0.0004
2354.00,0.0003
2353.00,0.0003
2352.00,0.0003
2351.00,0.0003
2350.00,0.0003
2349.00,0.0003
2348.00,0.0004
2347.00,0.0004
2346.00,0.0004
2345.00,0.0003
2344.00,0.0003
2343.00,0.0004
2342.00,0.0005
2341.00,0.0006
2340.00,0.0006
2339.00,0.0007
2338.00,0.0007
2337.00,0.0006
2336.00,0.0006
2335.00,0.0006
2334.00,0.0006
2333.00,0.0006
2332.00,0.0005
2331.00,0.0005
2330.00,0.0005
2329.00,0.0006
2328.00,0.0009
2327.00,0.0012
2326.00,0.0016
2325.00,0.0019
2324.00,0.0020
2323.00,0.0018
2322.00,0.0016
2321.00,0.0015
2320.00,0.0013
2319.00,0.0012
2318.00,0.0011
2317.00,0.0010
2316.00,0.0010
2315.00,0.0010
2314.00,0.0010
2313.00,0.0010
2312.00,0.0010
2311.00,0.0010
2310.00,0.0010
2309.00,0.0010
2308.00,0.0010
2307.00,0.0010
2306.00,0.0010
2305.00,0.0011
2304.00,0.0011
2303.00,0.0011
2302.00,0.0012
2301.00,0.0013
2300.00,0.0013
2299.00,0.0013
2298.00,0.0013
2297.00,0.0013
2296.00,0.0012
2295.00,0.0012
2294.00,0.0013
2293.00,0.0014
2292.00,0.0016
2291.00,0.0017
2290.00,0.0019
2289.00,0.0019
2288.00,0.0020
2287.00,0.0020
2286.00,0.0020
2285.00,0.0019
2284.00,0.0019
2283.00,0.0018
2282.00,0.0017
2281.00,0.0016
2280.00,0.0016
2279.00,0.0015
2278.00,0.0014
2277.00,0.0013
2276.00,0.0013
2275.00,0.0013
2274.00,0.0014
2273.00,0.0015
2272.00,0.0016
2271.00,0.0017
2270.00,0.0016
2269.00,0.0015
2268.00,0.0013
2267.00,0.0012
2266.00,0.0012
2265.00,0.0012
2264.00,0.0011
2263.00,0.0011
2262.00,0.0010
2261.00,0.0011
2260.00,0.0012
2259.00,0.0012
2258.00,0.0012
2257.00,0.0012
2256.00,0.0011
2255.00,0.0010
2254.00,0.0010
2253.00,0.0010
2252.00,0.0010
2251.00,0.0009
2250.00,0.0008
2249.00,0.0007
2248.00,0.0006
2247.00,0.0008
2246.00,0.0010
2245.00,0.0012
2244.00,0.0013
2243.00,0.0013
2242.00,0.0012
2241.00,0.0011
2240.00,0.0011
2239.00,0.0010
2238.00,0.0010
2237.00,0.0010
2236.00,0.0010
2235.00,0.0010
2234.00,0.0009
2233.00,0.0008
2232.00,0.0007
2231.00,0.0007
2230.00,0.0007
2229.00,0.0008
2228.00,0.0008
2227.00,0.0008
2226.00,0.0008
2225.00,0.0008
2224.00,0.0009
2223.00,0.0008
2222.00,0.0006
2221.00,0.0005
2220.00,0.0005
2219.00,0.0005
2218.00,0.0005
2217.00,0.0005
2216.00,0.0005
2215.00,0.0004
2214.00,0.0003
2213.00,0.0003
2212.00,0.0003
2211.00,0.0004
2210.00,0.0004
2209.00,0.0004
2208.00,0.0004
2207.00,0.0006
2206.00,0.0007
2205.00,0.0008
2204.00,0.0007
2203.00,0.0006
2202.00,0.0005
2201.00,0.0006
2200.00,0.0008
2199.00,0.0009
2198.00,0.0010
2197.00,0.0011
2196.00,0.0012
2195.00,0.0013
2194.00,0.0014
2193.00,0.0015
2192.00,0.0015
2191.00,0.0015
2190.00,0.0015
2189.00,0.0015
2188.00,0.0015
2187.00,0.0014
2186.00,0.0013
2185.00,0.0011
2184.00,0.0008
2183.00,0.0005
2182.00,0.0003
2181.00,0.0003
2180.00,0.0004
2179.00,0.0006
2178.00,0.0008
2177.00,0.0010
2176.00,0.0009
2175.00,0.0007
2174.00,0.0005
2173.00,0.0004
2172.00,0.0004
2171.00,0.0004
2170.00,0.0005
2169.00,0.0008
2168.00,0.0012
2167.00,0.0016
2166.00,0.0019
2165.00,0.0022
2164.00,0.0025
2163.00,0.0028
2162.00,0.0028
2161.00,0.0022
2160.00,0.0010
2159.00,-0.0005
2158.00,-0.0018
2157.00,-0.0025
2156.00,-0.0027
2155.00,-0.0025
2154.00,-0.0021
2153.00,-0.0018
2152.00,-0.0015
2151.00,-0.0014
2150.00,-0.0014
2149.00,-0.0016
2148.00,-0.0017
2147.00,-0.0018
2146.00,-0.0019
2145.00,-0.0018
2144.00,-0.0017
2143.00,-0.0014
2142.00,-0.0011
2141.00,-0.0009
2140.00,-0.0007
2139.00,-0.0006
2138.00,-0.0007
2137.00,-0.0009
2136.00,-0.0012
2135.00,-0.0015
2134.00,-0.0017
2133.00,-0.0016
2132.00,-0.0015
2131.00,-0.0014
2130.00,-0.0012
2129.00,-0.0011
2128.00,-0.0011
2127.00,-0.0011
2126.00,-0.0010
2125.00,-0.0010
2124.00,-0.0009
2123.00,-0.0008
2122.00,-0.0007
2121.00,-0.0006
2120.00,-0.0004
2119.00,-0.0002
2118.00,-0.0000
2117.00,0.0002
2116.00,0.0003
2115.00,0.0004
2114.00,0.0003
2113.00,0.0002
2112.00,0.0002
2111.00,0.0003
2110.00,0.0005
2109.00,0.0005
2108.00,0.0005
2107.00,0.0004
2106.00,0.0004
2105.00,0.0004
2104.00,0.0005
2103.00,0.0005
2102.00,0.0004
2101.00,0.0003
2100.00,0.0002
2099.00,0.0002
2098.00,0.0002
2097.00,0.0001
2096.00,0.0001
2095.00,0.0000
2094.00,-0.0001
2093.00,-0.0001
2092.00,-0.0000
2091.00,0.0001
2090.00,0.0002
2089.00,0.0002
2088.00,0.0002
2087.00,0.0001
2086.00,0.0001
2085.00,0.0001
2084.00,0.0001
2083.00,0.0002
2082.00,0.0003
2081.00,0.0003
2080.00,0.0004
2079.00,0.0004
2078.00,0.0003
2077.00,0.0003
2076.00,0.0002
2075.00,0.0001
2074.00,0.0001
2073.00,0.0001
2072.00,0.0002
2071.00,0.0002
2070.00,0.0002
2069.00,0.0001
2068.00,-0.0000
2067.00,0.0000
2066.00,0.0001
2065.00,0.0001
2064.00,0.0001
2063.00,-0.0000
2062.00,-0.0000
2061.00,0.0000
2060.00,0.0002
2059.00,0.0003
2058.00,0.0004
2057.00,0.0005
2056.00,0.0004
2055.00,0.0003
2054.00,0.0003
2053.00,0.0006
2052.00,0.0011
2051.00,0.0014
2050.00,0.0014
2049.00,0.0010
2048.00,0.0006
2047.00,0.0003
2046.00,0.0003
2045.00,0.0004
2044.00,0.0004
2043.00,0.0003
2042.00,0.0000
2041.00,-0.0001
2040.00,-0.0002
2039.00,-0.0002
2038.00,-0.0002
2037.00,-0.0002
2036.00,-0.0003
2035.00,-0.0003
2034.00,-0.0003
2033.00,-0.0002
2032.00,-0.0000
2031.00,0.0000
2030.00,0.0001
2029.00,0.0002
2028.00,0.0002
2027.00,0.0001
2026.00,-0.0003
2025.00,-0.0006
2024.00,-0.0008
2023.00,-0.0010
2022.00,-0.0012
2021.00,-0.0013
2020.00,-0.0012
2019.00,-0.0009
2018.00,-0.0007
2017.00,-0.0006
2016.00,-0.0007
2015.00,-0.0009
2014.00,-0.0011
2013.00,-0.0012
2012.00,-0.0013
2011.00,-0.0013
2010.00,-0.0013
2009.00,-0.0014
2008.00,-0.0016
2007.00,-0.0019
2006.00,-0.0022
2005.00,-0.0022
2004.00,-0.0020
2003.00,-0.0018
2002.00,-0.0015
2001.00,-0.0012
2000.00,-0.0008
1999.00,-0.0006
1998.00,-0.0006
1997.00,-0.0008
1996.00,-0.0011
1995.00,-0.0012
1994.00,-0.0012
1993.00,-0.0010
1992.00,-0.0005
1991.00,-0.0001
1990.00,0.0002
1989.00,0.0003
1988.00,0.0002
1987.00,0.0000
1986.00,-0.0001
1985.00,-0.0002
1984.00,-0.0001
1983.00,0.0000
1982.00,0.0003
1981.00,0.0007
1980.00,0.0009
1979.00,0.0008
1978.00,0.0003
1977.00,-0.0003
1976.00,-0.0007
1975.00,-0.0009
1974.00,-0.0011
1973.00,-0.0014
1972.00,-0.0016
1971.00,-0.0017
1970.00,-0.0015
1969.00,-0.0013
1968.00,-0.0012
1967.00,-0.0011
1966.00,-0.0011
1965.00,-0.0012
1964.00,-0.0013
1963.00,-0.0014
1962.00,-0.0015
1961.00,-0.0015
1960.00,-0.0015
1959.00,-0.0016
1958.00,-0.0017
1957.00,-0.0016
1956.00,-0.0016
1955.00,-0.0015
1954.00,-0.0014
1953.00,-0.0014
1952.00,-0.0014
1951.00,-0.0016
1950.00,-0.0017
1949.00,-0.0017
1948.00,-0.0016
1947.00,-0.0016
1946.00,-0.0016
1945.00,-0.0016
1944.00,-0.0015
1943.00,-0.0015
1942.00,-0.0013
1941.00,-0.0012
1940.00,-0.0012
1939.00,-0.0012
1938.00,-0.0012
1937.00,-0.0012
1936.00,-0.0011
1935.00,-0.0010
1934.00,-0.0009
1933.00,-0.0009
1932.00,-0.0009
1931.00,-0.0009
1930.00,-0.0009
1929.00,-0.0008
1928.00,-0.0007
1927.00,-0.0007
1926.00,-0.0008
1925.00,-0.0008
1924.00,-0.0008
1923.00,-0.0007
1922.00,-0.0007
1921.00,-0.0006
1920.00,-0.0004
1919.00,-0.0003
1918.00,-0.0002
1917.00,-0.0002
1916.00,-0.0002
1915.00,-0.0002
1914.00,-0.0002
1913.00,-0.0002
1912.00,-0.0002
1911.00,-0.0002
1910.00,-0.0002
1909.00,-0.0002
1908.00,-0.0002
1907.00,-0.0002
1906.00,-0.0003
1905.00,-0.0003
1904.00,-0.0002
1903.00,-0.0001
1902.00,0.0000
1901.00,0.0001
1900.00,0.0001
1899.00,0.0001
1898.00,0.0001
1897.00,-0.0000
1896.00,-0.0001
1895.00,-0.0002
1894.00,-0.0002
1893.00,-0.0002
1892.00,-0.0000
1891.00,0.0001
1890.00,0.0000
1889.00,-0.0000
1888.00,-0.0001
1887.00,-0.0002
1886.00,-0.0002
1885.00,-0.0001
1884.00,-0.0001
1883.00,-0.0001
1882.00,-0.0001
1881.00,-0.0001
1880.00,-0.0001
1879.00,-0.0001
1878.00,-0.0001
1877.00,-0.0002
1876.00,-0.0002
1875.00,-0.0002
1874.00,-0.0002
1873.00,-0.0002
1872.00,-0.0002
1871.00,-0.0002
1870.00,-0.0002
1869.00,-0.0001
1868.00,-0.0000
1867.00,0.0000
1866.00,0.0000
1865.00,0.0001
1864.00,0.0001
1863.00,0.0000
1862.00,-0.0000
1861.00,-0.0001
1860.00,-0.0001
1859.00,-0.0001
1858.00,-0.0002
1857.00,-0.0001
1856.00,-0.0001
1855.00,-0.0000
1854.00,0.0001
1853.00,0.0001
1852.00,0.0002
1851.00,0.0002
1850.00,0.0002
1849.00,0.0002
1848.00,0.0002
1847.00,0.0002
1846.00,0.0001
1845.00,0.0000
1844.00,0.0000
1843.00,0.0001
1842.00,0.0001
1841.00,0.0002
1840.00,0.0002
1839.00,0.0002
1838.00,0.0002
1837.00,0.0002
1836.00,0.0002
1835.00,0.0003
1834.00,0.0003
1833.00,0.0003
1832.00,0.0002
1831.00,0.0002
1830.00,0.0002
1829.00,0.0003
1828.00,0.0003
1827.00,0.0003
1826.00,0.0003
1825.00,0.0003
1824.00,0.0003
1823.00,0.0003
1822.00,0.0003
1821.00,0.0003
1820.00,0.0002
1819.00,0.0001
1818.00,0.0000
1817.00,-0.0000
1816.00,0.0000
1815.00,0.0001
1814.00,0.0001
1813.00,0.0002
1812.00,0.0002
1811.00,0.0002
1810.00,0.0003
1809.00,0.0003
1808.00,0.0004
1807.00,0.0004
1806.00,0.0004
1805.00,0.0004
1804.00,0.0004
1803.00,0.0004
1802.00,0.0004
1801.00,0.0004
1800.00,0.0004
1799.00,0.0004
1798.00,0.0004
1797.00,0.0005
1796.00,0.0005
1795.00,0.0005
1794.00,0.0006
1793.00,0.0006
1792.00,0.0006
1791.00,0.0005
1790.00,0.0005
1789.00,0.0005
1788.00,0.0006
1787.00,0.0006
1786.00,0.0007
1785.00,0.0008
1784.00,0.0008
1783.00,0.0008
1782.00,0.0008
1781.00,0.0008
1780.00,0.0008
1779.00,0.0008
1778.00,0.0007
1777.00,0.0007
1776.00,0.0007
1775.00,0.0007
1774.00,0.0007
1773.00,0.0007
1772.00,0.0008
1771.00,0.0009
1770.00,0.0010
1769.00,0.0010
1768.00,0.0011
1767.00,0.0011
1766.00,0.0011
1765.00,0.0011
1764.00,0.0011
1763.00,0.0011
1762.00,0.0011
1761.00,0.0011
1760.00,0.0011
1759.00,0.0011
1758.00,0.0012
1757.00,0.0012
1756.00,0.0012
1755.00,0.0012
1754.00,0.0012
1753.00,0.0013
1752.00,0.0014
1751.00,0.0015
1750.00,0.0015
1749.00,0.0015
1748.00,0.0016
1747.00,0.0017
1746.00,0.0018
1745.00,0.0020
1744.00,0.0021
1743.00,0.0021
1742.00,0.0021
1741.00,0.0022
1740.00,0.0022
1739.00,0.0023
1738.00,0.0023
1737.00,0.0023
1736.00,0.0024
1735.00,0.0024
1734.00,0.0024
1733.00,0.0024
1732.00,0.0024
1731.00,0.0024
1730.00,0.0024
1729.00,0.0024
1728.00,0.0024
1727.00,0.0024
1726.00,0.0024
1725.00,0.0024
1724.00,0.0024
1723.00,0.0024
1722.00,0.0024
1721.00,0.0024
1720.00,0.0024
1719.00,0.0024
1718.00,0.0024
1717.00,0.0024
1716.00,0.0024
1715.00,0.0024
1714.00,0.0024
1713.00,0.0024
1712.00,0.0024
1711.00,0.0025
1710.00,0.0025
1709.00,0.0025
1708.00,0.0025
1707.00,0.0025
1706.00,0.0026
1705.00,0.0027
1704.00,0.0028
1703.00,0.0028
1702.00,0.0028
1701.00,0.0029
1700.00,0.0029
1699.00,0.0030
1698.00,0.0030
1697.00,0.0031
1696.00,0.0032
1695.00,0.0033
1694.00,0.0034
1693.00,0.0034
1692.00,0.0035
1691.00,0.0036
1690.00,0.0036
1689.00,0.0037
1688.00,0.0038
1687.00,0.0038
1686.00,0.0039
1685.00,0.0040
1684.00,0.0042
1683.00,0.0043
1682.00,0.0044
1681.00,0.0045
1680.00,0.0046
1679.00,0.0046
1678.00,0.0047
1677.00,0.0048
1676.00,0.0049
1675.00,0.0050
1674.00,0.0051
1673.00,0.0052
1672.00,0.0052
1671.00,0.0053
1670.00,0.0055
1669.00,0.0056
1668.00,0.0057
1667.00,0.0057
1666.00,0.0057
1665.00,0.0057
1664.00,0.0058
1663.00,0.0059
1662.00,0.0060
1661.00,0.0061
1660.00,0.0062
1659.00,0.0063
1658.00,0.0064
1657.00,0.0065
1656.00,0.0065
1655.00,0.0066
1654.00,0.0066
1653.00,0.0067
1652.00,0.0069
1651.00,0.0069
1650.00,0.0070
1649.00,0.0071
1648.00,0.0073
1647.00,0.0074
1646.00,0.0075
1645.00,0.0076
1644.00,0.0076
1643.00,0.0076
1642.00,0.0076
1641.00,0.0077
1640.00,0.0077
1639.00,0.0078
1638.00,0.0078
1637.00,0.0079
1636.00,0.0080
1635.00,0.0080
1634.00,0.0080
1633.00,0.0080
1632.00,0.0080
1631.00,0.0079
1630.00,0.0079
1629.00,0.0079
1628.00,0.0079
1627.00,0.0078
1626.00,0.0078
1625.00,0.0078
1624.00,0.0078
1623.00,0.0077
1622.00,0.0077
1621.00,0.0077
1620.00,0.0077
1619.00,0.0077
1618.00,0.0077
1617.00,0.0076
1616.00,0.0075
1615.00,0.0075
1614.00,0.0074
1613.00,0.0075
1612.00,0.0075
1611.00,0.0076
1610.00,0.0075
1609.00,0.0075
1608.00,0.0075
1607.00,0.0075
1606.00,0.0075
1605.00,0.0075
1604.00,0.0075
1603.00,0.0075
1602.00,0.0075
1601.00,0.0075
1600.00,0.0075
1599.00,0.0074
1598.00,0.0074
1597.00,0.0074
1596.00,0.0074
1595.00,0.0073
1594.00,0.0072
1593.00,0.0072
1592.00,0.0072
1591.00,0.0072
1590.00,0.0072
1589.00,0.0073
1588.00,0.0074
1587.00,0.0075
1586.00,0.0075
1585.00,0.0076
1584.00,0.0078
1583.00,0.0079
1582.00,0.0081
1581.00,0.0083
1580.00,0.0085
1579.00,0.0086
1578.00,0.0087
1577.00,0.0087
1576.00,0.0087
1575.00,0.0086
1574.00,0.0084
1573.00,0.0083
1572.00,0.0082
1571.00,0.0081
1570.00,0.0079
1569.00,0.0078
1568.00,0.0077
1567.00,0.0077
1566.00,0.0076
1565.00,0.0076
1564.00,0.0077
1563.00,0.0077
1562.00,0.0077
1561.00,0.0077
1560.00,0.0078
1559.00,0.0078
1558.00,0.0079
1557.00,0.0080
1556.00,0.0081
1555.00,0.0082
1554.00,0.0083
1553.00,0.0084
1552.00,0.0086
1551.00,0.0087
1550.00,0.0088
1549.00,0.0090
1548.00,0.0091
1547.00,0.0092
1546.00,0.0094
1545.00,0.0095
1544.00,0.0097
1543.00,0.0098
1542.00,0.0098
1541.00,0.0099
1540.00,0.0099
1539.00,0.0097
1538.00,0.0095
1537.00,0.0092
1536.00,0.0090
1535.00,0.0087
1534.00,0.0083
1533.00,0.0080
1532.00,0.0078
1531.00,0.0076
1530.00,0.0074
1529.00,0.0072
1528.00,0.0071
1527.00,0.0069
1526.00,0.0068
1525.00,0.0067
1524.00,0.0067
1523.00,0.0066
1522.00,0.0066
1521.00,0.0066
1520.00,0.0066
1519.00,0.0065
1518.00,0.0065
1517.00,0.0065
1516.00,0.0066
1515.00,0.0065
1514.00,0.0065
1513.00,0.0066
1512.00,0.0067
1511.00,0.0068
1510.00,0.0068
1509.00,0.0068
1508.00,0.0070
1507.00,0.0071
1506.00,0.0071
1505.00,0.0072
1504.00,0.0074
1503.00,0.0075
1502.00,0.0077
1501.00,0.0080
1500.00,0.0083
1499.00,0.0085
1498.00,0.0088
1497.00,0.0093
1496.00,0.0098
1495.00,0.0103
1494.00,0.0106
1493.00,0.0110
1492.00,0.0115
1491.00,0.0119
1490.00,0.0124
1489.00,0.0130
1488.00,0.0135
1487.00,0.0139
1486.00,0.0144
1485.00,0.0149
1484.00,0.0156
1483.00,0.0164
1482.00,0.0173
1481.00,0.0184
1480.00,0.0196
1479.00,0.0209
1478.00,0.0223
1477.00,0.0242
1476.00,0.0264
1475.00,0.0289
1474.00,0.0324
1473.00,0.0378
1472.00,0.0445
1471.00,0.0511
1470.00,0.0574
1469.00,0.0639
1468.00,0.0710
1467.00,0.0789
1466.00,0.0880
1465.00,0.0981
1464.00,0.1071
1463.00,0.1135
1462.00,0.1177
1461.00,0.1206
1460.00,0.1226
1459.00,0.1240
1458.00,0.1250
1457.00,0.1258
1456.00,0.1259
1455.00,0.1252
1454.00,0.1241
1453.00,0.1223
1452.00,0.1195
1451.00,0.1154
1450.00,0.1098
1449.00,0.1021
1448.00,0.0925
1447.00,0.0824
1446.00,0.0735
1445.00,0.0659
1444.00,0.0596
1443.00,0.0545
1442.00,0.0507
1441.00,0.0483
1440.00,0.0470
1439.00,0.0467
1438.00,0.0471
1437.00,0.0477
1436.00,0.0469
1435.00,0.0442
1434.00,0.0401
1433.00,0.0352
1432.00,0.0302
1431.00,0.0258
1430.00,0.0224
1429.00,0.0200
1428.00,0.0184
1427.00,0.0175
1426.00,0.0169
1425.00,0.0164
1424.00,0.0159
1423.00,0.0156
1422.00,0.0154
1421.00,0.0152
1420.00,0.0149
1419.00,0.0147
1418.00,0.0146
1417.00,0.0143
1416.00,0.0140
1415.00,0.0138
1414.00,0.0137
1413.00,0.0135
1412.00,0.0134
1411.00,0.0133
1410.00,0.0132
1409.00,0.0131
1408.00,0.0129
1407.00,0.0129
1406.00,0.0129
1405.00,0.0129
1404.00,0.0129
1403.00,0.0129
1402.00,0.0131
1401.00,0.0131
1400.00,0.0132
1399.00,0.0134
1398.00,0.0136
1397.00,0.0137
1396.00,0.0139
1395.00,0.0143
1394.00,0.0149
1393.00,0.0154
1392.00,0.0160
1391.00,0.0169
1390.00,0.0181
1389.00,0.0198
1388.00,0.0223
1387.00,0.0262
1386.00,0.0313
1385.00,0.0378
1384.00,0.0462
1383.00,0.0575
1382.00,0.0727
1381.00,0.0924
1380.00,0.1173
1379.00,0.1468
1378.00,0.1769
1377.00,0.2010
1376.00,0.2120
1375.00,0.2049
1374.00,0.1812
1373.00,0.1504
1372.00,0.1213
1371.00,0.0969
1370.00,0.0773
1369.00,0.0625
1368.00,0.0523
1367.00,0.0460
1366.00,0.0426
1365.00,0.0413
1364.00,0.0416
1363.00,0.0433
1362.00,0.0458
1361.00,0.0485
1360.00,0.0505
1359.00,0.0510
1358.00,0.0498
1357.00,0.0468
1356.00,0.0424
1355.00,0.0376
1354.00,0.0329
1353.00,0.0290
1352.00,0.0258
1351.00,0.0234
1350.00,0.0213
1349.00,0.0197
1348.00,0.0184
1347.00,0.0173
1346.00,0.0165
1345.00,0.0158
1344.00,0.0152
1343.00,0.0148
1342.00,0.0145
1341.00,0.0142
1340.00,0.0140
1339.00,0.0137
1338.00,0.0136
1337.00,0.0135
1336.00,0.0135
1335.00,0.0137
1334.00,0.0140
1333.00,0.0145
1332.00,0.0149
1331.00,0.0153
1330.00,0.0154
1329.00,0.0153
1328.00,0.0148
1327.00,0.0142
1326.00,0.0136
1325.00,0.0128
1324.00,0.0121
1323.00,0.0115
1322.00,0.0111
1321.00,0.0108
1320.00,0.0105
1319.00,0.0102
1318.00,0.0100
1317.00,0.0098
1316.00,0.0096
1315.00,0.0095
1314.00,0.0094
1313.00,0.0095
1312.00,0.0096
1311.00,0.0097
1310.00,0.0100
1309.00,0.0105
1308.00,0.0113
1307.00,0.0122
1306.00,0.0132
1305.00,0.0138
1304.00,0.0141
1303.00,0.0140
1302.00,0.0138
1301.00,0.0136
1300.00,0.0136
1299.00,0.0137
1298.00,0.0139
1297.00,0.0140
1296.00,0.0139
1295.00,0.0137
1294.00,0.0133
1293.00,0.0128
1292.00,0.0122
1291.00,0.0116
1290.00,0.0111
1289.00,0.0106
1288.00,0.0102
1287.00,0.0099
1286.00,0.0097
1285.00,0.0095
1284.00,0.0093
1283.00,0.0091
1282.00,0.0089
1281.00,0.0087
1280.00,0.0086
1279.00,0.0085
1278.00,0.0084
1277.00,0.0083
1276.00,0.0083
1275.00,0.0083
1274.00,0.0084
1273.00,0.0084
1272.00,0.0085
1271.00,0.0086
1270.00,0.0087
1269.00,0.0088
1268.00,0.0089
1267.00,0.0092
1266.00,0.0095
1265.00,0.0098
1264.00,0.0101
1263.00,0.0104
1262.00,0.0107
1261.00,0.0111
1260.00,0.0115
1259.00,0.0120
1258.00,0.0125
1257.00,0.0128
1256.00,0.0129
1255.00,0.0127
1254.00,0.0122
1253.00,0.0115
1252.00,0.0109
1251.00,0.0104
1250.00,0.0101
1249.00,0.0098
1248.00,0.0096
1247.00,0.0094
1246.00,0.0093
1245.00,0.0092
1244.00,0.0091
1243.00,0.0091
1242.00,0.0090
1241.00,0.0090
1240.00,0.0089
1239.00,0.0088
1238.00,0.0086
1237.00,0.0086
1236.00,0.0085
1235.00,0.0086
1234.00,0.0086
1233.00,0.0086
1232.00,0.0087
1231.00,0.0087
1230.00,0.0088
1229.00,0.0089
1228.00,0.0090
1227.00,0.0092
1226.00,0.0095
1225.00,0.0098
1224.00,0.0101
1223.00,0.0105
1222.00,0.0108
1221.00,0.0111
1220.00,0.0114
1219.00,0.0116
1218.00,0.0116
1217.00,0.0114
1216.00,0.0112
1215.00,0.0108
1214.00,0.0104
1213.00,0.0101
1212.00,0.0097
1211.00,0.0094
1210.00,0.0091
1209.00,0.0088
1208.00,0.0086
1207.00,0.0085
1206.00,0.0084
1205.00,0.0084
1204.00,0.0084
1203.00,0.0084
1202.00,0.0084
1201.00,0.0084
1200.00,0.0084
1199.00,0.0083
1198.00,0.0083
1197.00,0.0082
1196.00,0.0082
1195.00,0.0082
1194.00,0.0083
1193.00,0.0082
1192.00,0.0081
1191.00,0.0081
1190.00,0.0080
1189.00,0.0080
1188.00,0.0080
1187.00,0.0081
1186.00,0.0081
1185.00,0.0081
1184.00,0.0081
1183.00,0.0082
1182.00,0.0084
1181.00,0.0086
1180.00,0.0089
1179.00,0.0093
1178.00,0.0098
1177.00,0.0106
1176.00,0.0115
1175.00,0.0128
1174.00,0.0144
1173.00,0.0164
1172.00,0.0188
1171.00,0.0214
1170.00,0.0239
1169.00,0.0260
1168.00,0.0273
1167.00,0.0277
1166.00,0.0274
1165.00,0.0264
1164.00,0.0252
1163.00,0.0240
1162.00,0.0229
1161.00,0.0220
1160.00,0.0213
1159.00,0.0208
1158.00,0.0205
1157.00,0.0203
1156.00,0.0202
1155.00,0.0201
1154.00,0.0201
1153.00,0.0200
1152.00,0.0197
1151.00,0.0192
1150.00,0.0184
1149.00,0.0174
1148.00,0.0165
1147.00,0.0157
1146.00,0.0150
1145.00,0.0143
1144.00,0.0137
1143.00,0.0131
1142.00,0.0125
1141.00,0.0119
1140.00,0.0115
1139.00,0.0112
1138.00,0.0109
1137.00,0.0106
1136.00,0.0104
1135.00,0.0103
1134.00,0.0101
1133.00,0.0100
1132.00,0.0099
1131.00,0.0099
1130.00,0.0100
1129.00,0.0103
1128.00,0.0106
1127.00,0.0109
1126.00,0.0110
1125.00,0.0110
1124.00,0.0110
1123.00,0.0111
1122.00,0.0113
1121.00,0.0114
1120.00,0.0115
1119.00,0.0116
1118.00,0.0117
1117.00,0.0118
1116.00,0.0120
1115.00,0.0121
1114.00,0.0123
1113.00,0.0124
1112.00,0.0126
1111.00,0.0129
1110.00,0.0133
1109.00,0.0138
1108.00,0.0144
1107.00,0.0152
1106.00,0.0160
1105.00,0.0169
1104.00,0.0175
1103.00,0.0178
1102.00,0.0178
1101.00,0.0174
1100.00,0.0168
1099.00,0.0161
1098.00,0.0154
1097.00,0.0147
1096.00,0.0141
1095.00,0.0137
1094.00,0.0132
1093.00,0.0129
1092.00,0.0126
1091.00,0.0123
1090.00,0.0120
1089.00,0.0116
1088.00,0.0114
1087.00,0.0113
1086.00,0.0112
1085.00,0.0111
1084.00,0.0109
1083.00,0.0108
1082.00,0.0106
1081.00,0.0104
1080.00,0.0103
1079.00,0.0103
1078.00,0.0102
1077.00,0.0100
1076.00,0.0098
1075.00,0.0097
1074.00,0.0096
1073.00,0.0095
1072.00,0.0096
1071.00,0.0097
1070.00,0.0097
1069.00,0.0098
1068.00,0.0097
1067.00,0.0097
1066.00,0.0096
1065.00,0.0096
1064.00,0.0096
1063.00,0.0096
1062.00,0.0096
1061.00,0.0096
1060.00,0.0097
1059.00,0.0097
1058.00,0.0097
1057.00,0.0097
1056.00,0.0096
1055.00,0.0096
1054.00,0.0096
1053.00,0.0097
1052.00,0.0098
1051.00,0.0100
1050.00,0.0102
1049.00,0.0104
1048.00,0.0106
1047.00,0.0108
1046.00,0.0109
1045.00,0.0110
1044.00,0.0111
1043.00,0.0111
1042.00,0.0111
1041.00,0.0110
1040.00,0.0109
1039.00,0.0109
1038.00,0.0109
1037.00,0.0111
1036.00,0.0112
1035.00,0.0112
1034.00,0.0111
1033.00,0.0109
1032.00,0.0108
1031.00,0.0107
1030.00,0.0106
1029.00,0.0106
1028.00,0.0105
1027.00,0.0105
1026.00,0.0104
1025.00,0.0103
1024.00,0.0102
1023.00,0.0102
1022.00,0.0103
1021.00,0.0103
1020.00,0.0103
1019.00,0.0104
1018.00,0.0104
1017.00,0.0106
1016.00,0.0108
1015.00,0.0112
1014.00,0.0115
1013.00,0.0118
1012.00,0.0120
1011.00,0.0122
1010.00,0.0124
1009.00,0.0126
1008.00,0.0129
1007.00,0.0134
1006.00,0.0141
1005.00,0.0149
1004.00,0.0161
1003.00,0.0177
1002.00,0.0199
1001.00,0.0226
1000.00,0.0253
999.00,0.0275
998.00,0.0284
997.00,0.0277
996.00,0.0256
995.00,0.0227
994.00,0.0195
993.00,0.0167
992.00,0.0146
991.00,0.0130
990.00,0.0120
989.00,0.0113
988.00,0.0109
987.00,0.0107
986.00,0.0106
985.00,0.0108
984.00,0.0112
983.00,0.0118
982.00,0.0128
981.00,0.0142
980.00,0.0161
979.00,0.0187
978.00,0.0219
977.00,0.0256
976.00,0.0293
975.00,0.0327
974.00,0.0350
973.00,0.0356
972.00,0.0342
971.00,0.0311
970.00,0.0270
969.00,0.0229
968.00,0.0194
967.00,0.0167
966.00,0.0147
965.00,0.0133
964.00,0.0121
963.00,0.0112
962.00,0.0105
961.00,0.0100
960.00,0.0097
959.00,0.0094
958.00,0.0093
957.00,0.0091
956.00,0.0090
955.00,0.0087
954.00,0.0085
953.00,0.0083
952.00,0.0081
951.00,0.0080
950.00,0.0080
949.00,0.0080
948.00,0.0082
947.00,0.0084
946.00,0.0087
945.00,0.0090
944.00,0.0093
943.00,0.0097
942.00,0.0100
941.00,0.0102
940.00,0.0100
939.00,0.0097
938.00,0.0093
937.00,0.0089
936.00,0.0085
935.00,0.0082
934.00,0.0078
933.00,0.0074
932.00,0.0072
931.00,0.0071
930.00,0.0071
929.00,0.0071
928.00,0.0070
927.00,0.0070
926.00,0.0069
925.00,0.0069
924.00,0.0070
923.00,0.0071
922.00,0.0072
921.00,0.0072
920.00,0.0073
919.00,0.0074
918.00,0.0076
917.00,0.0077
916.00,0.0078
915.00,0.0079
914.00,0.0080
913.00,0.0081
912.00,0.0081
911.00,0.0082
910.00,0.0083
909.00,0.0085
908.00,0.0088
907.00,0.0093
906.00,0.0102
905.00,0.0114
904.00,0.0129
903.00,0.0149
902.00,0.0170
901.00,0.0191
900.00,0.0206
899.00,0.0210
898.00,0.0203
897.00,0.0185
896.00,0.0163
895.00,0.0142
894.00,0.0124
893.00,0.0109
892.00,0.0099
891.00,0.0092
890.00,0.0087
889.00,0.0085
888.00,0.0083
887.00,0.0081
886.00,0.0080
885.00,0.0080
884.00,0.0080
883.00,0.0080
882.00,0.0080
881.00,0.0080
880.00,0.0080
879.00,0.0080
878.00,0.0081
877.00,0.0082
876.00,0.0083
875.00,0.0082
874.00,0.0082
873.00,0.0081
872.00,0.0080
871.00,0.0080
870.00,0.0079
869.00,0.0079
868.00,0.0080
867.00,0.0081
866.00,0.0082
865.00,0.0083
864.00,0.0084
863.00,0.0085
862.00,0.0087
861.00,0.0088
860.00,0.0090
859.00,0.0091
858.00,0.0091
857.00,0.0092
856.00,0.0091
855.00,0.0092
854.00,0.0093
853.00,0.0094
852.00,0.0096
851.00,0.0098
850.00,0.0102
849.00,0.0106
848.00,0.0113
847.00,0.0124
846.00,0.0141
845.00,0.0166
844.00,0.0200
843.00,0.0235
842.00,0.0261
841.00,0.0267
840.00,0.0249
839.00,0.0218
838.00,0.0185
837.00,0.0159
836.00,0.0142
835.00,0.0132
834.00,0.0125
833.00,0.0120
832.00,0.0118
831.00,0.0116
830.00,0.0114
829.00,0.0111
828.00,0.0109
827.00,0.0108
826.00,0.0109
825.00,0.0110
824.00,0.0111
823.00,0.0111
822.00,0.0112
821.00,0.0113
820.00,0.0116
819.00,0.0119
818.00,0.0124
817.00,0.0130
816.00,0.0140
815.00,0.0152
814.00,0.0168
813.00,0.0186
812.00,0.0207
811.00,0.0226
810.00,0.0240
809.00,0.0247
808.00,0.0245
807.00,0.0236
806.00,0.0221
805.00,0.0202
804.00,0.0184
803.00,0.0167
802.00,0.0153
801.00,0.0142
800.00,0.0133
799.00,0.0127
798.00,0.0121
797.00,0.0117
796.00,0.0113
795.00,0.0110
794.00,0.0107
793.00,0.0104
792.00,0.0100
791.00,0.0097
790.00,0.0095
789.00,0.0094
788.00,0.0092
787.00,0.0089
786.00,0.0086
785.00,0.0083
784.00,0.0081
783.00,0.0079
782.00,0.0077
781.00,0.0074
780.00,0.0071
779.00,0.0069
778.00,0.0069
777.00,0.0070
776.00,0.0073
775.00,0.0076
774.00,0.0079
773.00,0.0080
772.00,0.0081
771.00,0.0082
770.00,0.0082
769.00,0.0083
768.00,0.0082
767.00,0.0081
766.00,0.0080
765.00,0.0079
764.00,0.0078
763.00,0.0077
762.00,0.0076
761.00,0.0074
760.00,0.0072
759.00,0.0070
758.00,0.0069
757.00,0.0068
756.00,0.0067
755.00,0.0065
754.00,0.0063
753.00,0.0062
752.00,0.0061
751.00,0.0061
750.00,0.0060
749.00,0.0060
748.00,0.0062
747.00,0.0064
746.00,0.0065
745.00,0.0066
744.00,0.0066
743.00,0.0066
742.00,0.0066
741.00,0.0067
740.00,0.0068
739.00,0.0071
738.00,0.0074
737.00,0.0077
736.00,0.0079
735.00,0.0081
734.00,0.0084
733.00,0.0086
732.00,0.0087
731.00,0.0088
730.00,0.0087
729.00,0.0087
728.00,0.0085
727.00,0.0085
726.00,0.0085
725.00,0.0086
724.00,0.0087
723.00,0.0087
722.00,0.0088
721.00,0.0088
720.00,0.0087
719.00,0.0085
718.00,0.0081
717.00,0.0077
716.00,0.0074
715.00,0.0074
714.00,0.0074
713.00,0.0073
712.00,0.0073
711.00,0.0072
710.00,0.0072
709.00,0.0073
708.00,0.0076
707.00,0.0079
706.00,0.0081
705.00,0.0081
704.00,0.0080
703.00,0.0078
702.00,0.0075
701.00,0.0072
700.00,0.0070
699.00,0.0069
698.00,0.0067
697.00,0.0065
696.00,0.0063
695.00,0.0062
694.00,0.0063
693.00,0.0063
692.00,0.0064
691.00,0.0066
690.00,0.0068
689.00,0.0070
688.00,0.0072
687.00,0.0071
686.00,0.0069
685.00,0.0066
684.00,0.0063
683.00,0.0062
682.00,0.0064
681.00,0.0066
680.00,0.0067
679.00,0.0067
678.00,0.0067
677.00,0.0066
676.00,0.0066
675.00,0.0065
674.00,0.0064
673.00,0.0063
672.00,0.0063
671.00,0.0064
670.00,0.0066
669.00,0.0069
668.00,0.0070
667.00,0.0070
666.00,0.0070
665.00,0.0069
664.00,0.0067
663.00,0.0067
662.00,0.0066
661.00,0.0066
660.00,0.0066
659.00,0.0065
658.00,0.0064
657.00,0.0065
656.00,0.0066
655.00,0.0065
654.00,0.0063
653.00,0.0061
652.00,0.0062
651.00,0.0064
650.00,0.0067
649.00,0.0069
648.00,0.0070
647.00,0.0070
646.00,0.0070
645.00,0.0069
644.00,0.0068
643.00,0.0067
642.00,0.0067
641.00,0.0068
640.00,0.0069
639.00,0.0070
638.00,0.0072
637.00,0.0072
636.00,0.0072
635.00,0.0072
634.00,0.0071
633.00,0.0070
632.00,0.0070
631.00,0.0071
630.00,0.0071
629.00,0.0070
628.00,0.0069
627.00,0.0069
626.00,0.0069
625.00,0.0070
624.00,0.0071
623.00,0.0072
622.00,0.0071
621.00,0.0069
620.00,0.0067
619.00,0.0065
618.00,0.0066
617.00,0.0070
616.00,0.0073
615.00,0.0075
614.00,0.0075
613.00,0.0074
612.00,0.0072
611.00,0.0071
610.00,0.0071
609.00,0.0071
608.00,0.0071
607.00,0.0071
606.00,0.0070
605.00,0.0070
604.00,0.0070
603.00,0.0069
602.00,0.0068
601.00,0.0068
600.00,0.0069
599.00,0.0069
598.00,0.0068
597.00,0.0068
596.00,0.0070
595.00,0.0074
594.00,0.0077
593.00,0.0079
592.00,0.0079
591.00,0.0077
590.00,0.0074
589.00,0.0072
588.00,0.0072
587.00,0.0074
586.00,0.0077
585.00,0.0079
584.00,0.0078
583.00,0.0076
582.00,0.0073
581.00,0.0072
580.00,0.0072
579.00,0.0075
578.00,0.0077
577.00,0.0076
576.00,0.0072
575.00,0.0068
574.00,0.0066
573.00,0.0067
572.00,0.0068
571.00,0.0068
570.00,0.0069
569.00,0.0071
568.00,0.0073
567.00,0.0076
566.00,0.0078
565.00,0.0076
564.00,0.0075
563.00,0.0075
562.00,0.0076
561.00,0.0077
560.00,0.0078
559.00,0.0079
558.00,0.0079
557.00,0.0078
556.00,0.0075
555.00,0.0072
554.00,0.0071
553.00,0.0072
552.00,0.0074
551.00,0.0076
550.00,0.0078
549.00,0.0079
548.00,0.0079
547.00,0.0079
546.00,0.0080
545.00,0.0080
544.00,0.0078
543.00,0.0074
542.00,0.0071
541.00,0.0071
540.00,0.0073
539.00,0.0078
538.00,0.0085
537.00,0.0089
536.00,0.0090
535.00,0.0087
534.00,0.0085
533.00,0.0086
532.00,0.0091
531.00,0.0098
530.00,0.0105
529.00,0.0108
528.00,0.0108
527.00,0.0106
526.00,0.0104
525.00,0.0103
524.00,0.0101
523.00,0.0097
522.00,0.0092
521.00,0.0088
520.00,0.0084
519.00,0.0079
518.00,0.0075
517.00,0.0073
516.00,0.0075
515.00,0.0079
514.00,0.0082
513.00,0.0084
512.00,0.0085
511.00,0.0084
510.00,0.0081
509.00,0.0077
508.00,0.0075
507.00,0.0076
506.00,0.0077
505.00,0.0077
504.00,0.0075
503.00,0.0072
502.00,0.0068
501.00,0.0066
500.00,0.0068
499.00,0.0072
498.00,0.0077
497.00,0.0081
496.00,0.0083
495.00,0.0083
494.00,0.0081
493.00,0.0081
492.00,0.0084
491.00,0.0088
490.00,0.0089
489.00,0.0085
488.00,0.0079
487.00,0.0071
486.00,0.0064
485.00,0.0060
484.00,0.0062
483.00,0.0071
482.00,0.0079
481.00,0.0080
480.00,0.0074
479.00,0.0070
478.00,0.0071
477.00,0.0075
476.00,0.0076
475.00,0.0071
474.00,0.0062
473.00,0.0054
472.00,0.0052
471.00,0.0056
470.00,0.0064
469.00,0.0075
468.00,0.0088
467.00,0.0103
466.00,0.0118
465.00,0.0130
464.00,0.0139
463.00,0.0144
462.00,0.0146
461.00,0.0147
460.00,0.0149
459.00,0.0153
458.00,0.0158
457.00,0.0161
456.00,0.0162
455.00,0.0159
454.00,0.0152
453.00,0.0141
452.00,0.0126
451.00,0.0114
450.00,0.0106
