Created as New Dataset,Sample 144 By Administrator Date Wednesday, September 10 2025
cm-1,A
4000.00,0.0008
3999.00,0.0008
3998.00,0.0008
3997.00,0.0008
3996.00,0.0008
3995.00,0.0008
3994.00,0.0008
3993.00,0.0007
3992.00,0.0007
3991.00,0.0007
3990.00,0.0007
3989.00,0.0007
3988.00,0.0007
3987.00,0.0007
3986.00,0.0007
3985.00,0.0007
3984.00,0.0007
3983.00,0.0007
3982.00,0.0007
3981.00,0.0006
3980.00,0.0006
3979.00,0.0006
3978.00,0.0006
3977.00,0.0006
3976.00,0.0006
3975.00,0.0006
3974.00,0.0006
3973.00,0.0006
3972.00,0.0006
3971.00,0.0006
3970.00,0.0006
3969.00,0.0006
3968.00,0.0006
3967.00,0.0006
3966.00,0.0006
3965.00,0.0006
3964.00,0.0006
3963.00,0.0006
3962.00,0.0005
3961.00,0.0005
3960.00,0.0005
3959.00,0.0005
3958.00,0.0005
3957.00,0.0005
3956.00,0.0005
3955.00,0.0005
3954.00,0.0005
3953.00,0.0005
3952.00,0.0005
3951.00,0.0005
3950.00,0.0006
3949.00,0.0006
3948.00,0.0006
3947.00,0.0006
3946.00,0.0005
3945.00,0.0004
3944.00,0.0004
3943.00,0.0005
3942.00,0.0005
3941.00,0.0005
3940.00,0.0005
3939.00,0.0005
3938.00,0.0005
3937.00,0.0006
3936.00,0.0006
3935.00,0.0006
3934.00,0.0006
3933.00,0.0006
3932.00,0.0006
3931.00,0.0006
3930.00,0.0006
3929.00,0.0006
3928.00,0.0005
3927.00,0.0005
3926.00,0.0005
3925.00,0.0005
3924.00,0.0005
3923.00,0.0005
3922.00,0.0005
3921.00,0.0005
3920.00,0.0006
3919.00,0.0006
3918.00,0.0006
3917.00,0.0006
3916.00,0.0005
3915.00,0.0005
3914.00,0.0005
3913.00,0.0005
3912.00,0.0005
3911.00,0.0006
3910.00,0.0006
3909.00,0.0006
3908.00,0.0006
3907.00,0.0006
3906.00,0.0006
3905.00,0.0005
3904.00,0.0005
3903.00,0.0005
3902.00,0.0005
3901.00,0.0004
3900.00,0.0004
3899.00,0.0004
3898.00,0.0004
3897.00,0.0004
3896.00,0.0004
3895.00,0.0005
3894.00,0.0005
3893.00,0.0005
3892.00,0.0005
3891.00,0.0005
3890.00,0.0005
3889.00,0.0005
3888.00,0.0005
3887.00,0.0005
3886.00,0.0005
3885.00,0.0005
3884.00,0.0004
3883.00,0.0004
3882.00,0.0003
3881.00,0.0004
3880.00,0.0004
3879.00,0.0005
3878.00,0.0004
3877.00,0.0004
3876.00,0.0004
3875.00,0.0005
3874.00,0.0005
3873.00,0.0005
3872.00,0.0005
3871.00,0.0005
3870.00,0.0005
3869.00,0.0005
3868.00,0.0005
3867.00,0.0004
3866.00,0.0004
3865.00,0.0004
3864.00,0.0003
3863.00,0.0003
3862.00,0.0003
3861.00,0.0004
3860.00,0.0004
3859.00,0.0005
3858.00,0.0005
3857.00,0.0005
3856.00,0.0005
3855.00,0.0005
3854.00,0.0006
3853.00,0.0005
3852.00,0.0005
3851.00,0.0004
3850.00,0.0004
3849.00,0.0004
3848.00,0.0004
3847.00,0.0004
3846.00,0.0004
3845.00,0.0004
3844.00,0.0004
3843.00,0.0005
3842.00,0.0005
3841.00,0.0004
3840.00,0.0004
3839.00,0.0004
3838.00,0.0004
3837.00,0.0003
3836.00,0.0003
3835.00,0.0003
3834.00,0.0003
3833.00,0.0003
3832.00,0.0004
3831.00,0.0004
3830.00,0.0004
3829.00,0.0004
3828.00,0.0005
3827.00,0.0005
3826.00,0.0006
3825.00,0.0006
3824.00,0.0005
3823.00,0.0005
3822.00,0.0005
3821.00,0.0005
3820.00,0.0005
3819.00,0.0004
3818.00,0.0003
3817.00,0.0003
3816.00,0.0004
3815.00,0.0004
3814.00,0.0004
3813.00,0.0005
3812.00,0.0005
3811.00,0.0006
3810.00,0.0006
3809.00,0.0006
3808.00,0.0006
3807.00,0.0005
3806.00,0.0005
3805.00,0.0005
3804.00,0.0004
3803.00,0.0004
3802.00,0.0004
3801.00,0.0004
3800.00,0.0004
3799.00,0.0003
3798.00,0.0003
3797.00,0.0003
3796.00,0.0004
3795.00,0.0004
3794.00,0.0004
3793.00,0.0005
3792.00,0.0005
3791.00,0.0006
3790.00,0.0006
3789.00,0.0006
3788.00,0.0005
3787.00,0.0005
3786.00,0.0005
3785.00,0.0005
3784.00,0.0005
3783.00,0.0005
3782.00,0.0005
3781.00,0.0004
3780.00,0.0004
3779.00,0.0004
3778.00,0.0004
3777.00,0.0004
3776.00,0.0005
3775.00,0.0006
3774.00,0.0006
3773.00,0.0006
3772.00,0.0006
3771.00,0.0006
3770.00,0.0006
3769.00,0.0006
3768.00,0.0006
3767.00,0.0006
3766.00,0.0006
3765.00,0.0006
3764.00,0.0007
3763.00,0.0007
3762.00,0.0007
3761.00,0.0006
3760.00,0.0006
3759.00,0.0006
3758.00,0.0006
3757.00,0.0006
3756.00,0.0006
3755.00,0.0006
3754.00,0.0006
3753.00,0.0006
3752.00,0.0006
3751.00,0.0006
3750.00,0.0006
3749.00,0.0006
3748.00,0.0006
3747.00,0.0005
3746.00,0.0005
3745.00,0.0005
3744.00,0.0005
3743.00,0.0004
3742.00,0.0004
3741.00,0.0004
3740.00,0.0004
3739.00,0.0003
3738.00,0.0003
3737.00,0.0003
3736.00,0.0003
3735.00,0.0003
3734.00,0.0003
3733.00,0.0003
3732.00,0.0004
3731.00,0.0004
3730.00,0.0003
3729.00,0.0003
3728.00,0.0003
3727.00,0.0003
3726.00,0.0003
3725.00,0.0003
3724.00,0.0003
3723.00,0.0003
3722.00,0.0003
3721.00,0.0003
3720.00,0.0004
3719.00,0.0004
3718.00,0.0004
3717.00,0.0003
3716.00,0.0003
3715.00,0.0003
3714.00,0.0002
3713.00,0.0002
3712.00,0.0002
3711.00,0.0002
3710.00,0.0003
3709.00,0.0003
3708.00,0.0003
3707.00,0.0003
3706.00,0.0003
3705.00,0.0003
3704.00,0.0003
3703.00,0.0003
3702.00,0.0003
3701.00,0.0003
3700.00,0.0003
3699.00,0.0003
3698.00,0.0003
3697.00,0.0003
3696.00,0.0003
3695.00,0.0003
3694.00,0.0003
3693.00,0.0003
3692.00,0.0003
3691.00,0.0003
3690.00,0.0003
3689.00,0.0004
3688.00,0.0004
3687.00,0.0004
3686.00,0.0004
3685.00,0.0003
3684.00,0.0003
3683.00,0.0003
3682.00,0.0003
3681.00,0.0003
3680.00,0.0004
3679.00,0.0004
3678.00,0.0004
3677.00,0.0004
3676.00,0.0005
3675.00,0.0006
3674.00,0.0005
3673.00,0.0005
3672.00,0.0005
3671.00,0.0005
3670.00,0.0005
3669.00,0.0004
3668.00,0.0004
3667.00,0.0004
3666.00,0.0004
3665.00,0.0004
3664.00,0.0004
3663.00,0.0004
3662.00,0.0004
3661.00,0.0004
3660.00,0.0003
3659.00,0.0003
3658.00,0.0003
3657.00,0.0003
3656.00,0.0003
3655.00,0.0003
3654.00,0.0003
3653.00,0.0003
3652.00,0.0003
3651.00,0.0003
3650.00,0.0003
3649.00,0.0003
3648.00,0.0003
3647.00,0.0003
3646.00,0.0003
3645.00,0.0003
3644.00,0.0003
3643.00,0.0003
3642.00,0.0003
3641.00,0.0003
3640.00,0.0003
3639.00,0.0003
3638.00,0.0003
3637.00,0.0003
3636.00,0.0003
3635.00,0.0003
3634.00,0.0003
3633.00,0.0003
3632.00,0.0002
3631.00,0.0001
3630.00,0.0001
3629.00,0.0002
3628.00,0.0002
3627.00,0.0001
3626.00,0.0001
3625.00,0.0002
3624.00,0.0002
3623.00,0.0003
3622.00,0.0003
3621.00,0.0003
3620.00,0.0003
3619.00,0.0003
3618.00,0.0002
3617.00,0.0002
3616.00,0.0002
3615.00,0.0002
3614.00,0.0002
3613.00,0.0002
3612.00,0.0002
3611.00,0.0002
3610.00,0.0001
3609.00,0.0001
3608.00,0.0001
3607.00,0.0001
3606.00,0.0002
3605.00,0.0002
3604.00,0.0003
3603.00,0.0003
3602.00,0.0003
3601.00,0.0002
3600.00,0.0002
3599.00,0.0002
3598.00,0.0002
3597.00,0.0003
3596.00,0.0003
3595.00,0.0003
3594.00,0.0003
3593.00,0.0004
3592.00,0.0004
3591.00,0.0004
3590.00,0.0004
3589.00,0.0004
3588.00,0.0004
3587.00,0.0004
3586.00,0.0003
3585.00,0.0003
3584.00,0.0003
3583.00,0.0003
3582.00,0.0004
3581.00,0.0004
3580.00,0.0004
3579.00,0.0004
3578.00,0.0004
3577.00,0.0004
3576.00,0.0003
3575.00,0.0003
3574.00,0.0003
3573.00,0.0004
3572.00,0.0004
3571.00,0.0004
3570.00,0.0004
3569.00,0.0005
3568.00,0.0005
3567.00,0.0005
3566.00,0.0005
3565.00,0.0005
3564.00,0.0005
3563.00,0.0005
3562.00,0.0005
3561.00,0.0005
3560.00,0.0005
3559.00,0.0005
3558.00,0.0006
3557.00,0.0007
3556.00,0.0007
3555.00,0.0007
3554.00,0.0007
3553.00,0.0007
3552.00,0.0006
3551.00,0.0006
3550.00,0.0006
3549.00,0.0006
3548.00,0.0006
3547.00,0.0006
3546.00,0.0007
3545.00,0.0007
3544.00,0.0007
3543.00,0.0008
3542.00,0.0008
3541.00,0.0008
3540.00,0.0008
3539.00,0.0008
3538.00,0.0008
3537.00,0.0008
3536.00,0.0008
3535.00,0.0008
3534.00,0.0009
3533.00,0.0009
3532.00,0.0009
3531.00,0.0009
3530.00,0.0009
3529.00,0.0009
3528.00,0.0009
3527.00,0.0009
3526.00,0.0010
3525.00,0.0010
3524.00,0.0010
3523.00,0.0010
3522.00,0.0010
3521.00,0.0010
3520.00,0.0010
3519.00,0.0010
3518.00,0.0010
3517.00,0.0010
3516.00,0.0010
3515.00,0.0010
3514.00,0.0010
3513.00,0.0010
3512.00,0.0010
3511.00,0.0010
3510.00,0.0010
3509.00,0.0010
3508.00,0.0010
3507.00,0.0010
3506.00,0.0010
3505.00,0.0011
3504.00,0.0011
3503.00,0.0012
3502.00,0.0012
3501.00,0.0012
3500.00,0.0012
3499.00,0.0012
3498.00,0.0012
3497.00,0.0011
3496.00,0.0011
3495.00,0.0011
3494.00,0.0012
3493.00,0.0012
3492.00,0.0012
3491.00,0.0013
3490.00,0.0013
3489.00,0.0013
3488.00,0.0013
3487.00,0.0013
3486.00,0.0013
3485.00,0.0013
3484.00,0.0013
3483.00,0.0013
3482.00,0.0013
3481.00,0.0013
3480.00,0.0013
3479.00,0.0014
3478.00,0.0014
3477.00,0.0014
3476.00,0.0014
3475.00,0.0014
3474.00,0.0014
3473.00,0.0014
3472.00,0.0014
3471.00,0.0014
3470.00,0.0015
3469.00,0.0015
3468.00,0.0015
3467.00,0.0015
3466.00,0.0015
3465.00,0.0015
3464.00,0.0015
3463.00,0.0016
3462.00,0.0016
3461.00,0.0016
3460.00,0.0016
3459.00,0.0015
3458.00,0.0015
3457.00,0.0014
3456.00,0.0014
3455.00,0.0014
3454.00,0.0015
3453.00,0.0015
3452.00,0.0016
3451.00,0.0016
3450.00,0.0017
3449.00,0.0018
3448.00,0.0018
3447.00,0.0018
3446.00,0.0017
3445.00,0.0017
3444.00,0.0017
3443.00,0.0017
3442.00,0.0018
3441.00,0.0018
3440.00,0.0018
3439.00,0.0018
3438.00,0.0018
3437.00,0.0018
3436.00,0.0018
3435.00,0.0018
3434.00,0.0018
3433.00,0.0018
3432.00,0.0019
3431.00,0.0019
3430.00,0.0019
3429.00,0.0020
3428.00,0.0019
3427.00,0.0019
3426.00,0.0019
3425.00,0.0020
3424.00,0.0020
3423.00,0.0020
3422.00,0.0020
3421.00,0.0020
3420.00,0.0020
3419.00,0.0020
3418.00,0.0020
3417.00,0.0020
3416.00,0.0020
3415.00,0.0020
3414.00,0.0020
3413.00,0.0020
3412.00,0.0020
3411.00,0.0020
3410.00,0.0020
3409.00,0.0020
3408.00,0.0020
3407.00,0.0020
3406.00,0.0020
3405.00,0.0020
3404.00,0.0020
3403.00,0.0020
3402.00,0.0020
3401.00,0.0020
3400.00,0.0020
3399.00,0.0020
3398.00,0.0020
3397.00,0.0020
3396.00,0.0020
3395.00,0.0020
3394.00,0.0020
3393.00,0.0020
3392.00,0.0020
3391.00,0.0020
3390.00,0.0020
3389.00,0.0020
3388.00,0.0020
3387.00,0.0020
3386.00,0.0020
3385.00,0.0020
3384.00,0.0020
3383.00,0.0020
3382.00,0.0020
3381.00,0.0020
3380.00,0.0020
3379.00,0.0020
3378.00,0.0020
3377.00,0.0020
3376.00,0.0021
3375.00,0.0021
3374.00,0.0021
3373.00,0.0021
3372.00,0.0021
3371.00,0.0021
3370.00,0.0021
3369.00,0.0021
3368.00,0.0021
3367.00,0.0021
3366.00,0.0022
3365.00,0.0021
3364.00,0.0021
3363.00,0.0021
3362.00,0.0021
3361.00,0.0021
3360.00,0.0021
3359.00,0.0021
3358.00,0.0021
3357.00,0.0021
3356.00,0.0021
3355.00,0.0022
3354.00,0.0022
3353.00,0.0022
3352.00,0.0022
3351.00,0.0022
3350.00,0.0022
3349.00,0.0022
3348.00,0.0022
3347.00,0.0022
3346.00,0.0022
3345.00,0.0021
3344.00,0.0021
3343.00,0.0021
3342.00,0.0021
3341.00,0.0021
3340.00,0.0021
3339.00,0.0021
3338.00,0.0021
3337.00,0.0021
3336.00,0.0020
3335.00,0.0020
3334.00,0.0020
3333.00,0.0020
3332.00,0.0020
3331.00,0.0020
3330.00,0.0020
3329.00,0.0020
3328.00,0.0020
3327.00,0.0020
3326.00,0.0020
3325.00,0.0020
3324.00,0.0020
3323.00,0.0020
3322.00,0.0020
3321.00,0.0020
3320.00,0.0019
3319.00,0.0019
3318.00,0.0019
3317.00,0.0019
3316.00,0.0019
3315.00,0.0019
3314.00,0.0019
3313.00,0.0019
3312.00,0.0019
3311.00,0.0019
3310.00,0.0020
3309.00,0.0020
3308.00,0.0020
3307.00,0.0020
3306.00,0.0020
3305.00,0.0020
3304.00,0.0020
3303.00,0.0020
3302.00,0.0020
3301.00,0.0020
3300.00,0.0020
3299.00,0.0020
3298.00,0.0020
3297.00,0.0020
3296.00,0.0020
3295.00,0.0020
3294.00,0.0020
3293.00,0.0020
3292.00,0.0020
3291.00,0.0020
3290.00,0.0020
3289.00,0.0021
3288.00,0.0020
3287.00,0.0020
3286.00,0.0020
3285.00,0.0020
3284.00,0.0019
3283.00,0.0019
3282.00,0.0018
3281.00,0.0018
3280.00,0.0018
3279.00,0.0018
3278.00,0.0019
3277.00,0.0019
3276.00,0.0020
3275.00,0.0020
3274.00,0.0019
3273.00,0.0019
3272.00,0.0019
3271.00,0.0019
3270.00,0.0019
3269.00,0.0019
3268.00,0.0019
3267.00,0.0019
3266.00,0.0019
3265.00,0.0019
3264.00,0.0019
3263.00,0.0019
3262.00,0.0018
3261.00,0.0018
3260.00,0.0018
3259.00,0.0018
3258.00,0.0018
3257.00,0.0018
3256.00,0.0018
3255.00,0.0018
3254.00,0.0018
3253.00,0.0018
3252.00,0.0018
3251.00,0.0018
3250.00,0.0018
3249.00,0.0018
3248.00,0.0018
3247.00,0.0019
3246.00,0.0019
3245.00,0.0019
3244.00,0.0019
3243.00,0.0019
3242.00,0.0019
3241.00,0.0019
3240.00,0.0018
3239.00,0.0018
3238.00,0.0018
3237.00,0.0018
3236.00,0.0018
3235.00,0.0019
3234.00,0.0019
3233.00,0.0020
3232.00,0.0020
3231.00,0.0020
3230.00,0.0020
3229.00,0.0021
3228.00,0.0021
3227.00,0.0021
3226.00,0.0021
3225.00,0.0021
3224.00,0.0021
3223.00,0.0021
3222.00,0.0022
3221.00,0.0023
3220.00,0.0023
3219.00,0.0023
3218.00,0.0023
3217.00,0.0023
3216.00,0.0024
3215.00,0.0024
3214.00,0.0024
3213.00,0.0024
3212.00,0.0024
3211.00,0.0024
3210.00,0.0024
3209.00,0.0025
3208.00,0.0025
3207.00,0.0025
3206.00,0.0025
3205.00,0.0026
3204.00,0.0026
3203.00,0.0026
3202.00,0.0026
3201.00,0.0026
3200.00,0.0026
3199.00,0.0026
3198.00,0.0026
3197.00,0.0026
3196.00,0.0026
3195.00,0.0026
3194.00,0.0026
3193.00,0.0026
3192.00,0.0026
3191.00,0.0026
3190.00,0.0026
3189.00,0.0026
3188.00,0.0026
3187.00,0.0025
3186.00,0.0025
3185.00,0.0025
3184.00,0.0025
3183.00,0.0025
3182.00,0.0025
3181.00,0.0025
3180.00,0.0025
3179.00,0.0025
3178.00,0.0025
3177.00,0.0025
3176.00,0.0024
3175.00,0.0023
3174.00,0.0023
3173.00,0.0023
3172.00,0.0023
3171.00,0.0024
3170.00,0.0023
3169.00,0.0023
3168.00,0.0023
3167.00,0.0023
3166.00,0.0023
3165.00,0.0023
3164.00,0.0023
3163.00,0.0023
3162.00,0.0023
3161.00,0.0023
3160.00,0.0023
3159.00,0.0023
3158.00,0.0023
3157.00,0.0023
3156.00,0.0023
3155.00,0.0023
3154.00,0.0023
3153.00,0.0023
3152.00,0.0023
3151.00,0.0023
3150.00,0.0023
3149.00,0.0023
3148.00,0.0023
3147.00,0.0023
3146.00,0.0023
3145.00,0.0023
3144.00,0.0023
3143.00,0.0023
3142.00,0.0024
3141.00,0.0024
3140.00,0.0024
3139.00,0.0023
3138.00,0.0023
3137.00,0.0023
3136.00,0.0023
3135.00,0.0023
3134.00,0.0023
3133.00,0.0023
3132.00,0.0023
3131.00,0.0022
3130.00,0.0022
3129.00,0.0022
3128.00,0.0021
3127.00,0.0021
3126.00,0.0021
3125.00,0.0021
3124.00,0.0021
3123.00,0.0021
3122.00,0.0021
3121.00,0.0020
3120.00,0.0021
3119.00,0.0021
3118.00,0.0020
3117.00,0.0020
3116.00,0.0019
3115.00,0.0019
3114.00,0.0019
3113.00,0.0019
3112.00,0.0019
3111.00,0.0020
3110.00,0.0019
3109.00,0.0019
3108.00,0.0019
3107.00,0.0019
3106.00,0.0019
3105.00,0.0019
3104.00,0.0019
3103.00,0.0019
3102.00,0.0018
3101.00,0.0018
3100.00,0.0018
3099.00,0.0018
3098.00,0.0018
3097.00,0.0019
3096.00,0.0019
3095.00,0.0019
3094.00,0.0019
3093.00,0.0019
3092.00,0.0019
3091.00,0.0019
3090.00,0.0019
3089.00,0.0019
3088.00,0.0019
3087.00,0.0018
3086.00,0.0018
3085.00,0.0018
3084.00,0.0018
3083.00,0.0018
3082.00,0.0018
3081.00,0.0019
3080.00,0.0019
3079.00,0.0019
3078.00,0.0019
3077.00,0.0019
3076.00,0.0019
3075.00,0.0019
3074.00,0.0019
3073.00,0.0018
3072.00,0.0018
3071.00,0.0018
3070.00,0.0019
3069.00,0.0019
3068.00,0.0019
3067.00,0.0019
3066.00,0.0020
3065.00,0.0020
3064.00,0.0020
3063.00,0.0020
3062.00,0.0020
3061.00,0.0021
3060.00,0.0021
3059.00,0.0021
3058.00,0.0021
3057.00,0.0022
3056.00,0.0022
3055.00,0.0022
3054.00,0.0022
3053.00,0.0022
3052.00,0.0023
3051.00,0.0023
3050.00,0.0023
3049.00,0.0023
3048.00,0.0024
3047.00,0.0024
3046.00,0.0023
3045.00,0.0023
3044.00,0.0024
3043.00,0.0024
3042.00,0.0024
3041.00,0.0025
3040.00,0.0025
3039.00,0.0025
3038.00,0.0025
3037.00,0.0026
3036.00,0.0026
3035.00,0.0027
3034.00,0.0027
3033.00,0.0027
3032.00,0.0028
3031.00,0.0028
3030.00,0.0029
3029.00,0.0030
3028.00,0.0030
3027.00,0.0031
3026.00,0.0032
3025.00,0.0032
3024.00,0.0033
3023.00,0.0034
3022.00,0.0034
3021.00,0.0035
3020.00,0.0036
3019.00,0.0037
3018.00,0.0037
3017.00,0.0038
3016.00,0.0040
3015.00,0.0041
3014.00,0.0042
3013.00,0.0044
3012.00,0.0046
3011.00,0.0047
3010.00,0.0049
3009.00,0.0051
3008.00,0.0053
3007.00,0.0054
3006.00,0.0056
3005.00,0.0058
3004.00,0.0061
3003.00,0.0064
3002.00,0.0067
3001.00,0.0070
3000.00,0.0073
2999.00,0.0076
2998.00,0.0080
2997.00,0.0084
2996.00,0.0088
2995.00,0.0093
2994.00,0.0098
2993.00,0.0104
2992.00,0.0110
2991.00,0.0116
2990.00,0.0124
2989.00,0.0132
2988.00,0.0142
2987.00,0.0152
2986.00,0.0164
2985.00,0.0177
2984.00,0.0191
2983.00,0.0207
2982.00,0.0225
2981.00,0.0244
2980.00,0.0265
2979.00,0.0290
2978.00,0.0317
2977.00,0.0349
2976.00,0.0386
2975.00,0.0428
2974.00,0.0476
2973.00,0.0530
2972.00,0.0591
2971.00,0.0660
2970.00,0.0736
2969.00,0.0820
2968.00,0.0913
2967.00,0.1014
2966.00,0.1121
2965.00,0.1233
2964.00,0.1346
2963.00,0.1456
2962.00,0.1557
2961.00,0.1645
2960.00,0.1715
2959.00,0.1769
2958.00,0.1810
2957.00,0.1843
2956.00,0.1874
2955.00,0.1910
2954.00,0.1952
2953.00,0.1997
2952.00,0.2038
2951.00,0.2066
2950.00,0.2069
2949.00,0.2038
2948.00,0.1970
2947.00,0.1866
2946.00,0.1735
2945.00,0.1592
2944.00,0.1450
2943.00,0.1323
2942.00,0.1220
2941.00,0.1143
2940.00,0.1094
2939.00,0.1070
2938.00,0.1067
2937.00,0.1085
2936.00,0.1120
2935.00,0.1172
2934.00,0.1237
2933.00,0.1315
2932.00,0.1403
2931.00,0.1500
2930.00,0.1601
2929.00,0.1704
2928.00,0.1805
2927.00,0.1902
2926.00,0.1993
2925.00,0.2078
2924.00,0.2160
2923.00,0.2238
2922.00,0.2316
2921.00,0.2389
2920.00,0.2455
2919.00,0.2506
2918.00,0.2535
2917.00,0.2537
2916.00,0.2511
2915.00,0.2460
2914.00,0.2392
2913.00,0.2313
2912.00,0.2233
2911.00,0.2156
2910.00,0.2084
2909.00,0.2018
2908.00,0.1956
2907.00,0.1895
2906.00,0.1833
2905.00,0.1767
2904.00,0.1699
2903.00,0.1628
2902.00,0.1556
2901.00,0.1485
2900.00,0.1416
2899.00,0.1350
2898.00,0.1288
2897.00,0.1232
2896.00,0.1182
2895.00,0.1140
2894.00,0.1105
2893.00,0.1079
2892.00,0.1060
2891.00,0.1047
2890.00,0.1041
2889.00,0.1039
2888.00,0.1042
2887.00,0.1048
2886.00,0.1059
2885.00,0.1073
2884.00,0.1092
2883.00,0.1114
2882.00,0.1141
2881.00,0.1169
2880.00,0.1196
2879.00,0.1219
2878.00,0.1233
2877.00,0.1236
2876.00,0.1231
2875.00,0.1222
2874.00,0.1212
2873.00,0.1208
2872.00,0.1211
2871.00,0.1223
2870.00,0.1241
2869.00,0.1258
2868.00,0.1269
2867.00,0.1263
2866.00,0.1233
2865.00,0.1177
2864.00,0.1098
2863.00,0.1003
2862.00,0.0904
2861.00,0.0811
2860.00,0.0730
2859.00,0.0664
2858.00,0.0614
2857.00,0.0577
2856.00,0.0552
2855.00,0.0537
2854.00,0.0530
2853.00,0.0530
2852.00,0.0538
2851.00,0.0554
2850.00,0.0578
2849.00,0.0611
2848.00,0.0653
2847.00,0.0706
2846.00,0.0768
2845.00,0.0840
2844.00,0.0919
2843.00,0.1004
2842.00,0.1090
2841.00,0.1172
2840.00,0.1240
2839.00,0.1285
2838.00,0.1298
2837.00,0.1274
2836.00,0.1211
2835.00,0.1118
2834.00,0.1005
2833.00,0.0886
2832.00,0.0772
2831.00,0.0670
2830.00,0.0585
2829.00,0.0514
2828.00,0.0457
2827.00,0.0412
2826.00,0.0375
2825.00,0.0345
2824.00,0.0319
2823.00,0.0298
2822.00,0.0279
2821.00,0.0264
2820.00,0.0250
2819.00,0.0238
2818.00,0.0228
2817.00,0.0219
2816.00,0.0211
2815.00,0.0204
2814.00,0.0197
2813.00,0.0191
2812.00,0.0186
2811.00,0.0180
2810.00,0.0175
2809.00,0.0169
2808.00,0.0163
2807.00,0.0157
2806.00,0.0151
2805.00,0.0144
2804.00,0.0138
2803.00,0.0131
2802.00,0.0126
2801.00,0.0121
2800.00,0.0117
2799.00,0.0114
2798.00,0.0111
2797.00,0.0109
2796.00,0.0107
2795.00,0.0105
2794.00,0.0102
2793.00,0.0099
2792.00,0.0096
2791.00,0.0092
2790.00,0.0088
2789.00,0.0085
2788.00,0.0081
2787.00,0.0078
2786.00,0.0076
2785.00,0.0073
2784.00,0.0070
2783.00,0.0068
2782.00,0.0066
2781.00,0.0064
2780.00,0.0062
2779.00,0.0061
2778.00,0.0059
2777.00,0.0058
2776.00,0.0056
2775.00,0.0055
2774.00,0.0054
2773.00,0.0053
2772.00,0.0053
2771.00,0.0052
2770.00,0.0052
2769.00,0.0052
2768.00,0.0052
2767.00,0.0051
2766.00,0.0051
2765.00,0.0051
2764.00,0.0050
2763.00,0.0050
2762.00,0.0050
2761.00,0.0050
2760.00,0.0049
2759.00,0.0049
2758.00,0.0049
2757.00,0.0049
2756.00,0.0048
2755.00,0.0048
2754.00,0.0048
2753.00,0.0048
2752.00,0.0047
2751.00,0.0047
2750.00,0.0047
2749.00,0.0047
2748.00,0.0047
2747.00,0.0048
2746.00,0.0049
2745.00,0.0050
2744.00,0.0050
2743.00,0.0051
2742.00,0.0052
2741.00,0.0053
2740.00,0.0055
2739.00,0.0056
2738.00,0.0058
2737.00,0.0059
2736.00,0.0061
2735.00,0.0062
2734.00,0.0064
2733.00,0.0066
2732.00,0.0068
2731.00,0.0070
2730.00,0.0072
2729.00,0.0075
2728.00,0.0078
2727.00,0.0081
2726.00,0.0084
2725.00,0.0086
2724.00,0.0087
2723.00,0.0088
2722.00,0.0087
2721.00,0.0085
2720.00,0.0082
2719.00,0.0078
2718.00,0.0075
2717.00,0.0071
2716.00,0.0068
2715.00,0.0065
2714.00,0.0063
2713.00,0.0061
2712.00,0.0059
2711.00,0.0057
2710.00,0.0055
2709.00,0.0054
2708.00,0.0052
2707.00,0.0051
2706.00,0.0049
2705.00,0.0048
2704.00,0.0047
2703.00,0.0046
2702.00,0.0045
2701.00,0.0044
2700.00,0.0044
2699.00,0.0043
2698.00,0.0042
2697.00,0.0042
2696.00,0.0042
2695.00,0.0042
2694.00,0.0042
2693.00,0.0042
2692.00,0.0043
2691.00,0.0043
2690.00,0.0043
2689.00,0.0042
2688.00,0.0042
2687.00,0.0042
2686.00,0.0042
2685.00,0.0042
2684.00,0.0042
2683.00,0.0042
2682.00,0.0042
2681.00,0.0043
2680.00,0.0043
2679.00,0.0043
2678.00,0.0043
2677.00,0.0043
2676.00,0.0043
2675.00,0.0043
2674.00,0.0042
2673.00,0.0042
2672.00,0.0042
2671.00,0.0042
2670.00,0.0042
2669.00,0.0042
2668.00,0.0042
2667.00,0.0042
2666.00,0.0042
2665.00,0.0043
2664.00,0.0044
2663.00,0.0044
2662.00,0.0045
2661.00,0.0045
2660.00,0.0045
2659.00,0.0046
2658.00,0.0046
2657.00,0.0045
2656.00,0.0045
2655.00,0.0045
2654.00,0.0044
2653.00,0.0043
2652.00,0.0043
2651.00,0.0042
2650.00,0.0041
2649.00,0.0041
2648.00,0.0041
2647.00,0.0040
2646.00,0.0040
2645.00,0.0039
2644.00,0.0039
2643.00,0.0038
2642.00,0.0038
2641.00,0.0037
2640.00,0.0037
2639.00,0.0037
2638.00,0.0036
2637.00,0.0036
2636.00,0.0036
2635.00,0.0036
2634.00,0.0036
2633.00,0.0036
2632.00,0.0036
2631.00,0.0036
2630.00,0.0036
2629.00,0.0036
2628.00,0.0036
2627.00,0.0036
2626.00,0.0037
2625.00,0.0038
2624.00,0.0038
2623.00,0.0038
2622.00,0.0038
2621.00,0.0038
2620.00,0.0038
2619.00,0.0037
2618.00,0.0037
2617.00,0.0037
2616.00,0.0038
2615.00,0.0038
2614.00,0.0038
2613.00,0.0037
2612.00,0.0037
2611.00,0.0036
2610.00,0.0036
2609.00,0.0035
2608.00,0.0034
2607.00,0.0034
2606.00,0.0033
2605.00,0.0032
2604.00,0.0032
2603.00,0.0031
2602.00,0.0030
2601.00,0.0030
2600.00,0.0030
2599.00,0.0030
2598.00,0.0030
2597.00,0.0030
2596.00,0.0030
2595.00,0.0030
2594.00,0.0030
2593.00,0.0031
2592.00,0.0031
2591.00,0.0032
2590.00,0.0032
2589.00,0.0033
2588.00,0.0034
2587.00,0.0035
2586.00,0.0036
2585.00,0.0037
2584.00,0.0038
2583.00,0.0038
2582.00,0.0038
2581.00,0.0037
2580.00,0.0036
2579.00,0.0036
2578.00,0.0035
2577.00,0.0034
2576.00,0.0033
2575.00,0.0032
2574.00,0.0031
2573.00,0.0030
2572.00,0.0029
2571.00,0.0028
2570.00,0.0028
2569.00,0.0027
2568.00,0.0026
2567.00,0.0025
2566.00,0.0024
2565.00,0.0023
2564.00,0.0022
2563.00,0.0022
2562.00,0.0022
2561.00,0.0021
2560.00,0.0021
2559.00,0.0021
2558.00,0.0021
2557.00,0.0021
2556.00,0.0021
2555.00,0.0020
2554.00,0.0020
2553.00,0.0019
2552.00,0.0018
2551.00,0.0018
2550.00,0.0018
2549.00,0.0018
2548.00,0.0017
2547.00,0.0017
2546.00,0.0017
2545.00,0.0016
2544.00,0.0016
2543.00,0.0016
2542.00,0.0016
2541.00,0.0016
2540.00,0.0016
2539.00,0.0015
2538.00,0.0015
2537.00,0.0014
2536.00,0.0014
2535.00,0.0013
2534.00,0.0014
2533.00,0.0014
2532.00,0.0013
2531.00,0.0013
2530.00,0.0012
2529.00,0.0012
2528.00,0.0011
2527.00,0.0011
2526.00,0.0010
2525.00,0.0010
2524.00,0.0010
2523.00,0.0010
2522.00,0.0010
2521.00,0.0010
2520.00,0.0010
2519.00,0.0010
2518.00,0.0010
2517.00,0.0010
2516.00,0.0009
2515.00,0.0008
2514.00,0.0007
2513.00,0.0007
2512.00,0.0006
2511.00,0.0006
2510.00,0.0006
2509.00,0.0007
2508.00,0.0008
2507.00,0.0008
2506.00,0.0008
2505.00,0.0008
2504.00,0.0008
2503.00,0.0008
2502.00,0.0008
2501.00,0.0008
2500.00,0.0008
2499.00,0.0008
2498.00,0.0008
2497.00,0.0009
2496.00,0.0009
2495.00,0.0009
2494.00,0.0008
2493.00,0.0008
2492.00,0.0008
2491.00,0.0008
2490.00,0.0008
2489.00,0.0008
2488.00,0.0008
2487.00,0.0008
2486.00,0.0007
2485.00,0.0007
2484.00,0.0007
2483.00,0.0007
2482.00,0.0006
2481.00,0.0005
2480.00,0.0005
2479.00,0.0005
2478.00,0.0005
2477.00,0.0006
2476.00,0.0006
2475.00,0.0006
2474.00,0.0006
2473.00,0.0006
2472.00,0.0007
2471.00,0.0007
2470.00,0.0007
2469.00,0.0006
2468.00,0.0006
2467.00,0.0005
2466.00,0.0005
2465.00,0.0005
2464.00,0.0006
2463.00,0.0006
2462.00,0.0007
2461.00,0.0007
2460.00,0.0008
2459.00,0.0008
2458.00,0.0008
2457.00,0.0008
2456.00,0.0009
2455.00,0.0009
2454.00,0.0009
2453.00,0.0010
2452.00,0.0010
2451.00,0.0010
2450.00,0.0010
2449.00,0.0010
2448.00,0.0010
2447.00,0.0010
2446.00,0.0010
2445.00,0.0009
2444.00,0.0009
2443.00,0.0009
2442.00,0.0008
2441.00,0.0008
2440.00,0.0008
2439.00,0.0008
2438.00,0.0008
2437.00,0.0008
2436.00,0.0008
2435.00,0.0008
2434.00,0.0009
2433.00,0.0009
2432.00,0.0010
2431.00,0.0010
2430.00,0.0010
2429.00,0.0010
2428.00,0.0009
2427.00,0.0009
2426.00,0.0009
2425.00,0.0009
2424.00,0.0009
2423.00,0.0009
2422.00,0.0009
2421.00,0.0010
2420.00,0.0010
2419.00,0.0010
2418.00,0.0009
2417.00,0.0007
2416.00,0.0007
2415.00,0.0006
2414.00,0.0007
2413.00,0.0007
2412.00,0.0007
2411.00,0.0007
2410.00,0.0007
2409.00,0.0007
2408.00,0.0007
2407.00,0.0007
2406.00,0.0007
2405.00,0.0007
2404.00,0.0007
2403.00,0.0007
2402.00,0.0006
2401.00,0.0005
2400.00,0.0005
2399.00,0.0005
2398.00,0.0006
2397.00,0.0006
2396.00,0.0006
2395.00,0.0006
2394.00,0.0006
2393.00,0.0005
2392.00,0.0005
2391.00,0.0005
2390.00,0.0006
2389.00,0.0007
2388.00,0.0008
2387.00,0.0008
2386.00,0.0007
2385.00,0.0006
2384.00,0.0005
2383.00,0.0004
2382.00,0.0002
2381.00,0.0001
2380.00,0.0001
2379.00,0.0001
2378.00,0.0001
2377.00,0.0001
2376.00,0.0002
2375.00,0.0001
2374.00,0.0001
2373.00,0.0001
2372.00,0.0002
2371.00,0.0002
2370.00,0.0001
2369.00,0.0000
2368.00,-0.0001
2367.00,-0.0003
2366.00,-0.0003
2365.00,-0.0002
2364.00,-0.0001
2363.00,-0.0001
2362.00,0.0000
2361.00,0.0001
2360.00,0.0001
2359.00,0.0001
2358.00,0.0001
2357.00,0.0001
2356.00,0.0001
2355.00,0.0000
2354.00,0.0000
2353.00,0.0000
2352.00,0.0000
2351.00,0.0000
2350.00,0.0001
2349.00,0.0001
2348.00,0.0002
2347.00,0.0001
2346.00,0.0001
2345.00,0.0001
2344.00,0.0002
2343.00,0.0003
2342.00,0.0003
2341.00,0.0003
2340.00,0.0003
2339.00,0.0004
2338.00,0.0003
2337.00,0.0003
2336.00,0.0003
2335.00,0.0002
2334.00,0.0002
2333.00,0.0002
2332.00,0.0002
2331.00,0.0002
2330.00,0.0003
2329.00,0.0005
2328.00,0.0007
2327.00,0.0010
2326.00,0.0014
2325.00,0.0017
2324.00,0.0018
2323.00,0.0017
2322.00,0.0014
2321.00,0.0011
2320.00,0.0010
2319.00,0.0009
2318.00,0.0009
2317.00,0.0008
2316.00,0.0008
2315.00,0.0008
2314.00,0.0007
2313.00,0.0007
2312.00,0.0007
2311.00,0.0006
2310.00,0.0007
2309.00,0.0007
2308.00,0.0007
2307.00,0.0007
2306.00,0.0008
2305.00,0.0008
2304.00,0.0009
2303.00,0.0009
2302.00,0.0009
2301.00,0.0009
2300.00,0.0009
2299.00,0.0009
2298.00,0.0010
2297.00,0.0011
2296.00,0.0011
2295.00,0.0012
2294.00,0.0012
2293.00,0.0013
2292.00,0.0013
2291.00,0.0014
2290.00,0.0015
2289.00,0.0015
2288.00,0.0016
2287.00,0.0016
2286.00,0.0017
2285.00,0.0017
2284.00,0.0017
2283.00,0.0016
2282.00,0.0016
2281.00,0.0016
2280.00,0.0016
2279.00,0.0016
2278.00,0.0016
2277.00,0.0015
2276.00,0.0014
2275.00,0.0012
2274.00,0.0010
2273.00,0.0010
2272.00,0.0009
2271.00,0.0008
2270.00,0.0008
2269.00,0.0009
2268.00,0.0010
2267.00,0.0010
2266.00,0.0009
2265.00,0.0009
2264.00,0.0009
2263.00,0.0009
2262.00,0.0009
2261.00,0.0009
2260.00,0.0010
2259.00,0.0010
2258.00,0.0010
2257.00,0.0010
2256.00,0.0010
2255.00,0.0010
2254.00,0.0009
2253.00,0.0008
2252.00,0.0006
2251.00,0.0004
2250.00,0.0003
2249.00,0.0003
2248.00,0.0004
2247.00,0.0006
2246.00,0.0008
2245.00,0.0008
2244.00,0.0008
2243.00,0.0008
2242.00,0.0008
2241.00,0.0008
2240.00,0.0008
2239.00,0.0008
2238.00,0.0007
2237.00,0.0006
2236.00,0.0005
2235.00,0.0004
2234.00,0.0003
2233.00,0.0003
2232.00,0.0005
2231.00,0.0005
2230.00,0.0006
2229.00,0.0005
2228.00,0.0005
2227.00,0.0004
2226.00,0.0004
2225.00,0.0005
2224.00,0.0007
2223.00,0.0008
2222.00,0.0008
2221.00,0.0007
2220.00,0.0005
2219.00,0.0002
2218.00,0.0000
2217.00,-0.0000
2216.00,0.0001
2215.00,0.0002
2214.00,0.0002
2213.00,0.0002
2212.00,0.0002
2211.00,0.0001
2210.00,0.0000
2209.00,0.0001
2208.00,0.0001
2207.00,0.0002
2206.00,0.0003
2205.00,0.0004
2204.00,0.0005
2203.00,0.0005
2202.00,0.0004
2201.00,0.0004
2200.00,0.0005
2199.00,0.0005
2198.00,0.0005
2197.00,0.0005
2196.00,0.0004
2195.00,0.0003
2194.00,0.0002
2193.00,0.0002
2192.00,0.0001
2191.00,0.0001
2190.00,0.0002
2189.00,0.0003
2188.00,0.0004
2187.00,0.0005
2186.00,0.0007
2185.00,0.0009
2184.00,0.0011
2183.00,0.0010
2182.00,0.0007
2181.00,0.0004
2180.00,0.0002
2179.00,0.0002
2178.00,0.0003
2177.00,0.0002
2176.00,0.0000
2175.00,-0.0002
2174.00,-0.0003
2173.00,-0.0002
2172.00,-0.0001
2171.00,-0.0001
2170.00,0.0000
2169.00,0.0002
2168.00,0.0006
2167.00,0.0010
2166.00,0.0011
2165.00,0.0012
2164.00,0.0012
2163.00,0.0013
2162.00,0.0013
2161.00,0.0009
2160.00,-0.0001
2159.00,-0.0014
2158.00,-0.0024
2157.00,-0.0028
2156.00,-0.0027
2155.00,-0.0027
2154.00,-0.0027
2153.00,-0.0027
2152.00,-0.0026
2151.00,-0.0024
2150.00,-0.0022
2149.00,-0.0020
2148.00,-0.0019
2147.00,-0.0019
2146.00,-0.0020
2145.00,-0.0021
2144.00,-0.0021
2143.00,-0.0020
2142.00,-0.0020
2141.00,-0.0019
2140.00,-0.0019
2139.00,-0.0017
2138.00,-0.0016
2137.00,-0.0016
2136.00,-0.0018
2135.00,-0.0021
2134.00,-0.0023
2133.00,-0.0023
2132.00,-0.0021
2131.00,-0.0019
2130.00,-0.0017
2129.00,-0.0014
2128.00,-0.0011
2127.00,-0.0009
2126.00,-0.0008
2125.00,-0.0008
2124.00,-0.0008
2123.00,-0.0008
2122.00,-0.0007
2121.00,-0.0006
2120.00,-0.0006
2119.00,-0.0006
2118.00,-0.0005
2117.00,-0.0004
2116.00,-0.0003
2115.00,-0.0001
2114.00,-0.0001
2113.00,-0.0000
2112.00,-0.0000
2111.00,-0.0000
2110.00,0.0000
2109.00,0.0001
2108.00,0.0002
2107.00,0.0002
2106.00,0.0001
2105.00,-0.0001
2104.00,-0.0002
2103.00,-0.0002
2102.00,-0.0001
2101.00,0.0001
2100.00,0.0002
2099.00,0.0001
2098.00,-0.0000
2097.00,-0.0003
2096.00,-0.0005
2095.00,-0.0006
2094.00,-0.0007
2093.00,-0.0005
2092.00,-0.0003
2091.00,-0.0001
2090.00,0.0000
2089.00,0.0000
2088.00,-0.0001
2087.00,-0.0003
2086.00,-0.0004
2085.00,-0.0003
2084.00,-0.0002
2083.00,-0.0000
2082.00,0.0001
2081.00,0.0002
2080.00,0.0002
2079.00,0.0002
2078.00,0.0002
2077.00,0.0001
2076.00,0.0001
2075.00,0.0001
2074.00,0.0001
2073.00,0.0001
2072.00,0.0001
2071.00,0.0000
2070.00,-0.0001
2069.00,-0.0001
2068.00,-0.0001
2067.00,-0.0001
2066.00,0.0001
2065.00,0.0001
2064.00,0.0000
2063.00,-0.0001
2062.00,-0.0003
2061.00,-0.0004
2060.00,-0.0004
2059.00,-0.0004
2058.00,-0.0003
2057.00,-0.0001
2056.00,0.0001
2055.00,0.0002
2054.00,0.0004
2053.00,0.0008
2052.00,0.0013
2051.00,0.0014
2050.00,0.0012
2049.00,0.0007
2048.00,0.0004
2047.00,0.0001
2046.00,-0.0001
2045.00,-0.0002
2044.00,-0.0002
2043.00,-0.0001
2042.00,0.0002
2041.00,0.0004
2040.00,0.0004
2039.00,0.0003
2038.00,0.0000
2037.00,-0.0001
2036.00,-0.0002
2035.00,-0.0002
2034.00,-0.0004
2033.00,-0.0006
2032.00,-0.0007
2031.00,-0.0010
2030.00,-0.0012
2029.00,-0.0015
2028.00,-0.0016
2027.00,-0.0017
2026.00,-0.0017
2025.00,-0.0016
2024.00,-0.0013
2023.00,-0.0011
2022.00,-0.0010
2021.00,-0.0011
2020.00,-0.0013
2019.00,-0.0016
2018.00,-0.0019
2017.00,-0.0021
2016.00,-0.0021
2015.00,-0.0018
2014.00,-0.0015
2013.00,-0.0012
2012.00,-0.0009
2011.00,-0.0009
2010.00,-0.0010
2009.00,-0.0013
2008.00,-0.0017
2007.00,-0.0022
2006.00,-0.0024
2005.00,-0.0024
2004.00,-0.0021
2003.00,-0.0018
2002.00,-0.0015
2001.00,-0.0012
2000.00,-0.0010
1999.00,-0.0008
1998.00,-0.0009
1997.00,-0.0012
1996.00,-0.0015
1995.00,-0.0018
1994.00,-0.0019
1993.00,-0.0018
1992.00,-0.0015
1991.00,-0.0012
1990.00,-0.0009
1989.00,-0.0007
1988.00,-0.0005
1987.00,-0.0004
1986.00,-0.0003
1985.00,-0.0001
1984.00,0.0002
1983.00,0.0004
1982.00,0.0005
1981.00,0.0006
1980.00,0.0005
1979.00,-0.0000
1978.00,-0.0008
1977.00,-0.0016
1976.00,-0.0019
1975.00,-0.0020
1974.00,-0.0019
1973.00,-0.0019
1972.00,-0.0019
1971.00,-0.0019
1970.00,-0.0019
1969.00,-0.0019
1968.00,-0.0019
1967.00,-0.0018
1966.00,-0.0017
1965.00,-0.0018
1964.00,-0.0019
1963.00,-0.0020
1962.00,-0.0020
1961.00,-0.0020
1960.00,-0.0019
1959.00,-0.0019
1958.00,-0.0018
1957.00,-0.0016
1956.00,-0.0015
1955.00,-0.0015
1954.00,-0.0016
1953.00,-0.0017
1952.00,-0.0018
1951.00,-0.0018
1950.00,-0.0017
1949.00,-0.0018
1948.00,-0.0018
1947.00,-0.0019
1946.00,-0.0019
1945.00,-0.0018
1944.00,-0.0016
1943.00,-0.0016
1942.00,-0.0016
1941.00,-0.0017
1940.00,-0.0017
1939.00,-0.0016
1938.00,-0.0014
1937.00,-0.0013
1936.00,-0.0011
1935.00,-0.0011
1934.00,-0.0011
1933.00,-0.0011
1932.00,-0.0010
1931.00,-0.0009
1930.00,-0.0009
1929.00,-0.0009
1928.00,-0.0008
1927.00,-0.0008
1926.00,-0.0008
1925.00,-0.0009
1924.00,-0.0009
1923.00,-0.0009
1922.00,-0.0008
1921.00,-0.0007
1920.00,-0.0005
1919.00,-0.0004
1918.00,-0.0005
1917.00,-0.0006
1916.00,-0.0007
1915.00,-0.0007
1914.00,-0.0007
1913.00,-0.0007
1912.00,-0.0006
1911.00,-0.0006
1910.00,-0.0006
1909.00,-0.0005
1908.00,-0.0004
1907.00,-0.0003
1906.00,-0.0003
1905.00,-0.0003
1904.00,-0.0004
1903.00,-0.0004
1902.00,-0.0004
1901.00,-0.0003
1900.00,-0.0002
1899.00,-0.0001
1898.00,-0.0001
1897.00,-0.0001
1896.00,-0.0002
1895.00,-0.0003
1894.00,-0.0003
1893.00,-0.0003
1892.00,-0.0003
1891.00,-0.0003
1890.00,-0.0003
1889.00,-0.0004
1888.00,-0.0005
1887.00,-0.0006
1886.00,-0.0006
1885.00,-0.0006
1884.00,-0.0005
1883.00,-0.0004
1882.00,-0.0003
1881.00,-0.0003
1880.00,-0.0002
1879.00,-0.0002
1878.00,-0.0002
1877.00,-0.0002
1876.00,-0.0002
1875.00,-0.0001
1874.00,-0.0000
1873.00,-0.0000
1872.00,-0.0001
1871.00,-0.0002
1870.00,-0.0002
1869.00,-0.0002
1868.00,-0.0002
1867.00,-0.0002
1866.00,-0.0002
1865.00,-0.0001
1864.00,-0.0001
1863.00,-0.0001
1862.00,-0.0001
1861.00,-0.0002
1860.00,-0.0002
1859.00,-0.0002
1858.00,-0.0001
1857.00,-0.0001
1856.00,-0.0000
1855.00,0.0000
1854.00,-0.0000
1853.00,-0.0000
1852.00,-0.0000
1851.00,-0.0001
1850.00,-0.0002
1849.00,-0.0002
1848.00,-0.0002
1847.00,-0.0002
1846.00,-0.0002
1845.00,-0.0001
1844.00,0.0001
1843.00,0.0001
1842.00,0.0000
1841.00,-0.0000
1840.00,-0.0000
1839.00,-0.0000
1838.00,0.0000
1837.00,0.0001
1836.00,0.0001
1835.00,0.0001
1834.00,0.0001
1833.00,0.0001
1832.00,0.0001
1831.00,0.0001
1830.00,0.0001
1829.00,0.0001
1828.00,0.0000
1827.00,0.0000
1826.00,0.0001
1825.00,0.0001
1824.00,0.0001
1823.00,0.0001
1822.00,0.0001
1821.00,0.0001
1820.00,0.0001
1819.00,0.0000
1818.00,-0.0001
1817.00,-0.0001
1816.00,-0.0002
1815.00,-0.0001
1814.00,-0.0001
1813.00,0.0000
1812.00,0.0001
1811.00,0.0002
1810.00,0.0002
1809.00,0.0002
1808.00,0.0002
1807.00,0.0003
1806.00,0.0003
1805.00,0.0002
1804.00,0.0002
1803.00,0.0002
1802.00,0.0002
1801.00,0.0002
1800.00,0.0003
1799.00,0.0003
1798.00,0.0004
1797.00,0.0004
1796.00,0.0004
1795.00,0.0004
1794.00,0.0004
1793.00,0.0004
1792.00,0.0004
1791.00,0.0004
1790.00,0.0005
1789.00,0.0005
1788.00,0.0006
1787.00,0.0006
1786.00,0.0005
1785.00,0.0005
1784.00,0.0005
1783.00,0.0005
1782.00,0.0005
1781.00,0.0005
1780.00,0.0005
1779.00,0.0004
1778.00,0.0004
1777.00,0.0005
1776.00,0.0005
1775.00,0.0005
1774.00,0.0005
1773.00,0.0006
1772.00,0.0006
1771.00,0.0006
1770.00,0.0006
1769.00,0.0006
1768.00,0.0007
1767.00,0.0007
1766.00,0.0007
1765.00,0.0007
1764.00,0.0007
1763.00,0.0007
1762.00,0.0007
1761.00,0.0007
1760.00,0.0008
1759.00,0.0008
1758.00,0.0008
1757.00,0.0009
1756.00,0.0009
1755.00,0.0009
1754.00,0.0009
1753.00,0.0010
1752.00,0.0010
1751.00,0.0011
1750.00,0.0011
1749.00,0.0011
1748.00,0.0011
1747.00,0.0011
1746.00,0.0011
1745.00,0.0011
1744.00,0.0012
1743.00,0.0012
1742.00,0.0011
1741.00,0.0012
1740.00,0.0012
1739.00,0.0013
1738.00,0.0013
1737.00,0.0013
1736.00,0.0013
1735.00,0.0014
1734.00,0.0014
1733.00,0.0014
1732.00,0.0013
1731.00,0.0013
1730.00,0.0013
1729.00,0.0014
1728.00,0.0014
1727.00,0.0015
1726.00,0.0015
1725.00,0.0015
1724.00,0.0015
1723.00,0.0015
1722.00,0.0015
1721.00,0.0015
1720.00,0.0015
1719.00,0.0015
1718.00,0.0015
1717.00,0.0015
1716.00,0.0016
1715.00,0.0016
1714.00,0.0016
1713.00,0.0016
1712.00,0.0016
1711.00,0.0016
1710.00,0.0017
1709.00,0.0017
1708.00,0.0017
1707.00,0.0017
1706.00,0.0017
1705.00,0.0017
1704.00,0.0018
1703.00,0.0018
1702.00,0.0019
1701.00,0.0020
1700.00,0.0021
1699.00,0.0021
1698.00,0.0021
1697.00,0.0021
1696.00,0.0021
1695.00,0.0021
1694.00,0.0022
1693.00,0.0023
1692.00,0.0023
1691.00,0.0024
1690.00,0.0025
1689.00,0.0025
1688.00,0.0026
1687.00,0.0027
1686.00,0.0027
1685.00,0.0028
1684.00,0.0028
1683.00,0.0028
1682.00,0.0028
1681.00,0.0029
1680.00,0.0030
1679.00,0.0030
1678.00,0.0030
1677.00,0.0030
1676.00,0.0030
1675.00,0.0031
1674.00,0.0031
1673.00,0.0031
1672.00,0.0031
1671.00,0.0032
1670.00,0.0033
1669.00,0.0033
1668.00,0.0034
1667.00,0.0034
1666.00,0.0033
1665.00,0.0033
1664.00,0.0033
1663.00,0.0034
1662.00,0.0034
1661.00,0.0034
1660.00,0.0034
1659.00,0.0035
1658.00,0.0035
1657.00,0.0035
1656.00,0.0035
1655.00,0.0035
1654.00,0.0035
1653.00,0.0035
1652.00,0.0035
1651.00,0.0035
1650.00,0.0034
1649.00,0.0034
1648.00,0.0034
1647.00,0.0035
1646.00,0.0034
1645.00,0.0034
1644.00,0.0034
1643.00,0.0034
1642.00,0.0035
1641.00,0.0035
1640.00,0.0035
1639.00,0.0035
1638.00,0.0034
1637.00,0.0033
1636.00,0.0033
1635.00,0.0032
1634.00,0.0032
1633.00,0.0032
1632.00,0.0033
1631.00,0.0033
1630.00,0.0032
1629.00,0.0032
1628.00,0.0031
1627.00,0.0031
1626.00,0.0030
1625.00,0.0030
1624.00,0.0030
1623.00,0.0030
1622.00,0.0030
1621.00,0.0031
1620.00,0.0031
1619.00,0.0031
1618.00,0.0030
1617.00,0.0030
1616.00,0.0029
1615.00,0.0029
1614.00,0.0028
1613.00,0.0029
1612.00,0.0029
1611.00,0.0029
1610.00,0.0029
1609.00,0.0029
1608.00,0.0029
1607.00,0.0029
1606.00,0.0029
1605.00,0.0029
1604.00,0.0029
1603.00,0.0028
1602.00,0.0028
1601.00,0.0027
1600.00,0.0027
1599.00,0.0027
1598.00,0.0027
1597.00,0.0028
1596.00,0.0028
1595.00,0.0028
1594.00,0.0027
1593.00,0.0027
1592.00,0.0027
1591.00,0.0027
1590.00,0.0027
1589.00,0.0027
1588.00,0.0027
1587.00,0.0026
1586.00,0.0026
1585.00,0.0026
1584.00,0.0025
1583.00,0.0025
1582.00,0.0024
1581.00,0.0024
1580.00,0.0024
1579.00,0.0024
1578.00,0.0024
1577.00,0.0023
1576.00,0.0023
1575.00,0.0023
1574.00,0.0023
1573.00,0.0023
1572.00,0.0024
1571.00,0.0025
1570.00,0.0026
1569.00,0.0026
1568.00,0.0027
1567.00,0.0028
1566.00,0.0029
1565.00,0.0030
1564.00,0.0031
1563.00,0.0031
1562.00,0.0031
1561.00,0.0032
1560.00,0.0033
1559.00,0.0032
1558.00,0.0030
1557.00,0.0030
1556.00,0.0030
1555.00,0.0031
1554.00,0.0031
1553.00,0.0032
1552.00,0.0032
1551.00,0.0032
1550.00,0.0032
1549.00,0.0033
1548.00,0.0033
1547.00,0.0033
1546.00,0.0032
1545.00,0.0031
1544.00,0.0030
1543.00,0.0029
1542.00,0.0027
1541.00,0.0026
1540.00,0.0025
1539.00,0.0025
1538.00,0.0026
1537.00,0.0027
1536.00,0.0029
1535.00,0.0030
1534.00,0.0031
1533.00,0.0031
1532.00,0.0032
1531.00,0.0032
1530.00,0.0032
1529.00,0.0033
1528.00,0.0035
1527.00,0.0036
1526.00,0.0036
1525.00,0.0037
1524.00,0.0038
1523.00,0.0038
1522.00,0.0038
1521.00,0.0038
1520.00,0.0038
1519.00,0.0039
1518.00,0.0039
1517.00,0.0039
1516.00,0.0040
1515.00,0.0041
1514.00,0.0042
1513.00,0.0044
1512.00,0.0045
1511.00,0.0045
1510.00,0.0046
1509.00,0.0047
1508.00,0.0049
1507.00,0.0051
1506.00,0.0052
1505.00,0.0053
1504.00,0.0055
1503.00,0.0056
1502.00,0.0057
1501.00,0.0058
1500.00,0.0060
1499.00,0.0062
1498.00,0.0064
1497.00,0.0067
1496.00,0.0071
1495.00,0.0073
1494.00,0.0075
1493.00,0.0077
1492.00,0.0081
1491.00,0.0084
1490.00,0.0087
1489.00,0.0091
1488.00,0.0096
1487.00,0.0100
1486.00,0.0104
1485.00,0.0110
1484.00,0.0117
1483.00,0.0124
1482.00,0.0132
1481.00,0.0142
1480.00,0.0153
1479.00,0.0164
1478.00,0.0178
1477.00,0.0196
1476.00,0.0218
1475.00,0.0243
1474.00,0.0277
1473.00,0.0329
1472.00,0.0394
1471.00,0.0459
1470.00,0.0522
1469.00,0.0588
1468.00,0.0659
1467.00,0.0738
1466.00,0.0829
1465.00,0.0928
1464.00,0.1019
1463.00,0.1084
1462.00,0.1130
1461.00,0.1164
1460.00,0.1190
1459.00,0.1211
1458.00,0.1232
1457.00,0.1251
1456.00,0.1261
1455.00,0.1262
1454.00,0.1258
1453.00,0.1248
1452.00,0.1228
1451.00,0.1193
1450.00,0.1140
1449.00,0.1064
1448.00,0.0964
1447.00,0.0858
1446.00,0.0761
1445.00,0.0679
1444.00,0.0608
1443.00,0.0551
1442.00,0.0508
1441.00,0.0479
1440.00,0.0461
1439.00,0.0453
1438.00,0.0451
1437.00,0.0449
1436.00,0.0436
1435.00,0.0407
1434.00,0.0368
1433.00,0.0321
1432.00,0.0273
1431.00,0.0231
1430.00,0.0199
1429.00,0.0175
1428.00,0.0160
1427.00,0.0150
1426.00,0.0143
1425.00,0.0137
1424.00,0.0131
1423.00,0.0128
1422.00,0.0126
1421.00,0.0123
1420.00,0.0120
1419.00,0.0117
1418.00,0.0114
1417.00,0.0111
1416.00,0.0109
1415.00,0.0108
1414.00,0.0108
1413.00,0.0107
1412.00,0.0106
1411.00,0.0105
1410.00,0.0105
1409.00,0.0105
1408.00,0.0104
1407.00,0.0104
1406.00,0.0105
1405.00,0.0105
1404.00,0.0105
1403.00,0.0106
1402.00,0.0108
1401.00,0.0109
1400.00,0.0111
1399.00,0.0113
1398.00,0.0116
1397.00,0.0118
1396.00,0.0120
1395.00,0.0125
1394.00,0.0131
1393.00,0.0137
1392.00,0.0143
1391.00,0.0153
1390.00,0.0167
1389.00,0.0186
1388.00,0.0213
1387.00,0.0254
1386.00,0.0308
1385.00,0.0375
1384.00,0.0463
1383.00,0.0581
1382.00,0.0734
1381.00,0.0927
1380.00,0.1162
1379.00,0.1427
1378.00,0.1683
1377.00,0.1874
1376.00,0.1942
1375.00,0.1853
1374.00,0.1629
1373.00,0.1351
1372.00,0.1093
1371.00,0.0877
1370.00,0.0703
1369.00,0.0570
1368.00,0.0477
1367.00,0.0420
1366.00,0.0389
1365.00,0.0378
1364.00,0.0381
1363.00,0.0396
1362.00,0.0418
1361.00,0.0442
1360.00,0.0459
1359.00,0.0462
1358.00,0.0450
1357.00,0.0422
1356.00,0.0382
1355.00,0.0338
1354.00,0.0295
1353.00,0.0258
1352.00,0.0228
1351.00,0.0204
1350.00,0.0184
1349.00,0.0169
1348.00,0.0157
1347.00,0.0148
1346.00,0.0140
1345.00,0.0134
1344.00,0.0129
1343.00,0.0125
1342.00,0.0121
1341.00,0.0119
1340.00,0.0117
1339.00,0.0115
1338.00,0.0113
1337.00,0.0113
1336.00,0.0114
1335.00,0.0116
1334.00,0.0119
1333.00,0.0124
1332.00,0.0128
1331.00,0.0132
1330.00,0.0133
1329.00,0.0132
1328.00,0.0128
1327.00,0.0123
1326.00,0.0117
1325.00,0.0111
1324.00,0.0104
1323.00,0.0098
1322.00,0.0093
1321.00,0.0090
1320.00,0.0087
1319.00,0.0085
1318.00,0.0083
1317.00,0.0081
1316.00,0.0079
1315.00,0.0077
1314.00,0.0077
1313.00,0.0077
1312.00,0.0079
1311.00,0.0082
1310.00,0.0087
1309.00,0.0096
1308.00,0.0107
1307.00,0.0121
1306.00,0.0134
1305.00,0.0144
1304.00,0.0147
1303.00,0.0144
1302.00,0.0138
1301.00,0.0132
1300.00,0.0128
1299.00,0.0126
1298.00,0.0126
1297.00,0.0125
1296.00,0.0124
1295.00,0.0121
1294.00,0.0118
1293.00,0.0113
1292.00,0.0107
1291.00,0.0102
1290.00,0.0098
1289.00,0.0093
1288.00,0.0090
1287.00,0.0086
1286.00,0.0083
1285.00,0.0081
1284.00,0.0079
1283.00,0.0077
1282.00,0.0075
1281.00,0.0074
1280.00,0.0072
1279.00,0.0071
1278.00,0.0071
1277.00,0.0070
1276.00,0.0070
1275.00,0.0071
1274.00,0.0071
1273.00,0.0072
1272.00,0.0072
1271.00,0.0072
1270.00,0.0072
1269.00,0.0072
1268.00,0.0073
1267.00,0.0074
1266.00,0.0075
1265.00,0.0078
1264.00,0.0081
1263.00,0.0085
1262.00,0.0089
1261.00,0.0095
1260.00,0.0102
1259.00,0.0110
1258.00,0.0119
1257.00,0.0127
1256.00,0.0130
1255.00,0.0129
1254.00,0.0122
1253.00,0.0113
1252.00,0.0103
1251.00,0.0095
1250.00,0.0090
1249.00,0.0086
1248.00,0.0083
1247.00,0.0081
1246.00,0.0079
1245.00,0.0078
1244.00,0.0077
1243.00,0.0076
1242.00,0.0076
1241.00,0.0075
1240.00,0.0074
1239.00,0.0073
1238.00,0.0072
1237.00,0.0071
1236.00,0.0070
1235.00,0.0070
1234.00,0.0069
1233.00,0.0068
1232.00,0.0068
1231.00,0.0068
1230.00,0.0068
1229.00,0.0069
1228.00,0.0070
1227.00,0.0071
1226.00,0.0072
1225.00,0.0074
1224.00,0.0077
1223.00,0.0080
1222.00,0.0084
1221.00,0.0087
1220.00,0.0088
1219.00,0.0089
1218.00,0.0088
1217.00,0.0087
1216.00,0.0084
1215.00,0.0082
1214.00,0.0079
1213.00,0.0076
1212.00,0.0073
1211.00,0.0071
1210.00,0.0069
1209.00,0.0067
1208.00,0.0066
1207.00,0.0065
1206.00,0.0064
1205.00,0.0063
1204.00,0.0062
1203.00,0.0061
1202.00,0.0061
1201.00,0.0061
1200.00,0.0061
1199.00,0.0061
1198.00,0.0061
1197.00,0.0061
1196.00,0.0060
1195.00,0.0060
1194.00,0.0060
1193.00,0.0060
1192.00,0.0060
1191.00,0.0060
1190.00,0.0060
1189.00,0.0060
1188.00,0.0061
1187.00,0.0061
1186.00,0.0062
1185.00,0.0064
1184.00,0.0065
1183.00,0.0067
1182.00,0.0070
1181.00,0.0073
1180.00,0.0078
1179.00,0.0085
1178.00,0.0092
1177.00,0.0102
1176.00,0.0116
1175.00,0.0134
1174.00,0.0158
1173.00,0.0188
1172.00,0.0224
1171.00,0.0264
1170.00,0.0303
1169.00,0.0335
1168.00,0.0355
1167.00,0.0361
1166.00,0.0353
1165.00,0.0336
1164.00,0.0313
1163.00,0.0290
1162.00,0.0269
1161.00,0.0251
1160.00,0.0237
1159.00,0.0225
1158.00,0.0216
1157.00,0.0209
1156.00,0.0203
1155.00,0.0199
1154.00,0.0195
1153.00,0.0191
1152.00,0.0186
1151.00,0.0179
1150.00,0.0170
1149.00,0.0161
1148.00,0.0151
1147.00,0.0141
1146.00,0.0132
1145.00,0.0123
1144.00,0.0114
1143.00,0.0107
1142.00,0.0101
1141.00,0.0096
1140.00,0.0090
1139.00,0.0086
1138.00,0.0081
1137.00,0.0078
1136.00,0.0074
1135.00,0.0072
1134.00,0.0070
1133.00,0.0068
1132.00,0.0067
1131.00,0.0066
1130.00,0.0066
1129.00,0.0066
1128.00,0.0066
1127.00,0.0066
1126.00,0.0066
1125.00,0.0067
1124.00,0.0067
1123.00,0.0067
1122.00,0.0067
1121.00,0.0067
1120.00,0.0066
1119.00,0.0067
1118.00,0.0067
1117.00,0.0068
1116.00,0.0069
1115.00,0.0070
1114.00,0.0072
1113.00,0.0074
1112.00,0.0077
1111.00,0.0080
1110.00,0.0084
1109.00,0.0088
1108.00,0.0094
1107.00,0.0100
1106.00,0.0107
1105.00,0.0115
1104.00,0.0121
1103.00,0.0125
1102.00,0.0126
1101.00,0.0123
1100.00,0.0118
1099.00,0.0111
1098.00,0.0104
1097.00,0.0097
1096.00,0.0091
1095.00,0.0086
1094.00,0.0083
1093.00,0.0081
1092.00,0.0079
1091.00,0.0076
1090.00,0.0074
1089.00,0.0073
1088.00,0.0072
1087.00,0.0071
1086.00,0.0070
1085.00,0.0070
1084.00,0.0069
1083.00,0.0069
1082.00,0.0069
1081.00,0.0068
1080.00,0.0068
1079.00,0.0067
1078.00,0.0066
1077.00,0.0065
1076.00,0.0064
1075.00,0.0063
1074.00,0.0063
1073.00,0.0063
1072.00,0.0063
1071.00,0.0064
1070.00,0.0064
1069.00,0.0064
1068.00,0.0063
1067.00,0.0063
1066.00,0.0063
1065.00,0.0064
1064.00,0.0065
1063.00,0.0066
1062.00,0.0066
1061.00,0.0067
1060.00,0.0067
1059.00,0.0067
1058.00,0.0067
1057.00,0.0067
1056.00,0.0067
1055.00,0.0068
1054.00,0.0069
1053.00,0.0071
1052.00,0.0072
1051.00,0.0074
1050.00,0.0077
1049.00,0.0080
1048.00,0.0083
1047.00,0.0086
1046.00,0.0089
1045.00,0.0090
1044.00,0.0090
1043.00,0.0088
1042.00,0.0085
1041.00,0.0082
1040.00,0.0079
1039.00,0.0077
1038.00,0.0077
1037.00,0.0078
1036.00,0.0078
1035.00,0.0079
1034.00,0.0079
1033.00,0.0078
1032.00,0.0078
1031.00,0.0078
1030.00,0.0079
1029.00,0.0079
1028.00,0.0080
1027.00,0.0079
1026.00,0.0078
1025.00,0.0076
1024.00,0.0076
1023.00,0.0077
1022.00,0.0079
1021.00,0.0081
1020.00,0.0082
1019.00,0.0084
1018.00,0.0085
1017.00,0.0087
1016.00,0.0088
1015.00,0.0091
1014.00,0.0095
1013.00,0.0100
1012.00,0.0104
1011.00,0.0108
1010.00,0.0112
1009.00,0.0117
1008.00,0.0124
1007.00,0.0132
1006.00,0.0143
1005.00,0.0157
1004.00,0.0176
1003.00,0.0202
1002.00,0.0236
1001.00,0.0278
1000.00,0.0324
999.00,0.0363
998.00,0.0384
997.00,0.0379
996.00,0.0349
995.00,0.0304
994.00,0.0255
993.00,0.0212
992.00,0.0179
991.00,0.0155
990.00,0.0137
989.00,0.0125
988.00,0.0118
987.00,0.0114
986.00,0.0113
985.00,0.0114
984.00,0.0119
983.00,0.0128
982.00,0.0140
981.00,0.0159
980.00,0.0184
979.00,0.0218
978.00,0.0260
977.00,0.0309
976.00,0.0364
975.00,0.0416
974.00,0.0458
973.00,0.0476
972.00,0.0463
971.00,0.0423
970.00,0.0364
969.00,0.0302
968.00,0.0247
967.00,0.0204
966.00,0.0173
965.00,0.0151
964.00,0.0135
963.00,0.0123
962.00,0.0113
961.00,0.0105
960.00,0.0098
959.00,0.0093
958.00,0.0090
957.00,0.0087
956.00,0.0084
955.00,0.0082
954.00,0.0080
953.00,0.0078
952.00,0.0077
951.00,0.0076
950.00,0.0076
949.00,0.0076
948.00,0.0077
947.00,0.0077
946.00,0.0079
945.00,0.0082
944.00,0.0085
943.00,0.0089
942.00,0.0091
941.00,0.0092
940.00,0.0091
939.00,0.0089
938.00,0.0085
937.00,0.0080
936.00,0.0074
935.00,0.0070
934.00,0.0065
933.00,0.0062
932.00,0.0059
931.00,0.0058
930.00,0.0058
929.00,0.0058
928.00,0.0058
927.00,0.0057
926.00,0.0057
925.00,0.0056
924.00,0.0056
923.00,0.0057
922.00,0.0057
921.00,0.0058
920.00,0.0059
919.00,0.0060
918.00,0.0062
917.00,0.0064
916.00,0.0064
915.00,0.0065
914.00,0.0065
913.00,0.0065
912.00,0.0065
911.00,0.0066
910.00,0.0067
909.00,0.0069
908.00,0.0072
907.00,0.0076
906.00,0.0084
905.00,0.0095
904.00,0.0111
903.00,0.0130
902.00,0.0151
901.00,0.0169
900.00,0.0181
899.00,0.0184
898.00,0.0177
897.00,0.0162
896.00,0.0143
895.00,0.0124
894.00,0.0107
893.00,0.0095
892.00,0.0087
891.00,0.0081
890.00,0.0077
889.00,0.0074
888.00,0.0071
887.00,0.0068
886.00,0.0066
885.00,0.0064
884.00,0.0064
883.00,0.0065
882.00,0.0066
881.00,0.0067
880.00,0.0067
879.00,0.0068
878.00,0.0068
877.00,0.0068
876.00,0.0069
875.00,0.0069
874.00,0.0069
873.00,0.0069
872.00,0.0068
871.00,0.0067
870.00,0.0067
869.00,0.0066
868.00,0.0067
867.00,0.0067
866.00,0.0068
865.00,0.0069
864.00,0.0071
863.00,0.0073
862.00,0.0075
861.00,0.0078
860.00,0.0081
859.00,0.0083
858.00,0.0084
857.00,0.0084
856.00,0.0084
855.00,0.0085
854.00,0.0086
853.00,0.0089
852.00,0.0092
851.00,0.0098
850.00,0.0105
849.00,0.0115
848.00,0.0127
847.00,0.0145
846.00,0.0172
845.00,0.0212
844.00,0.0265
843.00,0.0323
842.00,0.0368
841.00,0.0382
840.00,0.0358
839.00,0.0307
838.00,0.0251
837.00,0.0205
836.00,0.0173
835.00,0.0154
834.00,0.0142
833.00,0.0134
832.00,0.0128
831.00,0.0121
830.00,0.0115
829.00,0.0110
828.00,0.0108
827.00,0.0107
826.00,0.0107
825.00,0.0107
824.00,0.0106
823.00,0.0105
822.00,0.0105
821.00,0.0106
820.00,0.0108
819.00,0.0111
818.00,0.0115
817.00,0.0120
816.00,0.0127
815.00,0.0137
814.00,0.0150
813.00,0.0166
812.00,0.0182
811.00,0.0198
810.00,0.0210
809.00,0.0215
808.00,0.0213
807.00,0.0203
806.00,0.0188
805.00,0.0170
804.00,0.0153
803.00,0.0139
802.00,0.0129
801.00,0.0121
800.00,0.0114
799.00,0.0108
798.00,0.0103
797.00,0.0098
796.00,0.0095
795.00,0.0091
794.00,0.0087
793.00,0.0084
792.00,0.0082
791.00,0.0081
790.00,0.0080
789.00,0.0078
788.00,0.0074
787.00,0.0071
786.00,0.0067
785.00,0.0064
784.00,0.0060
783.00,0.0058
782.00,0.0057
781.00,0.0057
780.00,0.0056
779.00,0.0055
778.00,0.0055
777.00,0.0055
776.00,0.0057
775.00,0.0060
774.00,0.0063
773.00,0.0065
772.00,0.0069
771.00,0.0072
770.00,0.0076
769.00,0.0078
768.00,0.0078
767.00,0.0077
766.00,0.0075
765.00,0.0073
764.00,0.0070
763.00,0.0067
762.00,0.0063
761.00,0.0061
760.00,0.0059
759.00,0.0057
758.00,0.0054
757.00,0.0051
756.00,0.0048
755.00,0.0046
754.00,0.0045
753.00,0.0045
752.00,0.0045
751.00,0.0045
750.00,0.0045
749.00,0.0044
748.00,0.0043
747.00,0.0043
746.00,0.0044
745.00,0.0045
744.00,0.0046
743.00,0.0047
742.00,0.0047
741.00,0.0048
740.00,0.0047
739.00,0.0046
738.00,0.0046
737.00,0.0047
736.00,0.0049
735.00,0.0051
734.00,0.0052
733.00,0.0053
732.00,0.0053
731.00,0.0053
730.00,0.0052
729.00,0.0051
728.00,0.0051
727.00,0.0050
726.00,0.0049
725.00,0.0048
724.00,0.0048
723.00,0.0048
722.00,0.0048
721.00,0.0048
720.00,0.0047
719.00,0.0045
718.00,0.0044
717.00,0.0043
716.00,0.0043
715.00,0.0043
714.00,0.0042
713.00,0.0042
712.00,0.0042
711.00,0.0043
710.00,0.0043
709.00,0.0042
708.00,0.0042
707.00,0.0043
706.00,0.0044
705.00,0.0045
704.00,0.0044
703.00,0.0043
702.00,0.0042
701.00,0.0042
700.00,0.0042
699.00,0.0042
698.00,0.0041
697.00,0.0042
696.00,0.0044
695.00,0.0045
694.00,0.0044
693.00,0.0042
692.00,0.0040
691.00,0.0040
690.00,0.0042
689.00,0.0044
688.00,0.0045
687.00,0.0044
686.00,0.0041
685.00,0.0039
684.00,0.0038
683.00,0.0040
682.00,0.0042
681.00,0.0044
680.00,0.0045
679.00,0.0043
678.00,0.0040
677.00,0.0037
676.00,0.0035
675.00,0.0035
674.00,0.0036
673.00,0.0037
672.00,0.0036
671.00,0.0035
670.00,0.0034
669.00,0.0035
668.00,0.0038
667.00,0.0041
666.00,0.0042
665.00,0.0040
664.00,0.0038
663.00,0.0037
662.00,0.0036
661.00,0.0038
660.00,0.0041
659.00,0.0043
658.00,0.0043
657.00,0.0041
656.00,0.0040
655.00,0.0039
654.00,0.0040
653.00,0.0042
652.00,0.0043
651.00,0.0044
650.00,0.0042
649.00,0.0040
648.00,0.0037
647.00,0.0036
646.00,0.0037
645.00,0.0039
644.00,0.0040
643.00,0.0042
642.00,0.0043
641.00,0.0044
640.00,0.0044
639.00,0.0045
638.00,0.0045
637.00,0.0046
636.00,0.0045
635.00,0.0043
634.00,0.0041
633.00,0.0039
632.00,0.0039
631.00,0.0042
630.00,0.0046
629.00,0.0049
628.00,0.0051
627.00,0.0051
626.00,0.0050
625.00,0.0048
624.00,0.0047
623.00,0.0047
622.00,0.0047
621.00,0.0047
620.00,0.0044
619.00,0.0041
618.00,0.0040
617.00,0.0039
616.00,0.0040
615.00,0.0043
614.00,0.0046
613.00,0.0047
612.00,0.0047
611.00,0.0044
610.00,0.0042
609.00,0.0042
608.00,0.0042
607.00,0.0043
606.00,0.0043
605.00,0.0043
604.00,0.0042
603.00,0.0042
602.00,0.0042
601.00,0.0043
600.00,0.0045
599.00,0.0047
598.00,0.0050
597.00,0.0053
596.00,0.0053
595.00,0.0052
594.00,0.0051
593.00,0.0050
592.00,0.0048
591.00,0.0046
590.00,0.0044
589.00,0.0043
588.00,0.0043
587.00,0.0042
586.00,0.0042
585.00,0.0044
584.00,0.0048
583.00,0.0053
582.00,0.0055
581.00,0.0055
580.00,0.0051
579.00,0.0048
578.00,0.0046
577.00,0.0045
576.00,0.0045
575.00,0.0045
574.00,0.0043
573.00,0.0043
572.00,0.0045
571.00,0.0049
570.00,0.0051
569.00,0.0051
568.00,0.0050
567.00,0.0049
566.00,0.0050
565.00,0.0051
564.00,0.0050
563.00,0.0048
562.00,0.0047
561.00,0.0048
560.00,0.0050
559.00,0.0051
558.00,0.0050
557.00,0.0048
556.00,0.0046
555.00,0.0046
554.00,0.0046
553.00,0.0046
552.00,0.0046
551.00,0.0046
550.00,0.0048
549.00,0.0049
548.00,0.0050
547.00,0.0051
546.00,0.0053
545.00,0.0055
544.00,0.0058
543.00,0.0060
542.00,0.0062
541.00,0.0063
540.00,0.0064
539.00,0.0066
538.00,0.0067
537.00,0.0068
536.00,0.0069
535.00,0.0070
534.00,0.0070
533.00,0.0072
532.00,0.0076
531.00,0.0080
530.00,0.0082
529.00,0.0081
528.00,0.0077
527.00,0.0075
526.00,0.0075
525.00,0.0074
524.00,0.0072
523.00,0.0070
522.00,0.0068
521.00,0.0065
520.00,0.0061
519.00,0.0056
518.00,0.0051
517.00,0.0050
516.00,0.0053
515.00,0.0058
514.00,0.0063
513.00,0.0066
512.00,0.0067
511.00,0.0064
510.00,0.0059
509.00,0.0051
508.00,0.0045
507.00,0.0044
506.00,0.0048
505.00,0.0057
504.00,0.0064
503.00,0.0067
502.00,0.0065
501.00,0.0059
500.00,0.0054
499.00,0.0051
498.00,0.0048
497.00,0.0044
496.00,0.0040
495.00,0.0040
494.00,0.0043
493.00,0.0046
492.00,0.0045
491.00,0.0043
490.00,0.0043
489.00,0.0048
488.00,0.0053
487.00,0.0056
486.00,0.0056
485.00,0.0054
484.00,0.0053
483.00,0.0053
482.00,0.0055
481.00,0.0059
480.00,0.0064
479.00,0.0069
478.00,0.0070
477.00,0.0066
476.00,0.0061
475.00,0.0057
474.00,0.0057
473.00,0.0059
472.00,0.0064
471.00,0.0073
470.00,0.0082
469.00,0.0088
468.00,0.0090
467.00,0.0088
466.00,0.0086
465.00,0.0083
464.00,0.0081
463.00,0.0084
462.00,0.0097
461.00,0.0122
460.00,0.0152
459.00,0.0180
458.00,0.0195
457.00,0.0194
456.00,0.0179
455.00,0.0158
454.00,0.0136
453.00,0.0118
452.00,0.0103
451.00,0.0089
450.00,0.0077
