Created as New Dataset,Sample 028 By Administrator Date Wednesday, September 10 2025
cm-1,A
4000.00,0.0008
3999.00,0.0008
3998.00,0.0007
3997.00,0.0007
3996.00,0.0007
3995.00,0.0008
3994.00,0.0008
3993.00,0.0008
3992.00,0.0008
3991.00,0.0008
3990.00,0.0008
3989.00,0.0008
3988.00,0.0008
3987.00,0.0008
3986.00,0.0008
3985.00,0.0008
3984.00,0.0008
3983.00,0.0007
3982.00,0.0007
3981.00,0.0007
3980.00,0.0007
3979.00,0.0007
3978.00,0.0007
3977.00,0.0007
3976.00,0.0007
3975.00,0.0007
3974.00,0.0007
3973.00,0.0007
3972.00,0.0007
3971.00,0.0007
3970.00,0.0007
3969.00,0.0007
3968.00,0.0007
3967.00,0.0007
3966.00,0.0007
3965.00,0.0006
3964.00,0.0006
3963.00,0.0006
3962.00,0.0006
3961.00,0.0006
3960.00,0.0007
3959.00,0.0007
3958.00,0.0007
3957.00,0.0007
3956.00,0.0007
3955.00,0.0007
3954.00,0.0007
3953.00,0.0006
3952.00,0.0006
3951.00,0.0006
3950.00,0.0006
3949.00,0.0006
3948.00,0.0006
3947.00,0.0006
3946.00,0.0006
3945.00,0.0006
3944.00,0.0006
3943.00,0.0006
3942.00,0.0006
3941.00,0.0007
3940.00,0.0007
3939.00,0.0007
3938.00,0.0007
3937.00,0.0007
3936.00,0.0007
3935.00,0.0007
3934.00,0.0007
3933.00,0.0007
3932.00,0.0007
3931.00,0.0007
3930.00,0.0006
3929.00,0.0006
3928.00,0.0006
3927.00,0.0006
3926.00,0.0006
3925.00,0.0007
3924.00,0.0007
3923.00,0.0007
3922.00,0.0007
3921.00,0.0007
3920.00,0.0007
3919.00,0.0007
3918.00,0.0006
3917.00,0.0006
3916.00,0.0006
3915.00,0.0006
3914.00,0.0006
3913.00,0.0007
3912.00,0.0007
3911.00,0.0007
3910.00,0.0007
3909.00,0.0006
3908.00,0.0006
3907.00,0.0006
3906.00,0.0006
3905.00,0.0006
3904.00,0.0007
3903.00,0.0007
3902.00,0.0007
3901.00,0.0006
3900.00,0.0006
3899.00,0.0006
3898.00,0.0006
3897.00,0.0006
3896.00,0.0006
3895.00,0.0006
3894.00,0.0006
3893.00,0.0006
3892.00,0.0006
3891.00,0.0006
3890.00,0.0006
3889.00,0.0006
3888.00,0.0006
3887.00,0.0006
3886.00,0.0006
3885.00,0.0006
3884.00,0.0006
3883.00,0.0006
3882.00,0.0006
3881.00,0.0006
3880.00,0.0006
3879.00,0.0006
3878.00,0.0005
3877.00,0.0005
3876.00,0.0006
3875.00,0.0006
3874.00,0.0006
3873.00,0.0006
3872.00,0.0006
3871.00,0.0006
3870.00,0.0006
3869.00,0.0006
3868.00,0.0006
3867.00,0.0006
3866.00,0.0006
3865.00,0.0006
3864.00,0.0006
3863.00,0.0006
3862.00,0.0006
3861.00,0.0006
3860.00,0.0005
3859.00,0.0005
3858.00,0.0005
3857.00,0.0005
3856.00,0.0005
3855.00,0.0005
3854.00,0.0005
3853.00,0.0005
3852.00,0.0005
3851.00,0.0005
3850.00,0.0005
3849.00,0.0005
3848.00,0.0005
3847.00,0.0005
3846.00,0.0005
3845.00,0.0005
3844.00,0.0005
3843.00,0.0005
3842.00,0.0005
3841.00,0.0005
3840.00,0.0006
3839.00,0.0006
3838.00,0.0006
3837.00,0.0006
3836.00,0.0006
3835.00,0.0006
3834.00,0.0006
3833.00,0.0006
3832.00,0.0006
3831.00,0.0006
3830.00,0.0006
3829.00,0.0006
3828.00,0.0006
3827.00,0.0006
3826.00,0.0006
3825.00,0.0007
3824.00,0.0007
3823.00,0.0008
3822.00,0.0008
3821.00,0.0008
3820.00,0.0007
3819.00,0.0007
3818.00,0.0006
3817.00,0.0006
3816.00,0.0006
3815.00,0.0005
3814.00,0.0005
3813.00,0.0005
3812.00,0.0005
3811.00,0.0006
3810.00,0.0006
3809.00,0.0006
3808.00,0.0005
3807.00,0.0005
3806.00,0.0006
3805.00,0.0005
3804.00,0.0005
3803.00,0.0005
3802.00,0.0005
3801.00,0.0005
3800.00,0.0005
3799.00,0.0005
3798.00,0.0006
3797.00,0.0006
3796.00,0.0006
3795.00,0.0006
3794.00,0.0006
3793.00,0.0006
3792.00,0.0006
3791.00,0.0006
3790.00,0.0006
3789.00,0.0006
3788.00,0.0006
3787.00,0.0006
3786.00,0.0006
3785.00,0.0006
3784.00,0.0006
3783.00,0.0006
3782.00,0.0006
3781.00,0.0006
3780.00,0.0006
3779.00,0.0006
3778.00,0.0006
3777.00,0.0006
3776.00,0.0006
3775.00,0.0006
3774.00,0.0007
3773.00,0.0007
3772.00,0.0007
3771.00,0.0006
3770.00,0.0007
3769.00,0.0007
3768.00,0.0007
3767.00,0.0007
3766.00,0.0007
3765.00,0.0007
3764.00,0.0007
3763.00,0.0007
3762.00,0.0007
3761.00,0.0008
3760.00,0.0008
3759.00,0.0008
3758.00,0.0008
3757.00,0.0007
3756.00,0.0007
3755.00,0.0008
3754.00,0.0008
3753.00,0.0008
3752.00,0.0007
3751.00,0.0006
3750.00,0.0006
3749.00,0.0006
3748.00,0.0006
3747.00,0.0005
3746.00,0.0005
3745.00,0.0004
3744.00,0.0004
3743.00,0.0005
3742.00,0.0005
3741.00,0.0005
3740.00,0.0005
3739.00,0.0005
3738.00,0.0006
3737.00,0.0005
3736.00,0.0005
3735.00,0.0006
3734.00,0.0006
3733.00,0.0006
3732.00,0.0006
3731.00,0.0006
3730.00,0.0005
3729.00,0.0005
3728.00,0.0004
3727.00,0.0004
3726.00,0.0004
3725.00,0.0004
3724.00,0.0004
3723.00,0.0004
3722.00,0.0005
3721.00,0.0005
3720.00,0.0005
3719.00,0.0005
3718.00,0.0005
3717.00,0.0005
3716.00,0.0005
3715.00,0.0005
3714.00,0.0005
3713.00,0.0005
3712.00,0.0005
3711.00,0.0005
3710.00,0.0004
3709.00,0.0004
3708.00,0.0003
3707.00,0.0003
3706.00,0.0003
3705.00,0.0003
3704.00,0.0003
3703.00,0.0003
3702.00,0.0003
3701.00,0.0003
3700.00,0.0003
3699.00,0.0003
3698.00,0.0003
3697.00,0.0003
3696.00,0.0003
3695.00,0.0003
3694.00,0.0004
3693.00,0.0004
3692.00,0.0004
3691.00,0.0004
3690.00,0.0004
3689.00,0.0004
3688.00,0.0004
3687.00,0.0004
3686.00,0.0004
3685.00,0.0004
3684.00,0.0004
3683.00,0.0004
3682.00,0.0004
3681.00,0.0004
3680.00,0.0004
3679.00,0.0004
3678.00,0.0003
3677.00,0.0003
3676.00,0.0004
3675.00,0.0005
3674.00,0.0006
3673.00,0.0006
3672.00,0.0006
3671.00,0.0006
3670.00,0.0006
3669.00,0.0006
3668.00,0.0006
3667.00,0.0005
3666.00,0.0005
3665.00,0.0004
3664.00,0.0004
3663.00,0.0004
3662.00,0.0004
3661.00,0.0004
3660.00,0.0005
3659.00,0.0005
3658.00,0.0005
3657.00,0.0005
3656.00,0.0005
3655.00,0.0004
3654.00,0.0004
3653.00,0.0004
3652.00,0.0005
3651.00,0.0006
3650.00,0.0007
3649.00,0.0007
3648.00,0.0006
3647.00,0.0006
3646.00,0.0006
3645.00,0.0006
3644.00,0.0005
3643.00,0.0005
3642.00,0.0005
3641.00,0.0005
3640.00,0.0005
3639.00,0.0005
3638.00,0.0005
3637.00,0.0005
3636.00,0.0005
3635.00,0.0005
3634.00,0.0005
3633.00,0.0005
3632.00,0.0005
3631.00,0.0005
3630.00,0.0005
3629.00,0.0004
3628.00,0.0005
3627.00,0.0005
3626.00,0.0005
3625.00,0.0004
3624.00,0.0004
3623.00,0.0004
3622.00,0.0004
3621.00,0.0004
3620.00,0.0004
3619.00,0.0005
3618.00,0.0005
3617.00,0.0005
3616.00,0.0006
3615.00,0.0005
3614.00,0.0006
3613.00,0.0006
3612.00,0.0007
3611.00,0.0007
3610.00,0.0008
3609.00,0.0008
3608.00,0.0008
3607.00,0.0008
3606.00,0.0007
3605.00,0.0007
3604.00,0.0008
3603.00,0.0008
3602.00,0.0008
3601.00,0.0008
3600.00,0.0008
3599.00,0.0008
3598.00,0.0007
3597.00,0.0007
3596.00,0.0008
3595.00,0.0008
3594.00,0.0008
3593.00,0.0008
3592.00,0.0008
3591.00,0.0008
3590.00,0.0008
3589.00,0.0008
3588.00,0.0008
3587.00,0.0009
3586.00,0.0010
3585.00,0.0010
3584.00,0.0011
3583.00,0.0011
3582.00,0.0011
3581.00,0.0010
3580.00,0.0010
3579.00,0.0010
3578.00,0.0009
3577.00,0.0009
3576.00,0.0009
3575.00,0.0010
3574.00,0.0010
3573.00,0.0010
3572.00,0.0010
3571.00,0.0011
3570.00,0.0011
3569.00,0.0012
3568.00,0.0012
3567.00,0.0013
3566.00,0.0013
3565.00,0.0013
3564.00,0.0013
3563.00,0.0013
3562.00,0.0013
3561.00,0.0014
3560.00,0.0014
3559.00,0.0014
3558.00,0.0015
3557.00,0.0015
3556.00,0.0016
3555.00,0.0016
3554.00,0.0016
3553.00,0.0016
3552.00,0.0016
3551.00,0.0016
3550.00,0.0016
3549.00,0.0016
3548.00,0.0016
3547.00,0.0016
3546.00,0.0016
3545.00,0.0016
3544.00,0.0016
3543.00,0.0017
3542.00,0.0017
3541.00,0.0018
3540.00,0.0018
3539.00,0.0018
3538.00,0.0018
3537.00,0.0018
3536.00,0.0018
3535.00,0.0018
3534.00,0.0019
3533.00,0.0019
3532.00,0.0019
3531.00,0.0020
3530.00,0.0020
3529.00,0.0021
3528.00,0.0021
3527.00,0.0021
3526.00,0.0022
3525.00,0.0022
3524.00,0.0022
3523.00,0.0022
3522.00,0.0023
3521.00,0.0023
3520.00,0.0023
3519.00,0.0023
3518.00,0.0023
3517.00,0.0024
3516.00,0.0024
3515.00,0.0024
3514.00,0.0025
3513.00,0.0025
3512.00,0.0025
3511.00,0.0024
3510.00,0.0025
3509.00,0.0025
3508.00,0.0025
3507.00,0.0026
3506.00,0.0026
3505.00,0.0027
3504.00,0.0027
3503.00,0.0028
3502.00,0.0028
3501.00,0.0028
3500.00,0.0028
3499.00,0.0028
3498.00,0.0028
3497.00,0.0028
3496.00,0.0029
3495.00,0.0029
3494.00,0.0030
3493.00,0.0030
3492.00,0.0030
3491.00,0.0030
3490.00,0.0030
3489.00,0.0030
3488.00,0.0030
3487.00,0.0030
3486.00,0.0030
3485.00,0.0031
3484.00,0.0031
3483.00,0.0031
3482.00,0.0032
3481.00,0.0033
3480.00,0.0033
3479.00,0.0033
3478.00,0.0034
3477.00,0.0034
3476.00,0.0034
3475.00,0.0034
3474.00,0.0034
3473.00,0.0035
3472.00,0.0035
3471.00,0.0036
3470.00,0.0036
3469.00,0.0036
3468.00,0.0036
3467.00,0.0036
3466.00,0.0036
3465.00,0.0036
3464.00,0.0036
3463.00,0.0036
3462.00,0.0037
3461.00,0.0037
3460.00,0.0037
3459.00,0.0037
3458.00,0.0037
3457.00,0.0037
3456.00,0.0037
3455.00,0.0037
3454.00,0.0038
3453.00,0.0038
3452.00,0.0038
3451.00,0.0039
3450.00,0.0039
3449.00,0.0039
3448.00,0.0040
3447.00,0.0040
3446.00,0.0040
3445.00,0.0040
3444.00,0.0040
3443.00,0.0041
3442.00,0.0041
3441.00,0.0041
3440.00,0.0041
3439.00,0.0042
3438.00,0.0042
3437.00,0.0042
3436.00,0.0042
3435.00,0.0042
3434.00,0.0042
3433.00,0.0042
3432.00,0.0042
3431.00,0.0042
3430.00,0.0043
3429.00,0.0043
3428.00,0.0043
3427.00,0.0043
3426.00,0.0044
3425.00,0.0044
3424.00,0.0044
3423.00,0.0044
3422.00,0.0044
3421.00,0.0044
3420.00,0.0045
3419.00,0.0045
3418.00,0.0045
3417.00,0.0045
3416.00,0.0045
3415.00,0.0045
3414.00,0.0045
3413.00,0.0045
3412.00,0.0045
3411.00,0.0045
3410.00,0.0045
3409.00,0.0045
3408.00,0.0045
3407.00,0.0045
3406.00,0.0045
3405.00,0.0045
3404.00,0.0045
3403.00,0.0045
3402.00,0.0046
3401.00,0.0046
3400.00,0.0046
3399.00,0.0046
3398.00,0.0046
3397.00,0.0046
3396.00,0.0046
3395.00,0.0046
3394.00,0.0046
3393.00,0.0047
3392.00,0.0047
3391.00,0.0047
3390.00,0.0047
3389.00,0.0047
3388.00,0.0047
3387.00,0.0048
3386.00,0.0047
3385.00,0.0047
3384.00,0.0047
3383.00,0.0047
3382.00,0.0047
3381.00,0.0047
3380.00,0.0047
3379.00,0.0047
3378.00,0.0047
3377.00,0.0047
3376.00,0.0047
3375.00,0.0047
3374.00,0.0047
3373.00,0.0048
3372.00,0.0048
3371.00,0.0048
3370.00,0.0048
3369.00,0.0048
3368.00,0.0048
3367.00,0.0048
3366.00,0.0048
3365.00,0.0048
3364.00,0.0048
3363.00,0.0048
3362.00,0.0048
3361.00,0.0048
3360.00,0.0048
3359.00,0.0048
3358.00,0.0048
3357.00,0.0048
3356.00,0.0048
3355.00,0.0048
3354.00,0.0048
3353.00,0.0048
3352.00,0.0048
3351.00,0.0048
3350.00,0.0048
3349.00,0.0048
3348.00,0.0048
3347.00,0.0048
3346.00,0.0048
3345.00,0.0048
3344.00,0.0049
3343.00,0.0049
3342.00,0.0048
3341.00,0.0048
3340.00,0.0047
3339.00,0.0047
3338.00,0.0046
3337.00,0.0046
3336.00,0.0046
3335.00,0.0046
3334.00,0.0046
3333.00,0.0046
3332.00,0.0046
3331.00,0.0045
3330.00,0.0045
3329.00,0.0045
3328.00,0.0045
3327.00,0.0045
3326.00,0.0045
3325.00,0.0045
3324.00,0.0045
3323.00,0.0044
3322.00,0.0044
3321.00,0.0044
3320.00,0.0044
3319.00,0.0044
3318.00,0.0044
3317.00,0.0044
3316.00,0.0044
3315.00,0.0044
3314.00,0.0044
3313.00,0.0043
3312.00,0.0044
3311.00,0.0044
3310.00,0.0044
3309.00,0.0044
3308.00,0.0044
3307.00,0.0044
3306.00,0.0044
3305.00,0.0044
3304.00,0.0044
3303.00,0.0043
3302.00,0.0043
3301.00,0.0043
3300.00,0.0042
3299.00,0.0042
3298.00,0.0042
3297.00,0.0043
3296.00,0.0043
3295.00,0.0043
3294.00,0.0042
3293.00,0.0042
3292.00,0.0042
3291.00,0.0043
3290.00,0.0043
3289.00,0.0043
3288.00,0.0043
3287.00,0.0042
3286.00,0.0042
3285.00,0.0042
3284.00,0.0042
3283.00,0.0042
3282.00,0.0042
3281.00,0.0042
3280.00,0.0042
3279.00,0.0042
3278.00,0.0042
3277.00,0.0042
3276.00,0.0042
3275.00,0.0041
3274.00,0.0041
3273.00,0.0041
3272.00,0.0041
3271.00,0.0041
3270.00,0.0040
3269.00,0.0040
3268.00,0.0039
3267.00,0.0039
3266.00,0.0039
3265.00,0.0039
3264.00,0.0039
3263.00,0.0038
3262.00,0.0038
3261.00,0.0038
3260.00,0.0038
3259.00,0.0038
3258.00,0.0038
3257.00,0.0038
3256.00,0.0038
3255.00,0.0037
3254.00,0.0037
3253.00,0.0037
3252.00,0.0037
3251.00,0.0037
3250.00,0.0037
3249.00,0.0037
3248.00,0.0037
3247.00,0.0037
3246.00,0.0037
3245.00,0.0037
3244.00,0.0037
3243.00,0.0037
3242.00,0.0037
3241.00,0.0037
3240.00,0.0037
3239.00,0.0036
3238.00,0.0036
3237.00,0.0037
3236.00,0.0037
3235.00,0.0037
3234.00,0.0037
3233.00,0.0037
3232.00,0.0037
3231.00,0.0037
3230.00,0.0037
3229.00,0.0037
3228.00,0.0037
3227.00,0.0037
3226.00,0.0037
3225.00,0.0038
3224.00,0.0038
3223.00,0.0038
3222.00,0.0038
3221.00,0.0038
3220.00,0.0038
3219.00,0.0038
3218.00,0.0038
3217.00,0.0039
3216.00,0.0039
3215.00,0.0040
3214.00,0.0040
3213.00,0.0040
3212.00,0.0040
3211.00,0.0040
3210.00,0.0040
3209.00,0.0040
3208.00,0.0040
3207.00,0.0040
3206.00,0.0040
3205.00,0.0041
3204.00,0.0041
3203.00,0.0041
3202.00,0.0041
3201.00,0.0042
3200.00,0.0042
3199.00,0.0042
3198.00,0.0042
3197.00,0.0041
3196.00,0.0041
3195.00,0.0041
3194.00,0.0041
3193.00,0.0041
3192.00,0.0041
3191.00,0.0041
3190.00,0.0041
3189.00,0.0041
3188.00,0.0041
3187.00,0.0041
3186.00,0.0041
3185.00,0.0041
3184.00,0.0041
3183.00,0.0040
3182.00,0.0039
3181.00,0.0039
3180.00,0.0038
3179.00,0.0038
3178.00,0.0038
3177.00,0.0038
3176.00,0.0037
3175.00,0.0038
3174.00,0.0037
3173.00,0.0037
3172.00,0.0037
3171.00,0.0037
3170.00,0.0037
3169.00,0.0037
3168.00,0.0036
3167.00,0.0036
3166.00,0.0036
3165.00,0.0036
3164.00,0.0036
3163.00,0.0036
3162.00,0.0036
3161.00,0.0035
3160.00,0.0035
3159.00,0.0036
3158.00,0.0036
3157.00,0.0036
3156.00,0.0036
3155.00,0.0036
3154.00,0.0036
3153.00,0.0036
3152.00,0.0035
3151.00,0.0035
3150.00,0.0035
3149.00,0.0035
3148.00,0.0035
3147.00,0.0035
3146.00,0.0036
3145.00,0.0036
3144.00,0.0035
3143.00,0.0035
3142.00,0.0035
3141.00,0.0035
3140.00,0.0034
3139.00,0.0033
3138.00,0.0033
3137.00,0.0033
3136.00,0.0033
3135.00,0.0034
3134.00,0.0034
3133.00,0.0034
3132.00,0.0033
3131.00,0.0033
3130.00,0.0033
3129.00,0.0032
3128.00,0.0032
3127.00,0.0032
3126.00,0.0032
3125.00,0.0031
3124.00,0.0031
3123.00,0.0031
3122.00,0.0031
3121.00,0.0030
3120.00,0.0030
3119.00,0.0029
3118.00,0.0029
3117.00,0.0029
3116.00,0.0029
3115.00,0.0030
3114.00,0.0030
3113.00,0.0030
3112.00,0.0030
3111.00,0.0030
3110.00,0.0030
3109.00,0.0029
3108.00,0.0028
3107.00,0.0027
3106.00,0.0027
3105.00,0.0027
3104.00,0.0027
3103.00,0.0027
3102.00,0.0027
3101.00,0.0027
3100.00,0.0027
3099.00,0.0027
3098.00,0.0027
3097.00,0.0027
3096.00,0.0027
3095.00,0.0027
3094.00,0.0027
3093.00,0.0026
3092.00,0.0026
3091.00,0.0027
3090.00,0.0027
3089.00,0.0027
3088.00,0.0026
3087.00,0.0026
3086.00,0.0026
3085.00,0.0026
3084.00,0.0026
3083.00,0.0026
3082.00,0.0026
3081.00,0.0026
3080.00,0.0026
3079.00,0.0026
3078.00,0.0026
3077.00,0.0026
3076.00,0.0026
3075.00,0.0026
3074.00,0.0026
3073.00,0.0026
3072.00,0.0026
3071.00,0.0027
3070.00,0.0027
3069.00,0.0027
3068.00,0.0027
3067.00,0.0027
3066.00,0.0027
3065.00,0.0027
3064.00,0.0027
3063.00,0.0027
3062.00,0.0028
3061.00,0.0028
3060.00,0.0028
3059.00,0.0028
3058.00,0.0028
3057.00,0.0028
3056.00,0.0028
3055.00,0.0029
3054.00,0.0029
3053.00,0.0030
3052.00,0.0030
3051.00,0.0030
3050.00,0.0030
3049.00,0.0030
3048.00,0.0030
3047.00,0.0031
3046.00,0.0031
3045.00,0.0031
3044.00,0.0031
3043.00,0.0031
3042.00,0.0032
3041.00,0.0032
3040.00,0.0032
3039.00,0.0033
3038.00,0.0033
3037.00,0.0033
3036.00,0.0034
3035.00,0.0034
3034.00,0.0034
3033.00,0.0034
3032.00,0.0034
3031.00,0.0035
3030.00,0.0036
3029.00,0.0037
3028.00,0.0037
3027.00,0.0038
3026.00,0.0039
3025.00,0.0039
3024.00,0.0040
3023.00,0.0040
3022.00,0.0041
3021.00,0.0041
3020.00,0.0042
3019.00,0.0044
3018.00,0.0045
3017.00,0.0046
3016.00,0.0047
3015.00,0.0048
3014.00,0.0049
3013.00,0.0050
3012.00,0.0051
3011.00,0.0052
3010.00,0.0054
3009.00,0.0056
3008.00,0.0057
3007.00,0.0059
3006.00,0.0061
3005.00,0.0063
3004.00,0.0065
3003.00,0.0068
3002.00,0.0070
3001.00,0.0073
3000.00,0.0076
2999.00,0.0079
2998.00,0.0082
2997.00,0.0086
2996.00,0.0091
2995.00,0.0095
2994.00,0.0100
2993.00,0.0105
2992.00,0.0111
2991.00,0.0117
2990.00,0.0124
2989.00,0.0132
2988.00,0.0141
2987.00,0.0150
2986.00,0.0161
2985.00,0.0174
2984.00,0.0187
2983.00,0.0202
2982.00,0.0219
2981.00,0.0238
2980.00,0.0259
2979.00,0.0284
2978.00,0.0312
2977.00,0.0343
2976.00,0.0380
2975.00,0.0421
2974.00,0.0469
2973.00,0.0523
2972.00,0.0584
2971.00,0.0653
2970.00,0.0730
2969.00,0.0815
2968.00,0.0910
2967.00,0.1014
2966.00,0.1126
2965.00,0.1244
2964.00,0.1366
2963.00,0.1486
2962.00,0.1600
2961.00,0.1700
2960.00,0.1783
2959.00,0.1847
2958.00,0.1892
2957.00,0.1923
2956.00,0.1945
2955.00,0.1966
2954.00,0.1988
2953.00,0.2011
2952.00,0.2030
2951.00,0.2037
2950.00,0.2022
2949.00,0.1979
2948.00,0.1904
2947.00,0.1800
2946.00,0.1674
2945.00,0.1539
2944.00,0.1407
2943.00,0.1289
2942.00,0.1194
2941.00,0.1124
2940.00,0.1079
2939.00,0.1058
2938.00,0.1058
2937.00,0.1076
2936.00,0.1110
2935.00,0.1159
2934.00,0.1221
2933.00,0.1295
2932.00,0.1379
2931.00,0.1470
2930.00,0.1565
2929.00,0.1662
2928.00,0.1756
2927.00,0.1845
2926.00,0.1929
2925.00,0.2006
2924.00,0.2080
2923.00,0.2150
2922.00,0.2218
2921.00,0.2281
2920.00,0.2337
2919.00,0.2379
2918.00,0.2402
2917.00,0.2401
2916.00,0.2376
2915.00,0.2330
2914.00,0.2269
2913.00,0.2201
2912.00,0.2131
2911.00,0.2065
2910.00,0.2005
2909.00,0.1950
2908.00,0.1898
2907.00,0.1846
2906.00,0.1791
2905.00,0.1732
2904.00,0.1669
2903.00,0.1603
2902.00,0.1534
2901.00,0.1464
2900.00,0.1396
2899.00,0.1331
2898.00,0.1270
2897.00,0.1215
2896.00,0.1166
2895.00,0.1124
2894.00,0.1090
2893.00,0.1063
2892.00,0.1043
2891.00,0.1029
2890.00,0.1021
2889.00,0.1018
2888.00,0.1018
2887.00,0.1022
2886.00,0.1030
2885.00,0.1042
2884.00,0.1057
2883.00,0.1076
2882.00,0.1099
2881.00,0.1123
2880.00,0.1145
2879.00,0.1163
2878.00,0.1174
2877.00,0.1177
2876.00,0.1172
2875.00,0.1163
2874.00,0.1155
2873.00,0.1152
2872.00,0.1156
2871.00,0.1167
2870.00,0.1184
2869.00,0.1201
2868.00,0.1212
2867.00,0.1207
2866.00,0.1181
2865.00,0.1131
2864.00,0.1060
2863.00,0.0976
2862.00,0.0888
2861.00,0.0806
2860.00,0.0735
2859.00,0.0678
2858.00,0.0635
2857.00,0.0605
2856.00,0.0585
2855.00,0.0573
2854.00,0.0569
2853.00,0.0572
2852.00,0.0580
2851.00,0.0596
2850.00,0.0617
2849.00,0.0646
2848.00,0.0683
2847.00,0.0729
2846.00,0.0785
2845.00,0.0850
2844.00,0.0924
2843.00,0.1004
2842.00,0.1086
2841.00,0.1163
2840.00,0.1228
2839.00,0.1271
2838.00,0.1283
2837.00,0.1258
2836.00,0.1196
2835.00,0.1104
2834.00,0.0993
2833.00,0.0876
2832.00,0.0765
2831.00,0.0665
2830.00,0.0581
2829.00,0.0512
2828.00,0.0457
2827.00,0.0412
2826.00,0.0375
2825.00,0.0345
2824.00,0.0320
2823.00,0.0298
2822.00,0.0280
2821.00,0.0265
2820.00,0.0251
2819.00,0.0240
2818.00,0.0229
2817.00,0.0220
2816.00,0.0212
2815.00,0.0205
2814.00,0.0199
2813.00,0.0194
2812.00,0.0189
2811.00,0.0183
2810.00,0.0178
2809.00,0.0173
2808.00,0.0167
2807.00,0.0160
2806.00,0.0154
2805.00,0.0147
2804.00,0.0141
2803.00,0.0135
2802.00,0.0129
2801.00,0.0125
2800.00,0.0121
2799.00,0.0119
2798.00,0.0116
2797.00,0.0114
2796.00,0.0112
2795.00,0.0109
2794.00,0.0106
2793.00,0.0103
2792.00,0.0100
2791.00,0.0096
2790.00,0.0092
2789.00,0.0089
2788.00,0.0086
2787.00,0.0082
2786.00,0.0079
2785.00,0.0077
2784.00,0.0074
2783.00,0.0072
2782.00,0.0070
2781.00,0.0067
2780.00,0.0065
2779.00,0.0064
2778.00,0.0062
2777.00,0.0061
2776.00,0.0060
2775.00,0.0059
2774.00,0.0058
2773.00,0.0057
2772.00,0.0056
2771.00,0.0056
2770.00,0.0055
2769.00,0.0054
2768.00,0.0054
2767.00,0.0054
2766.00,0.0054
2765.00,0.0053
2764.00,0.0053
2763.00,0.0053
2762.00,0.0052
2761.00,0.0052
2760.00,0.0051
2759.00,0.0051
2758.00,0.0051
2757.00,0.0051
2756.00,0.0051
2755.00,0.0051
2754.00,0.0051
2753.00,0.0050
2752.00,0.0050
2751.00,0.0050
2750.00,0.0050
2749.00,0.0050
2748.00,0.0050
2747.00,0.0050
2746.00,0.0051
2745.00,0.0052
2744.00,0.0052
2743.00,0.0053
2742.00,0.0054
2741.00,0.0055
2740.00,0.0057
2739.00,0.0058
2738.00,0.0060
2737.00,0.0062
2736.00,0.0063
2735.00,0.0064
2734.00,0.0066
2733.00,0.0067
2732.00,0.0069
2731.00,0.0071
2730.00,0.0073
2729.00,0.0076
2728.00,0.0078
2727.00,0.0081
2726.00,0.0084
2725.00,0.0086
2724.00,0.0087
2723.00,0.0087
2722.00,0.0086
2721.00,0.0084
2720.00,0.0082
2719.00,0.0079
2718.00,0.0075
2717.00,0.0072
2716.00,0.0069
2715.00,0.0066
2714.00,0.0064
2713.00,0.0062
2712.00,0.0060
2711.00,0.0059
2710.00,0.0057
2709.00,0.0055
2708.00,0.0054
2707.00,0.0052
2706.00,0.0051
2705.00,0.0050
2704.00,0.0049
2703.00,0.0048
2702.00,0.0047
2701.00,0.0046
2700.00,0.0046
2699.00,0.0045
2698.00,0.0045
2697.00,0.0044
2696.00,0.0044
2695.00,0.0044
2694.00,0.0044
2693.00,0.0044
2692.00,0.0044
2691.00,0.0044
2690.00,0.0044
2689.00,0.0044
2688.00,0.0044
2687.00,0.0044
2686.00,0.0044
2685.00,0.0044
2684.00,0.0044
2683.00,0.0044
2682.00,0.0044
2681.00,0.0045
2680.00,0.0045
2679.00,0.0044
2678.00,0.0044
2677.00,0.0044
2676.00,0.0044
2675.00,0.0044
2674.00,0.0044
2673.00,0.0043
2672.00,0.0043
2671.00,0.0043
2670.00,0.0043
2669.00,0.0043
2668.00,0.0044
2667.00,0.0044
2666.00,0.0045
2665.00,0.0045
2664.00,0.0046
2663.00,0.0046
2662.00,0.0046
2661.00,0.0047
2660.00,0.0047
2659.00,0.0047
2658.00,0.0047
2657.00,0.0046
2656.00,0.0046
2655.00,0.0046
2654.00,0.0045
2653.00,0.0044
2652.00,0.0044
2651.00,0.0043
2650.00,0.0043
2649.00,0.0043
2648.00,0.0043
2647.00,0.0042
2646.00,0.0042
2645.00,0.0041
2644.00,0.0041
2643.00,0.0041
2642.00,0.0040
2641.00,0.0039
2640.00,0.0039
2639.00,0.0038
2638.00,0.0038
2637.00,0.0037
2636.00,0.0037
2635.00,0.0036
2634.00,0.0037
2633.00,0.0037
2632.00,0.0037
2631.00,0.0037
2630.00,0.0037
2629.00,0.0037
2628.00,0.0037
2627.00,0.0038
2626.00,0.0038
2625.00,0.0038
2624.00,0.0038
2623.00,0.0038
2622.00,0.0038
2621.00,0.0039
2620.00,0.0039
2619.00,0.0040
2618.00,0.0040
2617.00,0.0040
2616.00,0.0040
2615.00,0.0040
2614.00,0.0039
2613.00,0.0039
2612.00,0.0038
2611.00,0.0038
2610.00,0.0037
2609.00,0.0036
2608.00,0.0036
2607.00,0.0035
2606.00,0.0034
2605.00,0.0032
2604.00,0.0031
2603.00,0.0030
2602.00,0.0030
2601.00,0.0030
2600.00,0.0030
2599.00,0.0030
2598.00,0.0031
2597.00,0.0031
2596.00,0.0032
2595.00,0.0031
2594.00,0.0031
2593.00,0.0031
2592.00,0.0031
2591.00,0.0031
2590.00,0.0032
2589.00,0.0034
2588.00,0.0035
2587.00,0.0035
2586.00,0.0036
2585.00,0.0037
2584.00,0.0037
2583.00,0.0038
2582.00,0.0038
2581.00,0.0038
2580.00,0.0037
2579.00,0.0037
2578.00,0.0036
2577.00,0.0035
2576.00,0.0034
2575.00,0.0032
2574.00,0.0031
2573.00,0.0029
2572.00,0.0028
2571.00,0.0027
2570.00,0.0027
2569.00,0.0026
2568.00,0.0026
2567.00,0.0025
2566.00,0.0025
2565.00,0.0024
2564.00,0.0024
2563.00,0.0024
2562.00,0.0024
2561.00,0.0024
2560.00,0.0024
2559.00,0.0024
2558.00,0.0024
2557.00,0.0023
2556.00,0.0023
2555.00,0.0022
2554.00,0.0022
2553.00,0.0021
2552.00,0.0021
2551.00,0.0021
2550.00,0.0020
2549.00,0.0020
2548.00,0.0019
2547.00,0.0018
2546.00,0.0018
2545.00,0.0018
2544.00,0.0018
2543.00,0.0018
2542.00,0.0018
2541.00,0.0017
2540.00,0.0017
2539.00,0.0017
2538.00,0.0017
2537.00,0.0017
2536.00,0.0017
2535.00,0.0016
2534.00,0.0015
2533.00,0.0015
2532.00,0.0015
2531.00,0.0015
2530.00,0.0014
2529.00,0.0014
2528.00,0.0013
2527.00,0.0013
2526.00,0.0013
2525.00,0.0014
2524.00,0.0014
2523.00,0.0014
2522.00,0.0013
2521.00,0.0012
2520.00,0.0011
2519.00,0.0011
2518.00,0.0011
2517.00,0.0011
2516.00,0.0011
2515.00,0.0011
2514.00,0.0011
2513.00,0.0011
2512.00,0.0010
2511.00,0.0010
2510.00,0.0009
2509.00,0.0009
2508.00,0.0009
2507.00,0.0009
2506.00,0.0009
2505.00,0.0010
2504.00,0.0010
2503.00,0.0011
2502.00,0.0011
2501.00,0.0010
2500.00,0.0010
2499.00,0.0009
2498.00,0.0010
2497.00,0.0011
2496.00,0.0011
2495.00,0.0011
2494.00,0.0011
2493.00,0.0011
2492.00,0.0011
2491.00,0.0010
2490.00,0.0010
2489.00,0.0009
2488.00,0.0008
2487.00,0.0008
2486.00,0.0008
2485.00,0.0008
2484.00,0.0008
2483.00,0.0008
2482.00,0.0008
2481.00,0.0008
2480.00,0.0008
2479.00,0.0009
2478.00,0.0009
2477.00,0.0009
2476.00,0.0009
2475.00,0.0009
2474.00,0.0010
2473.00,0.0010
2472.00,0.0011
2471.00,0.0010
2470.00,0.0010
2469.00,0.0009
2468.00,0.0008
2467.00,0.0008
2466.00,0.0008
2465.00,0.0008
2464.00,0.0008
2463.00,0.0009
2462.00,0.0009
2461.00,0.0009
2460.00,0.0009
2459.00,0.0010
2458.00,0.0010
2457.00,0.0011
2456.00,0.0011
2455.00,0.0011
2454.00,0.0010
2453.00,0.0010
2452.00,0.0011
2451.00,0.0011
2450.00,0.0011
2449.00,0.0011
2448.00,0.0010
2447.00,0.0010
2446.00,0.0010
2445.00,0.0010
2444.00,0.0010
2443.00,0.0010
2442.00,0.0010
2441.00,0.0010
2440.00,0.0011
2439.00,0.0011
2438.00,0.0011
2437.00,0.0011
2436.00,0.0011
2435.00,0.0011
2434.00,0.0012
2433.00,0.0012
2432.00,0.0012
2431.00,0.0012
2430.00,0.0011
2429.00,0.0011
2428.00,0.0010
2427.00,0.0010
2426.00,0.0011
2425.00,0.0011
2424.00,0.0011
2423.00,0.0011
2422.00,0.0011
2421.00,0.0011
2420.00,0.0011
2419.00,0.0011
2418.00,0.0011
2417.00,0.0011
2416.00,0.0011
2415.00,0.0010
2414.00,0.0009
2413.00,0.0009
2412.00,0.0008
2411.00,0.0008
2410.00,0.0008
2409.00,0.0008
2408.00,0.0008
2407.00,0.0008
2406.00,0.0008
2405.00,0.0008
2404.00,0.0007
2403.00,0.0007
2402.00,0.0007
2401.00,0.0007
2400.00,0.0007
2399.00,0.0007
2398.00,0.0007
2397.00,0.0008
2396.00,0.0009
2395.00,0.0009
2394.00,0.0009
2393.00,0.0008
2392.00,0.0007
2391.00,0.0007
2390.00,0.0006
2389.00,0.0006
2388.00,0.0005
2387.00,0.0005
2386.00,0.0004
2385.00,0.0004
2384.00,0.0004
2383.00,0.0003
2382.00,0.0002
2381.00,0.0002
2380.00,0.0001
2379.00,0.0001
2378.00,0.0001
2377.00,0.0001
2376.00,0.0001
2375.00,0.0001
2374.00,0.0001
2373.00,0.0001
2372.00,0.0001
2371.00,0.0000
2370.00,-0.0000
2369.00,-0.0001
2368.00,-0.0001
2367.00,-0.0001
2366.00,-0.0001
2365.00,-0.0001
2364.00,-0.0001
2363.00,-0.0000
2362.00,0.0000
2361.00,0.0000
2360.00,-0.0000
2359.00,-0.0000
2358.00,-0.0000
2357.00,-0.0000
2356.00,-0.0000
2355.00,-0.0000
2354.00,-0.0000
2353.00,0.0000
2352.00,0.0001
2351.00,0.0000
2350.00,0.0000
2349.00,0.0000
2348.00,0.0000
2347.00,0.0000
2346.00,-0.0000
2345.00,-0.0000
2344.00,0.0001
2343.00,0.0002
2342.00,0.0002
2341.00,0.0002
2340.00,0.0003
2339.00,0.0003
2338.00,0.0003
2337.00,0.0004
2336.00,0.0003
2335.00,0.0003
2334.00,0.0002
2333.00,0.0001
2332.00,0.0000
2331.00,0.0000
2330.00,0.0001
2329.00,0.0003
2328.00,0.0006
2327.00,0.0009
2326.00,0.0013
2325.00,0.0017
2324.00,0.0018
2323.00,0.0017
2322.00,0.0015
2321.00,0.0013
2320.00,0.0011
2319.00,0.0010
2318.00,0.0009
2317.00,0.0009
2316.00,0.0010
2315.00,0.0010
2314.00,0.0009
2313.00,0.0008
2312.00,0.0007
2311.00,0.0006
2310.00,0.0006
2309.00,0.0007
2308.00,0.0007
2307.00,0.0007
2306.00,0.0008
2305.00,0.0008
2304.00,0.0008
2303.00,0.0008
2302.00,0.0008
2301.00,0.0008
2300.00,0.0009
2299.00,0.0009
2298.00,0.0009
2297.00,0.0009
2296.00,0.0010
2295.00,0.0011
2294.00,0.0012
2293.00,0.0012
2292.00,0.0013
2291.00,0.0015
2290.00,0.0016
2289.00,0.0018
2288.00,0.0018
2287.00,0.0019
2286.00,0.0018
2285.00,0.0017
2284.00,0.0017
2283.00,0.0016
2282.00,0.0016
2281.00,0.0017
2280.00,0.0017
2279.00,0.0016
2278.00,0.0015
2277.00,0.0014
2276.00,0.0013
2275.00,0.0012
2274.00,0.0012
2273.00,0.0012
2272.00,0.0012
2271.00,0.0012
2270.00,0.0012
2269.00,0.0013
2268.00,0.0012
2267.00,0.0012
2266.00,0.0010
2265.00,0.0009
2264.00,0.0008
2263.00,0.0007
2262.00,0.0007
2261.00,0.0009
2260.00,0.0011
2259.00,0.0012
2258.00,0.0013
2257.00,0.0012
2256.00,0.0010
2255.00,0.0009
2254.00,0.0008
2253.00,0.0008
2252.00,0.0008
2251.00,0.0008
2250.00,0.0008
2249.00,0.0008
2248.00,0.0008
2247.00,0.0008
2246.00,0.0009
2245.00,0.0010
2244.00,0.0010
2243.00,0.0009
2242.00,0.0007
2241.00,0.0007
2240.00,0.0006
2239.00,0.0007
2238.00,0.0008
2237.00,0.0009
2236.00,0.0009
2235.00,0.0008
2234.00,0.0008
2233.00,0.0007
2232.00,0.0007
2231.00,0.0007
2230.00,0.0007
2229.00,0.0008
2228.00,0.0010
2227.00,0.0011
2226.00,0.0011
2225.00,0.0011
2224.00,0.0011
2223.00,0.0010
2222.00,0.0010
2221.00,0.0011
2220.00,0.0010
2219.00,0.0008
2218.00,0.0006
2217.00,0.0004
2216.00,0.0003
2215.00,0.0003
2214.00,0.0003
2213.00,0.0004
2212.00,0.0004
2211.00,0.0003
2210.00,0.0002
2209.00,0.0002
2208.00,0.0003
2207.00,0.0004
2206.00,0.0005
2205.00,0.0007
2204.00,0.0008
2203.00,0.0008
2202.00,0.0008
2201.00,0.0007
2200.00,0.0005
2199.00,0.0004
2198.00,0.0005
2197.00,0.0007
2196.00,0.0008
2195.00,0.0008
2194.00,0.0009
2193.00,0.0010
2192.00,0.0011
2191.00,0.0011
2190.00,0.0010
2189.00,0.0011
2188.00,0.0011
2187.00,0.0012
2186.00,0.0012
2185.00,0.0012
2184.00,0.0010
2183.00,0.0007
2182.00,0.0004
2181.00,0.0002
2180.00,0.0002
2179.00,0.0001
2178.00,-0.0001
2177.00,-0.0001
2176.00,-0.0000
2175.00,0.0002
2174.00,0.0004
2173.00,0.0005
2172.00,0.0006
2171.00,0.0007
2170.00,0.0009
2169.00,0.0012
2168.00,0.0016
2167.00,0.0018
2166.00,0.0019
2165.00,0.0020
2164.00,0.0021
2163.00,0.0022
2162.00,0.0020
2161.00,0.0015
2160.00,0.0006
2159.00,-0.0008
2158.00,-0.0020
2157.00,-0.0025
2156.00,-0.0026
2155.00,-0.0024
2154.00,-0.0022
2153.00,-0.0020
2152.00,-0.0019
2151.00,-0.0018
2150.00,-0.0019
2149.00,-0.0020
2148.00,-0.0019
2147.00,-0.0019
2146.00,-0.0018
2145.00,-0.0017
2144.00,-0.0016
2143.00,-0.0014
2142.00,-0.0012
2141.00,-0.0010
2140.00,-0.0010
2139.00,-0.0012
2138.00,-0.0013
2137.00,-0.0015
2136.00,-0.0016
2135.00,-0.0019
2134.00,-0.0021
2133.00,-0.0021
2132.00,-0.0019
2131.00,-0.0017
2130.00,-0.0015
2129.00,-0.0013
2128.00,-0.0010
2127.00,-0.0008
2126.00,-0.0007
2125.00,-0.0006
2124.00,-0.0007
2123.00,-0.0007
2122.00,-0.0006
2121.00,-0.0005
2120.00,-0.0003
2119.00,-0.0002
2118.00,-0.0000
2117.00,0.0001
2116.00,0.0002
2115.00,0.0002
2114.00,0.0002
2113.00,0.0002
2112.00,0.0003
2111.00,0.0003
2110.00,0.0002
2109.00,0.0002
2108.00,0.0002
2107.00,0.0002
2106.00,0.0002
2105.00,0.0002
2104.00,0.0002
2103.00,0.0003
2102.00,0.0004
2101.00,0.0003
2100.00,0.0002
2099.00,0.0001
2098.00,-0.0000
2097.00,-0.0001
2096.00,-0.0002
2095.00,-0.0003
2094.00,-0.0003
2093.00,-0.0002
2092.00,-0.0001
2091.00,-0.0001
2090.00,-0.0000
2089.00,0.0001
2088.00,0.0002
2087.00,0.0003
2086.00,0.0003
2085.00,0.0002
2084.00,0.0001
2083.00,0.0000
2082.00,-0.0001
2081.00,-0.0001
2080.00,-0.0000
2079.00,0.0000
2078.00,0.0000
2077.00,0.0000
2076.00,-0.0000
2075.00,-0.0000
2074.00,-0.0001
2073.00,-0.0000
2072.00,0.0001
2071.00,0.0001
2070.00,0.0001
2069.00,0.0001
2068.00,0.0000
2067.00,-0.0001
2066.00,-0.0002
2065.00,-0.0002
2064.00,-0.0000
2063.00,0.0001
2062.00,0.0002
2061.00,0.0002
2060.00,0.0004
2059.00,0.0004
2058.00,0.0005
2057.00,0.0005
2056.00,0.0005
2055.00,0.0005
2054.00,0.0007
2053.00,0.0011
2052.00,0.0014
2051.00,0.0014
2050.00,0.0011
2049.00,0.0006
2048.00,0.0003
2047.00,0.0002
2046.00,-0.0000
2045.00,-0.0002
2044.00,-0.0003
2043.00,-0.0004
2042.00,-0.0003
2041.00,-0.0001
2040.00,0.0002
2039.00,0.0004
2038.00,0.0004
2037.00,0.0004
2036.00,0.0004
2035.00,0.0003
2034.00,0.0001
2033.00,-0.0002
2032.00,-0.0006
2031.00,-0.0009
2030.00,-0.0010
2029.00,-0.0010
2028.00,-0.0009
2027.00,-0.0008
2026.00,-0.0008
2025.00,-0.0009
2024.00,-0.0010
2023.00,-0.0012
2022.00,-0.0012
2021.00,-0.0011
2020.00,-0.0010
2019.00,-0.0009
2018.00,-0.0011
2017.00,-0.0012
2016.00,-0.0014
2015.00,-0.0016
2014.00,-0.0015
2013.00,-0.0014
2012.00,-0.0013
2011.00,-0.0012
2010.00,-0.0012
2009.00,-0.0012
2008.00,-0.0014
2007.00,-0.0017
2006.00,-0.0018
2005.00,-0.0018
2004.00,-0.0015
2003.00,-0.0013
2002.00,-0.0010
2001.00,-0.0009
2000.00,-0.0008
1999.00,-0.0009
1998.00,-0.0011
1997.00,-0.0011
1996.00,-0.0010
1995.00,-0.0008
1994.00,-0.0006
1993.00,-0.0006
1992.00,-0.0007
1991.00,-0.0008
1990.00,-0.0007
1989.00,-0.0005
1988.00,-0.0004
1987.00,-0.0004
1986.00,-0.0004
1985.00,-0.0003
1984.00,-0.0001
1983.00,0.0002
1982.00,0.0003
1981.00,0.0004
1980.00,0.0002
1979.00,-0.0002
1978.00,-0.0007
1977.00,-0.0010
1976.00,-0.0010
1975.00,-0.0009
1974.00,-0.0009
1973.00,-0.0008
1972.00,-0.0009
1971.00,-0.0012
1970.00,-0.0014
1969.00,-0.0014
1968.00,-0.0013
1967.00,-0.0010
1966.00,-0.0010
1965.00,-0.0011
1964.00,-0.0013
1963.00,-0.0015
1962.00,-0.0017
1961.00,-0.0018
1960.00,-0.0019
1959.00,-0.0021
1958.00,-0.0021
1957.00,-0.0021
1956.00,-0.0020
1955.00,-0.0018
1954.00,-0.0016
1953.00,-0.0014
1952.00,-0.0013
1951.00,-0.0013
1950.00,-0.0015
1949.00,-0.0016
1948.00,-0.0016
1947.00,-0.0017
1946.00,-0.0018
1945.00,-0.0019
1944.00,-0.0020
1943.00,-0.0018
1942.00,-0.0016
1941.00,-0.0014
1940.00,-0.0013
1939.00,-0.0013
1938.00,-0.0013
1937.00,-0.0012
1936.00,-0.0010
1935.00,-0.0009
1934.00,-0.0009
1933.00,-0.0009
1932.00,-0.0010
1931.00,-0.0010
1930.00,-0.0010
1929.00,-0.0010
1928.00,-0.0010
1927.00,-0.0009
1926.00,-0.0008
1925.00,-0.0007
1924.00,-0.0005
1923.00,-0.0004
1922.00,-0.0004
1921.00,-0.0005
1920.00,-0.0005
1919.00,-0.0006
1918.00,-0.0006
1917.00,-0.0005
1916.00,-0.0003
1915.00,-0.0002
1914.00,-0.0002
1913.00,-0.0002
1912.00,-0.0002
1911.00,-0.0002
1910.00,-0.0002
1909.00,-0.0003
1908.00,-0.0004
1907.00,-0.0004
1906.00,-0.0004
1905.00,-0.0004
1904.00,-0.0004
1903.00,-0.0003
1902.00,-0.0002
1901.00,-0.0001
1900.00,-0.0001
1899.00,-0.0001
1898.00,-0.0002
1897.00,-0.0002
1896.00,-0.0001
1895.00,0.0000
1894.00,0.0001
1893.00,0.0000
1892.00,-0.0000
1891.00,-0.0001
1890.00,-0.0001
1889.00,-0.0001
1888.00,-0.0001
1887.00,-0.0001
1886.00,-0.0001
1885.00,-0.0001
1884.00,-0.0000
1883.00,-0.0000
1882.00,-0.0000
1881.00,-0.0001
1880.00,-0.0001
1879.00,-0.0002
1878.00,-0.0001
1877.00,-0.0001
1876.00,-0.0001
1875.00,-0.0001
1874.00,-0.0002
1873.00,-0.0002
1872.00,-0.0002
1871.00,-0.0003
1870.00,-0.0002
1869.00,-0.0002
1868.00,-0.0001
1867.00,-0.0001
1866.00,-0.0000
1865.00,-0.0000
1864.00,0.0000
1863.00,0.0001
1862.00,0.0001
1861.00,0.0001
1860.00,0.0001
1859.00,-0.0000
1858.00,-0.0001
1857.00,-0.0001
1856.00,-0.0001
1855.00,-0.0001
1854.00,-0.0002
1853.00,-0.0002
1852.00,-0.0001
1851.00,-0.0001
1850.00,-0.0000
1849.00,-0.0000
1848.00,-0.0000
1847.00,-0.0001
1846.00,-0.0001
1845.00,-0.0000
1844.00,0.0001
1843.00,0.0001
1842.00,0.0002
1841.00,0.0001
1840.00,0.0001
1839.00,0.0001
1838.00,0.0001
1837.00,0.0001
1836.00,0.0002
1835.00,0.0002
1834.00,0.0003
1833.00,0.0003
1832.00,0.0003
1831.00,0.0003
1830.00,0.0003
1829.00,0.0003
1828.00,0.0003
1827.00,0.0002
1826.00,0.0001
1825.00,0.0001
1824.00,0.0001
1823.00,0.0001
1822.00,0.0001
1821.00,0.0001
1820.00,0.0001
1819.00,-0.0000
1818.00,-0.0001
1817.00,-0.0002
1816.00,-0.0002
1815.00,-0.0001
1814.00,-0.0000
1813.00,0.0000
1812.00,0.0001
1811.00,0.0001
1810.00,0.0002
1809.00,0.0002
1808.00,0.0003
1807.00,0.0002
1806.00,0.0002
1805.00,0.0002
1804.00,0.0002
1803.00,0.0002
1802.00,0.0003
1801.00,0.0003
1800.00,0.0003
1799.00,0.0003
1798.00,0.0003
1797.00,0.0003
1796.00,0.0003
1795.00,0.0004
1794.00,0.0004
1793.00,0.0004
1792.00,0.0004
1791.00,0.0004
1790.00,0.0004
1789.00,0.0005
1788.00,0.0005
1787.00,0.0006
1786.00,0.0006
1785.00,0.0007
1784.00,0.0007
1783.00,0.0007
1782.00,0.0007
1781.00,0.0007
1780.00,0.0007
1779.00,0.0007
1778.00,0.0007
1777.00,0.0007
1776.00,0.0006
1775.00,0.0006
1774.00,0.0007
1773.00,0.0007
1772.00,0.0007
1771.00,0.0007
1770.00,0.0007
1769.00,0.0007
1768.00,0.0007
1767.00,0.0008
1766.00,0.0009
1765.00,0.0009
1764.00,0.0010
1763.00,0.0010
1762.00,0.0010
1761.00,0.0010
1760.00,0.0010
1759.00,0.0010
1758.00,0.0010
1757.00,0.0010
1756.00,0.0011
1755.00,0.0012
1754.00,0.0012
1753.00,0.0012
1752.00,0.0011
1751.00,0.0011
1750.00,0.0011
1749.00,0.0011
1748.00,0.0011
1747.00,0.0011
1746.00,0.0011
1745.00,0.0011
1744.00,0.0010
1743.00,0.0010
1742.00,0.0010
1741.00,0.0009
1740.00,0.0009
1739.00,0.0008
1738.00,0.0008
1737.00,0.0008
1736.00,0.0008
1735.00,0.0006
1734.00,0.0005
1733.00,0.0005
1732.00,0.0006
1731.00,0.0006
1730.00,0.0005
1729.00,0.0005
1728.00,0.0005
1727.00,0.0005
1726.00,0.0005
1725.00,0.0006
1724.00,0.0006
1723.00,0.0007
1722.00,0.0008
1721.00,0.0008
1720.00,0.0009
1719.00,0.0010
1718.00,0.0012
1717.00,0.0014
1716.00,0.0016
1715.00,0.0017
1714.00,0.0017
1713.00,0.0017
1712.00,0.0017
1711.00,0.0018
1710.00,0.0018
1709.00,0.0018
1708.00,0.0018
1707.00,0.0018
1706.00,0.0018
1705.00,0.0019
1704.00,0.0020
1703.00,0.0020
1702.00,0.0020
1701.00,0.0020
1700.00,0.0020
1699.00,0.0020
1698.00,0.0020
1697.00,0.0020
1696.00,0.0021
1695.00,0.0022
1694.00,0.0022
1693.00,0.0023
1692.00,0.0023
1691.00,0.0023
1690.00,0.0024
1689.00,0.0025
1688.00,0.0026
1687.00,0.0026
1686.00,0.0025
1685.00,0.0024
1684.00,0.0025
1683.00,0.0026
1682.00,0.0027
1681.00,0.0028
1680.00,0.0029
1679.00,0.0030
1678.00,0.0030
1677.00,0.0030
1676.00,0.0031
1675.00,0.0031
1674.00,0.0031
1673.00,0.0031
1672.00,0.0031
1671.00,0.0031
1670.00,0.0031
1669.00,0.0031
1668.00,0.0032
1667.00,0.0033
1666.00,0.0033
1665.00,0.0033
1664.00,0.0034
1663.00,0.0034
1662.00,0.0035
1661.00,0.0036
1660.00,0.0036
1659.00,0.0037
1658.00,0.0037
1657.00,0.0038
1656.00,0.0039
1655.00,0.0040
1654.00,0.0041
1653.00,0.0042
1652.00,0.0043
1651.00,0.0043
1650.00,0.0043
1649.00,0.0043
1648.00,0.0044
1647.00,0.0044
1646.00,0.0044
1645.00,0.0044
1644.00,0.0045
1643.00,0.0045
1642.00,0.0045
1641.00,0.0046
1640.00,0.0046
1639.00,0.0046
1638.00,0.0047
1637.00,0.0047
1636.00,0.0048
1635.00,0.0047
1634.00,0.0047
1633.00,0.0047
1632.00,0.0047
1631.00,0.0047
1630.00,0.0047
1629.00,0.0047
1628.00,0.0047
1627.00,0.0047
1626.00,0.0046
1625.00,0.0046
1624.00,0.0047
1623.00,0.0047
1622.00,0.0047
1621.00,0.0047
1620.00,0.0046
1619.00,0.0047
1618.00,0.0047
1617.00,0.0047
1616.00,0.0047
1615.00,0.0047
1614.00,0.0047
1613.00,0.0047
1612.00,0.0047
1611.00,0.0046
1610.00,0.0046
1609.00,0.0046
1608.00,0.0046
1607.00,0.0045
1606.00,0.0045
1605.00,0.0045
1604.00,0.0045
1603.00,0.0045
1602.00,0.0045
1601.00,0.0045
1600.00,0.0046
1599.00,0.0045
1598.00,0.0045
1597.00,0.0045
1596.00,0.0044
1595.00,0.0044
1594.00,0.0043
1593.00,0.0043
1592.00,0.0043
1591.00,0.0043
1590.00,0.0042
1589.00,0.0042
1588.00,0.0043
1587.00,0.0043
1586.00,0.0043
1585.00,0.0042
1584.00,0.0042
1583.00,0.0042
1582.00,0.0042
1581.00,0.0042
1580.00,0.0042
1579.00,0.0043
1578.00,0.0043
1577.00,0.0043
1576.00,0.0043
1575.00,0.0044
1574.00,0.0044
1573.00,0.0044
1572.00,0.0044
1571.00,0.0043
1570.00,0.0043
1569.00,0.0043
1568.00,0.0043
1567.00,0.0043
1566.00,0.0043
1565.00,0.0044
1564.00,0.0044
1563.00,0.0045
1562.00,0.0045
1561.00,0.0046
1560.00,0.0047
1559.00,0.0048
1558.00,0.0048
1557.00,0.0048
1556.00,0.0048
1555.00,0.0049
1554.00,0.0049
1553.00,0.0050
1552.00,0.0051
1551.00,0.0051
1550.00,0.0051
1549.00,0.0051
1548.00,0.0052
1547.00,0.0052
1546.00,0.0053
1545.00,0.0053
1544.00,0.0054
1543.00,0.0053
1542.00,0.0053
1541.00,0.0052
1540.00,0.0053
1539.00,0.0053
1538.00,0.0052
1537.00,0.0051
1536.00,0.0050
1535.00,0.0049
1534.00,0.0048
1533.00,0.0047
1532.00,0.0047
1531.00,0.0047
1530.00,0.0046
1529.00,0.0046
1528.00,0.0046
1527.00,0.0045
1526.00,0.0045
1525.00,0.0045
1524.00,0.0045
1523.00,0.0046
1522.00,0.0046
1521.00,0.0046
1520.00,0.0047
1519.00,0.0047
1518.00,0.0047
1517.00,0.0047
1516.00,0.0048
1515.00,0.0047
1514.00,0.0047
1513.00,0.0048
1512.00,0.0049
1511.00,0.0050
1510.00,0.0051
1509.00,0.0053
1508.00,0.0055
1507.00,0.0056
1506.00,0.0056
1505.00,0.0057
1504.00,0.0059
1503.00,0.0060
1502.00,0.0061
1501.00,0.0063
1500.00,0.0066
1499.00,0.0068
1498.00,0.0071
1497.00,0.0074
1496.00,0.0078
1495.00,0.0080
1494.00,0.0082
1493.00,0.0086
1492.00,0.0090
1491.00,0.0093
1490.00,0.0097
1489.00,0.0102
1488.00,0.0106
1487.00,0.0110
1486.00,0.0114
1485.00,0.0120
1484.00,0.0126
1483.00,0.0133
1482.00,0.0140
1481.00,0.0150
1480.00,0.0161
1479.00,0.0172
1478.00,0.0185
1477.00,0.0204
1476.00,0.0226
1475.00,0.0251
1474.00,0.0287
1473.00,0.0339
1472.00,0.0402
1471.00,0.0464
1470.00,0.0523
1469.00,0.0586
1468.00,0.0654
1467.00,0.0729
1466.00,0.0815
1465.00,0.0910
1464.00,0.0995
1463.00,0.1057
1462.00,0.1100
1461.00,0.1133
1460.00,0.1159
1459.00,0.1180
1458.00,0.1203
1457.00,0.1226
1456.00,0.1242
1455.00,0.1246
1454.00,0.1245
1453.00,0.1238
1452.00,0.1221
1451.00,0.1189
1450.00,0.1139
1449.00,0.1066
1448.00,0.0968
1447.00,0.0862
1446.00,0.0765
1445.00,0.0682
1444.00,0.0611
1443.00,0.0553
1442.00,0.0509
1441.00,0.0479
1440.00,0.0459
1439.00,0.0449
1438.00,0.0445
1437.00,0.0441
1436.00,0.0425
1435.00,0.0396
1434.00,0.0357
1433.00,0.0312
1432.00,0.0266
1431.00,0.0226
1430.00,0.0195
1429.00,0.0173
1428.00,0.0157
1427.00,0.0148
1426.00,0.0141
1425.00,0.0135
1424.00,0.0130
1423.00,0.0127
1422.00,0.0126
1421.00,0.0123
1420.00,0.0120
1419.00,0.0118
1418.00,0.0116
1417.00,0.0114
1416.00,0.0112
1415.00,0.0112
1414.00,0.0112
1413.00,0.0111
1412.00,0.0109
1411.00,0.0109
1410.00,0.0109
1409.00,0.0108
1408.00,0.0107
1407.00,0.0107
1406.00,0.0108
1405.00,0.0108
1404.00,0.0108
1403.00,0.0110
1402.00,0.0112
1401.00,0.0113
1400.00,0.0114
1399.00,0.0116
1398.00,0.0119
1397.00,0.0121
1396.00,0.0123
1395.00,0.0127
1394.00,0.0133
1393.00,0.0138
1392.00,0.0144
1391.00,0.0153
1390.00,0.0166
1389.00,0.0184
1388.00,0.0211
1387.00,0.0251
1386.00,0.0303
1385.00,0.0369
1384.00,0.0454
1383.00,0.0568
1382.00,0.0714
1381.00,0.0896
1380.00,0.1115
1379.00,0.1357
1378.00,0.1587
1377.00,0.1753
1376.00,0.1808
1375.00,0.1722
1374.00,0.1517
1373.00,0.1264
1372.00,0.1030
1371.00,0.0833
1370.00,0.0673
1369.00,0.0550
1368.00,0.0464
1367.00,0.0411
1366.00,0.0382
1365.00,0.0370
1364.00,0.0372
1363.00,0.0385
1362.00,0.0405
1361.00,0.0427
1360.00,0.0442
1359.00,0.0446
1358.00,0.0435
1357.00,0.0408
1356.00,0.0372
1355.00,0.0330
1354.00,0.0291
1353.00,0.0257
1352.00,0.0229
1351.00,0.0207
1350.00,0.0189
1349.00,0.0174
1348.00,0.0163
1347.00,0.0153
1346.00,0.0145
1345.00,0.0139
1344.00,0.0134
1343.00,0.0130
1342.00,0.0127
1341.00,0.0124
1340.00,0.0122
1339.00,0.0121
1338.00,0.0120
1337.00,0.0119
1336.00,0.0119
1335.00,0.0121
1334.00,0.0124
1333.00,0.0127
1332.00,0.0131
1331.00,0.0135
1330.00,0.0136
1329.00,0.0135
1328.00,0.0131
1327.00,0.0127
1326.00,0.0121
1325.00,0.0115
1324.00,0.0109
1323.00,0.0104
1322.00,0.0099
1321.00,0.0096
1320.00,0.0093
1319.00,0.0090
1318.00,0.0088
1317.00,0.0086
1316.00,0.0085
1315.00,0.0083
1314.00,0.0083
1313.00,0.0084
1312.00,0.0086
1311.00,0.0089
1310.00,0.0094
1309.00,0.0102
1308.00,0.0114
1307.00,0.0129
1306.00,0.0144
1305.00,0.0155
1304.00,0.0158
1303.00,0.0154
1302.00,0.0146
1301.00,0.0137
1300.00,0.0131
1299.00,0.0128
1298.00,0.0126
1297.00,0.0124
1296.00,0.0122
1295.00,0.0118
1294.00,0.0114
1293.00,0.0108
1292.00,0.0102
1291.00,0.0096
1290.00,0.0091
1289.00,0.0087
1288.00,0.0084
1287.00,0.0081
1286.00,0.0078
1285.00,0.0076
1284.00,0.0074
1283.00,0.0073
1282.00,0.0072
1281.00,0.0070
1280.00,0.0069
1279.00,0.0067
1278.00,0.0066
1277.00,0.0066
1276.00,0.0065
1275.00,0.0065
1274.00,0.0065
1273.00,0.0066
1272.00,0.0066
1271.00,0.0067
1270.00,0.0067
1269.00,0.0068
1268.00,0.0069
1267.00,0.0071
1266.00,0.0074
1265.00,0.0076
1264.00,0.0080
1263.00,0.0084
1262.00,0.0088
1261.00,0.0095
1260.00,0.0103
1259.00,0.0113
1258.00,0.0124
1257.00,0.0133
1256.00,0.0138
1255.00,0.0137
1254.00,0.0130
1253.00,0.0120
1252.00,0.0110
1251.00,0.0101
1250.00,0.0095
1249.00,0.0090
1248.00,0.0088
1247.00,0.0086
1246.00,0.0085
1245.00,0.0085
1244.00,0.0084
1243.00,0.0084
1242.00,0.0083
1241.00,0.0082
1240.00,0.0081
1239.00,0.0080
1238.00,0.0079
1237.00,0.0078
1236.00,0.0077
1235.00,0.0077
1234.00,0.0076
1233.00,0.0076
1232.00,0.0076
1231.00,0.0076
1230.00,0.0076
1229.00,0.0077
1228.00,0.0077
1227.00,0.0079
1226.00,0.0080
1225.00,0.0083
1224.00,0.0085
1223.00,0.0088
1222.00,0.0091
1221.00,0.0093
1220.00,0.0095
1219.00,0.0095
1218.00,0.0095
1217.00,0.0093
1216.00,0.0091
1215.00,0.0089
1214.00,0.0087
1213.00,0.0084
1212.00,0.0081
1211.00,0.0079
1210.00,0.0076
1209.00,0.0074
1208.00,0.0072
1207.00,0.0071
1206.00,0.0071
1205.00,0.0070
1204.00,0.0070
1203.00,0.0070
1202.00,0.0070
1201.00,0.0069
1200.00,0.0069
1199.00,0.0069
1198.00,0.0068
1197.00,0.0068
1196.00,0.0068
1195.00,0.0069
1194.00,0.0069
1193.00,0.0070
1192.00,0.0071
1191.00,0.0071
1190.00,0.0071
1189.00,0.0071
1188.00,0.0071
1187.00,0.0072
1186.00,0.0073
1185.00,0.0075
1184.00,0.0077
1183.00,0.0079
1182.00,0.0082
1181.00,0.0086
1180.00,0.0091
1179.00,0.0098
1178.00,0.0107
1177.00,0.0118
1176.00,0.0133
1175.00,0.0152
1174.00,0.0178
1173.00,0.0211
1172.00,0.0251
1171.00,0.0294
1170.00,0.0336
1169.00,0.0371
1168.00,0.0393
1167.00,0.0399
1166.00,0.0390
1165.00,0.0371
1164.00,0.0345
1163.00,0.0319
1162.00,0.0295
1161.00,0.0274
1160.00,0.0257
1159.00,0.0243
1158.00,0.0233
1157.00,0.0226
1156.00,0.0220
1155.00,0.0216
1154.00,0.0213
1153.00,0.0209
1152.00,0.0203
1151.00,0.0196
1150.00,0.0186
1149.00,0.0176
1148.00,0.0165
1147.00,0.0155
1146.00,0.0146
1145.00,0.0137
1144.00,0.0129
1143.00,0.0122
1142.00,0.0115
1141.00,0.0108
1140.00,0.0103
1139.00,0.0099
1138.00,0.0095
1137.00,0.0092
1136.00,0.0089
1135.00,0.0086
1134.00,0.0083
1133.00,0.0081
1132.00,0.0079
1131.00,0.0078
1130.00,0.0077
1129.00,0.0077
1128.00,0.0078
1127.00,0.0079
1126.00,0.0080
1125.00,0.0081
1124.00,0.0081
1123.00,0.0081
1122.00,0.0081
1121.00,0.0081
1120.00,0.0082
1119.00,0.0083
1118.00,0.0084
1117.00,0.0085
1116.00,0.0087
1115.00,0.0088
1114.00,0.0090
1113.00,0.0092
1112.00,0.0095
1111.00,0.0097
1110.00,0.0101
1109.00,0.0105
1108.00,0.0111
1107.00,0.0117
1106.00,0.0124
1105.00,0.0131
1104.00,0.0137
1103.00,0.0140
1102.00,0.0140
1101.00,0.0137
1100.00,0.0132
1099.00,0.0126
1098.00,0.0119
1097.00,0.0113
1096.00,0.0108
1095.00,0.0104
1094.00,0.0100
1093.00,0.0097
1092.00,0.0094
1091.00,0.0091
1090.00,0.0089
1089.00,0.0087
1088.00,0.0085
1087.00,0.0084
1086.00,0.0084
1085.00,0.0084
1084.00,0.0084
1083.00,0.0084
1082.00,0.0082
1081.00,0.0080
1080.00,0.0078
1079.00,0.0076
1078.00,0.0074
1077.00,0.0072
1076.00,0.0070
1075.00,0.0070
1074.00,0.0070
1073.00,0.0071
1072.00,0.0073
1071.00,0.0073
1070.00,0.0073
1069.00,0.0073
1068.00,0.0072
1067.00,0.0072
1066.00,0.0073
1065.00,0.0074
1064.00,0.0075
1063.00,0.0076
1062.00,0.0077
1061.00,0.0078
1060.00,0.0079
1059.00,0.0080
1058.00,0.0081
1057.00,0.0081
1056.00,0.0082
1055.00,0.0083
1054.00,0.0084
1053.00,0.0085
1052.00,0.0086
1051.00,0.0088
1050.00,0.0090
1049.00,0.0093
1048.00,0.0097
1047.00,0.0101
1046.00,0.0105
1045.00,0.0107
1044.00,0.0107
1043.00,0.0106
1042.00,0.0102
1041.00,0.0099
1040.00,0.0095
1039.00,0.0092
1038.00,0.0090
1037.00,0.0089
1036.00,0.0087
1035.00,0.0087
1034.00,0.0087
1033.00,0.0087
1032.00,0.0087
1031.00,0.0087
1030.00,0.0087
1029.00,0.0087
1028.00,0.0087
1027.00,0.0087
1026.00,0.0088
1025.00,0.0089
1024.00,0.0089
1023.00,0.0089
1022.00,0.0090
1021.00,0.0091
1020.00,0.0092
1019.00,0.0094
1018.00,0.0095
1017.00,0.0096
1016.00,0.0098
1015.00,0.0102
1014.00,0.0107
1013.00,0.0112
1012.00,0.0116
1011.00,0.0121
1010.00,0.0126
1009.00,0.0131
1008.00,0.0139
1007.00,0.0149
1006.00,0.0161
1005.00,0.0177
1004.00,0.0198
1003.00,0.0226
1002.00,0.0264
1001.00,0.0311
1000.00,0.0362
999.00,0.0406
998.00,0.0430
997.00,0.0426
996.00,0.0394
995.00,0.0345
994.00,0.0291
993.00,0.0243
992.00,0.0205
991.00,0.0178
990.00,0.0158
989.00,0.0145
988.00,0.0136
987.00,0.0130
986.00,0.0129
985.00,0.0130
984.00,0.0135
983.00,0.0143
982.00,0.0155
981.00,0.0174
980.00,0.0200
979.00,0.0234
978.00,0.0278
977.00,0.0331
976.00,0.0390
975.00,0.0449
974.00,0.0496
973.00,0.0519
972.00,0.0509
971.00,0.0468
970.00,0.0405
969.00,0.0336
968.00,0.0274
967.00,0.0226
966.00,0.0190
965.00,0.0165
964.00,0.0146
963.00,0.0133
962.00,0.0122
961.00,0.0114
960.00,0.0107
959.00,0.0102
958.00,0.0097
957.00,0.0094
956.00,0.0091
955.00,0.0089
954.00,0.0087
953.00,0.0085
952.00,0.0083
951.00,0.0081
950.00,0.0080
949.00,0.0080
948.00,0.0080
947.00,0.0081
946.00,0.0083
945.00,0.0086
944.00,0.0090
943.00,0.0093
942.00,0.0096
941.00,0.0097
940.00,0.0095
939.00,0.0092
938.00,0.0088
937.00,0.0084
936.00,0.0080
935.00,0.0076
934.00,0.0072
933.00,0.0070
932.00,0.0068
931.00,0.0067
930.00,0.0066
929.00,0.0065
928.00,0.0064
927.00,0.0063
926.00,0.0063
925.00,0.0064
924.00,0.0065
923.00,0.0065
922.00,0.0066
921.00,0.0067
920.00,0.0068
919.00,0.0069
918.00,0.0070
917.00,0.0070
916.00,0.0070
915.00,0.0071
914.00,0.0072
913.00,0.0073
912.00,0.0074
911.00,0.0074
910.00,0.0074
909.00,0.0075
908.00,0.0078
907.00,0.0083
906.00,0.0090
905.00,0.0100
904.00,0.0113
903.00,0.0130
902.00,0.0149
901.00,0.0167
900.00,0.0180
899.00,0.0183
898.00,0.0176
897.00,0.0162
896.00,0.0144
895.00,0.0126
894.00,0.0111
893.00,0.0099
892.00,0.0091
891.00,0.0085
890.00,0.0081
889.00,0.0079
888.00,0.0077
887.00,0.0077
886.00,0.0076
885.00,0.0075
884.00,0.0074
883.00,0.0073
882.00,0.0072
881.00,0.0071
880.00,0.0071
879.00,0.0071
878.00,0.0071
877.00,0.0072
876.00,0.0072
875.00,0.0072
874.00,0.0072
873.00,0.0072
872.00,0.0073
871.00,0.0073
870.00,0.0074
869.00,0.0074
868.00,0.0074
867.00,0.0074
866.00,0.0075
865.00,0.0077
864.00,0.0078
863.00,0.0080
862.00,0.0082
861.00,0.0083
860.00,0.0086
859.00,0.0088
858.00,0.0091
857.00,0.0094
856.00,0.0095
855.00,0.0096
854.00,0.0097
853.00,0.0099
852.00,0.0102
851.00,0.0108
850.00,0.0116
849.00,0.0126
848.00,0.0139
847.00,0.0160
846.00,0.0190
845.00,0.0235
844.00,0.0295
843.00,0.0362
842.00,0.0415
841.00,0.0433
840.00,0.0407
839.00,0.0350
838.00,0.0286
837.00,0.0232
836.00,0.0197
835.00,0.0174
834.00,0.0160
833.00,0.0150
832.00,0.0142
831.00,0.0134
830.00,0.0128
829.00,0.0124
828.00,0.0120
827.00,0.0117
826.00,0.0116
825.00,0.0114
824.00,0.0112
823.00,0.0110
822.00,0.0108
821.00,0.0107
820.00,0.0108
819.00,0.0110
818.00,0.0114
817.00,0.0120
816.00,0.0128
815.00,0.0137
814.00,0.0148
813.00,0.0162
812.00,0.0177
811.00,0.0192
810.00,0.0203
809.00,0.0208
808.00,0.0207
807.00,0.0199
806.00,0.0186
805.00,0.0171
804.00,0.0156
803.00,0.0142
802.00,0.0130
801.00,0.0121
800.00,0.0113
799.00,0.0107
798.00,0.0103
797.00,0.0100
796.00,0.0097
795.00,0.0094
794.00,0.0091
793.00,0.0089
792.00,0.0086
791.00,0.0084
790.00,0.0082
789.00,0.0081
788.00,0.0079
787.00,0.0077
786.00,0.0074
785.00,0.0070
784.00,0.0067
783.00,0.0064
782.00,0.0062
781.00,0.0062
780.00,0.0063
779.00,0.0064
778.00,0.0064
777.00,0.0064
776.00,0.0064
775.00,0.0066
774.00,0.0068
773.00,0.0070
772.00,0.0072
771.00,0.0073
770.00,0.0076
769.00,0.0079
768.00,0.0081
767.00,0.0083
766.00,0.0082
765.00,0.0080
764.00,0.0077
763.00,0.0074
762.00,0.0071
761.00,0.0068
760.00,0.0066
759.00,0.0063
758.00,0.0060
757.00,0.0057
756.00,0.0054
755.00,0.0051
754.00,0.0050
753.00,0.0049
752.00,0.0049
751.00,0.0050
750.00,0.0051
749.00,0.0052
748.00,0.0052
747.00,0.0052
746.00,0.0052
745.00,0.0053
744.00,0.0055
743.00,0.0057
742.00,0.0058
741.00,0.0059
740.00,0.0059
739.00,0.0060
738.00,0.0061
737.00,0.0061
736.00,0.0062
735.00,0.0063
734.00,0.0065
733.00,0.0067
732.00,0.0069
731.00,0.0070
730.00,0.0070
729.00,0.0068
728.00,0.0067
727.00,0.0066
726.00,0.0067
725.00,0.0067
724.00,0.0068
723.00,0.0067
722.00,0.0066
721.00,0.0064
720.00,0.0063
719.00,0.0062
718.00,0.0060
717.00,0.0059
716.00,0.0058
715.00,0.0059
714.00,0.0059
713.00,0.0060
712.00,0.0061
711.00,0.0060
710.00,0.0058
709.00,0.0058
708.00,0.0058
707.00,0.0059
706.00,0.0061
705.00,0.0062
704.00,0.0062
703.00,0.0062
702.00,0.0060
701.00,0.0058
700.00,0.0056
699.00,0.0053
698.00,0.0051
697.00,0.0049
696.00,0.0049
695.00,0.0049
694.00,0.0050
693.00,0.0050
692.00,0.0050
691.00,0.0050
690.00,0.0050
689.00,0.0050
688.00,0.0050
687.00,0.0051
686.00,0.0052
685.00,0.0052
684.00,0.0051
683.00,0.0050
682.00,0.0048
681.00,0.0046
680.00,0.0044
679.00,0.0044
678.00,0.0046
677.00,0.0049
676.00,0.0051
675.00,0.0050
674.00,0.0049
673.00,0.0049
672.00,0.0050
671.00,0.0052
670.00,0.0055
669.00,0.0057
668.00,0.0058
667.00,0.0059
666.00,0.0058
665.00,0.0056
664.00,0.0055
663.00,0.0054
662.00,0.0053
661.00,0.0051
660.00,0.0050
659.00,0.0049
658.00,0.0049
657.00,0.0048
656.00,0.0047
655.00,0.0047
654.00,0.0048
653.00,0.0050
652.00,0.0051
651.00,0.0053
650.00,0.0053
649.00,0.0052
648.00,0.0051
647.00,0.0050
646.00,0.0051
645.00,0.0053
644.00,0.0055
643.00,0.0057
642.00,0.0058
641.00,0.0058
640.00,0.0057
639.00,0.0056
638.00,0.0055
637.00,0.0056
636.00,0.0056
635.00,0.0056
634.00,0.0055
633.00,0.0053
632.00,0.0051
631.00,0.0052
630.00,0.0054
629.00,0.0056
628.00,0.0059
627.00,0.0060
626.00,0.0060
625.00,0.0058
624.00,0.0055
623.00,0.0052
622.00,0.0050
621.00,0.0049
620.00,0.0049
619.00,0.0049
618.00,0.0051
617.00,0.0054
616.00,0.0057
615.00,0.0058
614.00,0.0058
613.00,0.0057
612.00,0.0057
611.00,0.0057
610.00,0.0057
609.00,0.0057
608.00,0.0057
607.00,0.0056
606.00,0.0057
605.00,0.0058
604.00,0.0059
603.00,0.0060
602.00,0.0060
601.00,0.0060
600.00,0.0061
599.00,0.0062
598.00,0.0063
597.00,0.0062
596.00,0.0061
595.00,0.0059
594.00,0.0058
593.00,0.0057
592.00,0.0056
591.00,0.0057
590.00,0.0057
589.00,0.0058
588.00,0.0058
587.00,0.0059
586.00,0.0060
585.00,0.0061
584.00,0.0062
583.00,0.0063
582.00,0.0063
581.00,0.0061
580.00,0.0057
579.00,0.0054
578.00,0.0053
577.00,0.0055
576.00,0.0059
575.00,0.0065
574.00,0.0068
573.00,0.0067
572.00,0.0063
571.00,0.0060
570.00,0.0061
569.00,0.0064
568.00,0.0066
567.00,0.0065
566.00,0.0062
565.00,0.0060
564.00,0.0059
563.00,0.0058
562.00,0.0058
561.00,0.0056
560.00,0.0055
559.00,0.0055
558.00,0.0057
557.00,0.0060
556.00,0.0060
555.00,0.0060
554.00,0.0060
553.00,0.0062
552.00,0.0063
551.00,0.0065
550.00,0.0065
549.00,0.0065
548.00,0.0064
547.00,0.0064
546.00,0.0068
545.00,0.0073
544.00,0.0076
543.00,0.0078
542.00,0.0077
541.00,0.0076
540.00,0.0075
539.00,0.0075
538.00,0.0076
537.00,0.0075
536.00,0.0073
535.00,0.0069
534.00,0.0067
533.00,0.0069
532.00,0.0073
531.00,0.0080
530.00,0.0084
529.00,0.0085
528.00,0.0082
527.00,0.0079
526.00,0.0077
525.00,0.0077
524.00,0.0078
523.00,0.0078
522.00,0.0075
521.00,0.0068
520.00,0.0060
519.00,0.0053
518.00,0.0049
517.00,0.0049
516.00,0.0055
515.00,0.0065
514.00,0.0071
513.00,0.0070
512.00,0.0064
511.00,0.0057
510.00,0.0054
509.00,0.0055
508.00,0.0059
507.00,0.0067
506.00,0.0075
505.00,0.0080
504.00,0.0080
503.00,0.0077
502.00,0.0076
501.00,0.0078
500.00,0.0082
499.00,0.0084
498.00,0.0085
497.00,0.0082
496.00,0.0076
495.00,0.0068
494.00,0.0063
493.00,0.0063
492.00,0.0069
491.00,0.0076
490.00,0.0080
489.00,0.0081
488.00,0.0079
487.00,0.0073
486.00,0.0059
485.00,0.0039
484.00,0.0024
483.00,0.0021
482.00,0.0029
481.00,0.0042
480.00,0.0056
479.00,0.0068
478.00,0.0078
477.00,0.0083
476.00,0.0085
475.00,0.0088
474.00,0.0094
473.00,0.0097
472.00,0.0095
471.00,0.0091
470.00,0.0089
469.00,0.0092
468.00,0.0100
467.00,0.0113
466.00,0.0125
465.00,0.0131
464.00,0.0133
463.00,0.0138
462.00,0.0150
461.00,0.0162
460.00,0.0166
459.00,0.0162
458.00,0.0156
457.00,0.0151
456.00,0.0146
455.00,0.0140
454.00,0.0136
453.00,0.0132
452.00,0.0126
451.00,0.0120
450.00,0.0115
