Created as New Dataset,Sample 098 By Administrator Date Wednesday, September 10 2025
cm-1,A
4000.00,0.0010
3999.00,0.0010
3998.00,0.0010
3997.00,0.0009
3996.00,0.0009
3995.00,0.0009
3994.00,0.0009
3993.00,0.0009
3992.00,0.0009
3991.00,0.0009
3990.00,0.0009
3989.00,0.0009
3988.00,0.0009
3987.00,0.0009
3986.00,0.0009
3985.00,0.0009
3984.00,0.0009
3983.00,0.0008
3982.00,0.0008
3981.00,0.0008
3980.00,0.0008
3979.00,0.0008
3978.00,0.0008
3977.00,0.0008
3976.00,0.0008
3975.00,0.0008
3974.00,0.0008
3973.00,0.0008
3972.00,0.0008
3971.00,0.0008
3970.00,0.0008
3969.00,0.0008
3968.00,0.0008
3967.00,0.0008
3966.00,0.0008
3965.00,0.0008
3964.00,0.0008
3963.00,0.0007
3962.00,0.0007
3961.00,0.0007
3960.00,0.0007
3959.00,0.0007
3958.00,0.0007
3957.00,0.0007
3956.00,0.0007
3955.00,0.0007
3954.00,0.0007
3953.00,0.0007
3952.00,0.0007
3951.00,0.0007
3950.00,0.0008
3949.00,0.0007
3948.00,0.0007
3947.00,0.0007
3946.00,0.0007
3945.00,0.0007
3944.00,0.0007
3943.00,0.0007
3942.00,0.0007
3941.00,0.0007
3940.00,0.0007
3939.00,0.0007
3938.00,0.0007
3937.00,0.0007
3936.00,0.0008
3935.00,0.0008
3934.00,0.0008
3933.00,0.0008
3932.00,0.0008
3931.00,0.0008
3930.00,0.0008
3929.00,0.0008
3928.00,0.0008
3927.00,0.0008
3926.00,0.0008
3925.00,0.0008
3924.00,0.0008
3923.00,0.0008
3922.00,0.0008
3921.00,0.0008
3920.00,0.0008
3919.00,0.0008
3918.00,0.0008
3917.00,0.0008
3916.00,0.0007
3915.00,0.0007
3914.00,0.0007
3913.00,0.0007
3912.00,0.0007
3911.00,0.0007
3910.00,0.0007
3909.00,0.0007
3908.00,0.0007
3907.00,0.0007
3906.00,0.0007
3905.00,0.0007
3904.00,0.0007
3903.00,0.0008
3902.00,0.0008
3901.00,0.0008
3900.00,0.0008
3899.00,0.0008
3898.00,0.0008
3897.00,0.0008
3896.00,0.0008
3895.00,0.0007
3894.00,0.0007
3893.00,0.0007
3892.00,0.0007
3891.00,0.0008
3890.00,0.0008
3889.00,0.0008
3888.00,0.0007
3887.00,0.0006
3886.00,0.0007
3885.00,0.0007
3884.00,0.0008
3883.00,0.0008
3882.00,0.0008
3881.00,0.0008
3880.00,0.0008
3879.00,0.0008
3878.00,0.0008
3877.00,0.0007
3876.00,0.0007
3875.00,0.0007
3874.00,0.0007
3873.00,0.0007
3872.00,0.0007
3871.00,0.0007
3870.00,0.0007
3869.00,0.0007
3868.00,0.0007
3867.00,0.0007
3866.00,0.0006
3865.00,0.0006
3864.00,0.0007
3863.00,0.0007
3862.00,0.0007
3861.00,0.0007
3860.00,0.0007
3859.00,0.0008
3858.00,0.0008
3857.00,0.0009
3856.00,0.0009
3855.00,0.0009
3854.00,0.0009
3853.00,0.0009
3852.00,0.0008
3851.00,0.0007
3850.00,0.0006
3849.00,0.0006
3848.00,0.0006
3847.00,0.0006
3846.00,0.0006
3845.00,0.0006
3844.00,0.0006
3843.00,0.0006
3842.00,0.0007
3841.00,0.0007
3840.00,0.0007
3839.00,0.0007
3838.00,0.0007
3837.00,0.0007
3836.00,0.0007
3835.00,0.0007
3834.00,0.0007
3833.00,0.0007
3832.00,0.0007
3831.00,0.0007
3830.00,0.0007
3829.00,0.0007
3828.00,0.0006
3827.00,0.0006
3826.00,0.0007
3825.00,0.0007
3824.00,0.0007
3823.00,0.0007
3822.00,0.0007
3821.00,0.0007
3820.00,0.0007
3819.00,0.0008
3818.00,0.0008
3817.00,0.0008
3816.00,0.0008
3815.00,0.0008
3814.00,0.0009
3813.00,0.0008
3812.00,0.0008
3811.00,0.0008
3810.00,0.0008
3809.00,0.0008
3808.00,0.0008
3807.00,0.0008
3806.00,0.0008
3805.00,0.0008
3804.00,0.0008
3803.00,0.0008
3802.00,0.0008
3801.00,0.0008
3800.00,0.0008
3799.00,0.0008
3798.00,0.0008
3797.00,0.0008
3796.00,0.0008
3795.00,0.0008
3794.00,0.0007
3793.00,0.0007
3792.00,0.0007
3791.00,0.0007
3790.00,0.0007
3789.00,0.0007
3788.00,0.0008
3787.00,0.0008
3786.00,0.0008
3785.00,0.0008
3784.00,0.0008
3783.00,0.0007
3782.00,0.0007
3781.00,0.0007
3780.00,0.0007
3779.00,0.0007
3778.00,0.0007
3777.00,0.0008
3776.00,0.0007
3775.00,0.0007
3774.00,0.0007
3773.00,0.0007
3772.00,0.0007
3771.00,0.0007
3770.00,0.0007
3769.00,0.0008
3768.00,0.0008
3767.00,0.0008
3766.00,0.0008
3765.00,0.0008
3764.00,0.0008
3763.00,0.0008
3762.00,0.0008
3761.00,0.0008
3760.00,0.0008
3759.00,0.0008
3758.00,0.0008
3757.00,0.0009
3756.00,0.0009
3755.00,0.0009
3754.00,0.0010
3753.00,0.0010
3752.00,0.0010
3751.00,0.0010
3750.00,0.0009
3749.00,0.0009
3748.00,0.0009
3747.00,0.0008
3746.00,0.0008
3745.00,0.0007
3744.00,0.0007
3743.00,0.0007
3742.00,0.0007
3741.00,0.0007
3740.00,0.0007
3739.00,0.0007
3738.00,0.0007
3737.00,0.0006
3736.00,0.0006
3735.00,0.0006
3734.00,0.0006
3733.00,0.0006
3732.00,0.0006
3731.00,0.0006
3730.00,0.0006
3729.00,0.0006
3728.00,0.0006
3727.00,0.0006
3726.00,0.0006
3725.00,0.0006
3724.00,0.0005
3723.00,0.0005
3722.00,0.0005
3721.00,0.0005
3720.00,0.0006
3719.00,0.0006
3718.00,0.0006
3717.00,0.0007
3716.00,0.0007
3715.00,0.0007
3714.00,0.0007
3713.00,0.0006
3712.00,0.0006
3711.00,0.0006
3710.00,0.0006
3709.00,0.0005
3708.00,0.0005
3707.00,0.0005
3706.00,0.0005
3705.00,0.0005
3704.00,0.0005
3703.00,0.0006
3702.00,0.0006
3701.00,0.0006
3700.00,0.0006
3699.00,0.0006
3698.00,0.0006
3697.00,0.0006
3696.00,0.0006
3695.00,0.0006
3694.00,0.0006
3693.00,0.0006
3692.00,0.0006
3691.00,0.0006
3690.00,0.0006
3689.00,0.0006
3688.00,0.0006
3687.00,0.0006
3686.00,0.0006
3685.00,0.0006
3684.00,0.0006
3683.00,0.0006
3682.00,0.0007
3681.00,0.0007
3680.00,0.0007
3679.00,0.0007
3678.00,0.0008
3677.00,0.0008
3676.00,0.0009
3675.00,0.0009
3674.00,0.0009
3673.00,0.0009
3672.00,0.0008
3671.00,0.0008
3670.00,0.0007
3669.00,0.0007
3668.00,0.0007
3667.00,0.0007
3666.00,0.0007
3665.00,0.0007
3664.00,0.0007
3663.00,0.0007
3662.00,0.0007
3661.00,0.0006
3660.00,0.0006
3659.00,0.0006
3658.00,0.0006
3657.00,0.0006
3656.00,0.0006
3655.00,0.0006
3654.00,0.0007
3653.00,0.0007
3652.00,0.0006
3651.00,0.0006
3650.00,0.0006
3649.00,0.0006
3648.00,0.0006
3647.00,0.0006
3646.00,0.0006
3645.00,0.0007
3644.00,0.0007
3643.00,0.0007
3642.00,0.0007
3641.00,0.0007
3640.00,0.0007
3639.00,0.0007
3638.00,0.0007
3637.00,0.0007
3636.00,0.0007
3635.00,0.0007
3634.00,0.0007
3633.00,0.0008
3632.00,0.0008
3631.00,0.0008
3630.00,0.0008
3629.00,0.0008
3628.00,0.0007
3627.00,0.0007
3626.00,0.0006
3625.00,0.0006
3624.00,0.0006
3623.00,0.0007
3622.00,0.0007
3621.00,0.0007
3620.00,0.0007
3619.00,0.0007
3618.00,0.0008
3617.00,0.0008
3616.00,0.0009
3615.00,0.0009
3614.00,0.0009
3613.00,0.0010
3612.00,0.0010
3611.00,0.0011
3610.00,0.0011
3609.00,0.0011
3608.00,0.0011
3607.00,0.0010
3606.00,0.0010
3605.00,0.0010
3604.00,0.0010
3603.00,0.0010
3602.00,0.0010
3601.00,0.0010
3600.00,0.0010
3599.00,0.0010
3598.00,0.0010
3597.00,0.0011
3596.00,0.0011
3595.00,0.0011
3594.00,0.0011
3593.00,0.0011
3592.00,0.0012
3591.00,0.0012
3590.00,0.0012
3589.00,0.0013
3588.00,0.0013
3587.00,0.0013
3586.00,0.0014
3585.00,0.0014
3584.00,0.0014
3583.00,0.0014
3582.00,0.0014
3581.00,0.0013
3580.00,0.0014
3579.00,0.0014
3578.00,0.0015
3577.00,0.0015
3576.00,0.0015
3575.00,0.0015
3574.00,0.0016
3573.00,0.0015
3572.00,0.0015
3571.00,0.0015
3570.00,0.0014
3569.00,0.0014
3568.00,0.0014
3567.00,0.0015
3566.00,0.0016
3565.00,0.0016
3564.00,0.0017
3563.00,0.0017
3562.00,0.0018
3561.00,0.0018
3560.00,0.0018
3559.00,0.0019
3558.00,0.0019
3557.00,0.0019
3556.00,0.0020
3555.00,0.0019
3554.00,0.0019
3553.00,0.0019
3552.00,0.0019
3551.00,0.0019
3550.00,0.0020
3549.00,0.0020
3548.00,0.0021
3547.00,0.0021
3546.00,0.0021
3545.00,0.0022
3544.00,0.0022
3543.00,0.0022
3542.00,0.0022
3541.00,0.0023
3540.00,0.0023
3539.00,0.0023
3538.00,0.0023
3537.00,0.0024
3536.00,0.0024
3535.00,0.0025
3534.00,0.0025
3533.00,0.0026
3532.00,0.0026
3531.00,0.0026
3530.00,0.0026
3529.00,0.0026
3528.00,0.0027
3527.00,0.0027
3526.00,0.0027
3525.00,0.0027
3524.00,0.0027
3523.00,0.0027
3522.00,0.0027
3521.00,0.0027
3520.00,0.0028
3519.00,0.0028
3518.00,0.0028
3517.00,0.0029
3516.00,0.0029
3515.00,0.0030
3514.00,0.0030
3513.00,0.0030
3512.00,0.0030
3511.00,0.0031
3510.00,0.0031
3509.00,0.0031
3508.00,0.0032
3507.00,0.0032
3506.00,0.0032
3505.00,0.0033
3504.00,0.0033
3503.00,0.0033
3502.00,0.0033
3501.00,0.0033
3500.00,0.0033
3499.00,0.0034
3498.00,0.0034
3497.00,0.0035
3496.00,0.0035
3495.00,0.0035
3494.00,0.0035
3493.00,0.0035
3492.00,0.0035
3491.00,0.0035
3490.00,0.0035
3489.00,0.0036
3488.00,0.0036
3487.00,0.0037
3486.00,0.0037
3485.00,0.0037
3484.00,0.0037
3483.00,0.0038
3482.00,0.0038
3481.00,0.0038
3480.00,0.0039
3479.00,0.0039
3478.00,0.0039
3477.00,0.0039
3476.00,0.0040
3475.00,0.0040
3474.00,0.0041
3473.00,0.0041
3472.00,0.0041
3471.00,0.0041
3470.00,0.0041
3469.00,0.0041
3468.00,0.0041
3467.00,0.0041
3466.00,0.0041
3465.00,0.0041
3464.00,0.0041
3463.00,0.0042
3462.00,0.0042
3461.00,0.0043
3460.00,0.0043
3459.00,0.0043
3458.00,0.0043
3457.00,0.0043
3456.00,0.0044
3455.00,0.0044
3454.00,0.0044
3453.00,0.0045
3452.00,0.0045
3451.00,0.0045
3450.00,0.0045
3449.00,0.0045
3448.00,0.0045
3447.00,0.0046
3446.00,0.0046
3445.00,0.0046
3444.00,0.0047
3443.00,0.0047
3442.00,0.0047
3441.00,0.0047
3440.00,0.0047
3439.00,0.0047
3438.00,0.0048
3437.00,0.0048
3436.00,0.0048
3435.00,0.0049
3434.00,0.0049
3433.00,0.0049
3432.00,0.0049
3431.00,0.0049
3430.00,0.0049
3429.00,0.0049
3428.00,0.0049
3427.00,0.0050
3426.00,0.0050
3425.00,0.0051
3424.00,0.0051
3423.00,0.0051
3422.00,0.0052
3421.00,0.0051
3420.00,0.0051
3419.00,0.0051
3418.00,0.0051
3417.00,0.0052
3416.00,0.0052
3415.00,0.0052
3414.00,0.0052
3413.00,0.0052
3412.00,0.0052
3411.00,0.0053
3410.00,0.0053
3409.00,0.0054
3408.00,0.0054
3407.00,0.0054
3406.00,0.0054
3405.00,0.0054
3404.00,0.0055
3403.00,0.0055
3402.00,0.0055
3401.00,0.0055
3400.00,0.0055
3399.00,0.0056
3398.00,0.0056
3397.00,0.0056
3396.00,0.0057
3395.00,0.0057
3394.00,0.0057
3393.00,0.0056
3392.00,0.0056
3391.00,0.0056
3390.00,0.0056
3389.00,0.0056
3388.00,0.0056
3387.00,0.0055
3386.00,0.0055
3385.00,0.0055
3384.00,0.0055
3383.00,0.0056
3382.00,0.0056
3381.00,0.0056
3380.00,0.0056
3379.00,0.0056
3378.00,0.0055
3377.00,0.0055
3376.00,0.0055
3375.00,0.0055
3374.00,0.0055
3373.00,0.0055
3372.00,0.0055
3371.00,0.0055
3370.00,0.0055
3369.00,0.0055
3368.00,0.0055
3367.00,0.0056
3366.00,0.0056
3365.00,0.0056
3364.00,0.0056
3363.00,0.0056
3362.00,0.0056
3361.00,0.0056
3360.00,0.0056
3359.00,0.0056
3358.00,0.0056
3357.00,0.0055
3356.00,0.0055
3355.00,0.0055
3354.00,0.0055
3353.00,0.0055
3352.00,0.0056
3351.00,0.0055
3350.00,0.0055
3349.00,0.0055
3348.00,0.0054
3347.00,0.0054
3346.00,0.0054
3345.00,0.0054
3344.00,0.0055
3343.00,0.0055
3342.00,0.0055
3341.00,0.0055
3340.00,0.0055
3339.00,0.0054
3338.00,0.0054
3337.00,0.0054
3336.00,0.0054
3335.00,0.0053
3334.00,0.0053
3333.00,0.0053
3332.00,0.0053
3331.00,0.0052
3330.00,0.0052
3329.00,0.0052
3328.00,0.0052
3327.00,0.0051
3326.00,0.0051
3325.00,0.0051
3324.00,0.0051
3323.00,0.0051
3322.00,0.0051
3321.00,0.0051
3320.00,0.0051
3319.00,0.0051
3318.00,0.0051
3317.00,0.0051
3316.00,0.0051
3315.00,0.0051
3314.00,0.0051
3313.00,0.0050
3312.00,0.0050
3311.00,0.0050
3310.00,0.0050
3309.00,0.0050
3308.00,0.0050
3307.00,0.0049
3306.00,0.0049
3305.00,0.0049
3304.00,0.0050
3303.00,0.0050
3302.00,0.0051
3301.00,0.0051
3300.00,0.0051
3299.00,0.0050
3298.00,0.0049
3297.00,0.0049
3296.00,0.0048
3295.00,0.0048
3294.00,0.0048
3293.00,0.0048
3292.00,0.0048
3291.00,0.0048
3290.00,0.0048
3289.00,0.0048
3288.00,0.0048
3287.00,0.0048
3286.00,0.0048
3285.00,0.0048
3284.00,0.0047
3283.00,0.0047
3282.00,0.0047
3281.00,0.0047
3280.00,0.0047
3279.00,0.0047
3278.00,0.0046
3277.00,0.0046
3276.00,0.0046
3275.00,0.0045
3274.00,0.0045
3273.00,0.0044
3272.00,0.0044
3271.00,0.0044
3270.00,0.0045
3269.00,0.0045
3268.00,0.0045
3267.00,0.0045
3266.00,0.0045
3265.00,0.0045
3264.00,0.0045
3263.00,0.0045
3262.00,0.0045
3261.00,0.0045
3260.00,0.0044
3259.00,0.0044
3258.00,0.0044
3257.00,0.0043
3256.00,0.0043
3255.00,0.0043
3254.00,0.0042
3253.00,0.0042
3252.00,0.0042
3251.00,0.0042
3250.00,0.0042
3249.00,0.0042
3248.00,0.0042
3247.00,0.0041
3246.00,0.0042
3245.00,0.0042
3244.00,0.0042
3243.00,0.0042
3242.00,0.0042
3241.00,0.0042
3240.00,0.0042
3239.00,0.0042
3238.00,0.0042
3237.00,0.0042
3236.00,0.0042
3235.00,0.0042
3234.00,0.0042
3233.00,0.0042
3232.00,0.0042
3231.00,0.0043
3230.00,0.0043
3229.00,0.0043
3228.00,0.0043
3227.00,0.0043
3226.00,0.0043
3225.00,0.0043
3224.00,0.0043
3223.00,0.0043
3222.00,0.0043
3221.00,0.0043
3220.00,0.0043
3219.00,0.0043
3218.00,0.0044
3217.00,0.0044
3216.00,0.0045
3215.00,0.0045
3214.00,0.0045
3213.00,0.0045
3212.00,0.0046
3211.00,0.0046
3210.00,0.0045
3209.00,0.0045
3208.00,0.0045
3207.00,0.0045
3206.00,0.0045
3205.00,0.0045
3204.00,0.0045
3203.00,0.0046
3202.00,0.0046
3201.00,0.0046
3200.00,0.0046
3199.00,0.0046
3198.00,0.0046
3197.00,0.0046
3196.00,0.0046
3195.00,0.0046
3194.00,0.0046
3193.00,0.0046
3192.00,0.0046
3191.00,0.0046
3190.00,0.0046
3189.00,0.0046
3188.00,0.0046
3187.00,0.0046
3186.00,0.0045
3185.00,0.0045
3184.00,0.0044
3183.00,0.0044
3182.00,0.0044
3181.00,0.0044
3180.00,0.0044
3179.00,0.0043
3178.00,0.0043
3177.00,0.0042
3176.00,0.0042
3175.00,0.0041
3174.00,0.0041
3173.00,0.0041
3172.00,0.0040
3171.00,0.0040
3170.00,0.0040
3169.00,0.0040
3168.00,0.0040
3167.00,0.0040
3166.00,0.0040
3165.00,0.0040
3164.00,0.0040
3163.00,0.0039
3162.00,0.0039
3161.00,0.0039
3160.00,0.0039
3159.00,0.0039
3158.00,0.0038
3157.00,0.0038
3156.00,0.0038
3155.00,0.0039
3154.00,0.0039
3153.00,0.0039
3152.00,0.0040
3151.00,0.0039
3150.00,0.0039
3149.00,0.0039
3148.00,0.0039
3147.00,0.0039
3146.00,0.0038
3145.00,0.0038
3144.00,0.0038
3143.00,0.0037
3142.00,0.0037
3141.00,0.0037
3140.00,0.0037
3139.00,0.0037
3138.00,0.0037
3137.00,0.0037
3136.00,0.0037
3135.00,0.0036
3134.00,0.0036
3133.00,0.0036
3132.00,0.0035
3131.00,0.0035
3130.00,0.0035
3129.00,0.0035
3128.00,0.0034
3127.00,0.0034
3126.00,0.0034
3125.00,0.0034
3124.00,0.0033
3123.00,0.0033
3122.00,0.0032
3121.00,0.0032
3120.00,0.0032
3119.00,0.0032
3118.00,0.0032
3117.00,0.0032
3116.00,0.0031
3115.00,0.0031
3114.00,0.0031
3113.00,0.0031
3112.00,0.0031
3111.00,0.0031
3110.00,0.0031
3109.00,0.0031
3108.00,0.0031
3107.00,0.0031
3106.00,0.0031
3105.00,0.0031
3104.00,0.0031
3103.00,0.0030
3102.00,0.0030
3101.00,0.0030
3100.00,0.0030
3099.00,0.0030
3098.00,0.0030
3097.00,0.0030
3096.00,0.0030
3095.00,0.0029
3094.00,0.0029
3093.00,0.0029
3092.00,0.0029
3091.00,0.0029
3090.00,0.0029
3089.00,0.0029
3088.00,0.0029
3087.00,0.0029
3086.00,0.0029
3085.00,0.0029
3084.00,0.0028
3083.00,0.0028
3082.00,0.0028
3081.00,0.0028
3080.00,0.0028
3079.00,0.0028
3078.00,0.0028
3077.00,0.0028
3076.00,0.0028
3075.00,0.0029
3074.00,0.0029
3073.00,0.0029
3072.00,0.0029
3071.00,0.0029
3070.00,0.0029
3069.00,0.0029
3068.00,0.0029
3067.00,0.0029
3066.00,0.0030
3065.00,0.0030
3064.00,0.0031
3063.00,0.0031
3062.00,0.0031
3061.00,0.0031
3060.00,0.0030
3059.00,0.0030
3058.00,0.0030
3057.00,0.0030
3056.00,0.0030
3055.00,0.0031
3054.00,0.0031
3053.00,0.0032
3052.00,0.0032
3051.00,0.0032
3050.00,0.0032
3049.00,0.0033
3048.00,0.0033
3047.00,0.0033
3046.00,0.0033
3045.00,0.0033
3044.00,0.0033
3043.00,0.0034
3042.00,0.0034
3041.00,0.0035
3040.00,0.0035
3039.00,0.0035
3038.00,0.0035
3037.00,0.0035
3036.00,0.0036
3035.00,0.0036
3034.00,0.0037
3033.00,0.0037
3032.00,0.0038
3031.00,0.0038
3030.00,0.0039
3029.00,0.0039
3028.00,0.0039
3027.00,0.0039
3026.00,0.0040
3025.00,0.0040
3024.00,0.0040
3023.00,0.0041
3022.00,0.0042
3021.00,0.0043
3020.00,0.0044
3019.00,0.0045
3018.00,0.0046
3017.00,0.0047
3016.00,0.0048
3015.00,0.0050
3014.00,0.0051
3013.00,0.0052
3012.00,0.0053
3011.00,0.0054
3010.00,0.0055
3009.00,0.0057
3008.00,0.0058
3007.00,0.0060
3006.00,0.0062
3005.00,0.0064
3004.00,0.0066
3003.00,0.0069
3002.00,0.0071
3001.00,0.0074
3000.00,0.0076
2999.00,0.0079
2998.00,0.0082
2997.00,0.0085
2996.00,0.0089
2995.00,0.0093
2994.00,0.0098
2993.00,0.0103
2992.00,0.0108
2991.00,0.0114
2990.00,0.0120
2989.00,0.0127
2988.00,0.0135
2987.00,0.0144
2986.00,0.0154
2985.00,0.0165
2984.00,0.0178
2983.00,0.0192
2982.00,0.0208
2981.00,0.0225
2980.00,0.0243
2979.00,0.0265
2978.00,0.0289
2977.00,0.0317
2976.00,0.0349
2975.00,0.0386
2974.00,0.0427
2973.00,0.0475
2972.00,0.0528
2971.00,0.0588
2970.00,0.0654
2969.00,0.0727
2968.00,0.0805
2967.00,0.0889
2966.00,0.0977
2965.00,0.1066
2964.00,0.1152
2963.00,0.1232
2962.00,0.1302
2961.00,0.1359
2960.00,0.1405
2959.00,0.1443
2958.00,0.1479
2957.00,0.1519
2956.00,0.1568
2955.00,0.1629
2954.00,0.1699
2953.00,0.1775
2952.00,0.1847
2951.00,0.1903
2950.00,0.1933
2949.00,0.1927
2948.00,0.1879
2947.00,0.1791
2946.00,0.1674
2945.00,0.1541
2944.00,0.1408
2943.00,0.1288
2942.00,0.1190
2941.00,0.1119
2940.00,0.1074
2939.00,0.1053
2938.00,0.1054
2937.00,0.1074
2936.00,0.1111
2935.00,0.1164
2934.00,0.1232
2933.00,0.1313
2932.00,0.1405
2931.00,0.1507
2930.00,0.1615
2929.00,0.1726
2928.00,0.1837
2927.00,0.1945
2926.00,0.2048
2925.00,0.2146
2924.00,0.2242
2923.00,0.2335
2922.00,0.2427
2921.00,0.2516
2920.00,0.2594
2919.00,0.2655
2918.00,0.2688
2917.00,0.2686
2916.00,0.2648
2915.00,0.2578
2914.00,0.2485
2913.00,0.2381
2912.00,0.2275
2911.00,0.2174
2910.00,0.2082
2909.00,0.1997
2908.00,0.1918
2907.00,0.1844
2906.00,0.1771
2905.00,0.1699
2904.00,0.1627
2903.00,0.1555
2902.00,0.1484
2901.00,0.1414
2900.00,0.1348
2899.00,0.1285
2898.00,0.1227
2897.00,0.1175
2896.00,0.1130
2895.00,0.1092
2894.00,0.1061
2893.00,0.1037
2892.00,0.1020
2891.00,0.1009
2890.00,0.1004
2889.00,0.1004
2888.00,0.1008
2887.00,0.1016
2886.00,0.1027
2885.00,0.1041
2884.00,0.1060
2883.00,0.1084
2882.00,0.1113
2881.00,0.1144
2880.00,0.1175
2879.00,0.1202
2878.00,0.1220
2877.00,0.1227
2876.00,0.1225
2875.00,0.1217
2874.00,0.1208
2873.00,0.1205
2872.00,0.1209
2871.00,0.1223
2870.00,0.1243
2869.00,0.1264
2868.00,0.1279
2867.00,0.1278
2866.00,0.1254
2865.00,0.1203
2864.00,0.1128
2863.00,0.1037
2862.00,0.0941
2861.00,0.0850
2860.00,0.0772
2859.00,0.0710
2858.00,0.0662
2857.00,0.0628
2856.00,0.0604
2855.00,0.0591
2854.00,0.0585
2853.00,0.0586
2852.00,0.0593
2851.00,0.0605
2850.00,0.0624
2849.00,0.0649
2848.00,0.0680
2847.00,0.0719
2846.00,0.0766
2845.00,0.0821
2844.00,0.0885
2843.00,0.0955
2842.00,0.1027
2841.00,0.1096
2840.00,0.1153
2839.00,0.1190
2838.00,0.1198
2837.00,0.1173
2836.00,0.1115
2835.00,0.1029
2834.00,0.0926
2833.00,0.0817
2832.00,0.0712
2831.00,0.0620
2830.00,0.0542
2829.00,0.0478
2828.00,0.0426
2827.00,0.0384
2826.00,0.0351
2825.00,0.0323
2824.00,0.0300
2823.00,0.0281
2822.00,0.0264
2821.00,0.0250
2820.00,0.0238
2819.00,0.0227
2818.00,0.0218
2817.00,0.0210
2816.00,0.0202
2815.00,0.0196
2814.00,0.0190
2813.00,0.0184
2812.00,0.0179
2811.00,0.0174
2810.00,0.0169
2809.00,0.0164
2808.00,0.0158
2807.00,0.0152
2806.00,0.0145
2805.00,0.0138
2804.00,0.0132
2803.00,0.0126
2802.00,0.0121
2801.00,0.0117
2800.00,0.0113
2799.00,0.0110
2798.00,0.0107
2797.00,0.0105
2796.00,0.0102
2795.00,0.0100
2794.00,0.0097
2793.00,0.0095
2792.00,0.0092
2791.00,0.0089
2790.00,0.0086
2789.00,0.0083
2788.00,0.0080
2787.00,0.0077
2786.00,0.0074
2785.00,0.0072
2784.00,0.0070
2783.00,0.0068
2782.00,0.0066
2781.00,0.0065
2780.00,0.0063
2779.00,0.0062
2778.00,0.0060
2777.00,0.0059
2776.00,0.0058
2775.00,0.0057
2774.00,0.0056
2773.00,0.0055
2772.00,0.0055
2771.00,0.0054
2770.00,0.0054
2769.00,0.0054
2768.00,0.0054
2767.00,0.0054
2766.00,0.0053
2765.00,0.0053
2764.00,0.0052
2763.00,0.0052
2762.00,0.0052
2761.00,0.0051
2760.00,0.0051
2759.00,0.0051
2758.00,0.0051
2757.00,0.0050
2756.00,0.0050
2755.00,0.0050
2754.00,0.0050
2753.00,0.0049
2752.00,0.0049
2751.00,0.0049
2750.00,0.0048
2749.00,0.0049
2748.00,0.0049
2747.00,0.0049
2746.00,0.0050
2745.00,0.0050
2744.00,0.0051
2743.00,0.0052
2742.00,0.0053
2741.00,0.0055
2740.00,0.0056
2739.00,0.0058
2738.00,0.0059
2737.00,0.0061
2736.00,0.0062
2735.00,0.0063
2734.00,0.0065
2733.00,0.0066
2732.00,0.0068
2731.00,0.0070
2730.00,0.0073
2729.00,0.0075
2728.00,0.0078
2727.00,0.0081
2726.00,0.0083
2725.00,0.0086
2724.00,0.0087
2723.00,0.0088
2722.00,0.0087
2721.00,0.0085
2720.00,0.0082
2719.00,0.0079
2718.00,0.0075
2717.00,0.0072
2716.00,0.0069
2715.00,0.0066
2714.00,0.0064
2713.00,0.0061
2712.00,0.0059
2711.00,0.0057
2710.00,0.0055
2709.00,0.0053
2708.00,0.0052
2707.00,0.0050
2706.00,0.0049
2705.00,0.0048
2704.00,0.0047
2703.00,0.0046
2702.00,0.0045
2701.00,0.0045
2700.00,0.0044
2699.00,0.0044
2698.00,0.0043
2697.00,0.0043
2696.00,0.0042
2695.00,0.0043
2694.00,0.0043
2693.00,0.0043
2692.00,0.0043
2691.00,0.0043
2690.00,0.0043
2689.00,0.0043
2688.00,0.0043
2687.00,0.0043
2686.00,0.0043
2685.00,0.0043
2684.00,0.0043
2683.00,0.0043
2682.00,0.0044
2681.00,0.0044
2680.00,0.0044
2679.00,0.0044
2678.00,0.0044
2677.00,0.0044
2676.00,0.0043
2675.00,0.0043
2674.00,0.0042
2673.00,0.0042
2672.00,0.0042
2671.00,0.0043
2670.00,0.0043
2669.00,0.0043
2668.00,0.0042
2667.00,0.0042
2666.00,0.0043
2665.00,0.0043
2664.00,0.0044
2663.00,0.0045
2662.00,0.0045
2661.00,0.0046
2660.00,0.0046
2659.00,0.0046
2658.00,0.0046
2657.00,0.0045
2656.00,0.0045
2655.00,0.0044
2654.00,0.0044
2653.00,0.0043
2652.00,0.0043
2651.00,0.0042
2650.00,0.0042
2649.00,0.0042
2648.00,0.0042
2647.00,0.0042
2646.00,0.0041
2645.00,0.0041
2644.00,0.0040
2643.00,0.0039
2642.00,0.0039
2641.00,0.0038
2640.00,0.0037
2639.00,0.0037
2638.00,0.0036
2637.00,0.0036
2636.00,0.0036
2635.00,0.0036
2634.00,0.0036
2633.00,0.0036
2632.00,0.0037
2631.00,0.0037
2630.00,0.0037
2629.00,0.0037
2628.00,0.0037
2627.00,0.0037
2626.00,0.0037
2625.00,0.0037
2624.00,0.0038
2623.00,0.0038
2622.00,0.0039
2621.00,0.0040
2620.00,0.0040
2619.00,0.0040
2618.00,0.0040
2617.00,0.0040
2616.00,0.0039
2615.00,0.0039
2614.00,0.0038
2613.00,0.0038
2612.00,0.0037
2611.00,0.0037
2610.00,0.0036
2609.00,0.0036
2608.00,0.0035
2607.00,0.0034
2606.00,0.0034
2605.00,0.0033
2604.00,0.0032
2603.00,0.0032
2602.00,0.0031
2601.00,0.0030
2600.00,0.0031
2599.00,0.0031
2598.00,0.0032
2597.00,0.0032
2596.00,0.0032
2595.00,0.0031
2594.00,0.0031
2593.00,0.0031
2592.00,0.0032
2591.00,0.0033
2590.00,0.0034
2589.00,0.0035
2588.00,0.0036
2587.00,0.0037
2586.00,0.0038
2585.00,0.0038
2584.00,0.0039
2583.00,0.0039
2582.00,0.0040
2581.00,0.0040
2580.00,0.0039
2579.00,0.0038
2578.00,0.0037
2577.00,0.0036
2576.00,0.0034
2575.00,0.0033
2574.00,0.0031
2573.00,0.0030
2572.00,0.0028
2571.00,0.0027
2570.00,0.0027
2569.00,0.0026
2568.00,0.0026
2567.00,0.0026
2566.00,0.0026
2565.00,0.0025
2564.00,0.0023
2563.00,0.0022
2562.00,0.0022
2561.00,0.0022
2560.00,0.0023
2559.00,0.0023
2558.00,0.0024
2557.00,0.0024
2556.00,0.0023
2555.00,0.0023
2554.00,0.0022
2553.00,0.0021
2552.00,0.0021
2551.00,0.0021
2550.00,0.0021
2549.00,0.0021
2548.00,0.0020
2547.00,0.0020
2546.00,0.0020
2545.00,0.0019
2544.00,0.0018
2543.00,0.0017
2542.00,0.0016
2541.00,0.0016
2540.00,0.0016
2539.00,0.0016
2538.00,0.0016
2537.00,0.0016
2536.00,0.0016
2535.00,0.0016
2534.00,0.0015
2533.00,0.0014
2532.00,0.0014
2531.00,0.0013
2530.00,0.0013
2529.00,0.0013
2528.00,0.0013
2527.00,0.0013
2526.00,0.0013
2525.00,0.0013
2524.00,0.0014
2523.00,0.0014
2522.00,0.0014
2521.00,0.0014
2520.00,0.0013
2519.00,0.0012
2518.00,0.0012
2517.00,0.0011
2516.00,0.0011
2515.00,0.0011
2514.00,0.0011
2513.00,0.0011
2512.00,0.0011
2511.00,0.0010
2510.00,0.0010
2509.00,0.0010
2508.00,0.0010
2507.00,0.0010
2506.00,0.0010
2505.00,0.0010
2504.00,0.0010
2503.00,0.0010
2502.00,0.0010
2501.00,0.0010
2500.00,0.0010
2499.00,0.0010
2498.00,0.0010
2497.00,0.0011
2496.00,0.0011
2495.00,0.0011
2494.00,0.0011
2493.00,0.0011
2492.00,0.0011
2491.00,0.0011
2490.00,0.0011
2489.00,0.0010
2488.00,0.0009
2487.00,0.0009
2486.00,0.0009
2485.00,0.0010
2484.00,0.0010
2483.00,0.0010
2482.00,0.0011
2481.00,0.0010
2480.00,0.0011
2479.00,0.0010
2478.00,0.0010
2477.00,0.0010
2476.00,0.0009
2475.00,0.0008
2474.00,0.0008
2473.00,0.0009
2472.00,0.0009
2471.00,0.0009
2470.00,0.0009
2469.00,0.0008
2468.00,0.0008
2467.00,0.0008
2466.00,0.0008
2465.00,0.0009
2464.00,0.0009
2463.00,0.0010
2462.00,0.0010
2461.00,0.0010
2460.00,0.0011
2459.00,0.0011
2458.00,0.0012
2457.00,0.0012
2456.00,0.0012
2455.00,0.0011
2454.00,0.0011
2453.00,0.0011
2452.00,0.0011
2451.00,0.0011
2450.00,0.0011
2449.00,0.0011
2448.00,0.0011
2447.00,0.0011
2446.00,0.0010
2445.00,0.0010
2444.00,0.0010
2443.00,0.0010
2442.00,0.0010
2441.00,0.0010
2440.00,0.0009
2439.00,0.0009
2438.00,0.0009
2437.00,0.0009
2436.00,0.0010
2435.00,0.0011
2434.00,0.0012
2433.00,0.0013
2432.00,0.0012
2431.00,0.0012
2430.00,0.0011
2429.00,0.0011
2428.00,0.0012
2427.00,0.0012
2426.00,0.0012
2425.00,0.0012
2424.00,0.0011
2423.00,0.0010
2422.00,0.0010
2421.00,0.0009
2420.00,0.0010
2419.00,0.0010
2418.00,0.0011
2417.00,0.0011
2416.00,0.0010
2415.00,0.0010
2414.00,0.0010
2413.00,0.0010
2412.00,0.0010
2411.00,0.0010
2410.00,0.0010
2409.00,0.0010
2408.00,0.0010
2407.00,0.0009
2406.00,0.0009
2405.00,0.0009
2404.00,0.0009
2403.00,0.0009
2402.00,0.0009
2401.00,0.0009
2400.00,0.0008
2399.00,0.0008
2398.00,0.0008
2397.00,0.0008
2396.00,0.0008
2395.00,0.0007
2394.00,0.0007
2393.00,0.0007
2392.00,0.0007
2391.00,0.0007
2390.00,0.0007
2389.00,0.0008
2388.00,0.0008
2387.00,0.0008
2386.00,0.0007
2385.00,0.0007
2384.00,0.0006
2383.00,0.0006
2382.00,0.0005
2381.00,0.0004
2380.00,0.0003
2379.00,0.0003
2378.00,0.0003
2377.00,0.0003
2376.00,0.0004
2375.00,0.0005
2374.00,0.0005
2373.00,0.0005
2372.00,0.0005
2371.00,0.0005
2370.00,0.0005
2369.00,0.0005
2368.00,0.0004
2367.00,0.0004
2366.00,0.0004
2365.00,0.0004
2364.00,0.0004
2363.00,0.0004
2362.00,0.0005
2361.00,0.0006
2360.00,0.0007
2359.00,0.0007
2358.00,0.0007
2357.00,0.0007
2356.00,0.0007
2355.00,0.0006
2354.00,0.0006
2353.00,0.0004
2352.00,0.0004
2351.00,0.0004
2350.00,0.0005
2349.00,0.0006
2348.00,0.0007
2347.00,0.0008
2346.00,0.0007
2345.00,0.0007
2344.00,0.0007
2343.00,0.0007
2342.00,0.0008
2341.00,0.0009
2340.00,0.0009
2339.00,0.0009
2338.00,0.0008
2337.00,0.0008
2336.00,0.0008
2335.00,0.0008
2334.00,0.0008
2333.00,0.0007
2332.00,0.0006
2331.00,0.0005
2330.00,0.0005
2329.00,0.0005
2328.00,0.0008
2327.00,0.0011
2326.00,0.0015
2325.00,0.0019
2324.00,0.0020
2323.00,0.0018
2322.00,0.0016
2321.00,0.0014
2320.00,0.0013
2319.00,0.0012
2318.00,0.0012
2317.00,0.0011
2316.00,0.0011
2315.00,0.0010
2314.00,0.0010
2313.00,0.0009
2312.00,0.0008
2311.00,0.0008
2310.00,0.0007
2309.00,0.0006
2308.00,0.0006
2307.00,0.0007
2306.00,0.0007
2305.00,0.0007
2304.00,0.0008
2303.00,0.0008
2302.00,0.0008
2301.00,0.0009
2300.00,0.0010
2299.00,0.0011
2298.00,0.0011
2297.00,0.0011
2296.00,0.0012
2295.00,0.0012
2294.00,0.0013
2293.00,0.0014
2292.00,0.0015
2291.00,0.0016
2290.00,0.0016
2289.00,0.0017
2288.00,0.0017
2287.00,0.0018
2286.00,0.0018
2285.00,0.0018
2284.00,0.0017
2283.00,0.0017
2282.00,0.0016
2281.00,0.0016
2280.00,0.0015
2279.00,0.0014
2278.00,0.0014
2277.00,0.0013
2276.00,0.0013
2275.00,0.0013
2274.00,0.0013
2273.00,0.0014
2272.00,0.0013
2271.00,0.0013
2270.00,0.0013
2269.00,0.0014
2268.00,0.0015
2267.00,0.0015
2266.00,0.0014
2265.00,0.0013
2264.00,0.0011
2263.00,0.0010
2262.00,0.0010
2261.00,0.0011
2260.00,0.0011
2259.00,0.0011
2258.00,0.0012
2257.00,0.0011
2256.00,0.0011
2255.00,0.0010
2254.00,0.0008
2253.00,0.0008
2252.00,0.0008
2251.00,0.0009
2250.00,0.0010
2249.00,0.0010
2248.00,0.0010
2247.00,0.0010
2246.00,0.0010
2245.00,0.0010
2244.00,0.0010
2243.00,0.0009
2242.00,0.0008
2241.00,0.0007
2240.00,0.0007
2239.00,0.0007
2238.00,0.0008
2237.00,0.0009
2236.00,0.0009
2235.00,0.0009
2234.00,0.0009
2233.00,0.0008
2232.00,0.0008
2231.00,0.0008
2230.00,0.0009
2229.00,0.0010
2228.00,0.0011
2227.00,0.0010
2226.00,0.0008
2225.00,0.0007
2224.00,0.0007
2223.00,0.0007
2222.00,0.0007
2221.00,0.0007
2220.00,0.0007
2219.00,0.0007
2218.00,0.0006
2217.00,0.0005
2216.00,0.0004
2215.00,0.0004
2214.00,0.0004
2213.00,0.0006
2212.00,0.0007
2211.00,0.0008
2210.00,0.0009
2209.00,0.0010
2208.00,0.0011
2207.00,0.0013
2206.00,0.0013
2205.00,0.0012
2204.00,0.0010
2203.00,0.0008
2202.00,0.0006
2201.00,0.0005
2200.00,0.0004
2199.00,0.0003
2198.00,0.0002
2197.00,0.0003
2196.00,0.0005
2195.00,0.0008
2194.00,0.0010
2193.00,0.0012
2192.00,0.0014
2191.00,0.0014
2190.00,0.0014
2189.00,0.0014
2188.00,0.0014
2187.00,0.0013
2186.00,0.0012
2185.00,0.0011
2184.00,0.0009
2183.00,0.0009
2182.00,0.0010
2181.00,0.0012
2180.00,0.0013
2179.00,0.0012
2178.00,0.0009
2177.00,0.0005
2176.00,0.0004
2175.00,0.0004
2174.00,0.0006
2173.00,0.0009
2172.00,0.0010
2171.00,0.0012
2170.00,0.0014
2169.00,0.0018
2168.00,0.0021
2167.00,0.0023
2166.00,0.0022
2165.00,0.0021
2164.00,0.0019
2163.00,0.0019
2162.00,0.0018
2161.00,0.0014
2160.00,0.0004
2159.00,-0.0009
2158.00,-0.0018
2157.00,-0.0020
2156.00,-0.0018
2155.00,-0.0014
2154.00,-0.0011
2153.00,-0.0009
2152.00,-0.0008
2151.00,-0.0007
2150.00,-0.0008
2149.00,-0.0008
2148.00,-0.0009
2147.00,-0.0010
2146.00,-0.0012
2145.00,-0.0013
2144.00,-0.0013
2143.00,-0.0014
2142.00,-0.0014
2141.00,-0.0014
2140.00,-0.0013
2139.00,-0.0013
2138.00,-0.0013
2137.00,-0.0014
2136.00,-0.0016
2135.00,-0.0018
2134.00,-0.0019
2133.00,-0.0018
2132.00,-0.0016
2131.00,-0.0013
2130.00,-0.0012
2129.00,-0.0012
2128.00,-0.0011
2127.00,-0.0010
2126.00,-0.0009
2125.00,-0.0008
2124.00,-0.0007
2123.00,-0.0006
2122.00,-0.0004
2121.00,-0.0003
2120.00,-0.0002
2119.00,-0.0001
2118.00,0.0000
2117.00,0.0002
2116.00,0.0003
2115.00,0.0004
2114.00,0.0004
2113.00,0.0004
2112.00,0.0002
2111.00,0.0001
2110.00,-0.0000
2109.00,-0.0000
2108.00,0.0001
2107.00,0.0002
2106.00,0.0002
2105.00,0.0002
2104.00,0.0002
2103.00,0.0002
2102.00,0.0002
2101.00,0.0003
2100.00,0.0003
2099.00,0.0004
2098.00,0.0005
2097.00,0.0004
2096.00,0.0002
2095.00,-0.0001
2094.00,-0.0004
2093.00,-0.0005
2092.00,-0.0005
2091.00,-0.0004
2090.00,-0.0004
2089.00,-0.0003
2088.00,-0.0003
2087.00,-0.0002
2086.00,-0.0001
2085.00,0.0001
2084.00,0.0002
2083.00,0.0002
2082.00,0.0002
2081.00,0.0002
2080.00,0.0003
2079.00,0.0003
2078.00,0.0003
2077.00,0.0003
2076.00,0.0004
2075.00,0.0005
2074.00,0.0005
2073.00,0.0005
2072.00,0.0003
2071.00,0.0002
2070.00,-0.0000
2069.00,-0.0002
2068.00,-0.0002
2067.00,-0.0002
2066.00,-0.0002
2065.00,-0.0001
2064.00,-0.0001
2063.00,-0.0001
2062.00,-0.0001
2061.00,-0.0001
2060.00,-0.0001
2059.00,0.0001
2058.00,0.0002
2057.00,0.0003
2056.00,0.0003
2055.00,0.0003
2054.00,0.0004
2053.00,0.0006
2052.00,0.0010
2051.00,0.0012
2050.00,0.0012
2049.00,0.0010
2048.00,0.0007
2047.00,0.0005
2046.00,0.0005
2045.00,0.0005
2044.00,0.0003
2043.00,0.0001
2042.00,-0.0002
2041.00,-0.0004
2040.00,-0.0005
2039.00,-0.0006
2038.00,-0.0006
2037.00,-0.0007
2036.00,-0.0007
2035.00,-0.0008
2034.00,-0.0008
2033.00,-0.0005
2032.00,-0.0002
2031.00,-0.0000
2030.00,-0.0001
2029.00,-0.0004
2028.00,-0.0008
2027.00,-0.0010
2026.00,-0.0011
2025.00,-0.0009
2024.00,-0.0006
2023.00,-0.0005
2022.00,-0.0005
2021.00,-0.0005
2020.00,-0.0004
2019.00,-0.0003
2018.00,-0.0001
2017.00,0.0001
2016.00,0.0002
2015.00,-0.0000
2014.00,-0.0005
2013.00,-0.0008
2012.00,-0.0010
2011.00,-0.0010
2010.00,-0.0010
2009.00,-0.0012
2008.00,-0.0015
2007.00,-0.0018
2006.00,-0.0021
2005.00,-0.0022
2004.00,-0.0022
2003.00,-0.0020
2002.00,-0.0017
2001.00,-0.0014
2000.00,-0.0012
1999.00,-0.0011
1998.00,-0.0010
1997.00,-0.0011
1996.00,-0.0011
1995.00,-0.0012
1994.00,-0.0012
1993.00,-0.0012
1992.00,-0.0010
1991.00,-0.0008
1990.00,-0.0006
1989.00,-0.0004
1988.00,-0.0002
1987.00,-0.0002
1986.00,-0.0001
1985.00,-0.0001
1984.00,-0.0000
1983.00,0.0001
1982.00,0.0002
1981.00,0.0004
1980.00,0.0004
1979.00,0.0003
1978.00,0.0001
1977.00,-0.0003
1976.00,-0.0006
1975.00,-0.0010
1974.00,-0.0013
1973.00,-0.0016
1972.00,-0.0017
1971.00,-0.0017
1970.00,-0.0016
1969.00,-0.0015
1968.00,-0.0013
1967.00,-0.0012
1966.00,-0.0011
1965.00,-0.0010
1964.00,-0.0010
1963.00,-0.0011
1962.00,-0.0012
1961.00,-0.0012
1960.00,-0.0012
1959.00,-0.0012
1958.00,-0.0012
1957.00,-0.0013
1956.00,-0.0014
1955.00,-0.0014
1954.00,-0.0014
1953.00,-0.0013
1952.00,-0.0012
1951.00,-0.0012
1950.00,-0.0012
1949.00,-0.0012
1948.00,-0.0013
1947.00,-0.0014
1946.00,-0.0015
1945.00,-0.0015
1944.00,-0.0014
1943.00,-0.0013
1942.00,-0.0011
1941.00,-0.0011
1940.00,-0.0010
1939.00,-0.0010
1938.00,-0.0009
1937.00,-0.0009
1936.00,-0.0008
1935.00,-0.0008
1934.00,-0.0008
1933.00,-0.0007
1932.00,-0.0006
1931.00,-0.0006
1930.00,-0.0007
1929.00,-0.0008
1928.00,-0.0008
1927.00,-0.0008
1926.00,-0.0007
1925.00,-0.0006
1924.00,-0.0005
1923.00,-0.0005
1922.00,-0.0005
1921.00,-0.0005
1920.00,-0.0005
1919.00,-0.0004
1918.00,-0.0004
1917.00,-0.0002
1916.00,-0.0002
1915.00,-0.0002
1914.00,-0.0003
1913.00,-0.0004
1912.00,-0.0005
1911.00,-0.0005
1910.00,-0.0005
1909.00,-0.0004
1908.00,-0.0003
1907.00,-0.0003
1906.00,-0.0003
1905.00,-0.0002
1904.00,-0.0002
1903.00,-0.0001
1902.00,-0.0001
1901.00,-0.0002
1900.00,-0.0002
1899.00,-0.0002
1898.00,-0.0002
1897.00,-0.0002
1896.00,-0.0002
1895.00,-0.0002
1894.00,-0.0002
1893.00,-0.0002
1892.00,-0.0001
1891.00,-0.0001
1890.00,-0.0000
1889.00,-0.0001
1888.00,-0.0001
1887.00,-0.0002
1886.00,-0.0002
1885.00,-0.0002
1884.00,-0.0001
1883.00,0.0000
1882.00,0.0000
1881.00,-0.0000
1880.00,-0.0001
1879.00,-0.0002
1878.00,-0.0002
1877.00,-0.0002
1876.00,-0.0002
1875.00,-0.0001
1874.00,0.0000
1873.00,0.0001
1872.00,0.0001
1871.00,0.0001
1870.00,0.0000
1869.00,-0.0000
1868.00,-0.0001
1867.00,-0.0002
1866.00,-0.0002
1865.00,-0.0002
1864.00,-0.0002
1863.00,-0.0002
1862.00,-0.0002
1861.00,-0.0001
1860.00,-0.0001
1859.00,-0.0001
1858.00,-0.0001
1857.00,-0.0001
1856.00,-0.0002
1855.00,-0.0002
1854.00,-0.0001
1853.00,-0.0000
1852.00,0.0000
1851.00,0.0001
1850.00,0.0001
1849.00,0.0002
1848.00,0.0002
1847.00,0.0002
1846.00,0.0001
1845.00,0.0001
1844.00,0.0001
1843.00,0.0001
1842.00,0.0001
1841.00,0.0001
1840.00,0.0001
1839.00,0.0002
1838.00,0.0002
1837.00,0.0003
1836.00,0.0003
1835.00,0.0003
1834.00,0.0003
1833.00,0.0002
1832.00,0.0002
1831.00,0.0002
1830.00,0.0002
1829.00,0.0002
1828.00,0.0002
1827.00,0.0002
1826.00,0.0003
1825.00,0.0003
1824.00,0.0003
1823.00,0.0004
1822.00,0.0003
1821.00,0.0003
1820.00,0.0002
1819.00,0.0001
1818.00,0.0001
1817.00,0.0000
1816.00,0.0000
1815.00,0.0001
1814.00,0.0001
1813.00,0.0001
1812.00,0.0002
1811.00,0.0003
1810.00,0.0003
1809.00,0.0004
1808.00,0.0004
1807.00,0.0004
1806.00,0.0004
1805.00,0.0004
1804.00,0.0004
1803.00,0.0004
1802.00,0.0004
1801.00,0.0003
1800.00,0.0003
1799.00,0.0004
1798.00,0.0004
1797.00,0.0005
1796.00,0.0005
1795.00,0.0006
1794.00,0.0006
1793.00,0.0006
1792.00,0.0006
1791.00,0.0006
1790.00,0.0006
1789.00,0.0006
1788.00,0.0007
1787.00,0.0007
1786.00,0.0007
1785.00,0.0007
1784.00,0.0008
1783.00,0.0008
1782.00,0.0008
1781.00,0.0008
1780.00,0.0008
1779.00,0.0008
1778.00,0.0007
1777.00,0.0007
1776.00,0.0007
1775.00,0.0007
1774.00,0.0006
1773.00,0.0006
1772.00,0.0006
1771.00,0.0007
1770.00,0.0008
1769.00,0.0008
1768.00,0.0009
1767.00,0.0009
1766.00,0.0009
1765.00,0.0009
1764.00,0.0009
1763.00,0.0009
1762.00,0.0010
1761.00,0.0011
1760.00,0.0011
1759.00,0.0011
1758.00,0.0012
1757.00,0.0012
1756.00,0.0012
1755.00,0.0013
1754.00,0.0013
1753.00,0.0013
1752.00,0.0014
1751.00,0.0014
1750.00,0.0015
1749.00,0.0015
1748.00,0.0015
1747.00,0.0015
1746.00,0.0015
1745.00,0.0016
1744.00,0.0016
1743.00,0.0017
1742.00,0.0018
1741.00,0.0019
1740.00,0.0019
1739.00,0.0019
1738.00,0.0019
1737.00,0.0018
1736.00,0.0019
1735.00,0.0018
1734.00,0.0018
1733.00,0.0017
1732.00,0.0017
1731.00,0.0018
1730.00,0.0018
1729.00,0.0019
1728.00,0.0019
1727.00,0.0019
1726.00,0.0019
1725.00,0.0020
1724.00,0.0020
1723.00,0.0020
1722.00,0.0019
1721.00,0.0018
1720.00,0.0018
1719.00,0.0017
1718.00,0.0017
1717.00,0.0018
1716.00,0.0019
1715.00,0.0019
1714.00,0.0020
1713.00,0.0020
1712.00,0.0020
1711.00,0.0020
1710.00,0.0020
1709.00,0.0021
1708.00,0.0021
1707.00,0.0022
1706.00,0.0022
1705.00,0.0023
1704.00,0.0023
1703.00,0.0023
1702.00,0.0023
1701.00,0.0024
1700.00,0.0024
1699.00,0.0024
1698.00,0.0025
1697.00,0.0027
1696.00,0.0028
1695.00,0.0028
1694.00,0.0028
1693.00,0.0028
1692.00,0.0028
1691.00,0.0028
1690.00,0.0029
1689.00,0.0029
1688.00,0.0030
1687.00,0.0030
1686.00,0.0030
1685.00,0.0031
1684.00,0.0031
1683.00,0.0031
1682.00,0.0031
1681.00,0.0032
1680.00,0.0034
1679.00,0.0035
1678.00,0.0035
1677.00,0.0035
1676.00,0.0036
1675.00,0.0036
1674.00,0.0036
1673.00,0.0037
1672.00,0.0038
1671.00,0.0039
1670.00,0.0040
1669.00,0.0040
1668.00,0.0041
1667.00,0.0040
1666.00,0.0040
1665.00,0.0041
1664.00,0.0041
1663.00,0.0042
1662.00,0.0043
1661.00,0.0043
1660.00,0.0044
1659.00,0.0044
1658.00,0.0045
1657.00,0.0046
1656.00,0.0047
1655.00,0.0047
1654.00,0.0047
1653.00,0.0048
1652.00,0.0049
1651.00,0.0050
1650.00,0.0051
1649.00,0.0053
1648.00,0.0056
1647.00,0.0058
1646.00,0.0059
1645.00,0.0058
1644.00,0.0058
1643.00,0.0058
1642.00,0.0058
1641.00,0.0058
1640.00,0.0058
1639.00,0.0058
1638.00,0.0057
1637.00,0.0057
1636.00,0.0058
1635.00,0.0057
1634.00,0.0057
1633.00,0.0057
1632.00,0.0057
1631.00,0.0056
1630.00,0.0056
1629.00,0.0056
1628.00,0.0056
1627.00,0.0057
1626.00,0.0056
1625.00,0.0056
1624.00,0.0056
1623.00,0.0055
1622.00,0.0054
1621.00,0.0053
1620.00,0.0053
1619.00,0.0052
1618.00,0.0051
1617.00,0.0050
1616.00,0.0050
1615.00,0.0051
1614.00,0.0050
1613.00,0.0050
1612.00,0.0050
1611.00,0.0050
1610.00,0.0051
1609.00,0.0051
1608.00,0.0052
1607.00,0.0052
1606.00,0.0051
1605.00,0.0051
1604.00,0.0050
1603.00,0.0050
1602.00,0.0049
1601.00,0.0049
1600.00,0.0049
1599.00,0.0049
1598.00,0.0049
1597.00,0.0049
1596.00,0.0049
1595.00,0.0049
1594.00,0.0049
1593.00,0.0048
1592.00,0.0048
1591.00,0.0048
1590.00,0.0048
1589.00,0.0049
1588.00,0.0049
1587.00,0.0049
1586.00,0.0050
1585.00,0.0051
1584.00,0.0052
1583.00,0.0052
1582.00,0.0053
1581.00,0.0055
1580.00,0.0057
1579.00,0.0058
1578.00,0.0058
1577.00,0.0058
1576.00,0.0058
1575.00,0.0058
1574.00,0.0057
1573.00,0.0057
1572.00,0.0057
1571.00,0.0057
1570.00,0.0055
1569.00,0.0054
1568.00,0.0053
1567.00,0.0053
1566.00,0.0053
1565.00,0.0053
1564.00,0.0053
1563.00,0.0052
1562.00,0.0053
1561.00,0.0053
1560.00,0.0055
1559.00,0.0056
1558.00,0.0056
1557.00,0.0056
1556.00,0.0057
1555.00,0.0057
1554.00,0.0058
1553.00,0.0058
1552.00,0.0059
1551.00,0.0061
1550.00,0.0062
1549.00,0.0063
1548.00,0.0064
1547.00,0.0065
1546.00,0.0066
1545.00,0.0067
1544.00,0.0069
1543.00,0.0069
1542.00,0.0069
1541.00,0.0069
1540.00,0.0069
1539.00,0.0067
1538.00,0.0066
1537.00,0.0066
1536.00,0.0065
1535.00,0.0064
1534.00,0.0061
1533.00,0.0059
1532.00,0.0058
1531.00,0.0057
1530.00,0.0056
1529.00,0.0056
1528.00,0.0055
1527.00,0.0055
1526.00,0.0054
1525.00,0.0053
1524.00,0.0053
1523.00,0.0052
1522.00,0.0051
1521.00,0.0051
1520.00,0.0051
1519.00,0.0051
1518.00,0.0051
1517.00,0.0052
1516.00,0.0053
1515.00,0.0053
1514.00,0.0053
1513.00,0.0053
1512.00,0.0054
1511.00,0.0055
1510.00,0.0055
1509.00,0.0056
1508.00,0.0057
1507.00,0.0058
1506.00,0.0058
1505.00,0.0059
1504.00,0.0061
1503.00,0.0063
1502.00,0.0065
1501.00,0.0068
1500.00,0.0071
1499.00,0.0074
1498.00,0.0076
1497.00,0.0081
1496.00,0.0085
1495.00,0.0089
1494.00,0.0092
1493.00,0.0095
1492.00,0.0099
1491.00,0.0102
1490.00,0.0105
1489.00,0.0109
1488.00,0.0114
1487.00,0.0119
1486.00,0.0123
1485.00,0.0129
1484.00,0.0136
1483.00,0.0143
1482.00,0.0151
1481.00,0.0162
1480.00,0.0173
1479.00,0.0185
1478.00,0.0199
1477.00,0.0217
1476.00,0.0239
1475.00,0.0264
1474.00,0.0299
1473.00,0.0352
1472.00,0.0417
1471.00,0.0479
1470.00,0.0540
1469.00,0.0604
1468.00,0.0673
1467.00,0.0749
1466.00,0.0838
1465.00,0.0936
1464.00,0.1024
1463.00,0.1086
1462.00,0.1126
1461.00,0.1155
1460.00,0.1175
1459.00,0.1189
1458.00,0.1203
1457.00,0.1217
1456.00,0.1221
1455.00,0.1216
1454.00,0.1205
1453.00,0.1188
1452.00,0.1161
1451.00,0.1121
1450.00,0.1067
1449.00,0.0991
1448.00,0.0897
1447.00,0.0797
1446.00,0.0709
1445.00,0.0634
1444.00,0.0570
1443.00,0.0519
1442.00,0.0481
1441.00,0.0456
1440.00,0.0442
1439.00,0.0437
1438.00,0.0441
1437.00,0.0444
1436.00,0.0435
1435.00,0.0409
1434.00,0.0369
1433.00,0.0322
1432.00,0.0274
1431.00,0.0232
1430.00,0.0200
1429.00,0.0177
1428.00,0.0162
1427.00,0.0153
1426.00,0.0147
1425.00,0.0142
1424.00,0.0138
1423.00,0.0135
1422.00,0.0134
1421.00,0.0132
1420.00,0.0130
1419.00,0.0127
1418.00,0.0125
1417.00,0.0122
1416.00,0.0120
1415.00,0.0119
1414.00,0.0118
1413.00,0.0116
1412.00,0.0115
1411.00,0.0114
1410.00,0.0113
1409.00,0.0112
1408.00,0.0111
1407.00,0.0111
1406.00,0.0112
1405.00,0.0112
1404.00,0.0112
1403.00,0.0113
1402.00,0.0115
1401.00,0.0116
1400.00,0.0118
1399.00,0.0120
1398.00,0.0122
1397.00,0.0124
1396.00,0.0125
1395.00,0.0129
1394.00,0.0134
1393.00,0.0140
1392.00,0.0146
1391.00,0.0156
1390.00,0.0168
1389.00,0.0185
1388.00,0.0211
1387.00,0.0250
1386.00,0.0301
1385.00,0.0365
1384.00,0.0449
1383.00,0.0562
1382.00,0.0711
1381.00,0.0903
1380.00,0.1144
1379.00,0.1424
1378.00,0.1704
1377.00,0.1922
1376.00,0.2013
1375.00,0.1934
1374.00,0.1704
1373.00,0.1411
1372.00,0.1137
1371.00,0.0907
1370.00,0.0724
1369.00,0.0585
1368.00,0.0489
1367.00,0.0431
1366.00,0.0400
1365.00,0.0387
1364.00,0.0390
1363.00,0.0406
1362.00,0.0430
1361.00,0.0455
1360.00,0.0473
1359.00,0.0478
1358.00,0.0466
1357.00,0.0437
1356.00,0.0397
1355.00,0.0351
1354.00,0.0306
1353.00,0.0268
1352.00,0.0238
1351.00,0.0214
1350.00,0.0194
1349.00,0.0179
1348.00,0.0167
1347.00,0.0157
1346.00,0.0149
1345.00,0.0143
1344.00,0.0138
1343.00,0.0134
1342.00,0.0130
1341.00,0.0127
1340.00,0.0125
1339.00,0.0123
1338.00,0.0121
1337.00,0.0120
1336.00,0.0121
1335.00,0.0123
1334.00,0.0126
1333.00,0.0130
1332.00,0.0135
1331.00,0.0138
1330.00,0.0140
1329.00,0.0138
1328.00,0.0134
1327.00,0.0128
1326.00,0.0121
1325.00,0.0115
1324.00,0.0108
1323.00,0.0103
1322.00,0.0099
1321.00,0.0096
1320.00,0.0093
1319.00,0.0090
1318.00,0.0088
1317.00,0.0086
1316.00,0.0084
1315.00,0.0083
1314.00,0.0082
1313.00,0.0082
1312.00,0.0083
1311.00,0.0086
1310.00,0.0090
1309.00,0.0095
1308.00,0.0104
1307.00,0.0114
1306.00,0.0125
1305.00,0.0132
1304.00,0.0135
1303.00,0.0134
1302.00,0.0130
1301.00,0.0127
1300.00,0.0126
1299.00,0.0126
1298.00,0.0127
1297.00,0.0128
1296.00,0.0127
1295.00,0.0125
1294.00,0.0122
1293.00,0.0117
1292.00,0.0111
1291.00,0.0106
1290.00,0.0101
1289.00,0.0097
1288.00,0.0093
1287.00,0.0090
1286.00,0.0088
1285.00,0.0086
1284.00,0.0084
1283.00,0.0082
1282.00,0.0081
1281.00,0.0079
1280.00,0.0078
1279.00,0.0077
1278.00,0.0077
1277.00,0.0076
1276.00,0.0076
1275.00,0.0076
1274.00,0.0076
1273.00,0.0077
1272.00,0.0078
1271.00,0.0079
1270.00,0.0080
1269.00,0.0082
1268.00,0.0084
1267.00,0.0086
1266.00,0.0089
1265.00,0.0092
1264.00,0.0096
1263.00,0.0099
1262.00,0.0102
1261.00,0.0106
1260.00,0.0110
1259.00,0.0116
1258.00,0.0122
1257.00,0.0126
1256.00,0.0128
1255.00,0.0126
1254.00,0.0120
1253.00,0.0113
1252.00,0.0105
1251.00,0.0098
1250.00,0.0094
1249.00,0.0091
1248.00,0.0088
1247.00,0.0087
1246.00,0.0086
1245.00,0.0085
1244.00,0.0084
1243.00,0.0084
1242.00,0.0084
1241.00,0.0083
1240.00,0.0082
1239.00,0.0081
1238.00,0.0080
1237.00,0.0079
1236.00,0.0078
1235.00,0.0077
1234.00,0.0077
1233.00,0.0077
1232.00,0.0077
1231.00,0.0077
1230.00,0.0078
1229.00,0.0078
1228.00,0.0080
1227.00,0.0081
1226.00,0.0084
1225.00,0.0087
1224.00,0.0090
1223.00,0.0093
1222.00,0.0096
1221.00,0.0098
1220.00,0.0100
1219.00,0.0102
1218.00,0.0101
1217.00,0.0099
1216.00,0.0096
1215.00,0.0093
1214.00,0.0089
1213.00,0.0086
1212.00,0.0083
1211.00,0.0080
1210.00,0.0078
1209.00,0.0076
1208.00,0.0075
1207.00,0.0074
1206.00,0.0074
1205.00,0.0073
1204.00,0.0072
1203.00,0.0071
1202.00,0.0070
1201.00,0.0070
1200.00,0.0070
1199.00,0.0070
1198.00,0.0071
1197.00,0.0070
1196.00,0.0070
1195.00,0.0069
1194.00,0.0069
1193.00,0.0069
1192.00,0.0069
1191.00,0.0070
1190.00,0.0070
1189.00,0.0070
1188.00,0.0070
1187.00,0.0071
1186.00,0.0072
1185.00,0.0072
1184.00,0.0073
1183.00,0.0075
1182.00,0.0077
1181.00,0.0079
1180.00,0.0082
1179.00,0.0087
1178.00,0.0093
1177.00,0.0100
1176.00,0.0111
1175.00,0.0124
1174.00,0.0143
1173.00,0.0165
1172.00,0.0193
1171.00,0.0222
1170.00,0.0251
1169.00,0.0274
1168.00,0.0288
1167.00,0.0292
1166.00,0.0288
1165.00,0.0276
1164.00,0.0262
1163.00,0.0248
1162.00,0.0235
1161.00,0.0223
1160.00,0.0215
1159.00,0.0208
1158.00,0.0202
1157.00,0.0198
1156.00,0.0196
1155.00,0.0194
1154.00,0.0193
1153.00,0.0191
1152.00,0.0187
1151.00,0.0181
1150.00,0.0173
1149.00,0.0164
1148.00,0.0155
1147.00,0.0146
1146.00,0.0138
1145.00,0.0130
1144.00,0.0124
1143.00,0.0119
1142.00,0.0115
1141.00,0.0110
1140.00,0.0104
1139.00,0.0100
1138.00,0.0096
1137.00,0.0093
1136.00,0.0091
1135.00,0.0090
1134.00,0.0089
1133.00,0.0087
1132.00,0.0087
1131.00,0.0087
1130.00,0.0087
1129.00,0.0088
1128.00,0.0088
1127.00,0.0089
1126.00,0.0090
1125.00,0.0091
1124.00,0.0091
1123.00,0.0092
1122.00,0.0092
1121.00,0.0093
1120.00,0.0094
1119.00,0.0095
1118.00,0.0097
1117.00,0.0099
1116.00,0.0100
1115.00,0.0102
1114.00,0.0103
1113.00,0.0105
1112.00,0.0107
1111.00,0.0110
1110.00,0.0113
1109.00,0.0118
1108.00,0.0124
1107.00,0.0131
1106.00,0.0138
1105.00,0.0145
1104.00,0.0150
1103.00,0.0153
1102.00,0.0154
1101.00,0.0152
1100.00,0.0147
1099.00,0.0141
1098.00,0.0135
1097.00,0.0128
1096.00,0.0122
1095.00,0.0117
1094.00,0.0113
1093.00,0.0110
1092.00,0.0108
1091.00,0.0105
1090.00,0.0102
1089.00,0.0099
1088.00,0.0097
1087.00,0.0096
1086.00,0.0094
1085.00,0.0093
1084.00,0.0092
1083.00,0.0092
1082.00,0.0091
1081.00,0.0090
1080.00,0.0088
1079.00,0.0087
1078.00,0.0086
1077.00,0.0085
1076.00,0.0084
1075.00,0.0084
1074.00,0.0083
1073.00,0.0083
1072.00,0.0084
1071.00,0.0084
1070.00,0.0084
1069.00,0.0084
1068.00,0.0084
1067.00,0.0084
1066.00,0.0083
1065.00,0.0083
1064.00,0.0082
1063.00,0.0082
1062.00,0.0082
1061.00,0.0082
1060.00,0.0083
1059.00,0.0083
1058.00,0.0083
1057.00,0.0083
1056.00,0.0083
1055.00,0.0084
1054.00,0.0085
1053.00,0.0085
1052.00,0.0086
1051.00,0.0088
1050.00,0.0090
1049.00,0.0092
1048.00,0.0095
1047.00,0.0097
1046.00,0.0099
1045.00,0.0100
1044.00,0.0101
1043.00,0.0100
1042.00,0.0100
1041.00,0.0099
1040.00,0.0098
1039.00,0.0097
1038.00,0.0096
1037.00,0.0095
1036.00,0.0094
1035.00,0.0094
1034.00,0.0094
1033.00,0.0094
1032.00,0.0094
1031.00,0.0094
1030.00,0.0094
1029.00,0.0094
1028.00,0.0094
1027.00,0.0094
1026.00,0.0094
1025.00,0.0094
1024.00,0.0093
1023.00,0.0094
1022.00,0.0094
1021.00,0.0095
1020.00,0.0095
1019.00,0.0095
1018.00,0.0096
1017.00,0.0097
1016.00,0.0098
1015.00,0.0100
1014.00,0.0102
1013.00,0.0105
1012.00,0.0108
1011.00,0.0110
1010.00,0.0113
1009.00,0.0117
1008.00,0.0122
1007.00,0.0129
1006.00,0.0137
1005.00,0.0147
1004.00,0.0160
1003.00,0.0178
1002.00,0.0202
1001.00,0.0231
1000.00,0.0262
999.00,0.0287
998.00,0.0300
997.00,0.0294
996.00,0.0271
995.00,0.0240
994.00,0.0206
993.00,0.0176
992.00,0.0152
991.00,0.0134
990.00,0.0122
989.00,0.0113
988.00,0.0108
987.00,0.0106
986.00,0.0106
985.00,0.0108
984.00,0.0113
983.00,0.0119
982.00,0.0129
981.00,0.0144
980.00,0.0164
979.00,0.0192
978.00,0.0226
977.00,0.0265
976.00,0.0306
975.00,0.0345
974.00,0.0372
973.00,0.0382
972.00,0.0369
971.00,0.0335
970.00,0.0290
969.00,0.0244
968.00,0.0205
967.00,0.0174
966.00,0.0152
965.00,0.0136
964.00,0.0123
963.00,0.0113
962.00,0.0105
961.00,0.0099
960.00,0.0094
959.00,0.0090
958.00,0.0088
957.00,0.0085
956.00,0.0083
955.00,0.0081
954.00,0.0080
953.00,0.0080
952.00,0.0079
951.00,0.0079
950.00,0.0078
949.00,0.0078
948.00,0.0079
947.00,0.0080
946.00,0.0083
945.00,0.0086
944.00,0.0089
943.00,0.0092
942.00,0.0095
941.00,0.0098
940.00,0.0098
939.00,0.0096
938.00,0.0092
937.00,0.0087
936.00,0.0082
935.00,0.0078
934.00,0.0074
933.00,0.0071
932.00,0.0069
931.00,0.0068
930.00,0.0067
929.00,0.0066
928.00,0.0065
927.00,0.0063
926.00,0.0061
925.00,0.0061
924.00,0.0061
923.00,0.0062
922.00,0.0064
921.00,0.0066
920.00,0.0068
919.00,0.0070
918.00,0.0072
917.00,0.0072
916.00,0.0073
915.00,0.0073
914.00,0.0074
913.00,0.0075
912.00,0.0075
911.00,0.0076
910.00,0.0077
909.00,0.0078
908.00,0.0081
907.00,0.0086
906.00,0.0093
905.00,0.0105
904.00,0.0120
903.00,0.0139
902.00,0.0160
901.00,0.0180
900.00,0.0194
899.00,0.0199
898.00,0.0191
897.00,0.0174
896.00,0.0153
895.00,0.0132
894.00,0.0116
893.00,0.0103
892.00,0.0093
891.00,0.0087
890.00,0.0082
889.00,0.0079
888.00,0.0076
887.00,0.0074
886.00,0.0073
885.00,0.0073
884.00,0.0072
883.00,0.0071
882.00,0.0070
881.00,0.0071
880.00,0.0071
879.00,0.0072
878.00,0.0072
877.00,0.0073
876.00,0.0073
875.00,0.0074
874.00,0.0075
873.00,0.0076
872.00,0.0076
871.00,0.0075
870.00,0.0074
869.00,0.0074
868.00,0.0075
867.00,0.0075
866.00,0.0076
865.00,0.0076
864.00,0.0077
863.00,0.0077
862.00,0.0078
861.00,0.0079
860.00,0.0081
859.00,0.0082
858.00,0.0083
857.00,0.0084
856.00,0.0086
855.00,0.0087
854.00,0.0088
853.00,0.0090
852.00,0.0092
851.00,0.0096
850.00,0.0102
849.00,0.0108
848.00,0.0118
847.00,0.0131
846.00,0.0151
845.00,0.0180
844.00,0.0217
843.00,0.0257
842.00,0.0285
841.00,0.0290
840.00,0.0269
839.00,0.0232
838.00,0.0194
837.00,0.0165
836.00,0.0147
835.00,0.0136
834.00,0.0129
833.00,0.0124
832.00,0.0121
831.00,0.0118
830.00,0.0117
829.00,0.0115
828.00,0.0113
827.00,0.0111
826.00,0.0110
825.00,0.0111
824.00,0.0111
823.00,0.0112
822.00,0.0112
821.00,0.0112
820.00,0.0113
819.00,0.0115
818.00,0.0120
817.00,0.0126
816.00,0.0135
815.00,0.0148
814.00,0.0163
813.00,0.0182
812.00,0.0201
811.00,0.0218
810.00,0.0230
809.00,0.0235
808.00,0.0232
807.00,0.0221
806.00,0.0205
805.00,0.0186
804.00,0.0170
803.00,0.0156
802.00,0.0145
801.00,0.0136
800.00,0.0129
799.00,0.0124
798.00,0.0118
797.00,0.0113
796.00,0.0107
795.00,0.0103
794.00,0.0099
793.00,0.0096
792.00,0.0093
791.00,0.0091
790.00,0.0088
789.00,0.0085
788.00,0.0082
787.00,0.0079
786.00,0.0076
785.00,0.0073
784.00,0.0070
783.00,0.0068
782.00,0.0066
781.00,0.0063
780.00,0.0061
779.00,0.0060
778.00,0.0061
777.00,0.0063
776.00,0.0065
775.00,0.0066
774.00,0.0067
773.00,0.0067
772.00,0.0069
771.00,0.0073
770.00,0.0077
769.00,0.0081
768.00,0.0082
767.00,0.0081
766.00,0.0080
765.00,0.0077
764.00,0.0074
763.00,0.0071
762.00,0.0067
761.00,0.0064
760.00,0.0061
759.00,0.0059
758.00,0.0058
757.00,0.0057
756.00,0.0057
755.00,0.0056
754.00,0.0055
753.00,0.0054
752.00,0.0055
751.00,0.0055
750.00,0.0056
749.00,0.0055
748.00,0.0056
747.00,0.0056
746.00,0.0058
745.00,0.0059
744.00,0.0061
743.00,0.0062
742.00,0.0063
741.00,0.0063
740.00,0.0063
739.00,0.0064
738.00,0.0065
737.00,0.0067
736.00,0.0069
735.00,0.0071
734.00,0.0072
733.00,0.0072
732.00,0.0072
731.00,0.0072
730.00,0.0071
729.00,0.0070
728.00,0.0068
727.00,0.0068
726.00,0.0068
725.00,0.0068
724.00,0.0068
723.00,0.0068
722.00,0.0068
721.00,0.0068
720.00,0.0067
719.00,0.0066
718.00,0.0065
717.00,0.0064
716.00,0.0061
715.00,0.0059
714.00,0.0059
713.00,0.0059
712.00,0.0060
711.00,0.0061
710.00,0.0061
709.00,0.0061
708.00,0.0061
707.00,0.0061
706.00,0.0060
705.00,0.0060
704.00,0.0060
703.00,0.0060
702.00,0.0061
701.00,0.0060
700.00,0.0059
699.00,0.0058
698.00,0.0056
697.00,0.0055
696.00,0.0055
695.00,0.0054
694.00,0.0054
693.00,0.0054
692.00,0.0055
691.00,0.0056
690.00,0.0056
689.00,0.0056
688.00,0.0055
687.00,0.0054
686.00,0.0053
685.00,0.0053
684.00,0.0053
683.00,0.0054
682.00,0.0054
681.00,0.0052
680.00,0.0050
679.00,0.0049
678.00,0.0051
677.00,0.0054
676.00,0.0058
675.00,0.0060
674.00,0.0060
673.00,0.0057
672.00,0.0054
671.00,0.0052
670.00,0.0053
669.00,0.0053
668.00,0.0054
667.00,0.0055
666.00,0.0054
665.00,0.0053
664.00,0.0053
663.00,0.0054
662.00,0.0055
661.00,0.0055
660.00,0.0054
659.00,0.0054
658.00,0.0055
657.00,0.0057
656.00,0.0058
655.00,0.0058
654.00,0.0057
653.00,0.0054
652.00,0.0053
651.00,0.0052
650.00,0.0053
649.00,0.0054
648.00,0.0056
647.00,0.0056
646.00,0.0055
645.00,0.0053
644.00,0.0052
643.00,0.0053
642.00,0.0055
641.00,0.0057
640.00,0.0057
639.00,0.0056
638.00,0.0055
637.00,0.0055
636.00,0.0055
635.00,0.0056
634.00,0.0056
633.00,0.0056
632.00,0.0054
631.00,0.0054
630.00,0.0054
629.00,0.0054
628.00,0.0054
627.00,0.0054
626.00,0.0053
625.00,0.0052
624.00,0.0051
623.00,0.0053
622.00,0.0056
621.00,0.0060
620.00,0.0062
619.00,0.0063
618.00,0.0064
617.00,0.0063
616.00,0.0061
615.00,0.0059
614.00,0.0058
613.00,0.0060
612.00,0.0063
611.00,0.0065
610.00,0.0065
609.00,0.0065
608.00,0.0064
607.00,0.0063
606.00,0.0061
605.00,0.0059
604.00,0.0057
603.00,0.0058
602.00,0.0059
601.00,0.0059
600.00,0.0059
599.00,0.0058
598.00,0.0059
597.00,0.0059
596.00,0.0059
595.00,0.0059
594.00,0.0059
593.00,0.0059
592.00,0.0059
591.00,0.0060
590.00,0.0062
589.00,0.0063
588.00,0.0066
587.00,0.0067
586.00,0.0068
585.00,0.0067
584.00,0.0066
583.00,0.0066
582.00,0.0065
581.00,0.0064
580.00,0.0063
579.00,0.0063
578.00,0.0064
577.00,0.0065
576.00,0.0065
575.00,0.0064
574.00,0.0063
573.00,0.0062
572.00,0.0061
571.00,0.0059
570.00,0.0056
569.00,0.0052
568.00,0.0049
567.00,0.0049
566.00,0.0052
565.00,0.0056
564.00,0.0061
563.00,0.0065
562.00,0.0066
561.00,0.0066
560.00,0.0067
559.00,0.0067
558.00,0.0067
557.00,0.0065
556.00,0.0063
555.00,0.0063
554.00,0.0064
553.00,0.0066
552.00,0.0067
551.00,0.0067
550.00,0.0066
549.00,0.0066
548.00,0.0066
547.00,0.0067
546.00,0.0068
545.00,0.0069
544.00,0.0071
543.00,0.0073
542.00,0.0077
541.00,0.0082
540.00,0.0087
539.00,0.0090
538.00,0.0090
537.00,0.0087
536.00,0.0083
535.00,0.0081
534.00,0.0082
533.00,0.0086
532.00,0.0090
531.00,0.0093
530.00,0.0095
529.00,0.0097
528.00,0.0096
527.00,0.0094
526.00,0.0091
525.00,0.0089
524.00,0.0088
523.00,0.0086
522.00,0.0084
521.00,0.0083
520.00,0.0082
519.00,0.0083
518.00,0.0082
517.00,0.0079
516.00,0.0075
515.00,0.0068
514.00,0.0062
513.00,0.0059
512.00,0.0062
511.00,0.0066
510.00,0.0067
509.00,0.0063
508.00,0.0056
507.00,0.0049
506.00,0.0044
505.00,0.0039
504.00,0.0037
503.00,0.0038
502.00,0.0044
501.00,0.0050
500.00,0.0052
499.00,0.0052
498.00,0.0053
497.00,0.0057
496.00,0.0060
495.00,0.0061
494.00,0.0060
493.00,0.0058
492.00,0.0057
491.00,0.0058
490.00,0.0059
489.00,0.0058
488.00,0.0054
487.00,0.0050
486.00,0.0051
485.00,0.0055
484.00,0.0058
483.00,0.0058
482.00,0.0058
481.00,0.0060
480.00,0.0065
479.00,0.0072
478.00,0.0079
477.00,0.0085
476.00,0.0087
475.00,0.0087
474.00,0.0087
473.00,0.0088
472.00,0.0090
471.00,0.0092
470.00,0.0093
469.00,0.0094
468.00,0.0097
467.00,0.0102
466.00,0.0108
465.00,0.0118
464.00,0.0130
463.00,0.0142
462.00,0.0150
461.00,0.0151
460.00,0.0150
459.00,0.0146
458.00,0.0138
457.00,0.0127
456.00,0.0120
455.00,0.0124
454.00,0.0133
453.00,0.0140
452.00,0.0137
451.00,0.0125
450.00,0.0107
