Created as New Dataset,Sample 186 By Administrator Date Wednesday, September 10 2025
cm-1,A
4000.00,0.0009
3999.00,0.0009
3998.00,0.0009
3997.00,0.0009
3996.00,0.0009
3995.00,0.0009
3994.00,0.0009
3993.00,0.0008
3992.00,0.0008
3991.00,0.0008
3990.00,0.0008
3989.00,0.0008
3988.00,0.0008
3987.00,0.0009
3986.00,0.0009
3985.00,0.0009
3984.00,0.0008
3983.00,0.0008
3982.00,0.0008
3981.00,0.0008
3980.00,0.0007
3979.00,0.0007
3978.00,0.0007
3977.00,0.0007
3976.00,0.0008
3975.00,0.0008
3974.00,0.0008
3973.00,0.0008
3972.00,0.0008
3971.00,0.0008
3970.00,0.0008
3969.00,0.0008
3968.00,0.0007
3967.00,0.0007
3966.00,0.0007
3965.00,0.0007
3964.00,0.0007
3963.00,0.0007
3962.00,0.0007
3961.00,0.0007
3960.00,0.0007
3959.00,0.0007
3958.00,0.0007
3957.00,0.0007
3956.00,0.0006
3955.00,0.0007
3954.00,0.0007
3953.00,0.0007
3952.00,0.0007
3951.00,0.0007
3950.00,0.0007
3949.00,0.0007
3948.00,0.0007
3947.00,0.0007
3946.00,0.0007
3945.00,0.0007
3944.00,0.0008
3943.00,0.0008
3942.00,0.0008
3941.00,0.0008
3940.00,0.0008
3939.00,0.0008
3938.00,0.0007
3937.00,0.0007
3936.00,0.0007
3935.00,0.0008
3934.00,0.0008
3933.00,0.0008
3932.00,0.0008
3931.00,0.0008
3930.00,0.0008
3929.00,0.0008
3928.00,0.0008
3927.00,0.0008
3926.00,0.0008
3925.00,0.0007
3924.00,0.0008
3923.00,0.0008
3922.00,0.0008
3921.00,0.0008
3920.00,0.0008
3919.00,0.0008
3918.00,0.0008
3917.00,0.0008
3916.00,0.0008
3915.00,0.0007
3914.00,0.0007
3913.00,0.0007
3912.00,0.0007
3911.00,0.0008
3910.00,0.0008
3909.00,0.0008
3908.00,0.0007
3907.00,0.0007
3906.00,0.0007
3905.00,0.0007
3904.00,0.0008
3903.00,0.0008
3902.00,0.0007
3901.00,0.0007
3900.00,0.0007
3899.00,0.0006
3898.00,0.0006
3897.00,0.0006
3896.00,0.0007
3895.00,0.0007
3894.00,0.0007
3893.00,0.0008
3892.00,0.0008
3891.00,0.0008
3890.00,0.0008
3889.00,0.0008
3888.00,0.0008
3887.00,0.0007
3886.00,0.0007
3885.00,0.0007
3884.00,0.0007
3883.00,0.0007
3882.00,0.0008
3881.00,0.0008
3880.00,0.0008
3879.00,0.0008
3878.00,0.0008
3877.00,0.0008
3876.00,0.0008
3875.00,0.0008
3874.00,0.0007
3873.00,0.0007
3872.00,0.0007
3871.00,0.0007
3870.00,0.0007
3869.00,0.0007
3868.00,0.0007
3867.00,0.0008
3866.00,0.0008
3865.00,0.0008
3864.00,0.0008
3863.00,0.0008
3862.00,0.0007
3861.00,0.0007
3860.00,0.0006
3859.00,0.0006
3858.00,0.0006
3857.00,0.0005
3856.00,0.0005
3855.00,0.0005
3854.00,0.0005
3853.00,0.0005
3852.00,0.0005
3851.00,0.0005
3850.00,0.0006
3849.00,0.0006
3848.00,0.0007
3847.00,0.0007
3846.00,0.0007
3845.00,0.0007
3844.00,0.0008
3843.00,0.0008
3842.00,0.0008
3841.00,0.0007
3840.00,0.0006
3839.00,0.0006
3838.00,0.0005
3837.00,0.0005
3836.00,0.0005
3835.00,0.0006
3834.00,0.0006
3833.00,0.0006
3832.00,0.0007
3831.00,0.0007
3830.00,0.0007
3829.00,0.0007
3828.00,0.0006
3827.00,0.0006
3826.00,0.0006
3825.00,0.0006
3824.00,0.0006
3823.00,0.0006
3822.00,0.0007
3821.00,0.0007
3820.00,0.0006
3819.00,0.0006
3818.00,0.0006
3817.00,0.0007
3816.00,0.0007
3815.00,0.0007
3814.00,0.0008
3813.00,0.0008
3812.00,0.0007
3811.00,0.0007
3810.00,0.0007
3809.00,0.0007
3808.00,0.0007
3807.00,0.0007
3806.00,0.0007
3805.00,0.0006
3804.00,0.0006
3803.00,0.0006
3802.00,0.0006
3801.00,0.0006
3800.00,0.0006
3799.00,0.0006
3798.00,0.0006
3797.00,0.0007
3796.00,0.0007
3795.00,0.0007
3794.00,0.0007
3793.00,0.0007
3792.00,0.0006
3791.00,0.0006
3790.00,0.0006
3789.00,0.0006
3788.00,0.0007
3787.00,0.0007
3786.00,0.0007
3785.00,0.0007
3784.00,0.0008
3783.00,0.0008
3782.00,0.0008
3781.00,0.0008
3780.00,0.0008
3779.00,0.0007
3778.00,0.0007
3777.00,0.0007
3776.00,0.0007
3775.00,0.0007
3774.00,0.0007
3773.00,0.0007
3772.00,0.0007
3771.00,0.0007
3770.00,0.0007
3769.00,0.0007
3768.00,0.0007
3767.00,0.0007
3766.00,0.0007
3765.00,0.0007
3764.00,0.0007
3763.00,0.0007
3762.00,0.0007
3761.00,0.0007
3760.00,0.0007
3759.00,0.0007
3758.00,0.0007
3757.00,0.0007
3756.00,0.0007
3755.00,0.0007
3754.00,0.0006
3753.00,0.0006
3752.00,0.0006
3751.00,0.0006
3750.00,0.0006
3749.00,0.0005
3748.00,0.0005
3747.00,0.0005
3746.00,0.0005
3745.00,0.0005
3744.00,0.0005
3743.00,0.0005
3742.00,0.0005
3741.00,0.0005
3740.00,0.0006
3739.00,0.0006
3738.00,0.0006
3737.00,0.0005
3736.00,0.0005
3735.00,0.0005
3734.00,0.0006
3733.00,0.0006
3732.00,0.0006
3731.00,0.0006
3730.00,0.0006
3729.00,0.0006
3728.00,0.0006
3727.00,0.0006
3726.00,0.0006
3725.00,0.0006
3724.00,0.0006
3723.00,0.0006
3722.00,0.0005
3721.00,0.0005
3720.00,0.0004
3719.00,0.0004
3718.00,0.0005
3717.00,0.0005
3716.00,0.0005
3715.00,0.0006
3714.00,0.0006
3713.00,0.0006
3712.00,0.0006
3711.00,0.0006
3710.00,0.0006
3709.00,0.0007
3708.00,0.0007
3707.00,0.0007
3706.00,0.0007
3705.00,0.0007
3704.00,0.0007
3703.00,0.0006
3702.00,0.0006
3701.00,0.0006
3700.00,0.0006
3699.00,0.0007
3698.00,0.0007
3697.00,0.0007
3696.00,0.0006
3695.00,0.0006
3694.00,0.0005
3693.00,0.0005
3692.00,0.0004
3691.00,0.0004
3690.00,0.0004
3689.00,0.0004
3688.00,0.0005
3687.00,0.0006
3686.00,0.0007
3685.00,0.0007
3684.00,0.0007
3683.00,0.0007
3682.00,0.0007
3681.00,0.0007
3680.00,0.0007
3679.00,0.0006
3678.00,0.0006
3677.00,0.0007
3676.00,0.0007
3675.00,0.0007
3674.00,0.0007
3673.00,0.0007
3672.00,0.0008
3671.00,0.0008
3670.00,0.0007
3669.00,0.0007
3668.00,0.0006
3667.00,0.0006
3666.00,0.0005
3665.00,0.0006
3664.00,0.0006
3663.00,0.0006
3662.00,0.0007
3661.00,0.0007
3660.00,0.0007
3659.00,0.0007
3658.00,0.0007
3657.00,0.0007
3656.00,0.0007
3655.00,0.0007
3654.00,0.0007
3653.00,0.0007
3652.00,0.0008
3651.00,0.0008
3650.00,0.0008
3649.00,0.0008
3648.00,0.0008
3647.00,0.0008
3646.00,0.0007
3645.00,0.0007
3644.00,0.0007
3643.00,0.0007
3642.00,0.0007
3641.00,0.0007
3640.00,0.0007
3639.00,0.0007
3638.00,0.0008
3637.00,0.0008
3636.00,0.0009
3635.00,0.0009
3634.00,0.0009
3633.00,0.0009
3632.00,0.0009
3631.00,0.0009
3630.00,0.0009
3629.00,0.0010
3628.00,0.0010
3627.00,0.0011
3626.00,0.0011
3625.00,0.0011
3624.00,0.0011
3623.00,0.0011
3622.00,0.0011
3621.00,0.0011
3620.00,0.0012
3619.00,0.0012
3618.00,0.0012
3617.00,0.0012
3616.00,0.0012
3615.00,0.0013
3614.00,0.0014
3613.00,0.0014
3612.00,0.0014
3611.00,0.0014
3610.00,0.0014
3609.00,0.0014
3608.00,0.0014
3607.00,0.0014
3606.00,0.0014
3605.00,0.0014
3604.00,0.0014
3603.00,0.0014
3602.00,0.0015
3601.00,0.0015
3600.00,0.0016
3599.00,0.0016
3598.00,0.0016
3597.00,0.0016
3596.00,0.0016
3595.00,0.0016
3594.00,0.0016
3593.00,0.0016
3592.00,0.0016
3591.00,0.0016
3590.00,0.0017
3589.00,0.0017
3588.00,0.0017
3587.00,0.0018
3586.00,0.0018
3585.00,0.0018
3584.00,0.0019
3583.00,0.0019
3582.00,0.0019
3581.00,0.0020
3580.00,0.0020
3579.00,0.0020
3578.00,0.0020
3577.00,0.0020
3576.00,0.0021
3575.00,0.0021
3574.00,0.0021
3573.00,0.0021
3572.00,0.0022
3571.00,0.0022
3570.00,0.0022
3569.00,0.0022
3568.00,0.0023
3567.00,0.0023
3566.00,0.0024
3565.00,0.0024
3564.00,0.0025
3563.00,0.0025
3562.00,0.0026
3561.00,0.0026
3560.00,0.0026
3559.00,0.0027
3558.00,0.0027
3557.00,0.0027
3556.00,0.0027
3555.00,0.0028
3554.00,0.0028
3553.00,0.0027
3552.00,0.0027
3551.00,0.0027
3550.00,0.0028
3549.00,0.0028
3548.00,0.0029
3547.00,0.0030
3546.00,0.0031
3545.00,0.0031
3544.00,0.0031
3543.00,0.0031
3542.00,0.0031
3541.00,0.0031
3540.00,0.0031
3539.00,0.0032
3538.00,0.0033
3537.00,0.0033
3536.00,0.0033
3535.00,0.0034
3534.00,0.0034
3533.00,0.0034
3532.00,0.0034
3531.00,0.0034
3530.00,0.0034
3529.00,0.0034
3528.00,0.0034
3527.00,0.0034
3526.00,0.0034
3525.00,0.0034
3524.00,0.0034
3523.00,0.0035
3522.00,0.0035
3521.00,0.0036
3520.00,0.0036
3519.00,0.0036
3518.00,0.0036
3517.00,0.0036
3516.00,0.0037
3515.00,0.0037
3514.00,0.0038
3513.00,0.0038
3512.00,0.0039
3511.00,0.0039
3510.00,0.0039
3509.00,0.0040
3508.00,0.0040
3507.00,0.0040
3506.00,0.0041
3505.00,0.0041
3504.00,0.0041
3503.00,0.0041
3502.00,0.0041
3501.00,0.0041
3500.00,0.0041
3499.00,0.0042
3498.00,0.0042
3497.00,0.0043
3496.00,0.0043
3495.00,0.0043
3494.00,0.0043
3493.00,0.0043
3492.00,0.0043
3491.00,0.0044
3490.00,0.0045
3489.00,0.0045
3488.00,0.0046
3487.00,0.0046
3486.00,0.0046
3485.00,0.0046
3484.00,0.0046
3483.00,0.0046
3482.00,0.0046
3481.00,0.0046
3480.00,0.0046
3479.00,0.0046
3478.00,0.0046
3477.00,0.0047
3476.00,0.0047
3475.00,0.0047
3474.00,0.0047
3473.00,0.0047
3472.00,0.0047
3471.00,0.0048
3470.00,0.0048
3469.00,0.0049
3468.00,0.0049
3467.00,0.0050
3466.00,0.0050
3465.00,0.0050
3464.00,0.0050
3463.00,0.0050
3462.00,0.0051
3461.00,0.0051
3460.00,0.0052
3459.00,0.0052
3458.00,0.0052
3457.00,0.0052
3456.00,0.0052
3455.00,0.0053
3454.00,0.0053
3453.00,0.0053
3452.00,0.0053
3451.00,0.0053
3450.00,0.0053
3449.00,0.0053
3448.00,0.0054
3447.00,0.0055
3446.00,0.0055
3445.00,0.0055
3444.00,0.0056
3443.00,0.0056
3442.00,0.0056
3441.00,0.0056
3440.00,0.0056
3439.00,0.0057
3438.00,0.0057
3437.00,0.0057
3436.00,0.0057
3435.00,0.0057
3434.00,0.0057
3433.00,0.0058
3432.00,0.0058
3431.00,0.0059
3430.00,0.0059
3429.00,0.0060
3428.00,0.0060
3427.00,0.0060
3426.00,0.0060
3425.00,0.0060
3424.00,0.0060
3423.00,0.0061
3422.00,0.0061
3421.00,0.0061
3420.00,0.0061
3419.00,0.0061
3418.00,0.0061
3417.00,0.0062
3416.00,0.0062
3415.00,0.0062
3414.00,0.0063
3413.00,0.0063
3412.00,0.0064
3411.00,0.0064
3410.00,0.0065
3409.00,0.0065
3408.00,0.0065
3407.00,0.0065
3406.00,0.0065
3405.00,0.0065
3404.00,0.0065
3403.00,0.0066
3402.00,0.0066
3401.00,0.0066
3400.00,0.0066
3399.00,0.0066
3398.00,0.0066
3397.00,0.0066
3396.00,0.0066
3395.00,0.0066
3394.00,0.0066
3393.00,0.0066
3392.00,0.0066
3391.00,0.0066
3390.00,0.0066
3389.00,0.0066
3388.00,0.0066
3387.00,0.0066
3386.00,0.0065
3385.00,0.0065
3384.00,0.0065
3383.00,0.0066
3382.00,0.0066
3381.00,0.0066
3380.00,0.0066
3379.00,0.0066
3378.00,0.0067
3377.00,0.0067
3376.00,0.0067
3375.00,0.0067
3374.00,0.0066
3373.00,0.0066
3372.00,0.0067
3371.00,0.0067
3370.00,0.0067
3369.00,0.0067
3368.00,0.0067
3367.00,0.0067
3366.00,0.0067
3365.00,0.0067
3364.00,0.0068
3363.00,0.0068
3362.00,0.0067
3361.00,0.0067
3360.00,0.0067
3359.00,0.0067
3358.00,0.0067
3357.00,0.0068
3356.00,0.0068
3355.00,0.0068
3354.00,0.0068
3353.00,0.0069
3352.00,0.0069
3351.00,0.0069
3350.00,0.0069
3349.00,0.0069
3348.00,0.0070
3347.00,0.0070
3346.00,0.0070
3345.00,0.0070
3344.00,0.0069
3343.00,0.0069
3342.00,0.0069
3341.00,0.0069
3340.00,0.0069
3339.00,0.0069
3338.00,0.0068
3337.00,0.0068
3336.00,0.0069
3335.00,0.0069
3334.00,0.0069
3333.00,0.0069
3332.00,0.0068
3331.00,0.0068
3330.00,0.0068
3329.00,0.0067
3328.00,0.0067
3327.00,0.0067
3326.00,0.0067
3325.00,0.0067
3324.00,0.0067
3323.00,0.0067
3322.00,0.0067
3321.00,0.0067
3320.00,0.0066
3319.00,0.0066
3318.00,0.0066
3317.00,0.0066
3316.00,0.0066
3315.00,0.0067
3314.00,0.0067
3313.00,0.0067
3312.00,0.0067
3311.00,0.0067
3310.00,0.0067
3309.00,0.0067
3308.00,0.0067
3307.00,0.0066
3306.00,0.0065
3305.00,0.0065
3304.00,0.0064
3303.00,0.0064
3302.00,0.0064
3301.00,0.0065
3300.00,0.0065
3299.00,0.0065
3298.00,0.0065
3297.00,0.0065
3296.00,0.0064
3295.00,0.0064
3294.00,0.0064
3293.00,0.0064
3292.00,0.0064
3291.00,0.0064
3290.00,0.0064
3289.00,0.0064
3288.00,0.0063
3287.00,0.0063
3286.00,0.0063
3285.00,0.0062
3284.00,0.0062
3283.00,0.0062
3282.00,0.0062
3281.00,0.0062
3280.00,0.0061
3279.00,0.0061
3278.00,0.0061
3277.00,0.0061
3276.00,0.0061
3275.00,0.0061
3274.00,0.0061
3273.00,0.0060
3272.00,0.0060
3271.00,0.0060
3270.00,0.0060
3269.00,0.0060
3268.00,0.0060
3267.00,0.0060
3266.00,0.0059
3265.00,0.0059
3264.00,0.0059
3263.00,0.0059
3262.00,0.0059
3261.00,0.0059
3260.00,0.0058
3259.00,0.0058
3258.00,0.0057
3257.00,0.0057
3256.00,0.0057
3255.00,0.0056
3254.00,0.0056
3253.00,0.0056
3252.00,0.0055
3251.00,0.0055
3250.00,0.0055
3249.00,0.0055
3248.00,0.0054
3247.00,0.0054
3246.00,0.0054
3245.00,0.0054
3244.00,0.0054
3243.00,0.0055
3242.00,0.0055
3241.00,0.0055
3240.00,0.0055
3239.00,0.0055
3238.00,0.0055
3237.00,0.0054
3236.00,0.0054
3235.00,0.0054
3234.00,0.0054
3233.00,0.0054
3232.00,0.0055
3231.00,0.0055
3230.00,0.0055
3229.00,0.0055
3228.00,0.0055
3227.00,0.0055
3226.00,0.0055
3225.00,0.0055
3224.00,0.0055
3223.00,0.0056
3222.00,0.0056
3221.00,0.0056
3220.00,0.0056
3219.00,0.0056
3218.00,0.0056
3217.00,0.0056
3216.00,0.0056
3215.00,0.0056
3214.00,0.0057
3213.00,0.0057
3212.00,0.0057
3211.00,0.0057
3210.00,0.0057
3209.00,0.0057
3208.00,0.0057
3207.00,0.0057
3206.00,0.0057
3205.00,0.0057
3204.00,0.0058
3203.00,0.0058
3202.00,0.0058
3201.00,0.0058
3200.00,0.0057
3199.00,0.0057
3198.00,0.0057
3197.00,0.0056
3196.00,0.0056
3195.00,0.0056
3194.00,0.0056
3193.00,0.0057
3192.00,0.0057
3191.00,0.0057
3190.00,0.0057
3189.00,0.0057
3188.00,0.0057
3187.00,0.0056
3186.00,0.0056
3185.00,0.0055
3184.00,0.0055
3183.00,0.0054
3182.00,0.0054
3181.00,0.0054
3180.00,0.0054
3179.00,0.0054
3178.00,0.0054
3177.00,0.0053
3176.00,0.0053
3175.00,0.0052
3174.00,0.0052
3173.00,0.0052
3172.00,0.0052
3171.00,0.0052
3170.00,0.0052
3169.00,0.0052
3168.00,0.0051
3167.00,0.0051
3166.00,0.0051
3165.00,0.0050
3164.00,0.0050
3163.00,0.0050
3162.00,0.0050
3161.00,0.0049
3160.00,0.0049
3159.00,0.0049
3158.00,0.0049
3157.00,0.0049
3156.00,0.0049
3155.00,0.0048
3154.00,0.0048
3153.00,0.0048
3152.00,0.0048
3151.00,0.0048
3150.00,0.0048
3149.00,0.0048
3148.00,0.0048
3147.00,0.0048
3146.00,0.0048
3145.00,0.0048
3144.00,0.0047
3143.00,0.0047
3142.00,0.0047
3141.00,0.0046
3140.00,0.0046
3139.00,0.0045
3138.00,0.0045
3137.00,0.0045
3136.00,0.0045
3135.00,0.0045
3134.00,0.0045
3133.00,0.0045
3132.00,0.0045
3131.00,0.0045
3130.00,0.0045
3129.00,0.0044
3128.00,0.0044
3127.00,0.0043
3126.00,0.0042
3125.00,0.0041
3124.00,0.0041
3123.00,0.0040
3122.00,0.0040
3121.00,0.0040
3120.00,0.0040
3119.00,0.0040
3118.00,0.0040
3117.00,0.0039
3116.00,0.0039
3115.00,0.0039
3114.00,0.0039
3113.00,0.0040
3112.00,0.0040
3111.00,0.0040
3110.00,0.0039
3109.00,0.0039
3108.00,0.0039
3107.00,0.0039
3106.00,0.0039
3105.00,0.0038
3104.00,0.0038
3103.00,0.0038
3102.00,0.0037
3101.00,0.0037
3100.00,0.0037
3099.00,0.0037
3098.00,0.0037
3097.00,0.0037
3096.00,0.0036
3095.00,0.0036
3094.00,0.0036
3093.00,0.0036
3092.00,0.0035
3091.00,0.0035
3090.00,0.0035
3089.00,0.0035
3088.00,0.0035
3087.00,0.0036
3086.00,0.0036
3085.00,0.0036
3084.00,0.0036
3083.00,0.0035
3082.00,0.0035
3081.00,0.0035
3080.00,0.0035
3079.00,0.0035
3078.00,0.0035
3077.00,0.0035
3076.00,0.0035
3075.00,0.0035
3074.00,0.0035
3073.00,0.0035
3072.00,0.0035
3071.00,0.0035
3070.00,0.0035
3069.00,0.0035
3068.00,0.0035
3067.00,0.0036
3066.00,0.0036
3065.00,0.0036
3064.00,0.0036
3063.00,0.0037
3062.00,0.0037
3061.00,0.0037
3060.00,0.0036
3059.00,0.0036
3058.00,0.0036
3057.00,0.0036
3056.00,0.0036
3055.00,0.0036
3054.00,0.0037
3053.00,0.0037
3052.00,0.0037
3051.00,0.0037
3050.00,0.0037
3049.00,0.0037
3048.00,0.0037
3047.00,0.0037
3046.00,0.0037
3045.00,0.0037
3044.00,0.0037
3043.00,0.0038
3042.00,0.0038
3041.00,0.0038
3040.00,0.0039
3039.00,0.0039
3038.00,0.0040
3037.00,0.0040
3036.00,0.0040
3035.00,0.0040
3034.00,0.0041
3033.00,0.0041
3032.00,0.0041
3031.00,0.0041
3030.00,0.0042
3029.00,0.0043
3028.00,0.0044
3027.00,0.0045
3026.00,0.0045
3025.00,0.0045
3024.00,0.0045
3023.00,0.0045
3022.00,0.0046
3021.00,0.0047
3020.00,0.0048
3019.00,0.0049
3018.00,0.0049
3017.00,0.0050
3016.00,0.0051
3015.00,0.0051
3014.00,0.0052
3013.00,0.0053
3012.00,0.0055
3011.00,0.0056
3010.00,0.0057
3009.00,0.0058
3008.00,0.0060
3007.00,0.0061
3006.00,0.0062
3005.00,0.0064
3004.00,0.0066
3003.00,0.0068
3002.00,0.0070
3001.00,0.0073
3000.00,0.0075
2999.00,0.0078
2998.00,0.0080
2997.00,0.0083
2996.00,0.0087
2995.00,0.0090
2994.00,0.0095
2993.00,0.0099
2992.00,0.0105
2991.00,0.0110
2990.00,0.0117
2989.00,0.0124
2988.00,0.0131
2987.00,0.0139
2986.00,0.0149
2985.00,0.0159
2984.00,0.0170
2983.00,0.0182
2982.00,0.0196
2981.00,0.0212
2980.00,0.0231
2979.00,0.0252
2978.00,0.0277
2977.00,0.0304
2976.00,0.0335
2975.00,0.0370
2974.00,0.0409
2973.00,0.0453
2972.00,0.0502
2971.00,0.0557
2970.00,0.0618
2969.00,0.0684
2968.00,0.0754
2967.00,0.0828
2966.00,0.0904
2965.00,0.0979
2964.00,0.1051
2963.00,0.1117
2962.00,0.1176
2961.00,0.1226
2960.00,0.1271
2959.00,0.1314
2958.00,0.1360
2957.00,0.1413
2956.00,0.1477
2955.00,0.1552
2954.00,0.1637
2953.00,0.1726
2952.00,0.1810
2951.00,0.1879
2950.00,0.1920
2949.00,0.1925
2948.00,0.1888
2947.00,0.1809
2946.00,0.1698
2945.00,0.1569
2944.00,0.1439
2943.00,0.1320
2942.00,0.1224
2941.00,0.1152
2940.00,0.1108
2939.00,0.1087
2938.00,0.1089
2937.00,0.1111
2936.00,0.1150
2935.00,0.1206
2934.00,0.1277
2933.00,0.1361
2932.00,0.1457
2931.00,0.1563
2930.00,0.1676
2929.00,0.1793
2928.00,0.1910
2927.00,0.2025
2926.00,0.2136
2925.00,0.2244
2924.00,0.2350
2923.00,0.2456
2922.00,0.2561
2921.00,0.2665
2920.00,0.2762
2919.00,0.2842
2918.00,0.2894
2917.00,0.2909
2916.00,0.2882
2915.00,0.2814
2914.00,0.2715
2913.00,0.2597
2912.00,0.2472
2911.00,0.2351
2910.00,0.2237
2909.00,0.2133
2908.00,0.2036
2907.00,0.1946
2906.00,0.1860
2905.00,0.1777
2904.00,0.1697
2903.00,0.1619
2902.00,0.1545
2901.00,0.1474
2900.00,0.1407
2899.00,0.1344
2898.00,0.1286
2897.00,0.1235
2896.00,0.1189
2895.00,0.1150
2894.00,0.1118
2893.00,0.1092
2892.00,0.1074
2891.00,0.1062
2890.00,0.1057
2889.00,0.1056
2888.00,0.1059
2887.00,0.1066
2886.00,0.1077
2885.00,0.1091
2884.00,0.1110
2883.00,0.1135
2882.00,0.1165
2881.00,0.1199
2880.00,0.1233
2879.00,0.1264
2878.00,0.1287
2877.00,0.1298
2876.00,0.1299
2875.00,0.1293
2874.00,0.1285
2873.00,0.1282
2872.00,0.1286
2871.00,0.1299
2870.00,0.1319
2869.00,0.1341
2868.00,0.1356
2867.00,0.1356
2866.00,0.1332
2865.00,0.1280
2864.00,0.1203
2863.00,0.1109
2862.00,0.1010
2861.00,0.0918
2860.00,0.0838
2859.00,0.0774
2858.00,0.0726
2857.00,0.0691
2856.00,0.0668
2855.00,0.0655
2854.00,0.0651
2853.00,0.0654
2852.00,0.0663
2851.00,0.0677
2850.00,0.0696
2849.00,0.0718
2848.00,0.0743
2847.00,0.0775
2846.00,0.0814
2845.00,0.0861
2844.00,0.0917
2843.00,0.0980
2842.00,0.1045
2841.00,0.1108
2840.00,0.1161
2839.00,0.1196
2838.00,0.1205
2837.00,0.1181
2836.00,0.1125
2835.00,0.1041
2834.00,0.0939
2833.00,0.0831
2832.00,0.0726
2831.00,0.0632
2830.00,0.0553
2829.00,0.0487
2828.00,0.0435
2827.00,0.0392
2826.00,0.0358
2825.00,0.0330
2824.00,0.0307
2823.00,0.0288
2822.00,0.0271
2821.00,0.0256
2820.00,0.0243
2819.00,0.0233
2818.00,0.0223
2817.00,0.0216
2816.00,0.0209
2815.00,0.0202
2814.00,0.0196
2813.00,0.0191
2812.00,0.0185
2811.00,0.0180
2810.00,0.0174
2809.00,0.0168
2808.00,0.0161
2807.00,0.0155
2806.00,0.0148
2805.00,0.0141
2804.00,0.0135
2803.00,0.0129
2802.00,0.0123
2801.00,0.0119
2800.00,0.0115
2799.00,0.0112
2798.00,0.0109
2797.00,0.0106
2796.00,0.0104
2795.00,0.0101
2794.00,0.0099
2793.00,0.0096
2792.00,0.0093
2791.00,0.0090
2790.00,0.0087
2789.00,0.0084
2788.00,0.0081
2787.00,0.0079
2786.00,0.0077
2785.00,0.0075
2784.00,0.0073
2783.00,0.0071
2782.00,0.0069
2781.00,0.0067
2780.00,0.0066
2779.00,0.0064
2778.00,0.0063
2777.00,0.0061
2776.00,0.0060
2775.00,0.0060
2774.00,0.0059
2773.00,0.0058
2772.00,0.0058
2771.00,0.0057
2770.00,0.0057
2769.00,0.0057
2768.00,0.0057
2767.00,0.0056
2766.00,0.0056
2765.00,0.0055
2764.00,0.0055
2763.00,0.0054
2762.00,0.0054
2761.00,0.0053
2760.00,0.0053
2759.00,0.0052
2758.00,0.0052
2757.00,0.0052
2756.00,0.0052
2755.00,0.0052
2754.00,0.0053
2753.00,0.0053
2752.00,0.0053
2751.00,0.0052
2750.00,0.0052
2749.00,0.0052
2748.00,0.0052
2747.00,0.0052
2746.00,0.0052
2745.00,0.0053
2744.00,0.0054
2743.00,0.0055
2742.00,0.0056
2741.00,0.0057
2740.00,0.0058
2739.00,0.0059
2738.00,0.0061
2737.00,0.0063
2736.00,0.0065
2735.00,0.0066
2734.00,0.0068
2733.00,0.0069
2732.00,0.0071
2731.00,0.0073
2730.00,0.0076
2729.00,0.0078
2728.00,0.0081
2727.00,0.0084
2726.00,0.0086
2725.00,0.0089
2724.00,0.0091
2723.00,0.0091
2722.00,0.0090
2721.00,0.0088
2720.00,0.0085
2719.00,0.0082
2718.00,0.0078
2717.00,0.0075
2716.00,0.0071
2715.00,0.0069
2714.00,0.0066
2713.00,0.0064
2712.00,0.0061
2711.00,0.0059
2710.00,0.0057
2709.00,0.0055
2708.00,0.0054
2707.00,0.0052
2706.00,0.0051
2705.00,0.0050
2704.00,0.0049
2703.00,0.0048
2702.00,0.0048
2701.00,0.0047
2700.00,0.0046
2699.00,0.0045
2698.00,0.0044
2697.00,0.0044
2696.00,0.0045
2695.00,0.0044
2694.00,0.0044
2693.00,0.0044
2692.00,0.0044
2691.00,0.0043
2690.00,0.0043
2689.00,0.0043
2688.00,0.0043
2687.00,0.0043
2686.00,0.0044
2685.00,0.0044
2684.00,0.0044
2683.00,0.0044
2682.00,0.0044
2681.00,0.0045
2680.00,0.0045
2679.00,0.0046
2678.00,0.0046
2677.00,0.0045
2676.00,0.0045
2675.00,0.0045
2674.00,0.0045
2673.00,0.0045
2672.00,0.0045
2671.00,0.0045
2670.00,0.0045
2669.00,0.0045
2668.00,0.0045
2667.00,0.0045
2666.00,0.0045
2665.00,0.0046
2664.00,0.0046
2663.00,0.0047
2662.00,0.0047
2661.00,0.0048
2660.00,0.0048
2659.00,0.0048
2658.00,0.0048
2657.00,0.0048
2656.00,0.0048
2655.00,0.0047
2654.00,0.0046
2653.00,0.0046
2652.00,0.0045
2651.00,0.0044
2650.00,0.0044
2649.00,0.0043
2648.00,0.0043
2647.00,0.0042
2646.00,0.0041
2645.00,0.0041
2644.00,0.0041
2643.00,0.0040
2642.00,0.0040
2641.00,0.0040
2640.00,0.0039
2639.00,0.0039
2638.00,0.0039
2637.00,0.0039
2636.00,0.0039
2635.00,0.0039
2634.00,0.0039
2633.00,0.0038
2632.00,0.0038
2631.00,0.0037
2630.00,0.0037
2629.00,0.0038
2628.00,0.0038
2627.00,0.0038
2626.00,0.0039
2625.00,0.0039
2624.00,0.0039
2623.00,0.0039
2622.00,0.0039
2621.00,0.0040
2620.00,0.0040
2619.00,0.0040
2618.00,0.0040
2617.00,0.0040
2616.00,0.0040
2615.00,0.0040
2614.00,0.0040
2613.00,0.0040
2612.00,0.0039
2611.00,0.0039
2610.00,0.0038
2609.00,0.0038
2608.00,0.0037
2607.00,0.0036
2606.00,0.0035
2605.00,0.0034
2604.00,0.0034
2603.00,0.0033
2602.00,0.0032
2601.00,0.0032
2600.00,0.0031
2599.00,0.0031
2598.00,0.0031
2597.00,0.0032
2596.00,0.0032
2595.00,0.0033
2594.00,0.0033
2593.00,0.0034
2592.00,0.0034
2591.00,0.0035
2590.00,0.0036
2589.00,0.0036
2588.00,0.0037
2587.00,0.0037
2586.00,0.0038
2585.00,0.0039
2584.00,0.0040
2583.00,0.0041
2582.00,0.0041
2581.00,0.0041
2580.00,0.0040
2579.00,0.0039
2578.00,0.0038
2577.00,0.0037
2576.00,0.0036
2575.00,0.0035
2574.00,0.0034
2573.00,0.0033
2572.00,0.0032
2571.00,0.0031
2570.00,0.0030
2569.00,0.0029
2568.00,0.0028
2567.00,0.0027
2566.00,0.0026
2565.00,0.0025
2564.00,0.0025
2563.00,0.0024
2562.00,0.0024
2561.00,0.0024
2560.00,0.0024
2559.00,0.0023
2558.00,0.0023
2557.00,0.0023
2556.00,0.0023
2555.00,0.0022
2554.00,0.0022
2553.00,0.0022
2552.00,0.0021
2551.00,0.0020
2550.00,0.0020
2549.00,0.0019
2548.00,0.0019
2547.00,0.0019
2546.00,0.0019
2545.00,0.0019
2544.00,0.0018
2543.00,0.0018
2542.00,0.0018
2541.00,0.0017
2540.00,0.0017
2539.00,0.0017
2538.00,0.0017
2537.00,0.0017
2536.00,0.0017
2535.00,0.0017
2534.00,0.0016
2533.00,0.0016
2532.00,0.0016
2531.00,0.0016
2530.00,0.0016
2529.00,0.0016
2528.00,0.0016
2527.00,0.0016
2526.00,0.0016
2525.00,0.0015
2524.00,0.0015
2523.00,0.0015
2522.00,0.0014
2521.00,0.0013
2520.00,0.0013
2519.00,0.0013
2518.00,0.0013
2517.00,0.0013
2516.00,0.0013
2515.00,0.0013
2514.00,0.0012
2513.00,0.0012
2512.00,0.0012
2511.00,0.0012
2510.00,0.0011
2509.00,0.0011
2508.00,0.0011
2507.00,0.0011
2506.00,0.0011
2505.00,0.0011
2504.00,0.0012
2503.00,0.0012
2502.00,0.0013
2501.00,0.0013
2500.00,0.0012
2499.00,0.0012
2498.00,0.0012
2497.00,0.0012
2496.00,0.0012
2495.00,0.0012
2494.00,0.0013
2493.00,0.0013
2492.00,0.0012
2491.00,0.0011
2490.00,0.0011
2489.00,0.0011
2488.00,0.0010
2487.00,0.0011
2486.00,0.0011
2485.00,0.0011
2484.00,0.0011
2483.00,0.0011
2482.00,0.0011
2481.00,0.0011
2480.00,0.0011
2479.00,0.0011
2478.00,0.0010
2477.00,0.0010
2476.00,0.0010
2475.00,0.0009
2474.00,0.0009
2473.00,0.0009
2472.00,0.0010
2471.00,0.0010
2470.00,0.0011
2469.00,0.0011
2468.00,0.0010
2467.00,0.0010
2466.00,0.0009
2465.00,0.0009
2464.00,0.0010
2463.00,0.0010
2462.00,0.0011
2461.00,0.0010
2460.00,0.0010
2459.00,0.0010
2458.00,0.0010
2457.00,0.0011
2456.00,0.0011
2455.00,0.0012
2454.00,0.0012
2453.00,0.0012
2452.00,0.0012
2451.00,0.0013
2450.00,0.0012
2449.00,0.0012
2448.00,0.0012
2447.00,0.0011
2446.00,0.0011
2445.00,0.0011
2444.00,0.0011
2443.00,0.0011
2442.00,0.0011
2441.00,0.0011
2440.00,0.0011
2439.00,0.0011
2438.00,0.0011
2437.00,0.0012
2436.00,0.0012
2435.00,0.0012
2434.00,0.0012
2433.00,0.0012
2432.00,0.0012
2431.00,0.0012
2430.00,0.0012
2429.00,0.0012
2428.00,0.0012
2427.00,0.0012
2426.00,0.0012
2425.00,0.0012
2424.00,0.0012
2423.00,0.0012
2422.00,0.0012
2421.00,0.0011
2420.00,0.0010
2419.00,0.0010
2418.00,0.0009
2417.00,0.0009
2416.00,0.0009
2415.00,0.0009
2414.00,0.0009
2413.00,0.0010
2412.00,0.0011
2411.00,0.0012
2410.00,0.0012
2409.00,0.0011
2408.00,0.0011
2407.00,0.0010
2406.00,0.0010
2405.00,0.0009
2404.00,0.0009
2403.00,0.0009
2402.00,0.0009
2401.00,0.0009
2400.00,0.0009
2399.00,0.0009
2398.00,0.0009
2397.00,0.0009
2396.00,0.0009
2395.00,0.0008
2394.00,0.0007
2393.00,0.0007
2392.00,0.0007
2391.00,0.0007
2390.00,0.0007
2389.00,0.0006
2388.00,0.0006
2387.00,0.0006
2386.00,0.0005
2385.00,0.0005
2384.00,0.0004
2383.00,0.0003
2382.00,0.0003
2381.00,0.0002
2380.00,0.0002
2379.00,0.0002
2378.00,0.0001
2377.00,0.0001
2376.00,0.0001
2375.00,0.0002
2374.00,0.0001
2373.00,0.0001
2372.00,0.0001
2371.00,0.0001
2370.00,0.0001
2369.00,0.0001
2368.00,0.0000
2367.00,-0.0000
2366.00,-0.0001
2365.00,-0.0001
2364.00,-0.0001
2363.00,-0.0000
2362.00,0.0000
2361.00,0.0001
2360.00,0.0001
2359.00,0.0001
2358.00,0.0000
2357.00,0.0000
2356.00,0.0000
2355.00,0.0000
2354.00,0.0000
2353.00,0.0000
2352.00,0.0000
2351.00,0.0001
2350.00,0.0001
2349.00,0.0002
2348.00,0.0002
2347.00,0.0003
2346.00,0.0003
2345.00,0.0002
2344.00,0.0002
2343.00,0.0002
2342.00,0.0003
2341.00,0.0003
2340.00,0.0003
2339.00,0.0003
2338.00,0.0003
2337.00,0.0003
2336.00,0.0003
2335.00,0.0003
2334.00,0.0002
2333.00,0.0002
2332.00,0.0002
2331.00,0.0002
2330.00,0.0002
2329.00,0.0003
2328.00,0.0005
2327.00,0.0008
2326.00,0.0011
2325.00,0.0015
2324.00,0.0017
2323.00,0.0016
2322.00,0.0015
2321.00,0.0013
2320.00,0.0012
2319.00,0.0012
2318.00,0.0011
2317.00,0.0011
2316.00,0.0011
2315.00,0.0009
2314.00,0.0008
2313.00,0.0007
2312.00,0.0007
2311.00,0.0007
2310.00,0.0007
2309.00,0.0008
2308.00,0.0008
2307.00,0.0008
2306.00,0.0008
2305.00,0.0008
2304.00,0.0009
2303.00,0.0009
2302.00,0.0010
2301.00,0.0009
2300.00,0.0009
2299.00,0.0010
2298.00,0.0011
2297.00,0.0012
2296.00,0.0012
2295.00,0.0013
2294.00,0.0014
2293.00,0.0014
2292.00,0.0015
2291.00,0.0016
2290.00,0.0016
2289.00,0.0017
2288.00,0.0017
2287.00,0.0017
2286.00,0.0016
2285.00,0.0016
2284.00,0.0016
2283.00,0.0016
2282.00,0.0016
2281.00,0.0015
2280.00,0.0014
2279.00,0.0013
2278.00,0.0013
2277.00,0.0012
2276.00,0.0012
2275.00,0.0013
2274.00,0.0013
2273.00,0.0012
2272.00,0.0012
2271.00,0.0011
2270.00,0.0011
2269.00,0.0012
2268.00,0.0013
2267.00,0.0014
2266.00,0.0014
2265.00,0.0015
2264.00,0.0015
2263.00,0.0014
2262.00,0.0013
2261.00,0.0012
2260.00,0.0011
2259.00,0.0010
2258.00,0.0009
2257.00,0.0009
2256.00,0.0009
2255.00,0.0008
2254.00,0.0008
2253.00,0.0008
2252.00,0.0008
2251.00,0.0009
2250.00,0.0009
2249.00,0.0010
2248.00,0.0010
2247.00,0.0010
2246.00,0.0010
2245.00,0.0009
2244.00,0.0007
2243.00,0.0006
2242.00,0.0005
2241.00,0.0006
2240.00,0.0006
2239.00,0.0007
2238.00,0.0006
2237.00,0.0005
2236.00,0.0005
2235.00,0.0006
2234.00,0.0008
2233.00,0.0009
2232.00,0.0009
2231.00,0.0008
2230.00,0.0007
2229.00,0.0008
2228.00,0.0008
2227.00,0.0008
2226.00,0.0007
2225.00,0.0006
2224.00,0.0005
2223.00,0.0003
2222.00,0.0001
2221.00,0.0001
2220.00,0.0001
2219.00,0.0003
2218.00,0.0003
2217.00,0.0003
2216.00,0.0003
2215.00,0.0003
2214.00,0.0004
2213.00,0.0005
2212.00,0.0005
2211.00,0.0005
2210.00,0.0004
2209.00,0.0005
2208.00,0.0005
2207.00,0.0006
2206.00,0.0006
2205.00,0.0007
2204.00,0.0008
2203.00,0.0010
2202.00,0.0012
2201.00,0.0011
2200.00,0.0010
2199.00,0.0008
2198.00,0.0008
2197.00,0.0009
2196.00,0.0009
2195.00,0.0010
2194.00,0.0009
2193.00,0.0007
2192.00,0.0006
2191.00,0.0007
2190.00,0.0009
2189.00,0.0013
2188.00,0.0015
2187.00,0.0015
2186.00,0.0013
2185.00,0.0011
2184.00,0.0010
2183.00,0.0009
2182.00,0.0008
2181.00,0.0007
2180.00,0.0007
2179.00,0.0006
2178.00,0.0006
2177.00,0.0005
2176.00,0.0003
2175.00,0.0002
2174.00,0.0002
2173.00,0.0004
2172.00,0.0007
2171.00,0.0010
2170.00,0.0014
2169.00,0.0016
2168.00,0.0017
2167.00,0.0017
2166.00,0.0018
2165.00,0.0019
2164.00,0.0019
2163.00,0.0017
2162.00,0.0015
2161.00,0.0010
2160.00,0.0002
2159.00,-0.0008
2158.00,-0.0017
2157.00,-0.0021
2156.00,-0.0021
2155.00,-0.0019
2154.00,-0.0017
2153.00,-0.0015
2152.00,-0.0013
2151.00,-0.0014
2150.00,-0.0015
2149.00,-0.0015
2148.00,-0.0015
2147.00,-0.0014
2146.00,-0.0013
2145.00,-0.0012
2144.00,-0.0010
2143.00,-0.0009
2142.00,-0.0008
2141.00,-0.0008
2140.00,-0.0009
2139.00,-0.0011
2138.00,-0.0012
2137.00,-0.0014
2136.00,-0.0017
2135.00,-0.0021
2134.00,-0.0024
2133.00,-0.0022
2132.00,-0.0018
2131.00,-0.0013
2130.00,-0.0009
2129.00,-0.0006
2128.00,-0.0005
2127.00,-0.0004
2126.00,-0.0004
2125.00,-0.0003
2124.00,-0.0003
2123.00,-0.0003
2122.00,-0.0003
2121.00,-0.0002
2120.00,-0.0001
2119.00,-0.0000
2118.00,0.0001
2117.00,0.0002
2116.00,0.0002
2115.00,0.0002
2114.00,0.0002
2113.00,0.0002
2112.00,0.0002
2111.00,0.0002
2110.00,0.0002
2109.00,0.0002
2108.00,0.0003
2107.00,0.0003
2106.00,0.0004
2105.00,0.0005
2104.00,0.0006
2103.00,0.0004
2102.00,0.0002
2101.00,0.0000
2100.00,-0.0000
2099.00,0.0000
2098.00,0.0000
2097.00,-0.0001
2096.00,-0.0003
2095.00,-0.0005
2094.00,-0.0005
2093.00,-0.0004
2092.00,-0.0002
2091.00,-0.0001
2090.00,-0.0001
2089.00,-0.0001
2088.00,-0.0001
2087.00,-0.0000
2086.00,0.0001
2085.00,0.0003
2084.00,0.0005
2083.00,0.0005
2082.00,0.0004
2081.00,0.0003
2080.00,0.0002
2079.00,0.0002
2078.00,0.0002
2077.00,0.0003
2076.00,0.0004
2075.00,0.0003
2074.00,0.0002
2073.00,0.0002
2072.00,0.0002
2071.00,0.0002
2070.00,0.0003
2069.00,0.0002
2068.00,0.0001
2067.00,-0.0001
2066.00,-0.0001
2065.00,0.0000
2064.00,0.0002
2063.00,0.0003
2062.00,0.0003
2061.00,0.0001
2060.00,-0.0002
2059.00,-0.0003
2058.00,-0.0003
2057.00,-0.0002
2056.00,-0.0001
2055.00,-0.0001
2054.00,-0.0000
2053.00,0.0002
2052.00,0.0007
2051.00,0.0011
2050.00,0.0012
2049.00,0.0009
2048.00,0.0006
2047.00,0.0005
2046.00,0.0006
2045.00,0.0008
2044.00,0.0009
2043.00,0.0009
2042.00,0.0008
2041.00,0.0009
2040.00,0.0010
2039.00,0.0008
2038.00,0.0005
2037.00,-0.0000
2036.00,-0.0004
2035.00,-0.0006
2034.00,-0.0007
2033.00,-0.0006
2032.00,-0.0005
2031.00,-0.0006
2030.00,-0.0007
2029.00,-0.0009
2028.00,-0.0009
2027.00,-0.0008
2026.00,-0.0009
2025.00,-0.0010
2024.00,-0.0013
2023.00,-0.0015
2022.00,-0.0015
2021.00,-0.0014
2020.00,-0.0013
2019.00,-0.0013
2018.00,-0.0012
2017.00,-0.0010
2016.00,-0.0009
2015.00,-0.0008
2014.00,-0.0009
2013.00,-0.0009
2012.00,-0.0009
2011.00,-0.0008
2010.00,-0.0008
2009.00,-0.0009
2008.00,-0.0011
2007.00,-0.0014
2006.00,-0.0016
2005.00,-0.0016
2004.00,-0.0015
2003.00,-0.0013
2002.00,-0.0013
2001.00,-0.0012
2000.00,-0.0012
1999.00,-0.0012
1998.00,-0.0010
1997.00,-0.0007
1996.00,-0.0004
1995.00,-0.0003
1994.00,-0.0005
1993.00,-0.0006
1992.00,-0.0007
1991.00,-0.0006
1990.00,-0.0004
1989.00,-0.0003
1988.00,-0.0002
1987.00,-0.0001
1986.00,-0.0001
1985.00,-0.0001
1984.00,-0.0000
1983.00,0.0001
1982.00,0.0004
1981.00,0.0005
1980.00,0.0005
1979.00,0.0001
1978.00,-0.0005
1977.00,-0.0008
1976.00,-0.0007
1975.00,-0.0006
1974.00,-0.0007
1973.00,-0.0009
1972.00,-0.0011
1971.00,-0.0012
1970.00,-0.0011
1969.00,-0.0009
1968.00,-0.0008
1967.00,-0.0008
1966.00,-0.0010
1965.00,-0.0012
1964.00,-0.0015
1963.00,-0.0016
1962.00,-0.0018
1961.00,-0.0019
1960.00,-0.0020
1959.00,-0.0021
1958.00,-0.0022
1957.00,-0.0019
1956.00,-0.0015
1955.00,-0.0011
1954.00,-0.0009
1953.00,-0.0009
1952.00,-0.0011
1951.00,-0.0014
1950.00,-0.0015
1949.00,-0.0016
1948.00,-0.0016
1947.00,-0.0015
1946.00,-0.0014
1945.00,-0.0013
1944.00,-0.0013
1943.00,-0.0013
1942.00,-0.0012
1941.00,-0.0011
1940.00,-0.0008
1939.00,-0.0006
1938.00,-0.0006
1937.00,-0.0007
1936.00,-0.0009
1935.00,-0.0011
1934.00,-0.0011
1933.00,-0.0010
1932.00,-0.0008
1931.00,-0.0007
1930.00,-0.0007
1929.00,-0.0007
1928.00,-0.0007
1927.00,-0.0007
1926.00,-0.0005
1925.00,-0.0004
1924.00,-0.0003
1923.00,-0.0003
1922.00,-0.0003
1921.00,-0.0003
1920.00,-0.0002
1919.00,-0.0001
1918.00,-0.0000
1917.00,-0.0001
1916.00,-0.0001
1915.00,-0.0003
1914.00,-0.0004
1913.00,-0.0004
1912.00,-0.0005
1911.00,-0.0005
1910.00,-0.0004
1909.00,-0.0004
1908.00,-0.0003
1907.00,-0.0003
1906.00,-0.0002
1905.00,-0.0001
1904.00,-0.0001
1903.00,-0.0001
1902.00,-0.0001
1901.00,-0.0002
1900.00,-0.0002
1899.00,-0.0002
1898.00,-0.0003
1897.00,-0.0003
1896.00,-0.0002
1895.00,-0.0001
1894.00,0.0000
1893.00,0.0001
1892.00,0.0001
1891.00,0.0001
1890.00,0.0001
1889.00,0.0000
1888.00,-0.0000
1887.00,-0.0001
1886.00,-0.0002
1885.00,-0.0002
1884.00,-0.0002
1883.00,-0.0002
1882.00,-0.0002
1881.00,-0.0002
1880.00,-0.0001
1879.00,-0.0001
1878.00,-0.0000
1877.00,-0.0000
1876.00,0.0000
1875.00,0.0001
1874.00,0.0001
1873.00,0.0001
1872.00,0.0001
1871.00,-0.0001
1870.00,-0.0002
1869.00,-0.0003
1868.00,-0.0003
1867.00,-0.0003
1866.00,-0.0002
1865.00,-0.0001
1864.00,-0.0000
1863.00,0.0000
1862.00,0.0000
1861.00,0.0001
1860.00,0.0001
1859.00,0.0002
1858.00,0.0002
1857.00,0.0002
1856.00,0.0002
1855.00,0.0002
1854.00,0.0001
1853.00,0.0001
1852.00,0.0001
1851.00,0.0001
1850.00,0.0001
1849.00,0.0000
1848.00,0.0000
1847.00,0.0001
1846.00,0.0001
1845.00,0.0001
1844.00,0.0001
1843.00,0.0000
1842.00,0.0000
1841.00,0.0001
1840.00,0.0002
1839.00,0.0004
1838.00,0.0004
1837.00,0.0004
1836.00,0.0004
1835.00,0.0003
1834.00,0.0003
1833.00,0.0003
1832.00,0.0003
1831.00,0.0003
1830.00,0.0003
1829.00,0.0003
1828.00,0.0003
1827.00,0.0004
1826.00,0.0004
1825.00,0.0004
1824.00,0.0005
1823.00,0.0005
1822.00,0.0004
1821.00,0.0003
1820.00,0.0002
1819.00,0.0001
1818.00,0.0000
1817.00,0.0000
1816.00,0.0000
1815.00,0.0001
1814.00,0.0001
1813.00,0.0001
1812.00,0.0002
1811.00,0.0002
1810.00,0.0002
1809.00,0.0003
1808.00,0.0004
1807.00,0.0004
1806.00,0.0005
1805.00,0.0005
1804.00,0.0005
1803.00,0.0005
1802.00,0.0005
1801.00,0.0005
1800.00,0.0005
1799.00,0.0005
1798.00,0.0005
1797.00,0.0005
1796.00,0.0006
1795.00,0.0006
1794.00,0.0006
1793.00,0.0006
1792.00,0.0006
1791.00,0.0006
1790.00,0.0006
1789.00,0.0006
1788.00,0.0007
1787.00,0.0008
1786.00,0.0008
1785.00,0.0009
1784.00,0.0009
1783.00,0.0009
1782.00,0.0009
1781.00,0.0009
1780.00,0.0009
1779.00,0.0009
1778.00,0.0010
1777.00,0.0010
1776.00,0.0010
1775.00,0.0010
1774.00,0.0010
1773.00,0.0010
1772.00,0.0010
1771.00,0.0010
1770.00,0.0010
1769.00,0.0010
1768.00,0.0011
1767.00,0.0011
1766.00,0.0011
1765.00,0.0011
1764.00,0.0011
1763.00,0.0010
1762.00,0.0010
1761.00,0.0011
1760.00,0.0012
1759.00,0.0012
1758.00,0.0012
1757.00,0.0012
1756.00,0.0013
1755.00,0.0013
1754.00,0.0013
1753.00,0.0014
1752.00,0.0014
1751.00,0.0014
1750.00,0.0015
1749.00,0.0017
1748.00,0.0019
1747.00,0.0020
1746.00,0.0020
1745.00,0.0021
1744.00,0.0022
1743.00,0.0023
1742.00,0.0024
1741.00,0.0025
1740.00,0.0025
1739.00,0.0025
1738.00,0.0026
1737.00,0.0028
1736.00,0.0028
1735.00,0.0028
1734.00,0.0027
1733.00,0.0027
1732.00,0.0027
1731.00,0.0027
1730.00,0.0027
1729.00,0.0026
1728.00,0.0026
1727.00,0.0026
1726.00,0.0026
1725.00,0.0026
1724.00,0.0026
1723.00,0.0026
1722.00,0.0026
1721.00,0.0027
1720.00,0.0027
1719.00,0.0027
1718.00,0.0027
1717.00,0.0026
1716.00,0.0026
1715.00,0.0026
1714.00,0.0026
1713.00,0.0026
1712.00,0.0026
1711.00,0.0026
1710.00,0.0027
1709.00,0.0028
1708.00,0.0029
1707.00,0.0030
1706.00,0.0031
1705.00,0.0031
1704.00,0.0032
1703.00,0.0033
1702.00,0.0034
1701.00,0.0035
1700.00,0.0036
1699.00,0.0036
1698.00,0.0036
1697.00,0.0036
1696.00,0.0037
1695.00,0.0038
1694.00,0.0040
1693.00,0.0042
1692.00,0.0044
1691.00,0.0045
1690.00,0.0047
1689.00,0.0049
1688.00,0.0051
1687.00,0.0053
1686.00,0.0055
1685.00,0.0057
1684.00,0.0060
1683.00,0.0062
1682.00,0.0063
1681.00,0.0065
1680.00,0.0068
1679.00,0.0070
1678.00,0.0072
1677.00,0.0073
1676.00,0.0076
1675.00,0.0078
1674.00,0.0080
1673.00,0.0081
1672.00,0.0082
1671.00,0.0084
1670.00,0.0085
1669.00,0.0086
1668.00,0.0087
1667.00,0.0088
1666.00,0.0088
1665.00,0.0089
1664.00,0.0090
1663.00,0.0090
1662.00,0.0091
1661.00,0.0091
1660.00,0.0092
1659.00,0.0092
1658.00,0.0091
1657.00,0.0091
1656.00,0.0091
1655.00,0.0091
1654.00,0.0091
1653.00,0.0093
1652.00,0.0094
1651.00,0.0094
1650.00,0.0094
1649.00,0.0094
1648.00,0.0095
1647.00,0.0095
1646.00,0.0095
1645.00,0.0094
1644.00,0.0094
1643.00,0.0094
1642.00,0.0093
1641.00,0.0092
1640.00,0.0091
1639.00,0.0091
1638.00,0.0090
1637.00,0.0090
1636.00,0.0090
1635.00,0.0089
1634.00,0.0088
1633.00,0.0088
1632.00,0.0088
1631.00,0.0087
1630.00,0.0087
1629.00,0.0087
1628.00,0.0086
1627.00,0.0086
1626.00,0.0085
1625.00,0.0084
1624.00,0.0084
1623.00,0.0083
1622.00,0.0083
1621.00,0.0083
1620.00,0.0083
1619.00,0.0082
1618.00,0.0082
1617.00,0.0081
1616.00,0.0080
1615.00,0.0080
1614.00,0.0080
1613.00,0.0080
1612.00,0.0080
1611.00,0.0080
1610.00,0.0080
1609.00,0.0080
1608.00,0.0080
1607.00,0.0079
1606.00,0.0079
1605.00,0.0080
1604.00,0.0080
1603.00,0.0079
1602.00,0.0079
1601.00,0.0079
1600.00,0.0080
1599.00,0.0080
1598.00,0.0080
1597.00,0.0080
1596.00,0.0080
1595.00,0.0080
1594.00,0.0081
1593.00,0.0081
1592.00,0.0082
1591.00,0.0082
1590.00,0.0083
1589.00,0.0085
1588.00,0.0087
1587.00,0.0090
1586.00,0.0092
1585.00,0.0096
1584.00,0.0100
1583.00,0.0104
1582.00,0.0108
1581.00,0.0113
1580.00,0.0118
1579.00,0.0122
1578.00,0.0125
1577.00,0.0126
1576.00,0.0125
1575.00,0.0122
1574.00,0.0120
1573.00,0.0118
1572.00,0.0115
1571.00,0.0112
1570.00,0.0107
1569.00,0.0102
1568.00,0.0099
1567.00,0.0097
1566.00,0.0095
1565.00,0.0094
1564.00,0.0093
1563.00,0.0093
1562.00,0.0093
1561.00,0.0093
1560.00,0.0094
1559.00,0.0094
1558.00,0.0094
1557.00,0.0095
1556.00,0.0097
1555.00,0.0098
1554.00,0.0099
1553.00,0.0100
1552.00,0.0101
1551.00,0.0104
1550.00,0.0106
1549.00,0.0110
1548.00,0.0113
1547.00,0.0117
1546.00,0.0121
1545.00,0.0126
1544.00,0.0131
1543.00,0.0137
1542.00,0.0141
1541.00,0.0143
1540.00,0.0140
1539.00,0.0133
1538.00,0.0127
1537.00,0.0122
1536.00,0.0118
1535.00,0.0112
1534.00,0.0104
1533.00,0.0097
1532.00,0.0092
1531.00,0.0088
1530.00,0.0086
1529.00,0.0084
1528.00,0.0081
1527.00,0.0079
1526.00,0.0077
1525.00,0.0076
1524.00,0.0076
1523.00,0.0075
1522.00,0.0074
1521.00,0.0073
1520.00,0.0074
1519.00,0.0074
1518.00,0.0073
1517.00,0.0074
1516.00,0.0074
1515.00,0.0074
1514.00,0.0074
1513.00,0.0075
1512.00,0.0075
1511.00,0.0076
1510.00,0.0076
1509.00,0.0078
1508.00,0.0080
1507.00,0.0080
1506.00,0.0080
1505.00,0.0081
1504.00,0.0084
1503.00,0.0086
1502.00,0.0088
1501.00,0.0092
1500.00,0.0095
1499.00,0.0098
1498.00,0.0100
1497.00,0.0104
1496.00,0.0108
1495.00,0.0110
1494.00,0.0113
1493.00,0.0116
1492.00,0.0120
1491.00,0.0124
1490.00,0.0128
1489.00,0.0134
1488.00,0.0140
1487.00,0.0147
1486.00,0.0154
1485.00,0.0164
1484.00,0.0174
1483.00,0.0184
1482.00,0.0196
1481.00,0.0210
1480.00,0.0225
1479.00,0.0240
1478.00,0.0256
1477.00,0.0276
1476.00,0.0300
1475.00,0.0327
1474.00,0.0363
1473.00,0.0416
1472.00,0.0481
1471.00,0.0544
1470.00,0.0606
1469.00,0.0672
1468.00,0.0743
1467.00,0.0823
1466.00,0.0916
1465.00,0.1017
1464.00,0.1107
1463.00,0.1171
1462.00,0.1214
1461.00,0.1244
1460.00,0.1265
1459.00,0.1277
1458.00,0.1285
1457.00,0.1288
1456.00,0.1284
1455.00,0.1273
1454.00,0.1259
1453.00,0.1238
1452.00,0.1207
1451.00,0.1163
1450.00,0.1105
1449.00,0.1027
1448.00,0.0931
1447.00,0.0832
1446.00,0.0745
1445.00,0.0674
1444.00,0.0614
1443.00,0.0566
1442.00,0.0531
1441.00,0.0509
1440.00,0.0497
1439.00,0.0496
1438.00,0.0502
1437.00,0.0510
1436.00,0.0503
1435.00,0.0478
1434.00,0.0439
1433.00,0.0390
1432.00,0.0340
1431.00,0.0296
1430.00,0.0262
1429.00,0.0238
1428.00,0.0222
1427.00,0.0212
1426.00,0.0207
1425.00,0.0201
1424.00,0.0196
1423.00,0.0193
1422.00,0.0191
1421.00,0.0189
1420.00,0.0184
1419.00,0.0179
1418.00,0.0175
1417.00,0.0170
1416.00,0.0166
1415.00,0.0163
1414.00,0.0161
1413.00,0.0158
1412.00,0.0155
1411.00,0.0153
1410.00,0.0152
1409.00,0.0149
1408.00,0.0147
1407.00,0.0146
1406.00,0.0145
1405.00,0.0144
1404.00,0.0143
1403.00,0.0142
1402.00,0.0143
1401.00,0.0143
1400.00,0.0142
1399.00,0.0144
1398.00,0.0146
1397.00,0.0147
1396.00,0.0149
1395.00,0.0153
1394.00,0.0158
1393.00,0.0162
1392.00,0.0168
1391.00,0.0176
1390.00,0.0187
1389.00,0.0203
1388.00,0.0227
1387.00,0.0263
1386.00,0.0312
1385.00,0.0375
1384.00,0.0458
1383.00,0.0574
1382.00,0.0730
1381.00,0.0935
1380.00,0.1195
1379.00,0.1501
1378.00,0.1811
1377.00,0.2058
1376.00,0.2170
1375.00,0.2095
1374.00,0.1852
1373.00,0.1537
1372.00,0.1239
1371.00,0.0991
1370.00,0.0791
1369.00,0.0638
1368.00,0.0532
1367.00,0.0468
1366.00,0.0433
1365.00,0.0419
1364.00,0.0422
1363.00,0.0438
1362.00,0.0463
1361.00,0.0490
1360.00,0.0511
1359.00,0.0517
1358.00,0.0505
1357.00,0.0475
1356.00,0.0433
1355.00,0.0384
1354.00,0.0338
1353.00,0.0298
1352.00,0.0266
1351.00,0.0240
1350.00,0.0219
1349.00,0.0202
1348.00,0.0189
1347.00,0.0177
1346.00,0.0168
1345.00,0.0161
1344.00,0.0155
1343.00,0.0150
1342.00,0.0146
1341.00,0.0143
1340.00,0.0140
1339.00,0.0137
1338.00,0.0136
1337.00,0.0136
1336.00,0.0138
1335.00,0.0141
1334.00,0.0145
1333.00,0.0149
1332.00,0.0154
1331.00,0.0158
1330.00,0.0159
1329.00,0.0158
1328.00,0.0154
1327.00,0.0148
1326.00,0.0141
1325.00,0.0133
1324.00,0.0127
1323.00,0.0121
1322.00,0.0117
1321.00,0.0113
1320.00,0.0111
1319.00,0.0108
1318.00,0.0106
1317.00,0.0103
1316.00,0.0100
1315.00,0.0099
1314.00,0.0097
1313.00,0.0097
1312.00,0.0097
1311.00,0.0099
1310.00,0.0102
1309.00,0.0106
1308.00,0.0112
1307.00,0.0120
1306.00,0.0128
1305.00,0.0134
1304.00,0.0137
1303.00,0.0138
1302.00,0.0138
1301.00,0.0139
1300.00,0.0140
1299.00,0.0143
1298.00,0.0146
1297.00,0.0148
1296.00,0.0149
1295.00,0.0148
1294.00,0.0144
1293.00,0.0139
1292.00,0.0133
1291.00,0.0127
1290.00,0.0122
1289.00,0.0118
1288.00,0.0113
1287.00,0.0110
1286.00,0.0106
1285.00,0.0103
1284.00,0.0101
1283.00,0.0099
1282.00,0.0097
1281.00,0.0096
1280.00,0.0094
1279.00,0.0093
1278.00,0.0092
1277.00,0.0091
1276.00,0.0091
1275.00,0.0090
1274.00,0.0090
1273.00,0.0089
1272.00,0.0089
1271.00,0.0089
1270.00,0.0090
1269.00,0.0090
1268.00,0.0092
1267.00,0.0093
1266.00,0.0095
1265.00,0.0097
1264.00,0.0098
1263.00,0.0101
1262.00,0.0104
1261.00,0.0107
1260.00,0.0111
1259.00,0.0115
1258.00,0.0119
1257.00,0.0122
1256.00,0.0123
1255.00,0.0121
1254.00,0.0117
1253.00,0.0112
1252.00,0.0107
1251.00,0.0103
1250.00,0.0100
1249.00,0.0098
1248.00,0.0096
1247.00,0.0095
1246.00,0.0094
1245.00,0.0092
1244.00,0.0091
1243.00,0.0091
1242.00,0.0091
1241.00,0.0091
1240.00,0.0090
1239.00,0.0090
1238.00,0.0090
1237.00,0.0090
1236.00,0.0090
1235.00,0.0090
1234.00,0.0090
1233.00,0.0091
1232.00,0.0092
1231.00,0.0093
1230.00,0.0094
1229.00,0.0096
1228.00,0.0098
1227.00,0.0100
1226.00,0.0102
1225.00,0.0104
1224.00,0.0107
1223.00,0.0110
1222.00,0.0114
1221.00,0.0118
1220.00,0.0121
1219.00,0.0122
1218.00,0.0123
1217.00,0.0122
1216.00,0.0119
1215.00,0.0116
1214.00,0.0112
1213.00,0.0108
1212.00,0.0104
1211.00,0.0101
1210.00,0.0099
1209.00,0.0097
1208.00,0.0096
1207.00,0.0094
1206.00,0.0093
1205.00,0.0091
1204.00,0.0091
1203.00,0.0091
1202.00,0.0091
1201.00,0.0092
1200.00,0.0092
1199.00,0.0092
1198.00,0.0092
1197.00,0.0092
1196.00,0.0092
1195.00,0.0092
1194.00,0.0093
1193.00,0.0093
1192.00,0.0093
1191.00,0.0092
1190.00,0.0092
1189.00,0.0092
1188.00,0.0092
1187.00,0.0093
1186.00,0.0093
1185.00,0.0094
1184.00,0.0094
1183.00,0.0094
1182.00,0.0095
1181.00,0.0096
1180.00,0.0098
1179.00,0.0101
1178.00,0.0104
1177.00,0.0109
1176.00,0.0117
1175.00,0.0127
1174.00,0.0141
1173.00,0.0158
1172.00,0.0178
1171.00,0.0200
1170.00,0.0222
1169.00,0.0240
1168.00,0.0253
1167.00,0.0258
1166.00,0.0256
1165.00,0.0250
1164.00,0.0241
1163.00,0.0230
1162.00,0.0221
1161.00,0.0214
1160.00,0.0209
1159.00,0.0204
1158.00,0.0201
1157.00,0.0200
1156.00,0.0199
1155.00,0.0198
1154.00,0.0198
1153.00,0.0196
1152.00,0.0192
1151.00,0.0187
1150.00,0.0179
1149.00,0.0171
1148.00,0.0162
1147.00,0.0154
1146.00,0.0147
1145.00,0.0139
1144.00,0.0132
1143.00,0.0126
1142.00,0.0120
1141.00,0.0115
1140.00,0.0111
1139.00,0.0107
1138.00,0.0104
1137.00,0.0102
1136.00,0.0100
1135.00,0.0099
1134.00,0.0098
1133.00,0.0098
1132.00,0.0098
1131.00,0.0098
1130.00,0.0099
1129.00,0.0100
1128.00,0.0102
1127.00,0.0104
1126.00,0.0105
1125.00,0.0106
1124.00,0.0106
1123.00,0.0106
1122.00,0.0106
1121.00,0.0106
1120.00,0.0106
1119.00,0.0107
1118.00,0.0109
1117.00,0.0111
1116.00,0.0113
1115.00,0.0114
1114.00,0.0116
1113.00,0.0118
1112.00,0.0119
1111.00,0.0122
1110.00,0.0126
1109.00,0.0131
1108.00,0.0137
1107.00,0.0144
1106.00,0.0152
1105.00,0.0159
1104.00,0.0166
1103.00,0.0170
1102.00,0.0171
1101.00,0.0168
1100.00,0.0163
1099.00,0.0156
1098.00,0.0148
1097.00,0.0140
1096.00,0.0132
1095.00,0.0126
1094.00,0.0121
1093.00,0.0119
1092.00,0.0117
1091.00,0.0115
1090.00,0.0113
1089.00,0.0111
1088.00,0.0109
1087.00,0.0107
1086.00,0.0106
1085.00,0.0104
1084.00,0.0103
1083.00,0.0102
1082.00,0.0101
1081.00,0.0100
1080.00,0.0098
1079.00,0.0097
1078.00,0.0096
1077.00,0.0094
1076.00,0.0093
1075.00,0.0092
1074.00,0.0092
1073.00,0.0091
1072.00,0.0091
1071.00,0.0092
1070.00,0.0093
1069.00,0.0094
1068.00,0.0094
1067.00,0.0093
1066.00,0.0093
1065.00,0.0093
1064.00,0.0093
1063.00,0.0093
1062.00,0.0093
1061.00,0.0093
1060.00,0.0094
1059.00,0.0096
1058.00,0.0097
1057.00,0.0097
1056.00,0.0096
1055.00,0.0096
1054.00,0.0095
1053.00,0.0095
1052.00,0.0095
1051.00,0.0096
1050.00,0.0098
1049.00,0.0100
1048.00,0.0103
1047.00,0.0106
1046.00,0.0108
1045.00,0.0109
1044.00,0.0108
1043.00,0.0107
1042.00,0.0107
1041.00,0.0108
1040.00,0.0109
1039.00,0.0110
1038.00,0.0111
1037.00,0.0111
1036.00,0.0111
1035.00,0.0111
1034.00,0.0110
1033.00,0.0108
1032.00,0.0106
1031.00,0.0105
1030.00,0.0104
1029.00,0.0103
1028.00,0.0103
1027.00,0.0103
1026.00,0.0102
1025.00,0.0101
1024.00,0.0100
1023.00,0.0101
1022.00,0.0101
1021.00,0.0100
1020.00,0.0100
1019.00,0.0099
1018.00,0.0100
1017.00,0.0101
1016.00,0.0103
1015.00,0.0106
1014.00,0.0109
1013.00,0.0113
1012.00,0.0116
1011.00,0.0119
1010.00,0.0120
1009.00,0.0121
1008.00,0.0122
1007.00,0.0125
1006.00,0.0130
1005.00,0.0136
1004.00,0.0146
1003.00,0.0160
1002.00,0.0178
1001.00,0.0201
1000.00,0.0224
999.00,0.0242
998.00,0.0249
997.00,0.0243
996.00,0.0225
995.00,0.0199
994.00,0.0173
993.00,0.0150
992.00,0.0133
991.00,0.0121
990.00,0.0113
989.00,0.0107
988.00,0.0103
987.00,0.0102
986.00,0.0103
985.00,0.0106
984.00,0.0110
983.00,0.0116
982.00,0.0126
981.00,0.0140
980.00,0.0158
979.00,0.0182
978.00,0.0210
977.00,0.0242
976.00,0.0273
975.00,0.0301
974.00,0.0320
973.00,0.0322
972.00,0.0308
971.00,0.0279
970.00,0.0243
969.00,0.0207
968.00,0.0177
967.00,0.0153
966.00,0.0137
965.00,0.0124
964.00,0.0115
963.00,0.0108
962.00,0.0103
961.00,0.0098
960.00,0.0094
959.00,0.0090
958.00,0.0088
957.00,0.0086
956.00,0.0085
955.00,0.0083
954.00,0.0082
953.00,0.0081
952.00,0.0080
951.00,0.0080
950.00,0.0081
949.00,0.0082
948.00,0.0083
947.00,0.0084
946.00,0.0086
945.00,0.0089
944.00,0.0092
943.00,0.0096
942.00,0.0099
941.00,0.0100
940.00,0.0099
939.00,0.0097
938.00,0.0092
937.00,0.0088
936.00,0.0083
935.00,0.0079
934.00,0.0076
933.00,0.0072
932.00,0.0070
931.00,0.0068
930.00,0.0066
929.00,0.0066
928.00,0.0065
927.00,0.0065
926.00,0.0065
925.00,0.0065
924.00,0.0066
923.00,0.0066
922.00,0.0066
921.00,0.0067
920.00,0.0067
919.00,0.0069
918.00,0.0070
917.00,0.0072
916.00,0.0072
915.00,0.0073
914.00,0.0073
913.00,0.0074
912.00,0.0076
911.00,0.0077
910.00,0.0079
909.00,0.0081
908.00,0.0083
907.00,0.0089
906.00,0.0097
905.00,0.0109
904.00,0.0126
903.00,0.0146
902.00,0.0169
901.00,0.0189
900.00,0.0204
899.00,0.0207
898.00,0.0199
897.00,0.0181
896.00,0.0159
895.00,0.0137
894.00,0.0119
893.00,0.0105
892.00,0.0095
891.00,0.0088
890.00,0.0083
889.00,0.0080
888.00,0.0079
887.00,0.0078
886.00,0.0077
885.00,0.0076
884.00,0.0076
883.00,0.0076
882.00,0.0076
881.00,0.0077
880.00,0.0079
879.00,0.0081
878.00,0.0083
877.00,0.0084
876.00,0.0086
875.00,0.0087
874.00,0.0088
873.00,0.0088
872.00,0.0087
871.00,0.0084
870.00,0.0080
869.00,0.0076
868.00,0.0074
867.00,0.0075
866.00,0.0076
865.00,0.0078
864.00,0.0078
863.00,0.0079
862.00,0.0080
861.00,0.0082
860.00,0.0085
859.00,0.0087
858.00,0.0088
857.00,0.0088
856.00,0.0089
855.00,0.0091
854.00,0.0093
853.00,0.0094
852.00,0.0097
851.00,0.0100
850.00,0.0104
849.00,0.0108
848.00,0.0113
847.00,0.0121
846.00,0.0133
845.00,0.0152
844.00,0.0178
843.00,0.0206
842.00,0.0225
841.00,0.0227
840.00,0.0212
839.00,0.0187
838.00,0.0162
837.00,0.0143
836.00,0.0131
835.00,0.0124
834.00,0.0120
833.00,0.0117
832.00,0.0115
831.00,0.0113
830.00,0.0110
829.00,0.0108
828.00,0.0106
827.00,0.0105
826.00,0.0105
825.00,0.0106
824.00,0.0106
823.00,0.0106
822.00,0.0106
821.00,0.0108
820.00,0.0110
819.00,0.0114
818.00,0.0120
817.00,0.0128
816.00,0.0139
815.00,0.0152
814.00,0.0167
813.00,0.0183
812.00,0.0201
811.00,0.0217
810.00,0.0231
809.00,0.0239
808.00,0.0238
807.00,0.0228
806.00,0.0212
805.00,0.0194
804.00,0.0175
803.00,0.0159
802.00,0.0146
801.00,0.0136
800.00,0.0128
799.00,0.0123
798.00,0.0118
797.00,0.0114
796.00,0.0109
795.00,0.0105
794.00,0.0101
793.00,0.0098
792.00,0.0096
791.00,0.0094
790.00,0.0092
789.00,0.0089
788.00,0.0086
787.00,0.0083
786.00,0.0081
785.00,0.0079
784.00,0.0077
783.00,0.0074
782.00,0.0072
781.00,0.0070
780.00,0.0068
779.00,0.0067
778.00,0.0068
777.00,0.0069
776.00,0.0071
775.00,0.0072
774.00,0.0072
773.00,0.0072
772.00,0.0072
771.00,0.0073
770.00,0.0074
769.00,0.0076
768.00,0.0077
767.00,0.0078
766.00,0.0077
765.00,0.0075
764.00,0.0073
763.00,0.0070
762.00,0.0069
761.00,0.0068
760.00,0.0067
759.00,0.0066
758.00,0.0064
757.00,0.0062
756.00,0.0061
755.00,0.0061
754.00,0.0062
753.00,0.0063
752.00,0.0065
751.00,0.0065
750.00,0.0066
749.00,0.0066
748.00,0.0066
747.00,0.0067
746.00,0.0068
745.00,0.0069
744.00,0.0070
743.00,0.0072
742.00,0.0073
741.00,0.0074
740.00,0.0076
739.00,0.0077
738.00,0.0080
737.00,0.0082
736.00,0.0085
735.00,0.0087
734.00,0.0090
733.00,0.0092
732.00,0.0094
731.00,0.0095
730.00,0.0095
729.00,0.0095
728.00,0.0094
727.00,0.0092
726.00,0.0089
725.00,0.0086
724.00,0.0085
723.00,0.0084
722.00,0.0082
721.00,0.0080
720.00,0.0079
719.00,0.0077
718.00,0.0076
717.00,0.0075
716.00,0.0074
715.00,0.0073
714.00,0.0072
713.00,0.0071
712.00,0.0070
711.00,0.0071
710.00,0.0071
709.00,0.0072
708.00,0.0072
707.00,0.0073
706.00,0.0073
705.00,0.0074
704.00,0.0073
703.00,0.0073
702.00,0.0072
701.00,0.0072
700.00,0.0071
699.00,0.0070
698.00,0.0069
697.00,0.0069
696.00,0.0069
695.00,0.0069
694.00,0.0070
693.00,0.0070
692.00,0.0069
691.00,0.0068
690.00,0.0066
689.00,0.0065
688.00,0.0064
687.00,0.0065
686.00,0.0067
685.00,0.0068
684.00,0.0069
683.00,0.0069
682.00,0.0069
681.00,0.0068
680.00,0.0068
679.00,0.0069
678.00,0.0069
677.00,0.0069
676.00,0.0068
675.00,0.0067
674.00,0.0067
673.00,0.0069
672.00,0.0072
671.00,0.0076
670.00,0.0080
669.00,0.0081
668.00,0.0080
667.00,0.0078
666.00,0.0075
665.00,0.0073
664.00,0.0072
663.00,0.0072
662.00,0.0072
661.00,0.0073
660.00,0.0072
659.00,0.0071
658.00,0.0070
657.00,0.0069
656.00,0.0069
655.00,0.0069
654.00,0.0067
653.00,0.0067
652.00,0.0067
651.00,0.0067
650.00,0.0068
649.00,0.0069
648.00,0.0069
647.00,0.0068
646.00,0.0067
645.00,0.0066
644.00,0.0065
643.00,0.0066
642.00,0.0068
641.00,0.0070
640.00,0.0071
639.00,0.0071
638.00,0.0070
637.00,0.0069
636.00,0.0068
635.00,0.0067
634.00,0.0067
633.00,0.0067
632.00,0.0069
631.00,0.0072
630.00,0.0075
629.00,0.0078
628.00,0.0079
627.00,0.0078
626.00,0.0076
625.00,0.0073
624.00,0.0070
623.00,0.0068
622.00,0.0068
621.00,0.0069
620.00,0.0071
619.00,0.0074
618.00,0.0075
617.00,0.0075
616.00,0.0075
615.00,0.0076
614.00,0.0075
613.00,0.0074
612.00,0.0072
611.00,0.0071
610.00,0.0071
609.00,0.0071
608.00,0.0071
607.00,0.0072
606.00,0.0073
605.00,0.0075
604.00,0.0075
603.00,0.0076
602.00,0.0076
601.00,0.0076
600.00,0.0076
599.00,0.0076
598.00,0.0075
597.00,0.0073
596.00,0.0072
595.00,0.0072
594.00,0.0072
593.00,0.0072
592.00,0.0070
591.00,0.0067
590.00,0.0065
589.00,0.0066
588.00,0.0068
587.00,0.0071
586.00,0.0071
585.00,0.0069
584.00,0.0066
583.00,0.0066
582.00,0.0070
581.00,0.0074
580.00,0.0076
579.00,0.0077
578.00,0.0076
577.00,0.0075
576.00,0.0075
575.00,0.0075
574.00,0.0074
573.00,0.0073
572.00,0.0073
571.00,0.0073
570.00,0.0074
569.00,0.0075
568.00,0.0075
567.00,0.0074
566.00,0.0072
565.00,0.0072
564.00,0.0073
563.00,0.0075
562.00,0.0075
561.00,0.0073
560.00,0.0071
559.00,0.0069
558.00,0.0068
557.00,0.0068
556.00,0.0069
555.00,0.0071
554.00,0.0074
553.00,0.0075
552.00,0.0076
551.00,0.0076
550.00,0.0076
549.00,0.0077
548.00,0.0076
547.00,0.0074
546.00,0.0071
545.00,0.0070
544.00,0.0074
543.00,0.0082
542.00,0.0088
541.00,0.0089
540.00,0.0088
539.00,0.0086
538.00,0.0084
537.00,0.0084
536.00,0.0086
535.00,0.0092
534.00,0.0098
533.00,0.0101
532.00,0.0101
531.00,0.0099
530.00,0.0098
529.00,0.0096
528.00,0.0093
527.00,0.0092
526.00,0.0092
525.00,0.0091
524.00,0.0088
523.00,0.0087
522.00,0.0088
521.00,0.0089
520.00,0.0087
519.00,0.0084
518.00,0.0081
517.00,0.0079
516.00,0.0076
515.00,0.0074
514.00,0.0076
513.00,0.0079
512.00,0.0080
511.00,0.0078
510.00,0.0074
509.00,0.0068
508.00,0.0063
507.00,0.0062
506.00,0.0067
505.00,0.0073
504.00,0.0075
503.00,0.0072
502.00,0.0068
501.00,0.0066
500.00,0.0068
499.00,0.0070
498.00,0.0070
497.00,0.0069
496.00,0.0067
495.00,0.0067
494.00,0.0071
493.00,0.0076
492.00,0.0081
491.00,0.0083
490.00,0.0082
489.00,0.0081
488.00,0.0080
487.00,0.0082
486.00,0.0087
485.00,0.0093
484.00,0.0095
483.00,0.0095
482.00,0.0093
481.00,0.0089
480.00,0.0079
479.00,0.0067
478.00,0.0056
477.00,0.0053
476.00,0.0056
475.00,0.0062
474.00,0.0067
473.00,0.0072
472.00,0.0077
471.00,0.0081
470.00,0.0084
469.00,0.0088
468.00,0.0095
467.00,0.0104
466.00,0.0113
465.00,0.0121
464.00,0.0129
463.00,0.0137
462.00,0.0149
461.00,0.0163
460.00,0.0177
459.00,0.0187
458.00,0.0188
457.00,0.0179
456.00,0.0164
455.00,0.0146
454.00,0.0128
453.00,0.0114
452.00,0.0102
451.00,0.0091
450.00,0.0080
