Created as New Dataset,Sample 015 By Administrator Date Wednesday, September 10 2025
cm-1,A
4000.00,0.0009
3999.00,0.0009
3998.00,0.0009
3997.00,0.0009
3996.00,0.0010
3995.00,0.0010
3994.00,0.0010
3993.00,0.0011
3992.00,0.0010
3991.00,0.0010
3990.00,0.0010
3989.00,0.0010
3988.00,0.0009
3987.00,0.0009
3986.00,0.0009
3985.00,0.0008
3984.00,0.0008
3983.00,0.0008
3982.00,0.0009
3981.00,0.0009
3980.00,0.0009
3979.00,0.0009
3978.00,0.0009
3977.00,0.0008
3976.00,0.0008
3975.00,0.0008
3974.00,0.0009
3973.00,0.0008
3972.00,0.0008
3971.00,0.0008
3970.00,0.0008
3969.00,0.0008
3968.00,0.0008
3967.00,0.0008
3966.00,0.0008
3965.00,0.0008
3964.00,0.0008
3963.00,0.0007
3962.00,0.0007
3961.00,0.0007
3960.00,0.0007
3959.00,0.0007
3958.00,0.0007
3957.00,0.0007
3956.00,0.0007
3955.00,0.0007
3954.00,0.0007
3953.00,0.0007
3952.00,0.0007
3951.00,0.0006
3950.00,0.0006
3949.00,0.0006
3948.00,0.0006
3947.00,0.0006
3946.00,0.0006
3945.00,0.0006
3944.00,0.0007
3943.00,0.0007
3942.00,0.0007
3941.00,0.0007
3940.00,0.0007
3939.00,0.0007
3938.00,0.0007
3937.00,0.0007
3936.00,0.0007
3935.00,0.0007
3934.00,0.0007
3933.00,0.0007
3932.00,0.0007
3931.00,0.0007
3930.00,0.0007
3929.00,0.0007
3928.00,0.0007
3927.00,0.0007
3926.00,0.0007
3925.00,0.0007
3924.00,0.0007
3923.00,0.0007
3922.00,0.0007
3921.00,0.0007
3920.00,0.0006
3919.00,0.0006
3918.00,0.0006
3917.00,0.0006
3916.00,0.0006
3915.00,0.0007
3914.00,0.0007
3913.00,0.0008
3912.00,0.0008
3911.00,0.0008
3910.00,0.0008
3909.00,0.0007
3908.00,0.0007
3907.00,0.0006
3906.00,0.0006
3905.00,0.0005
3904.00,0.0005
3903.00,0.0004
3902.00,0.0004
3901.00,0.0004
3900.00,0.0004
3899.00,0.0005
3898.00,0.0005
3897.00,0.0006
3896.00,0.0006
3895.00,0.0007
3894.00,0.0007
3893.00,0.0007
3892.00,0.0007
3891.00,0.0007
3890.00,0.0006
3889.00,0.0006
3888.00,0.0006
3887.00,0.0005
3886.00,0.0005
3885.00,0.0005
3884.00,0.0005
3883.00,0.0005
3882.00,0.0005
3881.00,0.0006
3880.00,0.0006
3879.00,0.0006
3878.00,0.0006
3877.00,0.0006
3876.00,0.0006
3875.00,0.0006
3874.00,0.0006
3873.00,0.0006
3872.00,0.0006
3871.00,0.0005
3870.00,0.0005
3869.00,0.0005
3868.00,0.0005
3867.00,0.0005
3866.00,0.0005
3865.00,0.0005
3864.00,0.0005
3863.00,0.0005
3862.00,0.0005
3861.00,0.0005
3860.00,0.0005
3859.00,0.0005
3858.00,0.0005
3857.00,0.0005
3856.00,0.0005
3855.00,0.0005
3854.00,0.0004
3853.00,0.0004
3852.00,0.0004
3851.00,0.0004
3850.00,0.0005
3849.00,0.0005
3848.00,0.0006
3847.00,0.0006
3846.00,0.0006
3845.00,0.0006
3844.00,0.0006
3843.00,0.0005
3842.00,0.0004
3841.00,0.0004
3840.00,0.0004
3839.00,0.0005
3838.00,0.0005
3837.00,0.0005
3836.00,0.0004
3835.00,0.0004
3834.00,0.0004
3833.00,0.0005
3832.00,0.0005
3831.00,0.0005
3830.00,0.0005
3829.00,0.0005
3828.00,0.0005
3827.00,0.0006
3826.00,0.0006
3825.00,0.0006
3824.00,0.0006
3823.00,0.0006
3822.00,0.0006
3821.00,0.0006
3820.00,0.0006
3819.00,0.0006
3818.00,0.0006
3817.00,0.0006
3816.00,0.0006
3815.00,0.0006
3814.00,0.0006
3813.00,0.0006
3812.00,0.0006
3811.00,0.0006
3810.00,0.0005
3809.00,0.0006
3808.00,0.0006
3807.00,0.0006
3806.00,0.0006
3805.00,0.0006
3804.00,0.0006
3803.00,0.0006
3802.00,0.0006
3801.00,0.0007
3800.00,0.0007
3799.00,0.0007
3798.00,0.0007
3797.00,0.0007
3796.00,0.0007
3795.00,0.0007
3794.00,0.0007
3793.00,0.0007
3792.00,0.0007
3791.00,0.0007
3790.00,0.0007
3789.00,0.0006
3788.00,0.0006
3787.00,0.0006
3786.00,0.0006
3785.00,0.0006
3784.00,0.0006
3783.00,0.0006
3782.00,0.0006
3781.00,0.0006
3780.00,0.0006
3779.00,0.0006
3778.00,0.0006
3777.00,0.0006
3776.00,0.0006
3775.00,0.0007
3774.00,0.0007
3773.00,0.0007
3772.00,0.0007
3771.00,0.0007
3770.00,0.0007
3769.00,0.0006
3768.00,0.0006
3767.00,0.0007
3766.00,0.0007
3765.00,0.0007
3764.00,0.0007
3763.00,0.0006
3762.00,0.0006
3761.00,0.0006
3760.00,0.0007
3759.00,0.0007
3758.00,0.0007
3757.00,0.0007
3756.00,0.0007
3755.00,0.0006
3754.00,0.0006
3753.00,0.0005
3752.00,0.0004
3751.00,0.0003
3750.00,0.0003
3749.00,0.0003
3748.00,0.0003
3747.00,0.0004
3746.00,0.0005
3745.00,0.0006
3744.00,0.0006
3743.00,0.0005
3742.00,0.0004
3741.00,0.0004
3740.00,0.0003
3739.00,0.0003
3738.00,0.0003
3737.00,0.0003
3736.00,0.0004
3735.00,0.0005
3734.00,0.0005
3733.00,0.0005
3732.00,0.0005
3731.00,0.0004
3730.00,0.0004
3729.00,0.0004
3728.00,0.0004
3727.00,0.0004
3726.00,0.0004
3725.00,0.0004
3724.00,0.0004
3723.00,0.0004
3722.00,0.0004
3721.00,0.0004
3720.00,0.0005
3719.00,0.0005
3718.00,0.0005
3717.00,0.0005
3716.00,0.0005
3715.00,0.0005
3714.00,0.0006
3713.00,0.0006
3712.00,0.0006
3711.00,0.0007
3710.00,0.0006
3709.00,0.0006
3708.00,0.0006
3707.00,0.0006
3706.00,0.0006
3705.00,0.0006
3704.00,0.0006
3703.00,0.0006
3702.00,0.0007
3701.00,0.0007
3700.00,0.0007
3699.00,0.0007
3698.00,0.0006
3697.00,0.0006
3696.00,0.0006
3695.00,0.0006
3694.00,0.0006
3693.00,0.0006
3692.00,0.0006
3691.00,0.0005
3690.00,0.0005
3689.00,0.0006
3688.00,0.0006
3687.00,0.0007
3686.00,0.0007
3685.00,0.0007
3684.00,0.0008
3683.00,0.0008
3682.00,0.0008
3681.00,0.0008
3680.00,0.0008
3679.00,0.0008
3678.00,0.0007
3677.00,0.0007
3676.00,0.0007
3675.00,0.0006
3674.00,0.0006
3673.00,0.0006
3672.00,0.0006
3671.00,0.0006
3670.00,0.0007
3669.00,0.0008
3668.00,0.0009
3667.00,0.0010
3666.00,0.0010
3665.00,0.0010
3664.00,0.0010
3663.00,0.0010
3662.00,0.0011
3661.00,0.0011
3660.00,0.0011
3659.00,0.0010
3658.00,0.0010
3657.00,0.0010
3656.00,0.0010
3655.00,0.0010
3654.00,0.0009
3653.00,0.0009
3652.00,0.0008
3651.00,0.0008
3650.00,0.0008
3649.00,0.0009
3648.00,0.0010
3647.00,0.0011
3646.00,0.0011
3645.00,0.0012
3644.00,0.0012
3643.00,0.0013
3642.00,0.0013
3641.00,0.0014
3640.00,0.0015
3639.00,0.0016
3638.00,0.0017
3637.00,0.0017
3636.00,0.0018
3635.00,0.0018
3634.00,0.0017
3633.00,0.0017
3632.00,0.0016
3631.00,0.0016
3630.00,0.0016
3629.00,0.0017
3628.00,0.0017
3627.00,0.0018
3626.00,0.0018
3625.00,0.0019
3624.00,0.0019
3623.00,0.0020
3622.00,0.0020
3621.00,0.0019
3620.00,0.0019
3619.00,0.0020
3618.00,0.0020
3617.00,0.0021
3616.00,0.0021
3615.00,0.0022
3614.00,0.0022
3613.00,0.0023
3612.00,0.0023
3611.00,0.0024
3610.00,0.0024
3609.00,0.0025
3608.00,0.0026
3607.00,0.0026
3606.00,0.0027
3605.00,0.0027
3604.00,0.0028
3603.00,0.0028
3602.00,0.0029
3601.00,0.0030
3600.00,0.0030
3599.00,0.0031
3598.00,0.0031
3597.00,0.0031
3596.00,0.0031
3595.00,0.0032
3594.00,0.0033
3593.00,0.0034
3592.00,0.0034
3591.00,0.0034
3590.00,0.0034
3589.00,0.0034
3588.00,0.0035
3587.00,0.0037
3586.00,0.0038
3585.00,0.0038
3584.00,0.0039
3583.00,0.0039
3582.00,0.0040
3581.00,0.0041
3580.00,0.0041
3579.00,0.0042
3578.00,0.0042
3577.00,0.0043
3576.00,0.0044
3575.00,0.0045
3574.00,0.0045
3573.00,0.0046
3572.00,0.0046
3571.00,0.0046
3570.00,0.0046
3569.00,0.0046
3568.00,0.0047
3567.00,0.0048
3566.00,0.0050
3565.00,0.0051
3564.00,0.0052
3563.00,0.0052
3562.00,0.0053
3561.00,0.0054
3560.00,0.0054
3559.00,0.0055
3558.00,0.0056
3557.00,0.0057
3556.00,0.0057
3555.00,0.0058
3554.00,0.0058
3553.00,0.0059
3552.00,0.0060
3551.00,0.0061
3550.00,0.0062
3549.00,0.0063
3548.00,0.0063
3547.00,0.0064
3546.00,0.0064
3545.00,0.0065
3544.00,0.0066
3543.00,0.0068
3542.00,0.0069
3541.00,0.0070
3540.00,0.0070
3539.00,0.0071
3538.00,0.0072
3537.00,0.0072
3536.00,0.0074
3535.00,0.0074
3534.00,0.0075
3533.00,0.0075
3532.00,0.0076
3531.00,0.0076
3530.00,0.0077
3529.00,0.0078
3528.00,0.0079
3527.00,0.0080
3526.00,0.0081
3525.00,0.0082
3524.00,0.0083
3523.00,0.0083
3522.00,0.0084
3521.00,0.0085
3520.00,0.0086
3519.00,0.0087
3518.00,0.0088
3517.00,0.0089
3516.00,0.0090
3515.00,0.0091
3514.00,0.0092
3513.00,0.0093
3512.00,0.0094
3511.00,0.0094
3510.00,0.0095
3509.00,0.0095
3508.00,0.0096
3507.00,0.0097
3506.00,0.0098
3505.00,0.0099
3504.00,0.0100
3503.00,0.0100
3502.00,0.0101
3501.00,0.0102
3500.00,0.0103
3499.00,0.0104
3498.00,0.0104
3497.00,0.0105
3496.00,0.0107
3495.00,0.0108
3494.00,0.0109
3493.00,0.0109
3492.00,0.0110
3491.00,0.0110
3490.00,0.0111
3489.00,0.0112
3488.00,0.0113
3487.00,0.0114
3486.00,0.0114
3485.00,0.0115
3484.00,0.0116
3483.00,0.0116
3482.00,0.0117
3481.00,0.0118
3480.00,0.0119
3479.00,0.0120
3478.00,0.0121
3477.00,0.0121
3476.00,0.0122
3475.00,0.0123
3474.00,0.0124
3473.00,0.0125
3472.00,0.0126
3471.00,0.0126
3470.00,0.0127
3469.00,0.0127
3468.00,0.0128
3467.00,0.0129
3466.00,0.0130
3465.00,0.0131
3464.00,0.0131
3463.00,0.0132
3462.00,0.0132
3461.00,0.0133
3460.00,0.0134
3459.00,0.0135
3458.00,0.0136
3457.00,0.0136
3456.00,0.0137
3455.00,0.0137
3454.00,0.0137
3453.00,0.0138
3452.00,0.0138
3451.00,0.0139
3450.00,0.0140
3449.00,0.0140
3448.00,0.0141
3447.00,0.0142
3446.00,0.0143
3445.00,0.0143
3444.00,0.0144
3443.00,0.0144
3442.00,0.0145
3441.00,0.0145
3440.00,0.0146
3439.00,0.0147
3438.00,0.0147
3437.00,0.0147
3436.00,0.0147
3435.00,0.0148
3434.00,0.0148
3433.00,0.0149
3432.00,0.0150
3431.00,0.0150
3430.00,0.0151
3429.00,0.0151
3428.00,0.0152
3427.00,0.0153
3426.00,0.0153
3425.00,0.0153
3424.00,0.0154
3423.00,0.0154
3422.00,0.0155
3421.00,0.0155
3420.00,0.0156
3419.00,0.0156
3418.00,0.0157
3417.00,0.0157
3416.00,0.0158
3415.00,0.0159
3414.00,0.0159
3413.00,0.0160
3412.00,0.0160
3411.00,0.0161
3410.00,0.0161
3409.00,0.0161
3408.00,0.0161
3407.00,0.0161
3406.00,0.0161
3405.00,0.0162
3404.00,0.0162
3403.00,0.0163
3402.00,0.0163
3401.00,0.0164
3400.00,0.0164
3399.00,0.0164
3398.00,0.0164
3397.00,0.0164
3396.00,0.0164
3395.00,0.0164
3394.00,0.0164
3393.00,0.0165
3392.00,0.0165
3391.00,0.0166
3390.00,0.0166
3389.00,0.0166
3388.00,0.0166
3387.00,0.0166
3386.00,0.0166
3385.00,0.0166
3384.00,0.0166
3383.00,0.0166
3382.00,0.0167
3381.00,0.0167
3380.00,0.0167
3379.00,0.0167
3378.00,0.0166
3377.00,0.0166
3376.00,0.0166
3375.00,0.0166
3374.00,0.0167
3373.00,0.0167
3372.00,0.0168
3371.00,0.0168
3370.00,0.0168
3369.00,0.0168
3368.00,0.0167
3367.00,0.0167
3366.00,0.0167
3365.00,0.0166
3364.00,0.0166
3363.00,0.0166
3362.00,0.0165
3361.00,0.0165
3360.00,0.0165
3359.00,0.0165
3358.00,0.0165
3357.00,0.0165
3356.00,0.0165
3355.00,0.0165
3354.00,0.0165
3353.00,0.0165
3352.00,0.0165
3351.00,0.0165
3350.00,0.0165
3349.00,0.0165
3348.00,0.0165
3347.00,0.0165
3346.00,0.0165
3345.00,0.0164
3344.00,0.0164
3343.00,0.0163
3342.00,0.0163
3341.00,0.0162
3340.00,0.0161
3339.00,0.0161
3338.00,0.0160
3337.00,0.0160
3336.00,0.0160
3335.00,0.0161
3334.00,0.0161
3333.00,0.0160
3332.00,0.0160
3331.00,0.0160
3330.00,0.0159
3329.00,0.0159
3328.00,0.0158
3327.00,0.0158
3326.00,0.0158
3325.00,0.0158
3324.00,0.0158
3323.00,0.0157
3322.00,0.0157
3321.00,0.0157
3320.00,0.0156
3319.00,0.0155
3318.00,0.0154
3317.00,0.0154
3316.00,0.0154
3315.00,0.0154
3314.00,0.0154
3313.00,0.0154
3312.00,0.0153
3311.00,0.0152
3310.00,0.0152
3309.00,0.0151
3308.00,0.0151
3307.00,0.0151
3306.00,0.0151
3305.00,0.0150
3304.00,0.0150
3303.00,0.0150
3302.00,0.0149
3301.00,0.0149
3300.00,0.0148
3299.00,0.0147
3298.00,0.0147
3297.00,0.0146
3296.00,0.0146
3295.00,0.0146
3294.00,0.0145
3293.00,0.0145
3292.00,0.0144
3291.00,0.0143
3290.00,0.0143
3289.00,0.0143
3288.00,0.0142
3287.00,0.0142
3286.00,0.0141
3285.00,0.0141
3284.00,0.0141
3283.00,0.0141
3282.00,0.0140
3281.00,0.0139
3280.00,0.0139
3279.00,0.0138
3278.00,0.0137
3277.00,0.0137
3276.00,0.0137
3275.00,0.0136
3274.00,0.0136
3273.00,0.0135
3272.00,0.0135
3271.00,0.0134
3270.00,0.0133
3269.00,0.0133
3268.00,0.0132
3267.00,0.0132
3266.00,0.0132
3265.00,0.0131
3264.00,0.0131
3263.00,0.0131
3262.00,0.0131
3261.00,0.0130
3260.00,0.0129
3259.00,0.0128
3258.00,0.0127
3257.00,0.0127
3256.00,0.0126
3255.00,0.0126
3254.00,0.0125
3253.00,0.0125
3252.00,0.0124
3251.00,0.0123
3250.00,0.0123
3249.00,0.0122
3248.00,0.0122
3247.00,0.0121
3246.00,0.0121
3245.00,0.0121
3244.00,0.0121
3243.00,0.0121
3242.00,0.0121
3241.00,0.0120
3240.00,0.0119
3239.00,0.0118
3238.00,0.0117
3237.00,0.0117
3236.00,0.0117
3235.00,0.0117
3234.00,0.0116
3233.00,0.0116
3232.00,0.0116
3231.00,0.0115
3230.00,0.0115
3229.00,0.0114
3228.00,0.0114
3227.00,0.0114
3226.00,0.0113
3225.00,0.0113
3224.00,0.0113
3223.00,0.0112
3222.00,0.0112
3221.00,0.0112
3220.00,0.0112
3219.00,0.0112
3218.00,0.0112
3217.00,0.0112
3216.00,0.0112
3215.00,0.0112
3214.00,0.0112
3213.00,0.0111
3212.00,0.0111
3211.00,0.0111
3210.00,0.0112
3209.00,0.0112
3208.00,0.0111
3207.00,0.0111
3206.00,0.0111
3205.00,0.0111
3204.00,0.0111
3203.00,0.0111
3202.00,0.0110
3201.00,0.0110
3200.00,0.0110
3199.00,0.0110
3198.00,0.0110
3197.00,0.0109
3196.00,0.0109
3195.00,0.0108
3194.00,0.0108
3193.00,0.0108
3192.00,0.0108
3191.00,0.0107
3190.00,0.0107
3189.00,0.0107
3188.00,0.0106
3187.00,0.0106
3186.00,0.0106
3185.00,0.0105
3184.00,0.0105
3183.00,0.0104
3182.00,0.0103
3181.00,0.0102
3180.00,0.0102
3179.00,0.0101
3178.00,0.0101
3177.00,0.0100
3176.00,0.0100
3175.00,0.0099
3174.00,0.0099
3173.00,0.0098
3172.00,0.0098
3171.00,0.0098
3170.00,0.0097
3169.00,0.0096
3168.00,0.0096
3167.00,0.0096
3166.00,0.0095
3165.00,0.0095
3164.00,0.0095
3163.00,0.0094
3162.00,0.0094
3161.00,0.0093
3160.00,0.0093
3159.00,0.0092
3158.00,0.0092
3157.00,0.0091
3156.00,0.0091
3155.00,0.0091
3154.00,0.0090
3153.00,0.0090
3152.00,0.0089
3151.00,0.0088
3150.00,0.0088
3149.00,0.0088
3148.00,0.0087
3147.00,0.0087
3146.00,0.0087
3145.00,0.0087
3144.00,0.0087
3143.00,0.0086
3142.00,0.0086
3141.00,0.0085
3140.00,0.0084
3139.00,0.0084
3138.00,0.0083
3137.00,0.0083
3136.00,0.0083
3135.00,0.0083
3134.00,0.0083
3133.00,0.0082
3132.00,0.0082
3131.00,0.0081
3130.00,0.0081
3129.00,0.0080
3128.00,0.0080
3127.00,0.0079
3126.00,0.0079
3125.00,0.0078
3124.00,0.0077
3123.00,0.0076
3122.00,0.0075
3121.00,0.0075
3120.00,0.0074
3119.00,0.0074
3118.00,0.0074
3117.00,0.0073
3116.00,0.0073
3115.00,0.0073
3114.00,0.0073
3113.00,0.0072
3112.00,0.0072
3111.00,0.0071
3110.00,0.0071
3109.00,0.0070
3108.00,0.0070
3107.00,0.0069
3106.00,0.0068
3105.00,0.0068
3104.00,0.0068
3103.00,0.0068
3102.00,0.0068
3101.00,0.0067
3100.00,0.0067
3099.00,0.0067
3098.00,0.0066
3097.00,0.0066
3096.00,0.0066
3095.00,0.0066
3094.00,0.0065
3093.00,0.0065
3092.00,0.0064
3091.00,0.0063
3090.00,0.0063
3089.00,0.0063
3088.00,0.0063
3087.00,0.0062
3086.00,0.0062
3085.00,0.0062
3084.00,0.0061
3083.00,0.0061
3082.00,0.0061
3081.00,0.0061
3080.00,0.0061
3079.00,0.0060
3078.00,0.0060
3077.00,0.0060
3076.00,0.0061
3075.00,0.0061
3074.00,0.0061
3073.00,0.0061
3072.00,0.0061
3071.00,0.0061
3070.00,0.0061
3069.00,0.0062
3068.00,0.0061
3067.00,0.0061
3066.00,0.0062
3065.00,0.0062
3064.00,0.0062
3063.00,0.0063
3062.00,0.0062
3061.00,0.0062
3060.00,0.0062
3059.00,0.0061
3058.00,0.0061
3057.00,0.0061
3056.00,0.0061
3055.00,0.0061
3054.00,0.0061
3053.00,0.0061
3052.00,0.0061
3051.00,0.0061
3050.00,0.0061
3049.00,0.0062
3048.00,0.0062
3047.00,0.0062
3046.00,0.0063
3045.00,0.0063
3044.00,0.0063
3043.00,0.0064
3042.00,0.0064
3041.00,0.0064
3040.00,0.0065
3039.00,0.0065
3038.00,0.0066
3037.00,0.0066
3036.00,0.0067
3035.00,0.0067
3034.00,0.0067
3033.00,0.0068
3032.00,0.0068
3031.00,0.0069
3030.00,0.0069
3029.00,0.0069
3028.00,0.0070
3027.00,0.0070
3026.00,0.0071
3025.00,0.0071
3024.00,0.0072
3023.00,0.0072
3022.00,0.0073
3021.00,0.0073
3020.00,0.0073
3019.00,0.0073
3018.00,0.0073
3017.00,0.0073
3016.00,0.0074
3015.00,0.0075
3014.00,0.0076
3013.00,0.0076
3012.00,0.0077
3011.00,0.0078
3010.00,0.0079
3009.00,0.0080
3008.00,0.0081
3007.00,0.0082
3006.00,0.0083
3005.00,0.0085
3004.00,0.0086
3003.00,0.0087
3002.00,0.0089
3001.00,0.0090
3000.00,0.0092
2999.00,0.0094
2998.00,0.0097
2997.00,0.0100
2996.00,0.0104
2995.00,0.0107
2994.00,0.0111
2993.00,0.0116
2992.00,0.0120
2991.00,0.0126
2990.00,0.0131
2989.00,0.0138
2988.00,0.0145
2987.00,0.0153
2986.00,0.0162
2985.00,0.0172
2984.00,0.0182
2983.00,0.0194
2982.00,0.0207
2981.00,0.0223
2980.00,0.0241
2979.00,0.0261
2978.00,0.0285
2977.00,0.0311
2976.00,0.0341
2975.00,0.0375
2974.00,0.0414
2973.00,0.0457
2972.00,0.0507
2971.00,0.0562
2970.00,0.0624
2969.00,0.0693
2968.00,0.0768
2967.00,0.0849
2966.00,0.0933
2965.00,0.1020
2964.00,0.1106
2963.00,0.1189
2962.00,0.1263
2961.00,0.1326
2960.00,0.1378
2959.00,0.1419
2958.00,0.1453
2957.00,0.1486
2956.00,0.1520
2955.00,0.1561
2954.00,0.1609
2953.00,0.1660
2952.00,0.1709
2951.00,0.1747
2950.00,0.1765
2949.00,0.1755
2948.00,0.1714
2947.00,0.1643
2946.00,0.1549
2945.00,0.1444
2944.00,0.1339
2943.00,0.1246
2942.00,0.1171
2941.00,0.1118
2940.00,0.1088
2939.00,0.1079
2938.00,0.1088
2937.00,0.1114
2936.00,0.1155
2935.00,0.1209
2934.00,0.1275
2933.00,0.1351
2932.00,0.1438
2931.00,0.1531
2930.00,0.1630
2929.00,0.1731
2928.00,0.1831
2927.00,0.1926
2926.00,0.2015
2925.00,0.2098
2924.00,0.2176
2923.00,0.2249
2922.00,0.2318
2921.00,0.2382
2920.00,0.2436
2919.00,0.2475
2918.00,0.2492
2917.00,0.2483
2916.00,0.2445
2915.00,0.2383
2914.00,0.2303
2913.00,0.2215
2912.00,0.2126
2911.00,0.2041
2910.00,0.1963
2909.00,0.1891
2908.00,0.1826
2907.00,0.1764
2906.00,0.1702
2905.00,0.1640
2904.00,0.1576
2903.00,0.1512
2902.00,0.1449
2901.00,0.1386
2900.00,0.1326
2899.00,0.1268
2898.00,0.1214
2897.00,0.1165
2896.00,0.1122
2895.00,0.1084
2894.00,0.1052
2893.00,0.1027
2892.00,0.1008
2891.00,0.0994
2890.00,0.0985
2889.00,0.0981
2888.00,0.0981
2887.00,0.0984
2886.00,0.0991
2885.00,0.1001
2884.00,0.1016
2883.00,0.1034
2882.00,0.1057
2881.00,0.1083
2880.00,0.1109
2879.00,0.1132
2878.00,0.1150
2877.00,0.1159
2876.00,0.1160
2875.00,0.1156
2874.00,0.1152
2873.00,0.1150
2872.00,0.1155
2871.00,0.1166
2870.00,0.1182
2869.00,0.1201
2868.00,0.1215
2867.00,0.1219
2866.00,0.1205
2865.00,0.1172
2864.00,0.1119
2863.00,0.1053
2862.00,0.0984
2861.00,0.0919
2860.00,0.0864
2859.00,0.0821
2858.00,0.0789
2857.00,0.0766
2856.00,0.0751
2855.00,0.0740
2854.00,0.0733
2853.00,0.0728
2852.00,0.0725
2851.00,0.0726
2850.00,0.0729
2849.00,0.0737
2848.00,0.0750
2847.00,0.0770
2846.00,0.0799
2845.00,0.0836
2844.00,0.0882
2843.00,0.0935
2842.00,0.0991
2841.00,0.1046
2840.00,0.1093
2839.00,0.1124
2838.00,0.1131
2837.00,0.1109
2836.00,0.1058
2835.00,0.0982
2834.00,0.0890
2833.00,0.0791
2832.00,0.0696
2831.00,0.0611
2830.00,0.0538
2829.00,0.0478
2828.00,0.0429
2827.00,0.0389
2826.00,0.0357
2825.00,0.0331
2824.00,0.0309
2823.00,0.0290
2822.00,0.0273
2821.00,0.0259
2820.00,0.0247
2819.00,0.0236
2818.00,0.0226
2817.00,0.0218
2816.00,0.0211
2815.00,0.0205
2814.00,0.0199
2813.00,0.0194
2812.00,0.0188
2811.00,0.0183
2810.00,0.0178
2809.00,0.0172
2808.00,0.0166
2807.00,0.0160
2806.00,0.0154
2805.00,0.0148
2804.00,0.0143
2803.00,0.0137
2802.00,0.0132
2801.00,0.0128
2800.00,0.0124
2799.00,0.0121
2798.00,0.0119
2797.00,0.0116
2796.00,0.0114
2795.00,0.0111
2794.00,0.0109
2793.00,0.0106
2792.00,0.0103
2791.00,0.0100
2790.00,0.0097
2789.00,0.0094
2788.00,0.0091
2787.00,0.0088
2786.00,0.0085
2785.00,0.0083
2784.00,0.0081
2783.00,0.0079
2782.00,0.0077
2781.00,0.0075
2780.00,0.0073
2779.00,0.0072
2778.00,0.0070
2777.00,0.0069
2776.00,0.0067
2775.00,0.0066
2774.00,0.0066
2773.00,0.0065
2772.00,0.0064
2771.00,0.0063
2770.00,0.0063
2769.00,0.0062
2768.00,0.0062
2767.00,0.0062
2766.00,0.0062
2765.00,0.0061
2764.00,0.0061
2763.00,0.0061
2762.00,0.0060
2761.00,0.0060
2760.00,0.0059
2759.00,0.0058
2758.00,0.0058
2757.00,0.0058
2756.00,0.0058
2755.00,0.0058
2754.00,0.0057
2753.00,0.0057
2752.00,0.0057
2751.00,0.0056
2750.00,0.0056
2749.00,0.0056
2748.00,0.0057
2747.00,0.0057
2746.00,0.0057
2745.00,0.0058
2744.00,0.0058
2743.00,0.0059
2742.00,0.0060
2741.00,0.0061
2740.00,0.0063
2739.00,0.0064
2738.00,0.0065
2737.00,0.0066
2736.00,0.0067
2735.00,0.0069
2734.00,0.0070
2733.00,0.0071
2732.00,0.0072
2731.00,0.0074
2730.00,0.0076
2729.00,0.0078
2728.00,0.0080
2727.00,0.0082
2726.00,0.0085
2725.00,0.0087
2724.00,0.0088
2723.00,0.0089
2722.00,0.0088
2721.00,0.0086
2720.00,0.0083
2719.00,0.0081
2718.00,0.0078
2717.00,0.0075
2716.00,0.0072
2715.00,0.0070
2714.00,0.0067
2713.00,0.0065
2712.00,0.0063
2711.00,0.0061
2710.00,0.0060
2709.00,0.0059
2708.00,0.0058
2707.00,0.0056
2706.00,0.0055
2705.00,0.0054
2704.00,0.0053
2703.00,0.0053
2702.00,0.0052
2701.00,0.0051
2700.00,0.0051
2699.00,0.0050
2698.00,0.0049
2697.00,0.0048
2696.00,0.0048
2695.00,0.0048
2694.00,0.0048
2693.00,0.0048
2692.00,0.0048
2691.00,0.0048
2690.00,0.0048
2689.00,0.0048
2688.00,0.0048
2687.00,0.0048
2686.00,0.0048
2685.00,0.0048
2684.00,0.0048
2683.00,0.0047
2682.00,0.0047
2681.00,0.0047
2680.00,0.0047
2679.00,0.0047
2678.00,0.0048
2677.00,0.0048
2676.00,0.0048
2675.00,0.0048
2674.00,0.0048
2673.00,0.0047
2672.00,0.0047
2671.00,0.0047
2670.00,0.0047
2669.00,0.0047
2668.00,0.0047
2667.00,0.0047
2666.00,0.0047
2665.00,0.0047
2664.00,0.0048
2663.00,0.0048
2662.00,0.0049
2661.00,0.0049
2660.00,0.0049
2659.00,0.0050
2658.00,0.0050
2657.00,0.0050
2656.00,0.0049
2655.00,0.0049
2654.00,0.0048
2653.00,0.0047
2652.00,0.0047
2651.00,0.0046
2650.00,0.0045
2649.00,0.0045
2648.00,0.0044
2647.00,0.0044
2646.00,0.0043
2645.00,0.0043
2644.00,0.0042
2643.00,0.0042
2642.00,0.0042
2641.00,0.0042
2640.00,0.0041
2639.00,0.0041
2638.00,0.0041
2637.00,0.0042
2636.00,0.0041
2635.00,0.0041
2634.00,0.0041
2633.00,0.0040
2632.00,0.0040
2631.00,0.0040
2630.00,0.0040
2629.00,0.0040
2628.00,0.0040
2627.00,0.0041
2626.00,0.0041
2625.00,0.0041
2624.00,0.0041
2623.00,0.0041
2622.00,0.0041
2621.00,0.0041
2620.00,0.0041
2619.00,0.0041
2618.00,0.0041
2617.00,0.0041
2616.00,0.0041
2615.00,0.0041
2614.00,0.0041
2613.00,0.0041
2612.00,0.0040
2611.00,0.0040
2610.00,0.0039
2609.00,0.0039
2608.00,0.0038
2607.00,0.0037
2606.00,0.0037
2605.00,0.0036
2604.00,0.0035
2603.00,0.0034
2602.00,0.0034
2601.00,0.0034
2600.00,0.0034
2599.00,0.0034
2598.00,0.0033
2597.00,0.0033
2596.00,0.0034
2595.00,0.0034
2594.00,0.0035
2593.00,0.0035
2592.00,0.0035
2591.00,0.0035
2590.00,0.0036
2589.00,0.0037
2588.00,0.0038
2587.00,0.0038
2586.00,0.0039
2585.00,0.0040
2584.00,0.0040
2583.00,0.0040
2582.00,0.0040
2581.00,0.0039
2580.00,0.0039
2579.00,0.0038
2578.00,0.0037
2577.00,0.0036
2576.00,0.0036
2575.00,0.0034
2574.00,0.0033
2573.00,0.0032
2572.00,0.0031
2571.00,0.0030
2570.00,0.0030
2569.00,0.0030
2568.00,0.0029
2567.00,0.0028
2566.00,0.0028
2565.00,0.0027
2564.00,0.0027
2563.00,0.0026
2562.00,0.0026
2561.00,0.0026
2560.00,0.0025
2559.00,0.0024
2558.00,0.0023
2557.00,0.0023
2556.00,0.0023
2555.00,0.0024
2554.00,0.0024
2553.00,0.0025
2552.00,0.0024
2551.00,0.0024
2550.00,0.0023
2549.00,0.0023
2548.00,0.0023
2547.00,0.0022
2546.00,0.0022
2545.00,0.0021
2544.00,0.0021
2543.00,0.0020
2542.00,0.0019
2541.00,0.0019
2540.00,0.0018
2539.00,0.0017
2538.00,0.0017
2537.00,0.0017
2536.00,0.0017
2535.00,0.0018
2534.00,0.0019
2533.00,0.0019
2532.00,0.0018
2531.00,0.0017
2530.00,0.0017
2529.00,0.0016
2528.00,0.0016
2527.00,0.0016
2526.00,0.0017
2525.00,0.0016
2524.00,0.0016
2523.00,0.0015
2522.00,0.0015
2521.00,0.0015
2520.00,0.0015
2519.00,0.0015
2518.00,0.0015
2517.00,0.0015
2516.00,0.0015
2515.00,0.0014
2514.00,0.0014
2513.00,0.0013
2512.00,0.0013
2511.00,0.0013
2510.00,0.0013
2509.00,0.0013
2508.00,0.0012
2507.00,0.0012
2506.00,0.0011
2505.00,0.0011
2504.00,0.0012
2503.00,0.0012
2502.00,0.0011
2501.00,0.0011
2500.00,0.0011
2499.00,0.0011
2498.00,0.0012
2497.00,0.0013
2496.00,0.0013
2495.00,0.0014
2494.00,0.0014
2493.00,0.0014
2492.00,0.0014
2491.00,0.0013
2490.00,0.0013
2489.00,0.0013
2488.00,0.0012
2487.00,0.0012
2486.00,0.0011
2485.00,0.0012
2484.00,0.0012
2483.00,0.0012
2482.00,0.0011
2481.00,0.0011
2480.00,0.0011
2479.00,0.0011
2478.00,0.0011
2477.00,0.0011
2476.00,0.0011
2475.00,0.0011
2474.00,0.0011
2473.00,0.0011
2472.00,0.0010
2471.00,0.0010
2470.00,0.0010
2469.00,0.0010
2468.00,0.0010
2467.00,0.0011
2466.00,0.0011
2465.00,0.0012
2464.00,0.0012
2463.00,0.0012
2462.00,0.0012
2461.00,0.0012
2460.00,0.0012
2459.00,0.0011
2458.00,0.0012
2457.00,0.0012
2456.00,0.0013
2455.00,0.0014
2454.00,0.0015
2453.00,0.0015
2452.00,0.0014
2451.00,0.0014
2450.00,0.0013
2449.00,0.0013
2448.00,0.0013
2447.00,0.0012
2446.00,0.0012
2445.00,0.0011
2444.00,0.0012
2443.00,0.0012
2442.00,0.0012
2441.00,0.0012
2440.00,0.0011
2439.00,0.0011
2438.00,0.0011
2437.00,0.0012
2436.00,0.0013
2435.00,0.0013
2434.00,0.0014
2433.00,0.0014
2432.00,0.0014
2431.00,0.0014
2430.00,0.0014
2429.00,0.0014
2428.00,0.0014
2427.00,0.0013
2426.00,0.0013
2425.00,0.0014
2424.00,0.0014
2423.00,0.0014
2422.00,0.0014
2421.00,0.0013
2420.00,0.0012
2419.00,0.0012
2418.00,0.0012
2417.00,0.0012
2416.00,0.0012
2415.00,0.0011
2414.00,0.0011
2413.00,0.0011
2412.00,0.0011
2411.00,0.0011
2410.00,0.0011
2409.00,0.0011
2408.00,0.0012
2407.00,0.0012
2406.00,0.0011
2405.00,0.0011
2404.00,0.0010
2403.00,0.0010
2402.00,0.0010
2401.00,0.0010
2400.00,0.0010
2399.00,0.0010
2398.00,0.0010
2397.00,0.0010
2396.00,0.0011
2395.00,0.0011
2394.00,0.0011
2393.00,0.0010
2392.00,0.0010
2391.00,0.0009
2390.00,0.0009
2389.00,0.0008
2388.00,0.0008
2387.00,0.0008
2386.00,0.0008
2385.00,0.0008
2384.00,0.0008
2383.00,0.0008
2382.00,0.0007
2381.00,0.0006
2380.00,0.0006
2379.00,0.0005
2378.00,0.0005
2377.00,0.0006
2376.00,0.0007
2375.00,0.0007
2374.00,0.0007
2373.00,0.0007
2372.00,0.0007
2371.00,0.0007
2370.00,0.0007
2369.00,0.0006
2368.00,0.0006
2367.00,0.0006
2366.00,0.0006
2365.00,0.0006
2364.00,0.0007
2363.00,0.0007
2362.00,0.0008
2361.00,0.0008
2360.00,0.0008
2359.00,0.0008
2358.00,0.0007
2357.00,0.0008
2356.00,0.0009
2355.00,0.0009
2354.00,0.0009
2353.00,0.0008
2352.00,0.0007
2351.00,0.0007
2350.00,0.0008
2349.00,0.0008
2348.00,0.0009
2347.00,0.0010
2346.00,0.0010
2345.00,0.0010
2344.00,0.0010
2343.00,0.0010
2342.00,0.0011
2341.00,0.0011
2340.00,0.0011
2339.00,0.0011
2338.00,0.0011
2337.00,0.0011
2336.00,0.0010
2335.00,0.0010
2334.00,0.0010
2333.00,0.0011
2332.00,0.0011
2331.00,0.0011
2330.00,0.0011
2329.00,0.0011
2328.00,0.0013
2327.00,0.0016
2326.00,0.0020
2325.00,0.0024
2324.00,0.0025
2323.00,0.0024
2322.00,0.0022
2321.00,0.0019
2320.00,0.0017
2319.00,0.0016
2318.00,0.0015
2317.00,0.0014
2316.00,0.0014
2315.00,0.0013
2314.00,0.0013
2313.00,0.0013
2312.00,0.0012
2311.00,0.0011
2310.00,0.0011
2309.00,0.0011
2308.00,0.0011
2307.00,0.0011
2306.00,0.0012
2305.00,0.0012
2304.00,0.0012
2303.00,0.0012
2302.00,0.0012
2301.00,0.0013
2300.00,0.0014
2299.00,0.0014
2298.00,0.0014
2297.00,0.0015
2296.00,0.0015
2295.00,0.0015
2294.00,0.0015
2293.00,0.0016
2292.00,0.0018
2291.00,0.0019
2290.00,0.0019
2289.00,0.0019
2288.00,0.0019
2287.00,0.0019
2286.00,0.0019
2285.00,0.0019
2284.00,0.0020
2283.00,0.0019
2282.00,0.0018
2281.00,0.0017
2280.00,0.0017
2279.00,0.0016
2278.00,0.0015
2277.00,0.0015
2276.00,0.0014
2275.00,0.0014
2274.00,0.0014
2273.00,0.0016
2272.00,0.0017
2271.00,0.0018
2270.00,0.0019
2269.00,0.0018
2268.00,0.0016
2267.00,0.0015
2266.00,0.0014
2265.00,0.0013
2264.00,0.0013
2263.00,0.0012
2262.00,0.0012
2261.00,0.0012
2260.00,0.0013
2259.00,0.0015
2258.00,0.0015
2257.00,0.0015
2256.00,0.0014
2255.00,0.0013
2254.00,0.0011
2253.00,0.0010
2252.00,0.0010
2251.00,0.0010
2250.00,0.0010
2249.00,0.0010
2248.00,0.0011
2247.00,0.0013
2246.00,0.0013
2245.00,0.0013
2244.00,0.0013
2243.00,0.0012
2242.00,0.0012
2241.00,0.0013
2240.00,0.0013
2239.00,0.0014
2238.00,0.0014
2237.00,0.0013
2236.00,0.0013
2235.00,0.0012
2234.00,0.0010
2233.00,0.0009
2232.00,0.0008
2231.00,0.0008
2230.00,0.0008
2229.00,0.0009
2228.00,0.0010
2227.00,0.0009
2226.00,0.0009
2225.00,0.0008
2224.00,0.0008
2223.00,0.0007
2222.00,0.0007
2221.00,0.0006
2220.00,0.0006
2219.00,0.0006
2218.00,0.0006
2217.00,0.0006
2216.00,0.0006
2215.00,0.0005
2214.00,0.0006
2213.00,0.0008
2212.00,0.0010
2211.00,0.0011
2210.00,0.0010
2209.00,0.0008
2208.00,0.0006
2207.00,0.0006
2206.00,0.0006
2205.00,0.0008
2204.00,0.0009
2203.00,0.0009
2202.00,0.0009
2201.00,0.0010
2200.00,0.0012
2199.00,0.0013
2198.00,0.0012
2197.00,0.0012
2196.00,0.0011
2195.00,0.0012
2194.00,0.0012
2193.00,0.0013
2192.00,0.0013
2191.00,0.0012
2190.00,0.0011
2189.00,0.0012
2188.00,0.0013
2187.00,0.0015
2186.00,0.0016
2185.00,0.0016
2184.00,0.0013
2183.00,0.0010
2182.00,0.0006
2181.00,0.0005
2180.00,0.0006
2179.00,0.0008
2178.00,0.0010
2177.00,0.0011
2176.00,0.0012
2175.00,0.0013
2174.00,0.0015
2173.00,0.0016
2172.00,0.0017
2171.00,0.0018
2170.00,0.0019
2169.00,0.0020
2168.00,0.0022
2167.00,0.0024
2166.00,0.0025
2165.00,0.0025
2164.00,0.0025
2163.00,0.0025
2162.00,0.0024
2161.00,0.0020
2160.00,0.0011
2159.00,-0.0002
2158.00,-0.0015
2157.00,-0.0023
2156.00,-0.0024
2155.00,-0.0022
2154.00,-0.0017
2153.00,-0.0013
2152.00,-0.0011
2151.00,-0.0011
2150.00,-0.0012
2149.00,-0.0012
2148.00,-0.0011
2147.00,-0.0010
2146.00,-0.0010
2145.00,-0.0011
2144.00,-0.0011
2143.00,-0.0010
2142.00,-0.0009
2141.00,-0.0008
2140.00,-0.0006
2139.00,-0.0005
2138.00,-0.0006
2137.00,-0.0008
2136.00,-0.0010
2135.00,-0.0011
2134.00,-0.0012
2133.00,-0.0011
2132.00,-0.0010
2131.00,-0.0009
2130.00,-0.0009
2129.00,-0.0008
2128.00,-0.0008
2127.00,-0.0008
2126.00,-0.0008
2125.00,-0.0007
2124.00,-0.0004
2123.00,-0.0002
2122.00,-0.0000
2121.00,-0.0000
2120.00,-0.0000
2119.00,0.0000
2118.00,0.0002
2117.00,0.0005
2116.00,0.0007
2115.00,0.0008
2114.00,0.0007
2113.00,0.0005
2112.00,0.0004
2111.00,0.0004
2110.00,0.0005
2109.00,0.0006
2108.00,0.0007
2107.00,0.0006
2106.00,0.0006
2105.00,0.0006
2104.00,0.0007
2103.00,0.0007
2102.00,0.0006
2101.00,0.0005
2100.00,0.0005
2099.00,0.0006
2098.00,0.0006
2097.00,0.0006
2096.00,0.0006
2095.00,0.0005
2094.00,0.0003
2093.00,0.0003
2092.00,0.0004
2091.00,0.0004
2090.00,0.0005
2089.00,0.0005
2088.00,0.0005
2087.00,0.0006
2086.00,0.0005
2085.00,0.0004
2084.00,0.0002
2083.00,0.0001
2082.00,0.0002
2081.00,0.0004
2080.00,0.0006
2079.00,0.0007
2078.00,0.0007
2077.00,0.0006
2076.00,0.0006
2075.00,0.0007
2074.00,0.0007
2073.00,0.0007
2072.00,0.0007
2071.00,0.0006
2070.00,0.0005
2069.00,0.0005
2068.00,0.0005
2067.00,0.0005
2066.00,0.0005
2065.00,0.0005
2064.00,0.0004
2063.00,0.0003
2062.00,0.0002
2061.00,0.0002
2060.00,0.0003
2059.00,0.0004
2058.00,0.0006
2057.00,0.0008
2056.00,0.0009
2055.00,0.0011
2054.00,0.0014
2053.00,0.0017
2052.00,0.0021
2051.00,0.0021
2050.00,0.0019
2049.00,0.0014
2048.00,0.0009
2047.00,0.0005
2046.00,0.0004
2045.00,0.0005
2044.00,0.0006
2043.00,0.0006
2042.00,0.0004
2041.00,0.0002
2040.00,0.0000
2039.00,-0.0001
2038.00,0.0000
2037.00,0.0002
2036.00,0.0005
2035.00,0.0007
2034.00,0.0006
2033.00,0.0006
2032.00,0.0005
2031.00,0.0003
2030.00,0.0001
2029.00,-0.0001
2028.00,-0.0001
2027.00,-0.0001
2026.00,-0.0003
2025.00,-0.0004
2024.00,-0.0006
2023.00,-0.0007
2022.00,-0.0008
2021.00,-0.0009
2020.00,-0.0011
2019.00,-0.0011
2018.00,-0.0009
2017.00,-0.0005
2016.00,-0.0003
2015.00,-0.0004
2014.00,-0.0007
2013.00,-0.0011
2012.00,-0.0013
2011.00,-0.0013
2010.00,-0.0011
2009.00,-0.0011
2008.00,-0.0012
2007.00,-0.0014
2006.00,-0.0016
2005.00,-0.0016
2004.00,-0.0014
2003.00,-0.0013
2002.00,-0.0012
2001.00,-0.0011
2000.00,-0.0009
1999.00,-0.0007
1998.00,-0.0005
1997.00,-0.0004
1996.00,-0.0004
1995.00,-0.0005
1994.00,-0.0004
1993.00,-0.0003
1992.00,-0.0002
1991.00,-0.0001
1990.00,-0.0000
1989.00,0.0001
1988.00,0.0001
1987.00,0.0001
1986.00,0.0001
1985.00,0.0000
1984.00,0.0001
1983.00,0.0002
1982.00,0.0006
1981.00,0.0011
1980.00,0.0014
1979.00,0.0011
1978.00,0.0003
1977.00,-0.0006
1976.00,-0.0013
1975.00,-0.0015
1974.00,-0.0016
1973.00,-0.0016
1972.00,-0.0017
1971.00,-0.0018
1970.00,-0.0017
1969.00,-0.0015
1968.00,-0.0011
1967.00,-0.0008
1966.00,-0.0007
1965.00,-0.0009
1964.00,-0.0011
1963.00,-0.0013
1962.00,-0.0013
1961.00,-0.0012
1960.00,-0.0010
1959.00,-0.0010
1958.00,-0.0011
1957.00,-0.0011
1956.00,-0.0011
1955.00,-0.0011
1954.00,-0.0010
1953.00,-0.0010
1952.00,-0.0011
1951.00,-0.0014
1950.00,-0.0017
1949.00,-0.0018
1948.00,-0.0019
1947.00,-0.0018
1946.00,-0.0018
1945.00,-0.0018
1944.00,-0.0017
1943.00,-0.0015
1942.00,-0.0013
1941.00,-0.0011
1940.00,-0.0010
1939.00,-0.0010
1938.00,-0.0010
1937.00,-0.0010
1936.00,-0.0010
1935.00,-0.0009
1934.00,-0.0007
1933.00,-0.0006
1932.00,-0.0005
1931.00,-0.0005
1930.00,-0.0005
1929.00,-0.0005
1928.00,-0.0005
1927.00,-0.0005
1926.00,-0.0005
1925.00,-0.0005
1924.00,-0.0006
1923.00,-0.0006
1922.00,-0.0006
1921.00,-0.0004
1920.00,-0.0003
1919.00,-0.0002
1918.00,-0.0001
1917.00,-0.0001
1916.00,-0.0001
1915.00,-0.0001
1914.00,-0.0001
1913.00,-0.0001
1912.00,-0.0001
1911.00,-0.0001
1910.00,-0.0001
1909.00,-0.0000
1908.00,0.0001
1907.00,0.0001
1906.00,0.0001
1905.00,0.0000
1904.00,0.0000
1903.00,0.0000
1902.00,0.0001
1901.00,0.0001
1900.00,0.0001
1899.00,0.0001
1898.00,0.0001
1897.00,0.0000
1896.00,0.0000
1895.00,0.0000
1894.00,0.0000
1893.00,0.0000
1892.00,-0.0000
1891.00,-0.0000
1890.00,-0.0000
1889.00,0.0001
1888.00,0.0001
1887.00,0.0001
1886.00,-0.0000
1885.00,-0.0001
1884.00,-0.0001
1883.00,-0.0001
1882.00,-0.0000
1881.00,0.0000
1880.00,0.0000
1879.00,0.0001
1878.00,0.0000
1877.00,0.0000
1876.00,0.0000
1875.00,0.0000
1874.00,0.0001
1873.00,0.0001
1872.00,0.0002
1871.00,0.0003
1870.00,0.0004
1869.00,0.0004
1868.00,0.0004
1867.00,0.0003
1866.00,0.0003
1865.00,0.0003
1864.00,0.0002
1863.00,0.0002
1862.00,0.0001
1861.00,0.0001
1860.00,0.0001
1859.00,0.0001
1858.00,0.0001
1857.00,0.0001
1856.00,0.0001
1855.00,0.0001
1854.00,0.0001
1853.00,0.0002
1852.00,0.0003
1851.00,0.0004
1850.00,0.0004
1849.00,0.0004
1848.00,0.0004
1847.00,0.0003
1846.00,0.0002
1845.00,0.0001
1844.00,0.0001
1843.00,0.0002
1842.00,0.0003
1841.00,0.0004
1840.00,0.0004
1839.00,0.0005
1838.00,0.0005
1837.00,0.0005
1836.00,0.0006
1835.00,0.0006
1834.00,0.0006
1833.00,0.0006
1832.00,0.0006
1831.00,0.0006
1830.00,0.0006
1829.00,0.0006
1828.00,0.0006
1827.00,0.0006
1826.00,0.0006
1825.00,0.0006
1824.00,0.0006
1823.00,0.0006
1822.00,0.0006
1821.00,0.0005
1820.00,0.0004
1819.00,0.0003
1818.00,0.0002
1817.00,0.0002
1816.00,0.0003
1815.00,0.0004
1814.00,0.0004
1813.00,0.0005
1812.00,0.0005
1811.00,0.0006
1810.00,0.0006
1809.00,0.0006
1808.00,0.0007
1807.00,0.0007
1806.00,0.0007
1805.00,0.0007
1804.00,0.0007
1803.00,0.0007
1802.00,0.0008
1801.00,0.0008
1800.00,0.0008
1799.00,0.0008
1798.00,0.0008
1797.00,0.0008
1796.00,0.0009
1795.00,0.0009
1794.00,0.0009
1793.00,0.0009
1792.00,0.0009
1791.00,0.0010
1790.00,0.0010
1789.00,0.0009
1788.00,0.0009
1787.00,0.0009
1786.00,0.0010
1785.00,0.0010
1784.00,0.0011
1783.00,0.0012
1782.00,0.0012
1781.00,0.0013
1780.00,0.0013
1779.00,0.0012
1778.00,0.0011
1777.00,0.0011
1776.00,0.0011
1775.00,0.0011
1774.00,0.0011
1773.00,0.0011
1772.00,0.0012
1771.00,0.0014
1770.00,0.0015
1769.00,0.0015
1768.00,0.0015
1767.00,0.0016
1766.00,0.0016
1765.00,0.0016
1764.00,0.0016
1763.00,0.0016
1762.00,0.0016
1761.00,0.0016
1760.00,0.0017
1759.00,0.0017
1758.00,0.0018
1757.00,0.0019
1756.00,0.0019
1755.00,0.0019
1754.00,0.0019
1753.00,0.0020
1752.00,0.0021
1751.00,0.0022
1750.00,0.0024
1749.00,0.0026
1748.00,0.0027
1747.00,0.0028
1746.00,0.0030
1745.00,0.0031
1744.00,0.0033
1743.00,0.0035
1742.00,0.0036
1741.00,0.0037
1740.00,0.0038
1739.00,0.0039
1738.00,0.0040
1737.00,0.0040
1736.00,0.0041
1735.00,0.0040
1734.00,0.0041
1733.00,0.0041
1732.00,0.0041
1731.00,0.0041
1730.00,0.0040
1729.00,0.0040
1728.00,0.0039
1727.00,0.0039
1726.00,0.0038
1725.00,0.0038
1724.00,0.0037
1723.00,0.0037
1722.00,0.0037
1721.00,0.0036
1720.00,0.0036
1719.00,0.0036
1718.00,0.0035
1717.00,0.0034
1716.00,0.0035
1715.00,0.0035
1714.00,0.0035
1713.00,0.0035
1712.00,0.0036
1711.00,0.0036
1710.00,0.0036
1709.00,0.0036
1708.00,0.0037
1707.00,0.0037
1706.00,0.0037
1705.00,0.0039
1704.00,0.0040
1703.00,0.0041
1702.00,0.0042
1701.00,0.0042
1700.00,0.0043
1699.00,0.0043
1698.00,0.0043
1697.00,0.0044
1696.00,0.0046
1695.00,0.0047
1694.00,0.0048
1693.00,0.0050
1692.00,0.0052
1691.00,0.0053
1690.00,0.0054
1689.00,0.0056
1688.00,0.0057
1687.00,0.0058
1686.00,0.0059
1685.00,0.0061
1684.00,0.0065
1683.00,0.0069
1682.00,0.0071
1681.00,0.0072
1680.00,0.0075
1679.00,0.0077
1678.00,0.0079
1677.00,0.0081
1676.00,0.0084
1675.00,0.0086
1674.00,0.0089
1673.00,0.0091
1672.00,0.0093
1671.00,0.0095
1670.00,0.0097
1669.00,0.0099
1668.00,0.0100
1667.00,0.0101
1666.00,0.0101
1665.00,0.0102
1664.00,0.0102
1663.00,0.0104
1662.00,0.0106
1661.00,0.0108
1660.00,0.0110
1659.00,0.0111
1658.00,0.0112
1657.00,0.0113
1656.00,0.0115
1655.00,0.0115
1654.00,0.0116
1653.00,0.0120
1652.00,0.0123
1651.00,0.0123
1650.00,0.0124
1649.00,0.0125
1648.00,0.0127
1647.00,0.0129
1646.00,0.0131
1645.00,0.0132
1644.00,0.0133
1643.00,0.0133
1642.00,0.0134
1641.00,0.0135
1640.00,0.0136
1639.00,0.0136
1638.00,0.0136
1637.00,0.0137
1636.00,0.0138
1635.00,0.0139
1634.00,0.0139
1633.00,0.0138
1632.00,0.0138
1631.00,0.0137
1630.00,0.0136
1629.00,0.0136
1628.00,0.0137
1627.00,0.0137
1626.00,0.0137
1625.00,0.0136
1624.00,0.0136
1623.00,0.0135
1622.00,0.0135
1621.00,0.0135
1620.00,0.0135
1619.00,0.0134
1618.00,0.0134
1617.00,0.0134
1616.00,0.0134
1615.00,0.0134
1614.00,0.0134
1613.00,0.0134
1612.00,0.0133
1611.00,0.0133
1610.00,0.0133
1609.00,0.0133
1608.00,0.0134
1607.00,0.0133
1606.00,0.0133
1605.00,0.0133
1604.00,0.0133
1603.00,0.0132
1602.00,0.0131
1601.00,0.0131
1600.00,0.0130
1599.00,0.0128
1598.00,0.0127
1597.00,0.0127
1596.00,0.0126
1595.00,0.0125
1594.00,0.0123
1593.00,0.0122
1592.00,0.0121
1591.00,0.0120
1590.00,0.0119
1589.00,0.0119
1588.00,0.0119
1587.00,0.0119
1586.00,0.0119
1585.00,0.0119
1584.00,0.0119
1583.00,0.0119
1582.00,0.0119
1581.00,0.0119
1580.00,0.0120
1579.00,0.0120
1578.00,0.0120
1577.00,0.0120
1576.00,0.0120
1575.00,0.0119
1574.00,0.0119
1573.00,0.0119
1572.00,0.0119
1571.00,0.0118
1570.00,0.0118
1569.00,0.0119
1568.00,0.0119
1567.00,0.0120
1566.00,0.0120
1565.00,0.0121
1564.00,0.0122
1563.00,0.0122
1562.00,0.0123
1561.00,0.0123
1560.00,0.0125
1559.00,0.0130
1558.00,0.0134
1557.00,0.0135
1556.00,0.0136
1555.00,0.0137
1554.00,0.0139
1553.00,0.0140
1552.00,0.0141
1551.00,0.0141
1550.00,0.0142
1549.00,0.0143
1548.00,0.0144
1547.00,0.0144
1546.00,0.0144
1545.00,0.0144
1544.00,0.0145
1543.00,0.0144
1542.00,0.0143
1541.00,0.0141
1540.00,0.0139
1539.00,0.0137
1538.00,0.0134
1537.00,0.0131
1536.00,0.0129
1535.00,0.0126
1534.00,0.0122
1533.00,0.0118
1532.00,0.0115
1531.00,0.0112
1530.00,0.0109
1529.00,0.0107
1528.00,0.0105
1527.00,0.0103
1526.00,0.0101
1525.00,0.0099
1524.00,0.0098
1523.00,0.0097
1522.00,0.0095
1521.00,0.0094
1520.00,0.0094
1519.00,0.0093
1518.00,0.0092
1517.00,0.0091
1516.00,0.0091
1515.00,0.0090
1514.00,0.0089
1513.00,0.0089
1512.00,0.0090
1511.00,0.0091
1510.00,0.0091
1509.00,0.0092
1508.00,0.0093
1507.00,0.0094
1506.00,0.0095
1505.00,0.0095
1504.00,0.0097
1503.00,0.0098
1502.00,0.0101
1501.00,0.0105
1500.00,0.0110
1499.00,0.0115
1498.00,0.0121
1497.00,0.0129
1496.00,0.0137
1495.00,0.0145
1494.00,0.0151
1493.00,0.0157
1492.00,0.0163
1491.00,0.0169
1490.00,0.0175
1489.00,0.0181
1488.00,0.0186
1487.00,0.0190
1486.00,0.0193
1485.00,0.0198
1484.00,0.0203
1483.00,0.0209
1482.00,0.0216
1481.00,0.0225
1480.00,0.0236
1479.00,0.0246
1478.00,0.0260
1477.00,0.0278
1476.00,0.0299
1475.00,0.0324
1474.00,0.0357
1473.00,0.0409
1472.00,0.0474
1471.00,0.0538
1470.00,0.0598
1469.00,0.0660
1468.00,0.0726
1467.00,0.0796
1466.00,0.0877
1465.00,0.0964
1464.00,0.1043
1463.00,0.1099
1462.00,0.1138
1461.00,0.1168
1460.00,0.1190
1459.00,0.1207
1458.00,0.1221
1457.00,0.1235
1456.00,0.1240
1455.00,0.1237
1454.00,0.1229
1453.00,0.1215
1452.00,0.1191
1451.00,0.1155
1450.00,0.1105
1449.00,0.1034
1448.00,0.0945
1447.00,0.0850
1446.00,0.0764
1445.00,0.0690
1444.00,0.0627
1443.00,0.0576
1442.00,0.0538
1441.00,0.0512
1440.00,0.0496
1439.00,0.0490
1438.00,0.0489
1437.00,0.0489
1436.00,0.0476
1435.00,0.0449
1434.00,0.0411
1433.00,0.0366
1432.00,0.0320
1431.00,0.0280
1430.00,0.0249
1429.00,0.0226
1428.00,0.0211
1427.00,0.0202
1426.00,0.0196
1425.00,0.0191
1424.00,0.0186
1423.00,0.0184
1422.00,0.0184
1421.00,0.0182
1420.00,0.0180
1419.00,0.0179
1418.00,0.0179
1417.00,0.0176
1416.00,0.0172
1415.00,0.0169
1414.00,0.0167
1413.00,0.0165
1412.00,0.0163
1411.00,0.0161
1410.00,0.0160
1409.00,0.0159
1408.00,0.0157
1407.00,0.0157
1406.00,0.0157
1405.00,0.0157
1404.00,0.0156
1403.00,0.0156
1402.00,0.0157
1401.00,0.0158
1400.00,0.0159
1399.00,0.0160
1398.00,0.0162
1397.00,0.0163
1396.00,0.0165
1395.00,0.0168
1394.00,0.0172
1393.00,0.0177
1392.00,0.0182
1391.00,0.0189
1390.00,0.0200
1389.00,0.0216
1388.00,0.0239
1387.00,0.0275
1386.00,0.0323
1385.00,0.0382
1384.00,0.0460
1383.00,0.0565
1382.00,0.0704
1381.00,0.0882
1380.00,0.1103
1379.00,0.1357
1378.00,0.1607
1377.00,0.1798
1376.00,0.1875
1375.00,0.1801
1374.00,0.1595
1373.00,0.1335
1372.00,0.1090
1371.00,0.0884
1370.00,0.0719
1369.00,0.0591
1368.00,0.0503
1367.00,0.0448
1366.00,0.0419
1365.00,0.0407
1364.00,0.0410
1363.00,0.0424
1362.00,0.0445
1361.00,0.0467
1360.00,0.0483
1359.00,0.0487
1358.00,0.0477
1357.00,0.0451
1356.00,0.0414
1355.00,0.0373
1354.00,0.0333
1353.00,0.0300
1352.00,0.0273
1351.00,0.0251
1350.00,0.0233
1349.00,0.0219
1348.00,0.0208
1347.00,0.0199
1346.00,0.0192
1345.00,0.0187
1344.00,0.0181
1343.00,0.0176
1342.00,0.0171
1341.00,0.0166
1340.00,0.0163
1339.00,0.0160
1338.00,0.0157
1337.00,0.0155
1336.00,0.0154
1335.00,0.0155
1334.00,0.0157
1333.00,0.0161
1332.00,0.0165
1331.00,0.0168
1330.00,0.0169
1329.00,0.0167
1328.00,0.0164
1327.00,0.0159
1326.00,0.0153
1325.00,0.0147
1324.00,0.0141
1323.00,0.0136
1322.00,0.0132
1321.00,0.0129
1320.00,0.0126
1319.00,0.0124
1318.00,0.0122
1317.00,0.0120
1316.00,0.0119
1315.00,0.0118
1314.00,0.0118
1313.00,0.0119
1312.00,0.0120
1311.00,0.0122
1310.00,0.0126
1309.00,0.0133
1308.00,0.0142
1307.00,0.0153
1306.00,0.0164
1305.00,0.0172
1304.00,0.0175
1303.00,0.0173
1302.00,0.0168
1301.00,0.0164
1300.00,0.0161
1299.00,0.0160
1298.00,0.0160
1297.00,0.0160
1296.00,0.0159
1295.00,0.0156
1294.00,0.0152
1293.00,0.0148
1292.00,0.0142
1291.00,0.0137
1290.00,0.0132
1289.00,0.0128
1288.00,0.0124
1287.00,0.0121
1286.00,0.0119
1285.00,0.0117
1284.00,0.0116
1283.00,0.0114
1282.00,0.0112
1281.00,0.0111
1280.00,0.0110
1279.00,0.0109
1278.00,0.0109
1277.00,0.0108
1276.00,0.0107
1275.00,0.0107
1274.00,0.0107
1273.00,0.0107
1272.00,0.0108
1271.00,0.0108
1270.00,0.0109
1269.00,0.0110
1268.00,0.0112
1267.00,0.0114
1266.00,0.0116
1265.00,0.0119
1264.00,0.0123
1263.00,0.0127
1262.00,0.0131
1261.00,0.0136
1260.00,0.0142
1259.00,0.0149
1258.00,0.0156
1257.00,0.0162
1256.00,0.0166
1255.00,0.0165
1254.00,0.0160
1253.00,0.0153
1252.00,0.0145
1251.00,0.0139
1250.00,0.0134
1249.00,0.0131
1248.00,0.0129
1247.00,0.0127
1246.00,0.0125
1245.00,0.0123
1244.00,0.0122
1243.00,0.0121
1242.00,0.0121
1241.00,0.0120
1240.00,0.0119
1239.00,0.0117
1238.00,0.0115
1237.00,0.0114
1236.00,0.0113
1235.00,0.0112
1234.00,0.0112
1233.00,0.0111
1232.00,0.0111
1231.00,0.0112
1230.00,0.0112
1229.00,0.0113
1228.00,0.0114
1227.00,0.0115
1226.00,0.0118
1225.00,0.0121
1224.00,0.0124
1223.00,0.0128
1222.00,0.0131
1221.00,0.0134
1220.00,0.0136
1219.00,0.0137
1218.00,0.0137
1217.00,0.0136
1216.00,0.0133
1215.00,0.0130
1214.00,0.0127
1213.00,0.0123
1212.00,0.0119
1211.00,0.0116
1210.00,0.0114
1209.00,0.0111
1208.00,0.0109
1207.00,0.0107
1206.00,0.0106
1205.00,0.0105
1204.00,0.0105
1203.00,0.0105
1202.00,0.0106
1201.00,0.0105
1200.00,0.0105
1199.00,0.0104
1198.00,0.0104
1197.00,0.0104
1196.00,0.0104
1195.00,0.0105
1194.00,0.0106
1193.00,0.0106
1192.00,0.0106
1191.00,0.0105
1190.00,0.0105
1189.00,0.0105
1188.00,0.0105
1187.00,0.0106
1186.00,0.0107
1185.00,0.0107
1184.00,0.0108
1183.00,0.0109
1182.00,0.0111
1181.00,0.0114
1180.00,0.0118
1179.00,0.0122
1178.00,0.0129
1177.00,0.0137
1176.00,0.0149
1175.00,0.0164
1174.00,0.0184
1173.00,0.0208
1172.00,0.0237
1171.00,0.0269
1170.00,0.0300
1169.00,0.0326
1168.00,0.0342
1167.00,0.0347
1166.00,0.0341
1165.00,0.0329
1164.00,0.0313
1163.00,0.0298
1162.00,0.0284
1161.00,0.0272
1160.00,0.0263
1159.00,0.0256
1158.00,0.0251
1157.00,0.0247
1156.00,0.0245
1155.00,0.0243
1154.00,0.0242
1153.00,0.0241
1152.00,0.0239
1151.00,0.0235
1150.00,0.0229
1149.00,0.0222
1148.00,0.0215
1147.00,0.0207
1146.00,0.0200
1145.00,0.0194
1144.00,0.0188
1143.00,0.0183
1142.00,0.0177
1141.00,0.0173
1140.00,0.0169
1139.00,0.0166
1138.00,0.0164
1137.00,0.0162
1136.00,0.0160
1135.00,0.0159
1134.00,0.0158
1133.00,0.0157
1132.00,0.0157
1131.00,0.0158
1130.00,0.0160
1129.00,0.0163
1128.00,0.0167
1127.00,0.0171
1126.00,0.0174
1125.00,0.0177
1124.00,0.0181
1123.00,0.0184
1122.00,0.0188
1121.00,0.0191
1120.00,0.0193
1119.00,0.0194
1118.00,0.0194
1117.00,0.0194
1116.00,0.0194
1115.00,0.0195
1114.00,0.0195
1113.00,0.0196
1112.00,0.0197
1111.00,0.0198
1110.00,0.0200
1109.00,0.0203
1108.00,0.0208
1107.00,0.0214
1106.00,0.0220
1105.00,0.0227
1104.00,0.0232
1103.00,0.0234
1102.00,0.0233
1101.00,0.0229
1100.00,0.0223
1099.00,0.0216
1098.00,0.0209
1097.00,0.0203
1096.00,0.0197
1095.00,0.0193
1094.00,0.0188
1093.00,0.0184
1092.00,0.0181
1091.00,0.0177
1090.00,0.0174
1089.00,0.0171
1088.00,0.0168
1087.00,0.0166
1086.00,0.0165
1085.00,0.0164
1084.00,0.0162
1083.00,0.0159
1082.00,0.0157
1081.00,0.0155
1080.00,0.0154
1079.00,0.0152
1078.00,0.0150
1077.00,0.0147
1076.00,0.0145
1075.00,0.0143
1074.00,0.0141
1073.00,0.0140
1072.00,0.0139
1071.00,0.0139
1070.00,0.0139
1069.00,0.0139
1068.00,0.0138
1067.00,0.0137
1066.00,0.0135
1065.00,0.0134
1064.00,0.0134
1063.00,0.0135
1062.00,0.0135
1061.00,0.0135
1060.00,0.0135
1059.00,0.0135
1058.00,0.0135
1057.00,0.0135
1056.00,0.0134
1055.00,0.0133
1054.00,0.0133
1053.00,0.0134
1052.00,0.0136
1051.00,0.0137
1050.00,0.0140
1049.00,0.0142
1048.00,0.0145
1047.00,0.0148
1046.00,0.0149
1045.00,0.0150
1044.00,0.0149
1043.00,0.0148
1042.00,0.0146
1041.00,0.0145
1040.00,0.0143
1039.00,0.0142
1038.00,0.0142
1037.00,0.0143
1036.00,0.0143
1035.00,0.0143
1034.00,0.0142
1033.00,0.0141
1032.00,0.0139
1031.00,0.0138
1030.00,0.0137
1029.00,0.0136
1028.00,0.0134
1027.00,0.0133
1026.00,0.0133
1025.00,0.0132
1024.00,0.0131
1023.00,0.0131
1022.00,0.0130
1021.00,0.0129
1020.00,0.0129
1019.00,0.0130
1018.00,0.0131
1017.00,0.0133
1016.00,0.0135
1015.00,0.0138
1014.00,0.0141
1013.00,0.0144
1012.00,0.0147
1011.00,0.0149
1010.00,0.0152
1009.00,0.0156
1008.00,0.0160
1007.00,0.0167
1006.00,0.0175
1005.00,0.0186
1004.00,0.0202
1003.00,0.0223
1002.00,0.0250
1001.00,0.0284
1000.00,0.0319
999.00,0.0348
998.00,0.0363
997.00,0.0357
996.00,0.0332
995.00,0.0295
994.00,0.0256
993.00,0.0221
992.00,0.0193
991.00,0.0172
990.00,0.0158
989.00,0.0148
988.00,0.0142
987.00,0.0139
986.00,0.0138
985.00,0.0139
984.00,0.0143
983.00,0.0151
982.00,0.0162
981.00,0.0177
980.00,0.0198
979.00,0.0225
978.00,0.0260
977.00,0.0301
976.00,0.0345
975.00,0.0387
974.00,0.0419
973.00,0.0431
972.00,0.0420
971.00,0.0385
970.00,0.0337
969.00,0.0287
968.00,0.0243
967.00,0.0209
966.00,0.0185
965.00,0.0167
964.00,0.0153
963.00,0.0143
962.00,0.0135
961.00,0.0129
960.00,0.0124
959.00,0.0119
958.00,0.0116
957.00,0.0113
956.00,0.0111
955.00,0.0108
954.00,0.0107
953.00,0.0105
952.00,0.0104
951.00,0.0103
950.00,0.0103
949.00,0.0103
948.00,0.0104
947.00,0.0106
946.00,0.0109
945.00,0.0111
944.00,0.0114
943.00,0.0117
942.00,0.0120
941.00,0.0121
940.00,0.0120
939.00,0.0117
938.00,0.0113
937.00,0.0109
936.00,0.0106
935.00,0.0103
934.00,0.0100
933.00,0.0097
932.00,0.0096
931.00,0.0095
930.00,0.0096
929.00,0.0096
928.00,0.0095
927.00,0.0094
926.00,0.0093
925.00,0.0093
924.00,0.0093
923.00,0.0094
922.00,0.0095
921.00,0.0096
920.00,0.0097
919.00,0.0099
918.00,0.0100
917.00,0.0101
916.00,0.0101
915.00,0.0102
914.00,0.0103
913.00,0.0103
912.00,0.0104
911.00,0.0104
910.00,0.0105
909.00,0.0107
908.00,0.0110
907.00,0.0115
906.00,0.0122
905.00,0.0132
904.00,0.0146
903.00,0.0164
902.00,0.0184
901.00,0.0202
900.00,0.0215
899.00,0.0219
898.00,0.0212
897.00,0.0197
896.00,0.0178
895.00,0.0159
894.00,0.0142
893.00,0.0130
892.00,0.0121
891.00,0.0115
890.00,0.0111
889.00,0.0108
888.00,0.0106
887.00,0.0104
886.00,0.0103
885.00,0.0102
884.00,0.0103
883.00,0.0103
882.00,0.0103
881.00,0.0104
880.00,0.0105
879.00,0.0106
878.00,0.0108
877.00,0.0109
876.00,0.0110
875.00,0.0110
874.00,0.0110
873.00,0.0109
872.00,0.0108
871.00,0.0107
870.00,0.0106
869.00,0.0105
868.00,0.0105
867.00,0.0105
866.00,0.0105
865.00,0.0106
864.00,0.0106
863.00,0.0107
862.00,0.0107
861.00,0.0108
860.00,0.0108
859.00,0.0109
858.00,0.0110
857.00,0.0110
856.00,0.0110
855.00,0.0111
854.00,0.0112
853.00,0.0115
852.00,0.0119
851.00,0.0124
850.00,0.0129
849.00,0.0136
848.00,0.0144
847.00,0.0157
846.00,0.0179
845.00,0.0213
844.00,0.0257
843.00,0.0304
842.00,0.0340
841.00,0.0349
840.00,0.0328
839.00,0.0287
838.00,0.0242
837.00,0.0205
836.00,0.0181
835.00,0.0166
834.00,0.0156
833.00,0.0149
832.00,0.0145
831.00,0.0141
830.00,0.0139
829.00,0.0136
828.00,0.0134
827.00,0.0133
826.00,0.0134
825.00,0.0134
824.00,0.0133
823.00,0.0131
822.00,0.0129
821.00,0.0128
820.00,0.0129
819.00,0.0132
818.00,0.0137
817.00,0.0143
816.00,0.0151
815.00,0.0162
814.00,0.0176
813.00,0.0193
812.00,0.0211
811.00,0.0227
810.00,0.0238
809.00,0.0244
808.00,0.0243
807.00,0.0235
806.00,0.0221
805.00,0.0205
804.00,0.0188
803.00,0.0175
802.00,0.0164
801.00,0.0156
800.00,0.0148
799.00,0.0141
798.00,0.0136
797.00,0.0132
796.00,0.0129
795.00,0.0126
794.00,0.0124
793.00,0.0121
792.00,0.0119
791.00,0.0117
790.00,0.0116
789.00,0.0116
788.00,0.0115
787.00,0.0114
786.00,0.0113
785.00,0.0111
784.00,0.0109
783.00,0.0108
782.00,0.0107
781.00,0.0105
780.00,0.0103
779.00,0.0101
778.00,0.0100
777.00,0.0100
776.00,0.0101
775.00,0.0103
774.00,0.0105
773.00,0.0107
772.00,0.0108
771.00,0.0109
770.00,0.0111
769.00,0.0112
768.00,0.0113
767.00,0.0113
766.00,0.0111
765.00,0.0108
764.00,0.0105
763.00,0.0104
762.00,0.0103
761.00,0.0102
760.00,0.0101
759.00,0.0100
758.00,0.0099
757.00,0.0097
756.00,0.0096
755.00,0.0094
754.00,0.0093
753.00,0.0093
752.00,0.0094
751.00,0.0094
750.00,0.0094
749.00,0.0095
748.00,0.0096
747.00,0.0097
746.00,0.0099
745.00,0.0100
744.00,0.0102
743.00,0.0105
742.00,0.0107
741.00,0.0109
740.00,0.0112
739.00,0.0116
738.00,0.0121
737.00,0.0126
736.00,0.0129
735.00,0.0132
734.00,0.0135
733.00,0.0139
732.00,0.0142
731.00,0.0145
730.00,0.0146
729.00,0.0146
728.00,0.0145
727.00,0.0145
726.00,0.0144
725.00,0.0144
724.00,0.0145
723.00,0.0144
722.00,0.0143
721.00,0.0141
720.00,0.0138
719.00,0.0134
718.00,0.0130
717.00,0.0125
716.00,0.0121
715.00,0.0120
714.00,0.0119
713.00,0.0118
712.00,0.0118
711.00,0.0117
710.00,0.0119
709.00,0.0122
708.00,0.0127
707.00,0.0131
706.00,0.0134
705.00,0.0135
704.00,0.0132
703.00,0.0128
702.00,0.0123
701.00,0.0119
700.00,0.0114
699.00,0.0111
698.00,0.0107
697.00,0.0104
696.00,0.0102
695.00,0.0099
694.00,0.0098
693.00,0.0098
692.00,0.0098
691.00,0.0099
690.00,0.0101
689.00,0.0102
688.00,0.0102
687.00,0.0100
686.00,0.0098
685.00,0.0097
684.00,0.0096
683.00,0.0097
682.00,0.0098
681.00,0.0100
680.00,0.0101
679.00,0.0102
678.00,0.0102
677.00,0.0103
676.00,0.0104
675.00,0.0104
674.00,0.0103
673.00,0.0101
672.00,0.0101
671.00,0.0103
670.00,0.0107
669.00,0.0109
668.00,0.0109
667.00,0.0107
666.00,0.0105
665.00,0.0104
664.00,0.0103
663.00,0.0103
662.00,0.0102
661.00,0.0103
660.00,0.0105
659.00,0.0106
658.00,0.0107
657.00,0.0108
656.00,0.0108
655.00,0.0108
654.00,0.0106
653.00,0.0104
652.00,0.0103
651.00,0.0103
650.00,0.0104
649.00,0.0105
648.00,0.0105
647.00,0.0105
646.00,0.0104
645.00,0.0104
644.00,0.0104
643.00,0.0106
642.00,0.0107
641.00,0.0108
640.00,0.0108
639.00,0.0108
638.00,0.0107
637.00,0.0105
636.00,0.0104
635.00,0.0104
634.00,0.0104
633.00,0.0104
632.00,0.0103
631.00,0.0102
630.00,0.0103
629.00,0.0106
628.00,0.0109
627.00,0.0111
626.00,0.0111
625.00,0.0111
624.00,0.0111
623.00,0.0112
622.00,0.0112
621.00,0.0110
620.00,0.0110
619.00,0.0112
618.00,0.0117
617.00,0.0122
616.00,0.0124
615.00,0.0123
614.00,0.0120
613.00,0.0118
612.00,0.0116
611.00,0.0114
610.00,0.0113
609.00,0.0114
608.00,0.0116
607.00,0.0117
606.00,0.0116
605.00,0.0113
604.00,0.0110
603.00,0.0109
602.00,0.0109
601.00,0.0109
600.00,0.0110
599.00,0.0111
598.00,0.0111
597.00,0.0111
596.00,0.0113
595.00,0.0114
594.00,0.0115
593.00,0.0115
592.00,0.0115
591.00,0.0114
590.00,0.0114
589.00,0.0114
588.00,0.0115
587.00,0.0117
586.00,0.0118
585.00,0.0119
584.00,0.0117
583.00,0.0114
582.00,0.0111
581.00,0.0110
580.00,0.0110
579.00,0.0113
578.00,0.0115
577.00,0.0115
576.00,0.0114
575.00,0.0113
574.00,0.0114
573.00,0.0115
572.00,0.0115
571.00,0.0113
570.00,0.0111
569.00,0.0111
568.00,0.0113
567.00,0.0115
566.00,0.0117
565.00,0.0116
564.00,0.0114
563.00,0.0113
562.00,0.0113
561.00,0.0114
560.00,0.0115
559.00,0.0117
558.00,0.0119
557.00,0.0119
556.00,0.0116
555.00,0.0112
554.00,0.0109
553.00,0.0107
552.00,0.0109
551.00,0.0112
550.00,0.0116
549.00,0.0118
548.00,0.0117
547.00,0.0116
546.00,0.0116
545.00,0.0117
544.00,0.0116
543.00,0.0116
542.00,0.0117
541.00,0.0119
540.00,0.0120
539.00,0.0123
538.00,0.0127
537.00,0.0132
536.00,0.0135
535.00,0.0134
534.00,0.0131
533.00,0.0128
532.00,0.0128
531.00,0.0130
530.00,0.0132
529.00,0.0134
528.00,0.0133
527.00,0.0132
526.00,0.0132
525.00,0.0134
524.00,0.0134
523.00,0.0131
522.00,0.0124
521.00,0.0117
520.00,0.0114
519.00,0.0114
518.00,0.0115
517.00,0.0115
516.00,0.0114
515.00,0.0113
514.00,0.0113
513.00,0.0114
512.00,0.0115
511.00,0.0113
510.00,0.0110
509.00,0.0106
508.00,0.0103
507.00,0.0102
506.00,0.0102
505.00,0.0101
504.00,0.0099
503.00,0.0097
502.00,0.0094
501.00,0.0091
500.00,0.0089
499.00,0.0090
498.00,0.0093
497.00,0.0099
496.00,0.0102
495.00,0.0103
494.00,0.0101
493.00,0.0099
492.00,0.0098
491.00,0.0099
490.00,0.0098
489.00,0.0098
488.00,0.0100
487.00,0.0106
486.00,0.0114
485.00,0.0119
484.00,0.0121
483.00,0.0118
482.00,0.0114
481.00,0.0110
480.00,0.0109
479.00,0.0113
478.00,0.0121
477.00,0.0127
476.00,0.0126
475.00,0.0117
474.00,0.0105
473.00,0.0098
472.00,0.0096
471.00,0.0102
470.00,0.0112
469.00,0.0124
468.00,0.0135
467.00,0.0143
466.00,0.0148
465.00,0.0150
464.00,0.0148
463.00,0.0147
462.00,0.0151
461.00,0.0163
460.00,0.0180
459.00,0.0194
458.00,0.0200
457.00,0.0197
456.00,0.0189
455.00,0.0182
454.00,0.0177
453.00,0.0175
452.00,0.0171
451.00,0.0162
450.00,0.0146
