Created as New Dataset,Sample 038 By Administrator Date Wednesday, September 10 2025
cm-1,A
4000.00,0.0008
3999.00,0.0008
3998.00,0.0008
3997.00,0.0008
3996.00,0.0008
3995.00,0.0007
3994.00,0.0007
3993.00,0.0007
3992.00,0.0007
3991.00,0.0008
3990.00,0.0008
3989.00,0.0008
3988.00,0.0008
3987.00,0.0008
3986.00,0.0008
3985.00,0.0008
3984.00,0.0007
3983.00,0.0007
3982.00,0.0007
3981.00,0.0007
3980.00,0.0007
3979.00,0.0007
3978.00,0.0006
3977.00,0.0006
3976.00,0.0006
3975.00,0.0006
3974.00,0.0006
3973.00,0.0006
3972.00,0.0006
3971.00,0.0006
3970.00,0.0006
3969.00,0.0005
3968.00,0.0005
3967.00,0.0005
3966.00,0.0005
3965.00,0.0006
3964.00,0.0006
3963.00,0.0006
3962.00,0.0006
3961.00,0.0006
3960.00,0.0006
3959.00,0.0006
3958.00,0.0006
3957.00,0.0006
3956.00,0.0006
3955.00,0.0006
3954.00,0.0005
3953.00,0.0005
3952.00,0.0005
3951.00,0.0005
3950.00,0.0005
3949.00,0.0005
3948.00,0.0006
3947.00,0.0006
3946.00,0.0006
3945.00,0.0006
3944.00,0.0005
3943.00,0.0005
3942.00,0.0005
3941.00,0.0006
3940.00,0.0006
3939.00,0.0006
3938.00,0.0006
3937.00,0.0006
3936.00,0.0007
3935.00,0.0007
3934.00,0.0007
3933.00,0.0006
3932.00,0.0006
3931.00,0.0006
3930.00,0.0006
3929.00,0.0006
3928.00,0.0006
3927.00,0.0006
3926.00,0.0007
3925.00,0.0007
3924.00,0.0007
3923.00,0.0007
3922.00,0.0007
3921.00,0.0007
3920.00,0.0006
3919.00,0.0006
3918.00,0.0006
3917.00,0.0006
3916.00,0.0006
3915.00,0.0006
3914.00,0.0006
3913.00,0.0006
3912.00,0.0005
3911.00,0.0005
3910.00,0.0006
3909.00,0.0006
3908.00,0.0006
3907.00,0.0006
3906.00,0.0006
3905.00,0.0006
3904.00,0.0006
3903.00,0.0005
3902.00,0.0005
3901.00,0.0005
3900.00,0.0005
3899.00,0.0005
3898.00,0.0005
3897.00,0.0006
3896.00,0.0006
3895.00,0.0006
3894.00,0.0007
3893.00,0.0006
3892.00,0.0006
3891.00,0.0006
3890.00,0.0006
3889.00,0.0006
3888.00,0.0006
3887.00,0.0005
3886.00,0.0005
3885.00,0.0006
3884.00,0.0006
3883.00,0.0006
3882.00,0.0006
3881.00,0.0006
3880.00,0.0006
3879.00,0.0006
3878.00,0.0006
3877.00,0.0006
3876.00,0.0006
3875.00,0.0006
3874.00,0.0006
3873.00,0.0006
3872.00,0.0006
3871.00,0.0005
3870.00,0.0005
3869.00,0.0005
3868.00,0.0006
3867.00,0.0006
3866.00,0.0006
3865.00,0.0006
3864.00,0.0006
3863.00,0.0006
3862.00,0.0006
3861.00,0.0006
3860.00,0.0006
3859.00,0.0006
3858.00,0.0006
3857.00,0.0006
3856.00,0.0006
3855.00,0.0006
3854.00,0.0005
3853.00,0.0005
3852.00,0.0006
3851.00,0.0006
3850.00,0.0006
3849.00,0.0005
3848.00,0.0005
3847.00,0.0005
3846.00,0.0005
3845.00,0.0005
3844.00,0.0006
3843.00,0.0006
3842.00,0.0006
3841.00,0.0007
3840.00,0.0007
3839.00,0.0008
3838.00,0.0008
3837.00,0.0008
3836.00,0.0007
3835.00,0.0007
3834.00,0.0006
3833.00,0.0005
3832.00,0.0005
3831.00,0.0005
3830.00,0.0006
3829.00,0.0006
3828.00,0.0006
3827.00,0.0005
3826.00,0.0005
3825.00,0.0006
3824.00,0.0006
3823.00,0.0006
3822.00,0.0006
3821.00,0.0006
3820.00,0.0007
3819.00,0.0007
3818.00,0.0006
3817.00,0.0006
3816.00,0.0006
3815.00,0.0006
3814.00,0.0006
3813.00,0.0006
3812.00,0.0006
3811.00,0.0006
3810.00,0.0006
3809.00,0.0006
3808.00,0.0006
3807.00,0.0006
3806.00,0.0006
3805.00,0.0007
3804.00,0.0006
3803.00,0.0006
3802.00,0.0006
3801.00,0.0006
3800.00,0.0006
3799.00,0.0007
3798.00,0.0007
3797.00,0.0006
3796.00,0.0007
3795.00,0.0007
3794.00,0.0007
3793.00,0.0006
3792.00,0.0006
3791.00,0.0006
3790.00,0.0006
3789.00,0.0006
3788.00,0.0007
3787.00,0.0007
3786.00,0.0007
3785.00,0.0007
3784.00,0.0007
3783.00,0.0006
3782.00,0.0006
3781.00,0.0006
3780.00,0.0006
3779.00,0.0006
3778.00,0.0006
3777.00,0.0006
3776.00,0.0006
3775.00,0.0006
3774.00,0.0006
3773.00,0.0007
3772.00,0.0007
3771.00,0.0007
3770.00,0.0007
3769.00,0.0007
3768.00,0.0007
3767.00,0.0007
3766.00,0.0007
3765.00,0.0007
3764.00,0.0008
3763.00,0.0007
3762.00,0.0007
3761.00,0.0006
3760.00,0.0006
3759.00,0.0006
3758.00,0.0006
3757.00,0.0006
3756.00,0.0006
3755.00,0.0006
3754.00,0.0007
3753.00,0.0007
3752.00,0.0007
3751.00,0.0007
3750.00,0.0007
3749.00,0.0008
3748.00,0.0008
3747.00,0.0008
3746.00,0.0007
3745.00,0.0007
3744.00,0.0007
3743.00,0.0007
3742.00,0.0006
3741.00,0.0005
3740.00,0.0005
3739.00,0.0005
3738.00,0.0005
3737.00,0.0004
3736.00,0.0004
3735.00,0.0004
3734.00,0.0004
3733.00,0.0004
3732.00,0.0004
3731.00,0.0004
3730.00,0.0004
3729.00,0.0004
3728.00,0.0004
3727.00,0.0004
3726.00,0.0005
3725.00,0.0005
3724.00,0.0005
3723.00,0.0005
3722.00,0.0005
3721.00,0.0005
3720.00,0.0005
3719.00,0.0005
3718.00,0.0005
3717.00,0.0005
3716.00,0.0005
3715.00,0.0004
3714.00,0.0004
3713.00,0.0004
3712.00,0.0003
3711.00,0.0003
3710.00,0.0004
3709.00,0.0004
3708.00,0.0004
3707.00,0.0005
3706.00,0.0004
3705.00,0.0004
3704.00,0.0004
3703.00,0.0003
3702.00,0.0003
3701.00,0.0003
3700.00,0.0004
3699.00,0.0004
3698.00,0.0004
3697.00,0.0004
3696.00,0.0005
3695.00,0.0005
3694.00,0.0006
3693.00,0.0006
3692.00,0.0006
3691.00,0.0006
3690.00,0.0006
3689.00,0.0006
3688.00,0.0006
3687.00,0.0006
3686.00,0.0005
3685.00,0.0005
3684.00,0.0005
3683.00,0.0004
3682.00,0.0004
3681.00,0.0004
3680.00,0.0004
3679.00,0.0005
3678.00,0.0005
3677.00,0.0004
3676.00,0.0004
3675.00,0.0004
3674.00,0.0004
3673.00,0.0005
3672.00,0.0004
3671.00,0.0004
3670.00,0.0004
3669.00,0.0003
3668.00,0.0003
3667.00,0.0003
3666.00,0.0003
3665.00,0.0003
3664.00,0.0003
3663.00,0.0004
3662.00,0.0004
3661.00,0.0005
3660.00,0.0005
3659.00,0.0005
3658.00,0.0005
3657.00,0.0005
3656.00,0.0005
3655.00,0.0005
3654.00,0.0005
3653.00,0.0005
3652.00,0.0005
3651.00,0.0005
3650.00,0.0005
3649.00,0.0005
3648.00,0.0005
3647.00,0.0005
3646.00,0.0004
3645.00,0.0004
3644.00,0.0004
3643.00,0.0004
3642.00,0.0004
3641.00,0.0005
3640.00,0.0005
3639.00,0.0005
3638.00,0.0004
3637.00,0.0004
3636.00,0.0004
3635.00,0.0003
3634.00,0.0003
3633.00,0.0004
3632.00,0.0005
3631.00,0.0005
3630.00,0.0006
3629.00,0.0005
3628.00,0.0005
3627.00,0.0005
3626.00,0.0004
3625.00,0.0004
3624.00,0.0004
3623.00,0.0004
3622.00,0.0004
3621.00,0.0004
3620.00,0.0004
3619.00,0.0004
3618.00,0.0005
3617.00,0.0005
3616.00,0.0005
3615.00,0.0006
3614.00,0.0006
3613.00,0.0006
3612.00,0.0007
3611.00,0.0007
3610.00,0.0007
3609.00,0.0006
3608.00,0.0006
3607.00,0.0006
3606.00,0.0006
3605.00,0.0006
3604.00,0.0006
3603.00,0.0006
3602.00,0.0007
3601.00,0.0007
3600.00,0.0007
3599.00,0.0007
3598.00,0.0007
3597.00,0.0007
3596.00,0.0007
3595.00,0.0007
3594.00,0.0007
3593.00,0.0007
3592.00,0.0006
3591.00,0.0007
3590.00,0.0007
3589.00,0.0008
3588.00,0.0008
3587.00,0.0007
3586.00,0.0007
3585.00,0.0007
3584.00,0.0007
3583.00,0.0007
3582.00,0.0008
3581.00,0.0009
3580.00,0.0010
3579.00,0.0010
3578.00,0.0010
3577.00,0.0010
3576.00,0.0010
3575.00,0.0010
3574.00,0.0011
3573.00,0.0011
3572.00,0.0011
3571.00,0.0011
3570.00,0.0011
3569.00,0.0010
3568.00,0.0010
3567.00,0.0011
3566.00,0.0011
3565.00,0.0011
3564.00,0.0011
3563.00,0.0011
3562.00,0.0011
3561.00,0.0011
3560.00,0.0011
3559.00,0.0012
3558.00,0.0012
3557.00,0.0012
3556.00,0.0013
3555.00,0.0013
3554.00,0.0013
3553.00,0.0013
3552.00,0.0013
3551.00,0.0013
3550.00,0.0013
3549.00,0.0014
3548.00,0.0014
3547.00,0.0015
3546.00,0.0015
3545.00,0.0015
3544.00,0.0015
3543.00,0.0015
3542.00,0.0015
3541.00,0.0015
3540.00,0.0015
3539.00,0.0015
3538.00,0.0015
3537.00,0.0015
3536.00,0.0015
3535.00,0.0016
3534.00,0.0016
3533.00,0.0017
3532.00,0.0017
3531.00,0.0018
3530.00,0.0018
3529.00,0.0018
3528.00,0.0018
3527.00,0.0018
3526.00,0.0018
3525.00,0.0018
3524.00,0.0018
3523.00,0.0019
3522.00,0.0019
3521.00,0.0020
3520.00,0.0020
3519.00,0.0019
3518.00,0.0019
3517.00,0.0020
3516.00,0.0020
3515.00,0.0020
3514.00,0.0020
3513.00,0.0021
3512.00,0.0021
3511.00,0.0021
3510.00,0.0021
3509.00,0.0022
3508.00,0.0022
3507.00,0.0021
3506.00,0.0021
3505.00,0.0021
3504.00,0.0021
3503.00,0.0022
3502.00,0.0022
3501.00,0.0022
3500.00,0.0022
3499.00,0.0022
3498.00,0.0022
3497.00,0.0022
3496.00,0.0022
3495.00,0.0022
3494.00,0.0022
3493.00,0.0022
3492.00,0.0023
3491.00,0.0023
3490.00,0.0023
3489.00,0.0024
3488.00,0.0024
3487.00,0.0024
3486.00,0.0024
3485.00,0.0024
3484.00,0.0024
3483.00,0.0024
3482.00,0.0024
3481.00,0.0025
3480.00,0.0025
3479.00,0.0025
3478.00,0.0025
3477.00,0.0025
3476.00,0.0025
3475.00,0.0025
3474.00,0.0025
3473.00,0.0025
3472.00,0.0026
3471.00,0.0026
3470.00,0.0026
3469.00,0.0027
3468.00,0.0027
3467.00,0.0027
3466.00,0.0027
3465.00,0.0027
3464.00,0.0027
3463.00,0.0028
3462.00,0.0028
3461.00,0.0028
3460.00,0.0027
3459.00,0.0027
3458.00,0.0027
3457.00,0.0028
3456.00,0.0028
3455.00,0.0028
3454.00,0.0028
3453.00,0.0029
3452.00,0.0029
3451.00,0.0029
3450.00,0.0029
3449.00,0.0029
3448.00,0.0030
3447.00,0.0030
3446.00,0.0030
3445.00,0.0030
3444.00,0.0030
3443.00,0.0030
3442.00,0.0030
3441.00,0.0031
3440.00,0.0031
3439.00,0.0031
3438.00,0.0031
3437.00,0.0032
3436.00,0.0032
3435.00,0.0032
3434.00,0.0032
3433.00,0.0032
3432.00,0.0032
3431.00,0.0032
3430.00,0.0032
3429.00,0.0032
3428.00,0.0032
3427.00,0.0032
3426.00,0.0032
3425.00,0.0032
3424.00,0.0032
3423.00,0.0033
3422.00,0.0033
3421.00,0.0033
3420.00,0.0033
3419.00,0.0034
3418.00,0.0034
3417.00,0.0034
3416.00,0.0034
3415.00,0.0034
3414.00,0.0034
3413.00,0.0034
3412.00,0.0034
3411.00,0.0034
3410.00,0.0034
3409.00,0.0034
3408.00,0.0034
3407.00,0.0034
3406.00,0.0034
3405.00,0.0034
3404.00,0.0034
3403.00,0.0034
3402.00,0.0035
3401.00,0.0035
3400.00,0.0036
3399.00,0.0036
3398.00,0.0035
3397.00,0.0035
3396.00,0.0034
3395.00,0.0034
3394.00,0.0034
3393.00,0.0034
3392.00,0.0035
3391.00,0.0035
3390.00,0.0035
3389.00,0.0035
3388.00,0.0035
3387.00,0.0035
3386.00,0.0035
3385.00,0.0035
3384.00,0.0035
3383.00,0.0035
3382.00,0.0035
3381.00,0.0035
3380.00,0.0035
3379.00,0.0035
3378.00,0.0035
3377.00,0.0035
3376.00,0.0036
3375.00,0.0036
3374.00,0.0036
3373.00,0.0037
3372.00,0.0036
3371.00,0.0036
3370.00,0.0036
3369.00,0.0036
3368.00,0.0036
3367.00,0.0036
3366.00,0.0036
3365.00,0.0036
3364.00,0.0036
3363.00,0.0036
3362.00,0.0036
3361.00,0.0036
3360.00,0.0037
3359.00,0.0037
3358.00,0.0037
3357.00,0.0037
3356.00,0.0037
3355.00,0.0038
3354.00,0.0038
3353.00,0.0038
3352.00,0.0038
3351.00,0.0037
3350.00,0.0037
3349.00,0.0037
3348.00,0.0037
3347.00,0.0037
3346.00,0.0037
3345.00,0.0038
3344.00,0.0038
3343.00,0.0038
3342.00,0.0038
3341.00,0.0038
3340.00,0.0038
3339.00,0.0038
3338.00,0.0038
3337.00,0.0037
3336.00,0.0037
3335.00,0.0038
3334.00,0.0038
3333.00,0.0037
3332.00,0.0037
3331.00,0.0036
3330.00,0.0036
3329.00,0.0036
3328.00,0.0036
3327.00,0.0036
3326.00,0.0036
3325.00,0.0037
3324.00,0.0037
3323.00,0.0037
3322.00,0.0036
3321.00,0.0036
3320.00,0.0036
3319.00,0.0036
3318.00,0.0036
3317.00,0.0037
3316.00,0.0037
3315.00,0.0037
3314.00,0.0037
3313.00,0.0037
3312.00,0.0037
3311.00,0.0037
3310.00,0.0037
3309.00,0.0037
3308.00,0.0037
3307.00,0.0037
3306.00,0.0037
3305.00,0.0037
3304.00,0.0037
3303.00,0.0037
3302.00,0.0037
3301.00,0.0037
3300.00,0.0037
3299.00,0.0037
3298.00,0.0037
3297.00,0.0037
3296.00,0.0037
3295.00,0.0037
3294.00,0.0037
3293.00,0.0038
3292.00,0.0037
3291.00,0.0037
3290.00,0.0037
3289.00,0.0037
3288.00,0.0037
3287.00,0.0037
3286.00,0.0037
3285.00,0.0037
3284.00,0.0036
3283.00,0.0036
3282.00,0.0036
3281.00,0.0036
3280.00,0.0036
3279.00,0.0035
3278.00,0.0035
3277.00,0.0035
3276.00,0.0035
3275.00,0.0035
3274.00,0.0035
3273.00,0.0035
3272.00,0.0035
3271.00,0.0035
3270.00,0.0035
3269.00,0.0034
3268.00,0.0034
3267.00,0.0034
3266.00,0.0034
3265.00,0.0034
3264.00,0.0034
3263.00,0.0034
3262.00,0.0034
3261.00,0.0034
3260.00,0.0034
3259.00,0.0033
3258.00,0.0033
3257.00,0.0032
3256.00,0.0032
3255.00,0.0032
3254.00,0.0032
3253.00,0.0032
3252.00,0.0032
3251.00,0.0032
3250.00,0.0032
3249.00,0.0032
3248.00,0.0032
3247.00,0.0032
3246.00,0.0032
3245.00,0.0032
3244.00,0.0033
3243.00,0.0033
3242.00,0.0033
3241.00,0.0033
3240.00,0.0032
3239.00,0.0032
3238.00,0.0032
3237.00,0.0032
3236.00,0.0032
3235.00,0.0032
3234.00,0.0032
3233.00,0.0032
3232.00,0.0032
3231.00,0.0033
3230.00,0.0033
3229.00,0.0033
3228.00,0.0033
3227.00,0.0032
3226.00,0.0032
3225.00,0.0032
3224.00,0.0032
3223.00,0.0033
3222.00,0.0033
3221.00,0.0034
3220.00,0.0034
3219.00,0.0034
3218.00,0.0035
3217.00,0.0035
3216.00,0.0035
3215.00,0.0036
3214.00,0.0036
3213.00,0.0037
3212.00,0.0037
3211.00,0.0037
3210.00,0.0037
3209.00,0.0037
3208.00,0.0037
3207.00,0.0037
3206.00,0.0037
3205.00,0.0037
3204.00,0.0037
3203.00,0.0037
3202.00,0.0037
3201.00,0.0037
3200.00,0.0037
3199.00,0.0037
3198.00,0.0037
3197.00,0.0037
3196.00,0.0037
3195.00,0.0036
3194.00,0.0036
3193.00,0.0036
3192.00,0.0036
3191.00,0.0036
3190.00,0.0036
3189.00,0.0036
3188.00,0.0035
3187.00,0.0035
3186.00,0.0035
3185.00,0.0035
3184.00,0.0034
3183.00,0.0034
3182.00,0.0034
3181.00,0.0034
3180.00,0.0034
3179.00,0.0034
3178.00,0.0034
3177.00,0.0033
3176.00,0.0033
3175.00,0.0033
3174.00,0.0033
3173.00,0.0032
3172.00,0.0032
3171.00,0.0031
3170.00,0.0031
3169.00,0.0031
3168.00,0.0031
3167.00,0.0031
3166.00,0.0031
3165.00,0.0031
3164.00,0.0031
3163.00,0.0031
3162.00,0.0031
3161.00,0.0031
3160.00,0.0031
3159.00,0.0030
3158.00,0.0030
3157.00,0.0030
3156.00,0.0031
3155.00,0.0031
3154.00,0.0031
3153.00,0.0031
3152.00,0.0031
3151.00,0.0031
3150.00,0.0031
3149.00,0.0031
3148.00,0.0031
3147.00,0.0031
3146.00,0.0031
3145.00,0.0031
3144.00,0.0031
3143.00,0.0031
3142.00,0.0030
3141.00,0.0030
3140.00,0.0030
3139.00,0.0030
3138.00,0.0030
3137.00,0.0030
3136.00,0.0030
3135.00,0.0030
3134.00,0.0030
3133.00,0.0030
3132.00,0.0030
3131.00,0.0029
3130.00,0.0029
3129.00,0.0029
3128.00,0.0029
3127.00,0.0028
3126.00,0.0028
3125.00,0.0027
3124.00,0.0027
3123.00,0.0027
3122.00,0.0026
3121.00,0.0026
3120.00,0.0026
3119.00,0.0026
3118.00,0.0026
3117.00,0.0026
3116.00,0.0026
3115.00,0.0026
3114.00,0.0026
3113.00,0.0026
3112.00,0.0026
3111.00,0.0026
3110.00,0.0026
3109.00,0.0026
3108.00,0.0025
3107.00,0.0025
3106.00,0.0025
3105.00,0.0025
3104.00,0.0025
3103.00,0.0025
3102.00,0.0025
3101.00,0.0025
3100.00,0.0025
3099.00,0.0025
3098.00,0.0025
3097.00,0.0024
3096.00,0.0024
3095.00,0.0024
3094.00,0.0024
3093.00,0.0024
3092.00,0.0024
3091.00,0.0024
3090.00,0.0024
3089.00,0.0024
3088.00,0.0024
3087.00,0.0024
3086.00,0.0025
3085.00,0.0024
3084.00,0.0024
3083.00,0.0024
3082.00,0.0024
3081.00,0.0024
3080.00,0.0024
3079.00,0.0024
3078.00,0.0024
3077.00,0.0024
3076.00,0.0024
3075.00,0.0024
3074.00,0.0025
3073.00,0.0025
3072.00,0.0025
3071.00,0.0025
3070.00,0.0025
3069.00,0.0025
3068.00,0.0025
3067.00,0.0025
3066.00,0.0026
3065.00,0.0027
3064.00,0.0027
3063.00,0.0027
3062.00,0.0027
3061.00,0.0027
3060.00,0.0027
3059.00,0.0027
3058.00,0.0027
3057.00,0.0027
3056.00,0.0027
3055.00,0.0028
3054.00,0.0028
3053.00,0.0028
3052.00,0.0028
3051.00,0.0028
3050.00,0.0029
3049.00,0.0029
3048.00,0.0030
3047.00,0.0030
3046.00,0.0030
3045.00,0.0030
3044.00,0.0030
3043.00,0.0030
3042.00,0.0030
3041.00,0.0030
3040.00,0.0031
3039.00,0.0031
3038.00,0.0031
3037.00,0.0031
3036.00,0.0031
3035.00,0.0031
3034.00,0.0032
3033.00,0.0033
3032.00,0.0033
3031.00,0.0034
3030.00,0.0034
3029.00,0.0035
3028.00,0.0035
3027.00,0.0035
3026.00,0.0036
3025.00,0.0037
3024.00,0.0038
3023.00,0.0038
3022.00,0.0039
3021.00,0.0040
3020.00,0.0040
3019.00,0.0041
3018.00,0.0042
3017.00,0.0043
3016.00,0.0044
3015.00,0.0045
3014.00,0.0046
3013.00,0.0047
3012.00,0.0049
3011.00,0.0050
3010.00,0.0052
3009.00,0.0053
3008.00,0.0055
3007.00,0.0057
3006.00,0.0059
3005.00,0.0061
3004.00,0.0063
3003.00,0.0065
3002.00,0.0067
3001.00,0.0069
3000.00,0.0071
2999.00,0.0074
2998.00,0.0077
2997.00,0.0080
2996.00,0.0084
2995.00,0.0088
2994.00,0.0093
2993.00,0.0098
2992.00,0.0103
2991.00,0.0109
2990.00,0.0115
2989.00,0.0122
2988.00,0.0130
2987.00,0.0138
2986.00,0.0148
2985.00,0.0159
2984.00,0.0171
2983.00,0.0185
2982.00,0.0201
2981.00,0.0219
2980.00,0.0239
2979.00,0.0261
2978.00,0.0285
2977.00,0.0313
2976.00,0.0346
2975.00,0.0383
2974.00,0.0425
2973.00,0.0473
2972.00,0.0526
2971.00,0.0586
2970.00,0.0651
2969.00,0.0722
2968.00,0.0799
2967.00,0.0879
2966.00,0.0962
2965.00,0.1044
2964.00,0.1121
2963.00,0.1191
2962.00,0.1250
2961.00,0.1297
2960.00,0.1337
2959.00,0.1373
2958.00,0.1413
2957.00,0.1462
2956.00,0.1528
2955.00,0.1611
2954.00,0.1710
2953.00,0.1818
2952.00,0.1924
2951.00,0.2012
2950.00,0.2067
2949.00,0.2075
2948.00,0.2032
2947.00,0.1939
2946.00,0.1808
2945.00,0.1658
2944.00,0.1508
2943.00,0.1372
2942.00,0.1261
2941.00,0.1178
2940.00,0.1124
2939.00,0.1097
2938.00,0.1093
2937.00,0.1111
2936.00,0.1147
2935.00,0.1201
2934.00,0.1271
2933.00,0.1356
2932.00,0.1454
2931.00,0.1565
2930.00,0.1685
2929.00,0.1810
2928.00,0.1937
2927.00,0.2063
2926.00,0.2186
2925.00,0.2305
2924.00,0.2421
2923.00,0.2537
2922.00,0.2654
2921.00,0.2769
2920.00,0.2874
2919.00,0.2958
2918.00,0.3008
2917.00,0.3014
2916.00,0.2974
2915.00,0.2891
2914.00,0.2779
2913.00,0.2651
2912.00,0.2520
2911.00,0.2394
2910.00,0.2279
2909.00,0.2175
2908.00,0.2078
2907.00,0.1987
2906.00,0.1900
2905.00,0.1815
2904.00,0.1731
2903.00,0.1649
2902.00,0.1571
2901.00,0.1495
2900.00,0.1424
2899.00,0.1357
2898.00,0.1296
2897.00,0.1241
2896.00,0.1193
2895.00,0.1153
2894.00,0.1120
2893.00,0.1095
2892.00,0.1078
2891.00,0.1068
2890.00,0.1064
2889.00,0.1066
2888.00,0.1072
2887.00,0.1082
2886.00,0.1095
2885.00,0.1112
2884.00,0.1134
2883.00,0.1161
2882.00,0.1192
2881.00,0.1227
2880.00,0.1261
2879.00,0.1289
2878.00,0.1307
2877.00,0.1313
2876.00,0.1310
2875.00,0.1301
2874.00,0.1293
2873.00,0.1292
2872.00,0.1300
2871.00,0.1317
2870.00,0.1342
2869.00,0.1369
2868.00,0.1390
2867.00,0.1395
2866.00,0.1373
2865.00,0.1320
2864.00,0.1237
2863.00,0.1134
2862.00,0.1023
2861.00,0.0918
2860.00,0.0826
2859.00,0.0751
2858.00,0.0693
2857.00,0.0650
2856.00,0.0620
2855.00,0.0601
2854.00,0.0590
2853.00,0.0588
2852.00,0.0593
2851.00,0.0605
2850.00,0.0626
2849.00,0.0654
2848.00,0.0691
2847.00,0.0737
2846.00,0.0793
2845.00,0.0857
2844.00,0.0930
2843.00,0.1007
2842.00,0.1085
2841.00,0.1157
2840.00,0.1214
2839.00,0.1249
2838.00,0.1254
2837.00,0.1223
2836.00,0.1158
2835.00,0.1066
2834.00,0.0958
2833.00,0.0845
2832.00,0.0737
2831.00,0.0642
2830.00,0.0562
2829.00,0.0496
2828.00,0.0443
2827.00,0.0400
2826.00,0.0364
2825.00,0.0336
2824.00,0.0312
2823.00,0.0292
2822.00,0.0275
2821.00,0.0260
2820.00,0.0247
2819.00,0.0237
2818.00,0.0227
2817.00,0.0219
2816.00,0.0211
2815.00,0.0204
2814.00,0.0198
2813.00,0.0192
2812.00,0.0187
2811.00,0.0181
2810.00,0.0176
2809.00,0.0170
2808.00,0.0163
2807.00,0.0156
2806.00,0.0149
2805.00,0.0142
2804.00,0.0136
2803.00,0.0130
2802.00,0.0124
2801.00,0.0119
2800.00,0.0115
2799.00,0.0112
2798.00,0.0109
2797.00,0.0106
2796.00,0.0104
2795.00,0.0101
2794.00,0.0099
2793.00,0.0096
2792.00,0.0093
2791.00,0.0090
2790.00,0.0087
2789.00,0.0084
2788.00,0.0081
2787.00,0.0078
2786.00,0.0076
2785.00,0.0073
2784.00,0.0071
2783.00,0.0069
2782.00,0.0067
2781.00,0.0066
2780.00,0.0064
2779.00,0.0062
2778.00,0.0060
2777.00,0.0059
2776.00,0.0058
2775.00,0.0057
2774.00,0.0056
2773.00,0.0055
2772.00,0.0055
2771.00,0.0054
2770.00,0.0054
2769.00,0.0054
2768.00,0.0054
2767.00,0.0054
2766.00,0.0054
2765.00,0.0054
2764.00,0.0053
2763.00,0.0053
2762.00,0.0052
2761.00,0.0052
2760.00,0.0051
2759.00,0.0051
2758.00,0.0051
2757.00,0.0051
2756.00,0.0051
2755.00,0.0051
2754.00,0.0050
2753.00,0.0050
2752.00,0.0050
2751.00,0.0050
2750.00,0.0050
2749.00,0.0050
2748.00,0.0050
2747.00,0.0050
2746.00,0.0051
2745.00,0.0052
2744.00,0.0053
2743.00,0.0054
2742.00,0.0055
2741.00,0.0056
2740.00,0.0057
2739.00,0.0058
2738.00,0.0059
2737.00,0.0061
2736.00,0.0062
2735.00,0.0064
2734.00,0.0066
2733.00,0.0068
2732.00,0.0070
2731.00,0.0072
2730.00,0.0075
2729.00,0.0078
2728.00,0.0081
2727.00,0.0084
2726.00,0.0086
2725.00,0.0089
2724.00,0.0091
2723.00,0.0091
2722.00,0.0090
2721.00,0.0088
2720.00,0.0085
2719.00,0.0081
2718.00,0.0078
2717.00,0.0074
2716.00,0.0071
2715.00,0.0068
2714.00,0.0066
2713.00,0.0063
2712.00,0.0061
2711.00,0.0058
2710.00,0.0056
2709.00,0.0054
2708.00,0.0053
2707.00,0.0051
2706.00,0.0050
2705.00,0.0049
2704.00,0.0047
2703.00,0.0046
2702.00,0.0045
2701.00,0.0045
2700.00,0.0044
2699.00,0.0043
2698.00,0.0042
2697.00,0.0042
2696.00,0.0042
2695.00,0.0042
2694.00,0.0042
2693.00,0.0043
2692.00,0.0043
2691.00,0.0043
2690.00,0.0043
2689.00,0.0043
2688.00,0.0043
2687.00,0.0042
2686.00,0.0042
2685.00,0.0042
2684.00,0.0042
2683.00,0.0043
2682.00,0.0043
2681.00,0.0043
2680.00,0.0044
2679.00,0.0044
2678.00,0.0044
2677.00,0.0044
2676.00,0.0044
2675.00,0.0044
2674.00,0.0044
2673.00,0.0044
2672.00,0.0044
2671.00,0.0044
2670.00,0.0043
2669.00,0.0043
2668.00,0.0043
2667.00,0.0043
2666.00,0.0044
2665.00,0.0044
2664.00,0.0045
2663.00,0.0045
2662.00,0.0046
2661.00,0.0046
2660.00,0.0046
2659.00,0.0046
2658.00,0.0046
2657.00,0.0046
2656.00,0.0046
2655.00,0.0046
2654.00,0.0045
2653.00,0.0045
2652.00,0.0044
2651.00,0.0043
2650.00,0.0042
2649.00,0.0042
2648.00,0.0042
2647.00,0.0041
2646.00,0.0041
2645.00,0.0041
2644.00,0.0040
2643.00,0.0039
2642.00,0.0038
2641.00,0.0038
2640.00,0.0037
2639.00,0.0037
2638.00,0.0037
2637.00,0.0036
2636.00,0.0036
2635.00,0.0035
2634.00,0.0035
2633.00,0.0035
2632.00,0.0036
2631.00,0.0037
2630.00,0.0037
2629.00,0.0037
2628.00,0.0037
2627.00,0.0038
2626.00,0.0038
2625.00,0.0038
2624.00,0.0038
2623.00,0.0039
2622.00,0.0039
2621.00,0.0040
2620.00,0.0040
2619.00,0.0040
2618.00,0.0040
2617.00,0.0039
2616.00,0.0039
2615.00,0.0039
2614.00,0.0038
2613.00,0.0038
2612.00,0.0038
2611.00,0.0038
2610.00,0.0038
2609.00,0.0038
2608.00,0.0037
2607.00,0.0036
2606.00,0.0035
2605.00,0.0034
2604.00,0.0033
2603.00,0.0032
2602.00,0.0032
2601.00,0.0032
2600.00,0.0032
2599.00,0.0032
2598.00,0.0032
2597.00,0.0032
2596.00,0.0032
2595.00,0.0032
2594.00,0.0032
2593.00,0.0033
2592.00,0.0034
2591.00,0.0034
2590.00,0.0034
2589.00,0.0035
2588.00,0.0036
2587.00,0.0037
2586.00,0.0039
2585.00,0.0040
2584.00,0.0041
2583.00,0.0041
2582.00,0.0041
2581.00,0.0040
2580.00,0.0039
2579.00,0.0038
2578.00,0.0037
2577.00,0.0036
2576.00,0.0035
2575.00,0.0034
2574.00,0.0033
2573.00,0.0032
2572.00,0.0031
2571.00,0.0030
2570.00,0.0029
2569.00,0.0028
2568.00,0.0026
2567.00,0.0025
2566.00,0.0024
2565.00,0.0023
2564.00,0.0023
2563.00,0.0023
2562.00,0.0023
2561.00,0.0023
2560.00,0.0023
2559.00,0.0022
2558.00,0.0022
2557.00,0.0022
2556.00,0.0022
2555.00,0.0022
2554.00,0.0022
2553.00,0.0022
2552.00,0.0021
2551.00,0.0020
2550.00,0.0020
2549.00,0.0019
2548.00,0.0019
2547.00,0.0019
2546.00,0.0019
2545.00,0.0019
2544.00,0.0019
2543.00,0.0019
2542.00,0.0018
2541.00,0.0016
2540.00,0.0015
2539.00,0.0014
2538.00,0.0014
2537.00,0.0014
2536.00,0.0014
2535.00,0.0015
2534.00,0.0015
2533.00,0.0015
2532.00,0.0015
2531.00,0.0015
2530.00,0.0014
2529.00,0.0013
2528.00,0.0012
2527.00,0.0012
2526.00,0.0011
2525.00,0.0011
2524.00,0.0011
2523.00,0.0011
2522.00,0.0011
2521.00,0.0011
2520.00,0.0012
2519.00,0.0012
2518.00,0.0012
2517.00,0.0011
2516.00,0.0010
2515.00,0.0010
2514.00,0.0009
2513.00,0.0008
2512.00,0.0008
2511.00,0.0008
2510.00,0.0009
2509.00,0.0009
2508.00,0.0010
2507.00,0.0010
2506.00,0.0010
2505.00,0.0010
2504.00,0.0010
2503.00,0.0010
2502.00,0.0010
2501.00,0.0010
2500.00,0.0010
2499.00,0.0010
2498.00,0.0010
2497.00,0.0010
2496.00,0.0010
2495.00,0.0010
2494.00,0.0009
2493.00,0.0009
2492.00,0.0008
2491.00,0.0008
2490.00,0.0008
2489.00,0.0009
2488.00,0.0009
2487.00,0.0009
2486.00,0.0009
2485.00,0.0009
2484.00,0.0009
2483.00,0.0009
2482.00,0.0008
2481.00,0.0008
2480.00,0.0007
2479.00,0.0007
2478.00,0.0007
2477.00,0.0008
2476.00,0.0009
2475.00,0.0009
2474.00,0.0010
2473.00,0.0010
2472.00,0.0010
2471.00,0.0010
2470.00,0.0009
2469.00,0.0009
2468.00,0.0009
2467.00,0.0009
2466.00,0.0009
2465.00,0.0009
2464.00,0.0008
2463.00,0.0008
2462.00,0.0008
2461.00,0.0008
2460.00,0.0008
2459.00,0.0008
2458.00,0.0009
2457.00,0.0010
2456.00,0.0010
2455.00,0.0011
2454.00,0.0011
2453.00,0.0011
2452.00,0.0011
2451.00,0.0011
2450.00,0.0010
2449.00,0.0010
2448.00,0.0010
2447.00,0.0009
2446.00,0.0009
2445.00,0.0008
2444.00,0.0008
2443.00,0.0008
2442.00,0.0008
2441.00,0.0009
2440.00,0.0010
2439.00,0.0010
2438.00,0.0010
2437.00,0.0009
2436.00,0.0009
2435.00,0.0009
2434.00,0.0009
2433.00,0.0010
2432.00,0.0011
2431.00,0.0011
2430.00,0.0011
2429.00,0.0011
2428.00,0.0011
2427.00,0.0010
2426.00,0.0010
2425.00,0.0009
2424.00,0.0009
2423.00,0.0009
2422.00,0.0009
2421.00,0.0009
2420.00,0.0009
2419.00,0.0009
2418.00,0.0009
2417.00,0.0009
2416.00,0.0009
2415.00,0.0009
2414.00,0.0009
2413.00,0.0009
2412.00,0.0009
2411.00,0.0009
2410.00,0.0008
2409.00,0.0008
2408.00,0.0007
2407.00,0.0007
2406.00,0.0006
2405.00,0.0006
2404.00,0.0006
2403.00,0.0007
2402.00,0.0007
2401.00,0.0007
2400.00,0.0006
2399.00,0.0006
2398.00,0.0006
2397.00,0.0006
2396.00,0.0007
2395.00,0.0007
2394.00,0.0007
2393.00,0.0007
2392.00,0.0006
2391.00,0.0006
2390.00,0.0006
2389.00,0.0006
2388.00,0.0007
2387.00,0.0006
2386.00,0.0006
2385.00,0.0005
2384.00,0.0004
2383.00,0.0004
2382.00,0.0003
2381.00,0.0003
2380.00,0.0002
2379.00,0.0002
2378.00,0.0002
2377.00,0.0002
2376.00,0.0002
2375.00,0.0002
2374.00,0.0002
2373.00,0.0002
2372.00,0.0002
2371.00,0.0002
2370.00,0.0002
2369.00,0.0002
2368.00,0.0001
2367.00,0.0000
2366.00,-0.0001
2365.00,-0.0002
2364.00,-0.0001
2363.00,0.0001
2362.00,0.0002
2361.00,0.0003
2360.00,0.0003
2359.00,0.0002
2358.00,0.0001
2357.00,0.0001
2356.00,0.0001
2355.00,0.0002
2354.00,0.0002
2353.00,0.0002
2352.00,0.0002
2351.00,0.0001
2350.00,0.0001
2349.00,0.0002
2348.00,0.0003
2347.00,0.0004
2346.00,0.0004
2345.00,0.0004
2344.00,0.0004
2343.00,0.0004
2342.00,0.0003
2341.00,0.0003
2340.00,0.0003
2339.00,0.0004
2338.00,0.0005
2337.00,0.0006
2336.00,0.0005
2335.00,0.0005
2334.00,0.0004
2333.00,0.0004
2332.00,0.0003
2331.00,0.0003
2330.00,0.0003
2329.00,0.0004
2328.00,0.0007
2327.00,0.0010
2326.00,0.0015
2325.00,0.0019
2324.00,0.0021
2323.00,0.0020
2322.00,0.0017
2321.00,0.0015
2320.00,0.0013
2319.00,0.0012
2318.00,0.0012
2317.00,0.0011
2316.00,0.0010
2315.00,0.0010
2314.00,0.0009
2313.00,0.0009
2312.00,0.0008
2311.00,0.0007
2310.00,0.0007
2309.00,0.0007
2308.00,0.0007
2307.00,0.0007
2306.00,0.0007
2305.00,0.0007
2304.00,0.0008
2303.00,0.0008
2302.00,0.0008
2301.00,0.0008
2300.00,0.0008
2299.00,0.0009
2298.00,0.0009
2297.00,0.0010
2296.00,0.0010
2295.00,0.0011
2294.00,0.0011
2293.00,0.0012
2292.00,0.0013
2291.00,0.0014
2290.00,0.0015
2289.00,0.0015
2288.00,0.0015
2287.00,0.0016
2286.00,0.0017
2285.00,0.0017
2284.00,0.0017
2283.00,0.0016
2282.00,0.0015
2281.00,0.0013
2280.00,0.0012
2279.00,0.0012
2278.00,0.0011
2277.00,0.0012
2276.00,0.0012
2275.00,0.0012
2274.00,0.0011
2273.00,0.0011
2272.00,0.0010
2271.00,0.0010
2270.00,0.0009
2269.00,0.0009
2268.00,0.0009
2267.00,0.0009
2266.00,0.0010
2265.00,0.0010
2264.00,0.0009
2263.00,0.0009
2262.00,0.0009
2261.00,0.0010
2260.00,0.0011
2259.00,0.0011
2258.00,0.0012
2257.00,0.0012
2256.00,0.0010
2255.00,0.0009
2254.00,0.0008
2253.00,0.0009
2252.00,0.0009
2251.00,0.0009
2250.00,0.0009
2249.00,0.0009
2248.00,0.0009
2247.00,0.0008
2246.00,0.0006
2245.00,0.0004
2244.00,0.0004
2243.00,0.0004
2242.00,0.0005
2241.00,0.0005
2240.00,0.0005
2239.00,0.0004
2238.00,0.0005
2237.00,0.0006
2236.00,0.0008
2235.00,0.0009
2234.00,0.0009
2233.00,0.0009
2232.00,0.0008
2231.00,0.0008
2230.00,0.0008
2229.00,0.0008
2228.00,0.0007
2227.00,0.0006
2226.00,0.0005
2225.00,0.0004
2224.00,0.0004
2223.00,0.0004
2222.00,0.0003
2221.00,0.0002
2220.00,0.0001
2219.00,0.0001
2218.00,0.0002
2217.00,0.0002
2216.00,0.0002
2215.00,0.0001
2214.00,0.0001
2213.00,0.0002
2212.00,0.0003
2211.00,0.0005
2210.00,0.0005
2209.00,0.0006
2208.00,0.0008
2207.00,0.0010
2206.00,0.0012
2205.00,0.0014
2204.00,0.0013
2203.00,0.0010
2202.00,0.0006
2201.00,0.0003
2200.00,0.0002
2199.00,0.0003
2198.00,0.0004
2197.00,0.0004
2196.00,0.0004
2195.00,0.0004
2194.00,0.0004
2193.00,0.0005
2192.00,0.0006
2191.00,0.0006
2190.00,0.0006
2189.00,0.0007
2188.00,0.0009
2187.00,0.0012
2186.00,0.0014
2185.00,0.0014
2184.00,0.0012
2183.00,0.0007
2182.00,0.0003
2181.00,0.0000
2180.00,-0.0001
2179.00,-0.0002
2178.00,-0.0002
2177.00,-0.0002
2176.00,-0.0002
2175.00,-0.0002
2174.00,-0.0002
2173.00,-0.0000
2172.00,0.0002
2171.00,0.0006
2170.00,0.0009
2169.00,0.0012
2168.00,0.0015
2167.00,0.0017
2166.00,0.0019
2165.00,0.0021
2164.00,0.0022
2163.00,0.0022
2162.00,0.0021
2161.00,0.0015
2160.00,0.0002
2159.00,-0.0014
2158.00,-0.0027
2157.00,-0.0034
2156.00,-0.0034
2155.00,-0.0031
2154.00,-0.0028
2153.00,-0.0025
2152.00,-0.0023
2151.00,-0.0022
2150.00,-0.0021
2149.00,-0.0021
2148.00,-0.0020
2147.00,-0.0019
2146.00,-0.0019
2145.00,-0.0017
2144.00,-0.0016
2143.00,-0.0014
2142.00,-0.0014
2141.00,-0.0013
2140.00,-0.0014
2139.00,-0.0014
2138.00,-0.0015
2137.00,-0.0016
2136.00,-0.0019
2135.00,-0.0021
2134.00,-0.0022
2133.00,-0.0020
2132.00,-0.0017
2131.00,-0.0014
2130.00,-0.0013
2129.00,-0.0013
2128.00,-0.0012
2127.00,-0.0010
2126.00,-0.0009
2125.00,-0.0007
2124.00,-0.0006
2123.00,-0.0005
2122.00,-0.0005
2121.00,-0.0005
2120.00,-0.0005
2119.00,-0.0004
2118.00,-0.0004
2117.00,-0.0003
2116.00,-0.0002
2115.00,-0.0001
2114.00,0.0000
2113.00,0.0001
2112.00,0.0001
2111.00,0.0001
2110.00,0.0000
2109.00,-0.0000
2108.00,-0.0001
2107.00,-0.0001
2106.00,-0.0000
2105.00,0.0000
2104.00,0.0001
2103.00,0.0001
2102.00,0.0002
2101.00,0.0002
2100.00,0.0002
2099.00,0.0002
2098.00,0.0001
2097.00,-0.0001
2096.00,-0.0004
2095.00,-0.0007
2094.00,-0.0008
2093.00,-0.0008
2092.00,-0.0007
2091.00,-0.0005
2090.00,-0.0003
2089.00,-0.0001
2088.00,0.0001
2087.00,0.0002
2086.00,0.0003
2085.00,0.0004
2084.00,0.0003
2083.00,0.0003
2082.00,0.0003
2081.00,0.0003
2080.00,0.0003
2079.00,0.0003
2078.00,0.0002
2077.00,0.0002
2076.00,0.0001
2075.00,0.0001
2074.00,0.0001
2073.00,0.0001
2072.00,0.0000
2071.00,-0.0000
2070.00,-0.0000
2069.00,-0.0000
2068.00,-0.0000
2067.00,-0.0001
2066.00,-0.0003
2065.00,-0.0004
2064.00,-0.0004
2063.00,-0.0004
2062.00,-0.0003
2061.00,-0.0003
2060.00,-0.0003
2059.00,-0.0004
2058.00,-0.0003
2057.00,-0.0001
2056.00,-0.0000
2055.00,0.0000
2054.00,0.0002
2053.00,0.0007
2052.00,0.0013
2051.00,0.0017
2050.00,0.0017
2049.00,0.0013
2048.00,0.0008
2047.00,0.0004
2046.00,0.0002
2045.00,-0.0001
2044.00,-0.0002
2043.00,-0.0002
2042.00,-0.0000
2041.00,0.0002
2040.00,0.0004
2039.00,0.0004
2038.00,0.0002
2037.00,-0.0002
2036.00,-0.0007
2035.00,-0.0011
2034.00,-0.0012
2033.00,-0.0011
2032.00,-0.0008
2031.00,-0.0007
2030.00,-0.0009
2029.00,-0.0012
2028.00,-0.0014
2027.00,-0.0016
2026.00,-0.0015
2025.00,-0.0014
2024.00,-0.0013
2023.00,-0.0014
2022.00,-0.0013
2021.00,-0.0012
2020.00,-0.0010
2019.00,-0.0009
2018.00,-0.0008
2017.00,-0.0008
2016.00,-0.0008
2015.00,-0.0009
2014.00,-0.0008
2013.00,-0.0007
2012.00,-0.0007
2011.00,-0.0009
2010.00,-0.0012
2009.00,-0.0015
2008.00,-0.0015
2007.00,-0.0015
2006.00,-0.0016
2005.00,-0.0016
2004.00,-0.0016
2003.00,-0.0016
2002.00,-0.0015
2001.00,-0.0014
2000.00,-0.0013
1999.00,-0.0012
1998.00,-0.0011
1997.00,-0.0011
1996.00,-0.0012
1995.00,-0.0013
1994.00,-0.0013
1993.00,-0.0013
1992.00,-0.0012
1991.00,-0.0011
1990.00,-0.0010
1989.00,-0.0009
1988.00,-0.0008
1987.00,-0.0007
1986.00,-0.0006
1985.00,-0.0004
1984.00,-0.0001
1983.00,0.0003
1982.00,0.0008
1981.00,0.0012
1980.00,0.0013
1979.00,0.0008
1978.00,-0.0000
1977.00,-0.0008
1976.00,-0.0013
1975.00,-0.0015
1974.00,-0.0016
1973.00,-0.0015
1972.00,-0.0015
1971.00,-0.0015
1970.00,-0.0015
1969.00,-0.0013
1968.00,-0.0012
1967.00,-0.0012
1966.00,-0.0015
1965.00,-0.0017
1964.00,-0.0017
1963.00,-0.0016
1962.00,-0.0015
1961.00,-0.0015
1960.00,-0.0018
1959.00,-0.0021
1958.00,-0.0022
1957.00,-0.0023
1956.00,-0.0022
1955.00,-0.0022
1954.00,-0.0022
1953.00,-0.0021
1952.00,-0.0020
1951.00,-0.0020
1950.00,-0.0021
1949.00,-0.0021
1948.00,-0.0020
1947.00,-0.0018
1946.00,-0.0016
1945.00,-0.0014
1944.00,-0.0013
1943.00,-0.0014
1942.00,-0.0014
1941.00,-0.0014
1940.00,-0.0013
1939.00,-0.0012
1938.00,-0.0012
1937.00,-0.0012
1936.00,-0.0012
1935.00,-0.0012
1934.00,-0.0012
1933.00,-0.0011
1932.00,-0.0011
1931.00,-0.0011
1930.00,-0.0012
1929.00,-0.0012
1928.00,-0.0011
1927.00,-0.0009
1926.00,-0.0008
1925.00,-0.0008
1924.00,-0.0008
1923.00,-0.0007
1922.00,-0.0006
1921.00,-0.0005
1920.00,-0.0004
1919.00,-0.0005
1918.00,-0.0006
1917.00,-0.0006
1916.00,-0.0005
1915.00,-0.0004
1914.00,-0.0004
1913.00,-0.0004
1912.00,-0.0004
1911.00,-0.0004
1910.00,-0.0005
1909.00,-0.0004
1908.00,-0.0003
1907.00,-0.0003
1906.00,-0.0002
1905.00,-0.0002
1904.00,-0.0002
1903.00,-0.0003
1902.00,-0.0004
1901.00,-0.0003
1900.00,-0.0003
1899.00,-0.0003
1898.00,-0.0003
1897.00,-0.0003
1896.00,-0.0003
1895.00,-0.0002
1894.00,-0.0002
1893.00,-0.0001
1892.00,-0.0002
1891.00,-0.0003
1890.00,-0.0004
1889.00,-0.0005
1888.00,-0.0004
1887.00,-0.0004
1886.00,-0.0004
1885.00,-0.0003
1884.00,-0.0003
1883.00,-0.0004
1882.00,-0.0004
1881.00,-0.0004
1880.00,-0.0003
1879.00,-0.0002
1878.00,-0.0002
1877.00,-0.0001
1876.00,-0.0001
1875.00,-0.0001
1874.00,-0.0001
1873.00,-0.0002
1872.00,-0.0003
1871.00,-0.0004
1870.00,-0.0004
1869.00,-0.0003
1868.00,-0.0002
1867.00,-0.0002
1866.00,-0.0002
1865.00,-0.0002
1864.00,-0.0002
1863.00,-0.0002
1862.00,-0.0002
1861.00,-0.0002
1860.00,-0.0002
1859.00,-0.0001
1858.00,-0.0000
1857.00,0.0001
1856.00,0.0001
1855.00,0.0001
1854.00,0.0001
1853.00,0.0000
1852.00,0.0000
1851.00,0.0000
1850.00,-0.0000
1849.00,-0.0001
1848.00,-0.0001
1847.00,-0.0001
1846.00,-0.0001
1845.00,-0.0002
1844.00,-0.0001
1843.00,-0.0001
1842.00,-0.0001
1841.00,-0.0001
1840.00,-0.0001
1839.00,-0.0001
1838.00,-0.0000
1837.00,-0.0000
1836.00,0.0000
1835.00,-0.0000
1834.00,-0.0000
1833.00,0.0000
1832.00,0.0000
1831.00,0.0001
1830.00,0.0000
1829.00,0.0000
1828.00,0.0000
1827.00,0.0001
1826.00,0.0001
1825.00,0.0000
1824.00,0.0000
1823.00,0.0000
1822.00,0.0000
1821.00,0.0001
1820.00,0.0001
1819.00,0.0000
1818.00,-0.0000
1817.00,-0.0001
1816.00,-0.0000
1815.00,0.0000
1814.00,0.0001
1813.00,0.0001
1812.00,0.0001
1811.00,0.0002
1810.00,0.0002
1809.00,0.0002
1808.00,0.0002
1807.00,0.0002
1806.00,0.0002
1805.00,0.0002
1804.00,0.0002
1803.00,0.0002
1802.00,0.0002
1801.00,0.0001
1800.00,0.0002
1799.00,0.0002
1798.00,0.0002
1797.00,0.0003
1796.00,0.0004
1795.00,0.0004
1794.00,0.0004
1793.00,0.0004
1792.00,0.0004
1791.00,0.0005
1790.00,0.0006
1789.00,0.0006
1788.00,0.0007
1787.00,0.0007
1786.00,0.0007
1785.00,0.0007
1784.00,0.0007
1783.00,0.0007
1782.00,0.0008
1781.00,0.0008
1780.00,0.0007
1779.00,0.0007
1778.00,0.0006
1777.00,0.0006
1776.00,0.0007
1775.00,0.0007
1774.00,0.0008
1773.00,0.0008
1772.00,0.0009
1771.00,0.0009
1770.00,0.0009
1769.00,0.0009
1768.00,0.0009
1767.00,0.0010
1766.00,0.0010
1765.00,0.0011
1764.00,0.0012
1763.00,0.0014
1762.00,0.0014
1761.00,0.0015
1760.00,0.0015
1759.00,0.0016
1758.00,0.0017
1757.00,0.0019
1756.00,0.0021
1755.00,0.0023
1754.00,0.0025
1753.00,0.0027
1752.00,0.0029
1751.00,0.0032
1750.00,0.0033
1749.00,0.0035
1748.00,0.0036
1747.00,0.0037
1746.00,0.0037
1745.00,0.0037
1744.00,0.0036
1743.00,0.0036
1742.00,0.0036
1741.00,0.0036
1740.00,0.0035
1739.00,0.0034
1738.00,0.0033
1737.00,0.0032
1736.00,0.0031
1735.00,0.0031
1734.00,0.0030
1733.00,0.0029
1732.00,0.0028
1731.00,0.0027
1730.00,0.0027
1729.00,0.0027
1728.00,0.0026
1727.00,0.0026
1726.00,0.0025
1725.00,0.0025
1724.00,0.0024
1723.00,0.0024
1722.00,0.0025
1721.00,0.0026
1720.00,0.0026
1719.00,0.0027
1718.00,0.0026
1717.00,0.0025
1716.00,0.0024
1715.00,0.0024
1714.00,0.0023
1713.00,0.0023
1712.00,0.0024
1711.00,0.0024
1710.00,0.0025
1709.00,0.0025
1708.00,0.0026
1707.00,0.0026
1706.00,0.0026
1705.00,0.0026
1704.00,0.0027
1703.00,0.0028
1702.00,0.0028
1701.00,0.0028
1700.00,0.0028
1699.00,0.0029
1698.00,0.0029
1697.00,0.0029
1696.00,0.0029
1695.00,0.0030
1694.00,0.0031
1693.00,0.0032
1692.00,0.0032
1691.00,0.0033
1690.00,0.0033
1689.00,0.0034
1688.00,0.0034
1687.00,0.0035
1686.00,0.0035
1685.00,0.0035
1684.00,0.0035
1683.00,0.0036
1682.00,0.0036
1681.00,0.0036
1680.00,0.0037
1679.00,0.0037
1678.00,0.0038
1677.00,0.0038
1676.00,0.0039
1675.00,0.0040
1674.00,0.0040
1673.00,0.0040
1672.00,0.0040
1671.00,0.0041
1670.00,0.0041
1669.00,0.0042
1668.00,0.0043
1667.00,0.0043
1666.00,0.0044
1665.00,0.0044
1664.00,0.0045
1663.00,0.0045
1662.00,0.0046
1661.00,0.0047
1660.00,0.0048
1659.00,0.0049
1658.00,0.0049
1657.00,0.0049
1656.00,0.0049
1655.00,0.0050
1654.00,0.0052
1653.00,0.0053
1652.00,0.0054
1651.00,0.0054
1650.00,0.0054
1649.00,0.0054
1648.00,0.0054
1647.00,0.0054
1646.00,0.0054
1645.00,0.0054
1644.00,0.0054
1643.00,0.0054
1642.00,0.0054
1641.00,0.0054
1640.00,0.0054
1639.00,0.0054
1638.00,0.0054
1637.00,0.0054
1636.00,0.0053
1635.00,0.0053
1634.00,0.0053
1633.00,0.0053
1632.00,0.0053
1631.00,0.0053
1630.00,0.0052
1629.00,0.0052
1628.00,0.0051
1627.00,0.0050
1626.00,0.0049
1625.00,0.0049
1624.00,0.0048
1623.00,0.0048
1622.00,0.0048
1621.00,0.0047
1620.00,0.0047
1619.00,0.0046
1618.00,0.0045
1617.00,0.0044
1616.00,0.0044
1615.00,0.0043
1614.00,0.0043
1613.00,0.0043
1612.00,0.0043
1611.00,0.0043
1610.00,0.0043
1609.00,0.0043
1608.00,0.0043
1607.00,0.0043
1606.00,0.0043
1605.00,0.0043
1604.00,0.0043
1603.00,0.0043
1602.00,0.0042
1601.00,0.0042
1600.00,0.0042
1599.00,0.0041
1598.00,0.0041
1597.00,0.0041
1596.00,0.0041
1595.00,0.0040
1594.00,0.0040
1593.00,0.0040
1592.00,0.0040
1591.00,0.0040
1590.00,0.0040
1589.00,0.0040
1588.00,0.0041
1587.00,0.0041
1586.00,0.0041
1585.00,0.0041
1584.00,0.0041
1583.00,0.0041
1582.00,0.0042
1581.00,0.0042
1580.00,0.0042
1579.00,0.0042
1578.00,0.0042
1577.00,0.0042
1576.00,0.0042
1575.00,0.0042
1574.00,0.0042
1573.00,0.0043
1572.00,0.0043
1571.00,0.0043
1570.00,0.0043
1569.00,0.0044
1568.00,0.0044
1567.00,0.0045
1566.00,0.0045
1565.00,0.0046
1564.00,0.0046
1563.00,0.0045
1562.00,0.0045
1561.00,0.0045
1560.00,0.0045
1559.00,0.0046
1558.00,0.0047
1557.00,0.0048
1556.00,0.0049
1555.00,0.0049
1554.00,0.0049
1553.00,0.0049
1552.00,0.0050
1551.00,0.0051
1550.00,0.0052
1549.00,0.0052
1548.00,0.0052
1547.00,0.0052
1546.00,0.0052
1545.00,0.0053
1544.00,0.0054
1543.00,0.0054
1542.00,0.0054
1541.00,0.0054
1540.00,0.0054
1539.00,0.0054
1538.00,0.0054
1537.00,0.0055
1536.00,0.0055
1535.00,0.0055
1534.00,0.0055
1533.00,0.0055
1532.00,0.0055
1531.00,0.0054
1530.00,0.0053
1529.00,0.0053
1528.00,0.0053
1527.00,0.0052
1526.00,0.0051
1525.00,0.0050
1524.00,0.0050
1523.00,0.0051
1522.00,0.0051
1521.00,0.0053
1520.00,0.0053
1519.00,0.0053
1518.00,0.0052
1517.00,0.0052
1516.00,0.0053
1515.00,0.0054
1514.00,0.0055
1513.00,0.0056
1512.00,0.0057
1511.00,0.0057
1510.00,0.0056
1509.00,0.0057
1508.00,0.0058
1507.00,0.0058
1506.00,0.0058
1505.00,0.0060
1504.00,0.0061
1503.00,0.0062
1502.00,0.0064
1501.00,0.0066
1500.00,0.0069
1499.00,0.0071
1498.00,0.0073
1497.00,0.0076
1496.00,0.0080
1495.00,0.0082
1494.00,0.0085
1493.00,0.0087
1492.00,0.0089
1491.00,0.0091
1490.00,0.0094
1489.00,0.0098
1488.00,0.0103
1487.00,0.0108
1486.00,0.0112
1485.00,0.0118
1484.00,0.0124
1483.00,0.0130
1482.00,0.0138
1481.00,0.0147
1480.00,0.0158
1479.00,0.0170
1478.00,0.0185
1477.00,0.0204
1476.00,0.0227
1475.00,0.0253
1474.00,0.0290
1473.00,0.0345
1472.00,0.0413
1471.00,0.0481
1470.00,0.0546
1469.00,0.0615
1468.00,0.0689
1467.00,0.0771
1466.00,0.0866
1465.00,0.0971
1464.00,0.1065
1463.00,0.1132
1462.00,0.1177
1461.00,0.1210
1460.00,0.1233
1459.00,0.1249
1458.00,0.1260
1457.00,0.1265
1456.00,0.1262
1455.00,0.1254
1454.00,0.1243
1453.00,0.1227
1452.00,0.1200
1451.00,0.1160
1450.00,0.1103
1449.00,0.1025
1448.00,0.0925
1447.00,0.0821
1446.00,0.0729
1445.00,0.0650
1444.00,0.0584
1443.00,0.0531
1442.00,0.0492
1441.00,0.0467
1440.00,0.0452
1439.00,0.0448
1438.00,0.0454
1437.00,0.0460
1436.00,0.0453
1435.00,0.0427
1434.00,0.0385
1433.00,0.0335
1432.00,0.0283
1431.00,0.0238
1430.00,0.0205
1429.00,0.0180
1428.00,0.0164
1427.00,0.0154
1426.00,0.0148
1425.00,0.0141
1424.00,0.0135
1423.00,0.0131
1422.00,0.0129
1421.00,0.0127
1420.00,0.0125
1419.00,0.0123
1418.00,0.0121
1417.00,0.0119
1416.00,0.0117
1415.00,0.0116
1414.00,0.0115
1413.00,0.0114
1412.00,0.0113
1411.00,0.0113
1410.00,0.0113
1409.00,0.0112
1408.00,0.0111
1407.00,0.0111
1406.00,0.0112
1405.00,0.0112
1404.00,0.0112
1403.00,0.0113
1402.00,0.0115
1401.00,0.0117
1400.00,0.0118
1399.00,0.0120
1398.00,0.0122
1397.00,0.0124
1396.00,0.0126
1395.00,0.0130
1394.00,0.0136
1393.00,0.0142
1392.00,0.0148
1391.00,0.0158
1390.00,0.0171
1389.00,0.0188
1388.00,0.0215
1387.00,0.0254
1386.00,0.0307
1385.00,0.0372
1384.00,0.0456
1383.00,0.0570
1382.00,0.0721
1381.00,0.0917
1380.00,0.1169
1379.00,0.1473
1378.00,0.1792
1377.00,0.2059
1376.00,0.2197
1375.00,0.2142
1374.00,0.1904
1373.00,0.1581
1372.00,0.1271
1371.00,0.1009
1370.00,0.0799
1369.00,0.0639
1368.00,0.0529
1367.00,0.0462
1366.00,0.0426
1365.00,0.0412
1364.00,0.0415
1363.00,0.0432
1362.00,0.0459
1361.00,0.0489
1360.00,0.0511
1359.00,0.0518
1358.00,0.0505
1357.00,0.0472
1356.00,0.0426
1355.00,0.0374
1354.00,0.0324
1353.00,0.0282
1352.00,0.0249
1351.00,0.0222
1350.00,0.0201
1349.00,0.0184
1348.00,0.0170
1347.00,0.0159
1346.00,0.0151
1345.00,0.0144
1344.00,0.0139
1343.00,0.0135
1342.00,0.0131
1341.00,0.0128
1340.00,0.0125
1339.00,0.0123
1338.00,0.0122
1337.00,0.0121
1336.00,0.0122
1335.00,0.0124
1334.00,0.0127
1333.00,0.0132
1332.00,0.0138
1331.00,0.0143
1330.00,0.0145
1329.00,0.0143
1328.00,0.0139
1327.00,0.0132
1326.00,0.0124
1325.00,0.0117
1324.00,0.0110
1323.00,0.0104
1322.00,0.0100
1321.00,0.0097
1320.00,0.0094
1319.00,0.0091
1318.00,0.0089
1317.00,0.0086
1316.00,0.0085
1315.00,0.0084
1314.00,0.0083
1313.00,0.0084
1312.00,0.0085
1311.00,0.0087
1310.00,0.0090
1309.00,0.0095
1308.00,0.0101
1307.00,0.0110
1306.00,0.0119
1305.00,0.0126
1304.00,0.0129
1303.00,0.0129
1302.00,0.0127
1301.00,0.0125
1300.00,0.0125
1299.00,0.0126
1298.00,0.0128
1297.00,0.0130
1296.00,0.0130
1295.00,0.0128
1294.00,0.0124
1293.00,0.0119
1292.00,0.0113
1291.00,0.0107
1290.00,0.0101
1289.00,0.0097
1288.00,0.0094
1287.00,0.0091
1286.00,0.0089
1285.00,0.0087
1284.00,0.0085
1283.00,0.0083
1282.00,0.0082
1281.00,0.0080
1280.00,0.0079
1279.00,0.0078
1278.00,0.0078
1277.00,0.0077
1276.00,0.0077
1275.00,0.0076
1274.00,0.0076
1273.00,0.0076
1272.00,0.0077
1271.00,0.0077
1270.00,0.0078
1269.00,0.0079
1268.00,0.0080
1267.00,0.0081
1266.00,0.0082
1265.00,0.0083
1264.00,0.0085
1263.00,0.0087
1262.00,0.0090
1261.00,0.0094
1260.00,0.0098
1259.00,0.0104
1258.00,0.0109
1257.00,0.0114
1256.00,0.0116
1255.00,0.0116
1254.00,0.0112
1253.00,0.0106
1252.00,0.0100
1251.00,0.0096
1250.00,0.0092
1249.00,0.0090
1248.00,0.0088
1247.00,0.0087
1246.00,0.0087
1245.00,0.0086
1244.00,0.0085
1243.00,0.0084
1242.00,0.0083
1241.00,0.0082
1240.00,0.0082
1239.00,0.0082
1238.00,0.0082
1237.00,0.0081
1236.00,0.0081
1235.00,0.0081
1234.00,0.0080
1233.00,0.0080
1232.00,0.0080
1231.00,0.0080
1230.00,0.0080
1229.00,0.0080
1228.00,0.0081
1227.00,0.0082
1226.00,0.0084
1225.00,0.0088
1224.00,0.0092
1223.00,0.0096
1222.00,0.0100
1221.00,0.0103
1220.00,0.0105
1219.00,0.0106
1218.00,0.0105
1217.00,0.0103
1216.00,0.0100
1215.00,0.0096
1214.00,0.0092
1213.00,0.0089
1212.00,0.0086
1211.00,0.0083
1210.00,0.0081
1209.00,0.0079
1208.00,0.0078
1207.00,0.0077
1206.00,0.0076
1205.00,0.0076
1204.00,0.0075
1203.00,0.0075
1202.00,0.0075
1201.00,0.0074
1200.00,0.0074
1199.00,0.0074
1198.00,0.0074
1197.00,0.0074
1196.00,0.0074
1195.00,0.0074
1194.00,0.0074
1193.00,0.0074
1192.00,0.0073
1191.00,0.0073
1190.00,0.0073
1189.00,0.0073
1188.00,0.0074
1187.00,0.0075
1186.00,0.0076
1185.00,0.0077
1184.00,0.0077
1183.00,0.0079
1182.00,0.0080
1181.00,0.0082
1180.00,0.0085
1179.00,0.0089
1178.00,0.0094
1177.00,0.0100
1176.00,0.0109
1175.00,0.0121
1174.00,0.0137
1173.00,0.0157
1172.00,0.0182
1171.00,0.0208
1170.00,0.0234
1169.00,0.0255
1168.00,0.0268
1167.00,0.0273
1166.00,0.0270
1165.00,0.0261
1164.00,0.0248
1163.00,0.0236
1162.00,0.0224
1161.00,0.0214
1160.00,0.0207
1159.00,0.0202
1158.00,0.0198
1157.00,0.0195
1156.00,0.0194
1155.00,0.0193
1154.00,0.0192
1153.00,0.0190
1152.00,0.0186
1151.00,0.0179
1150.00,0.0171
1149.00,0.0161
1148.00,0.0152
1147.00,0.0142
1146.00,0.0134
1145.00,0.0126
1144.00,0.0119
1143.00,0.0113
1142.00,0.0108
1141.00,0.0102
1140.00,0.0098
1139.00,0.0093
1138.00,0.0090
1137.00,0.0086
1136.00,0.0083
1135.00,0.0080
1134.00,0.0077
1133.00,0.0075
1132.00,0.0074
1131.00,0.0074
1130.00,0.0074
1129.00,0.0074
1128.00,0.0075
1127.00,0.0075
1126.00,0.0075
1125.00,0.0076
1124.00,0.0077
1123.00,0.0078
1122.00,0.0077
1121.00,0.0077
1120.00,0.0076
1119.00,0.0076
1118.00,0.0078
1117.00,0.0079
1116.00,0.0081
1115.00,0.0082
1114.00,0.0084
1113.00,0.0086
1112.00,0.0088
1111.00,0.0091
1110.00,0.0095
1109.00,0.0100
1108.00,0.0106
1107.00,0.0113
1106.00,0.0121
1105.00,0.0129
1104.00,0.0137
1103.00,0.0142
1102.00,0.0143
1101.00,0.0140
1100.00,0.0134
1099.00,0.0126
1098.00,0.0118
1097.00,0.0111
1096.00,0.0105
1095.00,0.0100
1094.00,0.0096
1093.00,0.0092
1092.00,0.0090
1091.00,0.0088
1090.00,0.0087
1089.00,0.0086
1088.00,0.0084
1087.00,0.0083
1086.00,0.0082
1085.00,0.0082
1084.00,0.0081
1083.00,0.0081
1082.00,0.0080
1081.00,0.0078
1080.00,0.0077
1079.00,0.0075
1078.00,0.0074
1077.00,0.0073
1076.00,0.0072
1075.00,0.0072
1074.00,0.0072
1073.00,0.0072
1072.00,0.0072
1071.00,0.0072
1070.00,0.0072
1069.00,0.0072
1068.00,0.0072
1067.00,0.0072
1066.00,0.0073
1065.00,0.0073
1064.00,0.0073
1063.00,0.0073
1062.00,0.0073
1061.00,0.0072
1060.00,0.0072
1059.00,0.0071
1058.00,0.0071
1057.00,0.0072
1056.00,0.0074
1055.00,0.0075
1054.00,0.0076
1053.00,0.0076
1052.00,0.0076
1051.00,0.0077
1050.00,0.0079
1049.00,0.0081
1048.00,0.0084
1047.00,0.0086
1046.00,0.0087
1045.00,0.0087
1044.00,0.0087
1043.00,0.0086
1042.00,0.0084
1041.00,0.0083
1040.00,0.0081
1039.00,0.0081
1038.00,0.0081
1037.00,0.0082
1036.00,0.0082
1035.00,0.0081
1034.00,0.0081
1033.00,0.0080
1032.00,0.0081
1031.00,0.0081
1030.00,0.0081
1029.00,0.0081
1028.00,0.0080
1027.00,0.0079
1026.00,0.0079
1025.00,0.0079
1024.00,0.0079
1023.00,0.0079
1022.00,0.0080
1021.00,0.0080
1020.00,0.0081
1019.00,0.0082
1018.00,0.0083
1017.00,0.0084
1016.00,0.0085
1015.00,0.0088
1014.00,0.0091
1013.00,0.0094
1012.00,0.0097
1011.00,0.0099
1010.00,0.0102
1009.00,0.0104
1008.00,0.0108
1007.00,0.0113
1006.00,0.0121
1005.00,0.0130
1004.00,0.0142
1003.00,0.0159
1002.00,0.0182
1001.00,0.0208
1000.00,0.0236
999.00,0.0257
998.00,0.0266
997.00,0.0260
996.00,0.0239
995.00,0.0211
994.00,0.0182
993.00,0.0156
992.00,0.0135
991.00,0.0120
990.00,0.0110
989.00,0.0103
988.00,0.0098
987.00,0.0096
986.00,0.0095
985.00,0.0097
984.00,0.0102
983.00,0.0110
982.00,0.0121
981.00,0.0136
980.00,0.0155
979.00,0.0179
978.00,0.0209
977.00,0.0244
976.00,0.0280
975.00,0.0314
974.00,0.0337
973.00,0.0344
972.00,0.0332
971.00,0.0302
970.00,0.0262
969.00,0.0222
968.00,0.0186
967.00,0.0159
966.00,0.0139
965.00,0.0124
964.00,0.0113
963.00,0.0105
962.00,0.0099
961.00,0.0093
960.00,0.0089
959.00,0.0086
958.00,0.0083
957.00,0.0080
956.00,0.0077
955.00,0.0076
954.00,0.0075
953.00,0.0074
952.00,0.0074
951.00,0.0074
950.00,0.0074
949.00,0.0074
948.00,0.0075
947.00,0.0077
946.00,0.0079
945.00,0.0082
944.00,0.0086
943.00,0.0090
942.00,0.0094
941.00,0.0096
940.00,0.0096
939.00,0.0093
938.00,0.0089
937.00,0.0083
936.00,0.0077
935.00,0.0072
934.00,0.0068
933.00,0.0065
932.00,0.0064
931.00,0.0062
930.00,0.0061
929.00,0.0060
928.00,0.0060
927.00,0.0060
926.00,0.0061
925.00,0.0061
924.00,0.0061
923.00,0.0061
922.00,0.0063
921.00,0.0065
920.00,0.0066
919.00,0.0067
918.00,0.0067
917.00,0.0067
916.00,0.0067
915.00,0.0067
914.00,0.0069
913.00,0.0070
912.00,0.0072
911.00,0.0073
910.00,0.0075
909.00,0.0077
908.00,0.0079
907.00,0.0084
906.00,0.0092
905.00,0.0103
904.00,0.0119
903.00,0.0140
902.00,0.0165
901.00,0.0189
900.00,0.0206
899.00,0.0210
898.00,0.0201
897.00,0.0182
896.00,0.0160
895.00,0.0137
894.00,0.0118
893.00,0.0103
892.00,0.0092
891.00,0.0084
890.00,0.0079
889.00,0.0076
888.00,0.0074
887.00,0.0073
886.00,0.0072
885.00,0.0072
884.00,0.0071
883.00,0.0070
882.00,0.0069
881.00,0.0068
880.00,0.0068
879.00,0.0070
878.00,0.0071
877.00,0.0072
876.00,0.0071
875.00,0.0071
874.00,0.0071
873.00,0.0071
872.00,0.0070
871.00,0.0070
870.00,0.0069
869.00,0.0069
868.00,0.0070
867.00,0.0071
866.00,0.0072
865.00,0.0073
864.00,0.0072
863.00,0.0072
862.00,0.0072
861.00,0.0073
860.00,0.0075
859.00,0.0078
858.00,0.0081
857.00,0.0083
856.00,0.0085
855.00,0.0086
854.00,0.0087
853.00,0.0089
852.00,0.0091
851.00,0.0095
850.00,0.0099
849.00,0.0105
848.00,0.0111
847.00,0.0121
846.00,0.0135
845.00,0.0158
844.00,0.0188
843.00,0.0221
842.00,0.0245
841.00,0.0250
840.00,0.0234
839.00,0.0204
838.00,0.0172
837.00,0.0147
836.00,0.0131
835.00,0.0122
834.00,0.0115
833.00,0.0111
832.00,0.0108
831.00,0.0105
830.00,0.0103
829.00,0.0101
828.00,0.0099
827.00,0.0098
826.00,0.0098
825.00,0.0098
824.00,0.0098
823.00,0.0099
822.00,0.0100
821.00,0.0101
820.00,0.0103
819.00,0.0106
818.00,0.0111
817.00,0.0119
816.00,0.0130
815.00,0.0143
814.00,0.0159
813.00,0.0179
812.00,0.0199
811.00,0.0216
810.00,0.0227
809.00,0.0230
808.00,0.0227
807.00,0.0217
806.00,0.0203
805.00,0.0186
804.00,0.0168
803.00,0.0151
802.00,0.0136
801.00,0.0125
800.00,0.0117
799.00,0.0110
798.00,0.0105
797.00,0.0100
796.00,0.0096
795.00,0.0093
794.00,0.0090
793.00,0.0087
792.00,0.0086
791.00,0.0084
790.00,0.0082
789.00,0.0080
788.00,0.0078
787.00,0.0075
786.00,0.0073
785.00,0.0071
784.00,0.0069
783.00,0.0066
782.00,0.0064
781.00,0.0061
780.00,0.0059
779.00,0.0057
778.00,0.0057
777.00,0.0058
776.00,0.0059
775.00,0.0061
774.00,0.0063
773.00,0.0065
772.00,0.0067
771.00,0.0069
770.00,0.0072
769.00,0.0074
768.00,0.0075
767.00,0.0076
766.00,0.0076
765.00,0.0074
764.00,0.0072
763.00,0.0069
762.00,0.0067
761.00,0.0064
760.00,0.0062
759.00,0.0060
758.00,0.0058
757.00,0.0057
756.00,0.0056
755.00,0.0055
754.00,0.0054
753.00,0.0053
752.00,0.0052
751.00,0.0052
750.00,0.0053
749.00,0.0053
748.00,0.0054
747.00,0.0055
746.00,0.0055
745.00,0.0054
744.00,0.0053
743.00,0.0053
742.00,0.0053
741.00,0.0055
740.00,0.0058
739.00,0.0060
738.00,0.0061
737.00,0.0063
736.00,0.0064
735.00,0.0065
734.00,0.0066
733.00,0.0067
732.00,0.0068
731.00,0.0069
730.00,0.0068
729.00,0.0066
728.00,0.0064
727.00,0.0063
726.00,0.0062
725.00,0.0061
724.00,0.0062
723.00,0.0063
722.00,0.0063
721.00,0.0062
720.00,0.0060
719.00,0.0058
718.00,0.0057
717.00,0.0056
716.00,0.0056
715.00,0.0056
714.00,0.0058
713.00,0.0059
712.00,0.0059
711.00,0.0058
710.00,0.0058
709.00,0.0057
708.00,0.0057
707.00,0.0056
706.00,0.0056
705.00,0.0055
704.00,0.0054
703.00,0.0054
702.00,0.0054
701.00,0.0053
700.00,0.0053
699.00,0.0053
698.00,0.0054
697.00,0.0054
696.00,0.0055
695.00,0.0055
694.00,0.0054
693.00,0.0053
692.00,0.0052
691.00,0.0051
690.00,0.0050
689.00,0.0049
688.00,0.0049
687.00,0.0051
686.00,0.0052
685.00,0.0052
684.00,0.0051
683.00,0.0050
682.00,0.0050
681.00,0.0050
680.00,0.0050
679.00,0.0051
678.00,0.0051
677.00,0.0052
676.00,0.0052
675.00,0.0052
674.00,0.0052
673.00,0.0052
672.00,0.0051
671.00,0.0052
670.00,0.0055
669.00,0.0058
668.00,0.0060
667.00,0.0062
666.00,0.0060
665.00,0.0057
664.00,0.0056
663.00,0.0056
662.00,0.0057
661.00,0.0056
660.00,0.0055
659.00,0.0054
658.00,0.0054
657.00,0.0053
656.00,0.0053
655.00,0.0053
654.00,0.0053
653.00,0.0051
652.00,0.0048
651.00,0.0046
650.00,0.0046
649.00,0.0047
648.00,0.0048
647.00,0.0049
646.00,0.0051
645.00,0.0053
644.00,0.0055
643.00,0.0056
642.00,0.0055
641.00,0.0054
640.00,0.0053
639.00,0.0052
638.00,0.0052
637.00,0.0053
636.00,0.0054
635.00,0.0056
634.00,0.0058
633.00,0.0058
632.00,0.0058
631.00,0.0057
630.00,0.0055
629.00,0.0054
628.00,0.0053
627.00,0.0052
626.00,0.0052
625.00,0.0053
624.00,0.0054
623.00,0.0054
622.00,0.0053
621.00,0.0053
620.00,0.0054
619.00,0.0057
618.00,0.0060
617.00,0.0061
616.00,0.0059
615.00,0.0056
614.00,0.0054
613.00,0.0053
612.00,0.0052
611.00,0.0052
610.00,0.0053
609.00,0.0054
608.00,0.0056
607.00,0.0055
606.00,0.0053
605.00,0.0052
604.00,0.0052
603.00,0.0054
602.00,0.0055
601.00,0.0054
600.00,0.0052
599.00,0.0050
598.00,0.0050
597.00,0.0051
596.00,0.0052
595.00,0.0054
594.00,0.0055
593.00,0.0056
592.00,0.0056
591.00,0.0056
590.00,0.0056
589.00,0.0057
588.00,0.0059
587.00,0.0060
586.00,0.0061
585.00,0.0061
584.00,0.0062
583.00,0.0065
582.00,0.0066
581.00,0.0067
580.00,0.0065
579.00,0.0062
578.00,0.0061
577.00,0.0061
576.00,0.0064
575.00,0.0066
574.00,0.0069
573.00,0.0071
572.00,0.0072
571.00,0.0073
570.00,0.0075
569.00,0.0075
568.00,0.0073
567.00,0.0071
566.00,0.0068
565.00,0.0066
564.00,0.0062
563.00,0.0058
562.00,0.0055
561.00,0.0055
560.00,0.0057
559.00,0.0059
558.00,0.0059
557.00,0.0058
556.00,0.0057
555.00,0.0057
554.00,0.0057
553.00,0.0056
552.00,0.0056
551.00,0.0058
550.00,0.0060
549.00,0.0059
548.00,0.0057
547.00,0.0057
546.00,0.0059
545.00,0.0064
544.00,0.0068
543.00,0.0070
542.00,0.0069
541.00,0.0068
540.00,0.0067
539.00,0.0065
538.00,0.0065
537.00,0.0066
536.00,0.0070
535.00,0.0075
534.00,0.0080
533.00,0.0083
532.00,0.0080
531.00,0.0076
530.00,0.0072
529.00,0.0072
528.00,0.0076
527.00,0.0081
526.00,0.0084
525.00,0.0082
524.00,0.0078
523.00,0.0073
522.00,0.0070
521.00,0.0069
520.00,0.0070
519.00,0.0073
518.00,0.0076
517.00,0.0077
516.00,0.0074
515.00,0.0070
514.00,0.0065
513.00,0.0059
512.00,0.0052
511.00,0.0048
510.00,0.0049
509.00,0.0054
508.00,0.0061
507.00,0.0067
506.00,0.0073
505.00,0.0075
504.00,0.0074
503.00,0.0069
502.00,0.0066
501.00,0.0067
500.00,0.0068
499.00,0.0067
498.00,0.0063
497.00,0.0059
496.00,0.0058
495.00,0.0058
494.00,0.0056
493.00,0.0050
492.00,0.0043
491.00,0.0040
490.00,0.0045
489.00,0.0054
488.00,0.0063
487.00,0.0068
486.00,0.0068
485.00,0.0065
484.00,0.0067
483.00,0.0076
482.00,0.0087
481.00,0.0092
480.00,0.0089
479.00,0.0083
478.00,0.0081
477.00,0.0083
476.00,0.0084
475.00,0.0083
474.00,0.0080
473.00,0.0077
472.00,0.0076
471.00,0.0078
470.00,0.0082
469.00,0.0087
468.00,0.0090
467.00,0.0093
466.00,0.0098
465.00,0.0105
464.00,0.0116
463.00,0.0130
462.00,0.0145
461.00,0.0156
460.00,0.0162
459.00,0.0161
458.00,0.0158
457.00,0.0157
456.00,0.0158
455.00,0.0156
454.00,0.0148
453.00,0.0135
452.00,0.0119
451.00,0.0105
450.00,0.0097
