Created as New Dataset,Sample 016 By Administrator Date Wednesday, September 10 2025
cm-1,A
4000.00,0.0011
3999.00,0.0012
3998.00,0.0012
3997.00,0.0012
3996.00,0.0012
3995.00,0.0012
3994.00,0.0012
3993.00,0.0012
3992.00,0.0012
3991.00,0.0012
3990.00,0.0012
3989.00,0.0011
3988.00,0.0011
3987.00,0.0011
3986.00,0.0011
3985.00,0.0011
3984.00,0.0011
3983.00,0.0011
3982.00,0.0011
3981.00,0.0011
3980.00,0.0011
3979.00,0.0011
3978.00,0.0011
3977.00,0.0011
3976.00,0.0011
3975.00,0.0011
3974.00,0.0011
3973.00,0.0011
3972.00,0.0011
3971.00,0.0010
3970.00,0.0010
3969.00,0.0010
3968.00,0.0010
3967.00,0.0010
3966.00,0.0010
3965.00,0.0010
3964.00,0.0010
3963.00,0.0010
3962.00,0.0010
3961.00,0.0010
3960.00,0.0010
3959.00,0.0009
3958.00,0.0009
3957.00,0.0009
3956.00,0.0009
3955.00,0.0009
3954.00,0.0009
3953.00,0.0009
3952.00,0.0009
3951.00,0.0008
3950.00,0.0008
3949.00,0.0008
3948.00,0.0008
3947.00,0.0008
3946.00,0.0008
3945.00,0.0008
3944.00,0.0009
3943.00,0.0009
3942.00,0.0009
3941.00,0.0010
3940.00,0.0010
3939.00,0.0010
3938.00,0.0010
3937.00,0.0009
3936.00,0.0009
3935.00,0.0009
3934.00,0.0009
3933.00,0.0009
3932.00,0.0009
3931.00,0.0009
3930.00,0.0009
3929.00,0.0009
3928.00,0.0009
3927.00,0.0009
3926.00,0.0009
3925.00,0.0009
3924.00,0.0009
3923.00,0.0009
3922.00,0.0008
3921.00,0.0008
3920.00,0.0008
3919.00,0.0008
3918.00,0.0008
3917.00,0.0008
3916.00,0.0009
3915.00,0.0009
3914.00,0.0009
3913.00,0.0009
3912.00,0.0010
3911.00,0.0010
3910.00,0.0010
3909.00,0.0009
3908.00,0.0009
3907.00,0.0008
3906.00,0.0007
3905.00,0.0007
3904.00,0.0006
3903.00,0.0005
3902.00,0.0005
3901.00,0.0006
3900.00,0.0006
3899.00,0.0007
3898.00,0.0008
3897.00,0.0008
3896.00,0.0009
3895.00,0.0009
3894.00,0.0009
3893.00,0.0009
3892.00,0.0009
3891.00,0.0008
3890.00,0.0008
3889.00,0.0007
3888.00,0.0007
3887.00,0.0007
3886.00,0.0007
3885.00,0.0007
3884.00,0.0007
3883.00,0.0007
3882.00,0.0007
3881.00,0.0007
3880.00,0.0008
3879.00,0.0008
3878.00,0.0008
3877.00,0.0008
3876.00,0.0008
3875.00,0.0009
3874.00,0.0009
3873.00,0.0009
3872.00,0.0008
3871.00,0.0008
3870.00,0.0007
3869.00,0.0007
3868.00,0.0006
3867.00,0.0006
3866.00,0.0007
3865.00,0.0007
3864.00,0.0008
3863.00,0.0008
3862.00,0.0007
3861.00,0.0007
3860.00,0.0007
3859.00,0.0007
3858.00,0.0007
3857.00,0.0007
3856.00,0.0006
3855.00,0.0006
3854.00,0.0005
3853.00,0.0005
3852.00,0.0005
3851.00,0.0005
3850.00,0.0006
3849.00,0.0007
3848.00,0.0008
3847.00,0.0008
3846.00,0.0008
3845.00,0.0008
3844.00,0.0008
3843.00,0.0008
3842.00,0.0007
3841.00,0.0007
3840.00,0.0007
3839.00,0.0007
3838.00,0.0007
3837.00,0.0006
3836.00,0.0006
3835.00,0.0006
3834.00,0.0007
3833.00,0.0007
3832.00,0.0007
3831.00,0.0007
3830.00,0.0007
3829.00,0.0007
3828.00,0.0008
3827.00,0.0008
3826.00,0.0008
3825.00,0.0008
3824.00,0.0008
3823.00,0.0008
3822.00,0.0009
3821.00,0.0009
3820.00,0.0009
3819.00,0.0008
3818.00,0.0008
3817.00,0.0008
3816.00,0.0007
3815.00,0.0007
3814.00,0.0007
3813.00,0.0007
3812.00,0.0008
3811.00,0.0008
3810.00,0.0007
3809.00,0.0007
3808.00,0.0007
3807.00,0.0008
3806.00,0.0008
3805.00,0.0008
3804.00,0.0008
3803.00,0.0009
3802.00,0.0009
3801.00,0.0009
3800.00,0.0008
3799.00,0.0008
3798.00,0.0008
3797.00,0.0008
3796.00,0.0008
3795.00,0.0007
3794.00,0.0007
3793.00,0.0008
3792.00,0.0008
3791.00,0.0008
3790.00,0.0008
3789.00,0.0008
3788.00,0.0008
3787.00,0.0008
3786.00,0.0008
3785.00,0.0009
3784.00,0.0009
3783.00,0.0009
3782.00,0.0009
3781.00,0.0009
3780.00,0.0009
3779.00,0.0009
3778.00,0.0008
3777.00,0.0008
3776.00,0.0008
3775.00,0.0008
3774.00,0.0008
3773.00,0.0009
3772.00,0.0009
3771.00,0.0009
3770.00,0.0008
3769.00,0.0008
3768.00,0.0008
3767.00,0.0008
3766.00,0.0008
3765.00,0.0009
3764.00,0.0009
3763.00,0.0009
3762.00,0.0009
3761.00,0.0009
3760.00,0.0009
3759.00,0.0009
3758.00,0.0009
3757.00,0.0008
3756.00,0.0008
3755.00,0.0008
3754.00,0.0007
3753.00,0.0007
3752.00,0.0006
3751.00,0.0005
3750.00,0.0005
3749.00,0.0004
3748.00,0.0004
3747.00,0.0004
3746.00,0.0004
3745.00,0.0004
3744.00,0.0004
3743.00,0.0004
3742.00,0.0005
3741.00,0.0005
3740.00,0.0006
3739.00,0.0006
3738.00,0.0006
3737.00,0.0006
3736.00,0.0006
3735.00,0.0006
3734.00,0.0006
3733.00,0.0006
3732.00,0.0006
3731.00,0.0006
3730.00,0.0006
3729.00,0.0006
3728.00,0.0006
3727.00,0.0006
3726.00,0.0006
3725.00,0.0006
3724.00,0.0006
3723.00,0.0007
3722.00,0.0007
3721.00,0.0007
3720.00,0.0007
3719.00,0.0007
3718.00,0.0007
3717.00,0.0007
3716.00,0.0007
3715.00,0.0008
3714.00,0.0008
3713.00,0.0008
3712.00,0.0009
3711.00,0.0009
3710.00,0.0010
3709.00,0.0010
3708.00,0.0009
3707.00,0.0009
3706.00,0.0009
3705.00,0.0008
3704.00,0.0008
3703.00,0.0008
3702.00,0.0009
3701.00,0.0009
3700.00,0.0009
3699.00,0.0009
3698.00,0.0009
3697.00,0.0009
3696.00,0.0009
3695.00,0.0009
3694.00,0.0010
3693.00,0.0010
3692.00,0.0009
3691.00,0.0009
3690.00,0.0010
3689.00,0.0010
3688.00,0.0011
3687.00,0.0012
3686.00,0.0013
3685.00,0.0014
3684.00,0.0015
3683.00,0.0016
3682.00,0.0016
3681.00,0.0017
3680.00,0.0018
3679.00,0.0018
3678.00,0.0018
3677.00,0.0017
3676.00,0.0017
3675.00,0.0017
3674.00,0.0016
3673.00,0.0016
3672.00,0.0016
3671.00,0.0016
3670.00,0.0017
3669.00,0.0017
3668.00,0.0018
3667.00,0.0018
3666.00,0.0018
3665.00,0.0018
3664.00,0.0019
3663.00,0.0019
3662.00,0.0020
3661.00,0.0020
3660.00,0.0020
3659.00,0.0021
3658.00,0.0021
3657.00,0.0021
3656.00,0.0021
3655.00,0.0021
3654.00,0.0021
3653.00,0.0022
3652.00,0.0022
3651.00,0.0022
3650.00,0.0023
3649.00,0.0024
3648.00,0.0025
3647.00,0.0026
3646.00,0.0026
3645.00,0.0026
3644.00,0.0027
3643.00,0.0027
3642.00,0.0028
3641.00,0.0029
3640.00,0.0030
3639.00,0.0031
3638.00,0.0032
3637.00,0.0032
3636.00,0.0033
3635.00,0.0033
3634.00,0.0034
3633.00,0.0033
3632.00,0.0033
3631.00,0.0033
3630.00,0.0033
3629.00,0.0034
3628.00,0.0035
3627.00,0.0036
3626.00,0.0037
3625.00,0.0039
3624.00,0.0040
3623.00,0.0041
3622.00,0.0042
3621.00,0.0043
3620.00,0.0043
3619.00,0.0044
3618.00,0.0045
3617.00,0.0045
3616.00,0.0046
3615.00,0.0046
3614.00,0.0047
3613.00,0.0049
3612.00,0.0050
3611.00,0.0050
3610.00,0.0051
3609.00,0.0053
3608.00,0.0054
3607.00,0.0055
3606.00,0.0057
3605.00,0.0057
3604.00,0.0058
3603.00,0.0059
3602.00,0.0061
3601.00,0.0062
3600.00,0.0063
3599.00,0.0064
3598.00,0.0064
3597.00,0.0065
3596.00,0.0066
3595.00,0.0068
3594.00,0.0069
3593.00,0.0070
3592.00,0.0071
3591.00,0.0071
3590.00,0.0071
3589.00,0.0072
3588.00,0.0074
3587.00,0.0076
3586.00,0.0078
3585.00,0.0080
3584.00,0.0081
3583.00,0.0082
3582.00,0.0083
3581.00,0.0084
3580.00,0.0085
3579.00,0.0086
3578.00,0.0088
3577.00,0.0089
3576.00,0.0090
3575.00,0.0091
3574.00,0.0092
3573.00,0.0093
3572.00,0.0094
3571.00,0.0095
3570.00,0.0095
3569.00,0.0096
3568.00,0.0098
3567.00,0.0101
3566.00,0.0104
3565.00,0.0106
3564.00,0.0108
3563.00,0.0109
3562.00,0.0110
3561.00,0.0112
3560.00,0.0113
3559.00,0.0115
3558.00,0.0116
3557.00,0.0117
3556.00,0.0118
3555.00,0.0119
3554.00,0.0121
3553.00,0.0122
3552.00,0.0124
3551.00,0.0125
3550.00,0.0127
3549.00,0.0128
3548.00,0.0130
3547.00,0.0131
3546.00,0.0133
3545.00,0.0135
3544.00,0.0137
3543.00,0.0139
3542.00,0.0141
3541.00,0.0142
3540.00,0.0144
3539.00,0.0145
3538.00,0.0147
3537.00,0.0148
3536.00,0.0150
3535.00,0.0152
3534.00,0.0153
3533.00,0.0155
3532.00,0.0156
3531.00,0.0158
3530.00,0.0159
3529.00,0.0161
3528.00,0.0163
3527.00,0.0165
3526.00,0.0167
3525.00,0.0169
3524.00,0.0170
3523.00,0.0172
3522.00,0.0173
3521.00,0.0175
3520.00,0.0177
3519.00,0.0179
3518.00,0.0181
3517.00,0.0183
3516.00,0.0185
3515.00,0.0187
3514.00,0.0189
3513.00,0.0191
3512.00,0.0193
3511.00,0.0194
3510.00,0.0196
3509.00,0.0197
3508.00,0.0199
3507.00,0.0201
3506.00,0.0203
3505.00,0.0205
3504.00,0.0207
3503.00,0.0209
3502.00,0.0211
3501.00,0.0213
3500.00,0.0215
3499.00,0.0216
3498.00,0.0218
3497.00,0.0220
3496.00,0.0221
3495.00,0.0223
3494.00,0.0225
3493.00,0.0227
3492.00,0.0228
3491.00,0.0230
3490.00,0.0232
3489.00,0.0234
3488.00,0.0236
3487.00,0.0238
3486.00,0.0240
3485.00,0.0242
3484.00,0.0243
3483.00,0.0245
3482.00,0.0247
3481.00,0.0249
3480.00,0.0250
3479.00,0.0252
3478.00,0.0254
3477.00,0.0256
3476.00,0.0257
3475.00,0.0259
3474.00,0.0261
3473.00,0.0262
3472.00,0.0264
3471.00,0.0265
3470.00,0.0266
3469.00,0.0268
3468.00,0.0269
3467.00,0.0271
3466.00,0.0272
3465.00,0.0273
3464.00,0.0275
3463.00,0.0276
3462.00,0.0277
3461.00,0.0279
3460.00,0.0281
3459.00,0.0282
3458.00,0.0284
3457.00,0.0285
3456.00,0.0287
3455.00,0.0288
3454.00,0.0289
3453.00,0.0290
3452.00,0.0291
3451.00,0.0292
3450.00,0.0293
3449.00,0.0295
3448.00,0.0296
3447.00,0.0298
3446.00,0.0299
3445.00,0.0300
3444.00,0.0301
3443.00,0.0302
3442.00,0.0303
3441.00,0.0305
3440.00,0.0306
3439.00,0.0307
3438.00,0.0309
3437.00,0.0310
3436.00,0.0311
3435.00,0.0312
3434.00,0.0313
3433.00,0.0314
3432.00,0.0316
3431.00,0.0317
3430.00,0.0318
3429.00,0.0320
3428.00,0.0321
3427.00,0.0321
3426.00,0.0322
3425.00,0.0323
3424.00,0.0323
3423.00,0.0324
3422.00,0.0325
3421.00,0.0326
3420.00,0.0327
3419.00,0.0329
3418.00,0.0330
3417.00,0.0332
3416.00,0.0333
3415.00,0.0333
3414.00,0.0334
3413.00,0.0335
3412.00,0.0336
3411.00,0.0337
3410.00,0.0338
3409.00,0.0338
3408.00,0.0339
3407.00,0.0339
3406.00,0.0340
3405.00,0.0341
3404.00,0.0342
3403.00,0.0343
3402.00,0.0344
3401.00,0.0344
3400.00,0.0345
3399.00,0.0345
3398.00,0.0346
3397.00,0.0347
3396.00,0.0347
3395.00,0.0348
3394.00,0.0349
3393.00,0.0349
3392.00,0.0350
3391.00,0.0350
3390.00,0.0350
3389.00,0.0350
3388.00,0.0350
3387.00,0.0350
3386.00,0.0350
3385.00,0.0350
3384.00,0.0351
3383.00,0.0351
3382.00,0.0352
3381.00,0.0353
3380.00,0.0353
3379.00,0.0353
3378.00,0.0353
3377.00,0.0353
3376.00,0.0352
3375.00,0.0352
3374.00,0.0352
3373.00,0.0353
3372.00,0.0353
3371.00,0.0354
3370.00,0.0354
3369.00,0.0354
3368.00,0.0354
3367.00,0.0354
3366.00,0.0353
3365.00,0.0353
3364.00,0.0353
3363.00,0.0353
3362.00,0.0352
3361.00,0.0352
3360.00,0.0351
3359.00,0.0351
3358.00,0.0351
3357.00,0.0351
3356.00,0.0351
3355.00,0.0351
3354.00,0.0350
3353.00,0.0350
3352.00,0.0350
3351.00,0.0349
3350.00,0.0349
3349.00,0.0349
3348.00,0.0349
3347.00,0.0348
3346.00,0.0347
3345.00,0.0347
3344.00,0.0346
3343.00,0.0346
3342.00,0.0345
3341.00,0.0344
3340.00,0.0344
3339.00,0.0343
3338.00,0.0342
3337.00,0.0342
3336.00,0.0342
3335.00,0.0342
3334.00,0.0341
3333.00,0.0341
3332.00,0.0340
3331.00,0.0340
3330.00,0.0339
3329.00,0.0338
3328.00,0.0337
3327.00,0.0336
3326.00,0.0335
3325.00,0.0335
3324.00,0.0334
3323.00,0.0333
3322.00,0.0333
3321.00,0.0332
3320.00,0.0331
3319.00,0.0330
3318.00,0.0330
3317.00,0.0329
3316.00,0.0329
3315.00,0.0328
3314.00,0.0328
3313.00,0.0327
3312.00,0.0326
3311.00,0.0324
3310.00,0.0323
3309.00,0.0322
3308.00,0.0322
3307.00,0.0321
3306.00,0.0320
3305.00,0.0319
3304.00,0.0318
3303.00,0.0317
3302.00,0.0316
3301.00,0.0315
3300.00,0.0314
3299.00,0.0313
3298.00,0.0312
3297.00,0.0311
3296.00,0.0310
3295.00,0.0309
3294.00,0.0308
3293.00,0.0307
3292.00,0.0306
3291.00,0.0305
3290.00,0.0303
3289.00,0.0302
3288.00,0.0301
3287.00,0.0300
3286.00,0.0300
3285.00,0.0299
3284.00,0.0298
3283.00,0.0297
3282.00,0.0296
3281.00,0.0295
3280.00,0.0293
3279.00,0.0292
3278.00,0.0291
3277.00,0.0290
3276.00,0.0289
3275.00,0.0288
3274.00,0.0287
3273.00,0.0286
3272.00,0.0285
3271.00,0.0284
3270.00,0.0283
3269.00,0.0281
3268.00,0.0280
3267.00,0.0280
3266.00,0.0279
3265.00,0.0278
3264.00,0.0277
3263.00,0.0276
3262.00,0.0275
3261.00,0.0274
3260.00,0.0272
3259.00,0.0271
3258.00,0.0270
3257.00,0.0269
3256.00,0.0268
3255.00,0.0266
3254.00,0.0265
3253.00,0.0264
3252.00,0.0263
3251.00,0.0262
3250.00,0.0261
3249.00,0.0260
3248.00,0.0259
3247.00,0.0258
3246.00,0.0257
3245.00,0.0256
3244.00,0.0256
3243.00,0.0255
3242.00,0.0254
3241.00,0.0253
3240.00,0.0251
3239.00,0.0250
3238.00,0.0249
3237.00,0.0248
3236.00,0.0247
3235.00,0.0246
3234.00,0.0245
3233.00,0.0244
3232.00,0.0243
3231.00,0.0242
3230.00,0.0241
3229.00,0.0240
3228.00,0.0239
3227.00,0.0238
3226.00,0.0237
3225.00,0.0236
3224.00,0.0235
3223.00,0.0234
3222.00,0.0233
3221.00,0.0232
3220.00,0.0231
3219.00,0.0230
3218.00,0.0230
3217.00,0.0230
3216.00,0.0230
3215.00,0.0229
3214.00,0.0229
3213.00,0.0228
3212.00,0.0227
3211.00,0.0226
3210.00,0.0226
3209.00,0.0226
3208.00,0.0225
3207.00,0.0225
3206.00,0.0224
3205.00,0.0223
3204.00,0.0222
3203.00,0.0222
3202.00,0.0221
3201.00,0.0220
3200.00,0.0220
3199.00,0.0220
3198.00,0.0219
3197.00,0.0218
3196.00,0.0217
3195.00,0.0216
3194.00,0.0215
3193.00,0.0215
3192.00,0.0215
3191.00,0.0215
3190.00,0.0214
3189.00,0.0213
3188.00,0.0212
3187.00,0.0212
3186.00,0.0211
3185.00,0.0210
3184.00,0.0209
3183.00,0.0207
3182.00,0.0206
3181.00,0.0205
3180.00,0.0204
3179.00,0.0203
3178.00,0.0203
3177.00,0.0202
3176.00,0.0201
3175.00,0.0200
3174.00,0.0199
3173.00,0.0198
3172.00,0.0197
3171.00,0.0196
3170.00,0.0195
3169.00,0.0194
3168.00,0.0193
3167.00,0.0193
3166.00,0.0192
3165.00,0.0191
3164.00,0.0190
3163.00,0.0189
3162.00,0.0188
3161.00,0.0186
3160.00,0.0185
3159.00,0.0184
3158.00,0.0183
3157.00,0.0181
3156.00,0.0180
3155.00,0.0180
3154.00,0.0179
3153.00,0.0179
3152.00,0.0178
3151.00,0.0177
3150.00,0.0176
3149.00,0.0175
3148.00,0.0174
3147.00,0.0174
3146.00,0.0173
3145.00,0.0173
3144.00,0.0172
3143.00,0.0171
3142.00,0.0170
3141.00,0.0168
3140.00,0.0167
3139.00,0.0166
3138.00,0.0165
3137.00,0.0164
3136.00,0.0164
3135.00,0.0164
3134.00,0.0163
3133.00,0.0163
3132.00,0.0162
3131.00,0.0160
3130.00,0.0160
3129.00,0.0159
3128.00,0.0158
3127.00,0.0158
3126.00,0.0157
3125.00,0.0156
3124.00,0.0155
3123.00,0.0153
3122.00,0.0152
3121.00,0.0150
3120.00,0.0149
3119.00,0.0149
3118.00,0.0148
3117.00,0.0148
3116.00,0.0147
3115.00,0.0147
3114.00,0.0146
3113.00,0.0145
3112.00,0.0144
3111.00,0.0143
3110.00,0.0142
3109.00,0.0141
3108.00,0.0140
3107.00,0.0139
3106.00,0.0138
3105.00,0.0137
3104.00,0.0137
3103.00,0.0136
3102.00,0.0135
3101.00,0.0134
3100.00,0.0134
3099.00,0.0133
3098.00,0.0133
3097.00,0.0132
3096.00,0.0132
3095.00,0.0132
3094.00,0.0131
3093.00,0.0129
3092.00,0.0128
3091.00,0.0127
3090.00,0.0126
3089.00,0.0126
3088.00,0.0125
3087.00,0.0125
3086.00,0.0124
3085.00,0.0123
3084.00,0.0122
3083.00,0.0121
3082.00,0.0120
3081.00,0.0120
3080.00,0.0119
3079.00,0.0119
3078.00,0.0119
3077.00,0.0118
3076.00,0.0118
3075.00,0.0119
3074.00,0.0119
3073.00,0.0120
3072.00,0.0121
3071.00,0.0121
3070.00,0.0121
3069.00,0.0121
3068.00,0.0121
3067.00,0.0122
3066.00,0.0122
3065.00,0.0123
3064.00,0.0123
3063.00,0.0123
3062.00,0.0122
3061.00,0.0122
3060.00,0.0121
3059.00,0.0120
3058.00,0.0120
3057.00,0.0119
3056.00,0.0118
3055.00,0.0118
3054.00,0.0117
3053.00,0.0117
3052.00,0.0117
3051.00,0.0117
3050.00,0.0117
3049.00,0.0118
3048.00,0.0118
3047.00,0.0119
3046.00,0.0120
3045.00,0.0120
3044.00,0.0121
3043.00,0.0121
3042.00,0.0122
3041.00,0.0123
3040.00,0.0124
3039.00,0.0125
3038.00,0.0126
3037.00,0.0126
3036.00,0.0126
3035.00,0.0127
3034.00,0.0127
3033.00,0.0127
3032.00,0.0128
3031.00,0.0128
3030.00,0.0128
3029.00,0.0128
3028.00,0.0129
3027.00,0.0129
3026.00,0.0129
3025.00,0.0130
3024.00,0.0130
3023.00,0.0130
3022.00,0.0130
3021.00,0.0130
3020.00,0.0129
3019.00,0.0129
3018.00,0.0129
3017.00,0.0129
3016.00,0.0129
3015.00,0.0129
3014.00,0.0129
3013.00,0.0129
3012.00,0.0130
3011.00,0.0130
3010.00,0.0130
3009.00,0.0131
3008.00,0.0131
3007.00,0.0131
3006.00,0.0132
3005.00,0.0132
3004.00,0.0133
3003.00,0.0133
3002.00,0.0134
3001.00,0.0135
3000.00,0.0136
2999.00,0.0138
2998.00,0.0140
2997.00,0.0142
2996.00,0.0144
2995.00,0.0147
2994.00,0.0150
2993.00,0.0154
2992.00,0.0158
2991.00,0.0163
2990.00,0.0168
2989.00,0.0173
2988.00,0.0179
2987.00,0.0186
2986.00,0.0193
2985.00,0.0200
2984.00,0.0208
2983.00,0.0216
2982.00,0.0226
2981.00,0.0238
2980.00,0.0251
2979.00,0.0267
2978.00,0.0284
2977.00,0.0304
2976.00,0.0325
2975.00,0.0350
2974.00,0.0378
2973.00,0.0410
2972.00,0.0445
2971.00,0.0485
2970.00,0.0530
2969.00,0.0580
2968.00,0.0635
2967.00,0.0694
2966.00,0.0756
2965.00,0.0821
2964.00,0.0888
2963.00,0.0953
2962.00,0.1016
2961.00,0.1072
2960.00,0.1120
2959.00,0.1159
2958.00,0.1189
2957.00,0.1213
2956.00,0.1233
2955.00,0.1252
2954.00,0.1271
2953.00,0.1289
2952.00,0.1306
2951.00,0.1319
2950.00,0.1322
2949.00,0.1315
2948.00,0.1294
2947.00,0.1260
2946.00,0.1218
2945.00,0.1171
2944.00,0.1125
2943.00,0.1087
2942.00,0.1061
2941.00,0.1048
2940.00,0.1050
2939.00,0.1064
2938.00,0.1091
2937.00,0.1128
2936.00,0.1174
2935.00,0.1229
2934.00,0.1291
2933.00,0.1361
2932.00,0.1436
2931.00,0.1515
2930.00,0.1597
2929.00,0.1679
2928.00,0.1757
2927.00,0.1831
2926.00,0.1897
2925.00,0.1955
2924.00,0.2003
2923.00,0.2041
2922.00,0.2070
2921.00,0.2089
2920.00,0.2098
2919.00,0.2095
2918.00,0.2079
2917.00,0.2048
2916.00,0.2003
2915.00,0.1946
2914.00,0.1881
2913.00,0.1814
2912.00,0.1747
2911.00,0.1684
2910.00,0.1626
2909.00,0.1574
2908.00,0.1526
2907.00,0.1482
2906.00,0.1438
2905.00,0.1395
2904.00,0.1351
2903.00,0.1307
2902.00,0.1262
2901.00,0.1217
2900.00,0.1173
2899.00,0.1130
2898.00,0.1090
2897.00,0.1052
2896.00,0.1017
2895.00,0.0985
2894.00,0.0958
2893.00,0.0934
2892.00,0.0914
2891.00,0.0897
2890.00,0.0884
2889.00,0.0874
2888.00,0.0867
2887.00,0.0862
2886.00,0.0860
2885.00,0.0861
2884.00,0.0865
2883.00,0.0872
2882.00,0.0883
2881.00,0.0897
2880.00,0.0912
2879.00,0.0928
2878.00,0.0942
2877.00,0.0953
2876.00,0.0961
2875.00,0.0966
2874.00,0.0971
2873.00,0.0975
2872.00,0.0981
2871.00,0.0990
2870.00,0.1001
2869.00,0.1014
2868.00,0.1028
2867.00,0.1038
2866.00,0.1043
2865.00,0.1041
2864.00,0.1033
2863.00,0.1020
2862.00,0.1007
2861.00,0.0997
2860.00,0.0992
2859.00,0.0992
2858.00,0.0996
2857.00,0.1002
2856.00,0.1007
2855.00,0.1008
2854.00,0.1003
2853.00,0.0991
2852.00,0.0972
2851.00,0.0948
2850.00,0.0920
2849.00,0.0891
2848.00,0.0865
2847.00,0.0843
2846.00,0.0827
2845.00,0.0819
2844.00,0.0818
2843.00,0.0825
2842.00,0.0838
2841.00,0.0853
2840.00,0.0867
2839.00,0.0875
2838.00,0.0871
2837.00,0.0852
2836.00,0.0816
2835.00,0.0766
2834.00,0.0705
2833.00,0.0639
2832.00,0.0575
2831.00,0.0517
2830.00,0.0466
2829.00,0.0424
2828.00,0.0388
2827.00,0.0359
2826.00,0.0334
2825.00,0.0314
2824.00,0.0296
2823.00,0.0281
2822.00,0.0267
2821.00,0.0256
2820.00,0.0245
2819.00,0.0236
2818.00,0.0228
2817.00,0.0221
2816.00,0.0214
2815.00,0.0208
2814.00,0.0202
2813.00,0.0197
2812.00,0.0192
2811.00,0.0188
2810.00,0.0183
2809.00,0.0178
2808.00,0.0173
2807.00,0.0169
2806.00,0.0164
2805.00,0.0159
2804.00,0.0154
2803.00,0.0150
2802.00,0.0146
2801.00,0.0142
2800.00,0.0139
2799.00,0.0136
2798.00,0.0133
2797.00,0.0131
2796.00,0.0129
2795.00,0.0127
2794.00,0.0124
2793.00,0.0122
2792.00,0.0119
2791.00,0.0117
2790.00,0.0114
2789.00,0.0111
2788.00,0.0108
2787.00,0.0106
2786.00,0.0103
2785.00,0.0101
2784.00,0.0099
2783.00,0.0097
2782.00,0.0096
2781.00,0.0094
2780.00,0.0093
2779.00,0.0091
2778.00,0.0089
2777.00,0.0088
2776.00,0.0086
2775.00,0.0085
2774.00,0.0084
2773.00,0.0083
2772.00,0.0082
2771.00,0.0081
2770.00,0.0081
2769.00,0.0080
2768.00,0.0079
2767.00,0.0079
2766.00,0.0078
2765.00,0.0078
2764.00,0.0078
2763.00,0.0077
2762.00,0.0077
2761.00,0.0076
2760.00,0.0075
2759.00,0.0075
2758.00,0.0074
2757.00,0.0074
2756.00,0.0074
2755.00,0.0074
2754.00,0.0073
2753.00,0.0073
2752.00,0.0072
2751.00,0.0072
2750.00,0.0072
2749.00,0.0072
2748.00,0.0072
2747.00,0.0072
2746.00,0.0072
2745.00,0.0073
2744.00,0.0073
2743.00,0.0073
2742.00,0.0074
2741.00,0.0074
2740.00,0.0075
2739.00,0.0075
2738.00,0.0076
2737.00,0.0076
2736.00,0.0077
2735.00,0.0077
2734.00,0.0078
2733.00,0.0079
2732.00,0.0080
2731.00,0.0081
2730.00,0.0082
2729.00,0.0083
2728.00,0.0084
2727.00,0.0085
2726.00,0.0086
2725.00,0.0087
2724.00,0.0088
2723.00,0.0088
2722.00,0.0087
2721.00,0.0086
2720.00,0.0084
2719.00,0.0082
2718.00,0.0080
2717.00,0.0078
2716.00,0.0076
2715.00,0.0075
2714.00,0.0073
2713.00,0.0071
2712.00,0.0070
2711.00,0.0068
2710.00,0.0067
2709.00,0.0066
2708.00,0.0065
2707.00,0.0065
2706.00,0.0064
2705.00,0.0063
2704.00,0.0062
2703.00,0.0062
2702.00,0.0061
2701.00,0.0061
2700.00,0.0060
2699.00,0.0060
2698.00,0.0059
2697.00,0.0059
2696.00,0.0059
2695.00,0.0059
2694.00,0.0059
2693.00,0.0059
2692.00,0.0059
2691.00,0.0059
2690.00,0.0058
2689.00,0.0058
2688.00,0.0058
2687.00,0.0058
2686.00,0.0058
2685.00,0.0058
2684.00,0.0058
2683.00,0.0057
2682.00,0.0057
2681.00,0.0057
2680.00,0.0057
2679.00,0.0057
2678.00,0.0057
2677.00,0.0057
2676.00,0.0057
2675.00,0.0057
2674.00,0.0057
2673.00,0.0056
2672.00,0.0056
2671.00,0.0056
2670.00,0.0055
2669.00,0.0055
2668.00,0.0054
2667.00,0.0054
2666.00,0.0054
2665.00,0.0054
2664.00,0.0054
2663.00,0.0055
2662.00,0.0055
2661.00,0.0055
2660.00,0.0056
2659.00,0.0056
2658.00,0.0056
2657.00,0.0056
2656.00,0.0056
2655.00,0.0055
2654.00,0.0054
2653.00,0.0054
2652.00,0.0053
2651.00,0.0053
2650.00,0.0052
2649.00,0.0052
2648.00,0.0052
2647.00,0.0052
2646.00,0.0051
2645.00,0.0050
2644.00,0.0050
2643.00,0.0049
2642.00,0.0049
2641.00,0.0049
2640.00,0.0048
2639.00,0.0048
2638.00,0.0047
2637.00,0.0047
2636.00,0.0047
2635.00,0.0047
2634.00,0.0046
2633.00,0.0046
2632.00,0.0046
2631.00,0.0046
2630.00,0.0046
2629.00,0.0045
2628.00,0.0045
2627.00,0.0046
2626.00,0.0046
2625.00,0.0046
2624.00,0.0046
2623.00,0.0046
2622.00,0.0046
2621.00,0.0046
2620.00,0.0046
2619.00,0.0046
2618.00,0.0045
2617.00,0.0045
2616.00,0.0045
2615.00,0.0045
2614.00,0.0045
2613.00,0.0044
2612.00,0.0044
2611.00,0.0044
2610.00,0.0044
2609.00,0.0044
2608.00,0.0043
2607.00,0.0042
2606.00,0.0041
2605.00,0.0040
2604.00,0.0040
2603.00,0.0039
2602.00,0.0039
2601.00,0.0039
2600.00,0.0038
2599.00,0.0038
2598.00,0.0038
2597.00,0.0038
2596.00,0.0038
2595.00,0.0038
2594.00,0.0039
2593.00,0.0039
2592.00,0.0039
2591.00,0.0038
2590.00,0.0038
2589.00,0.0038
2588.00,0.0039
2587.00,0.0040
2586.00,0.0041
2585.00,0.0041
2584.00,0.0041
2583.00,0.0040
2582.00,0.0040
2581.00,0.0040
2580.00,0.0039
2579.00,0.0038
2578.00,0.0037
2577.00,0.0037
2576.00,0.0036
2575.00,0.0035
2574.00,0.0034
2573.00,0.0034
2572.00,0.0033
2571.00,0.0034
2570.00,0.0034
2569.00,0.0034
2568.00,0.0033
2567.00,0.0033
2566.00,0.0032
2565.00,0.0032
2564.00,0.0031
2563.00,0.0031
2562.00,0.0030
2561.00,0.0030
2560.00,0.0029
2559.00,0.0028
2558.00,0.0028
2557.00,0.0028
2556.00,0.0028
2555.00,0.0029
2554.00,0.0029
2553.00,0.0029
2552.00,0.0029
2551.00,0.0029
2550.00,0.0029
2549.00,0.0028
2548.00,0.0028
2547.00,0.0027
2546.00,0.0026
2545.00,0.0026
2544.00,0.0025
2543.00,0.0025
2542.00,0.0025
2541.00,0.0025
2540.00,0.0024
2539.00,0.0024
2538.00,0.0024
2537.00,0.0024
2536.00,0.0025
2535.00,0.0025
2534.00,0.0025
2533.00,0.0024
2532.00,0.0023
2531.00,0.0022
2530.00,0.0021
2529.00,0.0021
2528.00,0.0022
2527.00,0.0023
2526.00,0.0023
2525.00,0.0023
2524.00,0.0023
2523.00,0.0022
2522.00,0.0022
2521.00,0.0021
2520.00,0.0021
2519.00,0.0021
2518.00,0.0021
2517.00,0.0021
2516.00,0.0020
2515.00,0.0019
2514.00,0.0019
2513.00,0.0019
2512.00,0.0019
2511.00,0.0019
2510.00,0.0019
2509.00,0.0019
2508.00,0.0019
2507.00,0.0019
2506.00,0.0019
2505.00,0.0019
2504.00,0.0019
2503.00,0.0019
2502.00,0.0018
2501.00,0.0017
2500.00,0.0017
2499.00,0.0017
2498.00,0.0017
2497.00,0.0018
2496.00,0.0019
2495.00,0.0019
2494.00,0.0019
2493.00,0.0019
2492.00,0.0019
2491.00,0.0019
2490.00,0.0018
2489.00,0.0018
2488.00,0.0018
2487.00,0.0018
2486.00,0.0017
2485.00,0.0017
2484.00,0.0017
2483.00,0.0017
2482.00,0.0018
2481.00,0.0018
2480.00,0.0018
2479.00,0.0018
2478.00,0.0018
2477.00,0.0018
2476.00,0.0018
2475.00,0.0017
2474.00,0.0017
2473.00,0.0017
2472.00,0.0017
2471.00,0.0017
2470.00,0.0016
2469.00,0.0016
2468.00,0.0017
2467.00,0.0016
2466.00,0.0016
2465.00,0.0016
2464.00,0.0016
2463.00,0.0016
2462.00,0.0017
2461.00,0.0017
2460.00,0.0017
2459.00,0.0017
2458.00,0.0018
2457.00,0.0018
2456.00,0.0019
2455.00,0.0020
2454.00,0.0020
2453.00,0.0020
2452.00,0.0020
2451.00,0.0019
2450.00,0.0019
2449.00,0.0019
2448.00,0.0019
2447.00,0.0018
2446.00,0.0018
2445.00,0.0018
2444.00,0.0018
2443.00,0.0018
2442.00,0.0017
2441.00,0.0016
2440.00,0.0016
2439.00,0.0015
2438.00,0.0015
2437.00,0.0016
2436.00,0.0017
2435.00,0.0018
2434.00,0.0018
2433.00,0.0019
2432.00,0.0019
2431.00,0.0019
2430.00,0.0019
2429.00,0.0019
2428.00,0.0019
2427.00,0.0019
2426.00,0.0019
2425.00,0.0018
2424.00,0.0018
2423.00,0.0018
2422.00,0.0018
2421.00,0.0017
2420.00,0.0017
2419.00,0.0016
2418.00,0.0016
2417.00,0.0016
2416.00,0.0016
2415.00,0.0016
2414.00,0.0015
2413.00,0.0015
2412.00,0.0015
2411.00,0.0015
2410.00,0.0016
2409.00,0.0016
2408.00,0.0017
2407.00,0.0016
2406.00,0.0016
2405.00,0.0015
2404.00,0.0015
2403.00,0.0015
2402.00,0.0015
2401.00,0.0015
2400.00,0.0015
2399.00,0.0015
2398.00,0.0015
2397.00,0.0015
2396.00,0.0015
2395.00,0.0015
2394.00,0.0015
2393.00,0.0014
2392.00,0.0014
2391.00,0.0014
2390.00,0.0014
2389.00,0.0015
2388.00,0.0015
2387.00,0.0014
2386.00,0.0014
2385.00,0.0014
2384.00,0.0013
2383.00,0.0013
2382.00,0.0012
2381.00,0.0011
2380.00,0.0010
2379.00,0.0009
2378.00,0.0009
2377.00,0.0009
2376.00,0.0008
2375.00,0.0008
2374.00,0.0008
2373.00,0.0008
2372.00,0.0009
2371.00,0.0010
2370.00,0.0009
2369.00,0.0008
2368.00,0.0007
2367.00,0.0006
2366.00,0.0006
2365.00,0.0006
2364.00,0.0007
2363.00,0.0008
2362.00,0.0009
2361.00,0.0009
2360.00,0.0009
2359.00,0.0009
2358.00,0.0009
2357.00,0.0009
2356.00,0.0010
2355.00,0.0009
2354.00,0.0009
2353.00,0.0009
2352.00,0.0009
2351.00,0.0009
2350.00,0.0009
2349.00,0.0009
2348.00,0.0010
2347.00,0.0011
2346.00,0.0011
2345.00,0.0011
2344.00,0.0011
2343.00,0.0010
2342.00,0.0011
2341.00,0.0012
2340.00,0.0012
2339.00,0.0013
2338.00,0.0012
2337.00,0.0012
2336.00,0.0011
2335.00,0.0011
2334.00,0.0012
2333.00,0.0013
2332.00,0.0013
2331.00,0.0013
2330.00,0.0012
2329.00,0.0012
2328.00,0.0013
2327.00,0.0015
2326.00,0.0018
2325.00,0.0021
2324.00,0.0023
2323.00,0.0022
2322.00,0.0021
2321.00,0.0019
2320.00,0.0018
2319.00,0.0017
2318.00,0.0017
2317.00,0.0016
2316.00,0.0015
2315.00,0.0015
2314.00,0.0015
2313.00,0.0015
2312.00,0.0015
2311.00,0.0015
2310.00,0.0014
2309.00,0.0014
2308.00,0.0014
2307.00,0.0014
2306.00,0.0015
2305.00,0.0015
2304.00,0.0015
2303.00,0.0016
2302.00,0.0016
2301.00,0.0017
2300.00,0.0017
2299.00,0.0018
2298.00,0.0018
2297.00,0.0018
2296.00,0.0018
2295.00,0.0018
2294.00,0.0019
2293.00,0.0020
2292.00,0.0021
2291.00,0.0022
2290.00,0.0023
2289.00,0.0023
2288.00,0.0024
2287.00,0.0023
2286.00,0.0023
2285.00,0.0023
2284.00,0.0023
2283.00,0.0022
2282.00,0.0022
2281.00,0.0022
2280.00,0.0022
2279.00,0.0022
2278.00,0.0021
2277.00,0.0019
2276.00,0.0018
2275.00,0.0018
2274.00,0.0019
2273.00,0.0020
2272.00,0.0021
2271.00,0.0022
2270.00,0.0021
2269.00,0.0021
2268.00,0.0020
2267.00,0.0019
2266.00,0.0019
2265.00,0.0018
2264.00,0.0017
2263.00,0.0016
2262.00,0.0015
2261.00,0.0015
2260.00,0.0016
2259.00,0.0017
2258.00,0.0018
2257.00,0.0018
2256.00,0.0017
2255.00,0.0016
2254.00,0.0015
2253.00,0.0015
2252.00,0.0015
2251.00,0.0015
2250.00,0.0015
2249.00,0.0016
2248.00,0.0016
2247.00,0.0018
2246.00,0.0019
2245.00,0.0019
2244.00,0.0019
2243.00,0.0018
2242.00,0.0018
2241.00,0.0018
2240.00,0.0018
2239.00,0.0018
2238.00,0.0019
2237.00,0.0019
2236.00,0.0019
2235.00,0.0017
2234.00,0.0016
2233.00,0.0015
2232.00,0.0014
2231.00,0.0014
2230.00,0.0015
2229.00,0.0015
2228.00,0.0015
2227.00,0.0015
2226.00,0.0013
2225.00,0.0012
2224.00,0.0011
2223.00,0.0010
2222.00,0.0010
2221.00,0.0010
2220.00,0.0012
2219.00,0.0013
2218.00,0.0014
2217.00,0.0014
2216.00,0.0013
2215.00,0.0011
2214.00,0.0010
2213.00,0.0010
2212.00,0.0010
2211.00,0.0010
2210.00,0.0010
2209.00,0.0011
2208.00,0.0012
2207.00,0.0014
2206.00,0.0015
2205.00,0.0016
2204.00,0.0015
2203.00,0.0015
2202.00,0.0015
2201.00,0.0016
2200.00,0.0017
2199.00,0.0018
2198.00,0.0017
2197.00,0.0016
2196.00,0.0017
2195.00,0.0018
2194.00,0.0021
2193.00,0.0023
2192.00,0.0024
2191.00,0.0024
2190.00,0.0023
2189.00,0.0022
2188.00,0.0022
2187.00,0.0022
2186.00,0.0023
2185.00,0.0024
2184.00,0.0024
2183.00,0.0022
2182.00,0.0019
2181.00,0.0019
2180.00,0.0021
2179.00,0.0023
2178.00,0.0024
2177.00,0.0023
2176.00,0.0022
2175.00,0.0021
2174.00,0.0020
2173.00,0.0021
2172.00,0.0022
2171.00,0.0023
2170.00,0.0023
2169.00,0.0025
2168.00,0.0027
2167.00,0.0029
2166.00,0.0032
2165.00,0.0034
2164.00,0.0035
2163.00,0.0036
2162.00,0.0034
2161.00,0.0029
2160.00,0.0019
2159.00,0.0006
2158.00,-0.0004
2157.00,-0.0009
2156.00,-0.0010
2155.00,-0.0009
2154.00,-0.0006
2153.00,-0.0003
2152.00,-0.0001
2151.00,-0.0002
2150.00,-0.0003
2149.00,-0.0003
2148.00,-0.0002
2147.00,-0.0000
2146.00,0.0000
2145.00,-0.0000
2144.00,-0.0000
2143.00,0.0000
2142.00,0.0002
2141.00,0.0005
2140.00,0.0007
2139.00,0.0007
2138.00,0.0006
2137.00,0.0004
2136.00,0.0001
2135.00,-0.0002
2134.00,-0.0003
2133.00,-0.0002
2132.00,0.0001
2131.00,0.0003
2130.00,0.0005
2129.00,0.0005
2128.00,0.0006
2127.00,0.0006
2126.00,0.0007
2125.00,0.0007
2124.00,0.0008
2123.00,0.0010
2122.00,0.0011
2121.00,0.0013
2120.00,0.0014
2119.00,0.0015
2118.00,0.0016
2117.00,0.0018
2116.00,0.0019
2115.00,0.0020
2114.00,0.0019
2113.00,0.0019
2112.00,0.0019
2111.00,0.0019
2110.00,0.0020
2109.00,0.0021
2108.00,0.0021
2107.00,0.0020
2106.00,0.0019
2105.00,0.0020
2104.00,0.0021
2103.00,0.0021
2102.00,0.0020
2101.00,0.0019
2100.00,0.0018
2099.00,0.0019
2098.00,0.0019
2097.00,0.0020
2096.00,0.0019
2095.00,0.0017
2094.00,0.0016
2093.00,0.0016
2092.00,0.0016
2091.00,0.0016
2090.00,0.0017
2089.00,0.0018
2088.00,0.0019
2087.00,0.0020
2086.00,0.0020
2085.00,0.0019
2084.00,0.0018
2083.00,0.0017
2082.00,0.0017
2081.00,0.0017
2080.00,0.0017
2079.00,0.0017
2078.00,0.0017
2077.00,0.0017
2076.00,0.0017
2075.00,0.0017
2074.00,0.0016
2073.00,0.0016
2072.00,0.0017
2071.00,0.0016
2070.00,0.0015
2069.00,0.0015
2068.00,0.0014
2067.00,0.0014
2066.00,0.0014
2065.00,0.0013
2064.00,0.0013
2063.00,0.0012
2062.00,0.0012
2061.00,0.0014
2060.00,0.0015
2059.00,0.0016
2058.00,0.0017
2057.00,0.0018
2056.00,0.0017
2055.00,0.0017
2054.00,0.0018
2053.00,0.0022
2052.00,0.0026
2051.00,0.0028
2050.00,0.0026
2049.00,0.0020
2048.00,0.0014
2047.00,0.0011
2046.00,0.0010
2045.00,0.0011
2044.00,0.0013
2043.00,0.0014
2042.00,0.0014
2041.00,0.0014
2040.00,0.0015
2039.00,0.0015
2038.00,0.0013
2037.00,0.0012
2036.00,0.0010
2035.00,0.0010
2034.00,0.0011
2033.00,0.0014
2032.00,0.0016
2031.00,0.0014
2030.00,0.0010
2029.00,0.0004
2028.00,0.0000
2027.00,-0.0003
2026.00,-0.0004
2025.00,-0.0005
2024.00,-0.0005
2023.00,-0.0005
2022.00,-0.0004
2021.00,-0.0002
2020.00,-0.0001
2019.00,0.0000
2018.00,0.0002
2017.00,0.0004
2016.00,0.0005
2015.00,0.0005
2014.00,0.0003
2013.00,-0.0000
2012.00,-0.0002
2011.00,-0.0002
2010.00,-0.0001
2009.00,-0.0000
2008.00,-0.0002
2007.00,-0.0007
2006.00,-0.0010
2005.00,-0.0011
2004.00,-0.0008
2003.00,-0.0004
2002.00,-0.0001
2001.00,0.0001
2000.00,0.0002
1999.00,0.0003
1998.00,0.0003
1997.00,0.0003
1996.00,0.0003
1995.00,0.0003
1994.00,0.0003
1993.00,0.0004
1992.00,0.0004
1991.00,0.0005
1990.00,0.0005
1989.00,0.0007
1988.00,0.0008
1987.00,0.0008
1986.00,0.0008
1985.00,0.0008
1984.00,0.0010
1983.00,0.0013
1982.00,0.0016
1981.00,0.0019
1980.00,0.0020
1979.00,0.0016
1978.00,0.0010
1977.00,0.0004
1976.00,0.0001
1975.00,0.0000
1974.00,-0.0000
1973.00,-0.0001
1972.00,-0.0003
1971.00,-0.0005
1970.00,-0.0006
1969.00,-0.0006
1968.00,-0.0003
1967.00,0.0000
1966.00,0.0002
1965.00,0.0002
1964.00,-0.0001
1963.00,-0.0003
1962.00,-0.0004
1961.00,-0.0002
1960.00,-0.0001
1959.00,-0.0002
1958.00,-0.0004
1957.00,-0.0006
1956.00,-0.0006
1955.00,-0.0005
1954.00,-0.0003
1953.00,-0.0001
1952.00,-0.0000
1951.00,-0.0001
1950.00,-0.0004
1949.00,-0.0006
1948.00,-0.0007
1947.00,-0.0008
1946.00,-0.0008
1945.00,-0.0007
1944.00,-0.0006
1943.00,-0.0004
1942.00,-0.0002
1941.00,-0.0001
1940.00,-0.0001
1939.00,-0.0002
1938.00,-0.0003
1937.00,-0.0003
1936.00,-0.0003
1935.00,-0.0002
1934.00,-0.0002
1933.00,-0.0000
1932.00,0.0001
1931.00,0.0001
1930.00,0.0002
1929.00,0.0002
1928.00,0.0004
1927.00,0.0005
1926.00,0.0005
1925.00,0.0005
1924.00,0.0004
1923.00,0.0004
1922.00,0.0004
1921.00,0.0004
1920.00,0.0005
1919.00,0.0005
1918.00,0.0006
1917.00,0.0007
1916.00,0.0009
1915.00,0.0011
1914.00,0.0011
1913.00,0.0010
1912.00,0.0009
1911.00,0.0008
1910.00,0.0008
1909.00,0.0008
1908.00,0.0008
1907.00,0.0008
1906.00,0.0007
1905.00,0.0007
1904.00,0.0007
1903.00,0.0007
1902.00,0.0007
1901.00,0.0008
1900.00,0.0008
1899.00,0.0008
1898.00,0.0008
1897.00,0.0008
1896.00,0.0008
1895.00,0.0007
1894.00,0.0007
1893.00,0.0007
1892.00,0.0008
1891.00,0.0008
1890.00,0.0008
1889.00,0.0007
1888.00,0.0007
1887.00,0.0006
1886.00,0.0006
1885.00,0.0006
1884.00,0.0006
1883.00,0.0006
1882.00,0.0006
1881.00,0.0005
1880.00,0.0006
1879.00,0.0006
1878.00,0.0006
1877.00,0.0006
1876.00,0.0006
1875.00,0.0006
1874.00,0.0006
1873.00,0.0007
1872.00,0.0008
1871.00,0.0009
1870.00,0.0009
1869.00,0.0010
1868.00,0.0010
1867.00,0.0010
1866.00,0.0008
1865.00,0.0007
1864.00,0.0007
1863.00,0.0007
1862.00,0.0007
1861.00,0.0007
1860.00,0.0008
1859.00,0.0008
1858.00,0.0008
1857.00,0.0008
1856.00,0.0009
1855.00,0.0009
1854.00,0.0009
1853.00,0.0010
1852.00,0.0011
1851.00,0.0011
1850.00,0.0011
1849.00,0.0011
1848.00,0.0011
1847.00,0.0011
1846.00,0.0011
1845.00,0.0011
1844.00,0.0011
1843.00,0.0012
1842.00,0.0012
1841.00,0.0012
1840.00,0.0012
1839.00,0.0012
1838.00,0.0012
1837.00,0.0013
1836.00,0.0013
1835.00,0.0013
1834.00,0.0013
1833.00,0.0014
1832.00,0.0015
1831.00,0.0015
1830.00,0.0014
1829.00,0.0014
1828.00,0.0015
1827.00,0.0015
1826.00,0.0015
1825.00,0.0015
1824.00,0.0015
1823.00,0.0015
1822.00,0.0014
1821.00,0.0013
1820.00,0.0012
1819.00,0.0011
1818.00,0.0010
1817.00,0.0010
1816.00,0.0011
1815.00,0.0012
1814.00,0.0013
1813.00,0.0013
1812.00,0.0014
1811.00,0.0014
1810.00,0.0014
1809.00,0.0014
1808.00,0.0015
1807.00,0.0015
1806.00,0.0015
1805.00,0.0015
1804.00,0.0015
1803.00,0.0016
1802.00,0.0016
1801.00,0.0017
1800.00,0.0017
1799.00,0.0018
1798.00,0.0018
1797.00,0.0018
1796.00,0.0019
1795.00,0.0019
1794.00,0.0019
1793.00,0.0019
1792.00,0.0020
1791.00,0.0020
1790.00,0.0020
1789.00,0.0020
1788.00,0.0020
1787.00,0.0020
1786.00,0.0020
1785.00,0.0021
1784.00,0.0021
1783.00,0.0022
1782.00,0.0022
1781.00,0.0022
1780.00,0.0022
1779.00,0.0022
1778.00,0.0022
1777.00,0.0022
1776.00,0.0023
1775.00,0.0024
1774.00,0.0024
1773.00,0.0025
1772.00,0.0026
1771.00,0.0027
1770.00,0.0027
1769.00,0.0027
1768.00,0.0027
1767.00,0.0027
1766.00,0.0027
1765.00,0.0028
1764.00,0.0028
1763.00,0.0029
1762.00,0.0029
1761.00,0.0030
1760.00,0.0031
1759.00,0.0032
1758.00,0.0032
1757.00,0.0033
1756.00,0.0034
1755.00,0.0036
1754.00,0.0037
1753.00,0.0038
1752.00,0.0040
1751.00,0.0042
1750.00,0.0046
1749.00,0.0049
1748.00,0.0052
1747.00,0.0054
1746.00,0.0057
1745.00,0.0060
1744.00,0.0063
1743.00,0.0067
1742.00,0.0070
1741.00,0.0072
1740.00,0.0075
1739.00,0.0077
1738.00,0.0079
1737.00,0.0081
1736.00,0.0082
1735.00,0.0082
1734.00,0.0082
1733.00,0.0083
1732.00,0.0083
1731.00,0.0083
1730.00,0.0081
1729.00,0.0079
1728.00,0.0078
1727.00,0.0076
1726.00,0.0075
1725.00,0.0074
1724.00,0.0073
1723.00,0.0072
1722.00,0.0071
1721.00,0.0071
1720.00,0.0071
1719.00,0.0070
1718.00,0.0068
1717.00,0.0068
1716.00,0.0068
1715.00,0.0067
1714.00,0.0067
1713.00,0.0066
1712.00,0.0066
1711.00,0.0065
1710.00,0.0065
1709.00,0.0065
1708.00,0.0066
1707.00,0.0067
1706.00,0.0069
1705.00,0.0070
1704.00,0.0072
1703.00,0.0073
1702.00,0.0073
1701.00,0.0075
1700.00,0.0077
1699.00,0.0080
1698.00,0.0081
1697.00,0.0081
1696.00,0.0082
1695.00,0.0084
1694.00,0.0087
1693.00,0.0090
1692.00,0.0093
1691.00,0.0095
1690.00,0.0099
1689.00,0.0103
1688.00,0.0107
1687.00,0.0110
1686.00,0.0113
1685.00,0.0120
1684.00,0.0128
1683.00,0.0135
1682.00,0.0140
1681.00,0.0143
1680.00,0.0147
1679.00,0.0151
1678.00,0.0156
1677.00,0.0161
1676.00,0.0167
1675.00,0.0174
1674.00,0.0179
1673.00,0.0183
1672.00,0.0187
1671.00,0.0192
1670.00,0.0197
1669.00,0.0202
1668.00,0.0206
1667.00,0.0207
1666.00,0.0209
1665.00,0.0210
1664.00,0.0214
1663.00,0.0219
1662.00,0.0223
1661.00,0.0227
1660.00,0.0230
1659.00,0.0232
1658.00,0.0235
1657.00,0.0238
1656.00,0.0240
1655.00,0.0243
1654.00,0.0249
1653.00,0.0258
1652.00,0.0264
1651.00,0.0267
1650.00,0.0269
1649.00,0.0272
1648.00,0.0275
1647.00,0.0280
1646.00,0.0285
1645.00,0.0287
1644.00,0.0289
1643.00,0.0291
1642.00,0.0292
1641.00,0.0294
1640.00,0.0297
1639.00,0.0299
1638.00,0.0300
1637.00,0.0303
1636.00,0.0306
1635.00,0.0309
1634.00,0.0309
1633.00,0.0308
1632.00,0.0307
1631.00,0.0306
1630.00,0.0305
1629.00,0.0305
1628.00,0.0305
1627.00,0.0305
1626.00,0.0305
1625.00,0.0305
1624.00,0.0306
1623.00,0.0306
1622.00,0.0306
1621.00,0.0306
1620.00,0.0305
1619.00,0.0304
1618.00,0.0303
1617.00,0.0304
1616.00,0.0306
1615.00,0.0307
1614.00,0.0307
1613.00,0.0307
1612.00,0.0307
1611.00,0.0307
1610.00,0.0308
1609.00,0.0308
1608.00,0.0307
1607.00,0.0307
1606.00,0.0306
1605.00,0.0305
1604.00,0.0304
1603.00,0.0302
1602.00,0.0299
1601.00,0.0297
1600.00,0.0294
1599.00,0.0292
1598.00,0.0289
1597.00,0.0286
1596.00,0.0284
1595.00,0.0280
1594.00,0.0277
1593.00,0.0273
1592.00,0.0270
1591.00,0.0266
1590.00,0.0263
1589.00,0.0261
1588.00,0.0259
1587.00,0.0258
1586.00,0.0256
1585.00,0.0255
1584.00,0.0253
1583.00,0.0251
1582.00,0.0249
1581.00,0.0248
1580.00,0.0248
1579.00,0.0248
1578.00,0.0246
1577.00,0.0245
1576.00,0.0245
1575.00,0.0245
1574.00,0.0246
1573.00,0.0246
1572.00,0.0247
1571.00,0.0248
1570.00,0.0250
1569.00,0.0253
1568.00,0.0255
1567.00,0.0256
1566.00,0.0258
1565.00,0.0261
1564.00,0.0264
1563.00,0.0266
1562.00,0.0268
1561.00,0.0270
1560.00,0.0276
1559.00,0.0289
1558.00,0.0299
1557.00,0.0303
1556.00,0.0304
1555.00,0.0306
1554.00,0.0308
1553.00,0.0311
1552.00,0.0314
1551.00,0.0316
1550.00,0.0317
1549.00,0.0317
1548.00,0.0316
1547.00,0.0315
1546.00,0.0313
1545.00,0.0311
1544.00,0.0310
1543.00,0.0307
1542.00,0.0303
1541.00,0.0298
1540.00,0.0292
1539.00,0.0284
1538.00,0.0276
1537.00,0.0271
1536.00,0.0266
1535.00,0.0260
1534.00,0.0252
1533.00,0.0245
1532.00,0.0238
1531.00,0.0232
1530.00,0.0225
1529.00,0.0219
1528.00,0.0214
1527.00,0.0208
1526.00,0.0202
1525.00,0.0198
1524.00,0.0194
1523.00,0.0189
1522.00,0.0183
1521.00,0.0178
1520.00,0.0175
1519.00,0.0172
1518.00,0.0169
1517.00,0.0165
1516.00,0.0162
1515.00,0.0159
1514.00,0.0157
1513.00,0.0155
1512.00,0.0154
1511.00,0.0154
1510.00,0.0154
1509.00,0.0154
1508.00,0.0154
1507.00,0.0155
1506.00,0.0156
1505.00,0.0157
1504.00,0.0159
1503.00,0.0163
1502.00,0.0168
1501.00,0.0176
1500.00,0.0186
1499.00,0.0197
1498.00,0.0211
1497.00,0.0227
1496.00,0.0246
1495.00,0.0263
1494.00,0.0278
1493.00,0.0291
1492.00,0.0303
1491.00,0.0315
1490.00,0.0325
1489.00,0.0334
1488.00,0.0340
1487.00,0.0343
1486.00,0.0345
1485.00,0.0346
1484.00,0.0348
1483.00,0.0351
1482.00,0.0354
1481.00,0.0359
1480.00,0.0366
1479.00,0.0373
1478.00,0.0383
1477.00,0.0398
1476.00,0.0417
1475.00,0.0439
1474.00,0.0470
1473.00,0.0521
1472.00,0.0584
1471.00,0.0644
1470.00,0.0698
1469.00,0.0750
1468.00,0.0801
1467.00,0.0853
1466.00,0.0908
1465.00,0.0965
1464.00,0.1015
1463.00,0.1051
1462.00,0.1078
1461.00,0.1101
1460.00,0.1121
1459.00,0.1138
1458.00,0.1152
1457.00,0.1162
1456.00,0.1163
1455.00,0.1156
1454.00,0.1146
1453.00,0.1130
1452.00,0.1107
1451.00,0.1075
1450.00,0.1035
1449.00,0.0981
1448.00,0.0912
1447.00,0.0838
1446.00,0.0770
1445.00,0.0711
1444.00,0.0660
1443.00,0.0617
1442.00,0.0584
1441.00,0.0560
1440.00,0.0543
1439.00,0.0533
1438.00,0.0526
1437.00,0.0517
1436.00,0.0500
1435.00,0.0473
1434.00,0.0441
1433.00,0.0404
1432.00,0.0367
1431.00,0.0333
1430.00,0.0307
1429.00,0.0288
1428.00,0.0275
1427.00,0.0267
1426.00,0.0264
1425.00,0.0261
1424.00,0.0261
1423.00,0.0263
1422.00,0.0265
1421.00,0.0266
1420.00,0.0267
1419.00,0.0268
1418.00,0.0268
1417.00,0.0265
1416.00,0.0261
1415.00,0.0257
1414.00,0.0253
1413.00,0.0249
1412.00,0.0245
1411.00,0.0243
1410.00,0.0240
1409.00,0.0238
1408.00,0.0236
1407.00,0.0236
1406.00,0.0237
1405.00,0.0237
1404.00,0.0237
1403.00,0.0238
1402.00,0.0240
1401.00,0.0241
1400.00,0.0241
1399.00,0.0242
1398.00,0.0243
1397.00,0.0243
1396.00,0.0242
1395.00,0.0243
1394.00,0.0245
1393.00,0.0247
1392.00,0.0249
1391.00,0.0254
1390.00,0.0262
1389.00,0.0274
1388.00,0.0291
1387.00,0.0317
1386.00,0.0351
1385.00,0.0395
1384.00,0.0453
1383.00,0.0531
1382.00,0.0635
1381.00,0.0765
1380.00,0.0925
1379.00,0.1103
1378.00,0.1274
1377.00,0.1402
1376.00,0.1451
1375.00,0.1401
1374.00,0.1262
1373.00,0.1086
1372.00,0.0917
1371.00,0.0774
1370.00,0.0657
1369.00,0.0565
1368.00,0.0500
1367.00,0.0459
1366.00,0.0436
1365.00,0.0426
1364.00,0.0426
1363.00,0.0435
1362.00,0.0449
1361.00,0.0464
1360.00,0.0476
1359.00,0.0479
1358.00,0.0472
1357.00,0.0455
1356.00,0.0431
1355.00,0.0403
1354.00,0.0376
1353.00,0.0352
1352.00,0.0334
1351.00,0.0319
1350.00,0.0307
1349.00,0.0297
1348.00,0.0289
1347.00,0.0283
1346.00,0.0278
1345.00,0.0273
1344.00,0.0268
1343.00,0.0260
1342.00,0.0253
1341.00,0.0245
1340.00,0.0239
1339.00,0.0234
1338.00,0.0229
1337.00,0.0226
1336.00,0.0224
1335.00,0.0223
1334.00,0.0223
1333.00,0.0224
1332.00,0.0226
1331.00,0.0227
1330.00,0.0227
1329.00,0.0225
1328.00,0.0222
1327.00,0.0218
1326.00,0.0214
1325.00,0.0209
1324.00,0.0205
1323.00,0.0201
1322.00,0.0197
1321.00,0.0195
1320.00,0.0193
1319.00,0.0191
1318.00,0.0189
1317.00,0.0188
1316.00,0.0187
1315.00,0.0187
1314.00,0.0187
1313.00,0.0188
1312.00,0.0190
1311.00,0.0193
1310.00,0.0197
1309.00,0.0203
1308.00,0.0211
1307.00,0.0221
1306.00,0.0231
1305.00,0.0239
1304.00,0.0242
1303.00,0.0240
1302.00,0.0236
1301.00,0.0231
1300.00,0.0227
1299.00,0.0224
1298.00,0.0223
1297.00,0.0222
1296.00,0.0220
1295.00,0.0217
1294.00,0.0213
1293.00,0.0209
1292.00,0.0205
1291.00,0.0201
1290.00,0.0198
1289.00,0.0194
1288.00,0.0192
1287.00,0.0189
1286.00,0.0187
1285.00,0.0185
1284.00,0.0183
1283.00,0.0182
1282.00,0.0180
1281.00,0.0178
1280.00,0.0177
1279.00,0.0176
1278.00,0.0175
1277.00,0.0174
1276.00,0.0173
1275.00,0.0172
1274.00,0.0173
1273.00,0.0173
1272.00,0.0174
1271.00,0.0174
1270.00,0.0175
1269.00,0.0176
1268.00,0.0179
1267.00,0.0181
1266.00,0.0185
1265.00,0.0189
1264.00,0.0194
1263.00,0.0199
1262.00,0.0204
1261.00,0.0210
1260.00,0.0217
1259.00,0.0225
1258.00,0.0232
1257.00,0.0239
1256.00,0.0243
1255.00,0.0244
1254.00,0.0241
1253.00,0.0235
1252.00,0.0229
1251.00,0.0224
1250.00,0.0220
1249.00,0.0217
1248.00,0.0214
1247.00,0.0212
1246.00,0.0210
1245.00,0.0208
1244.00,0.0207
1243.00,0.0205
1242.00,0.0203
1241.00,0.0201
1240.00,0.0199
1239.00,0.0196
1238.00,0.0193
1237.00,0.0190
1236.00,0.0188
1235.00,0.0187
1234.00,0.0186
1233.00,0.0186
1232.00,0.0186
1231.00,0.0186
1230.00,0.0186
1229.00,0.0186
1228.00,0.0187
1227.00,0.0189
1226.00,0.0192
1225.00,0.0196
1224.00,0.0200
1223.00,0.0204
1222.00,0.0209
1221.00,0.0213
1220.00,0.0217
1219.00,0.0219
1218.00,0.0220
1217.00,0.0218
1216.00,0.0215
1215.00,0.0211
1214.00,0.0205
1213.00,0.0199
1212.00,0.0194
1211.00,0.0189
1210.00,0.0185
1209.00,0.0181
1208.00,0.0179
1207.00,0.0177
1206.00,0.0176
1205.00,0.0175
1204.00,0.0174
1203.00,0.0174
1202.00,0.0174
1201.00,0.0174
1200.00,0.0175
1199.00,0.0174
1198.00,0.0174
1197.00,0.0174
1196.00,0.0175
1195.00,0.0176
1194.00,0.0177
1193.00,0.0178
1192.00,0.0179
1191.00,0.0179
1190.00,0.0179
1189.00,0.0180
1188.00,0.0180
1187.00,0.0181
1186.00,0.0182
1185.00,0.0183
1184.00,0.0184
1183.00,0.0186
1182.00,0.0188
1181.00,0.0191
1180.00,0.0194
1179.00,0.0198
1178.00,0.0204
1177.00,0.0211
1176.00,0.0222
1175.00,0.0236
1174.00,0.0254
1173.00,0.0277
1172.00,0.0303
1171.00,0.0333
1170.00,0.0361
1169.00,0.0385
1168.00,0.0402
1167.00,0.0408
1166.00,0.0406
1165.00,0.0398
1164.00,0.0387
1163.00,0.0376
1162.00,0.0365
1161.00,0.0358
1160.00,0.0353
1159.00,0.0350
1158.00,0.0348
1157.00,0.0348
1156.00,0.0349
1155.00,0.0351
1154.00,0.0353
1153.00,0.0356
1152.00,0.0357
1151.00,0.0358
1150.00,0.0356
1149.00,0.0354
1148.00,0.0351
1147.00,0.0347
1146.00,0.0344
1145.00,0.0342
1144.00,0.0339
1143.00,0.0337
1142.00,0.0334
1141.00,0.0331
1140.00,0.0328
1139.00,0.0327
1138.00,0.0326
1137.00,0.0326
1136.00,0.0326
1135.00,0.0328
1134.00,0.0329
1133.00,0.0331
1132.00,0.0333
1131.00,0.0336
1130.00,0.0340
1129.00,0.0346
1128.00,0.0353
1127.00,0.0360
1126.00,0.0368
1125.00,0.0375
1124.00,0.0382
1123.00,0.0390
1122.00,0.0398
1121.00,0.0406
1120.00,0.0412
1119.00,0.0417
1118.00,0.0419
1117.00,0.0419
1116.00,0.0419
1115.00,0.0418
1114.00,0.0417
1113.00,0.0416
1112.00,0.0414
1111.00,0.0414
1110.00,0.0414
1109.00,0.0414
1108.00,0.0416
1107.00,0.0417
1106.00,0.0420
1105.00,0.0422
1104.00,0.0424
1103.00,0.0424
1102.00,0.0421
1101.00,0.0417
1100.00,0.0412
1099.00,0.0405
1098.00,0.0398
1097.00,0.0392
1096.00,0.0385
1095.00,0.0380
1094.00,0.0375
1093.00,0.0371
1092.00,0.0367
1091.00,0.0362
1090.00,0.0358
1089.00,0.0354
1088.00,0.0350
1087.00,0.0347
1086.00,0.0344
1085.00,0.0341
1084.00,0.0338
1083.00,0.0335
1082.00,0.0331
1081.00,0.0327
1080.00,0.0323
1079.00,0.0319
1078.00,0.0314
1077.00,0.0309
1076.00,0.0304
1075.00,0.0299
1074.00,0.0294
1073.00,0.0290
1072.00,0.0286
1071.00,0.0282
1070.00,0.0279
1069.00,0.0277
1068.00,0.0275
1067.00,0.0273
1066.00,0.0271
1065.00,0.0268
1064.00,0.0266
1063.00,0.0264
1062.00,0.0263
1061.00,0.0262
1060.00,0.0260
1059.00,0.0258
1058.00,0.0256
1057.00,0.0253
1056.00,0.0250
1055.00,0.0248
1054.00,0.0246
1053.00,0.0246
1052.00,0.0247
1051.00,0.0249
1050.00,0.0251
1049.00,0.0253
1048.00,0.0255
1047.00,0.0257
1046.00,0.0259
1045.00,0.0260
1044.00,0.0261
1043.00,0.0260
1042.00,0.0258
1041.00,0.0256
1040.00,0.0255
1039.00,0.0254
1038.00,0.0254
1037.00,0.0255
1036.00,0.0255
1035.00,0.0254
1034.00,0.0253
1033.00,0.0250
1032.00,0.0247
1031.00,0.0244
1030.00,0.0240
1029.00,0.0237
1028.00,0.0233
1027.00,0.0230
1026.00,0.0227
1025.00,0.0224
1024.00,0.0221
1023.00,0.0218
1022.00,0.0216
1021.00,0.0214
1020.00,0.0213
1019.00,0.0212
1018.00,0.0212
1017.00,0.0214
1016.00,0.0216
1015.00,0.0218
1014.00,0.0221
1013.00,0.0224
1012.00,0.0227
1011.00,0.0230
1010.00,0.0233
1009.00,0.0236
1008.00,0.0240
1007.00,0.0246
1006.00,0.0254
1005.00,0.0265
1004.00,0.0279
1003.00,0.0298
1002.00,0.0323
1001.00,0.0354
1000.00,0.0387
999.00,0.0416
998.00,0.0432
997.00,0.0429
996.00,0.0408
995.00,0.0373
994.00,0.0334
993.00,0.0299
992.00,0.0270
991.00,0.0249
990.00,0.0234
989.00,0.0223
988.00,0.0215
987.00,0.0211
986.00,0.0209
985.00,0.0209
984.00,0.0212
983.00,0.0216
982.00,0.0224
981.00,0.0236
980.00,0.0253
979.00,0.0277
978.00,0.0308
977.00,0.0345
976.00,0.0385
975.00,0.0424
974.00,0.0455
973.00,0.0470
972.00,0.0463
971.00,0.0434
970.00,0.0392
969.00,0.0346
968.00,0.0305
967.00,0.0273
966.00,0.0250
965.00,0.0233
964.00,0.0220
963.00,0.0209
962.00,0.0201
961.00,0.0195
960.00,0.0191
959.00,0.0187
958.00,0.0185
957.00,0.0183
956.00,0.0181
955.00,0.0179
954.00,0.0177
953.00,0.0175
952.00,0.0174
951.00,0.0174
950.00,0.0174
949.00,0.0175
948.00,0.0177
947.00,0.0179
946.00,0.0182
945.00,0.0184
944.00,0.0186
943.00,0.0188
942.00,0.0190
941.00,0.0191
940.00,0.0191
939.00,0.0190
938.00,0.0187
937.00,0.0185
936.00,0.0183
935.00,0.0181
934.00,0.0180
933.00,0.0180
932.00,0.0179
931.00,0.0178
930.00,0.0177
929.00,0.0176
928.00,0.0176
927.00,0.0175
926.00,0.0175
925.00,0.0175
924.00,0.0174
923.00,0.0173
922.00,0.0172
921.00,0.0172
920.00,0.0172
919.00,0.0173
918.00,0.0174
917.00,0.0176
916.00,0.0177
915.00,0.0177
914.00,0.0178
913.00,0.0178
912.00,0.0178
911.00,0.0179
910.00,0.0180
909.00,0.0183
908.00,0.0185
907.00,0.0189
906.00,0.0194
905.00,0.0203
904.00,0.0214
903.00,0.0229
902.00,0.0244
901.00,0.0258
900.00,0.0268
899.00,0.0272
898.00,0.0268
897.00,0.0257
896.00,0.0243
895.00,0.0229
894.00,0.0216
893.00,0.0207
892.00,0.0200
891.00,0.0195
890.00,0.0192
889.00,0.0189
888.00,0.0186
887.00,0.0183
886.00,0.0182
885.00,0.0181
884.00,0.0181
883.00,0.0181
882.00,0.0182
881.00,0.0184
880.00,0.0186
879.00,0.0188
878.00,0.0189
877.00,0.0190
876.00,0.0190
875.00,0.0190
874.00,0.0190
873.00,0.0190
872.00,0.0188
871.00,0.0186
870.00,0.0184
869.00,0.0182
868.00,0.0180
867.00,0.0180
866.00,0.0179
865.00,0.0178
864.00,0.0177
863.00,0.0175
862.00,0.0174
861.00,0.0172
860.00,0.0172
859.00,0.0171
858.00,0.0171
857.00,0.0170
856.00,0.0168
855.00,0.0168
854.00,0.0169
853.00,0.0171
852.00,0.0174
851.00,0.0177
850.00,0.0182
849.00,0.0189
848.00,0.0198
847.00,0.0212
846.00,0.0234
845.00,0.0266
844.00,0.0310
843.00,0.0358
842.00,0.0396
841.00,0.0408
840.00,0.0389
839.00,0.0347
838.00,0.0301
837.00,0.0264
836.00,0.0240
835.00,0.0224
834.00,0.0214
833.00,0.0207
832.00,0.0202
831.00,0.0199
830.00,0.0196
829.00,0.0194
828.00,0.0192
827.00,0.0190
826.00,0.0189
825.00,0.0188
824.00,0.0187
823.00,0.0184
822.00,0.0182
821.00,0.0182
820.00,0.0183
819.00,0.0186
818.00,0.0189
817.00,0.0194
816.00,0.0200
815.00,0.0208
814.00,0.0218
813.00,0.0231
812.00,0.0244
811.00,0.0257
810.00,0.0267
809.00,0.0272
808.00,0.0271
807.00,0.0266
806.00,0.0256
805.00,0.0244
804.00,0.0232
803.00,0.0221
802.00,0.0213
801.00,0.0207
800.00,0.0202
799.00,0.0198
798.00,0.0195
797.00,0.0192
796.00,0.0190
795.00,0.0189
794.00,0.0187
793.00,0.0185
792.00,0.0184
791.00,0.0185
790.00,0.0187
789.00,0.0190
788.00,0.0193
787.00,0.0194
786.00,0.0194
785.00,0.0195
784.00,0.0197
783.00,0.0198
782.00,0.0197
781.00,0.0195
780.00,0.0192
779.00,0.0190
778.00,0.0189
777.00,0.0189
776.00,0.0190
775.00,0.0190
774.00,0.0190
773.00,0.0191
772.00,0.0193
771.00,0.0196
770.00,0.0197
769.00,0.0198
768.00,0.0198
767.00,0.0198
766.00,0.0197
765.00,0.0196
764.00,0.0194
763.00,0.0193
762.00,0.0192
761.00,0.0192
760.00,0.0192
759.00,0.0193
758.00,0.0193
757.00,0.0192
756.00,0.0191
755.00,0.0190
754.00,0.0190
753.00,0.0191
752.00,0.0194
751.00,0.0197
750.00,0.0200
749.00,0.0202
748.00,0.0206
747.00,0.0210
746.00,0.0214
745.00,0.0219
744.00,0.0224
743.00,0.0231
742.00,0.0238
741.00,0.0246
740.00,0.0254
739.00,0.0265
738.00,0.0276
737.00,0.0289
736.00,0.0301
735.00,0.0313
734.00,0.0323
733.00,0.0331
732.00,0.0338
731.00,0.0342
730.00,0.0345
729.00,0.0346
728.00,0.0347
727.00,0.0348
726.00,0.0350
725.00,0.0351
724.00,0.0351
723.00,0.0348
722.00,0.0342
721.00,0.0332
720.00,0.0320
719.00,0.0307
718.00,0.0295
717.00,0.0284
716.00,0.0274
715.00,0.0268
714.00,0.0263
713.00,0.0260
712.00,0.0260
711.00,0.0264
710.00,0.0271
709.00,0.0283
708.00,0.0296
707.00,0.0310
706.00,0.0321
705.00,0.0325
704.00,0.0323
703.00,0.0315
702.00,0.0301
701.00,0.0285
700.00,0.0269
699.00,0.0255
698.00,0.0243
697.00,0.0233
696.00,0.0225
695.00,0.0220
694.00,0.0217
693.00,0.0216
692.00,0.0216
691.00,0.0216
690.00,0.0218
689.00,0.0218
688.00,0.0219
687.00,0.0218
686.00,0.0216
685.00,0.0214
684.00,0.0213
683.00,0.0213
682.00,0.0215
681.00,0.0218
680.00,0.0219
679.00,0.0219
678.00,0.0218
677.00,0.0217
676.00,0.0217
675.00,0.0217
674.00,0.0217
673.00,0.0217
672.00,0.0219
671.00,0.0221
670.00,0.0224
669.00,0.0225
668.00,0.0225
667.00,0.0226
666.00,0.0226
665.00,0.0226
664.00,0.0226
663.00,0.0227
662.00,0.0229
661.00,0.0231
660.00,0.0232
659.00,0.0232
658.00,0.0231
657.00,0.0230
656.00,0.0230
655.00,0.0230
654.00,0.0229
653.00,0.0228
652.00,0.0228
651.00,0.0229
650.00,0.0231
649.00,0.0233
648.00,0.0235
647.00,0.0237
646.00,0.0238
645.00,0.0241
644.00,0.0243
643.00,0.0244
642.00,0.0244
641.00,0.0243
640.00,0.0242
639.00,0.0242
638.00,0.0241
637.00,0.0240
636.00,0.0239
635.00,0.0237
634.00,0.0237
633.00,0.0238
632.00,0.0240
631.00,0.0241
630.00,0.0243
629.00,0.0245
628.00,0.0246
627.00,0.0248
626.00,0.0251
625.00,0.0252
624.00,0.0254
623.00,0.0255
622.00,0.0256
621.00,0.0257
620.00,0.0257
619.00,0.0258
618.00,0.0259
617.00,0.0261
616.00,0.0261
615.00,0.0259
614.00,0.0256
613.00,0.0255
612.00,0.0256
611.00,0.0257
610.00,0.0257
609.00,0.0258
608.00,0.0259
607.00,0.0261
606.00,0.0261
605.00,0.0261
604.00,0.0259
603.00,0.0258
602.00,0.0256
601.00,0.0255
600.00,0.0255
599.00,0.0254
598.00,0.0254
597.00,0.0253
596.00,0.0253
595.00,0.0255
594.00,0.0257
593.00,0.0260
592.00,0.0262
591.00,0.0262
590.00,0.0259
589.00,0.0255
588.00,0.0253
587.00,0.0254
586.00,0.0256
585.00,0.0258
584.00,0.0259
583.00,0.0260
582.00,0.0261
581.00,0.0261
580.00,0.0261
579.00,0.0261
578.00,0.0262
577.00,0.0262
576.00,0.0262
575.00,0.0260
574.00,0.0259
573.00,0.0259
572.00,0.0259
571.00,0.0258
570.00,0.0258
569.00,0.0259
568.00,0.0260
567.00,0.0262
566.00,0.0262
565.00,0.0261
564.00,0.0261
563.00,0.0263
562.00,0.0266
561.00,0.0265
560.00,0.0263
559.00,0.0261
558.00,0.0261
557.00,0.0263
556.00,0.0263
555.00,0.0261
554.00,0.0258
553.00,0.0256
552.00,0.0254
551.00,0.0253
550.00,0.0251
549.00,0.0249
548.00,0.0247
547.00,0.0247
546.00,0.0249
545.00,0.0251
544.00,0.0253
543.00,0.0253
542.00,0.0253
541.00,0.0254
540.00,0.0255
539.00,0.0258
538.00,0.0260
537.00,0.0261
536.00,0.0261
535.00,0.0260
534.00,0.0260
533.00,0.0261
532.00,0.0265
531.00,0.0270
530.00,0.0274
529.00,0.0277
528.00,0.0279
527.00,0.0278
526.00,0.0276
525.00,0.0273
524.00,0.0268
523.00,0.0261
522.00,0.0254
521.00,0.0251
520.00,0.0252
519.00,0.0257
518.00,0.0260
517.00,0.0260
516.00,0.0255
515.00,0.0249
514.00,0.0246
513.00,0.0248
512.00,0.0251
511.00,0.0250
510.00,0.0245
509.00,0.0238
508.00,0.0234
507.00,0.0234
506.00,0.0235
505.00,0.0235
504.00,0.0231
503.00,0.0227
502.00,0.0224
501.00,0.0224
500.00,0.0228
499.00,0.0232
498.00,0.0236
497.00,0.0238
496.00,0.0238
495.00,0.0236
494.00,0.0235
493.00,0.0237
492.00,0.0239
491.00,0.0240
490.00,0.0236
489.00,0.0232
488.00,0.0228
487.00,0.0226
486.00,0.0225
485.00,0.0228
484.00,0.0235
483.00,0.0244
482.00,0.0250
481.00,0.0252
480.00,0.0251
479.00,0.0250
478.00,0.0248
477.00,0.0245
476.00,0.0240
475.00,0.0234
474.00,0.0226
473.00,0.0221
472.00,0.0223
471.00,0.0233
470.00,0.0245
469.00,0.0252
468.00,0.0254
467.00,0.0253
466.00,0.0254
465.00,0.0255
464.00,0.0252
463.00,0.0246
462.00,0.0245
461.00,0.0255
460.00,0.0275
459.00,0.0297
458.00,0.0314
457.00,0.0317
456.00,0.0310
455.00,0.0296
454.00,0.0278
453.00,0.0258
452.00,0.0241
451.00,0.0230
450.00,0.0225
