Created as New Dataset,Sample 114 By Administrator Date Wednesday, September 10 2025
cm-1,A
4000.00,0.0012
3999.00,0.0013
3998.00,0.0013
3997.00,0.0013
3996.00,0.0013
3995.00,0.0012
3994.00,0.0012
3993.00,0.0012
3992.00,0.0012
3991.00,0.0012
3990.00,0.0012
3989.00,0.0012
3988.00,0.0012
3987.00,0.0012
3986.00,0.0012
3985.00,0.0012
3984.00,0.0012
3983.00,0.0011
3982.00,0.0011
3981.00,0.0011
3980.00,0.0011
3979.00,0.0012
3978.00,0.0012
3977.00,0.0012
3976.00,0.0011
3975.00,0.0011
3974.00,0.0011
3973.00,0.0011
3972.00,0.0010
3971.00,0.0010
3970.00,0.0011
3969.00,0.0011
3968.00,0.0011
3967.00,0.0011
3966.00,0.0011
3965.00,0.0011
3964.00,0.0011
3963.00,0.0011
3962.00,0.0011
3961.00,0.0010
3960.00,0.0010
3959.00,0.0010
3958.00,0.0010
3957.00,0.0010
3956.00,0.0010
3955.00,0.0010
3954.00,0.0010
3953.00,0.0009
3952.00,0.0010
3951.00,0.0010
3950.00,0.0010
3949.00,0.0011
3948.00,0.0011
3947.00,0.0010
3946.00,0.0010
3945.00,0.0010
3944.00,0.0010
3943.00,0.0010
3942.00,0.0010
3941.00,0.0010
3940.00,0.0010
3939.00,0.0010
3938.00,0.0010
3937.00,0.0010
3936.00,0.0010
3935.00,0.0011
3934.00,0.0011
3933.00,0.0011
3932.00,0.0011
3931.00,0.0011
3930.00,0.0011
3929.00,0.0011
3928.00,0.0011
3927.00,0.0011
3926.00,0.0011
3925.00,0.0010
3924.00,0.0010
3923.00,0.0010
3922.00,0.0010
3921.00,0.0010
3920.00,0.0011
3919.00,0.0011
3918.00,0.0011
3917.00,0.0010
3916.00,0.0010
3915.00,0.0010
3914.00,0.0010
3913.00,0.0010
3912.00,0.0010
3911.00,0.0010
3910.00,0.0010
3909.00,0.0010
3908.00,0.0010
3907.00,0.0009
3906.00,0.0009
3905.00,0.0009
3904.00,0.0010
3903.00,0.0010
3902.00,0.0010
3901.00,0.0010
3900.00,0.0011
3899.00,0.0011
3898.00,0.0011
3897.00,0.0011
3896.00,0.0011
3895.00,0.0011
3894.00,0.0011
3893.00,0.0011
3892.00,0.0011
3891.00,0.0011
3890.00,0.0010
3889.00,0.0010
3888.00,0.0010
3887.00,0.0010
3886.00,0.0010
3885.00,0.0010
3884.00,0.0010
3883.00,0.0010
3882.00,0.0010
3881.00,0.0010
3880.00,0.0010
3879.00,0.0010
3878.00,0.0010
3877.00,0.0010
3876.00,0.0009
3875.00,0.0010
3874.00,0.0010
3873.00,0.0010
3872.00,0.0010
3871.00,0.0010
3870.00,0.0010
3869.00,0.0010
3868.00,0.0010
3867.00,0.0009
3866.00,0.0009
3865.00,0.0010
3864.00,0.0010
3863.00,0.0010
3862.00,0.0010
3861.00,0.0010
3860.00,0.0010
3859.00,0.0010
3858.00,0.0010
3857.00,0.0010
3856.00,0.0010
3855.00,0.0010
3854.00,0.0010
3853.00,0.0010
3852.00,0.0009
3851.00,0.0009
3850.00,0.0009
3849.00,0.0009
3848.00,0.0009
3847.00,0.0009
3846.00,0.0009
3845.00,0.0009
3844.00,0.0009
3843.00,0.0009
3842.00,0.0009
3841.00,0.0009
3840.00,0.0008
3839.00,0.0008
3838.00,0.0008
3837.00,0.0008
3836.00,0.0009
3835.00,0.0009
3834.00,0.0009
3833.00,0.0009
3832.00,0.0009
3831.00,0.0010
3830.00,0.0010
3829.00,0.0009
3828.00,0.0009
3827.00,0.0009
3826.00,0.0009
3825.00,0.0009
3824.00,0.0008
3823.00,0.0008
3822.00,0.0008
3821.00,0.0008
3820.00,0.0008
3819.00,0.0009
3818.00,0.0009
3817.00,0.0009
3816.00,0.0010
3815.00,0.0010
3814.00,0.0010
3813.00,0.0010
3812.00,0.0010
3811.00,0.0009
3810.00,0.0009
3809.00,0.0009
3808.00,0.0009
3807.00,0.0010
3806.00,0.0010
3805.00,0.0010
3804.00,0.0010
3803.00,0.0010
3802.00,0.0010
3801.00,0.0010
3800.00,0.0010
3799.00,0.0009
3798.00,0.0009
3797.00,0.0009
3796.00,0.0010
3795.00,0.0010
3794.00,0.0010
3793.00,0.0010
3792.00,0.0010
3791.00,0.0010
3790.00,0.0010
3789.00,0.0010
3788.00,0.0010
3787.00,0.0010
3786.00,0.0010
3785.00,0.0010
3784.00,0.0010
3783.00,0.0010
3782.00,0.0009
3781.00,0.0009
3780.00,0.0009
3779.00,0.0009
3778.00,0.0009
3777.00,0.0009
3776.00,0.0009
3775.00,0.0009
3774.00,0.0009
3773.00,0.0008
3772.00,0.0008
3771.00,0.0009
3770.00,0.0009
3769.00,0.0010
3768.00,0.0010
3767.00,0.0011
3766.00,0.0011
3765.00,0.0011
3764.00,0.0011
3763.00,0.0011
3762.00,0.0010
3761.00,0.0010
3760.00,0.0010
3759.00,0.0010
3758.00,0.0010
3757.00,0.0011
3756.00,0.0011
3755.00,0.0011
3754.00,0.0011
3753.00,0.0012
3752.00,0.0012
3751.00,0.0012
3750.00,0.0011
3749.00,0.0011
3748.00,0.0010
3747.00,0.0010
3746.00,0.0010
3745.00,0.0010
3744.00,0.0010
3743.00,0.0010
3742.00,0.0010
3741.00,0.0010
3740.00,0.0010
3739.00,0.0010
3738.00,0.0010
3737.00,0.0010
3736.00,0.0009
3735.00,0.0008
3734.00,0.0008
3733.00,0.0008
3732.00,0.0008
3731.00,0.0008
3730.00,0.0009
3729.00,0.0009
3728.00,0.0009
3727.00,0.0009
3726.00,0.0010
3725.00,0.0010
3724.00,0.0009
3723.00,0.0009
3722.00,0.0009
3721.00,0.0009
3720.00,0.0009
3719.00,0.0009
3718.00,0.0010
3717.00,0.0010
3716.00,0.0009
3715.00,0.0009
3714.00,0.0009
3713.00,0.0008
3712.00,0.0008
3711.00,0.0008
3710.00,0.0008
3709.00,0.0008
3708.00,0.0008
3707.00,0.0008
3706.00,0.0008
3705.00,0.0007
3704.00,0.0007
3703.00,0.0007
3702.00,0.0008
3701.00,0.0009
3700.00,0.0009
3699.00,0.0009
3698.00,0.0009
3697.00,0.0009
3696.00,0.0009
3695.00,0.0008
3694.00,0.0008
3693.00,0.0008
3692.00,0.0008
3691.00,0.0008
3690.00,0.0008
3689.00,0.0008
3688.00,0.0008
3687.00,0.0008
3686.00,0.0007
3685.00,0.0007
3684.00,0.0008
3683.00,0.0008
3682.00,0.0008
3681.00,0.0009
3680.00,0.0009
3679.00,0.0009
3678.00,0.0010
3677.00,0.0009
3676.00,0.0009
3675.00,0.0009
3674.00,0.0009
3673.00,0.0008
3672.00,0.0009
3671.00,0.0009
3670.00,0.0009
3669.00,0.0009
3668.00,0.0009
3667.00,0.0009
3666.00,0.0009
3665.00,0.0009
3664.00,0.0009
3663.00,0.0009
3662.00,0.0009
3661.00,0.0008
3660.00,0.0008
3659.00,0.0008
3658.00,0.0008
3657.00,0.0008
3656.00,0.0008
3655.00,0.0008
3654.00,0.0008
3653.00,0.0008
3652.00,0.0009
3651.00,0.0009
3650.00,0.0010
3649.00,0.0009
3648.00,0.0009
3647.00,0.0009
3646.00,0.0009
3645.00,0.0010
3644.00,0.0010
3643.00,0.0011
3642.00,0.0011
3641.00,0.0011
3640.00,0.0010
3639.00,0.0010
3638.00,0.0010
3637.00,0.0010
3636.00,0.0010
3635.00,0.0010
3634.00,0.0010
3633.00,0.0010
3632.00,0.0010
3631.00,0.0010
3630.00,0.0010
3629.00,0.0009
3628.00,0.0010
3627.00,0.0010
3626.00,0.0010
3625.00,0.0010
3624.00,0.0011
3623.00,0.0011
3622.00,0.0011
3621.00,0.0011
3620.00,0.0012
3619.00,0.0012
3618.00,0.0012
3617.00,0.0013
3616.00,0.0013
3615.00,0.0013
3614.00,0.0014
3613.00,0.0014
3612.00,0.0015
3611.00,0.0015
3610.00,0.0015
3609.00,0.0015
3608.00,0.0015
3607.00,0.0015
3606.00,0.0015
3605.00,0.0015
3604.00,0.0015
3603.00,0.0014
3602.00,0.0014
3601.00,0.0014
3600.00,0.0014
3599.00,0.0015
3598.00,0.0015
3597.00,0.0016
3596.00,0.0016
3595.00,0.0016
3594.00,0.0017
3593.00,0.0017
3592.00,0.0017
3591.00,0.0017
3590.00,0.0017
3589.00,0.0017
3588.00,0.0017
3587.00,0.0017
3586.00,0.0018
3585.00,0.0018
3584.00,0.0018
3583.00,0.0018
3582.00,0.0018
3581.00,0.0019
3580.00,0.0019
3579.00,0.0019
3578.00,0.0019
3577.00,0.0019
3576.00,0.0020
3575.00,0.0020
3574.00,0.0021
3573.00,0.0021
3572.00,0.0021
3571.00,0.0021
3570.00,0.0021
3569.00,0.0021
3568.00,0.0021
3567.00,0.0021
3566.00,0.0021
3565.00,0.0022
3564.00,0.0022
3563.00,0.0023
3562.00,0.0024
3561.00,0.0024
3560.00,0.0024
3559.00,0.0025
3558.00,0.0025
3557.00,0.0025
3556.00,0.0025
3555.00,0.0025
3554.00,0.0024
3553.00,0.0024
3552.00,0.0025
3551.00,0.0025
3550.00,0.0026
3549.00,0.0027
3548.00,0.0027
3547.00,0.0028
3546.00,0.0028
3545.00,0.0028
3544.00,0.0028
3543.00,0.0029
3542.00,0.0029
3541.00,0.0029
3540.00,0.0029
3539.00,0.0029
3538.00,0.0029
3537.00,0.0030
3536.00,0.0030
3535.00,0.0031
3534.00,0.0031
3533.00,0.0031
3532.00,0.0031
3531.00,0.0031
3530.00,0.0031
3529.00,0.0031
3528.00,0.0032
3527.00,0.0033
3526.00,0.0033
3525.00,0.0034
3524.00,0.0034
3523.00,0.0034
3522.00,0.0033
3521.00,0.0033
3520.00,0.0034
3519.00,0.0034
3518.00,0.0035
3517.00,0.0036
3516.00,0.0036
3515.00,0.0036
3514.00,0.0036
3513.00,0.0036
3512.00,0.0037
3511.00,0.0038
3510.00,0.0038
3509.00,0.0038
3508.00,0.0038
3507.00,0.0038
3506.00,0.0038
3505.00,0.0038
3504.00,0.0039
3503.00,0.0040
3502.00,0.0040
3501.00,0.0040
3500.00,0.0040
3499.00,0.0040
3498.00,0.0040
3497.00,0.0041
3496.00,0.0041
3495.00,0.0041
3494.00,0.0042
3493.00,0.0042
3492.00,0.0042
3491.00,0.0042
3490.00,0.0043
3489.00,0.0043
3488.00,0.0043
3487.00,0.0043
3486.00,0.0043
3485.00,0.0043
3484.00,0.0044
3483.00,0.0044
3482.00,0.0044
3481.00,0.0045
3480.00,0.0045
3479.00,0.0046
3478.00,0.0046
3477.00,0.0046
3476.00,0.0047
3475.00,0.0047
3474.00,0.0047
3473.00,0.0048
3472.00,0.0048
3471.00,0.0047
3470.00,0.0047
3469.00,0.0048
3468.00,0.0048
3467.00,0.0048
3466.00,0.0048
3465.00,0.0049
3464.00,0.0049
3463.00,0.0049
3462.00,0.0050
3461.00,0.0050
3460.00,0.0051
3459.00,0.0051
3458.00,0.0051
3457.00,0.0051
3456.00,0.0051
3455.00,0.0051
3454.00,0.0051
3453.00,0.0051
3452.00,0.0052
3451.00,0.0052
3450.00,0.0052
3449.00,0.0053
3448.00,0.0053
3447.00,0.0053
3446.00,0.0054
3445.00,0.0054
3444.00,0.0054
3443.00,0.0055
3442.00,0.0055
3441.00,0.0055
3440.00,0.0055
3439.00,0.0055
3438.00,0.0055
3437.00,0.0055
3436.00,0.0056
3435.00,0.0056
3434.00,0.0056
3433.00,0.0057
3432.00,0.0057
3431.00,0.0057
3430.00,0.0058
3429.00,0.0058
3428.00,0.0058
3427.00,0.0058
3426.00,0.0058
3425.00,0.0058
3424.00,0.0058
3423.00,0.0059
3422.00,0.0059
3421.00,0.0058
3420.00,0.0058
3419.00,0.0059
3418.00,0.0059
3417.00,0.0059
3416.00,0.0060
3415.00,0.0060
3414.00,0.0060
3413.00,0.0061
3412.00,0.0061
3411.00,0.0062
3410.00,0.0062
3409.00,0.0062
3408.00,0.0062
3407.00,0.0062
3406.00,0.0062
3405.00,0.0062
3404.00,0.0062
3403.00,0.0063
3402.00,0.0063
3401.00,0.0063
3400.00,0.0063
3399.00,0.0063
3398.00,0.0063
3397.00,0.0063
3396.00,0.0064
3395.00,0.0064
3394.00,0.0064
3393.00,0.0064
3392.00,0.0063
3391.00,0.0063
3390.00,0.0064
3389.00,0.0064
3388.00,0.0064
3387.00,0.0065
3386.00,0.0064
3385.00,0.0064
3384.00,0.0064
3383.00,0.0065
3382.00,0.0065
3381.00,0.0065
3380.00,0.0065
3379.00,0.0065
3378.00,0.0065
3377.00,0.0065
3376.00,0.0065
3375.00,0.0065
3374.00,0.0066
3373.00,0.0066
3372.00,0.0066
3371.00,0.0066
3370.00,0.0066
3369.00,0.0066
3368.00,0.0066
3367.00,0.0066
3366.00,0.0066
3365.00,0.0066
3364.00,0.0066
3363.00,0.0066
3362.00,0.0067
3361.00,0.0067
3360.00,0.0067
3359.00,0.0068
3358.00,0.0068
3357.00,0.0067
3356.00,0.0067
3355.00,0.0067
3354.00,0.0067
3353.00,0.0067
3352.00,0.0067
3351.00,0.0067
3350.00,0.0067
3349.00,0.0068
3348.00,0.0067
3347.00,0.0067
3346.00,0.0067
3345.00,0.0067
3344.00,0.0067
3343.00,0.0068
3342.00,0.0068
3341.00,0.0068
3340.00,0.0068
3339.00,0.0068
3338.00,0.0068
3337.00,0.0068
3336.00,0.0068
3335.00,0.0067
3334.00,0.0067
3333.00,0.0067
3332.00,0.0066
3331.00,0.0066
3330.00,0.0066
3329.00,0.0066
3328.00,0.0066
3327.00,0.0066
3326.00,0.0066
3325.00,0.0066
3324.00,0.0066
3323.00,0.0066
3322.00,0.0066
3321.00,0.0066
3320.00,0.0066
3319.00,0.0067
3318.00,0.0067
3317.00,0.0067
3316.00,0.0067
3315.00,0.0067
3314.00,0.0066
3313.00,0.0066
3312.00,0.0066
3311.00,0.0066
3310.00,0.0065
3309.00,0.0065
3308.00,0.0065
3307.00,0.0065
3306.00,0.0065
3305.00,0.0065
3304.00,0.0066
3303.00,0.0066
3302.00,0.0066
3301.00,0.0066
3300.00,0.0066
3299.00,0.0066
3298.00,0.0066
3297.00,0.0066
3296.00,0.0066
3295.00,0.0066
3294.00,0.0065
3293.00,0.0065
3292.00,0.0065
3291.00,0.0065
3290.00,0.0065
3289.00,0.0065
3288.00,0.0065
3287.00,0.0064
3286.00,0.0064
3285.00,0.0064
3284.00,0.0063
3283.00,0.0063
3282.00,0.0063
3281.00,0.0063
3280.00,0.0063
3279.00,0.0063
3278.00,0.0063
3277.00,0.0062
3276.00,0.0062
3275.00,0.0062
3274.00,0.0061
3273.00,0.0061
3272.00,0.0061
3271.00,0.0061
3270.00,0.0061
3269.00,0.0061
3268.00,0.0061
3267.00,0.0061
3266.00,0.0061
3265.00,0.0061
3264.00,0.0060
3263.00,0.0060
3262.00,0.0060
3261.00,0.0060
3260.00,0.0060
3259.00,0.0060
3258.00,0.0060
3257.00,0.0059
3256.00,0.0059
3255.00,0.0058
3254.00,0.0058
3253.00,0.0058
3252.00,0.0058
3251.00,0.0057
3250.00,0.0057
3249.00,0.0057
3248.00,0.0057
3247.00,0.0057
3246.00,0.0057
3245.00,0.0057
3244.00,0.0057
3243.00,0.0056
3242.00,0.0056
3241.00,0.0056
3240.00,0.0056
3239.00,0.0056
3238.00,0.0056
3237.00,0.0056
3236.00,0.0056
3235.00,0.0056
3234.00,0.0056
3233.00,0.0056
3232.00,0.0057
3231.00,0.0057
3230.00,0.0057
3229.00,0.0056
3228.00,0.0056
3227.00,0.0056
3226.00,0.0056
3225.00,0.0057
3224.00,0.0057
3223.00,0.0057
3222.00,0.0058
3221.00,0.0058
3220.00,0.0058
3219.00,0.0058
3218.00,0.0058
3217.00,0.0058
3216.00,0.0058
3215.00,0.0058
3214.00,0.0059
3213.00,0.0059
3212.00,0.0060
3211.00,0.0060
3210.00,0.0060
3209.00,0.0060
3208.00,0.0060
3207.00,0.0060
3206.00,0.0060
3205.00,0.0060
3204.00,0.0060
3203.00,0.0061
3202.00,0.0061
3201.00,0.0061
3200.00,0.0061
3199.00,0.0061
3198.00,0.0061
3197.00,0.0061
3196.00,0.0061
3195.00,0.0061
3194.00,0.0060
3193.00,0.0060
3192.00,0.0060
3191.00,0.0060
3190.00,0.0060
3189.00,0.0060
3188.00,0.0060
3187.00,0.0060
3186.00,0.0059
3185.00,0.0059
3184.00,0.0059
3183.00,0.0058
3182.00,0.0058
3181.00,0.0058
3180.00,0.0058
3179.00,0.0057
3178.00,0.0057
3177.00,0.0057
3176.00,0.0056
3175.00,0.0056
3174.00,0.0056
3173.00,0.0055
3172.00,0.0054
3171.00,0.0054
3170.00,0.0054
3169.00,0.0054
3168.00,0.0054
3167.00,0.0054
3166.00,0.0054
3165.00,0.0054
3164.00,0.0054
3163.00,0.0054
3162.00,0.0053
3161.00,0.0053
3160.00,0.0053
3159.00,0.0052
3158.00,0.0052
3157.00,0.0052
3156.00,0.0053
3155.00,0.0053
3154.00,0.0053
3153.00,0.0053
3152.00,0.0053
3151.00,0.0053
3150.00,0.0053
3149.00,0.0052
3148.00,0.0052
3147.00,0.0052
3146.00,0.0052
3145.00,0.0052
3144.00,0.0051
3143.00,0.0051
3142.00,0.0051
3141.00,0.0051
3140.00,0.0051
3139.00,0.0051
3138.00,0.0051
3137.00,0.0051
3136.00,0.0051
3135.00,0.0050
3134.00,0.0050
3133.00,0.0050
3132.00,0.0049
3131.00,0.0049
3130.00,0.0048
3129.00,0.0048
3128.00,0.0048
3127.00,0.0047
3126.00,0.0047
3125.00,0.0047
3124.00,0.0047
3123.00,0.0046
3122.00,0.0046
3121.00,0.0045
3120.00,0.0045
3119.00,0.0044
3118.00,0.0044
3117.00,0.0044
3116.00,0.0044
3115.00,0.0043
3114.00,0.0043
3113.00,0.0043
3112.00,0.0043
3111.00,0.0043
3110.00,0.0043
3109.00,0.0043
3108.00,0.0043
3107.00,0.0043
3106.00,0.0043
3105.00,0.0043
3104.00,0.0043
3103.00,0.0043
3102.00,0.0043
3101.00,0.0042
3100.00,0.0042
3099.00,0.0041
3098.00,0.0041
3097.00,0.0041
3096.00,0.0041
3095.00,0.0041
3094.00,0.0041
3093.00,0.0040
3092.00,0.0040
3091.00,0.0040
3090.00,0.0040
3089.00,0.0040
3088.00,0.0040
3087.00,0.0039
3086.00,0.0039
3085.00,0.0039
3084.00,0.0039
3083.00,0.0039
3082.00,0.0039
3081.00,0.0039
3080.00,0.0039
3079.00,0.0039
3078.00,0.0038
3077.00,0.0038
3076.00,0.0039
3075.00,0.0039
3074.00,0.0039
3073.00,0.0039
3072.00,0.0039
3071.00,0.0039
3070.00,0.0039
3069.00,0.0039
3068.00,0.0039
3067.00,0.0039
3066.00,0.0039
3065.00,0.0039
3064.00,0.0040
3063.00,0.0040
3062.00,0.0039
3061.00,0.0039
3060.00,0.0040
3059.00,0.0040
3058.00,0.0040
3057.00,0.0040
3056.00,0.0040
3055.00,0.0040
3054.00,0.0040
3053.00,0.0041
3052.00,0.0041
3051.00,0.0041
3050.00,0.0041
3049.00,0.0041
3048.00,0.0041
3047.00,0.0041
3046.00,0.0041
3045.00,0.0041
3044.00,0.0042
3043.00,0.0042
3042.00,0.0043
3041.00,0.0043
3040.00,0.0043
3039.00,0.0044
3038.00,0.0044
3037.00,0.0044
3036.00,0.0044
3035.00,0.0044
3034.00,0.0044
3033.00,0.0045
3032.00,0.0046
3031.00,0.0046
3030.00,0.0047
3029.00,0.0047
3028.00,0.0047
3027.00,0.0048
3026.00,0.0048
3025.00,0.0048
3024.00,0.0048
3023.00,0.0049
3022.00,0.0049
3021.00,0.0050
3020.00,0.0051
3019.00,0.0052
3018.00,0.0053
3017.00,0.0054
3016.00,0.0055
3015.00,0.0056
3014.00,0.0057
3013.00,0.0059
3012.00,0.0060
3011.00,0.0061
3010.00,0.0062
3009.00,0.0063
3008.00,0.0064
3007.00,0.0066
3006.00,0.0068
3005.00,0.0070
3004.00,0.0072
3003.00,0.0075
3002.00,0.0077
3001.00,0.0079
3000.00,0.0081
2999.00,0.0084
2998.00,0.0088
2997.00,0.0091
2996.00,0.0096
2995.00,0.0100
2994.00,0.0105
2993.00,0.0110
2992.00,0.0115
2991.00,0.0121
2990.00,0.0128
2989.00,0.0136
2988.00,0.0145
2987.00,0.0154
2986.00,0.0165
2985.00,0.0176
2984.00,0.0189
2983.00,0.0204
2982.00,0.0221
2981.00,0.0240
2980.00,0.0261
2979.00,0.0285
2978.00,0.0313
2977.00,0.0345
2976.00,0.0381
2975.00,0.0422
2974.00,0.0469
2973.00,0.0522
2972.00,0.0582
2971.00,0.0649
2970.00,0.0724
2969.00,0.0807
2968.00,0.0899
2967.00,0.0998
2966.00,0.1105
2965.00,0.1218
2964.00,0.1332
2963.00,0.1444
2962.00,0.1548
2961.00,0.1639
2960.00,0.1713
2959.00,0.1770
2958.00,0.1813
2957.00,0.1844
2956.00,0.1872
2955.00,0.1899
2954.00,0.1929
2953.00,0.1960
2952.00,0.1987
2951.00,0.2002
2950.00,0.1994
2949.00,0.1957
2948.00,0.1888
2947.00,0.1788
2946.00,0.1665
2945.00,0.1532
2944.00,0.1403
2943.00,0.1288
2942.00,0.1195
2941.00,0.1127
2940.00,0.1084
2939.00,0.1063
2938.00,0.1064
2937.00,0.1083
2936.00,0.1118
2935.00,0.1168
2934.00,0.1231
2933.00,0.1306
2932.00,0.1390
2931.00,0.1482
2930.00,0.1578
2929.00,0.1676
2928.00,0.1772
2927.00,0.1863
2926.00,0.1948
2925.00,0.2029
2924.00,0.2105
2923.00,0.2179
2922.00,0.2250
2921.00,0.2317
2920.00,0.2376
2919.00,0.2421
2918.00,0.2445
2917.00,0.2444
2916.00,0.2418
2915.00,0.2368
2914.00,0.2303
2913.00,0.2229
2912.00,0.2155
2911.00,0.2084
2910.00,0.2019
2909.00,0.1959
2908.00,0.1903
2907.00,0.1847
2906.00,0.1789
2905.00,0.1729
2904.00,0.1665
2903.00,0.1599
2902.00,0.1531
2901.00,0.1463
2900.00,0.1397
2899.00,0.1333
2898.00,0.1273
2897.00,0.1219
2896.00,0.1171
2895.00,0.1130
2894.00,0.1096
2893.00,0.1070
2892.00,0.1049
2891.00,0.1035
2890.00,0.1027
2889.00,0.1024
2888.00,0.1024
2887.00,0.1029
2886.00,0.1036
2885.00,0.1048
2884.00,0.1063
2883.00,0.1082
2882.00,0.1105
2881.00,0.1130
2880.00,0.1154
2879.00,0.1174
2878.00,0.1187
2877.00,0.1190
2876.00,0.1185
2875.00,0.1177
2874.00,0.1168
2873.00,0.1165
2872.00,0.1170
2871.00,0.1181
2870.00,0.1198
2869.00,0.1214
2868.00,0.1224
2867.00,0.1218
2866.00,0.1191
2865.00,0.1141
2864.00,0.1069
2863.00,0.0985
2862.00,0.0898
2861.00,0.0816
2860.00,0.0745
2859.00,0.0688
2858.00,0.0645
2857.00,0.0615
2856.00,0.0595
2855.00,0.0585
2854.00,0.0582
2853.00,0.0587
2852.00,0.0597
2851.00,0.0614
2850.00,0.0636
2849.00,0.0664
2848.00,0.0699
2847.00,0.0741
2846.00,0.0793
2845.00,0.0853
2844.00,0.0922
2843.00,0.0997
2842.00,0.1075
2841.00,0.1149
2840.00,0.1210
2839.00,0.1251
2838.00,0.1262
2837.00,0.1237
2836.00,0.1178
2835.00,0.1089
2834.00,0.0981
2833.00,0.0867
2832.00,0.0758
2831.00,0.0662
2830.00,0.0580
2829.00,0.0512
2828.00,0.0458
2827.00,0.0414
2826.00,0.0378
2825.00,0.0348
2824.00,0.0324
2823.00,0.0303
2822.00,0.0285
2821.00,0.0270
2820.00,0.0256
2819.00,0.0244
2818.00,0.0234
2817.00,0.0225
2816.00,0.0217
2815.00,0.0210
2814.00,0.0204
2813.00,0.0198
2812.00,0.0193
2811.00,0.0188
2810.00,0.0182
2809.00,0.0177
2808.00,0.0171
2807.00,0.0165
2806.00,0.0159
2805.00,0.0152
2804.00,0.0145
2803.00,0.0139
2802.00,0.0134
2801.00,0.0130
2800.00,0.0126
2799.00,0.0122
2798.00,0.0120
2797.00,0.0117
2796.00,0.0115
2795.00,0.0113
2794.00,0.0111
2793.00,0.0108
2792.00,0.0105
2791.00,0.0101
2790.00,0.0097
2789.00,0.0094
2788.00,0.0090
2787.00,0.0087
2786.00,0.0084
2785.00,0.0082
2784.00,0.0079
2783.00,0.0077
2782.00,0.0075
2781.00,0.0073
2780.00,0.0071
2779.00,0.0070
2778.00,0.0068
2777.00,0.0066
2776.00,0.0065
2775.00,0.0064
2774.00,0.0063
2773.00,0.0062
2772.00,0.0061
2771.00,0.0061
2770.00,0.0060
2769.00,0.0060
2768.00,0.0060
2767.00,0.0060
2766.00,0.0059
2765.00,0.0059
2764.00,0.0059
2763.00,0.0058
2762.00,0.0058
2761.00,0.0058
2760.00,0.0057
2759.00,0.0057
2758.00,0.0057
2757.00,0.0056
2756.00,0.0056
2755.00,0.0056
2754.00,0.0056
2753.00,0.0056
2752.00,0.0055
2751.00,0.0055
2750.00,0.0055
2749.00,0.0055
2748.00,0.0055
2747.00,0.0056
2746.00,0.0056
2745.00,0.0057
2744.00,0.0058
2743.00,0.0058
2742.00,0.0059
2741.00,0.0060
2740.00,0.0062
2739.00,0.0064
2738.00,0.0065
2737.00,0.0067
2736.00,0.0068
2735.00,0.0070
2734.00,0.0071
2733.00,0.0072
2732.00,0.0074
2731.00,0.0076
2730.00,0.0078
2729.00,0.0081
2728.00,0.0083
2727.00,0.0086
2726.00,0.0088
2725.00,0.0090
2724.00,0.0092
2723.00,0.0092
2722.00,0.0091
2721.00,0.0089
2720.00,0.0087
2719.00,0.0083
2718.00,0.0080
2717.00,0.0077
2716.00,0.0074
2715.00,0.0071
2714.00,0.0069
2713.00,0.0067
2712.00,0.0065
2711.00,0.0063
2710.00,0.0061
2709.00,0.0060
2708.00,0.0058
2707.00,0.0057
2706.00,0.0056
2705.00,0.0055
2704.00,0.0054
2703.00,0.0053
2702.00,0.0052
2701.00,0.0051
2700.00,0.0051
2699.00,0.0050
2698.00,0.0050
2697.00,0.0050
2696.00,0.0049
2695.00,0.0049
2694.00,0.0049
2693.00,0.0049
2692.00,0.0049
2691.00,0.0049
2690.00,0.0049
2689.00,0.0049
2688.00,0.0049
2687.00,0.0049
2686.00,0.0049
2685.00,0.0049
2684.00,0.0049
2683.00,0.0049
2682.00,0.0050
2681.00,0.0050
2680.00,0.0050
2679.00,0.0050
2678.00,0.0050
2677.00,0.0049
2676.00,0.0049
2675.00,0.0049
2674.00,0.0048
2673.00,0.0048
2672.00,0.0048
2671.00,0.0047
2670.00,0.0047
2669.00,0.0047
2668.00,0.0047
2667.00,0.0047
2666.00,0.0048
2665.00,0.0048
2664.00,0.0049
2663.00,0.0049
2662.00,0.0050
2661.00,0.0050
2660.00,0.0051
2659.00,0.0050
2658.00,0.0050
2657.00,0.0050
2656.00,0.0050
2655.00,0.0049
2654.00,0.0049
2653.00,0.0048
2652.00,0.0048
2651.00,0.0047
2650.00,0.0046
2649.00,0.0046
2648.00,0.0046
2647.00,0.0046
2646.00,0.0045
2645.00,0.0045
2644.00,0.0044
2643.00,0.0044
2642.00,0.0043
2641.00,0.0043
2640.00,0.0042
2639.00,0.0042
2638.00,0.0042
2637.00,0.0042
2636.00,0.0042
2635.00,0.0042
2634.00,0.0042
2633.00,0.0041
2632.00,0.0041
2631.00,0.0041
2630.00,0.0041
2629.00,0.0042
2628.00,0.0042
2627.00,0.0042
2626.00,0.0041
2625.00,0.0042
2624.00,0.0042
2623.00,0.0042
2622.00,0.0043
2621.00,0.0043
2620.00,0.0044
2619.00,0.0044
2618.00,0.0044
2617.00,0.0044
2616.00,0.0044
2615.00,0.0043
2614.00,0.0043
2613.00,0.0042
2612.00,0.0042
2611.00,0.0041
2610.00,0.0041
2609.00,0.0040
2608.00,0.0039
2607.00,0.0038
2606.00,0.0038
2605.00,0.0037
2604.00,0.0036
2603.00,0.0036
2602.00,0.0036
2601.00,0.0036
2600.00,0.0036
2599.00,0.0036
2598.00,0.0037
2597.00,0.0037
2596.00,0.0037
2595.00,0.0036
2594.00,0.0036
2593.00,0.0036
2592.00,0.0037
2591.00,0.0037
2590.00,0.0038
2589.00,0.0038
2588.00,0.0039
2587.00,0.0039
2586.00,0.0040
2585.00,0.0041
2584.00,0.0042
2583.00,0.0042
2582.00,0.0042
2581.00,0.0042
2580.00,0.0042
2579.00,0.0041
2578.00,0.0040
2577.00,0.0039
2576.00,0.0038
2575.00,0.0036
2574.00,0.0035
2573.00,0.0034
2572.00,0.0032
2571.00,0.0031
2570.00,0.0030
2569.00,0.0030
2568.00,0.0030
2567.00,0.0030
2566.00,0.0029
2565.00,0.0029
2564.00,0.0028
2563.00,0.0027
2562.00,0.0027
2561.00,0.0027
2560.00,0.0028
2559.00,0.0029
2558.00,0.0029
2557.00,0.0029
2556.00,0.0028
2555.00,0.0027
2554.00,0.0026
2553.00,0.0026
2552.00,0.0025
2551.00,0.0025
2550.00,0.0025
2549.00,0.0024
2548.00,0.0024
2547.00,0.0024
2546.00,0.0023
2545.00,0.0023
2544.00,0.0022
2543.00,0.0021
2542.00,0.0021
2541.00,0.0020
2540.00,0.0021
2539.00,0.0021
2538.00,0.0020
2537.00,0.0020
2536.00,0.0020
2535.00,0.0019
2534.00,0.0019
2533.00,0.0018
2532.00,0.0017
2531.00,0.0017
2530.00,0.0017
2529.00,0.0017
2528.00,0.0017
2527.00,0.0017
2526.00,0.0017
2525.00,0.0017
2524.00,0.0017
2523.00,0.0017
2522.00,0.0017
2521.00,0.0016
2520.00,0.0016
2519.00,0.0015
2518.00,0.0015
2517.00,0.0015
2516.00,0.0015
2515.00,0.0015
2514.00,0.0015
2513.00,0.0014
2512.00,0.0013
2511.00,0.0013
2510.00,0.0012
2509.00,0.0012
2508.00,0.0013
2507.00,0.0013
2506.00,0.0013
2505.00,0.0013
2504.00,0.0013
2503.00,0.0013
2502.00,0.0012
2501.00,0.0012
2500.00,0.0012
2499.00,0.0012
2498.00,0.0012
2497.00,0.0013
2496.00,0.0014
2495.00,0.0014
2494.00,0.0014
2493.00,0.0014
2492.00,0.0014
2491.00,0.0014
2490.00,0.0014
2489.00,0.0014
2488.00,0.0014
2487.00,0.0014
2486.00,0.0014
2485.00,0.0014
2484.00,0.0014
2483.00,0.0014
2482.00,0.0014
2481.00,0.0014
2480.00,0.0014
2479.00,0.0014
2478.00,0.0014
2477.00,0.0014
2476.00,0.0013
2475.00,0.0012
2474.00,0.0012
2473.00,0.0012
2472.00,0.0012
2471.00,0.0012
2470.00,0.0012
2469.00,0.0011
2468.00,0.0011
2467.00,0.0011
2466.00,0.0012
2465.00,0.0012
2464.00,0.0013
2463.00,0.0013
2462.00,0.0013
2461.00,0.0013
2460.00,0.0013
2459.00,0.0014
2458.00,0.0014
2457.00,0.0015
2456.00,0.0015
2455.00,0.0015
2454.00,0.0015
2453.00,0.0015
2452.00,0.0015
2451.00,0.0015
2450.00,0.0015
2449.00,0.0015
2448.00,0.0015
2447.00,0.0014
2446.00,0.0014
2445.00,0.0014
2444.00,0.0014
2443.00,0.0013
2442.00,0.0013
2441.00,0.0013
2440.00,0.0013
2439.00,0.0013
2438.00,0.0013
2437.00,0.0014
2436.00,0.0015
2435.00,0.0016
2434.00,0.0016
2433.00,0.0016
2432.00,0.0016
2431.00,0.0016
2430.00,0.0016
2429.00,0.0016
2428.00,0.0016
2427.00,0.0016
2426.00,0.0015
2425.00,0.0015
2424.00,0.0014
2423.00,0.0014
2422.00,0.0014
2421.00,0.0014
2420.00,0.0014
2419.00,0.0014
2418.00,0.0014
2417.00,0.0014
2416.00,0.0013
2415.00,0.0012
2414.00,0.0012
2413.00,0.0012
2412.00,0.0012
2411.00,0.0013
2410.00,0.0013
2409.00,0.0013
2408.00,0.0013
2407.00,0.0012
2406.00,0.0012
2405.00,0.0012
2404.00,0.0012
2403.00,0.0012
2402.00,0.0012
2401.00,0.0011
2400.00,0.0011
2399.00,0.0011
2398.00,0.0011
2397.00,0.0012
2396.00,0.0012
2395.00,0.0012
2394.00,0.0012
2393.00,0.0012
2392.00,0.0012
2391.00,0.0012
2390.00,0.0011
2389.00,0.0010
2388.00,0.0010
2387.00,0.0009
2386.00,0.0009
2385.00,0.0008
2384.00,0.0008
2383.00,0.0007
2382.00,0.0006
2381.00,0.0006
2380.00,0.0006
2379.00,0.0005
2378.00,0.0005
2377.00,0.0005
2376.00,0.0006
2375.00,0.0006
2374.00,0.0007
2373.00,0.0007
2372.00,0.0007
2371.00,0.0007
2370.00,0.0006
2369.00,0.0005
2368.00,0.0005
2367.00,0.0005
2366.00,0.0005
2365.00,0.0005
2364.00,0.0005
2363.00,0.0005
2362.00,0.0006
2361.00,0.0007
2360.00,0.0007
2359.00,0.0007
2358.00,0.0007
2357.00,0.0007
2356.00,0.0007
2355.00,0.0006
2354.00,0.0005
2353.00,0.0004
2352.00,0.0004
2351.00,0.0004
2350.00,0.0005
2349.00,0.0007
2348.00,0.0008
2347.00,0.0008
2346.00,0.0008
2345.00,0.0008
2344.00,0.0008
2343.00,0.0008
2342.00,0.0009
2341.00,0.0009
2340.00,0.0009
2339.00,0.0009
2338.00,0.0009
2337.00,0.0009
2336.00,0.0009
2335.00,0.0009
2334.00,0.0009
2333.00,0.0008
2332.00,0.0007
2331.00,0.0006
2330.00,0.0005
2329.00,0.0006
2328.00,0.0008
2327.00,0.0012
2326.00,0.0016
2325.00,0.0020
2324.00,0.0021
2323.00,0.0020
2322.00,0.0018
2321.00,0.0016
2320.00,0.0015
2319.00,0.0014
2318.00,0.0014
2317.00,0.0013
2316.00,0.0013
2315.00,0.0012
2314.00,0.0011
2313.00,0.0010
2312.00,0.0009
2311.00,0.0009
2310.00,0.0008
2309.00,0.0008
2308.00,0.0009
2307.00,0.0009
2306.00,0.0010
2305.00,0.0010
2304.00,0.0010
2303.00,0.0011
2302.00,0.0011
2301.00,0.0012
2300.00,0.0013
2299.00,0.0013
2298.00,0.0013
2297.00,0.0013
2296.00,0.0014
2295.00,0.0015
2294.00,0.0016
2293.00,0.0017
2292.00,0.0018
2291.00,0.0018
2290.00,0.0018
2289.00,0.0019
2288.00,0.0020
2287.00,0.0020
2286.00,0.0021
2285.00,0.0020
2284.00,0.0020
2283.00,0.0019
2282.00,0.0019
2281.00,0.0019
2280.00,0.0018
2279.00,0.0018
2278.00,0.0017
2277.00,0.0017
2276.00,0.0017
2275.00,0.0017
2274.00,0.0017
2273.00,0.0016
2272.00,0.0016
2271.00,0.0016
2270.00,0.0016
2269.00,0.0016
2268.00,0.0016
2267.00,0.0016
2266.00,0.0015
2265.00,0.0013
2264.00,0.0011
2263.00,0.0011
2262.00,0.0012
2261.00,0.0014
2260.00,0.0015
2259.00,0.0015
2258.00,0.0014
2257.00,0.0013
2256.00,0.0012
2255.00,0.0011
2254.00,0.0010
2253.00,0.0010
2252.00,0.0011
2251.00,0.0013
2250.00,0.0014
2249.00,0.0015
2248.00,0.0014
2247.00,0.0014
2246.00,0.0013
2245.00,0.0014
2244.00,0.0014
2243.00,0.0013
2242.00,0.0012
2241.00,0.0012
2240.00,0.0012
2239.00,0.0011
2238.00,0.0011
2237.00,0.0011
2236.00,0.0011
2235.00,0.0011
2234.00,0.0011
2233.00,0.0011
2232.00,0.0011
2231.00,0.0012
2230.00,0.0013
2229.00,0.0013
2228.00,0.0013
2227.00,0.0011
2226.00,0.0010
2225.00,0.0010
2224.00,0.0011
2223.00,0.0012
2222.00,0.0012
2221.00,0.0011
2220.00,0.0010
2219.00,0.0009
2218.00,0.0009
2217.00,0.0010
2216.00,0.0010
2215.00,0.0010
2214.00,0.0011
2213.00,0.0012
2212.00,0.0013
2211.00,0.0013
2210.00,0.0012
2209.00,0.0011
2208.00,0.0009
2207.00,0.0008
2206.00,0.0008
2205.00,0.0008
2204.00,0.0009
2203.00,0.0010
2202.00,0.0010
2201.00,0.0010
2200.00,0.0009
2199.00,0.0008
2198.00,0.0008
2197.00,0.0008
2196.00,0.0009
2195.00,0.0011
2194.00,0.0012
2193.00,0.0014
2192.00,0.0016
2191.00,0.0016
2190.00,0.0016
2189.00,0.0016
2188.00,0.0015
2187.00,0.0015
2186.00,0.0013
2185.00,0.0012
2184.00,0.0011
2183.00,0.0010
2182.00,0.0011
2181.00,0.0013
2180.00,0.0016
2179.00,0.0018
2178.00,0.0018
2177.00,0.0016
2176.00,0.0013
2175.00,0.0012
2174.00,0.0012
2173.00,0.0014
2172.00,0.0017
2171.00,0.0018
2170.00,0.0019
2169.00,0.0019
2168.00,0.0020
2167.00,0.0021
2166.00,0.0021
2165.00,0.0020
2164.00,0.0020
2163.00,0.0020
2162.00,0.0020
2161.00,0.0016
2160.00,0.0006
2159.00,-0.0007
2158.00,-0.0018
2157.00,-0.0024
2156.00,-0.0026
2155.00,-0.0024
2154.00,-0.0020
2153.00,-0.0015
2152.00,-0.0011
2151.00,-0.0010
2150.00,-0.0010
2149.00,-0.0010
2148.00,-0.0011
2147.00,-0.0011
2146.00,-0.0010
2145.00,-0.0010
2144.00,-0.0010
2143.00,-0.0009
2142.00,-0.0009
2141.00,-0.0008
2140.00,-0.0008
2139.00,-0.0008
2138.00,-0.0009
2137.00,-0.0010
2136.00,-0.0012
2135.00,-0.0015
2134.00,-0.0018
2133.00,-0.0019
2132.00,-0.0017
2131.00,-0.0014
2130.00,-0.0011
2129.00,-0.0008
2128.00,-0.0006
2127.00,-0.0004
2126.00,-0.0003
2125.00,-0.0002
2124.00,-0.0002
2123.00,-0.0001
2122.00,-0.0000
2121.00,0.0000
2120.00,0.0001
2119.00,0.0001
2118.00,0.0002
2117.00,0.0003
2116.00,0.0004
2115.00,0.0005
2114.00,0.0006
2113.00,0.0007
2112.00,0.0007
2111.00,0.0005
2110.00,0.0004
2109.00,0.0004
2108.00,0.0004
2107.00,0.0004
2106.00,0.0004
2105.00,0.0004
2104.00,0.0004
2103.00,0.0004
2102.00,0.0004
2101.00,0.0005
2100.00,0.0006
2099.00,0.0007
2098.00,0.0007
2097.00,0.0006
2096.00,0.0004
2095.00,0.0002
2094.00,0.0001
2093.00,0.0001
2092.00,0.0002
2091.00,0.0003
2090.00,0.0003
2089.00,0.0003
2088.00,0.0003
2087.00,0.0003
2086.00,0.0003
2085.00,0.0003
2084.00,0.0004
2083.00,0.0004
2082.00,0.0004
2081.00,0.0005
2080.00,0.0005
2079.00,0.0005
2078.00,0.0005
2077.00,0.0006
2076.00,0.0007
2075.00,0.0007
2074.00,0.0007
2073.00,0.0006
2072.00,0.0004
2071.00,0.0002
2070.00,-0.0001
2069.00,-0.0002
2068.00,-0.0001
2067.00,-0.0001
2066.00,-0.0000
2065.00,0.0000
2064.00,0.0000
2063.00,0.0000
2062.00,0.0000
2061.00,0.0001
2060.00,0.0003
2059.00,0.0004
2058.00,0.0006
2057.00,0.0007
2056.00,0.0007
2055.00,0.0007
2054.00,0.0008
2053.00,0.0011
2052.00,0.0014
2051.00,0.0015
2050.00,0.0013
2049.00,0.0009
2048.00,0.0005
2047.00,0.0002
2046.00,0.0001
2045.00,0.0001
2044.00,0.0001
2043.00,0.0001
2042.00,0.0002
2041.00,0.0001
2040.00,-0.0000
2039.00,-0.0002
2038.00,-0.0003
2037.00,-0.0002
2036.00,-0.0002
2035.00,-0.0004
2034.00,-0.0006
2033.00,-0.0007
2032.00,-0.0006
2031.00,-0.0007
2030.00,-0.0008
2029.00,-0.0009
2028.00,-0.0009
2027.00,-0.0010
2026.00,-0.0011
2025.00,-0.0012
2024.00,-0.0012
2023.00,-0.0012
2022.00,-0.0011
2021.00,-0.0010
2020.00,-0.0008
2019.00,-0.0006
2018.00,-0.0003
2017.00,0.0000
2016.00,0.0001
2015.00,-0.0002
2014.00,-0.0007
2013.00,-0.0010
2012.00,-0.0011
2011.00,-0.0010
2010.00,-0.0008
2009.00,-0.0006
2008.00,-0.0007
2007.00,-0.0011
2006.00,-0.0015
2005.00,-0.0017
2004.00,-0.0017
2003.00,-0.0016
2002.00,-0.0014
2001.00,-0.0013
2000.00,-0.0012
1999.00,-0.0012
1998.00,-0.0013
1997.00,-0.0014
1996.00,-0.0014
1995.00,-0.0014
1994.00,-0.0014
1993.00,-0.0014
1992.00,-0.0014
1991.00,-0.0013
1990.00,-0.0011
1989.00,-0.0009
1988.00,-0.0008
1987.00,-0.0007
1986.00,-0.0006
1985.00,-0.0003
1984.00,0.0000
1983.00,0.0004
1982.00,0.0007
1981.00,0.0010
1980.00,0.0012
1979.00,0.0011
1978.00,0.0007
1977.00,0.0001
1976.00,-0.0004
1975.00,-0.0007
1974.00,-0.0007
1973.00,-0.0007
1972.00,-0.0008
1971.00,-0.0010
1970.00,-0.0011
1969.00,-0.0010
1968.00,-0.0008
1967.00,-0.0006
1966.00,-0.0005
1965.00,-0.0006
1964.00,-0.0008
1963.00,-0.0011
1962.00,-0.0014
1961.00,-0.0016
1960.00,-0.0017
1959.00,-0.0016
1958.00,-0.0015
1957.00,-0.0013
1956.00,-0.0011
1955.00,-0.0009
1954.00,-0.0008
1953.00,-0.0008
1952.00,-0.0008
1951.00,-0.0009
1950.00,-0.0009
1949.00,-0.0010
1948.00,-0.0011
1947.00,-0.0013
1946.00,-0.0014
1945.00,-0.0015
1944.00,-0.0014
1943.00,-0.0014
1942.00,-0.0012
1941.00,-0.0010
1940.00,-0.0008
1939.00,-0.0007
1938.00,-0.0006
1937.00,-0.0006
1936.00,-0.0006
1935.00,-0.0007
1934.00,-0.0007
1933.00,-0.0005
1932.00,-0.0005
1931.00,-0.0005
1930.00,-0.0007
1929.00,-0.0008
1928.00,-0.0007
1927.00,-0.0006
1926.00,-0.0005
1925.00,-0.0004
1924.00,-0.0004
1923.00,-0.0003
1922.00,-0.0004
1921.00,-0.0004
1920.00,-0.0004
1919.00,-0.0003
1918.00,-0.0002
1917.00,-0.0001
1916.00,0.0000
1915.00,0.0001
1914.00,0.0000
1913.00,-0.0000
1912.00,-0.0001
1911.00,-0.0002
1910.00,-0.0003
1909.00,-0.0003
1908.00,-0.0002
1907.00,-0.0002
1906.00,-0.0002
1905.00,-0.0002
1904.00,-0.0002
1903.00,-0.0002
1902.00,-0.0001
1901.00,-0.0000
1900.00,0.0001
1899.00,0.0001
1898.00,0.0001
1897.00,0.0001
1896.00,-0.0000
1895.00,-0.0001
1894.00,-0.0001
1893.00,-0.0001
1892.00,-0.0001
1891.00,-0.0000
1890.00,0.0001
1889.00,0.0002
1888.00,0.0002
1887.00,0.0002
1886.00,0.0001
1885.00,0.0001
1884.00,0.0001
1883.00,0.0002
1882.00,0.0002
1881.00,0.0001
1880.00,0.0001
1879.00,0.0001
1878.00,0.0001
1877.00,0.0001
1876.00,0.0002
1875.00,0.0002
1874.00,0.0003
1873.00,0.0003
1872.00,0.0003
1871.00,0.0002
1870.00,0.0001
1869.00,0.0001
1868.00,0.0001
1867.00,0.0001
1866.00,0.0001
1865.00,0.0001
1864.00,0.0002
1863.00,0.0002
1862.00,0.0002
1861.00,0.0002
1860.00,0.0003
1859.00,0.0004
1858.00,0.0004
1857.00,0.0004
1856.00,0.0003
1855.00,0.0002
1854.00,0.0001
1853.00,0.0001
1852.00,0.0001
1851.00,0.0001
1850.00,0.0002
1849.00,0.0002
1848.00,0.0003
1847.00,0.0004
1846.00,0.0005
1845.00,0.0005
1844.00,0.0005
1843.00,0.0005
1842.00,0.0004
1841.00,0.0004
1840.00,0.0004
1839.00,0.0004
1838.00,0.0005
1837.00,0.0005
1836.00,0.0006
1835.00,0.0006
1834.00,0.0006
1833.00,0.0005
1832.00,0.0005
1831.00,0.0005
1830.00,0.0005
1829.00,0.0005
1828.00,0.0006
1827.00,0.0006
1826.00,0.0006
1825.00,0.0006
1824.00,0.0006
1823.00,0.0007
1822.00,0.0007
1821.00,0.0007
1820.00,0.0006
1819.00,0.0005
1818.00,0.0004
1817.00,0.0004
1816.00,0.0003
1815.00,0.0003
1814.00,0.0003
1813.00,0.0004
1812.00,0.0004
1811.00,0.0005
1810.00,0.0006
1809.00,0.0006
1808.00,0.0006
1807.00,0.0006
1806.00,0.0006
1805.00,0.0006
1804.00,0.0006
1803.00,0.0006
1802.00,0.0006
1801.00,0.0006
1800.00,0.0007
1799.00,0.0007
1798.00,0.0008
1797.00,0.0008
1796.00,0.0008
1795.00,0.0008
1794.00,0.0008
1793.00,0.0009
1792.00,0.0009
1791.00,0.0010
1790.00,0.0010
1789.00,0.0010
1788.00,0.0010
1787.00,0.0010
1786.00,0.0010
1785.00,0.0010
1784.00,0.0010
1783.00,0.0011
1782.00,0.0011
1781.00,0.0011
1780.00,0.0011
1779.00,0.0011
1778.00,0.0011
1777.00,0.0011
1776.00,0.0010
1775.00,0.0010
1774.00,0.0010
1773.00,0.0011
1772.00,0.0011
1771.00,0.0011
1770.00,0.0012
1769.00,0.0012
1768.00,0.0013
1767.00,0.0013
1766.00,0.0013
1765.00,0.0013
1764.00,0.0013
1763.00,0.0014
1762.00,0.0015
1761.00,0.0015
1760.00,0.0015
1759.00,0.0015
1758.00,0.0015
1757.00,0.0015
1756.00,0.0016
1755.00,0.0017
1754.00,0.0017
1753.00,0.0018
1752.00,0.0020
1751.00,0.0021
1750.00,0.0021
1749.00,0.0022
1748.00,0.0022
1747.00,0.0022
1746.00,0.0021
1745.00,0.0021
1744.00,0.0021
1743.00,0.0022
1742.00,0.0023
1741.00,0.0023
1740.00,0.0024
1739.00,0.0024
1738.00,0.0024
1737.00,0.0024
1736.00,0.0025
1735.00,0.0026
1734.00,0.0026
1733.00,0.0026
1732.00,0.0026
1731.00,0.0025
1730.00,0.0024
1729.00,0.0024
1728.00,0.0024
1727.00,0.0024
1726.00,0.0024
1725.00,0.0024
1724.00,0.0025
1723.00,0.0025
1722.00,0.0025
1721.00,0.0025
1720.00,0.0024
1719.00,0.0024
1718.00,0.0024
1717.00,0.0025
1716.00,0.0026
1715.00,0.0026
1714.00,0.0026
1713.00,0.0026
1712.00,0.0026
1711.00,0.0026
1710.00,0.0027
1709.00,0.0028
1708.00,0.0029
1707.00,0.0029
1706.00,0.0029
1705.00,0.0030
1704.00,0.0030
1703.00,0.0031
1702.00,0.0031
1701.00,0.0032
1700.00,0.0032
1699.00,0.0033
1698.00,0.0033
1697.00,0.0034
1696.00,0.0036
1695.00,0.0037
1694.00,0.0038
1693.00,0.0038
1692.00,0.0038
1691.00,0.0039
1690.00,0.0040
1689.00,0.0041
1688.00,0.0043
1687.00,0.0043
1686.00,0.0044
1685.00,0.0045
1684.00,0.0047
1683.00,0.0048
1682.00,0.0050
1681.00,0.0050
1680.00,0.0051
1679.00,0.0053
1678.00,0.0054
1677.00,0.0055
1676.00,0.0057
1675.00,0.0058
1674.00,0.0059
1673.00,0.0060
1672.00,0.0061
1671.00,0.0062
1670.00,0.0062
1669.00,0.0063
1668.00,0.0064
1667.00,0.0065
1666.00,0.0065
1665.00,0.0066
1664.00,0.0067
1663.00,0.0068
1662.00,0.0069
1661.00,0.0070
1660.00,0.0072
1659.00,0.0073
1658.00,0.0074
1657.00,0.0075
1656.00,0.0076
1655.00,0.0077
1654.00,0.0077
1653.00,0.0077
1652.00,0.0079
1651.00,0.0080
1650.00,0.0081
1649.00,0.0082
1648.00,0.0083
1647.00,0.0084
1646.00,0.0085
1645.00,0.0085
1644.00,0.0086
1643.00,0.0086
1642.00,0.0086
1641.00,0.0086
1640.00,0.0086
1639.00,0.0086
1638.00,0.0086
1637.00,0.0086
1636.00,0.0085
1635.00,0.0085
1634.00,0.0085
1633.00,0.0085
1632.00,0.0085
1631.00,0.0085
1630.00,0.0085
1629.00,0.0084
1628.00,0.0084
1627.00,0.0084
1626.00,0.0084
1625.00,0.0084
1624.00,0.0084
1623.00,0.0084
1622.00,0.0083
1621.00,0.0082
1620.00,0.0082
1619.00,0.0082
1618.00,0.0081
1617.00,0.0081
1616.00,0.0081
1615.00,0.0081
1614.00,0.0081
1613.00,0.0081
1612.00,0.0082
1611.00,0.0082
1610.00,0.0082
1609.00,0.0083
1608.00,0.0083
1607.00,0.0084
1606.00,0.0084
1605.00,0.0084
1604.00,0.0084
1603.00,0.0084
1602.00,0.0083
1601.00,0.0083
1600.00,0.0082
1599.00,0.0082
1598.00,0.0082
1597.00,0.0082
1596.00,0.0082
1595.00,0.0081
1594.00,0.0081
1593.00,0.0080
1592.00,0.0081
1591.00,0.0081
1590.00,0.0081
1589.00,0.0082
1588.00,0.0082
1587.00,0.0082
1586.00,0.0082
1585.00,0.0083
1584.00,0.0084
1583.00,0.0085
1582.00,0.0086
1581.00,0.0087
1580.00,0.0089
1579.00,0.0089
1578.00,0.0089
1577.00,0.0089
1576.00,0.0088
1575.00,0.0087
1574.00,0.0087
1573.00,0.0086
1572.00,0.0086
1571.00,0.0085
1570.00,0.0083
1569.00,0.0082
1568.00,0.0082
1567.00,0.0081
1566.00,0.0081
1565.00,0.0080
1564.00,0.0081
1563.00,0.0081
1562.00,0.0082
1561.00,0.0083
1560.00,0.0085
1559.00,0.0085
1558.00,0.0085
1557.00,0.0086
1556.00,0.0087
1555.00,0.0087
1554.00,0.0088
1553.00,0.0089
1552.00,0.0090
1551.00,0.0091
1550.00,0.0091
1549.00,0.0093
1548.00,0.0094
1547.00,0.0096
1546.00,0.0097
1545.00,0.0099
1544.00,0.0101
1543.00,0.0102
1542.00,0.0103
1541.00,0.0102
1540.00,0.0100
1539.00,0.0097
1538.00,0.0095
1537.00,0.0094
1536.00,0.0092
1535.00,0.0090
1534.00,0.0087
1533.00,0.0084
1532.00,0.0081
1531.00,0.0080
1530.00,0.0078
1529.00,0.0077
1528.00,0.0076
1527.00,0.0074
1526.00,0.0073
1525.00,0.0072
1524.00,0.0072
1523.00,0.0071
1522.00,0.0070
1521.00,0.0069
1520.00,0.0069
1519.00,0.0069
1518.00,0.0069
1517.00,0.0070
1516.00,0.0070
1515.00,0.0071
1514.00,0.0071
1513.00,0.0071
1512.00,0.0072
1511.00,0.0072
1510.00,0.0072
1509.00,0.0072
1508.00,0.0072
1507.00,0.0073
1506.00,0.0074
1505.00,0.0076
1504.00,0.0078
1503.00,0.0079
1502.00,0.0081
1501.00,0.0083
1500.00,0.0086
1499.00,0.0089
1498.00,0.0092
1497.00,0.0096
1496.00,0.0100
1495.00,0.0103
1494.00,0.0106
1493.00,0.0109
1492.00,0.0112
1491.00,0.0114
1490.00,0.0117
1489.00,0.0120
1488.00,0.0125
1487.00,0.0130
1486.00,0.0135
1485.00,0.0141
1484.00,0.0148
1483.00,0.0156
1482.00,0.0164
1481.00,0.0174
1480.00,0.0186
1479.00,0.0198
1478.00,0.0213
1477.00,0.0232
1476.00,0.0255
1475.00,0.0281
1474.00,0.0316
1473.00,0.0368
1472.00,0.0431
1471.00,0.0493
1470.00,0.0552
1469.00,0.0615
1468.00,0.0683
1467.00,0.0758
1466.00,0.0844
1465.00,0.0939
1464.00,0.1024
1463.00,0.1087
1462.00,0.1130
1461.00,0.1163
1460.00,0.1189
1459.00,0.1210
1458.00,0.1231
1457.00,0.1253
1456.00,0.1266
1455.00,0.1268
1454.00,0.1264
1453.00,0.1253
1452.00,0.1233
1451.00,0.1200
1450.00,0.1150
1449.00,0.1076
1448.00,0.0980
1447.00,0.0876
1446.00,0.0783
1445.00,0.0702
1444.00,0.0634
1443.00,0.0578
1442.00,0.0536
1441.00,0.0508
1440.00,0.0490
1439.00,0.0480
1438.00,0.0478
1437.00,0.0474
1436.00,0.0460
1435.00,0.0431
1434.00,0.0392
1433.00,0.0347
1432.00,0.0301
1431.00,0.0260
1430.00,0.0230
1429.00,0.0207
1428.00,0.0192
1427.00,0.0183
1426.00,0.0177
1425.00,0.0171
1424.00,0.0166
1423.00,0.0164
1422.00,0.0163
1421.00,0.0161
1420.00,0.0158
1419.00,0.0156
1418.00,0.0153
1417.00,0.0151
1416.00,0.0148
1415.00,0.0146
1414.00,0.0145
1413.00,0.0143
1412.00,0.0140
1411.00,0.0138
1410.00,0.0137
1409.00,0.0136
1408.00,0.0135
1407.00,0.0135
1406.00,0.0135
1405.00,0.0134
1404.00,0.0134
1403.00,0.0135
1402.00,0.0136
1401.00,0.0137
1400.00,0.0138
1399.00,0.0139
1398.00,0.0141
1397.00,0.0143
1396.00,0.0143
1395.00,0.0146
1394.00,0.0152
1393.00,0.0157
1392.00,0.0164
1391.00,0.0173
1390.00,0.0185
1389.00,0.0203
1388.00,0.0229
1387.00,0.0268
1386.00,0.0320
1385.00,0.0386
1384.00,0.0472
1383.00,0.0586
1382.00,0.0735
1381.00,0.0919
1380.00,0.1142
1379.00,0.1389
1378.00,0.1624
1377.00,0.1794
1376.00,0.1850
1375.00,0.1762
1374.00,0.1552
1373.00,0.1295
1372.00,0.1057
1371.00,0.0857
1370.00,0.0695
1369.00,0.0571
1368.00,0.0483
1367.00,0.0429
1366.00,0.0400
1365.00,0.0388
1364.00,0.0389
1363.00,0.0403
1362.00,0.0423
1361.00,0.0445
1360.00,0.0461
1359.00,0.0464
1358.00,0.0453
1357.00,0.0427
1356.00,0.0391
1355.00,0.0349
1354.00,0.0309
1353.00,0.0274
1352.00,0.0246
1351.00,0.0224
1350.00,0.0206
1349.00,0.0192
1348.00,0.0181
1347.00,0.0171
1346.00,0.0164
1345.00,0.0158
1344.00,0.0153
1343.00,0.0149
1342.00,0.0146
1341.00,0.0143
1340.00,0.0140
1339.00,0.0138
1338.00,0.0136
1337.00,0.0135
1336.00,0.0135
1335.00,0.0136
1334.00,0.0139
1333.00,0.0143
1332.00,0.0147
1331.00,0.0150
1330.00,0.0151
1329.00,0.0150
1328.00,0.0147
1327.00,0.0142
1326.00,0.0135
1325.00,0.0129
1324.00,0.0123
1323.00,0.0118
1322.00,0.0114
1321.00,0.0111
1320.00,0.0108
1319.00,0.0106
1318.00,0.0104
1317.00,0.0102
1316.00,0.0100
1315.00,0.0099
1314.00,0.0098
1313.00,0.0098
1312.00,0.0100
1311.00,0.0102
1310.00,0.0107
1309.00,0.0115
1308.00,0.0127
1307.00,0.0141
1306.00,0.0155
1305.00,0.0165
1304.00,0.0168
1303.00,0.0165
1302.00,0.0159
1301.00,0.0152
1300.00,0.0147
1299.00,0.0144
1298.00,0.0143
1297.00,0.0143
1296.00,0.0141
1295.00,0.0139
1294.00,0.0135
1293.00,0.0130
1292.00,0.0125
1291.00,0.0120
1290.00,0.0115
1289.00,0.0111
1288.00,0.0107
1287.00,0.0104
1286.00,0.0101
1285.00,0.0099
1284.00,0.0097
1283.00,0.0095
1282.00,0.0094
1281.00,0.0093
1280.00,0.0092
1279.00,0.0091
1278.00,0.0090
1277.00,0.0089
1276.00,0.0088
1275.00,0.0088
1274.00,0.0089
1273.00,0.0089
1272.00,0.0089
1271.00,0.0090
1270.00,0.0091
1269.00,0.0093
1268.00,0.0094
1267.00,0.0097
1266.00,0.0099
1265.00,0.0103
1264.00,0.0107
1263.00,0.0111
1262.00,0.0116
1261.00,0.0121
1260.00,0.0128
1259.00,0.0137
1258.00,0.0146
1257.00,0.0153
1256.00,0.0157
1255.00,0.0155
1254.00,0.0148
1253.00,0.0137
1252.00,0.0127
1251.00,0.0118
1250.00,0.0111
1249.00,0.0106
1248.00,0.0103
1247.00,0.0100
1246.00,0.0099
1245.00,0.0098
1244.00,0.0098
1243.00,0.0098
1242.00,0.0098
1241.00,0.0097
1240.00,0.0096
1239.00,0.0095
1238.00,0.0093
1237.00,0.0092
1236.00,0.0091
1235.00,0.0090
1234.00,0.0089
1233.00,0.0089
1232.00,0.0089
1231.00,0.0089
1230.00,0.0089
1229.00,0.0089
1228.00,0.0090
1227.00,0.0091
1226.00,0.0093
1225.00,0.0095
1224.00,0.0098
1223.00,0.0101
1222.00,0.0103
1221.00,0.0105
1220.00,0.0107
1219.00,0.0108
1218.00,0.0108
1217.00,0.0106
1216.00,0.0104
1215.00,0.0101
1214.00,0.0099
1213.00,0.0096
1212.00,0.0092
1211.00,0.0090
1210.00,0.0088
1209.00,0.0086
1208.00,0.0085
1207.00,0.0084
1206.00,0.0083
1205.00,0.0083
1204.00,0.0082
1203.00,0.0082
1202.00,0.0081
1201.00,0.0081
1200.00,0.0081
1199.00,0.0081
1198.00,0.0081
1197.00,0.0082
1196.00,0.0081
1195.00,0.0081
1194.00,0.0081
1193.00,0.0081
1192.00,0.0081
1191.00,0.0081
1190.00,0.0081
1189.00,0.0081
1188.00,0.0082
1187.00,0.0083
1186.00,0.0084
1185.00,0.0085
1184.00,0.0087
1183.00,0.0089
1182.00,0.0092
1181.00,0.0096
1180.00,0.0100
1179.00,0.0106
1178.00,0.0115
1177.00,0.0126
1176.00,0.0140
1175.00,0.0160
1174.00,0.0185
1173.00,0.0216
1172.00,0.0253
1171.00,0.0294
1170.00,0.0333
1169.00,0.0366
1168.00,0.0386
1167.00,0.0392
1166.00,0.0384
1165.00,0.0366
1164.00,0.0344
1163.00,0.0322
1162.00,0.0300
1161.00,0.0282
1160.00,0.0267
1159.00,0.0255
1158.00,0.0246
1157.00,0.0239
1156.00,0.0234
1155.00,0.0229
1154.00,0.0225
1153.00,0.0221
1152.00,0.0215
1151.00,0.0208
1150.00,0.0199
1149.00,0.0190
1148.00,0.0180
1147.00,0.0171
1146.00,0.0162
1145.00,0.0154
1144.00,0.0147
1143.00,0.0141
1142.00,0.0136
1141.00,0.0130
1140.00,0.0125
1139.00,0.0121
1138.00,0.0117
1137.00,0.0115
1136.00,0.0113
1135.00,0.0111
1134.00,0.0109
1133.00,0.0107
1132.00,0.0106
1131.00,0.0106
1130.00,0.0106
1129.00,0.0107
1128.00,0.0109
1127.00,0.0111
1126.00,0.0112
1125.00,0.0113
1124.00,0.0114
1123.00,0.0114
1122.00,0.0116
1121.00,0.0117
1120.00,0.0118
1119.00,0.0120
1118.00,0.0122
1117.00,0.0123
1116.00,0.0125
1115.00,0.0126
1114.00,0.0127
1113.00,0.0129
1112.00,0.0131
1111.00,0.0133
1110.00,0.0136
1109.00,0.0140
1108.00,0.0146
1107.00,0.0152
1106.00,0.0159
1105.00,0.0165
1104.00,0.0170
1103.00,0.0173
1102.00,0.0174
1101.00,0.0172
1100.00,0.0168
1099.00,0.0162
1098.00,0.0155
1097.00,0.0148
1096.00,0.0143
1095.00,0.0139
1094.00,0.0135
1093.00,0.0132
1092.00,0.0128
1091.00,0.0125
1090.00,0.0121
1089.00,0.0118
1088.00,0.0116
1087.00,0.0115
1086.00,0.0114
1085.00,0.0112
1084.00,0.0111
1083.00,0.0110
1082.00,0.0109
1081.00,0.0108
1080.00,0.0107
1079.00,0.0105
1078.00,0.0104
1077.00,0.0104
1076.00,0.0103
1075.00,0.0103
1074.00,0.0103
1073.00,0.0104
1072.00,0.0104
1071.00,0.0104
1070.00,0.0103
1069.00,0.0103
1068.00,0.0103
1067.00,0.0103
1066.00,0.0102
1065.00,0.0102
1064.00,0.0101
1063.00,0.0102
1062.00,0.0102
1061.00,0.0103
1060.00,0.0103
1059.00,0.0103
1058.00,0.0103
1057.00,0.0103
1056.00,0.0103
1055.00,0.0104
1054.00,0.0105
1053.00,0.0107
1052.00,0.0109
1051.00,0.0112
1050.00,0.0115
1049.00,0.0119
1048.00,0.0122
1047.00,0.0125
1046.00,0.0128
1045.00,0.0129
1044.00,0.0129
1043.00,0.0127
1042.00,0.0125
1041.00,0.0122
1040.00,0.0119
1039.00,0.0118
1038.00,0.0116
1037.00,0.0115
1036.00,0.0114
1035.00,0.0114
1034.00,0.0114
1033.00,0.0114
1032.00,0.0113
1031.00,0.0113
1030.00,0.0112
1029.00,0.0112
1028.00,0.0111
1027.00,0.0111
1026.00,0.0110
1025.00,0.0110
1024.00,0.0110
1023.00,0.0111
1022.00,0.0112
1021.00,0.0113
1020.00,0.0113
1019.00,0.0114
1018.00,0.0115
1017.00,0.0117
1016.00,0.0119
1015.00,0.0122
1014.00,0.0125
1013.00,0.0129
1012.00,0.0134
1011.00,0.0138
1010.00,0.0142
1009.00,0.0146
1008.00,0.0152
1007.00,0.0159
1006.00,0.0169
1005.00,0.0183
1004.00,0.0202
1003.00,0.0229
1002.00,0.0264
1001.00,0.0307
1000.00,0.0353
999.00,0.0394
998.00,0.0416
997.00,0.0412
996.00,0.0382
995.00,0.0336
994.00,0.0286
993.00,0.0241
992.00,0.0205
991.00,0.0179
990.00,0.0160
989.00,0.0147
988.00,0.0139
987.00,0.0135
986.00,0.0134
985.00,0.0136
984.00,0.0140
983.00,0.0148
982.00,0.0160
981.00,0.0179
980.00,0.0204
979.00,0.0236
978.00,0.0278
977.00,0.0327
976.00,0.0382
975.00,0.0436
974.00,0.0479
973.00,0.0500
972.00,0.0490
971.00,0.0450
970.00,0.0391
969.00,0.0327
968.00,0.0269
967.00,0.0224
966.00,0.0190
965.00,0.0165
964.00,0.0147
963.00,0.0134
962.00,0.0124
961.00,0.0116
960.00,0.0110
959.00,0.0106
958.00,0.0102
957.00,0.0098
956.00,0.0095
955.00,0.0092
954.00,0.0090
953.00,0.0088
952.00,0.0088
951.00,0.0087
950.00,0.0086
949.00,0.0086
948.00,0.0086
947.00,0.0087
946.00,0.0089
945.00,0.0091
944.00,0.0093
943.00,0.0096
942.00,0.0099
941.00,0.0101
940.00,0.0101
939.00,0.0098
938.00,0.0094
937.00,0.0089
936.00,0.0084
935.00,0.0079
934.00,0.0076
933.00,0.0074
932.00,0.0073
931.00,0.0071
930.00,0.0070
929.00,0.0069
928.00,0.0069
927.00,0.0069
926.00,0.0069
925.00,0.0069
924.00,0.0070
923.00,0.0070
922.00,0.0071
921.00,0.0072
920.00,0.0073
919.00,0.0075
918.00,0.0077
917.00,0.0077
916.00,0.0077
915.00,0.0076
914.00,0.0075
913.00,0.0076
912.00,0.0076
911.00,0.0077
910.00,0.0079
909.00,0.0080
908.00,0.0083
907.00,0.0087
906.00,0.0095
905.00,0.0106
904.00,0.0120
903.00,0.0137
902.00,0.0155
901.00,0.0173
900.00,0.0186
899.00,0.0190
898.00,0.0184
897.00,0.0170
896.00,0.0152
895.00,0.0134
894.00,0.0118
893.00,0.0106
892.00,0.0098
891.00,0.0092
890.00,0.0089
889.00,0.0086
888.00,0.0084
887.00,0.0082
886.00,0.0080
885.00,0.0079
884.00,0.0078
883.00,0.0077
882.00,0.0077
881.00,0.0079
880.00,0.0081
879.00,0.0082
878.00,0.0083
877.00,0.0084
876.00,0.0084
875.00,0.0084
874.00,0.0085
873.00,0.0085
872.00,0.0084
871.00,0.0083
870.00,0.0082
869.00,0.0082
868.00,0.0082
867.00,0.0084
866.00,0.0085
865.00,0.0085
864.00,0.0086
863.00,0.0087
862.00,0.0088
861.00,0.0090
860.00,0.0091
859.00,0.0093
858.00,0.0093
857.00,0.0095
856.00,0.0097
855.00,0.0100
854.00,0.0103
853.00,0.0105
852.00,0.0109
851.00,0.0115
850.00,0.0122
849.00,0.0131
848.00,0.0143
847.00,0.0162
846.00,0.0190
845.00,0.0232
844.00,0.0288
843.00,0.0350
842.00,0.0398
841.00,0.0413
840.00,0.0388
839.00,0.0335
838.00,0.0277
837.00,0.0229
836.00,0.0196
835.00,0.0174
834.00,0.0160
833.00,0.0150
832.00,0.0144
831.00,0.0140
830.00,0.0136
829.00,0.0133
828.00,0.0130
827.00,0.0128
826.00,0.0126
825.00,0.0125
824.00,0.0125
823.00,0.0125
822.00,0.0124
821.00,0.0123
820.00,0.0123
819.00,0.0125
818.00,0.0128
817.00,0.0132
816.00,0.0139
815.00,0.0148
814.00,0.0161
813.00,0.0177
812.00,0.0193
811.00,0.0209
810.00,0.0220
809.00,0.0224
808.00,0.0221
807.00,0.0211
806.00,0.0197
805.00,0.0181
804.00,0.0166
803.00,0.0154
802.00,0.0145
801.00,0.0139
800.00,0.0133
799.00,0.0127
798.00,0.0121
797.00,0.0116
796.00,0.0112
795.00,0.0109
794.00,0.0106
793.00,0.0103
792.00,0.0100
791.00,0.0096
790.00,0.0093
789.00,0.0091
788.00,0.0089
787.00,0.0086
786.00,0.0083
785.00,0.0080
784.00,0.0078
783.00,0.0077
782.00,0.0076
781.00,0.0074
780.00,0.0073
779.00,0.0073
778.00,0.0073
777.00,0.0074
776.00,0.0074
775.00,0.0074
774.00,0.0074
773.00,0.0076
772.00,0.0079
771.00,0.0084
770.00,0.0089
769.00,0.0094
768.00,0.0096
767.00,0.0095
766.00,0.0094
765.00,0.0091
764.00,0.0087
763.00,0.0082
762.00,0.0077
761.00,0.0074
760.00,0.0071
759.00,0.0069
758.00,0.0068
757.00,0.0066
756.00,0.0065
755.00,0.0064
754.00,0.0064
753.00,0.0064
752.00,0.0064
751.00,0.0064
750.00,0.0065
749.00,0.0065
748.00,0.0066
747.00,0.0066
746.00,0.0067
745.00,0.0067
744.00,0.0066
743.00,0.0067
742.00,0.0068
741.00,0.0070
740.00,0.0072
739.00,0.0073
738.00,0.0073
737.00,0.0073
736.00,0.0074
735.00,0.0076
734.00,0.0078
733.00,0.0080
732.00,0.0081
731.00,0.0081
730.00,0.0080
729.00,0.0079
728.00,0.0079
727.00,0.0079
726.00,0.0078
725.00,0.0077
724.00,0.0075
723.00,0.0074
722.00,0.0073
721.00,0.0072
720.00,0.0072
719.00,0.0072
718.00,0.0072
717.00,0.0071
716.00,0.0069
715.00,0.0068
714.00,0.0068
713.00,0.0069
712.00,0.0070
711.00,0.0071
710.00,0.0071
709.00,0.0072
708.00,0.0073
707.00,0.0073
706.00,0.0072
705.00,0.0071
704.00,0.0068
703.00,0.0067
702.00,0.0066
701.00,0.0066
700.00,0.0065
699.00,0.0063
698.00,0.0062
697.00,0.0062
696.00,0.0063
695.00,0.0064
694.00,0.0065
693.00,0.0065
692.00,0.0065
691.00,0.0066
690.00,0.0067
689.00,0.0067
688.00,0.0067
687.00,0.0066
686.00,0.0064
685.00,0.0063
684.00,0.0062
683.00,0.0062
682.00,0.0062
681.00,0.0062
680.00,0.0061
679.00,0.0061
678.00,0.0063
677.00,0.0066
676.00,0.0069
675.00,0.0070
674.00,0.0070
673.00,0.0067
672.00,0.0064
671.00,0.0062
670.00,0.0062
669.00,0.0062
668.00,0.0060
667.00,0.0061
666.00,0.0061
665.00,0.0062
664.00,0.0063
663.00,0.0063
662.00,0.0063
661.00,0.0063
660.00,0.0063
659.00,0.0064
658.00,0.0065
657.00,0.0066
656.00,0.0066
655.00,0.0064
654.00,0.0062
653.00,0.0061
652.00,0.0062
651.00,0.0063
650.00,0.0063
649.00,0.0062
648.00,0.0060
647.00,0.0059
646.00,0.0057
645.00,0.0056
644.00,0.0057
643.00,0.0060
642.00,0.0063
641.00,0.0065
640.00,0.0065
639.00,0.0063
638.00,0.0062
637.00,0.0062
636.00,0.0063
635.00,0.0065
634.00,0.0066
633.00,0.0068
632.00,0.0068
631.00,0.0067
630.00,0.0066
629.00,0.0065
628.00,0.0066
627.00,0.0067
626.00,0.0066
625.00,0.0065
624.00,0.0064
623.00,0.0065
622.00,0.0068
621.00,0.0071
620.00,0.0073
619.00,0.0073
618.00,0.0073
617.00,0.0073
616.00,0.0072
615.00,0.0071
614.00,0.0070
613.00,0.0070
612.00,0.0071
611.00,0.0072
610.00,0.0073
609.00,0.0075
608.00,0.0075
607.00,0.0073
606.00,0.0071
605.00,0.0069
604.00,0.0069
603.00,0.0070
602.00,0.0070
601.00,0.0070
600.00,0.0070
599.00,0.0072
598.00,0.0074
597.00,0.0075
596.00,0.0073
595.00,0.0070
594.00,0.0069
593.00,0.0070
592.00,0.0073
591.00,0.0075
590.00,0.0076
589.00,0.0077
588.00,0.0079
587.00,0.0079
586.00,0.0079
585.00,0.0079
584.00,0.0079
583.00,0.0079
582.00,0.0079
581.00,0.0076
580.00,0.0074
579.00,0.0073
578.00,0.0072
577.00,0.0072
576.00,0.0070
575.00,0.0070
574.00,0.0072
573.00,0.0076
572.00,0.0079
571.00,0.0079
570.00,0.0076
569.00,0.0071
568.00,0.0067
567.00,0.0064
566.00,0.0063
565.00,0.0065
564.00,0.0068
563.00,0.0072
562.00,0.0075
561.00,0.0076
560.00,0.0076
559.00,0.0076
558.00,0.0077
557.00,0.0079
556.00,0.0080
555.00,0.0080
554.00,0.0079
553.00,0.0077
552.00,0.0075
551.00,0.0074
550.00,0.0074
549.00,0.0074
548.00,0.0076
547.00,0.0079
546.00,0.0082
545.00,0.0085
544.00,0.0086
543.00,0.0085
542.00,0.0084
541.00,0.0083
540.00,0.0082
539.00,0.0082
538.00,0.0083
537.00,0.0084
536.00,0.0087
535.00,0.0090
534.00,0.0092
533.00,0.0093
532.00,0.0094
531.00,0.0095
530.00,0.0094
529.00,0.0094
528.00,0.0095
527.00,0.0097
526.00,0.0098
525.00,0.0096
524.00,0.0094
523.00,0.0094
522.00,0.0095
521.00,0.0097
520.00,0.0099
519.00,0.0098
518.00,0.0095
517.00,0.0092
516.00,0.0089
515.00,0.0085
514.00,0.0080
513.00,0.0075
512.00,0.0074
511.00,0.0077
510.00,0.0080
509.00,0.0080
508.00,0.0077
507.00,0.0075
506.00,0.0074
505.00,0.0070
504.00,0.0063
503.00,0.0057
502.00,0.0057
501.00,0.0060
500.00,0.0063
499.00,0.0064
498.00,0.0066
497.00,0.0069
496.00,0.0072
495.00,0.0073
494.00,0.0072
493.00,0.0070
492.00,0.0069
491.00,0.0071
490.00,0.0073
489.00,0.0072
488.00,0.0067
487.00,0.0062
486.00,0.0060
485.00,0.0062
484.00,0.0066
483.00,0.0068
482.00,0.0068
481.00,0.0067
480.00,0.0068
479.00,0.0074
478.00,0.0084
477.00,0.0095
476.00,0.0101
475.00,0.0102
474.00,0.0100
473.00,0.0101
472.00,0.0102
471.00,0.0099
470.00,0.0094
469.00,0.0090
468.00,0.0093
467.00,0.0101
466.00,0.0111
465.00,0.0122
464.00,0.0132
463.00,0.0141
462.00,0.0148
461.00,0.0155
460.00,0.0162
459.00,0.0168
458.00,0.0165
457.00,0.0155
456.00,0.0144
455.00,0.0138
454.00,0.0138
453.00,0.0140
452.00,0.0140
451.00,0.0133
450.00,0.0120
