Created as New Dataset,Sample 138 By Administrator Date Wednesday, September 10 2025
cm-1,A
4000.00,0.0008
3999.00,0.0008
3998.00,0.0008
3997.00,0.0008
3996.00,0.0008
3995.00,0.0008
3994.00,0.0009
3993.00,0.0009
3992.00,0.0008
3991.00,0.0008
3990.00,0.0008
3989.00,0.0008
3988.00,0.0008
3987.00,0.0008
3986.00,0.0007
3985.00,0.0007
3984.00,0.0007
3983.00,0.0007
3982.00,0.0007
3981.00,0.0007
3980.00,0.0007
3979.00,0.0007
3978.00,0.0007
3977.00,0.0007
3976.00,0.0007
3975.00,0.0006
3974.00,0.0006
3973.00,0.0006
3972.00,0.0006
3971.00,0.0006
3970.00,0.0007
3969.00,0.0007
3968.00,0.0007
3967.00,0.0007
3966.00,0.0007
3965.00,0.0007
3964.00,0.0007
3963.00,0.0007
3962.00,0.0007
3961.00,0.0007
3960.00,0.0007
3959.00,0.0006
3958.00,0.0006
3957.00,0.0006
3956.00,0.0006
3955.00,0.0007
3954.00,0.0007
3953.00,0.0007
3952.00,0.0007
3951.00,0.0006
3950.00,0.0006
3949.00,0.0006
3948.00,0.0005
3947.00,0.0005
3946.00,0.0006
3945.00,0.0006
3944.00,0.0006
3943.00,0.0006
3942.00,0.0007
3941.00,0.0007
3940.00,0.0007
3939.00,0.0007
3938.00,0.0007
3937.00,0.0007
3936.00,0.0007
3935.00,0.0007
3934.00,0.0007
3933.00,0.0007
3932.00,0.0007
3931.00,0.0006
3930.00,0.0006
3929.00,0.0007
3928.00,0.0007
3927.00,0.0007
3926.00,0.0007
3925.00,0.0007
3924.00,0.0007
3923.00,0.0008
3922.00,0.0008
3921.00,0.0008
3920.00,0.0008
3919.00,0.0008
3918.00,0.0007
3917.00,0.0007
3916.00,0.0007
3915.00,0.0007
3914.00,0.0007
3913.00,0.0007
3912.00,0.0007
3911.00,0.0007
3910.00,0.0007
3909.00,0.0007
3908.00,0.0007
3907.00,0.0007
3906.00,0.0007
3905.00,0.0007
3904.00,0.0007
3903.00,0.0007
3902.00,0.0007
3901.00,0.0006
3900.00,0.0006
3899.00,0.0006
3898.00,0.0006
3897.00,0.0006
3896.00,0.0006
3895.00,0.0006
3894.00,0.0006
3893.00,0.0006
3892.00,0.0007
3891.00,0.0007
3890.00,0.0007
3889.00,0.0007
3888.00,0.0008
3887.00,0.0007
3886.00,0.0007
3885.00,0.0007
3884.00,0.0006
3883.00,0.0006
3882.00,0.0006
3881.00,0.0006
3880.00,0.0006
3879.00,0.0006
3878.00,0.0006
3877.00,0.0006
3876.00,0.0006
3875.00,0.0007
3874.00,0.0007
3873.00,0.0008
3872.00,0.0007
3871.00,0.0007
3870.00,0.0006
3869.00,0.0006
3868.00,0.0006
3867.00,0.0006
3866.00,0.0006
3865.00,0.0006
3864.00,0.0006
3863.00,0.0007
3862.00,0.0007
3861.00,0.0007
3860.00,0.0007
3859.00,0.0007
3858.00,0.0006
3857.00,0.0006
3856.00,0.0006
3855.00,0.0006
3854.00,0.0006
3853.00,0.0006
3852.00,0.0006
3851.00,0.0007
3850.00,0.0006
3849.00,0.0006
3848.00,0.0006
3847.00,0.0006
3846.00,0.0006
3845.00,0.0006
3844.00,0.0006
3843.00,0.0006
3842.00,0.0006
3841.00,0.0006
3840.00,0.0006
3839.00,0.0007
3838.00,0.0007
3837.00,0.0006
3836.00,0.0006
3835.00,0.0006
3834.00,0.0006
3833.00,0.0005
3832.00,0.0006
3831.00,0.0006
3830.00,0.0006
3829.00,0.0006
3828.00,0.0006
3827.00,0.0007
3826.00,0.0007
3825.00,0.0007
3824.00,0.0007
3823.00,0.0007
3822.00,0.0006
3821.00,0.0006
3820.00,0.0006
3819.00,0.0006
3818.00,0.0006
3817.00,0.0006
3816.00,0.0007
3815.00,0.0007
3814.00,0.0007
3813.00,0.0007
3812.00,0.0006
3811.00,0.0006
3810.00,0.0006
3809.00,0.0007
3808.00,0.0007
3807.00,0.0007
3806.00,0.0008
3805.00,0.0008
3804.00,0.0008
3803.00,0.0008
3802.00,0.0008
3801.00,0.0008
3800.00,0.0008
3799.00,0.0007
3798.00,0.0007
3797.00,0.0006
3796.00,0.0006
3795.00,0.0006
3794.00,0.0006
3793.00,0.0007
3792.00,0.0007
3791.00,0.0006
3790.00,0.0006
3789.00,0.0006
3788.00,0.0005
3787.00,0.0005
3786.00,0.0006
3785.00,0.0006
3784.00,0.0006
3783.00,0.0006
3782.00,0.0006
3781.00,0.0006
3780.00,0.0006
3779.00,0.0007
3778.00,0.0007
3777.00,0.0007
3776.00,0.0007
3775.00,0.0007
3774.00,0.0008
3773.00,0.0008
3772.00,0.0008
3771.00,0.0008
3770.00,0.0008
3769.00,0.0008
3768.00,0.0008
3767.00,0.0008
3766.00,0.0008
3765.00,0.0008
3764.00,0.0008
3763.00,0.0008
3762.00,0.0008
3761.00,0.0008
3760.00,0.0008
3759.00,0.0008
3758.00,0.0008
3757.00,0.0008
3756.00,0.0008
3755.00,0.0008
3754.00,0.0008
3753.00,0.0008
3752.00,0.0008
3751.00,0.0007
3750.00,0.0007
3749.00,0.0006
3748.00,0.0006
3747.00,0.0006
3746.00,0.0006
3745.00,0.0006
3744.00,0.0006
3743.00,0.0006
3742.00,0.0006
3741.00,0.0005
3740.00,0.0005
3739.00,0.0005
3738.00,0.0005
3737.00,0.0005
3736.00,0.0004
3735.00,0.0004
3734.00,0.0004
3733.00,0.0005
3732.00,0.0005
3731.00,0.0005
3730.00,0.0005
3729.00,0.0005
3728.00,0.0005
3727.00,0.0004
3726.00,0.0004
3725.00,0.0004
3724.00,0.0004
3723.00,0.0004
3722.00,0.0004
3721.00,0.0004
3720.00,0.0005
3719.00,0.0005
3718.00,0.0005
3717.00,0.0005
3716.00,0.0005
3715.00,0.0004
3714.00,0.0004
3713.00,0.0004
3712.00,0.0003
3711.00,0.0003
3710.00,0.0003
3709.00,0.0003
3708.00,0.0003
3707.00,0.0003
3706.00,0.0003
3705.00,0.0003
3704.00,0.0003
3703.00,0.0003
3702.00,0.0003
3701.00,0.0003
3700.00,0.0004
3699.00,0.0004
3698.00,0.0004
3697.00,0.0003
3696.00,0.0004
3695.00,0.0004
3694.00,0.0004
3693.00,0.0004
3692.00,0.0005
3691.00,0.0005
3690.00,0.0005
3689.00,0.0005
3688.00,0.0005
3687.00,0.0005
3686.00,0.0004
3685.00,0.0004
3684.00,0.0004
3683.00,0.0004
3682.00,0.0004
3681.00,0.0005
3680.00,0.0005
3679.00,0.0005
3678.00,0.0005
3677.00,0.0004
3676.00,0.0004
3675.00,0.0004
3674.00,0.0005
3673.00,0.0005
3672.00,0.0004
3671.00,0.0004
3670.00,0.0003
3669.00,0.0003
3668.00,0.0003
3667.00,0.0003
3666.00,0.0004
3665.00,0.0004
3664.00,0.0004
3663.00,0.0004
3662.00,0.0004
3661.00,0.0004
3660.00,0.0004
3659.00,0.0004
3658.00,0.0004
3657.00,0.0003
3656.00,0.0003
3655.00,0.0003
3654.00,0.0003
3653.00,0.0004
3652.00,0.0004
3651.00,0.0005
3650.00,0.0005
3649.00,0.0006
3648.00,0.0006
3647.00,0.0006
3646.00,0.0005
3645.00,0.0005
3644.00,0.0005
3643.00,0.0005
3642.00,0.0005
3641.00,0.0005
3640.00,0.0005
3639.00,0.0005
3638.00,0.0005
3637.00,0.0004
3636.00,0.0004
3635.00,0.0004
3634.00,0.0004
3633.00,0.0005
3632.00,0.0005
3631.00,0.0005
3630.00,0.0005
3629.00,0.0005
3628.00,0.0005
3627.00,0.0004
3626.00,0.0004
3625.00,0.0004
3624.00,0.0003
3623.00,0.0003
3622.00,0.0004
3621.00,0.0004
3620.00,0.0004
3619.00,0.0004
3618.00,0.0004
3617.00,0.0004
3616.00,0.0005
3615.00,0.0005
3614.00,0.0005
3613.00,0.0005
3612.00,0.0005
3611.00,0.0005
3610.00,0.0005
3609.00,0.0005
3608.00,0.0005
3607.00,0.0005
3606.00,0.0005
3605.00,0.0005
3604.00,0.0005
3603.00,0.0005
3602.00,0.0005
3601.00,0.0005
3600.00,0.0005
3599.00,0.0006
3598.00,0.0006
3597.00,0.0006
3596.00,0.0006
3595.00,0.0006
3594.00,0.0005
3593.00,0.0005
3592.00,0.0005
3591.00,0.0006
3590.00,0.0007
3589.00,0.0008
3588.00,0.0008
3587.00,0.0008
3586.00,0.0008
3585.00,0.0008
3584.00,0.0008
3583.00,0.0008
3582.00,0.0007
3581.00,0.0007
3580.00,0.0007
3579.00,0.0007
3578.00,0.0008
3577.00,0.0008
3576.00,0.0008
3575.00,0.0009
3574.00,0.0008
3573.00,0.0008
3572.00,0.0008
3571.00,0.0008
3570.00,0.0008
3569.00,0.0009
3568.00,0.0009
3567.00,0.0010
3566.00,0.0010
3565.00,0.0010
3564.00,0.0010
3563.00,0.0010
3562.00,0.0010
3561.00,0.0010
3560.00,0.0010
3559.00,0.0011
3558.00,0.0011
3557.00,0.0011
3556.00,0.0012
3555.00,0.0012
3554.00,0.0012
3553.00,0.0012
3552.00,0.0012
3551.00,0.0012
3550.00,0.0012
3549.00,0.0012
3548.00,0.0013
3547.00,0.0013
3546.00,0.0013
3545.00,0.0013
3544.00,0.0013
3543.00,0.0013
3542.00,0.0013
3541.00,0.0014
3540.00,0.0014
3539.00,0.0014
3538.00,0.0014
3537.00,0.0014
3536.00,0.0014
3535.00,0.0014
3534.00,0.0014
3533.00,0.0014
3532.00,0.0014
3531.00,0.0014
3530.00,0.0014
3529.00,0.0014
3528.00,0.0014
3527.00,0.0015
3526.00,0.0015
3525.00,0.0016
3524.00,0.0016
3523.00,0.0016
3522.00,0.0017
3521.00,0.0017
3520.00,0.0017
3519.00,0.0017
3518.00,0.0018
3517.00,0.0018
3516.00,0.0018
3515.00,0.0018
3514.00,0.0018
3513.00,0.0018
3512.00,0.0018
3511.00,0.0018
3510.00,0.0018
3509.00,0.0019
3508.00,0.0019
3507.00,0.0019
3506.00,0.0020
3505.00,0.0020
3504.00,0.0020
3503.00,0.0020
3502.00,0.0019
3501.00,0.0019
3500.00,0.0019
3499.00,0.0019
3498.00,0.0020
3497.00,0.0020
3496.00,0.0020
3495.00,0.0020
3494.00,0.0021
3493.00,0.0021
3492.00,0.0021
3491.00,0.0020
3490.00,0.0020
3489.00,0.0020
3488.00,0.0021
3487.00,0.0021
3486.00,0.0022
3485.00,0.0022
3484.00,0.0023
3483.00,0.0023
3482.00,0.0023
3481.00,0.0023
3480.00,0.0023
3479.00,0.0023
3478.00,0.0023
3477.00,0.0023
3476.00,0.0024
3475.00,0.0023
3474.00,0.0023
3473.00,0.0023
3472.00,0.0023
3471.00,0.0022
3470.00,0.0022
3469.00,0.0022
3468.00,0.0023
3467.00,0.0023
3466.00,0.0024
3465.00,0.0024
3464.00,0.0024
3463.00,0.0024
3462.00,0.0024
3461.00,0.0025
3460.00,0.0025
3459.00,0.0025
3458.00,0.0025
3457.00,0.0025
3456.00,0.0025
3455.00,0.0025
3454.00,0.0025
3453.00,0.0025
3452.00,0.0025
3451.00,0.0025
3450.00,0.0026
3449.00,0.0026
3448.00,0.0026
3447.00,0.0026
3446.00,0.0026
3445.00,0.0026
3444.00,0.0026
3443.00,0.0027
3442.00,0.0027
3441.00,0.0028
3440.00,0.0028
3439.00,0.0028
3438.00,0.0028
3437.00,0.0028
3436.00,0.0028
3435.00,0.0027
3434.00,0.0027
3433.00,0.0027
3432.00,0.0027
3431.00,0.0028
3430.00,0.0028
3429.00,0.0029
3428.00,0.0029
3427.00,0.0029
3426.00,0.0029
3425.00,0.0029
3424.00,0.0030
3423.00,0.0030
3422.00,0.0030
3421.00,0.0030
3420.00,0.0030
3419.00,0.0030
3418.00,0.0030
3417.00,0.0030
3416.00,0.0030
3415.00,0.0030
3414.00,0.0030
3413.00,0.0030
3412.00,0.0030
3411.00,0.0031
3410.00,0.0031
3409.00,0.0031
3408.00,0.0031
3407.00,0.0031
3406.00,0.0031
3405.00,0.0031
3404.00,0.0031
3403.00,0.0031
3402.00,0.0031
3401.00,0.0031
3400.00,0.0031
3399.00,0.0031
3398.00,0.0032
3397.00,0.0032
3396.00,0.0032
3395.00,0.0032
3394.00,0.0032
3393.00,0.0032
3392.00,0.0032
3391.00,0.0032
3390.00,0.0032
3389.00,0.0032
3388.00,0.0032
3387.00,0.0032
3386.00,0.0032
3385.00,0.0032
3384.00,0.0032
3383.00,0.0032
3382.00,0.0033
3381.00,0.0033
3380.00,0.0033
3379.00,0.0033
3378.00,0.0032
3377.00,0.0032
3376.00,0.0032
3375.00,0.0032
3374.00,0.0033
3373.00,0.0033
3372.00,0.0033
3371.00,0.0033
3370.00,0.0033
3369.00,0.0033
3368.00,0.0034
3367.00,0.0034
3366.00,0.0034
3365.00,0.0034
3364.00,0.0033
3363.00,0.0033
3362.00,0.0033
3361.00,0.0033
3360.00,0.0033
3359.00,0.0032
3358.00,0.0033
3357.00,0.0032
3356.00,0.0032
3355.00,0.0032
3354.00,0.0032
3353.00,0.0032
3352.00,0.0033
3351.00,0.0033
3350.00,0.0033
3349.00,0.0033
3348.00,0.0033
3347.00,0.0033
3346.00,0.0033
3345.00,0.0033
3344.00,0.0033
3343.00,0.0033
3342.00,0.0033
3341.00,0.0033
3340.00,0.0033
3339.00,0.0033
3338.00,0.0033
3337.00,0.0033
3336.00,0.0033
3335.00,0.0032
3334.00,0.0032
3333.00,0.0032
3332.00,0.0032
3331.00,0.0032
3330.00,0.0032
3329.00,0.0032
3328.00,0.0031
3327.00,0.0031
3326.00,0.0031
3325.00,0.0030
3324.00,0.0030
3323.00,0.0030
3322.00,0.0030
3321.00,0.0030
3320.00,0.0030
3319.00,0.0030
3318.00,0.0030
3317.00,0.0030
3316.00,0.0030
3315.00,0.0030
3314.00,0.0030
3313.00,0.0030
3312.00,0.0030
3311.00,0.0030
3310.00,0.0030
3309.00,0.0030
3308.00,0.0031
3307.00,0.0031
3306.00,0.0030
3305.00,0.0030
3304.00,0.0029
3303.00,0.0029
3302.00,0.0029
3301.00,0.0030
3300.00,0.0030
3299.00,0.0031
3298.00,0.0031
3297.00,0.0031
3296.00,0.0031
3295.00,0.0030
3294.00,0.0030
3293.00,0.0030
3292.00,0.0029
3291.00,0.0029
3290.00,0.0029
3289.00,0.0029
3288.00,0.0029
3287.00,0.0029
3286.00,0.0029
3285.00,0.0029
3284.00,0.0029
3283.00,0.0029
3282.00,0.0029
3281.00,0.0028
3280.00,0.0028
3279.00,0.0029
3278.00,0.0029
3277.00,0.0029
3276.00,0.0029
3275.00,0.0028
3274.00,0.0028
3273.00,0.0028
3272.00,0.0028
3271.00,0.0029
3270.00,0.0029
3269.00,0.0029
3268.00,0.0029
3267.00,0.0029
3266.00,0.0028
3265.00,0.0028
3264.00,0.0028
3263.00,0.0027
3262.00,0.0027
3261.00,0.0028
3260.00,0.0028
3259.00,0.0028
3258.00,0.0028
3257.00,0.0028
3256.00,0.0028
3255.00,0.0028
3254.00,0.0028
3253.00,0.0028
3252.00,0.0027
3251.00,0.0027
3250.00,0.0026
3249.00,0.0026
3248.00,0.0026
3247.00,0.0026
3246.00,0.0026
3245.00,0.0027
3244.00,0.0027
3243.00,0.0027
3242.00,0.0027
3241.00,0.0027
3240.00,0.0026
3239.00,0.0026
3238.00,0.0026
3237.00,0.0026
3236.00,0.0026
3235.00,0.0026
3234.00,0.0027
3233.00,0.0027
3232.00,0.0028
3231.00,0.0028
3230.00,0.0028
3229.00,0.0028
3228.00,0.0028
3227.00,0.0028
3226.00,0.0028
3225.00,0.0029
3224.00,0.0029
3223.00,0.0029
3222.00,0.0029
3221.00,0.0029
3220.00,0.0029
3219.00,0.0029
3218.00,0.0029
3217.00,0.0030
3216.00,0.0030
3215.00,0.0030
3214.00,0.0030
3213.00,0.0030
3212.00,0.0030
3211.00,0.0031
3210.00,0.0031
3209.00,0.0031
3208.00,0.0032
3207.00,0.0032
3206.00,0.0032
3205.00,0.0032
3204.00,0.0032
3203.00,0.0031
3202.00,0.0031
3201.00,0.0032
3200.00,0.0032
3199.00,0.0032
3198.00,0.0033
3197.00,0.0033
3196.00,0.0033
3195.00,0.0033
3194.00,0.0033
3193.00,0.0033
3192.00,0.0033
3191.00,0.0033
3190.00,0.0032
3189.00,0.0032
3188.00,0.0031
3187.00,0.0031
3186.00,0.0031
3185.00,0.0031
3184.00,0.0031
3183.00,0.0031
3182.00,0.0031
3181.00,0.0031
3180.00,0.0030
3179.00,0.0030
3178.00,0.0029
3177.00,0.0029
3176.00,0.0029
3175.00,0.0029
3174.00,0.0029
3173.00,0.0030
3172.00,0.0030
3171.00,0.0030
3170.00,0.0029
3169.00,0.0029
3168.00,0.0029
3167.00,0.0029
3166.00,0.0029
3165.00,0.0028
3164.00,0.0029
3163.00,0.0029
3162.00,0.0029
3161.00,0.0029
3160.00,0.0029
3159.00,0.0029
3158.00,0.0029
3157.00,0.0029
3156.00,0.0029
3155.00,0.0029
3154.00,0.0028
3153.00,0.0028
3152.00,0.0028
3151.00,0.0028
3150.00,0.0028
3149.00,0.0028
3148.00,0.0028
3147.00,0.0028
3146.00,0.0028
3145.00,0.0028
3144.00,0.0028
3143.00,0.0028
3142.00,0.0028
3141.00,0.0028
3140.00,0.0027
3139.00,0.0027
3138.00,0.0027
3137.00,0.0027
3136.00,0.0027
3135.00,0.0026
3134.00,0.0026
3133.00,0.0026
3132.00,0.0026
3131.00,0.0025
3130.00,0.0025
3129.00,0.0025
3128.00,0.0025
3127.00,0.0025
3126.00,0.0026
3125.00,0.0026
3124.00,0.0025
3123.00,0.0025
3122.00,0.0024
3121.00,0.0024
3120.00,0.0024
3119.00,0.0023
3118.00,0.0023
3117.00,0.0023
3116.00,0.0023
3115.00,0.0022
3114.00,0.0022
3113.00,0.0022
3112.00,0.0022
3111.00,0.0022
3110.00,0.0022
3109.00,0.0022
3108.00,0.0022
3107.00,0.0022
3106.00,0.0022
3105.00,0.0022
3104.00,0.0023
3103.00,0.0022
3102.00,0.0022
3101.00,0.0022
3100.00,0.0022
3099.00,0.0022
3098.00,0.0022
3097.00,0.0022
3096.00,0.0022
3095.00,0.0022
3094.00,0.0022
3093.00,0.0022
3092.00,0.0022
3091.00,0.0022
3090.00,0.0022
3089.00,0.0022
3088.00,0.0022
3087.00,0.0022
3086.00,0.0022
3085.00,0.0022
3084.00,0.0022
3083.00,0.0022
3082.00,0.0022
3081.00,0.0022
3080.00,0.0022
3079.00,0.0022
3078.00,0.0022
3077.00,0.0022
3076.00,0.0022
3075.00,0.0022
3074.00,0.0022
3073.00,0.0023
3072.00,0.0023
3071.00,0.0023
3070.00,0.0023
3069.00,0.0023
3068.00,0.0023
3067.00,0.0023
3066.00,0.0023
3065.00,0.0023
3064.00,0.0024
3063.00,0.0024
3062.00,0.0024
3061.00,0.0024
3060.00,0.0024
3059.00,0.0024
3058.00,0.0024
3057.00,0.0024
3056.00,0.0024
3055.00,0.0024
3054.00,0.0025
3053.00,0.0025
3052.00,0.0025
3051.00,0.0026
3050.00,0.0026
3049.00,0.0027
3048.00,0.0027
3047.00,0.0027
3046.00,0.0027
3045.00,0.0027
3044.00,0.0027
3043.00,0.0028
3042.00,0.0028
3041.00,0.0029
3040.00,0.0029
3039.00,0.0029
3038.00,0.0029
3037.00,0.0029
3036.00,0.0030
3035.00,0.0030
3034.00,0.0030
3033.00,0.0031
3032.00,0.0032
3031.00,0.0032
3030.00,0.0033
3029.00,0.0034
3028.00,0.0034
3027.00,0.0034
3026.00,0.0035
3025.00,0.0035
3024.00,0.0036
3023.00,0.0036
3022.00,0.0037
3021.00,0.0037
3020.00,0.0038
3019.00,0.0039
3018.00,0.0040
3017.00,0.0042
3016.00,0.0043
3015.00,0.0044
3014.00,0.0044
3013.00,0.0045
3012.00,0.0046
3011.00,0.0047
3010.00,0.0049
3009.00,0.0051
3008.00,0.0053
3007.00,0.0055
3006.00,0.0057
3005.00,0.0059
3004.00,0.0061
3003.00,0.0063
3002.00,0.0066
3001.00,0.0068
3000.00,0.0071
2999.00,0.0075
2998.00,0.0078
2997.00,0.0081
2996.00,0.0085
2995.00,0.0090
2994.00,0.0094
2993.00,0.0100
2992.00,0.0105
2991.00,0.0112
2990.00,0.0119
2989.00,0.0127
2988.00,0.0136
2987.00,0.0146
2986.00,0.0157
2985.00,0.0169
2984.00,0.0182
2983.00,0.0197
2982.00,0.0214
2981.00,0.0233
2980.00,0.0254
2979.00,0.0278
2978.00,0.0306
2977.00,0.0339
2976.00,0.0377
2975.00,0.0420
2974.00,0.0469
2973.00,0.0524
2972.00,0.0587
2971.00,0.0657
2970.00,0.0736
2969.00,0.0823
2968.00,0.0920
2967.00,0.1026
2966.00,0.1140
2965.00,0.1261
2964.00,0.1386
2963.00,0.1510
2962.00,0.1627
2961.00,0.1732
2960.00,0.1818
2959.00,0.1885
2958.00,0.1931
2957.00,0.1961
2956.00,0.1981
2955.00,0.1998
2954.00,0.2014
2953.00,0.2031
2952.00,0.2043
2951.00,0.2043
2950.00,0.2023
2949.00,0.1976
2948.00,0.1899
2947.00,0.1794
2946.00,0.1669
2945.00,0.1535
2944.00,0.1406
2943.00,0.1291
2942.00,0.1197
2941.00,0.1128
2940.00,0.1084
2939.00,0.1063
2938.00,0.1062
2937.00,0.1080
2936.00,0.1115
2935.00,0.1164
2934.00,0.1227
2933.00,0.1300
2932.00,0.1383
2931.00,0.1473
2930.00,0.1568
2929.00,0.1663
2928.00,0.1756
2927.00,0.1844
2926.00,0.1927
2925.00,0.2004
2924.00,0.2077
2923.00,0.2147
2922.00,0.2215
2921.00,0.2279
2920.00,0.2337
2919.00,0.2383
2918.00,0.2409
2917.00,0.2413
2916.00,0.2391
2915.00,0.2347
2914.00,0.2287
2913.00,0.2217
2912.00,0.2147
2911.00,0.2080
2910.00,0.2019
2909.00,0.1964
2908.00,0.1912
2907.00,0.1861
2906.00,0.1807
2905.00,0.1749
2904.00,0.1687
2903.00,0.1621
2902.00,0.1552
2901.00,0.1483
2900.00,0.1415
2899.00,0.1350
2898.00,0.1289
2897.00,0.1234
2896.00,0.1185
2895.00,0.1142
2894.00,0.1107
2893.00,0.1079
2892.00,0.1058
2891.00,0.1044
2890.00,0.1035
2889.00,0.1030
2888.00,0.1029
2887.00,0.1032
2886.00,0.1039
2885.00,0.1049
2884.00,0.1063
2883.00,0.1080
2882.00,0.1101
2881.00,0.1122
2880.00,0.1142
2879.00,0.1159
2878.00,0.1168
2877.00,0.1170
2876.00,0.1165
2875.00,0.1157
2874.00,0.1150
2873.00,0.1148
2872.00,0.1153
2871.00,0.1165
2870.00,0.1181
2869.00,0.1197
2868.00,0.1205
2867.00,0.1199
2866.00,0.1172
2865.00,0.1122
2864.00,0.1052
2863.00,0.0969
2862.00,0.0884
2861.00,0.0805
2860.00,0.0738
2859.00,0.0684
2858.00,0.0645
2857.00,0.0617
2856.00,0.0599
2855.00,0.0589
2854.00,0.0587
2853.00,0.0592
2852.00,0.0603
2851.00,0.0621
2850.00,0.0644
2849.00,0.0674
2848.00,0.0711
2847.00,0.0756
2846.00,0.0810
2845.00,0.0874
2844.00,0.0945
2843.00,0.1024
2842.00,0.1104
2841.00,0.1179
2840.00,0.1241
2839.00,0.1282
2838.00,0.1290
2837.00,0.1263
2836.00,0.1199
2835.00,0.1105
2834.00,0.0993
2833.00,0.0876
2832.00,0.0764
2831.00,0.0664
2830.00,0.0580
2829.00,0.0511
2828.00,0.0455
2827.00,0.0410
2826.00,0.0374
2825.00,0.0344
2824.00,0.0318
2823.00,0.0297
2822.00,0.0279
2821.00,0.0263
2820.00,0.0250
2819.00,0.0238
2818.00,0.0227
2817.00,0.0218
2816.00,0.0210
2815.00,0.0204
2814.00,0.0197
2813.00,0.0191
2812.00,0.0186
2811.00,0.0181
2810.00,0.0175
2809.00,0.0170
2808.00,0.0164
2807.00,0.0158
2806.00,0.0152
2805.00,0.0146
2804.00,0.0139
2803.00,0.0134
2802.00,0.0128
2801.00,0.0124
2800.00,0.0120
2799.00,0.0117
2798.00,0.0114
2797.00,0.0111
2796.00,0.0109
2795.00,0.0107
2794.00,0.0105
2793.00,0.0102
2792.00,0.0099
2791.00,0.0095
2790.00,0.0092
2789.00,0.0088
2788.00,0.0084
2787.00,0.0081
2786.00,0.0078
2785.00,0.0075
2784.00,0.0072
2783.00,0.0070
2782.00,0.0067
2781.00,0.0065
2780.00,0.0063
2779.00,0.0061
2778.00,0.0060
2777.00,0.0059
2776.00,0.0057
2775.00,0.0056
2774.00,0.0055
2773.00,0.0055
2772.00,0.0054
2771.00,0.0054
2770.00,0.0054
2769.00,0.0053
2768.00,0.0053
2767.00,0.0052
2766.00,0.0052
2765.00,0.0052
2764.00,0.0052
2763.00,0.0051
2762.00,0.0051
2761.00,0.0051
2760.00,0.0050
2759.00,0.0050
2758.00,0.0050
2757.00,0.0050
2756.00,0.0050
2755.00,0.0049
2754.00,0.0049
2753.00,0.0049
2752.00,0.0049
2751.00,0.0049
2750.00,0.0048
2749.00,0.0049
2748.00,0.0049
2747.00,0.0049
2746.00,0.0050
2745.00,0.0051
2744.00,0.0051
2743.00,0.0052
2742.00,0.0053
2741.00,0.0054
2740.00,0.0055
2739.00,0.0056
2738.00,0.0058
2737.00,0.0059
2736.00,0.0061
2735.00,0.0062
2734.00,0.0064
2733.00,0.0065
2732.00,0.0067
2731.00,0.0069
2730.00,0.0071
2729.00,0.0073
2728.00,0.0076
2727.00,0.0079
2726.00,0.0082
2725.00,0.0084
2724.00,0.0085
2723.00,0.0085
2722.00,0.0085
2721.00,0.0083
2720.00,0.0080
2719.00,0.0077
2718.00,0.0074
2717.00,0.0071
2716.00,0.0068
2715.00,0.0065
2714.00,0.0063
2713.00,0.0061
2712.00,0.0059
2711.00,0.0057
2710.00,0.0056
2709.00,0.0054
2708.00,0.0053
2707.00,0.0052
2706.00,0.0051
2705.00,0.0049
2704.00,0.0048
2703.00,0.0047
2702.00,0.0046
2701.00,0.0045
2700.00,0.0045
2699.00,0.0044
2698.00,0.0044
2697.00,0.0043
2696.00,0.0043
2695.00,0.0043
2694.00,0.0043
2693.00,0.0044
2692.00,0.0044
2691.00,0.0044
2690.00,0.0044
2689.00,0.0043
2688.00,0.0043
2687.00,0.0043
2686.00,0.0043
2685.00,0.0043
2684.00,0.0043
2683.00,0.0043
2682.00,0.0043
2681.00,0.0043
2680.00,0.0043
2679.00,0.0043
2678.00,0.0044
2677.00,0.0044
2676.00,0.0044
2675.00,0.0043
2674.00,0.0043
2673.00,0.0043
2672.00,0.0042
2671.00,0.0042
2670.00,0.0042
2669.00,0.0042
2668.00,0.0042
2667.00,0.0042
2666.00,0.0043
2665.00,0.0043
2664.00,0.0044
2663.00,0.0044
2662.00,0.0045
2661.00,0.0046
2660.00,0.0046
2659.00,0.0046
2658.00,0.0046
2657.00,0.0046
2656.00,0.0045
2655.00,0.0045
2654.00,0.0044
2653.00,0.0044
2652.00,0.0043
2651.00,0.0043
2650.00,0.0042
2649.00,0.0042
2648.00,0.0042
2647.00,0.0041
2646.00,0.0041
2645.00,0.0041
2644.00,0.0040
2643.00,0.0039
2642.00,0.0039
2641.00,0.0038
2640.00,0.0038
2639.00,0.0037
2638.00,0.0037
2637.00,0.0037
2636.00,0.0036
2635.00,0.0036
2634.00,0.0036
2633.00,0.0036
2632.00,0.0036
2631.00,0.0037
2630.00,0.0037
2629.00,0.0038
2628.00,0.0038
2627.00,0.0038
2626.00,0.0038
2625.00,0.0038
2624.00,0.0038
2623.00,0.0038
2622.00,0.0038
2621.00,0.0039
2620.00,0.0039
2619.00,0.0040
2618.00,0.0040
2617.00,0.0040
2616.00,0.0040
2615.00,0.0039
2614.00,0.0039
2613.00,0.0038
2612.00,0.0038
2611.00,0.0037
2610.00,0.0036
2609.00,0.0035
2608.00,0.0034
2607.00,0.0034
2606.00,0.0033
2605.00,0.0032
2604.00,0.0031
2603.00,0.0030
2602.00,0.0030
2601.00,0.0030
2600.00,0.0029
2599.00,0.0029
2598.00,0.0029
2597.00,0.0029
2596.00,0.0029
2595.00,0.0030
2594.00,0.0030
2593.00,0.0030
2592.00,0.0030
2591.00,0.0031
2590.00,0.0032
2589.00,0.0033
2588.00,0.0035
2587.00,0.0036
2586.00,0.0037
2585.00,0.0037
2584.00,0.0037
2583.00,0.0037
2582.00,0.0037
2581.00,0.0037
2580.00,0.0036
2579.00,0.0036
2578.00,0.0035
2577.00,0.0034
2576.00,0.0033
2575.00,0.0032
2574.00,0.0031
2573.00,0.0030
2572.00,0.0029
2571.00,0.0028
2570.00,0.0028
2569.00,0.0027
2568.00,0.0026
2567.00,0.0026
2566.00,0.0025
2565.00,0.0024
2564.00,0.0023
2563.00,0.0023
2562.00,0.0022
2561.00,0.0022
2560.00,0.0022
2559.00,0.0021
2558.00,0.0021
2557.00,0.0020
2556.00,0.0020
2555.00,0.0020
2554.00,0.0020
2553.00,0.0020
2552.00,0.0020
2551.00,0.0020
2550.00,0.0020
2549.00,0.0020
2548.00,0.0019
2547.00,0.0019
2546.00,0.0019
2545.00,0.0018
2544.00,0.0018
2543.00,0.0017
2542.00,0.0017
2541.00,0.0017
2540.00,0.0017
2539.00,0.0017
2538.00,0.0017
2537.00,0.0016
2536.00,0.0015
2535.00,0.0014
2534.00,0.0014
2533.00,0.0013
2532.00,0.0012
2531.00,0.0012
2530.00,0.0012
2529.00,0.0013
2528.00,0.0013
2527.00,0.0013
2526.00,0.0013
2525.00,0.0013
2524.00,0.0012
2523.00,0.0012
2522.00,0.0012
2521.00,0.0012
2520.00,0.0012
2519.00,0.0011
2518.00,0.0011
2517.00,0.0010
2516.00,0.0010
2515.00,0.0009
2514.00,0.0009
2513.00,0.0008
2512.00,0.0008
2511.00,0.0009
2510.00,0.0009
2509.00,0.0009
2508.00,0.0009
2507.00,0.0009
2506.00,0.0008
2505.00,0.0008
2504.00,0.0008
2503.00,0.0009
2502.00,0.0009
2501.00,0.0009
2500.00,0.0008
2499.00,0.0008
2498.00,0.0008
2497.00,0.0009
2496.00,0.0009
2495.00,0.0009
2494.00,0.0009
2493.00,0.0008
2492.00,0.0008
2491.00,0.0008
2490.00,0.0008
2489.00,0.0008
2488.00,0.0009
2487.00,0.0009
2486.00,0.0010
2485.00,0.0010
2484.00,0.0009
2483.00,0.0009
2482.00,0.0008
2481.00,0.0008
2480.00,0.0007
2479.00,0.0007
2478.00,0.0007
2477.00,0.0007
2476.00,0.0007
2475.00,0.0008
2474.00,0.0008
2473.00,0.0008
2472.00,0.0008
2471.00,0.0008
2470.00,0.0008
2469.00,0.0008
2468.00,0.0008
2467.00,0.0008
2466.00,0.0007
2465.00,0.0007
2464.00,0.0007
2463.00,0.0008
2462.00,0.0008
2461.00,0.0008
2460.00,0.0009
2459.00,0.0009
2458.00,0.0009
2457.00,0.0010
2456.00,0.0010
2455.00,0.0010
2454.00,0.0009
2453.00,0.0009
2452.00,0.0009
2451.00,0.0010
2450.00,0.0010
2449.00,0.0010
2448.00,0.0010
2447.00,0.0009
2446.00,0.0009
2445.00,0.0008
2444.00,0.0008
2443.00,0.0008
2442.00,0.0009
2441.00,0.0009
2440.00,0.0010
2439.00,0.0011
2438.00,0.0011
2437.00,0.0011
2436.00,0.0011
2435.00,0.0010
2434.00,0.0009
2433.00,0.0009
2432.00,0.0009
2431.00,0.0009
2430.00,0.0009
2429.00,0.0009
2428.00,0.0009
2427.00,0.0009
2426.00,0.0009
2425.00,0.0009
2424.00,0.0009
2423.00,0.0009
2422.00,0.0009
2421.00,0.0009
2420.00,0.0009
2419.00,0.0008
2418.00,0.0008
2417.00,0.0009
2416.00,0.0009
2415.00,0.0010
2414.00,0.0010
2413.00,0.0010
2412.00,0.0010
2411.00,0.0010
2410.00,0.0010
2409.00,0.0009
2408.00,0.0009
2407.00,0.0008
2406.00,0.0007
2405.00,0.0006
2404.00,0.0006
2403.00,0.0006
2402.00,0.0006
2401.00,0.0006
2400.00,0.0007
2399.00,0.0007
2398.00,0.0008
2397.00,0.0008
2396.00,0.0008
2395.00,0.0008
2394.00,0.0007
2393.00,0.0006
2392.00,0.0006
2391.00,0.0006
2390.00,0.0007
2389.00,0.0007
2388.00,0.0006
2387.00,0.0006
2386.00,0.0006
2385.00,0.0006
2384.00,0.0005
2383.00,0.0004
2382.00,0.0002
2381.00,0.0001
2380.00,-0.0001
2379.00,-0.0002
2378.00,-0.0002
2377.00,-0.0001
2376.00,-0.0000
2375.00,0.0001
2374.00,0.0001
2373.00,0.0001
2372.00,0.0001
2371.00,0.0001
2370.00,0.0000
2369.00,0.0000
2368.00,0.0000
2367.00,-0.0000
2366.00,-0.0000
2365.00,-0.0000
2364.00,-0.0000
2363.00,0.0000
2362.00,0.0000
2361.00,-0.0000
2360.00,-0.0001
2359.00,-0.0001
2358.00,-0.0001
2357.00,-0.0000
2356.00,0.0000
2355.00,0.0001
2354.00,0.0001
2353.00,0.0002
2352.00,0.0001
2351.00,0.0001
2350.00,0.0000
2349.00,0.0000
2348.00,0.0001
2347.00,0.0001
2346.00,0.0001
2345.00,0.0001
2344.00,0.0001
2343.00,0.0001
2342.00,0.0002
2341.00,0.0002
2340.00,0.0003
2339.00,0.0004
2338.00,0.0004
2337.00,0.0004
2336.00,0.0004
2335.00,0.0004
2334.00,0.0004
2333.00,0.0004
2332.00,0.0004
2331.00,0.0003
2330.00,0.0003
2329.00,0.0003
2328.00,0.0005
2327.00,0.0008
2326.00,0.0013
2325.00,0.0016
2324.00,0.0018
2323.00,0.0017
2322.00,0.0014
2321.00,0.0012
2320.00,0.0010
2319.00,0.0008
2318.00,0.0007
2317.00,0.0007
2316.00,0.0007
2315.00,0.0006
2314.00,0.0006
2313.00,0.0005
2312.00,0.0005
2311.00,0.0004
2310.00,0.0004
2309.00,0.0003
2308.00,0.0003
2307.00,0.0003
2306.00,0.0004
2305.00,0.0005
2304.00,0.0006
2303.00,0.0006
2302.00,0.0005
2301.00,0.0005
2300.00,0.0005
2299.00,0.0006
2298.00,0.0007
2297.00,0.0008
2296.00,0.0009
2295.00,0.0009
2294.00,0.0010
2293.00,0.0012
2292.00,0.0013
2291.00,0.0014
2290.00,0.0015
2289.00,0.0015
2288.00,0.0015
2287.00,0.0015
2286.00,0.0015
2285.00,0.0016
2284.00,0.0016
2283.00,0.0016
2282.00,0.0016
2281.00,0.0015
2280.00,0.0015
2279.00,0.0014
2278.00,0.0013
2277.00,0.0012
2276.00,0.0010
2275.00,0.0009
2274.00,0.0009
2273.00,0.0010
2272.00,0.0011
2271.00,0.0011
2270.00,0.0011
2269.00,0.0010
2268.00,0.0010
2267.00,0.0009
2266.00,0.0010
2265.00,0.0011
2264.00,0.0011
2263.00,0.0011
2262.00,0.0010
2261.00,0.0010
2260.00,0.0010
2259.00,0.0010
2258.00,0.0009
2257.00,0.0009
2256.00,0.0007
2255.00,0.0006
2254.00,0.0005
2253.00,0.0005
2252.00,0.0006
2251.00,0.0007
2250.00,0.0008
2249.00,0.0010
2248.00,0.0011
2247.00,0.0011
2246.00,0.0010
2245.00,0.0009
2244.00,0.0009
2243.00,0.0008
2242.00,0.0008
2241.00,0.0008
2240.00,0.0007
2239.00,0.0007
2238.00,0.0007
2237.00,0.0008
2236.00,0.0010
2235.00,0.0011
2234.00,0.0011
2233.00,0.0011
2232.00,0.0010
2231.00,0.0009
2230.00,0.0008
2229.00,0.0007
2228.00,0.0008
2227.00,0.0008
2226.00,0.0009
2225.00,0.0008
2224.00,0.0007
2223.00,0.0005
2222.00,0.0004
2221.00,0.0003
2220.00,0.0002
2219.00,0.0001
2218.00,0.0001
2217.00,0.0001
2216.00,0.0002
2215.00,0.0003
2214.00,0.0004
2213.00,0.0005
2212.00,0.0006
2211.00,0.0007
2210.00,0.0006
2209.00,0.0005
2208.00,0.0005
2207.00,0.0005
2206.00,0.0005
2205.00,0.0004
2204.00,0.0004
2203.00,0.0003
2202.00,0.0004
2201.00,0.0005
2200.00,0.0005
2199.00,0.0005
2198.00,0.0004
2197.00,0.0005
2196.00,0.0006
2195.00,0.0008
2194.00,0.0010
2193.00,0.0012
2192.00,0.0014
2191.00,0.0015
2190.00,0.0016
2189.00,0.0015
2188.00,0.0013
2187.00,0.0010
2186.00,0.0008
2185.00,0.0007
2184.00,0.0007
2183.00,0.0005
2182.00,0.0001
2181.00,-0.0002
2180.00,-0.0002
2179.00,0.0001
2178.00,0.0005
2177.00,0.0007
2176.00,0.0006
2175.00,0.0005
2174.00,0.0004
2173.00,0.0006
2172.00,0.0008
2171.00,0.0010
2170.00,0.0011
2169.00,0.0011
2168.00,0.0012
2167.00,0.0014
2166.00,0.0015
2165.00,0.0017
2164.00,0.0018
2163.00,0.0019
2162.00,0.0016
2161.00,0.0009
2160.00,-0.0003
2159.00,-0.0017
2158.00,-0.0028
2157.00,-0.0032
2156.00,-0.0031
2155.00,-0.0027
2154.00,-0.0023
2153.00,-0.0021
2152.00,-0.0020
2151.00,-0.0019
2150.00,-0.0018
2149.00,-0.0018
2148.00,-0.0018
2147.00,-0.0017
2146.00,-0.0016
2145.00,-0.0014
2144.00,-0.0013
2143.00,-0.0012
2142.00,-0.0013
2141.00,-0.0014
2140.00,-0.0013
2139.00,-0.0013
2138.00,-0.0012
2137.00,-0.0012
2136.00,-0.0013
2135.00,-0.0016
2134.00,-0.0017
2133.00,-0.0016
2132.00,-0.0015
2131.00,-0.0013
2130.00,-0.0011
2129.00,-0.0011
2128.00,-0.0010
2127.00,-0.0009
2126.00,-0.0008
2125.00,-0.0007
2124.00,-0.0008
2123.00,-0.0009
2122.00,-0.0010
2121.00,-0.0010
2120.00,-0.0008
2119.00,-0.0006
2118.00,-0.0005
2117.00,-0.0003
2116.00,-0.0002
2115.00,-0.0000
2114.00,0.0001
2113.00,0.0001
2112.00,0.0000
2111.00,-0.0001
2110.00,-0.0003
2109.00,-0.0003
2108.00,-0.0004
2107.00,-0.0004
2106.00,-0.0004
2105.00,-0.0003
2104.00,-0.0001
2103.00,0.0000
2102.00,0.0001
2101.00,0.0001
2100.00,0.0001
2099.00,-0.0000
2098.00,-0.0002
2097.00,-0.0003
2096.00,-0.0005
2095.00,-0.0006
2094.00,-0.0007
2093.00,-0.0006
2092.00,-0.0005
2091.00,-0.0003
2090.00,-0.0001
2089.00,0.0000
2088.00,0.0001
2087.00,0.0001
2086.00,0.0000
2085.00,-0.0000
2084.00,0.0000
2083.00,0.0001
2082.00,0.0003
2081.00,0.0003
2080.00,0.0002
2079.00,0.0001
2078.00,-0.0001
2077.00,-0.0001
2076.00,-0.0001
2075.00,-0.0002
2074.00,-0.0003
2073.00,-0.0003
2072.00,-0.0001
2071.00,-0.0000
2070.00,0.0001
2069.00,-0.0000
2068.00,-0.0002
2067.00,-0.0003
2066.00,-0.0002
2065.00,-0.0001
2064.00,-0.0001
2063.00,-0.0003
2062.00,-0.0005
2061.00,-0.0006
2060.00,-0.0006
2059.00,-0.0005
2058.00,-0.0002
2057.00,0.0000
2056.00,0.0003
2055.00,0.0004
2054.00,0.0005
2053.00,0.0008
2052.00,0.0012
2051.00,0.0015
2050.00,0.0015
2049.00,0.0011
2048.00,0.0007
2047.00,0.0004
2046.00,0.0003
2045.00,0.0002
2044.00,0.0002
2043.00,0.0002
2042.00,0.0001
2041.00,-0.0000
2040.00,-0.0002
2039.00,-0.0003
2038.00,-0.0005
2037.00,-0.0006
2036.00,-0.0007
2035.00,-0.0007
2034.00,-0.0008
2033.00,-0.0009
2032.00,-0.0010
2031.00,-0.0011
2030.00,-0.0010
2029.00,-0.0008
2028.00,-0.0007
2027.00,-0.0008
2026.00,-0.0011
2025.00,-0.0014
2024.00,-0.0015
2023.00,-0.0016
2022.00,-0.0016
2021.00,-0.0015
2020.00,-0.0013
2019.00,-0.0011
2018.00,-0.0009
2017.00,-0.0008
2016.00,-0.0009
2015.00,-0.0010
2014.00,-0.0012
2013.00,-0.0012
2012.00,-0.0010
2011.00,-0.0009
2010.00,-0.0009
2009.00,-0.0010
2008.00,-0.0012
2007.00,-0.0015
2006.00,-0.0016
2005.00,-0.0016
2004.00,-0.0015
2003.00,-0.0014
2002.00,-0.0015
2001.00,-0.0015
2000.00,-0.0015
1999.00,-0.0015
1998.00,-0.0015
1997.00,-0.0014
1996.00,-0.0012
1995.00,-0.0012
1994.00,-0.0013
1993.00,-0.0013
1992.00,-0.0011
1991.00,-0.0008
1990.00,-0.0005
1989.00,-0.0001
1988.00,0.0001
1987.00,0.0000
1986.00,-0.0003
1985.00,-0.0006
1984.00,-0.0006
1983.00,-0.0004
1982.00,-0.0000
1981.00,0.0003
1980.00,0.0003
1979.00,-0.0001
1978.00,-0.0008
1977.00,-0.0017
1976.00,-0.0024
1975.00,-0.0029
1974.00,-0.0030
1973.00,-0.0029
1972.00,-0.0026
1971.00,-0.0022
1970.00,-0.0019
1969.00,-0.0018
1968.00,-0.0017
1967.00,-0.0015
1966.00,-0.0013
1965.00,-0.0011
1964.00,-0.0010
1963.00,-0.0010
1962.00,-0.0013
1961.00,-0.0015
1960.00,-0.0016
1959.00,-0.0017
1958.00,-0.0018
1957.00,-0.0017
1956.00,-0.0016
1955.00,-0.0015
1954.00,-0.0016
1953.00,-0.0017
1952.00,-0.0020
1951.00,-0.0023
1950.00,-0.0024
1949.00,-0.0023
1948.00,-0.0021
1947.00,-0.0019
1946.00,-0.0019
1945.00,-0.0019
1944.00,-0.0018
1943.00,-0.0016
1942.00,-0.0015
1941.00,-0.0013
1940.00,-0.0012
1939.00,-0.0013
1938.00,-0.0013
1937.00,-0.0014
1936.00,-0.0014
1935.00,-0.0013
1934.00,-0.0011
1933.00,-0.0011
1932.00,-0.0011
1931.00,-0.0011
1930.00,-0.0011
1929.00,-0.0011
1928.00,-0.0011
1927.00,-0.0010
1926.00,-0.0010
1925.00,-0.0010
1924.00,-0.0009
1923.00,-0.0009
1922.00,-0.0008
1921.00,-0.0006
1920.00,-0.0005
1919.00,-0.0004
1918.00,-0.0004
1917.00,-0.0004
1916.00,-0.0005
1915.00,-0.0005
1914.00,-0.0006
1913.00,-0.0006
1912.00,-0.0006
1911.00,-0.0005
1910.00,-0.0005
1909.00,-0.0004
1908.00,-0.0004
1907.00,-0.0004
1906.00,-0.0004
1905.00,-0.0003
1904.00,-0.0003
1903.00,-0.0003
1902.00,-0.0003
1901.00,-0.0003
1900.00,-0.0002
1899.00,-0.0002
1898.00,-0.0003
1897.00,-0.0003
1896.00,-0.0004
1895.00,-0.0005
1894.00,-0.0005
1893.00,-0.0005
1892.00,-0.0004
1891.00,-0.0003
1890.00,-0.0003
1889.00,-0.0003
1888.00,-0.0003
1887.00,-0.0003
1886.00,-0.0003
1885.00,-0.0002
1884.00,-0.0002
1883.00,-0.0002
1882.00,-0.0001
1881.00,-0.0001
1880.00,-0.0001
1879.00,-0.0002
1878.00,-0.0003
1877.00,-0.0004
1876.00,-0.0004
1875.00,-0.0004
1874.00,-0.0003
1873.00,-0.0003
1872.00,-0.0002
1871.00,-0.0002
1870.00,-0.0002
1869.00,-0.0002
1868.00,-0.0002
1867.00,-0.0002
1866.00,-0.0002
1865.00,-0.0001
1864.00,-0.0000
1863.00,-0.0000
1862.00,-0.0001
1861.00,-0.0001
1860.00,-0.0001
1859.00,-0.0001
1858.00,-0.0002
1857.00,-0.0003
1856.00,-0.0003
1855.00,-0.0003
1854.00,-0.0002
1853.00,-0.0002
1852.00,-0.0002
1851.00,-0.0002
1850.00,-0.0002
1849.00,-0.0002
1848.00,-0.0002
1847.00,-0.0002
1846.00,-0.0001
1845.00,-0.0000
1844.00,0.0001
1843.00,0.0001
1842.00,0.0001
1841.00,0.0001
1840.00,0.0000
1839.00,0.0000
1838.00,0.0000
1837.00,0.0001
1836.00,0.0001
1835.00,0.0002
1834.00,0.0003
1833.00,0.0004
1832.00,0.0004
1831.00,0.0004
1830.00,0.0004
1829.00,0.0003
1828.00,0.0002
1827.00,0.0001
1826.00,0.0000
1825.00,-0.0000
1824.00,-0.0000
1823.00,-0.0000
1822.00,-0.0000
1821.00,-0.0000
1820.00,-0.0001
1819.00,-0.0001
1818.00,-0.0002
1817.00,-0.0003
1816.00,-0.0003
1815.00,-0.0002
1814.00,-0.0002
1813.00,-0.0001
1812.00,-0.0000
1811.00,0.0000
1810.00,0.0001
1809.00,0.0001
1808.00,0.0001
1807.00,0.0001
1806.00,0.0002
1805.00,0.0002
1804.00,0.0002
1803.00,0.0002
1802.00,0.0002
1801.00,0.0003
1800.00,0.0003
1799.00,0.0004
1798.00,0.0004
1797.00,0.0003
1796.00,0.0003
1795.00,0.0003
1794.00,0.0003
1793.00,0.0003
1792.00,0.0004
1791.00,0.0004
1790.00,0.0004
1789.00,0.0004
1788.00,0.0004
1787.00,0.0005
1786.00,0.0005
1785.00,0.0006
1784.00,0.0006
1783.00,0.0006
1782.00,0.0006
1781.00,0.0006
1780.00,0.0006
1779.00,0.0006
1778.00,0.0005
1777.00,0.0005
1776.00,0.0005
1775.00,0.0005
1774.00,0.0005
1773.00,0.0006
1772.00,0.0006
1771.00,0.0007
1770.00,0.0007
1769.00,0.0007
1768.00,0.0008
1767.00,0.0008
1766.00,0.0009
1765.00,0.0010
1764.00,0.0010
1763.00,0.0010
1762.00,0.0010
1761.00,0.0010
1760.00,0.0011
1759.00,0.0011
1758.00,0.0011
1757.00,0.0011
1756.00,0.0011
1755.00,0.0012
1754.00,0.0012
1753.00,0.0013
1752.00,0.0013
1751.00,0.0014
1750.00,0.0014
1749.00,0.0015
1748.00,0.0016
1747.00,0.0017
1746.00,0.0017
1745.00,0.0018
1744.00,0.0019
1743.00,0.0020
1742.00,0.0020
1741.00,0.0021
1740.00,0.0021
1739.00,0.0022
1738.00,0.0022
1737.00,0.0022
1736.00,0.0023
1735.00,0.0022
1734.00,0.0022
1733.00,0.0022
1732.00,0.0022
1731.00,0.0021
1730.00,0.0021
1729.00,0.0021
1728.00,0.0020
1727.00,0.0020
1726.00,0.0020
1725.00,0.0020
1724.00,0.0021
1723.00,0.0021
1722.00,0.0021
1721.00,0.0021
1720.00,0.0021
1719.00,0.0020
1718.00,0.0019
1717.00,0.0019
1716.00,0.0020
1715.00,0.0020
1714.00,0.0020
1713.00,0.0019
1712.00,0.0020
1711.00,0.0020
1710.00,0.0020
1709.00,0.0020
1708.00,0.0020
1707.00,0.0020
1706.00,0.0020
1705.00,0.0021
1704.00,0.0021
1703.00,0.0021
1702.00,0.0021
1701.00,0.0021
1700.00,0.0021
1699.00,0.0022
1698.00,0.0022
1697.00,0.0022
1696.00,0.0023
1695.00,0.0023
1694.00,0.0023
1693.00,0.0023
1692.00,0.0023
1691.00,0.0023
1690.00,0.0024
1689.00,0.0024
1688.00,0.0024
1687.00,0.0024
1686.00,0.0024
1685.00,0.0024
1684.00,0.0024
1683.00,0.0024
1682.00,0.0025
1681.00,0.0025
1680.00,0.0025
1679.00,0.0026
1678.00,0.0026
1677.00,0.0026
1676.00,0.0026
1675.00,0.0027
1674.00,0.0027
1673.00,0.0028
1672.00,0.0028
1671.00,0.0028
1670.00,0.0028
1669.00,0.0029
1668.00,0.0029
1667.00,0.0029
1666.00,0.0029
1665.00,0.0029
1664.00,0.0030
1663.00,0.0030
1662.00,0.0030
1661.00,0.0030
1660.00,0.0031
1659.00,0.0032
1658.00,0.0032
1657.00,0.0033
1656.00,0.0033
1655.00,0.0034
1654.00,0.0034
1653.00,0.0034
1652.00,0.0035
1651.00,0.0035
1650.00,0.0035
1649.00,0.0035
1648.00,0.0035
1647.00,0.0035
1646.00,0.0035
1645.00,0.0035
1644.00,0.0035
1643.00,0.0035
1642.00,0.0036
1641.00,0.0036
1640.00,0.0036
1639.00,0.0037
1638.00,0.0037
1637.00,0.0037
1636.00,0.0037
1635.00,0.0037
1634.00,0.0037
1633.00,0.0037
1632.00,0.0037
1631.00,0.0038
1630.00,0.0038
1629.00,0.0038
1628.00,0.0038
1627.00,0.0037
1626.00,0.0037
1625.00,0.0037
1624.00,0.0037
1623.00,0.0037
1622.00,0.0036
1621.00,0.0036
1620.00,0.0036
1619.00,0.0036
1618.00,0.0035
1617.00,0.0035
1616.00,0.0035
1615.00,0.0035
1614.00,0.0035
1613.00,0.0035
1612.00,0.0036
1611.00,0.0036
1610.00,0.0036
1609.00,0.0035
1608.00,0.0035
1607.00,0.0035
1606.00,0.0035
1605.00,0.0035
1604.00,0.0035
1603.00,0.0035
1602.00,0.0034
1601.00,0.0034
1600.00,0.0034
1599.00,0.0034
1598.00,0.0034
1597.00,0.0034
1596.00,0.0035
1595.00,0.0035
1594.00,0.0035
1593.00,0.0036
1592.00,0.0037
1591.00,0.0037
1590.00,0.0038
1589.00,0.0039
1588.00,0.0040
1587.00,0.0041
1586.00,0.0043
1585.00,0.0044
1584.00,0.0046
1583.00,0.0048
1582.00,0.0049
1581.00,0.0051
1580.00,0.0053
1579.00,0.0055
1578.00,0.0056
1577.00,0.0056
1576.00,0.0055
1575.00,0.0054
1574.00,0.0053
1573.00,0.0052
1572.00,0.0051
1571.00,0.0049
1570.00,0.0047
1569.00,0.0045
1568.00,0.0044
1567.00,0.0043
1566.00,0.0043
1565.00,0.0043
1564.00,0.0043
1563.00,0.0043
1562.00,0.0043
1561.00,0.0044
1560.00,0.0044
1559.00,0.0043
1558.00,0.0042
1557.00,0.0043
1556.00,0.0044
1555.00,0.0044
1554.00,0.0044
1553.00,0.0045
1552.00,0.0045
1551.00,0.0046
1550.00,0.0047
1549.00,0.0049
1548.00,0.0051
1547.00,0.0053
1546.00,0.0056
1545.00,0.0059
1544.00,0.0062
1543.00,0.0064
1542.00,0.0064
1541.00,0.0065
1540.00,0.0064
1539.00,0.0061
1538.00,0.0059
1537.00,0.0058
1536.00,0.0057
1535.00,0.0055
1534.00,0.0051
1533.00,0.0048
1532.00,0.0045
1531.00,0.0043
1530.00,0.0042
1529.00,0.0043
1528.00,0.0043
1527.00,0.0044
1526.00,0.0043
1525.00,0.0043
1524.00,0.0043
1523.00,0.0043
1522.00,0.0043
1521.00,0.0043
1520.00,0.0044
1519.00,0.0044
1518.00,0.0044
1517.00,0.0044
1516.00,0.0045
1515.00,0.0046
1514.00,0.0046
1513.00,0.0047
1512.00,0.0048
1511.00,0.0048
1510.00,0.0049
1509.00,0.0050
1508.00,0.0052
1507.00,0.0053
1506.00,0.0053
1505.00,0.0055
1504.00,0.0056
1503.00,0.0057
1502.00,0.0059
1501.00,0.0061
1500.00,0.0063
1499.00,0.0065
1498.00,0.0067
1497.00,0.0070
1496.00,0.0074
1495.00,0.0076
1494.00,0.0078
1493.00,0.0081
1492.00,0.0085
1491.00,0.0089
1490.00,0.0092
1489.00,0.0097
1488.00,0.0102
1487.00,0.0107
1486.00,0.0112
1485.00,0.0119
1484.00,0.0127
1483.00,0.0135
1482.00,0.0144
1481.00,0.0156
1480.00,0.0169
1479.00,0.0181
1478.00,0.0196
1477.00,0.0215
1476.00,0.0237
1475.00,0.0263
1474.00,0.0297
1473.00,0.0348
1472.00,0.0411
1471.00,0.0472
1470.00,0.0531
1469.00,0.0592
1468.00,0.0659
1467.00,0.0733
1466.00,0.0818
1465.00,0.0912
1464.00,0.0996
1463.00,0.1058
1462.00,0.1102
1461.00,0.1136
1460.00,0.1163
1459.00,0.1185
1458.00,0.1206
1457.00,0.1229
1456.00,0.1244
1455.00,0.1249
1454.00,0.1249
1453.00,0.1242
1452.00,0.1226
1451.00,0.1194
1450.00,0.1144
1449.00,0.1068
1448.00,0.0969
1447.00,0.0862
1446.00,0.0764
1445.00,0.0681
1444.00,0.0609
1443.00,0.0551
1442.00,0.0507
1441.00,0.0476
1440.00,0.0457
1439.00,0.0446
1438.00,0.0443
1437.00,0.0439
1436.00,0.0424
1435.00,0.0396
1434.00,0.0359
1433.00,0.0314
1432.00,0.0269
1431.00,0.0229
1430.00,0.0198
1429.00,0.0176
1428.00,0.0160
1427.00,0.0150
1426.00,0.0144
1425.00,0.0138
1424.00,0.0133
1423.00,0.0129
1422.00,0.0127
1421.00,0.0125
1420.00,0.0121
1419.00,0.0119
1418.00,0.0117
1417.00,0.0115
1416.00,0.0112
1415.00,0.0111
1414.00,0.0110
1413.00,0.0109
1412.00,0.0107
1411.00,0.0107
1410.00,0.0107
1409.00,0.0107
1408.00,0.0105
1407.00,0.0105
1406.00,0.0106
1405.00,0.0106
1404.00,0.0106
1403.00,0.0107
1402.00,0.0108
1401.00,0.0109
1400.00,0.0110
1399.00,0.0112
1398.00,0.0114
1397.00,0.0117
1396.00,0.0119
1395.00,0.0123
1394.00,0.0129
1393.00,0.0134
1392.00,0.0140
1391.00,0.0149
1390.00,0.0161
1389.00,0.0178
1388.00,0.0203
1387.00,0.0241
1386.00,0.0291
1385.00,0.0355
1384.00,0.0438
1383.00,0.0551
1382.00,0.0697
1381.00,0.0879
1380.00,0.1098
1379.00,0.1340
1378.00,0.1570
1377.00,0.1735
1376.00,0.1788
1375.00,0.1703
1374.00,0.1499
1373.00,0.1249
1372.00,0.1018
1371.00,0.0824
1370.00,0.0665
1369.00,0.0543
1368.00,0.0457
1367.00,0.0404
1366.00,0.0375
1365.00,0.0363
1364.00,0.0365
1363.00,0.0378
1362.00,0.0398
1361.00,0.0419
1360.00,0.0435
1359.00,0.0439
1358.00,0.0428
1357.00,0.0403
1356.00,0.0367
1355.00,0.0326
1354.00,0.0287
1353.00,0.0253
1352.00,0.0225
1351.00,0.0204
1350.00,0.0186
1349.00,0.0171
1348.00,0.0160
1347.00,0.0150
1346.00,0.0142
1345.00,0.0136
1344.00,0.0131
1343.00,0.0127
1342.00,0.0124
1341.00,0.0122
1340.00,0.0119
1339.00,0.0118
1338.00,0.0117
1337.00,0.0117
1336.00,0.0118
1335.00,0.0119
1334.00,0.0122
1333.00,0.0126
1332.00,0.0130
1331.00,0.0134
1330.00,0.0135
1329.00,0.0134
1328.00,0.0131
1327.00,0.0126
1326.00,0.0120
1325.00,0.0113
1324.00,0.0107
1323.00,0.0101
1322.00,0.0098
1321.00,0.0095
1320.00,0.0092
1319.00,0.0090
1318.00,0.0088
1317.00,0.0086
1316.00,0.0084
1315.00,0.0083
1314.00,0.0083
1313.00,0.0084
1312.00,0.0086
1311.00,0.0090
1310.00,0.0096
1309.00,0.0105
1308.00,0.0117
1307.00,0.0131
1306.00,0.0146
1305.00,0.0157
1304.00,0.0161
1303.00,0.0158
1302.00,0.0151
1301.00,0.0142
1300.00,0.0136
1299.00,0.0132
1298.00,0.0130
1297.00,0.0129
1296.00,0.0127
1295.00,0.0123
1294.00,0.0119
1293.00,0.0114
1292.00,0.0109
1291.00,0.0104
1290.00,0.0100
1289.00,0.0096
1288.00,0.0092
1287.00,0.0089
1286.00,0.0087
1285.00,0.0085
1284.00,0.0083
1283.00,0.0082
1282.00,0.0081
1281.00,0.0079
1280.00,0.0078
1279.00,0.0077
1278.00,0.0076
1277.00,0.0075
1276.00,0.0074
1275.00,0.0074
1274.00,0.0074
1273.00,0.0074
1272.00,0.0075
1271.00,0.0075
1270.00,0.0076
1269.00,0.0077
1268.00,0.0079
1267.00,0.0081
1266.00,0.0084
1265.00,0.0086
1264.00,0.0089
1263.00,0.0093
1262.00,0.0097
1261.00,0.0103
1260.00,0.0111
1259.00,0.0121
1258.00,0.0131
1257.00,0.0140
1256.00,0.0144
1255.00,0.0142
1254.00,0.0134
1253.00,0.0124
1252.00,0.0113
1251.00,0.0104
1250.00,0.0097
1249.00,0.0092
1248.00,0.0089
1247.00,0.0086
1246.00,0.0085
1245.00,0.0083
1244.00,0.0082
1243.00,0.0082
1242.00,0.0081
1241.00,0.0081
1240.00,0.0080
1239.00,0.0080
1238.00,0.0079
1237.00,0.0079
1236.00,0.0079
1235.00,0.0078
1234.00,0.0078
1233.00,0.0078
1232.00,0.0077
1231.00,0.0077
1230.00,0.0077
1229.00,0.0077
1228.00,0.0079
1227.00,0.0081
1226.00,0.0083
1225.00,0.0086
1224.00,0.0088
1223.00,0.0091
1222.00,0.0093
1221.00,0.0096
1220.00,0.0097
1219.00,0.0098
1218.00,0.0098
1217.00,0.0097
1216.00,0.0096
1215.00,0.0093
1214.00,0.0090
1213.00,0.0087
1212.00,0.0084
1211.00,0.0082
1210.00,0.0080
1209.00,0.0079
1208.00,0.0078
1207.00,0.0077
1206.00,0.0076
1205.00,0.0076
1204.00,0.0075
1203.00,0.0075
1202.00,0.0075
1201.00,0.0075
1200.00,0.0075
1199.00,0.0075
1198.00,0.0075
1197.00,0.0075
1196.00,0.0075
1195.00,0.0076
1194.00,0.0077
1193.00,0.0078
1192.00,0.0078
1191.00,0.0078
1190.00,0.0078
1189.00,0.0079
1188.00,0.0080
1187.00,0.0081
1186.00,0.0083
1185.00,0.0084
1184.00,0.0085
1183.00,0.0086
1182.00,0.0088
1181.00,0.0091
1180.00,0.0096
1179.00,0.0102
1178.00,0.0110
1177.00,0.0120
1176.00,0.0134
1175.00,0.0154
1174.00,0.0180
1173.00,0.0212
1172.00,0.0251
1171.00,0.0294
1170.00,0.0337
1169.00,0.0373
1168.00,0.0396
1167.00,0.0404
1166.00,0.0395
1165.00,0.0375
1164.00,0.0349
1163.00,0.0323
1162.00,0.0298
1161.00,0.0276
1160.00,0.0259
1159.00,0.0244
1158.00,0.0233
1157.00,0.0224
1156.00,0.0218
1155.00,0.0212
1154.00,0.0207
1153.00,0.0202
1152.00,0.0195
1151.00,0.0186
1150.00,0.0177
1149.00,0.0167
1148.00,0.0157
1147.00,0.0147
1146.00,0.0138
1145.00,0.0129
1144.00,0.0121
1143.00,0.0113
1142.00,0.0106
1141.00,0.0100
1140.00,0.0094
1139.00,0.0089
1138.00,0.0085
1137.00,0.0082
1136.00,0.0079
1135.00,0.0077
1134.00,0.0075
1133.00,0.0074
1132.00,0.0074
1131.00,0.0074
1130.00,0.0074
1129.00,0.0075
1128.00,0.0075
1127.00,0.0077
1126.00,0.0077
1125.00,0.0078
1124.00,0.0078
1123.00,0.0078
1122.00,0.0077
1121.00,0.0077
1120.00,0.0076
1119.00,0.0075
1118.00,0.0076
1117.00,0.0077
1116.00,0.0078
1115.00,0.0080
1114.00,0.0082
1113.00,0.0083
1112.00,0.0084
1111.00,0.0086
1110.00,0.0088
1109.00,0.0092
1108.00,0.0098
1107.00,0.0104
1106.00,0.0112
1105.00,0.0118
1104.00,0.0124
1103.00,0.0127
1102.00,0.0128
1101.00,0.0125
1100.00,0.0120
1099.00,0.0114
1098.00,0.0107
1097.00,0.0102
1096.00,0.0097
1095.00,0.0093
1094.00,0.0089
1093.00,0.0086
1092.00,0.0083
1091.00,0.0081
1090.00,0.0079
1089.00,0.0077
1088.00,0.0076
1087.00,0.0074
1086.00,0.0073
1085.00,0.0072
1084.00,0.0071
1083.00,0.0071
1082.00,0.0070
1081.00,0.0069
1080.00,0.0069
1079.00,0.0068
1078.00,0.0068
1077.00,0.0067
1076.00,0.0067
1075.00,0.0067
1074.00,0.0066
1073.00,0.0066
1072.00,0.0067
1071.00,0.0067
1070.00,0.0068
1069.00,0.0068
1068.00,0.0068
1067.00,0.0069
1066.00,0.0068
1065.00,0.0068
1064.00,0.0068
1063.00,0.0068
1062.00,0.0069
1061.00,0.0070
1060.00,0.0071
1059.00,0.0072
1058.00,0.0073
1057.00,0.0074
1056.00,0.0075
1055.00,0.0076
1054.00,0.0077
1053.00,0.0078
1052.00,0.0080
1051.00,0.0083
1050.00,0.0085
1049.00,0.0088
1048.00,0.0092
1047.00,0.0095
1046.00,0.0099
1045.00,0.0101
1044.00,0.0101
1043.00,0.0099
1042.00,0.0095
1041.00,0.0092
1040.00,0.0090
1039.00,0.0089
1038.00,0.0089
1037.00,0.0089
1036.00,0.0088
1035.00,0.0087
1034.00,0.0087
1033.00,0.0086
1032.00,0.0086
1031.00,0.0086
1030.00,0.0086
1029.00,0.0085
1028.00,0.0083
1027.00,0.0081
1026.00,0.0080
1025.00,0.0080
1024.00,0.0081
1023.00,0.0082
1022.00,0.0082
1021.00,0.0083
1020.00,0.0085
1019.00,0.0087
1018.00,0.0089
1017.00,0.0091
1016.00,0.0094
1015.00,0.0098
1014.00,0.0102
1013.00,0.0108
1012.00,0.0113
1011.00,0.0119
1010.00,0.0124
1009.00,0.0128
1008.00,0.0134
1007.00,0.0142
1006.00,0.0154
1005.00,0.0169
1004.00,0.0190
1003.00,0.0219
1002.00,0.0258
1001.00,0.0306
1000.00,0.0358
999.00,0.0403
998.00,0.0429
997.00,0.0426
996.00,0.0395
995.00,0.0345
994.00,0.0290
993.00,0.0241
992.00,0.0202
991.00,0.0174
990.00,0.0154
989.00,0.0141
988.00,0.0133
987.00,0.0129
986.00,0.0129
985.00,0.0132
984.00,0.0138
983.00,0.0149
982.00,0.0164
981.00,0.0184
980.00,0.0209
979.00,0.0243
978.00,0.0285
977.00,0.0336
976.00,0.0393
975.00,0.0451
974.00,0.0498
973.00,0.0521
972.00,0.0511
971.00,0.0468
970.00,0.0403
969.00,0.0333
968.00,0.0271
967.00,0.0222
966.00,0.0187
965.00,0.0161
964.00,0.0142
963.00,0.0128
962.00,0.0118
961.00,0.0110
960.00,0.0103
959.00,0.0097
958.00,0.0092
957.00,0.0087
956.00,0.0084
955.00,0.0082
954.00,0.0081
953.00,0.0080
952.00,0.0079
951.00,0.0079
950.00,0.0080
949.00,0.0079
948.00,0.0079
947.00,0.0079
946.00,0.0080
945.00,0.0083
944.00,0.0086
943.00,0.0088
942.00,0.0090
941.00,0.0090
940.00,0.0089
939.00,0.0087
938.00,0.0083
937.00,0.0078
936.00,0.0074
935.00,0.0069
934.00,0.0066
933.00,0.0063
932.00,0.0061
931.00,0.0059
930.00,0.0059
929.00,0.0059
928.00,0.0060
927.00,0.0060
926.00,0.0060
925.00,0.0059
924.00,0.0060
923.00,0.0060
922.00,0.0061
921.00,0.0061
920.00,0.0062
919.00,0.0063
918.00,0.0064
917.00,0.0065
916.00,0.0066
915.00,0.0066
914.00,0.0066
913.00,0.0066
912.00,0.0068
911.00,0.0070
910.00,0.0072
909.00,0.0074
908.00,0.0076
907.00,0.0079
906.00,0.0085
905.00,0.0095
904.00,0.0108
903.00,0.0125
902.00,0.0143
901.00,0.0159
900.00,0.0170
899.00,0.0172
898.00,0.0166
897.00,0.0152
896.00,0.0134
895.00,0.0117
894.00,0.0103
893.00,0.0093
892.00,0.0086
891.00,0.0081
890.00,0.0076
889.00,0.0072
888.00,0.0070
887.00,0.0069
886.00,0.0069
885.00,0.0070
884.00,0.0070
883.00,0.0070
882.00,0.0069
881.00,0.0068
880.00,0.0068
879.00,0.0068
878.00,0.0068
877.00,0.0068
876.00,0.0068
875.00,0.0068
874.00,0.0069
873.00,0.0070
872.00,0.0071
871.00,0.0072
870.00,0.0072
869.00,0.0072
868.00,0.0071
867.00,0.0071
866.00,0.0072
865.00,0.0072
864.00,0.0073
863.00,0.0074
862.00,0.0077
861.00,0.0079
860.00,0.0082
859.00,0.0084
858.00,0.0085
857.00,0.0085
856.00,0.0086
855.00,0.0089
854.00,0.0092
853.00,0.0096
852.00,0.0101
851.00,0.0107
850.00,0.0115
849.00,0.0125
848.00,0.0138
847.00,0.0158
846.00,0.0189
845.00,0.0234
844.00,0.0295
843.00,0.0364
842.00,0.0420
841.00,0.0438
840.00,0.0411
839.00,0.0352
838.00,0.0286
837.00,0.0230
836.00,0.0192
835.00,0.0168
834.00,0.0153
833.00,0.0142
832.00,0.0134
831.00,0.0127
830.00,0.0122
829.00,0.0118
828.00,0.0115
827.00,0.0113
826.00,0.0111
825.00,0.0110
824.00,0.0108
823.00,0.0106
822.00,0.0106
821.00,0.0106
820.00,0.0108
819.00,0.0111
818.00,0.0115
817.00,0.0120
816.00,0.0127
815.00,0.0135
814.00,0.0145
813.00,0.0158
812.00,0.0173
811.00,0.0188
810.00,0.0200
809.00,0.0205
808.00,0.0203
807.00,0.0194
806.00,0.0180
805.00,0.0165
804.00,0.0150
803.00,0.0138
802.00,0.0129
801.00,0.0120
800.00,0.0112
799.00,0.0105
798.00,0.0100
797.00,0.0096
796.00,0.0094
795.00,0.0092
794.00,0.0090
793.00,0.0088
792.00,0.0085
791.00,0.0082
790.00,0.0078
789.00,0.0076
788.00,0.0074
787.00,0.0072
786.00,0.0070
785.00,0.0067
784.00,0.0064
783.00,0.0061
782.00,0.0058
781.00,0.0057
780.00,0.0056
779.00,0.0056
778.00,0.0057
777.00,0.0057
776.00,0.0056
775.00,0.0056
774.00,0.0057
773.00,0.0060
772.00,0.0064
771.00,0.0067
770.00,0.0071
769.00,0.0074
768.00,0.0076
767.00,0.0077
766.00,0.0076
765.00,0.0074
764.00,0.0071
763.00,0.0068
762.00,0.0065
761.00,0.0062
760.00,0.0059
759.00,0.0057
758.00,0.0054
757.00,0.0053
756.00,0.0052
755.00,0.0051
754.00,0.0051
753.00,0.0051
752.00,0.0050
751.00,0.0049
750.00,0.0048
749.00,0.0047
748.00,0.0048
747.00,0.0049
746.00,0.0052
745.00,0.0054
744.00,0.0056
743.00,0.0057
742.00,0.0057
741.00,0.0058
740.00,0.0059
739.00,0.0060
738.00,0.0062
737.00,0.0065
736.00,0.0068
735.00,0.0070
734.00,0.0071
733.00,0.0071
732.00,0.0072
731.00,0.0072
730.00,0.0072
729.00,0.0071
728.00,0.0071
727.00,0.0069
726.00,0.0068
725.00,0.0067
724.00,0.0066
723.00,0.0066
722.00,0.0064
721.00,0.0061
720.00,0.0058
719.00,0.0055
718.00,0.0053
717.00,0.0052
716.00,0.0053
715.00,0.0053
714.00,0.0052
713.00,0.0051
712.00,0.0049
711.00,0.0049
710.00,0.0050
709.00,0.0051
708.00,0.0052
707.00,0.0052
706.00,0.0052
705.00,0.0051
704.00,0.0051
703.00,0.0051
702.00,0.0051
701.00,0.0051
700.00,0.0050
699.00,0.0050
698.00,0.0050
697.00,0.0048
696.00,0.0047
695.00,0.0047
694.00,0.0047
693.00,0.0047
692.00,0.0046
691.00,0.0044
690.00,0.0043
689.00,0.0045
688.00,0.0047
687.00,0.0048
686.00,0.0049
685.00,0.0049
684.00,0.0050
683.00,0.0051
682.00,0.0051
681.00,0.0051
680.00,0.0050
679.00,0.0049
678.00,0.0049
677.00,0.0048
676.00,0.0048
675.00,0.0048
674.00,0.0048
673.00,0.0048
672.00,0.0048
671.00,0.0048
670.00,0.0048
669.00,0.0050
668.00,0.0054
667.00,0.0060
666.00,0.0061
665.00,0.0057
664.00,0.0053
663.00,0.0050
662.00,0.0049
661.00,0.0049
660.00,0.0049
659.00,0.0050
658.00,0.0050
657.00,0.0049
656.00,0.0048
655.00,0.0046
654.00,0.0045
653.00,0.0045
652.00,0.0044
651.00,0.0044
650.00,0.0042
649.00,0.0041
648.00,0.0040
647.00,0.0042
646.00,0.0046
645.00,0.0049
644.00,0.0051
643.00,0.0052
642.00,0.0052
641.00,0.0053
640.00,0.0053
639.00,0.0052
638.00,0.0050
637.00,0.0047
636.00,0.0044
635.00,0.0043
634.00,0.0045
633.00,0.0048
632.00,0.0049
631.00,0.0048
630.00,0.0047
629.00,0.0045
628.00,0.0043
627.00,0.0043
626.00,0.0043
625.00,0.0043
624.00,0.0043
623.00,0.0045
622.00,0.0049
621.00,0.0052
620.00,0.0054
619.00,0.0055
618.00,0.0055
617.00,0.0054
616.00,0.0053
615.00,0.0051
614.00,0.0049
613.00,0.0048
612.00,0.0048
611.00,0.0049
610.00,0.0052
609.00,0.0054
608.00,0.0054
607.00,0.0051
606.00,0.0050
605.00,0.0051
604.00,0.0053
603.00,0.0055
602.00,0.0056
601.00,0.0055
600.00,0.0052
599.00,0.0051
598.00,0.0051
597.00,0.0053
596.00,0.0055
595.00,0.0057
594.00,0.0057
593.00,0.0055
592.00,0.0052
591.00,0.0049
590.00,0.0048
589.00,0.0050
588.00,0.0053
587.00,0.0055
586.00,0.0057
585.00,0.0057
584.00,0.0057
583.00,0.0058
582.00,0.0058
581.00,0.0057
580.00,0.0055
579.00,0.0052
578.00,0.0051
577.00,0.0051
576.00,0.0051
575.00,0.0051
574.00,0.0053
573.00,0.0056
572.00,0.0057
571.00,0.0056
570.00,0.0052
569.00,0.0051
568.00,0.0052
567.00,0.0056
566.00,0.0058
565.00,0.0058
564.00,0.0058
563.00,0.0057
562.00,0.0057
561.00,0.0056
560.00,0.0055
559.00,0.0054
558.00,0.0052
557.00,0.0050
556.00,0.0050
555.00,0.0052
554.00,0.0055
553.00,0.0057
552.00,0.0058
551.00,0.0059
550.00,0.0060
549.00,0.0061
548.00,0.0059
547.00,0.0057
546.00,0.0056
545.00,0.0058
544.00,0.0060
543.00,0.0061
542.00,0.0061
541.00,0.0059
540.00,0.0057
539.00,0.0056
538.00,0.0059
537.00,0.0063
536.00,0.0068
535.00,0.0070
534.00,0.0070
533.00,0.0070
532.00,0.0071
531.00,0.0074
530.00,0.0079
529.00,0.0083
528.00,0.0084
527.00,0.0082
526.00,0.0079
525.00,0.0077
524.00,0.0077
523.00,0.0078
522.00,0.0078
521.00,0.0072
520.00,0.0062
519.00,0.0052
518.00,0.0049
517.00,0.0055
516.00,0.0063
515.00,0.0068
514.00,0.0069
513.00,0.0068
512.00,0.0065
511.00,0.0064
510.00,0.0063
509.00,0.0064
508.00,0.0066
507.00,0.0066
506.00,0.0066
505.00,0.0064
504.00,0.0062
503.00,0.0062
502.00,0.0063
501.00,0.0064
500.00,0.0061
499.00,0.0057
498.00,0.0055
497.00,0.0056
496.00,0.0056
495.00,0.0055
494.00,0.0055
493.00,0.0056
492.00,0.0056
491.00,0.0055
490.00,0.0056
489.00,0.0059
488.00,0.0064
487.00,0.0069
486.00,0.0072
485.00,0.0071
484.00,0.0067
483.00,0.0062
482.00,0.0060
481.00,0.0061
480.00,0.0062
479.00,0.0063
478.00,0.0064
477.00,0.0066
476.00,0.0069
475.00,0.0072
474.00,0.0073
473.00,0.0069
472.00,0.0061
471.00,0.0052
470.00,0.0051
469.00,0.0059
468.00,0.0071
467.00,0.0081
466.00,0.0090
465.00,0.0099
464.00,0.0108
463.00,0.0116
462.00,0.0122
461.00,0.0125
460.00,0.0128
459.00,0.0130
458.00,0.0130
457.00,0.0126
456.00,0.0119
455.00,0.0111
454.00,0.0106
453.00,0.0103
452.00,0.0099
451.00,0.0092
450.00,0.0084
