Created as New Dataset,Sample 030 By Administrator Date Wednesday, September 10 2025
cm-1,A
4000.00,0.0008
3999.00,0.0007
3998.00,0.0007
3997.00,0.0007
3996.00,0.0007
3995.00,0.0007
3994.00,0.0007
3993.00,0.0007
3992.00,0.0008
3991.00,0.0008
3990.00,0.0008
3989.00,0.0008
3988.00,0.0007
3987.00,0.0007
3986.00,0.0007
3985.00,0.0007
3984.00,0.0006
3983.00,0.0006
3982.00,0.0006
3981.00,0.0007
3980.00,0.0007
3979.00,0.0007
3978.00,0.0006
3977.00,0.0006
3976.00,0.0006
3975.00,0.0006
3974.00,0.0006
3973.00,0.0006
3972.00,0.0006
3971.00,0.0006
3970.00,0.0006
3969.00,0.0006
3968.00,0.0006
3967.00,0.0006
3966.00,0.0007
3965.00,0.0007
3964.00,0.0006
3963.00,0.0006
3962.00,0.0006
3961.00,0.0006
3960.00,0.0006
3959.00,0.0007
3958.00,0.0007
3957.00,0.0007
3956.00,0.0006
3955.00,0.0006
3954.00,0.0006
3953.00,0.0006
3952.00,0.0006
3951.00,0.0006
3950.00,0.0006
3949.00,0.0006
3948.00,0.0006
3947.00,0.0006
3946.00,0.0006
3945.00,0.0006
3944.00,0.0006
3943.00,0.0006
3942.00,0.0006
3941.00,0.0007
3940.00,0.0007
3939.00,0.0007
3938.00,0.0007
3937.00,0.0007
3936.00,0.0007
3935.00,0.0007
3934.00,0.0006
3933.00,0.0006
3932.00,0.0006
3931.00,0.0006
3930.00,0.0006
3929.00,0.0006
3928.00,0.0006
3927.00,0.0006
3926.00,0.0006
3925.00,0.0006
3924.00,0.0007
3923.00,0.0007
3922.00,0.0007
3921.00,0.0007
3920.00,0.0007
3919.00,0.0007
3918.00,0.0006
3917.00,0.0006
3916.00,0.0006
3915.00,0.0006
3914.00,0.0007
3913.00,0.0007
3912.00,0.0007
3911.00,0.0006
3910.00,0.0006
3909.00,0.0005
3908.00,0.0005
3907.00,0.0006
3906.00,0.0006
3905.00,0.0007
3904.00,0.0007
3903.00,0.0007
3902.00,0.0007
3901.00,0.0006
3900.00,0.0006
3899.00,0.0006
3898.00,0.0006
3897.00,0.0006
3896.00,0.0006
3895.00,0.0005
3894.00,0.0006
3893.00,0.0006
3892.00,0.0006
3891.00,0.0006
3890.00,0.0006
3889.00,0.0006
3888.00,0.0006
3887.00,0.0005
3886.00,0.0005
3885.00,0.0005
3884.00,0.0005
3883.00,0.0005
3882.00,0.0006
3881.00,0.0006
3880.00,0.0006
3879.00,0.0006
3878.00,0.0006
3877.00,0.0006
3876.00,0.0006
3875.00,0.0006
3874.00,0.0006
3873.00,0.0006
3872.00,0.0006
3871.00,0.0006
3870.00,0.0007
3869.00,0.0007
3868.00,0.0007
3867.00,0.0006
3866.00,0.0006
3865.00,0.0006
3864.00,0.0006
3863.00,0.0006
3862.00,0.0006
3861.00,0.0006
3860.00,0.0005
3859.00,0.0005
3858.00,0.0005
3857.00,0.0005
3856.00,0.0006
3855.00,0.0005
3854.00,0.0004
3853.00,0.0004
3852.00,0.0005
3851.00,0.0005
3850.00,0.0005
3849.00,0.0005
3848.00,0.0005
3847.00,0.0005
3846.00,0.0005
3845.00,0.0005
3844.00,0.0005
3843.00,0.0004
3842.00,0.0004
3841.00,0.0004
3840.00,0.0005
3839.00,0.0005
3838.00,0.0006
3837.00,0.0006
3836.00,0.0005
3835.00,0.0005
3834.00,0.0005
3833.00,0.0005
3832.00,0.0005
3831.00,0.0005
3830.00,0.0005
3829.00,0.0005
3828.00,0.0006
3827.00,0.0006
3826.00,0.0006
3825.00,0.0007
3824.00,0.0007
3823.00,0.0007
3822.00,0.0007
3821.00,0.0006
3820.00,0.0006
3819.00,0.0006
3818.00,0.0006
3817.00,0.0005
3816.00,0.0005
3815.00,0.0005
3814.00,0.0005
3813.00,0.0005
3812.00,0.0006
3811.00,0.0006
3810.00,0.0006
3809.00,0.0006
3808.00,0.0006
3807.00,0.0006
3806.00,0.0005
3805.00,0.0005
3804.00,0.0004
3803.00,0.0004
3802.00,0.0004
3801.00,0.0005
3800.00,0.0005
3799.00,0.0006
3798.00,0.0006
3797.00,0.0006
3796.00,0.0006
3795.00,0.0006
3794.00,0.0007
3793.00,0.0007
3792.00,0.0006
3791.00,0.0006
3790.00,0.0006
3789.00,0.0006
3788.00,0.0005
3787.00,0.0006
3786.00,0.0006
3785.00,0.0006
3784.00,0.0006
3783.00,0.0006
3782.00,0.0006
3781.00,0.0007
3780.00,0.0007
3779.00,0.0007
3778.00,0.0007
3777.00,0.0007
3776.00,0.0007
3775.00,0.0007
3774.00,0.0007
3773.00,0.0007
3772.00,0.0007
3771.00,0.0007
3770.00,0.0007
3769.00,0.0007
3768.00,0.0007
3767.00,0.0007
3766.00,0.0007
3765.00,0.0007
3764.00,0.0007
3763.00,0.0008
3762.00,0.0008
3761.00,0.0008
3760.00,0.0009
3759.00,0.0009
3758.00,0.0009
3757.00,0.0008
3756.00,0.0008
3755.00,0.0008
3754.00,0.0008
3753.00,0.0008
3752.00,0.0007
3751.00,0.0007
3750.00,0.0007
3749.00,0.0007
3748.00,0.0007
3747.00,0.0007
3746.00,0.0007
3745.00,0.0007
3744.00,0.0007
3743.00,0.0006
3742.00,0.0006
3741.00,0.0006
3740.00,0.0005
3739.00,0.0005
3738.00,0.0004
3737.00,0.0004
3736.00,0.0003
3735.00,0.0003
3734.00,0.0004
3733.00,0.0005
3732.00,0.0005
3731.00,0.0005
3730.00,0.0005
3729.00,0.0004
3728.00,0.0004
3727.00,0.0004
3726.00,0.0004
3725.00,0.0004
3724.00,0.0004
3723.00,0.0004
3722.00,0.0004
3721.00,0.0004
3720.00,0.0004
3719.00,0.0004
3718.00,0.0004
3717.00,0.0004
3716.00,0.0004
3715.00,0.0005
3714.00,0.0005
3713.00,0.0005
3712.00,0.0005
3711.00,0.0005
3710.00,0.0005
3709.00,0.0004
3708.00,0.0004
3707.00,0.0004
3706.00,0.0003
3705.00,0.0003
3704.00,0.0003
3703.00,0.0003
3702.00,0.0003
3701.00,0.0003
3700.00,0.0003
3699.00,0.0003
3698.00,0.0003
3697.00,0.0003
3696.00,0.0003
3695.00,0.0003
3694.00,0.0004
3693.00,0.0004
3692.00,0.0004
3691.00,0.0004
3690.00,0.0003
3689.00,0.0004
3688.00,0.0004
3687.00,0.0004
3686.00,0.0004
3685.00,0.0004
3684.00,0.0004
3683.00,0.0004
3682.00,0.0004
3681.00,0.0004
3680.00,0.0004
3679.00,0.0004
3678.00,0.0005
3677.00,0.0005
3676.00,0.0005
3675.00,0.0005
3674.00,0.0006
3673.00,0.0006
3672.00,0.0006
3671.00,0.0006
3670.00,0.0006
3669.00,0.0006
3668.00,0.0006
3667.00,0.0005
3666.00,0.0005
3665.00,0.0005
3664.00,0.0004
3663.00,0.0004
3662.00,0.0004
3661.00,0.0004
3660.00,0.0004
3659.00,0.0005
3658.00,0.0005
3657.00,0.0005
3656.00,0.0005
3655.00,0.0005
3654.00,0.0005
3653.00,0.0005
3652.00,0.0006
3651.00,0.0006
3650.00,0.0007
3649.00,0.0007
3648.00,0.0007
3647.00,0.0007
3646.00,0.0006
3645.00,0.0006
3644.00,0.0006
3643.00,0.0006
3642.00,0.0006
3641.00,0.0006
3640.00,0.0006
3639.00,0.0006
3638.00,0.0006
3637.00,0.0006
3636.00,0.0006
3635.00,0.0006
3634.00,0.0006
3633.00,0.0006
3632.00,0.0005
3631.00,0.0005
3630.00,0.0004
3629.00,0.0004
3628.00,0.0005
3627.00,0.0005
3626.00,0.0005
3625.00,0.0005
3624.00,0.0005
3623.00,0.0005
3622.00,0.0006
3621.00,0.0006
3620.00,0.0007
3619.00,0.0007
3618.00,0.0007
3617.00,0.0008
3616.00,0.0008
3615.00,0.0007
3614.00,0.0007
3613.00,0.0007
3612.00,0.0008
3611.00,0.0008
3610.00,0.0008
3609.00,0.0009
3608.00,0.0009
3607.00,0.0009
3606.00,0.0010
3605.00,0.0010
3604.00,0.0010
3603.00,0.0011
3602.00,0.0011
3601.00,0.0010
3600.00,0.0010
3599.00,0.0009
3598.00,0.0009
3597.00,0.0009
3596.00,0.0009
3595.00,0.0009
3594.00,0.0010
3593.00,0.0010
3592.00,0.0010
3591.00,0.0010
3590.00,0.0010
3589.00,0.0010
3588.00,0.0010
3587.00,0.0011
3586.00,0.0011
3585.00,0.0012
3584.00,0.0012
3583.00,0.0013
3582.00,0.0013
3581.00,0.0013
3580.00,0.0013
3579.00,0.0012
3578.00,0.0012
3577.00,0.0012
3576.00,0.0013
3575.00,0.0013
3574.00,0.0014
3573.00,0.0014
3572.00,0.0014
3571.00,0.0014
3570.00,0.0014
3569.00,0.0014
3568.00,0.0015
3567.00,0.0015
3566.00,0.0016
3565.00,0.0016
3564.00,0.0017
3563.00,0.0017
3562.00,0.0017
3561.00,0.0017
3560.00,0.0017
3559.00,0.0017
3558.00,0.0018
3557.00,0.0018
3556.00,0.0018
3555.00,0.0019
3554.00,0.0019
3553.00,0.0018
3552.00,0.0018
3551.00,0.0019
3550.00,0.0019
3549.00,0.0019
3548.00,0.0020
3547.00,0.0020
3546.00,0.0020
3545.00,0.0020
3544.00,0.0021
3543.00,0.0021
3542.00,0.0022
3541.00,0.0022
3540.00,0.0023
3539.00,0.0023
3538.00,0.0024
3537.00,0.0024
3536.00,0.0024
3535.00,0.0025
3534.00,0.0025
3533.00,0.0025
3532.00,0.0026
3531.00,0.0026
3530.00,0.0026
3529.00,0.0027
3528.00,0.0027
3527.00,0.0027
3526.00,0.0027
3525.00,0.0027
3524.00,0.0027
3523.00,0.0028
3522.00,0.0028
3521.00,0.0028
3520.00,0.0029
3519.00,0.0029
3518.00,0.0029
3517.00,0.0029
3516.00,0.0030
3515.00,0.0030
3514.00,0.0031
3513.00,0.0031
3512.00,0.0030
3511.00,0.0030
3510.00,0.0030
3509.00,0.0030
3508.00,0.0031
3507.00,0.0031
3506.00,0.0032
3505.00,0.0033
3504.00,0.0033
3503.00,0.0034
3502.00,0.0034
3501.00,0.0034
3500.00,0.0034
3499.00,0.0033
3498.00,0.0033
3497.00,0.0034
3496.00,0.0034
3495.00,0.0035
3494.00,0.0035
3493.00,0.0036
3492.00,0.0036
3491.00,0.0036
3490.00,0.0036
3489.00,0.0036
3488.00,0.0037
3487.00,0.0037
3486.00,0.0038
3485.00,0.0038
3484.00,0.0038
3483.00,0.0039
3482.00,0.0039
3481.00,0.0039
3480.00,0.0039
3479.00,0.0040
3478.00,0.0041
3477.00,0.0041
3476.00,0.0042
3475.00,0.0042
3474.00,0.0042
3473.00,0.0042
3472.00,0.0042
3471.00,0.0043
3470.00,0.0043
3469.00,0.0043
3468.00,0.0043
3467.00,0.0043
3466.00,0.0043
3465.00,0.0043
3464.00,0.0044
3463.00,0.0044
3462.00,0.0044
3461.00,0.0044
3460.00,0.0044
3459.00,0.0044
3458.00,0.0044
3457.00,0.0045
3456.00,0.0045
3455.00,0.0046
3454.00,0.0046
3453.00,0.0047
3452.00,0.0047
3451.00,0.0047
3450.00,0.0047
3449.00,0.0048
3448.00,0.0048
3447.00,0.0048
3446.00,0.0048
3445.00,0.0048
3444.00,0.0048
3443.00,0.0048
3442.00,0.0048
3441.00,0.0049
3440.00,0.0049
3439.00,0.0049
3438.00,0.0050
3437.00,0.0050
3436.00,0.0050
3435.00,0.0050
3434.00,0.0050
3433.00,0.0050
3432.00,0.0050
3431.00,0.0051
3430.00,0.0051
3429.00,0.0051
3428.00,0.0051
3427.00,0.0051
3426.00,0.0052
3425.00,0.0052
3424.00,0.0052
3423.00,0.0052
3422.00,0.0053
3421.00,0.0053
3420.00,0.0053
3419.00,0.0053
3418.00,0.0053
3417.00,0.0053
3416.00,0.0053
3415.00,0.0053
3414.00,0.0054
3413.00,0.0054
3412.00,0.0054
3411.00,0.0055
3410.00,0.0055
3409.00,0.0055
3408.00,0.0055
3407.00,0.0055
3406.00,0.0055
3405.00,0.0054
3404.00,0.0054
3403.00,0.0054
3402.00,0.0054
3401.00,0.0054
3400.00,0.0055
3399.00,0.0055
3398.00,0.0055
3397.00,0.0055
3396.00,0.0055
3395.00,0.0055
3394.00,0.0055
3393.00,0.0055
3392.00,0.0055
3391.00,0.0055
3390.00,0.0055
3389.00,0.0056
3388.00,0.0056
3387.00,0.0056
3386.00,0.0057
3385.00,0.0056
3384.00,0.0056
3383.00,0.0056
3382.00,0.0056
3381.00,0.0056
3380.00,0.0056
3379.00,0.0056
3378.00,0.0056
3377.00,0.0056
3376.00,0.0056
3375.00,0.0056
3374.00,0.0056
3373.00,0.0056
3372.00,0.0056
3371.00,0.0056
3370.00,0.0056
3369.00,0.0056
3368.00,0.0056
3367.00,0.0056
3366.00,0.0056
3365.00,0.0056
3364.00,0.0056
3363.00,0.0055
3362.00,0.0055
3361.00,0.0055
3360.00,0.0055
3359.00,0.0055
3358.00,0.0055
3357.00,0.0055
3356.00,0.0054
3355.00,0.0055
3354.00,0.0055
3353.00,0.0056
3352.00,0.0056
3351.00,0.0056
3350.00,0.0056
3349.00,0.0056
3348.00,0.0056
3347.00,0.0056
3346.00,0.0056
3345.00,0.0056
3344.00,0.0056
3343.00,0.0056
3342.00,0.0056
3341.00,0.0055
3340.00,0.0055
3339.00,0.0055
3338.00,0.0055
3337.00,0.0054
3336.00,0.0054
3335.00,0.0054
3334.00,0.0054
3333.00,0.0053
3332.00,0.0053
3331.00,0.0053
3330.00,0.0053
3329.00,0.0053
3328.00,0.0053
3327.00,0.0053
3326.00,0.0052
3325.00,0.0052
3324.00,0.0052
3323.00,0.0052
3322.00,0.0051
3321.00,0.0051
3320.00,0.0051
3319.00,0.0052
3318.00,0.0052
3317.00,0.0052
3316.00,0.0052
3315.00,0.0052
3314.00,0.0051
3313.00,0.0051
3312.00,0.0051
3311.00,0.0051
3310.00,0.0051
3309.00,0.0050
3308.00,0.0050
3307.00,0.0050
3306.00,0.0050
3305.00,0.0050
3304.00,0.0051
3303.00,0.0051
3302.00,0.0050
3301.00,0.0050
3300.00,0.0050
3299.00,0.0050
3298.00,0.0050
3297.00,0.0050
3296.00,0.0049
3295.00,0.0049
3294.00,0.0049
3293.00,0.0049
3292.00,0.0049
3291.00,0.0049
3290.00,0.0049
3289.00,0.0049
3288.00,0.0049
3287.00,0.0049
3286.00,0.0048
3285.00,0.0048
3284.00,0.0047
3283.00,0.0047
3282.00,0.0047
3281.00,0.0047
3280.00,0.0048
3279.00,0.0048
3278.00,0.0048
3277.00,0.0048
3276.00,0.0047
3275.00,0.0047
3274.00,0.0046
3273.00,0.0046
3272.00,0.0046
3271.00,0.0046
3270.00,0.0046
3269.00,0.0046
3268.00,0.0045
3267.00,0.0045
3266.00,0.0045
3265.00,0.0045
3264.00,0.0045
3263.00,0.0045
3262.00,0.0044
3261.00,0.0044
3260.00,0.0044
3259.00,0.0044
3258.00,0.0044
3257.00,0.0044
3256.00,0.0044
3255.00,0.0043
3254.00,0.0043
3253.00,0.0043
3252.00,0.0043
3251.00,0.0043
3250.00,0.0042
3249.00,0.0042
3248.00,0.0042
3247.00,0.0041
3246.00,0.0042
3245.00,0.0042
3244.00,0.0042
3243.00,0.0042
3242.00,0.0042
3241.00,0.0042
3240.00,0.0041
3239.00,0.0041
3238.00,0.0041
3237.00,0.0042
3236.00,0.0042
3235.00,0.0042
3234.00,0.0042
3233.00,0.0042
3232.00,0.0042
3231.00,0.0042
3230.00,0.0042
3229.00,0.0041
3228.00,0.0041
3227.00,0.0042
3226.00,0.0042
3225.00,0.0042
3224.00,0.0043
3223.00,0.0043
3222.00,0.0043
3221.00,0.0043
3220.00,0.0043
3219.00,0.0043
3218.00,0.0043
3217.00,0.0043
3216.00,0.0044
3215.00,0.0044
3214.00,0.0044
3213.00,0.0044
3212.00,0.0044
3211.00,0.0044
3210.00,0.0044
3209.00,0.0044
3208.00,0.0044
3207.00,0.0044
3206.00,0.0044
3205.00,0.0044
3204.00,0.0044
3203.00,0.0044
3202.00,0.0045
3201.00,0.0045
3200.00,0.0045
3199.00,0.0045
3198.00,0.0044
3197.00,0.0044
3196.00,0.0043
3195.00,0.0043
3194.00,0.0043
3193.00,0.0043
3192.00,0.0043
3191.00,0.0043
3190.00,0.0043
3189.00,0.0042
3188.00,0.0042
3187.00,0.0042
3186.00,0.0042
3185.00,0.0042
3184.00,0.0042
3183.00,0.0042
3182.00,0.0041
3181.00,0.0041
3180.00,0.0041
3179.00,0.0041
3178.00,0.0040
3177.00,0.0040
3176.00,0.0039
3175.00,0.0039
3174.00,0.0038
3173.00,0.0038
3172.00,0.0038
3171.00,0.0038
3170.00,0.0038
3169.00,0.0039
3168.00,0.0039
3167.00,0.0039
3166.00,0.0039
3165.00,0.0039
3164.00,0.0039
3163.00,0.0039
3162.00,0.0038
3161.00,0.0037
3160.00,0.0037
3159.00,0.0037
3158.00,0.0037
3157.00,0.0037
3156.00,0.0037
3155.00,0.0037
3154.00,0.0037
3153.00,0.0037
3152.00,0.0037
3151.00,0.0037
3150.00,0.0037
3149.00,0.0037
3148.00,0.0037
3147.00,0.0036
3146.00,0.0036
3145.00,0.0037
3144.00,0.0037
3143.00,0.0037
3142.00,0.0036
3141.00,0.0036
3140.00,0.0036
3139.00,0.0035
3138.00,0.0035
3137.00,0.0035
3136.00,0.0035
3135.00,0.0035
3134.00,0.0034
3133.00,0.0034
3132.00,0.0034
3131.00,0.0034
3130.00,0.0034
3129.00,0.0034
3128.00,0.0033
3127.00,0.0033
3126.00,0.0033
3125.00,0.0032
3124.00,0.0031
3123.00,0.0031
3122.00,0.0031
3121.00,0.0031
3120.00,0.0031
3119.00,0.0031
3118.00,0.0031
3117.00,0.0031
3116.00,0.0031
3115.00,0.0031
3114.00,0.0031
3113.00,0.0031
3112.00,0.0030
3111.00,0.0030
3110.00,0.0030
3109.00,0.0029
3108.00,0.0029
3107.00,0.0028
3106.00,0.0028
3105.00,0.0029
3104.00,0.0029
3103.00,0.0029
3102.00,0.0029
3101.00,0.0028
3100.00,0.0028
3099.00,0.0028
3098.00,0.0028
3097.00,0.0028
3096.00,0.0028
3095.00,0.0028
3094.00,0.0028
3093.00,0.0028
3092.00,0.0028
3091.00,0.0028
3090.00,0.0027
3089.00,0.0027
3088.00,0.0027
3087.00,0.0027
3086.00,0.0027
3085.00,0.0027
3084.00,0.0027
3083.00,0.0027
3082.00,0.0027
3081.00,0.0027
3080.00,0.0027
3079.00,0.0027
3078.00,0.0027
3077.00,0.0027
3076.00,0.0027
3075.00,0.0027
3074.00,0.0027
3073.00,0.0027
3072.00,0.0027
3071.00,0.0027
3070.00,0.0027
3069.00,0.0028
3068.00,0.0028
3067.00,0.0029
3066.00,0.0029
3065.00,0.0029
3064.00,0.0029
3063.00,0.0029
3062.00,0.0029
3061.00,0.0029
3060.00,0.0029
3059.00,0.0029
3058.00,0.0029
3057.00,0.0029
3056.00,0.0030
3055.00,0.0030
3054.00,0.0030
3053.00,0.0031
3052.00,0.0031
3051.00,0.0030
3050.00,0.0030
3049.00,0.0030
3048.00,0.0030
3047.00,0.0031
3046.00,0.0031
3045.00,0.0031
3044.00,0.0031
3043.00,0.0032
3042.00,0.0032
3041.00,0.0032
3040.00,0.0033
3039.00,0.0033
3038.00,0.0033
3037.00,0.0033
3036.00,0.0034
3035.00,0.0034
3034.00,0.0034
3033.00,0.0034
3032.00,0.0034
3031.00,0.0035
3030.00,0.0035
3029.00,0.0036
3028.00,0.0037
3027.00,0.0038
3026.00,0.0039
3025.00,0.0039
3024.00,0.0040
3023.00,0.0040
3022.00,0.0041
3021.00,0.0042
3020.00,0.0043
3019.00,0.0044
3018.00,0.0045
3017.00,0.0045
3016.00,0.0046
3015.00,0.0047
3014.00,0.0048
3013.00,0.0049
3012.00,0.0050
3011.00,0.0051
3010.00,0.0053
3009.00,0.0054
3008.00,0.0056
3007.00,0.0058
3006.00,0.0060
3005.00,0.0062
3004.00,0.0064
3003.00,0.0066
3002.00,0.0068
3001.00,0.0071
3000.00,0.0074
2999.00,0.0076
2998.00,0.0079
2997.00,0.0083
2996.00,0.0086
2995.00,0.0090
2994.00,0.0094
2993.00,0.0099
2992.00,0.0104
2991.00,0.0110
2990.00,0.0117
2989.00,0.0124
2988.00,0.0132
2987.00,0.0140
2986.00,0.0150
2985.00,0.0161
2984.00,0.0173
2983.00,0.0186
2982.00,0.0201
2981.00,0.0217
2980.00,0.0236
2979.00,0.0257
2978.00,0.0281
2977.00,0.0308
2976.00,0.0339
2975.00,0.0375
2974.00,0.0415
2973.00,0.0460
2972.00,0.0511
2971.00,0.0567
2970.00,0.0629
2969.00,0.0696
2968.00,0.0768
2967.00,0.0843
2966.00,0.0921
2965.00,0.0997
2964.00,0.1070
2963.00,0.1137
2962.00,0.1195
2961.00,0.1244
2960.00,0.1288
2959.00,0.1330
2958.00,0.1377
2957.00,0.1432
2956.00,0.1500
2955.00,0.1583
2954.00,0.1678
2953.00,0.1779
2952.00,0.1876
2951.00,0.1956
2950.00,0.2006
2949.00,0.2015
2948.00,0.1976
2947.00,0.1891
2946.00,0.1770
2945.00,0.1629
2944.00,0.1485
2943.00,0.1355
2942.00,0.1248
2941.00,0.1170
2940.00,0.1119
2939.00,0.1095
2938.00,0.1094
2937.00,0.1114
2936.00,0.1153
2935.00,0.1210
2934.00,0.1282
2933.00,0.1369
2932.00,0.1469
2931.00,0.1580
2930.00,0.1698
2929.00,0.1821
2928.00,0.1945
2927.00,0.2066
2926.00,0.2184
2925.00,0.2297
2924.00,0.2408
2923.00,0.2518
2922.00,0.2628
2921.00,0.2735
2920.00,0.2834
2919.00,0.2913
2918.00,0.2962
2917.00,0.2970
2916.00,0.2934
2915.00,0.2857
2914.00,0.2750
2913.00,0.2626
2912.00,0.2498
2911.00,0.2374
2910.00,0.2259
2909.00,0.2154
2908.00,0.2057
2907.00,0.1965
2906.00,0.1877
2905.00,0.1791
2904.00,0.1708
2903.00,0.1627
2902.00,0.1550
2901.00,0.1476
2900.00,0.1406
2899.00,0.1340
2898.00,0.1280
2897.00,0.1227
2896.00,0.1180
2895.00,0.1141
2894.00,0.1109
2893.00,0.1086
2892.00,0.1069
2891.00,0.1059
2890.00,0.1056
2889.00,0.1057
2888.00,0.1063
2887.00,0.1073
2886.00,0.1087
2885.00,0.1104
2884.00,0.1127
2883.00,0.1155
2882.00,0.1188
2881.00,0.1225
2880.00,0.1262
2879.00,0.1295
2878.00,0.1318
2877.00,0.1330
2876.00,0.1329
2875.00,0.1322
2874.00,0.1313
2873.00,0.1309
2872.00,0.1314
2871.00,0.1329
2870.00,0.1352
2869.00,0.1377
2868.00,0.1396
2867.00,0.1399
2866.00,0.1376
2865.00,0.1322
2864.00,0.1240
2863.00,0.1138
2862.00,0.1029
2861.00,0.0925
2860.00,0.0835
2859.00,0.0761
2858.00,0.0704
2857.00,0.0662
2856.00,0.0633
2855.00,0.0614
2854.00,0.0603
2853.00,0.0600
2852.00,0.0604
2851.00,0.0615
2850.00,0.0632
2849.00,0.0657
2848.00,0.0690
2847.00,0.0731
2846.00,0.0782
2845.00,0.0842
2844.00,0.0909
2843.00,0.0983
2842.00,0.1059
2841.00,0.1131
2840.00,0.1191
2839.00,0.1230
2838.00,0.1241
2837.00,0.1217
2836.00,0.1158
2835.00,0.1070
2834.00,0.0963
2833.00,0.0850
2832.00,0.0741
2831.00,0.0645
2830.00,0.0563
2829.00,0.0496
2828.00,0.0442
2827.00,0.0398
2826.00,0.0363
2825.00,0.0334
2824.00,0.0310
2823.00,0.0291
2822.00,0.0274
2821.00,0.0259
2820.00,0.0247
2819.00,0.0236
2818.00,0.0226
2817.00,0.0218
2816.00,0.0210
2815.00,0.0204
2814.00,0.0198
2813.00,0.0192
2812.00,0.0187
2811.00,0.0181
2810.00,0.0175
2809.00,0.0168
2808.00,0.0162
2807.00,0.0155
2806.00,0.0148
2805.00,0.0141
2804.00,0.0135
2803.00,0.0129
2802.00,0.0123
2801.00,0.0118
2800.00,0.0114
2799.00,0.0110
2798.00,0.0108
2797.00,0.0105
2796.00,0.0103
2795.00,0.0101
2794.00,0.0098
2793.00,0.0095
2792.00,0.0092
2791.00,0.0089
2790.00,0.0086
2789.00,0.0083
2788.00,0.0080
2787.00,0.0078
2786.00,0.0076
2785.00,0.0074
2784.00,0.0072
2783.00,0.0070
2782.00,0.0068
2781.00,0.0066
2780.00,0.0064
2779.00,0.0062
2778.00,0.0061
2777.00,0.0060
2776.00,0.0058
2775.00,0.0057
2774.00,0.0057
2773.00,0.0056
2772.00,0.0056
2771.00,0.0055
2770.00,0.0055
2769.00,0.0054
2768.00,0.0053
2767.00,0.0053
2766.00,0.0053
2765.00,0.0053
2764.00,0.0053
2763.00,0.0053
2762.00,0.0053
2761.00,0.0052
2760.00,0.0052
2759.00,0.0052
2758.00,0.0051
2757.00,0.0051
2756.00,0.0051
2755.00,0.0051
2754.00,0.0050
2753.00,0.0050
2752.00,0.0050
2751.00,0.0049
2750.00,0.0049
2749.00,0.0050
2748.00,0.0050
2747.00,0.0050
2746.00,0.0051
2745.00,0.0051
2744.00,0.0052
2743.00,0.0053
2742.00,0.0054
2741.00,0.0055
2740.00,0.0057
2739.00,0.0058
2738.00,0.0060
2737.00,0.0061
2736.00,0.0063
2735.00,0.0065
2734.00,0.0067
2733.00,0.0069
2732.00,0.0071
2731.00,0.0073
2730.00,0.0076
2729.00,0.0078
2728.00,0.0082
2727.00,0.0085
2726.00,0.0088
2725.00,0.0090
2724.00,0.0091
2723.00,0.0091
2722.00,0.0090
2721.00,0.0088
2720.00,0.0085
2719.00,0.0082
2718.00,0.0078
2717.00,0.0075
2716.00,0.0072
2715.00,0.0069
2714.00,0.0067
2713.00,0.0064
2712.00,0.0062
2711.00,0.0059
2710.00,0.0057
2709.00,0.0055
2708.00,0.0054
2707.00,0.0052
2706.00,0.0050
2705.00,0.0049
2704.00,0.0048
2703.00,0.0047
2702.00,0.0046
2701.00,0.0045
2700.00,0.0044
2699.00,0.0044
2698.00,0.0043
2697.00,0.0043
2696.00,0.0043
2695.00,0.0042
2694.00,0.0042
2693.00,0.0042
2692.00,0.0042
2691.00,0.0042
2690.00,0.0043
2689.00,0.0043
2688.00,0.0043
2687.00,0.0042
2686.00,0.0042
2685.00,0.0042
2684.00,0.0042
2683.00,0.0042
2682.00,0.0043
2681.00,0.0043
2680.00,0.0043
2679.00,0.0043
2678.00,0.0043
2677.00,0.0043
2676.00,0.0043
2675.00,0.0043
2674.00,0.0043
2673.00,0.0043
2672.00,0.0042
2671.00,0.0042
2670.00,0.0042
2669.00,0.0042
2668.00,0.0043
2667.00,0.0043
2666.00,0.0044
2665.00,0.0044
2664.00,0.0045
2663.00,0.0046
2662.00,0.0046
2661.00,0.0047
2660.00,0.0047
2659.00,0.0047
2658.00,0.0047
2657.00,0.0046
2656.00,0.0046
2655.00,0.0045
2654.00,0.0045
2653.00,0.0044
2652.00,0.0043
2651.00,0.0043
2650.00,0.0043
2649.00,0.0042
2648.00,0.0042
2647.00,0.0041
2646.00,0.0041
2645.00,0.0041
2644.00,0.0040
2643.00,0.0039
2642.00,0.0039
2641.00,0.0038
2640.00,0.0038
2639.00,0.0037
2638.00,0.0037
2637.00,0.0036
2636.00,0.0035
2635.00,0.0035
2634.00,0.0035
2633.00,0.0035
2632.00,0.0035
2631.00,0.0036
2630.00,0.0036
2629.00,0.0037
2628.00,0.0037
2627.00,0.0038
2626.00,0.0038
2625.00,0.0038
2624.00,0.0038
2623.00,0.0038
2622.00,0.0038
2621.00,0.0038
2620.00,0.0038
2619.00,0.0039
2618.00,0.0039
2617.00,0.0040
2616.00,0.0040
2615.00,0.0040
2614.00,0.0039
2613.00,0.0039
2612.00,0.0038
2611.00,0.0038
2610.00,0.0037
2609.00,0.0037
2608.00,0.0036
2607.00,0.0035
2606.00,0.0034
2605.00,0.0033
2604.00,0.0031
2603.00,0.0031
2602.00,0.0031
2601.00,0.0031
2600.00,0.0032
2599.00,0.0032
2598.00,0.0033
2597.00,0.0033
2596.00,0.0034
2595.00,0.0033
2594.00,0.0033
2593.00,0.0033
2592.00,0.0034
2591.00,0.0034
2590.00,0.0035
2589.00,0.0036
2588.00,0.0037
2587.00,0.0038
2586.00,0.0039
2585.00,0.0040
2584.00,0.0041
2583.00,0.0042
2582.00,0.0042
2581.00,0.0042
2580.00,0.0042
2579.00,0.0040
2578.00,0.0039
2577.00,0.0037
2576.00,0.0035
2575.00,0.0034
2574.00,0.0033
2573.00,0.0032
2572.00,0.0031
2571.00,0.0029
2570.00,0.0028
2569.00,0.0027
2568.00,0.0026
2567.00,0.0026
2566.00,0.0026
2565.00,0.0026
2564.00,0.0025
2563.00,0.0025
2562.00,0.0025
2561.00,0.0025
2560.00,0.0025
2559.00,0.0024
2558.00,0.0023
2557.00,0.0023
2556.00,0.0022
2555.00,0.0022
2554.00,0.0022
2553.00,0.0022
2552.00,0.0021
2551.00,0.0021
2550.00,0.0020
2549.00,0.0019
2548.00,0.0019
2547.00,0.0018
2546.00,0.0018
2545.00,0.0018
2544.00,0.0018
2543.00,0.0018
2542.00,0.0018
2541.00,0.0019
2540.00,0.0018
2539.00,0.0018
2538.00,0.0017
2537.00,0.0016
2536.00,0.0016
2535.00,0.0015
2534.00,0.0015
2533.00,0.0015
2532.00,0.0015
2531.00,0.0014
2530.00,0.0014
2529.00,0.0014
2528.00,0.0014
2527.00,0.0014
2526.00,0.0014
2525.00,0.0013
2524.00,0.0014
2523.00,0.0014
2522.00,0.0013
2521.00,0.0013
2520.00,0.0012
2519.00,0.0011
2518.00,0.0011
2517.00,0.0011
2516.00,0.0011
2515.00,0.0011
2514.00,0.0010
2513.00,0.0010
2512.00,0.0010
2511.00,0.0010
2510.00,0.0010
2509.00,0.0009
2508.00,0.0009
2507.00,0.0009
2506.00,0.0010
2505.00,0.0010
2504.00,0.0011
2503.00,0.0011
2502.00,0.0010
2501.00,0.0010
2500.00,0.0010
2499.00,0.0009
2498.00,0.0010
2497.00,0.0010
2496.00,0.0011
2495.00,0.0011
2494.00,0.0011
2493.00,0.0011
2492.00,0.0010
2491.00,0.0010
2490.00,0.0009
2489.00,0.0008
2488.00,0.0008
2487.00,0.0009
2486.00,0.0009
2485.00,0.0009
2484.00,0.0009
2483.00,0.0008
2482.00,0.0008
2481.00,0.0008
2480.00,0.0008
2479.00,0.0009
2478.00,0.0009
2477.00,0.0009
2476.00,0.0009
2475.00,0.0010
2474.00,0.0010
2473.00,0.0010
2472.00,0.0009
2471.00,0.0009
2470.00,0.0009
2469.00,0.0009
2468.00,0.0009
2467.00,0.0008
2466.00,0.0008
2465.00,0.0008
2464.00,0.0008
2463.00,0.0009
2462.00,0.0009
2461.00,0.0010
2460.00,0.0011
2459.00,0.0011
2458.00,0.0012
2457.00,0.0012
2456.00,0.0011
2455.00,0.0011
2454.00,0.0010
2453.00,0.0010
2452.00,0.0011
2451.00,0.0011
2450.00,0.0012
2449.00,0.0011
2448.00,0.0011
2447.00,0.0011
2446.00,0.0011
2445.00,0.0010
2444.00,0.0010
2443.00,0.0010
2442.00,0.0010
2441.00,0.0010
2440.00,0.0010
2439.00,0.0010
2438.00,0.0010
2437.00,0.0010
2436.00,0.0011
2435.00,0.0011
2434.00,0.0011
2433.00,0.0011
2432.00,0.0011
2431.00,0.0011
2430.00,0.0011
2429.00,0.0011
2428.00,0.0011
2427.00,0.0011
2426.00,0.0011
2425.00,0.0011
2424.00,0.0011
2423.00,0.0010
2422.00,0.0010
2421.00,0.0010
2420.00,0.0009
2419.00,0.0010
2418.00,0.0010
2417.00,0.0010
2416.00,0.0010
2415.00,0.0009
2414.00,0.0008
2413.00,0.0008
2412.00,0.0009
2411.00,0.0009
2410.00,0.0009
2409.00,0.0009
2408.00,0.0008
2407.00,0.0008
2406.00,0.0008
2405.00,0.0007
2404.00,0.0007
2403.00,0.0007
2402.00,0.0006
2401.00,0.0006
2400.00,0.0006
2399.00,0.0006
2398.00,0.0007
2397.00,0.0007
2396.00,0.0008
2395.00,0.0008
2394.00,0.0007
2393.00,0.0007
2392.00,0.0007
2391.00,0.0007
2390.00,0.0006
2389.00,0.0006
2388.00,0.0005
2387.00,0.0004
2386.00,0.0003
2385.00,0.0003
2384.00,0.0002
2383.00,0.0002
2382.00,0.0001
2381.00,0.0001
2380.00,0.0000
2379.00,-0.0000
2378.00,-0.0000
2377.00,-0.0000
2376.00,0.0000
2375.00,0.0001
2374.00,0.0001
2373.00,0.0001
2372.00,0.0001
2371.00,0.0001
2370.00,0.0001
2369.00,0.0001
2368.00,0.0000
2367.00,-0.0000
2366.00,-0.0001
2365.00,-0.0001
2364.00,-0.0001
2363.00,-0.0001
2362.00,-0.0000
2361.00,0.0000
2360.00,0.0000
2359.00,0.0000
2358.00,0.0000
2357.00,0.0001
2356.00,0.0001
2355.00,0.0001
2354.00,0.0001
2353.00,0.0001
2352.00,0.0001
2351.00,0.0001
2350.00,0.0001
2349.00,0.0001
2348.00,0.0002
2347.00,0.0002
2346.00,0.0002
2345.00,0.0002
2344.00,0.0003
2343.00,0.0004
2342.00,0.0004
2341.00,0.0004
2340.00,0.0004
2339.00,0.0004
2338.00,0.0005
2337.00,0.0005
2336.00,0.0005
2335.00,0.0005
2334.00,0.0004
2333.00,0.0004
2332.00,0.0003
2331.00,0.0003
2330.00,0.0003
2329.00,0.0004
2328.00,0.0006
2327.00,0.0009
2326.00,0.0014
2325.00,0.0017
2324.00,0.0019
2323.00,0.0018
2322.00,0.0015
2321.00,0.0013
2320.00,0.0011
2319.00,0.0010
2318.00,0.0009
2317.00,0.0009
2316.00,0.0009
2315.00,0.0009
2314.00,0.0009
2313.00,0.0008
2312.00,0.0006
2311.00,0.0004
2310.00,0.0003
2309.00,0.0003
2308.00,0.0004
2307.00,0.0005
2306.00,0.0006
2305.00,0.0007
2304.00,0.0007
2303.00,0.0007
2302.00,0.0007
2301.00,0.0007
2300.00,0.0007
2299.00,0.0008
2298.00,0.0008
2297.00,0.0009
2296.00,0.0009
2295.00,0.0010
2294.00,0.0011
2293.00,0.0012
2292.00,0.0013
2291.00,0.0014
2290.00,0.0015
2289.00,0.0016
2288.00,0.0016
2287.00,0.0017
2286.00,0.0017
2285.00,0.0018
2284.00,0.0017
2283.00,0.0017
2282.00,0.0017
2281.00,0.0017
2280.00,0.0017
2279.00,0.0016
2278.00,0.0015
2277.00,0.0015
2276.00,0.0014
2275.00,0.0014
2274.00,0.0014
2273.00,0.0014
2272.00,0.0014
2271.00,0.0014
2270.00,0.0014
2269.00,0.0013
2268.00,0.0013
2267.00,0.0012
2266.00,0.0011
2265.00,0.0011
2264.00,0.0011
2263.00,0.0011
2262.00,0.0011
2261.00,0.0013
2260.00,0.0014
2259.00,0.0014
2258.00,0.0013
2257.00,0.0011
2256.00,0.0010
2255.00,0.0009
2254.00,0.0008
2253.00,0.0006
2252.00,0.0006
2251.00,0.0006
2250.00,0.0007
2249.00,0.0009
2248.00,0.0010
2247.00,0.0010
2246.00,0.0010
2245.00,0.0010
2244.00,0.0010
2243.00,0.0009
2242.00,0.0008
2241.00,0.0008
2240.00,0.0009
2239.00,0.0010
2238.00,0.0010
2237.00,0.0011
2236.00,0.0011
2235.00,0.0010
2234.00,0.0009
2233.00,0.0008
2232.00,0.0007
2231.00,0.0006
2230.00,0.0006
2229.00,0.0008
2228.00,0.0009
2227.00,0.0011
2226.00,0.0012
2225.00,0.0012
2224.00,0.0013
2223.00,0.0012
2222.00,0.0010
2221.00,0.0008
2220.00,0.0006
2219.00,0.0005
2218.00,0.0004
2217.00,0.0004
2216.00,0.0003
2215.00,0.0003
2214.00,0.0004
2213.00,0.0005
2212.00,0.0006
2211.00,0.0006
2210.00,0.0005
2209.00,0.0004
2208.00,0.0004
2207.00,0.0005
2206.00,0.0006
2205.00,0.0008
2204.00,0.0009
2203.00,0.0010
2202.00,0.0010
2201.00,0.0009
2200.00,0.0007
2199.00,0.0005
2198.00,0.0005
2197.00,0.0006
2196.00,0.0007
2195.00,0.0007
2194.00,0.0006
2193.00,0.0005
2192.00,0.0005
2191.00,0.0007
2190.00,0.0008
2189.00,0.0011
2188.00,0.0013
2187.00,0.0015
2186.00,0.0016
2185.00,0.0014
2184.00,0.0012
2183.00,0.0009
2182.00,0.0007
2181.00,0.0006
2180.00,0.0005
2179.00,0.0005
2178.00,0.0004
2177.00,0.0002
2176.00,0.0002
2175.00,0.0003
2174.00,0.0005
2173.00,0.0007
2172.00,0.0009
2171.00,0.0011
2170.00,0.0012
2169.00,0.0013
2168.00,0.0013
2167.00,0.0013
2166.00,0.0013
2165.00,0.0014
2164.00,0.0015
2163.00,0.0017
2162.00,0.0018
2161.00,0.0016
2160.00,0.0009
2159.00,-0.0003
2158.00,-0.0014
2157.00,-0.0019
2156.00,-0.0019
2155.00,-0.0018
2154.00,-0.0020
2153.00,-0.0021
2152.00,-0.0022
2151.00,-0.0022
2150.00,-0.0021
2149.00,-0.0019
2148.00,-0.0018
2147.00,-0.0016
2146.00,-0.0016
2145.00,-0.0016
2144.00,-0.0016
2143.00,-0.0016
2142.00,-0.0016
2141.00,-0.0015
2140.00,-0.0013
2139.00,-0.0012
2138.00,-0.0012
2137.00,-0.0012
2136.00,-0.0013
2135.00,-0.0015
2134.00,-0.0018
2133.00,-0.0020
2132.00,-0.0020
2131.00,-0.0018
2130.00,-0.0016
2129.00,-0.0013
2128.00,-0.0011
2127.00,-0.0009
2126.00,-0.0007
2125.00,-0.0007
2124.00,-0.0007
2123.00,-0.0007
2122.00,-0.0007
2121.00,-0.0006
2120.00,-0.0005
2119.00,-0.0004
2118.00,-0.0002
2117.00,0.0000
2116.00,0.0002
2115.00,0.0004
2114.00,0.0004
2113.00,0.0004
2112.00,0.0004
2111.00,0.0004
2110.00,0.0003
2109.00,0.0003
2108.00,0.0003
2107.00,0.0002
2106.00,0.0001
2105.00,0.0000
2104.00,0.0000
2103.00,0.0000
2102.00,0.0001
2101.00,0.0001
2100.00,0.0001
2099.00,0.0001
2098.00,0.0000
2097.00,0.0000
2096.00,-0.0001
2095.00,-0.0001
2094.00,-0.0001
2093.00,-0.0000
2092.00,0.0000
2091.00,0.0001
2090.00,0.0002
2089.00,0.0002
2088.00,0.0003
2087.00,0.0004
2086.00,0.0004
2085.00,0.0004
2084.00,0.0003
2083.00,0.0002
2082.00,0.0001
2081.00,0.0001
2080.00,0.0001
2079.00,0.0002
2078.00,0.0002
2077.00,0.0003
2076.00,0.0003
2075.00,0.0003
2074.00,0.0002
2073.00,0.0002
2072.00,0.0002
2071.00,0.0003
2070.00,0.0004
2069.00,0.0004
2068.00,0.0003
2067.00,0.0003
2066.00,0.0003
2065.00,0.0004
2064.00,0.0005
2063.00,0.0006
2062.00,0.0007
2061.00,0.0007
2060.00,0.0007
2059.00,0.0007
2058.00,0.0006
2057.00,0.0005
2056.00,0.0003
2055.00,0.0002
2054.00,0.0003
2053.00,0.0007
2052.00,0.0011
2051.00,0.0013
2050.00,0.0011
2049.00,0.0006
2048.00,0.0004
2047.00,0.0003
2046.00,0.0004
2045.00,0.0004
2044.00,0.0003
2043.00,0.0002
2042.00,0.0002
2041.00,0.0001
2040.00,0.0002
2039.00,0.0002
2038.00,0.0001
2037.00,0.0001
2036.00,-0.0000
2035.00,-0.0002
2034.00,-0.0004
2033.00,-0.0007
2032.00,-0.0008
2031.00,-0.0009
2030.00,-0.0008
2029.00,-0.0007
2028.00,-0.0005
2027.00,-0.0004
2026.00,-0.0005
2025.00,-0.0007
2024.00,-0.0010
2023.00,-0.0013
2022.00,-0.0015
2021.00,-0.0014
2020.00,-0.0012
2019.00,-0.0009
2018.00,-0.0008
2017.00,-0.0009
2016.00,-0.0010
2015.00,-0.0011
2014.00,-0.0010
2013.00,-0.0008
2012.00,-0.0006
2011.00,-0.0005
2010.00,-0.0004
2009.00,-0.0004
2008.00,-0.0007
2007.00,-0.0011
2006.00,-0.0015
2005.00,-0.0016
2004.00,-0.0013
2003.00,-0.0011
2002.00,-0.0010
2001.00,-0.0009
2000.00,-0.0010
1999.00,-0.0010
1998.00,-0.0011
1997.00,-0.0011
1996.00,-0.0009
1995.00,-0.0006
1994.00,-0.0004
1993.00,-0.0004
1992.00,-0.0005
1991.00,-0.0006
1990.00,-0.0006
1989.00,-0.0004
1988.00,-0.0002
1987.00,-0.0001
1986.00,-0.0000
1985.00,0.0000
1984.00,0.0002
1983.00,0.0005
1982.00,0.0009
1981.00,0.0011
1980.00,0.0010
1979.00,0.0004
1978.00,-0.0002
1977.00,-0.0005
1976.00,-0.0006
1975.00,-0.0006
1974.00,-0.0007
1973.00,-0.0009
1972.00,-0.0010
1971.00,-0.0012
1970.00,-0.0013
1969.00,-0.0015
1968.00,-0.0015
1967.00,-0.0015
1966.00,-0.0013
1965.00,-0.0012
1964.00,-0.0011
1963.00,-0.0012
1962.00,-0.0013
1961.00,-0.0016
1960.00,-0.0018
1959.00,-0.0022
1958.00,-0.0024
1957.00,-0.0025
1956.00,-0.0024
1955.00,-0.0022
1954.00,-0.0020
1953.00,-0.0018
1952.00,-0.0017
1951.00,-0.0017
1950.00,-0.0018
1949.00,-0.0019
1948.00,-0.0020
1947.00,-0.0021
1946.00,-0.0021
1945.00,-0.0020
1944.00,-0.0019
1943.00,-0.0016
1942.00,-0.0014
1941.00,-0.0012
1940.00,-0.0011
1939.00,-0.0011
1938.00,-0.0012
1937.00,-0.0013
1936.00,-0.0013
1935.00,-0.0012
1934.00,-0.0012
1933.00,-0.0011
1932.00,-0.0010
1931.00,-0.0011
1930.00,-0.0011
1929.00,-0.0011
1928.00,-0.0010
1927.00,-0.0009
1926.00,-0.0008
1925.00,-0.0007
1924.00,-0.0005
1923.00,-0.0004
1922.00,-0.0004
1921.00,-0.0003
1920.00,-0.0003
1919.00,-0.0003
1918.00,-0.0002
1917.00,-0.0001
1916.00,0.0000
1915.00,0.0000
1914.00,-0.0000
1913.00,-0.0002
1912.00,-0.0003
1911.00,-0.0004
1910.00,-0.0005
1909.00,-0.0004
1908.00,-0.0003
1907.00,-0.0003
1906.00,-0.0002
1905.00,-0.0002
1904.00,-0.0003
1903.00,-0.0002
1902.00,-0.0001
1901.00,0.0001
1900.00,0.0001
1899.00,0.0001
1898.00,-0.0001
1897.00,-0.0002
1896.00,-0.0002
1895.00,-0.0001
1894.00,-0.0001
1893.00,-0.0001
1892.00,-0.0000
1891.00,-0.0000
1890.00,-0.0000
1889.00,-0.0001
1888.00,-0.0001
1887.00,-0.0001
1886.00,-0.0002
1885.00,-0.0002
1884.00,-0.0002
1883.00,-0.0002
1882.00,-0.0001
1881.00,-0.0001
1880.00,-0.0002
1879.00,-0.0002
1878.00,-0.0002
1877.00,-0.0002
1876.00,-0.0002
1875.00,-0.0002
1874.00,-0.0002
1873.00,-0.0002
1872.00,-0.0002
1871.00,-0.0002
1870.00,-0.0002
1869.00,-0.0002
1868.00,-0.0001
1867.00,-0.0000
1866.00,0.0000
1865.00,0.0000
1864.00,-0.0000
1863.00,-0.0000
1862.00,-0.0001
1861.00,-0.0000
1860.00,-0.0000
1859.00,0.0000
1858.00,0.0001
1857.00,0.0001
1856.00,0.0001
1855.00,0.0000
1854.00,-0.0000
1853.00,-0.0001
1852.00,-0.0000
1851.00,0.0000
1850.00,0.0001
1849.00,0.0001
1848.00,0.0001
1847.00,0.0001
1846.00,0.0000
1845.00,-0.0000
1844.00,-0.0001
1843.00,-0.0000
1842.00,-0.0000
1841.00,-0.0000
1840.00,-0.0001
1839.00,-0.0001
1838.00,-0.0001
1837.00,-0.0000
1836.00,0.0001
1835.00,0.0002
1834.00,0.0002
1833.00,0.0003
1832.00,0.0003
1831.00,0.0003
1830.00,0.0003
1829.00,0.0004
1828.00,0.0004
1827.00,0.0003
1826.00,0.0003
1825.00,0.0002
1824.00,0.0002
1823.00,0.0002
1822.00,0.0002
1821.00,0.0002
1820.00,0.0001
1819.00,-0.0000
1818.00,-0.0002
1817.00,-0.0003
1816.00,-0.0003
1815.00,-0.0002
1814.00,-0.0001
1813.00,-0.0000
1812.00,0.0000
1811.00,0.0001
1810.00,0.0001
1809.00,0.0001
1808.00,0.0001
1807.00,0.0002
1806.00,0.0002
1805.00,0.0002
1804.00,0.0003
1803.00,0.0003
1802.00,0.0003
1801.00,0.0002
1800.00,0.0003
1799.00,0.0003
1798.00,0.0003
1797.00,0.0003
1796.00,0.0003
1795.00,0.0003
1794.00,0.0003
1793.00,0.0003
1792.00,0.0004
1791.00,0.0005
1790.00,0.0005
1789.00,0.0006
1788.00,0.0006
1787.00,0.0006
1786.00,0.0007
1785.00,0.0007
1784.00,0.0008
1783.00,0.0007
1782.00,0.0007
1781.00,0.0006
1780.00,0.0006
1779.00,0.0006
1778.00,0.0005
1777.00,0.0005
1776.00,0.0005
1775.00,0.0005
1774.00,0.0006
1773.00,0.0007
1772.00,0.0007
1771.00,0.0007
1770.00,0.0007
1769.00,0.0007
1768.00,0.0007
1767.00,0.0007
1766.00,0.0008
1765.00,0.0008
1764.00,0.0008
1763.00,0.0008
1762.00,0.0008
1761.00,0.0009
1760.00,0.0009
1759.00,0.0009
1758.00,0.0010
1757.00,0.0010
1756.00,0.0010
1755.00,0.0011
1754.00,0.0010
1753.00,0.0010
1752.00,0.0010
1751.00,0.0010
1750.00,0.0010
1749.00,0.0010
1748.00,0.0010
1747.00,0.0010
1746.00,0.0010
1745.00,0.0009
1744.00,0.0009
1743.00,0.0009
1742.00,0.0008
1741.00,0.0008
1740.00,0.0007
1739.00,0.0007
1738.00,0.0007
1737.00,0.0007
1736.00,0.0007
1735.00,0.0006
1734.00,0.0004
1733.00,0.0004
1732.00,0.0005
1731.00,0.0005
1730.00,0.0004
1729.00,0.0004
1728.00,0.0003
1727.00,0.0003
1726.00,0.0003
1725.00,0.0003
1724.00,0.0004
1723.00,0.0005
1722.00,0.0006
1721.00,0.0008
1720.00,0.0010
1719.00,0.0011
1718.00,0.0013
1717.00,0.0014
1716.00,0.0015
1715.00,0.0016
1714.00,0.0016
1713.00,0.0017
1712.00,0.0017
1711.00,0.0017
1710.00,0.0018
1709.00,0.0018
1708.00,0.0019
1707.00,0.0019
1706.00,0.0019
1705.00,0.0020
1704.00,0.0021
1703.00,0.0022
1702.00,0.0023
1701.00,0.0023
1700.00,0.0022
1699.00,0.0022
1698.00,0.0023
1697.00,0.0023
1696.00,0.0024
1695.00,0.0024
1694.00,0.0025
1693.00,0.0025
1692.00,0.0025
1691.00,0.0026
1690.00,0.0026
1689.00,0.0026
1688.00,0.0027
1687.00,0.0027
1686.00,0.0027
1685.00,0.0027
1684.00,0.0028
1683.00,0.0029
1682.00,0.0030
1681.00,0.0031
1680.00,0.0031
1679.00,0.0031
1678.00,0.0032
1677.00,0.0033
1676.00,0.0033
1675.00,0.0033
1674.00,0.0033
1673.00,0.0034
1672.00,0.0034
1671.00,0.0034
1670.00,0.0034
1669.00,0.0036
1668.00,0.0037
1667.00,0.0037
1666.00,0.0037
1665.00,0.0037
1664.00,0.0038
1663.00,0.0038
1662.00,0.0039
1661.00,0.0040
1660.00,0.0041
1659.00,0.0042
1658.00,0.0042
1657.00,0.0042
1656.00,0.0044
1655.00,0.0045
1654.00,0.0047
1653.00,0.0048
1652.00,0.0048
1651.00,0.0048
1650.00,0.0048
1649.00,0.0048
1648.00,0.0049
1647.00,0.0050
1646.00,0.0050
1645.00,0.0050
1644.00,0.0050
1643.00,0.0050
1642.00,0.0051
1641.00,0.0051
1640.00,0.0052
1639.00,0.0052
1638.00,0.0053
1637.00,0.0053
1636.00,0.0054
1635.00,0.0054
1634.00,0.0054
1633.00,0.0054
1632.00,0.0054
1631.00,0.0054
1630.00,0.0053
1629.00,0.0053
1628.00,0.0053
1627.00,0.0053
1626.00,0.0053
1625.00,0.0053
1624.00,0.0054
1623.00,0.0053
1622.00,0.0053
1621.00,0.0053
1620.00,0.0053
1619.00,0.0052
1618.00,0.0052
1617.00,0.0053
1616.00,0.0053
1615.00,0.0053
1614.00,0.0053
1613.00,0.0053
1612.00,0.0053
1611.00,0.0053
1610.00,0.0052
1609.00,0.0052
1608.00,0.0052
1607.00,0.0052
1606.00,0.0051
1605.00,0.0052
1604.00,0.0052
1603.00,0.0051
1602.00,0.0051
1601.00,0.0051
1600.00,0.0051
1599.00,0.0050
1598.00,0.0050
1597.00,0.0050
1596.00,0.0049
1595.00,0.0049
1594.00,0.0049
1593.00,0.0048
1592.00,0.0048
1591.00,0.0047
1590.00,0.0047
1589.00,0.0047
1588.00,0.0047
1587.00,0.0047
1586.00,0.0046
1585.00,0.0046
1584.00,0.0046
1583.00,0.0045
1582.00,0.0045
1581.00,0.0045
1580.00,0.0046
1579.00,0.0046
1578.00,0.0047
1577.00,0.0047
1576.00,0.0047
1575.00,0.0047
1574.00,0.0047
1573.00,0.0047
1572.00,0.0047
1571.00,0.0047
1570.00,0.0047
1569.00,0.0047
1568.00,0.0047
1567.00,0.0048
1566.00,0.0048
1565.00,0.0048
1564.00,0.0049
1563.00,0.0050
1562.00,0.0051
1561.00,0.0053
1560.00,0.0054
1559.00,0.0054
1558.00,0.0053
1557.00,0.0053
1556.00,0.0054
1555.00,0.0054
1554.00,0.0054
1553.00,0.0055
1552.00,0.0055
1551.00,0.0056
1550.00,0.0056
1549.00,0.0056
1548.00,0.0056
1547.00,0.0056
1546.00,0.0056
1545.00,0.0057
1544.00,0.0057
1543.00,0.0056
1542.00,0.0056
1541.00,0.0054
1540.00,0.0054
1539.00,0.0053
1538.00,0.0052
1537.00,0.0052
1536.00,0.0052
1535.00,0.0051
1534.00,0.0050
1533.00,0.0049
1532.00,0.0049
1531.00,0.0049
1530.00,0.0048
1529.00,0.0048
1528.00,0.0048
1527.00,0.0048
1526.00,0.0047
1525.00,0.0047
1524.00,0.0047
1523.00,0.0047
1522.00,0.0046
1521.00,0.0046
1520.00,0.0047
1519.00,0.0048
1518.00,0.0048
1517.00,0.0048
1516.00,0.0048
1515.00,0.0048
1514.00,0.0048
1513.00,0.0049
1512.00,0.0050
1511.00,0.0051
1510.00,0.0052
1509.00,0.0054
1508.00,0.0055
1507.00,0.0056
1506.00,0.0057
1505.00,0.0058
1504.00,0.0059
1503.00,0.0059
1502.00,0.0061
1501.00,0.0063
1500.00,0.0066
1499.00,0.0069
1498.00,0.0071
1497.00,0.0075
1496.00,0.0078
1495.00,0.0081
1494.00,0.0084
1493.00,0.0087
1492.00,0.0091
1491.00,0.0095
1490.00,0.0099
1489.00,0.0104
1488.00,0.0110
1487.00,0.0114
1486.00,0.0118
1485.00,0.0123
1484.00,0.0129
1483.00,0.0135
1482.00,0.0143
1481.00,0.0153
1480.00,0.0164
1479.00,0.0175
1478.00,0.0188
1477.00,0.0207
1476.00,0.0229
1475.00,0.0256
1474.00,0.0293
1473.00,0.0348
1472.00,0.0415
1471.00,0.0482
1470.00,0.0547
1469.00,0.0615
1468.00,0.0690
1467.00,0.0773
1466.00,0.0868
1465.00,0.0972
1464.00,0.1066
1463.00,0.1133
1462.00,0.1178
1461.00,0.1210
1460.00,0.1233
1459.00,0.1248
1458.00,0.1258
1457.00,0.1263
1456.00,0.1259
1455.00,0.1248
1454.00,0.1233
1453.00,0.1212
1452.00,0.1180
1451.00,0.1136
1450.00,0.1077
1449.00,0.0998
1448.00,0.0900
1447.00,0.0798
1446.00,0.0707
1445.00,0.0632
1444.00,0.0568
1443.00,0.0518
1442.00,0.0481
1441.00,0.0458
1440.00,0.0445
1439.00,0.0442
1438.00,0.0449
1437.00,0.0455
1436.00,0.0448
1435.00,0.0422
1434.00,0.0380
1433.00,0.0330
1432.00,0.0278
1431.00,0.0233
1430.00,0.0199
1429.00,0.0174
1428.00,0.0158
1427.00,0.0148
1426.00,0.0141
1425.00,0.0135
1424.00,0.0129
1423.00,0.0126
1422.00,0.0124
1421.00,0.0123
1420.00,0.0121
1419.00,0.0119
1418.00,0.0117
1417.00,0.0115
1416.00,0.0112
1415.00,0.0112
1414.00,0.0111
1413.00,0.0110
1412.00,0.0109
1411.00,0.0109
1410.00,0.0109
1409.00,0.0109
1408.00,0.0108
1407.00,0.0108
1406.00,0.0109
1405.00,0.0109
1404.00,0.0109
1403.00,0.0111
1402.00,0.0113
1401.00,0.0115
1400.00,0.0116
1399.00,0.0118
1398.00,0.0121
1397.00,0.0123
1396.00,0.0126
1395.00,0.0130
1394.00,0.0136
1393.00,0.0141
1392.00,0.0147
1391.00,0.0156
1390.00,0.0169
1389.00,0.0187
1388.00,0.0213
1387.00,0.0253
1386.00,0.0305
1385.00,0.0371
1384.00,0.0457
1383.00,0.0574
1382.00,0.0730
1381.00,0.0934
1380.00,0.1195
1379.00,0.1506
1378.00,0.1828
1377.00,0.2090
1376.00,0.2217
1375.00,0.2149
1374.00,0.1902
1373.00,0.1576
1372.00,0.1266
1371.00,0.1005
1370.00,0.0796
1369.00,0.0637
1368.00,0.0528
1367.00,0.0461
1366.00,0.0426
1365.00,0.0413
1364.00,0.0416
1363.00,0.0434
1362.00,0.0461
1361.00,0.0490
1360.00,0.0511
1359.00,0.0517
1358.00,0.0504
1357.00,0.0472
1356.00,0.0426
1355.00,0.0375
1354.00,0.0326
1353.00,0.0284
1352.00,0.0251
1351.00,0.0224
1350.00,0.0202
1349.00,0.0185
1348.00,0.0172
1347.00,0.0161
1346.00,0.0152
1345.00,0.0145
1344.00,0.0139
1343.00,0.0135
1342.00,0.0131
1341.00,0.0129
1340.00,0.0126
1339.00,0.0124
1338.00,0.0122
1337.00,0.0122
1336.00,0.0123
1335.00,0.0125
1334.00,0.0128
1333.00,0.0133
1332.00,0.0138
1331.00,0.0142
1330.00,0.0144
1329.00,0.0142
1328.00,0.0138
1327.00,0.0132
1326.00,0.0124
1325.00,0.0116
1324.00,0.0109
1323.00,0.0103
1322.00,0.0099
1321.00,0.0095
1320.00,0.0092
1319.00,0.0090
1318.00,0.0087
1317.00,0.0085
1316.00,0.0083
1315.00,0.0081
1314.00,0.0080
1313.00,0.0080
1312.00,0.0080
1311.00,0.0082
1310.00,0.0085
1309.00,0.0089
1308.00,0.0095
1307.00,0.0103
1306.00,0.0110
1305.00,0.0116
1304.00,0.0119
1303.00,0.0119
1302.00,0.0117
1301.00,0.0117
1300.00,0.0117
1299.00,0.0119
1298.00,0.0121
1297.00,0.0123
1296.00,0.0122
1295.00,0.0120
1294.00,0.0115
1293.00,0.0108
1292.00,0.0101
1291.00,0.0095
1290.00,0.0089
1289.00,0.0084
1288.00,0.0080
1287.00,0.0077
1286.00,0.0074
1285.00,0.0073
1284.00,0.0071
1283.00,0.0069
1282.00,0.0067
1281.00,0.0066
1280.00,0.0064
1279.00,0.0063
1278.00,0.0062
1277.00,0.0061
1276.00,0.0060
1275.00,0.0060
1274.00,0.0060
1273.00,0.0060
1272.00,0.0060
1271.00,0.0061
1270.00,0.0061
1269.00,0.0062
1268.00,0.0063
1267.00,0.0065
1266.00,0.0067
1265.00,0.0069
1264.00,0.0071
1263.00,0.0073
1262.00,0.0076
1261.00,0.0079
1260.00,0.0084
1259.00,0.0089
1258.00,0.0095
1257.00,0.0100
1256.00,0.0103
1255.00,0.0103
1254.00,0.0100
1253.00,0.0095
1252.00,0.0091
1251.00,0.0086
1250.00,0.0083
1249.00,0.0081
1248.00,0.0080
1247.00,0.0079
1246.00,0.0079
1245.00,0.0078
1244.00,0.0078
1243.00,0.0078
1242.00,0.0077
1241.00,0.0076
1240.00,0.0075
1239.00,0.0074
1238.00,0.0074
1237.00,0.0074
1236.00,0.0073
1235.00,0.0073
1234.00,0.0073
1233.00,0.0073
1232.00,0.0073
1231.00,0.0074
1230.00,0.0075
1229.00,0.0076
1228.00,0.0076
1227.00,0.0078
1226.00,0.0080
1225.00,0.0083
1224.00,0.0087
1223.00,0.0090
1222.00,0.0094
1221.00,0.0097
1220.00,0.0099
1219.00,0.0099
1218.00,0.0099
1217.00,0.0097
1216.00,0.0095
1215.00,0.0093
1214.00,0.0089
1213.00,0.0086
1212.00,0.0082
1211.00,0.0078
1210.00,0.0075
1209.00,0.0072
1208.00,0.0071
1207.00,0.0070
1206.00,0.0070
1205.00,0.0069
1204.00,0.0068
1203.00,0.0067
1202.00,0.0066
1201.00,0.0066
1200.00,0.0066
1199.00,0.0066
1198.00,0.0066
1197.00,0.0066
1196.00,0.0066
1195.00,0.0066
1194.00,0.0066
1193.00,0.0065
1192.00,0.0065
1191.00,0.0065
1190.00,0.0065
1189.00,0.0065
1188.00,0.0065
1187.00,0.0066
1186.00,0.0066
1185.00,0.0067
1184.00,0.0068
1183.00,0.0069
1182.00,0.0071
1181.00,0.0073
1180.00,0.0075
1179.00,0.0079
1178.00,0.0083
1177.00,0.0090
1176.00,0.0098
1175.00,0.0109
1174.00,0.0124
1173.00,0.0142
1172.00,0.0164
1171.00,0.0187
1170.00,0.0209
1169.00,0.0226
1168.00,0.0238
1167.00,0.0242
1166.00,0.0239
1165.00,0.0233
1164.00,0.0224
1163.00,0.0214
1162.00,0.0206
1161.00,0.0198
1160.00,0.0193
1159.00,0.0190
1158.00,0.0188
1157.00,0.0187
1156.00,0.0187
1155.00,0.0187
1154.00,0.0187
1153.00,0.0186
1152.00,0.0184
1151.00,0.0179
1150.00,0.0172
1149.00,0.0163
1148.00,0.0153
1147.00,0.0144
1146.00,0.0136
1145.00,0.0128
1144.00,0.0121
1143.00,0.0114
1142.00,0.0107
1141.00,0.0101
1140.00,0.0096
1139.00,0.0092
1138.00,0.0088
1137.00,0.0086
1136.00,0.0084
1135.00,0.0082
1134.00,0.0081
1133.00,0.0079
1132.00,0.0078
1131.00,0.0077
1130.00,0.0077
1129.00,0.0076
1128.00,0.0077
1127.00,0.0078
1126.00,0.0080
1125.00,0.0081
1124.00,0.0082
1123.00,0.0082
1122.00,0.0082
1121.00,0.0082
1120.00,0.0082
1119.00,0.0083
1118.00,0.0085
1117.00,0.0087
1116.00,0.0089
1115.00,0.0091
1114.00,0.0093
1113.00,0.0095
1112.00,0.0097
1111.00,0.0100
1110.00,0.0104
1109.00,0.0110
1108.00,0.0117
1107.00,0.0125
1106.00,0.0134
1105.00,0.0142
1104.00,0.0148
1103.00,0.0152
1102.00,0.0153
1101.00,0.0151
1100.00,0.0145
1099.00,0.0138
1098.00,0.0130
1097.00,0.0122
1096.00,0.0115
1095.00,0.0110
1094.00,0.0106
1093.00,0.0103
1092.00,0.0100
1091.00,0.0097
1090.00,0.0094
1089.00,0.0093
1088.00,0.0091
1087.00,0.0089
1086.00,0.0088
1085.00,0.0088
1084.00,0.0088
1083.00,0.0087
1082.00,0.0085
1081.00,0.0082
1080.00,0.0079
1079.00,0.0076
1078.00,0.0074
1077.00,0.0073
1076.00,0.0071
1075.00,0.0071
1074.00,0.0071
1073.00,0.0072
1072.00,0.0073
1071.00,0.0073
1070.00,0.0072
1069.00,0.0072
1068.00,0.0071
1067.00,0.0071
1066.00,0.0071
1065.00,0.0072
1064.00,0.0072
1063.00,0.0073
1062.00,0.0074
1061.00,0.0075
1060.00,0.0076
1059.00,0.0076
1058.00,0.0076
1057.00,0.0077
1056.00,0.0078
1055.00,0.0079
1054.00,0.0080
1053.00,0.0079
1052.00,0.0079
1051.00,0.0078
1050.00,0.0079
1049.00,0.0080
1048.00,0.0082
1047.00,0.0084
1046.00,0.0086
1045.00,0.0087
1044.00,0.0088
1043.00,0.0087
1042.00,0.0086
1041.00,0.0086
1040.00,0.0085
1039.00,0.0085
1038.00,0.0084
1037.00,0.0083
1036.00,0.0083
1035.00,0.0082
1034.00,0.0082
1033.00,0.0082
1032.00,0.0082
1031.00,0.0082
1030.00,0.0082
1029.00,0.0082
1028.00,0.0083
1027.00,0.0083
1026.00,0.0082
1025.00,0.0082
1024.00,0.0081
1023.00,0.0080
1022.00,0.0080
1021.00,0.0081
1020.00,0.0082
1019.00,0.0084
1018.00,0.0084
1017.00,0.0085
1016.00,0.0086
1015.00,0.0088
1014.00,0.0091
1013.00,0.0093
1012.00,0.0095
1011.00,0.0097
1010.00,0.0100
1009.00,0.0103
1008.00,0.0107
1007.00,0.0113
1006.00,0.0119
1005.00,0.0127
1004.00,0.0137
1003.00,0.0151
1002.00,0.0170
1001.00,0.0193
1000.00,0.0217
999.00,0.0235
998.00,0.0243
997.00,0.0237
996.00,0.0219
995.00,0.0194
994.00,0.0168
993.00,0.0145
992.00,0.0127
991.00,0.0114
990.00,0.0105
989.00,0.0099
988.00,0.0096
987.00,0.0094
986.00,0.0095
985.00,0.0097
984.00,0.0101
983.00,0.0107
982.00,0.0116
981.00,0.0129
980.00,0.0148
979.00,0.0173
978.00,0.0203
977.00,0.0236
976.00,0.0271
975.00,0.0301
974.00,0.0319
973.00,0.0322
972.00,0.0308
971.00,0.0279
970.00,0.0243
969.00,0.0208
968.00,0.0177
967.00,0.0153
966.00,0.0135
965.00,0.0122
964.00,0.0112
963.00,0.0104
962.00,0.0098
961.00,0.0093
960.00,0.0089
959.00,0.0086
958.00,0.0084
957.00,0.0083
956.00,0.0082
955.00,0.0080
954.00,0.0079
953.00,0.0077
952.00,0.0077
951.00,0.0077
950.00,0.0077
949.00,0.0077
948.00,0.0078
947.00,0.0080
946.00,0.0083
945.00,0.0086
944.00,0.0090
943.00,0.0094
942.00,0.0098
941.00,0.0100
940.00,0.0100
939.00,0.0097
938.00,0.0092
937.00,0.0086
936.00,0.0081
935.00,0.0076
934.00,0.0071
933.00,0.0068
932.00,0.0066
931.00,0.0064
930.00,0.0063
929.00,0.0063
928.00,0.0063
927.00,0.0063
926.00,0.0063
925.00,0.0063
924.00,0.0064
923.00,0.0065
922.00,0.0066
921.00,0.0068
920.00,0.0069
919.00,0.0070
918.00,0.0070
917.00,0.0071
916.00,0.0071
915.00,0.0072
914.00,0.0073
913.00,0.0074
912.00,0.0075
911.00,0.0075
910.00,0.0076
909.00,0.0077
908.00,0.0081
907.00,0.0086
906.00,0.0095
905.00,0.0108
904.00,0.0125
903.00,0.0147
902.00,0.0171
901.00,0.0194
900.00,0.0209
899.00,0.0213
898.00,0.0204
897.00,0.0186
896.00,0.0163
895.00,0.0140
894.00,0.0120
893.00,0.0106
892.00,0.0095
891.00,0.0088
890.00,0.0082
889.00,0.0079
888.00,0.0076
887.00,0.0074
886.00,0.0073
885.00,0.0072
884.00,0.0071
883.00,0.0070
882.00,0.0069
881.00,0.0067
880.00,0.0066
879.00,0.0066
878.00,0.0066
877.00,0.0067
876.00,0.0068
875.00,0.0069
874.00,0.0070
873.00,0.0070
872.00,0.0071
871.00,0.0071
870.00,0.0070
869.00,0.0070
868.00,0.0070
867.00,0.0070
866.00,0.0071
865.00,0.0072
864.00,0.0074
863.00,0.0076
862.00,0.0078
861.00,0.0081
860.00,0.0083
859.00,0.0084
858.00,0.0084
857.00,0.0085
856.00,0.0085
855.00,0.0086
854.00,0.0086
853.00,0.0088
852.00,0.0090
851.00,0.0092
850.00,0.0095
849.00,0.0099
848.00,0.0105
847.00,0.0114
846.00,0.0128
845.00,0.0149
844.00,0.0175
843.00,0.0202
842.00,0.0221
841.00,0.0224
840.00,0.0209
839.00,0.0185
838.00,0.0160
837.00,0.0140
836.00,0.0127
835.00,0.0119
834.00,0.0113
833.00,0.0110
832.00,0.0107
831.00,0.0104
830.00,0.0102
829.00,0.0101
828.00,0.0100
827.00,0.0099
826.00,0.0099
825.00,0.0100
824.00,0.0100
823.00,0.0099
822.00,0.0099
821.00,0.0100
820.00,0.0102
819.00,0.0105
818.00,0.0111
817.00,0.0119
816.00,0.0129
815.00,0.0142
814.00,0.0157
813.00,0.0176
812.00,0.0197
811.00,0.0216
810.00,0.0231
809.00,0.0238
808.00,0.0237
807.00,0.0227
806.00,0.0209
805.00,0.0188
804.00,0.0167
803.00,0.0148
802.00,0.0134
801.00,0.0124
800.00,0.0117
799.00,0.0112
798.00,0.0107
797.00,0.0103
796.00,0.0099
795.00,0.0095
794.00,0.0091
793.00,0.0088
792.00,0.0086
791.00,0.0084
790.00,0.0082
789.00,0.0080
788.00,0.0078
787.00,0.0076
786.00,0.0074
785.00,0.0071
784.00,0.0067
783.00,0.0063
782.00,0.0061
781.00,0.0060
780.00,0.0060
779.00,0.0062
778.00,0.0063
777.00,0.0064
776.00,0.0064
775.00,0.0064
774.00,0.0065
773.00,0.0067
772.00,0.0068
771.00,0.0070
770.00,0.0071
769.00,0.0072
768.00,0.0073
767.00,0.0073
766.00,0.0072
765.00,0.0071
764.00,0.0069
763.00,0.0068
762.00,0.0067
761.00,0.0066
760.00,0.0064
759.00,0.0062
758.00,0.0059
757.00,0.0056
756.00,0.0054
755.00,0.0052
754.00,0.0050
753.00,0.0050
752.00,0.0050
751.00,0.0050
750.00,0.0050
749.00,0.0050
748.00,0.0050
747.00,0.0051
746.00,0.0053
745.00,0.0055
744.00,0.0057
743.00,0.0058
742.00,0.0058
741.00,0.0059
740.00,0.0060
739.00,0.0061
738.00,0.0062
737.00,0.0062
736.00,0.0063
735.00,0.0064
734.00,0.0066
733.00,0.0067
732.00,0.0067
731.00,0.0068
730.00,0.0069
729.00,0.0070
728.00,0.0069
727.00,0.0068
726.00,0.0067
725.00,0.0066
724.00,0.0066
723.00,0.0066
722.00,0.0066
721.00,0.0065
720.00,0.0064
719.00,0.0063
718.00,0.0062
717.00,0.0062
716.00,0.0061
715.00,0.0061
714.00,0.0060
713.00,0.0058
712.00,0.0057
711.00,0.0055
710.00,0.0054
709.00,0.0054
708.00,0.0057
707.00,0.0059
706.00,0.0061
705.00,0.0062
704.00,0.0062
703.00,0.0062
702.00,0.0061
701.00,0.0060
700.00,0.0057
699.00,0.0054
698.00,0.0051
697.00,0.0049
696.00,0.0048
695.00,0.0049
694.00,0.0051
693.00,0.0051
692.00,0.0050
691.00,0.0049
690.00,0.0047
689.00,0.0047
688.00,0.0049
687.00,0.0051
686.00,0.0053
685.00,0.0054
684.00,0.0053
683.00,0.0051
682.00,0.0050
681.00,0.0048
680.00,0.0048
679.00,0.0048
678.00,0.0050
677.00,0.0052
676.00,0.0053
675.00,0.0053
674.00,0.0053
673.00,0.0053
672.00,0.0053
671.00,0.0055
670.00,0.0057
669.00,0.0060
668.00,0.0064
667.00,0.0066
666.00,0.0062
665.00,0.0058
664.00,0.0056
663.00,0.0056
662.00,0.0055
661.00,0.0054
660.00,0.0053
659.00,0.0052
658.00,0.0052
657.00,0.0051
656.00,0.0051
655.00,0.0052
654.00,0.0054
653.00,0.0056
652.00,0.0057
651.00,0.0056
650.00,0.0054
649.00,0.0053
648.00,0.0052
647.00,0.0054
646.00,0.0055
645.00,0.0056
644.00,0.0055
643.00,0.0054
642.00,0.0053
641.00,0.0053
640.00,0.0053
639.00,0.0053
638.00,0.0053
637.00,0.0054
636.00,0.0054
635.00,0.0053
634.00,0.0052
633.00,0.0051
632.00,0.0051
631.00,0.0051
630.00,0.0052
629.00,0.0054
628.00,0.0057
627.00,0.0059
626.00,0.0059
625.00,0.0056
624.00,0.0052
623.00,0.0051
622.00,0.0051
621.00,0.0052
620.00,0.0053
619.00,0.0053
618.00,0.0052
617.00,0.0051
616.00,0.0051
615.00,0.0050
614.00,0.0050
613.00,0.0050
612.00,0.0053
611.00,0.0056
610.00,0.0058
609.00,0.0058
608.00,0.0057
607.00,0.0057
606.00,0.0058
605.00,0.0059
604.00,0.0060
603.00,0.0061
602.00,0.0061
601.00,0.0062
600.00,0.0062
599.00,0.0061
598.00,0.0059
597.00,0.0058
596.00,0.0058
595.00,0.0059
594.00,0.0059
593.00,0.0059
592.00,0.0059
591.00,0.0060
590.00,0.0061
589.00,0.0061
588.00,0.0062
587.00,0.0064
586.00,0.0067
585.00,0.0068
584.00,0.0067
583.00,0.0065
582.00,0.0062
581.00,0.0060
580.00,0.0059
579.00,0.0058
578.00,0.0057
577.00,0.0057
576.00,0.0059
575.00,0.0062
574.00,0.0062
573.00,0.0060
572.00,0.0058
571.00,0.0056
570.00,0.0058
569.00,0.0060
568.00,0.0061
567.00,0.0061
566.00,0.0061
565.00,0.0060
564.00,0.0061
563.00,0.0062
562.00,0.0063
561.00,0.0064
560.00,0.0064
559.00,0.0064
558.00,0.0065
557.00,0.0065
556.00,0.0065
555.00,0.0063
554.00,0.0061
553.00,0.0060
552.00,0.0061
551.00,0.0063
550.00,0.0064
549.00,0.0064
548.00,0.0064
547.00,0.0065
546.00,0.0069
545.00,0.0076
544.00,0.0082
543.00,0.0083
542.00,0.0081
541.00,0.0077
540.00,0.0073
539.00,0.0071
538.00,0.0071
537.00,0.0072
536.00,0.0073
535.00,0.0075
534.00,0.0076
533.00,0.0077
532.00,0.0079
531.00,0.0081
530.00,0.0082
529.00,0.0083
528.00,0.0083
527.00,0.0081
526.00,0.0076
525.00,0.0072
524.00,0.0072
523.00,0.0075
522.00,0.0076
521.00,0.0073
520.00,0.0068
519.00,0.0066
518.00,0.0067
517.00,0.0071
516.00,0.0076
515.00,0.0080
514.00,0.0079
513.00,0.0073
512.00,0.0065
511.00,0.0059
510.00,0.0058
509.00,0.0058
508.00,0.0061
507.00,0.0066
506.00,0.0073
505.00,0.0076
504.00,0.0072
503.00,0.0065
502.00,0.0062
501.00,0.0064
500.00,0.0069
499.00,0.0071
498.00,0.0070
497.00,0.0066
496.00,0.0061
495.00,0.0057
494.00,0.0057
493.00,0.0061
492.00,0.0067
491.00,0.0073
490.00,0.0076
489.00,0.0075
488.00,0.0070
487.00,0.0062
486.00,0.0051
485.00,0.0041
484.00,0.0036
483.00,0.0041
482.00,0.0055
481.00,0.0069
480.00,0.0080
479.00,0.0089
478.00,0.0097
477.00,0.0106
476.00,0.0115
475.00,0.0123
474.00,0.0130
473.00,0.0130
472.00,0.0121
471.00,0.0109
470.00,0.0100
469.00,0.0096
468.00,0.0097
467.00,0.0102
466.00,0.0114
465.00,0.0130
464.00,0.0147
463.00,0.0161
462.00,0.0173
461.00,0.0183
460.00,0.0188
459.00,0.0183
458.00,0.0165
457.00,0.0142
456.00,0.0122
455.00,0.0111
454.00,0.0107
453.00,0.0106
452.00,0.0103
451.00,0.0099
450.00,0.0100
