Created as New Dataset,Sample 091 By Administrator Date Friday, September 05 2025
cm-1,A
4000.00,0.0012
3999.00,0.0012
3998.00,0.0012
3997.00,0.0012
3996.00,0.0012
3995.00,0.0012
3994.00,0.0012
3993.00,0.0012
3992.00,0.0013
3991.00,0.0013
3990.00,0.0013
3989.00,0.0013
3988.00,0.0013
3987.00,0.0013
3986.00,0.0013
3985.00,0.0012
3984.00,0.0012
3983.00,0.0012
3982.00,0.0012
3981.00,0.0012
3980.00,0.0012
3979.00,0.0011
3978.00,0.0011
3977.00,0.0011
3976.00,0.0011
3975.00,0.0011
3974.00,0.0011
3973.00,0.0011
3972.00,0.0011
3971.00,0.0010
3970.00,0.0010
3969.00,0.0010
3968.00,0.0010
3967.00,0.0011
3966.00,0.0011
3965.00,0.0011
3964.00,0.0011
3963.00,0.0011
3962.00,0.0011
3961.00,0.0011
3960.00,0.0011
3959.00,0.0011
3958.00,0.0011
3957.00,0.0011
3956.00,0.0010
3955.00,0.0010
3954.00,0.0010
3953.00,0.0010
3952.00,0.0010
3951.00,0.0010
3950.00,0.0010
3949.00,0.0010
3948.00,0.0010
3947.00,0.0011
3946.00,0.0011
3945.00,0.0011
3944.00,0.0011
3943.00,0.0011
3942.00,0.0011
3941.00,0.0011
3940.00,0.0011
3939.00,0.0010
3938.00,0.0010
3937.00,0.0010
3936.00,0.0010
3935.00,0.0010
3934.00,0.0010
3933.00,0.0011
3932.00,0.0011
3931.00,0.0011
3930.00,0.0011
3929.00,0.0011
3928.00,0.0011
3927.00,0.0011
3926.00,0.0011
3925.00,0.0011
3924.00,0.0010
3923.00,0.0010
3922.00,0.0010
3921.00,0.0009
3920.00,0.0010
3919.00,0.0010
3918.00,0.0010
3917.00,0.0011
3916.00,0.0011
3915.00,0.0011
3914.00,0.0011
3913.00,0.0010
3912.00,0.0010
3911.00,0.0010
3910.00,0.0011
3909.00,0.0011
3908.00,0.0011
3907.00,0.0010
3906.00,0.0010
3905.00,0.0010
3904.00,0.0009
3903.00,0.0009
3902.00,0.0009
3901.00,0.0009
3900.00,0.0009
3899.00,0.0009
3898.00,0.0009
3897.00,0.0010
3896.00,0.0010
3895.00,0.0010
3894.00,0.0010
3893.00,0.0010
3892.00,0.0010
3891.00,0.0010
3890.00,0.0010
3889.00,0.0010
3888.00,0.0009
3887.00,0.0009
3886.00,0.0009
3885.00,0.0009
3884.00,0.0009
3883.00,0.0009
3882.00,0.0009
3881.00,0.0009
3880.00,0.0009
3879.00,0.0010
3878.00,0.0009
3877.00,0.0009
3876.00,0.0009
3875.00,0.0009
3874.00,0.0010
3873.00,0.0010
3872.00,0.0010
3871.00,0.0010
3870.00,0.0010
3869.00,0.0010
3868.00,0.0010
3867.00,0.0010
3866.00,0.0009
3865.00,0.0009
3864.00,0.0009
3863.00,0.0009
3862.00,0.0009
3861.00,0.0009
3860.00,0.0010
3859.00,0.0010
3858.00,0.0010
3857.00,0.0010
3856.00,0.0011
3855.00,0.0010
3854.00,0.0010
3853.00,0.0010
3852.00,0.0010
3851.00,0.0010
3850.00,0.0010
3849.00,0.0010
3848.00,0.0010
3847.00,0.0010
3846.00,0.0010
3845.00,0.0009
3844.00,0.0009
3843.00,0.0008
3842.00,0.0008
3841.00,0.0009
3840.00,0.0009
3839.00,0.0010
3838.00,0.0010
3837.00,0.0010
3836.00,0.0010
3835.00,0.0009
3834.00,0.0009
3833.00,0.0009
3832.00,0.0009
3831.00,0.0009
3830.00,0.0009
3829.00,0.0010
3828.00,0.0010
3827.00,0.0009
3826.00,0.0009
3825.00,0.0009
3824.00,0.0009
3823.00,0.0009
3822.00,0.0009
3821.00,0.0009
3820.00,0.0010
3819.00,0.0010
3818.00,0.0010
3817.00,0.0010
3816.00,0.0010
3815.00,0.0010
3814.00,0.0010
3813.00,0.0010
3812.00,0.0009
3811.00,0.0009
3810.00,0.0008
3809.00,0.0008
3808.00,0.0008
3807.00,0.0009
3806.00,0.0009
3805.00,0.0009
3804.00,0.0009
3803.00,0.0009
3802.00,0.0009
3801.00,0.0010
3800.00,0.0010
3799.00,0.0010
3798.00,0.0009
3797.00,0.0009
3796.00,0.0008
3795.00,0.0009
3794.00,0.0009
3793.00,0.0009
3792.00,0.0010
3791.00,0.0010
3790.00,0.0011
3789.00,0.0011
3788.00,0.0011
3787.00,0.0011
3786.00,0.0011
3785.00,0.0011
3784.00,0.0010
3783.00,0.0010
3782.00,0.0010
3781.00,0.0010
3780.00,0.0010
3779.00,0.0010
3778.00,0.0010
3777.00,0.0010
3776.00,0.0010
3775.00,0.0010
3774.00,0.0010
3773.00,0.0010
3772.00,0.0010
3771.00,0.0010
3770.00,0.0010
3769.00,0.0010
3768.00,0.0010
3767.00,0.0010
3766.00,0.0010
3765.00,0.0010
3764.00,0.0010
3763.00,0.0010
3762.00,0.0010
3761.00,0.0010
3760.00,0.0010
3759.00,0.0010
3758.00,0.0009
3757.00,0.0009
3756.00,0.0009
3755.00,0.0009
3754.00,0.0009
3753.00,0.0009
3752.00,0.0009
3751.00,0.0009
3750.00,0.0009
3749.00,0.0009
3748.00,0.0009
3747.00,0.0010
3746.00,0.0010
3745.00,0.0010
3744.00,0.0010
3743.00,0.0010
3742.00,0.0010
3741.00,0.0009
3740.00,0.0009
3739.00,0.0009
3738.00,0.0008
3737.00,0.0008
3736.00,0.0008
3735.00,0.0009
3734.00,0.0009
3733.00,0.0009
3732.00,0.0009
3731.00,0.0009
3730.00,0.0010
3729.00,0.0010
3728.00,0.0010
3727.00,0.0010
3726.00,0.0009
3725.00,0.0009
3724.00,0.0009
3723.00,0.0009
3722.00,0.0010
3721.00,0.0010
3720.00,0.0010
3719.00,0.0009
3718.00,0.0009
3717.00,0.0009
3716.00,0.0009
3715.00,0.0008
3714.00,0.0008
3713.00,0.0008
3712.00,0.0007
3711.00,0.0007
3710.00,0.0007
3709.00,0.0007
3708.00,0.0008
3707.00,0.0008
3706.00,0.0008
3705.00,0.0008
3704.00,0.0008
3703.00,0.0008
3702.00,0.0008
3701.00,0.0008
3700.00,0.0008
3699.00,0.0009
3698.00,0.0009
3697.00,0.0009
3696.00,0.0009
3695.00,0.0009
3694.00,0.0008
3693.00,0.0008
3692.00,0.0007
3691.00,0.0007
3690.00,0.0008
3689.00,0.0008
3688.00,0.0009
3687.00,0.0009
3686.00,0.0009
3685.00,0.0009
3684.00,0.0009
3683.00,0.0008
3682.00,0.0008
3681.00,0.0007
3680.00,0.0007
3679.00,0.0007
3678.00,0.0006
3677.00,0.0006
3676.00,0.0007
3675.00,0.0007
3674.00,0.0008
3673.00,0.0008
3672.00,0.0008
3671.00,0.0008
3670.00,0.0008
3669.00,0.0009
3668.00,0.0009
3667.00,0.0009
3666.00,0.0009
3665.00,0.0008
3664.00,0.0008
3663.00,0.0008
3662.00,0.0009
3661.00,0.0009
3660.00,0.0009
3659.00,0.0009
3658.00,0.0008
3657.00,0.0008
3656.00,0.0008
3655.00,0.0008
3654.00,0.0008
3653.00,0.0008
3652.00,0.0007
3651.00,0.0008
3650.00,0.0008
3649.00,0.0009
3648.00,0.0009
3647.00,0.0009
3646.00,0.0009
3645.00,0.0009
3644.00,0.0009
3643.00,0.0009
3642.00,0.0009
3641.00,0.0009
3640.00,0.0009
3639.00,0.0009
3638.00,0.0009
3637.00,0.0009
3636.00,0.0009
3635.00,0.0009
3634.00,0.0009
3633.00,0.0009
3632.00,0.0010
3631.00,0.0010
3630.00,0.0011
3629.00,0.0011
3628.00,0.0011
3627.00,0.0011
3626.00,0.0011
3625.00,0.0011
3624.00,0.0011
3623.00,0.0011
3622.00,0.0011
3621.00,0.0010
3620.00,0.0010
3619.00,0.0010
3618.00,0.0010
3617.00,0.0011
3616.00,0.0011
3615.00,0.0012
3614.00,0.0013
3613.00,0.0013
3612.00,0.0013
3611.00,0.0013
3610.00,0.0012
3609.00,0.0013
3608.00,0.0013
3607.00,0.0013
3606.00,0.0013
3605.00,0.0013
3604.00,0.0013
3603.00,0.0013
3602.00,0.0013
3601.00,0.0014
3600.00,0.0014
3599.00,0.0014
3598.00,0.0014
3597.00,0.0014
3596.00,0.0014
3595.00,0.0014
3594.00,0.0015
3593.00,0.0016
3592.00,0.0016
3591.00,0.0016
3590.00,0.0015
3589.00,0.0015
3588.00,0.0015
3587.00,0.0016
3586.00,0.0016
3585.00,0.0016
3584.00,0.0016
3583.00,0.0016
3582.00,0.0016
3581.00,0.0017
3580.00,0.0017
3579.00,0.0017
3578.00,0.0017
3577.00,0.0017
3576.00,0.0017
3575.00,0.0017
3574.00,0.0018
3573.00,0.0018
3572.00,0.0018
3571.00,0.0018
3570.00,0.0018
3569.00,0.0018
3568.00,0.0019
3567.00,0.0020
3566.00,0.0020
3565.00,0.0021
3564.00,0.0021
3563.00,0.0021
3562.00,0.0021
3561.00,0.0022
3560.00,0.0022
3559.00,0.0022
3558.00,0.0022
3557.00,0.0022
3556.00,0.0022
3555.00,0.0022
3554.00,0.0022
3553.00,0.0022
3552.00,0.0023
3551.00,0.0023
3550.00,0.0023
3549.00,0.0023
3548.00,0.0023
3547.00,0.0023
3546.00,0.0023
3545.00,0.0024
3544.00,0.0024
3543.00,0.0024
3542.00,0.0024
3541.00,0.0024
3540.00,0.0024
3539.00,0.0024
3538.00,0.0025
3537.00,0.0025
3536.00,0.0026
3535.00,0.0026
3534.00,0.0026
3533.00,0.0026
3532.00,0.0026
3531.00,0.0026
3530.00,0.0026
3529.00,0.0027
3528.00,0.0027
3527.00,0.0028
3526.00,0.0028
3525.00,0.0028
3524.00,0.0028
3523.00,0.0028
3522.00,0.0027
3521.00,0.0028
3520.00,0.0028
3519.00,0.0028
3518.00,0.0029
3517.00,0.0029
3516.00,0.0030
3515.00,0.0030
3514.00,0.0030
3513.00,0.0030
3512.00,0.0030
3511.00,0.0030
3510.00,0.0030
3509.00,0.0030
3508.00,0.0030
3507.00,0.0030
3506.00,0.0030
3505.00,0.0030
3504.00,0.0030
3503.00,0.0030
3502.00,0.0031
3501.00,0.0031
3500.00,0.0032
3499.00,0.0032
3498.00,0.0032
3497.00,0.0032
3496.00,0.0032
3495.00,0.0032
3494.00,0.0032
3493.00,0.0033
3492.00,0.0033
3491.00,0.0033
3490.00,0.0034
3489.00,0.0034
3488.00,0.0034
3487.00,0.0034
3486.00,0.0034
3485.00,0.0034
3484.00,0.0034
3483.00,0.0034
3482.00,0.0035
3481.00,0.0035
3480.00,0.0036
3479.00,0.0036
3478.00,0.0036
3477.00,0.0036
3476.00,0.0036
3475.00,0.0036
3474.00,0.0037
3473.00,0.0037
3472.00,0.0037
3471.00,0.0038
3470.00,0.0038
3469.00,0.0038
3468.00,0.0038
3467.00,0.0038
3466.00,0.0039
3465.00,0.0039
3464.00,0.0039
3463.00,0.0039
3462.00,0.0039
3461.00,0.0040
3460.00,0.0040
3459.00,0.0040
3458.00,0.0040
3457.00,0.0040
3456.00,0.0040
3455.00,0.0040
3454.00,0.0040
3453.00,0.0040
3452.00,0.0040
3451.00,0.0041
3450.00,0.0041
3449.00,0.0041
3448.00,0.0041
3447.00,0.0041
3446.00,0.0042
3445.00,0.0042
3444.00,0.0042
3443.00,0.0043
3442.00,0.0043
3441.00,0.0043
3440.00,0.0043
3439.00,0.0043
3438.00,0.0043
3437.00,0.0043
3436.00,0.0044
3435.00,0.0044
3434.00,0.0044
3433.00,0.0044
3432.00,0.0045
3431.00,0.0045
3430.00,0.0045
3429.00,0.0045
3428.00,0.0045
3427.00,0.0046
3426.00,0.0046
3425.00,0.0046
3424.00,0.0046
3423.00,0.0046
3422.00,0.0046
3421.00,0.0046
3420.00,0.0047
3419.00,0.0047
3418.00,0.0047
3417.00,0.0048
3416.00,0.0049
3415.00,0.0049
3414.00,0.0050
3413.00,0.0050
3412.00,0.0050
3411.00,0.0050
3410.00,0.0050
3409.00,0.0050
3408.00,0.0050
3407.00,0.0050
3406.00,0.0050
3405.00,0.0051
3404.00,0.0051
3403.00,0.0051
3402.00,0.0052
3401.00,0.0052
3400.00,0.0052
3399.00,0.0053
3398.00,0.0053
3397.00,0.0054
3396.00,0.0054
3395.00,0.0054
3394.00,0.0053
3393.00,0.0053
3392.00,0.0053
3391.00,0.0052
3390.00,0.0052
3389.00,0.0052
3388.00,0.0052
3387.00,0.0053
3386.00,0.0053
3385.00,0.0053
3384.00,0.0053
3383.00,0.0052
3382.00,0.0052
3381.00,0.0052
3380.00,0.0051
3379.00,0.0051
3378.00,0.0051
3377.00,0.0051
3376.00,0.0051
3375.00,0.0051
3374.00,0.0051
3373.00,0.0051
3372.00,0.0051
3371.00,0.0051
3370.00,0.0051
3369.00,0.0051
3368.00,0.0051
3367.00,0.0051
3366.00,0.0051
3365.00,0.0052
3364.00,0.0052
3363.00,0.0052
3362.00,0.0051
3361.00,0.0051
3360.00,0.0051
3359.00,0.0051
3358.00,0.0051
3357.00,0.0052
3356.00,0.0052
3355.00,0.0052
3354.00,0.0052
3353.00,0.0052
3352.00,0.0052
3351.00,0.0052
3350.00,0.0052
3349.00,0.0052
3348.00,0.0052
3347.00,0.0052
3346.00,0.0052
3345.00,0.0052
3344.00,0.0052
3343.00,0.0052
3342.00,0.0052
3341.00,0.0052
3340.00,0.0053
3339.00,0.0053
3338.00,0.0053
3337.00,0.0053
3336.00,0.0052
3335.00,0.0052
3334.00,0.0052
3333.00,0.0052
3332.00,0.0052
3331.00,0.0052
3330.00,0.0052
3329.00,0.0053
3328.00,0.0053
3327.00,0.0053
3326.00,0.0053
3325.00,0.0053
3324.00,0.0053
3323.00,0.0053
3322.00,0.0053
3321.00,0.0053
3320.00,0.0052
3319.00,0.0052
3318.00,0.0052
3317.00,0.0052
3316.00,0.0052
3315.00,0.0052
3314.00,0.0052
3313.00,0.0052
3312.00,0.0052
3311.00,0.0052
3310.00,0.0052
3309.00,0.0052
3308.00,0.0052
3307.00,0.0052
3306.00,0.0052
3305.00,0.0052
3304.00,0.0052
3303.00,0.0052
3302.00,0.0052
3301.00,0.0052
3300.00,0.0052
3299.00,0.0052
3298.00,0.0051
3297.00,0.0051
3296.00,0.0051
3295.00,0.0050
3294.00,0.0050
3293.00,0.0050
3292.00,0.0050
3291.00,0.0050
3290.00,0.0051
3289.00,0.0051
3288.00,0.0051
3287.00,0.0051
3286.00,0.0051
3285.00,0.0050
3284.00,0.0050
3283.00,0.0049
3282.00,0.0049
3281.00,0.0048
3280.00,0.0048
3279.00,0.0048
3278.00,0.0048
3277.00,0.0048
3276.00,0.0048
3275.00,0.0047
3274.00,0.0047
3273.00,0.0047
3272.00,0.0047
3271.00,0.0047
3270.00,0.0047
3269.00,0.0047
3268.00,0.0047
3267.00,0.0047
3266.00,0.0047
3265.00,0.0047
3264.00,0.0047
3263.00,0.0046
3262.00,0.0046
3261.00,0.0045
3260.00,0.0045
3259.00,0.0044
3258.00,0.0044
3257.00,0.0044
3256.00,0.0044
3255.00,0.0044
3254.00,0.0043
3253.00,0.0043
3252.00,0.0043
3251.00,0.0043
3250.00,0.0043
3249.00,0.0043
3248.00,0.0043
3247.00,0.0043
3246.00,0.0043
3245.00,0.0043
3244.00,0.0043
3243.00,0.0043
3242.00,0.0043
3241.00,0.0043
3240.00,0.0043
3239.00,0.0044
3238.00,0.0044
3237.00,0.0044
3236.00,0.0044
3235.00,0.0044
3234.00,0.0044
3233.00,0.0044
3232.00,0.0044
3231.00,0.0045
3230.00,0.0045
3229.00,0.0045
3228.00,0.0045
3227.00,0.0045
3226.00,0.0045
3225.00,0.0045
3224.00,0.0045
3223.00,0.0045
3222.00,0.0045
3221.00,0.0046
3220.00,0.0046
3219.00,0.0046
3218.00,0.0046
3217.00,0.0046
3216.00,0.0047
3215.00,0.0047
3214.00,0.0048
3213.00,0.0049
3212.00,0.0049
3211.00,0.0049
3210.00,0.0049
3209.00,0.0050
3208.00,0.0050
3207.00,0.0050
3206.00,0.0051
3205.00,0.0051
3204.00,0.0051
3203.00,0.0051
3202.00,0.0051
3201.00,0.0051
3200.00,0.0051
3199.00,0.0051
3198.00,0.0051
3197.00,0.0051
3196.00,0.0051
3195.00,0.0051
3194.00,0.0051
3193.00,0.0051
3192.00,0.0051
3191.00,0.0051
3190.00,0.0051
3189.00,0.0051
3188.00,0.0051
3187.00,0.0051
3186.00,0.0050
3185.00,0.0050
3184.00,0.0050
3183.00,0.0049
3182.00,0.0049
3181.00,0.0048
3180.00,0.0048
3179.00,0.0048
3178.00,0.0048
3177.00,0.0047
3176.00,0.0047
3175.00,0.0047
3174.00,0.0046
3173.00,0.0046
3172.00,0.0046
3171.00,0.0046
3170.00,0.0046
3169.00,0.0045
3168.00,0.0045
3167.00,0.0045
3166.00,0.0045
3165.00,0.0045
3164.00,0.0045
3163.00,0.0044
3162.00,0.0044
3161.00,0.0043
3160.00,0.0043
3159.00,0.0043
3158.00,0.0043
3157.00,0.0044
3156.00,0.0044
3155.00,0.0044
3154.00,0.0044
3153.00,0.0044
3152.00,0.0044
3151.00,0.0044
3150.00,0.0043
3149.00,0.0043
3148.00,0.0043
3147.00,0.0043
3146.00,0.0043
3145.00,0.0043
3144.00,0.0043
3143.00,0.0043
3142.00,0.0043
3141.00,0.0042
3140.00,0.0042
3139.00,0.0042
3138.00,0.0041
3137.00,0.0042
3136.00,0.0042
3135.00,0.0041
3134.00,0.0041
3133.00,0.0041
3132.00,0.0041
3131.00,0.0041
3130.00,0.0041
3129.00,0.0041
3128.00,0.0041
3127.00,0.0041
3126.00,0.0040
3125.00,0.0040
3124.00,0.0039
3123.00,0.0039
3122.00,0.0038
3121.00,0.0038
3120.00,0.0038
3119.00,0.0038
3118.00,0.0038
3117.00,0.0038
3116.00,0.0038
3115.00,0.0038
3114.00,0.0038
3113.00,0.0038
3112.00,0.0037
3111.00,0.0037
3110.00,0.0036
3109.00,0.0036
3108.00,0.0035
3107.00,0.0036
3106.00,0.0036
3105.00,0.0036
3104.00,0.0036
3103.00,0.0036
3102.00,0.0035
3101.00,0.0035
3100.00,0.0035
3099.00,0.0035
3098.00,0.0035
3097.00,0.0035
3096.00,0.0035
3095.00,0.0036
3094.00,0.0036
3093.00,0.0036
3092.00,0.0035
3091.00,0.0035
3090.00,0.0035
3089.00,0.0035
3088.00,0.0035
3087.00,0.0035
3086.00,0.0035
3085.00,0.0035
3084.00,0.0035
3083.00,0.0035
3082.00,0.0035
3081.00,0.0035
3080.00,0.0035
3079.00,0.0035
3078.00,0.0035
3077.00,0.0035
3076.00,0.0035
3075.00,0.0035
3074.00,0.0035
3073.00,0.0035
3072.00,0.0036
3071.00,0.0036
3070.00,0.0036
3069.00,0.0036
3068.00,0.0036
3067.00,0.0036
3066.00,0.0036
3065.00,0.0037
3064.00,0.0037
3063.00,0.0037
3062.00,0.0037
3061.00,0.0037
3060.00,0.0037
3059.00,0.0037
3058.00,0.0037
3057.00,0.0037
3056.00,0.0037
3055.00,0.0037
3054.00,0.0037
3053.00,0.0037
3052.00,0.0037
3051.00,0.0038
3050.00,0.0038
3049.00,0.0038
3048.00,0.0038
3047.00,0.0038
3046.00,0.0039
3045.00,0.0039
3044.00,0.0040
3043.00,0.0040
3042.00,0.0041
3041.00,0.0041
3040.00,0.0041
3039.00,0.0041
3038.00,0.0042
3037.00,0.0042
3036.00,0.0042
3035.00,0.0042
3034.00,0.0042
3033.00,0.0043
3032.00,0.0043
3031.00,0.0043
3030.00,0.0044
3029.00,0.0044
3028.00,0.0045
3027.00,0.0045
3026.00,0.0046
3025.00,0.0047
3024.00,0.0047
3023.00,0.0047
3022.00,0.0048
3021.00,0.0049
3020.00,0.0049
3019.00,0.0050
3018.00,0.0051
3017.00,0.0052
3016.00,0.0054
3015.00,0.0055
3014.00,0.0056
3013.00,0.0057
3012.00,0.0058
3011.00,0.0060
3010.00,0.0061
3009.00,0.0062
3008.00,0.0064
3007.00,0.0066
3006.00,0.0068
3005.00,0.0069
3004.00,0.0071
3003.00,0.0072
3002.00,0.0074
3001.00,0.0077
3000.00,0.0080
2999.00,0.0083
2998.00,0.0087
2997.00,0.0090
2996.00,0.0093
2995.00,0.0097
2994.00,0.0101
2993.00,0.0106
2992.00,0.0111
2991.00,0.0117
2990.00,0.0124
2989.00,0.0131
2988.00,0.0138
2987.00,0.0147
2986.00,0.0157
2985.00,0.0168
2984.00,0.0180
2983.00,0.0194
2982.00,0.0210
2981.00,0.0228
2980.00,0.0248
2979.00,0.0270
2978.00,0.0296
2977.00,0.0325
2976.00,0.0358
2975.00,0.0397
2974.00,0.0441
2973.00,0.0491
2972.00,0.0547
2971.00,0.0610
2970.00,0.0681
2969.00,0.0759
2968.00,0.0844
2967.00,0.0936
2966.00,0.1033
2965.00,0.1132
2964.00,0.1230
2963.00,0.1323
2962.00,0.1405
2961.00,0.1475
2960.00,0.1531
2959.00,0.1577
2958.00,0.1615
2957.00,0.1651
2956.00,0.1690
2955.00,0.1734
2954.00,0.1783
2953.00,0.1832
2952.00,0.1874
2951.00,0.1900
2950.00,0.1899
2949.00,0.1865
2948.00,0.1797
2947.00,0.1699
2946.00,0.1581
2945.00,0.1456
2944.00,0.1337
2943.00,0.1234
2942.00,0.1153
2941.00,0.1097
2940.00,0.1065
2939.00,0.1056
2938.00,0.1067
2937.00,0.1096
2936.00,0.1141
2935.00,0.1200
2934.00,0.1273
2933.00,0.1357
2932.00,0.1451
2931.00,0.1553
2930.00,0.1661
2929.00,0.1770
2928.00,0.1879
2927.00,0.1984
2926.00,0.2085
2925.00,0.2182
2924.00,0.2275
2923.00,0.2366
2922.00,0.2455
2921.00,0.2538
2920.00,0.2611
2919.00,0.2663
2918.00,0.2688
2917.00,0.2678
2916.00,0.2634
2915.00,0.2559
2914.00,0.2466
2913.00,0.2364
2912.00,0.2264
2911.00,0.2172
2910.00,0.2090
2909.00,0.2016
2908.00,0.1950
2907.00,0.1887
2906.00,0.1825
2905.00,0.1762
2904.00,0.1697
2903.00,0.1632
2902.00,0.1565
2901.00,0.1500
2900.00,0.1436
2899.00,0.1375
2898.00,0.1318
2897.00,0.1265
2896.00,0.1218
2895.00,0.1177
2894.00,0.1142
2893.00,0.1113
2892.00,0.1090
2891.00,0.1074
2890.00,0.1062
2889.00,0.1055
2888.00,0.1052
2887.00,0.1052
2886.00,0.1055
2885.00,0.1062
2884.00,0.1073
2883.00,0.1089
2882.00,0.1110
2881.00,0.1133
2880.00,0.1157
2879.00,0.1177
2878.00,0.1191
2877.00,0.1196
2876.00,0.1193
2875.00,0.1186
2874.00,0.1178
2873.00,0.1176
2872.00,0.1180
2871.00,0.1191
2870.00,0.1207
2869.00,0.1221
2868.00,0.1228
2867.00,0.1220
2866.00,0.1191
2865.00,0.1141
2864.00,0.1074
2863.00,0.0997
2862.00,0.0922
2861.00,0.0856
2860.00,0.0804
2859.00,0.0767
2858.00,0.0746
2857.00,0.0737
2856.00,0.0740
2855.00,0.0750
2854.00,0.0767
2853.00,0.0789
2852.00,0.0812
2851.00,0.0834
2850.00,0.0852
2849.00,0.0866
2848.00,0.0877
2847.00,0.0892
2846.00,0.0913
2845.00,0.0946
2844.00,0.0989
2843.00,0.1042
2842.00,0.1100
2841.00,0.1156
2840.00,0.1204
2839.00,0.1233
2838.00,0.1237
2837.00,0.1210
2836.00,0.1150
2835.00,0.1064
2834.00,0.0960
2833.00,0.0851
2832.00,0.0746
2831.00,0.0651
2830.00,0.0571
2829.00,0.0504
2828.00,0.0450
2827.00,0.0407
2826.00,0.0371
2825.00,0.0342
2824.00,0.0318
2823.00,0.0298
2822.00,0.0281
2821.00,0.0265
2820.00,0.0252
2819.00,0.0241
2818.00,0.0231
2817.00,0.0222
2816.00,0.0215
2815.00,0.0208
2814.00,0.0201
2813.00,0.0196
2812.00,0.0190
2811.00,0.0185
2810.00,0.0179
2809.00,0.0174
2808.00,0.0167
2807.00,0.0161
2806.00,0.0154
2805.00,0.0148
2804.00,0.0141
2803.00,0.0135
2802.00,0.0130
2801.00,0.0125
2800.00,0.0122
2799.00,0.0119
2798.00,0.0116
2797.00,0.0114
2796.00,0.0112
2795.00,0.0110
2794.00,0.0108
2793.00,0.0105
2792.00,0.0102
2791.00,0.0099
2790.00,0.0095
2789.00,0.0092
2788.00,0.0089
2787.00,0.0086
2786.00,0.0083
2785.00,0.0080
2784.00,0.0078
2783.00,0.0075
2782.00,0.0073
2781.00,0.0071
2780.00,0.0070
2779.00,0.0068
2778.00,0.0066
2777.00,0.0065
2776.00,0.0064
2775.00,0.0063
2774.00,0.0062
2773.00,0.0061
2772.00,0.0061
2771.00,0.0061
2770.00,0.0060
2769.00,0.0060
2768.00,0.0059
2767.00,0.0059
2766.00,0.0058
2765.00,0.0058
2764.00,0.0057
2763.00,0.0057
2762.00,0.0057
2761.00,0.0057
2760.00,0.0057
2759.00,0.0056
2758.00,0.0056
2757.00,0.0056
2756.00,0.0056
2755.00,0.0056
2754.00,0.0056
2753.00,0.0056
2752.00,0.0056
2751.00,0.0055
2750.00,0.0055
2749.00,0.0055
2748.00,0.0055
2747.00,0.0056
2746.00,0.0056
2745.00,0.0056
2744.00,0.0057
2743.00,0.0058
2742.00,0.0059
2741.00,0.0060
2740.00,0.0062
2739.00,0.0063
2738.00,0.0064
2737.00,0.0065
2736.00,0.0066
2735.00,0.0067
2734.00,0.0069
2733.00,0.0070
2732.00,0.0072
2731.00,0.0074
2730.00,0.0076
2729.00,0.0079
2728.00,0.0081
2727.00,0.0084
2726.00,0.0086
2725.00,0.0088
2724.00,0.0090
2723.00,0.0090
2722.00,0.0089
2721.00,0.0088
2720.00,0.0085
2719.00,0.0082
2718.00,0.0078
2717.00,0.0075
2716.00,0.0073
2715.00,0.0071
2714.00,0.0069
2713.00,0.0067
2712.00,0.0065
2711.00,0.0063
2710.00,0.0061
2709.00,0.0059
2708.00,0.0058
2707.00,0.0056
2706.00,0.0055
2705.00,0.0054
2704.00,0.0053
2703.00,0.0053
2702.00,0.0052
2701.00,0.0051
2700.00,0.0051
2699.00,0.0050
2698.00,0.0050
2697.00,0.0049
2696.00,0.0049
2695.00,0.0049
2694.00,0.0048
2693.00,0.0048
2692.00,0.0048
2691.00,0.0048
2690.00,0.0048
2689.00,0.0049
2688.00,0.0049
2687.00,0.0048
2686.00,0.0048
2685.00,0.0048
2684.00,0.0048
2683.00,0.0048
2682.00,0.0049
2681.00,0.0049
2680.00,0.0049
2679.00,0.0049
2678.00,0.0049
2677.00,0.0049
2676.00,0.0049
2675.00,0.0049
2674.00,0.0049
2673.00,0.0048
2672.00,0.0049
2671.00,0.0049
2670.00,0.0049
2669.00,0.0049
2668.00,0.0049
2667.00,0.0049
2666.00,0.0049
2665.00,0.0050
2664.00,0.0050
2663.00,0.0051
2662.00,0.0051
2661.00,0.0051
2660.00,0.0052
2659.00,0.0052
2658.00,0.0052
2657.00,0.0051
2656.00,0.0051
2655.00,0.0050
2654.00,0.0050
2653.00,0.0049
2652.00,0.0049
2651.00,0.0048
2650.00,0.0048
2649.00,0.0048
2648.00,0.0047
2647.00,0.0047
2646.00,0.0046
2645.00,0.0045
2644.00,0.0044
2643.00,0.0044
2642.00,0.0044
2641.00,0.0044
2640.00,0.0043
2639.00,0.0043
2638.00,0.0042
2637.00,0.0042
2636.00,0.0042
2635.00,0.0042
2634.00,0.0042
2633.00,0.0042
2632.00,0.0042
2631.00,0.0043
2630.00,0.0043
2629.00,0.0043
2628.00,0.0043
2627.00,0.0043
2626.00,0.0044
2625.00,0.0044
2624.00,0.0044
2623.00,0.0044
2622.00,0.0044
2621.00,0.0044
2620.00,0.0044
2619.00,0.0043
2618.00,0.0043
2617.00,0.0043
2616.00,0.0043
2615.00,0.0043
2614.00,0.0043
2613.00,0.0043
2612.00,0.0043
2611.00,0.0043
2610.00,0.0042
2609.00,0.0040
2608.00,0.0039
2607.00,0.0038
2606.00,0.0037
2605.00,0.0036
2604.00,0.0036
2603.00,0.0036
2602.00,0.0036
2601.00,0.0036
2600.00,0.0036
2599.00,0.0036
2598.00,0.0037
2597.00,0.0037
2596.00,0.0036
2595.00,0.0036
2594.00,0.0036
2593.00,0.0036
2592.00,0.0036
2591.00,0.0036
2590.00,0.0037
2589.00,0.0037
2588.00,0.0038
2587.00,0.0040
2586.00,0.0041
2585.00,0.0042
2584.00,0.0042
2583.00,0.0042
2582.00,0.0042
2581.00,0.0042
2580.00,0.0042
2579.00,0.0041
2578.00,0.0040
2577.00,0.0039
2576.00,0.0038
2575.00,0.0037
2574.00,0.0035
2573.00,0.0034
2572.00,0.0033
2571.00,0.0032
2570.00,0.0031
2569.00,0.0030
2568.00,0.0030
2567.00,0.0029
2566.00,0.0029
2565.00,0.0028
2564.00,0.0027
2563.00,0.0027
2562.00,0.0027
2561.00,0.0027
2560.00,0.0027
2559.00,0.0027
2558.00,0.0027
2557.00,0.0026
2556.00,0.0025
2555.00,0.0025
2554.00,0.0025
2553.00,0.0025
2552.00,0.0025
2551.00,0.0025
2550.00,0.0025
2549.00,0.0024
2548.00,0.0024
2547.00,0.0023
2546.00,0.0023
2545.00,0.0022
2544.00,0.0022
2543.00,0.0022
2542.00,0.0022
2541.00,0.0021
2540.00,0.0020
2539.00,0.0020
2538.00,0.0020
2537.00,0.0020
2536.00,0.0020
2535.00,0.0020
2534.00,0.0020
2533.00,0.0020
2532.00,0.0019
2531.00,0.0018
2530.00,0.0018
2529.00,0.0018
2528.00,0.0019
2527.00,0.0019
2526.00,0.0019
2525.00,0.0019
2524.00,0.0018
2523.00,0.0017
2522.00,0.0016
2521.00,0.0015
2520.00,0.0015
2519.00,0.0015
2518.00,0.0015
2517.00,0.0016
2516.00,0.0016
2515.00,0.0016
2514.00,0.0015
2513.00,0.0015
2512.00,0.0015
2511.00,0.0015
2510.00,0.0016
2509.00,0.0016
2508.00,0.0016
2507.00,0.0015
2506.00,0.0015
2505.00,0.0014
2504.00,0.0012
2503.00,0.0012
2502.00,0.0011
2501.00,0.0012
2500.00,0.0012
2499.00,0.0013
2498.00,0.0014
2497.00,0.0014
2496.00,0.0015
2495.00,0.0015
2494.00,0.0015
2493.00,0.0015
2492.00,0.0014
2491.00,0.0013
2490.00,0.0013
2489.00,0.0013
2488.00,0.0014
2487.00,0.0015
2486.00,0.0015
2485.00,0.0015
2484.00,0.0014
2483.00,0.0014
2482.00,0.0013
2481.00,0.0012
2480.00,0.0012
2479.00,0.0012
2478.00,0.0012
2477.00,0.0012
2476.00,0.0012
2475.00,0.0012
2474.00,0.0012
2473.00,0.0012
2472.00,0.0012
2471.00,0.0013
2470.00,0.0014
2469.00,0.0015
2468.00,0.0015
2467.00,0.0014
2466.00,0.0014
2465.00,0.0013
2464.00,0.0013
2463.00,0.0013
2462.00,0.0013
2461.00,0.0014
2460.00,0.0014
2459.00,0.0015
2458.00,0.0015
2457.00,0.0016
2456.00,0.0016
2455.00,0.0016
2454.00,0.0016
2453.00,0.0015
2452.00,0.0015
2451.00,0.0015
2450.00,0.0015
2449.00,0.0014
2448.00,0.0014
2447.00,0.0014
2446.00,0.0014
2445.00,0.0014
2444.00,0.0014
2443.00,0.0014
2442.00,0.0014
2441.00,0.0014
2440.00,0.0014
2439.00,0.0015
2438.00,0.0015
2437.00,0.0016
2436.00,0.0016
2435.00,0.0016
2434.00,0.0016
2433.00,0.0015
2432.00,0.0015
2431.00,0.0015
2430.00,0.0015
2429.00,0.0015
2428.00,0.0015
2427.00,0.0015
2426.00,0.0015
2425.00,0.0015
2424.00,0.0015
2423.00,0.0015
2422.00,0.0014
2421.00,0.0014
2420.00,0.0014
2419.00,0.0013
2418.00,0.0012
2417.00,0.0012
2416.00,0.0012
2415.00,0.0012
2414.00,0.0013
2413.00,0.0013
2412.00,0.0013
2411.00,0.0013
2410.00,0.0013
2409.00,0.0013
2408.00,0.0013
2407.00,0.0012
2406.00,0.0012
2405.00,0.0012
2404.00,0.0012
2403.00,0.0012
2402.00,0.0012
2401.00,0.0012
2400.00,0.0012
2399.00,0.0012
2398.00,0.0012
2397.00,0.0012
2396.00,0.0012
2395.00,0.0011
2394.00,0.0011
2393.00,0.0011
2392.00,0.0011
2391.00,0.0011
2390.00,0.0011
2389.00,0.0011
2388.00,0.0011
2387.00,0.0011
2386.00,0.0011
2385.00,0.0011
2384.00,0.0010
2383.00,0.0009
2382.00,0.0008
2381.00,0.0007
2380.00,0.0006
2379.00,0.0006
2378.00,0.0005
2377.00,0.0006
2376.00,0.0006
2375.00,0.0007
2374.00,0.0007
2373.00,0.0007
2372.00,0.0006
2371.00,0.0006
2370.00,0.0006
2369.00,0.0006
2368.00,0.0007
2367.00,0.0008
2366.00,0.0009
2365.00,0.0010
2364.00,0.0010
2363.00,0.0009
2362.00,0.0008
2361.00,0.0008
2360.00,0.0007
2359.00,0.0007
2358.00,0.0007
2357.00,0.0008
2356.00,0.0009
2355.00,0.0009
2354.00,0.0009
2353.00,0.0009
2352.00,0.0008
2351.00,0.0008
2350.00,0.0008
2349.00,0.0009
2348.00,0.0010
2347.00,0.0010
2346.00,0.0010
2345.00,0.0010
2344.00,0.0010
2343.00,0.0010
2342.00,0.0011
2341.00,0.0011
2340.00,0.0011
2339.00,0.0011
2338.00,0.0011
2337.00,0.0011
2336.00,0.0011
2335.00,0.0010
2334.00,0.0010
2333.00,0.0010
2332.00,0.0009
2331.00,0.0009
2330.00,0.0009
2329.00,0.0010
2328.00,0.0012
2327.00,0.0015
2326.00,0.0019
2325.00,0.0022
2324.00,0.0023
2323.00,0.0021
2322.00,0.0019
2321.00,0.0017
2320.00,0.0016
2319.00,0.0015
2318.00,0.0015
2317.00,0.0015
2316.00,0.0014
2315.00,0.0014
2314.00,0.0014
2313.00,0.0013
2312.00,0.0013
2311.00,0.0013
2310.00,0.0012
2309.00,0.0012
2308.00,0.0012
2307.00,0.0012
2306.00,0.0013
2305.00,0.0014
2304.00,0.0014
2303.00,0.0015
2302.00,0.0016
2301.00,0.0016
2300.00,0.0016
2299.00,0.0016
2298.00,0.0016
2297.00,0.0016
2296.00,0.0017
2295.00,0.0017
2294.00,0.0017
2293.00,0.0017
2292.00,0.0017
2291.00,0.0018
2290.00,0.0019
2289.00,0.0020
2288.00,0.0020
2287.00,0.0020
2286.00,0.0021
2285.00,0.0022
2284.00,0.0022
2283.00,0.0022
2282.00,0.0022
2281.00,0.0021
2280.00,0.0020
2279.00,0.0019
2278.00,0.0018
2277.00,0.0017
2276.00,0.0017
2275.00,0.0016
2274.00,0.0016
2273.00,0.0016
2272.00,0.0016
2271.00,0.0015
2270.00,0.0015
2269.00,0.0014
2268.00,0.0014
2267.00,0.0014
2266.00,0.0013
2265.00,0.0012
2264.00,0.0011
2263.00,0.0011
2262.00,0.0012
2261.00,0.0013
2260.00,0.0014
2259.00,0.0015
2258.00,0.0016
2257.00,0.0017
2256.00,0.0017
2255.00,0.0017
2254.00,0.0016
2253.00,0.0015
2252.00,0.0014
2251.00,0.0013
2250.00,0.0012
2249.00,0.0013
2248.00,0.0013
2247.00,0.0013
2246.00,0.0012
2245.00,0.0011
2244.00,0.0010
2243.00,0.0010
2242.00,0.0010
2241.00,0.0012
2240.00,0.0013
2239.00,0.0013
2238.00,0.0012
2237.00,0.0011
2236.00,0.0010
2235.00,0.0009
2234.00,0.0008
2233.00,0.0007
2232.00,0.0007
2231.00,0.0007
2230.00,0.0008
2229.00,0.0010
2228.00,0.0011
2227.00,0.0012
2226.00,0.0013
2225.00,0.0013
2224.00,0.0013
2223.00,0.0012
2222.00,0.0012
2221.00,0.0012
2220.00,0.0011
2219.00,0.0010
2218.00,0.0008
2217.00,0.0008
2216.00,0.0008
2215.00,0.0008
2214.00,0.0008
2213.00,0.0008
2212.00,0.0008
2211.00,0.0008
2210.00,0.0010
2209.00,0.0011
2208.00,0.0012
2207.00,0.0012
2206.00,0.0012
2205.00,0.0012
2204.00,0.0013
2203.00,0.0012
2202.00,0.0011
2201.00,0.0009
2200.00,0.0009
2199.00,0.0009
2198.00,0.0010
2197.00,0.0010
2196.00,0.0010
2195.00,0.0010
2194.00,0.0010
2193.00,0.0009
2192.00,0.0009
2191.00,0.0009
2190.00,0.0010
2189.00,0.0011
2188.00,0.0011
2187.00,0.0010
2186.00,0.0010
2185.00,0.0009
2184.00,0.0006
2183.00,0.0004
2182.00,0.0003
2181.00,0.0004
2180.00,0.0007
2179.00,0.0008
2178.00,0.0008
2177.00,0.0006
2176.00,0.0004
2175.00,0.0002
2174.00,0.0001
2173.00,0.0002
2172.00,0.0004
2171.00,0.0008
2170.00,0.0014
2169.00,0.0018
2168.00,0.0020
2167.00,0.0019
2166.00,0.0017
2165.00,0.0017
2164.00,0.0019
2163.00,0.0022
2162.00,0.0023
2161.00,0.0017
2160.00,0.0005
2159.00,-0.0011
2158.00,-0.0024
2157.00,-0.0028
2156.00,-0.0026
2155.00,-0.0022
2154.00,-0.0018
2153.00,-0.0015
2152.00,-0.0015
2151.00,-0.0015
2150.00,-0.0014
2149.00,-0.0013
2148.00,-0.0012
2147.00,-0.0010
2146.00,-0.0009
2145.00,-0.0008
2144.00,-0.0007
2143.00,-0.0006
2142.00,-0.0006
2141.00,-0.0007
2140.00,-0.0008
2139.00,-0.0009
2138.00,-0.0010
2137.00,-0.0012
2136.00,-0.0014
2135.00,-0.0016
2134.00,-0.0018
2133.00,-0.0017
2132.00,-0.0015
2131.00,-0.0012
2130.00,-0.0009
2129.00,-0.0007
2128.00,-0.0006
2127.00,-0.0005
2126.00,-0.0005
2125.00,-0.0004
2124.00,-0.0003
2123.00,-0.0002
2122.00,-0.0001
2121.00,0.0000
2120.00,0.0000
2119.00,0.0000
2118.00,0.0000
2117.00,0.0001
2116.00,0.0002
2115.00,0.0003
2114.00,0.0004
2113.00,0.0004
2112.00,0.0005
2111.00,0.0005
2110.00,0.0005
2109.00,0.0005
2108.00,0.0005
2107.00,0.0005
2106.00,0.0005
2105.00,0.0006
2104.00,0.0006
2103.00,0.0005
2102.00,0.0004
2101.00,0.0003
2100.00,0.0002
2099.00,0.0002
2098.00,0.0002
2097.00,0.0003
2096.00,0.0003
2095.00,0.0002
2094.00,0.0001
2093.00,0.0002
2092.00,0.0004
2091.00,0.0006
2090.00,0.0006
2089.00,0.0006
2088.00,0.0005
2087.00,0.0004
2086.00,0.0004
2085.00,0.0004
2084.00,0.0005
2083.00,0.0006
2082.00,0.0006
2081.00,0.0005
2080.00,0.0004
2079.00,0.0004
2078.00,0.0005
2077.00,0.0006
2076.00,0.0008
2075.00,0.0008
2074.00,0.0008
2073.00,0.0006
2072.00,0.0006
2071.00,0.0005
2070.00,0.0005
2069.00,0.0006
2068.00,0.0006
2067.00,0.0005
2066.00,0.0005
2065.00,0.0005
2064.00,0.0005
2063.00,0.0005
2062.00,0.0005
2061.00,0.0006
2060.00,0.0007
2059.00,0.0007
2058.00,0.0008
2057.00,0.0007
2056.00,0.0007
2055.00,0.0006
2054.00,0.0007
2053.00,0.0011
2052.00,0.0015
2051.00,0.0018
2050.00,0.0017
2049.00,0.0014
2048.00,0.0011
2047.00,0.0008
2046.00,0.0006
2045.00,0.0007
2044.00,0.0008
2043.00,0.0008
2042.00,0.0008
2041.00,0.0007
2040.00,0.0007
2039.00,0.0007
2038.00,0.0006
2037.00,0.0005
2036.00,0.0003
2035.00,-0.0000
2034.00,-0.0004
2033.00,-0.0007
2032.00,-0.0008
2031.00,-0.0008
2030.00,-0.0008
2029.00,-0.0008
2028.00,-0.0008
2027.00,-0.0007
2026.00,-0.0006
2025.00,-0.0005
2024.00,-0.0004
2023.00,-0.0005
2022.00,-0.0008
2021.00,-0.0010
2020.00,-0.0011
2019.00,-0.0011
2018.00,-0.0010
2017.00,-0.0009
2016.00,-0.0007
2015.00,-0.0006
2014.00,-0.0007
2013.00,-0.0009
2012.00,-0.0010
2011.00,-0.0010
2010.00,-0.0009
2009.00,-0.0009
2008.00,-0.0010
2007.00,-0.0013
2006.00,-0.0016
2005.00,-0.0016
2004.00,-0.0013
2003.00,-0.0010
2002.00,-0.0008
2001.00,-0.0007
2000.00,-0.0007
1999.00,-0.0009
1998.00,-0.0010
1997.00,-0.0011
1996.00,-0.0011
1995.00,-0.0011
1994.00,-0.0011
1993.00,-0.0010
1992.00,-0.0007
1991.00,-0.0005
1990.00,-0.0003
1989.00,-0.0001
1988.00,0.0001
1987.00,0.0003
1986.00,0.0003
1985.00,0.0004
1984.00,0.0006
1983.00,0.0009
1982.00,0.0012
1981.00,0.0014
1980.00,0.0014
1979.00,0.0011
1978.00,0.0004
1977.00,-0.0004
1976.00,-0.0009
1975.00,-0.0011
1974.00,-0.0011
1973.00,-0.0009
1972.00,-0.0008
1971.00,-0.0009
1970.00,-0.0011
1969.00,-0.0011
1968.00,-0.0011
1967.00,-0.0010
1966.00,-0.0009
1965.00,-0.0009
1964.00,-0.0010
1963.00,-0.0013
1962.00,-0.0015
1961.00,-0.0016
1960.00,-0.0017
1959.00,-0.0017
1958.00,-0.0017
1957.00,-0.0015
1956.00,-0.0013
1955.00,-0.0012
1954.00,-0.0013
1953.00,-0.0014
1952.00,-0.0016
1951.00,-0.0016
1950.00,-0.0014
1949.00,-0.0012
1948.00,-0.0011
1947.00,-0.0010
1946.00,-0.0010
1945.00,-0.0011
1944.00,-0.0011
1943.00,-0.0010
1942.00,-0.0010
1941.00,-0.0009
1940.00,-0.0009
1939.00,-0.0008
1938.00,-0.0007
1937.00,-0.0006
1936.00,-0.0006
1935.00,-0.0006
1934.00,-0.0006
1933.00,-0.0007
1932.00,-0.0006
1931.00,-0.0006
1930.00,-0.0005
1929.00,-0.0004
1928.00,-0.0004
1927.00,-0.0004
1926.00,-0.0004
1925.00,-0.0005
1924.00,-0.0004
1923.00,-0.0004
1922.00,-0.0003
1921.00,-0.0001
1920.00,0.0001
1919.00,0.0002
1918.00,0.0002
1917.00,0.0002
1916.00,0.0002
1915.00,0.0002
1914.00,0.0002
1913.00,0.0000
1912.00,-0.0001
1911.00,-0.0002
1910.00,-0.0002
1909.00,-0.0001
1908.00,0.0001
1907.00,0.0002
1906.00,0.0003
1905.00,0.0003
1904.00,0.0002
1903.00,0.0002
1902.00,0.0001
1901.00,0.0001
1900.00,0.0002
1899.00,0.0002
1898.00,0.0002
1897.00,0.0003
1896.00,0.0003
1895.00,0.0003
1894.00,0.0003
1893.00,0.0004
1892.00,0.0005
1891.00,0.0004
1890.00,0.0003
1889.00,0.0002
1888.00,0.0001
1887.00,0.0001
1886.00,0.0001
1885.00,0.0001
1884.00,0.0001
1883.00,0.0001
1882.00,0.0001
1881.00,0.0001
1880.00,0.0001
1879.00,0.0002
1878.00,0.0002
1877.00,0.0002
1876.00,0.0002
1875.00,0.0002
1874.00,0.0002
1873.00,0.0003
1872.00,0.0004
1871.00,0.0004
1870.00,0.0004
1869.00,0.0004
1868.00,0.0004
1867.00,0.0005
1866.00,0.0005
1865.00,0.0004
1864.00,0.0003
1863.00,0.0002
1862.00,0.0002
1861.00,0.0003
1860.00,0.0003
1859.00,0.0003
1858.00,0.0003
1857.00,0.0003
1856.00,0.0004
1855.00,0.0004
1854.00,0.0003
1853.00,0.0003
1852.00,0.0003
1851.00,0.0002
1850.00,0.0002
1849.00,0.0002
1848.00,0.0003
1847.00,0.0003
1846.00,0.0004
1845.00,0.0005
1844.00,0.0005
1843.00,0.0006
1842.00,0.0006
1841.00,0.0006
1840.00,0.0006
1839.00,0.0006
1838.00,0.0007
1837.00,0.0007
1836.00,0.0007
1835.00,0.0006
1834.00,0.0006
1833.00,0.0006
1832.00,0.0007
1831.00,0.0007
1830.00,0.0007
1829.00,0.0008
1828.00,0.0008
1827.00,0.0009
1826.00,0.0008
1825.00,0.0008
1824.00,0.0008
1823.00,0.0007
1822.00,0.0006
1821.00,0.0005
1820.00,0.0004
1819.00,0.0003
1818.00,0.0002
1817.00,0.0001
1816.00,0.0001
1815.00,0.0002
1814.00,0.0004
1813.00,0.0005
1812.00,0.0006
1811.00,0.0006
1810.00,0.0006
1809.00,0.0006
1808.00,0.0006
1807.00,0.0007
1806.00,0.0007
1805.00,0.0008
1804.00,0.0009
1803.00,0.0009
1802.00,0.0009
1801.00,0.0009
1800.00,0.0009
1799.00,0.0009
1798.00,0.0008
1797.00,0.0008
1796.00,0.0009
1795.00,0.0010
1794.00,0.0011
1793.00,0.0012
1792.00,0.0012
1791.00,0.0011
1790.00,0.0011
1789.00,0.0011
1788.00,0.0011
1787.00,0.0011
1786.00,0.0011
1785.00,0.0011
1784.00,0.0012
1783.00,0.0012
1782.00,0.0012
1781.00,0.0012
1780.00,0.0013
1779.00,0.0012
1778.00,0.0012
1777.00,0.0012
1776.00,0.0012
1775.00,0.0012
1774.00,0.0012
1773.00,0.0012
1772.00,0.0013
1771.00,0.0013
1770.00,0.0014
1769.00,0.0014
1768.00,0.0015
1767.00,0.0015
1766.00,0.0015
1765.00,0.0016
1764.00,0.0016
1763.00,0.0016
1762.00,0.0017
1761.00,0.0017
1760.00,0.0017
1759.00,0.0017
1758.00,0.0017
1757.00,0.0017
1756.00,0.0017
1755.00,0.0018
1754.00,0.0019
1753.00,0.0020
1752.00,0.0020
1751.00,0.0021
1750.00,0.0021
1749.00,0.0022
1748.00,0.0022
1747.00,0.0023
1746.00,0.0024
1745.00,0.0025
1744.00,0.0026
1743.00,0.0026
1742.00,0.0026
1741.00,0.0026
1740.00,0.0026
1739.00,0.0025
1738.00,0.0026
1737.00,0.0026
1736.00,0.0027
1735.00,0.0027
1734.00,0.0026
1733.00,0.0026
1732.00,0.0026
1731.00,0.0026
1730.00,0.0026
1729.00,0.0026
1728.00,0.0026
1727.00,0.0027
1726.00,0.0026
1725.00,0.0026
1724.00,0.0026
1723.00,0.0026
1722.00,0.0026
1721.00,0.0026
1720.00,0.0027
1719.00,0.0027
1718.00,0.0027
1717.00,0.0028
1716.00,0.0028
1715.00,0.0028
1714.00,0.0028
1713.00,0.0028
1712.00,0.0028
1711.00,0.0028
1710.00,0.0028
1709.00,0.0028
1708.00,0.0029
1707.00,0.0029
1706.00,0.0029
1705.00,0.0030
1704.00,0.0031
1703.00,0.0032
1702.00,0.0032
1701.00,0.0033
1700.00,0.0033
1699.00,0.0033
1698.00,0.0033
1697.00,0.0034
1696.00,0.0034
1695.00,0.0034
1694.00,0.0035
1693.00,0.0036
1692.00,0.0037
1691.00,0.0037
1690.00,0.0038
1689.00,0.0039
1688.00,0.0039
1687.00,0.0039
1686.00,0.0039
1685.00,0.0040
1684.00,0.0042
1683.00,0.0043
1682.00,0.0044
1681.00,0.0045
1680.00,0.0045
1679.00,0.0046
1678.00,0.0047
1677.00,0.0048
1676.00,0.0049
1675.00,0.0050
1674.00,0.0051
1673.00,0.0052
1672.00,0.0053
1671.00,0.0053
1670.00,0.0054
1669.00,0.0055
1668.00,0.0056
1667.00,0.0056
1666.00,0.0057
1665.00,0.0058
1664.00,0.0058
1663.00,0.0059
1662.00,0.0060
1661.00,0.0061
1660.00,0.0062
1659.00,0.0063
1658.00,0.0064
1657.00,0.0066
1656.00,0.0068
1655.00,0.0069
1654.00,0.0070
1653.00,0.0072
1652.00,0.0074
1651.00,0.0076
1650.00,0.0078
1649.00,0.0081
1648.00,0.0085
1647.00,0.0088
1646.00,0.0089
1645.00,0.0089
1644.00,0.0088
1643.00,0.0087
1642.00,0.0085
1641.00,0.0084
1640.00,0.0083
1639.00,0.0083
1638.00,0.0083
1637.00,0.0083
1636.00,0.0083
1635.00,0.0083
1634.00,0.0082
1633.00,0.0082
1632.00,0.0083
1631.00,0.0083
1630.00,0.0082
1629.00,0.0081
1628.00,0.0081
1627.00,0.0080
1626.00,0.0079
1625.00,0.0078
1624.00,0.0076
1623.00,0.0075
1622.00,0.0073
1621.00,0.0072
1620.00,0.0072
1619.00,0.0071
1618.00,0.0070
1617.00,0.0069
1616.00,0.0068
1615.00,0.0068
1614.00,0.0069
1613.00,0.0069
1612.00,0.0069
1611.00,0.0069
1610.00,0.0069
1609.00,0.0069
1608.00,0.0069
1607.00,0.0069
1606.00,0.0068
1605.00,0.0068
1604.00,0.0068
1603.00,0.0068
1602.00,0.0068
1601.00,0.0068
1600.00,0.0069
1599.00,0.0069
1598.00,0.0069
1597.00,0.0069
1596.00,0.0070
1595.00,0.0070
1594.00,0.0070
1593.00,0.0071
1592.00,0.0072
1591.00,0.0072
1590.00,0.0073
1589.00,0.0074
1588.00,0.0075
1587.00,0.0077
1586.00,0.0079
1585.00,0.0081
1584.00,0.0084
1583.00,0.0086
1582.00,0.0089
1581.00,0.0092
1580.00,0.0095
1579.00,0.0098
1578.00,0.0099
1577.00,0.0099
1576.00,0.0098
1575.00,0.0096
1574.00,0.0094
1573.00,0.0092
1572.00,0.0090
1571.00,0.0088
1570.00,0.0085
1569.00,0.0082
1568.00,0.0080
1567.00,0.0078
1566.00,0.0076
1565.00,0.0075
1564.00,0.0075
1563.00,0.0075
1562.00,0.0075
1561.00,0.0075
1560.00,0.0074
1559.00,0.0074
1558.00,0.0074
1557.00,0.0075
1556.00,0.0076
1555.00,0.0076
1554.00,0.0077
1553.00,0.0078
1552.00,0.0079
1551.00,0.0080
1550.00,0.0082
1549.00,0.0085
1548.00,0.0087
1547.00,0.0090
1546.00,0.0094
1545.00,0.0099
1544.00,0.0104
1543.00,0.0108
1542.00,0.0111
1541.00,0.0114
1540.00,0.0116
1539.00,0.0114
1538.00,0.0111
1537.00,0.0109
1536.00,0.0107
1535.00,0.0104
1534.00,0.0100
1533.00,0.0096
1532.00,0.0092
1531.00,0.0089
1530.00,0.0087
1529.00,0.0086
1528.00,0.0084
1527.00,0.0082
1526.00,0.0080
1525.00,0.0079
1524.00,0.0078
1523.00,0.0078
1522.00,0.0077
1521.00,0.0076
1520.00,0.0075
1519.00,0.0074
1518.00,0.0074
1517.00,0.0073
1516.00,0.0073
1515.00,0.0073
1514.00,0.0072
1513.00,0.0072
1512.00,0.0073
1511.00,0.0073
1510.00,0.0074
1509.00,0.0074
1508.00,0.0076
1507.00,0.0076
1506.00,0.0076
1505.00,0.0077
1504.00,0.0079
1503.00,0.0080
1502.00,0.0082
1501.00,0.0085
1500.00,0.0089
1499.00,0.0093
1498.00,0.0097
1497.00,0.0103
1496.00,0.0110
1495.00,0.0115
1494.00,0.0118
1493.00,0.0122
1492.00,0.0126
1491.00,0.0130
1490.00,0.0133
1489.00,0.0138
1488.00,0.0143
1487.00,0.0147
1486.00,0.0152
1485.00,0.0159
1484.00,0.0166
1483.00,0.0174
1482.00,0.0183
1481.00,0.0195
1480.00,0.0208
1479.00,0.0221
1478.00,0.0236
1477.00,0.0256
1476.00,0.0281
1475.00,0.0310
1474.00,0.0349
1473.00,0.0405
1472.00,0.0472
1471.00,0.0535
1470.00,0.0596
1469.00,0.0659
1468.00,0.0727
1467.00,0.0803
1466.00,0.0889
1465.00,0.0982
1464.00,0.1065
1463.00,0.1122
1462.00,0.1160
1461.00,0.1186
1460.00,0.1204
1459.00,0.1217
1458.00,0.1227
1457.00,0.1234
1456.00,0.1234
1455.00,0.1227
1454.00,0.1215
1453.00,0.1198
1452.00,0.1170
1451.00,0.1131
1450.00,0.1077
1449.00,0.1005
1448.00,0.0914
1447.00,0.0819
1446.00,0.0734
1445.00,0.0661
1444.00,0.0599
1443.00,0.0548
1442.00,0.0510
1441.00,0.0483
1440.00,0.0467
1439.00,0.0460
1438.00,0.0460
1437.00,0.0460
1436.00,0.0450
1435.00,0.0426
1434.00,0.0391
1433.00,0.0349
1432.00,0.0306
1431.00,0.0266
1430.00,0.0235
1429.00,0.0212
1428.00,0.0196
1427.00,0.0187
1426.00,0.0181
1425.00,0.0175
1424.00,0.0170
1423.00,0.0168
1422.00,0.0167
1421.00,0.0165
1420.00,0.0163
1419.00,0.0160
1418.00,0.0157
1417.00,0.0153
1416.00,0.0150
1415.00,0.0147
1414.00,0.0145
1413.00,0.0142
1412.00,0.0138
1411.00,0.0136
1410.00,0.0135
1409.00,0.0134
1408.00,0.0133
1407.00,0.0133
1406.00,0.0133
1405.00,0.0132
1404.00,0.0131
1403.00,0.0131
1402.00,0.0132
1401.00,0.0133
1400.00,0.0133
1399.00,0.0135
1398.00,0.0137
1397.00,0.0139
1396.00,0.0142
1395.00,0.0146
1394.00,0.0152
1393.00,0.0157
1392.00,0.0162
1391.00,0.0170
1390.00,0.0182
1389.00,0.0197
1388.00,0.0219
1387.00,0.0252
1386.00,0.0297
1385.00,0.0356
1384.00,0.0437
1383.00,0.0551
1382.00,0.0705
1381.00,0.0904
1380.00,0.1145
1379.00,0.1413
1378.00,0.1660
1377.00,0.1829
1376.00,0.1868
1375.00,0.1753
1374.00,0.1518
1373.00,0.1248
1372.00,0.1009
1371.00,0.0815
1370.00,0.0661
1369.00,0.0544
1368.00,0.0463
1367.00,0.0413
1366.00,0.0385
1365.00,0.0374
1364.00,0.0375
1363.00,0.0387
1362.00,0.0406
1361.00,0.0427
1360.00,0.0443
1359.00,0.0448
1358.00,0.0438
1357.00,0.0415
1356.00,0.0381
1355.00,0.0343
1354.00,0.0306
1353.00,0.0274
1352.00,0.0248
1351.00,0.0227
1350.00,0.0209
1349.00,0.0194
1348.00,0.0182
1347.00,0.0172
1346.00,0.0163
1345.00,0.0155
1344.00,0.0149
1343.00,0.0144
1342.00,0.0140
1341.00,0.0137
1340.00,0.0135
1339.00,0.0133
1338.00,0.0132
1337.00,0.0131
1336.00,0.0132
1335.00,0.0134
1334.00,0.0137
1333.00,0.0140
1332.00,0.0144
1331.00,0.0147
1330.00,0.0148
1329.00,0.0146
1328.00,0.0143
1327.00,0.0139
1326.00,0.0133
1325.00,0.0128
1324.00,0.0122
1323.00,0.0117
1322.00,0.0113
1321.00,0.0111
1320.00,0.0108
1319.00,0.0106
1318.00,0.0104
1317.00,0.0102
1316.00,0.0101
1315.00,0.0100
1314.00,0.0100
1313.00,0.0100
1312.00,0.0101
1311.00,0.0103
1310.00,0.0108
1309.00,0.0114
1308.00,0.0124
1307.00,0.0136
1306.00,0.0148
1305.00,0.0157
1304.00,0.0160
1303.00,0.0158
1302.00,0.0153
1301.00,0.0148
1300.00,0.0144
1299.00,0.0143
1298.00,0.0143
1297.00,0.0143
1296.00,0.0141
1295.00,0.0138
1294.00,0.0134
1293.00,0.0129
1292.00,0.0123
1291.00,0.0119
1290.00,0.0115
1289.00,0.0111
1288.00,0.0107
1287.00,0.0104
1286.00,0.0101
1285.00,0.0098
1284.00,0.0096
1283.00,0.0095
1282.00,0.0094
1281.00,0.0093
1280.00,0.0092
1279.00,0.0091
1278.00,0.0090
1277.00,0.0089
1276.00,0.0088
1275.00,0.0088
1274.00,0.0087
1273.00,0.0088
1272.00,0.0088
1271.00,0.0090
1270.00,0.0092
1269.00,0.0094
1268.00,0.0096
1267.00,0.0099
1266.00,0.0102
1265.00,0.0106
1264.00,0.0109
1263.00,0.0113
1262.00,0.0116
1261.00,0.0121
1260.00,0.0127
1259.00,0.0134
1258.00,0.0142
1257.00,0.0149
1256.00,0.0152
1255.00,0.0149
1254.00,0.0142
1253.00,0.0133
1252.00,0.0123
1251.00,0.0116
1250.00,0.0110
1249.00,0.0105
1248.00,0.0101
1247.00,0.0098
1246.00,0.0096
1245.00,0.0094
1244.00,0.0093
1243.00,0.0092
1242.00,0.0091
1241.00,0.0090
1240.00,0.0089
1239.00,0.0089
1238.00,0.0088
1237.00,0.0088
1236.00,0.0087
1235.00,0.0087
1234.00,0.0087
1233.00,0.0087
1232.00,0.0088
1231.00,0.0088
1230.00,0.0089
1229.00,0.0090
1228.00,0.0091
1227.00,0.0093
1226.00,0.0095
1225.00,0.0098
1224.00,0.0101
1223.00,0.0105
1222.00,0.0107
1221.00,0.0109
1220.00,0.0110
1219.00,0.0111
1218.00,0.0111
1217.00,0.0110
1216.00,0.0108
1215.00,0.0104
1214.00,0.0100
1213.00,0.0097
1212.00,0.0094
1211.00,0.0092
1210.00,0.0090
1209.00,0.0089
1208.00,0.0088
1207.00,0.0087
1206.00,0.0087
1205.00,0.0086
1204.00,0.0085
1203.00,0.0084
1202.00,0.0084
1201.00,0.0084
1200.00,0.0083
1199.00,0.0082
1198.00,0.0082
1197.00,0.0083
1196.00,0.0084
1195.00,0.0084
1194.00,0.0084
1193.00,0.0084
1192.00,0.0084
1191.00,0.0084
1190.00,0.0084
1189.00,0.0085
1188.00,0.0085
1187.00,0.0086
1186.00,0.0086
1185.00,0.0087
1184.00,0.0089
1183.00,0.0090
1182.00,0.0093
1181.00,0.0096
1180.00,0.0100
1179.00,0.0105
1178.00,0.0113
1177.00,0.0122
1176.00,0.0134
1175.00,0.0151
1174.00,0.0173
1173.00,0.0200
1172.00,0.0232
1171.00,0.0266
1170.00,0.0298
1169.00,0.0322
1168.00,0.0336
1167.00,0.0337
1166.00,0.0328
1165.00,0.0312
1164.00,0.0293
1163.00,0.0274
1162.00,0.0258
1161.00,0.0245
1160.00,0.0235
1159.00,0.0228
1158.00,0.0222
1157.00,0.0218
1156.00,0.0215
1155.00,0.0213
1154.00,0.0211
1153.00,0.0209
1152.00,0.0205
1151.00,0.0199
1150.00,0.0190
1149.00,0.0180
1148.00,0.0170
1147.00,0.0160
1146.00,0.0151
1145.00,0.0143
1144.00,0.0136
1143.00,0.0129
1142.00,0.0123
1141.00,0.0118
1140.00,0.0114
1139.00,0.0110
1138.00,0.0106
1137.00,0.0103
1136.00,0.0100
1135.00,0.0097
1134.00,0.0094
1133.00,0.0092
1132.00,0.0091
1131.00,0.0091
1130.00,0.0092
1129.00,0.0092
1128.00,0.0092
1127.00,0.0093
1126.00,0.0093
1125.00,0.0094
1124.00,0.0094
1123.00,0.0094
1122.00,0.0094
1121.00,0.0094
1120.00,0.0095
1119.00,0.0096
1118.00,0.0098
1117.00,0.0100
1116.00,0.0102
1115.00,0.0104
1114.00,0.0105
1113.00,0.0107
1112.00,0.0108
1111.00,0.0111
1110.00,0.0114
1109.00,0.0118
1108.00,0.0122
1107.00,0.0127
1106.00,0.0133
1105.00,0.0139
1104.00,0.0143
1103.00,0.0145
1102.00,0.0145
1101.00,0.0142
1100.00,0.0138
1099.00,0.0134
1098.00,0.0129
1097.00,0.0124
1096.00,0.0119
1095.00,0.0116
1094.00,0.0112
1093.00,0.0109
1092.00,0.0105
1091.00,0.0103
1090.00,0.0101
1089.00,0.0100
1088.00,0.0099
1087.00,0.0100
1086.00,0.0100
1085.00,0.0100
1084.00,0.0100
1083.00,0.0099
1082.00,0.0097
1081.00,0.0095
1080.00,0.0093
1079.00,0.0092
1078.00,0.0090
1077.00,0.0089
1076.00,0.0088
1075.00,0.0087
1074.00,0.0087
1073.00,0.0086
1072.00,0.0085
1071.00,0.0084
1070.00,0.0084
1069.00,0.0084
1068.00,0.0084
1067.00,0.0084
1066.00,0.0085
1065.00,0.0085
1064.00,0.0085
1063.00,0.0085
1062.00,0.0085
1061.00,0.0085
1060.00,0.0085
1059.00,0.0085
1058.00,0.0086
1057.00,0.0086
1056.00,0.0087
1055.00,0.0087
1054.00,0.0088
1053.00,0.0090
1052.00,0.0091
1051.00,0.0092
1050.00,0.0094
1049.00,0.0096
1048.00,0.0099
1047.00,0.0103
1046.00,0.0107
1045.00,0.0109
1044.00,0.0109
1043.00,0.0108
1042.00,0.0105
1041.00,0.0102
1040.00,0.0100
1039.00,0.0100
1038.00,0.0101
1037.00,0.0102
1036.00,0.0102
1035.00,0.0101
1034.00,0.0099
1033.00,0.0096
1032.00,0.0094
1031.00,0.0092
1030.00,0.0090
1029.00,0.0090
1028.00,0.0090
1027.00,0.0090
1026.00,0.0090
1025.00,0.0091
1024.00,0.0091
1023.00,0.0092
1022.00,0.0093
1021.00,0.0094
1020.00,0.0093
1019.00,0.0093
1018.00,0.0093
1017.00,0.0094
1016.00,0.0096
1015.00,0.0099
1014.00,0.0103
1013.00,0.0107
1012.00,0.0110
1011.00,0.0113
1010.00,0.0116
1009.00,0.0119
1008.00,0.0123
1007.00,0.0129
1006.00,0.0138
1005.00,0.0151
1004.00,0.0169
1003.00,0.0194
1002.00,0.0227
1001.00,0.0268
1000.00,0.0311
999.00,0.0347
998.00,0.0365
997.00,0.0358
996.00,0.0329
995.00,0.0287
994.00,0.0243
993.00,0.0206
992.00,0.0178
991.00,0.0157
990.00,0.0142
989.00,0.0130
988.00,0.0123
987.00,0.0119
986.00,0.0118
985.00,0.0119
984.00,0.0123
983.00,0.0131
982.00,0.0143
981.00,0.0160
980.00,0.0185
979.00,0.0218
978.00,0.0259
977.00,0.0307
976.00,0.0358
975.00,0.0404
974.00,0.0436
973.00,0.0445
972.00,0.0426
971.00,0.0383
970.00,0.0327
969.00,0.0271
968.00,0.0224
967.00,0.0189
966.00,0.0163
965.00,0.0144
964.00,0.0130
963.00,0.0120
962.00,0.0112
961.00,0.0106
960.00,0.0101
959.00,0.0097
958.00,0.0094
957.00,0.0091
956.00,0.0089
955.00,0.0088
954.00,0.0086
953.00,0.0084
952.00,0.0083
951.00,0.0082
950.00,0.0081
949.00,0.0080
948.00,0.0080
947.00,0.0081
946.00,0.0084
945.00,0.0087
944.00,0.0089
943.00,0.0091
942.00,0.0093
941.00,0.0096
940.00,0.0098
939.00,0.0096
938.00,0.0092
937.00,0.0087
936.00,0.0081
935.00,0.0077
934.00,0.0074
933.00,0.0072
932.00,0.0071
931.00,0.0070
930.00,0.0069
929.00,0.0069
928.00,0.0069
927.00,0.0068
926.00,0.0068
925.00,0.0068
924.00,0.0067
923.00,0.0067
922.00,0.0066
921.00,0.0066
920.00,0.0065
919.00,0.0064
918.00,0.0064
917.00,0.0064
916.00,0.0065
915.00,0.0066
914.00,0.0068
913.00,0.0070
912.00,0.0072
911.00,0.0072
910.00,0.0073
909.00,0.0074
908.00,0.0078
907.00,0.0085
906.00,0.0094
905.00,0.0105
904.00,0.0120
903.00,0.0137
902.00,0.0156
901.00,0.0172
900.00,0.0182
899.00,0.0183
898.00,0.0175
897.00,0.0160
896.00,0.0142
895.00,0.0126
894.00,0.0112
893.00,0.0101
892.00,0.0094
891.00,0.0089
890.00,0.0085
889.00,0.0083
888.00,0.0081
887.00,0.0079
886.00,0.0078
885.00,0.0078
884.00,0.0077
883.00,0.0077
882.00,0.0078
881.00,0.0080
880.00,0.0083
879.00,0.0086
878.00,0.0089
877.00,0.0090
876.00,0.0090
875.00,0.0090
874.00,0.0090
873.00,0.0089
872.00,0.0088
871.00,0.0086
870.00,0.0084
869.00,0.0083
868.00,0.0083
867.00,0.0083
866.00,0.0083
865.00,0.0084
864.00,0.0086
863.00,0.0088
862.00,0.0090
861.00,0.0092
860.00,0.0094
859.00,0.0096
858.00,0.0097
857.00,0.0098
856.00,0.0098
855.00,0.0099
854.00,0.0101
853.00,0.0104
852.00,0.0108
851.00,0.0111
850.00,0.0116
849.00,0.0122
848.00,0.0132
847.00,0.0147
846.00,0.0171
845.00,0.0207
844.00,0.0256
843.00,0.0311
842.00,0.0351
841.00,0.0360
840.00,0.0331
839.00,0.0280
838.00,0.0228
837.00,0.0187
836.00,0.0161
835.00,0.0144
834.00,0.0133
833.00,0.0126
832.00,0.0120
831.00,0.0117
830.00,0.0115
829.00,0.0115
828.00,0.0114
827.00,0.0112
826.00,0.0111
825.00,0.0110
824.00,0.0110
823.00,0.0109
822.00,0.0108
821.00,0.0108
820.00,0.0109
819.00,0.0111
818.00,0.0116
817.00,0.0123
816.00,0.0132
815.00,0.0144
814.00,0.0158
813.00,0.0176
812.00,0.0195
811.00,0.0212
810.00,0.0224
809.00,0.0229
808.00,0.0225
807.00,0.0215
806.00,0.0199
805.00,0.0181
804.00,0.0164
803.00,0.0150
802.00,0.0139
801.00,0.0130
800.00,0.0123
799.00,0.0118
798.00,0.0113
797.00,0.0109
796.00,0.0106
795.00,0.0102
794.00,0.0099
793.00,0.0097
792.00,0.0095
791.00,0.0094
790.00,0.0092
789.00,0.0089
788.00,0.0084
787.00,0.0080
786.00,0.0077
785.00,0.0074
784.00,0.0072
783.00,0.0070
782.00,0.0068
781.00,0.0067
780.00,0.0066
779.00,0.0066
778.00,0.0065
777.00,0.0065
776.00,0.0065
775.00,0.0065
774.00,0.0065
773.00,0.0065
772.00,0.0065
771.00,0.0065
770.00,0.0066
769.00,0.0066
768.00,0.0067
767.00,0.0067
766.00,0.0067
765.00,0.0067
764.00,0.0069
763.00,0.0070
762.00,0.0071
761.00,0.0070
760.00,0.0070
759.00,0.0070
758.00,0.0071
757.00,0.0071
756.00,0.0072
755.00,0.0073
754.00,0.0073
753.00,0.0073
752.00,0.0072
751.00,0.0072
750.00,0.0072
749.00,0.0073
748.00,0.0075
747.00,0.0076
746.00,0.0078
745.00,0.0079
744.00,0.0079
743.00,0.0081
742.00,0.0083
741.00,0.0085
740.00,0.0086
739.00,0.0087
738.00,0.0089
737.00,0.0091
736.00,0.0093
735.00,0.0096
734.00,0.0100
733.00,0.0106
732.00,0.0113
731.00,0.0121
730.00,0.0128
729.00,0.0133
728.00,0.0135
727.00,0.0136
726.00,0.0137
725.00,0.0139
724.00,0.0143
723.00,0.0147
722.00,0.0152
721.00,0.0154
720.00,0.0152
719.00,0.0144
718.00,0.0133
717.00,0.0122
716.00,0.0112
715.00,0.0105
714.00,0.0099
713.00,0.0096
712.00,0.0094
711.00,0.0093
710.00,0.0092
709.00,0.0091
708.00,0.0089
707.00,0.0086
706.00,0.0084
705.00,0.0082
704.00,0.0080
703.00,0.0077
702.00,0.0075
701.00,0.0073
700.00,0.0073
699.00,0.0073
698.00,0.0072
697.00,0.0071
696.00,0.0069
695.00,0.0068
694.00,0.0067
693.00,0.0067
692.00,0.0066
691.00,0.0065
690.00,0.0064
689.00,0.0064
688.00,0.0064
687.00,0.0065
686.00,0.0066
685.00,0.0067
684.00,0.0068
683.00,0.0069
682.00,0.0069
681.00,0.0068
680.00,0.0067
679.00,0.0067
678.00,0.0067
677.00,0.0067
676.00,0.0068
675.00,0.0069
674.00,0.0071
673.00,0.0071
672.00,0.0069
671.00,0.0067
670.00,0.0064
669.00,0.0063
668.00,0.0066
667.00,0.0069
666.00,0.0071
665.00,0.0071
664.00,0.0068
663.00,0.0067
662.00,0.0067
661.00,0.0069
660.00,0.0071
659.00,0.0072
658.00,0.0071
657.00,0.0070
656.00,0.0069
655.00,0.0069
654.00,0.0068
653.00,0.0068
652.00,0.0068
651.00,0.0069
650.00,0.0069
649.00,0.0069
648.00,0.0068
647.00,0.0066
646.00,0.0065
645.00,0.0064
644.00,0.0064
643.00,0.0065
642.00,0.0065
641.00,0.0064
640.00,0.0065
639.00,0.0067
638.00,0.0069
637.00,0.0069
636.00,0.0068
635.00,0.0067
634.00,0.0067
633.00,0.0067
632.00,0.0068
631.00,0.0068
630.00,0.0067
629.00,0.0067
628.00,0.0066
627.00,0.0065
626.00,0.0065
625.00,0.0065
624.00,0.0067
623.00,0.0069
622.00,0.0070
621.00,0.0071
620.00,0.0070
619.00,0.0070
618.00,0.0069
617.00,0.0067
616.00,0.0064
615.00,0.0062
614.00,0.0062
613.00,0.0062
612.00,0.0062
611.00,0.0062
610.00,0.0063
609.00,0.0064
608.00,0.0063
607.00,0.0063
606.00,0.0062
605.00,0.0062
604.00,0.0064
603.00,0.0067
602.00,0.0071
601.00,0.0073
600.00,0.0073
599.00,0.0072
598.00,0.0071
597.00,0.0070
596.00,0.0070
595.00,0.0071
594.00,0.0072
593.00,0.0072
592.00,0.0070
591.00,0.0068
590.00,0.0068
589.00,0.0069
588.00,0.0071
587.00,0.0072
586.00,0.0073
585.00,0.0075
584.00,0.0076
583.00,0.0077
582.00,0.0079
581.00,0.0080
580.00,0.0078
579.00,0.0075
578.00,0.0074
577.00,0.0075
576.00,0.0077
575.00,0.0078
574.00,0.0077
573.00,0.0075
572.00,0.0073
571.00,0.0070
570.00,0.0066
569.00,0.0063
568.00,0.0061
567.00,0.0060
566.00,0.0062
565.00,0.0065
564.00,0.0069
563.00,0.0072
562.00,0.0072
561.00,0.0070
560.00,0.0068
559.00,0.0067
558.00,0.0068
557.00,0.0070
556.00,0.0070
555.00,0.0069
554.00,0.0069
553.00,0.0070
552.00,0.0072
551.00,0.0074
550.00,0.0074
549.00,0.0073
548.00,0.0071
547.00,0.0070
546.00,0.0070
545.00,0.0074
544.00,0.0079
543.00,0.0083
542.00,0.0083
541.00,0.0081
540.00,0.0077
539.00,0.0074
538.00,0.0071
537.00,0.0069
536.00,0.0069
535.00,0.0072
534.00,0.0075
533.00,0.0076
532.00,0.0077
531.00,0.0078
530.00,0.0083
529.00,0.0089
528.00,0.0094
527.00,0.0097
526.00,0.0097
525.00,0.0096
524.00,0.0096
523.00,0.0097
522.00,0.0098
521.00,0.0097
520.00,0.0092
519.00,0.0084
518.00,0.0075
517.00,0.0067
516.00,0.0065
515.00,0.0069
514.00,0.0077
513.00,0.0082
512.00,0.0083
511.00,0.0082
510.00,0.0079
509.00,0.0077
508.00,0.0073
507.00,0.0069
506.00,0.0067
505.00,0.0067
504.00,0.0067
503.00,0.0069
502.00,0.0073
501.00,0.0077
500.00,0.0079
499.00,0.0078
498.00,0.0075
497.00,0.0074
496.00,0.0074
495.00,0.0077
494.00,0.0082
493.00,0.0085
492.00,0.0086
491.00,0.0083
490.00,0.0080
489.00,0.0078
488.00,0.0078
487.00,0.0079
486.00,0.0081
485.00,0.0082
484.00,0.0082
483.00,0.0084
482.00,0.0091
481.00,0.0098
480.00,0.0101
479.00,0.0097
478.00,0.0087
477.00,0.0081
476.00,0.0086
475.00,0.0099
474.00,0.0109
473.00,0.0108
472.00,0.0098
471.00,0.0094
470.00,0.0099
469.00,0.0106
468.00,0.0106
467.00,0.0103
466.00,0.0104
465.00,0.0114
464.00,0.0131
463.00,0.0151
462.00,0.0168
461.00,0.0178
460.00,0.0180
459.00,0.0174
458.00,0.0162
457.00,0.0146
456.00,0.0136
455.00,0.0132
454.00,0.0136
453.00,0.0138
452.00,0.0134
451.00,0.0121
450.00,0.0108
