Created as New Dataset,Sample 034 By Administrator Date Wednesday, September 10 2025
cm-1,A
4000.00,0.0012
3999.00,0.0012
3998.00,0.0012
3997.00,0.0012
3996.00,0.0011
3995.00,0.0011
3994.00,0.0011
3993.00,0.0010
3992.00,0.0010
3991.00,0.0010
3990.00,0.0010
3989.00,0.0010
3988.00,0.0011
3987.00,0.0011
3986.00,0.0011
3985.00,0.0011
3984.00,0.0011
3983.00,0.0010
3982.00,0.0010
3981.00,0.0009
3980.00,0.0009
3979.00,0.0009
3978.00,0.0009
3977.00,0.0010
3976.00,0.0010
3975.00,0.0010
3974.00,0.0010
3973.00,0.0010
3972.00,0.0010
3971.00,0.0010
3970.00,0.0010
3969.00,0.0010
3968.00,0.0010
3967.00,0.0009
3966.00,0.0009
3965.00,0.0009
3964.00,0.0009
3963.00,0.0009
3962.00,0.0009
3961.00,0.0009
3960.00,0.0009
3959.00,0.0009
3958.00,0.0009
3957.00,0.0009
3956.00,0.0009
3955.00,0.0009
3954.00,0.0008
3953.00,0.0008
3952.00,0.0008
3951.00,0.0009
3950.00,0.0009
3949.00,0.0009
3948.00,0.0009
3947.00,0.0009
3946.00,0.0009
3945.00,0.0009
3944.00,0.0008
3943.00,0.0008
3942.00,0.0008
3941.00,0.0008
3940.00,0.0009
3939.00,0.0009
3938.00,0.0009
3937.00,0.0009
3936.00,0.0009
3935.00,0.0009
3934.00,0.0008
3933.00,0.0008
3932.00,0.0008
3931.00,0.0008
3930.00,0.0009
3929.00,0.0009
3928.00,0.0009
3927.00,0.0009
3926.00,0.0009
3925.00,0.0009
3924.00,0.0009
3923.00,0.0009
3922.00,0.0009
3921.00,0.0009
3920.00,0.0010
3919.00,0.0010
3918.00,0.0010
3917.00,0.0009
3916.00,0.0009
3915.00,0.0009
3914.00,0.0008
3913.00,0.0008
3912.00,0.0008
3911.00,0.0008
3910.00,0.0008
3909.00,0.0008
3908.00,0.0009
3907.00,0.0009
3906.00,0.0009
3905.00,0.0009
3904.00,0.0008
3903.00,0.0009
3902.00,0.0009
3901.00,0.0009
3900.00,0.0009
3899.00,0.0009
3898.00,0.0008
3897.00,0.0008
3896.00,0.0008
3895.00,0.0008
3894.00,0.0008
3893.00,0.0008
3892.00,0.0008
3891.00,0.0009
3890.00,0.0009
3889.00,0.0009
3888.00,0.0009
3887.00,0.0009
3886.00,0.0008
3885.00,0.0008
3884.00,0.0008
3883.00,0.0009
3882.00,0.0009
3881.00,0.0009
3880.00,0.0009
3879.00,0.0008
3878.00,0.0008
3877.00,0.0007
3876.00,0.0007
3875.00,0.0007
3874.00,0.0007
3873.00,0.0008
3872.00,0.0008
3871.00,0.0008
3870.00,0.0008
3869.00,0.0009
3868.00,0.0009
3867.00,0.0009
3866.00,0.0008
3865.00,0.0008
3864.00,0.0007
3863.00,0.0008
3862.00,0.0008
3861.00,0.0008
3860.00,0.0008
3859.00,0.0008
3858.00,0.0008
3857.00,0.0008
3856.00,0.0009
3855.00,0.0008
3854.00,0.0008
3853.00,0.0009
3852.00,0.0009
3851.00,0.0008
3850.00,0.0008
3849.00,0.0008
3848.00,0.0008
3847.00,0.0008
3846.00,0.0008
3845.00,0.0008
3844.00,0.0008
3843.00,0.0008
3842.00,0.0008
3841.00,0.0008
3840.00,0.0008
3839.00,0.0008
3838.00,0.0008
3837.00,0.0008
3836.00,0.0008
3835.00,0.0008
3834.00,0.0008
3833.00,0.0008
3832.00,0.0008
3831.00,0.0008
3830.00,0.0008
3829.00,0.0008
3828.00,0.0008
3827.00,0.0008
3826.00,0.0008
3825.00,0.0008
3824.00,0.0008
3823.00,0.0007
3822.00,0.0007
3821.00,0.0008
3820.00,0.0008
3819.00,0.0008
3818.00,0.0008
3817.00,0.0008
3816.00,0.0008
3815.00,0.0008
3814.00,0.0008
3813.00,0.0008
3812.00,0.0008
3811.00,0.0008
3810.00,0.0008
3809.00,0.0008
3808.00,0.0007
3807.00,0.0007
3806.00,0.0007
3805.00,0.0007
3804.00,0.0007
3803.00,0.0007
3802.00,0.0008
3801.00,0.0008
3800.00,0.0009
3799.00,0.0009
3798.00,0.0009
3797.00,0.0009
3796.00,0.0009
3795.00,0.0009
3794.00,0.0009
3793.00,0.0008
3792.00,0.0008
3791.00,0.0008
3790.00,0.0008
3789.00,0.0008
3788.00,0.0008
3787.00,0.0008
3786.00,0.0009
3785.00,0.0009
3784.00,0.0009
3783.00,0.0009
3782.00,0.0009
3781.00,0.0009
3780.00,0.0009
3779.00,0.0008
3778.00,0.0008
3777.00,0.0008
3776.00,0.0008
3775.00,0.0008
3774.00,0.0008
3773.00,0.0009
3772.00,0.0009
3771.00,0.0009
3770.00,0.0009
3769.00,0.0009
3768.00,0.0009
3767.00,0.0010
3766.00,0.0010
3765.00,0.0010
3764.00,0.0010
3763.00,0.0010
3762.00,0.0010
3761.00,0.0010
3760.00,0.0010
3759.00,0.0009
3758.00,0.0009
3757.00,0.0009
3756.00,0.0009
3755.00,0.0009
3754.00,0.0008
3753.00,0.0008
3752.00,0.0007
3751.00,0.0006
3750.00,0.0006
3749.00,0.0007
3748.00,0.0008
3747.00,0.0009
3746.00,0.0010
3745.00,0.0010
3744.00,0.0009
3743.00,0.0008
3742.00,0.0008
3741.00,0.0007
3740.00,0.0007
3739.00,0.0007
3738.00,0.0007
3737.00,0.0007
3736.00,0.0007
3735.00,0.0007
3734.00,0.0007
3733.00,0.0007
3732.00,0.0007
3731.00,0.0007
3730.00,0.0007
3729.00,0.0008
3728.00,0.0007
3727.00,0.0007
3726.00,0.0007
3725.00,0.0007
3724.00,0.0007
3723.00,0.0007
3722.00,0.0007
3721.00,0.0008
3720.00,0.0008
3719.00,0.0008
3718.00,0.0008
3717.00,0.0007
3716.00,0.0007
3715.00,0.0007
3714.00,0.0006
3713.00,0.0006
3712.00,0.0007
3711.00,0.0008
3710.00,0.0008
3709.00,0.0008
3708.00,0.0008
3707.00,0.0007
3706.00,0.0007
3705.00,0.0007
3704.00,0.0007
3703.00,0.0007
3702.00,0.0008
3701.00,0.0008
3700.00,0.0008
3699.00,0.0007
3698.00,0.0007
3697.00,0.0007
3696.00,0.0007
3695.00,0.0007
3694.00,0.0007
3693.00,0.0007
3692.00,0.0007
3691.00,0.0007
3690.00,0.0007
3689.00,0.0006
3688.00,0.0006
3687.00,0.0006
3686.00,0.0006
3685.00,0.0006
3684.00,0.0006
3683.00,0.0007
3682.00,0.0007
3681.00,0.0007
3680.00,0.0007
3679.00,0.0007
3678.00,0.0007
3677.00,0.0007
3676.00,0.0007
3675.00,0.0007
3674.00,0.0007
3673.00,0.0007
3672.00,0.0007
3671.00,0.0007
3670.00,0.0007
3669.00,0.0006
3668.00,0.0006
3667.00,0.0006
3666.00,0.0006
3665.00,0.0006
3664.00,0.0006
3663.00,0.0007
3662.00,0.0007
3661.00,0.0007
3660.00,0.0006
3659.00,0.0006
3658.00,0.0006
3657.00,0.0006
3656.00,0.0006
3655.00,0.0006
3654.00,0.0006
3653.00,0.0007
3652.00,0.0007
3651.00,0.0007
3650.00,0.0007
3649.00,0.0008
3648.00,0.0008
3647.00,0.0008
3646.00,0.0008
3645.00,0.0008
3644.00,0.0008
3643.00,0.0008
3642.00,0.0008
3641.00,0.0008
3640.00,0.0008
3639.00,0.0008
3638.00,0.0009
3637.00,0.0009
3636.00,0.0009
3635.00,0.0010
3634.00,0.0010
3633.00,0.0011
3632.00,0.0010
3631.00,0.0010
3630.00,0.0009
3629.00,0.0010
3628.00,0.0010
3627.00,0.0011
3626.00,0.0011
3625.00,0.0012
3624.00,0.0012
3623.00,0.0012
3622.00,0.0012
3621.00,0.0012
3620.00,0.0013
3619.00,0.0013
3618.00,0.0012
3617.00,0.0012
3616.00,0.0012
3615.00,0.0012
3614.00,0.0013
3613.00,0.0014
3612.00,0.0015
3611.00,0.0016
3610.00,0.0016
3609.00,0.0015
3608.00,0.0015
3607.00,0.0014
3606.00,0.0015
3605.00,0.0015
3604.00,0.0015
3603.00,0.0015
3602.00,0.0015
3601.00,0.0016
3600.00,0.0016
3599.00,0.0017
3598.00,0.0017
3597.00,0.0017
3596.00,0.0018
3595.00,0.0018
3594.00,0.0018
3593.00,0.0018
3592.00,0.0018
3591.00,0.0018
3590.00,0.0018
3589.00,0.0019
3588.00,0.0019
3587.00,0.0020
3586.00,0.0020
3585.00,0.0020
3584.00,0.0020
3583.00,0.0020
3582.00,0.0020
3581.00,0.0020
3580.00,0.0021
3579.00,0.0021
3578.00,0.0022
3577.00,0.0023
3576.00,0.0023
3575.00,0.0024
3574.00,0.0024
3573.00,0.0024
3572.00,0.0024
3571.00,0.0024
3570.00,0.0024
3569.00,0.0024
3568.00,0.0024
3567.00,0.0024
3566.00,0.0024
3565.00,0.0024
3564.00,0.0025
3563.00,0.0025
3562.00,0.0026
3561.00,0.0026
3560.00,0.0027
3559.00,0.0027
3558.00,0.0027
3557.00,0.0028
3556.00,0.0028
3555.00,0.0029
3554.00,0.0029
3553.00,0.0030
3552.00,0.0030
3551.00,0.0030
3550.00,0.0030
3549.00,0.0030
3548.00,0.0030
3547.00,0.0031
3546.00,0.0031
3545.00,0.0032
3544.00,0.0032
3543.00,0.0032
3542.00,0.0032
3541.00,0.0032
3540.00,0.0032
3539.00,0.0032
3538.00,0.0033
3537.00,0.0034
3536.00,0.0034
3535.00,0.0035
3534.00,0.0035
3533.00,0.0036
3532.00,0.0036
3531.00,0.0036
3530.00,0.0036
3529.00,0.0036
3528.00,0.0036
3527.00,0.0036
3526.00,0.0037
3525.00,0.0037
3524.00,0.0038
3523.00,0.0038
3522.00,0.0038
3521.00,0.0038
3520.00,0.0038
3519.00,0.0038
3518.00,0.0039
3517.00,0.0039
3516.00,0.0039
3515.00,0.0039
3514.00,0.0040
3513.00,0.0040
3512.00,0.0041
3511.00,0.0041
3510.00,0.0042
3509.00,0.0042
3508.00,0.0042
3507.00,0.0042
3506.00,0.0042
3505.00,0.0042
3504.00,0.0043
3503.00,0.0043
3502.00,0.0044
3501.00,0.0044
3500.00,0.0044
3499.00,0.0045
3498.00,0.0045
3497.00,0.0045
3496.00,0.0045
3495.00,0.0046
3494.00,0.0046
3493.00,0.0046
3492.00,0.0046
3491.00,0.0046
3490.00,0.0046
3489.00,0.0047
3488.00,0.0047
3487.00,0.0048
3486.00,0.0048
3485.00,0.0048
3484.00,0.0049
3483.00,0.0049
3482.00,0.0050
3481.00,0.0051
3480.00,0.0051
3479.00,0.0051
3478.00,0.0051
3477.00,0.0051
3476.00,0.0051
3475.00,0.0051
3474.00,0.0052
3473.00,0.0052
3472.00,0.0052
3471.00,0.0052
3470.00,0.0052
3469.00,0.0053
3468.00,0.0053
3467.00,0.0053
3466.00,0.0054
3465.00,0.0054
3464.00,0.0055
3463.00,0.0056
3462.00,0.0056
3461.00,0.0056
3460.00,0.0057
3459.00,0.0057
3458.00,0.0057
3457.00,0.0058
3456.00,0.0058
3455.00,0.0058
3454.00,0.0058
3453.00,0.0058
3452.00,0.0058
3451.00,0.0058
3450.00,0.0058
3449.00,0.0058
3448.00,0.0058
3447.00,0.0058
3446.00,0.0059
3445.00,0.0059
3444.00,0.0059
3443.00,0.0060
3442.00,0.0061
3441.00,0.0061
3440.00,0.0062
3439.00,0.0062
3438.00,0.0063
3437.00,0.0063
3436.00,0.0063
3435.00,0.0064
3434.00,0.0064
3433.00,0.0064
3432.00,0.0064
3431.00,0.0064
3430.00,0.0064
3429.00,0.0065
3428.00,0.0066
3427.00,0.0066
3426.00,0.0067
3425.00,0.0067
3424.00,0.0067
3423.00,0.0068
3422.00,0.0068
3421.00,0.0068
3420.00,0.0069
3419.00,0.0069
3418.00,0.0069
3417.00,0.0070
3416.00,0.0070
3415.00,0.0071
3414.00,0.0071
3413.00,0.0071
3412.00,0.0071
3411.00,0.0072
3410.00,0.0072
3409.00,0.0072
3408.00,0.0072
3407.00,0.0073
3406.00,0.0074
3405.00,0.0074
3404.00,0.0075
3403.00,0.0076
3402.00,0.0076
3401.00,0.0076
3400.00,0.0076
3399.00,0.0076
3398.00,0.0077
3397.00,0.0077
3396.00,0.0077
3395.00,0.0077
3394.00,0.0078
3393.00,0.0078
3392.00,0.0078
3391.00,0.0078
3390.00,0.0078
3389.00,0.0078
3388.00,0.0078
3387.00,0.0077
3386.00,0.0077
3385.00,0.0077
3384.00,0.0077
3383.00,0.0077
3382.00,0.0076
3381.00,0.0076
3380.00,0.0076
3379.00,0.0076
3378.00,0.0077
3377.00,0.0077
3376.00,0.0077
3375.00,0.0077
3374.00,0.0078
3373.00,0.0078
3372.00,0.0077
3371.00,0.0077
3370.00,0.0076
3369.00,0.0076
3368.00,0.0076
3367.00,0.0076
3366.00,0.0077
3365.00,0.0077
3364.00,0.0077
3363.00,0.0078
3362.00,0.0078
3361.00,0.0078
3360.00,0.0078
3359.00,0.0078
3358.00,0.0078
3357.00,0.0079
3356.00,0.0079
3355.00,0.0079
3354.00,0.0079
3353.00,0.0079
3352.00,0.0079
3351.00,0.0079
3350.00,0.0079
3349.00,0.0079
3348.00,0.0079
3347.00,0.0080
3346.00,0.0081
3345.00,0.0081
3344.00,0.0081
3343.00,0.0081
3342.00,0.0081
3341.00,0.0081
3340.00,0.0081
3339.00,0.0080
3338.00,0.0080
3337.00,0.0080
3336.00,0.0080
3335.00,0.0080
3334.00,0.0080
3333.00,0.0080
3332.00,0.0079
3331.00,0.0079
3330.00,0.0079
3329.00,0.0080
3328.00,0.0080
3327.00,0.0080
3326.00,0.0080
3325.00,0.0079
3324.00,0.0079
3323.00,0.0079
3322.00,0.0080
3321.00,0.0080
3320.00,0.0080
3319.00,0.0080
3318.00,0.0080
3317.00,0.0080
3316.00,0.0080
3315.00,0.0080
3314.00,0.0081
3313.00,0.0081
3312.00,0.0080
3311.00,0.0080
3310.00,0.0080
3309.00,0.0080
3308.00,0.0080
3307.00,0.0080
3306.00,0.0080
3305.00,0.0080
3304.00,0.0080
3303.00,0.0080
3302.00,0.0080
3301.00,0.0080
3300.00,0.0080
3299.00,0.0080
3298.00,0.0079
3297.00,0.0079
3296.00,0.0079
3295.00,0.0079
3294.00,0.0079
3293.00,0.0079
3292.00,0.0078
3291.00,0.0078
3290.00,0.0078
3289.00,0.0078
3288.00,0.0079
3287.00,0.0078
3286.00,0.0078
3285.00,0.0078
3284.00,0.0077
3283.00,0.0077
3282.00,0.0076
3281.00,0.0076
3280.00,0.0076
3279.00,0.0076
3278.00,0.0076
3277.00,0.0076
3276.00,0.0075
3275.00,0.0075
3274.00,0.0075
3273.00,0.0075
3272.00,0.0075
3271.00,0.0075
3270.00,0.0075
3269.00,0.0074
3268.00,0.0074
3267.00,0.0074
3266.00,0.0073
3265.00,0.0073
3264.00,0.0073
3263.00,0.0073
3262.00,0.0073
3261.00,0.0072
3260.00,0.0072
3259.00,0.0071
3258.00,0.0071
3257.00,0.0071
3256.00,0.0070
3255.00,0.0070
3254.00,0.0070
3253.00,0.0070
3252.00,0.0070
3251.00,0.0070
3250.00,0.0069
3249.00,0.0069
3248.00,0.0069
3247.00,0.0068
3246.00,0.0068
3245.00,0.0068
3244.00,0.0068
3243.00,0.0068
3242.00,0.0067
3241.00,0.0067
3240.00,0.0067
3239.00,0.0067
3238.00,0.0067
3237.00,0.0067
3236.00,0.0067
3235.00,0.0067
3234.00,0.0067
3233.00,0.0068
3232.00,0.0068
3231.00,0.0068
3230.00,0.0068
3229.00,0.0068
3228.00,0.0068
3227.00,0.0068
3226.00,0.0069
3225.00,0.0069
3224.00,0.0069
3223.00,0.0070
3222.00,0.0070
3221.00,0.0070
3220.00,0.0069
3219.00,0.0069
3218.00,0.0069
3217.00,0.0069
3216.00,0.0069
3215.00,0.0070
3214.00,0.0070
3213.00,0.0070
3212.00,0.0070
3211.00,0.0071
3210.00,0.0071
3209.00,0.0072
3208.00,0.0072
3207.00,0.0072
3206.00,0.0072
3205.00,0.0072
3204.00,0.0071
3203.00,0.0071
3202.00,0.0071
3201.00,0.0071
3200.00,0.0071
3199.00,0.0071
3198.00,0.0070
3197.00,0.0070
3196.00,0.0071
3195.00,0.0071
3194.00,0.0071
3193.00,0.0071
3192.00,0.0071
3191.00,0.0070
3190.00,0.0070
3189.00,0.0070
3188.00,0.0070
3187.00,0.0070
3186.00,0.0069
3185.00,0.0069
3184.00,0.0068
3183.00,0.0068
3182.00,0.0068
3181.00,0.0068
3180.00,0.0067
3179.00,0.0067
3178.00,0.0067
3177.00,0.0067
3176.00,0.0066
3175.00,0.0065
3174.00,0.0065
3173.00,0.0064
3172.00,0.0063
3171.00,0.0063
3170.00,0.0063
3169.00,0.0063
3168.00,0.0063
3167.00,0.0063
3166.00,0.0063
3165.00,0.0062
3164.00,0.0062
3163.00,0.0061
3162.00,0.0061
3161.00,0.0060
3160.00,0.0060
3159.00,0.0060
3158.00,0.0059
3157.00,0.0059
3156.00,0.0059
3155.00,0.0058
3154.00,0.0058
3153.00,0.0057
3152.00,0.0058
3151.00,0.0058
3150.00,0.0058
3149.00,0.0059
3148.00,0.0058
3147.00,0.0058
3146.00,0.0058
3145.00,0.0058
3144.00,0.0057
3143.00,0.0057
3142.00,0.0056
3141.00,0.0056
3140.00,0.0056
3139.00,0.0055
3138.00,0.0056
3137.00,0.0056
3136.00,0.0055
3135.00,0.0055
3134.00,0.0054
3133.00,0.0054
3132.00,0.0053
3131.00,0.0053
3130.00,0.0052
3129.00,0.0052
3128.00,0.0051
3127.00,0.0051
3126.00,0.0051
3125.00,0.0050
3124.00,0.0050
3123.00,0.0050
3122.00,0.0049
3121.00,0.0049
3120.00,0.0049
3119.00,0.0049
3118.00,0.0049
3117.00,0.0049
3116.00,0.0049
3115.00,0.0049
3114.00,0.0049
3113.00,0.0049
3112.00,0.0048
3111.00,0.0048
3110.00,0.0048
3109.00,0.0047
3108.00,0.0047
3107.00,0.0047
3106.00,0.0047
3105.00,0.0047
3104.00,0.0046
3103.00,0.0046
3102.00,0.0045
3101.00,0.0045
3100.00,0.0045
3099.00,0.0045
3098.00,0.0045
3097.00,0.0045
3096.00,0.0045
3095.00,0.0045
3094.00,0.0045
3093.00,0.0045
3092.00,0.0045
3091.00,0.0045
3090.00,0.0045
3089.00,0.0045
3088.00,0.0045
3087.00,0.0044
3086.00,0.0044
3085.00,0.0044
3084.00,0.0044
3083.00,0.0044
3082.00,0.0044
3081.00,0.0044
3080.00,0.0044
3079.00,0.0044
3078.00,0.0044
3077.00,0.0044
3076.00,0.0044
3075.00,0.0044
3074.00,0.0044
3073.00,0.0043
3072.00,0.0043
3071.00,0.0043
3070.00,0.0043
3069.00,0.0044
3068.00,0.0044
3067.00,0.0044
3066.00,0.0044
3065.00,0.0044
3064.00,0.0044
3063.00,0.0045
3062.00,0.0045
3061.00,0.0045
3060.00,0.0045
3059.00,0.0045
3058.00,0.0045
3057.00,0.0044
3056.00,0.0044
3055.00,0.0045
3054.00,0.0045
3053.00,0.0046
3052.00,0.0046
3051.00,0.0046
3050.00,0.0046
3049.00,0.0046
3048.00,0.0046
3047.00,0.0047
3046.00,0.0047
3045.00,0.0047
3044.00,0.0047
3043.00,0.0047
3042.00,0.0047
3041.00,0.0046
3040.00,0.0046
3039.00,0.0046
3038.00,0.0046
3037.00,0.0046
3036.00,0.0047
3035.00,0.0047
3034.00,0.0048
3033.00,0.0048
3032.00,0.0048
3031.00,0.0049
3030.00,0.0049
3029.00,0.0050
3028.00,0.0050
3027.00,0.0051
3026.00,0.0051
3025.00,0.0051
3024.00,0.0052
3023.00,0.0053
3022.00,0.0054
3021.00,0.0054
3020.00,0.0055
3019.00,0.0056
3018.00,0.0056
3017.00,0.0057
3016.00,0.0058
3015.00,0.0058
3014.00,0.0059
3013.00,0.0060
3012.00,0.0061
3011.00,0.0062
3010.00,0.0063
3009.00,0.0064
3008.00,0.0065
3007.00,0.0066
3006.00,0.0067
3005.00,0.0068
3004.00,0.0070
3003.00,0.0071
3002.00,0.0073
3001.00,0.0074
3000.00,0.0076
2999.00,0.0078
2998.00,0.0081
2997.00,0.0084
2996.00,0.0087
2995.00,0.0090
2994.00,0.0094
2993.00,0.0099
2992.00,0.0104
2991.00,0.0109
2990.00,0.0115
2989.00,0.0121
2988.00,0.0129
2987.00,0.0136
2986.00,0.0145
2985.00,0.0155
2984.00,0.0165
2983.00,0.0177
2982.00,0.0191
2981.00,0.0207
2980.00,0.0226
2979.00,0.0248
2978.00,0.0273
2977.00,0.0301
2976.00,0.0333
2975.00,0.0369
2974.00,0.0410
2973.00,0.0455
2972.00,0.0505
2971.00,0.0562
2970.00,0.0625
2969.00,0.0695
2968.00,0.0770
2967.00,0.0849
2966.00,0.0930
2965.00,0.1012
2964.00,0.1091
2963.00,0.1164
2962.00,0.1230
2961.00,0.1286
2960.00,0.1334
2959.00,0.1377
2958.00,0.1421
2957.00,0.1469
2956.00,0.1526
2955.00,0.1593
2954.00,0.1670
2953.00,0.1752
2952.00,0.1831
2951.00,0.1896
2950.00,0.1935
2949.00,0.1938
2948.00,0.1899
2947.00,0.1819
2946.00,0.1706
2945.00,0.1575
2944.00,0.1442
2943.00,0.1321
2942.00,0.1222
2941.00,0.1150
2940.00,0.1104
2939.00,0.1084
2938.00,0.1086
2937.00,0.1108
2936.00,0.1147
2935.00,0.1203
2934.00,0.1274
2933.00,0.1358
2932.00,0.1455
2931.00,0.1561
2930.00,0.1674
2929.00,0.1791
2928.00,0.1908
2927.00,0.2023
2926.00,0.2134
2925.00,0.2241
2924.00,0.2345
2923.00,0.2449
2922.00,0.2552
2921.00,0.2652
2920.00,0.2742
2919.00,0.2815
2918.00,0.2859
2917.00,0.2866
2916.00,0.2832
2915.00,0.2760
2914.00,0.2659
2913.00,0.2541
2912.00,0.2419
2911.00,0.2301
2910.00,0.2192
2909.00,0.2092
2908.00,0.2001
2907.00,0.1915
2906.00,0.1832
2905.00,0.1752
2904.00,0.1673
2903.00,0.1596
2902.00,0.1522
2901.00,0.1451
2900.00,0.1383
2899.00,0.1320
2898.00,0.1262
2897.00,0.1209
2896.00,0.1163
2895.00,0.1125
2894.00,0.1093
2893.00,0.1069
2892.00,0.1051
2891.00,0.1040
2890.00,0.1035
2889.00,0.1035
2888.00,0.1039
2887.00,0.1047
2886.00,0.1059
2885.00,0.1074
2884.00,0.1095
2883.00,0.1121
2882.00,0.1154
2881.00,0.1190
2880.00,0.1226
2879.00,0.1259
2878.00,0.1283
2877.00,0.1295
2876.00,0.1295
2875.00,0.1288
2874.00,0.1279
2873.00,0.1274
2872.00,0.1277
2871.00,0.1289
2870.00,0.1308
2869.00,0.1329
2868.00,0.1345
2867.00,0.1346
2866.00,0.1323
2865.00,0.1273
2864.00,0.1196
2863.00,0.1102
2862.00,0.1002
2861.00,0.0907
2860.00,0.0825
2859.00,0.0758
2858.00,0.0708
2857.00,0.0672
2856.00,0.0650
2855.00,0.0638
2854.00,0.0636
2853.00,0.0642
2852.00,0.0655
2851.00,0.0672
2850.00,0.0693
2849.00,0.0715
2848.00,0.0741
2847.00,0.0771
2846.00,0.0809
2845.00,0.0856
2844.00,0.0913
2843.00,0.0979
2842.00,0.1049
2841.00,0.1117
2840.00,0.1176
2839.00,0.1217
2838.00,0.1231
2837.00,0.1210
2836.00,0.1156
2835.00,0.1071
2834.00,0.0968
2833.00,0.0857
2832.00,0.0749
2831.00,0.0653
2830.00,0.0571
2829.00,0.0503
2828.00,0.0449
2827.00,0.0406
2826.00,0.0370
2825.00,0.0341
2824.00,0.0317
2823.00,0.0297
2822.00,0.0280
2821.00,0.0265
2820.00,0.0252
2819.00,0.0241
2818.00,0.0232
2817.00,0.0223
2816.00,0.0216
2815.00,0.0209
2814.00,0.0203
2813.00,0.0197
2812.00,0.0192
2811.00,0.0186
2810.00,0.0181
2809.00,0.0175
2808.00,0.0169
2807.00,0.0162
2806.00,0.0155
2805.00,0.0149
2804.00,0.0142
2803.00,0.0136
2802.00,0.0131
2801.00,0.0126
2800.00,0.0122
2799.00,0.0118
2798.00,0.0115
2797.00,0.0113
2796.00,0.0110
2795.00,0.0108
2794.00,0.0105
2793.00,0.0103
2792.00,0.0100
2791.00,0.0097
2790.00,0.0094
2789.00,0.0091
2788.00,0.0088
2787.00,0.0086
2786.00,0.0083
2785.00,0.0081
2784.00,0.0078
2783.00,0.0076
2782.00,0.0074
2781.00,0.0072
2780.00,0.0071
2779.00,0.0069
2778.00,0.0068
2777.00,0.0067
2776.00,0.0066
2775.00,0.0064
2774.00,0.0063
2773.00,0.0063
2772.00,0.0062
2771.00,0.0062
2770.00,0.0062
2769.00,0.0062
2768.00,0.0061
2767.00,0.0061
2766.00,0.0061
2765.00,0.0061
2764.00,0.0060
2763.00,0.0060
2762.00,0.0059
2761.00,0.0059
2760.00,0.0058
2759.00,0.0058
2758.00,0.0058
2757.00,0.0057
2756.00,0.0057
2755.00,0.0057
2754.00,0.0057
2753.00,0.0057
2752.00,0.0057
2751.00,0.0057
2750.00,0.0056
2749.00,0.0056
2748.00,0.0056
2747.00,0.0057
2746.00,0.0057
2745.00,0.0058
2744.00,0.0058
2743.00,0.0059
2742.00,0.0060
2741.00,0.0062
2740.00,0.0063
2739.00,0.0064
2738.00,0.0065
2737.00,0.0066
2736.00,0.0068
2735.00,0.0070
2734.00,0.0071
2733.00,0.0073
2732.00,0.0075
2731.00,0.0077
2730.00,0.0080
2729.00,0.0082
2728.00,0.0085
2727.00,0.0088
2726.00,0.0091
2725.00,0.0094
2724.00,0.0096
2723.00,0.0096
2722.00,0.0095
2721.00,0.0093
2720.00,0.0090
2719.00,0.0086
2718.00,0.0083
2717.00,0.0079
2716.00,0.0076
2715.00,0.0073
2714.00,0.0071
2713.00,0.0068
2712.00,0.0066
2711.00,0.0064
2710.00,0.0062
2709.00,0.0060
2708.00,0.0058
2707.00,0.0057
2706.00,0.0056
2705.00,0.0054
2704.00,0.0053
2703.00,0.0052
2702.00,0.0051
2701.00,0.0050
2700.00,0.0050
2699.00,0.0049
2698.00,0.0049
2697.00,0.0049
2696.00,0.0049
2695.00,0.0049
2694.00,0.0049
2693.00,0.0049
2692.00,0.0049
2691.00,0.0048
2690.00,0.0048
2689.00,0.0049
2688.00,0.0049
2687.00,0.0049
2686.00,0.0048
2685.00,0.0048
2684.00,0.0048
2683.00,0.0048
2682.00,0.0048
2681.00,0.0049
2680.00,0.0049
2679.00,0.0049
2678.00,0.0049
2677.00,0.0049
2676.00,0.0050
2675.00,0.0050
2674.00,0.0050
2673.00,0.0049
2672.00,0.0049
2671.00,0.0048
2670.00,0.0048
2669.00,0.0048
2668.00,0.0048
2667.00,0.0049
2666.00,0.0049
2665.00,0.0050
2664.00,0.0050
2663.00,0.0050
2662.00,0.0051
2661.00,0.0051
2660.00,0.0051
2659.00,0.0051
2658.00,0.0051
2657.00,0.0051
2656.00,0.0050
2655.00,0.0050
2654.00,0.0049
2653.00,0.0049
2652.00,0.0048
2651.00,0.0047
2650.00,0.0046
2649.00,0.0046
2648.00,0.0046
2647.00,0.0045
2646.00,0.0045
2645.00,0.0045
2644.00,0.0044
2643.00,0.0044
2642.00,0.0043
2641.00,0.0043
2640.00,0.0042
2639.00,0.0041
2638.00,0.0041
2637.00,0.0041
2636.00,0.0041
2635.00,0.0042
2634.00,0.0042
2633.00,0.0041
2632.00,0.0041
2631.00,0.0041
2630.00,0.0041
2629.00,0.0042
2628.00,0.0042
2627.00,0.0043
2626.00,0.0043
2625.00,0.0043
2624.00,0.0043
2623.00,0.0043
2622.00,0.0043
2621.00,0.0043
2620.00,0.0043
2619.00,0.0043
2618.00,0.0043
2617.00,0.0044
2616.00,0.0044
2615.00,0.0045
2614.00,0.0044
2613.00,0.0044
2612.00,0.0043
2611.00,0.0042
2610.00,0.0041
2609.00,0.0040
2608.00,0.0039
2607.00,0.0038
2606.00,0.0037
2605.00,0.0036
2604.00,0.0036
2603.00,0.0036
2602.00,0.0036
2601.00,0.0036
2600.00,0.0036
2599.00,0.0036
2598.00,0.0036
2597.00,0.0036
2596.00,0.0036
2595.00,0.0036
2594.00,0.0036
2593.00,0.0037
2592.00,0.0037
2591.00,0.0038
2590.00,0.0039
2589.00,0.0040
2588.00,0.0041
2587.00,0.0041
2586.00,0.0041
2585.00,0.0042
2584.00,0.0042
2583.00,0.0042
2582.00,0.0042
2581.00,0.0042
2580.00,0.0042
2579.00,0.0042
2578.00,0.0042
2577.00,0.0041
2576.00,0.0040
2575.00,0.0039
2574.00,0.0037
2573.00,0.0035
2572.00,0.0034
2571.00,0.0033
2570.00,0.0032
2569.00,0.0032
2568.00,0.0031
2567.00,0.0031
2566.00,0.0031
2565.00,0.0030
2564.00,0.0029
2563.00,0.0028
2562.00,0.0027
2561.00,0.0027
2560.00,0.0026
2559.00,0.0026
2558.00,0.0027
2557.00,0.0027
2556.00,0.0027
2555.00,0.0026
2554.00,0.0025
2553.00,0.0023
2552.00,0.0022
2551.00,0.0022
2550.00,0.0022
2549.00,0.0022
2548.00,0.0022
2547.00,0.0022
2546.00,0.0022
2545.00,0.0022
2544.00,0.0022
2543.00,0.0021
2542.00,0.0021
2541.00,0.0020
2540.00,0.0020
2539.00,0.0019
2538.00,0.0019
2537.00,0.0019
2536.00,0.0019
2535.00,0.0019
2534.00,0.0020
2533.00,0.0020
2532.00,0.0020
2531.00,0.0019
2530.00,0.0019
2529.00,0.0018
2528.00,0.0017
2527.00,0.0016
2526.00,0.0016
2525.00,0.0017
2524.00,0.0017
2523.00,0.0017
2522.00,0.0016
2521.00,0.0015
2520.00,0.0014
2519.00,0.0014
2518.00,0.0015
2517.00,0.0015
2516.00,0.0016
2515.00,0.0015
2514.00,0.0015
2513.00,0.0014
2512.00,0.0013
2511.00,0.0013
2510.00,0.0013
2509.00,0.0013
2508.00,0.0013
2507.00,0.0013
2506.00,0.0013
2505.00,0.0014
2504.00,0.0014
2503.00,0.0013
2502.00,0.0013
2501.00,0.0013
2500.00,0.0013
2499.00,0.0014
2498.00,0.0014
2497.00,0.0013
2496.00,0.0013
2495.00,0.0013
2494.00,0.0013
2493.00,0.0013
2492.00,0.0013
2491.00,0.0013
2490.00,0.0013
2489.00,0.0012
2488.00,0.0012
2487.00,0.0012
2486.00,0.0012
2485.00,0.0012
2484.00,0.0013
2483.00,0.0013
2482.00,0.0013
2481.00,0.0013
2480.00,0.0012
2479.00,0.0012
2478.00,0.0011
2477.00,0.0011
2476.00,0.0011
2475.00,0.0010
2474.00,0.0010
2473.00,0.0011
2472.00,0.0011
2471.00,0.0011
2470.00,0.0011
2469.00,0.0011
2468.00,0.0012
2467.00,0.0012
2466.00,0.0012
2465.00,0.0012
2464.00,0.0012
2463.00,0.0013
2462.00,0.0013
2461.00,0.0014
2460.00,0.0014
2459.00,0.0014
2458.00,0.0014
2457.00,0.0013
2456.00,0.0013
2455.00,0.0013
2454.00,0.0013
2453.00,0.0014
2452.00,0.0014
2451.00,0.0015
2450.00,0.0014
2449.00,0.0014
2448.00,0.0014
2447.00,0.0014
2446.00,0.0014
2445.00,0.0014
2444.00,0.0014
2443.00,0.0015
2442.00,0.0015
2441.00,0.0015
2440.00,0.0014
2439.00,0.0014
2438.00,0.0013
2437.00,0.0013
2436.00,0.0014
2435.00,0.0014
2434.00,0.0014
2433.00,0.0015
2432.00,0.0016
2431.00,0.0016
2430.00,0.0016
2429.00,0.0016
2428.00,0.0015
2427.00,0.0015
2426.00,0.0014
2425.00,0.0015
2424.00,0.0014
2423.00,0.0014
2422.00,0.0014
2421.00,0.0013
2420.00,0.0013
2419.00,0.0012
2418.00,0.0012
2417.00,0.0012
2416.00,0.0012
2415.00,0.0012
2414.00,0.0012
2413.00,0.0013
2412.00,0.0013
2411.00,0.0013
2410.00,0.0013
2409.00,0.0013
2408.00,0.0012
2407.00,0.0011
2406.00,0.0011
2405.00,0.0011
2404.00,0.0011
2403.00,0.0012
2402.00,0.0012
2401.00,0.0012
2400.00,0.0011
2399.00,0.0011
2398.00,0.0011
2397.00,0.0010
2396.00,0.0010
2395.00,0.0010
2394.00,0.0010
2393.00,0.0010
2392.00,0.0011
2391.00,0.0011
2390.00,0.0011
2389.00,0.0011
2388.00,0.0011
2387.00,0.0011
2386.00,0.0010
2385.00,0.0010
2384.00,0.0010
2383.00,0.0010
2382.00,0.0010
2381.00,0.0010
2380.00,0.0010
2379.00,0.0010
2378.00,0.0010
2377.00,0.0010
2376.00,0.0010
2375.00,0.0010
2374.00,0.0010
2373.00,0.0010
2372.00,0.0010
2371.00,0.0010
2370.00,0.0010
2369.00,0.0010
2368.00,0.0010
2367.00,0.0010
2366.00,0.0010
2365.00,0.0011
2364.00,0.0011
2363.00,0.0010
2362.00,0.0010
2361.00,0.0011
2360.00,0.0011
2359.00,0.0012
2358.00,0.0012
2357.00,0.0012
2356.00,0.0013
2355.00,0.0012
2354.00,0.0012
2353.00,0.0011
2352.00,0.0011
2351.00,0.0011
2350.00,0.0012
2349.00,0.0012
2348.00,0.0013
2347.00,0.0013
2346.00,0.0013
2345.00,0.0013
2344.00,0.0013
2343.00,0.0014
2342.00,0.0014
2341.00,0.0014
2340.00,0.0015
2339.00,0.0014
2338.00,0.0014
2337.00,0.0014
2336.00,0.0014
2335.00,0.0014
2334.00,0.0014
2333.00,0.0014
2332.00,0.0013
2331.00,0.0013
2330.00,0.0013
2329.00,0.0013
2328.00,0.0015
2327.00,0.0019
2326.00,0.0023
2325.00,0.0027
2324.00,0.0028
2323.00,0.0027
2322.00,0.0024
2321.00,0.0023
2320.00,0.0021
2319.00,0.0021
2318.00,0.0020
2317.00,0.0020
2316.00,0.0019
2315.00,0.0018
2314.00,0.0017
2313.00,0.0016
2312.00,0.0016
2311.00,0.0016
2310.00,0.0016
2309.00,0.0016
2308.00,0.0016
2307.00,0.0015
2306.00,0.0014
2305.00,0.0014
2304.00,0.0014
2303.00,0.0015
2302.00,0.0016
2301.00,0.0016
2300.00,0.0016
2299.00,0.0016
2298.00,0.0016
2297.00,0.0016
2296.00,0.0016
2295.00,0.0016
2294.00,0.0017
2293.00,0.0018
2292.00,0.0018
2291.00,0.0019
2290.00,0.0019
2289.00,0.0020
2288.00,0.0021
2287.00,0.0021
2286.00,0.0021
2285.00,0.0020
2284.00,0.0020
2283.00,0.0019
2282.00,0.0019
2281.00,0.0018
2280.00,0.0018
2279.00,0.0018
2278.00,0.0018
2277.00,0.0018
2276.00,0.0018
2275.00,0.0018
2274.00,0.0018
2273.00,0.0018
2272.00,0.0017
2271.00,0.0016
2270.00,0.0014
2269.00,0.0012
2268.00,0.0012
2267.00,0.0013
2266.00,0.0013
2265.00,0.0013
2264.00,0.0012
2263.00,0.0012
2262.00,0.0012
2261.00,0.0012
2260.00,0.0013
2259.00,0.0015
2258.00,0.0017
2257.00,0.0018
2256.00,0.0017
2255.00,0.0016
2254.00,0.0015
2253.00,0.0014
2252.00,0.0013
2251.00,0.0013
2250.00,0.0012
2249.00,0.0012
2248.00,0.0012
2247.00,0.0012
2246.00,0.0011
2245.00,0.0011
2244.00,0.0010
2243.00,0.0009
2242.00,0.0009
2241.00,0.0010
2240.00,0.0011
2239.00,0.0012
2238.00,0.0011
2237.00,0.0010
2236.00,0.0009
2235.00,0.0009
2234.00,0.0009
2233.00,0.0009
2232.00,0.0009
2231.00,0.0009
2230.00,0.0010
2229.00,0.0012
2228.00,0.0014
2227.00,0.0015
2226.00,0.0016
2225.00,0.0015
2224.00,0.0014
2223.00,0.0012
2222.00,0.0010
2221.00,0.0009
2220.00,0.0008
2219.00,0.0007
2218.00,0.0007
2217.00,0.0008
2216.00,0.0008
2215.00,0.0008
2214.00,0.0008
2213.00,0.0007
2212.00,0.0007
2211.00,0.0007
2210.00,0.0008
2209.00,0.0008
2208.00,0.0008
2207.00,0.0007
2206.00,0.0007
2205.00,0.0007
2204.00,0.0007
2203.00,0.0006
2202.00,0.0006
2201.00,0.0007
2200.00,0.0008
2199.00,0.0009
2198.00,0.0009
2197.00,0.0009
2196.00,0.0008
2195.00,0.0007
2194.00,0.0007
2193.00,0.0008
2192.00,0.0009
2191.00,0.0010
2190.00,0.0011
2189.00,0.0012
2188.00,0.0013
2187.00,0.0013
2186.00,0.0014
2185.00,0.0014
2184.00,0.0015
2183.00,0.0014
2182.00,0.0012
2181.00,0.0011
2180.00,0.0010
2179.00,0.0009
2178.00,0.0008
2177.00,0.0005
2176.00,0.0002
2175.00,-0.0000
2174.00,0.0000
2173.00,0.0003
2172.00,0.0007
2171.00,0.0010
2170.00,0.0013
2169.00,0.0016
2168.00,0.0018
2167.00,0.0020
2166.00,0.0018
2165.00,0.0016
2164.00,0.0014
2163.00,0.0014
2162.00,0.0014
2161.00,0.0011
2160.00,0.0002
2159.00,-0.0012
2158.00,-0.0025
2157.00,-0.0032
2156.00,-0.0032
2155.00,-0.0028
2154.00,-0.0023
2153.00,-0.0018
2152.00,-0.0014
2151.00,-0.0012
2150.00,-0.0012
2149.00,-0.0012
2148.00,-0.0014
2147.00,-0.0015
2146.00,-0.0015
2145.00,-0.0012
2144.00,-0.0008
2143.00,-0.0004
2142.00,-0.0003
2141.00,-0.0004
2140.00,-0.0006
2139.00,-0.0007
2138.00,-0.0009
2137.00,-0.0010
2136.00,-0.0011
2135.00,-0.0012
2134.00,-0.0013
2133.00,-0.0013
2132.00,-0.0012
2131.00,-0.0011
2130.00,-0.0009
2129.00,-0.0007
2128.00,-0.0004
2127.00,-0.0003
2126.00,-0.0002
2125.00,-0.0002
2124.00,-0.0002
2123.00,-0.0002
2122.00,-0.0001
2121.00,-0.0001
2120.00,-0.0000
2119.00,-0.0000
2118.00,-0.0000
2117.00,0.0001
2116.00,0.0003
2115.00,0.0004
2114.00,0.0005
2113.00,0.0004
2112.00,0.0003
2111.00,0.0002
2110.00,0.0001
2109.00,0.0001
2108.00,0.0003
2107.00,0.0004
2106.00,0.0006
2105.00,0.0007
2104.00,0.0007
2103.00,0.0007
2102.00,0.0006
2101.00,0.0006
2100.00,0.0005
2099.00,0.0004
2098.00,0.0003
2097.00,0.0002
2096.00,0.0000
2095.00,-0.0001
2094.00,-0.0001
2093.00,0.0000
2092.00,0.0001
2091.00,0.0002
2090.00,0.0003
2089.00,0.0004
2088.00,0.0004
2087.00,0.0004
2086.00,0.0003
2085.00,0.0003
2084.00,0.0004
2083.00,0.0005
2082.00,0.0006
2081.00,0.0007
2080.00,0.0006
2079.00,0.0006
2078.00,0.0006
2077.00,0.0005
2076.00,0.0004
2075.00,0.0002
2074.00,0.0001
2073.00,0.0000
2072.00,0.0001
2071.00,0.0002
2070.00,0.0004
2069.00,0.0005
2068.00,0.0006
2067.00,0.0005
2066.00,0.0003
2065.00,0.0002
2064.00,0.0003
2063.00,0.0003
2062.00,0.0003
2061.00,0.0003
2060.00,0.0003
2059.00,0.0003
2058.00,0.0004
2057.00,0.0005
2056.00,0.0005
2055.00,0.0004
2054.00,0.0005
2053.00,0.0009
2052.00,0.0014
2051.00,0.0017
2050.00,0.0015
2049.00,0.0011
2048.00,0.0007
2047.00,0.0006
2046.00,0.0006
2045.00,0.0006
2044.00,0.0005
2043.00,0.0003
2042.00,0.0001
2041.00,0.0000
2040.00,0.0001
2039.00,0.0002
2038.00,0.0003
2037.00,0.0003
2036.00,0.0002
2035.00,-0.0000
2034.00,-0.0002
2033.00,-0.0003
2032.00,-0.0004
2031.00,-0.0005
2030.00,-0.0005
2029.00,-0.0005
2028.00,-0.0005
2027.00,-0.0004
2026.00,-0.0003
2025.00,-0.0002
2024.00,-0.0002
2023.00,-0.0003
2022.00,-0.0004
2021.00,-0.0005
2020.00,-0.0005
2019.00,-0.0005
2018.00,-0.0005
2017.00,-0.0004
2016.00,-0.0002
2015.00,-0.0002
2014.00,-0.0004
2013.00,-0.0008
2012.00,-0.0012
2011.00,-0.0014
2010.00,-0.0014
2009.00,-0.0013
2008.00,-0.0013
2007.00,-0.0015
2006.00,-0.0016
2005.00,-0.0015
2004.00,-0.0012
2003.00,-0.0008
2002.00,-0.0006
2001.00,-0.0007
2000.00,-0.0010
1999.00,-0.0014
1998.00,-0.0017
1997.00,-0.0016
1996.00,-0.0014
1995.00,-0.0012
1994.00,-0.0011
1993.00,-0.0011
1992.00,-0.0010
1991.00,-0.0008
1990.00,-0.0006
1989.00,-0.0004
1988.00,-0.0002
1987.00,-0.0001
1986.00,0.0001
1985.00,0.0003
1984.00,0.0004
1983.00,0.0005
1982.00,0.0006
1981.00,0.0009
1980.00,0.0010
1979.00,0.0008
1978.00,0.0004
1977.00,-0.0001
1976.00,-0.0004
1975.00,-0.0006
1974.00,-0.0007
1973.00,-0.0008
1972.00,-0.0008
1971.00,-0.0007
1970.00,-0.0005
1969.00,-0.0002
1968.00,0.0001
1967.00,0.0002
1966.00,0.0000
1965.00,-0.0003
1964.00,-0.0006
1963.00,-0.0009
1962.00,-0.0010
1961.00,-0.0010
1960.00,-0.0010
1959.00,-0.0011
1958.00,-0.0013
1957.00,-0.0014
1956.00,-0.0014
1955.00,-0.0013
1954.00,-0.0012
1953.00,-0.0012
1952.00,-0.0011
1951.00,-0.0012
1950.00,-0.0012
1949.00,-0.0012
1948.00,-0.0013
1947.00,-0.0013
1946.00,-0.0014
1945.00,-0.0014
1944.00,-0.0013
1943.00,-0.0012
1942.00,-0.0010
1941.00,-0.0008
1940.00,-0.0007
1939.00,-0.0006
1938.00,-0.0007
1937.00,-0.0009
1936.00,-0.0010
1935.00,-0.0010
1934.00,-0.0009
1933.00,-0.0008
1932.00,-0.0007
1931.00,-0.0007
1930.00,-0.0007
1929.00,-0.0008
1928.00,-0.0008
1927.00,-0.0006
1926.00,-0.0004
1925.00,-0.0003
1924.00,-0.0002
1923.00,-0.0001
1922.00,-0.0001
1921.00,-0.0001
1920.00,0.0000
1919.00,0.0001
1918.00,0.0002
1917.00,0.0003
1916.00,0.0002
1915.00,0.0002
1914.00,0.0001
1913.00,-0.0000
1912.00,-0.0000
1911.00,-0.0001
1910.00,-0.0001
1909.00,-0.0001
1908.00,-0.0002
1907.00,-0.0003
1906.00,-0.0003
1905.00,-0.0002
1904.00,-0.0001
1903.00,-0.0000
1902.00,0.0001
1901.00,0.0001
1900.00,0.0002
1899.00,0.0003
1898.00,0.0003
1897.00,0.0003
1896.00,0.0003
1895.00,0.0002
1894.00,0.0002
1893.00,0.0002
1892.00,0.0003
1891.00,0.0003
1890.00,0.0003
1889.00,0.0003
1888.00,0.0003
1887.00,0.0002
1886.00,0.0001
1885.00,0.0001
1884.00,0.0001
1883.00,0.0001
1882.00,0.0001
1881.00,0.0001
1880.00,0.0001
1879.00,0.0002
1878.00,0.0002
1877.00,0.0003
1876.00,0.0003
1875.00,0.0003
1874.00,0.0002
1873.00,0.0002
1872.00,0.0002
1871.00,0.0002
1870.00,0.0002
1869.00,0.0002
1868.00,0.0002
1867.00,0.0003
1866.00,0.0003
1865.00,0.0003
1864.00,0.0003
1863.00,0.0002
1862.00,0.0002
1861.00,0.0002
1860.00,0.0002
1859.00,0.0002
1858.00,0.0003
1857.00,0.0004
1856.00,0.0004
1855.00,0.0003
1854.00,0.0003
1853.00,0.0004
1852.00,0.0004
1851.00,0.0004
1850.00,0.0004
1849.00,0.0004
1848.00,0.0003
1847.00,0.0003
1846.00,0.0002
1845.00,0.0002
1844.00,0.0003
1843.00,0.0003
1842.00,0.0004
1841.00,0.0004
1840.00,0.0005
1839.00,0.0005
1838.00,0.0006
1837.00,0.0007
1836.00,0.0007
1835.00,0.0006
1834.00,0.0005
1833.00,0.0005
1832.00,0.0006
1831.00,0.0006
1830.00,0.0007
1829.00,0.0007
1828.00,0.0007
1827.00,0.0007
1826.00,0.0007
1825.00,0.0007
1824.00,0.0007
1823.00,0.0007
1822.00,0.0007
1821.00,0.0006
1820.00,0.0005
1819.00,0.0004
1818.00,0.0003
1817.00,0.0002
1816.00,0.0002
1815.00,0.0003
1814.00,0.0004
1813.00,0.0004
1812.00,0.0004
1811.00,0.0004
1810.00,0.0005
1809.00,0.0005
1808.00,0.0006
1807.00,0.0007
1806.00,0.0007
1805.00,0.0007
1804.00,0.0007
1803.00,0.0007
1802.00,0.0006
1801.00,0.0006
1800.00,0.0007
1799.00,0.0007
1798.00,0.0008
1797.00,0.0008
1796.00,0.0008
1795.00,0.0008
1794.00,0.0009
1793.00,0.0009
1792.00,0.0009
1791.00,0.0010
1790.00,0.0010
1789.00,0.0010
1788.00,0.0010
1787.00,0.0010
1786.00,0.0010
1785.00,0.0010
1784.00,0.0010
1783.00,0.0010
1782.00,0.0010
1781.00,0.0010
1780.00,0.0010
1779.00,0.0011
1778.00,0.0011
1777.00,0.0011
1776.00,0.0011
1775.00,0.0010
1774.00,0.0010
1773.00,0.0011
1772.00,0.0012
1771.00,0.0013
1770.00,0.0013
1769.00,0.0013
1768.00,0.0013
1767.00,0.0013
1766.00,0.0012
1765.00,0.0013
1764.00,0.0013
1763.00,0.0014
1762.00,0.0015
1761.00,0.0016
1760.00,0.0016
1759.00,0.0017
1758.00,0.0017
1757.00,0.0018
1756.00,0.0019
1755.00,0.0019
1754.00,0.0019
1753.00,0.0020
1752.00,0.0021
1751.00,0.0022
1750.00,0.0023
1749.00,0.0024
1748.00,0.0024
1747.00,0.0024
1746.00,0.0025
1745.00,0.0025
1744.00,0.0026
1743.00,0.0027
1742.00,0.0027
1741.00,0.0027
1740.00,0.0027
1739.00,0.0027
1738.00,0.0027
1737.00,0.0027
1736.00,0.0027
1735.00,0.0027
1734.00,0.0027
1733.00,0.0028
1732.00,0.0028
1731.00,0.0029
1730.00,0.0029
1729.00,0.0028
1728.00,0.0028
1727.00,0.0028
1726.00,0.0028
1725.00,0.0028
1724.00,0.0029
1723.00,0.0029
1722.00,0.0028
1721.00,0.0028
1720.00,0.0029
1719.00,0.0028
1718.00,0.0027
1717.00,0.0027
1716.00,0.0028
1715.00,0.0029
1714.00,0.0029
1713.00,0.0029
1712.00,0.0029
1711.00,0.0030
1710.00,0.0030
1709.00,0.0031
1708.00,0.0032
1707.00,0.0033
1706.00,0.0033
1705.00,0.0034
1704.00,0.0035
1703.00,0.0036
1702.00,0.0036
1701.00,0.0037
1700.00,0.0038
1699.00,0.0039
1698.00,0.0040
1697.00,0.0041
1696.00,0.0042
1695.00,0.0044
1694.00,0.0045
1693.00,0.0046
1692.00,0.0048
1691.00,0.0049
1690.00,0.0050
1689.00,0.0051
1688.00,0.0052
1687.00,0.0052
1686.00,0.0053
1685.00,0.0054
1684.00,0.0056
1683.00,0.0059
1682.00,0.0061
1681.00,0.0062
1680.00,0.0063
1679.00,0.0065
1678.00,0.0066
1677.00,0.0067
1676.00,0.0069
1675.00,0.0071
1674.00,0.0073
1673.00,0.0074
1672.00,0.0076
1671.00,0.0077
1670.00,0.0077
1669.00,0.0078
1668.00,0.0079
1667.00,0.0080
1666.00,0.0081
1665.00,0.0082
1664.00,0.0083
1663.00,0.0085
1662.00,0.0086
1661.00,0.0088
1660.00,0.0090
1659.00,0.0091
1658.00,0.0092
1657.00,0.0093
1656.00,0.0094
1655.00,0.0095
1654.00,0.0097
1653.00,0.0100
1652.00,0.0103
1651.00,0.0106
1650.00,0.0108
1649.00,0.0110
1648.00,0.0113
1647.00,0.0115
1646.00,0.0116
1645.00,0.0116
1644.00,0.0115
1643.00,0.0114
1642.00,0.0113
1641.00,0.0112
1640.00,0.0112
1639.00,0.0111
1638.00,0.0110
1637.00,0.0109
1636.00,0.0109
1635.00,0.0109
1634.00,0.0109
1633.00,0.0109
1632.00,0.0109
1631.00,0.0109
1630.00,0.0109
1629.00,0.0108
1628.00,0.0108
1627.00,0.0107
1626.00,0.0106
1625.00,0.0105
1624.00,0.0104
1623.00,0.0103
1622.00,0.0102
1621.00,0.0101
1620.00,0.0100
1619.00,0.0100
1618.00,0.0099
1617.00,0.0098
1616.00,0.0098
1615.00,0.0098
1614.00,0.0098
1613.00,0.0098
1612.00,0.0098
1611.00,0.0098
1610.00,0.0097
1609.00,0.0097
1608.00,0.0096
1607.00,0.0096
1606.00,0.0097
1605.00,0.0098
1604.00,0.0098
1603.00,0.0098
1602.00,0.0098
1601.00,0.0098
1600.00,0.0098
1599.00,0.0098
1598.00,0.0098
1597.00,0.0098
1596.00,0.0098
1595.00,0.0098
1594.00,0.0098
1593.00,0.0099
1592.00,0.0100
1591.00,0.0101
1590.00,0.0102
1589.00,0.0104
1588.00,0.0107
1587.00,0.0110
1586.00,0.0112
1585.00,0.0116
1584.00,0.0120
1583.00,0.0125
1582.00,0.0130
1581.00,0.0134
1580.00,0.0138
1579.00,0.0141
1578.00,0.0141
1577.00,0.0140
1576.00,0.0138
1575.00,0.0135
1574.00,0.0132
1573.00,0.0130
1572.00,0.0127
1571.00,0.0123
1570.00,0.0119
1569.00,0.0116
1568.00,0.0113
1567.00,0.0111
1566.00,0.0109
1565.00,0.0109
1564.00,0.0108
1563.00,0.0109
1562.00,0.0109
1561.00,0.0110
1560.00,0.0109
1559.00,0.0107
1558.00,0.0107
1557.00,0.0109
1556.00,0.0111
1555.00,0.0112
1554.00,0.0115
1553.00,0.0117
1552.00,0.0120
1551.00,0.0123
1550.00,0.0126
1549.00,0.0130
1548.00,0.0134
1547.00,0.0139
1546.00,0.0145
1545.00,0.0151
1544.00,0.0157
1543.00,0.0161
1542.00,0.0163
1541.00,0.0162
1540.00,0.0157
1539.00,0.0150
1538.00,0.0144
1537.00,0.0140
1536.00,0.0137
1535.00,0.0132
1534.00,0.0125
1533.00,0.0117
1532.00,0.0112
1531.00,0.0108
1530.00,0.0104
1529.00,0.0101
1528.00,0.0099
1527.00,0.0097
1526.00,0.0095
1525.00,0.0094
1524.00,0.0093
1523.00,0.0091
1522.00,0.0090
1521.00,0.0089
1520.00,0.0090
1519.00,0.0090
1518.00,0.0089
1517.00,0.0089
1516.00,0.0089
1515.00,0.0089
1514.00,0.0089
1513.00,0.0089
1512.00,0.0089
1511.00,0.0089
1510.00,0.0088
1509.00,0.0088
1508.00,0.0089
1507.00,0.0090
1506.00,0.0090
1505.00,0.0090
1504.00,0.0091
1503.00,0.0092
1502.00,0.0093
1501.00,0.0096
1500.00,0.0099
1499.00,0.0101
1498.00,0.0103
1497.00,0.0105
1496.00,0.0109
1495.00,0.0111
1494.00,0.0114
1493.00,0.0118
1492.00,0.0122
1491.00,0.0126
1490.00,0.0130
1489.00,0.0135
1488.00,0.0140
1487.00,0.0146
1486.00,0.0152
1485.00,0.0161
1484.00,0.0170
1483.00,0.0180
1482.00,0.0192
1481.00,0.0206
1480.00,0.0220
1479.00,0.0235
1478.00,0.0251
1477.00,0.0272
1476.00,0.0296
1475.00,0.0322
1474.00,0.0358
1473.00,0.0412
1472.00,0.0478
1471.00,0.0542
1470.00,0.0605
1469.00,0.0670
1468.00,0.0741
1467.00,0.0819
1466.00,0.0910
1465.00,0.1009
1464.00,0.1097
1463.00,0.1159
1462.00,0.1200
1461.00,0.1229
1460.00,0.1249
1459.00,0.1262
1458.00,0.1270
1457.00,0.1276
1456.00,0.1276
1455.00,0.1270
1454.00,0.1260
1453.00,0.1243
1452.00,0.1215
1451.00,0.1173
1450.00,0.1116
1449.00,0.1038
1448.00,0.0940
1447.00,0.0839
1446.00,0.0750
1445.00,0.0675
1444.00,0.0612
1443.00,0.0561
1442.00,0.0525
1441.00,0.0501
1440.00,0.0489
1439.00,0.0487
1438.00,0.0494
1437.00,0.0501
1436.00,0.0494
1435.00,0.0468
1434.00,0.0429
1433.00,0.0381
1432.00,0.0331
1431.00,0.0287
1430.00,0.0254
1429.00,0.0230
1428.00,0.0214
1427.00,0.0205
1426.00,0.0199
1425.00,0.0194
1424.00,0.0188
1423.00,0.0185
1422.00,0.0184
1421.00,0.0183
1420.00,0.0180
1419.00,0.0178
1418.00,0.0175
1417.00,0.0171
1416.00,0.0167
1415.00,0.0164
1414.00,0.0163
1413.00,0.0161
1412.00,0.0158
1411.00,0.0156
1410.00,0.0155
1409.00,0.0153
1408.00,0.0151
1407.00,0.0151
1406.00,0.0151
1405.00,0.0150
1404.00,0.0148
1403.00,0.0147
1402.00,0.0147
1401.00,0.0147
1400.00,0.0147
1399.00,0.0148
1398.00,0.0149
1397.00,0.0150
1396.00,0.0152
1395.00,0.0156
1394.00,0.0160
1393.00,0.0165
1392.00,0.0171
1391.00,0.0180
1390.00,0.0192
1389.00,0.0210
1388.00,0.0236
1387.00,0.0275
1386.00,0.0326
1385.00,0.0391
1384.00,0.0475
1383.00,0.0591
1382.00,0.0746
1381.00,0.0948
1380.00,0.1204
1379.00,0.1504
1378.00,0.1806
1377.00,0.2041
1376.00,0.2141
1375.00,0.2059
1374.00,0.1816
1373.00,0.1506
1372.00,0.1216
1371.00,0.0974
1370.00,0.0780
1369.00,0.0632
1368.00,0.0530
1367.00,0.0467
1366.00,0.0434
1365.00,0.0421
1364.00,0.0424
1363.00,0.0441
1362.00,0.0466
1361.00,0.0494
1360.00,0.0514
1359.00,0.0520
1358.00,0.0508
1357.00,0.0477
1356.00,0.0434
1355.00,0.0386
1354.00,0.0339
1353.00,0.0300
1352.00,0.0268
1351.00,0.0243
1350.00,0.0222
1349.00,0.0206
1348.00,0.0194
1347.00,0.0183
1346.00,0.0175
1345.00,0.0169
1344.00,0.0164
1343.00,0.0160
1342.00,0.0156
1341.00,0.0153
1340.00,0.0149
1339.00,0.0147
1338.00,0.0145
1337.00,0.0144
1336.00,0.0145
1335.00,0.0148
1334.00,0.0151
1333.00,0.0156
1332.00,0.0161
1331.00,0.0164
1330.00,0.0166
1329.00,0.0164
1328.00,0.0160
1327.00,0.0154
1326.00,0.0146
1325.00,0.0139
1324.00,0.0133
1323.00,0.0128
1322.00,0.0124
1321.00,0.0121
1320.00,0.0118
1319.00,0.0115
1318.00,0.0113
1317.00,0.0110
1316.00,0.0108
1315.00,0.0106
1314.00,0.0105
1313.00,0.0105
1312.00,0.0106
1311.00,0.0108
1310.00,0.0112
1309.00,0.0117
1308.00,0.0125
1307.00,0.0134
1306.00,0.0142
1305.00,0.0149
1304.00,0.0152
1303.00,0.0152
1302.00,0.0150
1301.00,0.0149
1300.00,0.0149
1299.00,0.0150
1298.00,0.0151
1297.00,0.0152
1296.00,0.0152
1295.00,0.0149
1294.00,0.0145
1293.00,0.0139
1292.00,0.0132
1291.00,0.0126
1290.00,0.0121
1289.00,0.0116
1288.00,0.0113
1287.00,0.0110
1286.00,0.0107
1285.00,0.0104
1284.00,0.0102
1283.00,0.0100
1282.00,0.0099
1281.00,0.0097
1280.00,0.0097
1279.00,0.0096
1278.00,0.0095
1277.00,0.0094
1276.00,0.0093
1275.00,0.0092
1274.00,0.0092
1273.00,0.0092
1272.00,0.0092
1271.00,0.0092
1270.00,0.0092
1269.00,0.0093
1268.00,0.0094
1267.00,0.0096
1266.00,0.0097
1265.00,0.0099
1264.00,0.0101
1263.00,0.0103
1262.00,0.0107
1261.00,0.0110
1260.00,0.0115
1259.00,0.0120
1258.00,0.0126
1257.00,0.0131
1256.00,0.0133
1255.00,0.0132
1254.00,0.0128
1253.00,0.0121
1252.00,0.0115
1251.00,0.0110
1250.00,0.0106
1249.00,0.0104
1248.00,0.0103
1247.00,0.0102
1246.00,0.0102
1245.00,0.0101
1244.00,0.0100
1243.00,0.0100
1242.00,0.0099
1241.00,0.0099
1240.00,0.0098
1239.00,0.0098
1238.00,0.0098
1237.00,0.0098
1236.00,0.0098
1235.00,0.0099
1234.00,0.0099
1233.00,0.0099
1232.00,0.0099
1231.00,0.0099
1230.00,0.0100
1229.00,0.0101
1228.00,0.0103
1227.00,0.0104
1226.00,0.0107
1225.00,0.0109
1224.00,0.0113
1223.00,0.0118
1222.00,0.0122
1221.00,0.0126
1220.00,0.0129
1219.00,0.0130
1218.00,0.0129
1217.00,0.0126
1216.00,0.0123
1215.00,0.0120
1214.00,0.0116
1213.00,0.0113
1212.00,0.0109
1211.00,0.0106
1210.00,0.0104
1209.00,0.0102
1208.00,0.0101
1207.00,0.0099
1206.00,0.0098
1205.00,0.0098
1204.00,0.0097
1203.00,0.0096
1202.00,0.0095
1201.00,0.0095
1200.00,0.0095
1199.00,0.0095
1198.00,0.0096
1197.00,0.0096
1196.00,0.0096
1195.00,0.0096
1194.00,0.0096
1193.00,0.0095
1192.00,0.0095
1191.00,0.0096
1190.00,0.0096
1189.00,0.0096
1188.00,0.0097
1187.00,0.0097
1186.00,0.0096
1185.00,0.0096
1184.00,0.0096
1183.00,0.0096
1182.00,0.0097
1181.00,0.0098
1180.00,0.0101
1179.00,0.0105
1178.00,0.0111
1177.00,0.0118
1176.00,0.0126
1175.00,0.0138
1174.00,0.0154
1173.00,0.0173
1172.00,0.0196
1171.00,0.0222
1170.00,0.0247
1169.00,0.0267
1168.00,0.0281
1167.00,0.0285
1166.00,0.0282
1165.00,0.0272
1164.00,0.0260
1163.00,0.0248
1162.00,0.0236
1161.00,0.0226
1160.00,0.0219
1159.00,0.0214
1158.00,0.0210
1157.00,0.0207
1156.00,0.0205
1155.00,0.0204
1154.00,0.0203
1153.00,0.0202
1152.00,0.0199
1151.00,0.0194
1150.00,0.0187
1149.00,0.0178
1148.00,0.0169
1147.00,0.0160
1146.00,0.0152
1145.00,0.0144
1144.00,0.0138
1143.00,0.0133
1142.00,0.0129
1141.00,0.0125
1140.00,0.0121
1139.00,0.0118
1138.00,0.0115
1137.00,0.0112
1136.00,0.0109
1135.00,0.0107
1134.00,0.0105
1133.00,0.0104
1132.00,0.0104
1131.00,0.0105
1130.00,0.0106
1129.00,0.0108
1128.00,0.0110
1127.00,0.0113
1126.00,0.0115
1125.00,0.0117
1124.00,0.0118
1123.00,0.0119
1122.00,0.0119
1121.00,0.0120
1120.00,0.0120
1119.00,0.0122
1118.00,0.0123
1117.00,0.0126
1116.00,0.0128
1115.00,0.0129
1114.00,0.0131
1113.00,0.0132
1112.00,0.0135
1111.00,0.0138
1110.00,0.0141
1109.00,0.0144
1108.00,0.0148
1107.00,0.0155
1106.00,0.0163
1105.00,0.0171
1104.00,0.0178
1103.00,0.0181
1102.00,0.0180
1101.00,0.0177
1100.00,0.0171
1099.00,0.0165
1098.00,0.0157
1097.00,0.0150
1096.00,0.0144
1095.00,0.0139
1094.00,0.0135
1093.00,0.0131
1092.00,0.0128
1091.00,0.0125
1090.00,0.0122
1089.00,0.0120
1088.00,0.0117
1087.00,0.0116
1086.00,0.0115
1085.00,0.0114
1084.00,0.0115
1083.00,0.0115
1082.00,0.0114
1081.00,0.0114
1080.00,0.0113
1079.00,0.0112
1078.00,0.0111
1077.00,0.0110
1076.00,0.0109
1075.00,0.0108
1074.00,0.0107
1073.00,0.0106
1072.00,0.0106
1071.00,0.0106
1070.00,0.0106
1069.00,0.0106
1068.00,0.0106
1067.00,0.0106
1066.00,0.0106
1065.00,0.0107
1064.00,0.0107
1063.00,0.0107
1062.00,0.0107
1061.00,0.0107
1060.00,0.0108
1059.00,0.0109
1058.00,0.0110
1057.00,0.0111
1056.00,0.0111
1055.00,0.0111
1054.00,0.0112
1053.00,0.0113
1052.00,0.0114
1051.00,0.0115
1050.00,0.0116
1049.00,0.0118
1048.00,0.0121
1047.00,0.0124
1046.00,0.0127
1045.00,0.0128
1044.00,0.0129
1043.00,0.0128
1042.00,0.0126
1041.00,0.0125
1040.00,0.0124
1039.00,0.0125
1038.00,0.0126
1037.00,0.0127
1036.00,0.0127
1035.00,0.0127
1034.00,0.0126
1033.00,0.0124
1032.00,0.0123
1031.00,0.0121
1030.00,0.0119
1029.00,0.0117
1028.00,0.0116
1027.00,0.0114
1026.00,0.0113
1025.00,0.0112
1024.00,0.0112
1023.00,0.0112
1022.00,0.0113
1021.00,0.0113
1020.00,0.0113
1019.00,0.0113
1018.00,0.0114
1017.00,0.0116
1016.00,0.0118
1015.00,0.0121
1014.00,0.0125
1013.00,0.0128
1012.00,0.0131
1011.00,0.0133
1010.00,0.0135
1009.00,0.0137
1008.00,0.0139
1007.00,0.0143
1006.00,0.0149
1005.00,0.0157
1004.00,0.0169
1003.00,0.0186
1002.00,0.0207
1001.00,0.0233
1000.00,0.0260
999.00,0.0282
998.00,0.0292
997.00,0.0285
996.00,0.0263
995.00,0.0233
994.00,0.0202
993.00,0.0175
992.00,0.0154
991.00,0.0138
990.00,0.0127
989.00,0.0120
988.00,0.0115
987.00,0.0113
986.00,0.0112
985.00,0.0114
984.00,0.0117
983.00,0.0124
982.00,0.0134
981.00,0.0147
980.00,0.0166
979.00,0.0190
978.00,0.0221
977.00,0.0257
976.00,0.0295
975.00,0.0329
974.00,0.0351
973.00,0.0357
972.00,0.0342
971.00,0.0311
970.00,0.0270
969.00,0.0230
968.00,0.0194
967.00,0.0167
966.00,0.0147
965.00,0.0133
964.00,0.0122
963.00,0.0114
962.00,0.0107
961.00,0.0102
960.00,0.0097
959.00,0.0093
958.00,0.0090
957.00,0.0088
956.00,0.0087
955.00,0.0085
954.00,0.0082
953.00,0.0080
952.00,0.0079
951.00,0.0079
950.00,0.0080
949.00,0.0080
948.00,0.0081
947.00,0.0083
946.00,0.0085
945.00,0.0087
944.00,0.0090
943.00,0.0093
942.00,0.0097
941.00,0.0100
940.00,0.0101
939.00,0.0099
938.00,0.0096
937.00,0.0091
936.00,0.0086
935.00,0.0082
934.00,0.0078
933.00,0.0075
932.00,0.0073
931.00,0.0072
930.00,0.0071
929.00,0.0070
928.00,0.0070
927.00,0.0070
926.00,0.0070
925.00,0.0070
924.00,0.0069
923.00,0.0069
922.00,0.0069
921.00,0.0071
920.00,0.0073
919.00,0.0075
918.00,0.0077
917.00,0.0078
916.00,0.0079
915.00,0.0080
914.00,0.0080
913.00,0.0081
912.00,0.0083
911.00,0.0084
910.00,0.0086
909.00,0.0087
908.00,0.0090
907.00,0.0095
906.00,0.0103
905.00,0.0114
904.00,0.0130
903.00,0.0150
902.00,0.0173
901.00,0.0194
900.00,0.0208
899.00,0.0212
898.00,0.0203
897.00,0.0186
896.00,0.0164
895.00,0.0143
894.00,0.0125
893.00,0.0111
892.00,0.0101
891.00,0.0094
890.00,0.0089
889.00,0.0085
888.00,0.0083
887.00,0.0082
886.00,0.0082
885.00,0.0082
884.00,0.0082
883.00,0.0082
882.00,0.0082
881.00,0.0082
880.00,0.0083
879.00,0.0084
878.00,0.0084
877.00,0.0083
876.00,0.0081
875.00,0.0080
874.00,0.0081
873.00,0.0081
872.00,0.0081
871.00,0.0081
870.00,0.0081
869.00,0.0081
868.00,0.0081
867.00,0.0081
866.00,0.0080
865.00,0.0080
864.00,0.0081
863.00,0.0083
862.00,0.0086
861.00,0.0088
860.00,0.0089
859.00,0.0091
858.00,0.0093
857.00,0.0094
856.00,0.0096
855.00,0.0097
854.00,0.0098
853.00,0.0100
852.00,0.0103
851.00,0.0106
850.00,0.0110
849.00,0.0115
848.00,0.0122
847.00,0.0134
846.00,0.0151
845.00,0.0176
844.00,0.0208
843.00,0.0242
842.00,0.0266
841.00,0.0271
840.00,0.0255
839.00,0.0223
838.00,0.0190
837.00,0.0162
836.00,0.0144
835.00,0.0134
834.00,0.0128
833.00,0.0125
832.00,0.0122
831.00,0.0119
830.00,0.0117
829.00,0.0115
828.00,0.0114
827.00,0.0114
826.00,0.0114
825.00,0.0114
824.00,0.0114
823.00,0.0113
822.00,0.0114
821.00,0.0116
820.00,0.0119
819.00,0.0122
818.00,0.0125
817.00,0.0130
816.00,0.0139
815.00,0.0152
814.00,0.0169
813.00,0.0188
812.00,0.0208
811.00,0.0226
810.00,0.0240
809.00,0.0247
808.00,0.0245
807.00,0.0233
806.00,0.0215
805.00,0.0196
804.00,0.0178
803.00,0.0163
802.00,0.0150
801.00,0.0140
800.00,0.0131
799.00,0.0124
798.00,0.0118
797.00,0.0113
796.00,0.0109
795.00,0.0106
794.00,0.0103
793.00,0.0101
792.00,0.0100
791.00,0.0098
790.00,0.0097
789.00,0.0095
788.00,0.0094
787.00,0.0092
786.00,0.0089
785.00,0.0087
784.00,0.0085
783.00,0.0083
782.00,0.0082
781.00,0.0081
780.00,0.0079
779.00,0.0078
778.00,0.0077
777.00,0.0077
776.00,0.0077
775.00,0.0079
774.00,0.0082
773.00,0.0085
772.00,0.0089
771.00,0.0092
770.00,0.0093
769.00,0.0093
768.00,0.0093
767.00,0.0092
766.00,0.0092
765.00,0.0091
764.00,0.0089
763.00,0.0086
762.00,0.0083
761.00,0.0081
760.00,0.0079
759.00,0.0078
758.00,0.0077
757.00,0.0076
756.00,0.0075
755.00,0.0075
754.00,0.0074
753.00,0.0074
752.00,0.0074
751.00,0.0074
750.00,0.0074
749.00,0.0074
748.00,0.0073
747.00,0.0072
746.00,0.0072
745.00,0.0073
744.00,0.0074
743.00,0.0075
742.00,0.0075
741.00,0.0076
740.00,0.0077
739.00,0.0079
738.00,0.0081
737.00,0.0082
736.00,0.0083
735.00,0.0085
734.00,0.0088
733.00,0.0091
732.00,0.0094
731.00,0.0095
730.00,0.0094
729.00,0.0093
728.00,0.0093
727.00,0.0092
726.00,0.0092
725.00,0.0093
724.00,0.0094
723.00,0.0095
722.00,0.0097
721.00,0.0097
720.00,0.0097
719.00,0.0096
718.00,0.0094
717.00,0.0091
716.00,0.0088
715.00,0.0085
714.00,0.0085
713.00,0.0085
712.00,0.0085
711.00,0.0085
710.00,0.0084
709.00,0.0085
708.00,0.0085
707.00,0.0086
706.00,0.0085
705.00,0.0084
704.00,0.0082
703.00,0.0081
702.00,0.0081
701.00,0.0080
700.00,0.0080
699.00,0.0080
698.00,0.0081
697.00,0.0081
696.00,0.0081
695.00,0.0080
694.00,0.0079
693.00,0.0078
692.00,0.0078
691.00,0.0078
690.00,0.0080
689.00,0.0081
688.00,0.0082
687.00,0.0080
686.00,0.0078
685.00,0.0076
684.00,0.0076
683.00,0.0077
682.00,0.0080
681.00,0.0083
680.00,0.0084
679.00,0.0084
678.00,0.0084
677.00,0.0085
676.00,0.0086
675.00,0.0087
674.00,0.0087
673.00,0.0086
672.00,0.0085
671.00,0.0084
670.00,0.0086
669.00,0.0087
668.00,0.0086
667.00,0.0084
666.00,0.0082
665.00,0.0080
664.00,0.0079
663.00,0.0079
662.00,0.0079
661.00,0.0079
660.00,0.0079
659.00,0.0079
658.00,0.0079
657.00,0.0079
656.00,0.0078
655.00,0.0077
654.00,0.0077
653.00,0.0078
652.00,0.0079
651.00,0.0079
650.00,0.0079
649.00,0.0079
648.00,0.0078
647.00,0.0078
646.00,0.0079
645.00,0.0080
644.00,0.0081
643.00,0.0082
642.00,0.0082
641.00,0.0081
640.00,0.0080
639.00,0.0080
638.00,0.0080
637.00,0.0081
636.00,0.0080
635.00,0.0080
634.00,0.0080
633.00,0.0082
632.00,0.0084
631.00,0.0086
630.00,0.0086
629.00,0.0086
628.00,0.0086
627.00,0.0086
626.00,0.0086
625.00,0.0085
624.00,0.0085
623.00,0.0085
622.00,0.0084
621.00,0.0084
620.00,0.0084
619.00,0.0085
618.00,0.0086
617.00,0.0086
616.00,0.0084
615.00,0.0084
614.00,0.0085
613.00,0.0085
612.00,0.0084
611.00,0.0084
610.00,0.0084
609.00,0.0085
608.00,0.0085
607.00,0.0084
606.00,0.0083
605.00,0.0083
604.00,0.0082
603.00,0.0082
602.00,0.0083
601.00,0.0085
600.00,0.0086
599.00,0.0086
598.00,0.0085
597.00,0.0082
596.00,0.0080
595.00,0.0080
594.00,0.0080
593.00,0.0080
592.00,0.0081
591.00,0.0082
590.00,0.0083
589.00,0.0085
588.00,0.0087
587.00,0.0088
586.00,0.0088
585.00,0.0087
584.00,0.0085
583.00,0.0084
582.00,0.0085
581.00,0.0087
580.00,0.0088
579.00,0.0087
578.00,0.0086
577.00,0.0085
576.00,0.0084
575.00,0.0082
574.00,0.0080
573.00,0.0078
572.00,0.0078
571.00,0.0079
570.00,0.0080
569.00,0.0081
568.00,0.0082
567.00,0.0085
566.00,0.0090
565.00,0.0092
564.00,0.0092
563.00,0.0089
562.00,0.0087
561.00,0.0088
560.00,0.0089
559.00,0.0089
558.00,0.0087
557.00,0.0085
556.00,0.0085
555.00,0.0087
554.00,0.0089
553.00,0.0092
552.00,0.0093
551.00,0.0094
550.00,0.0095
549.00,0.0096
548.00,0.0097
547.00,0.0096
546.00,0.0095
545.00,0.0093
544.00,0.0092
543.00,0.0091
542.00,0.0090
541.00,0.0089
540.00,0.0088
539.00,0.0088
538.00,0.0090
537.00,0.0090
536.00,0.0091
535.00,0.0092
534.00,0.0096
533.00,0.0100
532.00,0.0104
531.00,0.0106
530.00,0.0107
529.00,0.0108
528.00,0.0108
527.00,0.0106
526.00,0.0102
525.00,0.0098
524.00,0.0096
523.00,0.0098
522.00,0.0102
521.00,0.0106
520.00,0.0106
519.00,0.0102
518.00,0.0098
517.00,0.0095
516.00,0.0094
515.00,0.0092
514.00,0.0091
513.00,0.0088
512.00,0.0084
511.00,0.0080
510.00,0.0078
509.00,0.0077
508.00,0.0075
507.00,0.0075
506.00,0.0079
505.00,0.0083
504.00,0.0084
503.00,0.0082
502.00,0.0080
501.00,0.0081
500.00,0.0083
499.00,0.0082
498.00,0.0078
497.00,0.0074
496.00,0.0073
495.00,0.0075
494.00,0.0076
493.00,0.0076
492.00,0.0074
491.00,0.0074
490.00,0.0075
489.00,0.0077
488.00,0.0077
487.00,0.0076
486.00,0.0076
485.00,0.0080
484.00,0.0085
483.00,0.0092
482.00,0.0099
481.00,0.0104
480.00,0.0104
479.00,0.0097
478.00,0.0089
477.00,0.0086
476.00,0.0090
475.00,0.0099
474.00,0.0107
473.00,0.0111
472.00,0.0110
471.00,0.0108
470.00,0.0106
469.00,0.0103
468.00,0.0102
467.00,0.0104
466.00,0.0112
465.00,0.0121
464.00,0.0127
463.00,0.0130
462.00,0.0134
461.00,0.0142
460.00,0.0151
459.00,0.0155
458.00,0.0150
457.00,0.0139
456.00,0.0130
455.00,0.0125
454.00,0.0120
453.00,0.0118
452.00,0.0121
451.00,0.0128
450.00,0.0131
