Created as New Dataset,Sample 143 By Administrator Date Wednesday, September 10 2025
cm-1,A
4000.00,0.0007
3999.00,0.0007
3998.00,0.0007
3997.00,0.0007
3996.00,0.0007
3995.00,0.0007
3994.00,0.0007
3993.00,0.0007
3992.00,0.0007
3991.00,0.0007
3990.00,0.0007
3989.00,0.0006
3988.00,0.0006
3987.00,0.0006
3986.00,0.0006
3985.00,0.0006
3984.00,0.0006
3983.00,0.0006
3982.00,0.0006
3981.00,0.0006
3980.00,0.0006
3979.00,0.0006
3978.00,0.0006
3977.00,0.0006
3976.00,0.0006
3975.00,0.0006
3974.00,0.0006
3973.00,0.0006
3972.00,0.0005
3971.00,0.0005
3970.00,0.0005
3969.00,0.0005
3968.00,0.0006
3967.00,0.0006
3966.00,0.0005
3965.00,0.0005
3964.00,0.0005
3963.00,0.0005
3962.00,0.0005
3961.00,0.0005
3960.00,0.0005
3959.00,0.0005
3958.00,0.0005
3957.00,0.0005
3956.00,0.0005
3955.00,0.0005
3954.00,0.0005
3953.00,0.0005
3952.00,0.0005
3951.00,0.0005
3950.00,0.0005
3949.00,0.0005
3948.00,0.0005
3947.00,0.0005
3946.00,0.0005
3945.00,0.0005
3944.00,0.0005
3943.00,0.0006
3942.00,0.0006
3941.00,0.0006
3940.00,0.0006
3939.00,0.0006
3938.00,0.0005
3937.00,0.0005
3936.00,0.0005
3935.00,0.0006
3934.00,0.0006
3933.00,0.0006
3932.00,0.0006
3931.00,0.0006
3930.00,0.0006
3929.00,0.0006
3928.00,0.0005
3927.00,0.0005
3926.00,0.0005
3925.00,0.0005
3924.00,0.0005
3923.00,0.0004
3922.00,0.0004
3921.00,0.0004
3920.00,0.0004
3919.00,0.0004
3918.00,0.0005
3917.00,0.0005
3916.00,0.0005
3915.00,0.0004
3914.00,0.0004
3913.00,0.0005
3912.00,0.0005
3911.00,0.0005
3910.00,0.0006
3909.00,0.0006
3908.00,0.0006
3907.00,0.0006
3906.00,0.0005
3905.00,0.0004
3904.00,0.0004
3903.00,0.0004
3902.00,0.0004
3901.00,0.0004
3900.00,0.0004
3899.00,0.0004
3898.00,0.0004
3897.00,0.0005
3896.00,0.0005
3895.00,0.0005
3894.00,0.0006
3893.00,0.0006
3892.00,0.0006
3891.00,0.0006
3890.00,0.0006
3889.00,0.0006
3888.00,0.0005
3887.00,0.0005
3886.00,0.0005
3885.00,0.0004
3884.00,0.0004
3883.00,0.0004
3882.00,0.0004
3881.00,0.0005
3880.00,0.0005
3879.00,0.0005
3878.00,0.0005
3877.00,0.0005
3876.00,0.0005
3875.00,0.0006
3874.00,0.0006
3873.00,0.0006
3872.00,0.0005
3871.00,0.0005
3870.00,0.0005
3869.00,0.0005
3868.00,0.0005
3867.00,0.0005
3866.00,0.0004
3865.00,0.0004
3864.00,0.0004
3863.00,0.0004
3862.00,0.0004
3861.00,0.0004
3860.00,0.0004
3859.00,0.0005
3858.00,0.0005
3857.00,0.0005
3856.00,0.0005
3855.00,0.0005
3854.00,0.0005
3853.00,0.0004
3852.00,0.0003
3851.00,0.0003
3850.00,0.0003
3849.00,0.0003
3848.00,0.0003
3847.00,0.0004
3846.00,0.0004
3845.00,0.0004
3844.00,0.0005
3843.00,0.0005
3842.00,0.0005
3841.00,0.0005
3840.00,0.0004
3839.00,0.0004
3838.00,0.0004
3837.00,0.0004
3836.00,0.0004
3835.00,0.0004
3834.00,0.0004
3833.00,0.0004
3832.00,0.0004
3831.00,0.0004
3830.00,0.0004
3829.00,0.0004
3828.00,0.0005
3827.00,0.0005
3826.00,0.0006
3825.00,0.0006
3824.00,0.0005
3823.00,0.0005
3822.00,0.0005
3821.00,0.0006
3820.00,0.0005
3819.00,0.0005
3818.00,0.0004
3817.00,0.0004
3816.00,0.0004
3815.00,0.0004
3814.00,0.0004
3813.00,0.0004
3812.00,0.0004
3811.00,0.0005
3810.00,0.0005
3809.00,0.0005
3808.00,0.0005
3807.00,0.0005
3806.00,0.0005
3805.00,0.0005
3804.00,0.0005
3803.00,0.0005
3802.00,0.0005
3801.00,0.0005
3800.00,0.0005
3799.00,0.0004
3798.00,0.0004
3797.00,0.0004
3796.00,0.0004
3795.00,0.0004
3794.00,0.0004
3793.00,0.0004
3792.00,0.0005
3791.00,0.0005
3790.00,0.0005
3789.00,0.0005
3788.00,0.0005
3787.00,0.0005
3786.00,0.0005
3785.00,0.0005
3784.00,0.0005
3783.00,0.0006
3782.00,0.0005
3781.00,0.0005
3780.00,0.0005
3779.00,0.0005
3778.00,0.0005
3777.00,0.0005
3776.00,0.0005
3775.00,0.0005
3774.00,0.0006
3773.00,0.0006
3772.00,0.0006
3771.00,0.0007
3770.00,0.0007
3769.00,0.0007
3768.00,0.0007
3767.00,0.0007
3766.00,0.0007
3765.00,0.0007
3764.00,0.0007
3763.00,0.0007
3762.00,0.0007
3761.00,0.0007
3760.00,0.0006
3759.00,0.0005
3758.00,0.0005
3757.00,0.0005
3756.00,0.0004
3755.00,0.0004
3754.00,0.0004
3753.00,0.0005
3752.00,0.0005
3751.00,0.0005
3750.00,0.0005
3749.00,0.0005
3748.00,0.0005
3747.00,0.0005
3746.00,0.0005
3745.00,0.0005
3744.00,0.0005
3743.00,0.0005
3742.00,0.0004
3741.00,0.0004
3740.00,0.0004
3739.00,0.0004
3738.00,0.0004
3737.00,0.0003
3736.00,0.0003
3735.00,0.0003
3734.00,0.0003
3733.00,0.0003
3732.00,0.0003
3731.00,0.0003
3730.00,0.0003
3729.00,0.0003
3728.00,0.0003
3727.00,0.0003
3726.00,0.0003
3725.00,0.0003
3724.00,0.0003
3723.00,0.0003
3722.00,0.0003
3721.00,0.0004
3720.00,0.0004
3719.00,0.0004
3718.00,0.0004
3717.00,0.0004
3716.00,0.0004
3715.00,0.0004
3714.00,0.0003
3713.00,0.0003
3712.00,0.0003
3711.00,0.0003
3710.00,0.0003
3709.00,0.0003
3708.00,0.0003
3707.00,0.0003
3706.00,0.0003
3705.00,0.0003
3704.00,0.0003
3703.00,0.0003
3702.00,0.0003
3701.00,0.0003
3700.00,0.0003
3699.00,0.0003
3698.00,0.0002
3697.00,0.0002
3696.00,0.0003
3695.00,0.0003
3694.00,0.0003
3693.00,0.0003
3692.00,0.0003
3691.00,0.0002
3690.00,0.0002
3689.00,0.0003
3688.00,0.0003
3687.00,0.0003
3686.00,0.0003
3685.00,0.0003
3684.00,0.0003
3683.00,0.0002
3682.00,0.0002
3681.00,0.0002
3680.00,0.0002
3679.00,0.0003
3678.00,0.0003
3677.00,0.0003
3676.00,0.0004
3675.00,0.0004
3674.00,0.0004
3673.00,0.0003
3672.00,0.0003
3671.00,0.0003
3670.00,0.0003
3669.00,0.0003
3668.00,0.0003
3667.00,0.0003
3666.00,0.0003
3665.00,0.0004
3664.00,0.0004
3663.00,0.0004
3662.00,0.0004
3661.00,0.0003
3660.00,0.0003
3659.00,0.0002
3658.00,0.0002
3657.00,0.0002
3656.00,0.0002
3655.00,0.0002
3654.00,0.0002
3653.00,0.0002
3652.00,0.0002
3651.00,0.0001
3650.00,0.0001
3649.00,0.0001
3648.00,0.0001
3647.00,0.0002
3646.00,0.0002
3645.00,0.0002
3644.00,0.0002
3643.00,0.0002
3642.00,0.0002
3641.00,0.0001
3640.00,0.0001
3639.00,0.0002
3638.00,0.0002
3637.00,0.0002
3636.00,0.0003
3635.00,0.0003
3634.00,0.0003
3633.00,0.0002
3632.00,0.0002
3631.00,0.0002
3630.00,0.0002
3629.00,0.0002
3628.00,0.0002
3627.00,0.0002
3626.00,0.0001
3625.00,0.0001
3624.00,0.0002
3623.00,0.0002
3622.00,0.0002
3621.00,0.0002
3620.00,0.0003
3619.00,0.0003
3618.00,0.0003
3617.00,0.0003
3616.00,0.0002
3615.00,0.0002
3614.00,0.0002
3613.00,0.0002
3612.00,0.0001
3611.00,0.0001
3610.00,0.0000
3609.00,-0.0000
3608.00,-0.0000
3607.00,0.0000
3606.00,0.0001
3605.00,0.0002
3604.00,0.0002
3603.00,0.0002
3602.00,0.0002
3601.00,0.0001
3600.00,0.0001
3599.00,0.0001
3598.00,0.0002
3597.00,0.0002
3596.00,0.0003
3595.00,0.0003
3594.00,0.0002
3593.00,0.0002
3592.00,0.0002
3591.00,0.0002
3590.00,0.0003
3589.00,0.0003
3588.00,0.0003
3587.00,0.0003
3586.00,0.0003
3585.00,0.0003
3584.00,0.0004
3583.00,0.0004
3582.00,0.0004
3581.00,0.0004
3580.00,0.0004
3579.00,0.0004
3578.00,0.0003
3577.00,0.0003
3576.00,0.0003
3575.00,0.0003
3574.00,0.0004
3573.00,0.0004
3572.00,0.0004
3571.00,0.0004
3570.00,0.0004
3569.00,0.0004
3568.00,0.0005
3567.00,0.0005
3566.00,0.0004
3565.00,0.0004
3564.00,0.0004
3563.00,0.0004
3562.00,0.0004
3561.00,0.0004
3560.00,0.0005
3559.00,0.0005
3558.00,0.0006
3557.00,0.0007
3556.00,0.0007
3555.00,0.0007
3554.00,0.0007
3553.00,0.0007
3552.00,0.0006
3551.00,0.0006
3550.00,0.0006
3549.00,0.0007
3548.00,0.0007
3547.00,0.0007
3546.00,0.0007
3545.00,0.0007
3544.00,0.0007
3543.00,0.0008
3542.00,0.0008
3541.00,0.0008
3540.00,0.0008
3539.00,0.0008
3538.00,0.0008
3537.00,0.0008
3536.00,0.0008
3535.00,0.0008
3534.00,0.0009
3533.00,0.0009
3532.00,0.0009
3531.00,0.0009
3530.00,0.0009
3529.00,0.0009
3528.00,0.0009
3527.00,0.0009
3526.00,0.0009
3525.00,0.0009
3524.00,0.0009
3523.00,0.0009
3522.00,0.0009
3521.00,0.0009
3520.00,0.0010
3519.00,0.0010
3518.00,0.0011
3517.00,0.0011
3516.00,0.0011
3515.00,0.0011
3514.00,0.0010
3513.00,0.0010
3512.00,0.0010
3511.00,0.0010
3510.00,0.0010
3509.00,0.0010
3508.00,0.0010
3507.00,0.0011
3506.00,0.0011
3505.00,0.0011
3504.00,0.0011
3503.00,0.0011
3502.00,0.0011
3501.00,0.0011
3500.00,0.0011
3499.00,0.0011
3498.00,0.0011
3497.00,0.0011
3496.00,0.0011
3495.00,0.0012
3494.00,0.0012
3493.00,0.0012
3492.00,0.0012
3491.00,0.0012
3490.00,0.0013
3489.00,0.0013
3488.00,0.0013
3487.00,0.0013
3486.00,0.0013
3485.00,0.0013
3484.00,0.0013
3483.00,0.0013
3482.00,0.0013
3481.00,0.0014
3480.00,0.0014
3479.00,0.0014
3478.00,0.0014
3477.00,0.0014
3476.00,0.0014
3475.00,0.0014
3474.00,0.0015
3473.00,0.0015
3472.00,0.0015
3471.00,0.0015
3470.00,0.0015
3469.00,0.0015
3468.00,0.0015
3467.00,0.0015
3466.00,0.0015
3465.00,0.0016
3464.00,0.0016
3463.00,0.0016
3462.00,0.0016
3461.00,0.0016
3460.00,0.0016
3459.00,0.0016
3458.00,0.0016
3457.00,0.0016
3456.00,0.0016
3455.00,0.0016
3454.00,0.0016
3453.00,0.0015
3452.00,0.0016
3451.00,0.0016
3450.00,0.0017
3449.00,0.0017
3448.00,0.0018
3447.00,0.0018
3446.00,0.0018
3445.00,0.0018
3444.00,0.0018
3443.00,0.0018
3442.00,0.0018
3441.00,0.0018
3440.00,0.0018
3439.00,0.0018
3438.00,0.0018
3437.00,0.0018
3436.00,0.0019
3435.00,0.0019
3434.00,0.0019
3433.00,0.0019
3432.00,0.0019
3431.00,0.0019
3430.00,0.0019
3429.00,0.0019
3428.00,0.0019
3427.00,0.0019
3426.00,0.0020
3425.00,0.0020
3424.00,0.0020
3423.00,0.0020
3422.00,0.0020
3421.00,0.0020
3420.00,0.0020
3419.00,0.0020
3418.00,0.0020
3417.00,0.0020
3416.00,0.0020
3415.00,0.0020
3414.00,0.0020
3413.00,0.0020
3412.00,0.0020
3411.00,0.0020
3410.00,0.0020
3409.00,0.0020
3408.00,0.0020
3407.00,0.0021
3406.00,0.0021
3405.00,0.0021
3404.00,0.0021
3403.00,0.0021
3402.00,0.0020
3401.00,0.0021
3400.00,0.0021
3399.00,0.0021
3398.00,0.0021
3397.00,0.0022
3396.00,0.0022
3395.00,0.0022
3394.00,0.0022
3393.00,0.0022
3392.00,0.0022
3391.00,0.0022
3390.00,0.0021
3389.00,0.0021
3388.00,0.0021
3387.00,0.0020
3386.00,0.0020
3385.00,0.0020
3384.00,0.0020
3383.00,0.0020
3382.00,0.0020
3381.00,0.0020
3380.00,0.0020
3379.00,0.0021
3378.00,0.0021
3377.00,0.0021
3376.00,0.0021
3375.00,0.0021
3374.00,0.0021
3373.00,0.0020
3372.00,0.0020
3371.00,0.0020
3370.00,0.0020
3369.00,0.0020
3368.00,0.0020
3367.00,0.0021
3366.00,0.0021
3365.00,0.0021
3364.00,0.0021
3363.00,0.0021
3362.00,0.0021
3361.00,0.0021
3360.00,0.0022
3359.00,0.0022
3358.00,0.0022
3357.00,0.0022
3356.00,0.0022
3355.00,0.0022
3354.00,0.0022
3353.00,0.0022
3352.00,0.0022
3351.00,0.0022
3350.00,0.0022
3349.00,0.0021
3348.00,0.0021
3347.00,0.0021
3346.00,0.0022
3345.00,0.0022
3344.00,0.0022
3343.00,0.0022
3342.00,0.0022
3341.00,0.0021
3340.00,0.0021
3339.00,0.0020
3338.00,0.0020
3337.00,0.0020
3336.00,0.0020
3335.00,0.0019
3334.00,0.0020
3333.00,0.0020
3332.00,0.0020
3331.00,0.0021
3330.00,0.0021
3329.00,0.0021
3328.00,0.0020
3327.00,0.0020
3326.00,0.0020
3325.00,0.0020
3324.00,0.0019
3323.00,0.0019
3322.00,0.0019
3321.00,0.0019
3320.00,0.0019
3319.00,0.0018
3318.00,0.0018
3317.00,0.0019
3316.00,0.0019
3315.00,0.0019
3314.00,0.0019
3313.00,0.0019
3312.00,0.0019
3311.00,0.0019
3310.00,0.0019
3309.00,0.0019
3308.00,0.0019
3307.00,0.0019
3306.00,0.0019
3305.00,0.0019
3304.00,0.0020
3303.00,0.0020
3302.00,0.0020
3301.00,0.0021
3300.00,0.0021
3299.00,0.0021
3298.00,0.0021
3297.00,0.0021
3296.00,0.0020
3295.00,0.0020
3294.00,0.0020
3293.00,0.0020
3292.00,0.0020
3291.00,0.0020
3290.00,0.0020
3289.00,0.0020
3288.00,0.0020
3287.00,0.0020
3286.00,0.0019
3285.00,0.0019
3284.00,0.0019
3283.00,0.0019
3282.00,0.0019
3281.00,0.0019
3280.00,0.0019
3279.00,0.0019
3278.00,0.0019
3277.00,0.0020
3276.00,0.0020
3275.00,0.0020
3274.00,0.0020
3273.00,0.0019
3272.00,0.0019
3271.00,0.0018
3270.00,0.0018
3269.00,0.0018
3268.00,0.0019
3267.00,0.0019
3266.00,0.0018
3265.00,0.0018
3264.00,0.0018
3263.00,0.0018
3262.00,0.0018
3261.00,0.0018
3260.00,0.0018
3259.00,0.0018
3258.00,0.0019
3257.00,0.0019
3256.00,0.0019
3255.00,0.0019
3254.00,0.0019
3253.00,0.0019
3252.00,0.0018
3251.00,0.0018
3250.00,0.0018
3249.00,0.0018
3248.00,0.0018
3247.00,0.0018
3246.00,0.0018
3245.00,0.0018
3244.00,0.0018
3243.00,0.0018
3242.00,0.0018
3241.00,0.0018
3240.00,0.0018
3239.00,0.0018
3238.00,0.0018
3237.00,0.0018
3236.00,0.0019
3235.00,0.0019
3234.00,0.0020
3233.00,0.0020
3232.00,0.0020
3231.00,0.0020
3230.00,0.0020
3229.00,0.0020
3228.00,0.0020
3227.00,0.0021
3226.00,0.0021
3225.00,0.0021
3224.00,0.0021
3223.00,0.0021
3222.00,0.0021
3221.00,0.0021
3220.00,0.0021
3219.00,0.0021
3218.00,0.0022
3217.00,0.0023
3216.00,0.0024
3215.00,0.0024
3214.00,0.0025
3213.00,0.0025
3212.00,0.0024
3211.00,0.0024
3210.00,0.0024
3209.00,0.0024
3208.00,0.0024
3207.00,0.0025
3206.00,0.0025
3205.00,0.0026
3204.00,0.0026
3203.00,0.0026
3202.00,0.0026
3201.00,0.0025
3200.00,0.0025
3199.00,0.0025
3198.00,0.0025
3197.00,0.0025
3196.00,0.0025
3195.00,0.0026
3194.00,0.0026
3193.00,0.0026
3192.00,0.0026
3191.00,0.0026
3190.00,0.0026
3189.00,0.0025
3188.00,0.0025
3187.00,0.0025
3186.00,0.0025
3185.00,0.0025
3184.00,0.0025
3183.00,0.0025
3182.00,0.0024
3181.00,0.0024
3180.00,0.0024
3179.00,0.0024
3178.00,0.0024
3177.00,0.0024
3176.00,0.0023
3175.00,0.0023
3174.00,0.0023
3173.00,0.0023
3172.00,0.0023
3171.00,0.0022
3170.00,0.0022
3169.00,0.0022
3168.00,0.0023
3167.00,0.0023
3166.00,0.0023
3165.00,0.0023
3164.00,0.0023
3163.00,0.0023
3162.00,0.0022
3161.00,0.0022
3160.00,0.0022
3159.00,0.0022
3158.00,0.0022
3157.00,0.0022
3156.00,0.0022
3155.00,0.0022
3154.00,0.0022
3153.00,0.0022
3152.00,0.0022
3151.00,0.0022
3150.00,0.0022
3149.00,0.0022
3148.00,0.0022
3147.00,0.0022
3146.00,0.0022
3145.00,0.0022
3144.00,0.0022
3143.00,0.0023
3142.00,0.0023
3141.00,0.0023
3140.00,0.0022
3139.00,0.0022
3138.00,0.0021
3137.00,0.0021
3136.00,0.0021
3135.00,0.0021
3134.00,0.0021
3133.00,0.0021
3132.00,0.0021
3131.00,0.0021
3130.00,0.0021
3129.00,0.0021
3128.00,0.0021
3127.00,0.0021
3126.00,0.0020
3125.00,0.0020
3124.00,0.0020
3123.00,0.0020
3122.00,0.0019
3121.00,0.0019
3120.00,0.0019
3119.00,0.0019
3118.00,0.0018
3117.00,0.0018
3116.00,0.0018
3115.00,0.0018
3114.00,0.0018
3113.00,0.0018
3112.00,0.0018
3111.00,0.0018
3110.00,0.0018
3109.00,0.0018
3108.00,0.0018
3107.00,0.0018
3106.00,0.0018
3105.00,0.0018
3104.00,0.0018
3103.00,0.0018
3102.00,0.0018
3101.00,0.0018
3100.00,0.0018
3099.00,0.0018
3098.00,0.0018
3097.00,0.0018
3096.00,0.0018
3095.00,0.0018
3094.00,0.0018
3093.00,0.0018
3092.00,0.0018
3091.00,0.0018
3090.00,0.0018
3089.00,0.0018
3088.00,0.0018
3087.00,0.0018
3086.00,0.0018
3085.00,0.0017
3084.00,0.0018
3083.00,0.0018
3082.00,0.0019
3081.00,0.0019
3080.00,0.0019
3079.00,0.0019
3078.00,0.0019
3077.00,0.0018
3076.00,0.0018
3075.00,0.0017
3074.00,0.0017
3073.00,0.0017
3072.00,0.0018
3071.00,0.0018
3070.00,0.0018
3069.00,0.0019
3068.00,0.0019
3067.00,0.0019
3066.00,0.0019
3065.00,0.0019
3064.00,0.0020
3063.00,0.0020
3062.00,0.0020
3061.00,0.0020
3060.00,0.0020
3059.00,0.0021
3058.00,0.0021
3057.00,0.0021
3056.00,0.0021
3055.00,0.0022
3054.00,0.0022
3053.00,0.0022
3052.00,0.0022
3051.00,0.0022
3050.00,0.0022
3049.00,0.0023
3048.00,0.0023
3047.00,0.0023
3046.00,0.0023
3045.00,0.0023
3044.00,0.0024
3043.00,0.0024
3042.00,0.0024
3041.00,0.0025
3040.00,0.0025
3039.00,0.0025
3038.00,0.0026
3037.00,0.0026
3036.00,0.0026
3035.00,0.0027
3034.00,0.0027
3033.00,0.0027
3032.00,0.0027
3031.00,0.0027
3030.00,0.0028
3029.00,0.0028
3028.00,0.0029
3027.00,0.0030
3026.00,0.0031
3025.00,0.0031
3024.00,0.0032
3023.00,0.0033
3022.00,0.0033
3021.00,0.0034
3020.00,0.0035
3019.00,0.0036
3018.00,0.0037
3017.00,0.0038
3016.00,0.0039
3015.00,0.0041
3014.00,0.0042
3013.00,0.0043
3012.00,0.0044
3011.00,0.0046
3010.00,0.0047
3009.00,0.0049
3008.00,0.0051
3007.00,0.0053
3006.00,0.0055
3005.00,0.0057
3004.00,0.0059
3003.00,0.0062
3002.00,0.0064
3001.00,0.0067
3000.00,0.0070
2999.00,0.0073
2998.00,0.0076
2997.00,0.0080
2996.00,0.0084
2995.00,0.0088
2994.00,0.0093
2993.00,0.0098
2992.00,0.0104
2991.00,0.0110
2990.00,0.0117
2989.00,0.0124
2988.00,0.0133
2987.00,0.0142
2986.00,0.0153
2985.00,0.0165
2984.00,0.0178
2983.00,0.0192
2982.00,0.0209
2981.00,0.0227
2980.00,0.0247
2979.00,0.0269
2978.00,0.0294
2977.00,0.0323
2976.00,0.0357
2975.00,0.0395
2974.00,0.0439
2973.00,0.0489
2972.00,0.0545
2971.00,0.0607
2970.00,0.0676
2969.00,0.0751
2968.00,0.0832
2967.00,0.0918
2966.00,0.1008
2965.00,0.1098
2964.00,0.1185
2963.00,0.1266
2962.00,0.1337
2961.00,0.1396
2960.00,0.1445
2959.00,0.1487
2958.00,0.1529
2957.00,0.1576
2956.00,0.1635
2955.00,0.1707
2954.00,0.1790
2953.00,0.1879
2952.00,0.1965
2951.00,0.2034
2950.00,0.2073
2949.00,0.2071
2948.00,0.2021
2947.00,0.1927
2946.00,0.1797
2945.00,0.1649
2944.00,0.1500
2943.00,0.1365
2942.00,0.1254
2941.00,0.1172
2940.00,0.1118
2939.00,0.1092
2938.00,0.1089
2937.00,0.1107
2936.00,0.1145
2935.00,0.1200
2934.00,0.1272
2933.00,0.1358
2932.00,0.1456
2931.00,0.1564
2930.00,0.1680
2929.00,0.1799
2928.00,0.1918
2927.00,0.2034
2926.00,0.2146
2925.00,0.2253
2924.00,0.2356
2923.00,0.2460
2922.00,0.2562
2921.00,0.2662
2920.00,0.2752
2919.00,0.2823
2918.00,0.2865
2917.00,0.2869
2916.00,0.2833
2915.00,0.2761
2914.00,0.2663
2913.00,0.2551
2912.00,0.2436
2911.00,0.2326
2910.00,0.2223
2909.00,0.2130
2908.00,0.2042
2907.00,0.1959
2906.00,0.1878
2905.00,0.1798
2904.00,0.1718
2903.00,0.1639
2902.00,0.1562
2901.00,0.1488
2900.00,0.1418
2899.00,0.1352
2898.00,0.1291
2897.00,0.1236
2896.00,0.1187
2895.00,0.1146
2894.00,0.1114
2893.00,0.1089
2892.00,0.1072
2891.00,0.1062
2890.00,0.1058
2889.00,0.1059
2888.00,0.1065
2887.00,0.1075
2886.00,0.1088
2885.00,0.1106
2884.00,0.1129
2883.00,0.1157
2882.00,0.1190
2881.00,0.1225
2880.00,0.1261
2879.00,0.1291
2878.00,0.1312
2877.00,0.1321
2876.00,0.1318
2875.00,0.1309
2874.00,0.1299
2873.00,0.1294
2872.00,0.1297
2871.00,0.1311
2870.00,0.1333
2869.00,0.1356
2868.00,0.1372
2867.00,0.1371
2866.00,0.1344
2865.00,0.1286
2864.00,0.1199
2863.00,0.1095
2862.00,0.0984
2861.00,0.0878
2860.00,0.0786
2859.00,0.0710
2858.00,0.0651
2857.00,0.0608
2856.00,0.0578
2855.00,0.0558
2854.00,0.0548
2853.00,0.0546
2852.00,0.0552
2851.00,0.0566
2850.00,0.0588
2849.00,0.0619
2848.00,0.0660
2847.00,0.0710
2846.00,0.0769
2845.00,0.0838
2844.00,0.0914
2843.00,0.0996
2842.00,0.1079
2841.00,0.1158
2840.00,0.1224
2839.00,0.1268
2838.00,0.1281
2837.00,0.1257
2836.00,0.1196
2835.00,0.1104
2834.00,0.0992
2833.00,0.0875
2832.00,0.0762
2831.00,0.0661
2830.00,0.0576
2829.00,0.0506
2828.00,0.0450
2827.00,0.0405
2826.00,0.0368
2825.00,0.0338
2824.00,0.0313
2823.00,0.0293
2822.00,0.0275
2821.00,0.0260
2820.00,0.0247
2819.00,0.0235
2818.00,0.0225
2817.00,0.0217
2816.00,0.0209
2815.00,0.0202
2814.00,0.0196
2813.00,0.0190
2812.00,0.0184
2811.00,0.0179
2810.00,0.0173
2809.00,0.0167
2808.00,0.0161
2807.00,0.0154
2806.00,0.0147
2805.00,0.0141
2804.00,0.0134
2803.00,0.0128
2802.00,0.0122
2801.00,0.0117
2800.00,0.0113
2799.00,0.0110
2798.00,0.0107
2797.00,0.0104
2796.00,0.0102
2795.00,0.0099
2794.00,0.0097
2793.00,0.0094
2792.00,0.0091
2791.00,0.0087
2790.00,0.0084
2789.00,0.0081
2788.00,0.0078
2787.00,0.0076
2786.00,0.0073
2785.00,0.0071
2784.00,0.0068
2783.00,0.0066
2782.00,0.0064
2781.00,0.0062
2780.00,0.0061
2779.00,0.0060
2778.00,0.0059
2777.00,0.0057
2776.00,0.0056
2775.00,0.0055
2774.00,0.0054
2773.00,0.0053
2772.00,0.0052
2771.00,0.0052
2770.00,0.0051
2769.00,0.0051
2768.00,0.0052
2767.00,0.0051
2766.00,0.0051
2765.00,0.0051
2764.00,0.0050
2763.00,0.0050
2762.00,0.0050
2761.00,0.0049
2760.00,0.0049
2759.00,0.0049
2758.00,0.0048
2757.00,0.0048
2756.00,0.0048
2755.00,0.0048
2754.00,0.0048
2753.00,0.0047
2752.00,0.0047
2751.00,0.0047
2750.00,0.0047
2749.00,0.0047
2748.00,0.0048
2747.00,0.0048
2746.00,0.0049
2745.00,0.0049
2744.00,0.0050
2743.00,0.0050
2742.00,0.0051
2741.00,0.0052
2740.00,0.0054
2739.00,0.0056
2738.00,0.0058
2737.00,0.0059
2736.00,0.0061
2735.00,0.0062
2734.00,0.0064
2733.00,0.0066
2732.00,0.0068
2731.00,0.0070
2730.00,0.0073
2729.00,0.0076
2728.00,0.0079
2727.00,0.0082
2726.00,0.0085
2725.00,0.0088
2724.00,0.0090
2723.00,0.0091
2722.00,0.0090
2721.00,0.0087
2720.00,0.0084
2719.00,0.0080
2718.00,0.0077
2717.00,0.0073
2716.00,0.0069
2715.00,0.0066
2714.00,0.0064
2713.00,0.0061
2712.00,0.0059
2711.00,0.0057
2710.00,0.0055
2709.00,0.0054
2708.00,0.0052
2707.00,0.0051
2706.00,0.0049
2705.00,0.0047
2704.00,0.0046
2703.00,0.0045
2702.00,0.0044
2701.00,0.0043
2700.00,0.0042
2699.00,0.0042
2698.00,0.0041
2697.00,0.0041
2696.00,0.0041
2695.00,0.0041
2694.00,0.0041
2693.00,0.0041
2692.00,0.0041
2691.00,0.0041
2690.00,0.0041
2689.00,0.0041
2688.00,0.0041
2687.00,0.0041
2686.00,0.0040
2685.00,0.0040
2684.00,0.0041
2683.00,0.0041
2682.00,0.0041
2681.00,0.0042
2680.00,0.0042
2679.00,0.0043
2678.00,0.0043
2677.00,0.0043
2676.00,0.0042
2675.00,0.0042
2674.00,0.0042
2673.00,0.0042
2672.00,0.0042
2671.00,0.0041
2670.00,0.0041
2669.00,0.0041
2668.00,0.0041
2667.00,0.0042
2666.00,0.0042
2665.00,0.0043
2664.00,0.0044
2663.00,0.0045
2662.00,0.0045
2661.00,0.0045
2660.00,0.0045
2659.00,0.0045
2658.00,0.0045
2657.00,0.0045
2656.00,0.0044
2655.00,0.0044
2654.00,0.0043
2653.00,0.0042
2652.00,0.0042
2651.00,0.0041
2650.00,0.0041
2649.00,0.0040
2648.00,0.0040
2647.00,0.0039
2646.00,0.0039
2645.00,0.0038
2644.00,0.0038
2643.00,0.0038
2642.00,0.0037
2641.00,0.0037
2640.00,0.0036
2639.00,0.0036
2638.00,0.0036
2637.00,0.0036
2636.00,0.0036
2635.00,0.0036
2634.00,0.0036
2633.00,0.0036
2632.00,0.0036
2631.00,0.0037
2630.00,0.0037
2629.00,0.0037
2628.00,0.0037
2627.00,0.0037
2626.00,0.0037
2625.00,0.0038
2624.00,0.0038
2623.00,0.0038
2622.00,0.0037
2621.00,0.0037
2620.00,0.0037
2619.00,0.0037
2618.00,0.0037
2617.00,0.0037
2616.00,0.0037
2615.00,0.0037
2614.00,0.0037
2613.00,0.0037
2612.00,0.0036
2611.00,0.0036
2610.00,0.0035
2609.00,0.0035
2608.00,0.0034
2607.00,0.0033
2606.00,0.0032
2605.00,0.0032
2604.00,0.0031
2603.00,0.0031
2602.00,0.0030
2601.00,0.0030
2600.00,0.0029
2599.00,0.0029
2598.00,0.0029
2597.00,0.0029
2596.00,0.0030
2595.00,0.0030
2594.00,0.0031
2593.00,0.0032
2592.00,0.0032
2591.00,0.0033
2590.00,0.0033
2589.00,0.0034
2588.00,0.0035
2587.00,0.0036
2586.00,0.0037
2585.00,0.0039
2584.00,0.0040
2583.00,0.0041
2582.00,0.0040
2581.00,0.0039
2580.00,0.0038
2579.00,0.0037
2578.00,0.0036
2577.00,0.0035
2576.00,0.0035
2575.00,0.0035
2574.00,0.0034
2573.00,0.0032
2572.00,0.0030
2571.00,0.0029
2570.00,0.0028
2569.00,0.0027
2568.00,0.0027
2567.00,0.0027
2566.00,0.0026
2565.00,0.0025
2564.00,0.0024
2563.00,0.0023
2562.00,0.0022
2561.00,0.0021
2560.00,0.0021
2559.00,0.0020
2558.00,0.0020
2557.00,0.0020
2556.00,0.0020
2555.00,0.0020
2554.00,0.0020
2553.00,0.0020
2552.00,0.0020
2551.00,0.0020
2550.00,0.0020
2549.00,0.0019
2548.00,0.0018
2547.00,0.0018
2546.00,0.0017
2545.00,0.0016
2544.00,0.0016
2543.00,0.0016
2542.00,0.0016
2541.00,0.0016
2540.00,0.0016
2539.00,0.0015
2538.00,0.0014
2537.00,0.0014
2536.00,0.0013
2535.00,0.0013
2534.00,0.0013
2533.00,0.0013
2532.00,0.0013
2531.00,0.0014
2530.00,0.0013
2529.00,0.0013
2528.00,0.0013
2527.00,0.0012
2526.00,0.0012
2525.00,0.0012
2524.00,0.0012
2523.00,0.0011
2522.00,0.0011
2521.00,0.0011
2520.00,0.0011
2519.00,0.0011
2518.00,0.0011
2517.00,0.0011
2516.00,0.0010
2515.00,0.0009
2514.00,0.0008
2513.00,0.0008
2512.00,0.0007
2511.00,0.0007
2510.00,0.0007
2509.00,0.0008
2508.00,0.0008
2507.00,0.0008
2506.00,0.0008
2505.00,0.0008
2504.00,0.0008
2503.00,0.0007
2502.00,0.0007
2501.00,0.0007
2500.00,0.0007
2499.00,0.0007
2498.00,0.0007
2497.00,0.0008
2496.00,0.0008
2495.00,0.0009
2494.00,0.0009
2493.00,0.0009
2492.00,0.0009
2491.00,0.0008
2490.00,0.0008
2489.00,0.0008
2488.00,0.0007
2487.00,0.0007
2486.00,0.0008
2485.00,0.0008
2484.00,0.0008
2483.00,0.0008
2482.00,0.0008
2481.00,0.0008
2480.00,0.0007
2479.00,0.0007
2478.00,0.0007
2477.00,0.0007
2476.00,0.0007
2475.00,0.0007
2474.00,0.0006
2473.00,0.0006
2472.00,0.0006
2471.00,0.0006
2470.00,0.0006
2469.00,0.0006
2468.00,0.0006
2467.00,0.0007
2466.00,0.0007
2465.00,0.0007
2464.00,0.0007
2463.00,0.0008
2462.00,0.0008
2461.00,0.0008
2460.00,0.0008
2459.00,0.0008
2458.00,0.0008
2457.00,0.0009
2456.00,0.0010
2455.00,0.0010
2454.00,0.0010
2453.00,0.0010
2452.00,0.0010
2451.00,0.0010
2450.00,0.0010
2449.00,0.0010
2448.00,0.0009
2447.00,0.0009
2446.00,0.0009
2445.00,0.0009
2444.00,0.0009
2443.00,0.0009
2442.00,0.0009
2441.00,0.0009
2440.00,0.0009
2439.00,0.0009
2438.00,0.0009
2437.00,0.0009
2436.00,0.0008
2435.00,0.0008
2434.00,0.0009
2433.00,0.0009
2432.00,0.0010
2431.00,0.0010
2430.00,0.0011
2429.00,0.0011
2428.00,0.0010
2427.00,0.0010
2426.00,0.0010
2425.00,0.0010
2424.00,0.0009
2423.00,0.0009
2422.00,0.0009
2421.00,0.0009
2420.00,0.0009
2419.00,0.0009
2418.00,0.0008
2417.00,0.0008
2416.00,0.0007
2415.00,0.0007
2414.00,0.0007
2413.00,0.0007
2412.00,0.0008
2411.00,0.0008
2410.00,0.0008
2409.00,0.0008
2408.00,0.0007
2407.00,0.0007
2406.00,0.0007
2405.00,0.0007
2404.00,0.0007
2403.00,0.0007
2402.00,0.0007
2401.00,0.0007
2400.00,0.0007
2399.00,0.0007
2398.00,0.0006
2397.00,0.0006
2396.00,0.0007
2395.00,0.0007
2394.00,0.0006
2393.00,0.0006
2392.00,0.0005
2391.00,0.0005
2390.00,0.0006
2389.00,0.0006
2388.00,0.0007
2387.00,0.0008
2386.00,0.0007
2385.00,0.0007
2384.00,0.0005
2383.00,0.0004
2382.00,0.0003
2381.00,0.0002
2380.00,0.0001
2379.00,0.0001
2378.00,0.0001
2377.00,0.0002
2376.00,0.0002
2375.00,0.0002
2374.00,0.0001
2373.00,0.0001
2372.00,0.0002
2371.00,0.0002
2370.00,0.0002
2369.00,0.0001
2368.00,-0.0001
2367.00,-0.0002
2366.00,-0.0002
2365.00,-0.0001
2364.00,-0.0000
2363.00,0.0000
2362.00,0.0000
2361.00,0.0000
2360.00,0.0000
2359.00,0.0000
2358.00,0.0000
2357.00,0.0001
2356.00,0.0000
2355.00,0.0000
2354.00,-0.0000
2353.00,-0.0000
2352.00,-0.0000
2351.00,0.0000
2350.00,0.0001
2349.00,0.0001
2348.00,0.0002
2347.00,0.0001
2346.00,0.0002
2345.00,0.0002
2344.00,0.0003
2343.00,0.0003
2342.00,0.0003
2341.00,0.0003
2340.00,0.0004
2339.00,0.0004
2338.00,0.0004
2337.00,0.0005
2336.00,0.0005
2335.00,0.0005
2334.00,0.0004
2333.00,0.0004
2332.00,0.0003
2331.00,0.0003
2330.00,0.0003
2329.00,0.0004
2328.00,0.0006
2327.00,0.0009
2326.00,0.0014
2325.00,0.0017
2324.00,0.0019
2323.00,0.0018
2322.00,0.0017
2321.00,0.0014
2320.00,0.0013
2319.00,0.0012
2318.00,0.0012
2317.00,0.0011
2316.00,0.0010
2315.00,0.0009
2314.00,0.0008
2313.00,0.0008
2312.00,0.0007
2311.00,0.0007
2310.00,0.0007
2309.00,0.0007
2308.00,0.0007
2307.00,0.0008
2306.00,0.0008
2305.00,0.0009
2304.00,0.0010
2303.00,0.0010
2302.00,0.0011
2301.00,0.0011
2300.00,0.0010
2299.00,0.0010
2298.00,0.0009
2297.00,0.0010
2296.00,0.0010
2295.00,0.0011
2294.00,0.0012
2293.00,0.0013
2292.00,0.0013
2291.00,0.0013
2290.00,0.0014
2289.00,0.0014
2288.00,0.0014
2287.00,0.0015
2286.00,0.0016
2285.00,0.0017
2284.00,0.0017
2283.00,0.0016
2282.00,0.0015
2281.00,0.0015
2280.00,0.0015
2279.00,0.0015
2278.00,0.0016
2277.00,0.0015
2276.00,0.0014
2275.00,0.0013
2274.00,0.0011
2273.00,0.0010
2272.00,0.0009
2271.00,0.0009
2270.00,0.0009
2269.00,0.0010
2268.00,0.0010
2267.00,0.0010
2266.00,0.0009
2265.00,0.0009
2264.00,0.0010
2263.00,0.0010
2262.00,0.0009
2261.00,0.0009
2260.00,0.0009
2259.00,0.0009
2258.00,0.0009
2257.00,0.0009
2256.00,0.0008
2255.00,0.0007
2254.00,0.0006
2253.00,0.0005
2252.00,0.0005
2251.00,0.0004
2250.00,0.0003
2249.00,0.0003
2248.00,0.0003
2247.00,0.0005
2246.00,0.0006
2245.00,0.0008
2244.00,0.0009
2243.00,0.0008
2242.00,0.0006
2241.00,0.0005
2240.00,0.0004
2239.00,0.0004
2238.00,0.0004
2237.00,0.0005
2236.00,0.0005
2235.00,0.0004
2234.00,0.0004
2233.00,0.0005
2232.00,0.0006
2231.00,0.0007
2230.00,0.0008
2229.00,0.0007
2228.00,0.0006
2227.00,0.0005
2226.00,0.0004
2225.00,0.0005
2224.00,0.0005
2223.00,0.0006
2222.00,0.0007
2221.00,0.0008
2220.00,0.0008
2219.00,0.0007
2218.00,0.0006
2217.00,0.0005
2216.00,0.0004
2215.00,0.0004
2214.00,0.0005
2213.00,0.0006
2212.00,0.0007
2211.00,0.0006
2210.00,0.0006
2209.00,0.0005
2208.00,0.0004
2207.00,0.0004
2206.00,0.0006
2205.00,0.0007
2204.00,0.0008
2203.00,0.0008
2202.00,0.0007
2201.00,0.0007
2200.00,0.0006
2199.00,0.0006
2198.00,0.0006
2197.00,0.0006
2196.00,0.0006
2195.00,0.0005
2194.00,0.0004
2193.00,0.0005
2192.00,0.0006
2191.00,0.0007
2190.00,0.0007
2189.00,0.0006
2188.00,0.0005
2187.00,0.0005
2186.00,0.0006
2185.00,0.0008
2184.00,0.0009
2183.00,0.0008
2182.00,0.0005
2181.00,0.0002
2180.00,0.0000
2179.00,-0.0001
2178.00,-0.0002
2177.00,-0.0004
2176.00,-0.0006
2175.00,-0.0008
2174.00,-0.0010
2173.00,-0.0009
2172.00,-0.0006
2171.00,-0.0001
2170.00,0.0004
2169.00,0.0008
2168.00,0.0011
2167.00,0.0012
2166.00,0.0012
2165.00,0.0012
2164.00,0.0013
2163.00,0.0014
2162.00,0.0014
2161.00,0.0010
2160.00,-0.0001
2159.00,-0.0015
2158.00,-0.0025
2157.00,-0.0029
2156.00,-0.0027
2155.00,-0.0024
2154.00,-0.0023
2153.00,-0.0022
2152.00,-0.0021
2151.00,-0.0020
2150.00,-0.0021
2149.00,-0.0021
2148.00,-0.0020
2147.00,-0.0019
2146.00,-0.0018
2145.00,-0.0018
2144.00,-0.0018
2143.00,-0.0017
2142.00,-0.0017
2141.00,-0.0017
2140.00,-0.0016
2139.00,-0.0015
2138.00,-0.0014
2137.00,-0.0015
2136.00,-0.0016
2135.00,-0.0019
2134.00,-0.0020
2133.00,-0.0019
2132.00,-0.0017
2131.00,-0.0015
2130.00,-0.0014
2129.00,-0.0012
2128.00,-0.0011
2127.00,-0.0011
2126.00,-0.0010
2125.00,-0.0009
2124.00,-0.0008
2123.00,-0.0006
2122.00,-0.0005
2121.00,-0.0004
2120.00,-0.0004
2119.00,-0.0005
2118.00,-0.0006
2117.00,-0.0006
2116.00,-0.0004
2115.00,-0.0002
2114.00,-0.0001
2113.00,-0.0000
2112.00,-0.0000
2111.00,-0.0000
2110.00,0.0001
2109.00,0.0002
2108.00,0.0002
2107.00,0.0002
2106.00,0.0001
2105.00,0.0000
2104.00,0.0000
2103.00,0.0001
2102.00,0.0002
2101.00,0.0002
2100.00,0.0002
2099.00,0.0000
2098.00,-0.0002
2097.00,-0.0004
2096.00,-0.0006
2095.00,-0.0007
2094.00,-0.0007
2093.00,-0.0006
2092.00,-0.0005
2091.00,-0.0003
2090.00,-0.0003
2089.00,-0.0003
2088.00,-0.0004
2087.00,-0.0004
2086.00,-0.0004
2085.00,-0.0003
2084.00,-0.0002
2083.00,-0.0000
2082.00,0.0002
2081.00,0.0004
2080.00,0.0004
2079.00,0.0004
2078.00,0.0003
2077.00,0.0002
2076.00,0.0001
2075.00,0.0001
2074.00,0.0000
2073.00,-0.0000
2072.00,-0.0001
2071.00,-0.0002
2070.00,-0.0003
2069.00,-0.0004
2068.00,-0.0004
2067.00,-0.0004
2066.00,-0.0004
2065.00,-0.0003
2064.00,-0.0002
2063.00,-0.0002
2062.00,-0.0003
2061.00,-0.0003
2060.00,-0.0003
2059.00,-0.0003
2058.00,-0.0002
2057.00,-0.0001
2056.00,-0.0001
2055.00,-0.0001
2054.00,0.0000
2053.00,0.0003
2052.00,0.0006
2051.00,0.0008
2050.00,0.0006
2049.00,0.0003
2048.00,0.0001
2047.00,-0.0001
2046.00,-0.0002
2045.00,-0.0002
2044.00,-0.0001
2043.00,-0.0001
2042.00,-0.0001
2041.00,-0.0002
2040.00,-0.0004
2039.00,-0.0007
2038.00,-0.0007
2037.00,-0.0007
2036.00,-0.0006
2035.00,-0.0007
2034.00,-0.0009
2033.00,-0.0011
2032.00,-0.0012
2031.00,-0.0013
2030.00,-0.0013
2029.00,-0.0014
2028.00,-0.0016
2027.00,-0.0019
2026.00,-0.0021
2025.00,-0.0020
2024.00,-0.0018
2023.00,-0.0017
2022.00,-0.0017
2021.00,-0.0017
2020.00,-0.0017
2019.00,-0.0017
2018.00,-0.0016
2017.00,-0.0017
2016.00,-0.0018
2015.00,-0.0018
2014.00,-0.0016
2013.00,-0.0013
2012.00,-0.0008
2011.00,-0.0005
2010.00,-0.0005
2009.00,-0.0008
2008.00,-0.0013
2007.00,-0.0018
2006.00,-0.0021
2005.00,-0.0020
2004.00,-0.0016
2003.00,-0.0012
2002.00,-0.0009
2001.00,-0.0007
2000.00,-0.0006
1999.00,-0.0007
1998.00,-0.0008
1997.00,-0.0008
1996.00,-0.0009
1995.00,-0.0009
1994.00,-0.0009
1993.00,-0.0008
1992.00,-0.0006
1991.00,-0.0004
1990.00,-0.0004
1989.00,-0.0003
1988.00,-0.0003
1987.00,-0.0002
1986.00,-0.0001
1985.00,0.0001
1984.00,0.0005
1983.00,0.0009
1982.00,0.0011
1981.00,0.0012
1980.00,0.0011
1979.00,0.0006
1978.00,-0.0003
1977.00,-0.0011
1976.00,-0.0017
1975.00,-0.0020
1974.00,-0.0022
1973.00,-0.0023
1972.00,-0.0021
1971.00,-0.0019
1970.00,-0.0017
1969.00,-0.0016
1968.00,-0.0015
1967.00,-0.0015
1966.00,-0.0015
1965.00,-0.0015
1964.00,-0.0016
1963.00,-0.0018
1962.00,-0.0019
1961.00,-0.0019
1960.00,-0.0018
1959.00,-0.0017
1958.00,-0.0017
1957.00,-0.0017
1956.00,-0.0018
1955.00,-0.0018
1954.00,-0.0019
1953.00,-0.0019
1952.00,-0.0018
1951.00,-0.0017
1950.00,-0.0017
1949.00,-0.0017
1948.00,-0.0017
1947.00,-0.0017
1946.00,-0.0017
1945.00,-0.0017
1944.00,-0.0016
1943.00,-0.0015
1942.00,-0.0015
1941.00,-0.0016
1940.00,-0.0016
1939.00,-0.0015
1938.00,-0.0014
1937.00,-0.0012
1936.00,-0.0011
1935.00,-0.0010
1934.00,-0.0009
1933.00,-0.0008
1932.00,-0.0008
1931.00,-0.0008
1930.00,-0.0008
1929.00,-0.0009
1928.00,-0.0010
1927.00,-0.0010
1926.00,-0.0010
1925.00,-0.0010
1924.00,-0.0009
1923.00,-0.0007
1922.00,-0.0006
1921.00,-0.0005
1920.00,-0.0005
1919.00,-0.0005
1918.00,-0.0006
1917.00,-0.0007
1916.00,-0.0008
1915.00,-0.0008
1914.00,-0.0008
1913.00,-0.0007
1912.00,-0.0007
1911.00,-0.0008
1910.00,-0.0008
1909.00,-0.0008
1908.00,-0.0006
1907.00,-0.0005
1906.00,-0.0005
1905.00,-0.0005
1904.00,-0.0006
1903.00,-0.0006
1902.00,-0.0006
1901.00,-0.0005
1900.00,-0.0004
1899.00,-0.0003
1898.00,-0.0002
1897.00,-0.0002
1896.00,-0.0001
1895.00,-0.0001
1894.00,-0.0001
1893.00,-0.0001
1892.00,-0.0002
1891.00,-0.0003
1890.00,-0.0004
1889.00,-0.0005
1888.00,-0.0005
1887.00,-0.0005
1886.00,-0.0004
1885.00,-0.0004
1884.00,-0.0004
1883.00,-0.0004
1882.00,-0.0003
1881.00,-0.0003
1880.00,-0.0002
1879.00,-0.0002
1878.00,-0.0002
1877.00,-0.0003
1876.00,-0.0003
1875.00,-0.0003
1874.00,-0.0003
1873.00,-0.0003
1872.00,-0.0003
1871.00,-0.0003
1870.00,-0.0004
1869.00,-0.0004
1868.00,-0.0004
1867.00,-0.0004
1866.00,-0.0003
1865.00,-0.0003
1864.00,-0.0002
1863.00,-0.0002
1862.00,-0.0002
1861.00,-0.0002
1860.00,-0.0002
1859.00,-0.0003
1858.00,-0.0002
1857.00,-0.0002
1856.00,-0.0002
1855.00,-0.0001
1854.00,-0.0001
1853.00,-0.0001
1852.00,-0.0001
1851.00,-0.0002
1850.00,-0.0003
1849.00,-0.0003
1848.00,-0.0003
1847.00,-0.0003
1846.00,-0.0003
1845.00,-0.0003
1844.00,-0.0002
1843.00,-0.0001
1842.00,-0.0000
1841.00,-0.0000
1840.00,-0.0000
1839.00,-0.0000
1838.00,-0.0000
1837.00,-0.0000
1836.00,-0.0000
1835.00,0.0000
1834.00,0.0000
1833.00,0.0001
1832.00,0.0002
1831.00,0.0002
1830.00,0.0002
1829.00,0.0001
1828.00,0.0001
1827.00,0.0001
1826.00,0.0002
1825.00,0.0002
1824.00,0.0002
1823.00,0.0001
1822.00,0.0001
1821.00,0.0000
1820.00,0.0000
1819.00,-0.0000
1818.00,-0.0001
1817.00,-0.0002
1816.00,-0.0002
1815.00,-0.0002
1814.00,-0.0001
1813.00,-0.0000
1812.00,0.0000
1811.00,0.0001
1810.00,0.0001
1809.00,0.0001
1808.00,0.0002
1807.00,0.0003
1806.00,0.0003
1805.00,0.0004
1804.00,0.0003
1803.00,0.0003
1802.00,0.0003
1801.00,0.0003
1800.00,0.0003
1799.00,0.0004
1798.00,0.0004
1797.00,0.0004
1796.00,0.0004
1795.00,0.0004
1794.00,0.0004
1793.00,0.0004
1792.00,0.0005
1791.00,0.0005
1790.00,0.0005
1789.00,0.0005
1788.00,0.0005
1787.00,0.0005
1786.00,0.0005
1785.00,0.0005
1784.00,0.0005
1783.00,0.0005
1782.00,0.0005
1781.00,0.0005
1780.00,0.0005
1779.00,0.0005
1778.00,0.0005
1777.00,0.0005
1776.00,0.0005
1775.00,0.0005
1774.00,0.0005
1773.00,0.0005
1772.00,0.0006
1771.00,0.0006
1770.00,0.0006
1769.00,0.0005
1768.00,0.0006
1767.00,0.0006
1766.00,0.0006
1765.00,0.0006
1764.00,0.0006
1763.00,0.0006
1762.00,0.0006
1761.00,0.0006
1760.00,0.0007
1759.00,0.0008
1758.00,0.0008
1757.00,0.0008
1756.00,0.0008
1755.00,0.0008
1754.00,0.0008
1753.00,0.0008
1752.00,0.0009
1751.00,0.0010
1750.00,0.0011
1749.00,0.0011
1748.00,0.0011
1747.00,0.0012
1746.00,0.0012
1745.00,0.0012
1744.00,0.0012
1743.00,0.0013
1742.00,0.0013
1741.00,0.0013
1740.00,0.0013
1739.00,0.0014
1738.00,0.0014
1737.00,0.0013
1736.00,0.0013
1735.00,0.0013
1734.00,0.0014
1733.00,0.0014
1732.00,0.0015
1731.00,0.0014
1730.00,0.0014
1729.00,0.0014
1728.00,0.0014
1727.00,0.0015
1726.00,0.0015
1725.00,0.0015
1724.00,0.0015
1723.00,0.0015
1722.00,0.0016
1721.00,0.0016
1720.00,0.0016
1719.00,0.0015
1718.00,0.0015
1717.00,0.0015
1716.00,0.0015
1715.00,0.0015
1714.00,0.0014
1713.00,0.0015
1712.00,0.0015
1711.00,0.0016
1710.00,0.0016
1709.00,0.0017
1708.00,0.0017
1707.00,0.0017
1706.00,0.0017
1705.00,0.0018
1704.00,0.0019
1703.00,0.0019
1702.00,0.0020
1701.00,0.0020
1700.00,0.0021
1699.00,0.0021
1698.00,0.0021
1697.00,0.0020
1696.00,0.0021
1695.00,0.0021
1694.00,0.0021
1693.00,0.0021
1692.00,0.0022
1691.00,0.0023
1690.00,0.0024
1689.00,0.0024
1688.00,0.0025
1687.00,0.0026
1686.00,0.0026
1685.00,0.0026
1684.00,0.0026
1683.00,0.0026
1682.00,0.0027
1681.00,0.0028
1680.00,0.0029
1679.00,0.0030
1678.00,0.0031
1677.00,0.0030
1676.00,0.0030
1675.00,0.0029
1674.00,0.0029
1673.00,0.0030
1672.00,0.0031
1671.00,0.0031
1670.00,0.0032
1669.00,0.0032
1668.00,0.0032
1667.00,0.0032
1666.00,0.0032
1665.00,0.0032
1664.00,0.0032
1663.00,0.0032
1662.00,0.0032
1661.00,0.0033
1660.00,0.0033
1659.00,0.0033
1658.00,0.0033
1657.00,0.0034
1656.00,0.0034
1655.00,0.0034
1654.00,0.0034
1653.00,0.0034
1652.00,0.0035
1651.00,0.0035
1650.00,0.0035
1649.00,0.0035
1648.00,0.0035
1647.00,0.0036
1646.00,0.0036
1645.00,0.0036
1644.00,0.0036
1643.00,0.0036
1642.00,0.0036
1641.00,0.0036
1640.00,0.0036
1639.00,0.0036
1638.00,0.0035
1637.00,0.0034
1636.00,0.0034
1635.00,0.0033
1634.00,0.0033
1633.00,0.0033
1632.00,0.0034
1631.00,0.0034
1630.00,0.0034
1629.00,0.0034
1628.00,0.0033
1627.00,0.0032
1626.00,0.0031
1625.00,0.0031
1624.00,0.0031
1623.00,0.0031
1622.00,0.0031
1621.00,0.0031
1620.00,0.0030
1619.00,0.0030
1618.00,0.0030
1617.00,0.0030
1616.00,0.0030
1615.00,0.0029
1614.00,0.0029
1613.00,0.0029
1612.00,0.0029
1611.00,0.0029
1610.00,0.0029
1609.00,0.0029
1608.00,0.0028
1607.00,0.0028
1606.00,0.0028
1605.00,0.0028
1604.00,0.0028
1603.00,0.0028
1602.00,0.0027
1601.00,0.0027
1600.00,0.0027
1599.00,0.0027
1598.00,0.0027
1597.00,0.0027
1596.00,0.0027
1595.00,0.0027
1594.00,0.0027
1593.00,0.0027
1592.00,0.0027
1591.00,0.0027
1590.00,0.0027
1589.00,0.0027
1588.00,0.0027
1587.00,0.0026
1586.00,0.0026
1585.00,0.0026
1584.00,0.0026
1583.00,0.0026
1582.00,0.0025
1581.00,0.0025
1580.00,0.0025
1579.00,0.0026
1578.00,0.0026
1577.00,0.0025
1576.00,0.0025
1575.00,0.0025
1574.00,0.0025
1573.00,0.0026
1572.00,0.0027
1571.00,0.0027
1570.00,0.0028
1569.00,0.0028
1568.00,0.0028
1567.00,0.0028
1566.00,0.0029
1565.00,0.0030
1564.00,0.0030
1563.00,0.0030
1562.00,0.0030
1561.00,0.0031
1560.00,0.0032
1559.00,0.0031
1558.00,0.0030
1557.00,0.0030
1556.00,0.0031
1555.00,0.0031
1554.00,0.0031
1553.00,0.0032
1552.00,0.0032
1551.00,0.0032
1550.00,0.0032
1549.00,0.0033
1548.00,0.0033
1547.00,0.0033
1546.00,0.0033
1545.00,0.0032
1544.00,0.0031
1543.00,0.0029
1542.00,0.0028
1541.00,0.0027
1540.00,0.0027
1539.00,0.0027
1538.00,0.0028
1537.00,0.0029
1536.00,0.0031
1535.00,0.0032
1534.00,0.0032
1533.00,0.0033
1532.00,0.0033
1531.00,0.0033
1530.00,0.0033
1529.00,0.0033
1528.00,0.0034
1527.00,0.0034
1526.00,0.0035
1525.00,0.0036
1524.00,0.0037
1523.00,0.0038
1522.00,0.0038
1521.00,0.0038
1520.00,0.0038
1519.00,0.0038
1518.00,0.0038
1517.00,0.0039
1516.00,0.0040
1515.00,0.0041
1514.00,0.0042
1513.00,0.0043
1512.00,0.0045
1511.00,0.0045
1510.00,0.0045
1509.00,0.0046
1508.00,0.0047
1507.00,0.0048
1506.00,0.0049
1505.00,0.0051
1504.00,0.0053
1503.00,0.0054
1502.00,0.0055
1501.00,0.0057
1500.00,0.0059
1499.00,0.0061
1498.00,0.0064
1497.00,0.0067
1496.00,0.0070
1495.00,0.0072
1494.00,0.0074
1493.00,0.0077
1492.00,0.0080
1491.00,0.0083
1490.00,0.0086
1489.00,0.0090
1488.00,0.0095
1487.00,0.0098
1486.00,0.0103
1485.00,0.0109
1484.00,0.0116
1483.00,0.0124
1482.00,0.0132
1481.00,0.0142
1480.00,0.0154
1479.00,0.0165
1478.00,0.0179
1477.00,0.0197
1476.00,0.0220
1475.00,0.0246
1474.00,0.0281
1473.00,0.0336
1472.00,0.0403
1471.00,0.0470
1470.00,0.0534
1469.00,0.0603
1468.00,0.0678
1467.00,0.0761
1466.00,0.0857
1465.00,0.0962
1464.00,0.1057
1463.00,0.1125
1462.00,0.1170
1461.00,0.1203
1460.00,0.1227
1459.00,0.1244
1458.00,0.1257
1457.00,0.1266
1456.00,0.1267
1455.00,0.1261
1454.00,0.1250
1453.00,0.1234
1452.00,0.1206
1451.00,0.1165
1450.00,0.1107
1449.00,0.1027
1448.00,0.0926
1447.00,0.0820
1446.00,0.0727
1445.00,0.0648
1444.00,0.0582
1443.00,0.0528
1442.00,0.0489
1441.00,0.0463
1440.00,0.0449
1439.00,0.0445
1438.00,0.0448
1437.00,0.0452
1436.00,0.0443
1435.00,0.0416
1434.00,0.0375
1433.00,0.0326
1432.00,0.0275
1431.00,0.0230
1430.00,0.0197
1429.00,0.0172
1428.00,0.0156
1427.00,0.0146
1426.00,0.0140
1425.00,0.0134
1424.00,0.0128
1423.00,0.0125
1422.00,0.0123
1421.00,0.0120
1420.00,0.0116
1419.00,0.0113
1418.00,0.0111
1417.00,0.0108
1416.00,0.0106
1415.00,0.0105
1414.00,0.0105
1413.00,0.0105
1412.00,0.0104
1411.00,0.0104
1410.00,0.0104
1409.00,0.0103
1408.00,0.0102
1407.00,0.0102
1406.00,0.0103
1405.00,0.0104
1404.00,0.0104
1403.00,0.0105
1402.00,0.0107
1401.00,0.0108
1400.00,0.0110
1399.00,0.0112
1398.00,0.0114
1397.00,0.0116
1396.00,0.0119
1395.00,0.0123
1394.00,0.0130
1393.00,0.0136
1392.00,0.0143
1391.00,0.0152
1390.00,0.0165
1389.00,0.0183
1388.00,0.0211
1387.00,0.0252
1386.00,0.0306
1385.00,0.0373
1384.00,0.0462
1383.00,0.0581
1382.00,0.0739
1381.00,0.0943
1380.00,0.1201
1379.00,0.1504
1378.00,0.1810
1377.00,0.2053
1376.00,0.2161
1375.00,0.2082
1374.00,0.1834
1373.00,0.1516
1372.00,0.1217
1371.00,0.0967
1370.00,0.0767
1369.00,0.0614
1368.00,0.0509
1367.00,0.0444
1366.00,0.0410
1365.00,0.0397
1364.00,0.0401
1363.00,0.0419
1362.00,0.0445
1361.00,0.0473
1360.00,0.0493
1359.00,0.0499
1358.00,0.0486
1357.00,0.0454
1356.00,0.0410
1355.00,0.0360
1354.00,0.0312
1353.00,0.0271
1352.00,0.0238
1351.00,0.0212
1350.00,0.0191
1349.00,0.0174
1348.00,0.0161
1347.00,0.0151
1346.00,0.0143
1345.00,0.0136
1344.00,0.0131
1343.00,0.0127
1342.00,0.0124
1341.00,0.0121
1340.00,0.0118
1339.00,0.0115
1338.00,0.0114
1337.00,0.0113
1336.00,0.0115
1335.00,0.0117
1334.00,0.0121
1333.00,0.0126
1332.00,0.0131
1331.00,0.0135
1330.00,0.0137
1329.00,0.0135
1328.00,0.0131
1327.00,0.0125
1326.00,0.0118
1325.00,0.0111
1324.00,0.0104
1323.00,0.0098
1322.00,0.0093
1321.00,0.0089
1320.00,0.0086
1319.00,0.0084
1318.00,0.0081
1317.00,0.0079
1316.00,0.0077
1315.00,0.0076
1314.00,0.0075
1313.00,0.0075
1312.00,0.0076
1311.00,0.0078
1310.00,0.0082
1309.00,0.0089
1308.00,0.0097
1307.00,0.0107
1306.00,0.0117
1305.00,0.0125
1304.00,0.0127
1303.00,0.0126
1302.00,0.0123
1301.00,0.0121
1300.00,0.0120
1299.00,0.0121
1298.00,0.0123
1297.00,0.0125
1296.00,0.0125
1295.00,0.0122
1294.00,0.0118
1293.00,0.0112
1292.00,0.0106
1291.00,0.0100
1290.00,0.0095
1289.00,0.0091
1288.00,0.0087
1287.00,0.0084
1286.00,0.0082
1285.00,0.0080
1284.00,0.0078
1283.00,0.0076
1282.00,0.0074
1281.00,0.0072
1280.00,0.0070
1279.00,0.0069
1278.00,0.0069
1277.00,0.0069
1276.00,0.0068
1275.00,0.0069
1274.00,0.0069
1273.00,0.0069
1272.00,0.0070
1271.00,0.0070
1270.00,0.0070
1269.00,0.0070
1268.00,0.0070
1267.00,0.0071
1266.00,0.0072
1265.00,0.0074
1264.00,0.0076
1263.00,0.0079
1262.00,0.0082
1261.00,0.0086
1260.00,0.0091
1259.00,0.0097
1258.00,0.0104
1257.00,0.0109
1256.00,0.0111
1255.00,0.0110
1254.00,0.0105
1253.00,0.0098
1252.00,0.0091
1251.00,0.0086
1250.00,0.0082
1249.00,0.0080
1248.00,0.0078
1247.00,0.0076
1246.00,0.0075
1245.00,0.0074
1244.00,0.0074
1243.00,0.0074
1242.00,0.0073
1241.00,0.0072
1240.00,0.0071
1239.00,0.0070
1238.00,0.0070
1237.00,0.0069
1236.00,0.0068
1235.00,0.0068
1234.00,0.0068
1233.00,0.0068
1232.00,0.0068
1231.00,0.0068
1230.00,0.0068
1229.00,0.0069
1228.00,0.0070
1227.00,0.0072
1226.00,0.0074
1225.00,0.0076
1224.00,0.0079
1223.00,0.0083
1222.00,0.0087
1221.00,0.0090
1220.00,0.0092
1219.00,0.0093
1218.00,0.0093
1217.00,0.0091
1216.00,0.0089
1215.00,0.0086
1214.00,0.0082
1213.00,0.0078
1212.00,0.0075
1211.00,0.0072
1210.00,0.0070
1209.00,0.0068
1208.00,0.0067
1207.00,0.0066
1206.00,0.0064
1205.00,0.0063
1204.00,0.0062
1203.00,0.0061
1202.00,0.0061
1201.00,0.0062
1200.00,0.0062
1199.00,0.0062
1198.00,0.0062
1197.00,0.0062
1196.00,0.0062
1195.00,0.0061
1194.00,0.0061
1193.00,0.0061
1192.00,0.0060
1191.00,0.0060
1190.00,0.0060
1189.00,0.0060
1188.00,0.0061
1187.00,0.0061
1186.00,0.0061
1185.00,0.0062
1184.00,0.0063
1183.00,0.0064
1182.00,0.0066
1181.00,0.0068
1180.00,0.0071
1179.00,0.0076
1178.00,0.0081
1177.00,0.0089
1176.00,0.0099
1175.00,0.0113
1174.00,0.0131
1173.00,0.0154
1172.00,0.0180
1171.00,0.0209
1170.00,0.0238
1169.00,0.0261
1168.00,0.0275
1167.00,0.0279
1166.00,0.0274
1165.00,0.0263
1164.00,0.0249
1163.00,0.0234
1162.00,0.0221
1161.00,0.0211
1160.00,0.0202
1159.00,0.0195
1158.00,0.0189
1157.00,0.0186
1156.00,0.0183
1155.00,0.0182
1154.00,0.0181
1153.00,0.0179
1152.00,0.0175
1151.00,0.0169
1150.00,0.0161
1149.00,0.0152
1148.00,0.0142
1147.00,0.0132
1146.00,0.0123
1145.00,0.0115
1144.00,0.0107
1143.00,0.0101
1142.00,0.0095
1141.00,0.0090
1140.00,0.0085
1139.00,0.0080
1138.00,0.0076
1137.00,0.0072
1136.00,0.0070
1135.00,0.0068
1134.00,0.0067
1133.00,0.0065
1132.00,0.0064
1131.00,0.0063
1130.00,0.0063
1129.00,0.0064
1128.00,0.0065
1127.00,0.0066
1126.00,0.0067
1125.00,0.0067
1124.00,0.0067
1123.00,0.0067
1122.00,0.0067
1121.00,0.0066
1120.00,0.0066
1119.00,0.0066
1118.00,0.0066
1117.00,0.0067
1116.00,0.0068
1115.00,0.0069
1114.00,0.0070
1113.00,0.0072
1112.00,0.0075
1111.00,0.0078
1110.00,0.0083
1109.00,0.0088
1108.00,0.0094
1107.00,0.0101
1106.00,0.0109
1105.00,0.0117
1104.00,0.0124
1103.00,0.0129
1102.00,0.0130
1101.00,0.0128
1100.00,0.0122
1099.00,0.0115
1098.00,0.0106
1097.00,0.0098
1096.00,0.0091
1095.00,0.0086
1094.00,0.0083
1093.00,0.0080
1092.00,0.0078
1091.00,0.0076
1090.00,0.0074
1089.00,0.0072
1088.00,0.0070
1087.00,0.0069
1086.00,0.0069
1085.00,0.0069
1084.00,0.0069
1083.00,0.0069
1082.00,0.0068
1081.00,0.0067
1080.00,0.0066
1079.00,0.0065
1078.00,0.0063
1077.00,0.0062
1076.00,0.0062
1075.00,0.0061
1074.00,0.0061
1073.00,0.0062
1072.00,0.0062
1071.00,0.0062
1070.00,0.0062
1069.00,0.0062
1068.00,0.0061
1067.00,0.0061
1066.00,0.0061
1065.00,0.0062
1064.00,0.0063
1063.00,0.0064
1062.00,0.0065
1061.00,0.0064
1060.00,0.0064
1059.00,0.0064
1058.00,0.0064
1057.00,0.0064
1056.00,0.0064
1055.00,0.0064
1054.00,0.0065
1053.00,0.0065
1052.00,0.0066
1051.00,0.0068
1050.00,0.0071
1049.00,0.0075
1048.00,0.0078
1047.00,0.0080
1046.00,0.0081
1045.00,0.0081
1044.00,0.0080
1043.00,0.0079
1042.00,0.0077
1041.00,0.0076
1040.00,0.0074
1039.00,0.0074
1038.00,0.0075
1037.00,0.0076
1036.00,0.0076
1035.00,0.0077
1034.00,0.0077
1033.00,0.0077
1032.00,0.0076
1031.00,0.0076
1030.00,0.0076
1029.00,0.0076
1028.00,0.0076
1027.00,0.0076
1026.00,0.0076
1025.00,0.0075
1024.00,0.0074
1023.00,0.0074
1022.00,0.0075
1021.00,0.0077
1020.00,0.0078
1019.00,0.0078
1018.00,0.0079
1017.00,0.0080
1016.00,0.0082
1015.00,0.0084
1014.00,0.0088
1013.00,0.0092
1012.00,0.0096
1011.00,0.0099
1010.00,0.0102
1009.00,0.0105
1008.00,0.0109
1007.00,0.0114
1006.00,0.0122
1005.00,0.0132
1004.00,0.0145
1003.00,0.0164
1002.00,0.0188
1001.00,0.0218
1000.00,0.0250
999.00,0.0276
998.00,0.0288
997.00,0.0282
996.00,0.0259
995.00,0.0226
994.00,0.0192
993.00,0.0162
992.00,0.0139
991.00,0.0122
990.00,0.0110
989.00,0.0102
988.00,0.0097
987.00,0.0095
986.00,0.0095
985.00,0.0096
984.00,0.0100
983.00,0.0107
982.00,0.0118
981.00,0.0135
980.00,0.0157
979.00,0.0185
978.00,0.0219
977.00,0.0259
976.00,0.0300
975.00,0.0338
974.00,0.0364
973.00,0.0371
972.00,0.0356
971.00,0.0322
970.00,0.0278
969.00,0.0233
968.00,0.0195
967.00,0.0165
966.00,0.0143
965.00,0.0127
964.00,0.0115
963.00,0.0106
962.00,0.0099
961.00,0.0093
960.00,0.0088
959.00,0.0085
958.00,0.0084
957.00,0.0082
956.00,0.0079
955.00,0.0077
954.00,0.0075
953.00,0.0073
952.00,0.0072
951.00,0.0072
950.00,0.0072
949.00,0.0072
948.00,0.0073
947.00,0.0074
946.00,0.0076
945.00,0.0079
944.00,0.0084
943.00,0.0088
942.00,0.0092
941.00,0.0093
940.00,0.0093
939.00,0.0090
938.00,0.0085
937.00,0.0079
936.00,0.0073
935.00,0.0068
934.00,0.0064
933.00,0.0061
932.00,0.0060
931.00,0.0059
930.00,0.0059
929.00,0.0059
928.00,0.0058
927.00,0.0057
926.00,0.0057
925.00,0.0056
924.00,0.0056
923.00,0.0057
922.00,0.0058
921.00,0.0059
920.00,0.0061
919.00,0.0063
918.00,0.0065
917.00,0.0066
916.00,0.0067
915.00,0.0067
914.00,0.0066
913.00,0.0066
912.00,0.0067
911.00,0.0068
910.00,0.0070
909.00,0.0072
908.00,0.0074
907.00,0.0079
906.00,0.0086
905.00,0.0097
904.00,0.0114
903.00,0.0135
902.00,0.0159
901.00,0.0180
900.00,0.0195
899.00,0.0198
898.00,0.0190
897.00,0.0173
896.00,0.0151
895.00,0.0129
894.00,0.0111
893.00,0.0096
892.00,0.0086
891.00,0.0080
890.00,0.0075
889.00,0.0072
888.00,0.0070
887.00,0.0068
886.00,0.0067
885.00,0.0066
884.00,0.0065
883.00,0.0065
882.00,0.0064
881.00,0.0064
880.00,0.0064
879.00,0.0064
878.00,0.0064
877.00,0.0064
876.00,0.0064
875.00,0.0064
874.00,0.0065
873.00,0.0065
872.00,0.0066
871.00,0.0066
870.00,0.0067
869.00,0.0067
868.00,0.0067
867.00,0.0067
866.00,0.0067
865.00,0.0068
864.00,0.0069
863.00,0.0070
862.00,0.0072
861.00,0.0074
860.00,0.0076
859.00,0.0078
858.00,0.0079
857.00,0.0079
856.00,0.0078
855.00,0.0078
854.00,0.0079
853.00,0.0081
852.00,0.0083
851.00,0.0087
850.00,0.0092
849.00,0.0098
848.00,0.0108
847.00,0.0120
846.00,0.0139
845.00,0.0166
844.00,0.0203
843.00,0.0242
842.00,0.0270
841.00,0.0276
840.00,0.0257
839.00,0.0222
838.00,0.0185
837.00,0.0157
836.00,0.0137
835.00,0.0125
834.00,0.0116
833.00,0.0111
832.00,0.0107
831.00,0.0104
830.00,0.0101
829.00,0.0098
828.00,0.0096
827.00,0.0095
826.00,0.0096
825.00,0.0096
824.00,0.0097
823.00,0.0098
822.00,0.0099
821.00,0.0101
820.00,0.0104
819.00,0.0107
818.00,0.0111
817.00,0.0117
816.00,0.0126
815.00,0.0138
814.00,0.0154
813.00,0.0172
812.00,0.0193
811.00,0.0211
810.00,0.0224
809.00,0.0229
808.00,0.0225
807.00,0.0213
806.00,0.0196
805.00,0.0176
804.00,0.0157
803.00,0.0141
802.00,0.0129
801.00,0.0120
800.00,0.0113
799.00,0.0106
798.00,0.0100
797.00,0.0096
796.00,0.0093
795.00,0.0091
794.00,0.0089
793.00,0.0086
792.00,0.0083
791.00,0.0080
790.00,0.0077
789.00,0.0073
788.00,0.0070
787.00,0.0067
786.00,0.0065
785.00,0.0063
784.00,0.0061
783.00,0.0058
782.00,0.0056
781.00,0.0056
780.00,0.0056
779.00,0.0055
778.00,0.0055
777.00,0.0054
776.00,0.0055
775.00,0.0056
774.00,0.0058
773.00,0.0060
772.00,0.0063
771.00,0.0066
770.00,0.0069
769.00,0.0072
768.00,0.0072
767.00,0.0071
766.00,0.0069
765.00,0.0068
764.00,0.0066
763.00,0.0063
762.00,0.0059
761.00,0.0056
760.00,0.0054
759.00,0.0053
758.00,0.0050
757.00,0.0048
756.00,0.0047
755.00,0.0047
754.00,0.0047
753.00,0.0047
752.00,0.0046
751.00,0.0045
750.00,0.0045
749.00,0.0044
748.00,0.0044
747.00,0.0044
746.00,0.0043
745.00,0.0043
744.00,0.0043
743.00,0.0044
742.00,0.0045
741.00,0.0046
740.00,0.0046
739.00,0.0047
738.00,0.0048
737.00,0.0050
736.00,0.0052
735.00,0.0052
734.00,0.0052
733.00,0.0052
732.00,0.0052
731.00,0.0051
730.00,0.0051
729.00,0.0050
728.00,0.0050
727.00,0.0050
726.00,0.0050
725.00,0.0050
724.00,0.0049
723.00,0.0048
722.00,0.0048
721.00,0.0047
720.00,0.0047
719.00,0.0046
718.00,0.0046
717.00,0.0045
716.00,0.0045
715.00,0.0045
714.00,0.0045
713.00,0.0045
712.00,0.0045
711.00,0.0045
710.00,0.0045
709.00,0.0045
708.00,0.0045
707.00,0.0045
706.00,0.0046
705.00,0.0046
704.00,0.0047
703.00,0.0047
702.00,0.0047
701.00,0.0046
700.00,0.0045
699.00,0.0044
698.00,0.0043
697.00,0.0042
696.00,0.0043
695.00,0.0043
694.00,0.0043
693.00,0.0043
692.00,0.0043
691.00,0.0043
690.00,0.0044
689.00,0.0045
688.00,0.0046
687.00,0.0045
686.00,0.0043
685.00,0.0042
684.00,0.0042
683.00,0.0043
682.00,0.0044
681.00,0.0043
680.00,0.0042
679.00,0.0039
678.00,0.0037
677.00,0.0036
676.00,0.0035
675.00,0.0036
674.00,0.0037
673.00,0.0039
672.00,0.0041
671.00,0.0042
670.00,0.0042
669.00,0.0043
668.00,0.0045
667.00,0.0047
666.00,0.0047
665.00,0.0045
664.00,0.0042
663.00,0.0040
662.00,0.0038
661.00,0.0039
660.00,0.0041
659.00,0.0043
658.00,0.0043
657.00,0.0041
656.00,0.0040
655.00,0.0039
654.00,0.0041
653.00,0.0042
652.00,0.0042
651.00,0.0041
650.00,0.0038
649.00,0.0037
648.00,0.0038
647.00,0.0039
646.00,0.0041
645.00,0.0042
644.00,0.0044
643.00,0.0045
642.00,0.0045
641.00,0.0045
640.00,0.0044
639.00,0.0043
638.00,0.0043
637.00,0.0043
636.00,0.0043
635.00,0.0043
634.00,0.0042
633.00,0.0040
632.00,0.0040
631.00,0.0042
630.00,0.0044
629.00,0.0047
628.00,0.0049
627.00,0.0049
626.00,0.0049
625.00,0.0048
624.00,0.0048
623.00,0.0047
622.00,0.0046
621.00,0.0045
620.00,0.0045
619.00,0.0045
618.00,0.0045
617.00,0.0045
616.00,0.0045
615.00,0.0045
614.00,0.0046
613.00,0.0046
612.00,0.0045
611.00,0.0043
610.00,0.0042
609.00,0.0042
608.00,0.0042
607.00,0.0042
606.00,0.0042
605.00,0.0042
604.00,0.0041
603.00,0.0039
602.00,0.0038
601.00,0.0039
600.00,0.0042
599.00,0.0047
598.00,0.0050
597.00,0.0053
596.00,0.0055
595.00,0.0055
594.00,0.0053
593.00,0.0051
592.00,0.0049
591.00,0.0047
590.00,0.0044
589.00,0.0042
588.00,0.0042
587.00,0.0044
586.00,0.0047
585.00,0.0050
584.00,0.0052
583.00,0.0053
582.00,0.0054
581.00,0.0054
580.00,0.0054
579.00,0.0054
578.00,0.0053
577.00,0.0050
576.00,0.0046
575.00,0.0043
574.00,0.0041
573.00,0.0041
572.00,0.0044
571.00,0.0048
570.00,0.0052
569.00,0.0052
568.00,0.0052
567.00,0.0052
566.00,0.0051
565.00,0.0050
564.00,0.0047
563.00,0.0044
562.00,0.0044
561.00,0.0046
560.00,0.0049
559.00,0.0052
558.00,0.0054
557.00,0.0052
556.00,0.0050
555.00,0.0047
554.00,0.0045
553.00,0.0044
552.00,0.0045
551.00,0.0047
550.00,0.0050
549.00,0.0053
548.00,0.0054
547.00,0.0054
546.00,0.0054
545.00,0.0055
544.00,0.0056
543.00,0.0057
542.00,0.0058
541.00,0.0058
540.00,0.0057
539.00,0.0056
538.00,0.0055
537.00,0.0056
536.00,0.0060
535.00,0.0065
534.00,0.0069
533.00,0.0071
532.00,0.0073
531.00,0.0075
530.00,0.0078
529.00,0.0081
528.00,0.0082
527.00,0.0081
526.00,0.0078
525.00,0.0077
524.00,0.0075
523.00,0.0073
522.00,0.0071
521.00,0.0068
520.00,0.0066
519.00,0.0064
518.00,0.0062
517.00,0.0061
516.00,0.0062
515.00,0.0063
514.00,0.0063
513.00,0.0064
512.00,0.0067
511.00,0.0070
510.00,0.0070
509.00,0.0066
508.00,0.0060
507.00,0.0058
506.00,0.0060
505.00,0.0064
504.00,0.0064
503.00,0.0059
502.00,0.0052
501.00,0.0047
500.00,0.0048
499.00,0.0052
498.00,0.0054
497.00,0.0055
496.00,0.0057
495.00,0.0061
494.00,0.0064
493.00,0.0062
492.00,0.0057
491.00,0.0052
490.00,0.0051
489.00,0.0053
488.00,0.0056
487.00,0.0056
486.00,0.0052
485.00,0.0048
484.00,0.0047
483.00,0.0049
482.00,0.0052
481.00,0.0054
480.00,0.0057
479.00,0.0063
478.00,0.0069
477.00,0.0073
476.00,0.0077
475.00,0.0079
474.00,0.0078
473.00,0.0071
472.00,0.0066
471.00,0.0070
470.00,0.0081
469.00,0.0091
468.00,0.0099
467.00,0.0106
466.00,0.0113
465.00,0.0119
464.00,0.0123
463.00,0.0125
462.00,0.0129
461.00,0.0136
460.00,0.0150
459.00,0.0166
458.00,0.0176
457.00,0.0169
456.00,0.0149
455.00,0.0129
454.00,0.0113
453.00,0.0100
452.00,0.0087
451.00,0.0075
450.00,0.0069
