Created as New Dataset,Sample 165 By Administrator Date Wednesday, September 10 2025
cm-1,A
4000.00,0.0011
3999.00,0.0011
3998.00,0.0010
3997.00,0.0011
3996.00,0.0011
3995.00,0.0011
3994.00,0.0011
3993.00,0.0011
3992.00,0.0011
3991.00,0.0011
3990.00,0.0010
3989.00,0.0010
3988.00,0.0010
3987.00,0.0010
3986.00,0.0010
3985.00,0.0011
3984.00,0.0011
3983.00,0.0011
3982.00,0.0011
3981.00,0.0011
3980.00,0.0010
3979.00,0.0010
3978.00,0.0010
3977.00,0.0010
3976.00,0.0010
3975.00,0.0010
3974.00,0.0010
3973.00,0.0010
3972.00,0.0010
3971.00,0.0010
3970.00,0.0010
3969.00,0.0010
3968.00,0.0010
3967.00,0.0010
3966.00,0.0010
3965.00,0.0010
3964.00,0.0010
3963.00,0.0010
3962.00,0.0010
3961.00,0.0010
3960.00,0.0009
3959.00,0.0009
3958.00,0.0009
3957.00,0.0009
3956.00,0.0009
3955.00,0.0009
3954.00,0.0010
3953.00,0.0010
3952.00,0.0010
3951.00,0.0010
3950.00,0.0010
3949.00,0.0010
3948.00,0.0010
3947.00,0.0010
3946.00,0.0009
3945.00,0.0009
3944.00,0.0009
3943.00,0.0009
3942.00,0.0009
3941.00,0.0010
3940.00,0.0010
3939.00,0.0010
3938.00,0.0010
3937.00,0.0010
3936.00,0.0010
3935.00,0.0010
3934.00,0.0010
3933.00,0.0010
3932.00,0.0010
3931.00,0.0010
3930.00,0.0010
3929.00,0.0009
3928.00,0.0009
3927.00,0.0009
3926.00,0.0008
3925.00,0.0008
3924.00,0.0008
3923.00,0.0009
3922.00,0.0009
3921.00,0.0009
3920.00,0.0009
3919.00,0.0009
3918.00,0.0009
3917.00,0.0009
3916.00,0.0009
3915.00,0.0009
3914.00,0.0009
3913.00,0.0009
3912.00,0.0010
3911.00,0.0010
3910.00,0.0010
3909.00,0.0010
3908.00,0.0010
3907.00,0.0009
3906.00,0.0009
3905.00,0.0008
3904.00,0.0008
3903.00,0.0009
3902.00,0.0009
3901.00,0.0009
3900.00,0.0008
3899.00,0.0008
3898.00,0.0008
3897.00,0.0008
3896.00,0.0009
3895.00,0.0009
3894.00,0.0009
3893.00,0.0009
3892.00,0.0009
3891.00,0.0009
3890.00,0.0009
3889.00,0.0009
3888.00,0.0009
3887.00,0.0009
3886.00,0.0009
3885.00,0.0009
3884.00,0.0009
3883.00,0.0008
3882.00,0.0008
3881.00,0.0008
3880.00,0.0009
3879.00,0.0009
3878.00,0.0009
3877.00,0.0009
3876.00,0.0009
3875.00,0.0009
3874.00,0.0009
3873.00,0.0009
3872.00,0.0009
3871.00,0.0009
3870.00,0.0009
3869.00,0.0009
3868.00,0.0009
3867.00,0.0009
3866.00,0.0008
3865.00,0.0008
3864.00,0.0008
3863.00,0.0008
3862.00,0.0008
3861.00,0.0008
3860.00,0.0008
3859.00,0.0009
3858.00,0.0009
3857.00,0.0009
3856.00,0.0009
3855.00,0.0009
3854.00,0.0009
3853.00,0.0009
3852.00,0.0009
3851.00,0.0008
3850.00,0.0008
3849.00,0.0008
3848.00,0.0008
3847.00,0.0008
3846.00,0.0008
3845.00,0.0008
3844.00,0.0008
3843.00,0.0008
3842.00,0.0009
3841.00,0.0009
3840.00,0.0009
3839.00,0.0009
3838.00,0.0009
3837.00,0.0009
3836.00,0.0009
3835.00,0.0009
3834.00,0.0009
3833.00,0.0009
3832.00,0.0009
3831.00,0.0009
3830.00,0.0008
3829.00,0.0008
3828.00,0.0009
3827.00,0.0009
3826.00,0.0010
3825.00,0.0010
3824.00,0.0011
3823.00,0.0011
3822.00,0.0011
3821.00,0.0011
3820.00,0.0011
3819.00,0.0010
3818.00,0.0010
3817.00,0.0009
3816.00,0.0009
3815.00,0.0009
3814.00,0.0009
3813.00,0.0009
3812.00,0.0008
3811.00,0.0009
3810.00,0.0009
3809.00,0.0010
3808.00,0.0010
3807.00,0.0010
3806.00,0.0010
3805.00,0.0010
3804.00,0.0010
3803.00,0.0009
3802.00,0.0009
3801.00,0.0009
3800.00,0.0008
3799.00,0.0008
3798.00,0.0008
3797.00,0.0008
3796.00,0.0008
3795.00,0.0008
3794.00,0.0009
3793.00,0.0009
3792.00,0.0009
3791.00,0.0010
3790.00,0.0010
3789.00,0.0010
3788.00,0.0009
3787.00,0.0009
3786.00,0.0009
3785.00,0.0008
3784.00,0.0008
3783.00,0.0008
3782.00,0.0008
3781.00,0.0008
3780.00,0.0009
3779.00,0.0009
3778.00,0.0009
3777.00,0.0009
3776.00,0.0009
3775.00,0.0009
3774.00,0.0009
3773.00,0.0009
3772.00,0.0009
3771.00,0.0010
3770.00,0.0010
3769.00,0.0010
3768.00,0.0010
3767.00,0.0010
3766.00,0.0010
3765.00,0.0010
3764.00,0.0011
3763.00,0.0011
3762.00,0.0010
3761.00,0.0010
3760.00,0.0010
3759.00,0.0009
3758.00,0.0009
3757.00,0.0009
3756.00,0.0009
3755.00,0.0009
3754.00,0.0010
3753.00,0.0010
3752.00,0.0010
3751.00,0.0011
3750.00,0.0011
3749.00,0.0011
3748.00,0.0011
3747.00,0.0010
3746.00,0.0010
3745.00,0.0010
3744.00,0.0010
3743.00,0.0010
3742.00,0.0010
3741.00,0.0009
3740.00,0.0009
3739.00,0.0009
3738.00,0.0009
3737.00,0.0008
3736.00,0.0008
3735.00,0.0008
3734.00,0.0008
3733.00,0.0008
3732.00,0.0008
3731.00,0.0008
3730.00,0.0007
3729.00,0.0007
3728.00,0.0007
3727.00,0.0007
3726.00,0.0007
3725.00,0.0007
3724.00,0.0007
3723.00,0.0007
3722.00,0.0007
3721.00,0.0007
3720.00,0.0007
3719.00,0.0007
3718.00,0.0007
3717.00,0.0008
3716.00,0.0008
3715.00,0.0008
3714.00,0.0008
3713.00,0.0008
3712.00,0.0007
3711.00,0.0007
3710.00,0.0007
3709.00,0.0007
3708.00,0.0007
3707.00,0.0007
3706.00,0.0008
3705.00,0.0008
3704.00,0.0008
3703.00,0.0008
3702.00,0.0008
3701.00,0.0008
3700.00,0.0008
3699.00,0.0008
3698.00,0.0008
3697.00,0.0009
3696.00,0.0009
3695.00,0.0009
3694.00,0.0009
3693.00,0.0009
3692.00,0.0009
3691.00,0.0009
3690.00,0.0009
3689.00,0.0010
3688.00,0.0010
3687.00,0.0010
3686.00,0.0010
3685.00,0.0009
3684.00,0.0009
3683.00,0.0009
3682.00,0.0009
3681.00,0.0009
3680.00,0.0009
3679.00,0.0010
3678.00,0.0010
3677.00,0.0011
3676.00,0.0011
3675.00,0.0011
3674.00,0.0011
3673.00,0.0011
3672.00,0.0011
3671.00,0.0010
3670.00,0.0010
3669.00,0.0011
3668.00,0.0011
3667.00,0.0011
3666.00,0.0011
3665.00,0.0010
3664.00,0.0010
3663.00,0.0010
3662.00,0.0010
3661.00,0.0010
3660.00,0.0010
3659.00,0.0010
3658.00,0.0011
3657.00,0.0011
3656.00,0.0011
3655.00,0.0011
3654.00,0.0011
3653.00,0.0011
3652.00,0.0011
3651.00,0.0011
3650.00,0.0011
3649.00,0.0011
3648.00,0.0012
3647.00,0.0012
3646.00,0.0012
3645.00,0.0012
3644.00,0.0012
3643.00,0.0012
3642.00,0.0012
3641.00,0.0012
3640.00,0.0013
3639.00,0.0013
3638.00,0.0013
3637.00,0.0013
3636.00,0.0014
3635.00,0.0014
3634.00,0.0014
3633.00,0.0014
3632.00,0.0014
3631.00,0.0014
3630.00,0.0014
3629.00,0.0015
3628.00,0.0015
3627.00,0.0015
3626.00,0.0015
3625.00,0.0015
3624.00,0.0016
3623.00,0.0016
3622.00,0.0017
3621.00,0.0016
3620.00,0.0016
3619.00,0.0016
3618.00,0.0017
3617.00,0.0017
3616.00,0.0017
3615.00,0.0017
3614.00,0.0018
3613.00,0.0019
3612.00,0.0019
3611.00,0.0019
3610.00,0.0020
3609.00,0.0020
3608.00,0.0020
3607.00,0.0020
3606.00,0.0021
3605.00,0.0021
3604.00,0.0021
3603.00,0.0021
3602.00,0.0021
3601.00,0.0021
3600.00,0.0022
3599.00,0.0023
3598.00,0.0024
3597.00,0.0025
3596.00,0.0025
3595.00,0.0026
3594.00,0.0026
3593.00,0.0026
3592.00,0.0027
3591.00,0.0027
3590.00,0.0027
3589.00,0.0028
3588.00,0.0028
3587.00,0.0028
3586.00,0.0028
3585.00,0.0028
3584.00,0.0028
3583.00,0.0029
3582.00,0.0029
3581.00,0.0030
3580.00,0.0030
3579.00,0.0030
3578.00,0.0030
3577.00,0.0031
3576.00,0.0031
3575.00,0.0032
3574.00,0.0032
3573.00,0.0032
3572.00,0.0033
3571.00,0.0033
3570.00,0.0034
3569.00,0.0034
3568.00,0.0035
3567.00,0.0035
3566.00,0.0035
3565.00,0.0035
3564.00,0.0036
3563.00,0.0036
3562.00,0.0036
3561.00,0.0036
3560.00,0.0036
3559.00,0.0037
3558.00,0.0038
3557.00,0.0038
3556.00,0.0039
3555.00,0.0039
3554.00,0.0039
3553.00,0.0039
3552.00,0.0039
3551.00,0.0039
3550.00,0.0040
3549.00,0.0041
3548.00,0.0041
3547.00,0.0042
3546.00,0.0042
3545.00,0.0042
3544.00,0.0042
3543.00,0.0043
3542.00,0.0043
3541.00,0.0043
3540.00,0.0043
3539.00,0.0043
3538.00,0.0043
3537.00,0.0044
3536.00,0.0044
3535.00,0.0044
3534.00,0.0045
3533.00,0.0045
3532.00,0.0046
3531.00,0.0046
3530.00,0.0046
3529.00,0.0046
3528.00,0.0047
3527.00,0.0047
3526.00,0.0048
3525.00,0.0048
3524.00,0.0048
3523.00,0.0048
3522.00,0.0048
3521.00,0.0048
3520.00,0.0048
3519.00,0.0049
3518.00,0.0049
3517.00,0.0049
3516.00,0.0049
3515.00,0.0049
3514.00,0.0049
3513.00,0.0049
3512.00,0.0049
3511.00,0.0049
3510.00,0.0049
3509.00,0.0050
3508.00,0.0050
3507.00,0.0051
3506.00,0.0051
3505.00,0.0052
3504.00,0.0053
3503.00,0.0053
3502.00,0.0054
3501.00,0.0053
3500.00,0.0053
3499.00,0.0053
3498.00,0.0054
3497.00,0.0054
3496.00,0.0055
3495.00,0.0055
3494.00,0.0056
3493.00,0.0056
3492.00,0.0057
3491.00,0.0057
3490.00,0.0057
3489.00,0.0057
3488.00,0.0057
3487.00,0.0057
3486.00,0.0057
3485.00,0.0058
3484.00,0.0058
3483.00,0.0059
3482.00,0.0059
3481.00,0.0059
3480.00,0.0059
3479.00,0.0059
3478.00,0.0059
3477.00,0.0059
3476.00,0.0060
3475.00,0.0060
3474.00,0.0060
3473.00,0.0061
3472.00,0.0061
3471.00,0.0061
3470.00,0.0061
3469.00,0.0062
3468.00,0.0062
3467.00,0.0062
3466.00,0.0062
3465.00,0.0063
3464.00,0.0063
3463.00,0.0063
3462.00,0.0064
3461.00,0.0064
3460.00,0.0064
3459.00,0.0064
3458.00,0.0064
3457.00,0.0064
3456.00,0.0064
3455.00,0.0064
3454.00,0.0064
3453.00,0.0064
3452.00,0.0065
3451.00,0.0066
3450.00,0.0066
3449.00,0.0067
3448.00,0.0067
3447.00,0.0068
3446.00,0.0068
3445.00,0.0068
3444.00,0.0068
3443.00,0.0068
3442.00,0.0068
3441.00,0.0069
3440.00,0.0069
3439.00,0.0069
3438.00,0.0069
3437.00,0.0069
3436.00,0.0069
3435.00,0.0069
3434.00,0.0070
3433.00,0.0071
3432.00,0.0071
3431.00,0.0072
3430.00,0.0072
3429.00,0.0072
3428.00,0.0072
3427.00,0.0072
3426.00,0.0072
3425.00,0.0073
3424.00,0.0073
3423.00,0.0073
3422.00,0.0073
3421.00,0.0073
3420.00,0.0072
3419.00,0.0072
3418.00,0.0072
3417.00,0.0073
3416.00,0.0073
3415.00,0.0073
3414.00,0.0074
3413.00,0.0074
3412.00,0.0074
3411.00,0.0074
3410.00,0.0074
3409.00,0.0075
3408.00,0.0075
3407.00,0.0075
3406.00,0.0075
3405.00,0.0075
3404.00,0.0075
3403.00,0.0075
3402.00,0.0075
3401.00,0.0075
3400.00,0.0075
3399.00,0.0075
3398.00,0.0075
3397.00,0.0076
3396.00,0.0076
3395.00,0.0076
3394.00,0.0077
3393.00,0.0077
3392.00,0.0076
3391.00,0.0076
3390.00,0.0076
3389.00,0.0076
3388.00,0.0076
3387.00,0.0076
3386.00,0.0076
3385.00,0.0076
3384.00,0.0076
3383.00,0.0076
3382.00,0.0077
3381.00,0.0077
3380.00,0.0077
3379.00,0.0077
3378.00,0.0077
3377.00,0.0077
3376.00,0.0077
3375.00,0.0077
3374.00,0.0077
3373.00,0.0077
3372.00,0.0077
3371.00,0.0077
3370.00,0.0077
3369.00,0.0077
3368.00,0.0077
3367.00,0.0078
3366.00,0.0078
3365.00,0.0077
3364.00,0.0077
3363.00,0.0077
3362.00,0.0078
3361.00,0.0078
3360.00,0.0078
3359.00,0.0078
3358.00,0.0078
3357.00,0.0078
3356.00,0.0078
3355.00,0.0078
3354.00,0.0078
3353.00,0.0079
3352.00,0.0078
3351.00,0.0078
3350.00,0.0078
3349.00,0.0077
3348.00,0.0077
3347.00,0.0078
3346.00,0.0078
3345.00,0.0078
3344.00,0.0078
3343.00,0.0078
3342.00,0.0078
3341.00,0.0078
3340.00,0.0077
3339.00,0.0077
3338.00,0.0077
3337.00,0.0077
3336.00,0.0077
3335.00,0.0077
3334.00,0.0077
3333.00,0.0077
3332.00,0.0077
3331.00,0.0076
3330.00,0.0076
3329.00,0.0076
3328.00,0.0076
3327.00,0.0075
3326.00,0.0075
3325.00,0.0074
3324.00,0.0074
3323.00,0.0074
3322.00,0.0074
3321.00,0.0074
3320.00,0.0074
3319.00,0.0074
3318.00,0.0074
3317.00,0.0073
3316.00,0.0073
3315.00,0.0073
3314.00,0.0073
3313.00,0.0073
3312.00,0.0073
3311.00,0.0073
3310.00,0.0073
3309.00,0.0073
3308.00,0.0073
3307.00,0.0073
3306.00,0.0072
3305.00,0.0073
3304.00,0.0073
3303.00,0.0073
3302.00,0.0073
3301.00,0.0073
3300.00,0.0073
3299.00,0.0073
3298.00,0.0073
3297.00,0.0073
3296.00,0.0073
3295.00,0.0072
3294.00,0.0072
3293.00,0.0072
3292.00,0.0072
3291.00,0.0072
3290.00,0.0072
3289.00,0.0072
3288.00,0.0072
3287.00,0.0072
3286.00,0.0071
3285.00,0.0071
3284.00,0.0071
3283.00,0.0071
3282.00,0.0070
3281.00,0.0070
3280.00,0.0069
3279.00,0.0069
3278.00,0.0069
3277.00,0.0069
3276.00,0.0070
3275.00,0.0070
3274.00,0.0069
3273.00,0.0069
3272.00,0.0068
3271.00,0.0068
3270.00,0.0067
3269.00,0.0067
3268.00,0.0067
3267.00,0.0067
3266.00,0.0067
3265.00,0.0067
3264.00,0.0067
3263.00,0.0067
3262.00,0.0067
3261.00,0.0066
3260.00,0.0066
3259.00,0.0065
3258.00,0.0065
3257.00,0.0065
3256.00,0.0065
3255.00,0.0065
3254.00,0.0064
3253.00,0.0064
3252.00,0.0064
3251.00,0.0064
3250.00,0.0063
3249.00,0.0063
3248.00,0.0062
3247.00,0.0062
3246.00,0.0062
3245.00,0.0062
3244.00,0.0062
3243.00,0.0062
3242.00,0.0062
3241.00,0.0062
3240.00,0.0062
3239.00,0.0062
3238.00,0.0062
3237.00,0.0062
3236.00,0.0062
3235.00,0.0062
3234.00,0.0062
3233.00,0.0062
3232.00,0.0062
3231.00,0.0062
3230.00,0.0062
3229.00,0.0062
3228.00,0.0062
3227.00,0.0062
3226.00,0.0062
3225.00,0.0062
3224.00,0.0062
3223.00,0.0063
3222.00,0.0063
3221.00,0.0063
3220.00,0.0063
3219.00,0.0063
3218.00,0.0063
3217.00,0.0064
3216.00,0.0064
3215.00,0.0064
3214.00,0.0064
3213.00,0.0064
3212.00,0.0064
3211.00,0.0064
3210.00,0.0064
3209.00,0.0064
3208.00,0.0063
3207.00,0.0063
3206.00,0.0063
3205.00,0.0063
3204.00,0.0064
3203.00,0.0064
3202.00,0.0064
3201.00,0.0064
3200.00,0.0063
3199.00,0.0063
3198.00,0.0063
3197.00,0.0063
3196.00,0.0063
3195.00,0.0063
3194.00,0.0063
3193.00,0.0063
3192.00,0.0063
3191.00,0.0062
3190.00,0.0062
3189.00,0.0061
3188.00,0.0061
3187.00,0.0061
3186.00,0.0061
3185.00,0.0061
3184.00,0.0061
3183.00,0.0060
3182.00,0.0060
3181.00,0.0060
3180.00,0.0059
3179.00,0.0059
3178.00,0.0058
3177.00,0.0058
3176.00,0.0057
3175.00,0.0057
3174.00,0.0057
3173.00,0.0057
3172.00,0.0057
3171.00,0.0057
3170.00,0.0057
3169.00,0.0057
3168.00,0.0057
3167.00,0.0056
3166.00,0.0056
3165.00,0.0056
3164.00,0.0056
3163.00,0.0056
3162.00,0.0056
3161.00,0.0055
3160.00,0.0055
3159.00,0.0055
3158.00,0.0055
3157.00,0.0055
3156.00,0.0055
3155.00,0.0054
3154.00,0.0054
3153.00,0.0054
3152.00,0.0054
3151.00,0.0054
3150.00,0.0054
3149.00,0.0054
3148.00,0.0054
3147.00,0.0053
3146.00,0.0053
3145.00,0.0053
3144.00,0.0053
3143.00,0.0053
3142.00,0.0053
3141.00,0.0053
3140.00,0.0052
3139.00,0.0052
3138.00,0.0051
3137.00,0.0051
3136.00,0.0052
3135.00,0.0052
3134.00,0.0052
3133.00,0.0051
3132.00,0.0051
3131.00,0.0050
3130.00,0.0050
3129.00,0.0049
3128.00,0.0049
3127.00,0.0048
3126.00,0.0048
3125.00,0.0048
3124.00,0.0047
3123.00,0.0047
3122.00,0.0047
3121.00,0.0046
3120.00,0.0046
3119.00,0.0046
3118.00,0.0045
3117.00,0.0045
3116.00,0.0044
3115.00,0.0044
3114.00,0.0044
3113.00,0.0044
3112.00,0.0044
3111.00,0.0045
3110.00,0.0045
3109.00,0.0045
3108.00,0.0044
3107.00,0.0044
3106.00,0.0044
3105.00,0.0043
3104.00,0.0043
3103.00,0.0043
3102.00,0.0043
3101.00,0.0043
3100.00,0.0043
3099.00,0.0043
3098.00,0.0043
3097.00,0.0043
3096.00,0.0043
3095.00,0.0043
3094.00,0.0043
3093.00,0.0043
3092.00,0.0043
3091.00,0.0043
3090.00,0.0043
3089.00,0.0042
3088.00,0.0042
3087.00,0.0042
3086.00,0.0042
3085.00,0.0042
3084.00,0.0042
3083.00,0.0042
3082.00,0.0042
3081.00,0.0042
3080.00,0.0042
3079.00,0.0042
3078.00,0.0041
3077.00,0.0041
3076.00,0.0041
3075.00,0.0041
3074.00,0.0041
3073.00,0.0042
3072.00,0.0042
3071.00,0.0042
3070.00,0.0042
3069.00,0.0042
3068.00,0.0042
3067.00,0.0042
3066.00,0.0042
3065.00,0.0042
3064.00,0.0042
3063.00,0.0042
3062.00,0.0042
3061.00,0.0042
3060.00,0.0042
3059.00,0.0042
3058.00,0.0043
3057.00,0.0043
3056.00,0.0043
3055.00,0.0043
3054.00,0.0043
3053.00,0.0043
3052.00,0.0043
3051.00,0.0043
3050.00,0.0044
3049.00,0.0044
3048.00,0.0044
3047.00,0.0044
3046.00,0.0044
3045.00,0.0044
3044.00,0.0044
3043.00,0.0044
3042.00,0.0044
3041.00,0.0045
3040.00,0.0045
3039.00,0.0045
3038.00,0.0045
3037.00,0.0046
3036.00,0.0046
3035.00,0.0046
3034.00,0.0046
3033.00,0.0047
3032.00,0.0047
3031.00,0.0047
3030.00,0.0048
3029.00,0.0049
3028.00,0.0050
3027.00,0.0050
3026.00,0.0050
3025.00,0.0051
3024.00,0.0051
3023.00,0.0052
3022.00,0.0052
3021.00,0.0053
3020.00,0.0053
3019.00,0.0054
3018.00,0.0055
3017.00,0.0056
3016.00,0.0057
3015.00,0.0059
3014.00,0.0060
3013.00,0.0061
3012.00,0.0062
3011.00,0.0064
3010.00,0.0065
3009.00,0.0066
3008.00,0.0067
3007.00,0.0069
3006.00,0.0071
3005.00,0.0073
3004.00,0.0075
3003.00,0.0077
3002.00,0.0080
3001.00,0.0082
3000.00,0.0085
2999.00,0.0088
2998.00,0.0091
2997.00,0.0095
2996.00,0.0099
2995.00,0.0103
2994.00,0.0107
2993.00,0.0112
2992.00,0.0118
2991.00,0.0124
2990.00,0.0130
2989.00,0.0138
2988.00,0.0146
2987.00,0.0155
2986.00,0.0166
2985.00,0.0177
2984.00,0.0190
2983.00,0.0204
2982.00,0.0219
2981.00,0.0237
2980.00,0.0256
2979.00,0.0279
2978.00,0.0304
2977.00,0.0333
2976.00,0.0366
2975.00,0.0403
2974.00,0.0446
2973.00,0.0494
2972.00,0.0548
2971.00,0.0609
2970.00,0.0677
2969.00,0.0752
2968.00,0.0834
2967.00,0.0924
2966.00,0.1019
2965.00,0.1118
2964.00,0.1219
2963.00,0.1317
2962.00,0.1407
2961.00,0.1486
2960.00,0.1551
2959.00,0.1601
2958.00,0.1639
2957.00,0.1670
2956.00,0.1700
2955.00,0.1734
2954.00,0.1772
2953.00,0.1813
2952.00,0.1850
2951.00,0.1875
2950.00,0.1879
2949.00,0.1855
2948.00,0.1798
2947.00,0.1710
2946.00,0.1599
2945.00,0.1477
2944.00,0.1358
2943.00,0.1251
2942.00,0.1165
2941.00,0.1102
2940.00,0.1064
2939.00,0.1047
2938.00,0.1050
2937.00,0.1072
2936.00,0.1109
2935.00,0.1162
2934.00,0.1227
2933.00,0.1304
2932.00,0.1391
2931.00,0.1485
2930.00,0.1586
2929.00,0.1689
2928.00,0.1793
2927.00,0.1895
2926.00,0.1993
2925.00,0.2088
2924.00,0.2181
2923.00,0.2273
2922.00,0.2364
2921.00,0.2451
2920.00,0.2529
2919.00,0.2590
2918.00,0.2625
2917.00,0.2626
2916.00,0.2590
2915.00,0.2523
2914.00,0.2432
2913.00,0.2329
2912.00,0.2226
2911.00,0.2130
2910.00,0.2043
2909.00,0.1966
2908.00,0.1896
2907.00,0.1830
2906.00,0.1766
2905.00,0.1701
2904.00,0.1635
2903.00,0.1567
2902.00,0.1499
2901.00,0.1432
2900.00,0.1367
2899.00,0.1305
2898.00,0.1248
2897.00,0.1195
2896.00,0.1149
2895.00,0.1109
2894.00,0.1075
2893.00,0.1049
2892.00,0.1029
2891.00,0.1015
2890.00,0.1006
2889.00,0.1002
2888.00,0.1002
2887.00,0.1005
2886.00,0.1012
2885.00,0.1023
2884.00,0.1038
2883.00,0.1058
2882.00,0.1081
2881.00,0.1106
2880.00,0.1131
2879.00,0.1152
2878.00,0.1167
2877.00,0.1172
2876.00,0.1170
2875.00,0.1163
2874.00,0.1156
2873.00,0.1153
2872.00,0.1157
2871.00,0.1167
2870.00,0.1181
2869.00,0.1197
2868.00,0.1207
2867.00,0.1204
2866.00,0.1182
2865.00,0.1137
2864.00,0.1072
2863.00,0.0994
2862.00,0.0913
2861.00,0.0837
2860.00,0.0772
2859.00,0.0722
2858.00,0.0685
2857.00,0.0663
2856.00,0.0652
2855.00,0.0653
2854.00,0.0664
2853.00,0.0683
2852.00,0.0708
2851.00,0.0736
2850.00,0.0763
2849.00,0.0786
2848.00,0.0807
2847.00,0.0829
2846.00,0.0855
2845.00,0.0891
2844.00,0.0937
2843.00,0.0993
2842.00,0.1053
2841.00,0.1114
2840.00,0.1165
2839.00,0.1198
2838.00,0.1205
2837.00,0.1180
2836.00,0.1123
2835.00,0.1038
2834.00,0.0937
2833.00,0.0830
2832.00,0.0727
2831.00,0.0636
2830.00,0.0558
2829.00,0.0494
2828.00,0.0442
2827.00,0.0400
2826.00,0.0366
2825.00,0.0337
2824.00,0.0314
2823.00,0.0294
2822.00,0.0277
2821.00,0.0262
2820.00,0.0249
2819.00,0.0238
2818.00,0.0228
2817.00,0.0219
2816.00,0.0212
2815.00,0.0205
2814.00,0.0199
2813.00,0.0193
2812.00,0.0188
2811.00,0.0182
2810.00,0.0177
2809.00,0.0171
2808.00,0.0166
2807.00,0.0160
2806.00,0.0154
2805.00,0.0148
2804.00,0.0142
2803.00,0.0136
2802.00,0.0131
2801.00,0.0126
2800.00,0.0122
2799.00,0.0119
2798.00,0.0117
2797.00,0.0115
2796.00,0.0112
2795.00,0.0110
2794.00,0.0108
2793.00,0.0105
2792.00,0.0101
2791.00,0.0098
2790.00,0.0094
2789.00,0.0091
2788.00,0.0088
2787.00,0.0085
2786.00,0.0082
2785.00,0.0080
2784.00,0.0077
2783.00,0.0075
2782.00,0.0073
2781.00,0.0071
2780.00,0.0070
2779.00,0.0068
2778.00,0.0067
2777.00,0.0065
2776.00,0.0064
2775.00,0.0063
2774.00,0.0062
2773.00,0.0061
2772.00,0.0061
2771.00,0.0060
2770.00,0.0060
2769.00,0.0059
2768.00,0.0059
2767.00,0.0058
2766.00,0.0058
2765.00,0.0058
2764.00,0.0058
2763.00,0.0057
2762.00,0.0057
2761.00,0.0057
2760.00,0.0056
2759.00,0.0056
2758.00,0.0056
2757.00,0.0055
2756.00,0.0055
2755.00,0.0055
2754.00,0.0055
2753.00,0.0055
2752.00,0.0055
2751.00,0.0054
2750.00,0.0054
2749.00,0.0055
2748.00,0.0055
2747.00,0.0055
2746.00,0.0056
2745.00,0.0057
2744.00,0.0057
2743.00,0.0058
2742.00,0.0059
2741.00,0.0059
2740.00,0.0061
2739.00,0.0062
2738.00,0.0064
2737.00,0.0065
2736.00,0.0067
2735.00,0.0068
2734.00,0.0069
2733.00,0.0071
2732.00,0.0072
2731.00,0.0074
2730.00,0.0076
2729.00,0.0078
2728.00,0.0081
2727.00,0.0083
2726.00,0.0086
2725.00,0.0088
2724.00,0.0089
2723.00,0.0090
2722.00,0.0089
2721.00,0.0087
2720.00,0.0084
2719.00,0.0081
2718.00,0.0078
2717.00,0.0074
2716.00,0.0071
2715.00,0.0069
2714.00,0.0066
2713.00,0.0065
2712.00,0.0063
2711.00,0.0061
2710.00,0.0059
2709.00,0.0058
2708.00,0.0057
2707.00,0.0055
2706.00,0.0054
2705.00,0.0053
2704.00,0.0052
2703.00,0.0051
2702.00,0.0051
2701.00,0.0050
2700.00,0.0049
2699.00,0.0049
2698.00,0.0048
2697.00,0.0048
2696.00,0.0048
2695.00,0.0048
2694.00,0.0048
2693.00,0.0047
2692.00,0.0047
2691.00,0.0047
2690.00,0.0047
2689.00,0.0047
2688.00,0.0048
2687.00,0.0048
2686.00,0.0047
2685.00,0.0047
2684.00,0.0047
2683.00,0.0047
2682.00,0.0048
2681.00,0.0048
2680.00,0.0048
2679.00,0.0048
2678.00,0.0048
2677.00,0.0048
2676.00,0.0048
2675.00,0.0048
2674.00,0.0047
2673.00,0.0047
2672.00,0.0047
2671.00,0.0047
2670.00,0.0047
2669.00,0.0047
2668.00,0.0047
2667.00,0.0048
2666.00,0.0048
2665.00,0.0049
2664.00,0.0049
2663.00,0.0050
2662.00,0.0050
2661.00,0.0050
2660.00,0.0050
2659.00,0.0050
2658.00,0.0050
2657.00,0.0050
2656.00,0.0049
2655.00,0.0049
2654.00,0.0048
2653.00,0.0048
2652.00,0.0047
2651.00,0.0047
2650.00,0.0047
2649.00,0.0046
2648.00,0.0046
2647.00,0.0045
2646.00,0.0045
2645.00,0.0044
2644.00,0.0044
2643.00,0.0044
2642.00,0.0043
2641.00,0.0043
2640.00,0.0043
2639.00,0.0042
2638.00,0.0042
2637.00,0.0042
2636.00,0.0042
2635.00,0.0042
2634.00,0.0042
2633.00,0.0042
2632.00,0.0042
2631.00,0.0042
2630.00,0.0042
2629.00,0.0042
2628.00,0.0042
2627.00,0.0042
2626.00,0.0042
2625.00,0.0043
2624.00,0.0043
2623.00,0.0043
2622.00,0.0043
2621.00,0.0042
2620.00,0.0042
2619.00,0.0042
2618.00,0.0042
2617.00,0.0042
2616.00,0.0042
2615.00,0.0042
2614.00,0.0042
2613.00,0.0041
2612.00,0.0041
2611.00,0.0040
2610.00,0.0040
2609.00,0.0039
2608.00,0.0039
2607.00,0.0038
2606.00,0.0038
2605.00,0.0037
2604.00,0.0036
2603.00,0.0036
2602.00,0.0035
2601.00,0.0034
2600.00,0.0034
2599.00,0.0034
2598.00,0.0034
2597.00,0.0035
2596.00,0.0035
2595.00,0.0035
2594.00,0.0034
2593.00,0.0034
2592.00,0.0034
2591.00,0.0035
2590.00,0.0036
2589.00,0.0037
2588.00,0.0038
2587.00,0.0039
2586.00,0.0040
2585.00,0.0040
2584.00,0.0041
2583.00,0.0041
2582.00,0.0041
2581.00,0.0040
2580.00,0.0039
2579.00,0.0038
2578.00,0.0037
2577.00,0.0037
2576.00,0.0036
2575.00,0.0036
2574.00,0.0035
2573.00,0.0034
2572.00,0.0033
2571.00,0.0033
2570.00,0.0032
2569.00,0.0032
2568.00,0.0031
2567.00,0.0030
2566.00,0.0029
2565.00,0.0028
2564.00,0.0028
2563.00,0.0027
2562.00,0.0026
2561.00,0.0025
2560.00,0.0025
2559.00,0.0024
2558.00,0.0024
2557.00,0.0024
2556.00,0.0024
2555.00,0.0024
2554.00,0.0023
2553.00,0.0023
2552.00,0.0023
2551.00,0.0022
2550.00,0.0022
2549.00,0.0021
2548.00,0.0021
2547.00,0.0020
2546.00,0.0020
2545.00,0.0020
2544.00,0.0021
2543.00,0.0021
2542.00,0.0021
2541.00,0.0021
2540.00,0.0020
2539.00,0.0020
2538.00,0.0019
2537.00,0.0018
2536.00,0.0018
2535.00,0.0018
2534.00,0.0018
2533.00,0.0019
2532.00,0.0019
2531.00,0.0019
2530.00,0.0019
2529.00,0.0019
2528.00,0.0018
2527.00,0.0017
2526.00,0.0017
2525.00,0.0016
2524.00,0.0015
2523.00,0.0015
2522.00,0.0015
2521.00,0.0015
2520.00,0.0015
2519.00,0.0014
2518.00,0.0014
2517.00,0.0013
2516.00,0.0013
2515.00,0.0013
2514.00,0.0013
2513.00,0.0012
2512.00,0.0012
2511.00,0.0012
2510.00,0.0011
2509.00,0.0012
2508.00,0.0012
2507.00,0.0013
2506.00,0.0013
2505.00,0.0013
2504.00,0.0012
2503.00,0.0012
2502.00,0.0012
2501.00,0.0011
2500.00,0.0012
2499.00,0.0012
2498.00,0.0013
2497.00,0.0013
2496.00,0.0014
2495.00,0.0014
2494.00,0.0014
2493.00,0.0014
2492.00,0.0014
2491.00,0.0013
2490.00,0.0013
2489.00,0.0012
2488.00,0.0012
2487.00,0.0012
2486.00,0.0012
2485.00,0.0012
2484.00,0.0012
2483.00,0.0012
2482.00,0.0012
2481.00,0.0012
2480.00,0.0012
2479.00,0.0012
2478.00,0.0012
2477.00,0.0012
2476.00,0.0012
2475.00,0.0012
2474.00,0.0012
2473.00,0.0012
2472.00,0.0012
2471.00,0.0012
2470.00,0.0012
2469.00,0.0011
2468.00,0.0011
2467.00,0.0010
2466.00,0.0010
2465.00,0.0011
2464.00,0.0011
2463.00,0.0011
2462.00,0.0012
2461.00,0.0012
2460.00,0.0012
2459.00,0.0012
2458.00,0.0012
2457.00,0.0012
2456.00,0.0013
2455.00,0.0014
2454.00,0.0015
2453.00,0.0015
2452.00,0.0015
2451.00,0.0015
2450.00,0.0014
2449.00,0.0014
2448.00,0.0014
2447.00,0.0014
2446.00,0.0014
2445.00,0.0014
2444.00,0.0014
2443.00,0.0013
2442.00,0.0013
2441.00,0.0012
2440.00,0.0012
2439.00,0.0012
2438.00,0.0012
2437.00,0.0012
2436.00,0.0013
2435.00,0.0013
2434.00,0.0013
2433.00,0.0013
2432.00,0.0014
2431.00,0.0014
2430.00,0.0014
2429.00,0.0014
2428.00,0.0015
2427.00,0.0015
2426.00,0.0015
2425.00,0.0014
2424.00,0.0013
2423.00,0.0012
2422.00,0.0012
2421.00,0.0012
2420.00,0.0013
2419.00,0.0012
2418.00,0.0012
2417.00,0.0012
2416.00,0.0012
2415.00,0.0012
2414.00,0.0013
2413.00,0.0013
2412.00,0.0013
2411.00,0.0013
2410.00,0.0013
2409.00,0.0012
2408.00,0.0011
2407.00,0.0011
2406.00,0.0011
2405.00,0.0012
2404.00,0.0012
2403.00,0.0012
2402.00,0.0012
2401.00,0.0011
2400.00,0.0011
2399.00,0.0011
2398.00,0.0011
2397.00,0.0011
2396.00,0.0011
2395.00,0.0011
2394.00,0.0011
2393.00,0.0011
2392.00,0.0011
2391.00,0.0011
2390.00,0.0011
2389.00,0.0011
2388.00,0.0012
2387.00,0.0012
2386.00,0.0012
2385.00,0.0012
2384.00,0.0011
2383.00,0.0010
2382.00,0.0009
2381.00,0.0009
2380.00,0.0009
2379.00,0.0009
2378.00,0.0010
2377.00,0.0010
2376.00,0.0010
2375.00,0.0009
2374.00,0.0009
2373.00,0.0009
2372.00,0.0009
2371.00,0.0010
2370.00,0.0010
2369.00,0.0009
2368.00,0.0009
2367.00,0.0008
2366.00,0.0008
2365.00,0.0009
2364.00,0.0009
2363.00,0.0009
2362.00,0.0010
2361.00,0.0010
2360.00,0.0010
2359.00,0.0010
2358.00,0.0010
2357.00,0.0009
2356.00,0.0009
2355.00,0.0010
2354.00,0.0010
2353.00,0.0010
2352.00,0.0010
2351.00,0.0010
2350.00,0.0010
2349.00,0.0011
2348.00,0.0011
2347.00,0.0011
2346.00,0.0010
2345.00,0.0011
2344.00,0.0012
2343.00,0.0013
2342.00,0.0013
2341.00,0.0013
2340.00,0.0013
2339.00,0.0013
2338.00,0.0013
2337.00,0.0013
2336.00,0.0013
2335.00,0.0013
2334.00,0.0013
2333.00,0.0012
2332.00,0.0012
2331.00,0.0012
2330.00,0.0012
2329.00,0.0013
2328.00,0.0015
2327.00,0.0018
2326.00,0.0021
2325.00,0.0025
2324.00,0.0027
2323.00,0.0027
2322.00,0.0024
2321.00,0.0022
2320.00,0.0020
2319.00,0.0019
2318.00,0.0018
2317.00,0.0018
2316.00,0.0017
2315.00,0.0016
2314.00,0.0015
2313.00,0.0014
2312.00,0.0014
2311.00,0.0013
2310.00,0.0013
2309.00,0.0013
2308.00,0.0013
2307.00,0.0013
2306.00,0.0013
2305.00,0.0014
2304.00,0.0015
2303.00,0.0015
2302.00,0.0014
2301.00,0.0014
2300.00,0.0014
2299.00,0.0014
2298.00,0.0015
2297.00,0.0015
2296.00,0.0015
2295.00,0.0016
2294.00,0.0016
2293.00,0.0016
2292.00,0.0016
2291.00,0.0017
2290.00,0.0018
2289.00,0.0020
2288.00,0.0021
2287.00,0.0022
2286.00,0.0022
2285.00,0.0022
2284.00,0.0022
2283.00,0.0021
2282.00,0.0020
2281.00,0.0019
2280.00,0.0019
2279.00,0.0020
2278.00,0.0019
2277.00,0.0019
2276.00,0.0018
2275.00,0.0017
2274.00,0.0016
2273.00,0.0015
2272.00,0.0015
2271.00,0.0015
2270.00,0.0014
2269.00,0.0014
2268.00,0.0014
2267.00,0.0014
2266.00,0.0013
2265.00,0.0013
2264.00,0.0012
2263.00,0.0012
2262.00,0.0011
2261.00,0.0012
2260.00,0.0013
2259.00,0.0014
2258.00,0.0014
2257.00,0.0014
2256.00,0.0014
2255.00,0.0014
2254.00,0.0013
2253.00,0.0012
2252.00,0.0011
2251.00,0.0011
2250.00,0.0011
2249.00,0.0012
2248.00,0.0012
2247.00,0.0012
2246.00,0.0012
2245.00,0.0011
2244.00,0.0011
2243.00,0.0011
2242.00,0.0011
2241.00,0.0011
2240.00,0.0011
2239.00,0.0011
2238.00,0.0010
2237.00,0.0009
2236.00,0.0008
2235.00,0.0008
2234.00,0.0008
2233.00,0.0008
2232.00,0.0009
2231.00,0.0009
2230.00,0.0008
2229.00,0.0008
2228.00,0.0008
2227.00,0.0008
2226.00,0.0009
2225.00,0.0010
2224.00,0.0012
2223.00,0.0013
2222.00,0.0014
2221.00,0.0014
2220.00,0.0013
2219.00,0.0010
2218.00,0.0008
2217.00,0.0006
2216.00,0.0007
2215.00,0.0008
2214.00,0.0008
2213.00,0.0008
2212.00,0.0007
2211.00,0.0006
2210.00,0.0006
2209.00,0.0007
2208.00,0.0008
2207.00,0.0009
2206.00,0.0009
2205.00,0.0009
2204.00,0.0009
2203.00,0.0010
2202.00,0.0010
2201.00,0.0009
2200.00,0.0009
2199.00,0.0009
2198.00,0.0009
2197.00,0.0010
2196.00,0.0011
2195.00,0.0010
2194.00,0.0009
2193.00,0.0008
2192.00,0.0008
2191.00,0.0008
2190.00,0.0008
2189.00,0.0007
2188.00,0.0006
2187.00,0.0006
2186.00,0.0008
2185.00,0.0010
2184.00,0.0013
2183.00,0.0013
2182.00,0.0011
2181.00,0.0008
2180.00,0.0005
2179.00,0.0002
2178.00,0.0001
2177.00,0.0000
2176.00,-0.0000
2175.00,-0.0002
2174.00,-0.0003
2173.00,-0.0003
2172.00,-0.0002
2171.00,0.0001
2170.00,0.0006
2169.00,0.0011
2168.00,0.0015
2167.00,0.0016
2166.00,0.0015
2165.00,0.0014
2164.00,0.0014
2163.00,0.0016
2162.00,0.0016
2161.00,0.0013
2160.00,0.0002
2159.00,-0.0011
2158.00,-0.0022
2157.00,-0.0027
2156.00,-0.0027
2155.00,-0.0025
2154.00,-0.0022
2153.00,-0.0018
2152.00,-0.0015
2151.00,-0.0012
2150.00,-0.0012
2149.00,-0.0012
2148.00,-0.0012
2147.00,-0.0013
2146.00,-0.0013
2145.00,-0.0013
2144.00,-0.0012
2143.00,-0.0011
2142.00,-0.0012
2141.00,-0.0014
2140.00,-0.0015
2139.00,-0.0014
2138.00,-0.0012
2137.00,-0.0010
2136.00,-0.0010
2135.00,-0.0013
2134.00,-0.0015
2133.00,-0.0016
2132.00,-0.0015
2131.00,-0.0012
2130.00,-0.0010
2129.00,-0.0008
2128.00,-0.0006
2127.00,-0.0004
2126.00,-0.0003
2125.00,-0.0002
2124.00,-0.0001
2123.00,0.0001
2122.00,0.0002
2121.00,0.0003
2120.00,0.0004
2119.00,0.0004
2118.00,0.0003
2117.00,0.0004
2116.00,0.0005
2115.00,0.0005
2114.00,0.0005
2113.00,0.0004
2112.00,0.0004
2111.00,0.0004
2110.00,0.0005
2109.00,0.0005
2108.00,0.0005
2107.00,0.0005
2106.00,0.0003
2105.00,0.0002
2104.00,0.0002
2103.00,0.0002
2102.00,0.0003
2101.00,0.0004
2100.00,0.0005
2099.00,0.0005
2098.00,0.0005
2097.00,0.0003
2096.00,0.0000
2095.00,-0.0002
2094.00,-0.0004
2093.00,-0.0004
2092.00,-0.0002
2091.00,-0.0001
2090.00,0.0000
2089.00,0.0001
2088.00,0.0002
2087.00,0.0002
2086.00,0.0003
2085.00,0.0003
2084.00,0.0003
2083.00,0.0004
2082.00,0.0005
2081.00,0.0007
2080.00,0.0008
2079.00,0.0008
2078.00,0.0008
2077.00,0.0008
2076.00,0.0009
2075.00,0.0009
2074.00,0.0008
2073.00,0.0007
2072.00,0.0006
2071.00,0.0005
2070.00,0.0003
2069.00,0.0002
2068.00,0.0001
2067.00,0.0001
2066.00,0.0002
2065.00,0.0004
2064.00,0.0005
2063.00,0.0004
2062.00,0.0002
2061.00,-0.0000
2060.00,-0.0001
2059.00,-0.0001
2058.00,0.0000
2057.00,0.0003
2056.00,0.0005
2055.00,0.0006
2054.00,0.0006
2053.00,0.0007
2052.00,0.0010
2051.00,0.0011
2050.00,0.0011
2049.00,0.0009
2048.00,0.0008
2047.00,0.0008
2046.00,0.0008
2045.00,0.0007
2044.00,0.0007
2043.00,0.0006
2042.00,0.0006
2041.00,0.0005
2040.00,0.0006
2039.00,0.0006
2038.00,0.0006
2037.00,0.0006
2036.00,0.0005
2035.00,0.0004
2034.00,0.0002
2033.00,0.0001
2032.00,0.0000
2031.00,-0.0001
2030.00,-0.0004
2029.00,-0.0007
2028.00,-0.0011
2027.00,-0.0013
2026.00,-0.0013
2025.00,-0.0011
2024.00,-0.0008
2023.00,-0.0005
2022.00,-0.0004
2021.00,-0.0006
2020.00,-0.0010
2019.00,-0.0014
2018.00,-0.0017
2017.00,-0.0016
2016.00,-0.0014
2015.00,-0.0012
2014.00,-0.0010
2013.00,-0.0006
2012.00,-0.0002
2011.00,0.0001
2010.00,0.0001
2009.00,-0.0001
2008.00,-0.0006
2007.00,-0.0013
2006.00,-0.0018
2005.00,-0.0018
2004.00,-0.0014
2003.00,-0.0009
2002.00,-0.0006
2001.00,-0.0003
2000.00,-0.0003
1999.00,-0.0003
1998.00,-0.0005
1997.00,-0.0006
1996.00,-0.0006
1995.00,-0.0006
1994.00,-0.0006
1993.00,-0.0006
1992.00,-0.0006
1991.00,-0.0007
1990.00,-0.0006
1989.00,-0.0004
1988.00,-0.0001
1987.00,0.0001
1986.00,0.0004
1985.00,0.0007
1984.00,0.0011
1983.00,0.0015
1982.00,0.0017
1981.00,0.0018
1980.00,0.0015
1979.00,0.0009
1978.00,-0.0001
1977.00,-0.0009
1976.00,-0.0013
1975.00,-0.0013
1974.00,-0.0012
1973.00,-0.0011
1972.00,-0.0011
1971.00,-0.0012
1970.00,-0.0012
1969.00,-0.0011
1968.00,-0.0009
1967.00,-0.0009
1966.00,-0.0009
1965.00,-0.0010
1964.00,-0.0010
1963.00,-0.0010
1962.00,-0.0011
1961.00,-0.0011
1960.00,-0.0011
1959.00,-0.0011
1958.00,-0.0011
1957.00,-0.0010
1956.00,-0.0010
1955.00,-0.0009
1954.00,-0.0009
1953.00,-0.0010
1952.00,-0.0011
1951.00,-0.0011
1950.00,-0.0012
1949.00,-0.0012
1948.00,-0.0012
1947.00,-0.0011
1946.00,-0.0011
1945.00,-0.0009
1944.00,-0.0008
1943.00,-0.0008
1942.00,-0.0009
1941.00,-0.0011
1940.00,-0.0012
1939.00,-0.0012
1938.00,-0.0010
1937.00,-0.0007
1936.00,-0.0005
1935.00,-0.0004
1934.00,-0.0004
1933.00,-0.0004
1932.00,-0.0003
1931.00,-0.0003
1930.00,-0.0003
1929.00,-0.0004
1928.00,-0.0004
1927.00,-0.0003
1926.00,-0.0003
1925.00,-0.0003
1924.00,-0.0002
1923.00,-0.0001
1922.00,0.0000
1921.00,0.0002
1920.00,0.0003
1919.00,0.0003
1918.00,0.0003
1917.00,0.0002
1916.00,0.0001
1915.00,-0.0000
1914.00,-0.0001
1913.00,-0.0000
1912.00,0.0000
1911.00,-0.0000
1910.00,-0.0000
1909.00,0.0000
1908.00,0.0002
1907.00,0.0002
1906.00,0.0002
1905.00,0.0001
1904.00,0.0000
1903.00,0.0000
1902.00,0.0001
1901.00,0.0002
1900.00,0.0002
1899.00,0.0002
1898.00,0.0002
1897.00,0.0001
1896.00,0.0002
1895.00,0.0002
1894.00,0.0003
1893.00,0.0003
1892.00,0.0002
1891.00,0.0001
1890.00,0.0001
1889.00,0.0001
1888.00,0.0001
1887.00,0.0002
1886.00,0.0002
1885.00,0.0003
1884.00,0.0004
1883.00,0.0004
1882.00,0.0004
1881.00,0.0003
1880.00,0.0003
1879.00,0.0002
1878.00,0.0001
1877.00,0.0001
1876.00,0.0002
1875.00,0.0002
1874.00,0.0003
1873.00,0.0003
1872.00,0.0003
1871.00,0.0003
1870.00,0.0003
1869.00,0.0003
1868.00,0.0004
1867.00,0.0003
1866.00,0.0003
1865.00,0.0004
1864.00,0.0004
1863.00,0.0004
1862.00,0.0004
1861.00,0.0004
1860.00,0.0004
1859.00,0.0004
1858.00,0.0003
1857.00,0.0003
1856.00,0.0003
1855.00,0.0003
1854.00,0.0004
1853.00,0.0004
1852.00,0.0005
1851.00,0.0004
1850.00,0.0004
1849.00,0.0003
1848.00,0.0003
1847.00,0.0003
1846.00,0.0004
1845.00,0.0005
1844.00,0.0007
1843.00,0.0007
1842.00,0.0006
1841.00,0.0006
1840.00,0.0005
1839.00,0.0005
1838.00,0.0005
1837.00,0.0005
1836.00,0.0005
1835.00,0.0006
1834.00,0.0006
1833.00,0.0007
1832.00,0.0007
1831.00,0.0008
1830.00,0.0007
1829.00,0.0007
1828.00,0.0007
1827.00,0.0008
1826.00,0.0008
1825.00,0.0008
1824.00,0.0008
1823.00,0.0007
1822.00,0.0006
1821.00,0.0006
1820.00,0.0005
1819.00,0.0005
1818.00,0.0004
1817.00,0.0003
1816.00,0.0003
1815.00,0.0003
1814.00,0.0004
1813.00,0.0005
1812.00,0.0006
1811.00,0.0007
1810.00,0.0007
1809.00,0.0007
1808.00,0.0008
1807.00,0.0008
1806.00,0.0008
1805.00,0.0008
1804.00,0.0008
1803.00,0.0008
1802.00,0.0008
1801.00,0.0008
1800.00,0.0009
1799.00,0.0009
1798.00,0.0010
1797.00,0.0010
1796.00,0.0010
1795.00,0.0010
1794.00,0.0010
1793.00,0.0011
1792.00,0.0012
1791.00,0.0013
1790.00,0.0013
1789.00,0.0013
1788.00,0.0013
1787.00,0.0013
1786.00,0.0013
1785.00,0.0012
1784.00,0.0012
1783.00,0.0012
1782.00,0.0012
1781.00,0.0012
1780.00,0.0012
1779.00,0.0012
1778.00,0.0012
1777.00,0.0011
1776.00,0.0011
1775.00,0.0011
1774.00,0.0011
1773.00,0.0012
1772.00,0.0014
1771.00,0.0015
1770.00,0.0015
1769.00,0.0015
1768.00,0.0015
1767.00,0.0015
1766.00,0.0015
1765.00,0.0015
1764.00,0.0015
1763.00,0.0016
1762.00,0.0016
1761.00,0.0017
1760.00,0.0018
1759.00,0.0019
1758.00,0.0019
1757.00,0.0020
1756.00,0.0020
1755.00,0.0020
1754.00,0.0021
1753.00,0.0022
1752.00,0.0024
1751.00,0.0025
1750.00,0.0026
1749.00,0.0026
1748.00,0.0026
1747.00,0.0026
1746.00,0.0027
1745.00,0.0027
1744.00,0.0028
1743.00,0.0029
1742.00,0.0029
1741.00,0.0029
1740.00,0.0029
1739.00,0.0030
1738.00,0.0030
1737.00,0.0031
1736.00,0.0031
1735.00,0.0031
1734.00,0.0031
1733.00,0.0031
1732.00,0.0031
1731.00,0.0030
1730.00,0.0030
1729.00,0.0029
1728.00,0.0029
1727.00,0.0028
1726.00,0.0028
1725.00,0.0028
1724.00,0.0029
1723.00,0.0030
1722.00,0.0030
1721.00,0.0030
1720.00,0.0030
1719.00,0.0029
1718.00,0.0030
1717.00,0.0031
1716.00,0.0032
1715.00,0.0032
1714.00,0.0032
1713.00,0.0032
1712.00,0.0032
1711.00,0.0032
1710.00,0.0032
1709.00,0.0033
1708.00,0.0034
1707.00,0.0034
1706.00,0.0035
1705.00,0.0036
1704.00,0.0038
1703.00,0.0040
1702.00,0.0042
1701.00,0.0044
1700.00,0.0046
1699.00,0.0046
1698.00,0.0046
1697.00,0.0047
1696.00,0.0050
1695.00,0.0054
1694.00,0.0056
1693.00,0.0058
1692.00,0.0060
1691.00,0.0063
1690.00,0.0066
1689.00,0.0070
1688.00,0.0073
1687.00,0.0076
1686.00,0.0079
1685.00,0.0084
1684.00,0.0090
1683.00,0.0093
1682.00,0.0095
1681.00,0.0097
1680.00,0.0100
1679.00,0.0103
1678.00,0.0106
1677.00,0.0108
1676.00,0.0111
1675.00,0.0114
1674.00,0.0116
1673.00,0.0117
1672.00,0.0119
1671.00,0.0120
1670.00,0.0122
1669.00,0.0124
1668.00,0.0126
1667.00,0.0127
1666.00,0.0127
1665.00,0.0128
1664.00,0.0129
1663.00,0.0129
1662.00,0.0129
1661.00,0.0129
1660.00,0.0129
1659.00,0.0129
1658.00,0.0128
1657.00,0.0128
1656.00,0.0129
1655.00,0.0128
1654.00,0.0127
1653.00,0.0127
1652.00,0.0126
1651.00,0.0124
1650.00,0.0123
1649.00,0.0121
1648.00,0.0121
1647.00,0.0121
1646.00,0.0120
1645.00,0.0119
1644.00,0.0118
1643.00,0.0117
1642.00,0.0115
1641.00,0.0114
1640.00,0.0114
1639.00,0.0113
1638.00,0.0112
1637.00,0.0111
1636.00,0.0111
1635.00,0.0111
1634.00,0.0111
1633.00,0.0112
1632.00,0.0112
1631.00,0.0112
1630.00,0.0111
1629.00,0.0111
1628.00,0.0110
1627.00,0.0109
1626.00,0.0108
1625.00,0.0107
1624.00,0.0107
1623.00,0.0108
1622.00,0.0108
1621.00,0.0107
1620.00,0.0106
1619.00,0.0105
1618.00,0.0104
1617.00,0.0104
1616.00,0.0103
1615.00,0.0103
1614.00,0.0102
1613.00,0.0102
1612.00,0.0102
1611.00,0.0101
1610.00,0.0101
1609.00,0.0101
1608.00,0.0101
1607.00,0.0101
1606.00,0.0102
1605.00,0.0102
1604.00,0.0102
1603.00,0.0102
1602.00,0.0103
1601.00,0.0103
1600.00,0.0104
1599.00,0.0105
1598.00,0.0106
1597.00,0.0108
1596.00,0.0109
1595.00,0.0111
1594.00,0.0113
1593.00,0.0115
1592.00,0.0118
1591.00,0.0122
1590.00,0.0126
1589.00,0.0131
1588.00,0.0138
1587.00,0.0145
1586.00,0.0153
1585.00,0.0163
1584.00,0.0174
1583.00,0.0186
1582.00,0.0198
1581.00,0.0210
1580.00,0.0219
1579.00,0.0226
1578.00,0.0230
1577.00,0.0228
1576.00,0.0224
1575.00,0.0217
1574.00,0.0210
1573.00,0.0203
1572.00,0.0196
1571.00,0.0187
1570.00,0.0176
1569.00,0.0165
1568.00,0.0156
1567.00,0.0151
1566.00,0.0146
1565.00,0.0141
1564.00,0.0138
1563.00,0.0136
1562.00,0.0136
1561.00,0.0135
1560.00,0.0135
1559.00,0.0134
1558.00,0.0134
1557.00,0.0135
1556.00,0.0136
1555.00,0.0139
1554.00,0.0143
1553.00,0.0148
1552.00,0.0154
1551.00,0.0161
1550.00,0.0170
1549.00,0.0180
1548.00,0.0190
1547.00,0.0201
1546.00,0.0214
1545.00,0.0228
1544.00,0.0241
1543.00,0.0251
1542.00,0.0258
1541.00,0.0258
1540.00,0.0249
1539.00,0.0234
1538.00,0.0221
1537.00,0.0210
1536.00,0.0200
1535.00,0.0188
1534.00,0.0172
1533.00,0.0156
1532.00,0.0144
1531.00,0.0136
1530.00,0.0130
1529.00,0.0125
1528.00,0.0121
1527.00,0.0117
1526.00,0.0114
1525.00,0.0112
1524.00,0.0110
1523.00,0.0109
1522.00,0.0107
1521.00,0.0105
1520.00,0.0105
1519.00,0.0104
1518.00,0.0103
1517.00,0.0103
1516.00,0.0104
1515.00,0.0103
1514.00,0.0103
1513.00,0.0103
1512.00,0.0103
1511.00,0.0103
1510.00,0.0103
1509.00,0.0104
1508.00,0.0106
1507.00,0.0107
1506.00,0.0107
1505.00,0.0107
1504.00,0.0108
1503.00,0.0109
1502.00,0.0110
1501.00,0.0113
1500.00,0.0116
1499.00,0.0119
1498.00,0.0122
1497.00,0.0126
1496.00,0.0130
1495.00,0.0133
1494.00,0.0135
1493.00,0.0139
1492.00,0.0144
1491.00,0.0148
1490.00,0.0153
1489.00,0.0160
1488.00,0.0168
1487.00,0.0176
1486.00,0.0185
1485.00,0.0196
1484.00,0.0208
1483.00,0.0222
1482.00,0.0239
1481.00,0.0258
1480.00,0.0279
1479.00,0.0299
1478.00,0.0321
1477.00,0.0346
1476.00,0.0374
1475.00,0.0403
1474.00,0.0439
1473.00,0.0491
1472.00,0.0552
1471.00,0.0609
1470.00,0.0665
1469.00,0.0723
1468.00,0.0788
1467.00,0.0859
1466.00,0.0941
1465.00,0.1031
1464.00,0.1109
1463.00,0.1163
1462.00,0.1198
1461.00,0.1224
1460.00,0.1243
1459.00,0.1257
1458.00,0.1271
1457.00,0.1285
1456.00,0.1291
1455.00,0.1287
1454.00,0.1280
1453.00,0.1268
1452.00,0.1246
1451.00,0.1212
1450.00,0.1161
1449.00,0.1089
1448.00,0.0996
1447.00,0.0896
1446.00,0.0807
1445.00,0.0731
1444.00,0.0666
1443.00,0.0615
1442.00,0.0577
1441.00,0.0552
1440.00,0.0538
1439.00,0.0533
1438.00,0.0536
1437.00,0.0537
1436.00,0.0527
1435.00,0.0500
1434.00,0.0462
1433.00,0.0417
1432.00,0.0371
1431.00,0.0330
1430.00,0.0298
1429.00,0.0276
1428.00,0.0261
1427.00,0.0252
1426.00,0.0247
1425.00,0.0243
1424.00,0.0239
1423.00,0.0237
1422.00,0.0236
1421.00,0.0234
1420.00,0.0230
1419.00,0.0224
1418.00,0.0218
1417.00,0.0211
1416.00,0.0204
1415.00,0.0200
1414.00,0.0196
1413.00,0.0192
1412.00,0.0189
1411.00,0.0185
1410.00,0.0183
1409.00,0.0180
1408.00,0.0176
1407.00,0.0174
1406.00,0.0172
1405.00,0.0169
1404.00,0.0166
1403.00,0.0164
1402.00,0.0164
1401.00,0.0164
1400.00,0.0163
1399.00,0.0163
1398.00,0.0164
1397.00,0.0165
1396.00,0.0167
1395.00,0.0170
1394.00,0.0174
1393.00,0.0179
1392.00,0.0183
1391.00,0.0191
1390.00,0.0203
1389.00,0.0220
1388.00,0.0245
1387.00,0.0283
1386.00,0.0333
1385.00,0.0396
1384.00,0.0478
1383.00,0.0588
1382.00,0.0732
1381.00,0.0914
1380.00,0.1136
1379.00,0.1388
1378.00,0.1630
1377.00,0.1810
1376.00,0.1875
1375.00,0.1793
1374.00,0.1583
1373.00,0.1323
1372.00,0.1079
1371.00,0.0876
1370.00,0.0712
1369.00,0.0585
1368.00,0.0497
1367.00,0.0443
1366.00,0.0414
1365.00,0.0402
1364.00,0.0405
1363.00,0.0419
1362.00,0.0440
1361.00,0.0461
1360.00,0.0476
1359.00,0.0480
1358.00,0.0467
1357.00,0.0441
1356.00,0.0404
1355.00,0.0362
1354.00,0.0322
1353.00,0.0288
1352.00,0.0260
1351.00,0.0237
1350.00,0.0219
1349.00,0.0204
1348.00,0.0192
1347.00,0.0183
1346.00,0.0175
1345.00,0.0169
1344.00,0.0164
1343.00,0.0160
1342.00,0.0157
1341.00,0.0154
1340.00,0.0152
1339.00,0.0150
1338.00,0.0149
1337.00,0.0148
1336.00,0.0149
1335.00,0.0150
1334.00,0.0153
1333.00,0.0156
1332.00,0.0160
1331.00,0.0164
1330.00,0.0165
1329.00,0.0163
1328.00,0.0159
1327.00,0.0154
1326.00,0.0149
1325.00,0.0144
1324.00,0.0139
1323.00,0.0135
1322.00,0.0131
1321.00,0.0129
1320.00,0.0126
1319.00,0.0125
1318.00,0.0122
1317.00,0.0120
1316.00,0.0117
1315.00,0.0116
1314.00,0.0115
1313.00,0.0114
1312.00,0.0115
1311.00,0.0117
1310.00,0.0122
1309.00,0.0129
1308.00,0.0140
1307.00,0.0153
1306.00,0.0166
1305.00,0.0175
1304.00,0.0180
1303.00,0.0178
1302.00,0.0173
1301.00,0.0168
1300.00,0.0165
1299.00,0.0164
1298.00,0.0165
1297.00,0.0166
1296.00,0.0166
1295.00,0.0165
1294.00,0.0162
1293.00,0.0158
1292.00,0.0153
1291.00,0.0148
1290.00,0.0143
1289.00,0.0139
1288.00,0.0134
1287.00,0.0130
1286.00,0.0126
1285.00,0.0122
1284.00,0.0119
1283.00,0.0116
1282.00,0.0114
1281.00,0.0113
1280.00,0.0112
1279.00,0.0111
1278.00,0.0110
1277.00,0.0110
1276.00,0.0109
1275.00,0.0108
1274.00,0.0108
1273.00,0.0108
1272.00,0.0107
1271.00,0.0107
1270.00,0.0107
1269.00,0.0107
1268.00,0.0107
1267.00,0.0108
1266.00,0.0110
1265.00,0.0112
1264.00,0.0115
1263.00,0.0119
1262.00,0.0124
1261.00,0.0130
1260.00,0.0136
1259.00,0.0144
1258.00,0.0152
1257.00,0.0159
1256.00,0.0162
1255.00,0.0160
1254.00,0.0154
1253.00,0.0144
1252.00,0.0135
1251.00,0.0127
1250.00,0.0121
1249.00,0.0118
1248.00,0.0116
1247.00,0.0115
1246.00,0.0114
1245.00,0.0113
1244.00,0.0113
1243.00,0.0112
1242.00,0.0112
1241.00,0.0112
1240.00,0.0112
1239.00,0.0112
1238.00,0.0112
1237.00,0.0112
1236.00,0.0113
1235.00,0.0114
1234.00,0.0114
1233.00,0.0115
1232.00,0.0115
1231.00,0.0115
1230.00,0.0115
1229.00,0.0116
1228.00,0.0118
1227.00,0.0119
1226.00,0.0121
1225.00,0.0124
1224.00,0.0126
1223.00,0.0130
1222.00,0.0133
1221.00,0.0135
1220.00,0.0137
1219.00,0.0138
1218.00,0.0138
1217.00,0.0136
1216.00,0.0134
1215.00,0.0132
1214.00,0.0129
1213.00,0.0125
1212.00,0.0122
1211.00,0.0120
1210.00,0.0118
1209.00,0.0116
1208.00,0.0115
1207.00,0.0113
1206.00,0.0112
1205.00,0.0111
1204.00,0.0110
1203.00,0.0110
1202.00,0.0111
1201.00,0.0111
1200.00,0.0112
1199.00,0.0113
1198.00,0.0114
1197.00,0.0114
1196.00,0.0115
1195.00,0.0115
1194.00,0.0115
1193.00,0.0115
1192.00,0.0116
1191.00,0.0116
1190.00,0.0116
1189.00,0.0116
1188.00,0.0116
1187.00,0.0116
1186.00,0.0116
1185.00,0.0116
1184.00,0.0116
1183.00,0.0118
1182.00,0.0119
1181.00,0.0122
1180.00,0.0125
1179.00,0.0130
1178.00,0.0137
1177.00,0.0145
1176.00,0.0157
1175.00,0.0174
1174.00,0.0195
1173.00,0.0222
1172.00,0.0256
1171.00,0.0292
1170.00,0.0328
1169.00,0.0356
1168.00,0.0373
1167.00,0.0377
1166.00,0.0368
1165.00,0.0351
1164.00,0.0329
1163.00,0.0308
1162.00,0.0289
1161.00,0.0273
1160.00,0.0260
1159.00,0.0249
1158.00,0.0240
1157.00,0.0233
1156.00,0.0228
1155.00,0.0225
1154.00,0.0222
1153.00,0.0219
1152.00,0.0214
1151.00,0.0208
1150.00,0.0199
1149.00,0.0190
1148.00,0.0180
1147.00,0.0171
1146.00,0.0162
1145.00,0.0155
1144.00,0.0149
1143.00,0.0144
1142.00,0.0140
1141.00,0.0135
1140.00,0.0131
1139.00,0.0127
1138.00,0.0125
1137.00,0.0123
1136.00,0.0122
1135.00,0.0121
1134.00,0.0120
1133.00,0.0119
1132.00,0.0118
1131.00,0.0118
1130.00,0.0119
1129.00,0.0120
1128.00,0.0122
1127.00,0.0123
1126.00,0.0124
1125.00,0.0123
1124.00,0.0122
1123.00,0.0122
1122.00,0.0121
1121.00,0.0120
1120.00,0.0120
1119.00,0.0121
1118.00,0.0122
1117.00,0.0124
1116.00,0.0126
1115.00,0.0128
1114.00,0.0131
1113.00,0.0133
1112.00,0.0135
1111.00,0.0138
1110.00,0.0140
1109.00,0.0143
1108.00,0.0147
1107.00,0.0151
1106.00,0.0156
1105.00,0.0162
1104.00,0.0167
1103.00,0.0170
1102.00,0.0171
1101.00,0.0169
1100.00,0.0164
1099.00,0.0157
1098.00,0.0150
1097.00,0.0143
1096.00,0.0137
1095.00,0.0132
1094.00,0.0128
1093.00,0.0125
1092.00,0.0122
1091.00,0.0119
1090.00,0.0117
1089.00,0.0115
1088.00,0.0114
1087.00,0.0113
1086.00,0.0112
1085.00,0.0111
1084.00,0.0111
1083.00,0.0110
1082.00,0.0110
1081.00,0.0109
1080.00,0.0107
1079.00,0.0105
1078.00,0.0103
1077.00,0.0102
1076.00,0.0101
1075.00,0.0100
1074.00,0.0099
1073.00,0.0099
1072.00,0.0099
1071.00,0.0098
1070.00,0.0097
1069.00,0.0097
1068.00,0.0097
1067.00,0.0097
1066.00,0.0098
1065.00,0.0099
1064.00,0.0100
1063.00,0.0101
1062.00,0.0102
1061.00,0.0103
1060.00,0.0104
1059.00,0.0105
1058.00,0.0107
1057.00,0.0107
1056.00,0.0108
1055.00,0.0109
1054.00,0.0111
1053.00,0.0113
1052.00,0.0116
1051.00,0.0119
1050.00,0.0122
1049.00,0.0126
1048.00,0.0130
1047.00,0.0134
1046.00,0.0136
1045.00,0.0137
1044.00,0.0137
1043.00,0.0135
1042.00,0.0132
1041.00,0.0128
1040.00,0.0126
1039.00,0.0125
1038.00,0.0125
1037.00,0.0125
1036.00,0.0126
1035.00,0.0125
1034.00,0.0124
1033.00,0.0122
1032.00,0.0119
1031.00,0.0117
1030.00,0.0115
1029.00,0.0114
1028.00,0.0114
1027.00,0.0113
1026.00,0.0112
1025.00,0.0111
1024.00,0.0111
1023.00,0.0112
1022.00,0.0113
1021.00,0.0114
1020.00,0.0116
1019.00,0.0117
1018.00,0.0119
1017.00,0.0122
1016.00,0.0127
1015.00,0.0132
1014.00,0.0138
1013.00,0.0144
1012.00,0.0149
1011.00,0.0153
1010.00,0.0155
1009.00,0.0156
1008.00,0.0159
1007.00,0.0164
1006.00,0.0171
1005.00,0.0182
1004.00,0.0198
1003.00,0.0220
1002.00,0.0251
1001.00,0.0290
1000.00,0.0332
999.00,0.0368
998.00,0.0386
997.00,0.0381
996.00,0.0352
995.00,0.0310
994.00,0.0264
993.00,0.0224
992.00,0.0193
991.00,0.0170
990.00,0.0153
989.00,0.0141
988.00,0.0134
987.00,0.0130
986.00,0.0129
985.00,0.0130
984.00,0.0133
983.00,0.0140
982.00,0.0152
981.00,0.0169
980.00,0.0193
979.00,0.0223
978.00,0.0261
977.00,0.0307
976.00,0.0359
975.00,0.0408
974.00,0.0446
973.00,0.0462
972.00,0.0450
971.00,0.0411
970.00,0.0355
969.00,0.0298
968.00,0.0247
967.00,0.0208
966.00,0.0179
965.00,0.0158
964.00,0.0143
963.00,0.0131
962.00,0.0122
961.00,0.0115
960.00,0.0109
959.00,0.0105
958.00,0.0101
957.00,0.0099
956.00,0.0097
955.00,0.0094
954.00,0.0092
953.00,0.0089
952.00,0.0087
951.00,0.0087
950.00,0.0087
949.00,0.0088
948.00,0.0088
947.00,0.0089
946.00,0.0090
945.00,0.0092
944.00,0.0095
943.00,0.0099
942.00,0.0102
941.00,0.0104
940.00,0.0104
939.00,0.0102
938.00,0.0098
937.00,0.0093
936.00,0.0088
935.00,0.0084
934.00,0.0081
933.00,0.0078
932.00,0.0076
931.00,0.0075
930.00,0.0074
929.00,0.0073
928.00,0.0072
927.00,0.0071
926.00,0.0070
925.00,0.0070
924.00,0.0070
923.00,0.0070
922.00,0.0071
921.00,0.0071
920.00,0.0072
919.00,0.0074
918.00,0.0076
917.00,0.0078
916.00,0.0079
915.00,0.0079
914.00,0.0078
913.00,0.0078
912.00,0.0079
911.00,0.0080
910.00,0.0082
909.00,0.0084
908.00,0.0086
907.00,0.0090
906.00,0.0097
905.00,0.0107
904.00,0.0122
903.00,0.0140
902.00,0.0160
901.00,0.0178
900.00,0.0189
899.00,0.0192
898.00,0.0185
897.00,0.0170
896.00,0.0152
895.00,0.0134
894.00,0.0119
893.00,0.0108
892.00,0.0101
891.00,0.0096
890.00,0.0092
889.00,0.0089
888.00,0.0086
887.00,0.0084
886.00,0.0083
885.00,0.0083
884.00,0.0084
883.00,0.0086
882.00,0.0087
881.00,0.0088
880.00,0.0089
879.00,0.0090
878.00,0.0091
877.00,0.0091
876.00,0.0092
875.00,0.0091
874.00,0.0090
873.00,0.0087
872.00,0.0084
871.00,0.0082
870.00,0.0082
869.00,0.0083
868.00,0.0084
867.00,0.0085
866.00,0.0086
865.00,0.0087
864.00,0.0089
863.00,0.0091
862.00,0.0094
861.00,0.0096
860.00,0.0098
859.00,0.0100
858.00,0.0101
857.00,0.0101
856.00,0.0101
855.00,0.0101
854.00,0.0103
853.00,0.0105
852.00,0.0109
851.00,0.0114
850.00,0.0121
849.00,0.0129
848.00,0.0141
847.00,0.0158
846.00,0.0184
845.00,0.0222
844.00,0.0273
843.00,0.0328
842.00,0.0370
841.00,0.0381
840.00,0.0357
839.00,0.0309
838.00,0.0256
837.00,0.0214
836.00,0.0186
835.00,0.0168
834.00,0.0157
833.00,0.0149
832.00,0.0143
831.00,0.0138
830.00,0.0134
829.00,0.0131
828.00,0.0128
827.00,0.0126
826.00,0.0125
825.00,0.0124
824.00,0.0124
823.00,0.0124
822.00,0.0125
821.00,0.0125
820.00,0.0125
819.00,0.0127
818.00,0.0130
817.00,0.0135
816.00,0.0143
815.00,0.0153
814.00,0.0166
813.00,0.0182
812.00,0.0198
811.00,0.0214
810.00,0.0226
809.00,0.0232
808.00,0.0230
807.00,0.0220
806.00,0.0206
805.00,0.0188
804.00,0.0172
803.00,0.0158
802.00,0.0147
801.00,0.0139
800.00,0.0131
799.00,0.0125
798.00,0.0120
797.00,0.0117
796.00,0.0115
795.00,0.0113
794.00,0.0111
793.00,0.0109
792.00,0.0106
791.00,0.0104
790.00,0.0101
789.00,0.0099
788.00,0.0096
787.00,0.0094
786.00,0.0092
785.00,0.0089
784.00,0.0086
783.00,0.0084
782.00,0.0082
781.00,0.0081
780.00,0.0081
779.00,0.0081
778.00,0.0081
777.00,0.0081
776.00,0.0082
775.00,0.0085
774.00,0.0088
773.00,0.0092
772.00,0.0096
771.00,0.0100
770.00,0.0103
769.00,0.0105
768.00,0.0106
767.00,0.0105
766.00,0.0104
765.00,0.0102
764.00,0.0100
763.00,0.0096
762.00,0.0093
761.00,0.0091
760.00,0.0088
759.00,0.0085
758.00,0.0081
757.00,0.0077
756.00,0.0075
755.00,0.0075
754.00,0.0077
753.00,0.0078
752.00,0.0078
751.00,0.0078
750.00,0.0077
749.00,0.0077
748.00,0.0078
747.00,0.0078
746.00,0.0078
745.00,0.0079
744.00,0.0081
743.00,0.0082
742.00,0.0084
741.00,0.0086
740.00,0.0087
739.00,0.0088
738.00,0.0088
737.00,0.0090
736.00,0.0092
735.00,0.0093
734.00,0.0094
733.00,0.0096
732.00,0.0098
731.00,0.0102
730.00,0.0105
729.00,0.0108
728.00,0.0109
727.00,0.0109
726.00,0.0109
725.00,0.0108
724.00,0.0108
723.00,0.0109
722.00,0.0110
721.00,0.0110
720.00,0.0107
719.00,0.0103
718.00,0.0099
717.00,0.0095
716.00,0.0092
715.00,0.0090
714.00,0.0088
713.00,0.0087
712.00,0.0085
711.00,0.0085
710.00,0.0085
709.00,0.0086
708.00,0.0087
707.00,0.0088
706.00,0.0089
705.00,0.0090
704.00,0.0091
703.00,0.0092
702.00,0.0092
701.00,0.0091
700.00,0.0091
699.00,0.0090
698.00,0.0091
697.00,0.0092
696.00,0.0093
695.00,0.0094
694.00,0.0094
693.00,0.0094
692.00,0.0093
691.00,0.0093
690.00,0.0094
689.00,0.0095
688.00,0.0097
687.00,0.0097
686.00,0.0096
685.00,0.0095
684.00,0.0094
683.00,0.0094
682.00,0.0094
681.00,0.0095
680.00,0.0095
679.00,0.0095
678.00,0.0095
677.00,0.0095
676.00,0.0095
675.00,0.0095
674.00,0.0096
673.00,0.0096
672.00,0.0097
671.00,0.0098
670.00,0.0101
669.00,0.0104
668.00,0.0107
667.00,0.0108
666.00,0.0104
665.00,0.0099
664.00,0.0094
663.00,0.0091
662.00,0.0089
661.00,0.0090
660.00,0.0092
659.00,0.0092
658.00,0.0089
657.00,0.0085
656.00,0.0082
655.00,0.0081
654.00,0.0081
653.00,0.0084
652.00,0.0087
651.00,0.0088
650.00,0.0088
649.00,0.0087
648.00,0.0086
647.00,0.0084
646.00,0.0083
645.00,0.0081
644.00,0.0082
643.00,0.0083
642.00,0.0085
641.00,0.0086
640.00,0.0086
639.00,0.0087
638.00,0.0088
637.00,0.0089
636.00,0.0090
635.00,0.0090
634.00,0.0090
633.00,0.0090
632.00,0.0091
631.00,0.0093
630.00,0.0096
629.00,0.0098
628.00,0.0097
627.00,0.0095
626.00,0.0093
625.00,0.0093
624.00,0.0094
623.00,0.0095
622.00,0.0095
621.00,0.0095
620.00,0.0093
619.00,0.0091
618.00,0.0089
617.00,0.0088
616.00,0.0088
615.00,0.0091
614.00,0.0095
613.00,0.0099
612.00,0.0099
611.00,0.0097
610.00,0.0094
609.00,0.0093
608.00,0.0093
607.00,0.0094
606.00,0.0093
605.00,0.0091
604.00,0.0088
603.00,0.0085
602.00,0.0084
601.00,0.0086
600.00,0.0090
599.00,0.0095
598.00,0.0098
597.00,0.0099
596.00,0.0098
595.00,0.0096
594.00,0.0093
593.00,0.0091
592.00,0.0090
591.00,0.0090
590.00,0.0090
589.00,0.0091
588.00,0.0092
587.00,0.0093
586.00,0.0095
585.00,0.0096
584.00,0.0097
583.00,0.0099
582.00,0.0100
581.00,0.0100
580.00,0.0100
579.00,0.0098
578.00,0.0098
577.00,0.0098
576.00,0.0097
575.00,0.0095
574.00,0.0092
573.00,0.0091
572.00,0.0093
571.00,0.0097
570.00,0.0099
569.00,0.0097
568.00,0.0093
567.00,0.0089
566.00,0.0088
565.00,0.0089
564.00,0.0091
563.00,0.0093
562.00,0.0096
561.00,0.0099
560.00,0.0100
559.00,0.0100
558.00,0.0099
557.00,0.0096
556.00,0.0093
555.00,0.0090
554.00,0.0089
553.00,0.0088
552.00,0.0089
551.00,0.0091
550.00,0.0095
549.00,0.0099
548.00,0.0100
547.00,0.0098
546.00,0.0096
545.00,0.0095
544.00,0.0096
543.00,0.0095
542.00,0.0094
541.00,0.0093
540.00,0.0094
539.00,0.0096
538.00,0.0099
537.00,0.0102
536.00,0.0105
535.00,0.0107
534.00,0.0106
533.00,0.0104
532.00,0.0103
531.00,0.0105
530.00,0.0109
529.00,0.0112
528.00,0.0114
527.00,0.0115
526.00,0.0116
525.00,0.0115
524.00,0.0112
523.00,0.0107
522.00,0.0101
521.00,0.0097
520.00,0.0096
519.00,0.0098
518.00,0.0101
517.00,0.0101
516.00,0.0099
515.00,0.0097
514.00,0.0096
513.00,0.0095
512.00,0.0093
511.00,0.0092
510.00,0.0089
509.00,0.0087
508.00,0.0084
507.00,0.0083
506.00,0.0086
505.00,0.0092
504.00,0.0096
503.00,0.0098
502.00,0.0095
501.00,0.0090
500.00,0.0086
499.00,0.0085
498.00,0.0087
497.00,0.0089
496.00,0.0093
495.00,0.0098
494.00,0.0103
493.00,0.0105
492.00,0.0103
491.00,0.0099
490.00,0.0096
489.00,0.0097
488.00,0.0098
487.00,0.0095
486.00,0.0087
485.00,0.0077
484.00,0.0073
483.00,0.0078
482.00,0.0090
481.00,0.0102
480.00,0.0108
479.00,0.0107
478.00,0.0099
477.00,0.0089
476.00,0.0084
475.00,0.0085
474.00,0.0089
473.00,0.0093
472.00,0.0098
471.00,0.0107
470.00,0.0118
469.00,0.0126
468.00,0.0129
467.00,0.0128
466.00,0.0124
465.00,0.0118
464.00,0.0113
463.00,0.0115
462.00,0.0127
461.00,0.0147
460.00,0.0170
459.00,0.0190
458.00,0.0198
457.00,0.0190
456.00,0.0174
455.00,0.0158
454.00,0.0146
453.00,0.0132
452.00,0.0117
451.00,0.0105
450.00,0.0101
