Created as New Dataset,Sample 005 By Administrator Date Wednesday, September 10 2025
cm-1,A
4000.00,0.0009
3999.00,0.0009
3998.00,0.0009
3997.00,0.0009
3996.00,0.0009
3995.00,0.0008
3994.00,0.0008
3993.00,0.0008
3992.00,0.0008
3991.00,0.0008
3990.00,0.0008
3989.00,0.0008
3988.00,0.0008
3987.00,0.0008
3986.00,0.0008
3985.00,0.0008
3984.00,0.0008
3983.00,0.0007
3982.00,0.0007
3981.00,0.0007
3980.00,0.0007
3979.00,0.0008
3978.00,0.0008
3977.00,0.0008
3976.00,0.0008
3975.00,0.0007
3974.00,0.0007
3973.00,0.0007
3972.00,0.0007
3971.00,0.0007
3970.00,0.0007
3969.00,0.0007
3968.00,0.0007
3967.00,0.0007
3966.00,0.0007
3965.00,0.0007
3964.00,0.0007
3963.00,0.0007
3962.00,0.0007
3961.00,0.0007
3960.00,0.0007
3959.00,0.0007
3958.00,0.0007
3957.00,0.0007
3956.00,0.0007
3955.00,0.0007
3954.00,0.0007
3953.00,0.0006
3952.00,0.0006
3951.00,0.0007
3950.00,0.0007
3949.00,0.0007
3948.00,0.0007
3947.00,0.0007
3946.00,0.0007
3945.00,0.0008
3944.00,0.0008
3943.00,0.0008
3942.00,0.0007
3941.00,0.0007
3940.00,0.0007
3939.00,0.0007
3938.00,0.0007
3937.00,0.0006
3936.00,0.0006
3935.00,0.0006
3934.00,0.0007
3933.00,0.0007
3932.00,0.0007
3931.00,0.0006
3930.00,0.0006
3929.00,0.0007
3928.00,0.0007
3927.00,0.0007
3926.00,0.0007
3925.00,0.0007
3924.00,0.0007
3923.00,0.0007
3922.00,0.0007
3921.00,0.0007
3920.00,0.0007
3919.00,0.0007
3918.00,0.0007
3917.00,0.0007
3916.00,0.0007
3915.00,0.0007
3914.00,0.0007
3913.00,0.0007
3912.00,0.0007
3911.00,0.0006
3910.00,0.0006
3909.00,0.0006
3908.00,0.0007
3907.00,0.0007
3906.00,0.0007
3905.00,0.0007
3904.00,0.0007
3903.00,0.0007
3902.00,0.0007
3901.00,0.0007
3900.00,0.0007
3899.00,0.0007
3898.00,0.0007
3897.00,0.0007
3896.00,0.0007
3895.00,0.0008
3894.00,0.0008
3893.00,0.0009
3892.00,0.0008
3891.00,0.0008
3890.00,0.0007
3889.00,0.0007
3888.00,0.0007
3887.00,0.0007
3886.00,0.0008
3885.00,0.0008
3884.00,0.0008
3883.00,0.0008
3882.00,0.0007
3881.00,0.0007
3880.00,0.0006
3879.00,0.0006
3878.00,0.0006
3877.00,0.0006
3876.00,0.0006
3875.00,0.0006
3874.00,0.0006
3873.00,0.0006
3872.00,0.0007
3871.00,0.0007
3870.00,0.0007
3869.00,0.0007
3868.00,0.0007
3867.00,0.0007
3866.00,0.0007
3865.00,0.0006
3864.00,0.0006
3863.00,0.0006
3862.00,0.0005
3861.00,0.0006
3860.00,0.0006
3859.00,0.0006
3858.00,0.0006
3857.00,0.0006
3856.00,0.0007
3855.00,0.0007
3854.00,0.0007
3853.00,0.0007
3852.00,0.0007
3851.00,0.0007
3850.00,0.0007
3849.00,0.0007
3848.00,0.0006
3847.00,0.0006
3846.00,0.0006
3845.00,0.0006
3844.00,0.0006
3843.00,0.0006
3842.00,0.0006
3841.00,0.0006
3840.00,0.0007
3839.00,0.0007
3838.00,0.0007
3837.00,0.0007
3836.00,0.0007
3835.00,0.0006
3834.00,0.0006
3833.00,0.0006
3832.00,0.0007
3831.00,0.0007
3830.00,0.0007
3829.00,0.0007
3828.00,0.0007
3827.00,0.0007
3826.00,0.0007
3825.00,0.0006
3824.00,0.0006
3823.00,0.0006
3822.00,0.0006
3821.00,0.0006
3820.00,0.0006
3819.00,0.0006
3818.00,0.0007
3817.00,0.0007
3816.00,0.0007
3815.00,0.0007
3814.00,0.0007
3813.00,0.0006
3812.00,0.0006
3811.00,0.0006
3810.00,0.0007
3809.00,0.0007
3808.00,0.0007
3807.00,0.0007
3806.00,0.0006
3805.00,0.0006
3804.00,0.0007
3803.00,0.0007
3802.00,0.0007
3801.00,0.0007
3800.00,0.0007
3799.00,0.0007
3798.00,0.0006
3797.00,0.0006
3796.00,0.0006
3795.00,0.0006
3794.00,0.0006
3793.00,0.0006
3792.00,0.0006
3791.00,0.0006
3790.00,0.0006
3789.00,0.0006
3788.00,0.0006
3787.00,0.0006
3786.00,0.0006
3785.00,0.0006
3784.00,0.0006
3783.00,0.0006
3782.00,0.0006
3781.00,0.0006
3780.00,0.0006
3779.00,0.0006
3778.00,0.0006
3777.00,0.0006
3776.00,0.0006
3775.00,0.0006
3774.00,0.0007
3773.00,0.0007
3772.00,0.0007
3771.00,0.0007
3770.00,0.0007
3769.00,0.0007
3768.00,0.0007
3767.00,0.0007
3766.00,0.0007
3765.00,0.0007
3764.00,0.0007
3763.00,0.0007
3762.00,0.0007
3761.00,0.0007
3760.00,0.0007
3759.00,0.0007
3758.00,0.0007
3757.00,0.0006
3756.00,0.0006
3755.00,0.0006
3754.00,0.0006
3753.00,0.0006
3752.00,0.0006
3751.00,0.0006
3750.00,0.0006
3749.00,0.0006
3748.00,0.0006
3747.00,0.0006
3746.00,0.0006
3745.00,0.0006
3744.00,0.0006
3743.00,0.0006
3742.00,0.0006
3741.00,0.0007
3740.00,0.0007
3739.00,0.0007
3738.00,0.0007
3737.00,0.0007
3736.00,0.0007
3735.00,0.0007
3734.00,0.0006
3733.00,0.0006
3732.00,0.0005
3731.00,0.0005
3730.00,0.0005
3729.00,0.0005
3728.00,0.0005
3727.00,0.0005
3726.00,0.0005
3725.00,0.0005
3724.00,0.0005
3723.00,0.0005
3722.00,0.0005
3721.00,0.0005
3720.00,0.0005
3719.00,0.0005
3718.00,0.0004
3717.00,0.0005
3716.00,0.0005
3715.00,0.0005
3714.00,0.0005
3713.00,0.0005
3712.00,0.0006
3711.00,0.0006
3710.00,0.0006
3709.00,0.0006
3708.00,0.0006
3707.00,0.0005
3706.00,0.0005
3705.00,0.0004
3704.00,0.0004
3703.00,0.0004
3702.00,0.0003
3701.00,0.0003
3700.00,0.0004
3699.00,0.0004
3698.00,0.0004
3697.00,0.0004
3696.00,0.0005
3695.00,0.0005
3694.00,0.0005
3693.00,0.0005
3692.00,0.0005
3691.00,0.0005
3690.00,0.0005
3689.00,0.0005
3688.00,0.0005
3687.00,0.0006
3686.00,0.0006
3685.00,0.0005
3684.00,0.0005
3683.00,0.0005
3682.00,0.0006
3681.00,0.0006
3680.00,0.0006
3679.00,0.0006
3678.00,0.0006
3677.00,0.0006
3676.00,0.0006
3675.00,0.0006
3674.00,0.0006
3673.00,0.0006
3672.00,0.0007
3671.00,0.0006
3670.00,0.0006
3669.00,0.0006
3668.00,0.0005
3667.00,0.0005
3666.00,0.0005
3665.00,0.0005
3664.00,0.0005
3663.00,0.0005
3662.00,0.0005
3661.00,0.0005
3660.00,0.0005
3659.00,0.0005
3658.00,0.0005
3657.00,0.0006
3656.00,0.0006
3655.00,0.0007
3654.00,0.0007
3653.00,0.0008
3652.00,0.0008
3651.00,0.0009
3650.00,0.0008
3649.00,0.0007
3648.00,0.0006
3647.00,0.0005
3646.00,0.0005
3645.00,0.0005
3644.00,0.0005
3643.00,0.0005
3642.00,0.0005
3641.00,0.0005
3640.00,0.0005
3639.00,0.0005
3638.00,0.0005
3637.00,0.0005
3636.00,0.0005
3635.00,0.0005
3634.00,0.0005
3633.00,0.0005
3632.00,0.0005
3631.00,0.0006
3630.00,0.0007
3629.00,0.0006
3628.00,0.0006
3627.00,0.0005
3626.00,0.0005
3625.00,0.0005
3624.00,0.0004
3623.00,0.0005
3622.00,0.0005
3621.00,0.0006
3620.00,0.0006
3619.00,0.0006
3618.00,0.0006
3617.00,0.0006
3616.00,0.0006
3615.00,0.0006
3614.00,0.0006
3613.00,0.0005
3612.00,0.0005
3611.00,0.0005
3610.00,0.0005
3609.00,0.0004
3608.00,0.0004
3607.00,0.0004
3606.00,0.0004
3605.00,0.0005
3604.00,0.0005
3603.00,0.0005
3602.00,0.0005
3601.00,0.0006
3600.00,0.0006
3599.00,0.0005
3598.00,0.0005
3597.00,0.0005
3596.00,0.0005
3595.00,0.0004
3594.00,0.0004
3593.00,0.0005
3592.00,0.0005
3591.00,0.0005
3590.00,0.0005
3589.00,0.0006
3588.00,0.0006
3587.00,0.0006
3586.00,0.0006
3585.00,0.0006
3584.00,0.0006
3583.00,0.0006
3582.00,0.0006
3581.00,0.0006
3580.00,0.0006
3579.00,0.0006
3578.00,0.0006
3577.00,0.0007
3576.00,0.0007
3575.00,0.0007
3574.00,0.0007
3573.00,0.0007
3572.00,0.0008
3571.00,0.0008
3570.00,0.0009
3569.00,0.0009
3568.00,0.0009
3567.00,0.0009
3566.00,0.0009
3565.00,0.0009
3564.00,0.0009
3563.00,0.0009
3562.00,0.0009
3561.00,0.0009
3560.00,0.0009
3559.00,0.0009
3558.00,0.0009
3557.00,0.0009
3556.00,0.0009
3555.00,0.0009
3554.00,0.0009
3553.00,0.0009
3552.00,0.0009
3551.00,0.0009
3550.00,0.0010
3549.00,0.0011
3548.00,0.0011
3547.00,0.0011
3546.00,0.0012
3545.00,0.0011
3544.00,0.0011
3543.00,0.0011
3542.00,0.0011
3541.00,0.0011
3540.00,0.0012
3539.00,0.0012
3538.00,0.0012
3537.00,0.0012
3536.00,0.0011
3535.00,0.0012
3534.00,0.0012
3533.00,0.0012
3532.00,0.0013
3531.00,0.0013
3530.00,0.0013
3529.00,0.0013
3528.00,0.0013
3527.00,0.0013
3526.00,0.0013
3525.00,0.0013
3524.00,0.0013
3523.00,0.0013
3522.00,0.0013
3521.00,0.0013
3520.00,0.0013
3519.00,0.0013
3518.00,0.0014
3517.00,0.0014
3516.00,0.0014
3515.00,0.0014
3514.00,0.0014
3513.00,0.0014
3512.00,0.0014
3511.00,0.0015
3510.00,0.0015
3509.00,0.0015
3508.00,0.0015
3507.00,0.0016
3506.00,0.0016
3505.00,0.0016
3504.00,0.0015
3503.00,0.0015
3502.00,0.0016
3501.00,0.0016
3500.00,0.0017
3499.00,0.0017
3498.00,0.0017
3497.00,0.0017
3496.00,0.0017
3495.00,0.0017
3494.00,0.0017
3493.00,0.0017
3492.00,0.0017
3491.00,0.0018
3490.00,0.0018
3489.00,0.0019
3488.00,0.0019
3487.00,0.0019
3486.00,0.0019
3485.00,0.0019
3484.00,0.0019
3483.00,0.0019
3482.00,0.0020
3481.00,0.0020
3480.00,0.0020
3479.00,0.0020
3478.00,0.0019
3477.00,0.0019
3476.00,0.0019
3475.00,0.0020
3474.00,0.0020
3473.00,0.0020
3472.00,0.0021
3471.00,0.0021
3470.00,0.0021
3469.00,0.0021
3468.00,0.0021
3467.00,0.0021
3466.00,0.0022
3465.00,0.0022
3464.00,0.0022
3463.00,0.0022
3462.00,0.0022
3461.00,0.0021
3460.00,0.0021
3459.00,0.0021
3458.00,0.0021
3457.00,0.0022
3456.00,0.0022
3455.00,0.0023
3454.00,0.0023
3453.00,0.0023
3452.00,0.0023
3451.00,0.0023
3450.00,0.0024
3449.00,0.0024
3448.00,0.0024
3447.00,0.0024
3446.00,0.0024
3445.00,0.0024
3444.00,0.0024
3443.00,0.0024
3442.00,0.0024
3441.00,0.0024
3440.00,0.0024
3439.00,0.0024
3438.00,0.0024
3437.00,0.0024
3436.00,0.0024
3435.00,0.0025
3434.00,0.0025
3433.00,0.0025
3432.00,0.0026
3431.00,0.0026
3430.00,0.0026
3429.00,0.0025
3428.00,0.0025
3427.00,0.0025
3426.00,0.0025
3425.00,0.0026
3424.00,0.0026
3423.00,0.0026
3422.00,0.0026
3421.00,0.0026
3420.00,0.0027
3419.00,0.0027
3418.00,0.0027
3417.00,0.0027
3416.00,0.0027
3415.00,0.0027
3414.00,0.0027
3413.00,0.0027
3412.00,0.0028
3411.00,0.0028
3410.00,0.0028
3409.00,0.0029
3408.00,0.0029
3407.00,0.0029
3406.00,0.0029
3405.00,0.0030
3404.00,0.0030
3403.00,0.0031
3402.00,0.0031
3401.00,0.0031
3400.00,0.0031
3399.00,0.0032
3398.00,0.0032
3397.00,0.0032
3396.00,0.0032
3395.00,0.0033
3394.00,0.0033
3393.00,0.0033
3392.00,0.0033
3391.00,0.0032
3390.00,0.0032
3389.00,0.0032
3388.00,0.0031
3387.00,0.0031
3386.00,0.0031
3385.00,0.0031
3384.00,0.0031
3383.00,0.0031
3382.00,0.0031
3381.00,0.0031
3380.00,0.0031
3379.00,0.0031
3378.00,0.0031
3377.00,0.0031
3376.00,0.0031
3375.00,0.0032
3374.00,0.0032
3373.00,0.0032
3372.00,0.0032
3371.00,0.0031
3370.00,0.0031
3369.00,0.0031
3368.00,0.0031
3367.00,0.0031
3366.00,0.0031
3365.00,0.0031
3364.00,0.0031
3363.00,0.0031
3362.00,0.0031
3361.00,0.0031
3360.00,0.0031
3359.00,0.0031
3358.00,0.0031
3357.00,0.0031
3356.00,0.0031
3355.00,0.0031
3354.00,0.0031
3353.00,0.0032
3352.00,0.0032
3351.00,0.0032
3350.00,0.0032
3349.00,0.0032
3348.00,0.0032
3347.00,0.0032
3346.00,0.0032
3345.00,0.0032
3344.00,0.0032
3343.00,0.0032
3342.00,0.0031
3341.00,0.0031
3340.00,0.0032
3339.00,0.0032
3338.00,0.0032
3337.00,0.0033
3336.00,0.0033
3335.00,0.0033
3334.00,0.0032
3333.00,0.0032
3332.00,0.0031
3331.00,0.0031
3330.00,0.0031
3329.00,0.0031
3328.00,0.0031
3327.00,0.0031
3326.00,0.0031
3325.00,0.0031
3324.00,0.0031
3323.00,0.0031
3322.00,0.0031
3321.00,0.0031
3320.00,0.0031
3319.00,0.0030
3318.00,0.0030
3317.00,0.0031
3316.00,0.0031
3315.00,0.0031
3314.00,0.0032
3313.00,0.0032
3312.00,0.0032
3311.00,0.0031
3310.00,0.0031
3309.00,0.0031
3308.00,0.0031
3307.00,0.0031
3306.00,0.0031
3305.00,0.0032
3304.00,0.0032
3303.00,0.0032
3302.00,0.0032
3301.00,0.0031
3300.00,0.0031
3299.00,0.0030
3298.00,0.0031
3297.00,0.0031
3296.00,0.0031
3295.00,0.0031
3294.00,0.0031
3293.00,0.0031
3292.00,0.0031
3291.00,0.0031
3290.00,0.0031
3289.00,0.0031
3288.00,0.0030
3287.00,0.0030
3286.00,0.0030
3285.00,0.0030
3284.00,0.0030
3283.00,0.0030
3282.00,0.0030
3281.00,0.0029
3280.00,0.0029
3279.00,0.0029
3278.00,0.0029
3277.00,0.0029
3276.00,0.0029
3275.00,0.0029
3274.00,0.0030
3273.00,0.0030
3272.00,0.0030
3271.00,0.0030
3270.00,0.0030
3269.00,0.0030
3268.00,0.0029
3267.00,0.0029
3266.00,0.0029
3265.00,0.0029
3264.00,0.0029
3263.00,0.0029
3262.00,0.0029
3261.00,0.0029
3260.00,0.0029
3259.00,0.0028
3258.00,0.0028
3257.00,0.0028
3256.00,0.0028
3255.00,0.0027
3254.00,0.0027
3253.00,0.0027
3252.00,0.0027
3251.00,0.0028
3250.00,0.0028
3249.00,0.0028
3248.00,0.0028
3247.00,0.0027
3246.00,0.0027
3245.00,0.0027
3244.00,0.0027
3243.00,0.0027
3242.00,0.0027
3241.00,0.0028
3240.00,0.0029
3239.00,0.0029
3238.00,0.0028
3237.00,0.0028
3236.00,0.0028
3235.00,0.0028
3234.00,0.0028
3233.00,0.0029
3232.00,0.0029
3231.00,0.0029
3230.00,0.0029
3229.00,0.0029
3228.00,0.0029
3227.00,0.0029
3226.00,0.0029
3225.00,0.0030
3224.00,0.0031
3223.00,0.0031
3222.00,0.0032
3221.00,0.0032
3220.00,0.0032
3219.00,0.0032
3218.00,0.0032
3217.00,0.0033
3216.00,0.0033
3215.00,0.0033
3214.00,0.0034
3213.00,0.0034
3212.00,0.0034
3211.00,0.0034
3210.00,0.0034
3209.00,0.0034
3208.00,0.0034
3207.00,0.0034
3206.00,0.0035
3205.00,0.0035
3204.00,0.0035
3203.00,0.0035
3202.00,0.0035
3201.00,0.0036
3200.00,0.0036
3199.00,0.0036
3198.00,0.0036
3197.00,0.0036
3196.00,0.0036
3195.00,0.0036
3194.00,0.0036
3193.00,0.0036
3192.00,0.0036
3191.00,0.0036
3190.00,0.0036
3189.00,0.0036
3188.00,0.0036
3187.00,0.0036
3186.00,0.0035
3185.00,0.0035
3184.00,0.0034
3183.00,0.0034
3182.00,0.0034
3181.00,0.0034
3180.00,0.0034
3179.00,0.0034
3178.00,0.0033
3177.00,0.0033
3176.00,0.0033
3175.00,0.0033
3174.00,0.0032
3173.00,0.0032
3172.00,0.0032
3171.00,0.0032
3170.00,0.0032
3169.00,0.0032
3168.00,0.0032
3167.00,0.0031
3166.00,0.0031
3165.00,0.0031
3164.00,0.0031
3163.00,0.0031
3162.00,0.0032
3161.00,0.0032
3160.00,0.0032
3159.00,0.0032
3158.00,0.0031
3157.00,0.0031
3156.00,0.0031
3155.00,0.0030
3154.00,0.0030
3153.00,0.0030
3152.00,0.0030
3151.00,0.0031
3150.00,0.0031
3149.00,0.0031
3148.00,0.0031
3147.00,0.0031
3146.00,0.0031
3145.00,0.0030
3144.00,0.0030
3143.00,0.0030
3142.00,0.0030
3141.00,0.0030
3140.00,0.0030
3139.00,0.0030
3138.00,0.0030
3137.00,0.0030
3136.00,0.0030
3135.00,0.0029
3134.00,0.0029
3133.00,0.0029
3132.00,0.0028
3131.00,0.0028
3130.00,0.0028
3129.00,0.0028
3128.00,0.0028
3127.00,0.0028
3126.00,0.0028
3125.00,0.0028
3124.00,0.0027
3123.00,0.0027
3122.00,0.0026
3121.00,0.0026
3120.00,0.0025
3119.00,0.0025
3118.00,0.0025
3117.00,0.0025
3116.00,0.0025
3115.00,0.0025
3114.00,0.0025
3113.00,0.0025
3112.00,0.0025
3111.00,0.0025
3110.00,0.0025
3109.00,0.0025
3108.00,0.0025
3107.00,0.0025
3106.00,0.0025
3105.00,0.0025
3104.00,0.0025
3103.00,0.0025
3102.00,0.0024
3101.00,0.0024
3100.00,0.0024
3099.00,0.0025
3098.00,0.0025
3097.00,0.0025
3096.00,0.0026
3095.00,0.0025
3094.00,0.0025
3093.00,0.0024
3092.00,0.0024
3091.00,0.0024
3090.00,0.0023
3089.00,0.0023
3088.00,0.0023
3087.00,0.0023
3086.00,0.0023
3085.00,0.0023
3084.00,0.0023
3083.00,0.0024
3082.00,0.0024
3081.00,0.0024
3080.00,0.0024
3079.00,0.0024
3078.00,0.0024
3077.00,0.0025
3076.00,0.0025
3075.00,0.0025
3074.00,0.0025
3073.00,0.0025
3072.00,0.0025
3071.00,0.0025
3070.00,0.0025
3069.00,0.0025
3068.00,0.0025
3067.00,0.0026
3066.00,0.0026
3065.00,0.0026
3064.00,0.0026
3063.00,0.0026
3062.00,0.0026
3061.00,0.0027
3060.00,0.0027
3059.00,0.0028
3058.00,0.0028
3057.00,0.0028
3056.00,0.0029
3055.00,0.0029
3054.00,0.0029
3053.00,0.0029
3052.00,0.0029
3051.00,0.0029
3050.00,0.0029
3049.00,0.0029
3048.00,0.0029
3047.00,0.0029
3046.00,0.0029
3045.00,0.0029
3044.00,0.0030
3043.00,0.0030
3042.00,0.0030
3041.00,0.0031
3040.00,0.0031
3039.00,0.0031
3038.00,0.0031
3037.00,0.0031
3036.00,0.0031
3035.00,0.0032
3034.00,0.0032
3033.00,0.0033
3032.00,0.0034
3031.00,0.0035
3030.00,0.0035
3029.00,0.0036
3028.00,0.0036
3027.00,0.0037
3026.00,0.0038
3025.00,0.0039
3024.00,0.0040
3023.00,0.0041
3022.00,0.0042
3021.00,0.0043
3020.00,0.0044
3019.00,0.0045
3018.00,0.0047
3017.00,0.0049
3016.00,0.0050
3015.00,0.0052
3014.00,0.0055
3013.00,0.0057
3012.00,0.0059
3011.00,0.0061
3010.00,0.0063
3009.00,0.0065
3008.00,0.0067
3007.00,0.0069
3006.00,0.0072
3005.00,0.0074
3004.00,0.0077
3003.00,0.0079
3002.00,0.0081
3001.00,0.0084
3000.00,0.0086
2999.00,0.0089
2998.00,0.0093
2997.00,0.0097
2996.00,0.0100
2995.00,0.0105
2994.00,0.0109
2993.00,0.0115
2992.00,0.0121
2991.00,0.0127
2990.00,0.0134
2989.00,0.0142
2988.00,0.0150
2987.00,0.0160
2986.00,0.0172
2985.00,0.0185
2984.00,0.0200
2983.00,0.0217
2982.00,0.0235
2981.00,0.0254
2980.00,0.0275
2979.00,0.0298
2978.00,0.0324
2977.00,0.0354
2976.00,0.0389
2975.00,0.0429
2974.00,0.0475
2973.00,0.0527
2972.00,0.0587
2971.00,0.0654
2970.00,0.0729
2969.00,0.0812
2968.00,0.0903
2967.00,0.1003
2966.00,0.1109
2965.00,0.1221
2964.00,0.1336
2963.00,0.1448
2962.00,0.1551
2961.00,0.1641
2960.00,0.1713
2959.00,0.1766
2958.00,0.1803
2957.00,0.1830
2956.00,0.1853
2955.00,0.1879
2954.00,0.1910
2953.00,0.1945
2952.00,0.1977
2951.00,0.1998
2950.00,0.1996
2949.00,0.1964
2948.00,0.1899
2947.00,0.1801
2946.00,0.1681
2945.00,0.1550
2944.00,0.1421
2943.00,0.1306
2942.00,0.1213
2941.00,0.1146
2940.00,0.1103
2939.00,0.1084
2938.00,0.1085
2937.00,0.1105
2936.00,0.1141
2935.00,0.1192
2934.00,0.1256
2933.00,0.1332
2932.00,0.1418
2931.00,0.1511
2930.00,0.1610
2929.00,0.1710
2928.00,0.1809
2927.00,0.1904
2926.00,0.1993
2925.00,0.2076
2924.00,0.2155
2923.00,0.2230
2922.00,0.2303
2921.00,0.2371
2920.00,0.2431
2919.00,0.2476
2918.00,0.2499
2917.00,0.2496
2916.00,0.2466
2915.00,0.2413
2914.00,0.2343
2913.00,0.2264
2912.00,0.2184
2911.00,0.2109
2910.00,0.2041
2909.00,0.1979
2908.00,0.1921
2907.00,0.1864
2906.00,0.1805
2905.00,0.1743
2904.00,0.1677
2903.00,0.1609
2902.00,0.1539
2901.00,0.1469
2900.00,0.1401
2899.00,0.1337
2898.00,0.1276
2897.00,0.1221
2896.00,0.1173
2895.00,0.1131
2894.00,0.1096
2893.00,0.1069
2892.00,0.1049
2891.00,0.1035
2890.00,0.1027
2889.00,0.1023
2888.00,0.1024
2887.00,0.1028
2886.00,0.1036
2885.00,0.1047
2884.00,0.1062
2883.00,0.1081
2882.00,0.1103
2881.00,0.1126
2880.00,0.1148
2879.00,0.1166
2878.00,0.1177
2877.00,0.1180
2876.00,0.1175
2875.00,0.1167
2874.00,0.1160
2873.00,0.1158
2872.00,0.1164
2871.00,0.1176
2870.00,0.1194
2869.00,0.1213
2868.00,0.1225
2867.00,0.1224
2866.00,0.1201
2865.00,0.1155
2864.00,0.1088
2863.00,0.1007
2862.00,0.0923
2861.00,0.0843
2860.00,0.0775
2859.00,0.0721
2858.00,0.0681
2857.00,0.0652
2856.00,0.0633
2855.00,0.0621
2854.00,0.0615
2853.00,0.0615
2852.00,0.0621
2851.00,0.0633
2850.00,0.0651
2849.00,0.0677
2848.00,0.0710
2847.00,0.0751
2846.00,0.0802
2845.00,0.0862
2844.00,0.0930
2843.00,0.1005
2842.00,0.1082
2841.00,0.1155
2840.00,0.1215
2839.00,0.1253
2838.00,0.1260
2837.00,0.1232
2836.00,0.1169
2835.00,0.1078
2834.00,0.0969
2833.00,0.0856
2832.00,0.0748
2831.00,0.0652
2830.00,0.0571
2829.00,0.0504
2828.00,0.0450
2827.00,0.0407
2826.00,0.0372
2825.00,0.0342
2824.00,0.0318
2823.00,0.0297
2822.00,0.0279
2821.00,0.0263
2820.00,0.0249
2819.00,0.0237
2818.00,0.0227
2817.00,0.0218
2816.00,0.0210
2815.00,0.0203
2814.00,0.0197
2813.00,0.0191
2812.00,0.0186
2811.00,0.0180
2810.00,0.0175
2809.00,0.0170
2808.00,0.0165
2807.00,0.0159
2806.00,0.0152
2805.00,0.0146
2804.00,0.0139
2803.00,0.0134
2802.00,0.0128
2801.00,0.0124
2800.00,0.0120
2799.00,0.0116
2798.00,0.0114
2797.00,0.0112
2796.00,0.0109
2795.00,0.0107
2794.00,0.0105
2793.00,0.0102
2792.00,0.0099
2791.00,0.0095
2790.00,0.0091
2789.00,0.0088
2788.00,0.0084
2787.00,0.0081
2786.00,0.0078
2785.00,0.0076
2784.00,0.0073
2783.00,0.0071
2782.00,0.0069
2781.00,0.0067
2780.00,0.0065
2779.00,0.0063
2778.00,0.0062
2777.00,0.0060
2776.00,0.0059
2775.00,0.0058
2774.00,0.0057
2773.00,0.0057
2772.00,0.0056
2771.00,0.0056
2770.00,0.0055
2769.00,0.0055
2768.00,0.0054
2767.00,0.0054
2766.00,0.0053
2765.00,0.0053
2764.00,0.0053
2763.00,0.0052
2762.00,0.0052
2761.00,0.0051
2760.00,0.0051
2759.00,0.0050
2758.00,0.0050
2757.00,0.0050
2756.00,0.0050
2755.00,0.0050
2754.00,0.0051
2753.00,0.0051
2752.00,0.0050
2751.00,0.0050
2750.00,0.0050
2749.00,0.0050
2748.00,0.0050
2747.00,0.0050
2746.00,0.0051
2745.00,0.0051
2744.00,0.0052
2743.00,0.0053
2742.00,0.0054
2741.00,0.0055
2740.00,0.0056
2739.00,0.0058
2738.00,0.0059
2737.00,0.0061
2736.00,0.0062
2735.00,0.0063
2734.00,0.0064
2733.00,0.0066
2732.00,0.0068
2731.00,0.0070
2730.00,0.0072
2729.00,0.0075
2728.00,0.0078
2727.00,0.0080
2726.00,0.0083
2725.00,0.0085
2724.00,0.0087
2723.00,0.0087
2722.00,0.0086
2721.00,0.0084
2720.00,0.0082
2719.00,0.0078
2718.00,0.0075
2717.00,0.0072
2716.00,0.0069
2715.00,0.0066
2714.00,0.0063
2713.00,0.0061
2712.00,0.0060
2711.00,0.0058
2710.00,0.0056
2709.00,0.0055
2708.00,0.0053
2707.00,0.0052
2706.00,0.0051
2705.00,0.0050
2704.00,0.0049
2703.00,0.0048
2702.00,0.0047
2701.00,0.0046
2700.00,0.0046
2699.00,0.0045
2698.00,0.0045
2697.00,0.0044
2696.00,0.0044
2695.00,0.0044
2694.00,0.0044
2693.00,0.0044
2692.00,0.0044
2691.00,0.0044
2690.00,0.0044
2689.00,0.0044
2688.00,0.0044
2687.00,0.0044
2686.00,0.0044
2685.00,0.0044
2684.00,0.0044
2683.00,0.0044
2682.00,0.0044
2681.00,0.0044
2680.00,0.0044
2679.00,0.0044
2678.00,0.0045
2677.00,0.0045
2676.00,0.0045
2675.00,0.0045
2674.00,0.0045
2673.00,0.0044
2672.00,0.0044
2671.00,0.0044
2670.00,0.0044
2669.00,0.0044
2668.00,0.0043
2667.00,0.0044
2666.00,0.0044
2665.00,0.0045
2664.00,0.0045
2663.00,0.0046
2662.00,0.0046
2661.00,0.0047
2660.00,0.0047
2659.00,0.0047
2658.00,0.0047
2657.00,0.0047
2656.00,0.0046
2655.00,0.0045
2654.00,0.0045
2653.00,0.0045
2652.00,0.0044
2651.00,0.0044
2650.00,0.0043
2649.00,0.0043
2648.00,0.0042
2647.00,0.0042
2646.00,0.0041
2645.00,0.0041
2644.00,0.0040
2643.00,0.0040
2642.00,0.0040
2641.00,0.0040
2640.00,0.0039
2639.00,0.0039
2638.00,0.0038
2637.00,0.0038
2636.00,0.0038
2635.00,0.0037
2634.00,0.0037
2633.00,0.0037
2632.00,0.0038
2631.00,0.0038
2630.00,0.0038
2629.00,0.0038
2628.00,0.0038
2627.00,0.0039
2626.00,0.0039
2625.00,0.0040
2624.00,0.0040
2623.00,0.0040
2622.00,0.0040
2621.00,0.0040
2620.00,0.0040
2619.00,0.0040
2618.00,0.0041
2617.00,0.0041
2616.00,0.0040
2615.00,0.0040
2614.00,0.0040
2613.00,0.0039
2612.00,0.0038
2611.00,0.0038
2610.00,0.0037
2609.00,0.0036
2608.00,0.0036
2607.00,0.0035
2606.00,0.0034
2605.00,0.0034
2604.00,0.0033
2603.00,0.0033
2602.00,0.0032
2601.00,0.0031
2600.00,0.0031
2599.00,0.0030
2598.00,0.0030
2597.00,0.0031
2596.00,0.0031
2595.00,0.0032
2594.00,0.0032
2593.00,0.0032
2592.00,0.0032
2591.00,0.0032
2590.00,0.0032
2589.00,0.0033
2588.00,0.0034
2587.00,0.0035
2586.00,0.0036
2585.00,0.0037
2584.00,0.0038
2583.00,0.0038
2582.00,0.0038
2581.00,0.0038
2580.00,0.0038
2579.00,0.0037
2578.00,0.0036
2577.00,0.0035
2576.00,0.0034
2575.00,0.0033
2574.00,0.0032
2573.00,0.0031
2572.00,0.0030
2571.00,0.0029
2570.00,0.0028
2569.00,0.0028
2568.00,0.0028
2567.00,0.0027
2566.00,0.0027
2565.00,0.0026
2564.00,0.0026
2563.00,0.0025
2562.00,0.0025
2561.00,0.0025
2560.00,0.0024
2559.00,0.0024
2558.00,0.0023
2557.00,0.0022
2556.00,0.0022
2555.00,0.0022
2554.00,0.0022
2553.00,0.0022
2552.00,0.0021
2551.00,0.0021
2550.00,0.0020
2549.00,0.0019
2548.00,0.0019
2547.00,0.0019
2546.00,0.0019
2545.00,0.0019
2544.00,0.0018
2543.00,0.0018
2542.00,0.0017
2541.00,0.0016
2540.00,0.0015
2539.00,0.0015
2538.00,0.0015
2537.00,0.0016
2536.00,0.0016
2535.00,0.0016
2534.00,0.0016
2533.00,0.0015
2532.00,0.0015
2531.00,0.0014
2530.00,0.0014
2529.00,0.0013
2528.00,0.0013
2527.00,0.0013
2526.00,0.0013
2525.00,0.0013
2524.00,0.0012
2523.00,0.0012
2522.00,0.0012
2521.00,0.0012
2520.00,0.0012
2519.00,0.0011
2518.00,0.0010
2517.00,0.0009
2516.00,0.0008
2515.00,0.0009
2514.00,0.0009
2513.00,0.0009
2512.00,0.0009
2511.00,0.0009
2510.00,0.0009
2509.00,0.0009
2508.00,0.0009
2507.00,0.0009
2506.00,0.0009
2505.00,0.0009
2504.00,0.0009
2503.00,0.0009
2502.00,0.0009
2501.00,0.0009
2500.00,0.0009
2499.00,0.0010
2498.00,0.0009
2497.00,0.0009
2496.00,0.0010
2495.00,0.0010
2494.00,0.0010
2493.00,0.0011
2492.00,0.0011
2491.00,0.0011
2490.00,0.0011
2489.00,0.0010
2488.00,0.0010
2487.00,0.0010
2486.00,0.0010
2485.00,0.0010
2484.00,0.0010
2483.00,0.0009
2482.00,0.0009
2481.00,0.0009
2480.00,0.0009
2479.00,0.0010
2478.00,0.0009
2477.00,0.0009
2476.00,0.0008
2475.00,0.0008
2474.00,0.0008
2473.00,0.0008
2472.00,0.0008
2471.00,0.0007
2470.00,0.0007
2469.00,0.0007
2468.00,0.0007
2467.00,0.0007
2466.00,0.0008
2465.00,0.0008
2464.00,0.0008
2463.00,0.0008
2462.00,0.0009
2461.00,0.0010
2460.00,0.0010
2459.00,0.0011
2458.00,0.0011
2457.00,0.0012
2456.00,0.0012
2455.00,0.0011
2454.00,0.0011
2453.00,0.0012
2452.00,0.0012
2451.00,0.0012
2450.00,0.0011
2449.00,0.0011
2448.00,0.0010
2447.00,0.0010
2446.00,0.0010
2445.00,0.0010
2444.00,0.0010
2443.00,0.0010
2442.00,0.0010
2441.00,0.0009
2440.00,0.0010
2439.00,0.0010
2438.00,0.0010
2437.00,0.0011
2436.00,0.0012
2435.00,0.0012
2434.00,0.0012
2433.00,0.0012
2432.00,0.0011
2431.00,0.0012
2430.00,0.0012
2429.00,0.0012
2428.00,0.0012
2427.00,0.0012
2426.00,0.0011
2425.00,0.0011
2424.00,0.0011
2423.00,0.0011
2422.00,0.0010
2421.00,0.0010
2420.00,0.0009
2419.00,0.0009
2418.00,0.0010
2417.00,0.0010
2416.00,0.0010
2415.00,0.0011
2414.00,0.0011
2413.00,0.0011
2412.00,0.0011
2411.00,0.0010
2410.00,0.0010
2409.00,0.0010
2408.00,0.0010
2407.00,0.0009
2406.00,0.0009
2405.00,0.0008
2404.00,0.0008
2403.00,0.0008
2402.00,0.0008
2401.00,0.0008
2400.00,0.0009
2399.00,0.0009
2398.00,0.0009
2397.00,0.0009
2396.00,0.0008
2395.00,0.0008
2394.00,0.0008
2393.00,0.0007
2392.00,0.0008
2391.00,0.0008
2390.00,0.0008
2389.00,0.0008
2388.00,0.0007
2387.00,0.0007
2386.00,0.0006
2385.00,0.0006
2384.00,0.0006
2383.00,0.0006
2382.00,0.0006
2381.00,0.0005
2380.00,0.0005
2379.00,0.0005
2378.00,0.0006
2377.00,0.0006
2376.00,0.0006
2375.00,0.0006
2374.00,0.0006
2373.00,0.0005
2372.00,0.0005
2371.00,0.0005
2370.00,0.0005
2369.00,0.0005
2368.00,0.0005
2367.00,0.0005
2366.00,0.0005
2365.00,0.0006
2364.00,0.0006
2363.00,0.0007
2362.00,0.0006
2361.00,0.0006
2360.00,0.0006
2359.00,0.0006
2358.00,0.0006
2357.00,0.0006
2356.00,0.0006
2355.00,0.0006
2354.00,0.0005
2353.00,0.0006
2352.00,0.0006
2351.00,0.0006
2350.00,0.0006
2349.00,0.0006
2348.00,0.0006
2347.00,0.0007
2346.00,0.0007
2345.00,0.0007
2344.00,0.0007
2343.00,0.0007
2342.00,0.0007
2341.00,0.0008
2340.00,0.0009
2339.00,0.0009
2338.00,0.0009
2337.00,0.0009
2336.00,0.0009
2335.00,0.0009
2334.00,0.0008
2333.00,0.0008
2332.00,0.0008
2331.00,0.0007
2330.00,0.0007
2329.00,0.0007
2328.00,0.0008
2327.00,0.0012
2326.00,0.0016
2325.00,0.0021
2324.00,0.0023
2323.00,0.0023
2322.00,0.0021
2321.00,0.0019
2320.00,0.0017
2319.00,0.0016
2318.00,0.0015
2317.00,0.0014
2316.00,0.0014
2315.00,0.0013
2314.00,0.0012
2313.00,0.0012
2312.00,0.0011
2311.00,0.0010
2310.00,0.0010
2309.00,0.0011
2308.00,0.0011
2307.00,0.0012
2306.00,0.0011
2305.00,0.0011
2304.00,0.0010
2303.00,0.0011
2302.00,0.0011
2301.00,0.0011
2300.00,0.0012
2299.00,0.0012
2298.00,0.0013
2297.00,0.0014
2296.00,0.0014
2295.00,0.0015
2294.00,0.0015
2293.00,0.0016
2292.00,0.0017
2291.00,0.0018
2290.00,0.0018
2289.00,0.0019
2288.00,0.0019
2287.00,0.0020
2286.00,0.0020
2285.00,0.0019
2284.00,0.0019
2283.00,0.0017
2282.00,0.0016
2281.00,0.0015
2280.00,0.0014
2279.00,0.0013
2278.00,0.0012
2277.00,0.0012
2276.00,0.0012
2275.00,0.0012
2274.00,0.0012
2273.00,0.0012
2272.00,0.0013
2271.00,0.0014
2270.00,0.0015
2269.00,0.0015
2268.00,0.0015
2267.00,0.0013
2266.00,0.0012
2265.00,0.0010
2264.00,0.0009
2263.00,0.0009
2262.00,0.0008
2261.00,0.0008
2260.00,0.0009
2259.00,0.0009
2258.00,0.0009
2257.00,0.0009
2256.00,0.0008
2255.00,0.0008
2254.00,0.0009
2253.00,0.0010
2252.00,0.0010
2251.00,0.0011
2250.00,0.0010
2249.00,0.0010
2248.00,0.0009
2247.00,0.0009
2246.00,0.0009
2245.00,0.0008
2244.00,0.0008
2243.00,0.0008
2242.00,0.0009
2241.00,0.0009
2240.00,0.0009
2239.00,0.0009
2238.00,0.0009
2237.00,0.0010
2236.00,0.0010
2235.00,0.0010
2234.00,0.0011
2233.00,0.0011
2232.00,0.0010
2231.00,0.0010
2230.00,0.0009
2229.00,0.0008
2228.00,0.0008
2227.00,0.0007
2226.00,0.0005
2225.00,0.0004
2224.00,0.0004
2223.00,0.0004
2222.00,0.0005
2221.00,0.0007
2220.00,0.0008
2219.00,0.0008
2218.00,0.0007
2217.00,0.0007
2216.00,0.0007
2215.00,0.0007
2214.00,0.0006
2213.00,0.0005
2212.00,0.0004
2211.00,0.0005
2210.00,0.0006
2209.00,0.0007
2208.00,0.0008
2207.00,0.0008
2206.00,0.0008
2205.00,0.0007
2204.00,0.0006
2203.00,0.0005
2202.00,0.0004
2201.00,0.0004
2200.00,0.0003
2199.00,0.0003
2198.00,0.0003
2197.00,0.0004
2196.00,0.0007
2195.00,0.0010
2194.00,0.0012
2193.00,0.0013
2192.00,0.0012
2191.00,0.0011
2190.00,0.0010
2189.00,0.0011
2188.00,0.0012
2187.00,0.0013
2186.00,0.0012
2185.00,0.0011
2184.00,0.0009
2183.00,0.0008
2182.00,0.0006
2181.00,0.0005
2180.00,0.0005
2179.00,0.0004
2178.00,0.0004
2177.00,0.0003
2176.00,0.0002
2175.00,0.0003
2174.00,0.0004
2173.00,0.0006
2172.00,0.0009
2171.00,0.0010
2170.00,0.0010
2169.00,0.0011
2168.00,0.0012
2167.00,0.0013
2166.00,0.0013
2165.00,0.0013
2164.00,0.0014
2163.00,0.0017
2162.00,0.0019
2161.00,0.0017
2160.00,0.0008
2159.00,-0.0004
2158.00,-0.0016
2157.00,-0.0023
2156.00,-0.0025
2155.00,-0.0027
2154.00,-0.0027
2153.00,-0.0026
2152.00,-0.0023
2151.00,-0.0019
2150.00,-0.0016
2149.00,-0.0014
2148.00,-0.0013
2147.00,-0.0013
2146.00,-0.0012
2145.00,-0.0011
2144.00,-0.0010
2143.00,-0.0010
2142.00,-0.0012
2141.00,-0.0013
2140.00,-0.0014
2139.00,-0.0014
2138.00,-0.0015
2137.00,-0.0016
2136.00,-0.0017
2135.00,-0.0019
2134.00,-0.0020
2133.00,-0.0019
2132.00,-0.0018
2131.00,-0.0016
2130.00,-0.0014
2129.00,-0.0011
2128.00,-0.0008
2127.00,-0.0006
2126.00,-0.0004
2125.00,-0.0003
2124.00,-0.0003
2123.00,-0.0003
2122.00,-0.0003
2121.00,-0.0003
2120.00,-0.0002
2119.00,-0.0002
2118.00,-0.0001
2117.00,-0.0000
2116.00,0.0001
2115.00,0.0003
2114.00,0.0003
2113.00,0.0003
2112.00,0.0002
2111.00,0.0002
2110.00,0.0003
2109.00,0.0004
2108.00,0.0005
2107.00,0.0004
2106.00,0.0002
2105.00,0.0000
2104.00,-0.0001
2103.00,-0.0001
2102.00,-0.0000
2101.00,-0.0000
2100.00,-0.0000
2099.00,-0.0001
2098.00,-0.0001
2097.00,-0.0002
2096.00,-0.0003
2095.00,-0.0003
2094.00,-0.0004
2093.00,-0.0003
2092.00,-0.0002
2091.00,-0.0001
2090.00,0.0000
2089.00,0.0002
2088.00,0.0005
2087.00,0.0006
2086.00,0.0007
2085.00,0.0007
2084.00,0.0006
2083.00,0.0005
2082.00,0.0005
2081.00,0.0006
2080.00,0.0006
2079.00,0.0006
2078.00,0.0005
2077.00,0.0004
2076.00,0.0004
2075.00,0.0003
2074.00,0.0003
2073.00,0.0003
2072.00,0.0003
2071.00,0.0002
2070.00,0.0002
2069.00,0.0002
2068.00,0.0002
2067.00,0.0002
2066.00,0.0000
2065.00,-0.0001
2064.00,-0.0001
2063.00,-0.0001
2062.00,-0.0001
2061.00,-0.0001
2060.00,-0.0001
2059.00,-0.0001
2058.00,-0.0001
2057.00,-0.0000
2056.00,-0.0000
2055.00,-0.0001
2054.00,-0.0000
2053.00,0.0003
2052.00,0.0008
2051.00,0.0011
2050.00,0.0011
2049.00,0.0008
2048.00,0.0005
2047.00,0.0002
2046.00,0.0000
2045.00,-0.0001
2044.00,-0.0003
2043.00,-0.0004
2042.00,-0.0004
2041.00,-0.0003
2040.00,-0.0001
2039.00,-0.0001
2038.00,-0.0002
2037.00,-0.0003
2036.00,-0.0005
2035.00,-0.0007
2034.00,-0.0008
2033.00,-0.0009
2032.00,-0.0009
2031.00,-0.0009
2030.00,-0.0008
2029.00,-0.0007
2028.00,-0.0006
2027.00,-0.0006
2026.00,-0.0007
2025.00,-0.0007
2024.00,-0.0007
2023.00,-0.0007
2022.00,-0.0008
2021.00,-0.0011
2020.00,-0.0013
2019.00,-0.0014
2018.00,-0.0014
2017.00,-0.0014
2016.00,-0.0013
2015.00,-0.0013
2014.00,-0.0012
2013.00,-0.0011
2012.00,-0.0008
2011.00,-0.0006
2010.00,-0.0006
2009.00,-0.0008
2008.00,-0.0011
2007.00,-0.0014
2006.00,-0.0017
2005.00,-0.0019
2004.00,-0.0018
2003.00,-0.0015
2002.00,-0.0012
2001.00,-0.0008
2000.00,-0.0006
1999.00,-0.0006
1998.00,-0.0007
1997.00,-0.0010
1996.00,-0.0012
1995.00,-0.0012
1994.00,-0.0011
1993.00,-0.0008
1992.00,-0.0005
1991.00,-0.0002
1990.00,-0.0001
1989.00,-0.0000
1988.00,-0.0000
1987.00,-0.0000
1986.00,-0.0000
1985.00,0.0000
1984.00,0.0001
1983.00,0.0003
1982.00,0.0006
1981.00,0.0009
1980.00,0.0008
1979.00,0.0003
1978.00,-0.0005
1977.00,-0.0011
1976.00,-0.0014
1975.00,-0.0014
1974.00,-0.0014
1973.00,-0.0016
1972.00,-0.0017
1971.00,-0.0017
1970.00,-0.0015
1969.00,-0.0011
1968.00,-0.0007
1967.00,-0.0006
1966.00,-0.0007
1965.00,-0.0009
1964.00,-0.0012
1963.00,-0.0015
1962.00,-0.0018
1961.00,-0.0020
1960.00,-0.0020
1959.00,-0.0021
1958.00,-0.0021
1957.00,-0.0020
1956.00,-0.0020
1955.00,-0.0020
1954.00,-0.0021
1953.00,-0.0022
1952.00,-0.0023
1951.00,-0.0023
1950.00,-0.0022
1949.00,-0.0021
1948.00,-0.0020
1947.00,-0.0020
1946.00,-0.0022
1945.00,-0.0022
1944.00,-0.0023
1943.00,-0.0022
1942.00,-0.0020
1941.00,-0.0018
1940.00,-0.0016
1939.00,-0.0015
1938.00,-0.0014
1937.00,-0.0012
1936.00,-0.0011
1935.00,-0.0010
1934.00,-0.0010
1933.00,-0.0010
1932.00,-0.0011
1931.00,-0.0010
1930.00,-0.0010
1929.00,-0.0009
1928.00,-0.0009
1927.00,-0.0009
1926.00,-0.0010
1925.00,-0.0011
1924.00,-0.0012
1923.00,-0.0012
1922.00,-0.0010
1921.00,-0.0008
1920.00,-0.0007
1919.00,-0.0006
1918.00,-0.0007
1917.00,-0.0006
1916.00,-0.0005
1915.00,-0.0003
1914.00,-0.0003
1913.00,-0.0003
1912.00,-0.0003
1911.00,-0.0003
1910.00,-0.0003
1909.00,-0.0004
1908.00,-0.0004
1907.00,-0.0004
1906.00,-0.0004
1905.00,-0.0004
1904.00,-0.0004
1903.00,-0.0003
1902.00,-0.0002
1901.00,-0.0002
1900.00,-0.0002
1899.00,-0.0002
1898.00,-0.0003
1897.00,-0.0002
1896.00,-0.0002
1895.00,-0.0001
1894.00,-0.0000
1893.00,0.0000
1892.00,0.0000
1891.00,-0.0000
1890.00,-0.0001
1889.00,-0.0002
1888.00,-0.0002
1887.00,-0.0003
1886.00,-0.0003
1885.00,-0.0002
1884.00,-0.0001
1883.00,-0.0001
1882.00,-0.0001
1881.00,-0.0001
1880.00,-0.0002
1879.00,-0.0003
1878.00,-0.0003
1877.00,-0.0003
1876.00,-0.0003
1875.00,-0.0002
1874.00,-0.0002
1873.00,-0.0002
1872.00,-0.0003
1871.00,-0.0003
1870.00,-0.0003
1869.00,-0.0002
1868.00,-0.0001
1867.00,-0.0001
1866.00,-0.0000
1865.00,-0.0000
1864.00,0.0000
1863.00,-0.0000
1862.00,-0.0001
1861.00,-0.0001
1860.00,-0.0001
1859.00,-0.0001
1858.00,-0.0001
1857.00,-0.0001
1856.00,-0.0000
1855.00,-0.0000
1854.00,0.0000
1853.00,0.0000
1852.00,0.0001
1851.00,0.0002
1850.00,0.0002
1849.00,0.0002
1848.00,0.0001
1847.00,0.0001
1846.00,-0.0000
1845.00,-0.0001
1844.00,-0.0001
1843.00,-0.0000
1842.00,0.0001
1841.00,0.0001
1840.00,0.0002
1839.00,0.0003
1838.00,0.0004
1837.00,0.0004
1836.00,0.0004
1835.00,0.0004
1834.00,0.0003
1833.00,0.0003
1832.00,0.0002
1831.00,0.0002
1830.00,0.0002
1829.00,0.0002
1828.00,0.0003
1827.00,0.0003
1826.00,0.0003
1825.00,0.0003
1824.00,0.0003
1823.00,0.0003
1822.00,0.0003
1821.00,0.0003
1820.00,0.0002
1819.00,0.0002
1818.00,0.0001
1817.00,-0.0000
1816.00,-0.0000
1815.00,0.0000
1814.00,0.0001
1813.00,0.0002
1812.00,0.0003
1811.00,0.0003
1810.00,0.0004
1809.00,0.0004
1808.00,0.0004
1807.00,0.0004
1806.00,0.0004
1805.00,0.0004
1804.00,0.0005
1803.00,0.0005
1802.00,0.0006
1801.00,0.0007
1800.00,0.0007
1799.00,0.0007
1798.00,0.0007
1797.00,0.0007
1796.00,0.0007
1795.00,0.0007
1794.00,0.0006
1793.00,0.0007
1792.00,0.0007
1791.00,0.0008
1790.00,0.0008
1789.00,0.0008
1788.00,0.0008
1787.00,0.0009
1786.00,0.0009
1785.00,0.0009
1784.00,0.0010
1783.00,0.0009
1782.00,0.0009
1781.00,0.0009
1780.00,0.0010
1779.00,0.0010
1778.00,0.0011
1777.00,0.0011
1776.00,0.0012
1775.00,0.0013
1774.00,0.0014
1773.00,0.0014
1772.00,0.0014
1771.00,0.0014
1770.00,0.0015
1769.00,0.0016
1768.00,0.0017
1767.00,0.0018
1766.00,0.0020
1765.00,0.0021
1764.00,0.0024
1763.00,0.0027
1762.00,0.0030
1761.00,0.0033
1760.00,0.0037
1759.00,0.0042
1758.00,0.0047
1757.00,0.0054
1756.00,0.0062
1755.00,0.0070
1754.00,0.0076
1753.00,0.0082
1752.00,0.0089
1751.00,0.0096
1750.00,0.0102
1749.00,0.0106
1748.00,0.0109
1747.00,0.0109
1746.00,0.0109
1745.00,0.0107
1744.00,0.0103
1743.00,0.0099
1742.00,0.0094
1741.00,0.0088
1740.00,0.0082
1739.00,0.0077
1738.00,0.0072
1737.00,0.0069
1736.00,0.0065
1735.00,0.0061
1734.00,0.0055
1733.00,0.0050
1732.00,0.0047
1731.00,0.0044
1730.00,0.0042
1729.00,0.0040
1728.00,0.0038
1727.00,0.0036
1726.00,0.0034
1725.00,0.0033
1724.00,0.0032
1723.00,0.0031
1722.00,0.0031
1721.00,0.0030
1720.00,0.0029
1719.00,0.0029
1718.00,0.0028
1717.00,0.0027
1716.00,0.0027
1715.00,0.0027
1714.00,0.0027
1713.00,0.0027
1712.00,0.0027
1711.00,0.0028
1710.00,0.0028
1709.00,0.0028
1708.00,0.0027
1707.00,0.0027
1706.00,0.0027
1705.00,0.0028
1704.00,0.0028
1703.00,0.0029
1702.00,0.0029
1701.00,0.0029
1700.00,0.0029
1699.00,0.0029
1698.00,0.0030
1697.00,0.0030
1696.00,0.0031
1695.00,0.0031
1694.00,0.0032
1693.00,0.0032
1692.00,0.0032
1691.00,0.0032
1690.00,0.0033
1689.00,0.0033
1688.00,0.0033
1687.00,0.0034
1686.00,0.0034
1685.00,0.0034
1684.00,0.0035
1683.00,0.0035
1682.00,0.0035
1681.00,0.0036
1680.00,0.0036
1679.00,0.0037
1678.00,0.0037
1677.00,0.0038
1676.00,0.0038
1675.00,0.0038
1674.00,0.0039
1673.00,0.0040
1672.00,0.0040
1671.00,0.0040
1670.00,0.0040
1669.00,0.0041
1668.00,0.0041
1667.00,0.0042
1666.00,0.0042
1665.00,0.0043
1664.00,0.0044
1663.00,0.0044
1662.00,0.0044
1661.00,0.0044
1660.00,0.0045
1659.00,0.0045
1658.00,0.0046
1657.00,0.0047
1656.00,0.0048
1655.00,0.0050
1654.00,0.0052
1653.00,0.0053
1652.00,0.0054
1651.00,0.0054
1650.00,0.0054
1649.00,0.0055
1648.00,0.0057
1647.00,0.0058
1646.00,0.0059
1645.00,0.0059
1644.00,0.0058
1643.00,0.0057
1642.00,0.0055
1641.00,0.0054
1640.00,0.0053
1639.00,0.0053
1638.00,0.0053
1637.00,0.0052
1636.00,0.0052
1635.00,0.0051
1634.00,0.0051
1633.00,0.0051
1632.00,0.0051
1631.00,0.0051
1630.00,0.0050
1629.00,0.0050
1628.00,0.0049
1627.00,0.0049
1626.00,0.0048
1625.00,0.0046
1624.00,0.0045
1623.00,0.0045
1622.00,0.0044
1621.00,0.0044
1620.00,0.0044
1619.00,0.0044
1618.00,0.0044
1617.00,0.0044
1616.00,0.0044
1615.00,0.0043
1614.00,0.0042
1613.00,0.0041
1612.00,0.0041
1611.00,0.0041
1610.00,0.0041
1609.00,0.0042
1608.00,0.0041
1607.00,0.0041
1606.00,0.0041
1605.00,0.0041
1604.00,0.0041
1603.00,0.0041
1602.00,0.0041
1601.00,0.0041
1600.00,0.0041
1599.00,0.0041
1598.00,0.0041
1597.00,0.0040
1596.00,0.0040
1595.00,0.0039
1594.00,0.0039
1593.00,0.0039
1592.00,0.0040
1591.00,0.0040
1590.00,0.0041
1589.00,0.0041
1588.00,0.0041
1587.00,0.0041
1586.00,0.0042
1585.00,0.0042
1584.00,0.0042
1583.00,0.0043
1582.00,0.0043
1581.00,0.0044
1580.00,0.0045
1579.00,0.0046
1578.00,0.0046
1577.00,0.0046
1576.00,0.0045
1575.00,0.0045
1574.00,0.0044
1573.00,0.0044
1572.00,0.0045
1571.00,0.0045
1570.00,0.0044
1569.00,0.0044
1568.00,0.0044
1567.00,0.0044
1566.00,0.0045
1565.00,0.0045
1564.00,0.0044
1563.00,0.0044
1562.00,0.0043
1561.00,0.0044
1560.00,0.0045
1559.00,0.0045
1558.00,0.0045
1557.00,0.0046
1556.00,0.0046
1555.00,0.0046
1554.00,0.0046
1553.00,0.0047
1552.00,0.0048
1551.00,0.0049
1550.00,0.0050
1549.00,0.0050
1548.00,0.0051
1547.00,0.0051
1546.00,0.0052
1545.00,0.0053
1544.00,0.0054
1543.00,0.0054
1542.00,0.0054
1541.00,0.0055
1540.00,0.0055
1539.00,0.0055
1538.00,0.0054
1537.00,0.0054
1536.00,0.0054
1535.00,0.0053
1534.00,0.0052
1533.00,0.0051
1532.00,0.0051
1531.00,0.0050
1530.00,0.0050
1529.00,0.0050
1528.00,0.0051
1527.00,0.0050
1526.00,0.0050
1525.00,0.0050
1524.00,0.0050
1523.00,0.0049
1522.00,0.0048
1521.00,0.0049
1520.00,0.0050
1519.00,0.0050
1518.00,0.0051
1517.00,0.0051
1516.00,0.0052
1515.00,0.0052
1514.00,0.0052
1513.00,0.0053
1512.00,0.0054
1511.00,0.0054
1510.00,0.0055
1509.00,0.0056
1508.00,0.0058
1507.00,0.0059
1506.00,0.0060
1505.00,0.0061
1504.00,0.0062
1503.00,0.0063
1502.00,0.0065
1501.00,0.0067
1500.00,0.0069
1499.00,0.0072
1498.00,0.0074
1497.00,0.0077
1496.00,0.0080
1495.00,0.0082
1494.00,0.0084
1493.00,0.0086
1492.00,0.0089
1491.00,0.0092
1490.00,0.0096
1489.00,0.0101
1488.00,0.0106
1487.00,0.0111
1486.00,0.0115
1485.00,0.0120
1484.00,0.0126
1483.00,0.0133
1482.00,0.0141
1481.00,0.0151
1480.00,0.0162
1479.00,0.0174
1478.00,0.0188
1477.00,0.0206
1476.00,0.0229
1475.00,0.0255
1474.00,0.0290
1473.00,0.0344
1472.00,0.0409
1471.00,0.0473
1470.00,0.0534
1469.00,0.0598
1468.00,0.0667
1467.00,0.0742
1466.00,0.0828
1465.00,0.0922
1464.00,0.1007
1463.00,0.1069
1462.00,0.1111
1461.00,0.1143
1460.00,0.1169
1459.00,0.1190
1458.00,0.1212
1457.00,0.1233
1456.00,0.1245
1455.00,0.1247
1454.00,0.1245
1453.00,0.1238
1452.00,0.1221
1451.00,0.1189
1450.00,0.1140
1449.00,0.1066
1448.00,0.0969
1447.00,0.0864
1446.00,0.0769
1445.00,0.0687
1444.00,0.0617
1443.00,0.0559
1442.00,0.0515
1441.00,0.0486
1440.00,0.0467
1439.00,0.0457
1438.00,0.0454
1437.00,0.0451
1436.00,0.0436
1435.00,0.0408
1434.00,0.0370
1433.00,0.0326
1432.00,0.0279
1431.00,0.0239
1430.00,0.0208
1429.00,0.0185
1428.00,0.0170
1427.00,0.0160
1426.00,0.0154
1425.00,0.0149
1424.00,0.0143
1423.00,0.0141
1422.00,0.0139
1421.00,0.0138
1420.00,0.0136
1419.00,0.0133
1418.00,0.0131
1417.00,0.0128
1416.00,0.0126
1415.00,0.0125
1414.00,0.0124
1413.00,0.0122
1412.00,0.0120
1411.00,0.0119
1410.00,0.0119
1409.00,0.0118
1408.00,0.0117
1407.00,0.0117
1406.00,0.0118
1405.00,0.0119
1404.00,0.0119
1403.00,0.0120
1402.00,0.0122
1401.00,0.0124
1400.00,0.0125
1399.00,0.0128
1398.00,0.0131
1397.00,0.0133
1396.00,0.0135
1395.00,0.0139
1394.00,0.0145
1393.00,0.0151
1392.00,0.0157
1391.00,0.0166
1390.00,0.0179
1389.00,0.0196
1388.00,0.0222
1387.00,0.0262
1386.00,0.0313
1385.00,0.0378
1384.00,0.0462
1383.00,0.0573
1382.00,0.0717
1381.00,0.0897
1380.00,0.1117
1379.00,0.1365
1378.00,0.1605
1377.00,0.1786
1376.00,0.1853
1375.00,0.1774
1374.00,0.1567
1373.00,0.1308
1372.00,0.1066
1371.00,0.0862
1370.00,0.0698
1369.00,0.0570
1368.00,0.0482
1367.00,0.0427
1366.00,0.0397
1365.00,0.0385
1364.00,0.0387
1363.00,0.0400
1362.00,0.0421
1361.00,0.0444
1360.00,0.0460
1359.00,0.0464
1358.00,0.0452
1357.00,0.0426
1356.00,0.0388
1355.00,0.0346
1354.00,0.0305
1353.00,0.0269
1352.00,0.0241
1351.00,0.0219
1350.00,0.0201
1349.00,0.0186
1348.00,0.0174
1347.00,0.0164
1346.00,0.0156
1345.00,0.0150
1344.00,0.0145
1343.00,0.0141
1342.00,0.0138
1341.00,0.0135
1340.00,0.0132
1339.00,0.0130
1338.00,0.0128
1337.00,0.0127
1336.00,0.0128
1335.00,0.0129
1334.00,0.0132
1333.00,0.0136
1332.00,0.0141
1331.00,0.0145
1330.00,0.0146
1329.00,0.0145
1328.00,0.0141
1327.00,0.0137
1326.00,0.0131
1325.00,0.0125
1324.00,0.0119
1323.00,0.0113
1322.00,0.0109
1321.00,0.0106
1320.00,0.0104
1319.00,0.0102
1318.00,0.0100
1317.00,0.0098
1316.00,0.0097
1315.00,0.0095
1314.00,0.0095
1313.00,0.0095
1312.00,0.0095
1311.00,0.0098
1310.00,0.0104
1309.00,0.0112
1308.00,0.0124
1307.00,0.0139
1306.00,0.0153
1305.00,0.0163
1304.00,0.0166
1303.00,0.0162
1302.00,0.0155
1301.00,0.0148
1300.00,0.0143
1299.00,0.0140
1298.00,0.0140
1297.00,0.0139
1296.00,0.0137
1295.00,0.0135
1294.00,0.0131
1293.00,0.0126
1292.00,0.0120
1291.00,0.0115
1290.00,0.0111
1289.00,0.0106
1288.00,0.0103
1287.00,0.0101
1286.00,0.0099
1285.00,0.0097
1284.00,0.0096
1283.00,0.0094
1282.00,0.0093
1281.00,0.0092
1280.00,0.0091
1279.00,0.0091
1278.00,0.0091
1277.00,0.0091
1276.00,0.0090
1275.00,0.0090
1274.00,0.0090
1273.00,0.0090
1272.00,0.0091
1271.00,0.0092
1270.00,0.0094
1269.00,0.0095
1268.00,0.0096
1267.00,0.0097
1266.00,0.0099
1265.00,0.0101
1264.00,0.0104
1263.00,0.0108
1262.00,0.0113
1261.00,0.0119
1260.00,0.0127
1259.00,0.0137
1258.00,0.0146
1257.00,0.0155
1256.00,0.0159
1255.00,0.0158
1254.00,0.0151
1253.00,0.0142
1252.00,0.0133
1251.00,0.0125
1250.00,0.0119
1249.00,0.0115
1248.00,0.0112
1247.00,0.0110
1246.00,0.0109
1245.00,0.0108
1244.00,0.0108
1243.00,0.0107
1242.00,0.0107
1241.00,0.0106
1240.00,0.0105
1239.00,0.0104
1238.00,0.0103
1237.00,0.0102
1236.00,0.0101
1235.00,0.0100
1234.00,0.0099
1233.00,0.0098
1232.00,0.0098
1231.00,0.0098
1230.00,0.0098
1229.00,0.0099
1228.00,0.0099
1227.00,0.0099
1226.00,0.0100
1225.00,0.0102
1224.00,0.0105
1223.00,0.0108
1222.00,0.0111
1221.00,0.0114
1220.00,0.0116
1219.00,0.0116
1218.00,0.0115
1217.00,0.0113
1216.00,0.0111
1215.00,0.0109
1214.00,0.0106
1213.00,0.0102
1212.00,0.0099
1211.00,0.0097
1210.00,0.0095
1209.00,0.0094
1208.00,0.0092
1207.00,0.0091
1206.00,0.0090
1205.00,0.0090
1204.00,0.0091
1203.00,0.0091
1202.00,0.0092
1201.00,0.0092
1200.00,0.0092
1199.00,0.0092
1198.00,0.0093
1197.00,0.0093
1196.00,0.0093
1195.00,0.0093
1194.00,0.0094
1193.00,0.0095
1192.00,0.0096
1191.00,0.0097
1190.00,0.0098
1189.00,0.0100
1188.00,0.0101
1187.00,0.0103
1186.00,0.0104
1185.00,0.0106
1184.00,0.0108
1183.00,0.0110
1182.00,0.0114
1181.00,0.0118
1180.00,0.0124
1179.00,0.0131
1178.00,0.0139
1177.00,0.0150
1176.00,0.0165
1175.00,0.0184
1174.00,0.0209
1173.00,0.0241
1172.00,0.0279
1171.00,0.0322
1170.00,0.0364
1169.00,0.0399
1168.00,0.0422
1167.00,0.0429
1166.00,0.0421
1165.00,0.0401
1164.00,0.0376
1163.00,0.0350
1162.00,0.0327
1161.00,0.0307
1160.00,0.0291
1159.00,0.0278
1158.00,0.0268
1157.00,0.0260
1156.00,0.0254
1155.00,0.0249
1154.00,0.0245
1153.00,0.0240
1152.00,0.0234
1151.00,0.0226
1150.00,0.0216
1149.00,0.0206
1148.00,0.0195
1147.00,0.0184
1146.00,0.0175
1145.00,0.0166
1144.00,0.0158
1143.00,0.0150
1142.00,0.0142
1141.00,0.0135
1140.00,0.0129
1139.00,0.0123
1138.00,0.0117
1137.00,0.0112
1136.00,0.0107
1135.00,0.0103
1134.00,0.0100
1133.00,0.0098
1132.00,0.0096
1131.00,0.0095
1130.00,0.0095
1129.00,0.0095
1128.00,0.0095
1127.00,0.0095
1126.00,0.0095
1125.00,0.0096
1124.00,0.0096
1123.00,0.0096
1122.00,0.0096
1121.00,0.0097
1120.00,0.0098
1119.00,0.0099
1118.00,0.0099
1117.00,0.0100
1116.00,0.0100
1115.00,0.0100
1114.00,0.0101
1113.00,0.0103
1112.00,0.0105
1111.00,0.0107
1110.00,0.0110
1109.00,0.0114
1108.00,0.0120
1107.00,0.0126
1106.00,0.0133
1105.00,0.0140
1104.00,0.0145
1103.00,0.0149
1102.00,0.0149
1101.00,0.0146
1100.00,0.0142
1099.00,0.0137
1098.00,0.0132
1097.00,0.0127
1096.00,0.0121
1095.00,0.0116
1094.00,0.0112
1093.00,0.0108
1092.00,0.0106
1091.00,0.0103
1090.00,0.0101
1089.00,0.0099
1088.00,0.0098
1087.00,0.0097
1086.00,0.0096
1085.00,0.0095
1084.00,0.0095
1083.00,0.0095
1082.00,0.0094
1081.00,0.0093
1080.00,0.0091
1079.00,0.0089
1078.00,0.0087
1077.00,0.0086
1076.00,0.0086
1075.00,0.0085
1074.00,0.0085
1073.00,0.0084
1072.00,0.0084
1071.00,0.0084
1070.00,0.0084
1069.00,0.0085
1068.00,0.0085
1067.00,0.0084
1066.00,0.0084
1065.00,0.0084
1064.00,0.0084
1063.00,0.0085
1062.00,0.0086
1061.00,0.0086
1060.00,0.0086
1059.00,0.0086
1058.00,0.0087
1057.00,0.0087
1056.00,0.0087
1055.00,0.0087
1054.00,0.0087
1053.00,0.0088
1052.00,0.0088
1051.00,0.0088
1050.00,0.0090
1049.00,0.0092
1048.00,0.0096
1047.00,0.0100
1046.00,0.0104
1045.00,0.0106
1044.00,0.0105
1043.00,0.0104
1042.00,0.0101
1041.00,0.0099
1040.00,0.0097
1039.00,0.0095
1038.00,0.0094
1037.00,0.0093
1036.00,0.0092
1035.00,0.0092
1034.00,0.0092
1033.00,0.0091
1032.00,0.0090
1031.00,0.0089
1030.00,0.0088
1029.00,0.0088
1028.00,0.0088
1027.00,0.0089
1026.00,0.0090
1025.00,0.0091
1024.00,0.0091
1023.00,0.0091
1022.00,0.0091
1021.00,0.0090
1020.00,0.0090
1019.00,0.0090
1018.00,0.0092
1017.00,0.0095
1016.00,0.0098
1015.00,0.0102
1014.00,0.0106
1013.00,0.0110
1012.00,0.0115
1011.00,0.0120
1010.00,0.0125
1009.00,0.0130
1008.00,0.0136
1007.00,0.0144
1006.00,0.0155
1005.00,0.0169
1004.00,0.0189
1003.00,0.0217
1002.00,0.0253
1001.00,0.0298
1000.00,0.0346
999.00,0.0387
998.00,0.0411
997.00,0.0407
996.00,0.0377
995.00,0.0331
994.00,0.0279
993.00,0.0233
992.00,0.0197
991.00,0.0171
990.00,0.0152
989.00,0.0139
988.00,0.0130
987.00,0.0126
986.00,0.0124
985.00,0.0126
984.00,0.0131
983.00,0.0139
982.00,0.0153
981.00,0.0173
980.00,0.0199
979.00,0.0233
978.00,0.0274
977.00,0.0324
976.00,0.0379
975.00,0.0435
974.00,0.0479
973.00,0.0500
972.00,0.0491
971.00,0.0451
970.00,0.0391
969.00,0.0327
968.00,0.0270
967.00,0.0225
966.00,0.0192
965.00,0.0168
964.00,0.0151
963.00,0.0138
962.00,0.0128
961.00,0.0120
960.00,0.0114
959.00,0.0109
958.00,0.0105
957.00,0.0101
956.00,0.0097
955.00,0.0094
954.00,0.0091
953.00,0.0089
952.00,0.0088
951.00,0.0088
950.00,0.0088
949.00,0.0088
948.00,0.0087
947.00,0.0087
946.00,0.0087
945.00,0.0089
944.00,0.0092
943.00,0.0095
942.00,0.0097
941.00,0.0099
940.00,0.0099
939.00,0.0097
938.00,0.0092
937.00,0.0085
936.00,0.0079
935.00,0.0075
934.00,0.0072
933.00,0.0070
932.00,0.0068
931.00,0.0066
930.00,0.0064
929.00,0.0064
928.00,0.0063
927.00,0.0062
926.00,0.0061
925.00,0.0061
924.00,0.0061
923.00,0.0062
922.00,0.0063
921.00,0.0064
920.00,0.0066
919.00,0.0068
918.00,0.0069
917.00,0.0071
916.00,0.0072
915.00,0.0072
914.00,0.0072
913.00,0.0073
912.00,0.0073
911.00,0.0074
910.00,0.0075
909.00,0.0075
908.00,0.0077
907.00,0.0080
906.00,0.0086
905.00,0.0096
904.00,0.0110
903.00,0.0128
902.00,0.0148
901.00,0.0167
900.00,0.0180
899.00,0.0185
898.00,0.0179
897.00,0.0165
896.00,0.0145
895.00,0.0126
894.00,0.0109
893.00,0.0097
892.00,0.0089
891.00,0.0084
890.00,0.0079
889.00,0.0076
888.00,0.0073
887.00,0.0071
886.00,0.0070
885.00,0.0070
884.00,0.0071
883.00,0.0071
882.00,0.0072
881.00,0.0072
880.00,0.0073
879.00,0.0074
878.00,0.0074
877.00,0.0075
876.00,0.0076
875.00,0.0076
874.00,0.0076
873.00,0.0076
872.00,0.0076
871.00,0.0076
870.00,0.0075
869.00,0.0074
868.00,0.0073
867.00,0.0074
866.00,0.0076
865.00,0.0077
864.00,0.0078
863.00,0.0080
862.00,0.0081
861.00,0.0083
860.00,0.0085
859.00,0.0087
858.00,0.0089
857.00,0.0090
856.00,0.0091
855.00,0.0094
854.00,0.0097
853.00,0.0101
852.00,0.0106
851.00,0.0111
850.00,0.0116
849.00,0.0125
848.00,0.0137
847.00,0.0156
846.00,0.0183
845.00,0.0224
844.00,0.0280
843.00,0.0343
842.00,0.0393
841.00,0.0409
840.00,0.0384
839.00,0.0329
838.00,0.0269
837.00,0.0219
836.00,0.0186
835.00,0.0165
834.00,0.0152
833.00,0.0144
832.00,0.0137
831.00,0.0131
830.00,0.0126
829.00,0.0121
828.00,0.0118
827.00,0.0116
826.00,0.0115
825.00,0.0114
824.00,0.0113
823.00,0.0112
822.00,0.0111
821.00,0.0112
820.00,0.0114
819.00,0.0117
818.00,0.0120
817.00,0.0124
816.00,0.0129
815.00,0.0137
814.00,0.0149
813.00,0.0165
812.00,0.0181
811.00,0.0197
810.00,0.0208
809.00,0.0214
808.00,0.0212
807.00,0.0203
806.00,0.0189
805.00,0.0174
804.00,0.0159
803.00,0.0145
802.00,0.0134
801.00,0.0124
800.00,0.0115
799.00,0.0108
798.00,0.0103
797.00,0.0098
796.00,0.0095
795.00,0.0093
794.00,0.0091
793.00,0.0087
792.00,0.0084
791.00,0.0082
790.00,0.0080
789.00,0.0078
788.00,0.0077
787.00,0.0075
786.00,0.0073
785.00,0.0071
784.00,0.0068
783.00,0.0066
782.00,0.0064
781.00,0.0062
780.00,0.0061
779.00,0.0061
778.00,0.0061
777.00,0.0063
776.00,0.0064
775.00,0.0066
774.00,0.0069
773.00,0.0072
772.00,0.0076
771.00,0.0078
770.00,0.0080
769.00,0.0080
768.00,0.0079
767.00,0.0078
766.00,0.0077
765.00,0.0075
764.00,0.0073
763.00,0.0070
762.00,0.0068
761.00,0.0066
760.00,0.0064
759.00,0.0062
758.00,0.0059
757.00,0.0056
756.00,0.0054
755.00,0.0052
754.00,0.0051
753.00,0.0051
752.00,0.0051
751.00,0.0052
750.00,0.0054
749.00,0.0055
748.00,0.0055
747.00,0.0054
746.00,0.0055
745.00,0.0057
744.00,0.0058
743.00,0.0059
742.00,0.0060
741.00,0.0061
740.00,0.0063
739.00,0.0064
738.00,0.0065
737.00,0.0066
736.00,0.0068
735.00,0.0070
734.00,0.0072
733.00,0.0072
732.00,0.0072
731.00,0.0073
730.00,0.0073
729.00,0.0073
728.00,0.0073
727.00,0.0073
726.00,0.0071
725.00,0.0070
724.00,0.0069
723.00,0.0069
722.00,0.0069
721.00,0.0070
720.00,0.0070
719.00,0.0068
718.00,0.0066
717.00,0.0064
716.00,0.0063
715.00,0.0063
714.00,0.0063
713.00,0.0061
712.00,0.0060
711.00,0.0060
710.00,0.0060
709.00,0.0060
708.00,0.0058
707.00,0.0056
706.00,0.0056
705.00,0.0057
704.00,0.0059
703.00,0.0060
702.00,0.0060
701.00,0.0059
700.00,0.0057
699.00,0.0055
698.00,0.0053
697.00,0.0052
696.00,0.0051
695.00,0.0052
694.00,0.0054
693.00,0.0055
692.00,0.0056
691.00,0.0055
690.00,0.0054
689.00,0.0053
688.00,0.0052
687.00,0.0052
686.00,0.0053
685.00,0.0053
684.00,0.0054
683.00,0.0054
682.00,0.0053
681.00,0.0053
680.00,0.0053
679.00,0.0053
678.00,0.0053
677.00,0.0053
676.00,0.0051
675.00,0.0049
674.00,0.0049
673.00,0.0050
672.00,0.0052
671.00,0.0053
670.00,0.0053
669.00,0.0054
668.00,0.0055
667.00,0.0055
666.00,0.0053
665.00,0.0051
664.00,0.0050
663.00,0.0051
662.00,0.0051
661.00,0.0052
660.00,0.0052
659.00,0.0051
658.00,0.0051
657.00,0.0052
656.00,0.0052
655.00,0.0052
654.00,0.0052
653.00,0.0052
652.00,0.0052
651.00,0.0054
650.00,0.0055
649.00,0.0054
648.00,0.0054
647.00,0.0054
646.00,0.0054
645.00,0.0054
644.00,0.0055
643.00,0.0055
642.00,0.0055
641.00,0.0054
640.00,0.0053
639.00,0.0053
638.00,0.0054
637.00,0.0055
636.00,0.0056
635.00,0.0056
634.00,0.0056
633.00,0.0056
632.00,0.0058
631.00,0.0060
630.00,0.0063
629.00,0.0065
628.00,0.0064
627.00,0.0062
626.00,0.0060
625.00,0.0057
624.00,0.0053
623.00,0.0051
622.00,0.0051
621.00,0.0053
620.00,0.0053
619.00,0.0053
618.00,0.0051
617.00,0.0051
616.00,0.0053
615.00,0.0056
614.00,0.0058
613.00,0.0058
612.00,0.0057
611.00,0.0054
610.00,0.0052
609.00,0.0050
608.00,0.0050
607.00,0.0051
606.00,0.0052
605.00,0.0052
604.00,0.0052
603.00,0.0053
602.00,0.0054
601.00,0.0057
600.00,0.0060
599.00,0.0060
598.00,0.0058
597.00,0.0055
596.00,0.0053
595.00,0.0052
594.00,0.0052
593.00,0.0054
592.00,0.0057
591.00,0.0058
590.00,0.0058
589.00,0.0056
588.00,0.0054
587.00,0.0052
586.00,0.0052
585.00,0.0053
584.00,0.0052
583.00,0.0051
582.00,0.0053
581.00,0.0057
580.00,0.0061
579.00,0.0062
578.00,0.0059
577.00,0.0055
576.00,0.0053
575.00,0.0052
574.00,0.0052
573.00,0.0052
572.00,0.0050
571.00,0.0048
570.00,0.0048
569.00,0.0051
568.00,0.0054
567.00,0.0057
566.00,0.0057
565.00,0.0056
564.00,0.0054
563.00,0.0051
562.00,0.0050
561.00,0.0050
560.00,0.0052
559.00,0.0055
558.00,0.0058
557.00,0.0060
556.00,0.0060
555.00,0.0060
554.00,0.0060
553.00,0.0060
552.00,0.0060
551.00,0.0059
550.00,0.0057
549.00,0.0055
548.00,0.0055
547.00,0.0056
546.00,0.0060
545.00,0.0062
544.00,0.0062
543.00,0.0060
542.00,0.0058
541.00,0.0056
540.00,0.0055
539.00,0.0056
538.00,0.0059
537.00,0.0064
536.00,0.0070
535.00,0.0075
534.00,0.0077
533.00,0.0075
532.00,0.0073
531.00,0.0073
530.00,0.0075
529.00,0.0077
528.00,0.0078
527.00,0.0077
526.00,0.0075
525.00,0.0072
524.00,0.0068
523.00,0.0063
522.00,0.0060
521.00,0.0060
520.00,0.0063
519.00,0.0066
518.00,0.0067
517.00,0.0062
516.00,0.0058
515.00,0.0056
514.00,0.0059
513.00,0.0062
512.00,0.0062
511.00,0.0059
510.00,0.0055
509.00,0.0051
508.00,0.0049
507.00,0.0050
506.00,0.0051
505.00,0.0047
504.00,0.0041
503.00,0.0037
502.00,0.0041
501.00,0.0051
500.00,0.0060
499.00,0.0064
498.00,0.0065
497.00,0.0066
496.00,0.0066
495.00,0.0066
494.00,0.0064
493.00,0.0063
492.00,0.0065
491.00,0.0071
490.00,0.0077
489.00,0.0079
488.00,0.0074
487.00,0.0069
486.00,0.0066
485.00,0.0065
484.00,0.0065
483.00,0.0066
482.00,0.0068
481.00,0.0069
480.00,0.0068
479.00,0.0069
478.00,0.0073
477.00,0.0080
476.00,0.0084
475.00,0.0084
474.00,0.0083
473.00,0.0083
472.00,0.0086
471.00,0.0088
470.00,0.0087
469.00,0.0080
468.00,0.0069
467.00,0.0063
466.00,0.0068
465.00,0.0084
464.00,0.0105
463.00,0.0125
462.00,0.0141
461.00,0.0151
460.00,0.0151
459.00,0.0138
458.00,0.0124
457.00,0.0120
456.00,0.0126
455.00,0.0134
454.00,0.0139
453.00,0.0143
452.00,0.0142
451.00,0.0133
450.00,0.0116
