Created as New Dataset,Sample 154 By Administrator Date Wednesday, September 10 2025
cm-1,A
4000.00,0.0020
3999.00,0.0020
3998.00,0.0020
3997.00,0.0020
3996.00,0.0020
3995.00,0.0020
3994.00,0.0020
3993.00,0.0020
3992.00,0.0020
3991.00,0.0020
3990.00,0.0020
3989.00,0.0020
3988.00,0.0020
3987.00,0.0020
3986.00,0.0020
3985.00,0.0020
3984.00,0.0020
3983.00,0.0020
3982.00,0.0020
3981.00,0.0020
3980.00,0.0020
3979.00,0.0020
3978.00,0.0020
3977.00,0.0019
3976.00,0.0019
3975.00,0.0019
3974.00,0.0019
3973.00,0.0019
3972.00,0.0019
3971.00,0.0019
3970.00,0.0019
3969.00,0.0019
3968.00,0.0019
3967.00,0.0019
3966.00,0.0019
3965.00,0.0019
3964.00,0.0019
3963.00,0.0020
3962.00,0.0019
3961.00,0.0019
3960.00,0.0019
3959.00,0.0019
3958.00,0.0019
3957.00,0.0019
3956.00,0.0019
3955.00,0.0019
3954.00,0.0019
3953.00,0.0019
3952.00,0.0019
3951.00,0.0019
3950.00,0.0019
3949.00,0.0019
3948.00,0.0019
3947.00,0.0019
3946.00,0.0019
3945.00,0.0018
3944.00,0.0018
3943.00,0.0018
3942.00,0.0019
3941.00,0.0019
3940.00,0.0019
3939.00,0.0019
3938.00,0.0019
3937.00,0.0019
3936.00,0.0020
3935.00,0.0020
3934.00,0.0020
3933.00,0.0020
3932.00,0.0020
3931.00,0.0020
3930.00,0.0020
3929.00,0.0019
3928.00,0.0019
3927.00,0.0019
3926.00,0.0019
3925.00,0.0019
3924.00,0.0019
3923.00,0.0019
3922.00,0.0019
3921.00,0.0019
3920.00,0.0019
3919.00,0.0019
3918.00,0.0019
3917.00,0.0019
3916.00,0.0019
3915.00,0.0019
3914.00,0.0019
3913.00,0.0019
3912.00,0.0019
3911.00,0.0019
3910.00,0.0019
3909.00,0.0019
3908.00,0.0020
3907.00,0.0020
3906.00,0.0020
3905.00,0.0020
3904.00,0.0020
3903.00,0.0019
3902.00,0.0019
3901.00,0.0019
3900.00,0.0019
3899.00,0.0018
3898.00,0.0018
3897.00,0.0018
3896.00,0.0019
3895.00,0.0019
3894.00,0.0019
3893.00,0.0019
3892.00,0.0019
3891.00,0.0019
3890.00,0.0019
3889.00,0.0019
3888.00,0.0019
3887.00,0.0020
3886.00,0.0020
3885.00,0.0020
3884.00,0.0020
3883.00,0.0019
3882.00,0.0019
3881.00,0.0019
3880.00,0.0018
3879.00,0.0018
3878.00,0.0018
3877.00,0.0018
3876.00,0.0018
3875.00,0.0018
3874.00,0.0018
3873.00,0.0019
3872.00,0.0019
3871.00,0.0019
3870.00,0.0020
3869.00,0.0020
3868.00,0.0020
3867.00,0.0019
3866.00,0.0019
3865.00,0.0018
3864.00,0.0018
3863.00,0.0018
3862.00,0.0018
3861.00,0.0018
3860.00,0.0018
3859.00,0.0018
3858.00,0.0018
3857.00,0.0019
3856.00,0.0019
3855.00,0.0019
3854.00,0.0019
3853.00,0.0019
3852.00,0.0019
3851.00,0.0019
3850.00,0.0018
3849.00,0.0018
3848.00,0.0018
3847.00,0.0018
3846.00,0.0018
3845.00,0.0018
3844.00,0.0019
3843.00,0.0019
3842.00,0.0020
3841.00,0.0020
3840.00,0.0020
3839.00,0.0019
3838.00,0.0019
3837.00,0.0019
3836.00,0.0018
3835.00,0.0018
3834.00,0.0019
3833.00,0.0019
3832.00,0.0019
3831.00,0.0019
3830.00,0.0019
3829.00,0.0019
3828.00,0.0019
3827.00,0.0019
3826.00,0.0020
3825.00,0.0020
3824.00,0.0020
3823.00,0.0020
3822.00,0.0020
3821.00,0.0020
3820.00,0.0020
3819.00,0.0020
3818.00,0.0020
3817.00,0.0019
3816.00,0.0019
3815.00,0.0019
3814.00,0.0019
3813.00,0.0018
3812.00,0.0018
3811.00,0.0019
3810.00,0.0019
3809.00,0.0019
3808.00,0.0019
3807.00,0.0019
3806.00,0.0019
3805.00,0.0019
3804.00,0.0018
3803.00,0.0018
3802.00,0.0019
3801.00,0.0019
3800.00,0.0019
3799.00,0.0019
3798.00,0.0019
3797.00,0.0019
3796.00,0.0019
3795.00,0.0019
3794.00,0.0019
3793.00,0.0019
3792.00,0.0019
3791.00,0.0020
3790.00,0.0020
3789.00,0.0020
3788.00,0.0019
3787.00,0.0019
3786.00,0.0019
3785.00,0.0019
3784.00,0.0020
3783.00,0.0020
3782.00,0.0020
3781.00,0.0019
3780.00,0.0019
3779.00,0.0019
3778.00,0.0019
3777.00,0.0019
3776.00,0.0019
3775.00,0.0019
3774.00,0.0020
3773.00,0.0020
3772.00,0.0020
3771.00,0.0020
3770.00,0.0020
3769.00,0.0020
3768.00,0.0020
3767.00,0.0020
3766.00,0.0020
3765.00,0.0020
3764.00,0.0020
3763.00,0.0020
3762.00,0.0020
3761.00,0.0020
3760.00,0.0020
3759.00,0.0020
3758.00,0.0019
3757.00,0.0020
3756.00,0.0020
3755.00,0.0020
3754.00,0.0020
3753.00,0.0020
3752.00,0.0021
3751.00,0.0021
3750.00,0.0021
3749.00,0.0021
3748.00,0.0021
3747.00,0.0021
3746.00,0.0020
3745.00,0.0020
3744.00,0.0020
3743.00,0.0020
3742.00,0.0019
3741.00,0.0019
3740.00,0.0019
3739.00,0.0020
3738.00,0.0020
3737.00,0.0020
3736.00,0.0020
3735.00,0.0019
3734.00,0.0019
3733.00,0.0018
3732.00,0.0018
3731.00,0.0018
3730.00,0.0018
3729.00,0.0018
3728.00,0.0018
3727.00,0.0018
3726.00,0.0018
3725.00,0.0018
3724.00,0.0018
3723.00,0.0018
3722.00,0.0018
3721.00,0.0018
3720.00,0.0018
3719.00,0.0018
3718.00,0.0018
3717.00,0.0018
3716.00,0.0017
3715.00,0.0017
3714.00,0.0017
3713.00,0.0017
3712.00,0.0017
3711.00,0.0017
3710.00,0.0017
3709.00,0.0017
3708.00,0.0018
3707.00,0.0018
3706.00,0.0018
3705.00,0.0018
3704.00,0.0017
3703.00,0.0017
3702.00,0.0018
3701.00,0.0018
3700.00,0.0017
3699.00,0.0017
3698.00,0.0017
3697.00,0.0017
3696.00,0.0017
3695.00,0.0018
3694.00,0.0018
3693.00,0.0018
3692.00,0.0018
3691.00,0.0018
3690.00,0.0018
3689.00,0.0018
3688.00,0.0018
3687.00,0.0018
3686.00,0.0018
3685.00,0.0018
3684.00,0.0018
3683.00,0.0017
3682.00,0.0017
3681.00,0.0017
3680.00,0.0018
3679.00,0.0018
3678.00,0.0019
3677.00,0.0019
3676.00,0.0020
3675.00,0.0021
3674.00,0.0021
3673.00,0.0021
3672.00,0.0020
3671.00,0.0020
3670.00,0.0020
3669.00,0.0019
3668.00,0.0019
3667.00,0.0019
3666.00,0.0019
3665.00,0.0019
3664.00,0.0019
3663.00,0.0019
3662.00,0.0019
3661.00,0.0019
3660.00,0.0019
3659.00,0.0019
3658.00,0.0019
3657.00,0.0019
3656.00,0.0019
3655.00,0.0019
3654.00,0.0019
3653.00,0.0019
3652.00,0.0019
3651.00,0.0020
3650.00,0.0020
3649.00,0.0019
3648.00,0.0019
3647.00,0.0019
3646.00,0.0019
3645.00,0.0019
3644.00,0.0019
3643.00,0.0019
3642.00,0.0018
3641.00,0.0018
3640.00,0.0018
3639.00,0.0018
3638.00,0.0019
3637.00,0.0019
3636.00,0.0020
3635.00,0.0020
3634.00,0.0020
3633.00,0.0020
3632.00,0.0019
3631.00,0.0019
3630.00,0.0019
3629.00,0.0019
3628.00,0.0018
3627.00,0.0018
3626.00,0.0018
3625.00,0.0018
3624.00,0.0018
3623.00,0.0019
3622.00,0.0019
3621.00,0.0019
3620.00,0.0019
3619.00,0.0019
3618.00,0.0020
3617.00,0.0020
3616.00,0.0020
3615.00,0.0020
3614.00,0.0020
3613.00,0.0020
3612.00,0.0021
3611.00,0.0020
3610.00,0.0020
3609.00,0.0019
3608.00,0.0019
3607.00,0.0019
3606.00,0.0020
3605.00,0.0020
3604.00,0.0020
3603.00,0.0021
3602.00,0.0020
3601.00,0.0020
3600.00,0.0021
3599.00,0.0021
3598.00,0.0022
3597.00,0.0022
3596.00,0.0023
3595.00,0.0023
3594.00,0.0023
3593.00,0.0022
3592.00,0.0022
3591.00,0.0022
3590.00,0.0022
3589.00,0.0022
3588.00,0.0022
3587.00,0.0023
3586.00,0.0023
3585.00,0.0023
3584.00,0.0023
3583.00,0.0023
3582.00,0.0023
3581.00,0.0023
3580.00,0.0023
3579.00,0.0023
3578.00,0.0024
3577.00,0.0024
3576.00,0.0024
3575.00,0.0025
3574.00,0.0025
3573.00,0.0025
3572.00,0.0025
3571.00,0.0026
3570.00,0.0026
3569.00,0.0026
3568.00,0.0027
3567.00,0.0027
3566.00,0.0027
3565.00,0.0027
3564.00,0.0027
3563.00,0.0026
3562.00,0.0026
3561.00,0.0027
3560.00,0.0027
3559.00,0.0027
3558.00,0.0027
3557.00,0.0027
3556.00,0.0028
3555.00,0.0029
3554.00,0.0029
3553.00,0.0029
3552.00,0.0029
3551.00,0.0029
3550.00,0.0029
3549.00,0.0029
3548.00,0.0029
3547.00,0.0029
3546.00,0.0030
3545.00,0.0030
3544.00,0.0031
3543.00,0.0031
3542.00,0.0031
3541.00,0.0031
3540.00,0.0031
3539.00,0.0031
3538.00,0.0031
3537.00,0.0031
3536.00,0.0031
3535.00,0.0031
3534.00,0.0032
3533.00,0.0032
3532.00,0.0032
3531.00,0.0033
3530.00,0.0033
3529.00,0.0033
3528.00,0.0033
3527.00,0.0034
3526.00,0.0034
3525.00,0.0034
3524.00,0.0034
3523.00,0.0034
3522.00,0.0034
3521.00,0.0034
3520.00,0.0034
3519.00,0.0034
3518.00,0.0034
3517.00,0.0035
3516.00,0.0035
3515.00,0.0035
3514.00,0.0035
3513.00,0.0035
3512.00,0.0035
3511.00,0.0035
3510.00,0.0036
3509.00,0.0036
3508.00,0.0036
3507.00,0.0037
3506.00,0.0037
3505.00,0.0037
3504.00,0.0037
3503.00,0.0037
3502.00,0.0037
3501.00,0.0037
3500.00,0.0037
3499.00,0.0037
3498.00,0.0037
3497.00,0.0038
3496.00,0.0038
3495.00,0.0038
3494.00,0.0038
3493.00,0.0038
3492.00,0.0039
3491.00,0.0039
3490.00,0.0039
3489.00,0.0039
3488.00,0.0039
3487.00,0.0039
3486.00,0.0039
3485.00,0.0040
3484.00,0.0040
3483.00,0.0041
3482.00,0.0041
3481.00,0.0041
3480.00,0.0041
3479.00,0.0041
3478.00,0.0041
3477.00,0.0041
3476.00,0.0041
3475.00,0.0041
3474.00,0.0041
3473.00,0.0042
3472.00,0.0042
3471.00,0.0043
3470.00,0.0043
3469.00,0.0043
3468.00,0.0044
3467.00,0.0044
3466.00,0.0044
3465.00,0.0044
3464.00,0.0044
3463.00,0.0044
3462.00,0.0044
3461.00,0.0044
3460.00,0.0044
3459.00,0.0044
3458.00,0.0044
3457.00,0.0044
3456.00,0.0044
3455.00,0.0044
3454.00,0.0044
3453.00,0.0044
3452.00,0.0044
3451.00,0.0045
3450.00,0.0045
3449.00,0.0046
3448.00,0.0046
3447.00,0.0046
3446.00,0.0046
3445.00,0.0046
3444.00,0.0046
3443.00,0.0046
3442.00,0.0047
3441.00,0.0047
3440.00,0.0047
3439.00,0.0048
3438.00,0.0048
3437.00,0.0048
3436.00,0.0048
3435.00,0.0048
3434.00,0.0048
3433.00,0.0048
3432.00,0.0049
3431.00,0.0049
3430.00,0.0049
3429.00,0.0049
3428.00,0.0049
3427.00,0.0049
3426.00,0.0049
3425.00,0.0050
3424.00,0.0050
3423.00,0.0050
3422.00,0.0050
3421.00,0.0050
3420.00,0.0049
3419.00,0.0049
3418.00,0.0049
3417.00,0.0050
3416.00,0.0050
3415.00,0.0050
3414.00,0.0050
3413.00,0.0050
3412.00,0.0050
3411.00,0.0050
3410.00,0.0050
3409.00,0.0050
3408.00,0.0050
3407.00,0.0050
3406.00,0.0050
3405.00,0.0050
3404.00,0.0050
3403.00,0.0050
3402.00,0.0050
3401.00,0.0051
3400.00,0.0051
3399.00,0.0051
3398.00,0.0051
3397.00,0.0051
3396.00,0.0051
3395.00,0.0051
3394.00,0.0052
3393.00,0.0052
3392.00,0.0052
3391.00,0.0052
3390.00,0.0051
3389.00,0.0051
3388.00,0.0051
3387.00,0.0051
3386.00,0.0052
3385.00,0.0052
3384.00,0.0052
3383.00,0.0051
3382.00,0.0051
3381.00,0.0051
3380.00,0.0051
3379.00,0.0051
3378.00,0.0052
3377.00,0.0052
3376.00,0.0052
3375.00,0.0052
3374.00,0.0052
3373.00,0.0052
3372.00,0.0052
3371.00,0.0052
3370.00,0.0051
3369.00,0.0052
3368.00,0.0052
3367.00,0.0052
3366.00,0.0052
3365.00,0.0052
3364.00,0.0052
3363.00,0.0052
3362.00,0.0053
3361.00,0.0053
3360.00,0.0053
3359.00,0.0053
3358.00,0.0053
3357.00,0.0053
3356.00,0.0053
3355.00,0.0053
3354.00,0.0053
3353.00,0.0053
3352.00,0.0054
3351.00,0.0053
3350.00,0.0053
3349.00,0.0053
3348.00,0.0053
3347.00,0.0053
3346.00,0.0053
3345.00,0.0053
3344.00,0.0053
3343.00,0.0053
3342.00,0.0053
3341.00,0.0052
3340.00,0.0052
3339.00,0.0052
3338.00,0.0052
3337.00,0.0052
3336.00,0.0052
3335.00,0.0052
3334.00,0.0052
3333.00,0.0052
3332.00,0.0052
3331.00,0.0052
3330.00,0.0052
3329.00,0.0051
3328.00,0.0051
3327.00,0.0051
3326.00,0.0051
3325.00,0.0051
3324.00,0.0051
3323.00,0.0051
3322.00,0.0051
3321.00,0.0051
3320.00,0.0051
3319.00,0.0051
3318.00,0.0051
3317.00,0.0051
3316.00,0.0050
3315.00,0.0050
3314.00,0.0050
3313.00,0.0050
3312.00,0.0050
3311.00,0.0050
3310.00,0.0050
3309.00,0.0050
3308.00,0.0050
3307.00,0.0051
3306.00,0.0051
3305.00,0.0051
3304.00,0.0051
3303.00,0.0051
3302.00,0.0051
3301.00,0.0051
3300.00,0.0051
3299.00,0.0051
3298.00,0.0051
3297.00,0.0051
3296.00,0.0051
3295.00,0.0051
3294.00,0.0051
3293.00,0.0051
3292.00,0.0050
3291.00,0.0050
3290.00,0.0050
3289.00,0.0051
3288.00,0.0051
3287.00,0.0051
3286.00,0.0051
3285.00,0.0050
3284.00,0.0050
3283.00,0.0049
3282.00,0.0049
3281.00,0.0049
3280.00,0.0049
3279.00,0.0049
3278.00,0.0050
3277.00,0.0050
3276.00,0.0050
3275.00,0.0049
3274.00,0.0049
3273.00,0.0048
3272.00,0.0048
3271.00,0.0048
3270.00,0.0048
3269.00,0.0048
3268.00,0.0048
3267.00,0.0049
3266.00,0.0049
3265.00,0.0049
3264.00,0.0048
3263.00,0.0048
3262.00,0.0048
3261.00,0.0048
3260.00,0.0048
3259.00,0.0048
3258.00,0.0048
3257.00,0.0048
3256.00,0.0048
3255.00,0.0048
3254.00,0.0048
3253.00,0.0047
3252.00,0.0047
3251.00,0.0047
3250.00,0.0047
3249.00,0.0046
3248.00,0.0046
3247.00,0.0046
3246.00,0.0046
3245.00,0.0046
3244.00,0.0046
3243.00,0.0046
3242.00,0.0046
3241.00,0.0046
3240.00,0.0046
3239.00,0.0046
3238.00,0.0046
3237.00,0.0046
3236.00,0.0046
3235.00,0.0047
3234.00,0.0047
3233.00,0.0047
3232.00,0.0047
3231.00,0.0046
3230.00,0.0046
3229.00,0.0046
3228.00,0.0047
3227.00,0.0047
3226.00,0.0047
3225.00,0.0048
3224.00,0.0048
3223.00,0.0048
3222.00,0.0048
3221.00,0.0048
3220.00,0.0048
3219.00,0.0048
3218.00,0.0048
3217.00,0.0048
3216.00,0.0048
3215.00,0.0048
3214.00,0.0048
3213.00,0.0048
3212.00,0.0048
3211.00,0.0048
3210.00,0.0048
3209.00,0.0048
3208.00,0.0049
3207.00,0.0049
3206.00,0.0049
3205.00,0.0049
3204.00,0.0050
3203.00,0.0049
3202.00,0.0049
3201.00,0.0049
3200.00,0.0049
3199.00,0.0048
3198.00,0.0048
3197.00,0.0048
3196.00,0.0048
3195.00,0.0049
3194.00,0.0049
3193.00,0.0049
3192.00,0.0048
3191.00,0.0048
3190.00,0.0048
3189.00,0.0048
3188.00,0.0048
3187.00,0.0048
3186.00,0.0048
3185.00,0.0048
3184.00,0.0047
3183.00,0.0047
3182.00,0.0047
3181.00,0.0047
3180.00,0.0047
3179.00,0.0047
3178.00,0.0046
3177.00,0.0046
3176.00,0.0045
3175.00,0.0045
3174.00,0.0045
3173.00,0.0045
3172.00,0.0045
3171.00,0.0045
3170.00,0.0045
3169.00,0.0045
3168.00,0.0045
3167.00,0.0045
3166.00,0.0045
3165.00,0.0045
3164.00,0.0045
3163.00,0.0045
3162.00,0.0045
3161.00,0.0044
3160.00,0.0044
3159.00,0.0044
3158.00,0.0044
3157.00,0.0044
3156.00,0.0043
3155.00,0.0043
3154.00,0.0043
3153.00,0.0043
3152.00,0.0044
3151.00,0.0044
3150.00,0.0044
3149.00,0.0044
3148.00,0.0044
3147.00,0.0043
3146.00,0.0043
3145.00,0.0043
3144.00,0.0043
3143.00,0.0042
3142.00,0.0042
3141.00,0.0042
3140.00,0.0042
3139.00,0.0042
3138.00,0.0042
3137.00,0.0042
3136.00,0.0042
3135.00,0.0042
3134.00,0.0042
3133.00,0.0042
3132.00,0.0042
3131.00,0.0042
3130.00,0.0042
3129.00,0.0042
3128.00,0.0041
3127.00,0.0041
3126.00,0.0041
3125.00,0.0041
3124.00,0.0040
3123.00,0.0040
3122.00,0.0040
3121.00,0.0039
3120.00,0.0039
3119.00,0.0039
3118.00,0.0039
3117.00,0.0039
3116.00,0.0039
3115.00,0.0039
3114.00,0.0039
3113.00,0.0039
3112.00,0.0039
3111.00,0.0039
3110.00,0.0039
3109.00,0.0038
3108.00,0.0038
3107.00,0.0038
3106.00,0.0038
3105.00,0.0038
3104.00,0.0037
3103.00,0.0037
3102.00,0.0037
3101.00,0.0037
3100.00,0.0037
3099.00,0.0037
3098.00,0.0037
3097.00,0.0037
3096.00,0.0037
3095.00,0.0037
3094.00,0.0037
3093.00,0.0037
3092.00,0.0037
3091.00,0.0037
3090.00,0.0036
3089.00,0.0036
3088.00,0.0036
3087.00,0.0036
3086.00,0.0036
3085.00,0.0036
3084.00,0.0036
3083.00,0.0036
3082.00,0.0037
3081.00,0.0037
3080.00,0.0037
3079.00,0.0036
3078.00,0.0036
3077.00,0.0035
3076.00,0.0035
3075.00,0.0035
3074.00,0.0035
3073.00,0.0035
3072.00,0.0035
3071.00,0.0035
3070.00,0.0035
3069.00,0.0035
3068.00,0.0036
3067.00,0.0036
3066.00,0.0036
3065.00,0.0037
3064.00,0.0037
3063.00,0.0037
3062.00,0.0037
3061.00,0.0037
3060.00,0.0037
3059.00,0.0037
3058.00,0.0038
3057.00,0.0038
3056.00,0.0038
3055.00,0.0038
3054.00,0.0038
3053.00,0.0038
3052.00,0.0038
3051.00,0.0038
3050.00,0.0038
3049.00,0.0038
3048.00,0.0038
3047.00,0.0039
3046.00,0.0039
3045.00,0.0039
3044.00,0.0039
3043.00,0.0039
3042.00,0.0039
3041.00,0.0040
3040.00,0.0040
3039.00,0.0040
3038.00,0.0040
3037.00,0.0040
3036.00,0.0040
3035.00,0.0040
3034.00,0.0041
3033.00,0.0041
3032.00,0.0041
3031.00,0.0041
3030.00,0.0042
3029.00,0.0042
3028.00,0.0043
3027.00,0.0044
3026.00,0.0044
3025.00,0.0045
3024.00,0.0045
3023.00,0.0045
3022.00,0.0046
3021.00,0.0046
3020.00,0.0047
3019.00,0.0047
3018.00,0.0048
3017.00,0.0049
3016.00,0.0050
3015.00,0.0051
3014.00,0.0052
3013.00,0.0053
3012.00,0.0054
3011.00,0.0055
3010.00,0.0057
3009.00,0.0058
3008.00,0.0060
3007.00,0.0061
3006.00,0.0063
3005.00,0.0065
3004.00,0.0067
3003.00,0.0069
3002.00,0.0071
3001.00,0.0074
3000.00,0.0076
2999.00,0.0079
2998.00,0.0082
2997.00,0.0085
2996.00,0.0089
2995.00,0.0093
2994.00,0.0097
2993.00,0.0101
2992.00,0.0106
2991.00,0.0112
2990.00,0.0118
2989.00,0.0125
2988.00,0.0133
2987.00,0.0141
2986.00,0.0151
2985.00,0.0162
2984.00,0.0174
2983.00,0.0187
2982.00,0.0202
2981.00,0.0218
2980.00,0.0236
2979.00,0.0256
2978.00,0.0279
2977.00,0.0304
2976.00,0.0333
2975.00,0.0367
2974.00,0.0404
2973.00,0.0446
2972.00,0.0491
2971.00,0.0542
2970.00,0.0596
2969.00,0.0655
2968.00,0.0718
2967.00,0.0785
2966.00,0.0854
2965.00,0.0922
2964.00,0.0988
2963.00,0.1048
2962.00,0.1101
2961.00,0.1144
2960.00,0.1179
2959.00,0.1209
2958.00,0.1237
2957.00,0.1266
2956.00,0.1301
2955.00,0.1341
2954.00,0.1385
2953.00,0.1430
2952.00,0.1469
2951.00,0.1495
2950.00,0.1500
2949.00,0.1481
2948.00,0.1433
2947.00,0.1362
2946.00,0.1273
2945.00,0.1176
2944.00,0.1082
2943.00,0.0999
2942.00,0.0932
2941.00,0.0885
2940.00,0.0857
2939.00,0.0846
2938.00,0.0852
2937.00,0.0871
2936.00,0.0903
2935.00,0.0945
2934.00,0.0998
2933.00,0.1059
2932.00,0.1127
2931.00,0.1200
2930.00,0.1276
2929.00,0.1353
2928.00,0.1428
2927.00,0.1499
2926.00,0.1567
2925.00,0.1631
2924.00,0.1692
2923.00,0.1752
2922.00,0.1809
2921.00,0.1864
2920.00,0.1912
2919.00,0.1948
2918.00,0.1968
2917.00,0.1968
2916.00,0.1948
2915.00,0.1910
2914.00,0.1858
2913.00,0.1800
2912.00,0.1739
2911.00,0.1680
2910.00,0.1623
2909.00,0.1570
2908.00,0.1519
2907.00,0.1470
2906.00,0.1420
2905.00,0.1370
2904.00,0.1319
2903.00,0.1267
2902.00,0.1217
2901.00,0.1167
2900.00,0.1119
2899.00,0.1073
2898.00,0.1029
2897.00,0.0990
2896.00,0.0954
2895.00,0.0923
2894.00,0.0897
2893.00,0.0877
2892.00,0.0862
2891.00,0.0851
2890.00,0.0845
2889.00,0.0842
2888.00,0.0843
2887.00,0.0847
2886.00,0.0853
2885.00,0.0863
2884.00,0.0876
2883.00,0.0893
2882.00,0.0911
2881.00,0.0931
2880.00,0.0950
2879.00,0.0965
2878.00,0.0974
2877.00,0.0977
2876.00,0.0974
2875.00,0.0968
2874.00,0.0964
2873.00,0.0963
2872.00,0.0968
2871.00,0.0978
2870.00,0.0990
2869.00,0.1001
2868.00,0.1006
2867.00,0.0997
2866.00,0.0972
2865.00,0.0928
2864.00,0.0868
2863.00,0.0799
2862.00,0.0728
2861.00,0.0662
2860.00,0.0606
2859.00,0.0562
2858.00,0.0529
2857.00,0.0505
2856.00,0.0490
2855.00,0.0482
2854.00,0.0478
2853.00,0.0480
2852.00,0.0487
2851.00,0.0499
2850.00,0.0515
2849.00,0.0538
2848.00,0.0567
2847.00,0.0602
2846.00,0.0643
2845.00,0.0690
2844.00,0.0741
2843.00,0.0794
2842.00,0.0847
2841.00,0.0896
2840.00,0.0934
2839.00,0.0956
2838.00,0.0957
2837.00,0.0933
2836.00,0.0886
2835.00,0.0820
2834.00,0.0743
2833.00,0.0662
2832.00,0.0585
2831.00,0.0515
2830.00,0.0457
2829.00,0.0408
2828.00,0.0368
2827.00,0.0336
2826.00,0.0310
2825.00,0.0288
2824.00,0.0269
2823.00,0.0253
2822.00,0.0240
2821.00,0.0228
2820.00,0.0218
2819.00,0.0210
2818.00,0.0202
2817.00,0.0195
2816.00,0.0189
2815.00,0.0183
2814.00,0.0178
2813.00,0.0173
2812.00,0.0169
2811.00,0.0164
2810.00,0.0159
2809.00,0.0154
2808.00,0.0149
2807.00,0.0144
2806.00,0.0139
2805.00,0.0134
2804.00,0.0129
2803.00,0.0124
2802.00,0.0120
2801.00,0.0116
2800.00,0.0112
2799.00,0.0110
2798.00,0.0108
2797.00,0.0106
2796.00,0.0104
2795.00,0.0102
2794.00,0.0100
2793.00,0.0098
2792.00,0.0095
2791.00,0.0092
2790.00,0.0089
2789.00,0.0087
2788.00,0.0084
2787.00,0.0082
2786.00,0.0080
2785.00,0.0078
2784.00,0.0076
2783.00,0.0074
2782.00,0.0073
2781.00,0.0071
2780.00,0.0070
2779.00,0.0069
2778.00,0.0068
2777.00,0.0067
2776.00,0.0066
2775.00,0.0065
2774.00,0.0064
2773.00,0.0063
2772.00,0.0062
2771.00,0.0062
2770.00,0.0062
2769.00,0.0062
2768.00,0.0062
2767.00,0.0061
2766.00,0.0061
2765.00,0.0060
2764.00,0.0060
2763.00,0.0060
2762.00,0.0060
2761.00,0.0059
2760.00,0.0059
2759.00,0.0059
2758.00,0.0058
2757.00,0.0058
2756.00,0.0058
2755.00,0.0059
2754.00,0.0059
2753.00,0.0058
2752.00,0.0058
2751.00,0.0058
2750.00,0.0058
2749.00,0.0058
2748.00,0.0058
2747.00,0.0058
2746.00,0.0059
2745.00,0.0059
2744.00,0.0059
2743.00,0.0060
2742.00,0.0061
2741.00,0.0061
2740.00,0.0062
2739.00,0.0064
2738.00,0.0065
2737.00,0.0066
2736.00,0.0067
2735.00,0.0068
2734.00,0.0069
2733.00,0.0071
2732.00,0.0072
2731.00,0.0074
2730.00,0.0075
2729.00,0.0077
2728.00,0.0079
2727.00,0.0082
2726.00,0.0084
2725.00,0.0086
2724.00,0.0087
2723.00,0.0087
2722.00,0.0086
2721.00,0.0084
2720.00,0.0082
2719.00,0.0079
2718.00,0.0077
2717.00,0.0074
2716.00,0.0072
2715.00,0.0070
2714.00,0.0068
2713.00,0.0066
2712.00,0.0065
2711.00,0.0063
2710.00,0.0062
2709.00,0.0060
2708.00,0.0059
2707.00,0.0058
2706.00,0.0057
2705.00,0.0056
2704.00,0.0055
2703.00,0.0054
2702.00,0.0054
2701.00,0.0053
2700.00,0.0053
2699.00,0.0052
2698.00,0.0052
2697.00,0.0052
2696.00,0.0051
2695.00,0.0051
2694.00,0.0051
2693.00,0.0051
2692.00,0.0051
2691.00,0.0051
2690.00,0.0051
2689.00,0.0051
2688.00,0.0051
2687.00,0.0051
2686.00,0.0051
2685.00,0.0051
2684.00,0.0051
2683.00,0.0051
2682.00,0.0051
2681.00,0.0052
2680.00,0.0052
2679.00,0.0052
2678.00,0.0052
2677.00,0.0052
2676.00,0.0051
2675.00,0.0051
2674.00,0.0051
2673.00,0.0051
2672.00,0.0051
2671.00,0.0051
2670.00,0.0051
2669.00,0.0051
2668.00,0.0051
2667.00,0.0051
2666.00,0.0051
2665.00,0.0052
2664.00,0.0053
2663.00,0.0054
2662.00,0.0055
2661.00,0.0055
2660.00,0.0056
2659.00,0.0055
2658.00,0.0055
2657.00,0.0055
2656.00,0.0055
2655.00,0.0055
2654.00,0.0054
2653.00,0.0054
2652.00,0.0053
2651.00,0.0052
2650.00,0.0052
2649.00,0.0051
2648.00,0.0051
2647.00,0.0051
2646.00,0.0051
2645.00,0.0051
2644.00,0.0050
2643.00,0.0050
2642.00,0.0050
2641.00,0.0049
2640.00,0.0049
2639.00,0.0049
2638.00,0.0049
2637.00,0.0049
2636.00,0.0049
2635.00,0.0049
2634.00,0.0049
2633.00,0.0049
2632.00,0.0049
2631.00,0.0049
2630.00,0.0048
2629.00,0.0048
2628.00,0.0047
2627.00,0.0048
2626.00,0.0048
2625.00,0.0049
2624.00,0.0049
2623.00,0.0049
2622.00,0.0049
2621.00,0.0049
2620.00,0.0049
2619.00,0.0048
2618.00,0.0048
2617.00,0.0048
2616.00,0.0048
2615.00,0.0048
2614.00,0.0048
2613.00,0.0048
2612.00,0.0048
2611.00,0.0047
2610.00,0.0047
2609.00,0.0047
2608.00,0.0046
2607.00,0.0046
2606.00,0.0045
2605.00,0.0044
2604.00,0.0043
2603.00,0.0042
2602.00,0.0042
2601.00,0.0042
2600.00,0.0042
2599.00,0.0042
2598.00,0.0043
2597.00,0.0043
2596.00,0.0043
2595.00,0.0043
2594.00,0.0042
2593.00,0.0042
2592.00,0.0042
2591.00,0.0043
2590.00,0.0043
2589.00,0.0044
2588.00,0.0045
2587.00,0.0046
2586.00,0.0047
2585.00,0.0048
2584.00,0.0049
2583.00,0.0050
2582.00,0.0049
2581.00,0.0048
2580.00,0.0047
2579.00,0.0046
2578.00,0.0045
2577.00,0.0045
2576.00,0.0045
2575.00,0.0045
2574.00,0.0044
2573.00,0.0043
2572.00,0.0042
2571.00,0.0041
2570.00,0.0040
2569.00,0.0039
2568.00,0.0039
2567.00,0.0038
2566.00,0.0038
2565.00,0.0037
2564.00,0.0036
2563.00,0.0036
2562.00,0.0035
2561.00,0.0035
2560.00,0.0035
2559.00,0.0035
2558.00,0.0035
2557.00,0.0034
2556.00,0.0034
2555.00,0.0034
2554.00,0.0034
2553.00,0.0034
2552.00,0.0034
2551.00,0.0034
2550.00,0.0033
2549.00,0.0032
2548.00,0.0031
2547.00,0.0030
2546.00,0.0030
2545.00,0.0030
2544.00,0.0030
2543.00,0.0031
2542.00,0.0031
2541.00,0.0031
2540.00,0.0031
2539.00,0.0030
2538.00,0.0029
2537.00,0.0028
2536.00,0.0028
2535.00,0.0027
2534.00,0.0027
2533.00,0.0027
2532.00,0.0027
2531.00,0.0027
2530.00,0.0027
2529.00,0.0027
2528.00,0.0027
2527.00,0.0027
2526.00,0.0027
2525.00,0.0028
2524.00,0.0027
2523.00,0.0027
2522.00,0.0027
2521.00,0.0026
2520.00,0.0026
2519.00,0.0026
2518.00,0.0025
2517.00,0.0025
2516.00,0.0025
2515.00,0.0025
2514.00,0.0025
2513.00,0.0024
2512.00,0.0023
2511.00,0.0022
2510.00,0.0022
2509.00,0.0022
2508.00,0.0023
2507.00,0.0024
2506.00,0.0024
2505.00,0.0024
2504.00,0.0023
2503.00,0.0023
2502.00,0.0023
2501.00,0.0022
2500.00,0.0022
2499.00,0.0022
2498.00,0.0022
2497.00,0.0022
2496.00,0.0022
2495.00,0.0023
2494.00,0.0024
2493.00,0.0024
2492.00,0.0024
2491.00,0.0023
2490.00,0.0023
2489.00,0.0022
2488.00,0.0022
2487.00,0.0022
2486.00,0.0023
2485.00,0.0023
2484.00,0.0023
2483.00,0.0023
2482.00,0.0023
2481.00,0.0023
2480.00,0.0022
2479.00,0.0022
2478.00,0.0022
2477.00,0.0022
2476.00,0.0022
2475.00,0.0022
2474.00,0.0022
2473.00,0.0022
2472.00,0.0022
2471.00,0.0022
2470.00,0.0022
2469.00,0.0022
2468.00,0.0022
2467.00,0.0022
2466.00,0.0022
2465.00,0.0022
2464.00,0.0022
2463.00,0.0022
2462.00,0.0022
2461.00,0.0022
2460.00,0.0023
2459.00,0.0023
2458.00,0.0023
2457.00,0.0023
2456.00,0.0024
2455.00,0.0024
2454.00,0.0025
2453.00,0.0025
2452.00,0.0025
2451.00,0.0025
2450.00,0.0025
2449.00,0.0025
2448.00,0.0025
2447.00,0.0025
2446.00,0.0026
2445.00,0.0026
2444.00,0.0025
2443.00,0.0024
2442.00,0.0023
2441.00,0.0023
2440.00,0.0022
2439.00,0.0022
2438.00,0.0022
2437.00,0.0022
2436.00,0.0022
2435.00,0.0022
2434.00,0.0022
2433.00,0.0022
2432.00,0.0023
2431.00,0.0023
2430.00,0.0024
2429.00,0.0025
2428.00,0.0025
2427.00,0.0025
2426.00,0.0024
2425.00,0.0023
2424.00,0.0022
2423.00,0.0022
2422.00,0.0022
2421.00,0.0022
2420.00,0.0023
2419.00,0.0023
2418.00,0.0022
2417.00,0.0021
2416.00,0.0021
2415.00,0.0021
2414.00,0.0021
2413.00,0.0021
2412.00,0.0021
2411.00,0.0021
2410.00,0.0021
2409.00,0.0021
2408.00,0.0020
2407.00,0.0020
2406.00,0.0020
2405.00,0.0021
2404.00,0.0021
2403.00,0.0021
2402.00,0.0020
2401.00,0.0020
2400.00,0.0019
2399.00,0.0019
2398.00,0.0019
2397.00,0.0019
2396.00,0.0019
2395.00,0.0020
2394.00,0.0020
2393.00,0.0020
2392.00,0.0020
2391.00,0.0020
2390.00,0.0020
2389.00,0.0020
2388.00,0.0020
2387.00,0.0020
2386.00,0.0020
2385.00,0.0019
2384.00,0.0017
2383.00,0.0016
2382.00,0.0015
2381.00,0.0015
2380.00,0.0015
2379.00,0.0016
2378.00,0.0016
2377.00,0.0017
2376.00,0.0017
2375.00,0.0017
2374.00,0.0017
2373.00,0.0017
2372.00,0.0018
2371.00,0.0019
2370.00,0.0019
2369.00,0.0018
2368.00,0.0017
2367.00,0.0016
2366.00,0.0016
2365.00,0.0016
2364.00,0.0017
2363.00,0.0017
2362.00,0.0018
2361.00,0.0018
2360.00,0.0019
2359.00,0.0019
2358.00,0.0019
2357.00,0.0019
2356.00,0.0018
2355.00,0.0018
2354.00,0.0018
2353.00,0.0017
2352.00,0.0017
2351.00,0.0018
2350.00,0.0019
2349.00,0.0020
2348.00,0.0020
2347.00,0.0020
2346.00,0.0020
2345.00,0.0021
2344.00,0.0021
2343.00,0.0022
2342.00,0.0022
2341.00,0.0022
2340.00,0.0022
2339.00,0.0022
2338.00,0.0022
2337.00,0.0022
2336.00,0.0023
2335.00,0.0023
2334.00,0.0023
2333.00,0.0022
2332.00,0.0021
2331.00,0.0021
2330.00,0.0021
2329.00,0.0021
2328.00,0.0024
2327.00,0.0028
2326.00,0.0032
2325.00,0.0036
2324.00,0.0038
2323.00,0.0038
2322.00,0.0036
2321.00,0.0033
2320.00,0.0031
2319.00,0.0029
2318.00,0.0027
2317.00,0.0026
2316.00,0.0025
2315.00,0.0024
2314.00,0.0024
2313.00,0.0023
2312.00,0.0022
2311.00,0.0022
2310.00,0.0021
2309.00,0.0020
2308.00,0.0020
2307.00,0.0020
2306.00,0.0020
2305.00,0.0022
2304.00,0.0023
2303.00,0.0023
2302.00,0.0023
2301.00,0.0024
2300.00,0.0024
2299.00,0.0024
2298.00,0.0024
2297.00,0.0025
2296.00,0.0025
2295.00,0.0026
2294.00,0.0026
2293.00,0.0027
2292.00,0.0027
2291.00,0.0028
2290.00,0.0029
2289.00,0.0030
2288.00,0.0031
2287.00,0.0032
2286.00,0.0033
2285.00,0.0034
2284.00,0.0033
2283.00,0.0032
2282.00,0.0031
2281.00,0.0031
2280.00,0.0030
2279.00,0.0030
2278.00,0.0030
2277.00,0.0030
2276.00,0.0029
2275.00,0.0027
2274.00,0.0026
2273.00,0.0025
2272.00,0.0025
2271.00,0.0025
2270.00,0.0026
2269.00,0.0027
2268.00,0.0028
2267.00,0.0027
2266.00,0.0026
2265.00,0.0025
2264.00,0.0024
2263.00,0.0024
2262.00,0.0024
2261.00,0.0024
2260.00,0.0025
2259.00,0.0026
2258.00,0.0027
2257.00,0.0027
2256.00,0.0026
2255.00,0.0025
2254.00,0.0024
2253.00,0.0023
2252.00,0.0022
2251.00,0.0021
2250.00,0.0020
2249.00,0.0020
2248.00,0.0021
2247.00,0.0021
2246.00,0.0022
2245.00,0.0022
2244.00,0.0023
2243.00,0.0022
2242.00,0.0021
2241.00,0.0020
2240.00,0.0020
2239.00,0.0020
2238.00,0.0021
2237.00,0.0021
2236.00,0.0021
2235.00,0.0020
2234.00,0.0019
2233.00,0.0020
2232.00,0.0021
2231.00,0.0021
2230.00,0.0021
2229.00,0.0020
2228.00,0.0019
2227.00,0.0018
2226.00,0.0018
2225.00,0.0017
2224.00,0.0016
2223.00,0.0017
2222.00,0.0018
2221.00,0.0019
2220.00,0.0019
2219.00,0.0018
2218.00,0.0016
2217.00,0.0016
2216.00,0.0018
2215.00,0.0020
2214.00,0.0021
2213.00,0.0022
2212.00,0.0022
2211.00,0.0021
2210.00,0.0019
2209.00,0.0017
2208.00,0.0016
2207.00,0.0017
2206.00,0.0018
2205.00,0.0019
2204.00,0.0019
2203.00,0.0018
2202.00,0.0018
2201.00,0.0019
2200.00,0.0020
2199.00,0.0020
2198.00,0.0020
2197.00,0.0020
2196.00,0.0019
2195.00,0.0019
2194.00,0.0020
2193.00,0.0022
2192.00,0.0024
2191.00,0.0025
2190.00,0.0026
2189.00,0.0024
2188.00,0.0023
2187.00,0.0023
2186.00,0.0025
2185.00,0.0028
2184.00,0.0029
2183.00,0.0028
2182.00,0.0025
2181.00,0.0022
2180.00,0.0020
2179.00,0.0019
2178.00,0.0019
2177.00,0.0018
2176.00,0.0016
2175.00,0.0013
2174.00,0.0011
2173.00,0.0010
2172.00,0.0013
2171.00,0.0017
2170.00,0.0021
2169.00,0.0027
2168.00,0.0032
2167.00,0.0034
2166.00,0.0034
2165.00,0.0032
2164.00,0.0032
2163.00,0.0034
2162.00,0.0034
2161.00,0.0029
2160.00,0.0015
2159.00,-0.0002
2158.00,-0.0015
2157.00,-0.0018
2156.00,-0.0016
2155.00,-0.0013
2154.00,-0.0011
2153.00,-0.0008
2152.00,-0.0006
2151.00,-0.0005
2150.00,-0.0005
2149.00,-0.0005
2148.00,-0.0005
2147.00,-0.0005
2146.00,-0.0005
2145.00,-0.0005
2144.00,-0.0005
2143.00,-0.0003
2142.00,-0.0002
2141.00,-0.0001
2140.00,-0.0000
2139.00,-0.0000
2138.00,-0.0001
2137.00,-0.0001
2136.00,-0.0004
2135.00,-0.0007
2134.00,-0.0009
2133.00,-0.0009
2132.00,-0.0007
2131.00,-0.0005
2130.00,-0.0003
2129.00,-0.0001
2128.00,0.0001
2127.00,0.0003
2126.00,0.0006
2125.00,0.0007
2124.00,0.0008
2123.00,0.0009
2122.00,0.0010
2121.00,0.0011
2120.00,0.0013
2119.00,0.0014
2118.00,0.0015
2117.00,0.0016
2116.00,0.0017
2115.00,0.0018
2114.00,0.0018
2113.00,0.0018
2112.00,0.0018
2111.00,0.0018
2110.00,0.0018
2109.00,0.0018
2108.00,0.0019
2107.00,0.0019
2106.00,0.0019
2105.00,0.0018
2104.00,0.0017
2103.00,0.0015
2102.00,0.0015
2101.00,0.0016
2100.00,0.0017
2099.00,0.0018
2098.00,0.0017
2097.00,0.0015
2096.00,0.0012
2095.00,0.0009
2094.00,0.0008
2093.00,0.0008
2092.00,0.0009
2091.00,0.0011
2090.00,0.0013
2089.00,0.0014
2088.00,0.0014
2087.00,0.0015
2086.00,0.0015
2085.00,0.0016
2084.00,0.0016
2083.00,0.0016
2082.00,0.0016
2081.00,0.0018
2080.00,0.0019
2079.00,0.0021
2078.00,0.0022
2077.00,0.0022
2076.00,0.0021
2075.00,0.0021
2074.00,0.0020
2073.00,0.0020
2072.00,0.0018
2071.00,0.0016
2070.00,0.0014
2069.00,0.0013
2068.00,0.0013
2067.00,0.0014
2066.00,0.0015
2065.00,0.0016
2064.00,0.0015
2063.00,0.0013
2062.00,0.0012
2061.00,0.0012
2060.00,0.0012
2059.00,0.0013
2058.00,0.0014
2057.00,0.0015
2056.00,0.0015
2055.00,0.0015
2054.00,0.0016
2053.00,0.0020
2052.00,0.0024
2051.00,0.0027
2050.00,0.0026
2049.00,0.0023
2048.00,0.0021
2047.00,0.0020
2046.00,0.0019
2045.00,0.0019
2044.00,0.0019
2043.00,0.0019
2042.00,0.0018
2041.00,0.0018
2040.00,0.0017
2039.00,0.0017
2038.00,0.0017
2037.00,0.0018
2036.00,0.0018
2035.00,0.0016
2034.00,0.0014
2033.00,0.0011
2032.00,0.0010
2031.00,0.0008
2030.00,0.0006
2029.00,0.0005
2028.00,0.0005
2027.00,0.0004
2026.00,0.0004
2025.00,0.0004
2024.00,0.0005
2023.00,0.0006
2022.00,0.0007
2021.00,0.0007
2020.00,0.0006
2019.00,0.0003
2018.00,0.0002
2017.00,0.0002
2016.00,0.0002
2015.00,0.0002
2014.00,0.0002
2013.00,0.0003
2012.00,0.0005
2011.00,0.0007
2010.00,0.0007
2009.00,0.0004
2008.00,0.0000
2007.00,-0.0004
2006.00,-0.0006
2005.00,-0.0004
2004.00,0.0000
2003.00,0.0004
2002.00,0.0006
2001.00,0.0007
2000.00,0.0007
1999.00,0.0005
1998.00,0.0003
1997.00,0.0003
1996.00,0.0004
1995.00,0.0005
1994.00,0.0005
1993.00,0.0006
1992.00,0.0007
1991.00,0.0009
1990.00,0.0011
1989.00,0.0012
1988.00,0.0013
1987.00,0.0015
1986.00,0.0018
1985.00,0.0022
1984.00,0.0027
1983.00,0.0030
1982.00,0.0031
1981.00,0.0030
1980.00,0.0026
1979.00,0.0019
1978.00,0.0011
1977.00,0.0004
1976.00,0.0000
1975.00,-0.0001
1974.00,-0.0002
1973.00,-0.0002
1972.00,-0.0002
1971.00,-0.0002
1970.00,-0.0001
1969.00,-0.0001
1968.00,-0.0001
1967.00,-0.0001
1966.00,-0.0002
1965.00,-0.0002
1964.00,-0.0001
1963.00,0.0001
1962.00,0.0003
1961.00,0.0004
1960.00,0.0005
1959.00,0.0005
1958.00,0.0004
1957.00,0.0001
1956.00,-0.0002
1955.00,-0.0005
1954.00,-0.0007
1953.00,-0.0006
1952.00,-0.0004
1951.00,-0.0002
1950.00,0.0001
1949.00,0.0003
1948.00,0.0003
1947.00,0.0003
1946.00,0.0003
1945.00,0.0003
1944.00,0.0005
1943.00,0.0006
1942.00,0.0006
1941.00,0.0004
1940.00,0.0003
1939.00,0.0001
1938.00,0.0001
1937.00,0.0002
1936.00,0.0003
1935.00,0.0004
1934.00,0.0005
1933.00,0.0006
1932.00,0.0007
1931.00,0.0006
1930.00,0.0005
1929.00,0.0005
1928.00,0.0006
1927.00,0.0007
1926.00,0.0008
1925.00,0.0008
1924.00,0.0009
1923.00,0.0009
1922.00,0.0009
1921.00,0.0009
1920.00,0.0010
1919.00,0.0010
1918.00,0.0011
1917.00,0.0011
1916.00,0.0010
1915.00,0.0009
1914.00,0.0009
1913.00,0.0009
1912.00,0.0009
1911.00,0.0008
1910.00,0.0009
1909.00,0.0009
1908.00,0.0011
1907.00,0.0011
1906.00,0.0011
1905.00,0.0011
1904.00,0.0011
1903.00,0.0012
1902.00,0.0013
1901.00,0.0014
1900.00,0.0014
1899.00,0.0015
1898.00,0.0014
1897.00,0.0014
1896.00,0.0013
1895.00,0.0012
1894.00,0.0012
1893.00,0.0012
1892.00,0.0013
1891.00,0.0013
1890.00,0.0012
1889.00,0.0012
1888.00,0.0012
1887.00,0.0012
1886.00,0.0013
1885.00,0.0013
1884.00,0.0013
1883.00,0.0013
1882.00,0.0014
1881.00,0.0014
1880.00,0.0013
1879.00,0.0013
1878.00,0.0013
1877.00,0.0013
1876.00,0.0013
1875.00,0.0014
1874.00,0.0014
1873.00,0.0014
1872.00,0.0013
1871.00,0.0013
1870.00,0.0012
1869.00,0.0012
1868.00,0.0011
1867.00,0.0011
1866.00,0.0012
1865.00,0.0013
1864.00,0.0014
1863.00,0.0015
1862.00,0.0015
1861.00,0.0015
1860.00,0.0014
1859.00,0.0013
1858.00,0.0014
1857.00,0.0014
1856.00,0.0014
1855.00,0.0014
1854.00,0.0015
1853.00,0.0015
1852.00,0.0016
1851.00,0.0016
1850.00,0.0015
1849.00,0.0015
1848.00,0.0015
1847.00,0.0014
1846.00,0.0014
1845.00,0.0014
1844.00,0.0015
1843.00,0.0015
1842.00,0.0014
1841.00,0.0014
1840.00,0.0015
1839.00,0.0015
1838.00,0.0015
1837.00,0.0016
1836.00,0.0016
1835.00,0.0016
1834.00,0.0016
1833.00,0.0016
1832.00,0.0016
1831.00,0.0016
1830.00,0.0015
1829.00,0.0015
1828.00,0.0015
1827.00,0.0016
1826.00,0.0016
1825.00,0.0017
1824.00,0.0017
1823.00,0.0016
1822.00,0.0016
1821.00,0.0015
1820.00,0.0015
1819.00,0.0014
1818.00,0.0013
1817.00,0.0013
1816.00,0.0013
1815.00,0.0013
1814.00,0.0014
1813.00,0.0016
1812.00,0.0017
1811.00,0.0017
1810.00,0.0017
1809.00,0.0017
1808.00,0.0018
1807.00,0.0018
1806.00,0.0018
1805.00,0.0018
1804.00,0.0018
1803.00,0.0017
1802.00,0.0018
1801.00,0.0018
1800.00,0.0020
1799.00,0.0020
1798.00,0.0021
1797.00,0.0021
1796.00,0.0021
1795.00,0.0021
1794.00,0.0021
1793.00,0.0022
1792.00,0.0022
1791.00,0.0023
1790.00,0.0023
1789.00,0.0023
1788.00,0.0023
1787.00,0.0022
1786.00,0.0022
1785.00,0.0022
1784.00,0.0022
1783.00,0.0022
1782.00,0.0022
1781.00,0.0021
1780.00,0.0021
1779.00,0.0021
1778.00,0.0021
1777.00,0.0020
1776.00,0.0020
1775.00,0.0020
1774.00,0.0021
1773.00,0.0021
1772.00,0.0022
1771.00,0.0022
1770.00,0.0021
1769.00,0.0021
1768.00,0.0022
1767.00,0.0022
1766.00,0.0022
1765.00,0.0022
1764.00,0.0022
1763.00,0.0022
1762.00,0.0022
1761.00,0.0023
1760.00,0.0023
1759.00,0.0024
1758.00,0.0024
1757.00,0.0024
1756.00,0.0025
1755.00,0.0025
1754.00,0.0025
1753.00,0.0024
1752.00,0.0025
1751.00,0.0025
1750.00,0.0026
1749.00,0.0026
1748.00,0.0027
1747.00,0.0028
1746.00,0.0028
1745.00,0.0028
1744.00,0.0029
1743.00,0.0029
1742.00,0.0029
1741.00,0.0029
1740.00,0.0030
1739.00,0.0031
1738.00,0.0031
1737.00,0.0032
1736.00,0.0032
1735.00,0.0032
1734.00,0.0032
1733.00,0.0032
1732.00,0.0033
1731.00,0.0033
1730.00,0.0032
1729.00,0.0032
1728.00,0.0032
1727.00,0.0032
1726.00,0.0032
1725.00,0.0032
1724.00,0.0032
1723.00,0.0033
1722.00,0.0033
1721.00,0.0034
1720.00,0.0034
1719.00,0.0033
1718.00,0.0033
1717.00,0.0033
1716.00,0.0033
1715.00,0.0033
1714.00,0.0033
1713.00,0.0033
1712.00,0.0033
1711.00,0.0033
1710.00,0.0034
1709.00,0.0034
1708.00,0.0035
1707.00,0.0035
1706.00,0.0036
1705.00,0.0036
1704.00,0.0037
1703.00,0.0037
1702.00,0.0038
1701.00,0.0039
1700.00,0.0041
1699.00,0.0041
1698.00,0.0041
1697.00,0.0042
1696.00,0.0044
1695.00,0.0046
1694.00,0.0048
1693.00,0.0048
1692.00,0.0049
1691.00,0.0050
1690.00,0.0052
1689.00,0.0054
1688.00,0.0056
1687.00,0.0057
1686.00,0.0059
1685.00,0.0062
1684.00,0.0065
1683.00,0.0066
1682.00,0.0067
1681.00,0.0068
1680.00,0.0069
1679.00,0.0071
1678.00,0.0072
1677.00,0.0073
1676.00,0.0074
1675.00,0.0075
1674.00,0.0076
1673.00,0.0077
1672.00,0.0078
1671.00,0.0079
1670.00,0.0080
1669.00,0.0081
1668.00,0.0082
1667.00,0.0082
1666.00,0.0082
1665.00,0.0082
1664.00,0.0082
1663.00,0.0083
1662.00,0.0083
1661.00,0.0083
1660.00,0.0083
1659.00,0.0083
1658.00,0.0083
1657.00,0.0083
1656.00,0.0083
1655.00,0.0083
1654.00,0.0083
1653.00,0.0083
1652.00,0.0083
1651.00,0.0082
1650.00,0.0081
1649.00,0.0080
1648.00,0.0080
1647.00,0.0080
1646.00,0.0079
1645.00,0.0078
1644.00,0.0077
1643.00,0.0076
1642.00,0.0076
1641.00,0.0075
1640.00,0.0075
1639.00,0.0074
1638.00,0.0074
1637.00,0.0073
1636.00,0.0072
1635.00,0.0072
1634.00,0.0071
1633.00,0.0071
1632.00,0.0071
1631.00,0.0071
1630.00,0.0071
1629.00,0.0071
1628.00,0.0070
1627.00,0.0070
1626.00,0.0069
1625.00,0.0068
1624.00,0.0069
1623.00,0.0069
1622.00,0.0069
1621.00,0.0068
1620.00,0.0068
1619.00,0.0068
1618.00,0.0067
1617.00,0.0067
1616.00,0.0067
1615.00,0.0066
1614.00,0.0066
1613.00,0.0066
1612.00,0.0066
1611.00,0.0066
1610.00,0.0065
1609.00,0.0065
1608.00,0.0064
1607.00,0.0064
1606.00,0.0064
1605.00,0.0065
1604.00,0.0065
1603.00,0.0066
1602.00,0.0065
1601.00,0.0065
1600.00,0.0064
1599.00,0.0064
1598.00,0.0064
1597.00,0.0065
1596.00,0.0065
1595.00,0.0065
1594.00,0.0064
1593.00,0.0064
1592.00,0.0065
1591.00,0.0065
1590.00,0.0065
1589.00,0.0065
1588.00,0.0065
1587.00,0.0065
1586.00,0.0065
1585.00,0.0065
1584.00,0.0065
1583.00,0.0066
1582.00,0.0066
1581.00,0.0066
1580.00,0.0067
1579.00,0.0067
1578.00,0.0067
1577.00,0.0067
1576.00,0.0067
1575.00,0.0067
1574.00,0.0067
1573.00,0.0067
1572.00,0.0067
1571.00,0.0067
1570.00,0.0067
1569.00,0.0068
1568.00,0.0068
1567.00,0.0068
1566.00,0.0068
1565.00,0.0068
1564.00,0.0069
1563.00,0.0069
1562.00,0.0070
1561.00,0.0070
1560.00,0.0072
1559.00,0.0072
1558.00,0.0071
1557.00,0.0071
1556.00,0.0071
1555.00,0.0071
1554.00,0.0072
1553.00,0.0073
1552.00,0.0073
1551.00,0.0074
1550.00,0.0075
1549.00,0.0076
1548.00,0.0077
1547.00,0.0077
1546.00,0.0077
1545.00,0.0077
1544.00,0.0077
1543.00,0.0076
1542.00,0.0076
1541.00,0.0076
1540.00,0.0077
1539.00,0.0076
1538.00,0.0076
1537.00,0.0077
1536.00,0.0077
1535.00,0.0077
1534.00,0.0077
1533.00,0.0076
1532.00,0.0076
1531.00,0.0076
1530.00,0.0075
1529.00,0.0076
1528.00,0.0077
1527.00,0.0077
1526.00,0.0078
1525.00,0.0079
1524.00,0.0081
1523.00,0.0081
1522.00,0.0082
1521.00,0.0083
1520.00,0.0084
1519.00,0.0084
1518.00,0.0084
1517.00,0.0086
1516.00,0.0087
1515.00,0.0088
1514.00,0.0089
1513.00,0.0091
1512.00,0.0092
1511.00,0.0093
1510.00,0.0094
1509.00,0.0096
1508.00,0.0099
1507.00,0.0104
1506.00,0.0107
1505.00,0.0109
1504.00,0.0111
1503.00,0.0112
1502.00,0.0113
1501.00,0.0116
1500.00,0.0119
1499.00,0.0122
1498.00,0.0125
1497.00,0.0130
1496.00,0.0135
1495.00,0.0139
1494.00,0.0141
1493.00,0.0144
1492.00,0.0147
1491.00,0.0151
1490.00,0.0155
1489.00,0.0161
1488.00,0.0167
1487.00,0.0172
1486.00,0.0177
1485.00,0.0183
1484.00,0.0189
1483.00,0.0196
1482.00,0.0204
1481.00,0.0214
1480.00,0.0224
1479.00,0.0234
1478.00,0.0246
1477.00,0.0262
1476.00,0.0282
1475.00,0.0304
1474.00,0.0335
1473.00,0.0382
1472.00,0.0439
1471.00,0.0493
1470.00,0.0543
1469.00,0.0594
1468.00,0.0648
1467.00,0.0709
1466.00,0.0780
1465.00,0.0860
1464.00,0.0932
1463.00,0.0981
1462.00,0.1011
1461.00,0.1032
1460.00,0.1046
1459.00,0.1059
1458.00,0.1078
1457.00,0.1103
1456.00,0.1118
1455.00,0.1115
1454.00,0.1104
1453.00,0.1088
1452.00,0.1065
1451.00,0.1034
1450.00,0.0993
1449.00,0.0938
1448.00,0.0870
1447.00,0.0799
1446.00,0.0735
1445.00,0.0678
1444.00,0.0629
1443.00,0.0589
1442.00,0.0560
1441.00,0.0539
1440.00,0.0526
1439.00,0.0519
1438.00,0.0519
1437.00,0.0521
1436.00,0.0515
1435.00,0.0494
1434.00,0.0463
1433.00,0.0424
1432.00,0.0386
1431.00,0.0352
1430.00,0.0327
1429.00,0.0308
1428.00,0.0295
1427.00,0.0285
1426.00,0.0278
1425.00,0.0272
1424.00,0.0266
1423.00,0.0261
1422.00,0.0257
1421.00,0.0251
1420.00,0.0245
1419.00,0.0240
1418.00,0.0235
1417.00,0.0230
1416.00,0.0224
1415.00,0.0219
1414.00,0.0215
1413.00,0.0210
1412.00,0.0205
1411.00,0.0201
1410.00,0.0197
1409.00,0.0193
1408.00,0.0188
1407.00,0.0184
1406.00,0.0182
1405.00,0.0179
1404.00,0.0177
1403.00,0.0176
1402.00,0.0175
1401.00,0.0173
1400.00,0.0172
1399.00,0.0171
1398.00,0.0172
1397.00,0.0171
1396.00,0.0171
1395.00,0.0172
1394.00,0.0175
1393.00,0.0178
1392.00,0.0181
1391.00,0.0187
1390.00,0.0195
1389.00,0.0208
1388.00,0.0229
1387.00,0.0260
1386.00,0.0303
1385.00,0.0356
1384.00,0.0425
1383.00,0.0518
1382.00,0.0640
1381.00,0.0793
1380.00,0.0978
1379.00,0.1184
1378.00,0.1381
1377.00,0.1525
1376.00,0.1577
1375.00,0.1512
1374.00,0.1347
1373.00,0.1136
1372.00,0.0935
1371.00,0.0762
1370.00,0.0621
1369.00,0.0513
1368.00,0.0437
1367.00,0.0390
1366.00,0.0364
1365.00,0.0353
1364.00,0.0354
1363.00,0.0365
1362.00,0.0382
1361.00,0.0399
1360.00,0.0411
1359.00,0.0412
1358.00,0.0400
1357.00,0.0376
1356.00,0.0344
1355.00,0.0309
1354.00,0.0275
1353.00,0.0246
1352.00,0.0222
1351.00,0.0203
1350.00,0.0188
1349.00,0.0176
1348.00,0.0166
1347.00,0.0159
1346.00,0.0152
1345.00,0.0147
1344.00,0.0143
1343.00,0.0139
1342.00,0.0135
1341.00,0.0132
1340.00,0.0130
1339.00,0.0128
1338.00,0.0127
1337.00,0.0127
1336.00,0.0128
1335.00,0.0129
1334.00,0.0132
1333.00,0.0135
1332.00,0.0138
1331.00,0.0140
1330.00,0.0140
1329.00,0.0139
1328.00,0.0136
1327.00,0.0131
1326.00,0.0127
1325.00,0.0122
1324.00,0.0118
1323.00,0.0114
1322.00,0.0111
1321.00,0.0109
1320.00,0.0107
1319.00,0.0105
1318.00,0.0103
1317.00,0.0101
1316.00,0.0099
1315.00,0.0098
1314.00,0.0097
1313.00,0.0097
1312.00,0.0097
1311.00,0.0099
1310.00,0.0102
1309.00,0.0107
1308.00,0.0114
1307.00,0.0123
1306.00,0.0131
1305.00,0.0137
1304.00,0.0140
1303.00,0.0139
1302.00,0.0135
1301.00,0.0132
1300.00,0.0131
1299.00,0.0131
1298.00,0.0133
1297.00,0.0134
1296.00,0.0135
1295.00,0.0134
1294.00,0.0131
1293.00,0.0128
1292.00,0.0124
1291.00,0.0120
1290.00,0.0117
1289.00,0.0113
1288.00,0.0110
1287.00,0.0107
1286.00,0.0104
1285.00,0.0102
1284.00,0.0100
1283.00,0.0098
1282.00,0.0096
1281.00,0.0094
1280.00,0.0093
1279.00,0.0093
1278.00,0.0092
1277.00,0.0091
1276.00,0.0091
1275.00,0.0091
1274.00,0.0091
1273.00,0.0091
1272.00,0.0091
1271.00,0.0090
1270.00,0.0090
1269.00,0.0090
1268.00,0.0091
1267.00,0.0092
1266.00,0.0093
1265.00,0.0095
1264.00,0.0097
1263.00,0.0100
1262.00,0.0103
1261.00,0.0107
1260.00,0.0111
1259.00,0.0117
1258.00,0.0122
1257.00,0.0126
1256.00,0.0128
1255.00,0.0126
1254.00,0.0122
1253.00,0.0116
1252.00,0.0110
1251.00,0.0105
1250.00,0.0101
1249.00,0.0098
1248.00,0.0097
1247.00,0.0096
1246.00,0.0095
1245.00,0.0094
1244.00,0.0093
1243.00,0.0092
1242.00,0.0091
1241.00,0.0091
1240.00,0.0091
1239.00,0.0090
1238.00,0.0090
1237.00,0.0090
1236.00,0.0089
1235.00,0.0088
1234.00,0.0088
1233.00,0.0087
1232.00,0.0087
1231.00,0.0088
1230.00,0.0088
1229.00,0.0088
1228.00,0.0089
1227.00,0.0089
1226.00,0.0091
1225.00,0.0092
1224.00,0.0095
1223.00,0.0098
1222.00,0.0101
1221.00,0.0103
1220.00,0.0104
1219.00,0.0104
1218.00,0.0103
1217.00,0.0102
1216.00,0.0100
1215.00,0.0098
1214.00,0.0096
1213.00,0.0093
1212.00,0.0091
1211.00,0.0089
1210.00,0.0087
1209.00,0.0086
1208.00,0.0084
1207.00,0.0083
1206.00,0.0081
1205.00,0.0080
1204.00,0.0080
1203.00,0.0080
1202.00,0.0080
1201.00,0.0081
1200.00,0.0081
1199.00,0.0081
1198.00,0.0081
1197.00,0.0080
1196.00,0.0080
1195.00,0.0080
1194.00,0.0080
1193.00,0.0080
1192.00,0.0080
1191.00,0.0080
1190.00,0.0080
1189.00,0.0080
1188.00,0.0080
1187.00,0.0081
1186.00,0.0081
1185.00,0.0082
1184.00,0.0083
1183.00,0.0083
1182.00,0.0085
1181.00,0.0087
1180.00,0.0090
1179.00,0.0095
1178.00,0.0101
1177.00,0.0108
1176.00,0.0118
1175.00,0.0131
1174.00,0.0148
1173.00,0.0168
1172.00,0.0193
1171.00,0.0218
1170.00,0.0243
1169.00,0.0263
1168.00,0.0275
1167.00,0.0279
1166.00,0.0274
1165.00,0.0265
1164.00,0.0252
1163.00,0.0240
1162.00,0.0228
1161.00,0.0218
1160.00,0.0210
1159.00,0.0204
1158.00,0.0199
1157.00,0.0196
1156.00,0.0194
1155.00,0.0192
1154.00,0.0190
1153.00,0.0188
1152.00,0.0184
1151.00,0.0179
1150.00,0.0172
1149.00,0.0165
1148.00,0.0156
1147.00,0.0147
1146.00,0.0139
1145.00,0.0132
1144.00,0.0126
1143.00,0.0122
1142.00,0.0118
1141.00,0.0114
1140.00,0.0110
1139.00,0.0106
1138.00,0.0102
1137.00,0.0100
1136.00,0.0098
1135.00,0.0096
1134.00,0.0096
1133.00,0.0095
1132.00,0.0094
1131.00,0.0094
1130.00,0.0094
1129.00,0.0094
1128.00,0.0094
1127.00,0.0095
1126.00,0.0096
1125.00,0.0097
1124.00,0.0097
1123.00,0.0098
1122.00,0.0098
1121.00,0.0098
1120.00,0.0098
1119.00,0.0098
1118.00,0.0097
1117.00,0.0098
1116.00,0.0098
1115.00,0.0100
1114.00,0.0101
1113.00,0.0102
1112.00,0.0103
1111.00,0.0105
1110.00,0.0108
1109.00,0.0113
1108.00,0.0118
1107.00,0.0123
1106.00,0.0129
1105.00,0.0134
1104.00,0.0138
1103.00,0.0141
1102.00,0.0142
1101.00,0.0140
1100.00,0.0137
1099.00,0.0131
1098.00,0.0126
1097.00,0.0120
1096.00,0.0116
1095.00,0.0113
1094.00,0.0110
1093.00,0.0108
1092.00,0.0106
1091.00,0.0104
1090.00,0.0102
1089.00,0.0101
1088.00,0.0100
1087.00,0.0099
1086.00,0.0098
1085.00,0.0097
1084.00,0.0097
1083.00,0.0096
1082.00,0.0096
1081.00,0.0095
1080.00,0.0094
1079.00,0.0093
1078.00,0.0093
1077.00,0.0092
1076.00,0.0091
1075.00,0.0090
1074.00,0.0089
1073.00,0.0089
1072.00,0.0089
1071.00,0.0089
1070.00,0.0089
1069.00,0.0089
1068.00,0.0089
1067.00,0.0090
1066.00,0.0090
1065.00,0.0091
1064.00,0.0092
1063.00,0.0093
1062.00,0.0093
1061.00,0.0093
1060.00,0.0092
1059.00,0.0092
1058.00,0.0092
1057.00,0.0092
1056.00,0.0092
1055.00,0.0092
1054.00,0.0093
1053.00,0.0095
1052.00,0.0096
1051.00,0.0099
1050.00,0.0102
1049.00,0.0105
1048.00,0.0107
1047.00,0.0108
1046.00,0.0109
1045.00,0.0108
1044.00,0.0108
1043.00,0.0106
1042.00,0.0105
1041.00,0.0103
1040.00,0.0102
1039.00,0.0100
1038.00,0.0100
1037.00,0.0100
1036.00,0.0101
1035.00,0.0101
1034.00,0.0101
1033.00,0.0101
1032.00,0.0100
1031.00,0.0099
1030.00,0.0099
1029.00,0.0099
1028.00,0.0099
1027.00,0.0099
1026.00,0.0099
1025.00,0.0099
1024.00,0.0099
1023.00,0.0100
1022.00,0.0101
1021.00,0.0102
1020.00,0.0102
1019.00,0.0103
1018.00,0.0104
1017.00,0.0105
1016.00,0.0106
1015.00,0.0109
1014.00,0.0112
1013.00,0.0114
1012.00,0.0117
1011.00,0.0119
1010.00,0.0121
1009.00,0.0123
1008.00,0.0126
1007.00,0.0131
1006.00,0.0138
1005.00,0.0147
1004.00,0.0160
1003.00,0.0177
1002.00,0.0199
1001.00,0.0226
1000.00,0.0255
999.00,0.0278
998.00,0.0288
997.00,0.0281
996.00,0.0259
995.00,0.0229
994.00,0.0198
993.00,0.0172
992.00,0.0152
991.00,0.0137
990.00,0.0126
989.00,0.0118
988.00,0.0112
987.00,0.0110
986.00,0.0110
985.00,0.0112
984.00,0.0116
983.00,0.0123
982.00,0.0133
981.00,0.0148
980.00,0.0167
979.00,0.0192
978.00,0.0223
977.00,0.0258
976.00,0.0295
975.00,0.0328
974.00,0.0351
973.00,0.0357
972.00,0.0344
971.00,0.0314
970.00,0.0274
969.00,0.0234
968.00,0.0198
967.00,0.0171
966.00,0.0150
965.00,0.0135
964.00,0.0125
963.00,0.0117
962.00,0.0110
961.00,0.0105
960.00,0.0100
959.00,0.0097
958.00,0.0095
957.00,0.0094
956.00,0.0092
955.00,0.0090
954.00,0.0088
953.00,0.0087
952.00,0.0086
951.00,0.0085
950.00,0.0085
949.00,0.0085
948.00,0.0086
947.00,0.0086
946.00,0.0088
945.00,0.0090
944.00,0.0093
943.00,0.0096
942.00,0.0097
941.00,0.0098
940.00,0.0097
939.00,0.0095
938.00,0.0092
937.00,0.0089
936.00,0.0085
935.00,0.0081
934.00,0.0078
933.00,0.0076
932.00,0.0075
931.00,0.0074
930.00,0.0073
929.00,0.0073
928.00,0.0072
927.00,0.0072
926.00,0.0071
925.00,0.0071
924.00,0.0072
923.00,0.0072
922.00,0.0072
921.00,0.0072
920.00,0.0072
919.00,0.0073
918.00,0.0074
917.00,0.0076
916.00,0.0077
915.00,0.0077
914.00,0.0077
913.00,0.0077
912.00,0.0077
911.00,0.0077
910.00,0.0078
909.00,0.0080
908.00,0.0083
907.00,0.0088
906.00,0.0094
905.00,0.0103
904.00,0.0116
903.00,0.0131
902.00,0.0148
901.00,0.0163
900.00,0.0172
899.00,0.0175
898.00,0.0169
897.00,0.0158
896.00,0.0143
895.00,0.0127
894.00,0.0114
893.00,0.0103
892.00,0.0095
891.00,0.0090
890.00,0.0087
889.00,0.0084
888.00,0.0083
887.00,0.0082
886.00,0.0083
885.00,0.0084
884.00,0.0086
883.00,0.0089
882.00,0.0093
881.00,0.0099
880.00,0.0106
879.00,0.0114
878.00,0.0122
877.00,0.0128
876.00,0.0132
875.00,0.0133
874.00,0.0131
873.00,0.0124
872.00,0.0115
871.00,0.0105
870.00,0.0098
869.00,0.0093
868.00,0.0089
867.00,0.0086
866.00,0.0085
865.00,0.0084
864.00,0.0085
863.00,0.0087
862.00,0.0089
861.00,0.0092
860.00,0.0095
859.00,0.0096
858.00,0.0096
857.00,0.0095
856.00,0.0093
855.00,0.0092
854.00,0.0093
853.00,0.0095
852.00,0.0098
851.00,0.0102
850.00,0.0108
849.00,0.0115
848.00,0.0123
847.00,0.0135
846.00,0.0153
845.00,0.0179
844.00,0.0212
843.00,0.0247
842.00,0.0271
841.00,0.0274
840.00,0.0255
839.00,0.0223
838.00,0.0190
837.00,0.0164
836.00,0.0147
835.00,0.0135
834.00,0.0128
833.00,0.0123
832.00,0.0120
831.00,0.0117
830.00,0.0114
829.00,0.0111
828.00,0.0109
827.00,0.0108
826.00,0.0108
825.00,0.0109
824.00,0.0110
823.00,0.0111
822.00,0.0111
821.00,0.0112
820.00,0.0113
819.00,0.0116
818.00,0.0120
817.00,0.0124
816.00,0.0130
815.00,0.0138
814.00,0.0149
813.00,0.0162
812.00,0.0176
811.00,0.0189
810.00,0.0199
809.00,0.0203
808.00,0.0201
807.00,0.0192
806.00,0.0181
805.00,0.0167
804.00,0.0153
803.00,0.0142
802.00,0.0133
801.00,0.0127
800.00,0.0122
799.00,0.0117
798.00,0.0112
797.00,0.0108
796.00,0.0106
795.00,0.0104
794.00,0.0101
793.00,0.0099
792.00,0.0096
791.00,0.0094
790.00,0.0092
789.00,0.0089
788.00,0.0086
787.00,0.0083
786.00,0.0080
785.00,0.0078
784.00,0.0076
783.00,0.0074
782.00,0.0073
781.00,0.0072
780.00,0.0072
779.00,0.0073
778.00,0.0072
777.00,0.0072
776.00,0.0072
775.00,0.0073
774.00,0.0075
773.00,0.0079
772.00,0.0082
771.00,0.0084
770.00,0.0086
769.00,0.0087
768.00,0.0087
767.00,0.0086
766.00,0.0085
765.00,0.0083
764.00,0.0080
763.00,0.0078
762.00,0.0076
761.00,0.0075
760.00,0.0074
759.00,0.0073
758.00,0.0071
757.00,0.0068
756.00,0.0066
755.00,0.0065
754.00,0.0065
753.00,0.0066
752.00,0.0067
751.00,0.0068
750.00,0.0069
749.00,0.0069
748.00,0.0068
747.00,0.0067
746.00,0.0066
745.00,0.0067
744.00,0.0067
743.00,0.0068
742.00,0.0070
741.00,0.0072
740.00,0.0072
739.00,0.0072
738.00,0.0072
737.00,0.0072
736.00,0.0074
735.00,0.0074
734.00,0.0075
733.00,0.0075
732.00,0.0075
731.00,0.0076
730.00,0.0076
729.00,0.0076
728.00,0.0075
727.00,0.0075
726.00,0.0075
725.00,0.0075
724.00,0.0075
723.00,0.0075
722.00,0.0075
721.00,0.0075
720.00,0.0075
719.00,0.0076
718.00,0.0076
717.00,0.0076
716.00,0.0077
715.00,0.0077
714.00,0.0076
713.00,0.0075
712.00,0.0075
711.00,0.0075
710.00,0.0075
709.00,0.0076
708.00,0.0077
707.00,0.0077
706.00,0.0077
705.00,0.0076
704.00,0.0076
703.00,0.0075
702.00,0.0075
701.00,0.0074
700.00,0.0072
699.00,0.0070
698.00,0.0069
697.00,0.0069
696.00,0.0070
695.00,0.0071
694.00,0.0072
693.00,0.0070
692.00,0.0068
691.00,0.0067
690.00,0.0067
689.00,0.0069
688.00,0.0072
687.00,0.0072
686.00,0.0072
685.00,0.0071
684.00,0.0070
683.00,0.0070
682.00,0.0070
681.00,0.0068
680.00,0.0067
679.00,0.0067
678.00,0.0067
677.00,0.0068
676.00,0.0069
675.00,0.0069
674.00,0.0069
673.00,0.0069
672.00,0.0068
671.00,0.0068
670.00,0.0069
669.00,0.0072
668.00,0.0077
667.00,0.0079
666.00,0.0076
665.00,0.0072
664.00,0.0068
663.00,0.0067
662.00,0.0066
661.00,0.0067
660.00,0.0070
659.00,0.0072
658.00,0.0073
657.00,0.0073
656.00,0.0072
655.00,0.0071
654.00,0.0072
653.00,0.0073
652.00,0.0074
651.00,0.0074
650.00,0.0073
649.00,0.0071
648.00,0.0068
647.00,0.0066
646.00,0.0065
645.00,0.0064
644.00,0.0063
643.00,0.0064
642.00,0.0066
641.00,0.0068
640.00,0.0070
639.00,0.0073
638.00,0.0076
637.00,0.0076
636.00,0.0074
635.00,0.0070
634.00,0.0067
633.00,0.0065
632.00,0.0065
631.00,0.0066
630.00,0.0068
629.00,0.0070
628.00,0.0073
627.00,0.0076
626.00,0.0078
625.00,0.0077
624.00,0.0076
623.00,0.0075
622.00,0.0075
621.00,0.0075
620.00,0.0074
619.00,0.0072
618.00,0.0071
617.00,0.0071
616.00,0.0071
615.00,0.0072
614.00,0.0073
613.00,0.0073
612.00,0.0074
611.00,0.0073
610.00,0.0072
609.00,0.0073
608.00,0.0075
607.00,0.0076
606.00,0.0075
605.00,0.0072
604.00,0.0068
603.00,0.0066
602.00,0.0065
601.00,0.0066
600.00,0.0067
599.00,0.0070
598.00,0.0074
597.00,0.0079
596.00,0.0082
595.00,0.0083
594.00,0.0082
593.00,0.0079
592.00,0.0077
591.00,0.0075
590.00,0.0073
589.00,0.0073
588.00,0.0074
587.00,0.0076
586.00,0.0077
585.00,0.0078
584.00,0.0079
583.00,0.0081
582.00,0.0084
581.00,0.0086
580.00,0.0085
579.00,0.0084
578.00,0.0082
577.00,0.0081
576.00,0.0079
575.00,0.0075
574.00,0.0071
573.00,0.0068
572.00,0.0068
571.00,0.0071
570.00,0.0072
569.00,0.0070
568.00,0.0068
567.00,0.0067
566.00,0.0068
565.00,0.0070
564.00,0.0070
563.00,0.0069
562.00,0.0070
561.00,0.0072
560.00,0.0075
559.00,0.0078
558.00,0.0080
557.00,0.0079
556.00,0.0078
555.00,0.0076
554.00,0.0074
553.00,0.0072
552.00,0.0072
551.00,0.0074
550.00,0.0075
549.00,0.0074
548.00,0.0071
547.00,0.0071
546.00,0.0074
545.00,0.0080
544.00,0.0082
543.00,0.0080
542.00,0.0077
541.00,0.0076
540.00,0.0077
539.00,0.0079
538.00,0.0082
537.00,0.0084
536.00,0.0087
535.00,0.0089
534.00,0.0090
533.00,0.0089
532.00,0.0089
531.00,0.0091
530.00,0.0096
529.00,0.0102
528.00,0.0104
527.00,0.0104
526.00,0.0103
525.00,0.0102
524.00,0.0100
523.00,0.0096
522.00,0.0093
521.00,0.0091
520.00,0.0090
519.00,0.0087
518.00,0.0082
517.00,0.0079
516.00,0.0080
515.00,0.0084
514.00,0.0087
513.00,0.0087
512.00,0.0086
511.00,0.0086
510.00,0.0087
509.00,0.0087
508.00,0.0082
507.00,0.0075
506.00,0.0070
505.00,0.0068
504.00,0.0071
503.00,0.0075
502.00,0.0078
501.00,0.0079
500.00,0.0080
499.00,0.0082
498.00,0.0083
497.00,0.0082
496.00,0.0081
495.00,0.0081
494.00,0.0084
493.00,0.0086
492.00,0.0085
491.00,0.0083
490.00,0.0084
489.00,0.0087
488.00,0.0089
487.00,0.0086
486.00,0.0081
485.00,0.0078
484.00,0.0078
483.00,0.0081
482.00,0.0084
481.00,0.0086
480.00,0.0087
479.00,0.0083
478.00,0.0076
477.00,0.0069
476.00,0.0070
475.00,0.0080
474.00,0.0095
473.00,0.0107
472.00,0.0112
471.00,0.0113
470.00,0.0114
469.00,0.0117
468.00,0.0118
467.00,0.0118
466.00,0.0117
465.00,0.0114
464.00,0.0109
463.00,0.0105
462.00,0.0107
461.00,0.0119
460.00,0.0136
459.00,0.0150
458.00,0.0155
457.00,0.0150
456.00,0.0141
455.00,0.0130
454.00,0.0117
453.00,0.0103
452.00,0.0089
451.00,0.0082
450.00,0.0084
