Created as New Dataset,Sample 006 By Administrator Date Wednesday, September 10 2025
cm-1,A
4000.00,0.0010
3999.00,0.0010
3998.00,0.0010
3997.00,0.0010
3996.00,0.0009
3995.00,0.0009
3994.00,0.0009
3993.00,0.0009
3992.00,0.0009
3991.00,0.0009
3990.00,0.0009
3989.00,0.0009
3988.00,0.0009
3987.00,0.0009
3986.00,0.0009
3985.00,0.0009
3984.00,0.0009
3983.00,0.0008
3982.00,0.0008
3981.00,0.0008
3980.00,0.0007
3979.00,0.0007
3978.00,0.0007
3977.00,0.0007
3976.00,0.0007
3975.00,0.0007
3974.00,0.0007
3973.00,0.0007
3972.00,0.0007
3971.00,0.0007
3970.00,0.0007
3969.00,0.0007
3968.00,0.0007
3967.00,0.0007
3966.00,0.0007
3965.00,0.0007
3964.00,0.0007
3963.00,0.0008
3962.00,0.0008
3961.00,0.0007
3960.00,0.0007
3959.00,0.0007
3958.00,0.0007
3957.00,0.0006
3956.00,0.0006
3955.00,0.0007
3954.00,0.0007
3953.00,0.0007
3952.00,0.0008
3951.00,0.0008
3950.00,0.0008
3949.00,0.0008
3948.00,0.0008
3947.00,0.0008
3946.00,0.0008
3945.00,0.0008
3944.00,0.0008
3943.00,0.0008
3942.00,0.0008
3941.00,0.0008
3940.00,0.0008
3939.00,0.0007
3938.00,0.0007
3937.00,0.0007
3936.00,0.0007
3935.00,0.0007
3934.00,0.0007
3933.00,0.0007
3932.00,0.0007
3931.00,0.0007
3930.00,0.0007
3929.00,0.0006
3928.00,0.0006
3927.00,0.0006
3926.00,0.0006
3925.00,0.0007
3924.00,0.0007
3923.00,0.0007
3922.00,0.0007
3921.00,0.0007
3920.00,0.0007
3919.00,0.0007
3918.00,0.0008
3917.00,0.0008
3916.00,0.0008
3915.00,0.0008
3914.00,0.0008
3913.00,0.0007
3912.00,0.0007
3911.00,0.0006
3910.00,0.0006
3909.00,0.0006
3908.00,0.0006
3907.00,0.0006
3906.00,0.0006
3905.00,0.0006
3904.00,0.0006
3903.00,0.0006
3902.00,0.0007
3901.00,0.0007
3900.00,0.0008
3899.00,0.0008
3898.00,0.0007
3897.00,0.0007
3896.00,0.0007
3895.00,0.0008
3894.00,0.0008
3893.00,0.0008
3892.00,0.0009
3891.00,0.0009
3890.00,0.0008
3889.00,0.0008
3888.00,0.0008
3887.00,0.0007
3886.00,0.0007
3885.00,0.0007
3884.00,0.0007
3883.00,0.0007
3882.00,0.0006
3881.00,0.0006
3880.00,0.0006
3879.00,0.0006
3878.00,0.0006
3877.00,0.0006
3876.00,0.0006
3875.00,0.0006
3874.00,0.0006
3873.00,0.0006
3872.00,0.0007
3871.00,0.0007
3870.00,0.0007
3869.00,0.0007
3868.00,0.0007
3867.00,0.0007
3866.00,0.0006
3865.00,0.0006
3864.00,0.0005
3863.00,0.0005
3862.00,0.0006
3861.00,0.0006
3860.00,0.0006
3859.00,0.0006
3858.00,0.0007
3857.00,0.0007
3856.00,0.0007
3855.00,0.0007
3854.00,0.0006
3853.00,0.0006
3852.00,0.0006
3851.00,0.0006
3850.00,0.0006
3849.00,0.0006
3848.00,0.0006
3847.00,0.0006
3846.00,0.0006
3845.00,0.0006
3844.00,0.0006
3843.00,0.0006
3842.00,0.0006
3841.00,0.0006
3840.00,0.0006
3839.00,0.0006
3838.00,0.0006
3837.00,0.0006
3836.00,0.0006
3835.00,0.0006
3834.00,0.0006
3833.00,0.0006
3832.00,0.0007
3831.00,0.0007
3830.00,0.0007
3829.00,0.0007
3828.00,0.0007
3827.00,0.0007
3826.00,0.0007
3825.00,0.0007
3824.00,0.0007
3823.00,0.0006
3822.00,0.0006
3821.00,0.0006
3820.00,0.0006
3819.00,0.0006
3818.00,0.0007
3817.00,0.0006
3816.00,0.0006
3815.00,0.0006
3814.00,0.0005
3813.00,0.0005
3812.00,0.0005
3811.00,0.0005
3810.00,0.0006
3809.00,0.0006
3808.00,0.0006
3807.00,0.0006
3806.00,0.0006
3805.00,0.0006
3804.00,0.0006
3803.00,0.0006
3802.00,0.0006
3801.00,0.0006
3800.00,0.0006
3799.00,0.0006
3798.00,0.0005
3797.00,0.0005
3796.00,0.0005
3795.00,0.0006
3794.00,0.0006
3793.00,0.0006
3792.00,0.0006
3791.00,0.0006
3790.00,0.0006
3789.00,0.0006
3788.00,0.0007
3787.00,0.0007
3786.00,0.0007
3785.00,0.0006
3784.00,0.0006
3783.00,0.0006
3782.00,0.0007
3781.00,0.0007
3780.00,0.0007
3779.00,0.0007
3778.00,0.0007
3777.00,0.0007
3776.00,0.0007
3775.00,0.0007
3774.00,0.0007
3773.00,0.0007
3772.00,0.0007
3771.00,0.0007
3770.00,0.0007
3769.00,0.0007
3768.00,0.0007
3767.00,0.0007
3766.00,0.0007
3765.00,0.0007
3764.00,0.0007
3763.00,0.0007
3762.00,0.0007
3761.00,0.0007
3760.00,0.0007
3759.00,0.0007
3758.00,0.0007
3757.00,0.0007
3756.00,0.0007
3755.00,0.0006
3754.00,0.0006
3753.00,0.0006
3752.00,0.0006
3751.00,0.0006
3750.00,0.0006
3749.00,0.0006
3748.00,0.0006
3747.00,0.0006
3746.00,0.0006
3745.00,0.0006
3744.00,0.0005
3743.00,0.0006
3742.00,0.0006
3741.00,0.0006
3740.00,0.0006
3739.00,0.0006
3738.00,0.0006
3737.00,0.0006
3736.00,0.0005
3735.00,0.0006
3734.00,0.0006
3733.00,0.0006
3732.00,0.0006
3731.00,0.0006
3730.00,0.0006
3729.00,0.0006
3728.00,0.0007
3727.00,0.0007
3726.00,0.0007
3725.00,0.0007
3724.00,0.0007
3723.00,0.0006
3722.00,0.0006
3721.00,0.0006
3720.00,0.0006
3719.00,0.0005
3718.00,0.0005
3717.00,0.0005
3716.00,0.0006
3715.00,0.0006
3714.00,0.0006
3713.00,0.0007
3712.00,0.0006
3711.00,0.0006
3710.00,0.0006
3709.00,0.0006
3708.00,0.0005
3707.00,0.0005
3706.00,0.0005
3705.00,0.0005
3704.00,0.0005
3703.00,0.0004
3702.00,0.0004
3701.00,0.0004
3700.00,0.0004
3699.00,0.0004
3698.00,0.0004
3697.00,0.0004
3696.00,0.0005
3695.00,0.0005
3694.00,0.0005
3693.00,0.0005
3692.00,0.0005
3691.00,0.0005
3690.00,0.0004
3689.00,0.0004
3688.00,0.0004
3687.00,0.0005
3686.00,0.0005
3685.00,0.0006
3684.00,0.0006
3683.00,0.0006
3682.00,0.0006
3681.00,0.0006
3680.00,0.0006
3679.00,0.0006
3678.00,0.0006
3677.00,0.0006
3676.00,0.0006
3675.00,0.0006
3674.00,0.0007
3673.00,0.0007
3672.00,0.0007
3671.00,0.0007
3670.00,0.0006
3669.00,0.0006
3668.00,0.0006
3667.00,0.0006
3666.00,0.0007
3665.00,0.0007
3664.00,0.0007
3663.00,0.0006
3662.00,0.0006
3661.00,0.0007
3660.00,0.0007
3659.00,0.0007
3658.00,0.0007
3657.00,0.0007
3656.00,0.0008
3655.00,0.0008
3654.00,0.0008
3653.00,0.0008
3652.00,0.0008
3651.00,0.0008
3650.00,0.0008
3649.00,0.0008
3648.00,0.0008
3647.00,0.0008
3646.00,0.0008
3645.00,0.0007
3644.00,0.0007
3643.00,0.0007
3642.00,0.0007
3641.00,0.0007
3640.00,0.0007
3639.00,0.0007
3638.00,0.0007
3637.00,0.0008
3636.00,0.0008
3635.00,0.0007
3634.00,0.0007
3633.00,0.0007
3632.00,0.0007
3631.00,0.0007
3630.00,0.0008
3629.00,0.0008
3628.00,0.0008
3627.00,0.0008
3626.00,0.0007
3625.00,0.0007
3624.00,0.0006
3623.00,0.0006
3622.00,0.0007
3621.00,0.0007
3620.00,0.0007
3619.00,0.0007
3618.00,0.0007
3617.00,0.0007
3616.00,0.0007
3615.00,0.0007
3614.00,0.0007
3613.00,0.0007
3612.00,0.0007
3611.00,0.0007
3610.00,0.0007
3609.00,0.0007
3608.00,0.0007
3607.00,0.0007
3606.00,0.0008
3605.00,0.0008
3604.00,0.0008
3603.00,0.0008
3602.00,0.0008
3601.00,0.0008
3600.00,0.0008
3599.00,0.0008
3598.00,0.0008
3597.00,0.0008
3596.00,0.0008
3595.00,0.0009
3594.00,0.0009
3593.00,0.0009
3592.00,0.0009
3591.00,0.0009
3590.00,0.0010
3589.00,0.0009
3588.00,0.0009
3587.00,0.0009
3586.00,0.0009
3585.00,0.0009
3584.00,0.0010
3583.00,0.0010
3582.00,0.0010
3581.00,0.0010
3580.00,0.0011
3579.00,0.0011
3578.00,0.0010
3577.00,0.0011
3576.00,0.0011
3575.00,0.0011
3574.00,0.0012
3573.00,0.0012
3572.00,0.0012
3571.00,0.0013
3570.00,0.0013
3569.00,0.0014
3568.00,0.0014
3567.00,0.0014
3566.00,0.0014
3565.00,0.0014
3564.00,0.0015
3563.00,0.0015
3562.00,0.0015
3561.00,0.0014
3560.00,0.0014
3559.00,0.0014
3558.00,0.0014
3557.00,0.0014
3556.00,0.0015
3555.00,0.0015
3554.00,0.0015
3553.00,0.0015
3552.00,0.0015
3551.00,0.0015
3550.00,0.0016
3549.00,0.0016
3548.00,0.0016
3547.00,0.0016
3546.00,0.0017
3545.00,0.0016
3544.00,0.0016
3543.00,0.0016
3542.00,0.0016
3541.00,0.0016
3540.00,0.0016
3539.00,0.0017
3538.00,0.0017
3537.00,0.0017
3536.00,0.0017
3535.00,0.0017
3534.00,0.0017
3533.00,0.0018
3532.00,0.0018
3531.00,0.0019
3530.00,0.0019
3529.00,0.0020
3528.00,0.0020
3527.00,0.0020
3526.00,0.0020
3525.00,0.0020
3524.00,0.0019
3523.00,0.0019
3522.00,0.0019
3521.00,0.0019
3520.00,0.0019
3519.00,0.0019
3518.00,0.0020
3517.00,0.0020
3516.00,0.0020
3515.00,0.0020
3514.00,0.0020
3513.00,0.0021
3512.00,0.0020
3511.00,0.0020
3510.00,0.0020
3509.00,0.0021
3508.00,0.0022
3507.00,0.0022
3506.00,0.0022
3505.00,0.0023
3504.00,0.0023
3503.00,0.0023
3502.00,0.0023
3501.00,0.0023
3500.00,0.0023
3499.00,0.0023
3498.00,0.0023
3497.00,0.0023
3496.00,0.0023
3495.00,0.0023
3494.00,0.0023
3493.00,0.0023
3492.00,0.0024
3491.00,0.0024
3490.00,0.0024
3489.00,0.0025
3488.00,0.0025
3487.00,0.0025
3486.00,0.0025
3485.00,0.0025
3484.00,0.0025
3483.00,0.0026
3482.00,0.0026
3481.00,0.0027
3480.00,0.0027
3479.00,0.0027
3478.00,0.0026
3477.00,0.0026
3476.00,0.0026
3475.00,0.0027
3474.00,0.0027
3473.00,0.0027
3472.00,0.0028
3471.00,0.0028
3470.00,0.0028
3469.00,0.0028
3468.00,0.0029
3467.00,0.0029
3466.00,0.0029
3465.00,0.0029
3464.00,0.0029
3463.00,0.0029
3462.00,0.0029
3461.00,0.0029
3460.00,0.0029
3459.00,0.0029
3458.00,0.0029
3457.00,0.0030
3456.00,0.0030
3455.00,0.0030
3454.00,0.0030
3453.00,0.0030
3452.00,0.0030
3451.00,0.0030
3450.00,0.0030
3449.00,0.0031
3448.00,0.0031
3447.00,0.0031
3446.00,0.0031
3445.00,0.0031
3444.00,0.0031
3443.00,0.0031
3442.00,0.0031
3441.00,0.0032
3440.00,0.0032
3439.00,0.0032
3438.00,0.0032
3437.00,0.0032
3436.00,0.0033
3435.00,0.0033
3434.00,0.0033
3433.00,0.0033
3432.00,0.0033
3431.00,0.0034
3430.00,0.0034
3429.00,0.0034
3428.00,0.0034
3427.00,0.0034
3426.00,0.0033
3425.00,0.0033
3424.00,0.0033
3423.00,0.0033
3422.00,0.0033
3421.00,0.0034
3420.00,0.0035
3419.00,0.0035
3418.00,0.0036
3417.00,0.0036
3416.00,0.0036
3415.00,0.0036
3414.00,0.0036
3413.00,0.0036
3412.00,0.0036
3411.00,0.0036
3410.00,0.0036
3409.00,0.0037
3408.00,0.0037
3407.00,0.0037
3406.00,0.0036
3405.00,0.0036
3404.00,0.0037
3403.00,0.0037
3402.00,0.0038
3401.00,0.0038
3400.00,0.0038
3399.00,0.0039
3398.00,0.0039
3397.00,0.0039
3396.00,0.0039
3395.00,0.0039
3394.00,0.0039
3393.00,0.0039
3392.00,0.0039
3391.00,0.0039
3390.00,0.0039
3389.00,0.0039
3388.00,0.0038
3387.00,0.0038
3386.00,0.0038
3385.00,0.0039
3384.00,0.0039
3383.00,0.0039
3382.00,0.0039
3381.00,0.0039
3380.00,0.0039
3379.00,0.0039
3378.00,0.0039
3377.00,0.0039
3376.00,0.0039
3375.00,0.0039
3374.00,0.0039
3373.00,0.0040
3372.00,0.0040
3371.00,0.0040
3370.00,0.0040
3369.00,0.0040
3368.00,0.0040
3367.00,0.0040
3366.00,0.0040
3365.00,0.0040
3364.00,0.0039
3363.00,0.0039
3362.00,0.0039
3361.00,0.0039
3360.00,0.0040
3359.00,0.0040
3358.00,0.0040
3357.00,0.0040
3356.00,0.0040
3355.00,0.0041
3354.00,0.0041
3353.00,0.0041
3352.00,0.0041
3351.00,0.0041
3350.00,0.0041
3349.00,0.0041
3348.00,0.0040
3347.00,0.0040
3346.00,0.0040
3345.00,0.0040
3344.00,0.0040
3343.00,0.0040
3342.00,0.0040
3341.00,0.0040
3340.00,0.0039
3339.00,0.0039
3338.00,0.0039
3337.00,0.0040
3336.00,0.0040
3335.00,0.0040
3334.00,0.0040
3333.00,0.0040
3332.00,0.0040
3331.00,0.0040
3330.00,0.0040
3329.00,0.0040
3328.00,0.0040
3327.00,0.0040
3326.00,0.0039
3325.00,0.0039
3324.00,0.0039
3323.00,0.0039
3322.00,0.0039
3321.00,0.0039
3320.00,0.0039
3319.00,0.0039
3318.00,0.0039
3317.00,0.0039
3316.00,0.0039
3315.00,0.0040
3314.00,0.0040
3313.00,0.0040
3312.00,0.0040
3311.00,0.0040
3310.00,0.0040
3309.00,0.0040
3308.00,0.0040
3307.00,0.0040
3306.00,0.0040
3305.00,0.0040
3304.00,0.0039
3303.00,0.0039
3302.00,0.0039
3301.00,0.0039
3300.00,0.0039
3299.00,0.0039
3298.00,0.0038
3297.00,0.0038
3296.00,0.0038
3295.00,0.0038
3294.00,0.0038
3293.00,0.0038
3292.00,0.0039
3291.00,0.0039
3290.00,0.0038
3289.00,0.0038
3288.00,0.0038
3287.00,0.0038
3286.00,0.0038
3285.00,0.0038
3284.00,0.0038
3283.00,0.0037
3282.00,0.0037
3281.00,0.0037
3280.00,0.0037
3279.00,0.0037
3278.00,0.0037
3277.00,0.0037
3276.00,0.0037
3275.00,0.0037
3274.00,0.0037
3273.00,0.0036
3272.00,0.0036
3271.00,0.0036
3270.00,0.0036
3269.00,0.0036
3268.00,0.0036
3267.00,0.0036
3266.00,0.0036
3265.00,0.0036
3264.00,0.0035
3263.00,0.0035
3262.00,0.0035
3261.00,0.0035
3260.00,0.0035
3259.00,0.0035
3258.00,0.0035
3257.00,0.0035
3256.00,0.0035
3255.00,0.0035
3254.00,0.0035
3253.00,0.0035
3252.00,0.0035
3251.00,0.0035
3250.00,0.0034
3249.00,0.0034
3248.00,0.0034
3247.00,0.0034
3246.00,0.0033
3245.00,0.0033
3244.00,0.0033
3243.00,0.0034
3242.00,0.0034
3241.00,0.0034
3240.00,0.0034
3239.00,0.0034
3238.00,0.0034
3237.00,0.0034
3236.00,0.0034
3235.00,0.0034
3234.00,0.0034
3233.00,0.0034
3232.00,0.0034
3231.00,0.0034
3230.00,0.0035
3229.00,0.0035
3228.00,0.0035
3227.00,0.0035
3226.00,0.0035
3225.00,0.0036
3224.00,0.0036
3223.00,0.0036
3222.00,0.0037
3221.00,0.0038
3220.00,0.0038
3219.00,0.0038
3218.00,0.0038
3217.00,0.0038
3216.00,0.0038
3215.00,0.0038
3214.00,0.0038
3213.00,0.0038
3212.00,0.0039
3211.00,0.0039
3210.00,0.0039
3209.00,0.0039
3208.00,0.0039
3207.00,0.0039
3206.00,0.0040
3205.00,0.0040
3204.00,0.0040
3203.00,0.0040
3202.00,0.0040
3201.00,0.0041
3200.00,0.0041
3199.00,0.0042
3198.00,0.0042
3197.00,0.0042
3196.00,0.0042
3195.00,0.0041
3194.00,0.0040
3193.00,0.0040
3192.00,0.0040
3191.00,0.0040
3190.00,0.0040
3189.00,0.0040
3188.00,0.0040
3187.00,0.0040
3186.00,0.0040
3185.00,0.0039
3184.00,0.0039
3183.00,0.0038
3182.00,0.0038
3181.00,0.0038
3180.00,0.0038
3179.00,0.0038
3178.00,0.0038
3177.00,0.0037
3176.00,0.0037
3175.00,0.0037
3174.00,0.0037
3173.00,0.0037
3172.00,0.0037
3171.00,0.0037
3170.00,0.0037
3169.00,0.0037
3168.00,0.0036
3167.00,0.0036
3166.00,0.0036
3165.00,0.0036
3164.00,0.0036
3163.00,0.0036
3162.00,0.0036
3161.00,0.0036
3160.00,0.0036
3159.00,0.0036
3158.00,0.0036
3157.00,0.0036
3156.00,0.0035
3155.00,0.0035
3154.00,0.0035
3153.00,0.0035
3152.00,0.0035
3151.00,0.0035
3150.00,0.0035
3149.00,0.0036
3148.00,0.0036
3147.00,0.0036
3146.00,0.0036
3145.00,0.0035
3144.00,0.0035
3143.00,0.0034
3142.00,0.0034
3141.00,0.0034
3140.00,0.0034
3139.00,0.0034
3138.00,0.0034
3137.00,0.0034
3136.00,0.0034
3135.00,0.0033
3134.00,0.0033
3133.00,0.0033
3132.00,0.0032
3131.00,0.0032
3130.00,0.0031
3129.00,0.0031
3128.00,0.0031
3127.00,0.0031
3126.00,0.0030
3125.00,0.0030
3124.00,0.0030
3123.00,0.0030
3122.00,0.0029
3121.00,0.0029
3120.00,0.0029
3119.00,0.0029
3118.00,0.0029
3117.00,0.0029
3116.00,0.0029
3115.00,0.0029
3114.00,0.0029
3113.00,0.0029
3112.00,0.0028
3111.00,0.0028
3110.00,0.0028
3109.00,0.0028
3108.00,0.0028
3107.00,0.0028
3106.00,0.0028
3105.00,0.0028
3104.00,0.0028
3103.00,0.0028
3102.00,0.0028
3101.00,0.0027
3100.00,0.0027
3099.00,0.0027
3098.00,0.0028
3097.00,0.0029
3096.00,0.0029
3095.00,0.0029
3094.00,0.0028
3093.00,0.0028
3092.00,0.0028
3091.00,0.0028
3090.00,0.0028
3089.00,0.0027
3088.00,0.0027
3087.00,0.0027
3086.00,0.0027
3085.00,0.0027
3084.00,0.0027
3083.00,0.0027
3082.00,0.0027
3081.00,0.0028
3080.00,0.0028
3079.00,0.0028
3078.00,0.0028
3077.00,0.0028
3076.00,0.0028
3075.00,0.0028
3074.00,0.0028
3073.00,0.0028
3072.00,0.0028
3071.00,0.0028
3070.00,0.0028
3069.00,0.0029
3068.00,0.0029
3067.00,0.0029
3066.00,0.0029
3065.00,0.0029
3064.00,0.0029
3063.00,0.0029
3062.00,0.0029
3061.00,0.0030
3060.00,0.0030
3059.00,0.0031
3058.00,0.0031
3057.00,0.0031
3056.00,0.0031
3055.00,0.0031
3054.00,0.0031
3053.00,0.0031
3052.00,0.0031
3051.00,0.0031
3050.00,0.0032
3049.00,0.0032
3048.00,0.0032
3047.00,0.0032
3046.00,0.0032
3045.00,0.0032
3044.00,0.0032
3043.00,0.0033
3042.00,0.0033
3041.00,0.0033
3040.00,0.0033
3039.00,0.0034
3038.00,0.0034
3037.00,0.0034
3036.00,0.0034
3035.00,0.0035
3034.00,0.0035
3033.00,0.0036
3032.00,0.0036
3031.00,0.0037
3030.00,0.0037
3029.00,0.0038
3028.00,0.0039
3027.00,0.0040
3026.00,0.0041
3025.00,0.0042
3024.00,0.0042
3023.00,0.0043
3022.00,0.0044
3021.00,0.0045
3020.00,0.0046
3019.00,0.0048
3018.00,0.0049
3017.00,0.0051
3016.00,0.0053
3015.00,0.0055
3014.00,0.0057
3013.00,0.0059
3012.00,0.0061
3011.00,0.0063
3010.00,0.0066
3009.00,0.0067
3008.00,0.0069
3007.00,0.0072
3006.00,0.0074
3005.00,0.0077
3004.00,0.0080
3003.00,0.0082
3002.00,0.0085
3001.00,0.0088
3000.00,0.0091
2999.00,0.0094
2998.00,0.0098
2997.00,0.0102
2996.00,0.0106
2995.00,0.0110
2994.00,0.0115
2993.00,0.0120
2992.00,0.0126
2991.00,0.0133
2990.00,0.0140
2989.00,0.0148
2988.00,0.0157
2987.00,0.0167
2986.00,0.0179
2985.00,0.0193
2984.00,0.0209
2983.00,0.0226
2982.00,0.0244
2981.00,0.0263
2980.00,0.0284
2979.00,0.0307
2978.00,0.0333
2977.00,0.0363
2976.00,0.0398
2975.00,0.0438
2974.00,0.0484
2973.00,0.0537
2972.00,0.0597
2971.00,0.0664
2970.00,0.0739
2969.00,0.0823
2968.00,0.0916
2967.00,0.1017
2966.00,0.1127
2965.00,0.1243
2964.00,0.1363
2963.00,0.1483
2962.00,0.1597
2961.00,0.1699
2960.00,0.1784
2959.00,0.1849
2958.00,0.1893
2957.00,0.1921
2956.00,0.1939
2955.00,0.1953
2954.00,0.1969
2953.00,0.1985
2952.00,0.1997
2951.00,0.1998
2950.00,0.1980
2949.00,0.1936
2948.00,0.1863
2947.00,0.1763
2946.00,0.1644
2945.00,0.1516
2944.00,0.1393
2943.00,0.1284
2942.00,0.1196
2941.00,0.1131
2940.00,0.1091
2939.00,0.1072
2938.00,0.1074
2937.00,0.1093
2936.00,0.1127
2935.00,0.1176
2934.00,0.1238
2933.00,0.1310
2932.00,0.1392
2931.00,0.1481
2930.00,0.1574
2929.00,0.1669
2928.00,0.1762
2927.00,0.1851
2926.00,0.1935
2925.00,0.2014
2924.00,0.2088
2923.00,0.2160
2922.00,0.2229
2921.00,0.2294
2920.00,0.2352
2919.00,0.2396
2918.00,0.2420
2917.00,0.2420
2916.00,0.2394
2915.00,0.2345
2914.00,0.2280
2913.00,0.2207
2912.00,0.2133
2911.00,0.2064
2910.00,0.2001
2909.00,0.1945
2908.00,0.1892
2907.00,0.1840
2906.00,0.1786
2905.00,0.1728
2904.00,0.1665
2903.00,0.1599
2902.00,0.1531
2901.00,0.1463
2900.00,0.1395
2899.00,0.1331
2898.00,0.1271
2897.00,0.1215
2896.00,0.1167
2895.00,0.1125
2894.00,0.1091
2893.00,0.1063
2892.00,0.1042
2891.00,0.1027
2890.00,0.1018
2889.00,0.1013
2888.00,0.1013
2887.00,0.1016
2886.00,0.1022
2885.00,0.1032
2884.00,0.1045
2883.00,0.1061
2882.00,0.1080
2881.00,0.1100
2880.00,0.1119
2879.00,0.1135
2878.00,0.1144
2877.00,0.1145
2876.00,0.1140
2875.00,0.1132
2874.00,0.1125
2873.00,0.1124
2872.00,0.1129
2871.00,0.1141
2870.00,0.1158
2869.00,0.1176
2868.00,0.1187
2867.00,0.1185
2866.00,0.1164
2865.00,0.1120
2864.00,0.1056
2863.00,0.0981
2862.00,0.0902
2861.00,0.0828
2860.00,0.0765
2859.00,0.0715
2858.00,0.0679
2857.00,0.0653
2856.00,0.0638
2855.00,0.0630
2854.00,0.0628
2853.00,0.0633
2852.00,0.0643
2851.00,0.0658
2850.00,0.0677
2849.00,0.0702
2848.00,0.0732
2847.00,0.0769
2846.00,0.0815
2845.00,0.0870
2844.00,0.0936
2843.00,0.1008
2842.00,0.1083
2841.00,0.1154
2840.00,0.1213
2839.00,0.1250
2838.00,0.1257
2837.00,0.1229
2836.00,0.1166
2835.00,0.1075
2834.00,0.0967
2833.00,0.0855
2832.00,0.0747
2831.00,0.0652
2830.00,0.0571
2829.00,0.0505
2828.00,0.0452
2827.00,0.0408
2826.00,0.0373
2825.00,0.0344
2824.00,0.0319
2823.00,0.0298
2822.00,0.0280
2821.00,0.0265
2820.00,0.0251
2819.00,0.0239
2818.00,0.0228
2817.00,0.0219
2816.00,0.0211
2815.00,0.0204
2814.00,0.0198
2813.00,0.0192
2812.00,0.0187
2811.00,0.0182
2810.00,0.0177
2809.00,0.0172
2808.00,0.0166
2807.00,0.0160
2806.00,0.0154
2805.00,0.0148
2804.00,0.0141
2803.00,0.0136
2802.00,0.0131
2801.00,0.0126
2800.00,0.0122
2799.00,0.0119
2798.00,0.0116
2797.00,0.0114
2796.00,0.0112
2795.00,0.0110
2794.00,0.0107
2793.00,0.0105
2792.00,0.0102
2791.00,0.0098
2790.00,0.0094
2789.00,0.0091
2788.00,0.0087
2787.00,0.0084
2786.00,0.0080
2785.00,0.0078
2784.00,0.0075
2783.00,0.0073
2782.00,0.0071
2781.00,0.0069
2780.00,0.0066
2779.00,0.0065
2778.00,0.0063
2777.00,0.0062
2776.00,0.0061
2775.00,0.0060
2774.00,0.0059
2773.00,0.0058
2772.00,0.0057
2771.00,0.0057
2770.00,0.0056
2769.00,0.0056
2768.00,0.0056
2767.00,0.0055
2766.00,0.0055
2765.00,0.0055
2764.00,0.0054
2763.00,0.0054
2762.00,0.0054
2761.00,0.0053
2760.00,0.0052
2759.00,0.0052
2758.00,0.0051
2757.00,0.0051
2756.00,0.0051
2755.00,0.0051
2754.00,0.0051
2753.00,0.0051
2752.00,0.0050
2751.00,0.0050
2750.00,0.0050
2749.00,0.0051
2748.00,0.0051
2747.00,0.0051
2746.00,0.0052
2745.00,0.0052
2744.00,0.0053
2743.00,0.0054
2742.00,0.0055
2741.00,0.0056
2740.00,0.0057
2739.00,0.0059
2738.00,0.0060
2737.00,0.0061
2736.00,0.0062
2735.00,0.0064
2734.00,0.0065
2733.00,0.0066
2732.00,0.0068
2731.00,0.0070
2730.00,0.0072
2729.00,0.0075
2728.00,0.0078
2727.00,0.0080
2726.00,0.0083
2725.00,0.0085
2724.00,0.0086
2723.00,0.0086
2722.00,0.0085
2721.00,0.0084
2720.00,0.0081
2719.00,0.0078
2718.00,0.0074
2717.00,0.0071
2716.00,0.0068
2715.00,0.0066
2714.00,0.0064
2713.00,0.0062
2712.00,0.0060
2711.00,0.0059
2710.00,0.0057
2709.00,0.0056
2708.00,0.0054
2707.00,0.0053
2706.00,0.0051
2705.00,0.0050
2704.00,0.0049
2703.00,0.0048
2702.00,0.0048
2701.00,0.0047
2700.00,0.0047
2699.00,0.0046
2698.00,0.0046
2697.00,0.0046
2696.00,0.0046
2695.00,0.0046
2694.00,0.0045
2693.00,0.0045
2692.00,0.0045
2691.00,0.0045
2690.00,0.0045
2689.00,0.0045
2688.00,0.0045
2687.00,0.0045
2686.00,0.0045
2685.00,0.0045
2684.00,0.0045
2683.00,0.0046
2682.00,0.0046
2681.00,0.0046
2680.00,0.0046
2679.00,0.0046
2678.00,0.0046
2677.00,0.0046
2676.00,0.0046
2675.00,0.0045
2674.00,0.0045
2673.00,0.0045
2672.00,0.0045
2671.00,0.0045
2670.00,0.0045
2669.00,0.0045
2668.00,0.0044
2667.00,0.0044
2666.00,0.0045
2665.00,0.0045
2664.00,0.0046
2663.00,0.0047
2662.00,0.0047
2661.00,0.0048
2660.00,0.0048
2659.00,0.0048
2658.00,0.0048
2657.00,0.0047
2656.00,0.0047
2655.00,0.0047
2654.00,0.0046
2653.00,0.0046
2652.00,0.0045
2651.00,0.0044
2650.00,0.0044
2649.00,0.0044
2648.00,0.0043
2647.00,0.0043
2646.00,0.0042
2645.00,0.0041
2644.00,0.0041
2643.00,0.0041
2642.00,0.0041
2641.00,0.0041
2640.00,0.0040
2639.00,0.0039
2638.00,0.0039
2637.00,0.0038
2636.00,0.0038
2635.00,0.0038
2634.00,0.0038
2633.00,0.0038
2632.00,0.0039
2631.00,0.0039
2630.00,0.0038
2629.00,0.0038
2628.00,0.0039
2627.00,0.0039
2626.00,0.0040
2625.00,0.0040
2624.00,0.0040
2623.00,0.0040
2622.00,0.0040
2621.00,0.0040
2620.00,0.0041
2619.00,0.0041
2618.00,0.0041
2617.00,0.0041
2616.00,0.0041
2615.00,0.0041
2614.00,0.0040
2613.00,0.0039
2612.00,0.0039
2611.00,0.0038
2610.00,0.0037
2609.00,0.0036
2608.00,0.0035
2607.00,0.0034
2606.00,0.0033
2605.00,0.0033
2604.00,0.0033
2603.00,0.0032
2602.00,0.0032
2601.00,0.0031
2600.00,0.0031
2599.00,0.0030
2598.00,0.0030
2597.00,0.0030
2596.00,0.0030
2595.00,0.0031
2594.00,0.0031
2593.00,0.0032
2592.00,0.0032
2591.00,0.0032
2590.00,0.0033
2589.00,0.0034
2588.00,0.0035
2587.00,0.0036
2586.00,0.0037
2585.00,0.0038
2584.00,0.0038
2583.00,0.0038
2582.00,0.0038
2581.00,0.0038
2580.00,0.0038
2579.00,0.0037
2578.00,0.0037
2577.00,0.0036
2576.00,0.0035
2575.00,0.0034
2574.00,0.0033
2573.00,0.0032
2572.00,0.0030
2571.00,0.0029
2570.00,0.0028
2569.00,0.0028
2568.00,0.0027
2567.00,0.0027
2566.00,0.0026
2565.00,0.0026
2564.00,0.0025
2563.00,0.0024
2562.00,0.0024
2561.00,0.0023
2560.00,0.0023
2559.00,0.0023
2558.00,0.0022
2557.00,0.0022
2556.00,0.0022
2555.00,0.0022
2554.00,0.0022
2553.00,0.0022
2552.00,0.0022
2551.00,0.0022
2550.00,0.0021
2549.00,0.0021
2548.00,0.0020
2547.00,0.0020
2546.00,0.0020
2545.00,0.0020
2544.00,0.0019
2543.00,0.0019
2542.00,0.0018
2541.00,0.0017
2540.00,0.0016
2539.00,0.0015
2538.00,0.0015
2537.00,0.0015
2536.00,0.0015
2535.00,0.0016
2534.00,0.0016
2533.00,0.0016
2532.00,0.0015
2531.00,0.0014
2530.00,0.0012
2529.00,0.0012
2528.00,0.0012
2527.00,0.0013
2526.00,0.0013
2525.00,0.0013
2524.00,0.0013
2523.00,0.0012
2522.00,0.0012
2521.00,0.0012
2520.00,0.0011
2519.00,0.0011
2518.00,0.0011
2517.00,0.0011
2516.00,0.0011
2515.00,0.0011
2514.00,0.0011
2513.00,0.0010
2512.00,0.0010
2511.00,0.0010
2510.00,0.0010
2509.00,0.0011
2508.00,0.0011
2507.00,0.0011
2506.00,0.0010
2505.00,0.0010
2504.00,0.0011
2503.00,0.0011
2502.00,0.0010
2501.00,0.0010
2500.00,0.0010
2499.00,0.0011
2498.00,0.0011
2497.00,0.0011
2496.00,0.0011
2495.00,0.0011
2494.00,0.0011
2493.00,0.0011
2492.00,0.0011
2491.00,0.0011
2490.00,0.0011
2489.00,0.0011
2488.00,0.0011
2487.00,0.0011
2486.00,0.0010
2485.00,0.0010
2484.00,0.0010
2483.00,0.0009
2482.00,0.0009
2481.00,0.0009
2480.00,0.0010
2479.00,0.0010
2478.00,0.0010
2477.00,0.0010
2476.00,0.0010
2475.00,0.0010
2474.00,0.0010
2473.00,0.0009
2472.00,0.0009
2471.00,0.0008
2470.00,0.0008
2469.00,0.0008
2468.00,0.0008
2467.00,0.0008
2466.00,0.0009
2465.00,0.0009
2464.00,0.0009
2463.00,0.0009
2462.00,0.0009
2461.00,0.0010
2460.00,0.0010
2459.00,0.0011
2458.00,0.0011
2457.00,0.0012
2456.00,0.0012
2455.00,0.0012
2454.00,0.0012
2453.00,0.0011
2452.00,0.0011
2451.00,0.0011
2450.00,0.0011
2449.00,0.0012
2448.00,0.0012
2447.00,0.0012
2446.00,0.0012
2445.00,0.0012
2444.00,0.0012
2443.00,0.0011
2442.00,0.0010
2441.00,0.0010
2440.00,0.0010
2439.00,0.0010
2438.00,0.0011
2437.00,0.0012
2436.00,0.0012
2435.00,0.0012
2434.00,0.0012
2433.00,0.0012
2432.00,0.0011
2431.00,0.0012
2430.00,0.0012
2429.00,0.0013
2428.00,0.0013
2427.00,0.0013
2426.00,0.0013
2425.00,0.0013
2424.00,0.0012
2423.00,0.0012
2422.00,0.0011
2421.00,0.0010
2420.00,0.0009
2419.00,0.0009
2418.00,0.0009
2417.00,0.0010
2416.00,0.0011
2415.00,0.0011
2414.00,0.0011
2413.00,0.0011
2412.00,0.0011
2411.00,0.0011
2410.00,0.0010
2409.00,0.0010
2408.00,0.0010
2407.00,0.0010
2406.00,0.0010
2405.00,0.0010
2404.00,0.0009
2403.00,0.0009
2402.00,0.0009
2401.00,0.0009
2400.00,0.0009
2399.00,0.0009
2398.00,0.0009
2397.00,0.0009
2396.00,0.0008
2395.00,0.0008
2394.00,0.0008
2393.00,0.0008
2392.00,0.0008
2391.00,0.0008
2390.00,0.0008
2389.00,0.0008
2388.00,0.0007
2387.00,0.0007
2386.00,0.0007
2385.00,0.0007
2384.00,0.0007
2383.00,0.0006
2382.00,0.0006
2381.00,0.0005
2380.00,0.0005
2379.00,0.0005
2378.00,0.0005
2377.00,0.0005
2376.00,0.0005
2375.00,0.0006
2374.00,0.0006
2373.00,0.0005
2372.00,0.0005
2371.00,0.0005
2370.00,0.0005
2369.00,0.0005
2368.00,0.0005
2367.00,0.0004
2366.00,0.0004
2365.00,0.0004
2364.00,0.0005
2363.00,0.0006
2362.00,0.0007
2361.00,0.0007
2360.00,0.0007
2359.00,0.0006
2358.00,0.0005
2357.00,0.0005
2356.00,0.0006
2355.00,0.0006
2354.00,0.0006
2353.00,0.0006
2352.00,0.0006
2351.00,0.0006
2350.00,0.0006
2349.00,0.0006
2348.00,0.0006
2347.00,0.0007
2346.00,0.0007
2345.00,0.0007
2344.00,0.0007
2343.00,0.0007
2342.00,0.0007
2341.00,0.0008
2340.00,0.0008
2339.00,0.0009
2338.00,0.0009
2337.00,0.0009
2336.00,0.0009
2335.00,0.0008
2334.00,0.0008
2333.00,0.0007
2332.00,0.0007
2331.00,0.0007
2330.00,0.0007
2329.00,0.0008
2328.00,0.0009
2327.00,0.0012
2326.00,0.0017
2325.00,0.0021
2324.00,0.0023
2323.00,0.0022
2322.00,0.0020
2321.00,0.0017
2320.00,0.0016
2319.00,0.0015
2318.00,0.0014
2317.00,0.0014
2316.00,0.0014
2315.00,0.0013
2314.00,0.0012
2313.00,0.0011
2312.00,0.0010
2311.00,0.0010
2310.00,0.0010
2309.00,0.0010
2308.00,0.0011
2307.00,0.0011
2306.00,0.0010
2305.00,0.0009
2304.00,0.0009
2303.00,0.0009
2302.00,0.0010
2301.00,0.0010
2300.00,0.0010
2299.00,0.0010
2298.00,0.0011
2297.00,0.0012
2296.00,0.0013
2295.00,0.0014
2294.00,0.0015
2293.00,0.0015
2292.00,0.0015
2291.00,0.0017
2290.00,0.0018
2289.00,0.0019
2288.00,0.0020
2287.00,0.0020
2286.00,0.0020
2285.00,0.0020
2284.00,0.0019
2283.00,0.0017
2282.00,0.0016
2281.00,0.0016
2280.00,0.0015
2279.00,0.0015
2278.00,0.0015
2277.00,0.0015
2276.00,0.0015
2275.00,0.0015
2274.00,0.0014
2273.00,0.0014
2272.00,0.0014
2271.00,0.0015
2270.00,0.0015
2269.00,0.0015
2268.00,0.0014
2267.00,0.0012
2266.00,0.0010
2265.00,0.0009
2264.00,0.0008
2263.00,0.0009
2262.00,0.0010
2261.00,0.0011
2260.00,0.0011
2259.00,0.0011
2258.00,0.0011
2257.00,0.0012
2256.00,0.0012
2255.00,0.0012
2254.00,0.0011
2253.00,0.0011
2252.00,0.0011
2251.00,0.0010
2250.00,0.0009
2249.00,0.0008
2248.00,0.0008
2247.00,0.0009
2246.00,0.0009
2245.00,0.0010
2244.00,0.0010
2243.00,0.0010
2242.00,0.0009
2241.00,0.0008
2240.00,0.0008
2239.00,0.0008
2238.00,0.0009
2237.00,0.0010
2236.00,0.0011
2235.00,0.0011
2234.00,0.0011
2233.00,0.0011
2232.00,0.0011
2231.00,0.0010
2230.00,0.0009
2229.00,0.0008
2228.00,0.0008
2227.00,0.0009
2226.00,0.0008
2225.00,0.0008
2224.00,0.0007
2223.00,0.0006
2222.00,0.0007
2221.00,0.0007
2220.00,0.0009
2219.00,0.0010
2218.00,0.0010
2217.00,0.0011
2216.00,0.0011
2215.00,0.0010
2214.00,0.0008
2213.00,0.0007
2212.00,0.0007
2211.00,0.0008
2210.00,0.0008
2209.00,0.0007
2208.00,0.0006
2207.00,0.0005
2206.00,0.0004
2205.00,0.0003
2204.00,0.0004
2203.00,0.0004
2202.00,0.0004
2201.00,0.0003
2200.00,0.0003
2199.00,0.0003
2198.00,0.0005
2197.00,0.0006
2196.00,0.0009
2195.00,0.0011
2194.00,0.0013
2193.00,0.0014
2192.00,0.0014
2191.00,0.0013
2190.00,0.0012
2189.00,0.0012
2188.00,0.0012
2187.00,0.0013
2186.00,0.0016
2185.00,0.0018
2184.00,0.0018
2183.00,0.0017
2182.00,0.0014
2181.00,0.0012
2180.00,0.0011
2179.00,0.0010
2178.00,0.0009
2177.00,0.0006
2176.00,0.0005
2175.00,0.0004
2174.00,0.0005
2173.00,0.0006
2172.00,0.0006
2171.00,0.0007
2170.00,0.0008
2169.00,0.0010
2168.00,0.0012
2167.00,0.0014
2166.00,0.0014
2165.00,0.0012
2164.00,0.0011
2163.00,0.0011
2162.00,0.0011
2161.00,0.0007
2160.00,-0.0002
2159.00,-0.0014
2158.00,-0.0024
2157.00,-0.0027
2156.00,-0.0026
2155.00,-0.0023
2154.00,-0.0022
2153.00,-0.0022
2152.00,-0.0022
2151.00,-0.0020
2150.00,-0.0018
2149.00,-0.0015
2148.00,-0.0012
2147.00,-0.0011
2146.00,-0.0011
2145.00,-0.0012
2144.00,-0.0012
2143.00,-0.0013
2142.00,-0.0014
2141.00,-0.0014
2140.00,-0.0013
2139.00,-0.0011
2138.00,-0.0010
2137.00,-0.0010
2136.00,-0.0012
2135.00,-0.0015
2134.00,-0.0018
2133.00,-0.0019
2132.00,-0.0018
2131.00,-0.0017
2130.00,-0.0014
2129.00,-0.0012
2128.00,-0.0009
2127.00,-0.0007
2126.00,-0.0006
2125.00,-0.0005
2124.00,-0.0005
2123.00,-0.0005
2122.00,-0.0004
2121.00,-0.0003
2120.00,-0.0002
2119.00,-0.0001
2118.00,-0.0000
2117.00,0.0001
2116.00,0.0003
2115.00,0.0004
2114.00,0.0004
2113.00,0.0004
2112.00,0.0003
2111.00,0.0003
2110.00,0.0002
2109.00,0.0003
2108.00,0.0003
2107.00,0.0003
2106.00,0.0003
2105.00,0.0001
2104.00,0.0001
2103.00,0.0001
2102.00,0.0001
2101.00,0.0002
2100.00,0.0002
2099.00,0.0002
2098.00,0.0001
2097.00,0.0000
2096.00,-0.0001
2095.00,-0.0003
2094.00,-0.0003
2093.00,-0.0002
2092.00,-0.0001
2091.00,0.0000
2090.00,0.0002
2089.00,0.0004
2088.00,0.0006
2087.00,0.0007
2086.00,0.0008
2085.00,0.0008
2084.00,0.0007
2083.00,0.0006
2082.00,0.0006
2081.00,0.0006
2080.00,0.0006
2079.00,0.0006
2078.00,0.0005
2077.00,0.0005
2076.00,0.0004
2075.00,0.0003
2074.00,0.0003
2073.00,0.0002
2072.00,0.0002
2071.00,0.0000
2070.00,-0.0001
2069.00,-0.0001
2068.00,-0.0000
2067.00,0.0001
2066.00,0.0002
2065.00,0.0002
2064.00,0.0002
2063.00,0.0001
2062.00,-0.0000
2061.00,-0.0001
2060.00,-0.0001
2059.00,-0.0001
2058.00,-0.0000
2057.00,0.0001
2056.00,0.0002
2055.00,0.0002
2054.00,0.0003
2053.00,0.0005
2052.00,0.0009
2051.00,0.0010
2050.00,0.0008
2049.00,0.0005
2048.00,0.0002
2047.00,0.0001
2046.00,-0.0001
2045.00,-0.0002
2044.00,-0.0003
2043.00,-0.0002
2042.00,-0.0000
2041.00,0.0001
2040.00,0.0001
2039.00,0.0000
2038.00,-0.0000
2037.00,-0.0000
2036.00,-0.0001
2035.00,-0.0002
2034.00,-0.0003
2033.00,-0.0004
2032.00,-0.0004
2031.00,-0.0006
2030.00,-0.0008
2029.00,-0.0008
2028.00,-0.0007
2027.00,-0.0005
2026.00,-0.0004
2025.00,-0.0003
2024.00,-0.0003
2023.00,-0.0004
2022.00,-0.0007
2021.00,-0.0011
2020.00,-0.0015
2019.00,-0.0016
2018.00,-0.0016
2017.00,-0.0013
2016.00,-0.0010
2015.00,-0.0008
2014.00,-0.0008
2013.00,-0.0009
2012.00,-0.0009
2011.00,-0.0008
2010.00,-0.0007
2009.00,-0.0007
2008.00,-0.0010
2007.00,-0.0014
2006.00,-0.0018
2005.00,-0.0019
2004.00,-0.0018
2003.00,-0.0016
2002.00,-0.0013
2001.00,-0.0012
2000.00,-0.0011
1999.00,-0.0011
1998.00,-0.0012
1997.00,-0.0013
1996.00,-0.0015
1995.00,-0.0015
1994.00,-0.0014
1993.00,-0.0011
1992.00,-0.0008
1991.00,-0.0005
1990.00,-0.0003
1989.00,-0.0003
1988.00,-0.0003
1987.00,-0.0004
1986.00,-0.0005
1985.00,-0.0005
1984.00,-0.0002
1983.00,0.0003
1982.00,0.0009
1981.00,0.0013
1980.00,0.0013
1979.00,0.0008
1978.00,0.0000
1977.00,-0.0006
1976.00,-0.0010
1975.00,-0.0013
1974.00,-0.0016
1973.00,-0.0019
1972.00,-0.0020
1971.00,-0.0020
1970.00,-0.0018
1969.00,-0.0014
1968.00,-0.0010
1967.00,-0.0007
1966.00,-0.0006
1965.00,-0.0007
1964.00,-0.0010
1963.00,-0.0014
1962.00,-0.0017
1961.00,-0.0018
1960.00,-0.0019
1959.00,-0.0018
1958.00,-0.0017
1957.00,-0.0016
1956.00,-0.0015
1955.00,-0.0015
1954.00,-0.0016
1953.00,-0.0016
1952.00,-0.0017
1951.00,-0.0018
1950.00,-0.0018
1949.00,-0.0017
1948.00,-0.0017
1947.00,-0.0018
1946.00,-0.0019
1945.00,-0.0021
1944.00,-0.0022
1943.00,-0.0020
1942.00,-0.0018
1941.00,-0.0015
1940.00,-0.0013
1939.00,-0.0012
1938.00,-0.0012
1937.00,-0.0011
1936.00,-0.0010
1935.00,-0.0009
1934.00,-0.0009
1933.00,-0.0009
1932.00,-0.0009
1931.00,-0.0009
1930.00,-0.0010
1929.00,-0.0009
1928.00,-0.0009
1927.00,-0.0008
1926.00,-0.0009
1925.00,-0.0009
1924.00,-0.0009
1923.00,-0.0009
1922.00,-0.0008
1921.00,-0.0007
1920.00,-0.0006
1919.00,-0.0005
1918.00,-0.0004
1917.00,-0.0003
1916.00,-0.0002
1915.00,-0.0002
1914.00,-0.0001
1913.00,-0.0002
1912.00,-0.0003
1911.00,-0.0003
1910.00,-0.0002
1909.00,-0.0002
1908.00,-0.0002
1907.00,-0.0002
1906.00,-0.0001
1905.00,-0.0001
1904.00,-0.0000
1903.00,-0.0001
1902.00,-0.0001
1901.00,-0.0002
1900.00,-0.0002
1899.00,-0.0002
1898.00,-0.0002
1897.00,-0.0001
1896.00,-0.0000
1895.00,0.0000
1894.00,0.0000
1893.00,0.0000
1892.00,-0.0000
1891.00,-0.0001
1890.00,-0.0001
1889.00,-0.0001
1888.00,-0.0001
1887.00,-0.0001
1886.00,-0.0001
1885.00,-0.0000
1884.00,-0.0000
1883.00,-0.0001
1882.00,-0.0001
1881.00,-0.0001
1880.00,-0.0001
1879.00,-0.0000
1878.00,-0.0000
1877.00,0.0000
1876.00,0.0000
1875.00,0.0000
1874.00,-0.0001
1873.00,-0.0002
1872.00,-0.0002
1871.00,-0.0002
1870.00,-0.0002
1869.00,-0.0001
1868.00,-0.0001
1867.00,-0.0000
1866.00,0.0000
1865.00,0.0001
1864.00,0.0001
1863.00,0.0001
1862.00,0.0000
1861.00,0.0001
1860.00,0.0001
1859.00,0.0000
1858.00,-0.0000
1857.00,-0.0000
1856.00,0.0001
1855.00,0.0001
1854.00,0.0002
1853.00,0.0002
1852.00,0.0003
1851.00,0.0003
1850.00,0.0002
1849.00,0.0002
1848.00,0.0002
1847.00,0.0002
1846.00,0.0002
1845.00,0.0002
1844.00,0.0002
1843.00,0.0001
1842.00,0.0001
1841.00,0.0001
1840.00,0.0001
1839.00,0.0002
1838.00,0.0003
1837.00,0.0004
1836.00,0.0004
1835.00,0.0004
1834.00,0.0003
1833.00,0.0003
1832.00,0.0004
1831.00,0.0004
1830.00,0.0005
1829.00,0.0006
1828.00,0.0006
1827.00,0.0006
1826.00,0.0006
1825.00,0.0006
1824.00,0.0006
1823.00,0.0005
1822.00,0.0004
1821.00,0.0003
1820.00,0.0002
1819.00,0.0001
1818.00,-0.0000
1817.00,-0.0001
1816.00,-0.0000
1815.00,0.0001
1814.00,0.0002
1813.00,0.0003
1812.00,0.0004
1811.00,0.0005
1810.00,0.0005
1809.00,0.0004
1808.00,0.0004
1807.00,0.0003
1806.00,0.0004
1805.00,0.0004
1804.00,0.0006
1803.00,0.0007
1802.00,0.0008
1801.00,0.0008
1800.00,0.0008
1799.00,0.0008
1798.00,0.0008
1797.00,0.0008
1796.00,0.0009
1795.00,0.0009
1794.00,0.0009
1793.00,0.0009
1792.00,0.0009
1791.00,0.0009
1790.00,0.0009
1789.00,0.0009
1788.00,0.0009
1787.00,0.0009
1786.00,0.0009
1785.00,0.0009
1784.00,0.0009
1783.00,0.0010
1782.00,0.0010
1781.00,0.0011
1780.00,0.0012
1779.00,0.0012
1778.00,0.0012
1777.00,0.0012
1776.00,0.0012
1775.00,0.0013
1774.00,0.0013
1773.00,0.0014
1772.00,0.0015
1771.00,0.0016
1770.00,0.0016
1769.00,0.0017
1768.00,0.0018
1767.00,0.0019
1766.00,0.0020
1765.00,0.0022
1764.00,0.0024
1763.00,0.0026
1762.00,0.0029
1761.00,0.0032
1760.00,0.0036
1759.00,0.0040
1758.00,0.0044
1757.00,0.0050
1756.00,0.0057
1755.00,0.0063
1754.00,0.0069
1753.00,0.0075
1752.00,0.0081
1751.00,0.0086
1750.00,0.0092
1749.00,0.0096
1748.00,0.0099
1747.00,0.0100
1746.00,0.0100
1745.00,0.0098
1744.00,0.0096
1743.00,0.0092
1742.00,0.0088
1741.00,0.0084
1740.00,0.0079
1739.00,0.0074
1738.00,0.0070
1737.00,0.0067
1736.00,0.0064
1735.00,0.0060
1734.00,0.0055
1733.00,0.0052
1732.00,0.0049
1731.00,0.0047
1730.00,0.0045
1729.00,0.0042
1728.00,0.0040
1727.00,0.0038
1726.00,0.0036
1725.00,0.0035
1724.00,0.0034
1723.00,0.0033
1722.00,0.0032
1721.00,0.0032
1720.00,0.0032
1719.00,0.0031
1718.00,0.0031
1717.00,0.0031
1716.00,0.0031
1715.00,0.0031
1714.00,0.0031
1713.00,0.0031
1712.00,0.0031
1711.00,0.0031
1710.00,0.0031
1709.00,0.0030
1708.00,0.0030
1707.00,0.0030
1706.00,0.0030
1705.00,0.0030
1704.00,0.0031
1703.00,0.0031
1702.00,0.0032
1701.00,0.0032
1700.00,0.0032
1699.00,0.0032
1698.00,0.0033
1697.00,0.0033
1696.00,0.0034
1695.00,0.0034
1694.00,0.0035
1693.00,0.0036
1692.00,0.0036
1691.00,0.0037
1690.00,0.0037
1689.00,0.0037
1688.00,0.0038
1687.00,0.0038
1686.00,0.0039
1685.00,0.0040
1684.00,0.0041
1683.00,0.0041
1682.00,0.0042
1681.00,0.0042
1680.00,0.0043
1679.00,0.0043
1678.00,0.0044
1677.00,0.0044
1676.00,0.0045
1675.00,0.0046
1674.00,0.0047
1673.00,0.0048
1672.00,0.0048
1671.00,0.0048
1670.00,0.0047
1669.00,0.0048
1668.00,0.0048
1667.00,0.0049
1666.00,0.0049
1665.00,0.0049
1664.00,0.0049
1663.00,0.0050
1662.00,0.0050
1661.00,0.0051
1660.00,0.0052
1659.00,0.0052
1658.00,0.0053
1657.00,0.0053
1656.00,0.0055
1655.00,0.0056
1654.00,0.0057
1653.00,0.0059
1652.00,0.0060
1651.00,0.0061
1650.00,0.0061
1649.00,0.0061
1648.00,0.0062
1647.00,0.0063
1646.00,0.0064
1645.00,0.0064
1644.00,0.0063
1643.00,0.0062
1642.00,0.0061
1641.00,0.0061
1640.00,0.0060
1639.00,0.0060
1638.00,0.0060
1637.00,0.0061
1636.00,0.0062
1635.00,0.0061
1634.00,0.0061
1633.00,0.0060
1632.00,0.0060
1631.00,0.0060
1630.00,0.0059
1629.00,0.0059
1628.00,0.0059
1627.00,0.0059
1626.00,0.0058
1625.00,0.0057
1624.00,0.0056
1623.00,0.0056
1622.00,0.0055
1621.00,0.0055
1620.00,0.0055
1619.00,0.0055
1618.00,0.0054
1617.00,0.0054
1616.00,0.0054
1615.00,0.0053
1614.00,0.0053
1613.00,0.0052
1612.00,0.0052
1611.00,0.0052
1610.00,0.0052
1609.00,0.0052
1608.00,0.0052
1607.00,0.0052
1606.00,0.0052
1605.00,0.0052
1604.00,0.0052
1603.00,0.0052
1602.00,0.0052
1601.00,0.0053
1600.00,0.0053
1599.00,0.0053
1598.00,0.0053
1597.00,0.0052
1596.00,0.0052
1595.00,0.0052
1594.00,0.0053
1593.00,0.0053
1592.00,0.0054
1591.00,0.0055
1590.00,0.0056
1589.00,0.0057
1588.00,0.0058
1587.00,0.0060
1586.00,0.0062
1585.00,0.0065
1584.00,0.0068
1583.00,0.0071
1582.00,0.0074
1581.00,0.0077
1580.00,0.0081
1579.00,0.0083
1578.00,0.0085
1577.00,0.0085
1576.00,0.0084
1575.00,0.0082
1574.00,0.0081
1573.00,0.0079
1572.00,0.0077
1571.00,0.0075
1570.00,0.0072
1569.00,0.0069
1568.00,0.0067
1567.00,0.0066
1566.00,0.0064
1565.00,0.0063
1564.00,0.0062
1563.00,0.0061
1562.00,0.0061
1561.00,0.0061
1560.00,0.0062
1559.00,0.0062
1558.00,0.0062
1557.00,0.0062
1556.00,0.0062
1555.00,0.0063
1554.00,0.0063
1553.00,0.0065
1552.00,0.0067
1551.00,0.0069
1550.00,0.0071
1549.00,0.0074
1548.00,0.0076
1547.00,0.0079
1546.00,0.0082
1545.00,0.0086
1544.00,0.0091
1543.00,0.0095
1542.00,0.0098
1541.00,0.0100
1540.00,0.0099
1539.00,0.0095
1538.00,0.0091
1537.00,0.0088
1536.00,0.0085
1535.00,0.0081
1534.00,0.0076
1533.00,0.0072
1532.00,0.0069
1531.00,0.0067
1530.00,0.0066
1529.00,0.0065
1528.00,0.0064
1527.00,0.0063
1526.00,0.0061
1525.00,0.0060
1524.00,0.0059
1523.00,0.0059
1522.00,0.0058
1521.00,0.0058
1520.00,0.0059
1519.00,0.0059
1518.00,0.0059
1517.00,0.0059
1516.00,0.0060
1515.00,0.0060
1514.00,0.0060
1513.00,0.0060
1512.00,0.0061
1511.00,0.0062
1510.00,0.0063
1509.00,0.0064
1508.00,0.0066
1507.00,0.0067
1506.00,0.0067
1505.00,0.0068
1504.00,0.0069
1503.00,0.0069
1502.00,0.0070
1501.00,0.0072
1500.00,0.0074
1499.00,0.0077
1498.00,0.0080
1497.00,0.0084
1496.00,0.0088
1495.00,0.0091
1494.00,0.0092
1493.00,0.0095
1492.00,0.0099
1491.00,0.0103
1490.00,0.0107
1489.00,0.0112
1488.00,0.0118
1487.00,0.0122
1486.00,0.0127
1485.00,0.0134
1484.00,0.0141
1483.00,0.0149
1482.00,0.0159
1481.00,0.0171
1480.00,0.0184
1479.00,0.0198
1478.00,0.0213
1477.00,0.0233
1476.00,0.0256
1475.00,0.0282
1474.00,0.0318
1473.00,0.0369
1472.00,0.0431
1471.00,0.0492
1470.00,0.0551
1469.00,0.0612
1468.00,0.0678
1467.00,0.0750
1466.00,0.0834
1465.00,0.0925
1464.00,0.1006
1463.00,0.1065
1462.00,0.1105
1461.00,0.1136
1460.00,0.1161
1459.00,0.1182
1458.00,0.1206
1457.00,0.1230
1456.00,0.1244
1455.00,0.1249
1454.00,0.1248
1453.00,0.1243
1452.00,0.1228
1451.00,0.1199
1450.00,0.1151
1449.00,0.1079
1448.00,0.0982
1447.00,0.0878
1446.00,0.0782
1445.00,0.0700
1444.00,0.0628
1443.00,0.0569
1442.00,0.0525
1441.00,0.0495
1440.00,0.0475
1439.00,0.0465
1438.00,0.0461
1437.00,0.0456
1436.00,0.0441
1435.00,0.0414
1434.00,0.0376
1433.00,0.0332
1432.00,0.0287
1431.00,0.0247
1430.00,0.0217
1429.00,0.0195
1428.00,0.0180
1427.00,0.0170
1426.00,0.0164
1425.00,0.0159
1424.00,0.0155
1423.00,0.0152
1422.00,0.0151
1421.00,0.0149
1420.00,0.0146
1419.00,0.0144
1418.00,0.0141
1417.00,0.0138
1416.00,0.0135
1415.00,0.0133
1414.00,0.0132
1413.00,0.0130
1412.00,0.0128
1411.00,0.0127
1410.00,0.0126
1409.00,0.0125
1408.00,0.0124
1407.00,0.0124
1406.00,0.0125
1405.00,0.0125
1404.00,0.0125
1403.00,0.0126
1402.00,0.0127
1401.00,0.0129
1400.00,0.0130
1399.00,0.0133
1398.00,0.0136
1397.00,0.0139
1396.00,0.0141
1395.00,0.0145
1394.00,0.0151
1393.00,0.0156
1392.00,0.0163
1391.00,0.0171
1390.00,0.0184
1389.00,0.0201
1388.00,0.0227
1387.00,0.0266
1386.00,0.0318
1385.00,0.0382
1384.00,0.0465
1383.00,0.0574
1382.00,0.0714
1381.00,0.0888
1380.00,0.1096
1379.00,0.1329
1378.00,0.1550
1377.00,0.1713
1376.00,0.1770
1375.00,0.1692
1374.00,0.1497
1373.00,0.1254
1372.00,0.1027
1371.00,0.0835
1370.00,0.0679
1369.00,0.0559
1368.00,0.0474
1367.00,0.0422
1366.00,0.0393
1365.00,0.0381
1364.00,0.0383
1363.00,0.0395
1362.00,0.0415
1361.00,0.0436
1360.00,0.0451
1359.00,0.0455
1358.00,0.0444
1357.00,0.0418
1356.00,0.0382
1355.00,0.0341
1354.00,0.0302
1353.00,0.0269
1352.00,0.0242
1351.00,0.0220
1350.00,0.0203
1349.00,0.0188
1348.00,0.0177
1347.00,0.0167
1346.00,0.0159
1345.00,0.0152
1344.00,0.0148
1343.00,0.0144
1342.00,0.0141
1341.00,0.0139
1340.00,0.0137
1339.00,0.0135
1338.00,0.0133
1337.00,0.0132
1336.00,0.0132
1335.00,0.0133
1334.00,0.0136
1333.00,0.0140
1332.00,0.0144
1331.00,0.0148
1330.00,0.0149
1329.00,0.0148
1328.00,0.0145
1327.00,0.0140
1326.00,0.0134
1325.00,0.0129
1324.00,0.0123
1323.00,0.0118
1322.00,0.0114
1321.00,0.0111
1320.00,0.0109
1319.00,0.0107
1318.00,0.0104
1317.00,0.0102
1316.00,0.0100
1315.00,0.0099
1314.00,0.0099
1313.00,0.0099
1312.00,0.0101
1311.00,0.0104
1310.00,0.0110
1309.00,0.0119
1308.00,0.0132
1307.00,0.0148
1306.00,0.0163
1305.00,0.0174
1304.00,0.0177
1303.00,0.0172
1302.00,0.0164
1301.00,0.0155
1300.00,0.0149
1299.00,0.0145
1298.00,0.0144
1297.00,0.0142
1296.00,0.0140
1295.00,0.0137
1294.00,0.0133
1293.00,0.0128
1292.00,0.0123
1291.00,0.0118
1290.00,0.0114
1289.00,0.0110
1288.00,0.0107
1287.00,0.0104
1286.00,0.0102
1285.00,0.0101
1284.00,0.0099
1283.00,0.0097
1282.00,0.0096
1281.00,0.0095
1280.00,0.0094
1279.00,0.0094
1278.00,0.0094
1277.00,0.0094
1276.00,0.0094
1275.00,0.0094
1274.00,0.0094
1273.00,0.0095
1272.00,0.0096
1271.00,0.0097
1270.00,0.0098
1269.00,0.0099
1268.00,0.0101
1267.00,0.0102
1266.00,0.0105
1265.00,0.0107
1264.00,0.0110
1263.00,0.0115
1262.00,0.0120
1261.00,0.0127
1260.00,0.0135
1259.00,0.0145
1258.00,0.0156
1257.00,0.0164
1256.00,0.0169
1255.00,0.0168
1254.00,0.0161
1253.00,0.0151
1252.00,0.0141
1251.00,0.0132
1250.00,0.0125
1249.00,0.0120
1248.00,0.0117
1247.00,0.0115
1246.00,0.0114
1245.00,0.0113
1244.00,0.0113
1243.00,0.0113
1242.00,0.0112
1241.00,0.0111
1240.00,0.0110
1239.00,0.0109
1238.00,0.0108
1237.00,0.0108
1236.00,0.0107
1235.00,0.0106
1234.00,0.0105
1233.00,0.0105
1232.00,0.0104
1231.00,0.0104
1230.00,0.0104
1229.00,0.0104
1228.00,0.0105
1227.00,0.0105
1226.00,0.0106
1225.00,0.0108
1224.00,0.0110
1223.00,0.0113
1222.00,0.0116
1221.00,0.0119
1220.00,0.0121
1219.00,0.0121
1218.00,0.0120
1217.00,0.0119
1216.00,0.0117
1215.00,0.0114
1214.00,0.0111
1213.00,0.0109
1212.00,0.0106
1211.00,0.0104
1210.00,0.0102
1209.00,0.0100
1208.00,0.0099
1207.00,0.0097
1206.00,0.0096
1205.00,0.0096
1204.00,0.0096
1203.00,0.0097
1202.00,0.0097
1201.00,0.0098
1200.00,0.0098
1199.00,0.0099
1198.00,0.0099
1197.00,0.0100
1196.00,0.0100
1195.00,0.0101
1194.00,0.0102
1193.00,0.0103
1192.00,0.0104
1191.00,0.0105
1190.00,0.0106
1189.00,0.0107
1188.00,0.0108
1187.00,0.0110
1186.00,0.0111
1185.00,0.0112
1184.00,0.0115
1183.00,0.0118
1182.00,0.0121
1181.00,0.0126
1180.00,0.0131
1179.00,0.0138
1178.00,0.0147
1177.00,0.0158
1176.00,0.0174
1175.00,0.0195
1174.00,0.0222
1173.00,0.0256
1172.00,0.0297
1171.00,0.0341
1170.00,0.0386
1169.00,0.0424
1168.00,0.0449
1167.00,0.0457
1166.00,0.0448
1165.00,0.0428
1164.00,0.0400
1163.00,0.0371
1162.00,0.0345
1161.00,0.0323
1160.00,0.0305
1159.00,0.0290
1158.00,0.0278
1157.00,0.0269
1156.00,0.0261
1155.00,0.0256
1154.00,0.0251
1153.00,0.0246
1152.00,0.0239
1151.00,0.0230
1150.00,0.0221
1149.00,0.0210
1148.00,0.0199
1147.00,0.0189
1146.00,0.0179
1145.00,0.0170
1144.00,0.0162
1143.00,0.0154
1142.00,0.0147
1141.00,0.0141
1140.00,0.0135
1139.00,0.0130
1138.00,0.0125
1137.00,0.0120
1136.00,0.0115
1135.00,0.0111
1134.00,0.0107
1133.00,0.0105
1132.00,0.0104
1131.00,0.0103
1130.00,0.0104
1129.00,0.0104
1128.00,0.0104
1127.00,0.0104
1126.00,0.0104
1125.00,0.0103
1124.00,0.0103
1123.00,0.0103
1122.00,0.0104
1121.00,0.0105
1120.00,0.0106
1119.00,0.0107
1118.00,0.0108
1117.00,0.0109
1116.00,0.0110
1115.00,0.0110
1114.00,0.0110
1113.00,0.0111
1112.00,0.0112
1111.00,0.0114
1110.00,0.0117
1109.00,0.0121
1108.00,0.0126
1107.00,0.0132
1106.00,0.0138
1105.00,0.0145
1104.00,0.0150
1103.00,0.0152
1102.00,0.0152
1101.00,0.0149
1100.00,0.0146
1099.00,0.0141
1098.00,0.0136
1097.00,0.0131
1096.00,0.0126
1095.00,0.0121
1094.00,0.0118
1093.00,0.0115
1092.00,0.0113
1091.00,0.0111
1090.00,0.0109
1089.00,0.0108
1088.00,0.0106
1087.00,0.0105
1086.00,0.0103
1085.00,0.0102
1084.00,0.0102
1083.00,0.0101
1082.00,0.0099
1081.00,0.0097
1080.00,0.0094
1079.00,0.0092
1078.00,0.0092
1077.00,0.0091
1076.00,0.0092
1075.00,0.0092
1074.00,0.0092
1073.00,0.0093
1072.00,0.0092
1071.00,0.0092
1070.00,0.0091
1069.00,0.0091
1068.00,0.0091
1067.00,0.0090
1066.00,0.0090
1065.00,0.0090
1064.00,0.0090
1063.00,0.0091
1062.00,0.0091
1061.00,0.0091
1060.00,0.0090
1059.00,0.0091
1058.00,0.0091
1057.00,0.0092
1056.00,0.0093
1055.00,0.0094
1054.00,0.0094
1053.00,0.0095
1052.00,0.0096
1051.00,0.0097
1050.00,0.0099
1049.00,0.0102
1048.00,0.0106
1047.00,0.0111
1046.00,0.0114
1045.00,0.0117
1044.00,0.0117
1043.00,0.0116
1042.00,0.0112
1041.00,0.0108
1040.00,0.0105
1039.00,0.0103
1038.00,0.0102
1037.00,0.0101
1036.00,0.0102
1035.00,0.0102
1034.00,0.0101
1033.00,0.0100
1032.00,0.0099
1031.00,0.0097
1030.00,0.0096
1029.00,0.0095
1028.00,0.0095
1027.00,0.0095
1026.00,0.0095
1025.00,0.0096
1024.00,0.0096
1023.00,0.0096
1022.00,0.0096
1021.00,0.0096
1020.00,0.0096
1019.00,0.0098
1018.00,0.0100
1017.00,0.0103
1016.00,0.0106
1015.00,0.0110
1014.00,0.0114
1013.00,0.0119
1012.00,0.0124
1011.00,0.0129
1010.00,0.0135
1009.00,0.0141
1008.00,0.0148
1007.00,0.0156
1006.00,0.0166
1005.00,0.0181
1004.00,0.0203
1003.00,0.0232
1002.00,0.0271
1001.00,0.0318
1000.00,0.0370
999.00,0.0415
998.00,0.0442
997.00,0.0440
996.00,0.0409
995.00,0.0359
994.00,0.0302
993.00,0.0252
992.00,0.0211
991.00,0.0182
990.00,0.0162
989.00,0.0148
988.00,0.0139
987.00,0.0134
986.00,0.0133
985.00,0.0136
984.00,0.0141
983.00,0.0149
982.00,0.0162
981.00,0.0181
980.00,0.0207
979.00,0.0242
978.00,0.0286
977.00,0.0339
976.00,0.0399
975.00,0.0459
974.00,0.0509
973.00,0.0535
972.00,0.0528
971.00,0.0487
970.00,0.0424
969.00,0.0354
968.00,0.0291
967.00,0.0242
966.00,0.0205
965.00,0.0178
964.00,0.0159
963.00,0.0146
962.00,0.0135
961.00,0.0127
960.00,0.0121
959.00,0.0116
958.00,0.0112
957.00,0.0108
956.00,0.0104
955.00,0.0100
954.00,0.0097
953.00,0.0095
952.00,0.0093
951.00,0.0093
950.00,0.0093
949.00,0.0092
948.00,0.0091
947.00,0.0091
946.00,0.0092
945.00,0.0093
944.00,0.0096
943.00,0.0099
942.00,0.0101
941.00,0.0102
940.00,0.0101
939.00,0.0098
938.00,0.0094
937.00,0.0089
936.00,0.0084
935.00,0.0080
934.00,0.0077
933.00,0.0074
932.00,0.0072
931.00,0.0070
930.00,0.0068
929.00,0.0067
928.00,0.0066
927.00,0.0066
926.00,0.0065
925.00,0.0065
924.00,0.0065
923.00,0.0065
922.00,0.0066
921.00,0.0066
920.00,0.0067
919.00,0.0068
918.00,0.0070
917.00,0.0071
916.00,0.0071
915.00,0.0071
914.00,0.0071
913.00,0.0072
912.00,0.0073
911.00,0.0075
910.00,0.0077
909.00,0.0078
908.00,0.0079
907.00,0.0083
906.00,0.0089
905.00,0.0099
904.00,0.0112
903.00,0.0128
902.00,0.0147
901.00,0.0165
900.00,0.0178
899.00,0.0182
898.00,0.0176
897.00,0.0161
896.00,0.0142
895.00,0.0123
894.00,0.0108
893.00,0.0097
892.00,0.0090
891.00,0.0085
890.00,0.0081
889.00,0.0078
888.00,0.0076
887.00,0.0074
886.00,0.0073
885.00,0.0073
884.00,0.0073
883.00,0.0073
882.00,0.0074
881.00,0.0074
880.00,0.0074
879.00,0.0074
878.00,0.0075
877.00,0.0076
876.00,0.0077
875.00,0.0077
874.00,0.0077
873.00,0.0076
872.00,0.0075
871.00,0.0075
870.00,0.0075
869.00,0.0075
868.00,0.0075
867.00,0.0077
866.00,0.0080
865.00,0.0082
864.00,0.0083
863.00,0.0083
862.00,0.0084
861.00,0.0085
860.00,0.0087
859.00,0.0090
858.00,0.0092
857.00,0.0094
856.00,0.0095
855.00,0.0097
854.00,0.0100
853.00,0.0104
852.00,0.0109
851.00,0.0114
850.00,0.0120
849.00,0.0130
848.00,0.0143
847.00,0.0164
846.00,0.0193
845.00,0.0237
844.00,0.0296
843.00,0.0365
842.00,0.0423
841.00,0.0445
840.00,0.0422
839.00,0.0364
838.00,0.0298
837.00,0.0242
836.00,0.0204
835.00,0.0180
834.00,0.0164
833.00,0.0153
832.00,0.0145
831.00,0.0138
830.00,0.0133
829.00,0.0129
828.00,0.0126
827.00,0.0124
826.00,0.0122
825.00,0.0121
824.00,0.0120
823.00,0.0119
822.00,0.0118
821.00,0.0118
820.00,0.0119
819.00,0.0120
818.00,0.0122
817.00,0.0124
816.00,0.0128
815.00,0.0136
814.00,0.0148
813.00,0.0163
812.00,0.0180
811.00,0.0195
810.00,0.0206
809.00,0.0211
808.00,0.0211
807.00,0.0203
806.00,0.0191
805.00,0.0175
804.00,0.0160
803.00,0.0147
802.00,0.0136
801.00,0.0127
800.00,0.0120
799.00,0.0115
798.00,0.0110
797.00,0.0105
796.00,0.0102
795.00,0.0099
794.00,0.0096
793.00,0.0093
792.00,0.0090
791.00,0.0087
790.00,0.0084
789.00,0.0082
788.00,0.0080
787.00,0.0078
786.00,0.0076
785.00,0.0074
784.00,0.0072
783.00,0.0070
782.00,0.0069
781.00,0.0068
780.00,0.0066
779.00,0.0065
778.00,0.0064
777.00,0.0065
776.00,0.0067
775.00,0.0070
774.00,0.0073
773.00,0.0076
772.00,0.0079
771.00,0.0081
770.00,0.0084
769.00,0.0086
768.00,0.0087
767.00,0.0087
766.00,0.0086
765.00,0.0083
764.00,0.0080
763.00,0.0076
762.00,0.0072
761.00,0.0069
760.00,0.0067
759.00,0.0064
758.00,0.0061
757.00,0.0059
756.00,0.0058
755.00,0.0057
754.00,0.0056
753.00,0.0056
752.00,0.0055
751.00,0.0056
750.00,0.0056
749.00,0.0056
748.00,0.0056
747.00,0.0056
746.00,0.0058
745.00,0.0060
744.00,0.0061
743.00,0.0063
742.00,0.0064
741.00,0.0065
740.00,0.0065
739.00,0.0065
738.00,0.0067
737.00,0.0069
736.00,0.0071
735.00,0.0073
734.00,0.0074
733.00,0.0075
732.00,0.0076
731.00,0.0077
730.00,0.0079
729.00,0.0080
728.00,0.0081
727.00,0.0080
726.00,0.0080
725.00,0.0080
724.00,0.0080
723.00,0.0079
722.00,0.0078
721.00,0.0077
720.00,0.0076
719.00,0.0075
718.00,0.0074
717.00,0.0072
716.00,0.0071
715.00,0.0069
714.00,0.0068
713.00,0.0067
712.00,0.0066
711.00,0.0065
710.00,0.0064
709.00,0.0064
708.00,0.0063
707.00,0.0063
706.00,0.0063
705.00,0.0065
704.00,0.0067
703.00,0.0068
702.00,0.0068
701.00,0.0066
700.00,0.0063
699.00,0.0059
698.00,0.0056
697.00,0.0055
696.00,0.0056
695.00,0.0060
694.00,0.0063
693.00,0.0063
692.00,0.0062
691.00,0.0061
690.00,0.0061
689.00,0.0060
688.00,0.0060
687.00,0.0059
686.00,0.0058
685.00,0.0058
684.00,0.0058
683.00,0.0058
682.00,0.0058
681.00,0.0059
680.00,0.0059
679.00,0.0060
678.00,0.0060
677.00,0.0059
676.00,0.0058
675.00,0.0057
674.00,0.0057
673.00,0.0058
672.00,0.0058
671.00,0.0058
670.00,0.0059
669.00,0.0060
668.00,0.0062
667.00,0.0064
666.00,0.0063
665.00,0.0061
664.00,0.0060
663.00,0.0059
662.00,0.0060
661.00,0.0060
660.00,0.0059
659.00,0.0058
658.00,0.0058
657.00,0.0057
656.00,0.0057
655.00,0.0057
654.00,0.0057
653.00,0.0057
652.00,0.0059
651.00,0.0060
650.00,0.0059
649.00,0.0058
648.00,0.0058
647.00,0.0059
646.00,0.0060
645.00,0.0062
644.00,0.0063
643.00,0.0063
642.00,0.0062
641.00,0.0061
640.00,0.0060
639.00,0.0060
638.00,0.0061
637.00,0.0063
636.00,0.0065
635.00,0.0065
634.00,0.0063
633.00,0.0059
632.00,0.0058
631.00,0.0059
630.00,0.0063
629.00,0.0066
628.00,0.0067
627.00,0.0065
626.00,0.0062
625.00,0.0059
624.00,0.0057
623.00,0.0057
622.00,0.0058
621.00,0.0059
620.00,0.0059
619.00,0.0058
618.00,0.0057
617.00,0.0057
616.00,0.0058
615.00,0.0059
614.00,0.0061
613.00,0.0063
612.00,0.0064
611.00,0.0063
610.00,0.0062
609.00,0.0061
608.00,0.0062
607.00,0.0063
606.00,0.0062
605.00,0.0059
604.00,0.0056
603.00,0.0056
602.00,0.0059
601.00,0.0063
600.00,0.0065
599.00,0.0066
598.00,0.0065
597.00,0.0063
596.00,0.0061
595.00,0.0061
594.00,0.0061
593.00,0.0061
592.00,0.0061
591.00,0.0061
590.00,0.0061
589.00,0.0059
588.00,0.0059
587.00,0.0060
586.00,0.0063
585.00,0.0065
584.00,0.0064
583.00,0.0062
582.00,0.0061
581.00,0.0063
580.00,0.0067
579.00,0.0070
578.00,0.0070
577.00,0.0068
576.00,0.0065
575.00,0.0062
574.00,0.0060
573.00,0.0058
572.00,0.0056
571.00,0.0056
570.00,0.0060
569.00,0.0066
568.00,0.0070
567.00,0.0070
566.00,0.0067
565.00,0.0064
564.00,0.0063
563.00,0.0064
562.00,0.0065
561.00,0.0065
560.00,0.0066
559.00,0.0066
558.00,0.0065
557.00,0.0064
556.00,0.0064
555.00,0.0065
554.00,0.0068
553.00,0.0069
552.00,0.0069
551.00,0.0069
550.00,0.0068
549.00,0.0067
548.00,0.0065
547.00,0.0066
546.00,0.0067
545.00,0.0067
544.00,0.0064
543.00,0.0061
542.00,0.0061
541.00,0.0063
540.00,0.0064
539.00,0.0065
538.00,0.0066
537.00,0.0069
536.00,0.0073
535.00,0.0077
534.00,0.0079
533.00,0.0080
532.00,0.0081
531.00,0.0083
530.00,0.0085
529.00,0.0086
528.00,0.0085
527.00,0.0081
526.00,0.0076
525.00,0.0073
524.00,0.0074
523.00,0.0078
522.00,0.0082
521.00,0.0083
520.00,0.0082
519.00,0.0078
518.00,0.0073
517.00,0.0068
516.00,0.0067
515.00,0.0070
514.00,0.0074
513.00,0.0077
512.00,0.0078
511.00,0.0077
510.00,0.0073
509.00,0.0067
508.00,0.0062
507.00,0.0059
506.00,0.0057
505.00,0.0055
504.00,0.0052
503.00,0.0052
502.00,0.0056
501.00,0.0064
500.00,0.0073
499.00,0.0080
498.00,0.0084
497.00,0.0082
496.00,0.0076
495.00,0.0073
494.00,0.0072
493.00,0.0074
492.00,0.0075
491.00,0.0075
490.00,0.0076
489.00,0.0076
488.00,0.0071
487.00,0.0065
486.00,0.0061
485.00,0.0061
484.00,0.0062
483.00,0.0061
482.00,0.0057
481.00,0.0055
480.00,0.0059
479.00,0.0067
478.00,0.0075
477.00,0.0077
476.00,0.0075
475.00,0.0074
474.00,0.0078
473.00,0.0087
472.00,0.0095
471.00,0.0101
470.00,0.0102
469.00,0.0099
468.00,0.0092
467.00,0.0087
466.00,0.0090
465.00,0.0097
464.00,0.0105
463.00,0.0114
462.00,0.0128
461.00,0.0146
460.00,0.0159
459.00,0.0157
458.00,0.0141
457.00,0.0124
456.00,0.0118
455.00,0.0122
454.00,0.0127
453.00,0.0126
452.00,0.0117
451.00,0.0105
450.00,0.0096
