Created as New Dataset,Sample 097 By Administrator Date Friday, September 05 2025
cm-1,A
4000.00,0.0018
3999.00,0.0018
3998.00,0.0018
3997.00,0.0018
3996.00,0.0018
3995.00,0.0018
3994.00,0.0018
3993.00,0.0018
3992.00,0.0018
3991.00,0.0018
3990.00,0.0018
3989.00,0.0017
3988.00,0.0017
3987.00,0.0017
3986.00,0.0017
3985.00,0.0017
3984.00,0.0017
3983.00,0.0017
3982.00,0.0017
3981.00,0.0017
3980.00,0.0017
3979.00,0.0017
3978.00,0.0017
3977.00,0.0016
3976.00,0.0016
3975.00,0.0016
3974.00,0.0016
3973.00,0.0016
3972.00,0.0016
3971.00,0.0016
3970.00,0.0016
3969.00,0.0016
3968.00,0.0016
3967.00,0.0016
3966.00,0.0016
3965.00,0.0016
3964.00,0.0016
3963.00,0.0016
3962.00,0.0016
3961.00,0.0016
3960.00,0.0016
3959.00,0.0016
3958.00,0.0016
3957.00,0.0016
3956.00,0.0015
3955.00,0.0015
3954.00,0.0015
3953.00,0.0016
3952.00,0.0016
3951.00,0.0016
3950.00,0.0016
3949.00,0.0016
3948.00,0.0016
3947.00,0.0016
3946.00,0.0016
3945.00,0.0016
3944.00,0.0017
3943.00,0.0017
3942.00,0.0017
3941.00,0.0016
3940.00,0.0016
3939.00,0.0016
3938.00,0.0016
3937.00,0.0016
3936.00,0.0016
3935.00,0.0016
3934.00,0.0016
3933.00,0.0016
3932.00,0.0016
3931.00,0.0016
3930.00,0.0016
3929.00,0.0015
3928.00,0.0015
3927.00,0.0016
3926.00,0.0016
3925.00,0.0016
3924.00,0.0016
3923.00,0.0016
3922.00,0.0016
3921.00,0.0016
3920.00,0.0016
3919.00,0.0016
3918.00,0.0016
3917.00,0.0016
3916.00,0.0016
3915.00,0.0016
3914.00,0.0016
3913.00,0.0016
3912.00,0.0016
3911.00,0.0016
3910.00,0.0015
3909.00,0.0015
3908.00,0.0015
3907.00,0.0014
3906.00,0.0014
3905.00,0.0014
3904.00,0.0014
3903.00,0.0014
3902.00,0.0014
3901.00,0.0014
3900.00,0.0014
3899.00,0.0014
3898.00,0.0014
3897.00,0.0015
3896.00,0.0014
3895.00,0.0014
3894.00,0.0014
3893.00,0.0014
3892.00,0.0014
3891.00,0.0014
3890.00,0.0014
3889.00,0.0014
3888.00,0.0014
3887.00,0.0014
3886.00,0.0014
3885.00,0.0014
3884.00,0.0014
3883.00,0.0014
3882.00,0.0014
3881.00,0.0015
3880.00,0.0015
3879.00,0.0015
3878.00,0.0015
3877.00,0.0015
3876.00,0.0014
3875.00,0.0014
3874.00,0.0014
3873.00,0.0015
3872.00,0.0015
3871.00,0.0015
3870.00,0.0015
3869.00,0.0014
3868.00,0.0014
3867.00,0.0014
3866.00,0.0014
3865.00,0.0014
3864.00,0.0014
3863.00,0.0014
3862.00,0.0014
3861.00,0.0014
3860.00,0.0014
3859.00,0.0014
3858.00,0.0015
3857.00,0.0015
3856.00,0.0015
3855.00,0.0014
3854.00,0.0014
3853.00,0.0015
3852.00,0.0015
3851.00,0.0015
3850.00,0.0014
3849.00,0.0014
3848.00,0.0014
3847.00,0.0014
3846.00,0.0014
3845.00,0.0014
3844.00,0.0014
3843.00,0.0014
3842.00,0.0013
3841.00,0.0013
3840.00,0.0014
3839.00,0.0014
3838.00,0.0015
3837.00,0.0015
3836.00,0.0015
3835.00,0.0014
3834.00,0.0014
3833.00,0.0014
3832.00,0.0013
3831.00,0.0013
3830.00,0.0014
3829.00,0.0014
3828.00,0.0014
3827.00,0.0014
3826.00,0.0014
3825.00,0.0013
3824.00,0.0013
3823.00,0.0013
3822.00,0.0014
3821.00,0.0014
3820.00,0.0014
3819.00,0.0014
3818.00,0.0014
3817.00,0.0015
3816.00,0.0015
3815.00,0.0015
3814.00,0.0015
3813.00,0.0015
3812.00,0.0015
3811.00,0.0015
3810.00,0.0015
3809.00,0.0015
3808.00,0.0015
3807.00,0.0015
3806.00,0.0015
3805.00,0.0015
3804.00,0.0015
3803.00,0.0015
3802.00,0.0015
3801.00,0.0015
3800.00,0.0015
3799.00,0.0014
3798.00,0.0014
3797.00,0.0014
3796.00,0.0014
3795.00,0.0014
3794.00,0.0014
3793.00,0.0014
3792.00,0.0014
3791.00,0.0014
3790.00,0.0015
3789.00,0.0015
3788.00,0.0015
3787.00,0.0015
3786.00,0.0015
3785.00,0.0015
3784.00,0.0014
3783.00,0.0014
3782.00,0.0014
3781.00,0.0014
3780.00,0.0014
3779.00,0.0015
3778.00,0.0015
3777.00,0.0015
3776.00,0.0015
3775.00,0.0014
3774.00,0.0014
3773.00,0.0014
3772.00,0.0014
3771.00,0.0014
3770.00,0.0014
3769.00,0.0014
3768.00,0.0014
3767.00,0.0014
3766.00,0.0015
3765.00,0.0015
3764.00,0.0016
3763.00,0.0016
3762.00,0.0016
3761.00,0.0016
3760.00,0.0016
3759.00,0.0015
3758.00,0.0015
3757.00,0.0015
3756.00,0.0014
3755.00,0.0014
3754.00,0.0013
3753.00,0.0013
3752.00,0.0012
3751.00,0.0012
3750.00,0.0012
3749.00,0.0012
3748.00,0.0013
3747.00,0.0013
3746.00,0.0014
3745.00,0.0014
3744.00,0.0014
3743.00,0.0013
3742.00,0.0013
3741.00,0.0013
3740.00,0.0013
3739.00,0.0012
3738.00,0.0012
3737.00,0.0012
3736.00,0.0012
3735.00,0.0012
3734.00,0.0013
3733.00,0.0013
3732.00,0.0014
3731.00,0.0014
3730.00,0.0014
3729.00,0.0014
3728.00,0.0014
3727.00,0.0014
3726.00,0.0014
3725.00,0.0014
3724.00,0.0014
3723.00,0.0014
3722.00,0.0014
3721.00,0.0014
3720.00,0.0014
3719.00,0.0013
3718.00,0.0013
3717.00,0.0013
3716.00,0.0012
3715.00,0.0012
3714.00,0.0012
3713.00,0.0012
3712.00,0.0012
3711.00,0.0012
3710.00,0.0012
3709.00,0.0012
3708.00,0.0012
3707.00,0.0013
3706.00,0.0013
3705.00,0.0014
3704.00,0.0014
3703.00,0.0014
3702.00,0.0014
3701.00,0.0013
3700.00,0.0013
3699.00,0.0013
3698.00,0.0013
3697.00,0.0013
3696.00,0.0013
3695.00,0.0013
3694.00,0.0013
3693.00,0.0013
3692.00,0.0012
3691.00,0.0012
3690.00,0.0013
3689.00,0.0013
3688.00,0.0014
3687.00,0.0014
3686.00,0.0014
3685.00,0.0014
3684.00,0.0014
3683.00,0.0013
3682.00,0.0013
3681.00,0.0013
3680.00,0.0012
3679.00,0.0012
3678.00,0.0012
3677.00,0.0012
3676.00,0.0012
3675.00,0.0013
3674.00,0.0013
3673.00,0.0013
3672.00,0.0013
3671.00,0.0013
3670.00,0.0014
3669.00,0.0014
3668.00,0.0014
3667.00,0.0014
3666.00,0.0014
3665.00,0.0014
3664.00,0.0013
3663.00,0.0013
3662.00,0.0014
3661.00,0.0014
3660.00,0.0014
3659.00,0.0013
3658.00,0.0013
3657.00,0.0013
3656.00,0.0013
3655.00,0.0013
3654.00,0.0013
3653.00,0.0013
3652.00,0.0012
3651.00,0.0012
3650.00,0.0011
3649.00,0.0011
3648.00,0.0012
3647.00,0.0013
3646.00,0.0013
3645.00,0.0014
3644.00,0.0014
3643.00,0.0015
3642.00,0.0015
3641.00,0.0015
3640.00,0.0015
3639.00,0.0015
3638.00,0.0015
3637.00,0.0015
3636.00,0.0015
3635.00,0.0015
3634.00,0.0014
3633.00,0.0014
3632.00,0.0014
3631.00,0.0013
3630.00,0.0014
3629.00,0.0014
3628.00,0.0015
3627.00,0.0016
3626.00,0.0016
3625.00,0.0016
3624.00,0.0016
3623.00,0.0016
3622.00,0.0016
3621.00,0.0015
3620.00,0.0015
3619.00,0.0015
3618.00,0.0016
3617.00,0.0016
3616.00,0.0017
3615.00,0.0018
3614.00,0.0018
3613.00,0.0019
3612.00,0.0018
3611.00,0.0018
3610.00,0.0018
3609.00,0.0018
3608.00,0.0018
3607.00,0.0018
3606.00,0.0019
3605.00,0.0019
3604.00,0.0019
3603.00,0.0019
3602.00,0.0020
3601.00,0.0020
3600.00,0.0021
3599.00,0.0021
3598.00,0.0021
3597.00,0.0021
3596.00,0.0021
3595.00,0.0021
3594.00,0.0022
3593.00,0.0022
3592.00,0.0022
3591.00,0.0022
3590.00,0.0022
3589.00,0.0023
3588.00,0.0023
3587.00,0.0023
3586.00,0.0023
3585.00,0.0023
3584.00,0.0023
3583.00,0.0023
3582.00,0.0023
3581.00,0.0023
3580.00,0.0023
3579.00,0.0023
3578.00,0.0023
3577.00,0.0024
3576.00,0.0024
3575.00,0.0024
3574.00,0.0025
3573.00,0.0025
3572.00,0.0025
3571.00,0.0025
3570.00,0.0025
3569.00,0.0025
3568.00,0.0026
3567.00,0.0027
3566.00,0.0027
3565.00,0.0027
3564.00,0.0027
3563.00,0.0027
3562.00,0.0028
3561.00,0.0028
3560.00,0.0029
3559.00,0.0029
3558.00,0.0029
3557.00,0.0029
3556.00,0.0029
3555.00,0.0029
3554.00,0.0030
3553.00,0.0030
3552.00,0.0030
3551.00,0.0030
3550.00,0.0030
3549.00,0.0030
3548.00,0.0030
3547.00,0.0030
3546.00,0.0031
3545.00,0.0031
3544.00,0.0031
3543.00,0.0031
3542.00,0.0031
3541.00,0.0032
3540.00,0.0032
3539.00,0.0032
3538.00,0.0032
3537.00,0.0032
3536.00,0.0032
3535.00,0.0033
3534.00,0.0033
3533.00,0.0033
3532.00,0.0033
3531.00,0.0033
3530.00,0.0033
3529.00,0.0034
3528.00,0.0035
3527.00,0.0035
3526.00,0.0035
3525.00,0.0035
3524.00,0.0035
3523.00,0.0035
3522.00,0.0035
3521.00,0.0035
3520.00,0.0035
3519.00,0.0036
3518.00,0.0036
3517.00,0.0036
3516.00,0.0036
3515.00,0.0037
3514.00,0.0037
3513.00,0.0037
3512.00,0.0038
3511.00,0.0037
3510.00,0.0037
3509.00,0.0037
3508.00,0.0037
3507.00,0.0037
3506.00,0.0037
3505.00,0.0037
3504.00,0.0038
3503.00,0.0038
3502.00,0.0038
3501.00,0.0039
3500.00,0.0039
3499.00,0.0040
3498.00,0.0040
3497.00,0.0040
3496.00,0.0040
3495.00,0.0040
3494.00,0.0040
3493.00,0.0041
3492.00,0.0041
3491.00,0.0042
3490.00,0.0042
3489.00,0.0042
3488.00,0.0042
3487.00,0.0042
3486.00,0.0041
3485.00,0.0041
3484.00,0.0041
3483.00,0.0042
3482.00,0.0042
3481.00,0.0043
3480.00,0.0043
3479.00,0.0044
3478.00,0.0044
3477.00,0.0044
3476.00,0.0045
3475.00,0.0045
3474.00,0.0045
3473.00,0.0045
3472.00,0.0046
3471.00,0.0046
3470.00,0.0046
3469.00,0.0045
3468.00,0.0045
3467.00,0.0046
3466.00,0.0046
3465.00,0.0046
3464.00,0.0046
3463.00,0.0046
3462.00,0.0046
3461.00,0.0047
3460.00,0.0048
3459.00,0.0048
3458.00,0.0048
3457.00,0.0048
3456.00,0.0048
3455.00,0.0048
3454.00,0.0048
3453.00,0.0049
3452.00,0.0049
3451.00,0.0049
3450.00,0.0049
3449.00,0.0049
3448.00,0.0049
3447.00,0.0050
3446.00,0.0050
3445.00,0.0051
3444.00,0.0051
3443.00,0.0051
3442.00,0.0051
3441.00,0.0051
3440.00,0.0051
3439.00,0.0052
3438.00,0.0052
3437.00,0.0052
3436.00,0.0052
3435.00,0.0053
3434.00,0.0053
3433.00,0.0053
3432.00,0.0053
3431.00,0.0054
3430.00,0.0054
3429.00,0.0054
3428.00,0.0054
3427.00,0.0054
3426.00,0.0054
3425.00,0.0054
3424.00,0.0054
3423.00,0.0055
3422.00,0.0055
3421.00,0.0055
3420.00,0.0056
3419.00,0.0056
3418.00,0.0056
3417.00,0.0057
3416.00,0.0057
3415.00,0.0058
3414.00,0.0058
3413.00,0.0058
3412.00,0.0059
3411.00,0.0059
3410.00,0.0059
3409.00,0.0059
3408.00,0.0059
3407.00,0.0059
3406.00,0.0059
3405.00,0.0060
3404.00,0.0060
3403.00,0.0061
3402.00,0.0061
3401.00,0.0061
3400.00,0.0061
3399.00,0.0061
3398.00,0.0062
3397.00,0.0062
3396.00,0.0062
3395.00,0.0062
3394.00,0.0062
3393.00,0.0061
3392.00,0.0061
3391.00,0.0061
3390.00,0.0061
3389.00,0.0062
3388.00,0.0062
3387.00,0.0061
3386.00,0.0061
3385.00,0.0061
3384.00,0.0061
3383.00,0.0062
3382.00,0.0062
3381.00,0.0062
3380.00,0.0062
3379.00,0.0062
3378.00,0.0062
3377.00,0.0061
3376.00,0.0061
3375.00,0.0062
3374.00,0.0062
3373.00,0.0062
3372.00,0.0062
3371.00,0.0062
3370.00,0.0062
3369.00,0.0062
3368.00,0.0063
3367.00,0.0063
3366.00,0.0063
3365.00,0.0063
3364.00,0.0063
3363.00,0.0063
3362.00,0.0063
3361.00,0.0063
3360.00,0.0063
3359.00,0.0063
3358.00,0.0063
3357.00,0.0063
3356.00,0.0064
3355.00,0.0064
3354.00,0.0064
3353.00,0.0065
3352.00,0.0065
3351.00,0.0065
3350.00,0.0065
3349.00,0.0065
3348.00,0.0065
3347.00,0.0065
3346.00,0.0065
3345.00,0.0065
3344.00,0.0065
3343.00,0.0065
3342.00,0.0065
3341.00,0.0065
3340.00,0.0065
3339.00,0.0066
3338.00,0.0066
3337.00,0.0066
3336.00,0.0066
3335.00,0.0066
3334.00,0.0066
3333.00,0.0066
3332.00,0.0066
3331.00,0.0066
3330.00,0.0067
3329.00,0.0067
3328.00,0.0067
3327.00,0.0067
3326.00,0.0067
3325.00,0.0067
3324.00,0.0067
3323.00,0.0068
3322.00,0.0068
3321.00,0.0068
3320.00,0.0068
3319.00,0.0068
3318.00,0.0068
3317.00,0.0068
3316.00,0.0068
3315.00,0.0068
3314.00,0.0068
3313.00,0.0069
3312.00,0.0068
3311.00,0.0068
3310.00,0.0068
3309.00,0.0068
3308.00,0.0068
3307.00,0.0068
3306.00,0.0068
3305.00,0.0068
3304.00,0.0068
3303.00,0.0068
3302.00,0.0068
3301.00,0.0068
3300.00,0.0068
3299.00,0.0068
3298.00,0.0067
3297.00,0.0067
3296.00,0.0067
3295.00,0.0066
3294.00,0.0066
3293.00,0.0066
3292.00,0.0066
3291.00,0.0066
3290.00,0.0066
3289.00,0.0066
3288.00,0.0066
3287.00,0.0065
3286.00,0.0065
3285.00,0.0064
3284.00,0.0064
3283.00,0.0063
3282.00,0.0063
3281.00,0.0063
3280.00,0.0062
3279.00,0.0062
3278.00,0.0062
3277.00,0.0062
3276.00,0.0062
3275.00,0.0062
3274.00,0.0062
3273.00,0.0061
3272.00,0.0061
3271.00,0.0061
3270.00,0.0061
3269.00,0.0061
3268.00,0.0061
3267.00,0.0061
3266.00,0.0061
3265.00,0.0060
3264.00,0.0060
3263.00,0.0060
3262.00,0.0060
3261.00,0.0060
3260.00,0.0059
3259.00,0.0059
3258.00,0.0058
3257.00,0.0058
3256.00,0.0057
3255.00,0.0056
3254.00,0.0056
3253.00,0.0056
3252.00,0.0055
3251.00,0.0055
3250.00,0.0055
3249.00,0.0055
3248.00,0.0056
3247.00,0.0056
3246.00,0.0056
3245.00,0.0056
3244.00,0.0056
3243.00,0.0056
3242.00,0.0055
3241.00,0.0055
3240.00,0.0055
3239.00,0.0055
3238.00,0.0055
3237.00,0.0055
3236.00,0.0055
3235.00,0.0055
3234.00,0.0056
3233.00,0.0057
3232.00,0.0057
3231.00,0.0057
3230.00,0.0057
3229.00,0.0057
3228.00,0.0057
3227.00,0.0057
3226.00,0.0057
3225.00,0.0058
3224.00,0.0058
3223.00,0.0058
3222.00,0.0058
3221.00,0.0058
3220.00,0.0059
3219.00,0.0059
3218.00,0.0060
3217.00,0.0060
3216.00,0.0061
3215.00,0.0061
3214.00,0.0061
3213.00,0.0062
3212.00,0.0062
3211.00,0.0062
3210.00,0.0062
3209.00,0.0063
3208.00,0.0063
3207.00,0.0063
3206.00,0.0064
3205.00,0.0064
3204.00,0.0064
3203.00,0.0064
3202.00,0.0064
3201.00,0.0064
3200.00,0.0064
3199.00,0.0064
3198.00,0.0064
3197.00,0.0064
3196.00,0.0064
3195.00,0.0064
3194.00,0.0064
3193.00,0.0063
3192.00,0.0063
3191.00,0.0063
3190.00,0.0062
3189.00,0.0062
3188.00,0.0062
3187.00,0.0062
3186.00,0.0062
3185.00,0.0062
3184.00,0.0061
3183.00,0.0061
3182.00,0.0060
3181.00,0.0060
3180.00,0.0060
3179.00,0.0059
3178.00,0.0059
3177.00,0.0058
3176.00,0.0058
3175.00,0.0057
3174.00,0.0057
3173.00,0.0057
3172.00,0.0057
3171.00,0.0057
3170.00,0.0057
3169.00,0.0056
3168.00,0.0056
3167.00,0.0056
3166.00,0.0056
3165.00,0.0056
3164.00,0.0055
3163.00,0.0055
3162.00,0.0055
3161.00,0.0054
3160.00,0.0054
3159.00,0.0054
3158.00,0.0054
3157.00,0.0054
3156.00,0.0054
3155.00,0.0054
3154.00,0.0054
3153.00,0.0054
3152.00,0.0054
3151.00,0.0054
3150.00,0.0053
3149.00,0.0053
3148.00,0.0053
3147.00,0.0053
3146.00,0.0053
3145.00,0.0053
3144.00,0.0053
3143.00,0.0053
3142.00,0.0052
3141.00,0.0052
3140.00,0.0052
3139.00,0.0051
3138.00,0.0051
3137.00,0.0051
3136.00,0.0051
3135.00,0.0051
3134.00,0.0050
3133.00,0.0050
3132.00,0.0050
3131.00,0.0050
3130.00,0.0051
3129.00,0.0050
3128.00,0.0050
3127.00,0.0050
3126.00,0.0049
3125.00,0.0049
3124.00,0.0049
3123.00,0.0049
3122.00,0.0048
3121.00,0.0048
3120.00,0.0048
3119.00,0.0047
3118.00,0.0047
3117.00,0.0047
3116.00,0.0047
3115.00,0.0047
3114.00,0.0047
3113.00,0.0047
3112.00,0.0046
3111.00,0.0046
3110.00,0.0045
3109.00,0.0045
3108.00,0.0045
3107.00,0.0045
3106.00,0.0046
3105.00,0.0046
3104.00,0.0045
3103.00,0.0045
3102.00,0.0044
3101.00,0.0044
3100.00,0.0044
3099.00,0.0043
3098.00,0.0043
3097.00,0.0043
3096.00,0.0043
3095.00,0.0043
3094.00,0.0043
3093.00,0.0043
3092.00,0.0043
3091.00,0.0043
3090.00,0.0043
3089.00,0.0043
3088.00,0.0043
3087.00,0.0044
3086.00,0.0044
3085.00,0.0043
3084.00,0.0043
3083.00,0.0042
3082.00,0.0042
3081.00,0.0042
3080.00,0.0042
3079.00,0.0042
3078.00,0.0042
3077.00,0.0042
3076.00,0.0043
3075.00,0.0043
3074.00,0.0043
3073.00,0.0043
3072.00,0.0043
3071.00,0.0043
3070.00,0.0043
3069.00,0.0043
3068.00,0.0044
3067.00,0.0044
3066.00,0.0044
3065.00,0.0044
3064.00,0.0044
3063.00,0.0044
3062.00,0.0044
3061.00,0.0044
3060.00,0.0044
3059.00,0.0044
3058.00,0.0044
3057.00,0.0044
3056.00,0.0044
3055.00,0.0043
3054.00,0.0043
3053.00,0.0044
3052.00,0.0044
3051.00,0.0045
3050.00,0.0045
3049.00,0.0046
3048.00,0.0046
3047.00,0.0046
3046.00,0.0046
3045.00,0.0046
3044.00,0.0046
3043.00,0.0047
3042.00,0.0047
3041.00,0.0047
3040.00,0.0047
3039.00,0.0047
3038.00,0.0047
3037.00,0.0048
3036.00,0.0048
3035.00,0.0048
3034.00,0.0049
3033.00,0.0049
3032.00,0.0050
3031.00,0.0051
3030.00,0.0051
3029.00,0.0051
3028.00,0.0052
3027.00,0.0052
3026.00,0.0052
3025.00,0.0052
3024.00,0.0052
3023.00,0.0053
3022.00,0.0053
3021.00,0.0054
3020.00,0.0055
3019.00,0.0056
3018.00,0.0057
3017.00,0.0058
3016.00,0.0059
3015.00,0.0060
3014.00,0.0061
3013.00,0.0062
3012.00,0.0063
3011.00,0.0064
3010.00,0.0066
3009.00,0.0067
3008.00,0.0069
3007.00,0.0070
3006.00,0.0072
3005.00,0.0073
3004.00,0.0075
3003.00,0.0077
3002.00,0.0079
3001.00,0.0082
3000.00,0.0084
2999.00,0.0087
2998.00,0.0089
2997.00,0.0092
2996.00,0.0096
2995.00,0.0100
2994.00,0.0104
2993.00,0.0109
2992.00,0.0114
2991.00,0.0119
2990.00,0.0125
2989.00,0.0132
2988.00,0.0140
2987.00,0.0148
2986.00,0.0157
2985.00,0.0168
2984.00,0.0180
2983.00,0.0193
2982.00,0.0208
2981.00,0.0224
2980.00,0.0243
2979.00,0.0265
2978.00,0.0289
2977.00,0.0316
2976.00,0.0348
2975.00,0.0384
2974.00,0.0425
2973.00,0.0471
2972.00,0.0524
2971.00,0.0582
2970.00,0.0647
2969.00,0.0718
2968.00,0.0794
2967.00,0.0875
2966.00,0.0960
2965.00,0.1046
2964.00,0.1129
2963.00,0.1206
2962.00,0.1274
2961.00,0.1330
2960.00,0.1377
2959.00,0.1417
2958.00,0.1456
2957.00,0.1499
2956.00,0.1549
2955.00,0.1608
2954.00,0.1675
2953.00,0.1743
2952.00,0.1803
2951.00,0.1845
2950.00,0.1859
2949.00,0.1837
2948.00,0.1777
2947.00,0.1685
2946.00,0.1571
2945.00,0.1448
2944.00,0.1330
2943.00,0.1227
2942.00,0.1146
2941.00,0.1089
2940.00,0.1057
2939.00,0.1048
2938.00,0.1059
2937.00,0.1088
2936.00,0.1133
2935.00,0.1192
2934.00,0.1265
2933.00,0.1349
2932.00,0.1445
2931.00,0.1550
2930.00,0.1661
2929.00,0.1775
2928.00,0.1889
2927.00,0.2001
2926.00,0.2110
2925.00,0.2216
2924.00,0.2320
2923.00,0.2423
2922.00,0.2526
2921.00,0.2626
2920.00,0.2714
2919.00,0.2782
2918.00,0.2818
2917.00,0.2814
2916.00,0.2768
2915.00,0.2686
2914.00,0.2579
2913.00,0.2462
2912.00,0.2345
2911.00,0.2237
2910.00,0.2140
2909.00,0.2054
2908.00,0.1975
2907.00,0.1902
2906.00,0.1832
2905.00,0.1762
2904.00,0.1693
2903.00,0.1624
2902.00,0.1556
2901.00,0.1491
2900.00,0.1428
2899.00,0.1368
2898.00,0.1312
2897.00,0.1260
2896.00,0.1214
2895.00,0.1174
2894.00,0.1140
2893.00,0.1113
2892.00,0.1091
2891.00,0.1076
2890.00,0.1065
2889.00,0.1058
2888.00,0.1055
2887.00,0.1056
2886.00,0.1060
2885.00,0.1068
2884.00,0.1080
2883.00,0.1098
2882.00,0.1120
2881.00,0.1145
2880.00,0.1171
2879.00,0.1193
2878.00,0.1208
2877.00,0.1214
2876.00,0.1212
2875.00,0.1204
2874.00,0.1197
2873.00,0.1195
2872.00,0.1200
2871.00,0.1212
2870.00,0.1229
2869.00,0.1245
2868.00,0.1254
2867.00,0.1248
2866.00,0.1221
2865.00,0.1171
2864.00,0.1103
2863.00,0.1025
2862.00,0.0948
2861.00,0.0879
2860.00,0.0825
2859.00,0.0787
2858.00,0.0764
2857.00,0.0755
2856.00,0.0757
2855.00,0.0770
2854.00,0.0789
2853.00,0.0813
2852.00,0.0839
2851.00,0.0863
2850.00,0.0882
2849.00,0.0894
2848.00,0.0903
2847.00,0.0912
2846.00,0.0928
2845.00,0.0954
2844.00,0.0992
2843.00,0.1039
2842.00,0.1091
2841.00,0.1142
2840.00,0.1183
2839.00,0.1207
2838.00,0.1207
2837.00,0.1178
2836.00,0.1119
2835.00,0.1035
2834.00,0.0935
2833.00,0.0829
2832.00,0.0727
2831.00,0.0637
2830.00,0.0559
2829.00,0.0496
2828.00,0.0444
2827.00,0.0403
2826.00,0.0369
2825.00,0.0341
2824.00,0.0318
2823.00,0.0298
2822.00,0.0281
2821.00,0.0267
2820.00,0.0254
2819.00,0.0243
2818.00,0.0233
2817.00,0.0225
2816.00,0.0217
2815.00,0.0211
2814.00,0.0205
2813.00,0.0199
2812.00,0.0194
2811.00,0.0188
2810.00,0.0182
2809.00,0.0177
2808.00,0.0171
2807.00,0.0164
2806.00,0.0158
2805.00,0.0151
2804.00,0.0145
2803.00,0.0139
2802.00,0.0134
2801.00,0.0129
2800.00,0.0126
2799.00,0.0123
2798.00,0.0120
2797.00,0.0117
2796.00,0.0115
2795.00,0.0112
2794.00,0.0110
2793.00,0.0107
2792.00,0.0104
2791.00,0.0101
2790.00,0.0098
2789.00,0.0095
2788.00,0.0092
2787.00,0.0090
2786.00,0.0087
2785.00,0.0084
2784.00,0.0082
2783.00,0.0080
2782.00,0.0078
2781.00,0.0076
2780.00,0.0074
2779.00,0.0073
2778.00,0.0072
2777.00,0.0071
2776.00,0.0070
2775.00,0.0069
2774.00,0.0068
2773.00,0.0067
2772.00,0.0066
2771.00,0.0066
2770.00,0.0066
2769.00,0.0065
2768.00,0.0065
2767.00,0.0064
2766.00,0.0064
2765.00,0.0063
2764.00,0.0063
2763.00,0.0062
2762.00,0.0062
2761.00,0.0062
2760.00,0.0061
2759.00,0.0061
2758.00,0.0061
2757.00,0.0061
2756.00,0.0061
2755.00,0.0061
2754.00,0.0061
2753.00,0.0061
2752.00,0.0060
2751.00,0.0060
2750.00,0.0060
2749.00,0.0060
2748.00,0.0060
2747.00,0.0060
2746.00,0.0061
2745.00,0.0061
2744.00,0.0062
2743.00,0.0062
2742.00,0.0064
2741.00,0.0065
2740.00,0.0066
2739.00,0.0067
2738.00,0.0069
2737.00,0.0070
2736.00,0.0071
2735.00,0.0072
2734.00,0.0073
2733.00,0.0074
2732.00,0.0076
2731.00,0.0078
2730.00,0.0080
2729.00,0.0083
2728.00,0.0086
2727.00,0.0089
2726.00,0.0091
2725.00,0.0094
2724.00,0.0095
2723.00,0.0095
2722.00,0.0094
2721.00,0.0092
2720.00,0.0089
2719.00,0.0086
2718.00,0.0082
2717.00,0.0080
2716.00,0.0077
2715.00,0.0075
2714.00,0.0073
2713.00,0.0071
2712.00,0.0069
2711.00,0.0067
2710.00,0.0065
2709.00,0.0064
2708.00,0.0062
2707.00,0.0061
2706.00,0.0060
2705.00,0.0059
2704.00,0.0058
2703.00,0.0057
2702.00,0.0056
2701.00,0.0055
2700.00,0.0054
2699.00,0.0053
2698.00,0.0053
2697.00,0.0053
2696.00,0.0053
2695.00,0.0053
2694.00,0.0052
2693.00,0.0052
2692.00,0.0052
2691.00,0.0052
2690.00,0.0052
2689.00,0.0052
2688.00,0.0052
2687.00,0.0052
2686.00,0.0052
2685.00,0.0052
2684.00,0.0052
2683.00,0.0053
2682.00,0.0053
2681.00,0.0053
2680.00,0.0053
2679.00,0.0053
2678.00,0.0053
2677.00,0.0053
2676.00,0.0053
2675.00,0.0053
2674.00,0.0053
2673.00,0.0053
2672.00,0.0053
2671.00,0.0053
2670.00,0.0053
2669.00,0.0053
2668.00,0.0053
2667.00,0.0053
2666.00,0.0053
2665.00,0.0054
2664.00,0.0054
2663.00,0.0055
2662.00,0.0055
2661.00,0.0056
2660.00,0.0056
2659.00,0.0056
2658.00,0.0056
2657.00,0.0056
2656.00,0.0055
2655.00,0.0054
2654.00,0.0054
2653.00,0.0053
2652.00,0.0053
2651.00,0.0052
2650.00,0.0052
2649.00,0.0052
2648.00,0.0051
2647.00,0.0051
2646.00,0.0050
2645.00,0.0049
2644.00,0.0049
2643.00,0.0049
2642.00,0.0048
2641.00,0.0048
2640.00,0.0047
2639.00,0.0047
2638.00,0.0046
2637.00,0.0046
2636.00,0.0046
2635.00,0.0045
2634.00,0.0045
2633.00,0.0046
2632.00,0.0046
2631.00,0.0047
2630.00,0.0047
2629.00,0.0047
2628.00,0.0047
2627.00,0.0047
2626.00,0.0047
2625.00,0.0047
2624.00,0.0047
2623.00,0.0048
2622.00,0.0048
2621.00,0.0048
2620.00,0.0048
2619.00,0.0047
2618.00,0.0047
2617.00,0.0047
2616.00,0.0047
2615.00,0.0047
2614.00,0.0047
2613.00,0.0047
2612.00,0.0046
2611.00,0.0045
2610.00,0.0044
2609.00,0.0043
2608.00,0.0042
2607.00,0.0041
2606.00,0.0040
2605.00,0.0040
2604.00,0.0040
2603.00,0.0040
2602.00,0.0040
2601.00,0.0040
2600.00,0.0039
2599.00,0.0040
2598.00,0.0040
2597.00,0.0040
2596.00,0.0039
2595.00,0.0039
2594.00,0.0039
2593.00,0.0039
2592.00,0.0040
2591.00,0.0040
2590.00,0.0041
2589.00,0.0042
2588.00,0.0043
2587.00,0.0044
2586.00,0.0045
2585.00,0.0046
2584.00,0.0046
2583.00,0.0047
2582.00,0.0047
2581.00,0.0046
2580.00,0.0046
2579.00,0.0045
2578.00,0.0044
2577.00,0.0043
2576.00,0.0042
2575.00,0.0040
2574.00,0.0038
2573.00,0.0037
2572.00,0.0036
2571.00,0.0036
2570.00,0.0035
2569.00,0.0034
2568.00,0.0034
2567.00,0.0034
2566.00,0.0033
2565.00,0.0033
2564.00,0.0032
2563.00,0.0032
2562.00,0.0032
2561.00,0.0032
2560.00,0.0032
2559.00,0.0031
2558.00,0.0030
2557.00,0.0030
2556.00,0.0030
2555.00,0.0029
2554.00,0.0029
2553.00,0.0029
2552.00,0.0028
2551.00,0.0028
2550.00,0.0028
2549.00,0.0028
2548.00,0.0028
2547.00,0.0028
2546.00,0.0027
2545.00,0.0026
2544.00,0.0025
2543.00,0.0025
2542.00,0.0025
2541.00,0.0025
2540.00,0.0024
2539.00,0.0023
2538.00,0.0023
2537.00,0.0023
2536.00,0.0023
2535.00,0.0023
2534.00,0.0024
2533.00,0.0024
2532.00,0.0023
2531.00,0.0023
2530.00,0.0022
2529.00,0.0022
2528.00,0.0023
2527.00,0.0023
2526.00,0.0023
2525.00,0.0022
2524.00,0.0021
2523.00,0.0020
2522.00,0.0019
2521.00,0.0018
2520.00,0.0018
2519.00,0.0019
2518.00,0.0020
2517.00,0.0020
2516.00,0.0021
2515.00,0.0020
2514.00,0.0020
2513.00,0.0020
2512.00,0.0019
2511.00,0.0019
2510.00,0.0018
2509.00,0.0018
2508.00,0.0018
2507.00,0.0018
2506.00,0.0018
2505.00,0.0018
2504.00,0.0017
2503.00,0.0017
2502.00,0.0016
2501.00,0.0017
2500.00,0.0017
2499.00,0.0017
2498.00,0.0017
2497.00,0.0016
2496.00,0.0016
2495.00,0.0017
2494.00,0.0017
2493.00,0.0017
2492.00,0.0017
2491.00,0.0017
2490.00,0.0017
2489.00,0.0017
2488.00,0.0017
2487.00,0.0018
2486.00,0.0018
2485.00,0.0019
2484.00,0.0018
2483.00,0.0018
2482.00,0.0016
2481.00,0.0016
2480.00,0.0015
2479.00,0.0016
2478.00,0.0016
2477.00,0.0017
2476.00,0.0017
2475.00,0.0017
2474.00,0.0017
2473.00,0.0016
2472.00,0.0017
2471.00,0.0017
2470.00,0.0018
2469.00,0.0018
2468.00,0.0019
2467.00,0.0018
2466.00,0.0017
2465.00,0.0017
2464.00,0.0016
2463.00,0.0016
2462.00,0.0017
2461.00,0.0017
2460.00,0.0017
2459.00,0.0017
2458.00,0.0018
2457.00,0.0019
2456.00,0.0020
2455.00,0.0019
2454.00,0.0019
2453.00,0.0018
2452.00,0.0017
2451.00,0.0017
2450.00,0.0017
2449.00,0.0017
2448.00,0.0018
2447.00,0.0019
2446.00,0.0019
2445.00,0.0019
2444.00,0.0019
2443.00,0.0019
2442.00,0.0018
2441.00,0.0018
2440.00,0.0018
2439.00,0.0018
2438.00,0.0018
2437.00,0.0019
2436.00,0.0019
2435.00,0.0019
2434.00,0.0019
2433.00,0.0018
2432.00,0.0018
2431.00,0.0018
2430.00,0.0018
2429.00,0.0018
2428.00,0.0018
2427.00,0.0018
2426.00,0.0018
2425.00,0.0018
2424.00,0.0018
2423.00,0.0018
2422.00,0.0017
2421.00,0.0017
2420.00,0.0016
2419.00,0.0016
2418.00,0.0015
2417.00,0.0015
2416.00,0.0015
2415.00,0.0015
2414.00,0.0015
2413.00,0.0015
2412.00,0.0015
2411.00,0.0015
2410.00,0.0015
2409.00,0.0015
2408.00,0.0015
2407.00,0.0015
2406.00,0.0015
2405.00,0.0015
2404.00,0.0015
2403.00,0.0015
2402.00,0.0014
2401.00,0.0014
2400.00,0.0014
2399.00,0.0014
2398.00,0.0015
2397.00,0.0015
2396.00,0.0016
2395.00,0.0016
2394.00,0.0015
2393.00,0.0015
2392.00,0.0015
2391.00,0.0015
2390.00,0.0014
2389.00,0.0014
2388.00,0.0014
2387.00,0.0014
2386.00,0.0014
2385.00,0.0014
2384.00,0.0013
2383.00,0.0012
2382.00,0.0011
2381.00,0.0011
2380.00,0.0010
2379.00,0.0009
2378.00,0.0008
2377.00,0.0008
2376.00,0.0009
2375.00,0.0009
2374.00,0.0010
2373.00,0.0010
2372.00,0.0010
2371.00,0.0010
2370.00,0.0009
2369.00,0.0009
2368.00,0.0010
2367.00,0.0010
2366.00,0.0011
2365.00,0.0012
2364.00,0.0011
2363.00,0.0010
2362.00,0.0009
2361.00,0.0009
2360.00,0.0009
2359.00,0.0009
2358.00,0.0010
2357.00,0.0010
2356.00,0.0011
2355.00,0.0011
2354.00,0.0011
2353.00,0.0010
2352.00,0.0010
2351.00,0.0010
2350.00,0.0010
2349.00,0.0011
2348.00,0.0011
2347.00,0.0011
2346.00,0.0011
2345.00,0.0011
2344.00,0.0012
2343.00,0.0012
2342.00,0.0012
2341.00,0.0012
2340.00,0.0012
2339.00,0.0012
2338.00,0.0013
2337.00,0.0013
2336.00,0.0013
2335.00,0.0013
2334.00,0.0012
2333.00,0.0011
2332.00,0.0011
2331.00,0.0011
2330.00,0.0011
2329.00,0.0012
2328.00,0.0015
2327.00,0.0018
2326.00,0.0022
2325.00,0.0025
2324.00,0.0027
2323.00,0.0026
2322.00,0.0024
2321.00,0.0021
2320.00,0.0020
2319.00,0.0019
2318.00,0.0018
2317.00,0.0018
2316.00,0.0018
2315.00,0.0017
2314.00,0.0017
2313.00,0.0016
2312.00,0.0016
2311.00,0.0015
2310.00,0.0015
2309.00,0.0015
2308.00,0.0016
2307.00,0.0016
2306.00,0.0017
2305.00,0.0017
2304.00,0.0017
2303.00,0.0018
2302.00,0.0018
2301.00,0.0018
2300.00,0.0018
2299.00,0.0018
2298.00,0.0019
2297.00,0.0019
2296.00,0.0020
2295.00,0.0020
2294.00,0.0021
2293.00,0.0022
2292.00,0.0022
2291.00,0.0023
2290.00,0.0023
2289.00,0.0023
2288.00,0.0023
2287.00,0.0023
2286.00,0.0023
2285.00,0.0024
2284.00,0.0024
2283.00,0.0024
2282.00,0.0024
2281.00,0.0024
2280.00,0.0023
2279.00,0.0022
2278.00,0.0021
2277.00,0.0020
2276.00,0.0019
2275.00,0.0019
2274.00,0.0019
2273.00,0.0020
2272.00,0.0020
2271.00,0.0019
2270.00,0.0018
2269.00,0.0018
2268.00,0.0017
2267.00,0.0016
2266.00,0.0016
2265.00,0.0016
2264.00,0.0016
2263.00,0.0018
2262.00,0.0019
2261.00,0.0020
2260.00,0.0020
2259.00,0.0019
2258.00,0.0019
2257.00,0.0019
2256.00,0.0018
2255.00,0.0016
2254.00,0.0014
2253.00,0.0013
2252.00,0.0013
2251.00,0.0014
2250.00,0.0015
2249.00,0.0016
2248.00,0.0016
2247.00,0.0015
2246.00,0.0014
2245.00,0.0013
2244.00,0.0013
2243.00,0.0013
2242.00,0.0013
2241.00,0.0013
2240.00,0.0013
2239.00,0.0013
2238.00,0.0014
2237.00,0.0014
2236.00,0.0014
2235.00,0.0012
2234.00,0.0011
2233.00,0.0010
2232.00,0.0011
2231.00,0.0012
2230.00,0.0013
2229.00,0.0014
2228.00,0.0015
2227.00,0.0015
2226.00,0.0014
2225.00,0.0012
2224.00,0.0011
2223.00,0.0012
2222.00,0.0013
2221.00,0.0014
2220.00,0.0015
2219.00,0.0014
2218.00,0.0013
2217.00,0.0012
2216.00,0.0011
2215.00,0.0011
2214.00,0.0010
2213.00,0.0010
2212.00,0.0010
2211.00,0.0011
2210.00,0.0012
2209.00,0.0013
2208.00,0.0014
2207.00,0.0014
2206.00,0.0014
2205.00,0.0014
2204.00,0.0014
2203.00,0.0012
2202.00,0.0010
2201.00,0.0009
2200.00,0.0009
2199.00,0.0010
2198.00,0.0012
2197.00,0.0014
2196.00,0.0015
2195.00,0.0015
2194.00,0.0015
2193.00,0.0015
2192.00,0.0015
2191.00,0.0016
2190.00,0.0016
2189.00,0.0016
2188.00,0.0016
2187.00,0.0017
2186.00,0.0017
2185.00,0.0016
2184.00,0.0013
2183.00,0.0010
2182.00,0.0007
2181.00,0.0007
2180.00,0.0008
2179.00,0.0010
2178.00,0.0010
2177.00,0.0009
2176.00,0.0007
2175.00,0.0005
2174.00,0.0004
2173.00,0.0004
2172.00,0.0006
2171.00,0.0010
2170.00,0.0015
2169.00,0.0021
2168.00,0.0025
2167.00,0.0026
2166.00,0.0026
2165.00,0.0026
2164.00,0.0026
2163.00,0.0026
2162.00,0.0024
2161.00,0.0019
2160.00,0.0007
2159.00,-0.0007
2158.00,-0.0018
2157.00,-0.0023
2156.00,-0.0022
2155.00,-0.0019
2154.00,-0.0016
2153.00,-0.0013
2152.00,-0.0011
2151.00,-0.0010
2150.00,-0.0009
2149.00,-0.0009
2148.00,-0.0008
2147.00,-0.0008
2146.00,-0.0007
2145.00,-0.0006
2144.00,-0.0005
2143.00,-0.0005
2142.00,-0.0006
2141.00,-0.0006
2140.00,-0.0006
2139.00,-0.0007
2138.00,-0.0008
2137.00,-0.0008
2136.00,-0.0009
2135.00,-0.0009
2134.00,-0.0010
2133.00,-0.0009
2132.00,-0.0007
2131.00,-0.0006
2130.00,-0.0005
2129.00,-0.0003
2128.00,-0.0002
2127.00,-0.0001
2126.00,0.0001
2125.00,0.0002
2124.00,0.0003
2123.00,0.0003
2122.00,0.0004
2121.00,0.0005
2120.00,0.0005
2119.00,0.0005
2118.00,0.0004
2117.00,0.0005
2116.00,0.0007
2115.00,0.0009
2114.00,0.0009
2113.00,0.0009
2112.00,0.0008
2111.00,0.0008
2110.00,0.0008
2109.00,0.0008
2108.00,0.0009
2107.00,0.0009
2106.00,0.0009
2105.00,0.0009
2104.00,0.0010
2103.00,0.0009
2102.00,0.0009
2101.00,0.0008
2100.00,0.0007
2099.00,0.0006
2098.00,0.0006
2097.00,0.0006
2096.00,0.0006
2095.00,0.0005
2094.00,0.0005
2093.00,0.0006
2092.00,0.0007
2091.00,0.0006
2090.00,0.0006
2089.00,0.0005
2088.00,0.0006
2087.00,0.0006
2086.00,0.0007
2085.00,0.0009
2084.00,0.0010
2083.00,0.0011
2082.00,0.0010
2081.00,0.0009
2080.00,0.0008
2079.00,0.0008
2078.00,0.0008
2077.00,0.0009
2076.00,0.0011
2075.00,0.0011
2074.00,0.0011
2073.00,0.0010
2072.00,0.0008
2071.00,0.0007
2070.00,0.0005
2069.00,0.0004
2068.00,0.0003
2067.00,0.0001
2066.00,0.0001
2065.00,0.0001
2064.00,0.0003
2063.00,0.0004
2062.00,0.0004
2061.00,0.0004
2060.00,0.0004
2059.00,0.0005
2058.00,0.0007
2057.00,0.0008
2056.00,0.0008
2055.00,0.0008
2054.00,0.0008
2053.00,0.0011
2052.00,0.0015
2051.00,0.0017
2050.00,0.0017
2049.00,0.0016
2048.00,0.0014
2047.00,0.0012
2046.00,0.0011
2045.00,0.0012
2044.00,0.0012
2043.00,0.0013
2042.00,0.0012
2041.00,0.0011
2040.00,0.0010
2039.00,0.0008
2038.00,0.0007
2037.00,0.0006
2036.00,0.0006
2035.00,0.0005
2034.00,0.0003
2033.00,-0.0000
2032.00,-0.0003
2031.00,-0.0005
2030.00,-0.0006
2029.00,-0.0006
2028.00,-0.0005
2027.00,-0.0004
2026.00,-0.0002
2025.00,-0.0001
2024.00,0.0001
2023.00,0.0001
2022.00,0.0001
2021.00,0.0001
2020.00,0.0003
2019.00,0.0004
2018.00,0.0004
2017.00,0.0002
2016.00,-0.0001
2015.00,-0.0002
2014.00,-0.0002
2013.00,-0.0000
2012.00,0.0002
2011.00,0.0004
2010.00,0.0004
2009.00,0.0002
2008.00,-0.0002
2007.00,-0.0006
2006.00,-0.0010
2005.00,-0.0010
2004.00,-0.0007
2003.00,-0.0005
2002.00,-0.0004
2001.00,-0.0003
2000.00,-0.0002
1999.00,-0.0001
1998.00,0.0001
1997.00,0.0002
1996.00,0.0002
1995.00,0.0001
1994.00,-0.0001
1993.00,-0.0003
1992.00,-0.0004
1991.00,-0.0003
1990.00,-0.0002
1989.00,0.0000
1988.00,0.0002
1987.00,0.0002
1986.00,0.0002
1985.00,0.0002
1984.00,0.0004
1983.00,0.0007
1982.00,0.0011
1981.00,0.0014
1980.00,0.0016
1979.00,0.0015
1978.00,0.0011
1977.00,0.0005
1976.00,-0.0001
1975.00,-0.0006
1974.00,-0.0008
1973.00,-0.0009
1972.00,-0.0009
1971.00,-0.0011
1970.00,-0.0012
1969.00,-0.0012
1968.00,-0.0010
1967.00,-0.0008
1966.00,-0.0007
1965.00,-0.0006
1964.00,-0.0007
1963.00,-0.0007
1962.00,-0.0008
1961.00,-0.0007
1960.00,-0.0006
1959.00,-0.0006
1958.00,-0.0007
1957.00,-0.0007
1956.00,-0.0008
1955.00,-0.0008
1954.00,-0.0009
1953.00,-0.0010
1952.00,-0.0011
1951.00,-0.0012
1950.00,-0.0013
1949.00,-0.0013
1948.00,-0.0011
1947.00,-0.0009
1946.00,-0.0008
1945.00,-0.0007
1944.00,-0.0006
1943.00,-0.0006
1942.00,-0.0005
1941.00,-0.0005
1940.00,-0.0005
1939.00,-0.0005
1938.00,-0.0005
1937.00,-0.0004
1936.00,-0.0003
1935.00,-0.0002
1934.00,-0.0002
1933.00,-0.0002
1932.00,-0.0003
1931.00,-0.0004
1930.00,-0.0004
1929.00,-0.0003
1928.00,-0.0002
1927.00,-0.0001
1926.00,-0.0001
1925.00,0.0000
1924.00,0.0002
1923.00,0.0004
1922.00,0.0005
1921.00,0.0006
1920.00,0.0006
1919.00,0.0005
1918.00,0.0004
1917.00,0.0004
1916.00,0.0005
1915.00,0.0005
1914.00,0.0004
1913.00,0.0003
1912.00,0.0003
1911.00,0.0002
1910.00,0.0002
1909.00,0.0003
1908.00,0.0004
1907.00,0.0005
1906.00,0.0005
1905.00,0.0005
1904.00,0.0004
1903.00,0.0004
1902.00,0.0005
1901.00,0.0006
1900.00,0.0007
1899.00,0.0007
1898.00,0.0007
1897.00,0.0006
1896.00,0.0006
1895.00,0.0006
1894.00,0.0007
1893.00,0.0008
1892.00,0.0009
1891.00,0.0008
1890.00,0.0007
1889.00,0.0006
1888.00,0.0005
1887.00,0.0004
1886.00,0.0003
1885.00,0.0003
1884.00,0.0003
1883.00,0.0003
1882.00,0.0003
1881.00,0.0003
1880.00,0.0004
1879.00,0.0005
1878.00,0.0006
1877.00,0.0006
1876.00,0.0006
1875.00,0.0005
1874.00,0.0005
1873.00,0.0006
1872.00,0.0007
1871.00,0.0007
1870.00,0.0007
1869.00,0.0007
1868.00,0.0007
1867.00,0.0007
1866.00,0.0006
1865.00,0.0006
1864.00,0.0006
1863.00,0.0005
1862.00,0.0005
1861.00,0.0006
1860.00,0.0006
1859.00,0.0006
1858.00,0.0006
1857.00,0.0006
1856.00,0.0006
1855.00,0.0006
1854.00,0.0007
1853.00,0.0007
1852.00,0.0008
1851.00,0.0007
1850.00,0.0007
1849.00,0.0007
1848.00,0.0007
1847.00,0.0008
1846.00,0.0008
1845.00,0.0008
1844.00,0.0008
1843.00,0.0008
1842.00,0.0008
1841.00,0.0009
1840.00,0.0010
1839.00,0.0010
1838.00,0.0010
1837.00,0.0010
1836.00,0.0010
1835.00,0.0009
1834.00,0.0009
1833.00,0.0009
1832.00,0.0008
1831.00,0.0008
1830.00,0.0009
1829.00,0.0010
1828.00,0.0011
1827.00,0.0011
1826.00,0.0011
1825.00,0.0012
1824.00,0.0012
1823.00,0.0011
1822.00,0.0010
1821.00,0.0009
1820.00,0.0008
1819.00,0.0006
1818.00,0.0005
1817.00,0.0004
1816.00,0.0004
1815.00,0.0005
1814.00,0.0007
1813.00,0.0009
1812.00,0.0010
1811.00,0.0010
1810.00,0.0011
1809.00,0.0011
1808.00,0.0011
1807.00,0.0010
1806.00,0.0010
1805.00,0.0011
1804.00,0.0011
1803.00,0.0012
1802.00,0.0013
1801.00,0.0012
1800.00,0.0012
1799.00,0.0012
1798.00,0.0011
1797.00,0.0011
1796.00,0.0012
1795.00,0.0012
1794.00,0.0013
1793.00,0.0013
1792.00,0.0014
1791.00,0.0014
1790.00,0.0014
1789.00,0.0014
1788.00,0.0014
1787.00,0.0014
1786.00,0.0014
1785.00,0.0015
1784.00,0.0015
1783.00,0.0015
1782.00,0.0015
1781.00,0.0015
1780.00,0.0015
1779.00,0.0015
1778.00,0.0015
1777.00,0.0015
1776.00,0.0016
1775.00,0.0016
1774.00,0.0016
1773.00,0.0016
1772.00,0.0017
1771.00,0.0017
1770.00,0.0017
1769.00,0.0017
1768.00,0.0017
1767.00,0.0017
1766.00,0.0017
1765.00,0.0018
1764.00,0.0018
1763.00,0.0019
1762.00,0.0019
1761.00,0.0020
1760.00,0.0020
1759.00,0.0020
1758.00,0.0020
1757.00,0.0020
1756.00,0.0021
1755.00,0.0022
1754.00,0.0023
1753.00,0.0023
1752.00,0.0024
1751.00,0.0025
1750.00,0.0026
1749.00,0.0027
1748.00,0.0028
1747.00,0.0029
1746.00,0.0029
1745.00,0.0030
1744.00,0.0030
1743.00,0.0031
1742.00,0.0031
1741.00,0.0032
1740.00,0.0032
1739.00,0.0032
1738.00,0.0032
1737.00,0.0032
1736.00,0.0032
1735.00,0.0031
1734.00,0.0031
1733.00,0.0031
1732.00,0.0031
1731.00,0.0031
1730.00,0.0031
1729.00,0.0032
1728.00,0.0032
1727.00,0.0032
1726.00,0.0032
1725.00,0.0032
1724.00,0.0032
1723.00,0.0032
1722.00,0.0032
1721.00,0.0032
1720.00,0.0032
1719.00,0.0033
1718.00,0.0033
1717.00,0.0033
1716.00,0.0033
1715.00,0.0033
1714.00,0.0033
1713.00,0.0032
1712.00,0.0033
1711.00,0.0033
1710.00,0.0034
1709.00,0.0035
1708.00,0.0036
1707.00,0.0037
1706.00,0.0037
1705.00,0.0037
1704.00,0.0038
1703.00,0.0039
1702.00,0.0040
1701.00,0.0041
1700.00,0.0041
1699.00,0.0041
1698.00,0.0042
1697.00,0.0043
1696.00,0.0043
1695.00,0.0044
1694.00,0.0044
1693.00,0.0045
1692.00,0.0045
1691.00,0.0046
1690.00,0.0047
1689.00,0.0048
1688.00,0.0049
1687.00,0.0049
1686.00,0.0049
1685.00,0.0049
1684.00,0.0052
1683.00,0.0054
1682.00,0.0055
1681.00,0.0056
1680.00,0.0057
1679.00,0.0058
1678.00,0.0059
1677.00,0.0061
1676.00,0.0062
1675.00,0.0064
1674.00,0.0065
1673.00,0.0066
1672.00,0.0067
1671.00,0.0067
1670.00,0.0068
1669.00,0.0069
1668.00,0.0070
1667.00,0.0071
1666.00,0.0072
1665.00,0.0073
1664.00,0.0074
1663.00,0.0075
1662.00,0.0077
1661.00,0.0078
1660.00,0.0080
1659.00,0.0081
1658.00,0.0083
1657.00,0.0086
1656.00,0.0088
1655.00,0.0090
1654.00,0.0092
1653.00,0.0095
1652.00,0.0097
1651.00,0.0098
1650.00,0.0101
1649.00,0.0104
1648.00,0.0108
1647.00,0.0111
1646.00,0.0112
1645.00,0.0112
1644.00,0.0111
1643.00,0.0111
1642.00,0.0110
1641.00,0.0109
1640.00,0.0109
1639.00,0.0109
1638.00,0.0108
1637.00,0.0108
1636.00,0.0107
1635.00,0.0106
1634.00,0.0106
1633.00,0.0105
1632.00,0.0105
1631.00,0.0104
1630.00,0.0103
1629.00,0.0103
1628.00,0.0102
1627.00,0.0101
1626.00,0.0100
1625.00,0.0100
1624.00,0.0098
1623.00,0.0096
1622.00,0.0094
1621.00,0.0092
1620.00,0.0091
1619.00,0.0090
1618.00,0.0089
1617.00,0.0088
1616.00,0.0088
1615.00,0.0088
1614.00,0.0088
1613.00,0.0087
1612.00,0.0087
1611.00,0.0087
1610.00,0.0087
1609.00,0.0087
1608.00,0.0087
1607.00,0.0087
1606.00,0.0087
1605.00,0.0087
1604.00,0.0087
1603.00,0.0087
1602.00,0.0086
1601.00,0.0086
1600.00,0.0086
1599.00,0.0086
1598.00,0.0086
1597.00,0.0086
1596.00,0.0086
1595.00,0.0086
1594.00,0.0087
1593.00,0.0088
1592.00,0.0089
1591.00,0.0090
1590.00,0.0091
1589.00,0.0093
1588.00,0.0095
1587.00,0.0098
1586.00,0.0102
1585.00,0.0107
1584.00,0.0112
1583.00,0.0117
1582.00,0.0122
1581.00,0.0127
1580.00,0.0132
1579.00,0.0135
1578.00,0.0136
1577.00,0.0136
1576.00,0.0134
1575.00,0.0132
1574.00,0.0129
1573.00,0.0127
1572.00,0.0124
1571.00,0.0121
1570.00,0.0116
1569.00,0.0111
1568.00,0.0107
1567.00,0.0104
1566.00,0.0102
1565.00,0.0101
1564.00,0.0100
1563.00,0.0100
1562.00,0.0100
1561.00,0.0101
1560.00,0.0101
1559.00,0.0101
1558.00,0.0102
1557.00,0.0103
1556.00,0.0103
1555.00,0.0103
1554.00,0.0105
1553.00,0.0107
1552.00,0.0109
1551.00,0.0112
1550.00,0.0116
1549.00,0.0121
1548.00,0.0126
1547.00,0.0132
1546.00,0.0139
1545.00,0.0147
1544.00,0.0156
1543.00,0.0164
1542.00,0.0171
1541.00,0.0176
1540.00,0.0176
1539.00,0.0172
1538.00,0.0167
1537.00,0.0163
1536.00,0.0160
1535.00,0.0154
1534.00,0.0147
1533.00,0.0138
1532.00,0.0132
1531.00,0.0127
1530.00,0.0123
1529.00,0.0120
1528.00,0.0117
1527.00,0.0113
1526.00,0.0109
1525.00,0.0107
1524.00,0.0105
1523.00,0.0103
1522.00,0.0100
1521.00,0.0098
1520.00,0.0097
1519.00,0.0097
1518.00,0.0097
1517.00,0.0096
1516.00,0.0095
1515.00,0.0094
1514.00,0.0093
1513.00,0.0093
1512.00,0.0093
1511.00,0.0093
1510.00,0.0093
1509.00,0.0094
1508.00,0.0094
1507.00,0.0093
1506.00,0.0094
1505.00,0.0094
1504.00,0.0096
1503.00,0.0097
1502.00,0.0099
1501.00,0.0103
1500.00,0.0107
1499.00,0.0112
1498.00,0.0117
1497.00,0.0124
1496.00,0.0130
1495.00,0.0135
1494.00,0.0139
1493.00,0.0142
1492.00,0.0145
1491.00,0.0148
1490.00,0.0150
1489.00,0.0154
1488.00,0.0159
1487.00,0.0164
1486.00,0.0169
1485.00,0.0177
1484.00,0.0185
1483.00,0.0194
1482.00,0.0205
1481.00,0.0219
1480.00,0.0233
1479.00,0.0248
1478.00,0.0265
1477.00,0.0287
1476.00,0.0314
1475.00,0.0344
1474.00,0.0384
1473.00,0.0440
1472.00,0.0505
1471.00,0.0568
1470.00,0.0627
1469.00,0.0690
1468.00,0.0759
1467.00,0.0835
1466.00,0.0922
1465.00,0.1017
1464.00,0.1100
1463.00,0.1156
1462.00,0.1191
1461.00,0.1215
1460.00,0.1231
1459.00,0.1241
1458.00,0.1247
1457.00,0.1250
1456.00,0.1245
1455.00,0.1234
1454.00,0.1219
1453.00,0.1199
1452.00,0.1169
1451.00,0.1128
1450.00,0.1074
1449.00,0.1001
1448.00,0.0911
1447.00,0.0818
1446.00,0.0736
1445.00,0.0667
1444.00,0.0608
1443.00,0.0560
1442.00,0.0524
1441.00,0.0499
1440.00,0.0485
1439.00,0.0480
1438.00,0.0484
1437.00,0.0487
1436.00,0.0480
1435.00,0.0456
1434.00,0.0421
1433.00,0.0379
1432.00,0.0333
1431.00,0.0293
1430.00,0.0261
1429.00,0.0238
1428.00,0.0222
1427.00,0.0213
1426.00,0.0207
1425.00,0.0202
1424.00,0.0197
1423.00,0.0195
1422.00,0.0195
1421.00,0.0193
1420.00,0.0191
1419.00,0.0188
1418.00,0.0184
1417.00,0.0180
1416.00,0.0176
1415.00,0.0173
1414.00,0.0170
1413.00,0.0167
1412.00,0.0163
1411.00,0.0160
1410.00,0.0158
1409.00,0.0155
1408.00,0.0153
1407.00,0.0153
1406.00,0.0152
1405.00,0.0151
1404.00,0.0150
1403.00,0.0149
1402.00,0.0150
1401.00,0.0150
1400.00,0.0150
1399.00,0.0151
1398.00,0.0154
1397.00,0.0156
1396.00,0.0157
1395.00,0.0161
1394.00,0.0166
1393.00,0.0170
1392.00,0.0175
1391.00,0.0183
1390.00,0.0193
1389.00,0.0207
1388.00,0.0229
1387.00,0.0261
1386.00,0.0305
1385.00,0.0362
1384.00,0.0441
1383.00,0.0553
1382.00,0.0706
1381.00,0.0906
1380.00,0.1153
1379.00,0.1432
1378.00,0.1698
1377.00,0.1889
1376.00,0.1947
1375.00,0.1842
1374.00,0.1605
1373.00,0.1323
1372.00,0.1070
1371.00,0.0862
1370.00,0.0697
1369.00,0.0572
1368.00,0.0486
1367.00,0.0432
1366.00,0.0404
1365.00,0.0392
1364.00,0.0394
1363.00,0.0407
1362.00,0.0428
1361.00,0.0450
1360.00,0.0467
1359.00,0.0473
1358.00,0.0462
1357.00,0.0437
1356.00,0.0402
1355.00,0.0362
1354.00,0.0323
1353.00,0.0289
1352.00,0.0262
1351.00,0.0241
1350.00,0.0223
1349.00,0.0208
1348.00,0.0196
1347.00,0.0185
1346.00,0.0176
1345.00,0.0168
1344.00,0.0162
1343.00,0.0157
1342.00,0.0153
1341.00,0.0149
1340.00,0.0146
1339.00,0.0144
1338.00,0.0143
1337.00,0.0142
1336.00,0.0143
1335.00,0.0145
1334.00,0.0147
1333.00,0.0150
1332.00,0.0154
1331.00,0.0157
1330.00,0.0158
1329.00,0.0156
1328.00,0.0153
1327.00,0.0148
1326.00,0.0143
1325.00,0.0137
1324.00,0.0132
1323.00,0.0127
1322.00,0.0123
1321.00,0.0120
1320.00,0.0118
1319.00,0.0116
1318.00,0.0114
1317.00,0.0112
1316.00,0.0111
1315.00,0.0109
1314.00,0.0109
1313.00,0.0108
1312.00,0.0109
1311.00,0.0111
1310.00,0.0114
1309.00,0.0120
1308.00,0.0128
1307.00,0.0138
1306.00,0.0148
1305.00,0.0156
1304.00,0.0159
1303.00,0.0158
1302.00,0.0154
1301.00,0.0151
1300.00,0.0150
1299.00,0.0150
1298.00,0.0150
1297.00,0.0150
1296.00,0.0149
1295.00,0.0146
1294.00,0.0142
1293.00,0.0137
1292.00,0.0132
1291.00,0.0127
1290.00,0.0123
1289.00,0.0119
1288.00,0.0115
1287.00,0.0112
1286.00,0.0109
1285.00,0.0106
1284.00,0.0104
1283.00,0.0103
1282.00,0.0102
1281.00,0.0101
1280.00,0.0100
1279.00,0.0099
1278.00,0.0098
1277.00,0.0097
1276.00,0.0097
1275.00,0.0096
1274.00,0.0096
1273.00,0.0096
1272.00,0.0097
1271.00,0.0097
1270.00,0.0099
1269.00,0.0101
1268.00,0.0103
1267.00,0.0106
1266.00,0.0109
1265.00,0.0112
1264.00,0.0115
1263.00,0.0118
1262.00,0.0121
1261.00,0.0125
1260.00,0.0130
1259.00,0.0136
1258.00,0.0143
1257.00,0.0148
1256.00,0.0150
1255.00,0.0148
1254.00,0.0143
1253.00,0.0135
1252.00,0.0127
1251.00,0.0120
1250.00,0.0115
1249.00,0.0111
1248.00,0.0108
1247.00,0.0106
1246.00,0.0104
1245.00,0.0103
1244.00,0.0102
1243.00,0.0101
1242.00,0.0100
1241.00,0.0100
1240.00,0.0100
1239.00,0.0099
1238.00,0.0099
1237.00,0.0098
1236.00,0.0098
1235.00,0.0098
1234.00,0.0098
1233.00,0.0098
1232.00,0.0099
1231.00,0.0099
1230.00,0.0100
1229.00,0.0101
1228.00,0.0102
1227.00,0.0104
1226.00,0.0107
1225.00,0.0110
1224.00,0.0114
1223.00,0.0117
1222.00,0.0120
1221.00,0.0122
1220.00,0.0123
1219.00,0.0123
1218.00,0.0123
1217.00,0.0121
1216.00,0.0118
1215.00,0.0115
1214.00,0.0112
1213.00,0.0109
1212.00,0.0105
1211.00,0.0103
1210.00,0.0100
1209.00,0.0099
1208.00,0.0098
1207.00,0.0097
1206.00,0.0097
1205.00,0.0096
1204.00,0.0095
1203.00,0.0095
1202.00,0.0095
1201.00,0.0095
1200.00,0.0095
1199.00,0.0095
1198.00,0.0096
1197.00,0.0096
1196.00,0.0096
1195.00,0.0096
1194.00,0.0096
1193.00,0.0096
1192.00,0.0095
1191.00,0.0096
1190.00,0.0096
1189.00,0.0097
1188.00,0.0097
1187.00,0.0098
1186.00,0.0099
1185.00,0.0099
1184.00,0.0100
1183.00,0.0101
1182.00,0.0102
1181.00,0.0104
1180.00,0.0108
1179.00,0.0112
1178.00,0.0118
1177.00,0.0126
1176.00,0.0136
1175.00,0.0150
1174.00,0.0169
1173.00,0.0191
1172.00,0.0218
1171.00,0.0247
1170.00,0.0274
1169.00,0.0295
1168.00,0.0306
1167.00,0.0308
1166.00,0.0300
1165.00,0.0288
1164.00,0.0274
1163.00,0.0260
1162.00,0.0249
1161.00,0.0239
1160.00,0.0232
1159.00,0.0226
1158.00,0.0222
1157.00,0.0219
1156.00,0.0218
1155.00,0.0217
1154.00,0.0216
1153.00,0.0215
1152.00,0.0211
1151.00,0.0205
1150.00,0.0197
1149.00,0.0188
1148.00,0.0179
1147.00,0.0170
1146.00,0.0162
1145.00,0.0155
1144.00,0.0147
1143.00,0.0140
1142.00,0.0134
1141.00,0.0129
1140.00,0.0124
1139.00,0.0121
1138.00,0.0117
1137.00,0.0114
1136.00,0.0112
1135.00,0.0110
1134.00,0.0108
1133.00,0.0107
1132.00,0.0106
1131.00,0.0106
1130.00,0.0106
1129.00,0.0106
1128.00,0.0107
1127.00,0.0108
1126.00,0.0109
1125.00,0.0110
1124.00,0.0111
1123.00,0.0111
1122.00,0.0112
1121.00,0.0112
1120.00,0.0114
1119.00,0.0116
1118.00,0.0118
1117.00,0.0121
1116.00,0.0122
1115.00,0.0124
1114.00,0.0125
1113.00,0.0126
1112.00,0.0128
1111.00,0.0130
1110.00,0.0133
1109.00,0.0136
1108.00,0.0140
1107.00,0.0146
1106.00,0.0152
1105.00,0.0158
1104.00,0.0162
1103.00,0.0164
1102.00,0.0163
1101.00,0.0160
1100.00,0.0156
1099.00,0.0151
1098.00,0.0145
1097.00,0.0139
1096.00,0.0134
1095.00,0.0131
1094.00,0.0127
1093.00,0.0124
1092.00,0.0121
1091.00,0.0118
1090.00,0.0116
1089.00,0.0115
1088.00,0.0114
1087.00,0.0113
1086.00,0.0114
1085.00,0.0114
1084.00,0.0113
1083.00,0.0112
1082.00,0.0111
1081.00,0.0109
1080.00,0.0107
1079.00,0.0106
1078.00,0.0105
1077.00,0.0104
1076.00,0.0103
1075.00,0.0102
1074.00,0.0101
1073.00,0.0101
1072.00,0.0100
1071.00,0.0099
1070.00,0.0099
1069.00,0.0099
1068.00,0.0098
1067.00,0.0098
1066.00,0.0097
1065.00,0.0097
1064.00,0.0097
1063.00,0.0098
1062.00,0.0098
1061.00,0.0098
1060.00,0.0098
1059.00,0.0099
1058.00,0.0099
1057.00,0.0099
1056.00,0.0099
1055.00,0.0099
1054.00,0.0101
1053.00,0.0102
1052.00,0.0103
1051.00,0.0104
1050.00,0.0104
1049.00,0.0105
1048.00,0.0107
1047.00,0.0110
1046.00,0.0113
1045.00,0.0116
1044.00,0.0116
1043.00,0.0115
1042.00,0.0113
1041.00,0.0111
1040.00,0.0110
1039.00,0.0111
1038.00,0.0113
1037.00,0.0115
1036.00,0.0116
1035.00,0.0115
1034.00,0.0112
1033.00,0.0109
1032.00,0.0106
1031.00,0.0105
1030.00,0.0104
1029.00,0.0103
1028.00,0.0102
1027.00,0.0102
1026.00,0.0102
1025.00,0.0102
1024.00,0.0102
1023.00,0.0103
1022.00,0.0103
1021.00,0.0103
1020.00,0.0103
1019.00,0.0104
1018.00,0.0104
1017.00,0.0104
1016.00,0.0105
1015.00,0.0107
1014.00,0.0111
1013.00,0.0114
1012.00,0.0118
1011.00,0.0121
1010.00,0.0123
1009.00,0.0125
1008.00,0.0128
1007.00,0.0133
1006.00,0.0140
1005.00,0.0149
1004.00,0.0163
1003.00,0.0182
1002.00,0.0209
1001.00,0.0243
1000.00,0.0279
999.00,0.0307
998.00,0.0320
997.00,0.0313
996.00,0.0288
995.00,0.0253
994.00,0.0218
993.00,0.0187
992.00,0.0164
991.00,0.0147
990.00,0.0134
989.00,0.0126
988.00,0.0120
987.00,0.0117
986.00,0.0116
985.00,0.0118
984.00,0.0123
983.00,0.0130
982.00,0.0142
981.00,0.0157
980.00,0.0179
979.00,0.0208
978.00,0.0244
977.00,0.0285
976.00,0.0327
975.00,0.0365
974.00,0.0390
973.00,0.0395
972.00,0.0378
971.00,0.0340
970.00,0.0293
969.00,0.0246
968.00,0.0207
967.00,0.0178
966.00,0.0156
965.00,0.0141
964.00,0.0129
963.00,0.0119
962.00,0.0113
961.00,0.0108
960.00,0.0104
959.00,0.0101
958.00,0.0098
957.00,0.0095
956.00,0.0092
955.00,0.0090
954.00,0.0088
953.00,0.0087
952.00,0.0087
951.00,0.0086
950.00,0.0086
949.00,0.0085
948.00,0.0084
947.00,0.0084
946.00,0.0086
945.00,0.0089
944.00,0.0092
943.00,0.0095
942.00,0.0099
941.00,0.0103
940.00,0.0105
939.00,0.0104
938.00,0.0099
937.00,0.0093
936.00,0.0087
935.00,0.0082
934.00,0.0079
933.00,0.0077
932.00,0.0076
931.00,0.0074
930.00,0.0072
929.00,0.0070
928.00,0.0069
927.00,0.0070
926.00,0.0070
925.00,0.0071
924.00,0.0071
923.00,0.0070
922.00,0.0069
921.00,0.0069
920.00,0.0068
919.00,0.0068
918.00,0.0068
917.00,0.0068
916.00,0.0069
915.00,0.0070
914.00,0.0072
913.00,0.0074
912.00,0.0075
911.00,0.0075
910.00,0.0075
909.00,0.0077
908.00,0.0081
907.00,0.0087
906.00,0.0097
905.00,0.0109
904.00,0.0125
903.00,0.0144
902.00,0.0164
901.00,0.0181
900.00,0.0192
899.00,0.0194
898.00,0.0186
897.00,0.0169
896.00,0.0149
895.00,0.0131
894.00,0.0116
893.00,0.0105
892.00,0.0097
891.00,0.0092
890.00,0.0088
889.00,0.0086
888.00,0.0085
887.00,0.0083
886.00,0.0082
885.00,0.0081
884.00,0.0081
883.00,0.0082
882.00,0.0084
881.00,0.0087
880.00,0.0091
879.00,0.0094
878.00,0.0096
877.00,0.0097
876.00,0.0097
875.00,0.0097
874.00,0.0096
873.00,0.0095
872.00,0.0093
871.00,0.0091
870.00,0.0090
869.00,0.0089
868.00,0.0088
867.00,0.0087
866.00,0.0087
865.00,0.0088
864.00,0.0089
863.00,0.0090
862.00,0.0091
861.00,0.0093
860.00,0.0094
859.00,0.0097
858.00,0.0099
857.00,0.0100
856.00,0.0101
855.00,0.0102
854.00,0.0103
853.00,0.0105
852.00,0.0108
851.00,0.0111
850.00,0.0115
849.00,0.0119
848.00,0.0126
847.00,0.0138
846.00,0.0157
845.00,0.0186
844.00,0.0225
843.00,0.0269
842.00,0.0301
841.00,0.0308
840.00,0.0286
839.00,0.0246
838.00,0.0204
837.00,0.0173
836.00,0.0153
835.00,0.0141
834.00,0.0133
833.00,0.0127
832.00,0.0122
831.00,0.0119
830.00,0.0118
829.00,0.0117
828.00,0.0117
827.00,0.0116
826.00,0.0115
825.00,0.0115
824.00,0.0115
823.00,0.0114
822.00,0.0113
821.00,0.0113
820.00,0.0115
819.00,0.0118
818.00,0.0123
817.00,0.0131
816.00,0.0141
815.00,0.0153
814.00,0.0168
813.00,0.0185
812.00,0.0205
811.00,0.0222
810.00,0.0235
809.00,0.0241
808.00,0.0237
807.00,0.0225
806.00,0.0207
805.00,0.0187
804.00,0.0169
803.00,0.0154
802.00,0.0142
801.00,0.0133
800.00,0.0126
799.00,0.0121
798.00,0.0116
797.00,0.0113
796.00,0.0110
795.00,0.0107
794.00,0.0103
793.00,0.0100
792.00,0.0098
791.00,0.0096
790.00,0.0094
789.00,0.0092
788.00,0.0090
787.00,0.0087
786.00,0.0085
785.00,0.0082
784.00,0.0079
783.00,0.0076
782.00,0.0074
781.00,0.0073
780.00,0.0073
779.00,0.0072
778.00,0.0071
777.00,0.0071
776.00,0.0071
775.00,0.0072
774.00,0.0072
773.00,0.0073
772.00,0.0072
771.00,0.0071
770.00,0.0071
769.00,0.0072
768.00,0.0073
767.00,0.0075
766.00,0.0075
765.00,0.0075
764.00,0.0075
763.00,0.0075
762.00,0.0076
761.00,0.0077
760.00,0.0079
759.00,0.0080
758.00,0.0081
757.00,0.0080
756.00,0.0079
755.00,0.0079
754.00,0.0079
753.00,0.0080
752.00,0.0080
751.00,0.0080
750.00,0.0079
749.00,0.0079
748.00,0.0080
747.00,0.0082
746.00,0.0084
745.00,0.0085
744.00,0.0086
743.00,0.0087
742.00,0.0089
741.00,0.0092
740.00,0.0094
739.00,0.0097
738.00,0.0100
737.00,0.0102
736.00,0.0105
735.00,0.0108
734.00,0.0112
733.00,0.0118
732.00,0.0125
731.00,0.0133
730.00,0.0141
729.00,0.0146
728.00,0.0148
727.00,0.0148
726.00,0.0148
725.00,0.0149
724.00,0.0154
723.00,0.0160
722.00,0.0165
721.00,0.0167
720.00,0.0165
719.00,0.0158
718.00,0.0148
717.00,0.0137
716.00,0.0128
715.00,0.0121
714.00,0.0116
713.00,0.0112
712.00,0.0108
711.00,0.0105
710.00,0.0103
709.00,0.0100
708.00,0.0096
707.00,0.0094
706.00,0.0092
705.00,0.0091
704.00,0.0090
703.00,0.0089
702.00,0.0089
701.00,0.0088
700.00,0.0087
699.00,0.0085
698.00,0.0083
697.00,0.0080
696.00,0.0078
695.00,0.0078
694.00,0.0078
693.00,0.0079
692.00,0.0079
691.00,0.0077
690.00,0.0076
689.00,0.0077
688.00,0.0078
687.00,0.0080
686.00,0.0080
685.00,0.0081
684.00,0.0082
683.00,0.0082
682.00,0.0082
681.00,0.0081
680.00,0.0079
679.00,0.0076
678.00,0.0075
677.00,0.0075
676.00,0.0077
675.00,0.0079
674.00,0.0080
673.00,0.0080
672.00,0.0079
671.00,0.0078
670.00,0.0078
669.00,0.0079
668.00,0.0081
667.00,0.0084
666.00,0.0085
665.00,0.0083
664.00,0.0081
663.00,0.0079
662.00,0.0078
661.00,0.0080
660.00,0.0081
659.00,0.0081
658.00,0.0080
657.00,0.0078
656.00,0.0078
655.00,0.0078
654.00,0.0079
653.00,0.0080
652.00,0.0081
651.00,0.0082
650.00,0.0082
649.00,0.0079
648.00,0.0076
647.00,0.0072
646.00,0.0069
645.00,0.0068
644.00,0.0069
643.00,0.0072
642.00,0.0074
641.00,0.0075
640.00,0.0076
639.00,0.0078
638.00,0.0079
637.00,0.0080
636.00,0.0079
635.00,0.0078
634.00,0.0078
633.00,0.0079
632.00,0.0080
631.00,0.0081
630.00,0.0081
629.00,0.0080
628.00,0.0078
627.00,0.0076
626.00,0.0076
625.00,0.0075
624.00,0.0076
623.00,0.0076
622.00,0.0076
621.00,0.0077
620.00,0.0079
619.00,0.0082
618.00,0.0082
617.00,0.0079
616.00,0.0076
615.00,0.0075
614.00,0.0077
613.00,0.0079
612.00,0.0080
611.00,0.0080
610.00,0.0079
609.00,0.0077
608.00,0.0075
607.00,0.0076
606.00,0.0076
605.00,0.0077
604.00,0.0078
603.00,0.0081
602.00,0.0085
601.00,0.0087
600.00,0.0086
599.00,0.0084
598.00,0.0083
597.00,0.0082
596.00,0.0082
595.00,0.0083
594.00,0.0086
593.00,0.0087
592.00,0.0087
591.00,0.0085
590.00,0.0084
589.00,0.0083
588.00,0.0081
587.00,0.0079
586.00,0.0079
585.00,0.0081
584.00,0.0084
583.00,0.0087
582.00,0.0090
581.00,0.0092
580.00,0.0093
579.00,0.0092
578.00,0.0091
577.00,0.0089
576.00,0.0087
575.00,0.0084
574.00,0.0082
573.00,0.0080
572.00,0.0078
571.00,0.0076
570.00,0.0075
569.00,0.0075
568.00,0.0076
567.00,0.0079
566.00,0.0081
565.00,0.0083
564.00,0.0085
563.00,0.0085
562.00,0.0084
561.00,0.0082
560.00,0.0079
559.00,0.0077
558.00,0.0077
557.00,0.0078
556.00,0.0078
555.00,0.0078
554.00,0.0078
553.00,0.0079
552.00,0.0080
551.00,0.0084
550.00,0.0087
549.00,0.0090
548.00,0.0090
547.00,0.0089
546.00,0.0090
545.00,0.0093
544.00,0.0095
543.00,0.0094
542.00,0.0089
541.00,0.0083
540.00,0.0079
539.00,0.0079
538.00,0.0081
537.00,0.0083
536.00,0.0083
535.00,0.0084
534.00,0.0085
533.00,0.0085
532.00,0.0085
531.00,0.0086
530.00,0.0089
529.00,0.0095
528.00,0.0100
527.00,0.0103
526.00,0.0104
525.00,0.0102
524.00,0.0099
523.00,0.0098
522.00,0.0097
521.00,0.0094
520.00,0.0089
519.00,0.0083
518.00,0.0077
517.00,0.0074
516.00,0.0077
515.00,0.0085
514.00,0.0095
513.00,0.0100
512.00,0.0100
511.00,0.0096
510.00,0.0091
509.00,0.0086
508.00,0.0081
507.00,0.0078
506.00,0.0076
505.00,0.0074
504.00,0.0074
503.00,0.0079
502.00,0.0089
501.00,0.0099
500.00,0.0102
499.00,0.0098
498.00,0.0089
497.00,0.0080
496.00,0.0075
495.00,0.0077
494.00,0.0084
493.00,0.0090
492.00,0.0092
491.00,0.0090
490.00,0.0089
489.00,0.0089
488.00,0.0089
487.00,0.0089
486.00,0.0090
485.00,0.0093
484.00,0.0097
483.00,0.0100
482.00,0.0103
481.00,0.0104
480.00,0.0102
479.00,0.0094
478.00,0.0085
477.00,0.0080
476.00,0.0082
475.00,0.0087
474.00,0.0091
473.00,0.0090
472.00,0.0089
471.00,0.0093
470.00,0.0102
469.00,0.0110
468.00,0.0114
467.00,0.0114
466.00,0.0113
465.00,0.0116
464.00,0.0128
463.00,0.0151
462.00,0.0178
461.00,0.0198
460.00,0.0202
459.00,0.0188
458.00,0.0161
457.00,0.0134
456.00,0.0118
455.00,0.0121
454.00,0.0135
453.00,0.0146
452.00,0.0145
451.00,0.0131
450.00,0.0116
