Created as New Dataset,Sample 133 By Administrator Date Wednesday, September 10 2025
cm-1,A
4000.00,0.0008
3999.00,0.0008
3998.00,0.0008
3997.00,0.0008
3996.00,0.0008
3995.00,0.0008
3994.00,0.0009
3993.00,0.0009
3992.00,0.0009
3991.00,0.0009
3990.00,0.0009
3989.00,0.0008
3988.00,0.0008
3987.00,0.0008
3986.00,0.0008
3985.00,0.0008
3984.00,0.0008
3983.00,0.0008
3982.00,0.0008
3981.00,0.0008
3980.00,0.0008
3979.00,0.0008
3978.00,0.0008
3977.00,0.0008
3976.00,0.0008
3975.00,0.0007
3974.00,0.0007
3973.00,0.0007
3972.00,0.0007
3971.00,0.0008
3970.00,0.0008
3969.00,0.0007
3968.00,0.0007
3967.00,0.0007
3966.00,0.0007
3965.00,0.0007
3964.00,0.0007
3963.00,0.0007
3962.00,0.0007
3961.00,0.0007
3960.00,0.0007
3959.00,0.0007
3958.00,0.0007
3957.00,0.0007
3956.00,0.0007
3955.00,0.0006
3954.00,0.0006
3953.00,0.0006
3952.00,0.0006
3951.00,0.0006
3950.00,0.0007
3949.00,0.0007
3948.00,0.0007
3947.00,0.0007
3946.00,0.0007
3945.00,0.0007
3944.00,0.0007
3943.00,0.0007
3942.00,0.0007
3941.00,0.0007
3940.00,0.0007
3939.00,0.0006
3938.00,0.0007
3937.00,0.0006
3936.00,0.0006
3935.00,0.0006
3934.00,0.0006
3933.00,0.0007
3932.00,0.0007
3931.00,0.0007
3930.00,0.0007
3929.00,0.0006
3928.00,0.0006
3927.00,0.0006
3926.00,0.0006
3925.00,0.0006
3924.00,0.0006
3923.00,0.0006
3922.00,0.0007
3921.00,0.0007
3920.00,0.0007
3919.00,0.0007
3918.00,0.0007
3917.00,0.0007
3916.00,0.0007
3915.00,0.0007
3914.00,0.0007
3913.00,0.0007
3912.00,0.0007
3911.00,0.0007
3910.00,0.0007
3909.00,0.0007
3908.00,0.0006
3907.00,0.0006
3906.00,0.0006
3905.00,0.0006
3904.00,0.0006
3903.00,0.0006
3902.00,0.0005
3901.00,0.0005
3900.00,0.0006
3899.00,0.0006
3898.00,0.0006
3897.00,0.0006
3896.00,0.0006
3895.00,0.0007
3894.00,0.0007
3893.00,0.0006
3892.00,0.0006
3891.00,0.0007
3890.00,0.0007
3889.00,0.0006
3888.00,0.0006
3887.00,0.0006
3886.00,0.0006
3885.00,0.0006
3884.00,0.0006
3883.00,0.0006
3882.00,0.0006
3881.00,0.0006
3880.00,0.0006
3879.00,0.0006
3878.00,0.0006
3877.00,0.0006
3876.00,0.0006
3875.00,0.0006
3874.00,0.0006
3873.00,0.0006
3872.00,0.0006
3871.00,0.0006
3870.00,0.0006
3869.00,0.0006
3868.00,0.0006
3867.00,0.0006
3866.00,0.0006
3865.00,0.0006
3864.00,0.0006
3863.00,0.0006
3862.00,0.0006
3861.00,0.0006
3860.00,0.0006
3859.00,0.0006
3858.00,0.0006
3857.00,0.0005
3856.00,0.0005
3855.00,0.0006
3854.00,0.0006
3853.00,0.0006
3852.00,0.0006
3851.00,0.0006
3850.00,0.0006
3849.00,0.0006
3848.00,0.0006
3847.00,0.0006
3846.00,0.0006
3845.00,0.0006
3844.00,0.0006
3843.00,0.0006
3842.00,0.0006
3841.00,0.0006
3840.00,0.0006
3839.00,0.0006
3838.00,0.0006
3837.00,0.0006
3836.00,0.0006
3835.00,0.0005
3834.00,0.0005
3833.00,0.0005
3832.00,0.0005
3831.00,0.0006
3830.00,0.0006
3829.00,0.0006
3828.00,0.0006
3827.00,0.0005
3826.00,0.0005
3825.00,0.0005
3824.00,0.0006
3823.00,0.0006
3822.00,0.0006
3821.00,0.0006
3820.00,0.0006
3819.00,0.0005
3818.00,0.0005
3817.00,0.0005
3816.00,0.0006
3815.00,0.0006
3814.00,0.0006
3813.00,0.0006
3812.00,0.0006
3811.00,0.0006
3810.00,0.0006
3809.00,0.0006
3808.00,0.0006
3807.00,0.0006
3806.00,0.0006
3805.00,0.0005
3804.00,0.0005
3803.00,0.0005
3802.00,0.0005
3801.00,0.0005
3800.00,0.0005
3799.00,0.0005
3798.00,0.0005
3797.00,0.0005
3796.00,0.0006
3795.00,0.0006
3794.00,0.0006
3793.00,0.0006
3792.00,0.0006
3791.00,0.0006
3790.00,0.0007
3789.00,0.0006
3788.00,0.0006
3787.00,0.0006
3786.00,0.0005
3785.00,0.0005
3784.00,0.0005
3783.00,0.0005
3782.00,0.0005
3781.00,0.0005
3780.00,0.0005
3779.00,0.0005
3778.00,0.0005
3777.00,0.0006
3776.00,0.0006
3775.00,0.0007
3774.00,0.0007
3773.00,0.0007
3772.00,0.0007
3771.00,0.0007
3770.00,0.0007
3769.00,0.0007
3768.00,0.0007
3767.00,0.0007
3766.00,0.0006
3765.00,0.0006
3764.00,0.0006
3763.00,0.0006
3762.00,0.0006
3761.00,0.0006
3760.00,0.0006
3759.00,0.0006
3758.00,0.0006
3757.00,0.0006
3756.00,0.0007
3755.00,0.0007
3754.00,0.0007
3753.00,0.0006
3752.00,0.0006
3751.00,0.0005
3750.00,0.0005
3749.00,0.0005
3748.00,0.0005
3747.00,0.0006
3746.00,0.0006
3745.00,0.0006
3744.00,0.0006
3743.00,0.0006
3742.00,0.0006
3741.00,0.0005
3740.00,0.0004
3739.00,0.0004
3738.00,0.0005
3737.00,0.0005
3736.00,0.0004
3735.00,0.0004
3734.00,0.0004
3733.00,0.0003
3732.00,0.0004
3731.00,0.0004
3730.00,0.0004
3729.00,0.0004
3728.00,0.0004
3727.00,0.0004
3726.00,0.0004
3725.00,0.0004
3724.00,0.0004
3723.00,0.0004
3722.00,0.0004
3721.00,0.0005
3720.00,0.0004
3719.00,0.0004
3718.00,0.0004
3717.00,0.0004
3716.00,0.0004
3715.00,0.0004
3714.00,0.0004
3713.00,0.0004
3712.00,0.0004
3711.00,0.0004
3710.00,0.0004
3709.00,0.0004
3708.00,0.0004
3707.00,0.0004
3706.00,0.0004
3705.00,0.0004
3704.00,0.0004
3703.00,0.0005
3702.00,0.0005
3701.00,0.0005
3700.00,0.0005
3699.00,0.0005
3698.00,0.0005
3697.00,0.0005
3696.00,0.0005
3695.00,0.0004
3694.00,0.0004
3693.00,0.0004
3692.00,0.0005
3691.00,0.0005
3690.00,0.0005
3689.00,0.0004
3688.00,0.0004
3687.00,0.0004
3686.00,0.0004
3685.00,0.0004
3684.00,0.0004
3683.00,0.0005
3682.00,0.0005
3681.00,0.0006
3680.00,0.0006
3679.00,0.0006
3678.00,0.0006
3677.00,0.0006
3676.00,0.0006
3675.00,0.0006
3674.00,0.0005
3673.00,0.0005
3672.00,0.0004
3671.00,0.0004
3670.00,0.0005
3669.00,0.0005
3668.00,0.0005
3667.00,0.0004
3666.00,0.0004
3665.00,0.0005
3664.00,0.0005
3663.00,0.0006
3662.00,0.0006
3661.00,0.0006
3660.00,0.0006
3659.00,0.0006
3658.00,0.0006
3657.00,0.0006
3656.00,0.0006
3655.00,0.0005
3654.00,0.0004
3653.00,0.0004
3652.00,0.0004
3651.00,0.0004
3650.00,0.0004
3649.00,0.0004
3648.00,0.0004
3647.00,0.0004
3646.00,0.0005
3645.00,0.0005
3644.00,0.0005
3643.00,0.0006
3642.00,0.0006
3641.00,0.0006
3640.00,0.0006
3639.00,0.0006
3638.00,0.0007
3637.00,0.0007
3636.00,0.0007
3635.00,0.0007
3634.00,0.0007
3633.00,0.0007
3632.00,0.0008
3631.00,0.0007
3630.00,0.0007
3629.00,0.0007
3628.00,0.0007
3627.00,0.0007
3626.00,0.0007
3625.00,0.0007
3624.00,0.0008
3623.00,0.0008
3622.00,0.0008
3621.00,0.0008
3620.00,0.0008
3619.00,0.0008
3618.00,0.0008
3617.00,0.0008
3616.00,0.0008
3615.00,0.0009
3614.00,0.0009
3613.00,0.0009
3612.00,0.0009
3611.00,0.0009
3610.00,0.0009
3609.00,0.0009
3608.00,0.0010
3607.00,0.0010
3606.00,0.0010
3605.00,0.0010
3604.00,0.0010
3603.00,0.0010
3602.00,0.0010
3601.00,0.0010
3600.00,0.0010
3599.00,0.0010
3598.00,0.0010
3597.00,0.0011
3596.00,0.0011
3595.00,0.0011
3594.00,0.0011
3593.00,0.0011
3592.00,0.0012
3591.00,0.0012
3590.00,0.0013
3589.00,0.0013
3588.00,0.0013
3587.00,0.0014
3586.00,0.0014
3585.00,0.0015
3584.00,0.0015
3583.00,0.0015
3582.00,0.0015
3581.00,0.0015
3580.00,0.0015
3579.00,0.0015
3578.00,0.0015
3577.00,0.0015
3576.00,0.0015
3575.00,0.0016
3574.00,0.0016
3573.00,0.0016
3572.00,0.0016
3571.00,0.0016
3570.00,0.0017
3569.00,0.0017
3568.00,0.0017
3567.00,0.0016
3566.00,0.0016
3565.00,0.0017
3564.00,0.0017
3563.00,0.0018
3562.00,0.0018
3561.00,0.0019
3560.00,0.0019
3559.00,0.0019
3558.00,0.0019
3557.00,0.0019
3556.00,0.0019
3555.00,0.0020
3554.00,0.0020
3553.00,0.0021
3552.00,0.0021
3551.00,0.0021
3550.00,0.0021
3549.00,0.0021
3548.00,0.0022
3547.00,0.0022
3546.00,0.0022
3545.00,0.0023
3544.00,0.0023
3543.00,0.0023
3542.00,0.0023
3541.00,0.0023
3540.00,0.0024
3539.00,0.0024
3538.00,0.0025
3537.00,0.0026
3536.00,0.0026
3535.00,0.0026
3534.00,0.0026
3533.00,0.0026
3532.00,0.0026
3531.00,0.0026
3530.00,0.0027
3529.00,0.0027
3528.00,0.0027
3527.00,0.0027
3526.00,0.0027
3525.00,0.0027
3524.00,0.0027
3523.00,0.0027
3522.00,0.0028
3521.00,0.0028
3520.00,0.0029
3519.00,0.0029
3518.00,0.0030
3517.00,0.0030
3516.00,0.0030
3515.00,0.0030
3514.00,0.0031
3513.00,0.0031
3512.00,0.0031
3511.00,0.0031
3510.00,0.0031
3509.00,0.0031
3508.00,0.0031
3507.00,0.0031
3506.00,0.0032
3505.00,0.0032
3504.00,0.0033
3503.00,0.0033
3502.00,0.0034
3501.00,0.0034
3500.00,0.0034
3499.00,0.0035
3498.00,0.0035
3497.00,0.0035
3496.00,0.0035
3495.00,0.0036
3494.00,0.0036
3493.00,0.0036
3492.00,0.0036
3491.00,0.0036
3490.00,0.0036
3489.00,0.0037
3488.00,0.0037
3487.00,0.0037
3486.00,0.0037
3485.00,0.0037
3484.00,0.0037
3483.00,0.0037
3482.00,0.0037
3481.00,0.0037
3480.00,0.0038
3479.00,0.0038
3478.00,0.0038
3477.00,0.0038
3476.00,0.0039
3475.00,0.0039
3474.00,0.0040
3473.00,0.0040
3472.00,0.0040
3471.00,0.0040
3470.00,0.0041
3469.00,0.0041
3468.00,0.0041
3467.00,0.0042
3466.00,0.0042
3465.00,0.0042
3464.00,0.0042
3463.00,0.0043
3462.00,0.0043
3461.00,0.0043
3460.00,0.0043
3459.00,0.0043
3458.00,0.0043
3457.00,0.0043
3456.00,0.0044
3455.00,0.0044
3454.00,0.0044
3453.00,0.0044
3452.00,0.0044
3451.00,0.0045
3450.00,0.0045
3449.00,0.0045
3448.00,0.0046
3447.00,0.0046
3446.00,0.0046
3445.00,0.0047
3444.00,0.0047
3443.00,0.0047
3442.00,0.0048
3441.00,0.0048
3440.00,0.0048
3439.00,0.0049
3438.00,0.0049
3437.00,0.0049
3436.00,0.0049
3435.00,0.0049
3434.00,0.0049
3433.00,0.0049
3432.00,0.0050
3431.00,0.0050
3430.00,0.0050
3429.00,0.0050
3428.00,0.0051
3427.00,0.0051
3426.00,0.0051
3425.00,0.0051
3424.00,0.0051
3423.00,0.0052
3422.00,0.0052
3421.00,0.0052
3420.00,0.0053
3419.00,0.0053
3418.00,0.0053
3417.00,0.0053
3416.00,0.0054
3415.00,0.0054
3414.00,0.0054
3413.00,0.0054
3412.00,0.0054
3411.00,0.0054
3410.00,0.0054
3409.00,0.0054
3408.00,0.0054
3407.00,0.0054
3406.00,0.0055
3405.00,0.0055
3404.00,0.0056
3403.00,0.0056
3402.00,0.0057
3401.00,0.0057
3400.00,0.0057
3399.00,0.0057
3398.00,0.0056
3397.00,0.0056
3396.00,0.0056
3395.00,0.0056
3394.00,0.0056
3393.00,0.0056
3392.00,0.0057
3391.00,0.0057
3390.00,0.0057
3389.00,0.0057
3388.00,0.0057
3387.00,0.0056
3386.00,0.0056
3385.00,0.0057
3384.00,0.0057
3383.00,0.0058
3382.00,0.0058
3381.00,0.0058
3380.00,0.0058
3379.00,0.0058
3378.00,0.0058
3377.00,0.0058
3376.00,0.0059
3375.00,0.0059
3374.00,0.0059
3373.00,0.0059
3372.00,0.0059
3371.00,0.0059
3370.00,0.0058
3369.00,0.0058
3368.00,0.0058
3367.00,0.0059
3366.00,0.0060
3365.00,0.0060
3364.00,0.0060
3363.00,0.0060
3362.00,0.0060
3361.00,0.0060
3360.00,0.0059
3359.00,0.0059
3358.00,0.0059
3357.00,0.0059
3356.00,0.0060
3355.00,0.0060
3354.00,0.0060
3353.00,0.0060
3352.00,0.0061
3351.00,0.0061
3350.00,0.0061
3349.00,0.0061
3348.00,0.0061
3347.00,0.0060
3346.00,0.0060
3345.00,0.0060
3344.00,0.0060
3343.00,0.0060
3342.00,0.0060
3341.00,0.0060
3340.00,0.0060
3339.00,0.0060
3338.00,0.0060
3337.00,0.0060
3336.00,0.0060
3335.00,0.0059
3334.00,0.0059
3333.00,0.0059
3332.00,0.0059
3331.00,0.0059
3330.00,0.0059
3329.00,0.0059
3328.00,0.0058
3327.00,0.0058
3326.00,0.0058
3325.00,0.0057
3324.00,0.0057
3323.00,0.0057
3322.00,0.0058
3321.00,0.0058
3320.00,0.0058
3319.00,0.0059
3318.00,0.0059
3317.00,0.0058
3316.00,0.0058
3315.00,0.0057
3314.00,0.0057
3313.00,0.0057
3312.00,0.0057
3311.00,0.0057
3310.00,0.0057
3309.00,0.0057
3308.00,0.0057
3307.00,0.0057
3306.00,0.0057
3305.00,0.0057
3304.00,0.0057
3303.00,0.0057
3302.00,0.0057
3301.00,0.0057
3300.00,0.0056
3299.00,0.0056
3298.00,0.0056
3297.00,0.0056
3296.00,0.0056
3295.00,0.0056
3294.00,0.0056
3293.00,0.0056
3292.00,0.0056
3291.00,0.0056
3290.00,0.0056
3289.00,0.0056
3288.00,0.0056
3287.00,0.0055
3286.00,0.0055
3285.00,0.0054
3284.00,0.0054
3283.00,0.0054
3282.00,0.0053
3281.00,0.0053
3280.00,0.0053
3279.00,0.0053
3278.00,0.0053
3277.00,0.0053
3276.00,0.0053
3275.00,0.0053
3274.00,0.0052
3273.00,0.0052
3272.00,0.0052
3271.00,0.0052
3270.00,0.0052
3269.00,0.0052
3268.00,0.0052
3267.00,0.0052
3266.00,0.0051
3265.00,0.0051
3264.00,0.0051
3263.00,0.0051
3262.00,0.0051
3261.00,0.0051
3260.00,0.0051
3259.00,0.0051
3258.00,0.0050
3257.00,0.0050
3256.00,0.0050
3255.00,0.0050
3254.00,0.0050
3253.00,0.0050
3252.00,0.0050
3251.00,0.0049
3250.00,0.0049
3249.00,0.0049
3248.00,0.0049
3247.00,0.0049
3246.00,0.0048
3245.00,0.0048
3244.00,0.0048
3243.00,0.0048
3242.00,0.0047
3241.00,0.0047
3240.00,0.0047
3239.00,0.0048
3238.00,0.0048
3237.00,0.0048
3236.00,0.0048
3235.00,0.0048
3234.00,0.0047
3233.00,0.0047
3232.00,0.0047
3231.00,0.0048
3230.00,0.0048
3229.00,0.0048
3228.00,0.0048
3227.00,0.0049
3226.00,0.0049
3225.00,0.0049
3224.00,0.0048
3223.00,0.0048
3222.00,0.0048
3221.00,0.0048
3220.00,0.0048
3219.00,0.0049
3218.00,0.0049
3217.00,0.0049
3216.00,0.0050
3215.00,0.0050
3214.00,0.0049
3213.00,0.0049
3212.00,0.0049
3211.00,0.0050
3210.00,0.0050
3209.00,0.0050
3208.00,0.0050
3207.00,0.0050
3206.00,0.0050
3205.00,0.0050
3204.00,0.0050
3203.00,0.0050
3202.00,0.0051
3201.00,0.0051
3200.00,0.0051
3199.00,0.0051
3198.00,0.0051
3197.00,0.0050
3196.00,0.0050
3195.00,0.0050
3194.00,0.0050
3193.00,0.0050
3192.00,0.0050
3191.00,0.0050
3190.00,0.0050
3189.00,0.0050
3188.00,0.0050
3187.00,0.0050
3186.00,0.0049
3185.00,0.0048
3184.00,0.0048
3183.00,0.0047
3182.00,0.0047
3181.00,0.0047
3180.00,0.0047
3179.00,0.0047
3178.00,0.0047
3177.00,0.0046
3176.00,0.0046
3175.00,0.0046
3174.00,0.0046
3173.00,0.0046
3172.00,0.0046
3171.00,0.0046
3170.00,0.0045
3169.00,0.0045
3168.00,0.0044
3167.00,0.0044
3166.00,0.0043
3165.00,0.0043
3164.00,0.0043
3163.00,0.0043
3162.00,0.0043
3161.00,0.0043
3160.00,0.0043
3159.00,0.0043
3158.00,0.0042
3157.00,0.0042
3156.00,0.0042
3155.00,0.0042
3154.00,0.0042
3153.00,0.0042
3152.00,0.0043
3151.00,0.0043
3150.00,0.0043
3149.00,0.0043
3148.00,0.0043
3147.00,0.0043
3146.00,0.0043
3145.00,0.0043
3144.00,0.0043
3143.00,0.0042
3142.00,0.0042
3141.00,0.0042
3140.00,0.0042
3139.00,0.0042
3138.00,0.0041
3137.00,0.0041
3136.00,0.0040
3135.00,0.0040
3134.00,0.0039
3133.00,0.0039
3132.00,0.0039
3131.00,0.0039
3130.00,0.0039
3129.00,0.0039
3128.00,0.0039
3127.00,0.0038
3126.00,0.0038
3125.00,0.0038
3124.00,0.0038
3123.00,0.0037
3122.00,0.0037
3121.00,0.0036
3120.00,0.0036
3119.00,0.0036
3118.00,0.0036
3117.00,0.0035
3116.00,0.0035
3115.00,0.0034
3114.00,0.0034
3113.00,0.0034
3112.00,0.0034
3111.00,0.0034
3110.00,0.0034
3109.00,0.0034
3108.00,0.0034
3107.00,0.0034
3106.00,0.0034
3105.00,0.0034
3104.00,0.0033
3103.00,0.0033
3102.00,0.0032
3101.00,0.0032
3100.00,0.0031
3099.00,0.0031
3098.00,0.0030
3097.00,0.0031
3096.00,0.0031
3095.00,0.0032
3094.00,0.0032
3093.00,0.0032
3092.00,0.0032
3091.00,0.0031
3090.00,0.0031
3089.00,0.0031
3088.00,0.0031
3087.00,0.0031
3086.00,0.0031
3085.00,0.0031
3084.00,0.0031
3083.00,0.0031
3082.00,0.0031
3081.00,0.0031
3080.00,0.0031
3079.00,0.0031
3078.00,0.0031
3077.00,0.0031
3076.00,0.0031
3075.00,0.0031
3074.00,0.0031
3073.00,0.0031
3072.00,0.0032
3071.00,0.0032
3070.00,0.0032
3069.00,0.0032
3068.00,0.0032
3067.00,0.0032
3066.00,0.0032
3065.00,0.0032
3064.00,0.0032
3063.00,0.0032
3062.00,0.0032
3061.00,0.0032
3060.00,0.0033
3059.00,0.0033
3058.00,0.0033
3057.00,0.0034
3056.00,0.0034
3055.00,0.0034
3054.00,0.0034
3053.00,0.0034
3052.00,0.0034
3051.00,0.0033
3050.00,0.0033
3049.00,0.0034
3048.00,0.0034
3047.00,0.0034
3046.00,0.0034
3045.00,0.0035
3044.00,0.0035
3043.00,0.0035
3042.00,0.0035
3041.00,0.0036
3040.00,0.0036
3039.00,0.0036
3038.00,0.0037
3037.00,0.0037
3036.00,0.0037
3035.00,0.0037
3034.00,0.0038
3033.00,0.0038
3032.00,0.0038
3031.00,0.0038
3030.00,0.0038
3029.00,0.0039
3028.00,0.0040
3027.00,0.0041
3026.00,0.0041
3025.00,0.0042
3024.00,0.0043
3023.00,0.0043
3022.00,0.0044
3021.00,0.0044
3020.00,0.0045
3019.00,0.0045
3018.00,0.0046
3017.00,0.0047
3016.00,0.0048
3015.00,0.0049
3014.00,0.0050
3013.00,0.0051
3012.00,0.0053
3011.00,0.0054
3010.00,0.0056
3009.00,0.0057
3008.00,0.0059
3007.00,0.0060
3006.00,0.0062
3005.00,0.0063
3004.00,0.0066
3003.00,0.0068
3002.00,0.0071
3001.00,0.0073
3000.00,0.0076
2999.00,0.0079
2998.00,0.0082
2997.00,0.0086
2996.00,0.0090
2995.00,0.0094
2994.00,0.0098
2993.00,0.0103
2992.00,0.0109
2991.00,0.0115
2990.00,0.0122
2989.00,0.0130
2988.00,0.0138
2987.00,0.0148
2986.00,0.0158
2985.00,0.0170
2984.00,0.0183
2983.00,0.0197
2982.00,0.0214
2981.00,0.0233
2980.00,0.0254
2979.00,0.0278
2978.00,0.0305
2977.00,0.0337
2976.00,0.0373
2975.00,0.0414
2974.00,0.0461
2973.00,0.0514
2972.00,0.0575
2971.00,0.0643
2970.00,0.0719
2969.00,0.0804
2968.00,0.0898
2967.00,0.1001
2966.00,0.1111
2965.00,0.1228
2964.00,0.1347
2963.00,0.1465
2962.00,0.1576
2961.00,0.1674
2960.00,0.1755
2959.00,0.1816
2958.00,0.1859
2957.00,0.1888
2956.00,0.1910
2955.00,0.1931
2954.00,0.1954
2953.00,0.1979
2952.00,0.1999
2951.00,0.2007
2950.00,0.1994
2949.00,0.1953
2948.00,0.1881
2947.00,0.1780
2946.00,0.1659
2945.00,0.1528
2944.00,0.1400
2943.00,0.1287
2942.00,0.1195
2941.00,0.1128
2940.00,0.1085
2939.00,0.1064
2938.00,0.1065
2937.00,0.1083
2936.00,0.1118
2935.00,0.1167
2934.00,0.1229
2933.00,0.1302
2932.00,0.1385
2931.00,0.1476
2930.00,0.1571
2929.00,0.1667
2928.00,0.1761
2927.00,0.1851
2926.00,0.1935
2925.00,0.2013
2924.00,0.2087
2923.00,0.2157
2922.00,0.2225
2921.00,0.2289
2920.00,0.2345
2919.00,0.2389
2918.00,0.2413
2917.00,0.2413
2916.00,0.2388
2915.00,0.2342
2914.00,0.2279
2913.00,0.2209
2912.00,0.2137
2911.00,0.2069
2910.00,0.2007
2909.00,0.1951
2908.00,0.1898
2907.00,0.1846
2906.00,0.1791
2905.00,0.1733
2904.00,0.1671
2903.00,0.1606
2902.00,0.1538
2901.00,0.1470
2900.00,0.1404
2899.00,0.1340
2898.00,0.1280
2897.00,0.1225
2896.00,0.1177
2895.00,0.1136
2894.00,0.1103
2893.00,0.1075
2892.00,0.1055
2891.00,0.1041
2890.00,0.1032
2889.00,0.1027
2888.00,0.1027
2887.00,0.1030
2886.00,0.1036
2885.00,0.1046
2884.00,0.1060
2883.00,0.1077
2882.00,0.1097
2881.00,0.1119
2880.00,0.1140
2879.00,0.1156
2878.00,0.1166
2877.00,0.1168
2876.00,0.1163
2875.00,0.1155
2874.00,0.1148
2873.00,0.1147
2872.00,0.1152
2871.00,0.1165
2870.00,0.1182
2869.00,0.1199
2868.00,0.1209
2867.00,0.1204
2866.00,0.1179
2865.00,0.1130
2864.00,0.1061
2863.00,0.0980
2862.00,0.0896
2861.00,0.0818
2860.00,0.0752
2859.00,0.0700
2858.00,0.0661
2857.00,0.0633
2856.00,0.0615
2855.00,0.0605
2854.00,0.0601
2853.00,0.0603
2852.00,0.0612
2851.00,0.0627
2850.00,0.0648
2849.00,0.0675
2848.00,0.0710
2847.00,0.0753
2846.00,0.0806
2845.00,0.0867
2844.00,0.0937
2843.00,0.1013
2842.00,0.1091
2841.00,0.1164
2840.00,0.1224
2839.00,0.1262
2838.00,0.1269
2837.00,0.1241
2836.00,0.1178
2835.00,0.1086
2834.00,0.0977
2833.00,0.0862
2832.00,0.0753
2831.00,0.0656
2830.00,0.0574
2829.00,0.0507
2828.00,0.0453
2827.00,0.0409
2826.00,0.0373
2825.00,0.0344
2824.00,0.0319
2823.00,0.0298
2822.00,0.0280
2821.00,0.0264
2820.00,0.0251
2819.00,0.0239
2818.00,0.0229
2817.00,0.0220
2816.00,0.0212
2815.00,0.0205
2814.00,0.0199
2813.00,0.0193
2812.00,0.0188
2811.00,0.0183
2810.00,0.0178
2809.00,0.0172
2808.00,0.0166
2807.00,0.0160
2806.00,0.0154
2805.00,0.0148
2804.00,0.0142
2803.00,0.0136
2802.00,0.0130
2801.00,0.0126
2800.00,0.0122
2799.00,0.0119
2798.00,0.0116
2797.00,0.0114
2796.00,0.0111
2795.00,0.0109
2794.00,0.0107
2793.00,0.0104
2792.00,0.0101
2791.00,0.0097
2790.00,0.0094
2789.00,0.0090
2788.00,0.0087
2787.00,0.0084
2786.00,0.0081
2785.00,0.0078
2784.00,0.0076
2783.00,0.0073
2782.00,0.0071
2781.00,0.0069
2780.00,0.0066
2779.00,0.0065
2778.00,0.0063
2777.00,0.0062
2776.00,0.0061
2775.00,0.0060
2774.00,0.0059
2773.00,0.0058
2772.00,0.0057
2771.00,0.0056
2770.00,0.0056
2769.00,0.0056
2768.00,0.0056
2767.00,0.0055
2766.00,0.0055
2765.00,0.0055
2764.00,0.0055
2763.00,0.0054
2762.00,0.0054
2761.00,0.0053
2760.00,0.0053
2759.00,0.0052
2758.00,0.0052
2757.00,0.0052
2756.00,0.0052
2755.00,0.0052
2754.00,0.0052
2753.00,0.0052
2752.00,0.0052
2751.00,0.0051
2750.00,0.0051
2749.00,0.0051
2748.00,0.0051
2747.00,0.0051
2746.00,0.0052
2745.00,0.0053
2744.00,0.0054
2743.00,0.0055
2742.00,0.0056
2741.00,0.0057
2740.00,0.0058
2739.00,0.0059
2738.00,0.0060
2737.00,0.0062
2736.00,0.0063
2735.00,0.0065
2734.00,0.0066
2733.00,0.0067
2732.00,0.0069
2731.00,0.0070
2730.00,0.0073
2729.00,0.0075
2728.00,0.0078
2727.00,0.0081
2726.00,0.0083
2725.00,0.0086
2724.00,0.0087
2723.00,0.0088
2722.00,0.0087
2721.00,0.0085
2720.00,0.0083
2719.00,0.0079
2718.00,0.0076
2717.00,0.0073
2716.00,0.0070
2715.00,0.0067
2714.00,0.0064
2713.00,0.0062
2712.00,0.0060
2711.00,0.0059
2710.00,0.0057
2709.00,0.0056
2708.00,0.0054
2707.00,0.0053
2706.00,0.0052
2705.00,0.0051
2704.00,0.0050
2703.00,0.0049
2702.00,0.0048
2701.00,0.0047
2700.00,0.0047
2699.00,0.0047
2698.00,0.0046
2697.00,0.0046
2696.00,0.0045
2695.00,0.0045
2694.00,0.0044
2693.00,0.0044
2692.00,0.0045
2691.00,0.0045
2690.00,0.0045
2689.00,0.0045
2688.00,0.0045
2687.00,0.0045
2686.00,0.0045
2685.00,0.0045
2684.00,0.0045
2683.00,0.0045
2682.00,0.0045
2681.00,0.0045
2680.00,0.0045
2679.00,0.0045
2678.00,0.0045
2677.00,0.0045
2676.00,0.0045
2675.00,0.0045
2674.00,0.0045
2673.00,0.0044
2672.00,0.0044
2671.00,0.0043
2670.00,0.0043
2669.00,0.0043
2668.00,0.0044
2667.00,0.0044
2666.00,0.0045
2665.00,0.0045
2664.00,0.0046
2663.00,0.0046
2662.00,0.0047
2661.00,0.0047
2660.00,0.0047
2659.00,0.0047
2658.00,0.0047
2657.00,0.0047
2656.00,0.0046
2655.00,0.0045
2654.00,0.0045
2653.00,0.0045
2652.00,0.0044
2651.00,0.0044
2650.00,0.0043
2649.00,0.0042
2648.00,0.0041
2647.00,0.0041
2646.00,0.0041
2645.00,0.0041
2644.00,0.0041
2643.00,0.0041
2642.00,0.0040
2641.00,0.0040
2640.00,0.0039
2639.00,0.0038
2638.00,0.0038
2637.00,0.0038
2636.00,0.0037
2635.00,0.0037
2634.00,0.0037
2633.00,0.0037
2632.00,0.0038
2631.00,0.0038
2630.00,0.0038
2629.00,0.0038
2628.00,0.0038
2627.00,0.0038
2626.00,0.0039
2625.00,0.0039
2624.00,0.0039
2623.00,0.0039
2622.00,0.0040
2621.00,0.0040
2620.00,0.0040
2619.00,0.0039
2618.00,0.0039
2617.00,0.0039
2616.00,0.0039
2615.00,0.0039
2614.00,0.0039
2613.00,0.0039
2612.00,0.0039
2611.00,0.0038
2610.00,0.0037
2609.00,0.0035
2608.00,0.0034
2607.00,0.0034
2606.00,0.0033
2605.00,0.0032
2604.00,0.0032
2603.00,0.0031
2602.00,0.0030
2601.00,0.0030
2600.00,0.0031
2599.00,0.0031
2598.00,0.0031
2597.00,0.0031
2596.00,0.0031
2595.00,0.0032
2594.00,0.0032
2593.00,0.0032
2592.00,0.0032
2591.00,0.0032
2590.00,0.0033
2589.00,0.0034
2588.00,0.0035
2587.00,0.0036
2586.00,0.0037
2585.00,0.0038
2584.00,0.0038
2583.00,0.0038
2582.00,0.0038
2581.00,0.0038
2580.00,0.0037
2579.00,0.0036
2578.00,0.0035
2577.00,0.0034
2576.00,0.0034
2575.00,0.0033
2574.00,0.0032
2573.00,0.0030
2572.00,0.0030
2571.00,0.0029
2570.00,0.0028
2569.00,0.0027
2568.00,0.0026
2567.00,0.0025
2566.00,0.0024
2565.00,0.0024
2564.00,0.0024
2563.00,0.0024
2562.00,0.0024
2561.00,0.0024
2560.00,0.0024
2559.00,0.0023
2558.00,0.0023
2557.00,0.0023
2556.00,0.0023
2555.00,0.0023
2554.00,0.0023
2553.00,0.0023
2552.00,0.0023
2551.00,0.0022
2550.00,0.0022
2549.00,0.0022
2548.00,0.0021
2547.00,0.0020
2546.00,0.0019
2545.00,0.0018
2544.00,0.0018
2543.00,0.0018
2542.00,0.0018
2541.00,0.0018
2540.00,0.0017
2539.00,0.0017
2538.00,0.0017
2537.00,0.0017
2536.00,0.0016
2535.00,0.0016
2534.00,0.0015
2533.00,0.0015
2532.00,0.0015
2531.00,0.0015
2530.00,0.0015
2529.00,0.0016
2528.00,0.0015
2527.00,0.0015
2526.00,0.0014
2525.00,0.0013
2524.00,0.0013
2523.00,0.0012
2522.00,0.0012
2521.00,0.0012
2520.00,0.0012
2519.00,0.0012
2518.00,0.0012
2517.00,0.0012
2516.00,0.0012
2515.00,0.0012
2514.00,0.0012
2513.00,0.0012
2512.00,0.0012
2511.00,0.0012
2510.00,0.0011
2509.00,0.0010
2508.00,0.0010
2507.00,0.0010
2506.00,0.0009
2505.00,0.0009
2504.00,0.0009
2503.00,0.0009
2502.00,0.0009
2501.00,0.0009
2500.00,0.0009
2499.00,0.0010
2498.00,0.0010
2497.00,0.0010
2496.00,0.0011
2495.00,0.0011
2494.00,0.0011
2493.00,0.0011
2492.00,0.0011
2491.00,0.0010
2490.00,0.0010
2489.00,0.0010
2488.00,0.0010
2487.00,0.0010
2486.00,0.0010
2485.00,0.0010
2484.00,0.0010
2483.00,0.0010
2482.00,0.0010
2481.00,0.0010
2480.00,0.0009
2479.00,0.0009
2478.00,0.0008
2477.00,0.0008
2476.00,0.0008
2475.00,0.0008
2474.00,0.0008
2473.00,0.0008
2472.00,0.0008
2471.00,0.0008
2470.00,0.0008
2469.00,0.0008
2468.00,0.0008
2467.00,0.0008
2466.00,0.0009
2465.00,0.0009
2464.00,0.0010
2463.00,0.0010
2462.00,0.0011
2461.00,0.0011
2460.00,0.0011
2459.00,0.0011
2458.00,0.0011
2457.00,0.0011
2456.00,0.0011
2455.00,0.0011
2454.00,0.0011
2453.00,0.0011
2452.00,0.0010
2451.00,0.0010
2450.00,0.0009
2449.00,0.0009
2448.00,0.0009
2447.00,0.0010
2446.00,0.0009
2445.00,0.0009
2444.00,0.0009
2443.00,0.0010
2442.00,0.0010
2441.00,0.0011
2440.00,0.0012
2439.00,0.0012
2438.00,0.0012
2437.00,0.0012
2436.00,0.0012
2435.00,0.0012
2434.00,0.0012
2433.00,0.0012
2432.00,0.0012
2431.00,0.0013
2430.00,0.0013
2429.00,0.0014
2428.00,0.0013
2427.00,0.0013
2426.00,0.0013
2425.00,0.0013
2424.00,0.0013
2423.00,0.0013
2422.00,0.0012
2421.00,0.0012
2420.00,0.0011
2419.00,0.0011
2418.00,0.0011
2417.00,0.0011
2416.00,0.0011
2415.00,0.0011
2414.00,0.0011
2413.00,0.0011
2412.00,0.0011
2411.00,0.0011
2410.00,0.0011
2409.00,0.0010
2408.00,0.0010
2407.00,0.0009
2406.00,0.0009
2405.00,0.0009
2404.00,0.0009
2403.00,0.0009
2402.00,0.0009
2401.00,0.0009
2400.00,0.0009
2399.00,0.0009
2398.00,0.0009
2397.00,0.0009
2396.00,0.0009
2395.00,0.0009
2394.00,0.0009
2393.00,0.0009
2392.00,0.0009
2391.00,0.0009
2390.00,0.0009
2389.00,0.0009
2388.00,0.0008
2387.00,0.0007
2386.00,0.0007
2385.00,0.0006
2384.00,0.0006
2383.00,0.0006
2382.00,0.0006
2381.00,0.0006
2380.00,0.0006
2379.00,0.0006
2378.00,0.0006
2377.00,0.0007
2376.00,0.0007
2375.00,0.0006
2374.00,0.0006
2373.00,0.0005
2372.00,0.0004
2371.00,0.0004
2370.00,0.0004
2369.00,0.0004
2368.00,0.0005
2367.00,0.0005
2366.00,0.0004
2365.00,0.0004
2364.00,0.0005
2363.00,0.0006
2362.00,0.0008
2361.00,0.0008
2360.00,0.0008
2359.00,0.0007
2358.00,0.0006
2357.00,0.0005
2356.00,0.0005
2355.00,0.0006
2354.00,0.0005
2353.00,0.0005
2352.00,0.0005
2351.00,0.0005
2350.00,0.0006
2349.00,0.0006
2348.00,0.0006
2347.00,0.0006
2346.00,0.0007
2345.00,0.0007
2344.00,0.0007
2343.00,0.0008
2342.00,0.0008
2341.00,0.0008
2340.00,0.0008
2339.00,0.0008
2338.00,0.0007
2337.00,0.0008
2336.00,0.0008
2335.00,0.0008
2334.00,0.0007
2333.00,0.0007
2332.00,0.0006
2331.00,0.0006
2330.00,0.0006
2329.00,0.0007
2328.00,0.0009
2327.00,0.0012
2326.00,0.0017
2325.00,0.0020
2324.00,0.0021
2323.00,0.0021
2322.00,0.0019
2321.00,0.0017
2320.00,0.0016
2319.00,0.0015
2318.00,0.0014
2317.00,0.0013
2316.00,0.0013
2315.00,0.0012
2314.00,0.0012
2313.00,0.0011
2312.00,0.0011
2311.00,0.0010
2310.00,0.0010
2309.00,0.0011
2308.00,0.0011
2307.00,0.0010
2306.00,0.0010
2305.00,0.0010
2304.00,0.0011
2303.00,0.0011
2302.00,0.0011
2301.00,0.0011
2300.00,0.0011
2299.00,0.0012
2298.00,0.0012
2297.00,0.0012
2296.00,0.0013
2295.00,0.0013
2294.00,0.0015
2293.00,0.0016
2292.00,0.0017
2291.00,0.0018
2290.00,0.0018
2289.00,0.0018
2288.00,0.0018
2287.00,0.0019
2286.00,0.0020
2285.00,0.0020
2284.00,0.0019
2283.00,0.0018
2282.00,0.0016
2281.00,0.0014
2280.00,0.0012
2279.00,0.0011
2278.00,0.0010
2277.00,0.0010
2276.00,0.0011
2275.00,0.0011
2274.00,0.0011
2273.00,0.0012
2272.00,0.0012
2271.00,0.0013
2270.00,0.0013
2269.00,0.0013
2268.00,0.0013
2267.00,0.0013
2266.00,0.0012
2265.00,0.0011
2264.00,0.0010
2263.00,0.0010
2262.00,0.0010
2261.00,0.0010
2260.00,0.0011
2259.00,0.0012
2258.00,0.0012
2257.00,0.0011
2256.00,0.0010
2255.00,0.0009
2254.00,0.0008
2253.00,0.0008
2252.00,0.0009
2251.00,0.0010
2250.00,0.0010
2249.00,0.0010
2248.00,0.0009
2247.00,0.0009
2246.00,0.0009
2245.00,0.0010
2244.00,0.0009
2243.00,0.0007
2242.00,0.0006
2241.00,0.0005
2240.00,0.0005
2239.00,0.0005
2238.00,0.0006
2237.00,0.0007
2236.00,0.0008
2235.00,0.0009
2234.00,0.0010
2233.00,0.0010
2232.00,0.0010
2231.00,0.0009
2230.00,0.0009
2229.00,0.0008
2228.00,0.0006
2227.00,0.0005
2226.00,0.0005
2225.00,0.0005
2224.00,0.0006
2223.00,0.0008
2222.00,0.0009
2221.00,0.0009
2220.00,0.0008
2219.00,0.0007
2218.00,0.0006
2217.00,0.0006
2216.00,0.0005
2215.00,0.0004
2214.00,0.0004
2213.00,0.0005
2212.00,0.0005
2211.00,0.0005
2210.00,0.0004
2209.00,0.0005
2208.00,0.0006
2207.00,0.0007
2206.00,0.0007
2205.00,0.0006
2204.00,0.0004
2203.00,0.0003
2202.00,0.0003
2201.00,0.0004
2200.00,0.0005
2199.00,0.0007
2198.00,0.0008
2197.00,0.0008
2196.00,0.0006
2195.00,0.0004
2194.00,0.0004
2193.00,0.0005
2192.00,0.0008
2191.00,0.0010
2190.00,0.0011
2189.00,0.0011
2188.00,0.0010
2187.00,0.0009
2186.00,0.0010
2185.00,0.0011
2184.00,0.0011
2183.00,0.0009
2182.00,0.0005
2181.00,0.0001
2180.00,-0.0001
2179.00,0.0000
2178.00,0.0003
2177.00,0.0005
2176.00,0.0004
2175.00,0.0001
2174.00,-0.0001
2173.00,-0.0000
2172.00,0.0002
2171.00,0.0005
2170.00,0.0008
2169.00,0.0011
2168.00,0.0014
2167.00,0.0015
2166.00,0.0015
2165.00,0.0017
2164.00,0.0019
2163.00,0.0021
2162.00,0.0020
2161.00,0.0014
2160.00,0.0001
2159.00,-0.0014
2158.00,-0.0025
2157.00,-0.0030
2156.00,-0.0031
2155.00,-0.0029
2154.00,-0.0025
2153.00,-0.0022
2152.00,-0.0018
2151.00,-0.0017
2150.00,-0.0017
2149.00,-0.0016
2148.00,-0.0015
2147.00,-0.0014
2146.00,-0.0012
2145.00,-0.0011
2144.00,-0.0010
2143.00,-0.0010
2142.00,-0.0009
2141.00,-0.0008
2140.00,-0.0007
2139.00,-0.0007
2138.00,-0.0008
2137.00,-0.0009
2136.00,-0.0012
2135.00,-0.0016
2134.00,-0.0019
2133.00,-0.0019
2132.00,-0.0017
2131.00,-0.0015
2130.00,-0.0013
2129.00,-0.0011
2128.00,-0.0009
2127.00,-0.0007
2126.00,-0.0005
2125.00,-0.0003
2124.00,-0.0002
2123.00,-0.0002
2122.00,-0.0003
2121.00,-0.0002
2120.00,-0.0001
2119.00,-0.0000
2118.00,0.0001
2117.00,0.0001
2116.00,0.0002
2115.00,0.0002
2114.00,0.0003
2113.00,0.0004
2112.00,0.0005
2111.00,0.0005
2110.00,0.0004
2109.00,0.0003
2108.00,0.0002
2107.00,0.0003
2106.00,0.0004
2105.00,0.0005
2104.00,0.0004
2103.00,0.0004
2102.00,0.0003
2101.00,0.0002
2100.00,0.0002
2099.00,0.0001
2098.00,-0.0000
2097.00,-0.0001
2096.00,-0.0002
2095.00,-0.0003
2094.00,-0.0003
2093.00,-0.0002
2092.00,-0.0001
2091.00,0.0001
2090.00,0.0002
2089.00,0.0003
2088.00,0.0003
2087.00,0.0002
2086.00,0.0002
2085.00,0.0002
2084.00,0.0002
2083.00,0.0002
2082.00,0.0002
2081.00,0.0003
2080.00,0.0004
2079.00,0.0004
2078.00,0.0002
2077.00,0.0001
2076.00,0.0001
2075.00,0.0002
2074.00,0.0004
2073.00,0.0004
2072.00,0.0004
2071.00,0.0003
2070.00,0.0002
2069.00,0.0002
2068.00,0.0001
2067.00,0.0002
2066.00,0.0003
2065.00,0.0003
2064.00,0.0003
2063.00,0.0001
2062.00,-0.0000
2061.00,-0.0002
2060.00,-0.0003
2059.00,-0.0003
2058.00,-0.0003
2057.00,-0.0003
2056.00,-0.0002
2055.00,-0.0001
2054.00,0.0001
2053.00,0.0004
2052.00,0.0008
2051.00,0.0010
2050.00,0.0008
2049.00,0.0005
2048.00,0.0003
2047.00,0.0002
2046.00,0.0002
2045.00,0.0003
2044.00,0.0004
2043.00,0.0004
2042.00,0.0003
2041.00,0.0000
2040.00,-0.0002
2039.00,-0.0003
2038.00,-0.0004
2037.00,-0.0004
2036.00,-0.0005
2035.00,-0.0004
2034.00,-0.0004
2033.00,-0.0004
2032.00,-0.0005
2031.00,-0.0007
2030.00,-0.0009
2029.00,-0.0009
2028.00,-0.0008
2027.00,-0.0005
2026.00,-0.0003
2025.00,-0.0002
2024.00,-0.0004
2023.00,-0.0008
2022.00,-0.0012
2021.00,-0.0014
2020.00,-0.0015
2019.00,-0.0015
2018.00,-0.0015
2017.00,-0.0013
2016.00,-0.0011
2015.00,-0.0010
2014.00,-0.0008
2013.00,-0.0007
2012.00,-0.0006
2011.00,-0.0005
2010.00,-0.0005
2009.00,-0.0005
2008.00,-0.0008
2007.00,-0.0011
2006.00,-0.0014
2005.00,-0.0014
2004.00,-0.0014
2003.00,-0.0015
2002.00,-0.0016
2001.00,-0.0016
2000.00,-0.0016
1999.00,-0.0016
1998.00,-0.0014
1997.00,-0.0014
1996.00,-0.0015
1995.00,-0.0016
1994.00,-0.0015
1993.00,-0.0012
1992.00,-0.0009
1991.00,-0.0007
1990.00,-0.0005
1989.00,-0.0003
1988.00,-0.0001
1987.00,-0.0000
1986.00,-0.0000
1985.00,0.0000
1984.00,0.0002
1983.00,0.0003
1982.00,0.0005
1981.00,0.0006
1980.00,0.0006
1979.00,0.0003
1978.00,-0.0002
1977.00,-0.0006
1976.00,-0.0010
1975.00,-0.0013
1974.00,-0.0016
1973.00,-0.0019
1972.00,-0.0022
1971.00,-0.0024
1970.00,-0.0024
1969.00,-0.0022
1968.00,-0.0018
1967.00,-0.0016
1966.00,-0.0016
1965.00,-0.0017
1964.00,-0.0018
1963.00,-0.0020
1962.00,-0.0021
1961.00,-0.0022
1960.00,-0.0023
1959.00,-0.0023
1958.00,-0.0022
1957.00,-0.0018
1956.00,-0.0014
1955.00,-0.0011
1954.00,-0.0010
1953.00,-0.0011
1952.00,-0.0013
1951.00,-0.0014
1950.00,-0.0014
1949.00,-0.0014
1948.00,-0.0013
1947.00,-0.0013
1946.00,-0.0014
1945.00,-0.0015
1944.00,-0.0016
1943.00,-0.0016
1942.00,-0.0015
1941.00,-0.0014
1940.00,-0.0013
1939.00,-0.0014
1938.00,-0.0013
1937.00,-0.0011
1936.00,-0.0009
1935.00,-0.0009
1934.00,-0.0010
1933.00,-0.0011
1932.00,-0.0011
1931.00,-0.0010
1930.00,-0.0009
1929.00,-0.0008
1928.00,-0.0008
1927.00,-0.0008
1926.00,-0.0008
1925.00,-0.0008
1924.00,-0.0008
1923.00,-0.0007
1922.00,-0.0005
1921.00,-0.0004
1920.00,-0.0002
1919.00,-0.0002
1918.00,-0.0002
1917.00,-0.0003
1916.00,-0.0002
1915.00,-0.0002
1914.00,-0.0002
1913.00,-0.0002
1912.00,-0.0003
1911.00,-0.0004
1910.00,-0.0004
1909.00,-0.0004
1908.00,-0.0003
1907.00,-0.0003
1906.00,-0.0003
1905.00,-0.0003
1904.00,-0.0002
1903.00,-0.0002
1902.00,-0.0002
1901.00,-0.0003
1900.00,-0.0004
1899.00,-0.0004
1898.00,-0.0003
1897.00,-0.0002
1896.00,-0.0001
1895.00,0.0000
1894.00,0.0001
1893.00,0.0001
1892.00,0.0001
1891.00,0.0001
1890.00,-0.0000
1889.00,-0.0001
1888.00,-0.0001
1887.00,-0.0001
1886.00,-0.0000
1885.00,0.0000
1884.00,0.0000
1883.00,-0.0000
1882.00,-0.0001
1881.00,-0.0002
1880.00,-0.0002
1879.00,-0.0002
1878.00,-0.0002
1877.00,-0.0001
1876.00,-0.0001
1875.00,-0.0001
1874.00,-0.0001
1873.00,-0.0001
1872.00,-0.0001
1871.00,-0.0000
1870.00,0.0000
1869.00,0.0000
1868.00,0.0001
1867.00,0.0000
1866.00,-0.0000
1865.00,-0.0000
1864.00,0.0000
1863.00,0.0001
1862.00,0.0001
1861.00,0.0002
1860.00,0.0002
1859.00,0.0001
1858.00,0.0001
1857.00,0.0001
1856.00,0.0001
1855.00,0.0000
1854.00,0.0000
1853.00,0.0001
1852.00,0.0002
1851.00,0.0002
1850.00,0.0003
1849.00,0.0003
1848.00,0.0002
1847.00,0.0002
1846.00,0.0002
1845.00,0.0002
1844.00,0.0002
1843.00,0.0002
1842.00,0.0002
1841.00,0.0002
1840.00,0.0001
1839.00,0.0001
1838.00,0.0001
1837.00,0.0002
1836.00,0.0003
1835.00,0.0003
1834.00,0.0003
1833.00,0.0003
1832.00,0.0003
1831.00,0.0003
1830.00,0.0004
1829.00,0.0004
1828.00,0.0003
1827.00,0.0003
1826.00,0.0003
1825.00,0.0003
1824.00,0.0003
1823.00,0.0003
1822.00,0.0003
1821.00,0.0003
1820.00,0.0003
1819.00,0.0002
1818.00,0.0000
1817.00,-0.0000
1816.00,-0.0000
1815.00,0.0000
1814.00,0.0001
1813.00,0.0001
1812.00,0.0002
1811.00,0.0002
1810.00,0.0003
1809.00,0.0003
1808.00,0.0004
1807.00,0.0004
1806.00,0.0004
1805.00,0.0004
1804.00,0.0004
1803.00,0.0004
1802.00,0.0004
1801.00,0.0004
1800.00,0.0005
1799.00,0.0004
1798.00,0.0004
1797.00,0.0004
1796.00,0.0004
1795.00,0.0005
1794.00,0.0005
1793.00,0.0005
1792.00,0.0006
1791.00,0.0007
1790.00,0.0008
1789.00,0.0008
1788.00,0.0009
1787.00,0.0009
1786.00,0.0009
1785.00,0.0008
1784.00,0.0008
1783.00,0.0008
1782.00,0.0008
1781.00,0.0008
1780.00,0.0009
1779.00,0.0009
1778.00,0.0009
1777.00,0.0008
1776.00,0.0008
1775.00,0.0008
1774.00,0.0008
1773.00,0.0008
1772.00,0.0009
1771.00,0.0009
1770.00,0.0009
1769.00,0.0009
1768.00,0.0010
1767.00,0.0010
1766.00,0.0011
1765.00,0.0012
1764.00,0.0012
1763.00,0.0012
1762.00,0.0012
1761.00,0.0012
1760.00,0.0012
1759.00,0.0012
1758.00,0.0012
1757.00,0.0013
1756.00,0.0014
1755.00,0.0014
1754.00,0.0015
1753.00,0.0015
1752.00,0.0016
1751.00,0.0017
1750.00,0.0018
1749.00,0.0019
1748.00,0.0021
1747.00,0.0022
1746.00,0.0023
1745.00,0.0023
1744.00,0.0024
1743.00,0.0025
1742.00,0.0025
1741.00,0.0026
1740.00,0.0027
1739.00,0.0028
1738.00,0.0028
1737.00,0.0029
1736.00,0.0030
1735.00,0.0030
1734.00,0.0030
1733.00,0.0029
1732.00,0.0029
1731.00,0.0028
1730.00,0.0028
1729.00,0.0028
1728.00,0.0028
1727.00,0.0028
1726.00,0.0028
1725.00,0.0028
1724.00,0.0028
1723.00,0.0028
1722.00,0.0027
1721.00,0.0026
1720.00,0.0025
1719.00,0.0024
1718.00,0.0024
1717.00,0.0024
1716.00,0.0024
1715.00,0.0024
1714.00,0.0025
1713.00,0.0025
1712.00,0.0026
1711.00,0.0026
1710.00,0.0026
1709.00,0.0026
1708.00,0.0026
1707.00,0.0026
1706.00,0.0025
1705.00,0.0026
1704.00,0.0026
1703.00,0.0027
1702.00,0.0027
1701.00,0.0027
1700.00,0.0027
1699.00,0.0027
1698.00,0.0027
1697.00,0.0027
1696.00,0.0028
1695.00,0.0030
1694.00,0.0031
1693.00,0.0032
1692.00,0.0032
1691.00,0.0032
1690.00,0.0032
1689.00,0.0033
1688.00,0.0034
1687.00,0.0034
1686.00,0.0034
1685.00,0.0034
1684.00,0.0035
1683.00,0.0036
1682.00,0.0037
1681.00,0.0038
1680.00,0.0039
1679.00,0.0040
1678.00,0.0041
1677.00,0.0042
1676.00,0.0043
1675.00,0.0044
1674.00,0.0045
1673.00,0.0045
1672.00,0.0045
1671.00,0.0045
1670.00,0.0046
1669.00,0.0047
1668.00,0.0048
1667.00,0.0049
1666.00,0.0049
1665.00,0.0050
1664.00,0.0050
1663.00,0.0051
1662.00,0.0051
1661.00,0.0052
1660.00,0.0052
1659.00,0.0053
1658.00,0.0053
1657.00,0.0054
1656.00,0.0055
1655.00,0.0056
1654.00,0.0056
1653.00,0.0057
1652.00,0.0057
1651.00,0.0058
1650.00,0.0058
1649.00,0.0059
1648.00,0.0060
1647.00,0.0061
1646.00,0.0062
1645.00,0.0062
1644.00,0.0062
1643.00,0.0062
1642.00,0.0062
1641.00,0.0062
1640.00,0.0063
1639.00,0.0063
1638.00,0.0062
1637.00,0.0062
1636.00,0.0062
1635.00,0.0062
1634.00,0.0062
1633.00,0.0062
1632.00,0.0062
1631.00,0.0062
1630.00,0.0062
1629.00,0.0062
1628.00,0.0062
1627.00,0.0062
1626.00,0.0061
1625.00,0.0061
1624.00,0.0061
1623.00,0.0060
1622.00,0.0059
1621.00,0.0059
1620.00,0.0059
1619.00,0.0059
1618.00,0.0059
1617.00,0.0059
1616.00,0.0059
1615.00,0.0060
1614.00,0.0059
1613.00,0.0059
1612.00,0.0059
1611.00,0.0059
1610.00,0.0059
1609.00,0.0058
1608.00,0.0058
1607.00,0.0058
1606.00,0.0058
1605.00,0.0058
1604.00,0.0058
1603.00,0.0058
1602.00,0.0058
1601.00,0.0059
1600.00,0.0059
1599.00,0.0059
1598.00,0.0059
1597.00,0.0059
1596.00,0.0059
1595.00,0.0059
1594.00,0.0059
1593.00,0.0059
1592.00,0.0059
1591.00,0.0059
1590.00,0.0059
1589.00,0.0059
1588.00,0.0060
1587.00,0.0061
1586.00,0.0062
1585.00,0.0063
1584.00,0.0065
1583.00,0.0066
1582.00,0.0068
1581.00,0.0069
1580.00,0.0071
1579.00,0.0073
1578.00,0.0074
1577.00,0.0073
1576.00,0.0073
1575.00,0.0072
1574.00,0.0071
1573.00,0.0071
1572.00,0.0071
1571.00,0.0070
1570.00,0.0068
1569.00,0.0067
1568.00,0.0066
1567.00,0.0065
1566.00,0.0065
1565.00,0.0064
1564.00,0.0064
1563.00,0.0064
1562.00,0.0064
1561.00,0.0065
1560.00,0.0067
1559.00,0.0068
1558.00,0.0068
1557.00,0.0068
1556.00,0.0068
1555.00,0.0069
1554.00,0.0069
1553.00,0.0070
1552.00,0.0071
1551.00,0.0071
1550.00,0.0072
1549.00,0.0073
1548.00,0.0075
1547.00,0.0076
1546.00,0.0078
1545.00,0.0081
1544.00,0.0083
1543.00,0.0084
1542.00,0.0084
1541.00,0.0083
1540.00,0.0080
1539.00,0.0077
1538.00,0.0074
1537.00,0.0073
1536.00,0.0072
1535.00,0.0070
1534.00,0.0067
1533.00,0.0064
1532.00,0.0062
1531.00,0.0060
1530.00,0.0059
1529.00,0.0059
1528.00,0.0058
1527.00,0.0057
1526.00,0.0057
1525.00,0.0057
1524.00,0.0058
1523.00,0.0057
1522.00,0.0057
1521.00,0.0056
1520.00,0.0056
1519.00,0.0057
1518.00,0.0057
1517.00,0.0058
1516.00,0.0058
1515.00,0.0058
1514.00,0.0059
1513.00,0.0059
1512.00,0.0061
1511.00,0.0061
1510.00,0.0062
1509.00,0.0063
1508.00,0.0064
1507.00,0.0064
1506.00,0.0063
1505.00,0.0065
1504.00,0.0067
1503.00,0.0068
1502.00,0.0070
1501.00,0.0071
1500.00,0.0074
1499.00,0.0075
1498.00,0.0077
1497.00,0.0080
1496.00,0.0084
1495.00,0.0087
1494.00,0.0090
1493.00,0.0093
1492.00,0.0097
1491.00,0.0100
1490.00,0.0104
1489.00,0.0109
1488.00,0.0114
1487.00,0.0119
1486.00,0.0124
1485.00,0.0131
1484.00,0.0138
1483.00,0.0146
1482.00,0.0155
1481.00,0.0165
1480.00,0.0177
1479.00,0.0189
1478.00,0.0204
1477.00,0.0223
1476.00,0.0246
1475.00,0.0271
1474.00,0.0306
1473.00,0.0357
1472.00,0.0420
1471.00,0.0481
1470.00,0.0540
1469.00,0.0601
1468.00,0.0668
1467.00,0.0742
1466.00,0.0828
1465.00,0.0921
1464.00,0.1005
1463.00,0.1065
1462.00,0.1108
1461.00,0.1141
1460.00,0.1167
1459.00,0.1190
1458.00,0.1213
1457.00,0.1236
1456.00,0.1250
1455.00,0.1253
1454.00,0.1252
1453.00,0.1245
1452.00,0.1227
1451.00,0.1195
1450.00,0.1146
1449.00,0.1072
1448.00,0.0974
1447.00,0.0868
1446.00,0.0772
1445.00,0.0689
1444.00,0.0618
1443.00,0.0560
1442.00,0.0517
1441.00,0.0486
1440.00,0.0468
1439.00,0.0458
1438.00,0.0455
1437.00,0.0452
1436.00,0.0438
1435.00,0.0410
1434.00,0.0373
1433.00,0.0328
1432.00,0.0282
1431.00,0.0241
1430.00,0.0210
1429.00,0.0187
1428.00,0.0172
1427.00,0.0164
1426.00,0.0158
1425.00,0.0153
1424.00,0.0147
1423.00,0.0144
1422.00,0.0142
1421.00,0.0140
1420.00,0.0137
1419.00,0.0134
1418.00,0.0132
1417.00,0.0129
1416.00,0.0126
1415.00,0.0125
1414.00,0.0124
1413.00,0.0122
1412.00,0.0120
1411.00,0.0120
1410.00,0.0120
1409.00,0.0119
1408.00,0.0119
1407.00,0.0119
1406.00,0.0119
1405.00,0.0119
1404.00,0.0118
1403.00,0.0119
1402.00,0.0121
1401.00,0.0122
1400.00,0.0123
1399.00,0.0124
1398.00,0.0127
1397.00,0.0129
1396.00,0.0131
1395.00,0.0135
1394.00,0.0141
1393.00,0.0146
1392.00,0.0153
1391.00,0.0161
1390.00,0.0173
1389.00,0.0190
1388.00,0.0214
1387.00,0.0251
1386.00,0.0300
1385.00,0.0362
1384.00,0.0444
1383.00,0.0555
1382.00,0.0699
1381.00,0.0880
1380.00,0.1100
1379.00,0.1345
1378.00,0.1579
1377.00,0.1749
1376.00,0.1807
1375.00,0.1723
1374.00,0.1518
1373.00,0.1267
1372.00,0.1033
1371.00,0.0838
1370.00,0.0679
1369.00,0.0556
1368.00,0.0470
1367.00,0.0416
1366.00,0.0386
1365.00,0.0375
1364.00,0.0377
1363.00,0.0391
1362.00,0.0412
1361.00,0.0433
1360.00,0.0449
1359.00,0.0453
1358.00,0.0441
1357.00,0.0415
1356.00,0.0379
1355.00,0.0339
1354.00,0.0299
1353.00,0.0265
1352.00,0.0238
1351.00,0.0216
1350.00,0.0198
1349.00,0.0183
1348.00,0.0172
1347.00,0.0162
1346.00,0.0154
1345.00,0.0148
1344.00,0.0143
1343.00,0.0139
1342.00,0.0136
1341.00,0.0134
1340.00,0.0131
1339.00,0.0129
1338.00,0.0127
1337.00,0.0126
1336.00,0.0127
1335.00,0.0129
1334.00,0.0132
1333.00,0.0136
1332.00,0.0140
1331.00,0.0144
1330.00,0.0146
1329.00,0.0144
1328.00,0.0141
1327.00,0.0136
1326.00,0.0130
1325.00,0.0123
1324.00,0.0117
1323.00,0.0112
1322.00,0.0108
1321.00,0.0105
1320.00,0.0103
1319.00,0.0100
1318.00,0.0098
1317.00,0.0097
1316.00,0.0096
1315.00,0.0095
1314.00,0.0094
1313.00,0.0095
1312.00,0.0096
1311.00,0.0099
1310.00,0.0105
1309.00,0.0114
1308.00,0.0125
1307.00,0.0140
1306.00,0.0154
1305.00,0.0164
1304.00,0.0168
1303.00,0.0164
1302.00,0.0157
1301.00,0.0150
1300.00,0.0144
1299.00,0.0141
1298.00,0.0139
1297.00,0.0137
1296.00,0.0135
1295.00,0.0132
1294.00,0.0128
1293.00,0.0122
1292.00,0.0117
1291.00,0.0112
1290.00,0.0108
1289.00,0.0104
1288.00,0.0101
1287.00,0.0098
1286.00,0.0096
1285.00,0.0094
1284.00,0.0092
1283.00,0.0091
1282.00,0.0089
1281.00,0.0087
1280.00,0.0086
1279.00,0.0084
1278.00,0.0084
1277.00,0.0083
1276.00,0.0083
1275.00,0.0083
1274.00,0.0083
1273.00,0.0083
1272.00,0.0084
1271.00,0.0084
1270.00,0.0085
1269.00,0.0086
1268.00,0.0087
1267.00,0.0089
1266.00,0.0091
1265.00,0.0093
1264.00,0.0096
1263.00,0.0099
1262.00,0.0104
1261.00,0.0110
1260.00,0.0118
1259.00,0.0128
1258.00,0.0138
1257.00,0.0147
1256.00,0.0151
1255.00,0.0149
1254.00,0.0142
1253.00,0.0132
1252.00,0.0122
1251.00,0.0113
1250.00,0.0107
1249.00,0.0102
1248.00,0.0099
1247.00,0.0097
1246.00,0.0095
1245.00,0.0093
1244.00,0.0092
1243.00,0.0091
1242.00,0.0091
1241.00,0.0090
1240.00,0.0090
1239.00,0.0089
1238.00,0.0089
1237.00,0.0088
1236.00,0.0088
1235.00,0.0088
1234.00,0.0087
1233.00,0.0087
1232.00,0.0086
1231.00,0.0086
1230.00,0.0087
1229.00,0.0088
1228.00,0.0088
1227.00,0.0089
1226.00,0.0090
1225.00,0.0092
1224.00,0.0095
1223.00,0.0098
1222.00,0.0102
1221.00,0.0104
1220.00,0.0106
1219.00,0.0107
1218.00,0.0107
1217.00,0.0105
1216.00,0.0103
1215.00,0.0100
1214.00,0.0098
1213.00,0.0095
1212.00,0.0093
1211.00,0.0091
1210.00,0.0089
1209.00,0.0087
1208.00,0.0085
1207.00,0.0084
1206.00,0.0083
1205.00,0.0083
1204.00,0.0083
1203.00,0.0084
1202.00,0.0084
1201.00,0.0084
1200.00,0.0084
1199.00,0.0084
1198.00,0.0084
1197.00,0.0084
1196.00,0.0083
1195.00,0.0082
1194.00,0.0082
1193.00,0.0082
1192.00,0.0083
1191.00,0.0084
1190.00,0.0085
1189.00,0.0086
1188.00,0.0087
1187.00,0.0089
1186.00,0.0092
1185.00,0.0094
1184.00,0.0095
1183.00,0.0097
1182.00,0.0099
1181.00,0.0102
1180.00,0.0106
1179.00,0.0112
1178.00,0.0119
1177.00,0.0129
1176.00,0.0143
1175.00,0.0162
1174.00,0.0188
1173.00,0.0221
1172.00,0.0260
1171.00,0.0303
1170.00,0.0344
1169.00,0.0378
1168.00,0.0400
1167.00,0.0407
1166.00,0.0399
1165.00,0.0380
1164.00,0.0355
1163.00,0.0329
1162.00,0.0304
1161.00,0.0284
1160.00,0.0266
1159.00,0.0253
1158.00,0.0242
1157.00,0.0234
1156.00,0.0229
1155.00,0.0224
1154.00,0.0220
1153.00,0.0215
1152.00,0.0209
1151.00,0.0201
1150.00,0.0192
1149.00,0.0182
1148.00,0.0172
1147.00,0.0163
1146.00,0.0154
1145.00,0.0147
1144.00,0.0139
1143.00,0.0132
1142.00,0.0126
1141.00,0.0120
1140.00,0.0114
1139.00,0.0109
1138.00,0.0105
1137.00,0.0101
1136.00,0.0099
1135.00,0.0097
1134.00,0.0096
1133.00,0.0095
1132.00,0.0094
1131.00,0.0094
1130.00,0.0095
1129.00,0.0095
1128.00,0.0095
1127.00,0.0096
1126.00,0.0096
1125.00,0.0096
1124.00,0.0097
1123.00,0.0097
1122.00,0.0098
1121.00,0.0098
1120.00,0.0098
1119.00,0.0099
1118.00,0.0099
1117.00,0.0100
1116.00,0.0102
1115.00,0.0103
1114.00,0.0105
1113.00,0.0106
1112.00,0.0107
1111.00,0.0109
1110.00,0.0113
1109.00,0.0117
1108.00,0.0122
1107.00,0.0129
1106.00,0.0135
1105.00,0.0141
1104.00,0.0145
1103.00,0.0148
1102.00,0.0149
1101.00,0.0147
1100.00,0.0143
1099.00,0.0138
1098.00,0.0131
1097.00,0.0125
1096.00,0.0119
1095.00,0.0114
1094.00,0.0110
1093.00,0.0107
1092.00,0.0105
1091.00,0.0103
1090.00,0.0101
1089.00,0.0099
1088.00,0.0097
1087.00,0.0095
1086.00,0.0094
1085.00,0.0093
1084.00,0.0093
1083.00,0.0093
1082.00,0.0092
1081.00,0.0091
1080.00,0.0090
1079.00,0.0089
1078.00,0.0088
1077.00,0.0087
1076.00,0.0087
1075.00,0.0087
1074.00,0.0087
1073.00,0.0088
1072.00,0.0089
1071.00,0.0090
1070.00,0.0090
1069.00,0.0090
1068.00,0.0090
1067.00,0.0090
1066.00,0.0091
1065.00,0.0091
1064.00,0.0092
1063.00,0.0092
1062.00,0.0092
1061.00,0.0093
1060.00,0.0094
1059.00,0.0094
1058.00,0.0095
1057.00,0.0095
1056.00,0.0095
1055.00,0.0096
1054.00,0.0098
1053.00,0.0099
1052.00,0.0101
1051.00,0.0103
1050.00,0.0106
1049.00,0.0109
1048.00,0.0114
1047.00,0.0117
1046.00,0.0120
1045.00,0.0121
1044.00,0.0119
1043.00,0.0116
1042.00,0.0112
1041.00,0.0108
1040.00,0.0106
1039.00,0.0105
1038.00,0.0105
1037.00,0.0105
1036.00,0.0105
1035.00,0.0104
1034.00,0.0103
1033.00,0.0102
1032.00,0.0102
1031.00,0.0101
1030.00,0.0101
1029.00,0.0101
1028.00,0.0100
1027.00,0.0099
1026.00,0.0098
1025.00,0.0098
1024.00,0.0098
1023.00,0.0098
1022.00,0.0097
1021.00,0.0096
1020.00,0.0096
1019.00,0.0098
1018.00,0.0101
1017.00,0.0104
1016.00,0.0107
1015.00,0.0110
1014.00,0.0113
1013.00,0.0117
1012.00,0.0121
1011.00,0.0125
1010.00,0.0129
1009.00,0.0133
1008.00,0.0140
1007.00,0.0149
1006.00,0.0160
1005.00,0.0176
1004.00,0.0196
1003.00,0.0224
1002.00,0.0261
1001.00,0.0307
1000.00,0.0358
999.00,0.0402
998.00,0.0427
997.00,0.0424
996.00,0.0394
995.00,0.0347
994.00,0.0294
993.00,0.0247
992.00,0.0210
991.00,0.0183
990.00,0.0164
989.00,0.0150
988.00,0.0141
987.00,0.0137
986.00,0.0137
985.00,0.0140
984.00,0.0146
983.00,0.0156
982.00,0.0170
981.00,0.0188
980.00,0.0212
979.00,0.0244
978.00,0.0285
977.00,0.0335
976.00,0.0392
975.00,0.0449
974.00,0.0494
973.00,0.0515
972.00,0.0504
971.00,0.0462
970.00,0.0399
969.00,0.0332
968.00,0.0273
967.00,0.0226
966.00,0.0191
965.00,0.0167
964.00,0.0149
963.00,0.0135
962.00,0.0124
961.00,0.0115
960.00,0.0109
959.00,0.0104
958.00,0.0100
957.00,0.0096
956.00,0.0092
955.00,0.0089
954.00,0.0087
953.00,0.0086
952.00,0.0085
951.00,0.0084
950.00,0.0084
949.00,0.0083
948.00,0.0083
947.00,0.0084
946.00,0.0086
945.00,0.0089
944.00,0.0092
943.00,0.0094
942.00,0.0096
941.00,0.0096
940.00,0.0095
939.00,0.0091
938.00,0.0087
937.00,0.0083
936.00,0.0079
935.00,0.0076
934.00,0.0073
933.00,0.0071
932.00,0.0069
931.00,0.0068
930.00,0.0068
929.00,0.0068
928.00,0.0068
927.00,0.0067
926.00,0.0066
925.00,0.0065
924.00,0.0064
923.00,0.0064
922.00,0.0065
921.00,0.0066
920.00,0.0067
919.00,0.0069
918.00,0.0070
917.00,0.0070
916.00,0.0071
915.00,0.0071
914.00,0.0072
913.00,0.0073
912.00,0.0073
911.00,0.0074
910.00,0.0076
909.00,0.0078
908.00,0.0080
907.00,0.0083
906.00,0.0089
905.00,0.0099
904.00,0.0113
903.00,0.0130
902.00,0.0150
901.00,0.0167
900.00,0.0179
899.00,0.0182
898.00,0.0176
897.00,0.0162
896.00,0.0145
895.00,0.0127
894.00,0.0112
893.00,0.0101
892.00,0.0093
891.00,0.0087
890.00,0.0084
889.00,0.0082
888.00,0.0081
887.00,0.0079
886.00,0.0077
885.00,0.0075
884.00,0.0073
883.00,0.0073
882.00,0.0074
881.00,0.0075
880.00,0.0075
879.00,0.0075
878.00,0.0075
877.00,0.0075
876.00,0.0075
875.00,0.0075
874.00,0.0076
873.00,0.0075
872.00,0.0074
871.00,0.0073
870.00,0.0073
869.00,0.0074
868.00,0.0075
867.00,0.0076
866.00,0.0077
865.00,0.0078
864.00,0.0080
863.00,0.0081
862.00,0.0082
861.00,0.0084
860.00,0.0086
859.00,0.0088
858.00,0.0090
857.00,0.0091
856.00,0.0091
855.00,0.0093
854.00,0.0095
853.00,0.0100
852.00,0.0105
851.00,0.0111
850.00,0.0119
849.00,0.0129
848.00,0.0143
847.00,0.0162
846.00,0.0192
845.00,0.0235
844.00,0.0294
843.00,0.0359
842.00,0.0411
841.00,0.0427
840.00,0.0401
839.00,0.0345
838.00,0.0282
837.00,0.0230
836.00,0.0194
835.00,0.0171
834.00,0.0155
833.00,0.0144
832.00,0.0136
831.00,0.0130
830.00,0.0126
829.00,0.0123
828.00,0.0119
827.00,0.0116
826.00,0.0114
825.00,0.0113
824.00,0.0113
823.00,0.0113
822.00,0.0112
821.00,0.0112
820.00,0.0112
819.00,0.0114
818.00,0.0117
817.00,0.0122
816.00,0.0129
815.00,0.0138
814.00,0.0150
813.00,0.0164
812.00,0.0178
811.00,0.0191
810.00,0.0201
809.00,0.0205
808.00,0.0202
807.00,0.0194
806.00,0.0182
805.00,0.0167
804.00,0.0153
803.00,0.0141
802.00,0.0131
801.00,0.0124
800.00,0.0116
799.00,0.0110
798.00,0.0105
797.00,0.0102
796.00,0.0100
795.00,0.0098
794.00,0.0094
793.00,0.0091
792.00,0.0088
791.00,0.0087
790.00,0.0086
789.00,0.0084
788.00,0.0081
787.00,0.0077
786.00,0.0073
785.00,0.0070
784.00,0.0068
783.00,0.0067
782.00,0.0066
781.00,0.0066
780.00,0.0066
779.00,0.0065
778.00,0.0064
777.00,0.0064
776.00,0.0064
775.00,0.0064
774.00,0.0065
773.00,0.0067
772.00,0.0071
771.00,0.0075
770.00,0.0079
769.00,0.0082
768.00,0.0084
767.00,0.0084
766.00,0.0083
765.00,0.0079
764.00,0.0076
763.00,0.0072
762.00,0.0070
761.00,0.0067
760.00,0.0065
759.00,0.0063
758.00,0.0063
757.00,0.0062
756.00,0.0061
755.00,0.0061
754.00,0.0061
753.00,0.0061
752.00,0.0060
751.00,0.0059
750.00,0.0058
749.00,0.0058
748.00,0.0057
747.00,0.0057
746.00,0.0057
745.00,0.0058
744.00,0.0060
743.00,0.0062
742.00,0.0065
741.00,0.0067
740.00,0.0069
739.00,0.0071
738.00,0.0074
737.00,0.0077
736.00,0.0080
735.00,0.0083
734.00,0.0085
733.00,0.0087
732.00,0.0088
731.00,0.0087
730.00,0.0085
729.00,0.0082
728.00,0.0080
727.00,0.0078
726.00,0.0078
725.00,0.0078
724.00,0.0077
723.00,0.0077
722.00,0.0076
721.00,0.0075
720.00,0.0072
719.00,0.0069
718.00,0.0066
717.00,0.0064
716.00,0.0062
715.00,0.0061
714.00,0.0062
713.00,0.0063
712.00,0.0063
711.00,0.0063
710.00,0.0062
709.00,0.0061
708.00,0.0061
707.00,0.0062
706.00,0.0064
705.00,0.0065
704.00,0.0065
703.00,0.0064
702.00,0.0063
701.00,0.0062
700.00,0.0061
699.00,0.0060
698.00,0.0060
697.00,0.0061
696.00,0.0062
695.00,0.0063
694.00,0.0063
693.00,0.0062
692.00,0.0060
691.00,0.0059
690.00,0.0058
689.00,0.0058
688.00,0.0058
687.00,0.0057
686.00,0.0057
685.00,0.0059
684.00,0.0060
683.00,0.0061
682.00,0.0061
681.00,0.0060
680.00,0.0059
679.00,0.0058
678.00,0.0057
677.00,0.0057
676.00,0.0058
675.00,0.0058
674.00,0.0059
673.00,0.0059
672.00,0.0060
671.00,0.0062
670.00,0.0064
669.00,0.0064
668.00,0.0063
667.00,0.0061
666.00,0.0060
665.00,0.0061
664.00,0.0063
663.00,0.0064
662.00,0.0064
661.00,0.0064
660.00,0.0063
659.00,0.0061
658.00,0.0059
657.00,0.0058
656.00,0.0057
655.00,0.0056
654.00,0.0056
653.00,0.0056
652.00,0.0057
651.00,0.0060
650.00,0.0064
649.00,0.0066
648.00,0.0067
647.00,0.0067
646.00,0.0066
645.00,0.0066
644.00,0.0064
643.00,0.0064
642.00,0.0064
641.00,0.0065
640.00,0.0065
639.00,0.0065
638.00,0.0064
637.00,0.0063
636.00,0.0064
635.00,0.0066
634.00,0.0068
633.00,0.0070
632.00,0.0071
631.00,0.0070
630.00,0.0068
629.00,0.0065
628.00,0.0064
627.00,0.0063
626.00,0.0064
625.00,0.0063
624.00,0.0063
623.00,0.0063
622.00,0.0065
621.00,0.0067
620.00,0.0068
619.00,0.0069
618.00,0.0069
617.00,0.0067
616.00,0.0065
615.00,0.0063
614.00,0.0062
613.00,0.0061
612.00,0.0061
611.00,0.0063
610.00,0.0065
609.00,0.0066
608.00,0.0064
607.00,0.0061
606.00,0.0061
605.00,0.0064
604.00,0.0067
603.00,0.0068
602.00,0.0065
601.00,0.0061
600.00,0.0057
599.00,0.0054
598.00,0.0055
597.00,0.0057
596.00,0.0060
595.00,0.0063
594.00,0.0064
593.00,0.0065
592.00,0.0066
591.00,0.0067
590.00,0.0068
589.00,0.0067
588.00,0.0064
587.00,0.0061
586.00,0.0061
585.00,0.0062
584.00,0.0064
583.00,0.0067
582.00,0.0071
581.00,0.0076
580.00,0.0078
579.00,0.0077
578.00,0.0073
577.00,0.0068
576.00,0.0064
575.00,0.0062
574.00,0.0061
573.00,0.0062
572.00,0.0063
571.00,0.0064
570.00,0.0066
569.00,0.0068
568.00,0.0069
567.00,0.0069
566.00,0.0067
565.00,0.0066
564.00,0.0067
563.00,0.0068
562.00,0.0068
561.00,0.0067
560.00,0.0066
559.00,0.0065
558.00,0.0066
557.00,0.0067
556.00,0.0069
555.00,0.0071
554.00,0.0071
553.00,0.0071
552.00,0.0072
551.00,0.0072
550.00,0.0073
549.00,0.0073
548.00,0.0072
547.00,0.0070
546.00,0.0072
545.00,0.0076
544.00,0.0080
543.00,0.0081
542.00,0.0076
541.00,0.0071
540.00,0.0071
539.00,0.0075
538.00,0.0081
537.00,0.0085
536.00,0.0087
535.00,0.0088
534.00,0.0089
533.00,0.0088
532.00,0.0088
531.00,0.0087
530.00,0.0087
529.00,0.0087
528.00,0.0087
527.00,0.0086
526.00,0.0084
525.00,0.0082
524.00,0.0082
523.00,0.0083
522.00,0.0085
521.00,0.0086
520.00,0.0086
519.00,0.0083
518.00,0.0077
517.00,0.0071
516.00,0.0070
515.00,0.0072
514.00,0.0074
513.00,0.0072
512.00,0.0070
511.00,0.0070
510.00,0.0074
509.00,0.0078
508.00,0.0079
507.00,0.0079
506.00,0.0076
505.00,0.0074
504.00,0.0072
503.00,0.0068
502.00,0.0063
501.00,0.0061
500.00,0.0062
499.00,0.0067
498.00,0.0070
497.00,0.0071
496.00,0.0072
495.00,0.0075
494.00,0.0079
493.00,0.0080
492.00,0.0079
491.00,0.0080
490.00,0.0081
489.00,0.0080
488.00,0.0074
487.00,0.0063
486.00,0.0054
485.00,0.0048
484.00,0.0049
483.00,0.0057
482.00,0.0066
481.00,0.0074
480.00,0.0078
479.00,0.0078
478.00,0.0073
477.00,0.0068
476.00,0.0069
475.00,0.0076
474.00,0.0085
473.00,0.0090
472.00,0.0088
471.00,0.0084
470.00,0.0085
469.00,0.0088
468.00,0.0091
467.00,0.0094
466.00,0.0096
465.00,0.0098
464.00,0.0103
463.00,0.0112
462.00,0.0127
461.00,0.0146
460.00,0.0162
459.00,0.0168
458.00,0.0160
457.00,0.0146
456.00,0.0134
455.00,0.0127
454.00,0.0120
453.00,0.0112
452.00,0.0106
451.00,0.0105
450.00,0.0104
