Created as New Dataset,Sample 183 By Administrator Date Wednesday, September 10 2025
cm-1,A
4000.00,0.0008
3999.00,0.0008
3998.00,0.0008
3997.00,0.0008
3996.00,0.0008
3995.00,0.0008
3994.00,0.0008
3993.00,0.0008
3992.00,0.0008
3991.00,0.0008
3990.00,0.0009
3989.00,0.0009
3988.00,0.0009
3987.00,0.0009
3986.00,0.0009
3985.00,0.0008
3984.00,0.0008
3983.00,0.0008
3982.00,0.0008
3981.00,0.0007
3980.00,0.0007
3979.00,0.0007
3978.00,0.0007
3977.00,0.0007
3976.00,0.0007
3975.00,0.0007
3974.00,0.0007
3973.00,0.0007
3972.00,0.0008
3971.00,0.0008
3970.00,0.0008
3969.00,0.0008
3968.00,0.0008
3967.00,0.0008
3966.00,0.0007
3965.00,0.0007
3964.00,0.0007
3963.00,0.0007
3962.00,0.0007
3961.00,0.0007
3960.00,0.0007
3959.00,0.0007
3958.00,0.0007
3957.00,0.0007
3956.00,0.0007
3955.00,0.0007
3954.00,0.0007
3953.00,0.0007
3952.00,0.0006
3951.00,0.0006
3950.00,0.0006
3949.00,0.0006
3948.00,0.0007
3947.00,0.0007
3946.00,0.0007
3945.00,0.0007
3944.00,0.0007
3943.00,0.0007
3942.00,0.0007
3941.00,0.0007
3940.00,0.0007
3939.00,0.0007
3938.00,0.0007
3937.00,0.0007
3936.00,0.0007
3935.00,0.0007
3934.00,0.0007
3933.00,0.0007
3932.00,0.0008
3931.00,0.0008
3930.00,0.0008
3929.00,0.0008
3928.00,0.0008
3927.00,0.0007
3926.00,0.0007
3925.00,0.0007
3924.00,0.0007
3923.00,0.0007
3922.00,0.0007
3921.00,0.0007
3920.00,0.0007
3919.00,0.0008
3918.00,0.0008
3917.00,0.0008
3916.00,0.0008
3915.00,0.0008
3914.00,0.0008
3913.00,0.0007
3912.00,0.0007
3911.00,0.0007
3910.00,0.0007
3909.00,0.0007
3908.00,0.0007
3907.00,0.0007
3906.00,0.0007
3905.00,0.0007
3904.00,0.0007
3903.00,0.0007
3902.00,0.0007
3901.00,0.0006
3900.00,0.0006
3899.00,0.0006
3898.00,0.0006
3897.00,0.0006
3896.00,0.0006
3895.00,0.0007
3894.00,0.0007
3893.00,0.0007
3892.00,0.0008
3891.00,0.0008
3890.00,0.0009
3889.00,0.0008
3888.00,0.0008
3887.00,0.0007
3886.00,0.0007
3885.00,0.0006
3884.00,0.0006
3883.00,0.0006
3882.00,0.0007
3881.00,0.0007
3880.00,0.0007
3879.00,0.0007
3878.00,0.0007
3877.00,0.0007
3876.00,0.0007
3875.00,0.0007
3874.00,0.0006
3873.00,0.0006
3872.00,0.0006
3871.00,0.0006
3870.00,0.0006
3869.00,0.0006
3868.00,0.0007
3867.00,0.0007
3866.00,0.0007
3865.00,0.0007
3864.00,0.0007
3863.00,0.0007
3862.00,0.0007
3861.00,0.0006
3860.00,0.0006
3859.00,0.0006
3858.00,0.0006
3857.00,0.0005
3856.00,0.0005
3855.00,0.0005
3854.00,0.0005
3853.00,0.0005
3852.00,0.0005
3851.00,0.0005
3850.00,0.0005
3849.00,0.0006
3848.00,0.0006
3847.00,0.0006
3846.00,0.0006
3845.00,0.0006
3844.00,0.0006
3843.00,0.0007
3842.00,0.0007
3841.00,0.0006
3840.00,0.0006
3839.00,0.0006
3838.00,0.0006
3837.00,0.0006
3836.00,0.0006
3835.00,0.0006
3834.00,0.0006
3833.00,0.0007
3832.00,0.0007
3831.00,0.0007
3830.00,0.0007
3829.00,0.0006
3828.00,0.0005
3827.00,0.0005
3826.00,0.0005
3825.00,0.0005
3824.00,0.0005
3823.00,0.0005
3822.00,0.0005
3821.00,0.0005
3820.00,0.0005
3819.00,0.0005
3818.00,0.0006
3817.00,0.0006
3816.00,0.0007
3815.00,0.0008
3814.00,0.0007
3813.00,0.0007
3812.00,0.0006
3811.00,0.0006
3810.00,0.0006
3809.00,0.0006
3808.00,0.0006
3807.00,0.0006
3806.00,0.0006
3805.00,0.0006
3804.00,0.0006
3803.00,0.0006
3802.00,0.0007
3801.00,0.0007
3800.00,0.0007
3799.00,0.0007
3798.00,0.0007
3797.00,0.0007
3796.00,0.0007
3795.00,0.0007
3794.00,0.0007
3793.00,0.0007
3792.00,0.0007
3791.00,0.0007
3790.00,0.0007
3789.00,0.0007
3788.00,0.0007
3787.00,0.0007
3786.00,0.0007
3785.00,0.0007
3784.00,0.0007
3783.00,0.0007
3782.00,0.0007
3781.00,0.0007
3780.00,0.0007
3779.00,0.0007
3778.00,0.0007
3777.00,0.0007
3776.00,0.0007
3775.00,0.0007
3774.00,0.0007
3773.00,0.0007
3772.00,0.0007
3771.00,0.0007
3770.00,0.0007
3769.00,0.0007
3768.00,0.0007
3767.00,0.0007
3766.00,0.0007
3765.00,0.0007
3764.00,0.0007
3763.00,0.0007
3762.00,0.0007
3761.00,0.0007
3760.00,0.0007
3759.00,0.0007
3758.00,0.0007
3757.00,0.0007
3756.00,0.0006
3755.00,0.0006
3754.00,0.0005
3753.00,0.0005
3752.00,0.0005
3751.00,0.0005
3750.00,0.0005
3749.00,0.0005
3748.00,0.0005
3747.00,0.0005
3746.00,0.0005
3745.00,0.0005
3744.00,0.0005
3743.00,0.0005
3742.00,0.0005
3741.00,0.0005
3740.00,0.0005
3739.00,0.0005
3738.00,0.0004
3737.00,0.0004
3736.00,0.0004
3735.00,0.0003
3734.00,0.0004
3733.00,0.0004
3732.00,0.0004
3731.00,0.0004
3730.00,0.0004
3729.00,0.0005
3728.00,0.0005
3727.00,0.0005
3726.00,0.0005
3725.00,0.0005
3724.00,0.0004
3723.00,0.0004
3722.00,0.0003
3721.00,0.0003
3720.00,0.0003
3719.00,0.0003
3718.00,0.0004
3717.00,0.0004
3716.00,0.0005
3715.00,0.0005
3714.00,0.0005
3713.00,0.0005
3712.00,0.0005
3711.00,0.0005
3710.00,0.0005
3709.00,0.0006
3708.00,0.0006
3707.00,0.0006
3706.00,0.0005
3705.00,0.0005
3704.00,0.0004
3703.00,0.0004
3702.00,0.0003
3701.00,0.0004
3700.00,0.0004
3699.00,0.0004
3698.00,0.0004
3697.00,0.0004
3696.00,0.0004
3695.00,0.0004
3694.00,0.0004
3693.00,0.0004
3692.00,0.0003
3691.00,0.0003
3690.00,0.0003
3689.00,0.0004
3688.00,0.0004
3687.00,0.0004
3686.00,0.0004
3685.00,0.0004
3684.00,0.0005
3683.00,0.0005
3682.00,0.0006
3681.00,0.0005
3680.00,0.0005
3679.00,0.0004
3678.00,0.0004
3677.00,0.0005
3676.00,0.0005
3675.00,0.0005
3674.00,0.0005
3673.00,0.0005
3672.00,0.0005
3671.00,0.0006
3670.00,0.0006
3669.00,0.0006
3668.00,0.0005
3667.00,0.0005
3666.00,0.0005
3665.00,0.0005
3664.00,0.0005
3663.00,0.0005
3662.00,0.0005
3661.00,0.0005
3660.00,0.0006
3659.00,0.0006
3658.00,0.0006
3657.00,0.0006
3656.00,0.0006
3655.00,0.0005
3654.00,0.0005
3653.00,0.0005
3652.00,0.0006
3651.00,0.0006
3650.00,0.0007
3649.00,0.0006
3648.00,0.0006
3647.00,0.0005
3646.00,0.0005
3645.00,0.0004
3644.00,0.0004
3643.00,0.0005
3642.00,0.0005
3641.00,0.0006
3640.00,0.0006
3639.00,0.0007
3638.00,0.0007
3637.00,0.0007
3636.00,0.0007
3635.00,0.0007
3634.00,0.0007
3633.00,0.0007
3632.00,0.0006
3631.00,0.0006
3630.00,0.0007
3629.00,0.0007
3628.00,0.0008
3627.00,0.0008
3626.00,0.0008
3625.00,0.0008
3624.00,0.0009
3623.00,0.0009
3622.00,0.0009
3621.00,0.0009
3620.00,0.0009
3619.00,0.0009
3618.00,0.0009
3617.00,0.0010
3616.00,0.0010
3615.00,0.0011
3614.00,0.0011
3613.00,0.0012
3612.00,0.0012
3611.00,0.0012
3610.00,0.0012
3609.00,0.0011
3608.00,0.0011
3607.00,0.0011
3606.00,0.0011
3605.00,0.0010
3604.00,0.0010
3603.00,0.0011
3602.00,0.0011
3601.00,0.0011
3600.00,0.0012
3599.00,0.0012
3598.00,0.0013
3597.00,0.0013
3596.00,0.0013
3595.00,0.0013
3594.00,0.0013
3593.00,0.0013
3592.00,0.0013
3591.00,0.0012
3590.00,0.0012
3589.00,0.0012
3588.00,0.0013
3587.00,0.0013
3586.00,0.0013
3585.00,0.0014
3584.00,0.0015
3583.00,0.0015
3582.00,0.0016
3581.00,0.0016
3580.00,0.0016
3579.00,0.0016
3578.00,0.0017
3577.00,0.0017
3576.00,0.0017
3575.00,0.0017
3574.00,0.0017
3573.00,0.0017
3572.00,0.0017
3571.00,0.0017
3570.00,0.0017
3569.00,0.0017
3568.00,0.0017
3567.00,0.0018
3566.00,0.0019
3565.00,0.0020
3564.00,0.0020
3563.00,0.0021
3562.00,0.0021
3561.00,0.0021
3560.00,0.0022
3559.00,0.0022
3558.00,0.0023
3557.00,0.0023
3556.00,0.0023
3555.00,0.0023
3554.00,0.0023
3553.00,0.0023
3552.00,0.0023
3551.00,0.0023
3550.00,0.0023
3549.00,0.0023
3548.00,0.0023
3547.00,0.0024
3546.00,0.0024
3545.00,0.0025
3544.00,0.0025
3543.00,0.0025
3542.00,0.0025
3541.00,0.0025
3540.00,0.0026
3539.00,0.0026
3538.00,0.0026
3537.00,0.0027
3536.00,0.0027
3535.00,0.0027
3534.00,0.0027
3533.00,0.0027
3532.00,0.0027
3531.00,0.0028
3530.00,0.0028
3529.00,0.0029
3528.00,0.0029
3527.00,0.0029
3526.00,0.0029
3525.00,0.0029
3524.00,0.0030
3523.00,0.0030
3522.00,0.0031
3521.00,0.0031
3520.00,0.0031
3519.00,0.0031
3518.00,0.0032
3517.00,0.0032
3516.00,0.0032
3515.00,0.0032
3514.00,0.0032
3513.00,0.0032
3512.00,0.0033
3511.00,0.0033
3510.00,0.0034
3509.00,0.0034
3508.00,0.0034
3507.00,0.0034
3506.00,0.0034
3505.00,0.0034
3504.00,0.0035
3503.00,0.0035
3502.00,0.0035
3501.00,0.0035
3500.00,0.0036
3499.00,0.0036
3498.00,0.0037
3497.00,0.0038
3496.00,0.0038
3495.00,0.0038
3494.00,0.0038
3493.00,0.0038
3492.00,0.0038
3491.00,0.0039
3490.00,0.0039
3489.00,0.0039
3488.00,0.0040
3487.00,0.0039
3486.00,0.0039
3485.00,0.0039
3484.00,0.0039
3483.00,0.0039
3482.00,0.0039
3481.00,0.0039
3480.00,0.0039
3479.00,0.0040
3478.00,0.0040
3477.00,0.0040
3476.00,0.0041
3475.00,0.0041
3474.00,0.0041
3473.00,0.0041
3472.00,0.0041
3471.00,0.0042
3470.00,0.0042
3469.00,0.0043
3468.00,0.0043
3467.00,0.0043
3466.00,0.0044
3465.00,0.0044
3464.00,0.0044
3463.00,0.0045
3462.00,0.0045
3461.00,0.0046
3460.00,0.0046
3459.00,0.0046
3458.00,0.0046
3457.00,0.0046
3456.00,0.0046
3455.00,0.0046
3454.00,0.0047
3453.00,0.0047
3452.00,0.0047
3451.00,0.0046
3450.00,0.0046
3449.00,0.0046
3448.00,0.0047
3447.00,0.0048
3446.00,0.0048
3445.00,0.0049
3444.00,0.0049
3443.00,0.0049
3442.00,0.0050
3441.00,0.0050
3440.00,0.0050
3439.00,0.0050
3438.00,0.0050
3437.00,0.0050
3436.00,0.0050
3435.00,0.0050
3434.00,0.0050
3433.00,0.0051
3432.00,0.0051
3431.00,0.0052
3430.00,0.0052
3429.00,0.0052
3428.00,0.0052
3427.00,0.0052
3426.00,0.0052
3425.00,0.0053
3424.00,0.0053
3423.00,0.0053
3422.00,0.0053
3421.00,0.0054
3420.00,0.0054
3419.00,0.0054
3418.00,0.0054
3417.00,0.0054
3416.00,0.0054
3415.00,0.0055
3414.00,0.0055
3413.00,0.0056
3412.00,0.0056
3411.00,0.0056
3410.00,0.0057
3409.00,0.0057
3408.00,0.0056
3407.00,0.0056
3406.00,0.0056
3405.00,0.0056
3404.00,0.0057
3403.00,0.0057
3402.00,0.0057
3401.00,0.0058
3400.00,0.0058
3399.00,0.0058
3398.00,0.0058
3397.00,0.0058
3396.00,0.0058
3395.00,0.0058
3394.00,0.0058
3393.00,0.0058
3392.00,0.0058
3391.00,0.0058
3390.00,0.0058
3389.00,0.0058
3388.00,0.0058
3387.00,0.0058
3386.00,0.0058
3385.00,0.0058
3384.00,0.0058
3383.00,0.0058
3382.00,0.0058
3381.00,0.0058
3380.00,0.0059
3379.00,0.0059
3378.00,0.0060
3377.00,0.0060
3376.00,0.0060
3375.00,0.0060
3374.00,0.0059
3373.00,0.0059
3372.00,0.0059
3371.00,0.0060
3370.00,0.0060
3369.00,0.0060
3368.00,0.0059
3367.00,0.0059
3366.00,0.0059
3365.00,0.0059
3364.00,0.0060
3363.00,0.0060
3362.00,0.0060
3361.00,0.0060
3360.00,0.0060
3359.00,0.0060
3358.00,0.0060
3357.00,0.0061
3356.00,0.0061
3355.00,0.0061
3354.00,0.0062
3353.00,0.0062
3352.00,0.0062
3351.00,0.0062
3350.00,0.0062
3349.00,0.0062
3348.00,0.0062
3347.00,0.0063
3346.00,0.0063
3345.00,0.0062
3344.00,0.0062
3343.00,0.0062
3342.00,0.0061
3341.00,0.0061
3340.00,0.0061
3339.00,0.0061
3338.00,0.0061
3337.00,0.0061
3336.00,0.0061
3335.00,0.0061
3334.00,0.0061
3333.00,0.0061
3332.00,0.0061
3331.00,0.0061
3330.00,0.0061
3329.00,0.0060
3328.00,0.0060
3327.00,0.0060
3326.00,0.0060
3325.00,0.0061
3324.00,0.0061
3323.00,0.0061
3322.00,0.0061
3321.00,0.0060
3320.00,0.0060
3319.00,0.0060
3318.00,0.0060
3317.00,0.0060
3316.00,0.0060
3315.00,0.0060
3314.00,0.0060
3313.00,0.0060
3312.00,0.0060
3311.00,0.0060
3310.00,0.0060
3309.00,0.0060
3308.00,0.0059
3307.00,0.0059
3306.00,0.0059
3305.00,0.0059
3304.00,0.0058
3303.00,0.0058
3302.00,0.0058
3301.00,0.0058
3300.00,0.0059
3299.00,0.0059
3298.00,0.0059
3297.00,0.0058
3296.00,0.0058
3295.00,0.0058
3294.00,0.0058
3293.00,0.0058
3292.00,0.0057
3291.00,0.0057
3290.00,0.0057
3289.00,0.0057
3288.00,0.0057
3287.00,0.0056
3286.00,0.0056
3285.00,0.0056
3284.00,0.0056
3283.00,0.0056
3282.00,0.0056
3281.00,0.0055
3280.00,0.0055
3279.00,0.0054
3278.00,0.0054
3277.00,0.0054
3276.00,0.0054
3275.00,0.0054
3274.00,0.0054
3273.00,0.0054
3272.00,0.0054
3271.00,0.0054
3270.00,0.0054
3269.00,0.0054
3268.00,0.0054
3267.00,0.0053
3266.00,0.0053
3265.00,0.0053
3264.00,0.0053
3263.00,0.0052
3262.00,0.0052
3261.00,0.0052
3260.00,0.0051
3259.00,0.0051
3258.00,0.0051
3257.00,0.0051
3256.00,0.0051
3255.00,0.0051
3254.00,0.0050
3253.00,0.0050
3252.00,0.0050
3251.00,0.0050
3250.00,0.0049
3249.00,0.0049
3248.00,0.0049
3247.00,0.0048
3246.00,0.0048
3245.00,0.0048
3244.00,0.0048
3243.00,0.0049
3242.00,0.0049
3241.00,0.0050
3240.00,0.0050
3239.00,0.0050
3238.00,0.0049
3237.00,0.0049
3236.00,0.0049
3235.00,0.0049
3234.00,0.0049
3233.00,0.0049
3232.00,0.0049
3231.00,0.0050
3230.00,0.0050
3229.00,0.0050
3228.00,0.0050
3227.00,0.0050
3226.00,0.0050
3225.00,0.0050
3224.00,0.0050
3223.00,0.0050
3222.00,0.0050
3221.00,0.0050
3220.00,0.0051
3219.00,0.0051
3218.00,0.0051
3217.00,0.0051
3216.00,0.0051
3215.00,0.0052
3214.00,0.0052
3213.00,0.0052
3212.00,0.0052
3211.00,0.0053
3210.00,0.0053
3209.00,0.0053
3208.00,0.0053
3207.00,0.0053
3206.00,0.0053
3205.00,0.0053
3204.00,0.0053
3203.00,0.0053
3202.00,0.0053
3201.00,0.0053
3200.00,0.0053
3199.00,0.0053
3198.00,0.0053
3197.00,0.0053
3196.00,0.0053
3195.00,0.0053
3194.00,0.0053
3193.00,0.0053
3192.00,0.0053
3191.00,0.0053
3190.00,0.0054
3189.00,0.0054
3188.00,0.0053
3187.00,0.0053
3186.00,0.0052
3185.00,0.0052
3184.00,0.0051
3183.00,0.0051
3182.00,0.0050
3181.00,0.0050
3180.00,0.0050
3179.00,0.0050
3178.00,0.0050
3177.00,0.0050
3176.00,0.0050
3175.00,0.0049
3174.00,0.0049
3173.00,0.0049
3172.00,0.0048
3171.00,0.0048
3170.00,0.0048
3169.00,0.0048
3168.00,0.0047
3167.00,0.0047
3166.00,0.0047
3165.00,0.0046
3164.00,0.0046
3163.00,0.0046
3162.00,0.0046
3161.00,0.0046
3160.00,0.0046
3159.00,0.0046
3158.00,0.0046
3157.00,0.0046
3156.00,0.0046
3155.00,0.0046
3154.00,0.0046
3153.00,0.0046
3152.00,0.0046
3151.00,0.0045
3150.00,0.0044
3149.00,0.0044
3148.00,0.0044
3147.00,0.0044
3146.00,0.0045
3145.00,0.0045
3144.00,0.0045
3143.00,0.0044
3142.00,0.0044
3141.00,0.0043
3140.00,0.0043
3139.00,0.0043
3138.00,0.0043
3137.00,0.0042
3136.00,0.0042
3135.00,0.0042
3134.00,0.0043
3133.00,0.0043
3132.00,0.0042
3131.00,0.0042
3130.00,0.0042
3129.00,0.0042
3128.00,0.0041
3127.00,0.0041
3126.00,0.0040
3125.00,0.0039
3124.00,0.0038
3123.00,0.0038
3122.00,0.0037
3121.00,0.0037
3120.00,0.0038
3119.00,0.0037
3118.00,0.0037
3117.00,0.0037
3116.00,0.0036
3115.00,0.0036
3114.00,0.0036
3113.00,0.0037
3112.00,0.0037
3111.00,0.0037
3110.00,0.0036
3109.00,0.0036
3108.00,0.0036
3107.00,0.0036
3106.00,0.0036
3105.00,0.0035
3104.00,0.0035
3103.00,0.0035
3102.00,0.0034
3101.00,0.0034
3100.00,0.0034
3099.00,0.0034
3098.00,0.0034
3097.00,0.0034
3096.00,0.0034
3095.00,0.0034
3094.00,0.0034
3093.00,0.0033
3092.00,0.0033
3091.00,0.0033
3090.00,0.0033
3089.00,0.0033
3088.00,0.0033
3087.00,0.0033
3086.00,0.0033
3085.00,0.0033
3084.00,0.0032
3083.00,0.0032
3082.00,0.0032
3081.00,0.0031
3080.00,0.0031
3079.00,0.0031
3078.00,0.0032
3077.00,0.0032
3076.00,0.0032
3075.00,0.0032
3074.00,0.0033
3073.00,0.0033
3072.00,0.0033
3071.00,0.0033
3070.00,0.0033
3069.00,0.0033
3068.00,0.0033
3067.00,0.0033
3066.00,0.0033
3065.00,0.0034
3064.00,0.0034
3063.00,0.0035
3062.00,0.0035
3061.00,0.0035
3060.00,0.0035
3059.00,0.0034
3058.00,0.0034
3057.00,0.0034
3056.00,0.0034
3055.00,0.0034
3054.00,0.0035
3053.00,0.0035
3052.00,0.0035
3051.00,0.0035
3050.00,0.0035
3049.00,0.0035
3048.00,0.0035
3047.00,0.0035
3046.00,0.0035
3045.00,0.0036
3044.00,0.0036
3043.00,0.0036
3042.00,0.0037
3041.00,0.0038
3040.00,0.0038
3039.00,0.0038
3038.00,0.0038
3037.00,0.0038
3036.00,0.0038
3035.00,0.0039
3034.00,0.0039
3033.00,0.0039
3032.00,0.0039
3031.00,0.0039
3030.00,0.0040
3029.00,0.0041
3028.00,0.0042
3027.00,0.0043
3026.00,0.0043
3025.00,0.0044
3024.00,0.0044
3023.00,0.0044
3022.00,0.0045
3021.00,0.0046
3020.00,0.0046
3019.00,0.0047
3018.00,0.0048
3017.00,0.0049
3016.00,0.0050
3015.00,0.0051
3014.00,0.0052
3013.00,0.0053
3012.00,0.0054
3011.00,0.0056
3010.00,0.0058
3009.00,0.0059
3008.00,0.0061
3007.00,0.0062
3006.00,0.0064
3005.00,0.0065
3004.00,0.0067
3003.00,0.0069
3002.00,0.0071
3001.00,0.0074
3000.00,0.0077
2999.00,0.0080
2998.00,0.0083
2997.00,0.0086
2996.00,0.0089
2995.00,0.0093
2994.00,0.0098
2993.00,0.0103
2992.00,0.0109
2991.00,0.0116
2990.00,0.0123
2989.00,0.0130
2988.00,0.0138
2987.00,0.0148
2986.00,0.0158
2985.00,0.0169
2984.00,0.0181
2983.00,0.0196
2982.00,0.0212
2981.00,0.0230
2980.00,0.0251
2979.00,0.0275
2978.00,0.0302
2977.00,0.0334
2976.00,0.0369
2975.00,0.0409
2974.00,0.0455
2973.00,0.0507
2972.00,0.0565
2971.00,0.0632
2970.00,0.0706
2969.00,0.0788
2968.00,0.0879
2967.00,0.0977
2966.00,0.1083
2965.00,0.1194
2964.00,0.1307
2963.00,0.1417
2962.00,0.1520
2961.00,0.1609
2960.00,0.1681
2959.00,0.1736
2958.00,0.1776
2957.00,0.1806
2956.00,0.1833
2955.00,0.1861
2954.00,0.1894
2953.00,0.1929
2952.00,0.1961
2951.00,0.1979
2950.00,0.1976
2949.00,0.1943
2948.00,0.1876
2947.00,0.1779
2946.00,0.1660
2945.00,0.1530
2944.00,0.1403
2943.00,0.1289
2942.00,0.1197
2941.00,0.1130
2940.00,0.1087
2939.00,0.1067
2938.00,0.1067
2937.00,0.1086
2936.00,0.1122
2935.00,0.1173
2934.00,0.1237
2933.00,0.1314
2932.00,0.1399
2931.00,0.1492
2930.00,0.1590
2929.00,0.1689
2928.00,0.1787
2927.00,0.1881
2926.00,0.1969
2925.00,0.2052
2924.00,0.2131
2923.00,0.2207
2922.00,0.2282
2921.00,0.2352
2920.00,0.2414
2919.00,0.2462
2918.00,0.2489
2917.00,0.2490
2916.00,0.2462
2915.00,0.2409
2914.00,0.2339
2913.00,0.2259
2912.00,0.2178
2911.00,0.2102
2910.00,0.2032
2909.00,0.1970
2908.00,0.1911
2907.00,0.1854
2906.00,0.1796
2905.00,0.1735
2904.00,0.1671
2903.00,0.1604
2902.00,0.1537
2901.00,0.1469
2900.00,0.1403
2899.00,0.1340
2898.00,0.1281
2897.00,0.1227
2896.00,0.1179
2895.00,0.1138
2894.00,0.1104
2893.00,0.1077
2892.00,0.1057
2891.00,0.1043
2890.00,0.1034
2889.00,0.1030
2888.00,0.1030
2887.00,0.1033
2886.00,0.1040
2885.00,0.1050
2884.00,0.1064
2883.00,0.1082
2882.00,0.1103
2881.00,0.1127
2880.00,0.1149
2879.00,0.1168
2878.00,0.1179
2877.00,0.1182
2876.00,0.1178
2875.00,0.1171
2874.00,0.1164
2873.00,0.1162
2872.00,0.1167
2871.00,0.1179
2870.00,0.1196
2869.00,0.1213
2868.00,0.1223
2867.00,0.1219
2866.00,0.1193
2865.00,0.1143
2864.00,0.1074
2863.00,0.0992
2862.00,0.0907
2861.00,0.0828
2860.00,0.0762
2859.00,0.0709
2858.00,0.0670
2857.00,0.0642
2856.00,0.0625
2855.00,0.0615
2854.00,0.0613
2853.00,0.0618
2852.00,0.0629
2851.00,0.0646
2850.00,0.0668
2849.00,0.0695
2848.00,0.0727
2847.00,0.0767
2846.00,0.0815
2845.00,0.0871
2844.00,0.0937
2843.00,0.1008
2842.00,0.1082
2841.00,0.1152
2840.00,0.1210
2839.00,0.1247
2838.00,0.1255
2837.00,0.1227
2836.00,0.1166
2835.00,0.1076
2834.00,0.0968
2833.00,0.0855
2832.00,0.0747
2831.00,0.0651
2830.00,0.0570
2829.00,0.0503
2828.00,0.0449
2827.00,0.0406
2826.00,0.0371
2825.00,0.0342
2824.00,0.0318
2823.00,0.0297
2822.00,0.0279
2821.00,0.0263
2820.00,0.0249
2819.00,0.0237
2818.00,0.0227
2817.00,0.0219
2816.00,0.0211
2815.00,0.0204
2814.00,0.0198
2813.00,0.0193
2812.00,0.0187
2811.00,0.0182
2810.00,0.0177
2809.00,0.0172
2808.00,0.0166
2807.00,0.0160
2806.00,0.0153
2805.00,0.0147
2804.00,0.0141
2803.00,0.0135
2802.00,0.0130
2801.00,0.0125
2800.00,0.0121
2799.00,0.0118
2798.00,0.0116
2797.00,0.0114
2796.00,0.0111
2795.00,0.0109
2794.00,0.0106
2793.00,0.0102
2792.00,0.0099
2791.00,0.0095
2790.00,0.0092
2789.00,0.0088
2788.00,0.0085
2787.00,0.0083
2786.00,0.0080
2785.00,0.0077
2784.00,0.0075
2783.00,0.0072
2782.00,0.0070
2781.00,0.0068
2780.00,0.0066
2779.00,0.0065
2778.00,0.0064
2777.00,0.0062
2776.00,0.0060
2775.00,0.0059
2774.00,0.0058
2773.00,0.0057
2772.00,0.0057
2771.00,0.0056
2770.00,0.0056
2769.00,0.0056
2768.00,0.0056
2767.00,0.0055
2766.00,0.0055
2765.00,0.0054
2764.00,0.0054
2763.00,0.0054
2762.00,0.0054
2761.00,0.0053
2760.00,0.0053
2759.00,0.0052
2758.00,0.0052
2757.00,0.0051
2756.00,0.0052
2755.00,0.0052
2754.00,0.0052
2753.00,0.0052
2752.00,0.0052
2751.00,0.0052
2750.00,0.0051
2749.00,0.0051
2748.00,0.0052
2747.00,0.0052
2746.00,0.0052
2745.00,0.0053
2744.00,0.0053
2743.00,0.0054
2742.00,0.0055
2741.00,0.0056
2740.00,0.0057
2739.00,0.0059
2738.00,0.0060
2737.00,0.0062
2736.00,0.0063
2735.00,0.0065
2734.00,0.0066
2733.00,0.0067
2732.00,0.0069
2731.00,0.0071
2730.00,0.0073
2729.00,0.0075
2728.00,0.0078
2727.00,0.0080
2726.00,0.0083
2725.00,0.0085
2724.00,0.0087
2723.00,0.0088
2722.00,0.0087
2721.00,0.0085
2720.00,0.0083
2719.00,0.0080
2718.00,0.0076
2717.00,0.0073
2716.00,0.0071
2715.00,0.0068
2714.00,0.0065
2713.00,0.0063
2712.00,0.0060
2711.00,0.0058
2710.00,0.0057
2709.00,0.0055
2708.00,0.0054
2707.00,0.0053
2706.00,0.0052
2705.00,0.0051
2704.00,0.0050
2703.00,0.0049
2702.00,0.0048
2701.00,0.0048
2700.00,0.0047
2699.00,0.0046
2698.00,0.0046
2697.00,0.0046
2696.00,0.0045
2695.00,0.0045
2694.00,0.0045
2693.00,0.0045
2692.00,0.0045
2691.00,0.0044
2690.00,0.0044
2689.00,0.0044
2688.00,0.0044
2687.00,0.0044
2686.00,0.0044
2685.00,0.0044
2684.00,0.0045
2683.00,0.0045
2682.00,0.0045
2681.00,0.0045
2680.00,0.0045
2679.00,0.0046
2678.00,0.0046
2677.00,0.0046
2676.00,0.0045
2675.00,0.0045
2674.00,0.0045
2673.00,0.0045
2672.00,0.0044
2671.00,0.0044
2670.00,0.0044
2669.00,0.0044
2668.00,0.0044
2667.00,0.0045
2666.00,0.0045
2665.00,0.0045
2664.00,0.0046
2663.00,0.0046
2662.00,0.0047
2661.00,0.0047
2660.00,0.0048
2659.00,0.0048
2658.00,0.0048
2657.00,0.0047
2656.00,0.0047
2655.00,0.0046
2654.00,0.0046
2653.00,0.0045
2652.00,0.0045
2651.00,0.0044
2650.00,0.0044
2649.00,0.0043
2648.00,0.0043
2647.00,0.0042
2646.00,0.0041
2645.00,0.0041
2644.00,0.0041
2643.00,0.0041
2642.00,0.0040
2641.00,0.0040
2640.00,0.0040
2639.00,0.0039
2638.00,0.0038
2637.00,0.0038
2636.00,0.0038
2635.00,0.0038
2634.00,0.0038
2633.00,0.0038
2632.00,0.0038
2631.00,0.0038
2630.00,0.0038
2629.00,0.0037
2628.00,0.0038
2627.00,0.0038
2626.00,0.0038
2625.00,0.0039
2624.00,0.0039
2623.00,0.0039
2622.00,0.0040
2621.00,0.0040
2620.00,0.0040
2619.00,0.0040
2618.00,0.0040
2617.00,0.0039
2616.00,0.0039
2615.00,0.0039
2614.00,0.0039
2613.00,0.0038
2612.00,0.0038
2611.00,0.0038
2610.00,0.0037
2609.00,0.0036
2608.00,0.0035
2607.00,0.0035
2606.00,0.0034
2605.00,0.0034
2604.00,0.0033
2603.00,0.0032
2602.00,0.0031
2601.00,0.0031
2600.00,0.0031
2599.00,0.0031
2598.00,0.0031
2597.00,0.0031
2596.00,0.0032
2595.00,0.0032
2594.00,0.0032
2593.00,0.0032
2592.00,0.0033
2591.00,0.0034
2590.00,0.0034
2589.00,0.0035
2588.00,0.0036
2587.00,0.0036
2586.00,0.0037
2585.00,0.0038
2584.00,0.0038
2583.00,0.0039
2582.00,0.0038
2581.00,0.0038
2580.00,0.0037
2579.00,0.0036
2578.00,0.0035
2577.00,0.0034
2576.00,0.0034
2575.00,0.0033
2574.00,0.0032
2573.00,0.0032
2572.00,0.0031
2571.00,0.0030
2570.00,0.0029
2569.00,0.0028
2568.00,0.0027
2567.00,0.0026
2566.00,0.0025
2565.00,0.0025
2564.00,0.0025
2563.00,0.0025
2562.00,0.0024
2561.00,0.0024
2560.00,0.0024
2559.00,0.0023
2558.00,0.0023
2557.00,0.0022
2556.00,0.0023
2555.00,0.0023
2554.00,0.0023
2553.00,0.0022
2552.00,0.0022
2551.00,0.0021
2550.00,0.0021
2549.00,0.0020
2548.00,0.0020
2547.00,0.0020
2546.00,0.0019
2545.00,0.0019
2544.00,0.0018
2543.00,0.0018
2542.00,0.0017
2541.00,0.0017
2540.00,0.0017
2539.00,0.0017
2538.00,0.0017
2537.00,0.0017
2536.00,0.0016
2535.00,0.0016
2534.00,0.0016
2533.00,0.0016
2532.00,0.0016
2531.00,0.0017
2530.00,0.0017
2529.00,0.0017
2528.00,0.0017
2527.00,0.0016
2526.00,0.0016
2525.00,0.0015
2524.00,0.0015
2523.00,0.0015
2522.00,0.0015
2521.00,0.0014
2520.00,0.0014
2519.00,0.0014
2518.00,0.0013
2517.00,0.0013
2516.00,0.0013
2515.00,0.0012
2514.00,0.0011
2513.00,0.0011
2512.00,0.0011
2511.00,0.0010
2510.00,0.0011
2509.00,0.0011
2508.00,0.0011
2507.00,0.0010
2506.00,0.0010
2505.00,0.0010
2504.00,0.0011
2503.00,0.0011
2502.00,0.0012
2501.00,0.0012
2500.00,0.0012
2499.00,0.0012
2498.00,0.0012
2497.00,0.0012
2496.00,0.0012
2495.00,0.0012
2494.00,0.0012
2493.00,0.0012
2492.00,0.0012
2491.00,0.0011
2490.00,0.0011
2489.00,0.0011
2488.00,0.0011
2487.00,0.0011
2486.00,0.0011
2485.00,0.0011
2484.00,0.0011
2483.00,0.0011
2482.00,0.0011
2481.00,0.0010
2480.00,0.0009
2479.00,0.0009
2478.00,0.0008
2477.00,0.0008
2476.00,0.0009
2475.00,0.0009
2474.00,0.0009
2473.00,0.0009
2472.00,0.0010
2471.00,0.0010
2470.00,0.0011
2469.00,0.0010
2468.00,0.0010
2467.00,0.0009
2466.00,0.0009
2465.00,0.0010
2464.00,0.0010
2463.00,0.0010
2462.00,0.0010
2461.00,0.0010
2460.00,0.0009
2459.00,0.0009
2458.00,0.0010
2457.00,0.0010
2456.00,0.0011
2455.00,0.0011
2454.00,0.0011
2453.00,0.0011
2452.00,0.0012
2451.00,0.0012
2450.00,0.0012
2449.00,0.0012
2448.00,0.0011
2447.00,0.0011
2446.00,0.0011
2445.00,0.0011
2444.00,0.0011
2443.00,0.0012
2442.00,0.0012
2441.00,0.0012
2440.00,0.0011
2439.00,0.0011
2438.00,0.0011
2437.00,0.0011
2436.00,0.0011
2435.00,0.0011
2434.00,0.0012
2433.00,0.0013
2432.00,0.0013
2431.00,0.0013
2430.00,0.0013
2429.00,0.0013
2428.00,0.0013
2427.00,0.0013
2426.00,0.0012
2425.00,0.0012
2424.00,0.0012
2423.00,0.0012
2422.00,0.0012
2421.00,0.0011
2420.00,0.0010
2419.00,0.0010
2418.00,0.0009
2417.00,0.0009
2416.00,0.0009
2415.00,0.0009
2414.00,0.0010
2413.00,0.0011
2412.00,0.0012
2411.00,0.0012
2410.00,0.0012
2409.00,0.0012
2408.00,0.0011
2407.00,0.0011
2406.00,0.0010
2405.00,0.0009
2404.00,0.0009
2403.00,0.0009
2402.00,0.0009
2401.00,0.0009
2400.00,0.0010
2399.00,0.0010
2398.00,0.0010
2397.00,0.0010
2396.00,0.0010
2395.00,0.0009
2394.00,0.0008
2393.00,0.0008
2392.00,0.0008
2391.00,0.0008
2390.00,0.0007
2389.00,0.0007
2388.00,0.0007
2387.00,0.0006
2386.00,0.0006
2385.00,0.0006
2384.00,0.0005
2383.00,0.0004
2382.00,0.0003
2381.00,0.0002
2380.00,0.0001
2379.00,-0.0000
2378.00,-0.0001
2377.00,-0.0000
2376.00,0.0000
2375.00,0.0001
2374.00,0.0002
2373.00,0.0002
2372.00,0.0002
2371.00,0.0002
2370.00,0.0001
2369.00,0.0001
2368.00,0.0000
2367.00,-0.0000
2366.00,-0.0001
2365.00,-0.0001
2364.00,0.0000
2363.00,0.0002
2362.00,0.0003
2361.00,0.0004
2360.00,0.0004
2359.00,0.0004
2358.00,0.0002
2357.00,0.0001
2356.00,0.0001
2355.00,0.0001
2354.00,0.0001
2353.00,-0.0000
2352.00,-0.0000
2351.00,-0.0000
2350.00,0.0001
2349.00,0.0002
2348.00,0.0003
2347.00,0.0003
2346.00,0.0002
2345.00,0.0003
2344.00,0.0003
2343.00,0.0004
2342.00,0.0004
2341.00,0.0004
2340.00,0.0003
2339.00,0.0003
2338.00,0.0004
2337.00,0.0004
2336.00,0.0005
2335.00,0.0005
2334.00,0.0004
2333.00,0.0004
2332.00,0.0003
2331.00,0.0003
2330.00,0.0003
2329.00,0.0004
2328.00,0.0005
2327.00,0.0007
2326.00,0.0011
2325.00,0.0014
2324.00,0.0016
2323.00,0.0015
2322.00,0.0014
2321.00,0.0013
2320.00,0.0012
2319.00,0.0011
2318.00,0.0011
2317.00,0.0011
2316.00,0.0010
2315.00,0.0009
2314.00,0.0008
2313.00,0.0007
2312.00,0.0007
2311.00,0.0007
2310.00,0.0007
2309.00,0.0007
2308.00,0.0008
2307.00,0.0008
2306.00,0.0008
2305.00,0.0009
2304.00,0.0010
2303.00,0.0010
2302.00,0.0010
2301.00,0.0010
2300.00,0.0010
2299.00,0.0010
2298.00,0.0010
2297.00,0.0010
2296.00,0.0010
2295.00,0.0011
2294.00,0.0012
2293.00,0.0012
2292.00,0.0013
2291.00,0.0014
2290.00,0.0015
2289.00,0.0016
2288.00,0.0017
2287.00,0.0018
2286.00,0.0018
2285.00,0.0017
2284.00,0.0017
2283.00,0.0016
2282.00,0.0015
2281.00,0.0015
2280.00,0.0015
2279.00,0.0014
2278.00,0.0013
2277.00,0.0012
2276.00,0.0012
2275.00,0.0012
2274.00,0.0012
2273.00,0.0012
2272.00,0.0012
2271.00,0.0012
2270.00,0.0013
2269.00,0.0013
2268.00,0.0013
2267.00,0.0013
2266.00,0.0014
2265.00,0.0014
2264.00,0.0014
2263.00,0.0014
2262.00,0.0013
2261.00,0.0013
2260.00,0.0012
2259.00,0.0011
2258.00,0.0011
2257.00,0.0010
2256.00,0.0009
2255.00,0.0009
2254.00,0.0010
2253.00,0.0010
2252.00,0.0010
2251.00,0.0010
2250.00,0.0010
2249.00,0.0011
2248.00,0.0011
2247.00,0.0011
2246.00,0.0010
2245.00,0.0009
2244.00,0.0008
2243.00,0.0007
2242.00,0.0006
2241.00,0.0006
2240.00,0.0005
2239.00,0.0005
2238.00,0.0005
2237.00,0.0005
2236.00,0.0007
2235.00,0.0008
2234.00,0.0010
2233.00,0.0010
2232.00,0.0011
2231.00,0.0010
2230.00,0.0010
2229.00,0.0011
2228.00,0.0011
2227.00,0.0010
2226.00,0.0008
2225.00,0.0007
2224.00,0.0006
2223.00,0.0004
2222.00,0.0002
2221.00,0.0000
2220.00,0.0000
2219.00,0.0002
2218.00,0.0003
2217.00,0.0004
2216.00,0.0004
2215.00,0.0005
2214.00,0.0006
2213.00,0.0008
2212.00,0.0008
2211.00,0.0007
2210.00,0.0004
2209.00,0.0003
2208.00,0.0002
2207.00,0.0003
2206.00,0.0005
2205.00,0.0006
2204.00,0.0008
2203.00,0.0009
2202.00,0.0010
2201.00,0.0010
2200.00,0.0010
2199.00,0.0010
2198.00,0.0011
2197.00,0.0013
2196.00,0.0014
2195.00,0.0014
2194.00,0.0013
2193.00,0.0011
2192.00,0.0008
2191.00,0.0007
2190.00,0.0007
2189.00,0.0008
2188.00,0.0009
2187.00,0.0010
2186.00,0.0010
2185.00,0.0009
2184.00,0.0008
2183.00,0.0008
2182.00,0.0008
2181.00,0.0009
2180.00,0.0010
2179.00,0.0011
2178.00,0.0011
2177.00,0.0010
2176.00,0.0008
2175.00,0.0006
2174.00,0.0005
2173.00,0.0005
2172.00,0.0007
2171.00,0.0010
2170.00,0.0012
2169.00,0.0013
2168.00,0.0015
2167.00,0.0015
2166.00,0.0015
2165.00,0.0013
2164.00,0.0011
2163.00,0.0011
2162.00,0.0012
2161.00,0.0010
2160.00,0.0004
2159.00,-0.0007
2158.00,-0.0018
2157.00,-0.0024
2156.00,-0.0025
2155.00,-0.0022
2154.00,-0.0019
2153.00,-0.0017
2152.00,-0.0016
2151.00,-0.0017
2150.00,-0.0019
2149.00,-0.0019
2148.00,-0.0017
2147.00,-0.0015
2146.00,-0.0013
2145.00,-0.0012
2144.00,-0.0011
2143.00,-0.0010
2142.00,-0.0010
2141.00,-0.0011
2140.00,-0.0013
2139.00,-0.0015
2138.00,-0.0015
2137.00,-0.0015
2136.00,-0.0015
2135.00,-0.0017
2134.00,-0.0018
2133.00,-0.0017
2132.00,-0.0014
2131.00,-0.0012
2130.00,-0.0010
2129.00,-0.0009
2128.00,-0.0009
2127.00,-0.0008
2126.00,-0.0007
2125.00,-0.0006
2124.00,-0.0006
2123.00,-0.0005
2122.00,-0.0004
2121.00,-0.0004
2120.00,-0.0003
2119.00,-0.0003
2118.00,-0.0002
2117.00,-0.0000
2116.00,0.0001
2115.00,0.0001
2114.00,0.0001
2113.00,0.0001
2112.00,0.0001
2111.00,0.0001
2110.00,0.0000
2109.00,0.0001
2108.00,0.0001
2107.00,0.0002
2106.00,0.0003
2105.00,0.0004
2104.00,0.0003
2103.00,0.0003
2102.00,0.0001
2101.00,0.0001
2100.00,0.0001
2099.00,0.0002
2098.00,0.0002
2097.00,0.0000
2096.00,-0.0002
2095.00,-0.0004
2094.00,-0.0004
2093.00,-0.0003
2092.00,-0.0002
2091.00,-0.0002
2090.00,-0.0003
2089.00,-0.0003
2088.00,-0.0003
2087.00,-0.0003
2086.00,-0.0002
2085.00,0.0000
2084.00,0.0002
2083.00,0.0002
2082.00,0.0002
2081.00,0.0002
2080.00,0.0002
2079.00,0.0001
2078.00,0.0000
2077.00,-0.0000
2076.00,-0.0000
2075.00,0.0000
2074.00,0.0001
2073.00,0.0002
2072.00,0.0004
2071.00,0.0005
2070.00,0.0004
2069.00,0.0002
2068.00,-0.0001
2067.00,-0.0003
2066.00,-0.0004
2065.00,-0.0003
2064.00,-0.0001
2063.00,0.0001
2062.00,0.0001
2061.00,-0.0000
2060.00,-0.0002
2059.00,-0.0003
2058.00,-0.0002
2057.00,-0.0001
2056.00,-0.0001
2055.00,-0.0001
2054.00,-0.0001
2053.00,0.0002
2052.00,0.0008
2051.00,0.0013
2050.00,0.0015
2049.00,0.0012
2048.00,0.0008
2047.00,0.0004
2046.00,0.0002
2045.00,0.0003
2044.00,0.0004
2043.00,0.0004
2042.00,0.0004
2041.00,0.0004
2040.00,0.0004
2039.00,0.0004
2038.00,0.0002
2037.00,0.0000
2036.00,-0.0002
2035.00,-0.0005
2034.00,-0.0007
2033.00,-0.0008
2032.00,-0.0009
2031.00,-0.0011
2030.00,-0.0012
2029.00,-0.0013
2028.00,-0.0012
2027.00,-0.0012
2026.00,-0.0013
2025.00,-0.0016
2024.00,-0.0018
2023.00,-0.0018
2022.00,-0.0014
2021.00,-0.0008
2020.00,-0.0005
2019.00,-0.0005
2018.00,-0.0008
2017.00,-0.0010
2016.00,-0.0012
2015.00,-0.0013
2014.00,-0.0013
2013.00,-0.0012
2012.00,-0.0011
2011.00,-0.0010
2010.00,-0.0011
2009.00,-0.0013
2008.00,-0.0016
2007.00,-0.0018
2006.00,-0.0018
2005.00,-0.0016
2004.00,-0.0015
2003.00,-0.0015
2002.00,-0.0016
2001.00,-0.0017
2000.00,-0.0017
1999.00,-0.0016
1998.00,-0.0015
1997.00,-0.0014
1996.00,-0.0013
1995.00,-0.0013
1994.00,-0.0013
1993.00,-0.0012
1992.00,-0.0010
1991.00,-0.0009
1990.00,-0.0008
1989.00,-0.0009
1988.00,-0.0010
1987.00,-0.0011
1986.00,-0.0010
1985.00,-0.0008
1984.00,-0.0006
1983.00,-0.0004
1982.00,-0.0002
1981.00,-0.0000
1980.00,0.0001
1979.00,-0.0001
1978.00,-0.0005
1977.00,-0.0008
1976.00,-0.0009
1975.00,-0.0009
1974.00,-0.0010
1973.00,-0.0012
1972.00,-0.0014
1971.00,-0.0015
1970.00,-0.0014
1969.00,-0.0012
1968.00,-0.0011
1967.00,-0.0012
1966.00,-0.0016
1965.00,-0.0019
1964.00,-0.0020
1963.00,-0.0019
1962.00,-0.0019
1961.00,-0.0019
1960.00,-0.0020
1959.00,-0.0023
1958.00,-0.0023
1957.00,-0.0020
1956.00,-0.0016
1955.00,-0.0014
1954.00,-0.0014
1953.00,-0.0016
1952.00,-0.0017
1951.00,-0.0018
1950.00,-0.0018
1949.00,-0.0019
1948.00,-0.0018
1947.00,-0.0017
1946.00,-0.0015
1945.00,-0.0014
1944.00,-0.0014
1943.00,-0.0014
1942.00,-0.0013
1941.00,-0.0012
1940.00,-0.0010
1939.00,-0.0009
1938.00,-0.0009
1937.00,-0.0009
1936.00,-0.0009
1935.00,-0.0010
1934.00,-0.0010
1933.00,-0.0010
1932.00,-0.0010
1931.00,-0.0009
1930.00,-0.0009
1929.00,-0.0009
1928.00,-0.0008
1927.00,-0.0008
1926.00,-0.0007
1925.00,-0.0006
1924.00,-0.0006
1923.00,-0.0006
1922.00,-0.0005
1921.00,-0.0005
1920.00,-0.0004
1919.00,-0.0003
1918.00,-0.0003
1917.00,-0.0003
1916.00,-0.0003
1915.00,-0.0003
1914.00,-0.0004
1913.00,-0.0005
1912.00,-0.0005
1911.00,-0.0005
1910.00,-0.0005
1909.00,-0.0004
1908.00,-0.0003
1907.00,-0.0003
1906.00,-0.0004
1905.00,-0.0005
1904.00,-0.0005
1903.00,-0.0006
1902.00,-0.0006
1901.00,-0.0006
1900.00,-0.0006
1899.00,-0.0006
1898.00,-0.0005
1897.00,-0.0004
1896.00,-0.0003
1895.00,-0.0002
1894.00,-0.0002
1893.00,-0.0002
1892.00,-0.0002
1891.00,-0.0003
1890.00,-0.0003
1889.00,-0.0003
1888.00,-0.0004
1887.00,-0.0005
1886.00,-0.0005
1885.00,-0.0005
1884.00,-0.0004
1883.00,-0.0004
1882.00,-0.0004
1881.00,-0.0004
1880.00,-0.0003
1879.00,-0.0002
1878.00,-0.0002
1877.00,-0.0002
1876.00,-0.0001
1875.00,-0.0001
1874.00,-0.0001
1873.00,-0.0001
1872.00,-0.0001
1871.00,-0.0002
1870.00,-0.0003
1869.00,-0.0004
1868.00,-0.0004
1867.00,-0.0003
1866.00,-0.0002
1865.00,-0.0002
1864.00,-0.0001
1863.00,-0.0001
1862.00,-0.0001
1861.00,-0.0001
1860.00,0.0000
1859.00,0.0001
1858.00,0.0001
1857.00,0.0001
1856.00,-0.0000
1855.00,-0.0001
1854.00,-0.0001
1853.00,-0.0000
1852.00,0.0000
1851.00,0.0000
1850.00,0.0000
1849.00,0.0001
1848.00,0.0001
1847.00,0.0001
1846.00,0.0001
1845.00,0.0000
1844.00,-0.0000
1843.00,-0.0001
1842.00,-0.0001
1841.00,-0.0000
1840.00,0.0001
1839.00,0.0001
1838.00,0.0001
1837.00,0.0001
1836.00,0.0001
1835.00,0.0001
1834.00,0.0000
1833.00,-0.0000
1832.00,-0.0000
1831.00,0.0000
1830.00,0.0001
1829.00,0.0001
1828.00,0.0002
1827.00,0.0002
1826.00,0.0002
1825.00,0.0003
1824.00,0.0003
1823.00,0.0003
1822.00,0.0003
1821.00,0.0003
1820.00,0.0002
1819.00,0.0001
1818.00,-0.0001
1817.00,-0.0002
1816.00,-0.0002
1815.00,-0.0002
1814.00,-0.0000
1813.00,0.0001
1812.00,0.0002
1811.00,0.0002
1810.00,0.0002
1809.00,0.0003
1808.00,0.0003
1807.00,0.0004
1806.00,0.0004
1805.00,0.0004
1804.00,0.0004
1803.00,0.0003
1802.00,0.0003
1801.00,0.0003
1800.00,0.0004
1799.00,0.0004
1798.00,0.0004
1797.00,0.0004
1796.00,0.0005
1795.00,0.0005
1794.00,0.0005
1793.00,0.0006
1792.00,0.0006
1791.00,0.0006
1790.00,0.0006
1789.00,0.0005
1788.00,0.0005
1787.00,0.0006
1786.00,0.0006
1785.00,0.0007
1784.00,0.0007
1783.00,0.0008
1782.00,0.0009
1781.00,0.0009
1780.00,0.0009
1779.00,0.0009
1778.00,0.0008
1777.00,0.0008
1776.00,0.0007
1775.00,0.0007
1774.00,0.0008
1773.00,0.0009
1772.00,0.0009
1771.00,0.0009
1770.00,0.0009
1769.00,0.0009
1768.00,0.0009
1767.00,0.0010
1766.00,0.0010
1765.00,0.0011
1764.00,0.0011
1763.00,0.0011
1762.00,0.0012
1761.00,0.0012
1760.00,0.0013
1759.00,0.0013
1758.00,0.0013
1757.00,0.0013
1756.00,0.0013
1755.00,0.0014
1754.00,0.0014
1753.00,0.0015
1752.00,0.0015
1751.00,0.0016
1750.00,0.0017
1749.00,0.0019
1748.00,0.0020
1747.00,0.0021
1746.00,0.0022
1745.00,0.0023
1744.00,0.0024
1743.00,0.0025
1742.00,0.0025
1741.00,0.0025
1740.00,0.0026
1739.00,0.0026
1738.00,0.0028
1737.00,0.0029
1736.00,0.0029
1735.00,0.0029
1734.00,0.0028
1733.00,0.0027
1732.00,0.0027
1731.00,0.0027
1730.00,0.0027
1729.00,0.0026
1728.00,0.0026
1727.00,0.0026
1726.00,0.0026
1725.00,0.0026
1724.00,0.0025
1723.00,0.0025
1722.00,0.0025
1721.00,0.0025
1720.00,0.0025
1719.00,0.0025
1718.00,0.0025
1717.00,0.0025
1716.00,0.0025
1715.00,0.0025
1714.00,0.0025
1713.00,0.0025
1712.00,0.0025
1711.00,0.0025
1710.00,0.0025
1709.00,0.0025
1708.00,0.0025
1707.00,0.0026
1706.00,0.0026
1705.00,0.0028
1704.00,0.0029
1703.00,0.0031
1702.00,0.0031
1701.00,0.0032
1700.00,0.0032
1699.00,0.0032
1698.00,0.0032
1697.00,0.0032
1696.00,0.0033
1695.00,0.0035
1694.00,0.0036
1693.00,0.0038
1692.00,0.0040
1691.00,0.0041
1690.00,0.0043
1689.00,0.0045
1688.00,0.0046
1687.00,0.0048
1686.00,0.0048
1685.00,0.0050
1684.00,0.0052
1683.00,0.0055
1682.00,0.0056
1681.00,0.0058
1680.00,0.0060
1679.00,0.0062
1678.00,0.0064
1677.00,0.0066
1676.00,0.0068
1675.00,0.0070
1674.00,0.0071
1673.00,0.0073
1672.00,0.0074
1671.00,0.0075
1670.00,0.0077
1669.00,0.0077
1668.00,0.0078
1667.00,0.0079
1666.00,0.0079
1665.00,0.0080
1664.00,0.0080
1663.00,0.0080
1662.00,0.0081
1661.00,0.0081
1660.00,0.0081
1659.00,0.0081
1658.00,0.0081
1657.00,0.0081
1656.00,0.0081
1655.00,0.0080
1654.00,0.0080
1653.00,0.0080
1652.00,0.0080
1651.00,0.0081
1650.00,0.0081
1649.00,0.0081
1648.00,0.0081
1647.00,0.0081
1646.00,0.0081
1645.00,0.0081
1644.00,0.0081
1643.00,0.0081
1642.00,0.0081
1641.00,0.0080
1640.00,0.0079
1639.00,0.0078
1638.00,0.0078
1637.00,0.0077
1636.00,0.0078
1635.00,0.0078
1634.00,0.0077
1633.00,0.0077
1632.00,0.0077
1631.00,0.0077
1630.00,0.0076
1629.00,0.0076
1628.00,0.0075
1627.00,0.0074
1626.00,0.0073
1625.00,0.0072
1624.00,0.0072
1623.00,0.0072
1622.00,0.0072
1621.00,0.0072
1620.00,0.0072
1619.00,0.0072
1618.00,0.0071
1617.00,0.0071
1616.00,0.0070
1615.00,0.0070
1614.00,0.0070
1613.00,0.0070
1612.00,0.0071
1611.00,0.0071
1610.00,0.0071
1609.00,0.0071
1608.00,0.0070
1607.00,0.0070
1606.00,0.0070
1605.00,0.0070
1604.00,0.0070
1603.00,0.0070
1602.00,0.0070
1601.00,0.0069
1600.00,0.0070
1599.00,0.0069
1598.00,0.0069
1597.00,0.0069
1596.00,0.0069
1595.00,0.0069
1594.00,0.0070
1593.00,0.0070
1592.00,0.0070
1591.00,0.0071
1590.00,0.0071
1589.00,0.0072
1588.00,0.0074
1587.00,0.0076
1586.00,0.0078
1585.00,0.0081
1584.00,0.0084
1583.00,0.0087
1582.00,0.0089
1581.00,0.0093
1580.00,0.0096
1579.00,0.0098
1578.00,0.0100
1577.00,0.0100
1576.00,0.0099
1575.00,0.0097
1574.00,0.0095
1573.00,0.0093
1572.00,0.0092
1571.00,0.0089
1570.00,0.0085
1569.00,0.0082
1568.00,0.0081
1567.00,0.0080
1566.00,0.0079
1565.00,0.0079
1564.00,0.0079
1563.00,0.0079
1562.00,0.0080
1561.00,0.0080
1560.00,0.0080
1559.00,0.0081
1558.00,0.0081
1557.00,0.0081
1556.00,0.0083
1555.00,0.0083
1554.00,0.0084
1553.00,0.0085
1552.00,0.0087
1551.00,0.0089
1550.00,0.0091
1549.00,0.0093
1548.00,0.0095
1547.00,0.0097
1546.00,0.0100
1545.00,0.0103
1544.00,0.0108
1543.00,0.0111
1542.00,0.0114
1541.00,0.0114
1540.00,0.0111
1539.00,0.0105
1538.00,0.0100
1537.00,0.0097
1536.00,0.0094
1535.00,0.0090
1534.00,0.0085
1533.00,0.0080
1532.00,0.0076
1531.00,0.0074
1530.00,0.0072
1529.00,0.0071
1528.00,0.0069
1527.00,0.0068
1526.00,0.0066
1525.00,0.0065
1524.00,0.0065
1523.00,0.0064
1522.00,0.0063
1521.00,0.0063
1520.00,0.0064
1519.00,0.0064
1518.00,0.0063
1517.00,0.0064
1516.00,0.0065
1515.00,0.0065
1514.00,0.0065
1513.00,0.0066
1512.00,0.0067
1511.00,0.0067
1510.00,0.0067
1509.00,0.0067
1508.00,0.0068
1507.00,0.0068
1506.00,0.0068
1505.00,0.0070
1504.00,0.0072
1503.00,0.0074
1502.00,0.0076
1501.00,0.0079
1500.00,0.0082
1499.00,0.0084
1498.00,0.0087
1497.00,0.0090
1496.00,0.0093
1495.00,0.0096
1494.00,0.0098
1493.00,0.0101
1492.00,0.0104
1491.00,0.0107
1490.00,0.0110
1489.00,0.0115
1488.00,0.0121
1487.00,0.0127
1486.00,0.0133
1485.00,0.0140
1484.00,0.0148
1483.00,0.0157
1482.00,0.0167
1481.00,0.0180
1480.00,0.0194
1479.00,0.0207
1478.00,0.0222
1477.00,0.0242
1476.00,0.0265
1475.00,0.0292
1474.00,0.0327
1473.00,0.0378
1472.00,0.0441
1471.00,0.0502
1470.00,0.0560
1469.00,0.0622
1468.00,0.0689
1467.00,0.0763
1466.00,0.0848
1465.00,0.0942
1464.00,0.1027
1463.00,0.1088
1462.00,0.1130
1461.00,0.1162
1460.00,0.1188
1459.00,0.1207
1458.00,0.1226
1457.00,0.1246
1456.00,0.1257
1455.00,0.1259
1454.00,0.1255
1453.00,0.1246
1452.00,0.1226
1451.00,0.1194
1450.00,0.1144
1449.00,0.1070
1448.00,0.0973
1447.00,0.0870
1446.00,0.0776
1445.00,0.0695
1444.00,0.0626
1443.00,0.0570
1442.00,0.0528
1441.00,0.0499
1440.00,0.0482
1439.00,0.0473
1438.00,0.0472
1437.00,0.0470
1436.00,0.0456
1435.00,0.0428
1434.00,0.0390
1433.00,0.0346
1432.00,0.0300
1431.00,0.0259
1430.00,0.0227
1429.00,0.0205
1428.00,0.0190
1427.00,0.0181
1426.00,0.0175
1425.00,0.0169
1424.00,0.0164
1423.00,0.0161
1422.00,0.0160
1421.00,0.0157
1420.00,0.0153
1419.00,0.0149
1418.00,0.0145
1417.00,0.0141
1416.00,0.0138
1415.00,0.0136
1414.00,0.0135
1413.00,0.0134
1412.00,0.0132
1411.00,0.0131
1410.00,0.0130
1409.00,0.0129
1408.00,0.0127
1407.00,0.0127
1406.00,0.0127
1405.00,0.0127
1404.00,0.0125
1403.00,0.0126
1402.00,0.0127
1401.00,0.0127
1400.00,0.0128
1399.00,0.0130
1398.00,0.0132
1397.00,0.0133
1396.00,0.0135
1395.00,0.0139
1394.00,0.0144
1393.00,0.0150
1392.00,0.0156
1391.00,0.0164
1390.00,0.0176
1389.00,0.0192
1388.00,0.0217
1387.00,0.0254
1386.00,0.0304
1385.00,0.0366
1384.00,0.0449
1383.00,0.0561
1382.00,0.0707
1381.00,0.0892
1380.00,0.1117
1379.00,0.1369
1378.00,0.1610
1377.00,0.1788
1376.00,0.1850
1375.00,0.1765
1374.00,0.1555
1373.00,0.1296
1372.00,0.1055
1371.00,0.0854
1370.00,0.0692
1369.00,0.0566
1368.00,0.0479
1367.00,0.0424
1366.00,0.0395
1365.00,0.0383
1364.00,0.0384
1363.00,0.0397
1362.00,0.0417
1361.00,0.0439
1360.00,0.0455
1359.00,0.0459
1358.00,0.0448
1357.00,0.0422
1356.00,0.0386
1355.00,0.0345
1354.00,0.0305
1353.00,0.0270
1352.00,0.0242
1351.00,0.0220
1350.00,0.0202
1349.00,0.0187
1348.00,0.0175
1347.00,0.0165
1346.00,0.0156
1345.00,0.0150
1344.00,0.0145
1343.00,0.0141
1342.00,0.0138
1341.00,0.0135
1340.00,0.0133
1339.00,0.0131
1338.00,0.0129
1337.00,0.0130
1336.00,0.0131
1335.00,0.0133
1334.00,0.0137
1333.00,0.0140
1332.00,0.0144
1331.00,0.0147
1330.00,0.0149
1329.00,0.0148
1328.00,0.0145
1327.00,0.0140
1326.00,0.0134
1325.00,0.0128
1324.00,0.0121
1323.00,0.0116
1322.00,0.0112
1321.00,0.0109
1320.00,0.0107
1319.00,0.0105
1318.00,0.0103
1317.00,0.0101
1316.00,0.0099
1315.00,0.0097
1314.00,0.0096
1313.00,0.0096
1312.00,0.0097
1311.00,0.0101
1310.00,0.0106
1309.00,0.0114
1308.00,0.0126
1307.00,0.0140
1306.00,0.0153
1305.00,0.0163
1304.00,0.0166
1303.00,0.0163
1302.00,0.0157
1301.00,0.0152
1300.00,0.0148
1299.00,0.0146
1298.00,0.0146
1297.00,0.0145
1296.00,0.0144
1295.00,0.0141
1294.00,0.0138
1293.00,0.0133
1292.00,0.0128
1291.00,0.0123
1290.00,0.0119
1289.00,0.0115
1288.00,0.0111
1287.00,0.0107
1286.00,0.0104
1285.00,0.0101
1284.00,0.0098
1283.00,0.0096
1282.00,0.0095
1281.00,0.0094
1280.00,0.0093
1279.00,0.0091
1278.00,0.0090
1277.00,0.0090
1276.00,0.0089
1275.00,0.0089
1274.00,0.0089
1273.00,0.0088
1272.00,0.0088
1271.00,0.0088
1270.00,0.0089
1269.00,0.0090
1268.00,0.0092
1267.00,0.0094
1266.00,0.0095
1265.00,0.0098
1264.00,0.0100
1263.00,0.0104
1262.00,0.0108
1261.00,0.0113
1260.00,0.0121
1259.00,0.0129
1258.00,0.0139
1257.00,0.0146
1256.00,0.0149
1255.00,0.0147
1254.00,0.0140
1253.00,0.0130
1252.00,0.0120
1251.00,0.0112
1250.00,0.0106
1249.00,0.0102
1248.00,0.0099
1247.00,0.0097
1246.00,0.0095
1245.00,0.0094
1244.00,0.0093
1243.00,0.0092
1242.00,0.0092
1241.00,0.0091
1240.00,0.0090
1239.00,0.0090
1238.00,0.0090
1237.00,0.0089
1236.00,0.0089
1235.00,0.0088
1234.00,0.0088
1233.00,0.0087
1232.00,0.0087
1231.00,0.0087
1230.00,0.0087
1229.00,0.0089
1228.00,0.0090
1227.00,0.0092
1226.00,0.0094
1225.00,0.0096
1224.00,0.0099
1223.00,0.0101
1222.00,0.0104
1221.00,0.0107
1220.00,0.0109
1219.00,0.0110
1218.00,0.0110
1217.00,0.0109
1216.00,0.0108
1215.00,0.0106
1214.00,0.0103
1213.00,0.0099
1212.00,0.0096
1211.00,0.0094
1210.00,0.0092
1209.00,0.0091
1208.00,0.0090
1207.00,0.0089
1206.00,0.0087
1205.00,0.0086
1204.00,0.0086
1203.00,0.0087
1202.00,0.0087
1201.00,0.0087
1200.00,0.0087
1199.00,0.0087
1198.00,0.0087
1197.00,0.0087
1196.00,0.0087
1195.00,0.0087
1194.00,0.0087
1193.00,0.0088
1192.00,0.0088
1191.00,0.0089
1190.00,0.0089
1189.00,0.0090
1188.00,0.0090
1187.00,0.0091
1186.00,0.0092
1185.00,0.0094
1184.00,0.0095
1183.00,0.0097
1182.00,0.0099
1181.00,0.0101
1180.00,0.0105
1179.00,0.0110
1178.00,0.0117
1177.00,0.0128
1176.00,0.0142
1175.00,0.0160
1174.00,0.0183
1173.00,0.0212
1172.00,0.0247
1171.00,0.0287
1170.00,0.0327
1169.00,0.0361
1168.00,0.0383
1167.00,0.0389
1166.00,0.0381
1165.00,0.0363
1164.00,0.0339
1163.00,0.0315
1162.00,0.0293
1161.00,0.0275
1160.00,0.0259
1159.00,0.0246
1158.00,0.0236
1157.00,0.0229
1156.00,0.0223
1155.00,0.0219
1154.00,0.0215
1153.00,0.0211
1152.00,0.0205
1151.00,0.0197
1150.00,0.0188
1149.00,0.0178
1148.00,0.0168
1147.00,0.0159
1146.00,0.0151
1145.00,0.0143
1144.00,0.0136
1143.00,0.0129
1142.00,0.0122
1141.00,0.0116
1140.00,0.0110
1139.00,0.0105
1138.00,0.0102
1137.00,0.0100
1136.00,0.0098
1135.00,0.0096
1134.00,0.0095
1133.00,0.0094
1132.00,0.0094
1131.00,0.0094
1130.00,0.0095
1129.00,0.0095
1128.00,0.0097
1127.00,0.0098
1126.00,0.0098
1125.00,0.0098
1124.00,0.0097
1123.00,0.0096
1122.00,0.0096
1121.00,0.0097
1120.00,0.0098
1119.00,0.0100
1118.00,0.0102
1117.00,0.0104
1116.00,0.0106
1115.00,0.0108
1114.00,0.0109
1113.00,0.0110
1112.00,0.0111
1111.00,0.0113
1110.00,0.0116
1109.00,0.0120
1108.00,0.0126
1107.00,0.0132
1106.00,0.0138
1105.00,0.0144
1104.00,0.0149
1103.00,0.0153
1102.00,0.0154
1101.00,0.0152
1100.00,0.0147
1099.00,0.0141
1098.00,0.0134
1097.00,0.0127
1096.00,0.0121
1095.00,0.0116
1094.00,0.0112
1093.00,0.0109
1092.00,0.0107
1091.00,0.0105
1090.00,0.0104
1089.00,0.0102
1088.00,0.0101
1087.00,0.0099
1086.00,0.0098
1085.00,0.0097
1084.00,0.0096
1083.00,0.0094
1082.00,0.0093
1081.00,0.0090
1080.00,0.0088
1079.00,0.0087
1078.00,0.0087
1077.00,0.0086
1076.00,0.0086
1075.00,0.0086
1074.00,0.0085
1073.00,0.0085
1072.00,0.0085
1071.00,0.0086
1070.00,0.0086
1069.00,0.0087
1068.00,0.0087
1067.00,0.0088
1066.00,0.0087
1065.00,0.0087
1064.00,0.0087
1063.00,0.0087
1062.00,0.0088
1061.00,0.0089
1060.00,0.0090
1059.00,0.0092
1058.00,0.0093
1057.00,0.0094
1056.00,0.0093
1055.00,0.0093
1054.00,0.0093
1053.00,0.0094
1052.00,0.0096
1051.00,0.0099
1050.00,0.0102
1049.00,0.0105
1048.00,0.0109
1047.00,0.0113
1046.00,0.0115
1045.00,0.0116
1044.00,0.0115
1043.00,0.0113
1042.00,0.0110
1041.00,0.0108
1040.00,0.0106
1039.00,0.0105
1038.00,0.0105
1037.00,0.0106
1036.00,0.0106
1035.00,0.0105
1034.00,0.0104
1033.00,0.0102
1032.00,0.0101
1031.00,0.0099
1030.00,0.0099
1029.00,0.0098
1028.00,0.0098
1027.00,0.0098
1026.00,0.0097
1025.00,0.0097
1024.00,0.0097
1023.00,0.0097
1022.00,0.0098
1021.00,0.0099
1020.00,0.0099
1019.00,0.0100
1018.00,0.0101
1017.00,0.0102
1016.00,0.0105
1015.00,0.0108
1014.00,0.0112
1013.00,0.0116
1012.00,0.0120
1011.00,0.0124
1010.00,0.0128
1009.00,0.0132
1008.00,0.0138
1007.00,0.0145
1006.00,0.0155
1005.00,0.0169
1004.00,0.0188
1003.00,0.0214
1002.00,0.0249
1001.00,0.0293
1000.00,0.0339
999.00,0.0380
998.00,0.0403
997.00,0.0400
996.00,0.0371
995.00,0.0325
994.00,0.0275
993.00,0.0230
992.00,0.0196
991.00,0.0171
990.00,0.0153
989.00,0.0141
988.00,0.0133
987.00,0.0130
986.00,0.0129
985.00,0.0132
984.00,0.0137
983.00,0.0146
982.00,0.0160
981.00,0.0179
980.00,0.0204
979.00,0.0236
978.00,0.0275
977.00,0.0322
976.00,0.0375
975.00,0.0428
974.00,0.0470
973.00,0.0490
972.00,0.0478
971.00,0.0436
970.00,0.0375
969.00,0.0311
968.00,0.0255
967.00,0.0212
966.00,0.0180
965.00,0.0157
964.00,0.0140
963.00,0.0127
962.00,0.0118
961.00,0.0111
960.00,0.0105
959.00,0.0100
958.00,0.0096
957.00,0.0094
956.00,0.0092
955.00,0.0091
954.00,0.0089
953.00,0.0087
952.00,0.0085
951.00,0.0084
950.00,0.0084
949.00,0.0084
948.00,0.0085
947.00,0.0085
946.00,0.0086
945.00,0.0087
944.00,0.0089
943.00,0.0091
942.00,0.0094
941.00,0.0095
940.00,0.0095
939.00,0.0093
938.00,0.0090
937.00,0.0086
936.00,0.0081
935.00,0.0077
934.00,0.0074
933.00,0.0072
932.00,0.0070
931.00,0.0068
930.00,0.0065
929.00,0.0063
928.00,0.0062
927.00,0.0063
926.00,0.0064
925.00,0.0065
924.00,0.0066
923.00,0.0067
922.00,0.0068
921.00,0.0068
920.00,0.0068
919.00,0.0069
918.00,0.0070
917.00,0.0071
916.00,0.0071
915.00,0.0072
914.00,0.0072
913.00,0.0073
912.00,0.0074
911.00,0.0075
910.00,0.0077
909.00,0.0078
908.00,0.0080
907.00,0.0084
906.00,0.0089
905.00,0.0098
904.00,0.0112
903.00,0.0129
902.00,0.0149
901.00,0.0167
900.00,0.0179
899.00,0.0182
898.00,0.0176
897.00,0.0162
896.00,0.0144
895.00,0.0127
894.00,0.0112
893.00,0.0100
892.00,0.0092
891.00,0.0085
890.00,0.0080
889.00,0.0077
888.00,0.0075
887.00,0.0074
886.00,0.0074
885.00,0.0073
884.00,0.0073
883.00,0.0074
882.00,0.0074
881.00,0.0075
880.00,0.0074
879.00,0.0075
878.00,0.0077
877.00,0.0079
876.00,0.0081
875.00,0.0082
874.00,0.0083
873.00,0.0083
872.00,0.0083
871.00,0.0081
870.00,0.0079
869.00,0.0078
868.00,0.0077
867.00,0.0078
866.00,0.0079
865.00,0.0080
864.00,0.0080
863.00,0.0081
862.00,0.0082
861.00,0.0085
860.00,0.0087
859.00,0.0089
858.00,0.0090
857.00,0.0092
856.00,0.0094
855.00,0.0096
854.00,0.0099
853.00,0.0101
852.00,0.0105
851.00,0.0110
850.00,0.0117
849.00,0.0126
848.00,0.0139
847.00,0.0157
846.00,0.0184
845.00,0.0224
844.00,0.0278
843.00,0.0339
842.00,0.0387
841.00,0.0403
840.00,0.0379
839.00,0.0326
838.00,0.0268
837.00,0.0219
836.00,0.0185
835.00,0.0164
834.00,0.0151
833.00,0.0143
832.00,0.0137
831.00,0.0132
830.00,0.0128
829.00,0.0124
828.00,0.0120
827.00,0.0118
826.00,0.0116
825.00,0.0116
824.00,0.0115
823.00,0.0114
822.00,0.0113
821.00,0.0113
820.00,0.0113
819.00,0.0115
818.00,0.0118
817.00,0.0124
816.00,0.0132
815.00,0.0143
814.00,0.0155
813.00,0.0170
812.00,0.0185
811.00,0.0199
810.00,0.0209
809.00,0.0213
808.00,0.0211
807.00,0.0202
806.00,0.0189
805.00,0.0174
804.00,0.0159
803.00,0.0145
802.00,0.0135
801.00,0.0127
800.00,0.0122
799.00,0.0119
798.00,0.0115
797.00,0.0110
796.00,0.0106
795.00,0.0101
794.00,0.0097
793.00,0.0094
792.00,0.0092
791.00,0.0090
790.00,0.0087
789.00,0.0085
788.00,0.0082
787.00,0.0080
786.00,0.0077
785.00,0.0075
784.00,0.0073
783.00,0.0071
782.00,0.0069
781.00,0.0067
780.00,0.0065
779.00,0.0065
778.00,0.0065
777.00,0.0066
776.00,0.0068
775.00,0.0070
774.00,0.0072
773.00,0.0074
772.00,0.0076
771.00,0.0078
770.00,0.0081
769.00,0.0081
768.00,0.0081
767.00,0.0079
766.00,0.0078
765.00,0.0076
764.00,0.0075
763.00,0.0074
762.00,0.0073
761.00,0.0071
760.00,0.0069
759.00,0.0067
758.00,0.0065
757.00,0.0063
756.00,0.0061
755.00,0.0060
754.00,0.0061
753.00,0.0062
752.00,0.0064
751.00,0.0065
750.00,0.0065
749.00,0.0063
748.00,0.0061
747.00,0.0060
746.00,0.0062
745.00,0.0064
744.00,0.0066
743.00,0.0068
742.00,0.0070
741.00,0.0071
740.00,0.0073
739.00,0.0075
738.00,0.0078
737.00,0.0080
736.00,0.0082
735.00,0.0083
734.00,0.0085
733.00,0.0087
732.00,0.0089
731.00,0.0090
730.00,0.0090
729.00,0.0088
728.00,0.0087
727.00,0.0086
726.00,0.0085
725.00,0.0083
724.00,0.0081
723.00,0.0079
722.00,0.0077
721.00,0.0074
720.00,0.0072
719.00,0.0070
718.00,0.0068
717.00,0.0067
716.00,0.0066
715.00,0.0064
714.00,0.0064
713.00,0.0063
712.00,0.0063
711.00,0.0063
710.00,0.0063
709.00,0.0065
708.00,0.0066
707.00,0.0067
706.00,0.0068
705.00,0.0068
704.00,0.0068
703.00,0.0069
702.00,0.0070
701.00,0.0070
700.00,0.0069
699.00,0.0067
698.00,0.0065
697.00,0.0063
696.00,0.0061
695.00,0.0060
694.00,0.0060
693.00,0.0061
692.00,0.0060
691.00,0.0059
690.00,0.0058
689.00,0.0056
688.00,0.0056
687.00,0.0057
686.00,0.0059
685.00,0.0061
684.00,0.0063
683.00,0.0064
682.00,0.0064
681.00,0.0063
680.00,0.0063
679.00,0.0064
678.00,0.0065
677.00,0.0065
676.00,0.0064
675.00,0.0063
674.00,0.0062
673.00,0.0062
672.00,0.0063
671.00,0.0065
670.00,0.0067
669.00,0.0068
668.00,0.0069
667.00,0.0070
666.00,0.0068
665.00,0.0067
664.00,0.0066
663.00,0.0065
662.00,0.0064
661.00,0.0064
660.00,0.0065
659.00,0.0066
658.00,0.0067
657.00,0.0066
656.00,0.0064
655.00,0.0062
654.00,0.0060
653.00,0.0059
652.00,0.0060
651.00,0.0062
650.00,0.0064
649.00,0.0066
648.00,0.0066
647.00,0.0064
646.00,0.0061
645.00,0.0058
644.00,0.0057
643.00,0.0059
642.00,0.0063
641.00,0.0066
640.00,0.0067
639.00,0.0066
638.00,0.0063
637.00,0.0062
636.00,0.0062
635.00,0.0063
634.00,0.0063
633.00,0.0062
632.00,0.0062
631.00,0.0063
630.00,0.0065
629.00,0.0068
628.00,0.0069
627.00,0.0070
626.00,0.0070
625.00,0.0070
624.00,0.0069
623.00,0.0067
622.00,0.0066
621.00,0.0066
620.00,0.0068
619.00,0.0069
618.00,0.0069
617.00,0.0069
616.00,0.0068
615.00,0.0068
614.00,0.0066
613.00,0.0065
612.00,0.0064
611.00,0.0066
610.00,0.0068
609.00,0.0068
608.00,0.0066
607.00,0.0063
606.00,0.0061
605.00,0.0062
604.00,0.0065
603.00,0.0068
602.00,0.0070
601.00,0.0069
600.00,0.0067
599.00,0.0066
598.00,0.0064
597.00,0.0063
596.00,0.0064
595.00,0.0068
594.00,0.0073
593.00,0.0075
592.00,0.0074
591.00,0.0070
590.00,0.0065
589.00,0.0062
588.00,0.0061
587.00,0.0062
586.00,0.0063
585.00,0.0063
584.00,0.0062
583.00,0.0062
582.00,0.0062
581.00,0.0063
580.00,0.0064
579.00,0.0065
578.00,0.0065
577.00,0.0065
576.00,0.0065
575.00,0.0066
574.00,0.0068
573.00,0.0069
572.00,0.0069
571.00,0.0070
570.00,0.0071
569.00,0.0072
568.00,0.0072
567.00,0.0072
566.00,0.0072
565.00,0.0071
564.00,0.0070
563.00,0.0069
562.00,0.0069
561.00,0.0069
560.00,0.0070
559.00,0.0071
558.00,0.0071
557.00,0.0071
556.00,0.0072
555.00,0.0073
554.00,0.0075
553.00,0.0075
552.00,0.0074
551.00,0.0074
550.00,0.0076
549.00,0.0077
548.00,0.0075
547.00,0.0071
546.00,0.0068
545.00,0.0067
544.00,0.0068
543.00,0.0072
542.00,0.0075
541.00,0.0077
540.00,0.0078
539.00,0.0078
538.00,0.0078
537.00,0.0078
536.00,0.0078
535.00,0.0082
534.00,0.0087
533.00,0.0091
532.00,0.0092
531.00,0.0093
530.00,0.0093
529.00,0.0092
528.00,0.0090
527.00,0.0090
526.00,0.0090
525.00,0.0088
524.00,0.0082
523.00,0.0078
522.00,0.0077
521.00,0.0078
520.00,0.0079
519.00,0.0081
518.00,0.0085
517.00,0.0086
516.00,0.0083
515.00,0.0076
514.00,0.0071
513.00,0.0069
512.00,0.0069
511.00,0.0071
510.00,0.0073
509.00,0.0072
508.00,0.0068
507.00,0.0065
506.00,0.0066
505.00,0.0070
504.00,0.0073
503.00,0.0074
502.00,0.0074
501.00,0.0076
500.00,0.0077
499.00,0.0077
498.00,0.0077
497.00,0.0076
496.00,0.0072
495.00,0.0069
494.00,0.0069
493.00,0.0071
492.00,0.0071
491.00,0.0070
490.00,0.0070
489.00,0.0075
488.00,0.0082
487.00,0.0088
486.00,0.0089
485.00,0.0087
484.00,0.0083
483.00,0.0079
482.00,0.0077
481.00,0.0076
480.00,0.0073
479.00,0.0068
478.00,0.0062
477.00,0.0056
476.00,0.0052
475.00,0.0050
474.00,0.0055
473.00,0.0065
472.00,0.0076
471.00,0.0081
470.00,0.0079
469.00,0.0073
468.00,0.0069
467.00,0.0074
466.00,0.0089
465.00,0.0109
464.00,0.0127
463.00,0.0139
462.00,0.0146
461.00,0.0153
460.00,0.0164
459.00,0.0176
458.00,0.0178
457.00,0.0162
456.00,0.0137
455.00,0.0115
454.00,0.0105
453.00,0.0105
452.00,0.0106
451.00,0.0102
450.00,0.0095
