Created as New Dataset,Sample 130 By Administrator Date Wednesday, September 10 2025
cm-1,A
4000.00,0.0008
3999.00,0.0008
3998.00,0.0009
3997.00,0.0009
3996.00,0.0009
3995.00,0.0009
3994.00,0.0009
3993.00,0.0009
3992.00,0.0009
3991.00,0.0009
3990.00,0.0008
3989.00,0.0008
3988.00,0.0008
3987.00,0.0008
3986.00,0.0008
3985.00,0.0008
3984.00,0.0008
3983.00,0.0008
3982.00,0.0008
3981.00,0.0007
3980.00,0.0007
3979.00,0.0008
3978.00,0.0008
3977.00,0.0008
3976.00,0.0008
3975.00,0.0008
3974.00,0.0007
3973.00,0.0007
3972.00,0.0007
3971.00,0.0007
3970.00,0.0007
3969.00,0.0007
3968.00,0.0007
3967.00,0.0007
3966.00,0.0007
3965.00,0.0006
3964.00,0.0006
3963.00,0.0006
3962.00,0.0007
3961.00,0.0007
3960.00,0.0007
3959.00,0.0007
3958.00,0.0007
3957.00,0.0007
3956.00,0.0007
3955.00,0.0007
3954.00,0.0006
3953.00,0.0006
3952.00,0.0006
3951.00,0.0006
3950.00,0.0007
3949.00,0.0007
3948.00,0.0007
3947.00,0.0007
3946.00,0.0007
3945.00,0.0007
3944.00,0.0007
3943.00,0.0007
3942.00,0.0007
3941.00,0.0007
3940.00,0.0007
3939.00,0.0006
3938.00,0.0006
3937.00,0.0006
3936.00,0.0006
3935.00,0.0006
3934.00,0.0006
3933.00,0.0006
3932.00,0.0006
3931.00,0.0007
3930.00,0.0007
3929.00,0.0007
3928.00,0.0006
3927.00,0.0006
3926.00,0.0006
3925.00,0.0006
3924.00,0.0007
3923.00,0.0007
3922.00,0.0007
3921.00,0.0007
3920.00,0.0007
3919.00,0.0007
3918.00,0.0007
3917.00,0.0007
3916.00,0.0007
3915.00,0.0007
3914.00,0.0006
3913.00,0.0006
3912.00,0.0006
3911.00,0.0006
3910.00,0.0006
3909.00,0.0006
3908.00,0.0006
3907.00,0.0006
3906.00,0.0006
3905.00,0.0006
3904.00,0.0006
3903.00,0.0006
3902.00,0.0005
3901.00,0.0005
3900.00,0.0005
3899.00,0.0005
3898.00,0.0006
3897.00,0.0006
3896.00,0.0006
3895.00,0.0007
3894.00,0.0007
3893.00,0.0006
3892.00,0.0006
3891.00,0.0007
3890.00,0.0007
3889.00,0.0007
3888.00,0.0007
3887.00,0.0006
3886.00,0.0006
3885.00,0.0006
3884.00,0.0006
3883.00,0.0006
3882.00,0.0005
3881.00,0.0005
3880.00,0.0006
3879.00,0.0006
3878.00,0.0006
3877.00,0.0006
3876.00,0.0006
3875.00,0.0006
3874.00,0.0007
3873.00,0.0007
3872.00,0.0007
3871.00,0.0006
3870.00,0.0006
3869.00,0.0007
3868.00,0.0007
3867.00,0.0007
3866.00,0.0007
3865.00,0.0006
3864.00,0.0006
3863.00,0.0006
3862.00,0.0005
3861.00,0.0006
3860.00,0.0006
3859.00,0.0007
3858.00,0.0007
3857.00,0.0007
3856.00,0.0008
3855.00,0.0008
3854.00,0.0008
3853.00,0.0008
3852.00,0.0007
3851.00,0.0007
3850.00,0.0006
3849.00,0.0006
3848.00,0.0006
3847.00,0.0006
3846.00,0.0006
3845.00,0.0006
3844.00,0.0007
3843.00,0.0008
3842.00,0.0008
3841.00,0.0008
3840.00,0.0008
3839.00,0.0007
3838.00,0.0007
3837.00,0.0007
3836.00,0.0006
3835.00,0.0006
3834.00,0.0006
3833.00,0.0006
3832.00,0.0006
3831.00,0.0006
3830.00,0.0006
3829.00,0.0006
3828.00,0.0005
3827.00,0.0006
3826.00,0.0006
3825.00,0.0007
3824.00,0.0007
3823.00,0.0007
3822.00,0.0007
3821.00,0.0007
3820.00,0.0008
3819.00,0.0008
3818.00,0.0007
3817.00,0.0007
3816.00,0.0007
3815.00,0.0007
3814.00,0.0007
3813.00,0.0007
3812.00,0.0007
3811.00,0.0008
3810.00,0.0008
3809.00,0.0008
3808.00,0.0007
3807.00,0.0007
3806.00,0.0007
3805.00,0.0007
3804.00,0.0007
3803.00,0.0006
3802.00,0.0006
3801.00,0.0007
3800.00,0.0007
3799.00,0.0007
3798.00,0.0006
3797.00,0.0006
3796.00,0.0006
3795.00,0.0005
3794.00,0.0005
3793.00,0.0006
3792.00,0.0006
3791.00,0.0006
3790.00,0.0006
3789.00,0.0006
3788.00,0.0006
3787.00,0.0006
3786.00,0.0006
3785.00,0.0006
3784.00,0.0007
3783.00,0.0007
3782.00,0.0007
3781.00,0.0007
3780.00,0.0006
3779.00,0.0006
3778.00,0.0006
3777.00,0.0007
3776.00,0.0007
3775.00,0.0007
3774.00,0.0007
3773.00,0.0007
3772.00,0.0007
3771.00,0.0007
3770.00,0.0008
3769.00,0.0008
3768.00,0.0008
3767.00,0.0008
3766.00,0.0008
3765.00,0.0008
3764.00,0.0007
3763.00,0.0007
3762.00,0.0006
3761.00,0.0006
3760.00,0.0006
3759.00,0.0006
3758.00,0.0007
3757.00,0.0007
3756.00,0.0007
3755.00,0.0008
3754.00,0.0008
3753.00,0.0009
3752.00,0.0009
3751.00,0.0009
3750.00,0.0008
3749.00,0.0008
3748.00,0.0008
3747.00,0.0007
3746.00,0.0007
3745.00,0.0006
3744.00,0.0006
3743.00,0.0006
3742.00,0.0006
3741.00,0.0006
3740.00,0.0006
3739.00,0.0006
3738.00,0.0006
3737.00,0.0005
3736.00,0.0005
3735.00,0.0005
3734.00,0.0005
3733.00,0.0005
3732.00,0.0004
3731.00,0.0004
3730.00,0.0004
3729.00,0.0003
3728.00,0.0003
3727.00,0.0003
3726.00,0.0003
3725.00,0.0003
3724.00,0.0003
3723.00,0.0003
3722.00,0.0003
3721.00,0.0004
3720.00,0.0004
3719.00,0.0004
3718.00,0.0005
3717.00,0.0005
3716.00,0.0005
3715.00,0.0005
3714.00,0.0005
3713.00,0.0005
3712.00,0.0005
3711.00,0.0005
3710.00,0.0005
3709.00,0.0005
3708.00,0.0005
3707.00,0.0005
3706.00,0.0004
3705.00,0.0004
3704.00,0.0004
3703.00,0.0004
3702.00,0.0005
3701.00,0.0005
3700.00,0.0005
3699.00,0.0005
3698.00,0.0005
3697.00,0.0006
3696.00,0.0006
3695.00,0.0006
3694.00,0.0006
3693.00,0.0006
3692.00,0.0006
3691.00,0.0006
3690.00,0.0006
3689.00,0.0007
3688.00,0.0006
3687.00,0.0006
3686.00,0.0005
3685.00,0.0005
3684.00,0.0005
3683.00,0.0005
3682.00,0.0005
3681.00,0.0006
3680.00,0.0006
3679.00,0.0007
3678.00,0.0007
3677.00,0.0007
3676.00,0.0007
3675.00,0.0006
3674.00,0.0006
3673.00,0.0006
3672.00,0.0005
3671.00,0.0005
3670.00,0.0005
3669.00,0.0005
3668.00,0.0005
3667.00,0.0005
3666.00,0.0005
3665.00,0.0005
3664.00,0.0005
3663.00,0.0005
3662.00,0.0005
3661.00,0.0006
3660.00,0.0006
3659.00,0.0006
3658.00,0.0006
3657.00,0.0006
3656.00,0.0006
3655.00,0.0006
3654.00,0.0006
3653.00,0.0006
3652.00,0.0006
3651.00,0.0005
3650.00,0.0005
3649.00,0.0004
3648.00,0.0004
3647.00,0.0004
3646.00,0.0004
3645.00,0.0005
3644.00,0.0005
3643.00,0.0005
3642.00,0.0005
3641.00,0.0005
3640.00,0.0005
3639.00,0.0005
3638.00,0.0006
3637.00,0.0007
3636.00,0.0007
3635.00,0.0007
3634.00,0.0007
3633.00,0.0007
3632.00,0.0007
3631.00,0.0007
3630.00,0.0006
3629.00,0.0005
3628.00,0.0005
3627.00,0.0005
3626.00,0.0005
3625.00,0.0005
3624.00,0.0006
3623.00,0.0006
3622.00,0.0006
3621.00,0.0005
3620.00,0.0006
3619.00,0.0006
3618.00,0.0006
3617.00,0.0006
3616.00,0.0006
3615.00,0.0006
3614.00,0.0006
3613.00,0.0006
3612.00,0.0007
3611.00,0.0007
3610.00,0.0007
3609.00,0.0006
3608.00,0.0006
3607.00,0.0006
3606.00,0.0007
3605.00,0.0007
3604.00,0.0008
3603.00,0.0008
3602.00,0.0008
3601.00,0.0008
3600.00,0.0008
3599.00,0.0008
3598.00,0.0008
3597.00,0.0008
3596.00,0.0007
3595.00,0.0007
3594.00,0.0008
3593.00,0.0008
3592.00,0.0009
3591.00,0.0009
3590.00,0.0009
3589.00,0.0009
3588.00,0.0009
3587.00,0.0009
3586.00,0.0010
3585.00,0.0010
3584.00,0.0010
3583.00,0.0011
3582.00,0.0012
3581.00,0.0012
3580.00,0.0012
3579.00,0.0012
3578.00,0.0012
3577.00,0.0012
3576.00,0.0012
3575.00,0.0013
3574.00,0.0013
3573.00,0.0014
3572.00,0.0014
3571.00,0.0013
3570.00,0.0013
3569.00,0.0012
3568.00,0.0012
3567.00,0.0012
3566.00,0.0012
3565.00,0.0013
3564.00,0.0013
3563.00,0.0014
3562.00,0.0014
3561.00,0.0015
3560.00,0.0015
3559.00,0.0015
3558.00,0.0015
3557.00,0.0015
3556.00,0.0015
3555.00,0.0015
3554.00,0.0015
3553.00,0.0016
3552.00,0.0016
3551.00,0.0016
3550.00,0.0017
3549.00,0.0017
3548.00,0.0017
3547.00,0.0017
3546.00,0.0018
3545.00,0.0018
3544.00,0.0018
3543.00,0.0018
3542.00,0.0018
3541.00,0.0018
3540.00,0.0019
3539.00,0.0019
3538.00,0.0019
3537.00,0.0019
3536.00,0.0020
3535.00,0.0020
3534.00,0.0020
3533.00,0.0020
3532.00,0.0020
3531.00,0.0020
3530.00,0.0020
3529.00,0.0021
3528.00,0.0021
3527.00,0.0021
3526.00,0.0021
3525.00,0.0021
3524.00,0.0022
3523.00,0.0022
3522.00,0.0022
3521.00,0.0022
3520.00,0.0023
3519.00,0.0024
3518.00,0.0024
3517.00,0.0025
3516.00,0.0026
3515.00,0.0026
3514.00,0.0026
3513.00,0.0026
3512.00,0.0025
3511.00,0.0025
3510.00,0.0024
3509.00,0.0024
3508.00,0.0024
3507.00,0.0025
3506.00,0.0025
3505.00,0.0026
3504.00,0.0027
3503.00,0.0027
3502.00,0.0027
3501.00,0.0027
3500.00,0.0027
3499.00,0.0027
3498.00,0.0028
3497.00,0.0028
3496.00,0.0028
3495.00,0.0028
3494.00,0.0029
3493.00,0.0029
3492.00,0.0029
3491.00,0.0029
3490.00,0.0029
3489.00,0.0030
3488.00,0.0030
3487.00,0.0030
3486.00,0.0029
3485.00,0.0029
3484.00,0.0029
3483.00,0.0029
3482.00,0.0030
3481.00,0.0030
3480.00,0.0030
3479.00,0.0030
3478.00,0.0030
3477.00,0.0030
3476.00,0.0031
3475.00,0.0031
3474.00,0.0032
3473.00,0.0032
3472.00,0.0033
3471.00,0.0033
3470.00,0.0034
3469.00,0.0034
3468.00,0.0034
3467.00,0.0035
3466.00,0.0035
3465.00,0.0035
3464.00,0.0035
3463.00,0.0035
3462.00,0.0035
3461.00,0.0035
3460.00,0.0035
3459.00,0.0035
3458.00,0.0035
3457.00,0.0035
3456.00,0.0035
3455.00,0.0036
3454.00,0.0036
3453.00,0.0036
3452.00,0.0037
3451.00,0.0037
3450.00,0.0037
3449.00,0.0037
3448.00,0.0037
3447.00,0.0038
3446.00,0.0038
3445.00,0.0038
3444.00,0.0039
3443.00,0.0039
3442.00,0.0039
3441.00,0.0039
3440.00,0.0039
3439.00,0.0040
3438.00,0.0040
3437.00,0.0040
3436.00,0.0040
3435.00,0.0040
3434.00,0.0041
3433.00,0.0041
3432.00,0.0041
3431.00,0.0041
3430.00,0.0041
3429.00,0.0041
3428.00,0.0041
3427.00,0.0041
3426.00,0.0042
3425.00,0.0042
3424.00,0.0043
3423.00,0.0043
3422.00,0.0043
3421.00,0.0043
3420.00,0.0044
3419.00,0.0044
3418.00,0.0044
3417.00,0.0044
3416.00,0.0044
3415.00,0.0044
3414.00,0.0044
3413.00,0.0044
3412.00,0.0044
3411.00,0.0045
3410.00,0.0045
3409.00,0.0045
3408.00,0.0045
3407.00,0.0046
3406.00,0.0046
3405.00,0.0046
3404.00,0.0046
3403.00,0.0046
3402.00,0.0046
3401.00,0.0046
3400.00,0.0046
3399.00,0.0046
3398.00,0.0046
3397.00,0.0045
3396.00,0.0045
3395.00,0.0045
3394.00,0.0046
3393.00,0.0046
3392.00,0.0047
3391.00,0.0047
3390.00,0.0047
3389.00,0.0047
3388.00,0.0047
3387.00,0.0047
3386.00,0.0047
3385.00,0.0047
3384.00,0.0047
3383.00,0.0047
3382.00,0.0048
3381.00,0.0048
3380.00,0.0048
3379.00,0.0048
3378.00,0.0048
3377.00,0.0048
3376.00,0.0048
3375.00,0.0048
3374.00,0.0048
3373.00,0.0049
3372.00,0.0049
3371.00,0.0048
3370.00,0.0048
3369.00,0.0048
3368.00,0.0048
3367.00,0.0049
3366.00,0.0049
3365.00,0.0050
3364.00,0.0050
3363.00,0.0050
3362.00,0.0050
3361.00,0.0050
3360.00,0.0050
3359.00,0.0050
3358.00,0.0050
3357.00,0.0050
3356.00,0.0050
3355.00,0.0050
3354.00,0.0050
3353.00,0.0050
3352.00,0.0050
3351.00,0.0050
3350.00,0.0050
3349.00,0.0050
3348.00,0.0050
3347.00,0.0050
3346.00,0.0050
3345.00,0.0050
3344.00,0.0050
3343.00,0.0050
3342.00,0.0050
3341.00,0.0051
3340.00,0.0051
3339.00,0.0051
3338.00,0.0050
3337.00,0.0050
3336.00,0.0050
3335.00,0.0049
3334.00,0.0049
3333.00,0.0049
3332.00,0.0049
3331.00,0.0049
3330.00,0.0048
3329.00,0.0048
3328.00,0.0048
3327.00,0.0047
3326.00,0.0047
3325.00,0.0047
3324.00,0.0048
3323.00,0.0048
3322.00,0.0048
3321.00,0.0049
3320.00,0.0049
3319.00,0.0048
3318.00,0.0048
3317.00,0.0047
3316.00,0.0047
3315.00,0.0047
3314.00,0.0047
3313.00,0.0047
3312.00,0.0047
3311.00,0.0048
3310.00,0.0048
3309.00,0.0048
3308.00,0.0048
3307.00,0.0048
3306.00,0.0047
3305.00,0.0047
3304.00,0.0047
3303.00,0.0047
3302.00,0.0047
3301.00,0.0047
3300.00,0.0047
3299.00,0.0047
3298.00,0.0047
3297.00,0.0047
3296.00,0.0047
3295.00,0.0047
3294.00,0.0047
3293.00,0.0047
3292.00,0.0047
3291.00,0.0047
3290.00,0.0047
3289.00,0.0047
3288.00,0.0047
3287.00,0.0046
3286.00,0.0046
3285.00,0.0046
3284.00,0.0047
3283.00,0.0046
3282.00,0.0046
3281.00,0.0046
3280.00,0.0046
3279.00,0.0045
3278.00,0.0045
3277.00,0.0045
3276.00,0.0045
3275.00,0.0045
3274.00,0.0044
3273.00,0.0044
3272.00,0.0043
3271.00,0.0043
3270.00,0.0044
3269.00,0.0044
3268.00,0.0044
3267.00,0.0044
3266.00,0.0044
3265.00,0.0044
3264.00,0.0043
3263.00,0.0043
3262.00,0.0043
3261.00,0.0043
3260.00,0.0043
3259.00,0.0043
3258.00,0.0042
3257.00,0.0041
3256.00,0.0041
3255.00,0.0041
3254.00,0.0041
3253.00,0.0041
3252.00,0.0041
3251.00,0.0041
3250.00,0.0041
3249.00,0.0041
3248.00,0.0041
3247.00,0.0041
3246.00,0.0041
3245.00,0.0041
3244.00,0.0041
3243.00,0.0040
3242.00,0.0040
3241.00,0.0040
3240.00,0.0040
3239.00,0.0040
3238.00,0.0040
3237.00,0.0040
3236.00,0.0040
3235.00,0.0041
3234.00,0.0041
3233.00,0.0041
3232.00,0.0041
3231.00,0.0041
3230.00,0.0041
3229.00,0.0041
3228.00,0.0041
3227.00,0.0041
3226.00,0.0042
3225.00,0.0042
3224.00,0.0042
3223.00,0.0041
3222.00,0.0041
3221.00,0.0041
3220.00,0.0042
3219.00,0.0042
3218.00,0.0042
3217.00,0.0042
3216.00,0.0042
3215.00,0.0042
3214.00,0.0042
3213.00,0.0043
3212.00,0.0043
3211.00,0.0043
3210.00,0.0044
3209.00,0.0044
3208.00,0.0044
3207.00,0.0044
3206.00,0.0043
3205.00,0.0043
3204.00,0.0043
3203.00,0.0043
3202.00,0.0044
3201.00,0.0044
3200.00,0.0044
3199.00,0.0044
3198.00,0.0044
3197.00,0.0044
3196.00,0.0044
3195.00,0.0044
3194.00,0.0044
3193.00,0.0044
3192.00,0.0043
3191.00,0.0043
3190.00,0.0043
3189.00,0.0043
3188.00,0.0043
3187.00,0.0043
3186.00,0.0042
3185.00,0.0042
3184.00,0.0042
3183.00,0.0041
3182.00,0.0041
3181.00,0.0041
3180.00,0.0041
3179.00,0.0041
3178.00,0.0040
3177.00,0.0040
3176.00,0.0039
3175.00,0.0039
3174.00,0.0040
3173.00,0.0040
3172.00,0.0040
3171.00,0.0040
3170.00,0.0039
3169.00,0.0039
3168.00,0.0039
3167.00,0.0038
3166.00,0.0038
3165.00,0.0037
3164.00,0.0037
3163.00,0.0037
3162.00,0.0038
3161.00,0.0038
3160.00,0.0038
3159.00,0.0037
3158.00,0.0037
3157.00,0.0037
3156.00,0.0037
3155.00,0.0037
3154.00,0.0038
3153.00,0.0038
3152.00,0.0038
3151.00,0.0038
3150.00,0.0038
3149.00,0.0037
3148.00,0.0037
3147.00,0.0037
3146.00,0.0037
3145.00,0.0037
3144.00,0.0037
3143.00,0.0037
3142.00,0.0036
3141.00,0.0036
3140.00,0.0036
3139.00,0.0036
3138.00,0.0036
3137.00,0.0035
3136.00,0.0035
3135.00,0.0035
3134.00,0.0034
3133.00,0.0034
3132.00,0.0034
3131.00,0.0034
3130.00,0.0034
3129.00,0.0034
3128.00,0.0033
3127.00,0.0033
3126.00,0.0034
3125.00,0.0034
3124.00,0.0034
3123.00,0.0034
3122.00,0.0033
3121.00,0.0033
3120.00,0.0032
3119.00,0.0032
3118.00,0.0031
3117.00,0.0031
3116.00,0.0030
3115.00,0.0030
3114.00,0.0030
3113.00,0.0030
3112.00,0.0031
3111.00,0.0031
3110.00,0.0031
3109.00,0.0030
3108.00,0.0030
3107.00,0.0030
3106.00,0.0030
3105.00,0.0030
3104.00,0.0030
3103.00,0.0030
3102.00,0.0029
3101.00,0.0029
3100.00,0.0028
3099.00,0.0028
3098.00,0.0029
3097.00,0.0029
3096.00,0.0028
3095.00,0.0028
3094.00,0.0028
3093.00,0.0028
3092.00,0.0028
3091.00,0.0027
3090.00,0.0027
3089.00,0.0028
3088.00,0.0028
3087.00,0.0028
3086.00,0.0028
3085.00,0.0028
3084.00,0.0028
3083.00,0.0028
3082.00,0.0027
3081.00,0.0027
3080.00,0.0028
3079.00,0.0028
3078.00,0.0028
3077.00,0.0028
3076.00,0.0028
3075.00,0.0028
3074.00,0.0028
3073.00,0.0028
3072.00,0.0029
3071.00,0.0029
3070.00,0.0029
3069.00,0.0029
3068.00,0.0029
3067.00,0.0029
3066.00,0.0029
3065.00,0.0029
3064.00,0.0029
3063.00,0.0029
3062.00,0.0030
3061.00,0.0030
3060.00,0.0030
3059.00,0.0030
3058.00,0.0030
3057.00,0.0030
3056.00,0.0030
3055.00,0.0031
3054.00,0.0031
3053.00,0.0031
3052.00,0.0030
3051.00,0.0030
3050.00,0.0030
3049.00,0.0030
3048.00,0.0031
3047.00,0.0031
3046.00,0.0031
3045.00,0.0031
3044.00,0.0031
3043.00,0.0032
3042.00,0.0032
3041.00,0.0033
3040.00,0.0033
3039.00,0.0033
3038.00,0.0033
3037.00,0.0034
3036.00,0.0034
3035.00,0.0034
3034.00,0.0034
3033.00,0.0035
3032.00,0.0035
3031.00,0.0035
3030.00,0.0035
3029.00,0.0035
3028.00,0.0036
3027.00,0.0037
3026.00,0.0038
3025.00,0.0039
3024.00,0.0039
3023.00,0.0040
3022.00,0.0041
3021.00,0.0041
3020.00,0.0042
3019.00,0.0043
3018.00,0.0043
3017.00,0.0044
3016.00,0.0045
3015.00,0.0046
3014.00,0.0047
3013.00,0.0048
3012.00,0.0050
3011.00,0.0051
3010.00,0.0053
3009.00,0.0055
3008.00,0.0056
3007.00,0.0058
3006.00,0.0060
3005.00,0.0061
3004.00,0.0063
3003.00,0.0065
3002.00,0.0068
3001.00,0.0070
3000.00,0.0073
2999.00,0.0076
2998.00,0.0079
2997.00,0.0082
2996.00,0.0086
2995.00,0.0090
2994.00,0.0094
2993.00,0.0099
2992.00,0.0104
2991.00,0.0110
2990.00,0.0117
2989.00,0.0124
2988.00,0.0132
2987.00,0.0141
2986.00,0.0150
2985.00,0.0161
2984.00,0.0174
2983.00,0.0188
2982.00,0.0203
2981.00,0.0221
2980.00,0.0240
2979.00,0.0263
2978.00,0.0288
2977.00,0.0317
2976.00,0.0350
2975.00,0.0389
2974.00,0.0433
2973.00,0.0483
2972.00,0.0539
2971.00,0.0601
2970.00,0.0671
2969.00,0.0747
2968.00,0.0831
2967.00,0.0920
2966.00,0.1013
2965.00,0.1107
2964.00,0.1199
2963.00,0.1285
2962.00,0.1361
2961.00,0.1423
2960.00,0.1473
2959.00,0.1514
2958.00,0.1552
2957.00,0.1592
2956.00,0.1641
2955.00,0.1700
2954.00,0.1771
2953.00,0.1847
2952.00,0.1918
2951.00,0.1974
2950.00,0.2002
2949.00,0.1992
2948.00,0.1939
2947.00,0.1847
2946.00,0.1724
2945.00,0.1587
2944.00,0.1449
2943.00,0.1325
2942.00,0.1223
2941.00,0.1149
2940.00,0.1101
2939.00,0.1078
2938.00,0.1078
2937.00,0.1097
2936.00,0.1134
2935.00,0.1187
2934.00,0.1256
2933.00,0.1337
2932.00,0.1431
2931.00,0.1534
2930.00,0.1644
2929.00,0.1756
2928.00,0.1868
2927.00,0.1976
2926.00,0.2079
2925.00,0.2177
2924.00,0.2271
2923.00,0.2363
2922.00,0.2453
2921.00,0.2539
2920.00,0.2617
2919.00,0.2677
2918.00,0.2712
2917.00,0.2714
2916.00,0.2681
2915.00,0.2617
2914.00,0.2529
2913.00,0.2430
2912.00,0.2328
2911.00,0.2230
2910.00,0.2140
2909.00,0.2057
2908.00,0.1980
2907.00,0.1907
2906.00,0.1834
2905.00,0.1761
2904.00,0.1687
2903.00,0.1613
2902.00,0.1540
2901.00,0.1469
2900.00,0.1401
2899.00,0.1337
2898.00,0.1278
2897.00,0.1225
2896.00,0.1179
2895.00,0.1139
2894.00,0.1107
2893.00,0.1082
2892.00,0.1064
2891.00,0.1053
2890.00,0.1047
2889.00,0.1045
2888.00,0.1048
2887.00,0.1055
2886.00,0.1065
2885.00,0.1079
2884.00,0.1098
2883.00,0.1121
2882.00,0.1149
2881.00,0.1179
2880.00,0.1209
2879.00,0.1235
2878.00,0.1252
2877.00,0.1259
2876.00,0.1256
2875.00,0.1248
2874.00,0.1239
2873.00,0.1237
2872.00,0.1242
2871.00,0.1256
2870.00,0.1276
2869.00,0.1297
2868.00,0.1311
2867.00,0.1309
2866.00,0.1283
2865.00,0.1229
2864.00,0.1151
2863.00,0.1057
2862.00,0.0959
2861.00,0.0866
2860.00,0.0787
2859.00,0.0723
2858.00,0.0675
2857.00,0.0640
2856.00,0.0615
2855.00,0.0598
2854.00,0.0589
2853.00,0.0587
2852.00,0.0592
2851.00,0.0604
2850.00,0.0623
2849.00,0.0651
2848.00,0.0686
2847.00,0.0731
2846.00,0.0784
2845.00,0.0846
2844.00,0.0916
2843.00,0.0992
2842.00,0.1069
2841.00,0.1141
2840.00,0.1201
2839.00,0.1239
2838.00,0.1248
2837.00,0.1222
2836.00,0.1161
2835.00,0.1071
2834.00,0.0963
2833.00,0.0849
2832.00,0.0740
2831.00,0.0644
2830.00,0.0562
2829.00,0.0495
2828.00,0.0441
2827.00,0.0398
2826.00,0.0363
2825.00,0.0334
2824.00,0.0310
2823.00,0.0290
2822.00,0.0272
2821.00,0.0257
2820.00,0.0245
2819.00,0.0233
2818.00,0.0224
2817.00,0.0216
2816.00,0.0208
2815.00,0.0202
2814.00,0.0196
2813.00,0.0191
2812.00,0.0185
2811.00,0.0180
2810.00,0.0174
2809.00,0.0168
2808.00,0.0162
2807.00,0.0156
2806.00,0.0149
2805.00,0.0142
2804.00,0.0136
2803.00,0.0129
2802.00,0.0124
2801.00,0.0120
2800.00,0.0116
2799.00,0.0113
2798.00,0.0110
2797.00,0.0107
2796.00,0.0105
2795.00,0.0102
2794.00,0.0100
2793.00,0.0098
2792.00,0.0095
2791.00,0.0092
2790.00,0.0088
2789.00,0.0085
2788.00,0.0082
2787.00,0.0080
2786.00,0.0077
2785.00,0.0075
2784.00,0.0073
2783.00,0.0071
2782.00,0.0069
2781.00,0.0066
2780.00,0.0064
2779.00,0.0063
2778.00,0.0061
2777.00,0.0060
2776.00,0.0059
2775.00,0.0058
2774.00,0.0057
2773.00,0.0056
2772.00,0.0055
2771.00,0.0054
2770.00,0.0054
2769.00,0.0054
2768.00,0.0054
2767.00,0.0054
2766.00,0.0054
2765.00,0.0053
2764.00,0.0053
2763.00,0.0053
2762.00,0.0052
2761.00,0.0052
2760.00,0.0052
2759.00,0.0051
2758.00,0.0051
2757.00,0.0051
2756.00,0.0051
2755.00,0.0050
2754.00,0.0050
2753.00,0.0050
2752.00,0.0050
2751.00,0.0050
2750.00,0.0050
2749.00,0.0049
2748.00,0.0050
2747.00,0.0050
2746.00,0.0051
2745.00,0.0052
2744.00,0.0052
2743.00,0.0053
2742.00,0.0054
2741.00,0.0055
2740.00,0.0056
2739.00,0.0058
2738.00,0.0060
2737.00,0.0061
2736.00,0.0063
2735.00,0.0065
2734.00,0.0066
2733.00,0.0068
2732.00,0.0069
2731.00,0.0071
2730.00,0.0073
2729.00,0.0076
2728.00,0.0079
2727.00,0.0082
2726.00,0.0085
2725.00,0.0087
2724.00,0.0089
2723.00,0.0090
2722.00,0.0089
2721.00,0.0087
2720.00,0.0084
2719.00,0.0081
2718.00,0.0077
2717.00,0.0074
2716.00,0.0071
2715.00,0.0068
2714.00,0.0065
2713.00,0.0062
2712.00,0.0060
2711.00,0.0058
2710.00,0.0056
2709.00,0.0054
2708.00,0.0053
2707.00,0.0052
2706.00,0.0050
2705.00,0.0049
2704.00,0.0048
2703.00,0.0047
2702.00,0.0046
2701.00,0.0045
2700.00,0.0045
2699.00,0.0044
2698.00,0.0044
2697.00,0.0043
2696.00,0.0043
2695.00,0.0043
2694.00,0.0043
2693.00,0.0043
2692.00,0.0043
2691.00,0.0043
2690.00,0.0043
2689.00,0.0044
2688.00,0.0044
2687.00,0.0043
2686.00,0.0043
2685.00,0.0043
2684.00,0.0043
2683.00,0.0043
2682.00,0.0044
2681.00,0.0044
2680.00,0.0044
2679.00,0.0044
2678.00,0.0044
2677.00,0.0044
2676.00,0.0044
2675.00,0.0043
2674.00,0.0043
2673.00,0.0043
2672.00,0.0043
2671.00,0.0043
2670.00,0.0042
2669.00,0.0042
2668.00,0.0043
2667.00,0.0043
2666.00,0.0044
2665.00,0.0044
2664.00,0.0045
2663.00,0.0045
2662.00,0.0046
2661.00,0.0046
2660.00,0.0046
2659.00,0.0046
2658.00,0.0046
2657.00,0.0046
2656.00,0.0045
2655.00,0.0045
2654.00,0.0044
2653.00,0.0044
2652.00,0.0043
2651.00,0.0043
2650.00,0.0042
2649.00,0.0041
2648.00,0.0040
2647.00,0.0040
2646.00,0.0039
2645.00,0.0039
2644.00,0.0039
2643.00,0.0039
2642.00,0.0039
2641.00,0.0038
2640.00,0.0038
2639.00,0.0037
2638.00,0.0037
2637.00,0.0037
2636.00,0.0037
2635.00,0.0036
2634.00,0.0036
2633.00,0.0036
2632.00,0.0037
2631.00,0.0037
2630.00,0.0037
2629.00,0.0038
2628.00,0.0038
2627.00,0.0038
2626.00,0.0038
2625.00,0.0038
2624.00,0.0038
2623.00,0.0038
2622.00,0.0038
2621.00,0.0038
2620.00,0.0039
2619.00,0.0039
2618.00,0.0039
2617.00,0.0039
2616.00,0.0039
2615.00,0.0039
2614.00,0.0038
2613.00,0.0038
2612.00,0.0037
2611.00,0.0036
2610.00,0.0035
2609.00,0.0035
2608.00,0.0035
2607.00,0.0034
2606.00,0.0034
2605.00,0.0033
2604.00,0.0032
2603.00,0.0031
2602.00,0.0031
2601.00,0.0030
2600.00,0.0030
2599.00,0.0031
2598.00,0.0031
2597.00,0.0031
2596.00,0.0031
2595.00,0.0031
2594.00,0.0032
2593.00,0.0032
2592.00,0.0032
2591.00,0.0033
2590.00,0.0033
2589.00,0.0034
2588.00,0.0035
2587.00,0.0037
2586.00,0.0038
2585.00,0.0039
2584.00,0.0039
2583.00,0.0039
2582.00,0.0039
2581.00,0.0038
2580.00,0.0038
2579.00,0.0037
2578.00,0.0036
2577.00,0.0036
2576.00,0.0035
2575.00,0.0034
2574.00,0.0033
2573.00,0.0031
2572.00,0.0030
2571.00,0.0029
2570.00,0.0028
2569.00,0.0027
2568.00,0.0026
2567.00,0.0025
2566.00,0.0025
2565.00,0.0024
2564.00,0.0024
2563.00,0.0024
2562.00,0.0023
2561.00,0.0023
2560.00,0.0022
2559.00,0.0022
2558.00,0.0022
2557.00,0.0022
2556.00,0.0022
2555.00,0.0022
2554.00,0.0021
2553.00,0.0021
2552.00,0.0021
2551.00,0.0021
2550.00,0.0022
2549.00,0.0021
2548.00,0.0021
2547.00,0.0020
2546.00,0.0019
2545.00,0.0019
2544.00,0.0018
2543.00,0.0018
2542.00,0.0018
2541.00,0.0017
2540.00,0.0017
2539.00,0.0016
2538.00,0.0016
2537.00,0.0015
2536.00,0.0015
2535.00,0.0016
2534.00,0.0016
2533.00,0.0016
2532.00,0.0016
2531.00,0.0015
2530.00,0.0015
2529.00,0.0014
2528.00,0.0013
2527.00,0.0012
2526.00,0.0012
2525.00,0.0012
2524.00,0.0012
2523.00,0.0013
2522.00,0.0013
2521.00,0.0013
2520.00,0.0013
2519.00,0.0012
2518.00,0.0012
2517.00,0.0012
2516.00,0.0012
2515.00,0.0011
2514.00,0.0011
2513.00,0.0010
2512.00,0.0010
2511.00,0.0010
2510.00,0.0009
2509.00,0.0009
2508.00,0.0009
2507.00,0.0009
2506.00,0.0009
2505.00,0.0009
2504.00,0.0009
2503.00,0.0009
2502.00,0.0008
2501.00,0.0008
2500.00,0.0008
2499.00,0.0008
2498.00,0.0009
2497.00,0.0010
2496.00,0.0010
2495.00,0.0010
2494.00,0.0010
2493.00,0.0010
2492.00,0.0009
2491.00,0.0009
2490.00,0.0008
2489.00,0.0008
2488.00,0.0008
2487.00,0.0008
2486.00,0.0009
2485.00,0.0009
2484.00,0.0009
2483.00,0.0009
2482.00,0.0010
2481.00,0.0010
2480.00,0.0010
2479.00,0.0009
2478.00,0.0008
2477.00,0.0008
2476.00,0.0007
2475.00,0.0007
2474.00,0.0007
2473.00,0.0007
2472.00,0.0007
2471.00,0.0007
2470.00,0.0007
2469.00,0.0008
2468.00,0.0008
2467.00,0.0008
2466.00,0.0009
2465.00,0.0009
2464.00,0.0009
2463.00,0.0009
2462.00,0.0010
2461.00,0.0010
2460.00,0.0010
2459.00,0.0009
2458.00,0.0009
2457.00,0.0009
2456.00,0.0009
2455.00,0.0009
2454.00,0.0009
2453.00,0.0009
2452.00,0.0009
2451.00,0.0009
2450.00,0.0009
2449.00,0.0010
2448.00,0.0010
2447.00,0.0011
2446.00,0.0011
2445.00,0.0011
2444.00,0.0010
2443.00,0.0010
2442.00,0.0010
2441.00,0.0010
2440.00,0.0010
2439.00,0.0011
2438.00,0.0011
2437.00,0.0010
2436.00,0.0010
2435.00,0.0011
2434.00,0.0011
2433.00,0.0011
2432.00,0.0010
2431.00,0.0010
2430.00,0.0010
2429.00,0.0011
2428.00,0.0011
2427.00,0.0012
2426.00,0.0012
2425.00,0.0012
2424.00,0.0011
2423.00,0.0011
2422.00,0.0011
2421.00,0.0010
2420.00,0.0010
2419.00,0.0009
2418.00,0.0009
2417.00,0.0009
2416.00,0.0009
2415.00,0.0009
2414.00,0.0009
2413.00,0.0009
2412.00,0.0010
2411.00,0.0010
2410.00,0.0010
2409.00,0.0010
2408.00,0.0009
2407.00,0.0009
2406.00,0.0009
2405.00,0.0009
2404.00,0.0009
2403.00,0.0009
2402.00,0.0009
2401.00,0.0009
2400.00,0.0009
2399.00,0.0009
2398.00,0.0008
2397.00,0.0008
2396.00,0.0008
2395.00,0.0007
2394.00,0.0007
2393.00,0.0007
2392.00,0.0007
2391.00,0.0008
2390.00,0.0007
2389.00,0.0007
2388.00,0.0007
2387.00,0.0007
2386.00,0.0007
2385.00,0.0006
2384.00,0.0006
2383.00,0.0006
2382.00,0.0005
2381.00,0.0005
2380.00,0.0004
2379.00,0.0004
2378.00,0.0003
2377.00,0.0004
2376.00,0.0004
2375.00,0.0004
2374.00,0.0004
2373.00,0.0004
2372.00,0.0003
2371.00,0.0003
2370.00,0.0003
2369.00,0.0003
2368.00,0.0003
2367.00,0.0003
2366.00,0.0002
2365.00,0.0002
2364.00,0.0003
2363.00,0.0004
2362.00,0.0005
2361.00,0.0005
2360.00,0.0005
2359.00,0.0005
2358.00,0.0004
2357.00,0.0004
2356.00,0.0004
2355.00,0.0004
2354.00,0.0003
2353.00,0.0003
2352.00,0.0002
2351.00,0.0003
2350.00,0.0003
2349.00,0.0004
2348.00,0.0004
2347.00,0.0004
2346.00,0.0004
2345.00,0.0004
2344.00,0.0004
2343.00,0.0005
2342.00,0.0005
2341.00,0.0006
2340.00,0.0006
2339.00,0.0006
2338.00,0.0006
2337.00,0.0006
2336.00,0.0006
2335.00,0.0006
2334.00,0.0005
2333.00,0.0005
2332.00,0.0005
2331.00,0.0005
2330.00,0.0005
2329.00,0.0006
2328.00,0.0008
2327.00,0.0011
2326.00,0.0014
2325.00,0.0018
2324.00,0.0020
2323.00,0.0019
2322.00,0.0017
2321.00,0.0015
2320.00,0.0014
2319.00,0.0014
2318.00,0.0013
2317.00,0.0013
2316.00,0.0013
2315.00,0.0012
2314.00,0.0012
2313.00,0.0011
2312.00,0.0010
2311.00,0.0010
2310.00,0.0009
2309.00,0.0009
2308.00,0.0009
2307.00,0.0009
2306.00,0.0009
2305.00,0.0010
2304.00,0.0010
2303.00,0.0010
2302.00,0.0010
2301.00,0.0010
2300.00,0.0011
2299.00,0.0011
2298.00,0.0011
2297.00,0.0012
2296.00,0.0012
2295.00,0.0012
2294.00,0.0013
2293.00,0.0015
2292.00,0.0016
2291.00,0.0017
2290.00,0.0016
2289.00,0.0016
2288.00,0.0017
2287.00,0.0017
2286.00,0.0017
2285.00,0.0017
2284.00,0.0017
2283.00,0.0016
2282.00,0.0015
2281.00,0.0014
2280.00,0.0012
2279.00,0.0012
2278.00,0.0012
2277.00,0.0012
2276.00,0.0012
2275.00,0.0013
2274.00,0.0013
2273.00,0.0014
2272.00,0.0014
2271.00,0.0014
2270.00,0.0015
2269.00,0.0015
2268.00,0.0015
2267.00,0.0013
2266.00,0.0011
2265.00,0.0010
2264.00,0.0009
2263.00,0.0009
2262.00,0.0009
2261.00,0.0009
2260.00,0.0010
2259.00,0.0010
2258.00,0.0011
2257.00,0.0011
2256.00,0.0011
2255.00,0.0009
2254.00,0.0008
2253.00,0.0008
2252.00,0.0008
2251.00,0.0009
2250.00,0.0010
2249.00,0.0010
2248.00,0.0010
2247.00,0.0010
2246.00,0.0010
2245.00,0.0010
2244.00,0.0010
2243.00,0.0008
2242.00,0.0007
2241.00,0.0005
2240.00,0.0005
2239.00,0.0005
2238.00,0.0006
2237.00,0.0006
2236.00,0.0006
2235.00,0.0005
2234.00,0.0005
2233.00,0.0005
2232.00,0.0006
2231.00,0.0007
2230.00,0.0007
2229.00,0.0007
2228.00,0.0006
2227.00,0.0005
2226.00,0.0004
2225.00,0.0003
2224.00,0.0003
2223.00,0.0004
2222.00,0.0004
2221.00,0.0003
2220.00,0.0002
2219.00,0.0002
2218.00,0.0002
2217.00,0.0003
2216.00,0.0003
2215.00,0.0004
2214.00,0.0004
2213.00,0.0004
2212.00,0.0004
2211.00,0.0004
2210.00,0.0003
2209.00,0.0004
2208.00,0.0004
2207.00,0.0005
2206.00,0.0005
2205.00,0.0005
2204.00,0.0005
2203.00,0.0004
2202.00,0.0004
2201.00,0.0005
2200.00,0.0007
2199.00,0.0009
2198.00,0.0010
2197.00,0.0009
2196.00,0.0006
2195.00,0.0004
2194.00,0.0004
2193.00,0.0006
2192.00,0.0009
2191.00,0.0012
2190.00,0.0012
2189.00,0.0011
2188.00,0.0009
2187.00,0.0008
2186.00,0.0009
2185.00,0.0010
2184.00,0.0010
2183.00,0.0008
2182.00,0.0003
2181.00,-0.0001
2180.00,-0.0003
2179.00,-0.0002
2178.00,-0.0000
2177.00,0.0001
2176.00,-0.0000
2175.00,-0.0002
2174.00,-0.0003
2173.00,-0.0001
2172.00,0.0002
2171.00,0.0007
2170.00,0.0010
2169.00,0.0013
2168.00,0.0015
2167.00,0.0016
2166.00,0.0016
2165.00,0.0017
2164.00,0.0019
2163.00,0.0020
2162.00,0.0019
2161.00,0.0012
2160.00,0.0001
2159.00,-0.0013
2158.00,-0.0024
2157.00,-0.0030
2156.00,-0.0031
2155.00,-0.0029
2154.00,-0.0026
2153.00,-0.0021
2152.00,-0.0015
2151.00,-0.0010
2150.00,-0.0007
2149.00,-0.0007
2148.00,-0.0008
2147.00,-0.0010
2146.00,-0.0012
2145.00,-0.0014
2144.00,-0.0015
2143.00,-0.0015
2142.00,-0.0014
2141.00,-0.0012
2140.00,-0.0011
2139.00,-0.0011
2138.00,-0.0012
2137.00,-0.0014
2136.00,-0.0016
2135.00,-0.0017
2134.00,-0.0018
2133.00,-0.0017
2132.00,-0.0016
2131.00,-0.0014
2130.00,-0.0013
2129.00,-0.0012
2128.00,-0.0010
2127.00,-0.0007
2126.00,-0.0005
2125.00,-0.0004
2124.00,-0.0004
2123.00,-0.0006
2122.00,-0.0006
2121.00,-0.0006
2120.00,-0.0005
2119.00,-0.0003
2118.00,-0.0002
2117.00,-0.0001
2116.00,0.0000
2115.00,0.0001
2114.00,0.0002
2113.00,0.0003
2112.00,0.0004
2111.00,0.0003
2110.00,0.0001
2109.00,-0.0001
2108.00,-0.0002
2107.00,-0.0002
2106.00,-0.0001
2105.00,0.0001
2104.00,0.0003
2103.00,0.0003
2102.00,0.0003
2101.00,0.0002
2100.00,0.0002
2099.00,0.0002
2098.00,0.0002
2097.00,0.0003
2096.00,0.0002
2095.00,0.0001
2094.00,-0.0001
2093.00,-0.0002
2092.00,-0.0002
2091.00,-0.0001
2090.00,-0.0000
2089.00,0.0000
2088.00,0.0000
2087.00,0.0000
2086.00,0.0000
2085.00,0.0000
2084.00,0.0001
2083.00,0.0002
2082.00,0.0003
2081.00,0.0004
2080.00,0.0004
2079.00,0.0002
2078.00,0.0000
2077.00,-0.0001
2076.00,0.0000
2075.00,0.0002
2074.00,0.0003
2073.00,0.0003
2072.00,0.0004
2071.00,0.0004
2070.00,0.0004
2069.00,0.0004
2068.00,0.0003
2067.00,0.0001
2066.00,0.0001
2065.00,0.0001
2064.00,0.0001
2063.00,0.0002
2062.00,0.0002
2061.00,0.0001
2060.00,0.0000
2059.00,-0.0001
2058.00,-0.0002
2057.00,-0.0002
2056.00,-0.0001
2055.00,0.0001
2054.00,0.0003
2053.00,0.0006
2052.00,0.0009
2051.00,0.0011
2050.00,0.0010
2049.00,0.0008
2048.00,0.0006
2047.00,0.0005
2046.00,0.0002
2045.00,0.0001
2044.00,-0.0000
2043.00,0.0000
2042.00,0.0001
2041.00,0.0000
2040.00,-0.0001
2039.00,-0.0002
2038.00,-0.0003
2037.00,-0.0003
2036.00,-0.0005
2035.00,-0.0008
2034.00,-0.0012
2033.00,-0.0016
2032.00,-0.0017
2031.00,-0.0017
2030.00,-0.0016
2029.00,-0.0015
2028.00,-0.0014
2027.00,-0.0013
2026.00,-0.0011
2025.00,-0.0010
2024.00,-0.0010
2023.00,-0.0010
2022.00,-0.0010
2021.00,-0.0010
2020.00,-0.0009
2019.00,-0.0010
2018.00,-0.0011
2017.00,-0.0012
2016.00,-0.0012
2015.00,-0.0012
2014.00,-0.0012
2013.00,-0.0011
2012.00,-0.0010
2011.00,-0.0009
2010.00,-0.0009
2009.00,-0.0008
2008.00,-0.0010
2007.00,-0.0013
2006.00,-0.0014
2005.00,-0.0014
2004.00,-0.0012
2003.00,-0.0011
2002.00,-0.0011
2001.00,-0.0011
2000.00,-0.0012
1999.00,-0.0011
1998.00,-0.0011
1997.00,-0.0010
1996.00,-0.0011
1995.00,-0.0012
1994.00,-0.0012
1993.00,-0.0009
1992.00,-0.0005
1991.00,-0.0002
1990.00,-0.0002
1989.00,-0.0002
1988.00,-0.0002
1987.00,-0.0001
1986.00,0.0002
1985.00,0.0004
1984.00,0.0007
1983.00,0.0010
1982.00,0.0012
1981.00,0.0015
1980.00,0.0014
1979.00,0.0009
1978.00,-0.0000
1977.00,-0.0008
1976.00,-0.0013
1975.00,-0.0015
1974.00,-0.0016
1973.00,-0.0017
1972.00,-0.0018
1971.00,-0.0018
1970.00,-0.0019
1969.00,-0.0018
1968.00,-0.0016
1967.00,-0.0016
1966.00,-0.0016
1965.00,-0.0017
1964.00,-0.0017
1963.00,-0.0015
1962.00,-0.0013
1961.00,-0.0013
1960.00,-0.0015
1959.00,-0.0018
1958.00,-0.0019
1957.00,-0.0018
1956.00,-0.0015
1955.00,-0.0012
1954.00,-0.0011
1953.00,-0.0011
1952.00,-0.0013
1951.00,-0.0014
1950.00,-0.0015
1949.00,-0.0015
1948.00,-0.0015
1947.00,-0.0015
1946.00,-0.0016
1945.00,-0.0017
1944.00,-0.0017
1943.00,-0.0017
1942.00,-0.0017
1941.00,-0.0016
1940.00,-0.0016
1939.00,-0.0016
1938.00,-0.0016
1937.00,-0.0013
1936.00,-0.0011
1935.00,-0.0010
1934.00,-0.0010
1933.00,-0.0011
1932.00,-0.0011
1931.00,-0.0010
1930.00,-0.0009
1929.00,-0.0008
1928.00,-0.0006
1927.00,-0.0006
1926.00,-0.0006
1925.00,-0.0006
1924.00,-0.0006
1923.00,-0.0006
1922.00,-0.0005
1921.00,-0.0005
1920.00,-0.0004
1919.00,-0.0003
1918.00,-0.0002
1917.00,-0.0002
1916.00,-0.0001
1915.00,-0.0001
1914.00,-0.0001
1913.00,-0.0002
1912.00,-0.0003
1911.00,-0.0004
1910.00,-0.0004
1909.00,-0.0004
1908.00,-0.0003
1907.00,-0.0003
1906.00,-0.0003
1905.00,-0.0003
1904.00,-0.0002
1903.00,-0.0001
1902.00,-0.0001
1901.00,-0.0001
1900.00,-0.0002
1899.00,-0.0001
1898.00,-0.0001
1897.00,0.0000
1896.00,0.0001
1895.00,0.0001
1894.00,0.0000
1893.00,-0.0000
1892.00,-0.0001
1891.00,-0.0002
1890.00,-0.0002
1889.00,-0.0002
1888.00,-0.0001
1887.00,-0.0000
1886.00,-0.0001
1885.00,-0.0001
1884.00,-0.0001
1883.00,-0.0001
1882.00,-0.0001
1881.00,-0.0002
1880.00,-0.0002
1879.00,-0.0002
1878.00,-0.0002
1877.00,-0.0002
1876.00,-0.0002
1875.00,-0.0001
1874.00,-0.0000
1873.00,0.0000
1872.00,0.0001
1871.00,0.0001
1870.00,0.0001
1869.00,0.0001
1868.00,0.0001
1867.00,0.0001
1866.00,0.0000
1865.00,0.0000
1864.00,0.0000
1863.00,0.0000
1862.00,0.0001
1861.00,0.0001
1860.00,0.0000
1859.00,-0.0000
1858.00,-0.0000
1857.00,-0.0000
1856.00,0.0000
1855.00,0.0000
1854.00,0.0000
1853.00,-0.0000
1852.00,-0.0000
1851.00,0.0000
1850.00,0.0001
1849.00,0.0001
1848.00,0.0002
1847.00,0.0002
1846.00,0.0002
1845.00,0.0002
1844.00,0.0002
1843.00,0.0001
1842.00,0.0000
1841.00,-0.0000
1840.00,-0.0001
1839.00,-0.0001
1838.00,-0.0000
1837.00,-0.0000
1836.00,0.0000
1835.00,0.0001
1834.00,0.0001
1833.00,0.0001
1832.00,0.0001
1831.00,0.0002
1830.00,0.0003
1829.00,0.0003
1828.00,0.0003
1827.00,0.0002
1826.00,0.0002
1825.00,0.0003
1824.00,0.0003
1823.00,0.0004
1822.00,0.0004
1821.00,0.0003
1820.00,0.0002
1819.00,0.0001
1818.00,-0.0001
1817.00,-0.0002
1816.00,-0.0002
1815.00,-0.0001
1814.00,0.0000
1813.00,0.0001
1812.00,0.0002
1811.00,0.0002
1810.00,0.0003
1809.00,0.0004
1808.00,0.0004
1807.00,0.0005
1806.00,0.0005
1805.00,0.0004
1804.00,0.0004
1803.00,0.0004
1802.00,0.0003
1801.00,0.0003
1800.00,0.0004
1799.00,0.0004
1798.00,0.0004
1797.00,0.0004
1796.00,0.0004
1795.00,0.0004
1794.00,0.0004
1793.00,0.0005
1792.00,0.0006
1791.00,0.0006
1790.00,0.0006
1789.00,0.0007
1788.00,0.0007
1787.00,0.0007
1786.00,0.0008
1785.00,0.0008
1784.00,0.0008
1783.00,0.0007
1782.00,0.0007
1781.00,0.0007
1780.00,0.0008
1779.00,0.0008
1778.00,0.0007
1777.00,0.0007
1776.00,0.0007
1775.00,0.0007
1774.00,0.0008
1773.00,0.0009
1772.00,0.0009
1771.00,0.0009
1770.00,0.0009
1769.00,0.0009
1768.00,0.0009
1767.00,0.0010
1766.00,0.0010
1765.00,0.0011
1764.00,0.0011
1763.00,0.0011
1762.00,0.0011
1761.00,0.0010
1760.00,0.0010
1759.00,0.0011
1758.00,0.0011
1757.00,0.0012
1756.00,0.0012
1755.00,0.0012
1754.00,0.0013
1753.00,0.0013
1752.00,0.0014
1751.00,0.0015
1750.00,0.0016
1749.00,0.0017
1748.00,0.0018
1747.00,0.0019
1746.00,0.0019
1745.00,0.0020
1744.00,0.0020
1743.00,0.0021
1742.00,0.0022
1741.00,0.0023
1740.00,0.0024
1739.00,0.0024
1738.00,0.0024
1737.00,0.0024
1736.00,0.0024
1735.00,0.0025
1734.00,0.0025
1733.00,0.0025
1732.00,0.0025
1731.00,0.0025
1730.00,0.0025
1729.00,0.0024
1728.00,0.0024
1727.00,0.0024
1726.00,0.0024
1725.00,0.0024
1724.00,0.0023
1723.00,0.0023
1722.00,0.0022
1721.00,0.0022
1720.00,0.0022
1719.00,0.0022
1718.00,0.0022
1717.00,0.0021
1716.00,0.0022
1715.00,0.0022
1714.00,0.0023
1713.00,0.0023
1712.00,0.0023
1711.00,0.0023
1710.00,0.0023
1709.00,0.0023
1708.00,0.0023
1707.00,0.0023
1706.00,0.0023
1705.00,0.0023
1704.00,0.0024
1703.00,0.0024
1702.00,0.0024
1701.00,0.0025
1700.00,0.0025
1699.00,0.0025
1698.00,0.0025
1697.00,0.0025
1696.00,0.0026
1695.00,0.0027
1694.00,0.0028
1693.00,0.0028
1692.00,0.0029
1691.00,0.0029
1690.00,0.0029
1689.00,0.0030
1688.00,0.0030
1687.00,0.0030
1686.00,0.0030
1685.00,0.0030
1684.00,0.0031
1683.00,0.0032
1682.00,0.0033
1681.00,0.0034
1680.00,0.0035
1679.00,0.0036
1678.00,0.0036
1677.00,0.0037
1676.00,0.0038
1675.00,0.0039
1674.00,0.0040
1673.00,0.0040
1672.00,0.0040
1671.00,0.0040
1670.00,0.0040
1669.00,0.0041
1668.00,0.0042
1667.00,0.0043
1666.00,0.0043
1665.00,0.0043
1664.00,0.0043
1663.00,0.0044
1662.00,0.0044
1661.00,0.0045
1660.00,0.0046
1659.00,0.0046
1658.00,0.0046
1657.00,0.0047
1656.00,0.0047
1655.00,0.0048
1654.00,0.0049
1653.00,0.0050
1652.00,0.0050
1651.00,0.0051
1650.00,0.0051
1649.00,0.0052
1648.00,0.0053
1647.00,0.0054
1646.00,0.0054
1645.00,0.0054
1644.00,0.0054
1643.00,0.0055
1642.00,0.0055
1641.00,0.0055
1640.00,0.0055
1639.00,0.0054
1638.00,0.0054
1637.00,0.0053
1636.00,0.0053
1635.00,0.0053
1634.00,0.0053
1633.00,0.0053
1632.00,0.0053
1631.00,0.0053
1630.00,0.0053
1629.00,0.0053
1628.00,0.0053
1627.00,0.0052
1626.00,0.0051
1625.00,0.0051
1624.00,0.0051
1623.00,0.0051
1622.00,0.0051
1621.00,0.0051
1620.00,0.0051
1619.00,0.0052
1618.00,0.0052
1617.00,0.0052
1616.00,0.0052
1615.00,0.0052
1614.00,0.0052
1613.00,0.0052
1612.00,0.0052
1611.00,0.0051
1610.00,0.0051
1609.00,0.0051
1608.00,0.0051
1607.00,0.0051
1606.00,0.0051
1605.00,0.0051
1604.00,0.0051
1603.00,0.0051
1602.00,0.0051
1601.00,0.0051
1600.00,0.0051
1599.00,0.0051
1598.00,0.0051
1597.00,0.0051
1596.00,0.0051
1595.00,0.0051
1594.00,0.0050
1593.00,0.0050
1592.00,0.0050
1591.00,0.0050
1590.00,0.0049
1589.00,0.0049
1588.00,0.0049
1587.00,0.0050
1586.00,0.0050
1585.00,0.0051
1584.00,0.0051
1583.00,0.0051
1582.00,0.0050
1581.00,0.0051
1580.00,0.0051
1579.00,0.0052
1578.00,0.0052
1577.00,0.0053
1576.00,0.0053
1575.00,0.0052
1574.00,0.0051
1573.00,0.0051
1572.00,0.0051
1571.00,0.0051
1570.00,0.0052
1569.00,0.0052
1568.00,0.0052
1567.00,0.0052
1566.00,0.0052
1565.00,0.0051
1564.00,0.0052
1563.00,0.0052
1562.00,0.0052
1561.00,0.0052
1560.00,0.0054
1559.00,0.0055
1558.00,0.0054
1557.00,0.0054
1556.00,0.0055
1555.00,0.0056
1554.00,0.0057
1553.00,0.0058
1552.00,0.0059
1551.00,0.0059
1550.00,0.0059
1549.00,0.0059
1548.00,0.0059
1547.00,0.0059
1546.00,0.0059
1545.00,0.0060
1544.00,0.0060
1543.00,0.0060
1542.00,0.0059
1541.00,0.0059
1540.00,0.0059
1539.00,0.0057
1538.00,0.0056
1537.00,0.0055
1536.00,0.0055
1535.00,0.0054
1534.00,0.0053
1533.00,0.0052
1532.00,0.0052
1531.00,0.0051
1530.00,0.0050
1529.00,0.0050
1528.00,0.0049
1527.00,0.0049
1526.00,0.0049
1525.00,0.0049
1524.00,0.0050
1523.00,0.0050
1522.00,0.0051
1521.00,0.0051
1520.00,0.0051
1519.00,0.0051
1518.00,0.0050
1517.00,0.0051
1516.00,0.0051
1515.00,0.0052
1514.00,0.0052
1513.00,0.0054
1512.00,0.0055
1511.00,0.0056
1510.00,0.0057
1509.00,0.0058
1508.00,0.0059
1507.00,0.0059
1506.00,0.0059
1505.00,0.0061
1504.00,0.0063
1503.00,0.0064
1502.00,0.0066
1501.00,0.0068
1500.00,0.0070
1499.00,0.0071
1498.00,0.0073
1497.00,0.0076
1496.00,0.0079
1495.00,0.0082
1494.00,0.0084
1493.00,0.0086
1492.00,0.0090
1491.00,0.0093
1490.00,0.0097
1489.00,0.0102
1488.00,0.0108
1487.00,0.0112
1486.00,0.0117
1485.00,0.0123
1484.00,0.0129
1483.00,0.0136
1482.00,0.0144
1481.00,0.0154
1480.00,0.0165
1479.00,0.0177
1478.00,0.0191
1477.00,0.0210
1476.00,0.0233
1475.00,0.0258
1474.00,0.0293
1473.00,0.0346
1472.00,0.0411
1471.00,0.0475
1470.00,0.0537
1469.00,0.0603
1468.00,0.0674
1467.00,0.0754
1466.00,0.0846
1465.00,0.0947
1464.00,0.1037
1463.00,0.1101
1462.00,0.1144
1461.00,0.1175
1460.00,0.1199
1459.00,0.1216
1458.00,0.1232
1457.00,0.1245
1456.00,0.1250
1455.00,0.1246
1454.00,0.1238
1453.00,0.1223
1452.00,0.1198
1451.00,0.1160
1450.00,0.1104
1449.00,0.1027
1448.00,0.0928
1447.00,0.0823
1446.00,0.0730
1445.00,0.0652
1444.00,0.0586
1443.00,0.0533
1442.00,0.0494
1441.00,0.0468
1440.00,0.0454
1439.00,0.0449
1438.00,0.0451
1437.00,0.0455
1436.00,0.0446
1435.00,0.0420
1434.00,0.0380
1433.00,0.0333
1432.00,0.0284
1431.00,0.0241
1430.00,0.0208
1429.00,0.0184
1428.00,0.0168
1427.00,0.0158
1426.00,0.0152
1425.00,0.0146
1424.00,0.0141
1423.00,0.0138
1422.00,0.0136
1421.00,0.0134
1420.00,0.0131
1419.00,0.0129
1418.00,0.0127
1417.00,0.0124
1416.00,0.0122
1415.00,0.0121
1414.00,0.0120
1413.00,0.0119
1412.00,0.0117
1411.00,0.0117
1410.00,0.0117
1409.00,0.0116
1408.00,0.0114
1407.00,0.0114
1406.00,0.0114
1405.00,0.0114
1404.00,0.0114
1403.00,0.0115
1402.00,0.0117
1401.00,0.0119
1400.00,0.0120
1399.00,0.0122
1398.00,0.0125
1397.00,0.0127
1396.00,0.0129
1395.00,0.0133
1394.00,0.0138
1393.00,0.0144
1392.00,0.0150
1391.00,0.0159
1390.00,0.0171
1389.00,0.0187
1388.00,0.0212
1387.00,0.0249
1386.00,0.0299
1385.00,0.0362
1384.00,0.0445
1383.00,0.0559
1382.00,0.0711
1381.00,0.0909
1380.00,0.1157
1379.00,0.1445
1378.00,0.1733
1377.00,0.1956
1376.00,0.2049
1375.00,0.1967
1374.00,0.1731
1373.00,0.1434
1372.00,0.1155
1371.00,0.0924
1370.00,0.0738
1369.00,0.0596
1368.00,0.0498
1367.00,0.0437
1366.00,0.0405
1365.00,0.0392
1364.00,0.0396
1363.00,0.0412
1362.00,0.0436
1361.00,0.0462
1360.00,0.0481
1359.00,0.0487
1358.00,0.0474
1357.00,0.0445
1356.00,0.0404
1355.00,0.0357
1354.00,0.0313
1353.00,0.0274
1352.00,0.0243
1351.00,0.0218
1350.00,0.0198
1349.00,0.0183
1348.00,0.0170
1347.00,0.0160
1346.00,0.0152
1345.00,0.0146
1344.00,0.0140
1343.00,0.0136
1342.00,0.0133
1341.00,0.0131
1340.00,0.0129
1339.00,0.0126
1338.00,0.0125
1337.00,0.0124
1336.00,0.0124
1335.00,0.0126
1334.00,0.0129
1333.00,0.0134
1332.00,0.0139
1331.00,0.0143
1330.00,0.0145
1329.00,0.0143
1328.00,0.0139
1327.00,0.0133
1326.00,0.0126
1325.00,0.0119
1324.00,0.0112
1323.00,0.0107
1322.00,0.0103
1321.00,0.0099
1320.00,0.0097
1319.00,0.0095
1318.00,0.0092
1317.00,0.0090
1316.00,0.0089
1315.00,0.0088
1314.00,0.0088
1313.00,0.0088
1312.00,0.0089
1311.00,0.0092
1310.00,0.0096
1309.00,0.0102
1308.00,0.0111
1307.00,0.0121
1306.00,0.0131
1305.00,0.0137
1304.00,0.0140
1303.00,0.0139
1302.00,0.0135
1301.00,0.0132
1300.00,0.0130
1299.00,0.0130
1298.00,0.0131
1297.00,0.0132
1296.00,0.0132
1295.00,0.0129
1294.00,0.0124
1293.00,0.0119
1292.00,0.0113
1291.00,0.0108
1290.00,0.0103
1289.00,0.0099
1288.00,0.0096
1287.00,0.0093
1286.00,0.0091
1285.00,0.0089
1284.00,0.0087
1283.00,0.0085
1282.00,0.0083
1281.00,0.0081
1280.00,0.0080
1279.00,0.0079
1278.00,0.0079
1277.00,0.0078
1276.00,0.0078
1275.00,0.0077
1274.00,0.0077
1273.00,0.0078
1272.00,0.0078
1271.00,0.0078
1270.00,0.0079
1269.00,0.0079
1268.00,0.0079
1267.00,0.0080
1266.00,0.0082
1265.00,0.0084
1264.00,0.0086
1263.00,0.0089
1262.00,0.0092
1261.00,0.0096
1260.00,0.0102
1259.00,0.0109
1258.00,0.0116
1257.00,0.0122
1256.00,0.0125
1255.00,0.0124
1254.00,0.0119
1253.00,0.0112
1252.00,0.0105
1251.00,0.0100
1250.00,0.0095
1249.00,0.0092
1248.00,0.0089
1247.00,0.0087
1246.00,0.0086
1245.00,0.0084
1244.00,0.0083
1243.00,0.0083
1242.00,0.0082
1241.00,0.0081
1240.00,0.0081
1239.00,0.0080
1238.00,0.0080
1237.00,0.0080
1236.00,0.0079
1235.00,0.0079
1234.00,0.0078
1233.00,0.0078
1232.00,0.0078
1231.00,0.0078
1230.00,0.0079
1229.00,0.0080
1228.00,0.0082
1227.00,0.0083
1226.00,0.0084
1225.00,0.0086
1224.00,0.0089
1223.00,0.0093
1222.00,0.0097
1221.00,0.0099
1220.00,0.0101
1219.00,0.0102
1218.00,0.0101
1217.00,0.0099
1216.00,0.0097
1215.00,0.0094
1214.00,0.0092
1213.00,0.0089
1212.00,0.0087
1211.00,0.0084
1210.00,0.0082
1209.00,0.0080
1208.00,0.0078
1207.00,0.0076
1206.00,0.0075
1205.00,0.0074
1204.00,0.0074
1203.00,0.0074
1202.00,0.0074
1201.00,0.0074
1200.00,0.0074
1199.00,0.0074
1198.00,0.0073
1197.00,0.0073
1196.00,0.0073
1195.00,0.0073
1194.00,0.0073
1193.00,0.0073
1192.00,0.0073
1191.00,0.0073
1190.00,0.0074
1189.00,0.0075
1188.00,0.0075
1187.00,0.0076
1186.00,0.0078
1185.00,0.0079
1184.00,0.0081
1183.00,0.0082
1182.00,0.0084
1181.00,0.0086
1180.00,0.0089
1179.00,0.0093
1178.00,0.0100
1177.00,0.0108
1176.00,0.0118
1175.00,0.0133
1174.00,0.0152
1173.00,0.0176
1172.00,0.0204
1171.00,0.0235
1170.00,0.0265
1169.00,0.0290
1168.00,0.0305
1167.00,0.0310
1166.00,0.0304
1165.00,0.0292
1164.00,0.0276
1163.00,0.0260
1162.00,0.0245
1161.00,0.0232
1160.00,0.0222
1159.00,0.0214
1158.00,0.0208
1157.00,0.0203
1156.00,0.0200
1155.00,0.0197
1154.00,0.0196
1153.00,0.0193
1152.00,0.0190
1151.00,0.0184
1150.00,0.0176
1149.00,0.0167
1148.00,0.0157
1147.00,0.0148
1146.00,0.0140
1145.00,0.0132
1144.00,0.0125
1143.00,0.0119
1142.00,0.0112
1141.00,0.0106
1140.00,0.0101
1139.00,0.0097
1138.00,0.0093
1137.00,0.0090
1136.00,0.0089
1135.00,0.0087
1134.00,0.0086
1133.00,0.0085
1132.00,0.0083
1131.00,0.0083
1130.00,0.0083
1129.00,0.0083
1128.00,0.0084
1127.00,0.0085
1126.00,0.0086
1125.00,0.0087
1124.00,0.0087
1123.00,0.0087
1122.00,0.0087
1121.00,0.0087
1120.00,0.0088
1119.00,0.0089
1118.00,0.0091
1117.00,0.0091
1116.00,0.0092
1115.00,0.0094
1114.00,0.0095
1113.00,0.0097
1112.00,0.0098
1111.00,0.0100
1110.00,0.0104
1109.00,0.0109
1108.00,0.0115
1107.00,0.0122
1106.00,0.0129
1105.00,0.0136
1104.00,0.0141
1103.00,0.0144
1102.00,0.0145
1101.00,0.0142
1100.00,0.0138
1099.00,0.0131
1098.00,0.0125
1097.00,0.0118
1096.00,0.0113
1095.00,0.0108
1094.00,0.0104
1093.00,0.0101
1092.00,0.0099
1091.00,0.0096
1090.00,0.0094
1089.00,0.0092
1088.00,0.0089
1087.00,0.0088
1086.00,0.0087
1085.00,0.0086
1084.00,0.0086
1083.00,0.0085
1082.00,0.0084
1081.00,0.0083
1080.00,0.0082
1079.00,0.0081
1078.00,0.0081
1077.00,0.0081
1076.00,0.0081
1075.00,0.0081
1074.00,0.0081
1073.00,0.0081
1072.00,0.0081
1071.00,0.0081
1070.00,0.0081
1069.00,0.0080
1068.00,0.0080
1067.00,0.0080
1066.00,0.0081
1065.00,0.0082
1064.00,0.0083
1063.00,0.0084
1062.00,0.0084
1061.00,0.0083
1060.00,0.0083
1059.00,0.0084
1058.00,0.0085
1057.00,0.0086
1056.00,0.0086
1055.00,0.0087
1054.00,0.0088
1053.00,0.0089
1052.00,0.0090
1051.00,0.0090
1050.00,0.0091
1049.00,0.0093
1048.00,0.0095
1047.00,0.0098
1046.00,0.0101
1045.00,0.0102
1044.00,0.0102
1043.00,0.0101
1042.00,0.0098
1041.00,0.0096
1040.00,0.0094
1039.00,0.0094
1038.00,0.0094
1037.00,0.0093
1036.00,0.0092
1035.00,0.0091
1034.00,0.0090
1033.00,0.0089
1032.00,0.0089
1031.00,0.0090
1030.00,0.0090
1029.00,0.0090
1028.00,0.0089
1027.00,0.0089
1026.00,0.0089
1025.00,0.0089
1024.00,0.0089
1023.00,0.0089
1022.00,0.0088
1021.00,0.0087
1020.00,0.0087
1019.00,0.0087
1018.00,0.0088
1017.00,0.0090
1016.00,0.0092
1015.00,0.0095
1014.00,0.0097
1013.00,0.0100
1012.00,0.0103
1011.00,0.0105
1010.00,0.0108
1009.00,0.0113
1008.00,0.0118
1007.00,0.0125
1006.00,0.0133
1005.00,0.0144
1004.00,0.0159
1003.00,0.0179
1002.00,0.0207
1001.00,0.0240
1000.00,0.0275
999.00,0.0304
998.00,0.0319
997.00,0.0313
996.00,0.0289
995.00,0.0254
994.00,0.0217
993.00,0.0185
992.00,0.0160
991.00,0.0142
990.00,0.0129
989.00,0.0120
988.00,0.0114
987.00,0.0112
986.00,0.0112
985.00,0.0115
984.00,0.0121
983.00,0.0129
982.00,0.0140
981.00,0.0155
980.00,0.0176
979.00,0.0203
978.00,0.0237
977.00,0.0277
976.00,0.0320
975.00,0.0360
974.00,0.0389
973.00,0.0399
972.00,0.0384
971.00,0.0348
970.00,0.0300
969.00,0.0251
968.00,0.0210
967.00,0.0178
966.00,0.0154
965.00,0.0137
964.00,0.0124
963.00,0.0113
962.00,0.0105
961.00,0.0099
960.00,0.0095
959.00,0.0092
958.00,0.0089
957.00,0.0086
956.00,0.0083
955.00,0.0081
954.00,0.0080
953.00,0.0079
952.00,0.0079
951.00,0.0079
950.00,0.0079
949.00,0.0079
948.00,0.0079
947.00,0.0080
946.00,0.0082
945.00,0.0085
944.00,0.0088
943.00,0.0091
942.00,0.0094
941.00,0.0094
940.00,0.0093
939.00,0.0090
938.00,0.0086
937.00,0.0082
936.00,0.0078
935.00,0.0074
934.00,0.0071
933.00,0.0069
932.00,0.0067
931.00,0.0066
930.00,0.0066
929.00,0.0065
928.00,0.0063
927.00,0.0062
926.00,0.0061
925.00,0.0061
924.00,0.0062
923.00,0.0063
922.00,0.0065
921.00,0.0066
920.00,0.0067
919.00,0.0068
918.00,0.0068
917.00,0.0069
916.00,0.0070
915.00,0.0071
914.00,0.0071
913.00,0.0071
912.00,0.0071
911.00,0.0073
910.00,0.0074
909.00,0.0077
908.00,0.0079
907.00,0.0083
906.00,0.0089
905.00,0.0101
904.00,0.0117
903.00,0.0138
902.00,0.0160
901.00,0.0180
900.00,0.0193
899.00,0.0196
898.00,0.0190
897.00,0.0174
896.00,0.0153
895.00,0.0133
894.00,0.0115
893.00,0.0102
892.00,0.0093
891.00,0.0087
890.00,0.0083
889.00,0.0080
888.00,0.0077
887.00,0.0074
886.00,0.0071
885.00,0.0068
884.00,0.0066
883.00,0.0066
882.00,0.0067
881.00,0.0067
880.00,0.0067
879.00,0.0067
878.00,0.0068
877.00,0.0069
876.00,0.0071
875.00,0.0073
874.00,0.0074
873.00,0.0074
872.00,0.0073
871.00,0.0073
870.00,0.0073
869.00,0.0073
868.00,0.0073
867.00,0.0073
866.00,0.0073
865.00,0.0074
864.00,0.0075
863.00,0.0076
862.00,0.0077
861.00,0.0077
860.00,0.0078
859.00,0.0080
858.00,0.0082
857.00,0.0085
856.00,0.0087
855.00,0.0089
854.00,0.0091
853.00,0.0093
852.00,0.0096
851.00,0.0100
850.00,0.0106
849.00,0.0113
848.00,0.0122
847.00,0.0135
846.00,0.0155
845.00,0.0185
844.00,0.0224
843.00,0.0266
842.00,0.0297
841.00,0.0304
840.00,0.0283
839.00,0.0244
838.00,0.0202
837.00,0.0169
836.00,0.0148
835.00,0.0135
834.00,0.0127
833.00,0.0121
832.00,0.0116
831.00,0.0111
830.00,0.0108
829.00,0.0105
828.00,0.0103
827.00,0.0101
826.00,0.0100
825.00,0.0100
824.00,0.0100
823.00,0.0100
822.00,0.0099
821.00,0.0100
820.00,0.0102
819.00,0.0106
818.00,0.0111
817.00,0.0118
816.00,0.0127
815.00,0.0138
814.00,0.0152
813.00,0.0168
812.00,0.0185
811.00,0.0199
810.00,0.0210
809.00,0.0215
808.00,0.0214
807.00,0.0205
806.00,0.0192
805.00,0.0175
804.00,0.0159
803.00,0.0144
802.00,0.0132
801.00,0.0123
800.00,0.0114
799.00,0.0107
798.00,0.0102
797.00,0.0099
796.00,0.0097
795.00,0.0094
794.00,0.0091
793.00,0.0088
792.00,0.0086
791.00,0.0085
790.00,0.0083
789.00,0.0081
788.00,0.0079
787.00,0.0076
786.00,0.0073
785.00,0.0071
784.00,0.0069
783.00,0.0067
782.00,0.0065
781.00,0.0063
780.00,0.0062
779.00,0.0060
778.00,0.0058
777.00,0.0057
776.00,0.0057
775.00,0.0057
774.00,0.0058
773.00,0.0060
772.00,0.0062
771.00,0.0065
770.00,0.0068
769.00,0.0070
768.00,0.0072
767.00,0.0072
766.00,0.0071
765.00,0.0070
764.00,0.0068
763.00,0.0065
762.00,0.0062
761.00,0.0060
760.00,0.0058
759.00,0.0057
758.00,0.0056
757.00,0.0056
756.00,0.0056
755.00,0.0057
754.00,0.0057
753.00,0.0057
752.00,0.0055
751.00,0.0054
750.00,0.0054
749.00,0.0055
748.00,0.0056
747.00,0.0057
746.00,0.0057
745.00,0.0057
744.00,0.0057
743.00,0.0059
742.00,0.0061
741.00,0.0062
740.00,0.0064
739.00,0.0065
738.00,0.0068
737.00,0.0071
736.00,0.0074
735.00,0.0079
734.00,0.0082
733.00,0.0084
732.00,0.0084
731.00,0.0082
730.00,0.0079
729.00,0.0076
728.00,0.0073
727.00,0.0070
726.00,0.0068
725.00,0.0067
724.00,0.0067
723.00,0.0068
722.00,0.0068
721.00,0.0068
720.00,0.0067
719.00,0.0065
718.00,0.0063
717.00,0.0061
716.00,0.0060
715.00,0.0060
714.00,0.0060
713.00,0.0061
712.00,0.0061
711.00,0.0060
710.00,0.0059
709.00,0.0057
708.00,0.0057
707.00,0.0058
706.00,0.0059
705.00,0.0060
704.00,0.0059
703.00,0.0058
702.00,0.0058
701.00,0.0058
700.00,0.0058
699.00,0.0056
698.00,0.0054
697.00,0.0053
696.00,0.0053
695.00,0.0053
694.00,0.0054
693.00,0.0054
692.00,0.0054
691.00,0.0053
690.00,0.0052
689.00,0.0051
688.00,0.0049
687.00,0.0049
686.00,0.0049
685.00,0.0051
684.00,0.0052
683.00,0.0053
682.00,0.0052
681.00,0.0051
680.00,0.0050
679.00,0.0050
678.00,0.0050
677.00,0.0050
676.00,0.0051
675.00,0.0051
674.00,0.0052
673.00,0.0052
672.00,0.0053
671.00,0.0053
670.00,0.0053
669.00,0.0051
668.00,0.0048
667.00,0.0048
666.00,0.0050
665.00,0.0053
664.00,0.0055
663.00,0.0055
662.00,0.0053
661.00,0.0051
660.00,0.0049
659.00,0.0049
658.00,0.0049
657.00,0.0049
656.00,0.0049
655.00,0.0049
654.00,0.0048
653.00,0.0049
652.00,0.0050
651.00,0.0053
650.00,0.0055
649.00,0.0057
648.00,0.0057
647.00,0.0056
646.00,0.0055
645.00,0.0054
644.00,0.0053
643.00,0.0053
642.00,0.0054
641.00,0.0055
640.00,0.0057
639.00,0.0058
638.00,0.0059
637.00,0.0059
636.00,0.0058
635.00,0.0057
634.00,0.0058
633.00,0.0059
632.00,0.0060
631.00,0.0059
630.00,0.0058
629.00,0.0056
628.00,0.0056
627.00,0.0056
626.00,0.0056
625.00,0.0056
624.00,0.0055
623.00,0.0054
622.00,0.0054
621.00,0.0053
620.00,0.0052
619.00,0.0054
618.00,0.0057
617.00,0.0059
616.00,0.0059
615.00,0.0058
614.00,0.0056
613.00,0.0055
612.00,0.0054
611.00,0.0055
610.00,0.0056
609.00,0.0056
608.00,0.0054
607.00,0.0053
606.00,0.0054
605.00,0.0055
604.00,0.0058
603.00,0.0059
602.00,0.0058
601.00,0.0055
600.00,0.0050
599.00,0.0046
598.00,0.0046
597.00,0.0049
596.00,0.0052
595.00,0.0056
594.00,0.0058
593.00,0.0060
592.00,0.0060
591.00,0.0059
590.00,0.0059
589.00,0.0059
588.00,0.0059
587.00,0.0058
586.00,0.0057
585.00,0.0057
584.00,0.0058
583.00,0.0060
582.00,0.0063
581.00,0.0067
580.00,0.0068
579.00,0.0066
578.00,0.0062
577.00,0.0059
576.00,0.0059
575.00,0.0061
574.00,0.0063
573.00,0.0064
572.00,0.0063
571.00,0.0061
570.00,0.0060
569.00,0.0060
568.00,0.0058
567.00,0.0056
566.00,0.0055
565.00,0.0056
564.00,0.0058
563.00,0.0061
562.00,0.0061
561.00,0.0058
560.00,0.0055
559.00,0.0051
558.00,0.0048
557.00,0.0048
556.00,0.0052
555.00,0.0057
554.00,0.0062
553.00,0.0065
552.00,0.0067
551.00,0.0067
550.00,0.0067
549.00,0.0066
548.00,0.0065
547.00,0.0065
546.00,0.0067
545.00,0.0069
544.00,0.0069
543.00,0.0067
542.00,0.0065
541.00,0.0064
540.00,0.0066
539.00,0.0070
538.00,0.0075
537.00,0.0079
536.00,0.0081
535.00,0.0083
534.00,0.0084
533.00,0.0086
532.00,0.0088
531.00,0.0088
530.00,0.0087
529.00,0.0084
528.00,0.0081
527.00,0.0081
526.00,0.0083
525.00,0.0085
524.00,0.0086
523.00,0.0084
522.00,0.0081
521.00,0.0080
520.00,0.0079
519.00,0.0077
518.00,0.0073
517.00,0.0067
516.00,0.0065
515.00,0.0064
514.00,0.0065
513.00,0.0065
512.00,0.0066
511.00,0.0068
510.00,0.0071
509.00,0.0072
508.00,0.0071
507.00,0.0068
506.00,0.0063
505.00,0.0059
504.00,0.0056
503.00,0.0052
502.00,0.0049
501.00,0.0051
500.00,0.0057
499.00,0.0065
498.00,0.0070
497.00,0.0071
496.00,0.0070
495.00,0.0071
494.00,0.0071
493.00,0.0072
492.00,0.0073
491.00,0.0076
490.00,0.0076
489.00,0.0071
488.00,0.0064
487.00,0.0059
486.00,0.0056
485.00,0.0056
484.00,0.0057
483.00,0.0061
482.00,0.0067
481.00,0.0072
480.00,0.0073
479.00,0.0069
478.00,0.0061
477.00,0.0055
476.00,0.0056
475.00,0.0065
474.00,0.0076
473.00,0.0082
472.00,0.0081
471.00,0.0079
470.00,0.0079
469.00,0.0081
468.00,0.0084
467.00,0.0091
466.00,0.0101
465.00,0.0114
464.00,0.0127
463.00,0.0141
462.00,0.0156
461.00,0.0167
460.00,0.0171
459.00,0.0161
458.00,0.0142
457.00,0.0120
456.00,0.0106
455.00,0.0100
454.00,0.0099
453.00,0.0098
452.00,0.0098
451.00,0.0097
450.00,0.0091
