Created as New Dataset,Sample 035 By Administrator Date Wednesday, September 10 2025
cm-1,A
4000.00,0.0008
3999.00,0.0008
3998.00,0.0008
3997.00,0.0008
3996.00,0.0008
3995.00,0.0008
3994.00,0.0008
3993.00,0.0008
3992.00,0.0008
3991.00,0.0008
3990.00,0.0008
3989.00,0.0008
3988.00,0.0008
3987.00,0.0008
3986.00,0.0008
3985.00,0.0008
3984.00,0.0008
3983.00,0.0008
3982.00,0.0008
3981.00,0.0008
3980.00,0.0008
3979.00,0.0008
3978.00,0.0007
3977.00,0.0007
3976.00,0.0007
3975.00,0.0007
3974.00,0.0007
3973.00,0.0007
3972.00,0.0007
3971.00,0.0007
3970.00,0.0006
3969.00,0.0006
3968.00,0.0005
3967.00,0.0005
3966.00,0.0005
3965.00,0.0005
3964.00,0.0006
3963.00,0.0006
3962.00,0.0006
3961.00,0.0006
3960.00,0.0006
3959.00,0.0006
3958.00,0.0005
3957.00,0.0005
3956.00,0.0005
3955.00,0.0005
3954.00,0.0006
3953.00,0.0006
3952.00,0.0006
3951.00,0.0007
3950.00,0.0007
3949.00,0.0007
3948.00,0.0007
3947.00,0.0007
3946.00,0.0006
3945.00,0.0007
3944.00,0.0007
3943.00,0.0007
3942.00,0.0007
3941.00,0.0006
3940.00,0.0006
3939.00,0.0006
3938.00,0.0006
3937.00,0.0006
3936.00,0.0006
3935.00,0.0006
3934.00,0.0006
3933.00,0.0006
3932.00,0.0007
3931.00,0.0007
3930.00,0.0007
3929.00,0.0007
3928.00,0.0007
3927.00,0.0007
3926.00,0.0007
3925.00,0.0006
3924.00,0.0006
3923.00,0.0006
3922.00,0.0006
3921.00,0.0006
3920.00,0.0006
3919.00,0.0006
3918.00,0.0006
3917.00,0.0006
3916.00,0.0006
3915.00,0.0006
3914.00,0.0007
3913.00,0.0007
3912.00,0.0007
3911.00,0.0006
3910.00,0.0006
3909.00,0.0006
3908.00,0.0006
3907.00,0.0005
3906.00,0.0005
3905.00,0.0006
3904.00,0.0006
3903.00,0.0007
3902.00,0.0007
3901.00,0.0007
3900.00,0.0007
3899.00,0.0006
3898.00,0.0006
3897.00,0.0005
3896.00,0.0005
3895.00,0.0005
3894.00,0.0005
3893.00,0.0005
3892.00,0.0005
3891.00,0.0005
3890.00,0.0006
3889.00,0.0006
3888.00,0.0007
3887.00,0.0007
3886.00,0.0007
3885.00,0.0007
3884.00,0.0006
3883.00,0.0006
3882.00,0.0006
3881.00,0.0006
3880.00,0.0006
3879.00,0.0006
3878.00,0.0006
3877.00,0.0006
3876.00,0.0006
3875.00,0.0006
3874.00,0.0006
3873.00,0.0006
3872.00,0.0006
3871.00,0.0006
3870.00,0.0006
3869.00,0.0006
3868.00,0.0006
3867.00,0.0006
3866.00,0.0006
3865.00,0.0006
3864.00,0.0006
3863.00,0.0006
3862.00,0.0006
3861.00,0.0006
3860.00,0.0007
3859.00,0.0007
3858.00,0.0007
3857.00,0.0007
3856.00,0.0007
3855.00,0.0007
3854.00,0.0007
3853.00,0.0007
3852.00,0.0008
3851.00,0.0008
3850.00,0.0007
3849.00,0.0007
3848.00,0.0006
3847.00,0.0006
3846.00,0.0005
3845.00,0.0005
3844.00,0.0005
3843.00,0.0005
3842.00,0.0006
3841.00,0.0006
3840.00,0.0007
3839.00,0.0007
3838.00,0.0007
3837.00,0.0007
3836.00,0.0007
3835.00,0.0007
3834.00,0.0007
3833.00,0.0007
3832.00,0.0007
3831.00,0.0007
3830.00,0.0007
3829.00,0.0007
3828.00,0.0007
3827.00,0.0006
3826.00,0.0006
3825.00,0.0006
3824.00,0.0007
3823.00,0.0007
3822.00,0.0008
3821.00,0.0008
3820.00,0.0008
3819.00,0.0008
3818.00,0.0008
3817.00,0.0008
3816.00,0.0008
3815.00,0.0007
3814.00,0.0007
3813.00,0.0007
3812.00,0.0006
3811.00,0.0006
3810.00,0.0006
3809.00,0.0006
3808.00,0.0006
3807.00,0.0006
3806.00,0.0007
3805.00,0.0008
3804.00,0.0008
3803.00,0.0008
3802.00,0.0008
3801.00,0.0008
3800.00,0.0007
3799.00,0.0007
3798.00,0.0007
3797.00,0.0007
3796.00,0.0007
3795.00,0.0007
3794.00,0.0007
3793.00,0.0007
3792.00,0.0007
3791.00,0.0006
3790.00,0.0006
3789.00,0.0006
3788.00,0.0006
3787.00,0.0006
3786.00,0.0006
3785.00,0.0007
3784.00,0.0007
3783.00,0.0007
3782.00,0.0008
3781.00,0.0007
3780.00,0.0007
3779.00,0.0007
3778.00,0.0007
3777.00,0.0007
3776.00,0.0007
3775.00,0.0007
3774.00,0.0007
3773.00,0.0007
3772.00,0.0007
3771.00,0.0007
3770.00,0.0007
3769.00,0.0007
3768.00,0.0008
3767.00,0.0008
3766.00,0.0008
3765.00,0.0008
3764.00,0.0007
3763.00,0.0007
3762.00,0.0007
3761.00,0.0007
3760.00,0.0008
3759.00,0.0008
3758.00,0.0008
3757.00,0.0008
3756.00,0.0007
3755.00,0.0007
3754.00,0.0007
3753.00,0.0008
3752.00,0.0008
3751.00,0.0008
3750.00,0.0008
3749.00,0.0007
3748.00,0.0007
3747.00,0.0007
3746.00,0.0007
3745.00,0.0007
3744.00,0.0007
3743.00,0.0007
3742.00,0.0007
3741.00,0.0007
3740.00,0.0007
3739.00,0.0007
3738.00,0.0007
3737.00,0.0007
3736.00,0.0006
3735.00,0.0006
3734.00,0.0006
3733.00,0.0006
3732.00,0.0006
3731.00,0.0005
3730.00,0.0005
3729.00,0.0005
3728.00,0.0005
3727.00,0.0005
3726.00,0.0005
3725.00,0.0005
3724.00,0.0004
3723.00,0.0004
3722.00,0.0004
3721.00,0.0004
3720.00,0.0004
3719.00,0.0004
3718.00,0.0004
3717.00,0.0004
3716.00,0.0004
3715.00,0.0005
3714.00,0.0005
3713.00,0.0005
3712.00,0.0005
3711.00,0.0005
3710.00,0.0005
3709.00,0.0005
3708.00,0.0005
3707.00,0.0004
3706.00,0.0004
3705.00,0.0004
3704.00,0.0004
3703.00,0.0004
3702.00,0.0004
3701.00,0.0004
3700.00,0.0004
3699.00,0.0004
3698.00,0.0004
3697.00,0.0005
3696.00,0.0005
3695.00,0.0005
3694.00,0.0005
3693.00,0.0005
3692.00,0.0005
3691.00,0.0005
3690.00,0.0005
3689.00,0.0005
3688.00,0.0006
3687.00,0.0005
3686.00,0.0005
3685.00,0.0005
3684.00,0.0004
3683.00,0.0004
3682.00,0.0005
3681.00,0.0005
3680.00,0.0006
3679.00,0.0006
3678.00,0.0007
3677.00,0.0007
3676.00,0.0006
3675.00,0.0006
3674.00,0.0006
3673.00,0.0006
3672.00,0.0006
3671.00,0.0006
3670.00,0.0006
3669.00,0.0005
3668.00,0.0004
3667.00,0.0004
3666.00,0.0003
3665.00,0.0003
3664.00,0.0003
3663.00,0.0003
3662.00,0.0003
3661.00,0.0003
3660.00,0.0003
3659.00,0.0003
3658.00,0.0003
3657.00,0.0003
3656.00,0.0003
3655.00,0.0004
3654.00,0.0004
3653.00,0.0004
3652.00,0.0005
3651.00,0.0005
3650.00,0.0005
3649.00,0.0005
3648.00,0.0005
3647.00,0.0005
3646.00,0.0005
3645.00,0.0004
3644.00,0.0004
3643.00,0.0004
3642.00,0.0004
3641.00,0.0004
3640.00,0.0004
3639.00,0.0003
3638.00,0.0003
3637.00,0.0004
3636.00,0.0004
3635.00,0.0004
3634.00,0.0004
3633.00,0.0005
3632.00,0.0005
3631.00,0.0005
3630.00,0.0005
3629.00,0.0005
3628.00,0.0005
3627.00,0.0005
3626.00,0.0004
3625.00,0.0004
3624.00,0.0004
3623.00,0.0004
3622.00,0.0004
3621.00,0.0004
3620.00,0.0005
3619.00,0.0005
3618.00,0.0005
3617.00,0.0005
3616.00,0.0005
3615.00,0.0005
3614.00,0.0006
3613.00,0.0007
3612.00,0.0007
3611.00,0.0007
3610.00,0.0007
3609.00,0.0006
3608.00,0.0006
3607.00,0.0006
3606.00,0.0006
3605.00,0.0006
3604.00,0.0006
3603.00,0.0006
3602.00,0.0006
3601.00,0.0006
3600.00,0.0006
3599.00,0.0006
3598.00,0.0006
3597.00,0.0006
3596.00,0.0006
3595.00,0.0006
3594.00,0.0007
3593.00,0.0007
3592.00,0.0008
3591.00,0.0008
3590.00,0.0008
3589.00,0.0008
3588.00,0.0008
3587.00,0.0008
3586.00,0.0009
3585.00,0.0009
3584.00,0.0009
3583.00,0.0009
3582.00,0.0009
3581.00,0.0008
3580.00,0.0008
3579.00,0.0008
3578.00,0.0008
3577.00,0.0009
3576.00,0.0009
3575.00,0.0010
3574.00,0.0010
3573.00,0.0010
3572.00,0.0011
3571.00,0.0011
3570.00,0.0011
3569.00,0.0011
3568.00,0.0011
3567.00,0.0012
3566.00,0.0012
3565.00,0.0012
3564.00,0.0012
3563.00,0.0012
3562.00,0.0012
3561.00,0.0012
3560.00,0.0012
3559.00,0.0012
3558.00,0.0012
3557.00,0.0012
3556.00,0.0013
3555.00,0.0013
3554.00,0.0013
3553.00,0.0013
3552.00,0.0014
3551.00,0.0014
3550.00,0.0014
3549.00,0.0015
3548.00,0.0015
3547.00,0.0015
3546.00,0.0016
3545.00,0.0016
3544.00,0.0016
3543.00,0.0016
3542.00,0.0016
3541.00,0.0015
3540.00,0.0015
3539.00,0.0015
3538.00,0.0015
3537.00,0.0015
3536.00,0.0016
3535.00,0.0016
3534.00,0.0017
3533.00,0.0017
3532.00,0.0017
3531.00,0.0018
3530.00,0.0018
3529.00,0.0019
3528.00,0.0018
3527.00,0.0018
3526.00,0.0018
3525.00,0.0018
3524.00,0.0018
3523.00,0.0018
3522.00,0.0019
3521.00,0.0019
3520.00,0.0020
3519.00,0.0020
3518.00,0.0021
3517.00,0.0021
3516.00,0.0020
3515.00,0.0020
3514.00,0.0020
3513.00,0.0020
3512.00,0.0020
3511.00,0.0020
3510.00,0.0020
3509.00,0.0020
3508.00,0.0021
3507.00,0.0021
3506.00,0.0021
3505.00,0.0021
3504.00,0.0021
3503.00,0.0021
3502.00,0.0021
3501.00,0.0022
3500.00,0.0022
3499.00,0.0022
3498.00,0.0023
3497.00,0.0023
3496.00,0.0023
3495.00,0.0023
3494.00,0.0023
3493.00,0.0024
3492.00,0.0024
3491.00,0.0024
3490.00,0.0024
3489.00,0.0025
3488.00,0.0025
3487.00,0.0025
3486.00,0.0025
3485.00,0.0025
3484.00,0.0025
3483.00,0.0024
3482.00,0.0025
3481.00,0.0026
3480.00,0.0026
3479.00,0.0027
3478.00,0.0027
3477.00,0.0027
3476.00,0.0027
3475.00,0.0027
3474.00,0.0027
3473.00,0.0027
3472.00,0.0027
3471.00,0.0027
3470.00,0.0027
3469.00,0.0028
3468.00,0.0029
3467.00,0.0029
3466.00,0.0029
3465.00,0.0029
3464.00,0.0029
3463.00,0.0029
3462.00,0.0029
3461.00,0.0030
3460.00,0.0030
3459.00,0.0030
3458.00,0.0030
3457.00,0.0030
3456.00,0.0030
3455.00,0.0031
3454.00,0.0031
3453.00,0.0031
3452.00,0.0031
3451.00,0.0031
3450.00,0.0032
3449.00,0.0032
3448.00,0.0032
3447.00,0.0032
3446.00,0.0032
3445.00,0.0032
3444.00,0.0032
3443.00,0.0032
3442.00,0.0032
3441.00,0.0032
3440.00,0.0033
3439.00,0.0033
3438.00,0.0033
3437.00,0.0033
3436.00,0.0033
3435.00,0.0034
3434.00,0.0034
3433.00,0.0034
3432.00,0.0034
3431.00,0.0034
3430.00,0.0034
3429.00,0.0035
3428.00,0.0034
3427.00,0.0034
3426.00,0.0034
3425.00,0.0034
3424.00,0.0035
3423.00,0.0035
3422.00,0.0035
3421.00,0.0036
3420.00,0.0036
3419.00,0.0036
3418.00,0.0036
3417.00,0.0036
3416.00,0.0036
3415.00,0.0037
3414.00,0.0037
3413.00,0.0037
3412.00,0.0036
3411.00,0.0036
3410.00,0.0036
3409.00,0.0036
3408.00,0.0036
3407.00,0.0036
3406.00,0.0036
3405.00,0.0037
3404.00,0.0037
3403.00,0.0037
3402.00,0.0037
3401.00,0.0037
3400.00,0.0037
3399.00,0.0037
3398.00,0.0037
3397.00,0.0037
3396.00,0.0037
3395.00,0.0037
3394.00,0.0037
3393.00,0.0037
3392.00,0.0037
3391.00,0.0037
3390.00,0.0037
3389.00,0.0037
3388.00,0.0037
3387.00,0.0037
3386.00,0.0037
3385.00,0.0037
3384.00,0.0037
3383.00,0.0036
3382.00,0.0036
3381.00,0.0036
3380.00,0.0036
3379.00,0.0036
3378.00,0.0037
3377.00,0.0037
3376.00,0.0037
3375.00,0.0038
3374.00,0.0038
3373.00,0.0038
3372.00,0.0038
3371.00,0.0038
3370.00,0.0037
3369.00,0.0037
3368.00,0.0037
3367.00,0.0037
3366.00,0.0037
3365.00,0.0037
3364.00,0.0037
3363.00,0.0037
3362.00,0.0037
3361.00,0.0037
3360.00,0.0037
3359.00,0.0037
3358.00,0.0037
3357.00,0.0037
3356.00,0.0037
3355.00,0.0037
3354.00,0.0038
3353.00,0.0038
3352.00,0.0038
3351.00,0.0038
3350.00,0.0038
3349.00,0.0038
3348.00,0.0038
3347.00,0.0038
3346.00,0.0038
3345.00,0.0038
3344.00,0.0037
3343.00,0.0037
3342.00,0.0037
3341.00,0.0037
3340.00,0.0037
3339.00,0.0037
3338.00,0.0037
3337.00,0.0037
3336.00,0.0037
3335.00,0.0037
3334.00,0.0036
3333.00,0.0036
3332.00,0.0035
3331.00,0.0035
3330.00,0.0035
3329.00,0.0035
3328.00,0.0034
3327.00,0.0034
3326.00,0.0034
3325.00,0.0035
3324.00,0.0035
3323.00,0.0035
3322.00,0.0035
3321.00,0.0035
3320.00,0.0035
3319.00,0.0035
3318.00,0.0035
3317.00,0.0034
3316.00,0.0034
3315.00,0.0034
3314.00,0.0034
3313.00,0.0034
3312.00,0.0034
3311.00,0.0033
3310.00,0.0033
3309.00,0.0033
3308.00,0.0033
3307.00,0.0034
3306.00,0.0034
3305.00,0.0035
3304.00,0.0035
3303.00,0.0035
3302.00,0.0035
3301.00,0.0035
3300.00,0.0035
3299.00,0.0034
3298.00,0.0034
3297.00,0.0034
3296.00,0.0034
3295.00,0.0034
3294.00,0.0034
3293.00,0.0034
3292.00,0.0034
3291.00,0.0033
3290.00,0.0033
3289.00,0.0032
3288.00,0.0032
3287.00,0.0032
3286.00,0.0033
3285.00,0.0033
3284.00,0.0033
3283.00,0.0033
3282.00,0.0033
3281.00,0.0032
3280.00,0.0032
3279.00,0.0032
3278.00,0.0032
3277.00,0.0032
3276.00,0.0032
3275.00,0.0032
3274.00,0.0032
3273.00,0.0032
3272.00,0.0031
3271.00,0.0031
3270.00,0.0031
3269.00,0.0031
3268.00,0.0031
3267.00,0.0031
3266.00,0.0031
3265.00,0.0031
3264.00,0.0031
3263.00,0.0031
3262.00,0.0031
3261.00,0.0031
3260.00,0.0031
3259.00,0.0031
3258.00,0.0030
3257.00,0.0030
3256.00,0.0030
3255.00,0.0030
3254.00,0.0029
3253.00,0.0029
3252.00,0.0029
3251.00,0.0029
3250.00,0.0029
3249.00,0.0029
3248.00,0.0029
3247.00,0.0029
3246.00,0.0028
3245.00,0.0028
3244.00,0.0028
3243.00,0.0028
3242.00,0.0029
3241.00,0.0029
3240.00,0.0029
3239.00,0.0030
3238.00,0.0030
3237.00,0.0029
3236.00,0.0029
3235.00,0.0029
3234.00,0.0030
3233.00,0.0030
3232.00,0.0030
3231.00,0.0030
3230.00,0.0030
3229.00,0.0031
3228.00,0.0031
3227.00,0.0031
3226.00,0.0031
3225.00,0.0031
3224.00,0.0031
3223.00,0.0031
3222.00,0.0031
3221.00,0.0031
3220.00,0.0031
3219.00,0.0032
3218.00,0.0032
3217.00,0.0032
3216.00,0.0032
3215.00,0.0032
3214.00,0.0032
3213.00,0.0033
3212.00,0.0033
3211.00,0.0034
3210.00,0.0034
3209.00,0.0034
3208.00,0.0034
3207.00,0.0034
3206.00,0.0034
3205.00,0.0034
3204.00,0.0034
3203.00,0.0034
3202.00,0.0034
3201.00,0.0034
3200.00,0.0034
3199.00,0.0034
3198.00,0.0034
3197.00,0.0035
3196.00,0.0035
3195.00,0.0035
3194.00,0.0035
3193.00,0.0035
3192.00,0.0034
3191.00,0.0034
3190.00,0.0033
3189.00,0.0033
3188.00,0.0033
3187.00,0.0033
3186.00,0.0032
3185.00,0.0032
3184.00,0.0032
3183.00,0.0032
3182.00,0.0031
3181.00,0.0031
3180.00,0.0031
3179.00,0.0031
3178.00,0.0031
3177.00,0.0031
3176.00,0.0031
3175.00,0.0031
3174.00,0.0030
3173.00,0.0030
3172.00,0.0029
3171.00,0.0030
3170.00,0.0030
3169.00,0.0030
3168.00,0.0030
3167.00,0.0030
3166.00,0.0029
3165.00,0.0029
3164.00,0.0029
3163.00,0.0029
3162.00,0.0029
3161.00,0.0029
3160.00,0.0029
3159.00,0.0029
3158.00,0.0029
3157.00,0.0029
3156.00,0.0029
3155.00,0.0029
3154.00,0.0029
3153.00,0.0029
3152.00,0.0029
3151.00,0.0029
3150.00,0.0029
3149.00,0.0029
3148.00,0.0029
3147.00,0.0028
3146.00,0.0028
3145.00,0.0029
3144.00,0.0029
3143.00,0.0029
3142.00,0.0029
3141.00,0.0028
3140.00,0.0028
3139.00,0.0028
3138.00,0.0028
3137.00,0.0027
3136.00,0.0027
3135.00,0.0027
3134.00,0.0027
3133.00,0.0027
3132.00,0.0026
3131.00,0.0026
3130.00,0.0026
3129.00,0.0026
3128.00,0.0025
3127.00,0.0025
3126.00,0.0025
3125.00,0.0025
3124.00,0.0024
3123.00,0.0024
3122.00,0.0024
3121.00,0.0024
3120.00,0.0024
3119.00,0.0024
3118.00,0.0024
3117.00,0.0024
3116.00,0.0024
3115.00,0.0023
3114.00,0.0023
3113.00,0.0023
3112.00,0.0023
3111.00,0.0023
3110.00,0.0023
3109.00,0.0023
3108.00,0.0023
3107.00,0.0023
3106.00,0.0023
3105.00,0.0022
3104.00,0.0022
3103.00,0.0022
3102.00,0.0022
3101.00,0.0022
3100.00,0.0022
3099.00,0.0022
3098.00,0.0022
3097.00,0.0022
3096.00,0.0022
3095.00,0.0022
3094.00,0.0022
3093.00,0.0022
3092.00,0.0022
3091.00,0.0022
3090.00,0.0022
3089.00,0.0022
3088.00,0.0022
3087.00,0.0022
3086.00,0.0022
3085.00,0.0022
3084.00,0.0022
3083.00,0.0022
3082.00,0.0022
3081.00,0.0022
3080.00,0.0022
3079.00,0.0022
3078.00,0.0022
3077.00,0.0022
3076.00,0.0022
3075.00,0.0022
3074.00,0.0022
3073.00,0.0023
3072.00,0.0023
3071.00,0.0024
3070.00,0.0024
3069.00,0.0024
3068.00,0.0024
3067.00,0.0024
3066.00,0.0024
3065.00,0.0024
3064.00,0.0024
3063.00,0.0024
3062.00,0.0024
3061.00,0.0024
3060.00,0.0024
3059.00,0.0025
3058.00,0.0025
3057.00,0.0025
3056.00,0.0025
3055.00,0.0025
3054.00,0.0026
3053.00,0.0026
3052.00,0.0026
3051.00,0.0026
3050.00,0.0026
3049.00,0.0027
3048.00,0.0027
3047.00,0.0027
3046.00,0.0027
3045.00,0.0028
3044.00,0.0028
3043.00,0.0028
3042.00,0.0029
3041.00,0.0029
3040.00,0.0029
3039.00,0.0030
3038.00,0.0030
3037.00,0.0030
3036.00,0.0030
3035.00,0.0030
3034.00,0.0031
3033.00,0.0031
3032.00,0.0031
3031.00,0.0031
3030.00,0.0031
3029.00,0.0032
3028.00,0.0033
3027.00,0.0034
3026.00,0.0035
3025.00,0.0035
3024.00,0.0036
3023.00,0.0036
3022.00,0.0037
3021.00,0.0038
3020.00,0.0038
3019.00,0.0039
3018.00,0.0040
3017.00,0.0040
3016.00,0.0042
3015.00,0.0043
3014.00,0.0044
3013.00,0.0045
3012.00,0.0047
3011.00,0.0048
3010.00,0.0050
3009.00,0.0051
3008.00,0.0052
3007.00,0.0054
3006.00,0.0055
3005.00,0.0057
3004.00,0.0058
3003.00,0.0061
3002.00,0.0063
3001.00,0.0066
3000.00,0.0069
2999.00,0.0072
2998.00,0.0074
2997.00,0.0078
2996.00,0.0081
2995.00,0.0085
2994.00,0.0090
2993.00,0.0095
2992.00,0.0100
2991.00,0.0106
2990.00,0.0112
2989.00,0.0119
2988.00,0.0127
2987.00,0.0136
2986.00,0.0145
2985.00,0.0156
2984.00,0.0168
2983.00,0.0182
2982.00,0.0197
2981.00,0.0214
2980.00,0.0233
2979.00,0.0255
2978.00,0.0279
2977.00,0.0307
2976.00,0.0339
2975.00,0.0376
2974.00,0.0417
2973.00,0.0464
2972.00,0.0515
2971.00,0.0573
2970.00,0.0637
2969.00,0.0706
2968.00,0.0779
2967.00,0.0857
2966.00,0.0936
2965.00,0.1015
2964.00,0.1090
2963.00,0.1158
2962.00,0.1219
2961.00,0.1271
2960.00,0.1316
2959.00,0.1360
2958.00,0.1407
2957.00,0.1463
2956.00,0.1532
2955.00,0.1615
2954.00,0.1709
2953.00,0.1809
2952.00,0.1904
2951.00,0.1983
2950.00,0.2033
2949.00,0.2041
2948.00,0.2001
2947.00,0.1914
2946.00,0.1791
2945.00,0.1647
2944.00,0.1501
2943.00,0.1368
2942.00,0.1259
2941.00,0.1179
2940.00,0.1128
2939.00,0.1103
2938.00,0.1103
2937.00,0.1124
2936.00,0.1164
2935.00,0.1221
2934.00,0.1294
2933.00,0.1382
2932.00,0.1483
2931.00,0.1595
2930.00,0.1714
2929.00,0.1838
2928.00,0.1963
2927.00,0.2086
2926.00,0.2205
2925.00,0.2320
2924.00,0.2432
2923.00,0.2544
2922.00,0.2656
2921.00,0.2766
2920.00,0.2867
2919.00,0.2949
2918.00,0.2999
2917.00,0.3008
2916.00,0.2972
2915.00,0.2894
2914.00,0.2786
2913.00,0.2660
2912.00,0.2529
2911.00,0.2403
2910.00,0.2285
2909.00,0.2178
2908.00,0.2078
2907.00,0.1984
2906.00,0.1895
2905.00,0.1807
2904.00,0.1723
2903.00,0.1641
2902.00,0.1562
2901.00,0.1488
2900.00,0.1417
2899.00,0.1351
2898.00,0.1290
2897.00,0.1236
2896.00,0.1188
2895.00,0.1148
2894.00,0.1116
2893.00,0.1092
2892.00,0.1076
2891.00,0.1066
2890.00,0.1063
2889.00,0.1065
2888.00,0.1071
2887.00,0.1080
2886.00,0.1094
2885.00,0.1112
2884.00,0.1135
2883.00,0.1164
2882.00,0.1199
2881.00,0.1237
2880.00,0.1275
2879.00,0.1309
2878.00,0.1333
2877.00,0.1345
2876.00,0.1344
2875.00,0.1336
2874.00,0.1327
2873.00,0.1322
2872.00,0.1326
2871.00,0.1340
2870.00,0.1362
2869.00,0.1387
2868.00,0.1406
2867.00,0.1408
2866.00,0.1383
2865.00,0.1327
2864.00,0.1242
2863.00,0.1137
2862.00,0.1026
2861.00,0.0920
2860.00,0.0827
2859.00,0.0752
2858.00,0.0694
2857.00,0.0651
2856.00,0.0622
2855.00,0.0603
2854.00,0.0594
2853.00,0.0592
2852.00,0.0598
2851.00,0.0610
2850.00,0.0630
2849.00,0.0658
2848.00,0.0692
2847.00,0.0735
2846.00,0.0787
2845.00,0.0848
2844.00,0.0917
2843.00,0.0992
2842.00,0.1069
2841.00,0.1143
2840.00,0.1205
2839.00,0.1246
2838.00,0.1257
2837.00,0.1234
2836.00,0.1174
2835.00,0.1085
2834.00,0.0977
2833.00,0.0862
2832.00,0.0751
2831.00,0.0653
2830.00,0.0570
2829.00,0.0501
2828.00,0.0446
2827.00,0.0401
2826.00,0.0365
2825.00,0.0336
2824.00,0.0311
2823.00,0.0291
2822.00,0.0274
2821.00,0.0259
2820.00,0.0246
2819.00,0.0235
2818.00,0.0225
2817.00,0.0217
2816.00,0.0209
2815.00,0.0203
2814.00,0.0197
2813.00,0.0191
2812.00,0.0186
2811.00,0.0180
2810.00,0.0174
2809.00,0.0168
2808.00,0.0161
2807.00,0.0154
2806.00,0.0147
2805.00,0.0140
2804.00,0.0134
2803.00,0.0127
2802.00,0.0122
2801.00,0.0117
2800.00,0.0113
2799.00,0.0110
2798.00,0.0107
2797.00,0.0104
2796.00,0.0102
2795.00,0.0100
2794.00,0.0097
2793.00,0.0094
2792.00,0.0091
2791.00,0.0088
2790.00,0.0085
2789.00,0.0082
2788.00,0.0079
2787.00,0.0077
2786.00,0.0074
2785.00,0.0072
2784.00,0.0069
2783.00,0.0067
2782.00,0.0066
2781.00,0.0064
2780.00,0.0063
2779.00,0.0062
2778.00,0.0060
2777.00,0.0058
2776.00,0.0057
2775.00,0.0056
2774.00,0.0055
2773.00,0.0054
2772.00,0.0053
2771.00,0.0053
2770.00,0.0053
2769.00,0.0053
2768.00,0.0053
2767.00,0.0053
2766.00,0.0052
2765.00,0.0052
2764.00,0.0052
2763.00,0.0051
2762.00,0.0051
2761.00,0.0050
2760.00,0.0050
2759.00,0.0050
2758.00,0.0050
2757.00,0.0050
2756.00,0.0050
2755.00,0.0049
2754.00,0.0049
2753.00,0.0049
2752.00,0.0049
2751.00,0.0049
2750.00,0.0048
2749.00,0.0048
2748.00,0.0048
2747.00,0.0048
2746.00,0.0049
2745.00,0.0050
2744.00,0.0051
2743.00,0.0052
2742.00,0.0053
2741.00,0.0054
2740.00,0.0055
2739.00,0.0057
2738.00,0.0058
2737.00,0.0060
2736.00,0.0062
2735.00,0.0064
2734.00,0.0066
2733.00,0.0068
2732.00,0.0070
2731.00,0.0072
2730.00,0.0075
2729.00,0.0077
2728.00,0.0080
2727.00,0.0083
2726.00,0.0086
2725.00,0.0089
2724.00,0.0091
2723.00,0.0091
2722.00,0.0091
2721.00,0.0089
2720.00,0.0085
2719.00,0.0082
2718.00,0.0077
2717.00,0.0074
2716.00,0.0070
2715.00,0.0068
2714.00,0.0065
2713.00,0.0062
2712.00,0.0060
2711.00,0.0057
2710.00,0.0055
2709.00,0.0054
2708.00,0.0052
2707.00,0.0051
2706.00,0.0049
2705.00,0.0048
2704.00,0.0046
2703.00,0.0045
2702.00,0.0044
2701.00,0.0044
2700.00,0.0043
2699.00,0.0042
2698.00,0.0041
2697.00,0.0041
2696.00,0.0041
2695.00,0.0041
2694.00,0.0042
2693.00,0.0042
2692.00,0.0042
2691.00,0.0042
2690.00,0.0041
2689.00,0.0041
2688.00,0.0041
2687.00,0.0041
2686.00,0.0041
2685.00,0.0042
2684.00,0.0042
2683.00,0.0042
2682.00,0.0042
2681.00,0.0043
2680.00,0.0043
2679.00,0.0043
2678.00,0.0042
2677.00,0.0042
2676.00,0.0043
2675.00,0.0043
2674.00,0.0043
2673.00,0.0043
2672.00,0.0042
2671.00,0.0042
2670.00,0.0042
2669.00,0.0042
2668.00,0.0042
2667.00,0.0043
2666.00,0.0043
2665.00,0.0044
2664.00,0.0045
2663.00,0.0045
2662.00,0.0046
2661.00,0.0046
2660.00,0.0047
2659.00,0.0047
2658.00,0.0047
2657.00,0.0046
2656.00,0.0046
2655.00,0.0045
2654.00,0.0044
2653.00,0.0044
2652.00,0.0043
2651.00,0.0043
2650.00,0.0042
2649.00,0.0042
2648.00,0.0041
2647.00,0.0041
2646.00,0.0040
2645.00,0.0040
2644.00,0.0039
2643.00,0.0038
2642.00,0.0038
2641.00,0.0037
2640.00,0.0037
2639.00,0.0037
2638.00,0.0036
2637.00,0.0036
2636.00,0.0036
2635.00,0.0036
2634.00,0.0036
2633.00,0.0036
2632.00,0.0036
2631.00,0.0036
2630.00,0.0036
2629.00,0.0036
2628.00,0.0037
2627.00,0.0037
2626.00,0.0038
2625.00,0.0038
2624.00,0.0038
2623.00,0.0038
2622.00,0.0038
2621.00,0.0038
2620.00,0.0038
2619.00,0.0039
2618.00,0.0039
2617.00,0.0039
2616.00,0.0039
2615.00,0.0038
2614.00,0.0038
2613.00,0.0038
2612.00,0.0037
2611.00,0.0037
2610.00,0.0036
2609.00,0.0035
2608.00,0.0034
2607.00,0.0033
2606.00,0.0032
2605.00,0.0032
2604.00,0.0031
2603.00,0.0031
2602.00,0.0031
2601.00,0.0031
2600.00,0.0031
2599.00,0.0031
2598.00,0.0031
2597.00,0.0031
2596.00,0.0032
2595.00,0.0032
2594.00,0.0033
2593.00,0.0033
2592.00,0.0033
2591.00,0.0033
2590.00,0.0034
2589.00,0.0035
2588.00,0.0036
2587.00,0.0037
2586.00,0.0038
2585.00,0.0039
2584.00,0.0040
2583.00,0.0040
2582.00,0.0041
2581.00,0.0040
2580.00,0.0040
2579.00,0.0039
2578.00,0.0038
2577.00,0.0037
2576.00,0.0036
2575.00,0.0034
2574.00,0.0032
2573.00,0.0031
2572.00,0.0030
2571.00,0.0029
2570.00,0.0028
2569.00,0.0027
2568.00,0.0026
2567.00,0.0025
2566.00,0.0024
2565.00,0.0024
2564.00,0.0024
2563.00,0.0023
2562.00,0.0023
2561.00,0.0022
2560.00,0.0022
2559.00,0.0022
2558.00,0.0021
2557.00,0.0021
2556.00,0.0020
2555.00,0.0019
2554.00,0.0019
2553.00,0.0019
2552.00,0.0018
2551.00,0.0018
2550.00,0.0018
2549.00,0.0018
2548.00,0.0017
2547.00,0.0017
2546.00,0.0016
2545.00,0.0016
2544.00,0.0016
2543.00,0.0016
2542.00,0.0016
2541.00,0.0016
2540.00,0.0016
2539.00,0.0016
2538.00,0.0016
2537.00,0.0015
2536.00,0.0014
2535.00,0.0014
2534.00,0.0014
2533.00,0.0014
2532.00,0.0014
2531.00,0.0014
2530.00,0.0014
2529.00,0.0014
2528.00,0.0013
2527.00,0.0012
2526.00,0.0012
2525.00,0.0011
2524.00,0.0011
2523.00,0.0011
2522.00,0.0011
2521.00,0.0012
2520.00,0.0011
2519.00,0.0011
2518.00,0.0011
2517.00,0.0011
2516.00,0.0011
2515.00,0.0011
2514.00,0.0010
2513.00,0.0010
2512.00,0.0009
2511.00,0.0008
2510.00,0.0008
2509.00,0.0008
2508.00,0.0008
2507.00,0.0008
2506.00,0.0008
2505.00,0.0008
2504.00,0.0008
2503.00,0.0008
2502.00,0.0008
2501.00,0.0009
2500.00,0.0009
2499.00,0.0010
2498.00,0.0010
2497.00,0.0010
2496.00,0.0010
2495.00,0.0009
2494.00,0.0009
2493.00,0.0008
2492.00,0.0008
2491.00,0.0008
2490.00,0.0008
2489.00,0.0008
2488.00,0.0008
2487.00,0.0008
2486.00,0.0009
2485.00,0.0009
2484.00,0.0009
2483.00,0.0009
2482.00,0.0008
2481.00,0.0008
2480.00,0.0008
2479.00,0.0007
2478.00,0.0007
2477.00,0.0007
2476.00,0.0008
2475.00,0.0008
2474.00,0.0008
2473.00,0.0008
2472.00,0.0008
2471.00,0.0008
2470.00,0.0008
2469.00,0.0007
2468.00,0.0007
2467.00,0.0007
2466.00,0.0008
2465.00,0.0009
2464.00,0.0009
2463.00,0.0009
2462.00,0.0009
2461.00,0.0009
2460.00,0.0009
2459.00,0.0009
2458.00,0.0010
2457.00,0.0010
2456.00,0.0010
2455.00,0.0010
2454.00,0.0010
2453.00,0.0010
2452.00,0.0010
2451.00,0.0010
2450.00,0.0009
2449.00,0.0009
2448.00,0.0009
2447.00,0.0009
2446.00,0.0009
2445.00,0.0009
2444.00,0.0009
2443.00,0.0010
2442.00,0.0010
2441.00,0.0011
2440.00,0.0011
2439.00,0.0011
2438.00,0.0011
2437.00,0.0011
2436.00,0.0011
2435.00,0.0011
2434.00,0.0011
2433.00,0.0011
2432.00,0.0011
2431.00,0.0011
2430.00,0.0011
2429.00,0.0011
2428.00,0.0010
2427.00,0.0010
2426.00,0.0010
2425.00,0.0010
2424.00,0.0010
2423.00,0.0010
2422.00,0.0010
2421.00,0.0010
2420.00,0.0010
2419.00,0.0009
2418.00,0.0009
2417.00,0.0008
2416.00,0.0008
2415.00,0.0007
2414.00,0.0008
2413.00,0.0008
2412.00,0.0008
2411.00,0.0008
2410.00,0.0008
2409.00,0.0008
2408.00,0.0008
2407.00,0.0007
2406.00,0.0007
2405.00,0.0007
2404.00,0.0007
2403.00,0.0007
2402.00,0.0007
2401.00,0.0007
2400.00,0.0007
2399.00,0.0007
2398.00,0.0007
2397.00,0.0007
2396.00,0.0007
2395.00,0.0008
2394.00,0.0008
2393.00,0.0007
2392.00,0.0007
2391.00,0.0006
2390.00,0.0006
2389.00,0.0006
2388.00,0.0005
2387.00,0.0004
2386.00,0.0004
2385.00,0.0003
2384.00,0.0002
2383.00,0.0001
2382.00,-0.0001
2381.00,-0.0002
2380.00,-0.0003
2379.00,-0.0003
2378.00,-0.0004
2377.00,-0.0004
2376.00,-0.0004
2375.00,-0.0004
2374.00,-0.0003
2373.00,-0.0003
2372.00,-0.0004
2371.00,-0.0005
2370.00,-0.0006
2369.00,-0.0007
2368.00,-0.0009
2367.00,-0.0010
2366.00,-0.0010
2365.00,-0.0010
2364.00,-0.0010
2363.00,-0.0010
2362.00,-0.0009
2361.00,-0.0008
2360.00,-0.0008
2359.00,-0.0008
2358.00,-0.0008
2357.00,-0.0008
2356.00,-0.0007
2355.00,-0.0006
2354.00,-0.0006
2353.00,-0.0006
2352.00,-0.0006
2351.00,-0.0007
2350.00,-0.0008
2349.00,-0.0010
2348.00,-0.0010
2347.00,-0.0010
2346.00,-0.0009
2345.00,-0.0008
2344.00,-0.0007
2343.00,-0.0006
2342.00,-0.0005
2341.00,-0.0004
2340.00,-0.0004
2339.00,-0.0004
2338.00,-0.0004
2337.00,-0.0004
2336.00,-0.0003
2335.00,-0.0002
2334.00,-0.0002
2333.00,-0.0001
2332.00,-0.0001
2331.00,-0.0001
2330.00,-0.0001
2329.00,-0.0001
2328.00,0.0001
2327.00,0.0004
2326.00,0.0008
2325.00,0.0012
2324.00,0.0014
2323.00,0.0013
2322.00,0.0011
2321.00,0.0009
2320.00,0.0007
2319.00,0.0006
2318.00,0.0005
2317.00,0.0005
2316.00,0.0005
2315.00,0.0005
2314.00,0.0004
2313.00,0.0003
2312.00,0.0002
2311.00,0.0002
2310.00,0.0002
2309.00,0.0003
2308.00,0.0004
2307.00,0.0004
2306.00,0.0005
2305.00,0.0005
2304.00,0.0005
2303.00,0.0006
2302.00,0.0006
2301.00,0.0007
2300.00,0.0007
2299.00,0.0007
2298.00,0.0007
2297.00,0.0007
2296.00,0.0008
2295.00,0.0009
2294.00,0.0010
2293.00,0.0012
2292.00,0.0013
2291.00,0.0014
2290.00,0.0015
2289.00,0.0016
2288.00,0.0017
2287.00,0.0018
2286.00,0.0019
2285.00,0.0019
2284.00,0.0019
2283.00,0.0018
2282.00,0.0016
2281.00,0.0015
2280.00,0.0013
2279.00,0.0012
2278.00,0.0012
2277.00,0.0012
2276.00,0.0014
2275.00,0.0015
2274.00,0.0015
2273.00,0.0014
2272.00,0.0014
2271.00,0.0014
2270.00,0.0013
2269.00,0.0013
2268.00,0.0012
2267.00,0.0011
2266.00,0.0010
2265.00,0.0009
2264.00,0.0009
2263.00,0.0009
2262.00,0.0009
2261.00,0.0009
2260.00,0.0010
2259.00,0.0011
2258.00,0.0013
2257.00,0.0014
2256.00,0.0013
2255.00,0.0011
2254.00,0.0008
2253.00,0.0006
2252.00,0.0004
2251.00,0.0003
2250.00,0.0003
2249.00,0.0004
2248.00,0.0006
2247.00,0.0007
2246.00,0.0007
2245.00,0.0007
2244.00,0.0007
2243.00,0.0007
2242.00,0.0007
2241.00,0.0007
2240.00,0.0007
2239.00,0.0007
2238.00,0.0007
2237.00,0.0007
2236.00,0.0007
2235.00,0.0007
2234.00,0.0007
2233.00,0.0006
2232.00,0.0006
2231.00,0.0005
2230.00,0.0004
2229.00,0.0004
2228.00,0.0004
2227.00,0.0005
2226.00,0.0006
2225.00,0.0006
2224.00,0.0006
2223.00,0.0006
2222.00,0.0006
2221.00,0.0006
2220.00,0.0005
2219.00,0.0005
2218.00,0.0004
2217.00,0.0005
2216.00,0.0006
2215.00,0.0006
2214.00,0.0006
2213.00,0.0005
2212.00,0.0004
2211.00,0.0003
2210.00,0.0002
2209.00,0.0002
2208.00,0.0002
2207.00,0.0003
2206.00,0.0004
2205.00,0.0005
2204.00,0.0006
2203.00,0.0005
2202.00,0.0004
2201.00,0.0003
2200.00,0.0003
2199.00,0.0003
2198.00,0.0004
2197.00,0.0004
2196.00,0.0006
2195.00,0.0008
2194.00,0.0010
2193.00,0.0012
2192.00,0.0012
2191.00,0.0012
2190.00,0.0011
2189.00,0.0010
2188.00,0.0009
2187.00,0.0008
2186.00,0.0008
2185.00,0.0009
2184.00,0.0010
2183.00,0.0007
2182.00,0.0003
2181.00,-0.0000
2180.00,-0.0001
2179.00,-0.0001
2178.00,0.0000
2177.00,-0.0000
2176.00,-0.0001
2175.00,-0.0002
2174.00,-0.0001
2173.00,-0.0000
2172.00,0.0001
2171.00,0.0004
2170.00,0.0008
2169.00,0.0012
2168.00,0.0013
2167.00,0.0012
2166.00,0.0009
2165.00,0.0007
2164.00,0.0007
2163.00,0.0008
2162.00,0.0009
2161.00,0.0007
2160.00,-0.0001
2159.00,-0.0014
2158.00,-0.0025
2157.00,-0.0031
2156.00,-0.0030
2155.00,-0.0026
2154.00,-0.0022
2153.00,-0.0019
2152.00,-0.0017
2151.00,-0.0015
2150.00,-0.0013
2149.00,-0.0011
2148.00,-0.0010
2147.00,-0.0012
2146.00,-0.0014
2145.00,-0.0016
2144.00,-0.0018
2143.00,-0.0019
2142.00,-0.0020
2141.00,-0.0019
2140.00,-0.0018
2139.00,-0.0017
2138.00,-0.0016
2137.00,-0.0016
2136.00,-0.0018
2135.00,-0.0021
2134.00,-0.0024
2133.00,-0.0025
2132.00,-0.0023
2131.00,-0.0020
2130.00,-0.0017
2129.00,-0.0013
2128.00,-0.0010
2127.00,-0.0009
2126.00,-0.0008
2125.00,-0.0009
2124.00,-0.0009
2123.00,-0.0010
2122.00,-0.0009
2121.00,-0.0008
2120.00,-0.0006
2119.00,-0.0005
2118.00,-0.0004
2117.00,-0.0004
2116.00,-0.0004
2115.00,-0.0004
2114.00,-0.0002
2113.00,-0.0001
2112.00,0.0001
2111.00,0.0001
2110.00,-0.0000
2109.00,-0.0001
2108.00,-0.0002
2107.00,-0.0003
2106.00,-0.0003
2105.00,-0.0002
2104.00,-0.0001
2103.00,-0.0002
2102.00,-0.0002
2101.00,-0.0003
2100.00,-0.0002
2099.00,-0.0000
2098.00,0.0001
2097.00,0.0001
2096.00,-0.0001
2095.00,-0.0004
2094.00,-0.0006
2093.00,-0.0006
2092.00,-0.0004
2091.00,-0.0003
2090.00,-0.0003
2089.00,-0.0002
2088.00,-0.0001
2087.00,-0.0001
2086.00,-0.0001
2085.00,-0.0000
2084.00,0.0000
2083.00,0.0001
2082.00,0.0000
2081.00,-0.0000
2080.00,-0.0000
2079.00,-0.0000
2078.00,0.0001
2077.00,0.0002
2076.00,0.0001
2075.00,0.0000
2074.00,-0.0001
2073.00,-0.0002
2072.00,-0.0002
2071.00,-0.0002
2070.00,-0.0003
2069.00,-0.0003
2068.00,-0.0003
2067.00,-0.0003
2066.00,-0.0003
2065.00,-0.0003
2064.00,-0.0004
2063.00,-0.0005
2062.00,-0.0005
2061.00,-0.0005
2060.00,-0.0005
2059.00,-0.0005
2058.00,-0.0005
2057.00,-0.0003
2056.00,-0.0002
2055.00,-0.0003
2054.00,-0.0003
2053.00,-0.0001
2052.00,0.0003
2051.00,0.0005
2050.00,0.0005
2049.00,0.0002
2048.00,-0.0002
2047.00,-0.0005
2046.00,-0.0006
2045.00,-0.0007
2044.00,-0.0006
2043.00,-0.0004
2042.00,-0.0003
2041.00,-0.0001
2040.00,-0.0001
2039.00,-0.0001
2038.00,-0.0003
2037.00,-0.0004
2036.00,-0.0005
2035.00,-0.0007
2034.00,-0.0010
2033.00,-0.0012
2032.00,-0.0013
2031.00,-0.0015
2030.00,-0.0016
2029.00,-0.0016
2028.00,-0.0016
2027.00,-0.0016
2026.00,-0.0016
2025.00,-0.0016
2024.00,-0.0014
2023.00,-0.0013
2022.00,-0.0014
2021.00,-0.0015
2020.00,-0.0015
2019.00,-0.0014
2018.00,-0.0012
2017.00,-0.0010
2016.00,-0.0008
2015.00,-0.0009
2014.00,-0.0012
2013.00,-0.0014
2012.00,-0.0014
2011.00,-0.0012
2010.00,-0.0010
2009.00,-0.0010
2008.00,-0.0012
2007.00,-0.0017
2006.00,-0.0023
2005.00,-0.0026
2004.00,-0.0026
2003.00,-0.0024
2002.00,-0.0020
2001.00,-0.0016
2000.00,-0.0012
1999.00,-0.0010
1998.00,-0.0009
1997.00,-0.0008
1996.00,-0.0008
1995.00,-0.0008
1994.00,-0.0010
1993.00,-0.0011
1992.00,-0.0009
1991.00,-0.0007
1990.00,-0.0005
1989.00,-0.0004
1988.00,-0.0002
1987.00,0.0000
1986.00,0.0002
1985.00,0.0004
1984.00,0.0004
1983.00,0.0004
1982.00,0.0006
1981.00,0.0008
1980.00,0.0009
1979.00,0.0005
1978.00,-0.0003
1977.00,-0.0010
1976.00,-0.0016
1975.00,-0.0019
1974.00,-0.0020
1973.00,-0.0020
1972.00,-0.0020
1971.00,-0.0019
1970.00,-0.0018
1969.00,-0.0016
1968.00,-0.0015
1967.00,-0.0016
1966.00,-0.0017
1965.00,-0.0016
1964.00,-0.0013
1963.00,-0.0011
1962.00,-0.0012
1961.00,-0.0015
1960.00,-0.0018
1959.00,-0.0020
1958.00,-0.0020
1957.00,-0.0018
1956.00,-0.0017
1955.00,-0.0017
1954.00,-0.0018
1953.00,-0.0018
1952.00,-0.0017
1951.00,-0.0015
1950.00,-0.0014
1949.00,-0.0014
1948.00,-0.0015
1947.00,-0.0015
1946.00,-0.0015
1945.00,-0.0014
1944.00,-0.0014
1943.00,-0.0015
1942.00,-0.0015
1941.00,-0.0015
1940.00,-0.0014
1939.00,-0.0013
1938.00,-0.0013
1937.00,-0.0013
1936.00,-0.0015
1935.00,-0.0017
1934.00,-0.0018
1933.00,-0.0016
1932.00,-0.0014
1931.00,-0.0011
1930.00,-0.0010
1929.00,-0.0009
1928.00,-0.0009
1927.00,-0.0009
1926.00,-0.0009
1925.00,-0.0008
1924.00,-0.0008
1923.00,-0.0007
1922.00,-0.0006
1921.00,-0.0005
1920.00,-0.0004
1919.00,-0.0004
1918.00,-0.0005
1917.00,-0.0006
1916.00,-0.0007
1915.00,-0.0007
1914.00,-0.0006
1913.00,-0.0006
1912.00,-0.0005
1911.00,-0.0004
1910.00,-0.0004
1909.00,-0.0004
1908.00,-0.0005
1907.00,-0.0006
1906.00,-0.0007
1905.00,-0.0007
1904.00,-0.0006
1903.00,-0.0006
1902.00,-0.0005
1901.00,-0.0005
1900.00,-0.0005
1899.00,-0.0005
1898.00,-0.0005
1897.00,-0.0004
1896.00,-0.0003
1895.00,-0.0002
1894.00,-0.0002
1893.00,-0.0003
1892.00,-0.0004
1891.00,-0.0004
1890.00,-0.0003
1889.00,-0.0002
1888.00,-0.0002
1887.00,-0.0003
1886.00,-0.0004
1885.00,-0.0004
1884.00,-0.0004
1883.00,-0.0004
1882.00,-0.0004
1881.00,-0.0005
1880.00,-0.0006
1879.00,-0.0006
1878.00,-0.0005
1877.00,-0.0005
1876.00,-0.0004
1875.00,-0.0004
1874.00,-0.0004
1873.00,-0.0004
1872.00,-0.0003
1871.00,-0.0003
1870.00,-0.0004
1869.00,-0.0004
1868.00,-0.0004
1867.00,-0.0004
1866.00,-0.0003
1865.00,-0.0003
1864.00,-0.0003
1863.00,-0.0004
1862.00,-0.0004
1861.00,-0.0004
1860.00,-0.0003
1859.00,-0.0002
1858.00,-0.0001
1857.00,-0.0001
1856.00,-0.0001
1855.00,-0.0001
1854.00,-0.0002
1853.00,-0.0002
1852.00,-0.0002
1851.00,-0.0002
1850.00,-0.0001
1849.00,-0.0000
1848.00,-0.0000
1847.00,-0.0000
1846.00,-0.0001
1845.00,-0.0001
1844.00,-0.0000
1843.00,-0.0000
1842.00,0.0000
1841.00,0.0000
1840.00,0.0000
1839.00,0.0000
1838.00,0.0000
1837.00,0.0000
1836.00,0.0000
1835.00,-0.0000
1834.00,-0.0001
1833.00,-0.0000
1832.00,0.0001
1831.00,0.0001
1830.00,0.0001
1829.00,0.0001
1828.00,0.0001
1827.00,0.0001
1826.00,0.0001
1825.00,0.0002
1824.00,0.0002
1823.00,0.0002
1822.00,0.0001
1821.00,0.0001
1820.00,-0.0000
1819.00,-0.0002
1818.00,-0.0003
1817.00,-0.0003
1816.00,-0.0003
1815.00,-0.0003
1814.00,-0.0001
1813.00,-0.0000
1812.00,0.0001
1811.00,0.0001
1810.00,0.0002
1809.00,0.0001
1808.00,0.0001
1807.00,0.0001
1806.00,0.0001
1805.00,0.0001
1804.00,0.0002
1803.00,0.0002
1802.00,0.0002
1801.00,0.0002
1800.00,0.0002
1799.00,0.0002
1798.00,0.0001
1797.00,0.0002
1796.00,0.0002
1795.00,0.0003
1794.00,0.0004
1793.00,0.0004
1792.00,0.0004
1791.00,0.0004
1790.00,0.0004
1789.00,0.0004
1788.00,0.0005
1787.00,0.0005
1786.00,0.0005
1785.00,0.0005
1784.00,0.0004
1783.00,0.0004
1782.00,0.0005
1781.00,0.0005
1780.00,0.0006
1779.00,0.0006
1778.00,0.0006
1777.00,0.0005
1776.00,0.0005
1775.00,0.0006
1774.00,0.0006
1773.00,0.0007
1772.00,0.0007
1771.00,0.0007
1770.00,0.0007
1769.00,0.0007
1768.00,0.0008
1767.00,0.0008
1766.00,0.0009
1765.00,0.0009
1764.00,0.0009
1763.00,0.0009
1762.00,0.0008
1761.00,0.0008
1760.00,0.0008
1759.00,0.0009
1758.00,0.0009
1757.00,0.0009
1756.00,0.0009
1755.00,0.0010
1754.00,0.0010
1753.00,0.0010
1752.00,0.0011
1751.00,0.0012
1750.00,0.0013
1749.00,0.0014
1748.00,0.0014
1747.00,0.0014
1746.00,0.0014
1745.00,0.0014
1744.00,0.0015
1743.00,0.0015
1742.00,0.0016
1741.00,0.0016
1740.00,0.0016
1739.00,0.0016
1738.00,0.0016
1737.00,0.0017
1736.00,0.0017
1735.00,0.0017
1734.00,0.0017
1733.00,0.0017
1732.00,0.0017
1731.00,0.0017
1730.00,0.0017
1729.00,0.0017
1728.00,0.0017
1727.00,0.0017
1726.00,0.0017
1725.00,0.0016
1724.00,0.0016
1723.00,0.0016
1722.00,0.0016
1721.00,0.0016
1720.00,0.0016
1719.00,0.0016
1718.00,0.0016
1717.00,0.0017
1716.00,0.0017
1715.00,0.0018
1714.00,0.0018
1713.00,0.0019
1712.00,0.0019
1711.00,0.0019
1710.00,0.0020
1709.00,0.0020
1708.00,0.0020
1707.00,0.0019
1706.00,0.0019
1705.00,0.0020
1704.00,0.0020
1703.00,0.0021
1702.00,0.0021
1701.00,0.0021
1700.00,0.0021
1699.00,0.0021
1698.00,0.0021
1697.00,0.0021
1696.00,0.0022
1695.00,0.0022
1694.00,0.0022
1693.00,0.0023
1692.00,0.0023
1691.00,0.0023
1690.00,0.0023
1689.00,0.0023
1688.00,0.0023
1687.00,0.0023
1686.00,0.0022
1685.00,0.0022
1684.00,0.0024
1683.00,0.0025
1682.00,0.0026
1681.00,0.0027
1680.00,0.0028
1679.00,0.0028
1678.00,0.0028
1677.00,0.0027
1676.00,0.0027
1675.00,0.0027
1674.00,0.0027
1673.00,0.0028
1672.00,0.0029
1671.00,0.0029
1670.00,0.0029
1669.00,0.0029
1668.00,0.0030
1667.00,0.0030
1666.00,0.0030
1665.00,0.0031
1664.00,0.0031
1663.00,0.0031
1662.00,0.0031
1661.00,0.0032
1660.00,0.0032
1659.00,0.0032
1658.00,0.0032
1657.00,0.0033
1656.00,0.0033
1655.00,0.0033
1654.00,0.0033
1653.00,0.0034
1652.00,0.0035
1651.00,0.0036
1650.00,0.0037
1649.00,0.0038
1648.00,0.0039
1647.00,0.0040
1646.00,0.0041
1645.00,0.0041
1644.00,0.0041
1643.00,0.0041
1642.00,0.0041
1641.00,0.0041
1640.00,0.0041
1639.00,0.0041
1638.00,0.0041
1637.00,0.0040
1636.00,0.0040
1635.00,0.0041
1634.00,0.0041
1633.00,0.0041
1632.00,0.0042
1631.00,0.0042
1630.00,0.0042
1629.00,0.0042
1628.00,0.0041
1627.00,0.0041
1626.00,0.0040
1625.00,0.0040
1624.00,0.0039
1623.00,0.0040
1622.00,0.0040
1621.00,0.0040
1620.00,0.0040
1619.00,0.0039
1618.00,0.0038
1617.00,0.0037
1616.00,0.0037
1615.00,0.0038
1614.00,0.0038
1613.00,0.0038
1612.00,0.0038
1611.00,0.0037
1610.00,0.0037
1609.00,0.0037
1608.00,0.0037
1607.00,0.0037
1606.00,0.0037
1605.00,0.0037
1604.00,0.0037
1603.00,0.0037
1602.00,0.0037
1601.00,0.0037
1600.00,0.0037
1599.00,0.0037
1598.00,0.0036
1597.00,0.0036
1596.00,0.0036
1595.00,0.0036
1594.00,0.0036
1593.00,0.0036
1592.00,0.0036
1591.00,0.0036
1590.00,0.0036
1589.00,0.0036
1588.00,0.0037
1587.00,0.0038
1586.00,0.0038
1585.00,0.0039
1584.00,0.0039
1583.00,0.0040
1582.00,0.0041
1581.00,0.0042
1580.00,0.0043
1579.00,0.0043
1578.00,0.0044
1577.00,0.0044
1576.00,0.0044
1575.00,0.0044
1574.00,0.0044
1573.00,0.0043
1572.00,0.0043
1571.00,0.0042
1570.00,0.0041
1569.00,0.0040
1568.00,0.0040
1567.00,0.0040
1566.00,0.0040
1565.00,0.0041
1564.00,0.0041
1563.00,0.0041
1562.00,0.0041
1561.00,0.0042
1560.00,0.0043
1559.00,0.0044
1558.00,0.0044
1557.00,0.0043
1556.00,0.0043
1555.00,0.0043
1554.00,0.0044
1553.00,0.0044
1552.00,0.0045
1551.00,0.0045
1550.00,0.0045
1549.00,0.0046
1548.00,0.0047
1547.00,0.0048
1546.00,0.0048
1545.00,0.0050
1544.00,0.0051
1543.00,0.0052
1542.00,0.0052
1541.00,0.0053
1540.00,0.0052
1539.00,0.0051
1538.00,0.0049
1537.00,0.0048
1536.00,0.0048
1535.00,0.0047
1534.00,0.0047
1533.00,0.0046
1532.00,0.0046
1531.00,0.0046
1530.00,0.0045
1529.00,0.0045
1528.00,0.0045
1527.00,0.0044
1526.00,0.0043
1525.00,0.0043
1524.00,0.0043
1523.00,0.0043
1522.00,0.0043
1521.00,0.0043
1520.00,0.0043
1519.00,0.0043
1518.00,0.0043
1517.00,0.0044
1516.00,0.0045
1515.00,0.0046
1514.00,0.0046
1513.00,0.0047
1512.00,0.0049
1511.00,0.0050
1510.00,0.0050
1509.00,0.0052
1508.00,0.0054
1507.00,0.0054
1506.00,0.0054
1505.00,0.0055
1504.00,0.0057
1503.00,0.0058
1502.00,0.0059
1501.00,0.0062
1500.00,0.0064
1499.00,0.0066
1498.00,0.0069
1497.00,0.0072
1496.00,0.0076
1495.00,0.0079
1494.00,0.0082
1493.00,0.0085
1492.00,0.0089
1491.00,0.0092
1490.00,0.0096
1489.00,0.0101
1488.00,0.0106
1487.00,0.0110
1486.00,0.0115
1485.00,0.0121
1484.00,0.0128
1483.00,0.0135
1482.00,0.0144
1481.00,0.0155
1480.00,0.0167
1479.00,0.0179
1478.00,0.0193
1477.00,0.0213
1476.00,0.0236
1475.00,0.0262
1474.00,0.0299
1473.00,0.0353
1472.00,0.0421
1471.00,0.0488
1470.00,0.0554
1469.00,0.0623
1468.00,0.0698
1467.00,0.0782
1466.00,0.0878
1465.00,0.0985
1464.00,0.1079
1463.00,0.1147
1462.00,0.1192
1461.00,0.1223
1460.00,0.1245
1459.00,0.1258
1458.00,0.1267
1457.00,0.1273
1456.00,0.1270
1455.00,0.1260
1454.00,0.1246
1453.00,0.1226
1452.00,0.1196
1451.00,0.1152
1450.00,0.1091
1449.00,0.1010
1448.00,0.0910
1447.00,0.0806
1446.00,0.0715
1445.00,0.0639
1444.00,0.0575
1443.00,0.0523
1442.00,0.0486
1441.00,0.0462
1440.00,0.0450
1439.00,0.0448
1438.00,0.0454
1437.00,0.0462
1436.00,0.0455
1435.00,0.0428
1434.00,0.0387
1433.00,0.0336
1432.00,0.0284
1431.00,0.0238
1430.00,0.0203
1429.00,0.0178
1428.00,0.0161
1427.00,0.0151
1426.00,0.0145
1425.00,0.0138
1424.00,0.0133
1423.00,0.0129
1422.00,0.0128
1421.00,0.0125
1420.00,0.0122
1419.00,0.0120
1418.00,0.0119
1417.00,0.0117
1416.00,0.0114
1415.00,0.0113
1414.00,0.0112
1413.00,0.0111
1412.00,0.0110
1411.00,0.0109
1410.00,0.0109
1409.00,0.0108
1408.00,0.0106
1407.00,0.0106
1406.00,0.0106
1405.00,0.0106
1404.00,0.0106
1403.00,0.0107
1402.00,0.0109
1401.00,0.0110
1400.00,0.0110
1399.00,0.0112
1398.00,0.0115
1397.00,0.0118
1396.00,0.0120
1395.00,0.0125
1394.00,0.0131
1393.00,0.0137
1392.00,0.0143
1391.00,0.0152
1390.00,0.0165
1389.00,0.0183
1388.00,0.0210
1387.00,0.0250
1386.00,0.0303
1385.00,0.0371
1384.00,0.0459
1383.00,0.0578
1382.00,0.0736
1381.00,0.0943
1380.00,0.1208
1379.00,0.1522
1378.00,0.1844
1377.00,0.2105
1376.00,0.2229
1375.00,0.2157
1374.00,0.1906
1373.00,0.1578
1372.00,0.1266
1371.00,0.1004
1370.00,0.0794
1369.00,0.0634
1368.00,0.0524
1367.00,0.0456
1366.00,0.0420
1365.00,0.0406
1364.00,0.0410
1363.00,0.0428
1362.00,0.0456
1361.00,0.0485
1360.00,0.0506
1359.00,0.0513
1358.00,0.0500
1357.00,0.0468
1356.00,0.0422
1355.00,0.0371
1354.00,0.0320
1353.00,0.0277
1352.00,0.0243
1351.00,0.0216
1350.00,0.0195
1349.00,0.0178
1348.00,0.0165
1347.00,0.0154
1346.00,0.0145
1345.00,0.0138
1344.00,0.0133
1343.00,0.0129
1342.00,0.0126
1341.00,0.0123
1340.00,0.0121
1339.00,0.0119
1338.00,0.0118
1337.00,0.0117
1336.00,0.0118
1335.00,0.0120
1334.00,0.0123
1333.00,0.0128
1332.00,0.0134
1331.00,0.0139
1330.00,0.0141
1329.00,0.0139
1328.00,0.0134
1327.00,0.0127
1326.00,0.0119
1325.00,0.0112
1324.00,0.0105
1323.00,0.0099
1322.00,0.0095
1321.00,0.0091
1320.00,0.0088
1319.00,0.0085
1318.00,0.0083
1317.00,0.0081
1316.00,0.0079
1315.00,0.0078
1314.00,0.0077
1313.00,0.0076
1312.00,0.0077
1311.00,0.0078
1310.00,0.0082
1309.00,0.0086
1308.00,0.0093
1307.00,0.0102
1306.00,0.0110
1305.00,0.0117
1304.00,0.0120
1303.00,0.0120
1302.00,0.0119
1301.00,0.0118
1300.00,0.0119
1299.00,0.0121
1298.00,0.0124
1297.00,0.0126
1296.00,0.0126
1295.00,0.0124
1294.00,0.0119
1293.00,0.0113
1292.00,0.0107
1291.00,0.0101
1290.00,0.0095
1289.00,0.0091
1288.00,0.0087
1287.00,0.0084
1286.00,0.0082
1285.00,0.0079
1284.00,0.0077
1283.00,0.0075
1282.00,0.0074
1281.00,0.0073
1280.00,0.0071
1279.00,0.0070
1278.00,0.0070
1277.00,0.0069
1276.00,0.0068
1275.00,0.0068
1274.00,0.0068
1273.00,0.0068
1272.00,0.0068
1271.00,0.0068
1270.00,0.0068
1269.00,0.0069
1268.00,0.0069
1267.00,0.0070
1266.00,0.0070
1265.00,0.0071
1264.00,0.0072
1263.00,0.0074
1262.00,0.0077
1261.00,0.0080
1260.00,0.0085
1259.00,0.0090
1258.00,0.0096
1257.00,0.0101
1256.00,0.0103
1255.00,0.0102
1254.00,0.0099
1253.00,0.0094
1252.00,0.0088
1251.00,0.0084
1250.00,0.0081
1249.00,0.0079
1248.00,0.0077
1247.00,0.0077
1246.00,0.0076
1245.00,0.0075
1244.00,0.0075
1243.00,0.0074
1242.00,0.0073
1241.00,0.0073
1240.00,0.0072
1239.00,0.0072
1238.00,0.0071
1237.00,0.0070
1236.00,0.0070
1235.00,0.0069
1234.00,0.0069
1233.00,0.0070
1232.00,0.0070
1231.00,0.0070
1230.00,0.0071
1229.00,0.0072
1228.00,0.0073
1227.00,0.0075
1226.00,0.0077
1225.00,0.0080
1224.00,0.0083
1223.00,0.0087
1222.00,0.0091
1221.00,0.0094
1220.00,0.0097
1219.00,0.0098
1218.00,0.0097
1217.00,0.0095
1216.00,0.0092
1215.00,0.0088
1214.00,0.0085
1213.00,0.0081
1212.00,0.0078
1211.00,0.0075
1210.00,0.0072
1209.00,0.0070
1208.00,0.0069
1207.00,0.0068
1206.00,0.0067
1205.00,0.0067
1204.00,0.0066
1203.00,0.0065
1202.00,0.0064
1201.00,0.0064
1200.00,0.0064
1199.00,0.0064
1198.00,0.0064
1197.00,0.0064
1196.00,0.0064
1195.00,0.0064
1194.00,0.0064
1193.00,0.0064
1192.00,0.0063
1191.00,0.0063
1190.00,0.0063
1189.00,0.0062
1188.00,0.0062
1187.00,0.0062
1186.00,0.0062
1185.00,0.0063
1184.00,0.0064
1183.00,0.0065
1182.00,0.0067
1181.00,0.0069
1180.00,0.0071
1179.00,0.0074
1178.00,0.0078
1177.00,0.0084
1176.00,0.0093
1175.00,0.0104
1174.00,0.0119
1173.00,0.0138
1172.00,0.0160
1171.00,0.0184
1170.00,0.0207
1169.00,0.0226
1168.00,0.0238
1167.00,0.0241
1166.00,0.0238
1165.00,0.0231
1164.00,0.0221
1163.00,0.0211
1162.00,0.0202
1161.00,0.0194
1160.00,0.0188
1159.00,0.0184
1158.00,0.0180
1157.00,0.0178
1156.00,0.0177
1155.00,0.0176
1154.00,0.0177
1153.00,0.0176
1152.00,0.0173
1151.00,0.0167
1150.00,0.0160
1149.00,0.0150
1148.00,0.0140
1147.00,0.0131
1146.00,0.0122
1145.00,0.0115
1144.00,0.0108
1143.00,0.0102
1142.00,0.0096
1141.00,0.0091
1140.00,0.0087
1139.00,0.0082
1138.00,0.0079
1137.00,0.0076
1136.00,0.0073
1135.00,0.0070
1134.00,0.0068
1133.00,0.0067
1132.00,0.0066
1131.00,0.0066
1130.00,0.0067
1129.00,0.0068
1128.00,0.0068
1127.00,0.0069
1126.00,0.0069
1125.00,0.0069
1124.00,0.0069
1123.00,0.0069
1122.00,0.0069
1121.00,0.0068
1120.00,0.0067
1119.00,0.0068
1118.00,0.0069
1117.00,0.0071
1116.00,0.0073
1115.00,0.0075
1114.00,0.0076
1113.00,0.0078
1112.00,0.0080
1111.00,0.0083
1110.00,0.0087
1109.00,0.0092
1108.00,0.0098
1107.00,0.0106
1106.00,0.0115
1105.00,0.0124
1104.00,0.0131
1103.00,0.0135
1102.00,0.0135
1101.00,0.0132
1100.00,0.0126
1099.00,0.0119
1098.00,0.0111
1097.00,0.0103
1096.00,0.0096
1095.00,0.0091
1094.00,0.0087
1093.00,0.0084
1092.00,0.0081
1091.00,0.0078
1090.00,0.0076
1089.00,0.0075
1088.00,0.0074
1087.00,0.0073
1086.00,0.0072
1085.00,0.0071
1084.00,0.0071
1083.00,0.0070
1082.00,0.0069
1081.00,0.0068
1080.00,0.0066
1079.00,0.0065
1078.00,0.0063
1077.00,0.0062
1076.00,0.0061
1075.00,0.0062
1074.00,0.0062
1073.00,0.0063
1072.00,0.0063
1071.00,0.0063
1070.00,0.0062
1069.00,0.0062
1068.00,0.0062
1067.00,0.0062
1066.00,0.0061
1065.00,0.0061
1064.00,0.0061
1063.00,0.0062
1062.00,0.0063
1061.00,0.0064
1060.00,0.0065
1059.00,0.0065
1058.00,0.0066
1057.00,0.0067
1056.00,0.0067
1055.00,0.0068
1054.00,0.0068
1053.00,0.0067
1052.00,0.0067
1051.00,0.0068
1050.00,0.0069
1049.00,0.0070
1048.00,0.0072
1047.00,0.0075
1046.00,0.0078
1045.00,0.0079
1044.00,0.0080
1043.00,0.0079
1042.00,0.0078
1041.00,0.0077
1040.00,0.0077
1039.00,0.0076
1038.00,0.0076
1037.00,0.0077
1036.00,0.0076
1035.00,0.0076
1034.00,0.0075
1033.00,0.0073
1032.00,0.0073
1031.00,0.0073
1030.00,0.0073
1029.00,0.0074
1028.00,0.0074
1027.00,0.0074
1026.00,0.0074
1025.00,0.0074
1024.00,0.0072
1023.00,0.0071
1022.00,0.0071
1021.00,0.0072
1020.00,0.0074
1019.00,0.0075
1018.00,0.0077
1017.00,0.0078
1016.00,0.0080
1015.00,0.0082
1014.00,0.0084
1013.00,0.0086
1012.00,0.0088
1011.00,0.0090
1010.00,0.0093
1009.00,0.0096
1008.00,0.0100
1007.00,0.0105
1006.00,0.0112
1005.00,0.0120
1004.00,0.0132
1003.00,0.0147
1002.00,0.0167
1001.00,0.0190
1000.00,0.0214
999.00,0.0233
998.00,0.0242
997.00,0.0236
996.00,0.0217
995.00,0.0192
994.00,0.0166
993.00,0.0144
992.00,0.0126
991.00,0.0112
990.00,0.0102
989.00,0.0096
988.00,0.0091
987.00,0.0090
986.00,0.0090
985.00,0.0092
984.00,0.0097
983.00,0.0103
982.00,0.0113
981.00,0.0127
980.00,0.0145
979.00,0.0169
978.00,0.0199
977.00,0.0232
976.00,0.0267
975.00,0.0297
974.00,0.0317
973.00,0.0320
972.00,0.0306
971.00,0.0277
970.00,0.0241
969.00,0.0205
968.00,0.0175
967.00,0.0151
966.00,0.0132
965.00,0.0118
964.00,0.0108
963.00,0.0101
962.00,0.0095
961.00,0.0090
960.00,0.0086
959.00,0.0082
958.00,0.0079
957.00,0.0076
956.00,0.0074
955.00,0.0073
954.00,0.0071
953.00,0.0070
952.00,0.0069
951.00,0.0069
950.00,0.0069
949.00,0.0070
948.00,0.0071
947.00,0.0072
946.00,0.0075
945.00,0.0078
944.00,0.0083
943.00,0.0088
942.00,0.0092
941.00,0.0094
940.00,0.0094
939.00,0.0091
938.00,0.0086
937.00,0.0080
936.00,0.0074
935.00,0.0069
934.00,0.0066
933.00,0.0064
932.00,0.0062
931.00,0.0062
930.00,0.0061
929.00,0.0061
928.00,0.0060
927.00,0.0059
926.00,0.0058
925.00,0.0057
924.00,0.0058
923.00,0.0060
922.00,0.0062
921.00,0.0063
920.00,0.0063
919.00,0.0064
918.00,0.0065
917.00,0.0065
916.00,0.0066
915.00,0.0066
914.00,0.0067
913.00,0.0068
912.00,0.0069
911.00,0.0070
910.00,0.0071
909.00,0.0073
908.00,0.0077
907.00,0.0082
906.00,0.0091
905.00,0.0103
904.00,0.0120
903.00,0.0141
902.00,0.0166
901.00,0.0188
900.00,0.0204
899.00,0.0207
898.00,0.0198
897.00,0.0180
896.00,0.0157
895.00,0.0134
894.00,0.0116
893.00,0.0102
892.00,0.0092
891.00,0.0084
890.00,0.0079
889.00,0.0074
888.00,0.0070
887.00,0.0067
886.00,0.0065
885.00,0.0063
884.00,0.0062
883.00,0.0062
882.00,0.0063
881.00,0.0063
880.00,0.0064
879.00,0.0065
878.00,0.0065
877.00,0.0066
876.00,0.0067
875.00,0.0068
874.00,0.0069
873.00,0.0068
872.00,0.0067
871.00,0.0067
870.00,0.0066
869.00,0.0066
868.00,0.0067
867.00,0.0068
866.00,0.0069
865.00,0.0071
864.00,0.0071
863.00,0.0072
862.00,0.0073
861.00,0.0074
860.00,0.0075
859.00,0.0076
858.00,0.0076
857.00,0.0077
856.00,0.0077
855.00,0.0078
854.00,0.0080
853.00,0.0082
852.00,0.0085
851.00,0.0088
850.00,0.0091
849.00,0.0096
848.00,0.0102
847.00,0.0112
846.00,0.0127
845.00,0.0148
844.00,0.0175
843.00,0.0203
842.00,0.0222
841.00,0.0225
840.00,0.0209
839.00,0.0184
838.00,0.0157
837.00,0.0135
836.00,0.0119
835.00,0.0109
834.00,0.0103
833.00,0.0100
832.00,0.0098
831.00,0.0098
830.00,0.0099
829.00,0.0098
828.00,0.0097
827.00,0.0095
826.00,0.0094
825.00,0.0094
824.00,0.0093
823.00,0.0093
822.00,0.0094
821.00,0.0096
820.00,0.0099
819.00,0.0102
818.00,0.0108
817.00,0.0114
816.00,0.0123
815.00,0.0135
814.00,0.0151
813.00,0.0171
812.00,0.0192
811.00,0.0212
810.00,0.0226
809.00,0.0232
808.00,0.0229
807.00,0.0217
806.00,0.0199
805.00,0.0179
804.00,0.0160
803.00,0.0145
802.00,0.0132
801.00,0.0123
800.00,0.0115
799.00,0.0108
798.00,0.0101
797.00,0.0095
796.00,0.0091
795.00,0.0088
794.00,0.0086
793.00,0.0085
792.00,0.0082
791.00,0.0080
790.00,0.0079
789.00,0.0077
788.00,0.0075
787.00,0.0072
786.00,0.0070
785.00,0.0068
784.00,0.0065
783.00,0.0063
782.00,0.0059
781.00,0.0056
780.00,0.0055
779.00,0.0055
778.00,0.0057
777.00,0.0058
776.00,0.0059
775.00,0.0061
774.00,0.0063
773.00,0.0066
772.00,0.0067
771.00,0.0069
770.00,0.0070
769.00,0.0070
768.00,0.0070
767.00,0.0070
766.00,0.0069
765.00,0.0067
764.00,0.0064
763.00,0.0062
762.00,0.0060
761.00,0.0057
760.00,0.0055
759.00,0.0053
758.00,0.0053
757.00,0.0053
756.00,0.0052
755.00,0.0050
754.00,0.0049
753.00,0.0048
752.00,0.0049
751.00,0.0050
750.00,0.0051
749.00,0.0051
748.00,0.0050
747.00,0.0049
746.00,0.0049
745.00,0.0050
744.00,0.0051
743.00,0.0051
742.00,0.0051
741.00,0.0052
740.00,0.0054
739.00,0.0056
738.00,0.0057
737.00,0.0058
736.00,0.0059
735.00,0.0060
734.00,0.0060
733.00,0.0061
732.00,0.0062
731.00,0.0063
730.00,0.0064
729.00,0.0064
728.00,0.0063
727.00,0.0061
726.00,0.0059
725.00,0.0059
724.00,0.0059
723.00,0.0059
722.00,0.0059
721.00,0.0059
720.00,0.0058
719.00,0.0057
718.00,0.0056
717.00,0.0055
716.00,0.0054
715.00,0.0052
714.00,0.0052
713.00,0.0052
712.00,0.0052
711.00,0.0053
710.00,0.0052
709.00,0.0051
708.00,0.0049
707.00,0.0049
706.00,0.0050
705.00,0.0051
704.00,0.0052
703.00,0.0052
702.00,0.0050
701.00,0.0048
700.00,0.0046
699.00,0.0045
698.00,0.0045
697.00,0.0044
696.00,0.0044
695.00,0.0044
694.00,0.0044
693.00,0.0045
692.00,0.0045
691.00,0.0046
690.00,0.0047
689.00,0.0047
688.00,0.0048
687.00,0.0047
686.00,0.0047
685.00,0.0046
684.00,0.0046
683.00,0.0044
682.00,0.0043
681.00,0.0043
680.00,0.0044
679.00,0.0045
678.00,0.0044
677.00,0.0042
676.00,0.0040
675.00,0.0040
674.00,0.0041
673.00,0.0041
672.00,0.0041
671.00,0.0039
670.00,0.0038
669.00,0.0036
668.00,0.0038
667.00,0.0043
666.00,0.0047
665.00,0.0046
664.00,0.0044
663.00,0.0042
662.00,0.0041
661.00,0.0041
660.00,0.0042
659.00,0.0043
658.00,0.0044
657.00,0.0043
656.00,0.0042
655.00,0.0040
654.00,0.0040
653.00,0.0041
652.00,0.0042
651.00,0.0042
650.00,0.0042
649.00,0.0042
648.00,0.0044
647.00,0.0045
646.00,0.0046
645.00,0.0045
644.00,0.0043
643.00,0.0042
642.00,0.0042
641.00,0.0043
640.00,0.0044
639.00,0.0045
638.00,0.0047
637.00,0.0049
636.00,0.0049
635.00,0.0049
634.00,0.0049
633.00,0.0049
632.00,0.0051
631.00,0.0052
630.00,0.0054
629.00,0.0055
628.00,0.0054
627.00,0.0053
626.00,0.0051
625.00,0.0050
624.00,0.0052
623.00,0.0054
622.00,0.0054
621.00,0.0053
620.00,0.0051
619.00,0.0049
618.00,0.0048
617.00,0.0048
616.00,0.0047
615.00,0.0046
614.00,0.0046
613.00,0.0048
612.00,0.0051
611.00,0.0055
610.00,0.0056
609.00,0.0055
608.00,0.0052
607.00,0.0049
606.00,0.0048
605.00,0.0049
604.00,0.0049
603.00,0.0049
602.00,0.0049
601.00,0.0050
600.00,0.0052
599.00,0.0052
598.00,0.0051
597.00,0.0050
596.00,0.0049
595.00,0.0051
594.00,0.0053
593.00,0.0054
592.00,0.0053
591.00,0.0051
590.00,0.0051
589.00,0.0052
588.00,0.0052
587.00,0.0051
586.00,0.0049
585.00,0.0050
584.00,0.0051
583.00,0.0052
582.00,0.0052
581.00,0.0052
580.00,0.0051
579.00,0.0050
578.00,0.0048
577.00,0.0050
576.00,0.0053
575.00,0.0057
574.00,0.0058
573.00,0.0057
572.00,0.0054
571.00,0.0052
570.00,0.0049
569.00,0.0047
568.00,0.0047
567.00,0.0048
566.00,0.0052
565.00,0.0056
564.00,0.0057
563.00,0.0055
562.00,0.0052
561.00,0.0050
560.00,0.0047
559.00,0.0045
558.00,0.0043
557.00,0.0043
556.00,0.0044
555.00,0.0046
554.00,0.0048
553.00,0.0050
552.00,0.0053
551.00,0.0056
550.00,0.0058
549.00,0.0060
548.00,0.0062
547.00,0.0063
546.00,0.0062
545.00,0.0061
544.00,0.0062
543.00,0.0065
542.00,0.0067
541.00,0.0068
540.00,0.0066
539.00,0.0063
538.00,0.0059
537.00,0.0057
536.00,0.0059
535.00,0.0066
534.00,0.0073
533.00,0.0077
532.00,0.0077
531.00,0.0075
530.00,0.0074
529.00,0.0074
528.00,0.0074
527.00,0.0072
526.00,0.0070
525.00,0.0069
524.00,0.0069
523.00,0.0068
522.00,0.0067
521.00,0.0064
520.00,0.0061
519.00,0.0057
518.00,0.0054
517.00,0.0054
516.00,0.0056
515.00,0.0057
514.00,0.0055
513.00,0.0053
512.00,0.0054
511.00,0.0057
510.00,0.0062
509.00,0.0064
508.00,0.0066
507.00,0.0068
506.00,0.0070
505.00,0.0069
504.00,0.0062
503.00,0.0054
502.00,0.0048
501.00,0.0047
500.00,0.0046
499.00,0.0044
498.00,0.0042
497.00,0.0043
496.00,0.0047
495.00,0.0052
494.00,0.0055
493.00,0.0059
492.00,0.0064
491.00,0.0068
490.00,0.0068
489.00,0.0065
488.00,0.0063
487.00,0.0064
486.00,0.0067
485.00,0.0070
484.00,0.0072
483.00,0.0072
482.00,0.0068
481.00,0.0062
480.00,0.0057
479.00,0.0056
478.00,0.0063
477.00,0.0074
476.00,0.0084
475.00,0.0085
474.00,0.0075
473.00,0.0059
472.00,0.0048
471.00,0.0048
470.00,0.0054
469.00,0.0061
468.00,0.0070
467.00,0.0081
466.00,0.0095
465.00,0.0111
464.00,0.0128
463.00,0.0146
462.00,0.0162
461.00,0.0172
460.00,0.0177
459.00,0.0179
458.00,0.0180
457.00,0.0174
456.00,0.0159
455.00,0.0137
454.00,0.0114
453.00,0.0098
452.00,0.0094
451.00,0.0097
450.00,0.0095
