Created as New Dataset,Sample 017 By Administrator Date Wednesday, September 10 2025
cm-1,A
4000.00,0.0011
3999.00,0.0011
3998.00,0.0011
3997.00,0.0011
3996.00,0.0011
3995.00,0.0011
3994.00,0.0011
3993.00,0.0011
3992.00,0.0011
3991.00,0.0011
3990.00,0.0011
3989.00,0.0011
3988.00,0.0011
3987.00,0.0011
3986.00,0.0010
3985.00,0.0010
3984.00,0.0009
3983.00,0.0009
3982.00,0.0009
3981.00,0.0009
3980.00,0.0010
3979.00,0.0010
3978.00,0.0010
3977.00,0.0010
3976.00,0.0010
3975.00,0.0010
3974.00,0.0010
3973.00,0.0010
3972.00,0.0010
3971.00,0.0010
3970.00,0.0010
3969.00,0.0009
3968.00,0.0009
3967.00,0.0009
3966.00,0.0009
3965.00,0.0009
3964.00,0.0009
3963.00,0.0009
3962.00,0.0009
3961.00,0.0009
3960.00,0.0009
3959.00,0.0009
3958.00,0.0009
3957.00,0.0008
3956.00,0.0008
3955.00,0.0008
3954.00,0.0008
3953.00,0.0008
3952.00,0.0008
3951.00,0.0008
3950.00,0.0008
3949.00,0.0008
3948.00,0.0008
3947.00,0.0008
3946.00,0.0008
3945.00,0.0008
3944.00,0.0008
3943.00,0.0009
3942.00,0.0009
3941.00,0.0009
3940.00,0.0009
3939.00,0.0009
3938.00,0.0009
3937.00,0.0009
3936.00,0.0009
3935.00,0.0009
3934.00,0.0008
3933.00,0.0008
3932.00,0.0008
3931.00,0.0008
3930.00,0.0008
3929.00,0.0008
3928.00,0.0008
3927.00,0.0008
3926.00,0.0008
3925.00,0.0008
3924.00,0.0009
3923.00,0.0009
3922.00,0.0009
3921.00,0.0009
3920.00,0.0009
3919.00,0.0008
3918.00,0.0008
3917.00,0.0008
3916.00,0.0008
3915.00,0.0008
3914.00,0.0009
3913.00,0.0009
3912.00,0.0009
3911.00,0.0010
3910.00,0.0009
3909.00,0.0009
3908.00,0.0009
3907.00,0.0008
3906.00,0.0007
3905.00,0.0007
3904.00,0.0006
3903.00,0.0006
3902.00,0.0006
3901.00,0.0006
3900.00,0.0006
3899.00,0.0007
3898.00,0.0007
3897.00,0.0008
3896.00,0.0008
3895.00,0.0008
3894.00,0.0008
3893.00,0.0008
3892.00,0.0008
3891.00,0.0008
3890.00,0.0008
3889.00,0.0008
3888.00,0.0008
3887.00,0.0008
3886.00,0.0008
3885.00,0.0008
3884.00,0.0008
3883.00,0.0008
3882.00,0.0008
3881.00,0.0008
3880.00,0.0008
3879.00,0.0008
3878.00,0.0008
3877.00,0.0008
3876.00,0.0008
3875.00,0.0008
3874.00,0.0009
3873.00,0.0009
3872.00,0.0008
3871.00,0.0007
3870.00,0.0007
3869.00,0.0007
3868.00,0.0007
3867.00,0.0007
3866.00,0.0007
3865.00,0.0008
3864.00,0.0008
3863.00,0.0008
3862.00,0.0008
3861.00,0.0008
3860.00,0.0008
3859.00,0.0008
3858.00,0.0008
3857.00,0.0008
3856.00,0.0008
3855.00,0.0008
3854.00,0.0008
3853.00,0.0007
3852.00,0.0007
3851.00,0.0007
3850.00,0.0007
3849.00,0.0007
3848.00,0.0007
3847.00,0.0008
3846.00,0.0008
3845.00,0.0008
3844.00,0.0007
3843.00,0.0007
3842.00,0.0007
3841.00,0.0007
3840.00,0.0007
3839.00,0.0007
3838.00,0.0008
3837.00,0.0008
3836.00,0.0009
3835.00,0.0008
3834.00,0.0008
3833.00,0.0008
3832.00,0.0008
3831.00,0.0008
3830.00,0.0008
3829.00,0.0008
3828.00,0.0008
3827.00,0.0008
3826.00,0.0009
3825.00,0.0009
3824.00,0.0009
3823.00,0.0009
3822.00,0.0009
3821.00,0.0010
3820.00,0.0010
3819.00,0.0010
3818.00,0.0009
3817.00,0.0009
3816.00,0.0008
3815.00,0.0008
3814.00,0.0008
3813.00,0.0008
3812.00,0.0008
3811.00,0.0008
3810.00,0.0008
3809.00,0.0008
3808.00,0.0008
3807.00,0.0008
3806.00,0.0009
3805.00,0.0009
3804.00,0.0009
3803.00,0.0009
3802.00,0.0009
3801.00,0.0009
3800.00,0.0009
3799.00,0.0009
3798.00,0.0009
3797.00,0.0008
3796.00,0.0008
3795.00,0.0008
3794.00,0.0008
3793.00,0.0008
3792.00,0.0008
3791.00,0.0008
3790.00,0.0008
3789.00,0.0008
3788.00,0.0008
3787.00,0.0008
3786.00,0.0008
3785.00,0.0008
3784.00,0.0008
3783.00,0.0008
3782.00,0.0008
3781.00,0.0008
3780.00,0.0007
3779.00,0.0007
3778.00,0.0007
3777.00,0.0008
3776.00,0.0008
3775.00,0.0008
3774.00,0.0008
3773.00,0.0008
3772.00,0.0008
3771.00,0.0008
3770.00,0.0008
3769.00,0.0009
3768.00,0.0009
3767.00,0.0009
3766.00,0.0009
3765.00,0.0009
3764.00,0.0008
3763.00,0.0008
3762.00,0.0008
3761.00,0.0008
3760.00,0.0008
3759.00,0.0008
3758.00,0.0008
3757.00,0.0008
3756.00,0.0008
3755.00,0.0008
3754.00,0.0008
3753.00,0.0008
3752.00,0.0008
3751.00,0.0008
3750.00,0.0007
3749.00,0.0007
3748.00,0.0007
3747.00,0.0008
3746.00,0.0007
3745.00,0.0007
3744.00,0.0007
3743.00,0.0007
3742.00,0.0007
3741.00,0.0007
3740.00,0.0006
3739.00,0.0006
3738.00,0.0006
3737.00,0.0006
3736.00,0.0007
3735.00,0.0008
3734.00,0.0008
3733.00,0.0008
3732.00,0.0007
3731.00,0.0006
3730.00,0.0006
3729.00,0.0005
3728.00,0.0005
3727.00,0.0005
3726.00,0.0005
3725.00,0.0005
3724.00,0.0006
3723.00,0.0006
3722.00,0.0006
3721.00,0.0006
3720.00,0.0007
3719.00,0.0007
3718.00,0.0007
3717.00,0.0008
3716.00,0.0008
3715.00,0.0008
3714.00,0.0008
3713.00,0.0008
3712.00,0.0008
3711.00,0.0007
3710.00,0.0007
3709.00,0.0007
3708.00,0.0007
3707.00,0.0007
3706.00,0.0007
3705.00,0.0007
3704.00,0.0007
3703.00,0.0008
3702.00,0.0008
3701.00,0.0008
3700.00,0.0007
3699.00,0.0007
3698.00,0.0007
3697.00,0.0007
3696.00,0.0008
3695.00,0.0008
3694.00,0.0009
3693.00,0.0009
3692.00,0.0009
3691.00,0.0009
3690.00,0.0009
3689.00,0.0009
3688.00,0.0009
3687.00,0.0009
3686.00,0.0010
3685.00,0.0010
3684.00,0.0010
3683.00,0.0011
3682.00,0.0011
3681.00,0.0011
3680.00,0.0012
3679.00,0.0012
3678.00,0.0012
3677.00,0.0012
3676.00,0.0012
3675.00,0.0012
3674.00,0.0012
3673.00,0.0012
3672.00,0.0011
3671.00,0.0011
3670.00,0.0011
3669.00,0.0012
3668.00,0.0012
3667.00,0.0013
3666.00,0.0013
3665.00,0.0013
3664.00,0.0013
3663.00,0.0013
3662.00,0.0013
3661.00,0.0013
3660.00,0.0014
3659.00,0.0014
3658.00,0.0014
3657.00,0.0014
3656.00,0.0014
3655.00,0.0014
3654.00,0.0014
3653.00,0.0014
3652.00,0.0014
3651.00,0.0014
3650.00,0.0015
3649.00,0.0015
3648.00,0.0016
3647.00,0.0016
3646.00,0.0016
3645.00,0.0016
3644.00,0.0017
3643.00,0.0017
3642.00,0.0018
3641.00,0.0018
3640.00,0.0019
3639.00,0.0020
3638.00,0.0020
3637.00,0.0021
3636.00,0.0021
3635.00,0.0021
3634.00,0.0021
3633.00,0.0021
3632.00,0.0021
3631.00,0.0021
3630.00,0.0021
3629.00,0.0022
3628.00,0.0023
3627.00,0.0024
3626.00,0.0024
3625.00,0.0025
3624.00,0.0025
3623.00,0.0026
3622.00,0.0026
3621.00,0.0026
3620.00,0.0027
3619.00,0.0027
3618.00,0.0028
3617.00,0.0028
3616.00,0.0029
3615.00,0.0029
3614.00,0.0030
3613.00,0.0031
3612.00,0.0032
3611.00,0.0033
3610.00,0.0033
3609.00,0.0033
3608.00,0.0034
3607.00,0.0034
3606.00,0.0035
3605.00,0.0035
3604.00,0.0036
3603.00,0.0037
3602.00,0.0038
3601.00,0.0039
3600.00,0.0039
3599.00,0.0039
3598.00,0.0039
3597.00,0.0040
3596.00,0.0041
3595.00,0.0042
3594.00,0.0043
3593.00,0.0045
3592.00,0.0045
3591.00,0.0046
3590.00,0.0046
3589.00,0.0046
3588.00,0.0047
3587.00,0.0048
3586.00,0.0049
3585.00,0.0050
3584.00,0.0050
3583.00,0.0050
3582.00,0.0051
3581.00,0.0051
3580.00,0.0052
3579.00,0.0053
3578.00,0.0054
3577.00,0.0055
3576.00,0.0056
3575.00,0.0057
3574.00,0.0058
3573.00,0.0059
3572.00,0.0060
3571.00,0.0060
3570.00,0.0060
3569.00,0.0060
3568.00,0.0060
3567.00,0.0062
3566.00,0.0064
3565.00,0.0065
3564.00,0.0066
3563.00,0.0067
3562.00,0.0068
3561.00,0.0069
3560.00,0.0069
3559.00,0.0070
3558.00,0.0071
3557.00,0.0072
3556.00,0.0072
3555.00,0.0073
3554.00,0.0074
3553.00,0.0075
3552.00,0.0077
3551.00,0.0077
3550.00,0.0078
3549.00,0.0079
3548.00,0.0080
3547.00,0.0081
3546.00,0.0082
3545.00,0.0083
3544.00,0.0084
3543.00,0.0085
3542.00,0.0087
3541.00,0.0088
3540.00,0.0089
3539.00,0.0089
3538.00,0.0090
3537.00,0.0091
3536.00,0.0091
3535.00,0.0092
3534.00,0.0093
3533.00,0.0094
3532.00,0.0095
3531.00,0.0096
3530.00,0.0097
3529.00,0.0098
3528.00,0.0099
3527.00,0.0101
3526.00,0.0102
3525.00,0.0103
3524.00,0.0104
3523.00,0.0105
3522.00,0.0106
3521.00,0.0107
3520.00,0.0108
3519.00,0.0110
3518.00,0.0111
3517.00,0.0112
3516.00,0.0113
3515.00,0.0114
3514.00,0.0115
3513.00,0.0116
3512.00,0.0117
3511.00,0.0118
3510.00,0.0119
3509.00,0.0120
3508.00,0.0121
3507.00,0.0122
3506.00,0.0123
3505.00,0.0124
3504.00,0.0126
3503.00,0.0127
3502.00,0.0128
3501.00,0.0129
3500.00,0.0130
3499.00,0.0131
3498.00,0.0132
3497.00,0.0133
3496.00,0.0135
3495.00,0.0136
3494.00,0.0137
3493.00,0.0138
3492.00,0.0139
3491.00,0.0140
3490.00,0.0141
3489.00,0.0143
3488.00,0.0144
3487.00,0.0144
3486.00,0.0145
3485.00,0.0146
3484.00,0.0147
3483.00,0.0149
3482.00,0.0150
3481.00,0.0151
3480.00,0.0152
3479.00,0.0153
3478.00,0.0153
3477.00,0.0154
3476.00,0.0155
3475.00,0.0156
3474.00,0.0157
3473.00,0.0158
3472.00,0.0159
3471.00,0.0160
3470.00,0.0161
3469.00,0.0162
3468.00,0.0163
3467.00,0.0164
3466.00,0.0165
3465.00,0.0166
3464.00,0.0166
3463.00,0.0167
3462.00,0.0168
3461.00,0.0169
3460.00,0.0170
3459.00,0.0171
3458.00,0.0171
3457.00,0.0172
3456.00,0.0172
3455.00,0.0173
3454.00,0.0174
3453.00,0.0174
3452.00,0.0175
3451.00,0.0176
3450.00,0.0176
3449.00,0.0177
3448.00,0.0178
3447.00,0.0179
3446.00,0.0180
3445.00,0.0180
3444.00,0.0181
3443.00,0.0182
3442.00,0.0183
3441.00,0.0184
3440.00,0.0185
3439.00,0.0186
3438.00,0.0187
3437.00,0.0188
3436.00,0.0188
3435.00,0.0188
3434.00,0.0189
3433.00,0.0189
3432.00,0.0190
3431.00,0.0191
3430.00,0.0191
3429.00,0.0192
3428.00,0.0193
3427.00,0.0193
3426.00,0.0194
3425.00,0.0195
3424.00,0.0195
3423.00,0.0196
3422.00,0.0196
3421.00,0.0197
3420.00,0.0198
3419.00,0.0199
3418.00,0.0199
3417.00,0.0200
3416.00,0.0200
3415.00,0.0201
3414.00,0.0202
3413.00,0.0202
3412.00,0.0203
3411.00,0.0204
3410.00,0.0204
3409.00,0.0205
3408.00,0.0205
3407.00,0.0206
3406.00,0.0206
3405.00,0.0207
3404.00,0.0207
3403.00,0.0208
3402.00,0.0208
3401.00,0.0209
3400.00,0.0209
3399.00,0.0210
3398.00,0.0210
3397.00,0.0211
3396.00,0.0211
3395.00,0.0212
3394.00,0.0212
3393.00,0.0212
3392.00,0.0213
3391.00,0.0213
3390.00,0.0213
3389.00,0.0213
3388.00,0.0213
3387.00,0.0212
3386.00,0.0212
3385.00,0.0213
3384.00,0.0213
3383.00,0.0213
3382.00,0.0214
3381.00,0.0214
3380.00,0.0213
3379.00,0.0213
3378.00,0.0214
3377.00,0.0214
3376.00,0.0214
3375.00,0.0214
3374.00,0.0215
3373.00,0.0215
3372.00,0.0216
3371.00,0.0216
3370.00,0.0216
3369.00,0.0216
3368.00,0.0216
3367.00,0.0216
3366.00,0.0215
3365.00,0.0215
3364.00,0.0215
3363.00,0.0215
3362.00,0.0215
3361.00,0.0215
3360.00,0.0215
3359.00,0.0215
3358.00,0.0215
3357.00,0.0215
3356.00,0.0215
3355.00,0.0215
3354.00,0.0215
3353.00,0.0215
3352.00,0.0215
3351.00,0.0215
3350.00,0.0215
3349.00,0.0215
3348.00,0.0215
3347.00,0.0215
3346.00,0.0214
3345.00,0.0214
3344.00,0.0213
3343.00,0.0213
3342.00,0.0212
3341.00,0.0212
3340.00,0.0211
3339.00,0.0211
3338.00,0.0211
3337.00,0.0211
3336.00,0.0211
3335.00,0.0211
3334.00,0.0211
3333.00,0.0211
3332.00,0.0210
3331.00,0.0210
3330.00,0.0210
3329.00,0.0209
3328.00,0.0209
3327.00,0.0208
3326.00,0.0208
3325.00,0.0208
3324.00,0.0208
3323.00,0.0207
3322.00,0.0207
3321.00,0.0207
3320.00,0.0206
3319.00,0.0205
3318.00,0.0205
3317.00,0.0205
3316.00,0.0204
3315.00,0.0204
3314.00,0.0204
3313.00,0.0203
3312.00,0.0202
3311.00,0.0201
3310.00,0.0201
3309.00,0.0201
3308.00,0.0201
3307.00,0.0201
3306.00,0.0201
3305.00,0.0200
3304.00,0.0200
3303.00,0.0199
3302.00,0.0198
3301.00,0.0198
3300.00,0.0197
3299.00,0.0196
3298.00,0.0195
3297.00,0.0194
3296.00,0.0194
3295.00,0.0193
3294.00,0.0193
3293.00,0.0193
3292.00,0.0192
3291.00,0.0191
3290.00,0.0191
3289.00,0.0190
3288.00,0.0189
3287.00,0.0189
3286.00,0.0188
3285.00,0.0188
3284.00,0.0187
3283.00,0.0187
3282.00,0.0186
3281.00,0.0186
3280.00,0.0185
3279.00,0.0184
3278.00,0.0183
3277.00,0.0183
3276.00,0.0182
3275.00,0.0181
3274.00,0.0181
3273.00,0.0180
3272.00,0.0179
3271.00,0.0179
3270.00,0.0178
3269.00,0.0177
3268.00,0.0177
3267.00,0.0177
3266.00,0.0176
3265.00,0.0175
3264.00,0.0175
3263.00,0.0174
3262.00,0.0174
3261.00,0.0173
3260.00,0.0172
3259.00,0.0171
3258.00,0.0170
3257.00,0.0170
3256.00,0.0169
3255.00,0.0168
3254.00,0.0168
3253.00,0.0167
3252.00,0.0166
3251.00,0.0166
3250.00,0.0166
3249.00,0.0165
3248.00,0.0164
3247.00,0.0163
3246.00,0.0162
3245.00,0.0162
3244.00,0.0161
3243.00,0.0161
3242.00,0.0161
3241.00,0.0160
3240.00,0.0160
3239.00,0.0159
3238.00,0.0158
3237.00,0.0158
3236.00,0.0157
3235.00,0.0157
3234.00,0.0156
3233.00,0.0155
3232.00,0.0155
3231.00,0.0154
3230.00,0.0154
3229.00,0.0153
3228.00,0.0153
3227.00,0.0153
3226.00,0.0152
3225.00,0.0152
3224.00,0.0151
3223.00,0.0151
3222.00,0.0150
3221.00,0.0150
3220.00,0.0150
3219.00,0.0150
3218.00,0.0150
3217.00,0.0150
3216.00,0.0150
3215.00,0.0149
3214.00,0.0149
3213.00,0.0148
3212.00,0.0148
3211.00,0.0148
3210.00,0.0148
3209.00,0.0148
3208.00,0.0147
3207.00,0.0147
3206.00,0.0147
3205.00,0.0147
3204.00,0.0146
3203.00,0.0146
3202.00,0.0146
3201.00,0.0146
3200.00,0.0146
3199.00,0.0146
3198.00,0.0145
3197.00,0.0145
3196.00,0.0144
3195.00,0.0144
3194.00,0.0144
3193.00,0.0144
3192.00,0.0143
3191.00,0.0143
3190.00,0.0143
3189.00,0.0143
3188.00,0.0142
3187.00,0.0142
3186.00,0.0141
3185.00,0.0141
3184.00,0.0140
3183.00,0.0139
3182.00,0.0138
3181.00,0.0137
3180.00,0.0137
3179.00,0.0136
3178.00,0.0136
3177.00,0.0135
3176.00,0.0135
3175.00,0.0134
3174.00,0.0133
3173.00,0.0133
3172.00,0.0132
3171.00,0.0131
3170.00,0.0131
3169.00,0.0130
3168.00,0.0130
3167.00,0.0129
3166.00,0.0129
3165.00,0.0128
3164.00,0.0127
3163.00,0.0126
3162.00,0.0126
3161.00,0.0125
3160.00,0.0125
3159.00,0.0124
3158.00,0.0124
3157.00,0.0123
3156.00,0.0123
3155.00,0.0122
3154.00,0.0122
3153.00,0.0121
3152.00,0.0120
3151.00,0.0120
3150.00,0.0119
3149.00,0.0119
3148.00,0.0119
3147.00,0.0118
3146.00,0.0118
3145.00,0.0118
3144.00,0.0118
3143.00,0.0117
3142.00,0.0116
3141.00,0.0115
3140.00,0.0115
3139.00,0.0114
3138.00,0.0113
3137.00,0.0112
3136.00,0.0112
3135.00,0.0112
3134.00,0.0112
3133.00,0.0111
3132.00,0.0111
3131.00,0.0110
3130.00,0.0110
3129.00,0.0109
3128.00,0.0108
3127.00,0.0107
3126.00,0.0107
3125.00,0.0106
3124.00,0.0106
3123.00,0.0105
3122.00,0.0104
3121.00,0.0103
3120.00,0.0102
3119.00,0.0101
3118.00,0.0101
3117.00,0.0101
3116.00,0.0101
3115.00,0.0101
3114.00,0.0100
3113.00,0.0100
3112.00,0.0099
3111.00,0.0099
3110.00,0.0098
3109.00,0.0097
3108.00,0.0097
3107.00,0.0096
3106.00,0.0095
3105.00,0.0094
3104.00,0.0094
3103.00,0.0093
3102.00,0.0093
3101.00,0.0093
3100.00,0.0092
3099.00,0.0092
3098.00,0.0092
3097.00,0.0091
3096.00,0.0091
3095.00,0.0090
3094.00,0.0090
3093.00,0.0089
3092.00,0.0088
3091.00,0.0088
3090.00,0.0087
3089.00,0.0087
3088.00,0.0087
3087.00,0.0086
3086.00,0.0086
3085.00,0.0085
3084.00,0.0084
3083.00,0.0084
3082.00,0.0083
3081.00,0.0083
3080.00,0.0083
3079.00,0.0083
3078.00,0.0083
3077.00,0.0083
3076.00,0.0083
3075.00,0.0083
3074.00,0.0083
3073.00,0.0083
3072.00,0.0083
3071.00,0.0084
3070.00,0.0084
3069.00,0.0084
3068.00,0.0084
3067.00,0.0085
3066.00,0.0085
3065.00,0.0085
3064.00,0.0085
3063.00,0.0085
3062.00,0.0084
3061.00,0.0084
3060.00,0.0084
3059.00,0.0084
3058.00,0.0083
3057.00,0.0083
3056.00,0.0082
3055.00,0.0082
3054.00,0.0082
3053.00,0.0082
3052.00,0.0082
3051.00,0.0083
3050.00,0.0083
3049.00,0.0083
3048.00,0.0083
3047.00,0.0084
3046.00,0.0084
3045.00,0.0085
3044.00,0.0085
3043.00,0.0085
3042.00,0.0086
3041.00,0.0086
3040.00,0.0086
3039.00,0.0087
3038.00,0.0087
3037.00,0.0088
3036.00,0.0088
3035.00,0.0088
3034.00,0.0088
3033.00,0.0089
3032.00,0.0089
3031.00,0.0090
3030.00,0.0090
3029.00,0.0091
3028.00,0.0091
3027.00,0.0092
3026.00,0.0092
3025.00,0.0093
3024.00,0.0093
3023.00,0.0093
3022.00,0.0093
3021.00,0.0094
3020.00,0.0094
3019.00,0.0094
3018.00,0.0095
3017.00,0.0095
3016.00,0.0095
3015.00,0.0096
3014.00,0.0096
3013.00,0.0097
3012.00,0.0097
3011.00,0.0098
3010.00,0.0098
3009.00,0.0099
3008.00,0.0100
3007.00,0.0101
3006.00,0.0102
3005.00,0.0103
3004.00,0.0104
3003.00,0.0105
3002.00,0.0106
3001.00,0.0108
3000.00,0.0110
2999.00,0.0112
2998.00,0.0114
2997.00,0.0117
2996.00,0.0120
2995.00,0.0124
2994.00,0.0127
2993.00,0.0132
2992.00,0.0136
2991.00,0.0142
2990.00,0.0148
2989.00,0.0154
2988.00,0.0161
2987.00,0.0168
2986.00,0.0176
2985.00,0.0185
2984.00,0.0195
2983.00,0.0205
2982.00,0.0218
2981.00,0.0233
2980.00,0.0250
2979.00,0.0270
2978.00,0.0293
2977.00,0.0318
2976.00,0.0346
2975.00,0.0379
2974.00,0.0415
2973.00,0.0456
2972.00,0.0503
2971.00,0.0555
2970.00,0.0614
2969.00,0.0680
2968.00,0.0752
2967.00,0.0830
2966.00,0.0914
2965.00,0.1001
2964.00,0.1090
2963.00,0.1178
2962.00,0.1260
2961.00,0.1334
2960.00,0.1396
2959.00,0.1445
2958.00,0.1483
2957.00,0.1512
2956.00,0.1537
2955.00,0.1562
2954.00,0.1588
2953.00,0.1615
2952.00,0.1638
2951.00,0.1653
2950.00,0.1653
2949.00,0.1632
2948.00,0.1589
2947.00,0.1524
2946.00,0.1444
2945.00,0.1356
2944.00,0.1271
2943.00,0.1195
2942.00,0.1137
2941.00,0.1097
2940.00,0.1077
2939.00,0.1074
2938.00,0.1088
2937.00,0.1115
2936.00,0.1155
2935.00,0.1207
2934.00,0.1270
2933.00,0.1342
2932.00,0.1421
2931.00,0.1506
2930.00,0.1595
2929.00,0.1684
2928.00,0.1771
2927.00,0.1854
2926.00,0.1931
2925.00,0.2001
2924.00,0.2064
2923.00,0.2122
2922.00,0.2174
2921.00,0.2220
2920.00,0.2258
2919.00,0.2282
2918.00,0.2288
2917.00,0.2274
2916.00,0.2238
2915.00,0.2183
2914.00,0.2115
2913.00,0.2041
2912.00,0.1967
2911.00,0.1897
2910.00,0.1833
2909.00,0.1776
2908.00,0.1724
2907.00,0.1674
2906.00,0.1624
2905.00,0.1572
2904.00,0.1518
2903.00,0.1462
2902.00,0.1405
2901.00,0.1349
2900.00,0.1293
2899.00,0.1240
2898.00,0.1190
2897.00,0.1145
2896.00,0.1103
2895.00,0.1066
2894.00,0.1035
2893.00,0.1009
2892.00,0.0989
2891.00,0.0974
2890.00,0.0963
2889.00,0.0956
2888.00,0.0952
2887.00,0.0952
2886.00,0.0955
2885.00,0.0961
2884.00,0.0970
2883.00,0.0984
2882.00,0.1001
2881.00,0.1021
2880.00,0.1041
2879.00,0.1059
2878.00,0.1073
2877.00,0.1080
2876.00,0.1082
2875.00,0.1081
2874.00,0.1080
2873.00,0.1081
2872.00,0.1086
2871.00,0.1096
2870.00,0.1111
2869.00,0.1126
2868.00,0.1138
2867.00,0.1143
2866.00,0.1134
2865.00,0.1109
2864.00,0.1071
2863.00,0.1025
2862.00,0.0975
2861.00,0.0930
2860.00,0.0893
2859.00,0.0864
2858.00,0.0844
2857.00,0.0831
2856.00,0.0822
2855.00,0.0816
2854.00,0.0811
2853.00,0.0806
2852.00,0.0801
2851.00,0.0798
2850.00,0.0795
2849.00,0.0794
2848.00,0.0797
2847.00,0.0806
2846.00,0.0821
2845.00,0.0846
2844.00,0.0878
2843.00,0.0919
2842.00,0.0964
2841.00,0.1008
2840.00,0.1046
2839.00,0.1070
2838.00,0.1074
2837.00,0.1052
2836.00,0.1005
2835.00,0.0935
2834.00,0.0851
2833.00,0.0761
2832.00,0.0675
2831.00,0.0597
2830.00,0.0530
2829.00,0.0475
2828.00,0.0429
2827.00,0.0392
2826.00,0.0362
2825.00,0.0336
2824.00,0.0315
2823.00,0.0297
2822.00,0.0281
2821.00,0.0267
2820.00,0.0255
2819.00,0.0244
2818.00,0.0234
2817.00,0.0226
2816.00,0.0219
2815.00,0.0213
2814.00,0.0207
2813.00,0.0201
2812.00,0.0196
2811.00,0.0191
2810.00,0.0186
2809.00,0.0181
2808.00,0.0176
2807.00,0.0170
2806.00,0.0164
2805.00,0.0159
2804.00,0.0153
2803.00,0.0148
2802.00,0.0143
2801.00,0.0138
2800.00,0.0135
2799.00,0.0132
2798.00,0.0129
2797.00,0.0127
2796.00,0.0125
2795.00,0.0122
2794.00,0.0120
2793.00,0.0117
2792.00,0.0114
2791.00,0.0111
2790.00,0.0108
2789.00,0.0104
2788.00,0.0101
2787.00,0.0098
2786.00,0.0095
2785.00,0.0093
2784.00,0.0090
2783.00,0.0088
2782.00,0.0086
2781.00,0.0085
2780.00,0.0083
2779.00,0.0082
2778.00,0.0080
2777.00,0.0078
2776.00,0.0077
2775.00,0.0076
2774.00,0.0075
2773.00,0.0074
2772.00,0.0073
2771.00,0.0073
2770.00,0.0072
2769.00,0.0072
2768.00,0.0071
2767.00,0.0071
2766.00,0.0070
2765.00,0.0070
2764.00,0.0070
2763.00,0.0069
2762.00,0.0068
2761.00,0.0068
2760.00,0.0067
2759.00,0.0067
2758.00,0.0066
2757.00,0.0066
2756.00,0.0065
2755.00,0.0065
2754.00,0.0064
2753.00,0.0064
2752.00,0.0064
2751.00,0.0064
2750.00,0.0064
2749.00,0.0064
2748.00,0.0064
2747.00,0.0064
2746.00,0.0065
2745.00,0.0065
2744.00,0.0066
2743.00,0.0066
2742.00,0.0067
2741.00,0.0068
2740.00,0.0069
2739.00,0.0070
2738.00,0.0071
2737.00,0.0072
2736.00,0.0073
2735.00,0.0074
2734.00,0.0075
2733.00,0.0076
2732.00,0.0077
2731.00,0.0079
2730.00,0.0081
2729.00,0.0082
2728.00,0.0084
2727.00,0.0086
2726.00,0.0088
2725.00,0.0089
2724.00,0.0090
2723.00,0.0091
2722.00,0.0090
2721.00,0.0088
2720.00,0.0085
2719.00,0.0083
2718.00,0.0080
2717.00,0.0078
2716.00,0.0076
2715.00,0.0073
2714.00,0.0071
2713.00,0.0069
2712.00,0.0067
2711.00,0.0066
2710.00,0.0064
2709.00,0.0064
2708.00,0.0063
2707.00,0.0062
2706.00,0.0061
2705.00,0.0060
2704.00,0.0059
2703.00,0.0058
2702.00,0.0057
2701.00,0.0057
2700.00,0.0056
2699.00,0.0055
2698.00,0.0055
2697.00,0.0054
2696.00,0.0054
2695.00,0.0054
2694.00,0.0054
2693.00,0.0055
2692.00,0.0055
2691.00,0.0054
2690.00,0.0054
2689.00,0.0054
2688.00,0.0054
2687.00,0.0054
2686.00,0.0054
2685.00,0.0054
2684.00,0.0053
2683.00,0.0053
2682.00,0.0053
2681.00,0.0053
2680.00,0.0053
2679.00,0.0053
2678.00,0.0053
2677.00,0.0054
2676.00,0.0054
2675.00,0.0053
2674.00,0.0053
2673.00,0.0052
2672.00,0.0052
2671.00,0.0052
2670.00,0.0051
2669.00,0.0051
2668.00,0.0051
2667.00,0.0051
2666.00,0.0051
2665.00,0.0052
2664.00,0.0052
2663.00,0.0053
2662.00,0.0054
2661.00,0.0054
2660.00,0.0054
2659.00,0.0054
2658.00,0.0054
2657.00,0.0054
2656.00,0.0053
2655.00,0.0053
2654.00,0.0052
2653.00,0.0051
2652.00,0.0051
2651.00,0.0050
2650.00,0.0049
2649.00,0.0049
2648.00,0.0049
2647.00,0.0048
2646.00,0.0048
2645.00,0.0048
2644.00,0.0047
2643.00,0.0047
2642.00,0.0046
2641.00,0.0046
2640.00,0.0045
2639.00,0.0045
2638.00,0.0045
2637.00,0.0045
2636.00,0.0045
2635.00,0.0044
2634.00,0.0044
2633.00,0.0043
2632.00,0.0043
2631.00,0.0043
2630.00,0.0043
2629.00,0.0044
2628.00,0.0044
2627.00,0.0045
2626.00,0.0045
2625.00,0.0045
2624.00,0.0045
2623.00,0.0045
2622.00,0.0045
2621.00,0.0045
2620.00,0.0045
2619.00,0.0044
2618.00,0.0044
2617.00,0.0045
2616.00,0.0045
2615.00,0.0045
2614.00,0.0045
2613.00,0.0044
2612.00,0.0044
2611.00,0.0043
2610.00,0.0042
2609.00,0.0041
2608.00,0.0041
2607.00,0.0041
2606.00,0.0040
2605.00,0.0039
2604.00,0.0039
2603.00,0.0038
2602.00,0.0037
2601.00,0.0037
2600.00,0.0037
2599.00,0.0036
2598.00,0.0037
2597.00,0.0037
2596.00,0.0037
2595.00,0.0038
2594.00,0.0038
2593.00,0.0038
2592.00,0.0038
2591.00,0.0038
2590.00,0.0038
2589.00,0.0038
2588.00,0.0039
2587.00,0.0039
2586.00,0.0040
2585.00,0.0041
2584.00,0.0041
2583.00,0.0041
2582.00,0.0041
2581.00,0.0041
2580.00,0.0040
2579.00,0.0040
2578.00,0.0039
2577.00,0.0038
2576.00,0.0037
2575.00,0.0037
2574.00,0.0035
2573.00,0.0034
2572.00,0.0034
2571.00,0.0033
2570.00,0.0032
2569.00,0.0032
2568.00,0.0032
2567.00,0.0031
2566.00,0.0031
2565.00,0.0030
2564.00,0.0030
2563.00,0.0029
2562.00,0.0029
2561.00,0.0028
2560.00,0.0028
2559.00,0.0027
2558.00,0.0027
2557.00,0.0026
2556.00,0.0026
2555.00,0.0026
2554.00,0.0026
2553.00,0.0027
2552.00,0.0027
2551.00,0.0028
2550.00,0.0027
2549.00,0.0027
2548.00,0.0026
2547.00,0.0026
2546.00,0.0025
2545.00,0.0024
2544.00,0.0024
2543.00,0.0023
2542.00,0.0023
2541.00,0.0023
2540.00,0.0022
2539.00,0.0022
2538.00,0.0021
2537.00,0.0021
2536.00,0.0021
2535.00,0.0022
2534.00,0.0022
2533.00,0.0022
2532.00,0.0021
2531.00,0.0020
2530.00,0.0019
2529.00,0.0019
2528.00,0.0019
2527.00,0.0019
2526.00,0.0020
2525.00,0.0020
2524.00,0.0020
2523.00,0.0020
2522.00,0.0019
2521.00,0.0019
2520.00,0.0019
2519.00,0.0019
2518.00,0.0019
2517.00,0.0019
2516.00,0.0018
2515.00,0.0017
2514.00,0.0016
2513.00,0.0016
2512.00,0.0017
2511.00,0.0017
2510.00,0.0017
2509.00,0.0017
2508.00,0.0017
2507.00,0.0016
2506.00,0.0016
2505.00,0.0016
2504.00,0.0016
2503.00,0.0015
2502.00,0.0015
2501.00,0.0014
2500.00,0.0014
2499.00,0.0014
2498.00,0.0015
2497.00,0.0016
2496.00,0.0016
2495.00,0.0017
2494.00,0.0017
2493.00,0.0017
2492.00,0.0017
2491.00,0.0017
2490.00,0.0016
2489.00,0.0016
2488.00,0.0016
2487.00,0.0016
2486.00,0.0016
2485.00,0.0016
2484.00,0.0016
2483.00,0.0015
2482.00,0.0014
2481.00,0.0014
2480.00,0.0013
2479.00,0.0013
2478.00,0.0014
2477.00,0.0014
2476.00,0.0014
2475.00,0.0013
2474.00,0.0013
2473.00,0.0013
2472.00,0.0013
2471.00,0.0013
2470.00,0.0013
2469.00,0.0014
2468.00,0.0014
2467.00,0.0014
2466.00,0.0014
2465.00,0.0014
2464.00,0.0014
2463.00,0.0014
2462.00,0.0015
2461.00,0.0015
2460.00,0.0014
2459.00,0.0014
2458.00,0.0014
2457.00,0.0014
2456.00,0.0015
2455.00,0.0016
2454.00,0.0016
2453.00,0.0016
2452.00,0.0016
2451.00,0.0015
2450.00,0.0015
2449.00,0.0015
2448.00,0.0015
2447.00,0.0016
2446.00,0.0016
2445.00,0.0016
2444.00,0.0016
2443.00,0.0016
2442.00,0.0015
2441.00,0.0014
2440.00,0.0014
2439.00,0.0014
2438.00,0.0014
2437.00,0.0015
2436.00,0.0016
2435.00,0.0017
2434.00,0.0017
2433.00,0.0017
2432.00,0.0017
2431.00,0.0017
2430.00,0.0017
2429.00,0.0017
2428.00,0.0017
2427.00,0.0017
2426.00,0.0017
2425.00,0.0016
2424.00,0.0016
2423.00,0.0016
2422.00,0.0015
2421.00,0.0015
2420.00,0.0015
2419.00,0.0014
2418.00,0.0014
2417.00,0.0013
2416.00,0.0013
2415.00,0.0013
2414.00,0.0013
2413.00,0.0013
2412.00,0.0013
2411.00,0.0013
2410.00,0.0013
2409.00,0.0014
2408.00,0.0015
2407.00,0.0014
2406.00,0.0014
2405.00,0.0013
2404.00,0.0012
2403.00,0.0012
2402.00,0.0012
2401.00,0.0012
2400.00,0.0012
2399.00,0.0012
2398.00,0.0012
2397.00,0.0012
2396.00,0.0012
2395.00,0.0012
2394.00,0.0013
2393.00,0.0012
2392.00,0.0012
2391.00,0.0012
2390.00,0.0012
2389.00,0.0012
2388.00,0.0012
2387.00,0.0012
2386.00,0.0011
2385.00,0.0011
2384.00,0.0010
2383.00,0.0010
2382.00,0.0009
2381.00,0.0009
2380.00,0.0008
2379.00,0.0008
2378.00,0.0008
2377.00,0.0008
2376.00,0.0008
2375.00,0.0008
2374.00,0.0008
2373.00,0.0008
2372.00,0.0008
2371.00,0.0007
2370.00,0.0006
2369.00,0.0006
2368.00,0.0006
2367.00,0.0006
2366.00,0.0006
2365.00,0.0007
2364.00,0.0007
2363.00,0.0008
2362.00,0.0008
2361.00,0.0008
2360.00,0.0007
2359.00,0.0008
2358.00,0.0008
2357.00,0.0008
2356.00,0.0009
2355.00,0.0009
2354.00,0.0008
2353.00,0.0008
2352.00,0.0008
2351.00,0.0008
2350.00,0.0008
2349.00,0.0008
2348.00,0.0009
2347.00,0.0009
2346.00,0.0009
2345.00,0.0009
2344.00,0.0009
2343.00,0.0009
2342.00,0.0010
2341.00,0.0011
2340.00,0.0011
2339.00,0.0011
2338.00,0.0011
2337.00,0.0011
2336.00,0.0010
2335.00,0.0010
2334.00,0.0010
2333.00,0.0010
2332.00,0.0010
2331.00,0.0010
2330.00,0.0011
2329.00,0.0011
2328.00,0.0013
2327.00,0.0017
2326.00,0.0021
2325.00,0.0023
2324.00,0.0024
2323.00,0.0023
2322.00,0.0021
2321.00,0.0019
2320.00,0.0018
2319.00,0.0017
2318.00,0.0016
2317.00,0.0015
2316.00,0.0014
2315.00,0.0014
2314.00,0.0013
2313.00,0.0013
2312.00,0.0013
2311.00,0.0013
2310.00,0.0013
2309.00,0.0013
2308.00,0.0014
2307.00,0.0014
2306.00,0.0015
2305.00,0.0016
2304.00,0.0016
2303.00,0.0016
2302.00,0.0016
2301.00,0.0016
2300.00,0.0016
2299.00,0.0017
2298.00,0.0017
2297.00,0.0017
2296.00,0.0017
2295.00,0.0018
2294.00,0.0018
2293.00,0.0019
2292.00,0.0020
2291.00,0.0021
2290.00,0.0022
2289.00,0.0023
2288.00,0.0023
2287.00,0.0023
2286.00,0.0023
2285.00,0.0023
2284.00,0.0023
2283.00,0.0022
2282.00,0.0021
2281.00,0.0021
2280.00,0.0020
2279.00,0.0020
2278.00,0.0020
2277.00,0.0020
2276.00,0.0020
2275.00,0.0019
2274.00,0.0019
2273.00,0.0019
2272.00,0.0020
2271.00,0.0020
2270.00,0.0019
2269.00,0.0017
2268.00,0.0016
2267.00,0.0016
2266.00,0.0015
2265.00,0.0015
2264.00,0.0015
2263.00,0.0014
2262.00,0.0014
2261.00,0.0014
2260.00,0.0015
2259.00,0.0015
2258.00,0.0016
2257.00,0.0016
2256.00,0.0015
2255.00,0.0014
2254.00,0.0013
2253.00,0.0013
2252.00,0.0013
2251.00,0.0012
2250.00,0.0012
2249.00,0.0011
2248.00,0.0010
2247.00,0.0011
2246.00,0.0014
2245.00,0.0016
2244.00,0.0017
2243.00,0.0017
2242.00,0.0017
2241.00,0.0016
2240.00,0.0016
2239.00,0.0015
2238.00,0.0014
2237.00,0.0014
2236.00,0.0014
2235.00,0.0013
2234.00,0.0014
2233.00,0.0014
2232.00,0.0015
2231.00,0.0014
2230.00,0.0014
2229.00,0.0013
2228.00,0.0012
2227.00,0.0012
2226.00,0.0012
2225.00,0.0012
2224.00,0.0012
2223.00,0.0012
2222.00,0.0011
2221.00,0.0011
2220.00,0.0012
2219.00,0.0013
2218.00,0.0013
2217.00,0.0013
2216.00,0.0012
2215.00,0.0011
2214.00,0.0009
2213.00,0.0008
2212.00,0.0009
2211.00,0.0010
2210.00,0.0010
2209.00,0.0011
2208.00,0.0012
2207.00,0.0013
2206.00,0.0014
2205.00,0.0015
2204.00,0.0016
2203.00,0.0016
2202.00,0.0016
2201.00,0.0016
2200.00,0.0014
2199.00,0.0012
2198.00,0.0011
2197.00,0.0011
2196.00,0.0012
2195.00,0.0013
2194.00,0.0015
2193.00,0.0017
2192.00,0.0018
2191.00,0.0017
2190.00,0.0015
2189.00,0.0015
2188.00,0.0015
2187.00,0.0017
2186.00,0.0018
2185.00,0.0018
2184.00,0.0017
2183.00,0.0014
2182.00,0.0011
2181.00,0.0010
2180.00,0.0011
2179.00,0.0014
2178.00,0.0016
2177.00,0.0017
2176.00,0.0017
2175.00,0.0015
2174.00,0.0014
2173.00,0.0016
2172.00,0.0018
2171.00,0.0021
2170.00,0.0023
2169.00,0.0024
2168.00,0.0026
2167.00,0.0029
2166.00,0.0032
2165.00,0.0033
2164.00,0.0034
2163.00,0.0034
2162.00,0.0032
2161.00,0.0028
2160.00,0.0018
2159.00,0.0004
2158.00,-0.0008
2157.00,-0.0016
2156.00,-0.0019
2155.00,-0.0018
2154.00,-0.0016
2153.00,-0.0013
2152.00,-0.0010
2151.00,-0.0010
2150.00,-0.0010
2149.00,-0.0010
2148.00,-0.0009
2147.00,-0.0007
2146.00,-0.0006
2145.00,-0.0006
2144.00,-0.0006
2143.00,-0.0006
2142.00,-0.0006
2141.00,-0.0004
2140.00,-0.0003
2139.00,-0.0003
2138.00,-0.0004
2137.00,-0.0006
2136.00,-0.0008
2135.00,-0.0010
2134.00,-0.0011
2133.00,-0.0010
2132.00,-0.0008
2131.00,-0.0005
2130.00,-0.0003
2129.00,-0.0001
2128.00,0.0000
2127.00,0.0000
2126.00,-0.0000
2125.00,-0.0000
2124.00,0.0000
2123.00,0.0001
2122.00,0.0002
2121.00,0.0004
2120.00,0.0006
2119.00,0.0008
2118.00,0.0009
2117.00,0.0011
2116.00,0.0012
2115.00,0.0013
2114.00,0.0012
2113.00,0.0011
2112.00,0.0010
2111.00,0.0010
2110.00,0.0011
2109.00,0.0012
2108.00,0.0013
2107.00,0.0013
2106.00,0.0012
2105.00,0.0012
2104.00,0.0012
2103.00,0.0012
2102.00,0.0012
2101.00,0.0012
2100.00,0.0011
2099.00,0.0011
2098.00,0.0010
2097.00,0.0010
2096.00,0.0008
2095.00,0.0007
2094.00,0.0006
2093.00,0.0006
2092.00,0.0007
2091.00,0.0009
2090.00,0.0010
2089.00,0.0011
2088.00,0.0011
2087.00,0.0011
2086.00,0.0011
2085.00,0.0010
2084.00,0.0010
2083.00,0.0010
2082.00,0.0011
2081.00,0.0012
2080.00,0.0012
2079.00,0.0011
2078.00,0.0010
2077.00,0.0009
2076.00,0.0009
2075.00,0.0009
2074.00,0.0010
2073.00,0.0010
2072.00,0.0010
2071.00,0.0010
2070.00,0.0009
2069.00,0.0009
2068.00,0.0008
2067.00,0.0006
2066.00,0.0005
2065.00,0.0004
2064.00,0.0003
2063.00,0.0003
2062.00,0.0004
2061.00,0.0005
2060.00,0.0006
2059.00,0.0007
2058.00,0.0007
2057.00,0.0007
2056.00,0.0008
2055.00,0.0008
2054.00,0.0009
2053.00,0.0012
2052.00,0.0015
2051.00,0.0016
2050.00,0.0015
2049.00,0.0012
2048.00,0.0009
2047.00,0.0008
2046.00,0.0008
2045.00,0.0010
2044.00,0.0011
2043.00,0.0010
2042.00,0.0008
2041.00,0.0007
2040.00,0.0007
2039.00,0.0007
2038.00,0.0005
2037.00,0.0003
2036.00,0.0001
2035.00,0.0000
2034.00,0.0001
2033.00,0.0002
2032.00,0.0004
2031.00,0.0004
2030.00,0.0002
2029.00,0.0001
2028.00,0.0000
2027.00,-0.0001
2026.00,-0.0005
2025.00,-0.0010
2024.00,-0.0013
2023.00,-0.0015
2022.00,-0.0015
2021.00,-0.0013
2020.00,-0.0010
2019.00,-0.0007
2018.00,-0.0005
2017.00,-0.0003
2016.00,-0.0003
2015.00,-0.0003
2014.00,-0.0005
2013.00,-0.0007
2012.00,-0.0008
2011.00,-0.0008
2010.00,-0.0008
2009.00,-0.0008
2008.00,-0.0010
2007.00,-0.0012
2006.00,-0.0014
2005.00,-0.0014
2004.00,-0.0013
2003.00,-0.0011
2002.00,-0.0009
2001.00,-0.0007
2000.00,-0.0005
1999.00,-0.0003
1998.00,-0.0001
1997.00,0.0001
1996.00,0.0003
1995.00,0.0004
1994.00,0.0004
1993.00,0.0002
1992.00,0.0001
1991.00,0.0000
1990.00,0.0001
1989.00,0.0004
1988.00,0.0006
1987.00,0.0008
1986.00,0.0009
1985.00,0.0009
1984.00,0.0009
1983.00,0.0009
1982.00,0.0011
1981.00,0.0014
1980.00,0.0017
1979.00,0.0017
1978.00,0.0012
1977.00,0.0004
1976.00,-0.0002
1975.00,-0.0007
1974.00,-0.0010
1973.00,-0.0012
1972.00,-0.0013
1971.00,-0.0012
1970.00,-0.0010
1969.00,-0.0006
1968.00,-0.0002
1967.00,0.0001
1966.00,0.0002
1965.00,0.0000
1964.00,-0.0003
1963.00,-0.0005
1962.00,-0.0007
1961.00,-0.0007
1960.00,-0.0008
1959.00,-0.0010
1958.00,-0.0012
1957.00,-0.0012
1956.00,-0.0011
1955.00,-0.0010
1954.00,-0.0008
1953.00,-0.0008
1952.00,-0.0008
1951.00,-0.0010
1950.00,-0.0012
1949.00,-0.0014
1948.00,-0.0013
1947.00,-0.0013
1946.00,-0.0012
1945.00,-0.0011
1944.00,-0.0011
1943.00,-0.0011
1942.00,-0.0010
1941.00,-0.0009
1940.00,-0.0008
1939.00,-0.0008
1938.00,-0.0008
1937.00,-0.0007
1936.00,-0.0006
1935.00,-0.0006
1934.00,-0.0005
1933.00,-0.0005
1932.00,-0.0004
1931.00,-0.0004
1930.00,-0.0003
1929.00,-0.0002
1928.00,-0.0001
1927.00,-0.0001
1926.00,-0.0002
1925.00,-0.0002
1924.00,-0.0002
1923.00,-0.0001
1922.00,-0.0000
1921.00,0.0001
1920.00,0.0001
1919.00,0.0002
1918.00,0.0001
1917.00,0.0001
1916.00,0.0001
1915.00,0.0001
1914.00,0.0000
1913.00,-0.0000
1912.00,0.0000
1911.00,0.0001
1910.00,0.0002
1909.00,0.0003
1908.00,0.0003
1907.00,0.0003
1906.00,0.0003
1905.00,0.0003
1904.00,0.0003
1903.00,0.0003
1902.00,0.0004
1901.00,0.0003
1900.00,0.0003
1899.00,0.0002
1898.00,0.0003
1897.00,0.0003
1896.00,0.0004
1895.00,0.0004
1894.00,0.0003
1893.00,0.0003
1892.00,0.0002
1891.00,0.0003
1890.00,0.0003
1889.00,0.0004
1888.00,0.0004
1887.00,0.0003
1886.00,0.0003
1885.00,0.0002
1884.00,0.0002
1883.00,0.0002
1882.00,0.0001
1881.00,0.0002
1880.00,0.0002
1879.00,0.0002
1878.00,0.0002
1877.00,0.0002
1876.00,0.0001
1875.00,0.0001
1874.00,0.0001
1873.00,0.0001
1872.00,0.0002
1871.00,0.0003
1870.00,0.0004
1869.00,0.0005
1868.00,0.0005
1867.00,0.0005
1866.00,0.0005
1865.00,0.0005
1864.00,0.0005
1863.00,0.0005
1862.00,0.0004
1861.00,0.0004
1860.00,0.0004
1859.00,0.0004
1858.00,0.0004
1857.00,0.0004
1856.00,0.0004
1855.00,0.0004
1854.00,0.0004
1853.00,0.0005
1852.00,0.0006
1851.00,0.0006
1850.00,0.0006
1849.00,0.0006
1848.00,0.0006
1847.00,0.0005
1846.00,0.0005
1845.00,0.0004
1844.00,0.0004
1843.00,0.0005
1842.00,0.0005
1841.00,0.0005
1840.00,0.0006
1839.00,0.0006
1838.00,0.0006
1837.00,0.0007
1836.00,0.0007
1835.00,0.0007
1834.00,0.0008
1833.00,0.0009
1832.00,0.0009
1831.00,0.0009
1830.00,0.0010
1829.00,0.0010
1828.00,0.0010
1827.00,0.0010
1826.00,0.0010
1825.00,0.0010
1824.00,0.0010
1823.00,0.0009
1822.00,0.0009
1821.00,0.0008
1820.00,0.0008
1819.00,0.0006
1818.00,0.0005
1817.00,0.0005
1816.00,0.0006
1815.00,0.0007
1814.00,0.0008
1813.00,0.0009
1812.00,0.0009
1811.00,0.0009
1810.00,0.0009
1809.00,0.0009
1808.00,0.0009
1807.00,0.0009
1806.00,0.0009
1805.00,0.0009
1804.00,0.0010
1803.00,0.0010
1802.00,0.0010
1801.00,0.0011
1800.00,0.0011
1799.00,0.0011
1798.00,0.0011
1797.00,0.0011
1796.00,0.0012
1795.00,0.0012
1794.00,0.0012
1793.00,0.0012
1792.00,0.0013
1791.00,0.0013
1790.00,0.0013
1789.00,0.0013
1788.00,0.0013
1787.00,0.0013
1786.00,0.0014
1785.00,0.0014
1784.00,0.0014
1783.00,0.0015
1782.00,0.0015
1781.00,0.0015
1780.00,0.0015
1779.00,0.0014
1778.00,0.0014
1777.00,0.0014
1776.00,0.0015
1775.00,0.0016
1774.00,0.0016
1773.00,0.0016
1772.00,0.0017
1771.00,0.0017
1770.00,0.0018
1769.00,0.0018
1768.00,0.0019
1767.00,0.0019
1766.00,0.0019
1765.00,0.0020
1764.00,0.0020
1763.00,0.0021
1762.00,0.0021
1761.00,0.0021
1760.00,0.0021
1759.00,0.0022
1758.00,0.0022
1757.00,0.0022
1756.00,0.0023
1755.00,0.0023
1754.00,0.0024
1753.00,0.0025
1752.00,0.0027
1751.00,0.0028
1750.00,0.0030
1749.00,0.0032
1748.00,0.0034
1747.00,0.0035
1746.00,0.0037
1745.00,0.0039
1744.00,0.0041
1743.00,0.0043
1742.00,0.0045
1741.00,0.0046
1740.00,0.0048
1739.00,0.0049
1738.00,0.0050
1737.00,0.0050
1736.00,0.0051
1735.00,0.0051
1734.00,0.0051
1733.00,0.0051
1732.00,0.0051
1731.00,0.0051
1730.00,0.0051
1729.00,0.0051
1728.00,0.0050
1727.00,0.0049
1726.00,0.0048
1725.00,0.0047
1724.00,0.0047
1723.00,0.0046
1722.00,0.0046
1721.00,0.0046
1720.00,0.0046
1719.00,0.0046
1718.00,0.0045
1717.00,0.0044
1716.00,0.0044
1715.00,0.0044
1714.00,0.0044
1713.00,0.0044
1712.00,0.0044
1711.00,0.0044
1710.00,0.0044
1709.00,0.0045
1708.00,0.0045
1707.00,0.0046
1706.00,0.0047
1705.00,0.0048
1704.00,0.0049
1703.00,0.0050
1702.00,0.0050
1701.00,0.0051
1700.00,0.0052
1699.00,0.0053
1698.00,0.0053
1697.00,0.0054
1696.00,0.0056
1695.00,0.0058
1694.00,0.0060
1693.00,0.0062
1692.00,0.0064
1691.00,0.0066
1690.00,0.0069
1689.00,0.0071
1688.00,0.0073
1687.00,0.0075
1686.00,0.0077
1685.00,0.0081
1684.00,0.0086
1683.00,0.0090
1682.00,0.0092
1681.00,0.0094
1680.00,0.0098
1679.00,0.0101
1678.00,0.0104
1677.00,0.0108
1676.00,0.0112
1675.00,0.0116
1674.00,0.0119
1673.00,0.0121
1672.00,0.0124
1671.00,0.0127
1670.00,0.0130
1669.00,0.0133
1668.00,0.0135
1667.00,0.0136
1666.00,0.0137
1665.00,0.0138
1664.00,0.0140
1663.00,0.0143
1662.00,0.0146
1661.00,0.0148
1660.00,0.0150
1659.00,0.0152
1658.00,0.0154
1657.00,0.0155
1656.00,0.0157
1655.00,0.0158
1654.00,0.0161
1653.00,0.0166
1652.00,0.0169
1651.00,0.0170
1650.00,0.0172
1649.00,0.0175
1648.00,0.0178
1647.00,0.0182
1646.00,0.0185
1645.00,0.0186
1644.00,0.0187
1643.00,0.0188
1642.00,0.0189
1641.00,0.0190
1640.00,0.0191
1639.00,0.0192
1638.00,0.0193
1637.00,0.0194
1636.00,0.0196
1635.00,0.0198
1634.00,0.0198
1633.00,0.0197
1632.00,0.0197
1631.00,0.0197
1630.00,0.0196
1629.00,0.0197
1628.00,0.0197
1627.00,0.0197
1626.00,0.0197
1625.00,0.0197
1624.00,0.0197
1623.00,0.0196
1622.00,0.0196
1621.00,0.0196
1620.00,0.0196
1619.00,0.0196
1618.00,0.0196
1617.00,0.0196
1616.00,0.0197
1615.00,0.0197
1614.00,0.0198
1613.00,0.0198
1612.00,0.0199
1611.00,0.0199
1610.00,0.0200
1609.00,0.0200
1608.00,0.0200
1607.00,0.0200
1606.00,0.0200
1605.00,0.0199
1604.00,0.0199
1603.00,0.0198
1602.00,0.0197
1601.00,0.0195
1600.00,0.0194
1599.00,0.0193
1598.00,0.0192
1597.00,0.0191
1596.00,0.0190
1595.00,0.0188
1594.00,0.0186
1593.00,0.0184
1592.00,0.0183
1591.00,0.0181
1590.00,0.0180
1589.00,0.0180
1588.00,0.0179
1587.00,0.0179
1586.00,0.0179
1585.00,0.0179
1584.00,0.0180
1583.00,0.0181
1582.00,0.0182
1581.00,0.0183
1580.00,0.0185
1579.00,0.0186
1578.00,0.0187
1577.00,0.0187
1576.00,0.0186
1575.00,0.0184
1574.00,0.0183
1573.00,0.0182
1572.00,0.0181
1571.00,0.0179
1570.00,0.0178
1569.00,0.0177
1568.00,0.0176
1567.00,0.0176
1566.00,0.0176
1565.00,0.0177
1564.00,0.0178
1563.00,0.0179
1562.00,0.0179
1561.00,0.0180
1560.00,0.0184
1559.00,0.0190
1558.00,0.0196
1557.00,0.0198
1556.00,0.0199
1555.00,0.0201
1554.00,0.0203
1553.00,0.0205
1552.00,0.0207
1551.00,0.0209
1550.00,0.0211
1549.00,0.0212
1548.00,0.0213
1547.00,0.0213
1546.00,0.0214
1545.00,0.0215
1544.00,0.0216
1543.00,0.0216
1542.00,0.0214
1541.00,0.0212
1540.00,0.0208
1539.00,0.0203
1538.00,0.0196
1537.00,0.0192
1536.00,0.0188
1535.00,0.0182
1534.00,0.0175
1533.00,0.0168
1532.00,0.0162
1531.00,0.0157
1530.00,0.0152
1529.00,0.0148
1528.00,0.0143
1527.00,0.0139
1526.00,0.0134
1525.00,0.0131
1524.00,0.0129
1523.00,0.0126
1522.00,0.0122
1521.00,0.0120
1520.00,0.0118
1519.00,0.0117
1518.00,0.0116
1517.00,0.0115
1516.00,0.0113
1515.00,0.0112
1514.00,0.0110
1513.00,0.0109
1512.00,0.0109
1511.00,0.0109
1510.00,0.0109
1509.00,0.0109
1508.00,0.0110
1507.00,0.0110
1506.00,0.0111
1505.00,0.0111
1504.00,0.0113
1503.00,0.0116
1502.00,0.0120
1501.00,0.0125
1500.00,0.0132
1499.00,0.0138
1498.00,0.0145
1497.00,0.0154
1496.00,0.0164
1495.00,0.0174
1494.00,0.0181
1493.00,0.0189
1492.00,0.0197
1491.00,0.0204
1490.00,0.0211
1489.00,0.0217
1488.00,0.0222
1487.00,0.0226
1486.00,0.0230
1485.00,0.0235
1484.00,0.0241
1483.00,0.0247
1482.00,0.0255
1481.00,0.0265
1480.00,0.0275
1479.00,0.0286
1478.00,0.0300
1477.00,0.0317
1476.00,0.0339
1475.00,0.0362
1474.00,0.0395
1473.00,0.0445
1472.00,0.0507
1471.00,0.0567
1470.00,0.0624
1469.00,0.0681
1468.00,0.0742
1467.00,0.0806
1466.00,0.0878
1465.00,0.0955
1464.00,0.1024
1463.00,0.1074
1462.00,0.1109
1461.00,0.1136
1460.00,0.1159
1459.00,0.1177
1458.00,0.1195
1457.00,0.1211
1456.00,0.1219
1455.00,0.1218
1454.00,0.1212
1453.00,0.1202
1452.00,0.1181
1451.00,0.1150
1450.00,0.1105
1449.00,0.1041
1448.00,0.0957
1447.00,0.0867
1446.00,0.0784
1445.00,0.0712
1444.00,0.0650
1443.00,0.0599
1442.00,0.0560
1441.00,0.0534
1440.00,0.0516
1439.00,0.0506
1438.00,0.0502
1437.00,0.0497
1436.00,0.0481
1435.00,0.0453
1434.00,0.0417
1433.00,0.0376
1432.00,0.0334
1431.00,0.0296
1430.00,0.0267
1429.00,0.0245
1428.00,0.0230
1427.00,0.0221
1426.00,0.0216
1425.00,0.0212
1424.00,0.0210
1423.00,0.0209
1422.00,0.0209
1421.00,0.0208
1420.00,0.0207
1419.00,0.0206
1418.00,0.0205
1417.00,0.0202
1416.00,0.0199
1415.00,0.0196
1414.00,0.0194
1413.00,0.0191
1412.00,0.0189
1411.00,0.0187
1410.00,0.0186
1409.00,0.0184
1408.00,0.0182
1407.00,0.0182
1406.00,0.0182
1405.00,0.0181
1404.00,0.0180
1403.00,0.0181
1402.00,0.0182
1401.00,0.0183
1400.00,0.0183
1399.00,0.0184
1398.00,0.0185
1397.00,0.0185
1396.00,0.0186
1395.00,0.0188
1394.00,0.0192
1393.00,0.0196
1392.00,0.0200
1391.00,0.0207
1390.00,0.0217
1389.00,0.0232
1388.00,0.0254
1387.00,0.0287
1386.00,0.0331
1385.00,0.0387
1384.00,0.0460
1383.00,0.0558
1382.00,0.0686
1381.00,0.0847
1380.00,0.1043
1379.00,0.1263
1378.00,0.1473
1377.00,0.1627
1376.00,0.1683
1375.00,0.1614
1374.00,0.1436
1373.00,0.1213
1372.00,0.1004
1371.00,0.0828
1370.00,0.0685
1369.00,0.0573
1368.00,0.0495
1367.00,0.0446
1366.00,0.0419
1365.00,0.0408
1364.00,0.0409
1363.00,0.0421
1362.00,0.0439
1361.00,0.0458
1360.00,0.0472
1359.00,0.0476
1358.00,0.0467
1357.00,0.0444
1356.00,0.0413
1355.00,0.0377
1354.00,0.0342
1353.00,0.0313
1352.00,0.0289
1351.00,0.0271
1350.00,0.0256
1349.00,0.0243
1348.00,0.0234
1347.00,0.0226
1346.00,0.0219
1345.00,0.0213
1344.00,0.0208
1343.00,0.0202
1342.00,0.0197
1341.00,0.0192
1340.00,0.0188
1339.00,0.0184
1338.00,0.0181
1337.00,0.0178
1336.00,0.0177
1335.00,0.0178
1334.00,0.0179
1333.00,0.0182
1332.00,0.0185
1331.00,0.0188
1330.00,0.0189
1329.00,0.0187
1328.00,0.0184
1327.00,0.0180
1326.00,0.0175
1325.00,0.0170
1324.00,0.0164
1323.00,0.0159
1322.00,0.0155
1321.00,0.0152
1320.00,0.0150
1319.00,0.0147
1318.00,0.0145
1317.00,0.0143
1316.00,0.0142
1315.00,0.0141
1314.00,0.0141
1313.00,0.0142
1312.00,0.0144
1311.00,0.0147
1310.00,0.0152
1309.00,0.0159
1308.00,0.0169
1307.00,0.0182
1306.00,0.0194
1305.00,0.0204
1304.00,0.0207
1303.00,0.0204
1302.00,0.0198
1301.00,0.0191
1300.00,0.0186
1299.00,0.0183
1298.00,0.0182
1297.00,0.0182
1296.00,0.0181
1295.00,0.0178
1294.00,0.0175
1293.00,0.0170
1292.00,0.0165
1291.00,0.0160
1290.00,0.0156
1289.00,0.0151
1288.00,0.0148
1287.00,0.0145
1286.00,0.0143
1285.00,0.0141
1284.00,0.0139
1283.00,0.0137
1282.00,0.0135
1281.00,0.0134
1280.00,0.0132
1279.00,0.0131
1278.00,0.0130
1277.00,0.0129
1276.00,0.0129
1275.00,0.0129
1274.00,0.0129
1273.00,0.0129
1272.00,0.0130
1271.00,0.0130
1270.00,0.0131
1269.00,0.0132
1268.00,0.0134
1267.00,0.0137
1266.00,0.0140
1265.00,0.0144
1264.00,0.0149
1263.00,0.0153
1262.00,0.0158
1261.00,0.0164
1260.00,0.0171
1259.00,0.0179
1258.00,0.0187
1257.00,0.0193
1256.00,0.0197
1255.00,0.0196
1254.00,0.0191
1253.00,0.0182
1252.00,0.0174
1251.00,0.0166
1250.00,0.0161
1249.00,0.0157
1248.00,0.0154
1247.00,0.0152
1246.00,0.0151
1245.00,0.0149
1244.00,0.0148
1243.00,0.0146
1242.00,0.0145
1241.00,0.0143
1240.00,0.0141
1239.00,0.0140
1238.00,0.0138
1237.00,0.0136
1236.00,0.0135
1235.00,0.0134
1234.00,0.0133
1233.00,0.0133
1232.00,0.0132
1231.00,0.0132
1230.00,0.0133
1229.00,0.0133
1228.00,0.0135
1227.00,0.0137
1226.00,0.0140
1225.00,0.0143
1224.00,0.0146
1223.00,0.0149
1222.00,0.0153
1221.00,0.0156
1220.00,0.0158
1219.00,0.0160
1218.00,0.0160
1217.00,0.0158
1216.00,0.0156
1215.00,0.0152
1214.00,0.0148
1213.00,0.0143
1212.00,0.0139
1211.00,0.0136
1210.00,0.0133
1209.00,0.0131
1208.00,0.0129
1207.00,0.0127
1206.00,0.0126
1205.00,0.0125
1204.00,0.0124
1203.00,0.0125
1202.00,0.0125
1201.00,0.0125
1200.00,0.0125
1199.00,0.0125
1198.00,0.0124
1197.00,0.0124
1196.00,0.0124
1195.00,0.0125
1194.00,0.0125
1193.00,0.0125
1192.00,0.0125
1191.00,0.0126
1190.00,0.0127
1189.00,0.0128
1188.00,0.0128
1187.00,0.0129
1186.00,0.0130
1185.00,0.0130
1184.00,0.0131
1183.00,0.0133
1182.00,0.0136
1181.00,0.0140
1180.00,0.0144
1179.00,0.0148
1178.00,0.0154
1177.00,0.0163
1176.00,0.0176
1175.00,0.0193
1174.00,0.0215
1173.00,0.0242
1172.00,0.0275
1171.00,0.0311
1170.00,0.0346
1169.00,0.0377
1168.00,0.0397
1167.00,0.0404
1166.00,0.0399
1165.00,0.0386
1164.00,0.0367
1163.00,0.0348
1162.00,0.0331
1161.00,0.0317
1160.00,0.0307
1159.00,0.0299
1158.00,0.0294
1157.00,0.0291
1156.00,0.0288
1155.00,0.0288
1154.00,0.0288
1153.00,0.0287
1152.00,0.0286
1151.00,0.0283
1150.00,0.0278
1149.00,0.0271
1148.00,0.0264
1147.00,0.0258
1146.00,0.0252
1145.00,0.0246
1144.00,0.0241
1143.00,0.0236
1142.00,0.0231
1141.00,0.0226
1140.00,0.0222
1139.00,0.0219
1138.00,0.0218
1137.00,0.0217
1136.00,0.0217
1135.00,0.0216
1134.00,0.0216
1133.00,0.0216
1132.00,0.0216
1131.00,0.0217
1130.00,0.0220
1129.00,0.0224
1128.00,0.0229
1127.00,0.0234
1126.00,0.0238
1125.00,0.0242
1124.00,0.0246
1123.00,0.0251
1122.00,0.0256
1121.00,0.0261
1120.00,0.0265
1119.00,0.0268
1118.00,0.0270
1117.00,0.0270
1116.00,0.0270
1115.00,0.0270
1114.00,0.0270
1113.00,0.0270
1112.00,0.0270
1111.00,0.0271
1110.00,0.0272
1109.00,0.0274
1108.00,0.0277
1107.00,0.0281
1106.00,0.0286
1105.00,0.0291
1104.00,0.0294
1103.00,0.0296
1102.00,0.0295
1101.00,0.0292
1100.00,0.0286
1099.00,0.0280
1098.00,0.0272
1097.00,0.0266
1096.00,0.0260
1095.00,0.0254
1094.00,0.0249
1093.00,0.0245
1092.00,0.0241
1091.00,0.0238
1090.00,0.0235
1089.00,0.0231
1088.00,0.0228
1087.00,0.0225
1086.00,0.0222
1085.00,0.0220
1084.00,0.0218
1083.00,0.0215
1082.00,0.0213
1081.00,0.0210
1080.00,0.0208
1079.00,0.0205
1078.00,0.0202
1077.00,0.0199
1076.00,0.0196
1075.00,0.0193
1074.00,0.0191
1073.00,0.0190
1072.00,0.0189
1071.00,0.0189
1070.00,0.0189
1069.00,0.0188
1068.00,0.0186
1067.00,0.0184
1066.00,0.0182
1065.00,0.0181
1064.00,0.0180
1063.00,0.0180
1062.00,0.0181
1061.00,0.0180
1060.00,0.0180
1059.00,0.0179
1058.00,0.0178
1057.00,0.0177
1056.00,0.0175
1055.00,0.0174
1054.00,0.0174
1053.00,0.0174
1052.00,0.0175
1051.00,0.0177
1050.00,0.0180
1049.00,0.0183
1048.00,0.0185
1047.00,0.0188
1046.00,0.0190
1045.00,0.0192
1044.00,0.0193
1043.00,0.0192
1042.00,0.0190
1041.00,0.0187
1040.00,0.0184
1039.00,0.0183
1038.00,0.0183
1037.00,0.0183
1036.00,0.0184
1035.00,0.0184
1034.00,0.0183
1033.00,0.0182
1032.00,0.0180
1031.00,0.0178
1030.00,0.0176
1029.00,0.0173
1028.00,0.0170
1027.00,0.0167
1026.00,0.0166
1025.00,0.0164
1024.00,0.0163
1023.00,0.0162
1022.00,0.0160
1021.00,0.0160
1020.00,0.0159
1019.00,0.0160
1018.00,0.0161
1017.00,0.0163
1016.00,0.0166
1015.00,0.0169
1014.00,0.0172
1013.00,0.0175
1012.00,0.0178
1011.00,0.0182
1010.00,0.0185
1009.00,0.0188
1008.00,0.0193
1007.00,0.0199
1006.00,0.0209
1005.00,0.0221
1004.00,0.0239
1003.00,0.0262
1002.00,0.0293
1001.00,0.0331
1000.00,0.0372
999.00,0.0407
998.00,0.0427
997.00,0.0424
996.00,0.0397
995.00,0.0355
994.00,0.0309
993.00,0.0267
992.00,0.0234
991.00,0.0210
990.00,0.0193
989.00,0.0181
988.00,0.0173
987.00,0.0168
986.00,0.0166
985.00,0.0167
984.00,0.0171
983.00,0.0178
982.00,0.0188
981.00,0.0203
980.00,0.0225
979.00,0.0254
978.00,0.0291
977.00,0.0335
976.00,0.0385
975.00,0.0433
974.00,0.0473
973.00,0.0492
972.00,0.0483
971.00,0.0447
970.00,0.0394
969.00,0.0337
968.00,0.0286
967.00,0.0247
966.00,0.0217
965.00,0.0196
964.00,0.0180
963.00,0.0167
962.00,0.0157
961.00,0.0150
960.00,0.0144
959.00,0.0140
958.00,0.0137
957.00,0.0134
956.00,0.0132
955.00,0.0130
954.00,0.0127
953.00,0.0125
952.00,0.0124
951.00,0.0124
950.00,0.0124
949.00,0.0123
948.00,0.0124
947.00,0.0125
946.00,0.0126
945.00,0.0129
944.00,0.0132
943.00,0.0136
942.00,0.0139
941.00,0.0140
940.00,0.0139
939.00,0.0137
938.00,0.0135
937.00,0.0132
936.00,0.0129
935.00,0.0126
934.00,0.0123
933.00,0.0120
932.00,0.0117
931.00,0.0116
930.00,0.0116
929.00,0.0116
928.00,0.0116
927.00,0.0115
926.00,0.0115
925.00,0.0114
924.00,0.0114
923.00,0.0114
922.00,0.0115
921.00,0.0115
920.00,0.0116
919.00,0.0117
918.00,0.0118
917.00,0.0119
916.00,0.0119
915.00,0.0119
914.00,0.0119
913.00,0.0119
912.00,0.0119
911.00,0.0120
910.00,0.0121
909.00,0.0123
908.00,0.0126
907.00,0.0130
906.00,0.0137
905.00,0.0146
904.00,0.0159
903.00,0.0176
902.00,0.0194
901.00,0.0210
900.00,0.0221
899.00,0.0224
898.00,0.0218
897.00,0.0205
896.00,0.0189
895.00,0.0173
894.00,0.0159
893.00,0.0148
892.00,0.0140
891.00,0.0134
890.00,0.0130
889.00,0.0127
888.00,0.0124
887.00,0.0122
886.00,0.0121
885.00,0.0121
884.00,0.0121
883.00,0.0122
882.00,0.0123
881.00,0.0124
880.00,0.0124
879.00,0.0125
878.00,0.0127
877.00,0.0128
876.00,0.0128
875.00,0.0127
874.00,0.0126
873.00,0.0125
872.00,0.0124
871.00,0.0123
870.00,0.0123
869.00,0.0123
868.00,0.0124
867.00,0.0124
866.00,0.0124
865.00,0.0124
864.00,0.0123
863.00,0.0124
862.00,0.0124
861.00,0.0125
860.00,0.0125
859.00,0.0126
858.00,0.0127
857.00,0.0129
856.00,0.0129
855.00,0.0130
854.00,0.0132
853.00,0.0134
852.00,0.0137
851.00,0.0140
850.00,0.0146
849.00,0.0154
848.00,0.0166
847.00,0.0183
846.00,0.0209
845.00,0.0248
844.00,0.0299
843.00,0.0356
842.00,0.0402
841.00,0.0418
840.00,0.0396
839.00,0.0347
838.00,0.0291
837.00,0.0246
836.00,0.0214
835.00,0.0194
834.00,0.0181
833.00,0.0173
832.00,0.0168
831.00,0.0164
830.00,0.0161
829.00,0.0158
828.00,0.0156
827.00,0.0155
826.00,0.0154
825.00,0.0153
824.00,0.0152
823.00,0.0149
822.00,0.0147
821.00,0.0147
820.00,0.0149
819.00,0.0153
818.00,0.0157
817.00,0.0161
816.00,0.0168
815.00,0.0176
814.00,0.0188
813.00,0.0203
812.00,0.0220
811.00,0.0235
810.00,0.0246
809.00,0.0249
808.00,0.0247
807.00,0.0239
806.00,0.0228
805.00,0.0215
804.00,0.0202
803.00,0.0190
802.00,0.0180
801.00,0.0171
800.00,0.0165
799.00,0.0159
798.00,0.0154
797.00,0.0150
796.00,0.0147
795.00,0.0144
794.00,0.0142
793.00,0.0139
792.00,0.0137
791.00,0.0136
790.00,0.0135
789.00,0.0134
788.00,0.0134
787.00,0.0132
786.00,0.0131
785.00,0.0130
784.00,0.0129
783.00,0.0127
782.00,0.0126
781.00,0.0124
780.00,0.0122
779.00,0.0120
778.00,0.0120
777.00,0.0120
776.00,0.0121
775.00,0.0122
774.00,0.0123
773.00,0.0125
772.00,0.0128
771.00,0.0130
770.00,0.0132
769.00,0.0133
768.00,0.0132
767.00,0.0132
766.00,0.0131
765.00,0.0130
764.00,0.0129
763.00,0.0128
762.00,0.0126
761.00,0.0123
760.00,0.0121
759.00,0.0119
758.00,0.0118
757.00,0.0116
756.00,0.0114
755.00,0.0113
754.00,0.0113
753.00,0.0114
752.00,0.0117
751.00,0.0119
750.00,0.0120
749.00,0.0120
748.00,0.0121
747.00,0.0124
746.00,0.0127
745.00,0.0130
744.00,0.0132
743.00,0.0134
742.00,0.0136
741.00,0.0140
740.00,0.0145
739.00,0.0151
738.00,0.0156
737.00,0.0161
736.00,0.0166
735.00,0.0171
734.00,0.0176
733.00,0.0181
732.00,0.0185
731.00,0.0189
730.00,0.0191
729.00,0.0191
728.00,0.0191
727.00,0.0190
726.00,0.0189
725.00,0.0189
724.00,0.0189
723.00,0.0188
722.00,0.0186
721.00,0.0183
720.00,0.0179
719.00,0.0173
718.00,0.0166
717.00,0.0158
716.00,0.0153
715.00,0.0149
714.00,0.0147
713.00,0.0147
712.00,0.0148
711.00,0.0151
710.00,0.0154
709.00,0.0158
708.00,0.0163
707.00,0.0167
706.00,0.0171
705.00,0.0171
704.00,0.0169
703.00,0.0164
702.00,0.0157
701.00,0.0151
700.00,0.0144
699.00,0.0138
698.00,0.0132
697.00,0.0128
696.00,0.0125
695.00,0.0124
694.00,0.0123
693.00,0.0123
692.00,0.0124
691.00,0.0126
690.00,0.0127
689.00,0.0128
688.00,0.0127
687.00,0.0126
686.00,0.0125
685.00,0.0123
684.00,0.0123
683.00,0.0123
682.00,0.0124
681.00,0.0126
680.00,0.0126
679.00,0.0126
678.00,0.0126
677.00,0.0126
676.00,0.0127
675.00,0.0128
674.00,0.0127
673.00,0.0126
672.00,0.0126
671.00,0.0127
670.00,0.0131
669.00,0.0134
668.00,0.0136
667.00,0.0136
666.00,0.0134
665.00,0.0131
664.00,0.0130
663.00,0.0130
662.00,0.0130
661.00,0.0132
660.00,0.0133
659.00,0.0133
658.00,0.0132
657.00,0.0132
656.00,0.0132
655.00,0.0132
654.00,0.0132
653.00,0.0131
652.00,0.0131
651.00,0.0131
650.00,0.0132
649.00,0.0134
648.00,0.0136
647.00,0.0137
646.00,0.0137
645.00,0.0136
644.00,0.0135
643.00,0.0136
642.00,0.0138
641.00,0.0139
640.00,0.0140
639.00,0.0140
638.00,0.0139
637.00,0.0139
636.00,0.0137
635.00,0.0136
634.00,0.0136
633.00,0.0136
632.00,0.0138
631.00,0.0138
630.00,0.0138
629.00,0.0137
628.00,0.0138
627.00,0.0140
626.00,0.0142
625.00,0.0145
624.00,0.0146
623.00,0.0146
622.00,0.0145
621.00,0.0142
620.00,0.0140
619.00,0.0140
618.00,0.0142
617.00,0.0145
616.00,0.0147
615.00,0.0146
614.00,0.0144
613.00,0.0142
612.00,0.0141
611.00,0.0143
610.00,0.0144
609.00,0.0146
608.00,0.0147
607.00,0.0147
606.00,0.0147
605.00,0.0146
604.00,0.0144
603.00,0.0142
602.00,0.0141
601.00,0.0140
600.00,0.0141
599.00,0.0143
598.00,0.0142
597.00,0.0140
596.00,0.0139
595.00,0.0140
594.00,0.0145
593.00,0.0149
592.00,0.0151
591.00,0.0149
590.00,0.0144
589.00,0.0142
588.00,0.0144
587.00,0.0149
586.00,0.0153
585.00,0.0154
584.00,0.0152
583.00,0.0148
582.00,0.0146
581.00,0.0144
580.00,0.0144
579.00,0.0146
578.00,0.0147
577.00,0.0147
576.00,0.0145
575.00,0.0143
574.00,0.0142
573.00,0.0141
572.00,0.0140
571.00,0.0138
570.00,0.0136
569.00,0.0137
568.00,0.0140
567.00,0.0146
566.00,0.0150
565.00,0.0152
564.00,0.0152
563.00,0.0151
562.00,0.0150
561.00,0.0148
560.00,0.0147
559.00,0.0148
558.00,0.0150
557.00,0.0151
556.00,0.0150
555.00,0.0146
554.00,0.0143
553.00,0.0141
552.00,0.0142
551.00,0.0143
550.00,0.0144
549.00,0.0144
548.00,0.0144
547.00,0.0145
546.00,0.0146
545.00,0.0146
544.00,0.0145
543.00,0.0143
542.00,0.0142
541.00,0.0143
540.00,0.0146
539.00,0.0151
538.00,0.0155
537.00,0.0157
536.00,0.0158
535.00,0.0157
534.00,0.0155
533.00,0.0154
532.00,0.0153
531.00,0.0153
530.00,0.0153
529.00,0.0155
528.00,0.0158
527.00,0.0163
526.00,0.0167
525.00,0.0168
524.00,0.0165
523.00,0.0160
522.00,0.0153
521.00,0.0147
520.00,0.0143
519.00,0.0142
518.00,0.0142
517.00,0.0141
516.00,0.0139
515.00,0.0140
514.00,0.0145
513.00,0.0149
512.00,0.0147
511.00,0.0137
510.00,0.0126
509.00,0.0119
508.00,0.0120
507.00,0.0124
506.00,0.0127
505.00,0.0126
504.00,0.0120
503.00,0.0113
502.00,0.0110
501.00,0.0111
500.00,0.0116
499.00,0.0122
498.00,0.0127
497.00,0.0132
496.00,0.0137
495.00,0.0141
494.00,0.0142
493.00,0.0142
492.00,0.0139
491.00,0.0137
490.00,0.0135
489.00,0.0135
488.00,0.0137
487.00,0.0140
486.00,0.0141
485.00,0.0137
484.00,0.0132
483.00,0.0131
482.00,0.0137
481.00,0.0142
480.00,0.0144
479.00,0.0141
478.00,0.0140
477.00,0.0142
476.00,0.0144
475.00,0.0142
474.00,0.0133
473.00,0.0124
472.00,0.0121
471.00,0.0129
470.00,0.0142
469.00,0.0158
468.00,0.0173
467.00,0.0185
466.00,0.0190
465.00,0.0189
464.00,0.0183
463.00,0.0177
462.00,0.0173
461.00,0.0175
460.00,0.0183
459.00,0.0198
458.00,0.0216
457.00,0.0228
456.00,0.0226
455.00,0.0214
454.00,0.0200
453.00,0.0189
452.00,0.0186
451.00,0.0187
450.00,0.0187
