Created as New Dataset,Sample 026 By Administrator Date Wednesday, September 10 2025
cm-1,A
4000.00,0.0007
3999.00,0.0007
3998.00,0.0007
3997.00,0.0007
3996.00,0.0007
3995.00,0.0007
3994.00,0.0007
3993.00,0.0007
3992.00,0.0007
3991.00,0.0007
3990.00,0.0008
3989.00,0.0008
3988.00,0.0008
3987.00,0.0008
3986.00,0.0007
3985.00,0.0007
3984.00,0.0007
3983.00,0.0007
3982.00,0.0007
3981.00,0.0007
3980.00,0.0006
3979.00,0.0006
3978.00,0.0006
3977.00,0.0006
3976.00,0.0006
3975.00,0.0006
3974.00,0.0006
3973.00,0.0006
3972.00,0.0006
3971.00,0.0006
3970.00,0.0006
3969.00,0.0006
3968.00,0.0006
3967.00,0.0006
3966.00,0.0006
3965.00,0.0006
3964.00,0.0006
3963.00,0.0006
3962.00,0.0006
3961.00,0.0006
3960.00,0.0006
3959.00,0.0006
3958.00,0.0006
3957.00,0.0006
3956.00,0.0006
3955.00,0.0006
3954.00,0.0006
3953.00,0.0006
3952.00,0.0006
3951.00,0.0006
3950.00,0.0006
3949.00,0.0005
3948.00,0.0005
3947.00,0.0005
3946.00,0.0005
3945.00,0.0006
3944.00,0.0006
3943.00,0.0006
3942.00,0.0006
3941.00,0.0006
3940.00,0.0006
3939.00,0.0006
3938.00,0.0006
3937.00,0.0006
3936.00,0.0006
3935.00,0.0006
3934.00,0.0006
3933.00,0.0006
3932.00,0.0006
3931.00,0.0006
3930.00,0.0006
3929.00,0.0006
3928.00,0.0006
3927.00,0.0006
3926.00,0.0006
3925.00,0.0006
3924.00,0.0007
3923.00,0.0007
3922.00,0.0007
3921.00,0.0007
3920.00,0.0007
3919.00,0.0007
3918.00,0.0006
3917.00,0.0006
3916.00,0.0006
3915.00,0.0006
3914.00,0.0006
3913.00,0.0006
3912.00,0.0006
3911.00,0.0006
3910.00,0.0006
3909.00,0.0005
3908.00,0.0005
3907.00,0.0005
3906.00,0.0006
3905.00,0.0006
3904.00,0.0006
3903.00,0.0006
3902.00,0.0006
3901.00,0.0006
3900.00,0.0006
3899.00,0.0006
3898.00,0.0006
3897.00,0.0006
3896.00,0.0006
3895.00,0.0006
3894.00,0.0006
3893.00,0.0006
3892.00,0.0006
3891.00,0.0006
3890.00,0.0006
3889.00,0.0005
3888.00,0.0005
3887.00,0.0005
3886.00,0.0005
3885.00,0.0005
3884.00,0.0005
3883.00,0.0005
3882.00,0.0005
3881.00,0.0005
3880.00,0.0005
3879.00,0.0005
3878.00,0.0005
3877.00,0.0005
3876.00,0.0006
3875.00,0.0006
3874.00,0.0006
3873.00,0.0006
3872.00,0.0006
3871.00,0.0005
3870.00,0.0005
3869.00,0.0005
3868.00,0.0005
3867.00,0.0005
3866.00,0.0005
3865.00,0.0005
3864.00,0.0005
3863.00,0.0005
3862.00,0.0005
3861.00,0.0005
3860.00,0.0005
3859.00,0.0004
3858.00,0.0004
3857.00,0.0005
3856.00,0.0005
3855.00,0.0005
3854.00,0.0005
3853.00,0.0005
3852.00,0.0005
3851.00,0.0005
3850.00,0.0004
3849.00,0.0004
3848.00,0.0005
3847.00,0.0005
3846.00,0.0005
3845.00,0.0005
3844.00,0.0005
3843.00,0.0005
3842.00,0.0005
3841.00,0.0005
3840.00,0.0005
3839.00,0.0005
3838.00,0.0005
3837.00,0.0005
3836.00,0.0005
3835.00,0.0004
3834.00,0.0004
3833.00,0.0004
3832.00,0.0004
3831.00,0.0004
3830.00,0.0004
3829.00,0.0004
3828.00,0.0005
3827.00,0.0005
3826.00,0.0006
3825.00,0.0006
3824.00,0.0006
3823.00,0.0006
3822.00,0.0005
3821.00,0.0005
3820.00,0.0006
3819.00,0.0005
3818.00,0.0005
3817.00,0.0005
3816.00,0.0005
3815.00,0.0004
3814.00,0.0004
3813.00,0.0004
3812.00,0.0004
3811.00,0.0005
3810.00,0.0005
3809.00,0.0005
3808.00,0.0005
3807.00,0.0005
3806.00,0.0005
3805.00,0.0005
3804.00,0.0005
3803.00,0.0004
3802.00,0.0004
3801.00,0.0004
3800.00,0.0004
3799.00,0.0004
3798.00,0.0005
3797.00,0.0005
3796.00,0.0005
3795.00,0.0005
3794.00,0.0005
3793.00,0.0005
3792.00,0.0005
3791.00,0.0005
3790.00,0.0005
3789.00,0.0005
3788.00,0.0006
3787.00,0.0006
3786.00,0.0006
3785.00,0.0006
3784.00,0.0006
3783.00,0.0006
3782.00,0.0006
3781.00,0.0005
3780.00,0.0005
3779.00,0.0005
3778.00,0.0005
3777.00,0.0005
3776.00,0.0005
3775.00,0.0005
3774.00,0.0006
3773.00,0.0006
3772.00,0.0006
3771.00,0.0005
3770.00,0.0006
3769.00,0.0006
3768.00,0.0006
3767.00,0.0006
3766.00,0.0006
3765.00,0.0006
3764.00,0.0007
3763.00,0.0007
3762.00,0.0007
3761.00,0.0007
3760.00,0.0007
3759.00,0.0007
3758.00,0.0007
3757.00,0.0007
3756.00,0.0007
3755.00,0.0007
3754.00,0.0006
3753.00,0.0006
3752.00,0.0005
3751.00,0.0004
3750.00,0.0004
3749.00,0.0004
3748.00,0.0004
3747.00,0.0004
3746.00,0.0004
3745.00,0.0004
3744.00,0.0004
3743.00,0.0004
3742.00,0.0004
3741.00,0.0004
3740.00,0.0004
3739.00,0.0004
3738.00,0.0004
3737.00,0.0003
3736.00,0.0003
3735.00,0.0003
3734.00,0.0004
3733.00,0.0004
3732.00,0.0004
3731.00,0.0004
3730.00,0.0004
3729.00,0.0005
3728.00,0.0005
3727.00,0.0005
3726.00,0.0005
3725.00,0.0004
3724.00,0.0004
3723.00,0.0004
3722.00,0.0005
3721.00,0.0005
3720.00,0.0004
3719.00,0.0004
3718.00,0.0004
3717.00,0.0004
3716.00,0.0004
3715.00,0.0004
3714.00,0.0004
3713.00,0.0004
3712.00,0.0004
3711.00,0.0004
3710.00,0.0004
3709.00,0.0004
3708.00,0.0003
3707.00,0.0003
3706.00,0.0003
3705.00,0.0003
3704.00,0.0003
3703.00,0.0003
3702.00,0.0003
3701.00,0.0003
3700.00,0.0003
3699.00,0.0003
3698.00,0.0003
3697.00,0.0003
3696.00,0.0003
3695.00,0.0004
3694.00,0.0004
3693.00,0.0004
3692.00,0.0004
3691.00,0.0004
3690.00,0.0004
3689.00,0.0003
3688.00,0.0003
3687.00,0.0003
3686.00,0.0003
3685.00,0.0003
3684.00,0.0003
3683.00,0.0003
3682.00,0.0004
3681.00,0.0004
3680.00,0.0004
3679.00,0.0004
3678.00,0.0005
3677.00,0.0005
3676.00,0.0005
3675.00,0.0005
3674.00,0.0005
3673.00,0.0005
3672.00,0.0005
3671.00,0.0004
3670.00,0.0004
3669.00,0.0004
3668.00,0.0004
3667.00,0.0004
3666.00,0.0005
3665.00,0.0005
3664.00,0.0004
3663.00,0.0004
3662.00,0.0004
3661.00,0.0004
3660.00,0.0004
3659.00,0.0004
3658.00,0.0004
3657.00,0.0004
3656.00,0.0004
3655.00,0.0004
3654.00,0.0004
3653.00,0.0004
3652.00,0.0005
3651.00,0.0006
3650.00,0.0007
3649.00,0.0006
3648.00,0.0006
3647.00,0.0006
3646.00,0.0005
3645.00,0.0005
3644.00,0.0005
3643.00,0.0005
3642.00,0.0005
3641.00,0.0005
3640.00,0.0005
3639.00,0.0005
3638.00,0.0005
3637.00,0.0005
3636.00,0.0005
3635.00,0.0005
3634.00,0.0005
3633.00,0.0005
3632.00,0.0005
3631.00,0.0005
3630.00,0.0005
3629.00,0.0005
3628.00,0.0005
3627.00,0.0005
3626.00,0.0005
3625.00,0.0005
3624.00,0.0005
3623.00,0.0005
3622.00,0.0005
3621.00,0.0005
3620.00,0.0005
3619.00,0.0005
3618.00,0.0005
3617.00,0.0006
3616.00,0.0006
3615.00,0.0005
3614.00,0.0005
3613.00,0.0005
3612.00,0.0006
3611.00,0.0007
3610.00,0.0007
3609.00,0.0007
3608.00,0.0008
3607.00,0.0008
3606.00,0.0008
3605.00,0.0008
3604.00,0.0009
3603.00,0.0009
3602.00,0.0009
3601.00,0.0009
3600.00,0.0008
3599.00,0.0008
3598.00,0.0008
3597.00,0.0008
3596.00,0.0009
3595.00,0.0010
3594.00,0.0010
3593.00,0.0010
3592.00,0.0010
3591.00,0.0010
3590.00,0.0009
3589.00,0.0009
3588.00,0.0010
3587.00,0.0010
3586.00,0.0010
3585.00,0.0011
3584.00,0.0011
3583.00,0.0012
3582.00,0.0012
3581.00,0.0011
3580.00,0.0011
3579.00,0.0011
3578.00,0.0011
3577.00,0.0011
3576.00,0.0011
3575.00,0.0011
3574.00,0.0011
3573.00,0.0012
3572.00,0.0012
3571.00,0.0012
3570.00,0.0013
3569.00,0.0014
3568.00,0.0015
3567.00,0.0015
3566.00,0.0015
3565.00,0.0015
3564.00,0.0015
3563.00,0.0015
3562.00,0.0015
3561.00,0.0015
3560.00,0.0015
3559.00,0.0016
3558.00,0.0016
3557.00,0.0016
3556.00,0.0016
3555.00,0.0016
3554.00,0.0017
3553.00,0.0017
3552.00,0.0017
3551.00,0.0017
3550.00,0.0018
3549.00,0.0018
3548.00,0.0018
3547.00,0.0019
3546.00,0.0019
3545.00,0.0019
3544.00,0.0020
3543.00,0.0020
3542.00,0.0020
3541.00,0.0020
3540.00,0.0020
3539.00,0.0020
3538.00,0.0020
3537.00,0.0020
3536.00,0.0021
3535.00,0.0021
3534.00,0.0021
3533.00,0.0021
3532.00,0.0021
3531.00,0.0022
3530.00,0.0022
3529.00,0.0023
3528.00,0.0023
3527.00,0.0024
3526.00,0.0024
3525.00,0.0024
3524.00,0.0025
3523.00,0.0025
3522.00,0.0025
3521.00,0.0025
3520.00,0.0026
3519.00,0.0026
3518.00,0.0026
3517.00,0.0027
3516.00,0.0027
3515.00,0.0027
3514.00,0.0027
3513.00,0.0027
3512.00,0.0027
3511.00,0.0027
3510.00,0.0027
3509.00,0.0028
3508.00,0.0028
3507.00,0.0029
3506.00,0.0029
3505.00,0.0029
3504.00,0.0029
3503.00,0.0029
3502.00,0.0030
3501.00,0.0030
3500.00,0.0030
3499.00,0.0030
3498.00,0.0031
3497.00,0.0032
3496.00,0.0032
3495.00,0.0033
3494.00,0.0033
3493.00,0.0033
3492.00,0.0033
3491.00,0.0033
3490.00,0.0033
3489.00,0.0033
3488.00,0.0033
3487.00,0.0034
3486.00,0.0034
3485.00,0.0034
3484.00,0.0034
3483.00,0.0035
3482.00,0.0035
3481.00,0.0035
3480.00,0.0035
3479.00,0.0036
3478.00,0.0037
3477.00,0.0037
3476.00,0.0037
3475.00,0.0037
3474.00,0.0038
3473.00,0.0038
3472.00,0.0038
3471.00,0.0039
3470.00,0.0039
3469.00,0.0039
3468.00,0.0039
3467.00,0.0039
3466.00,0.0039
3465.00,0.0039
3464.00,0.0040
3463.00,0.0040
3462.00,0.0041
3461.00,0.0041
3460.00,0.0041
3459.00,0.0041
3458.00,0.0041
3457.00,0.0040
3456.00,0.0041
3455.00,0.0041
3454.00,0.0041
3453.00,0.0042
3452.00,0.0042
3451.00,0.0043
3450.00,0.0043
3449.00,0.0044
3448.00,0.0044
3447.00,0.0044
3446.00,0.0044
3445.00,0.0044
3444.00,0.0044
3443.00,0.0044
3442.00,0.0044
3441.00,0.0045
3440.00,0.0045
3439.00,0.0046
3438.00,0.0046
3437.00,0.0046
3436.00,0.0046
3435.00,0.0046
3434.00,0.0046
3433.00,0.0046
3432.00,0.0046
3431.00,0.0047
3430.00,0.0047
3429.00,0.0048
3428.00,0.0048
3427.00,0.0047
3426.00,0.0047
3425.00,0.0047
3424.00,0.0047
3423.00,0.0047
3422.00,0.0047
3421.00,0.0048
3420.00,0.0048
3419.00,0.0049
3418.00,0.0049
3417.00,0.0049
3416.00,0.0049
3415.00,0.0049
3414.00,0.0049
3413.00,0.0050
3412.00,0.0050
3411.00,0.0050
3410.00,0.0050
3409.00,0.0050
3408.00,0.0050
3407.00,0.0050
3406.00,0.0050
3405.00,0.0050
3404.00,0.0050
3403.00,0.0050
3402.00,0.0050
3401.00,0.0050
3400.00,0.0051
3399.00,0.0051
3398.00,0.0050
3397.00,0.0050
3396.00,0.0050
3395.00,0.0050
3394.00,0.0050
3393.00,0.0050
3392.00,0.0050
3391.00,0.0050
3390.00,0.0050
3389.00,0.0050
3388.00,0.0050
3387.00,0.0051
3386.00,0.0051
3385.00,0.0051
3384.00,0.0051
3383.00,0.0051
3382.00,0.0051
3381.00,0.0052
3380.00,0.0052
3379.00,0.0052
3378.00,0.0051
3377.00,0.0051
3376.00,0.0051
3375.00,0.0051
3374.00,0.0051
3373.00,0.0051
3372.00,0.0051
3371.00,0.0051
3370.00,0.0051
3369.00,0.0051
3368.00,0.0051
3367.00,0.0051
3366.00,0.0051
3365.00,0.0051
3364.00,0.0051
3363.00,0.0051
3362.00,0.0051
3361.00,0.0051
3360.00,0.0051
3359.00,0.0050
3358.00,0.0050
3357.00,0.0050
3356.00,0.0051
3355.00,0.0051
3354.00,0.0051
3353.00,0.0051
3352.00,0.0051
3351.00,0.0051
3350.00,0.0051
3349.00,0.0051
3348.00,0.0051
3347.00,0.0051
3346.00,0.0051
3345.00,0.0051
3344.00,0.0052
3343.00,0.0051
3342.00,0.0051
3341.00,0.0051
3340.00,0.0050
3339.00,0.0050
3338.00,0.0049
3337.00,0.0049
3336.00,0.0049
3335.00,0.0049
3334.00,0.0049
3333.00,0.0049
3332.00,0.0049
3331.00,0.0048
3330.00,0.0048
3329.00,0.0048
3328.00,0.0048
3327.00,0.0047
3326.00,0.0047
3325.00,0.0047
3324.00,0.0046
3323.00,0.0046
3322.00,0.0046
3321.00,0.0046
3320.00,0.0046
3319.00,0.0046
3318.00,0.0046
3317.00,0.0046
3316.00,0.0046
3315.00,0.0046
3314.00,0.0046
3313.00,0.0046
3312.00,0.0046
3311.00,0.0046
3310.00,0.0046
3309.00,0.0045
3308.00,0.0045
3307.00,0.0045
3306.00,0.0044
3305.00,0.0045
3304.00,0.0045
3303.00,0.0045
3302.00,0.0044
3301.00,0.0044
3300.00,0.0044
3299.00,0.0044
3298.00,0.0044
3297.00,0.0044
3296.00,0.0044
3295.00,0.0043
3294.00,0.0044
3293.00,0.0044
3292.00,0.0044
3291.00,0.0044
3290.00,0.0044
3289.00,0.0044
3288.00,0.0044
3287.00,0.0044
3286.00,0.0044
3285.00,0.0044
3284.00,0.0043
3283.00,0.0043
3282.00,0.0043
3281.00,0.0043
3280.00,0.0043
3279.00,0.0043
3278.00,0.0043
3277.00,0.0043
3276.00,0.0043
3275.00,0.0043
3274.00,0.0042
3273.00,0.0042
3272.00,0.0042
3271.00,0.0042
3270.00,0.0042
3269.00,0.0041
3268.00,0.0041
3267.00,0.0041
3266.00,0.0040
3265.00,0.0040
3264.00,0.0040
3263.00,0.0040
3262.00,0.0039
3261.00,0.0039
3260.00,0.0039
3259.00,0.0039
3258.00,0.0039
3257.00,0.0039
3256.00,0.0039
3255.00,0.0039
3254.00,0.0038
3253.00,0.0038
3252.00,0.0038
3251.00,0.0038
3250.00,0.0038
3249.00,0.0038
3248.00,0.0038
3247.00,0.0038
3246.00,0.0039
3245.00,0.0039
3244.00,0.0038
3243.00,0.0038
3242.00,0.0038
3241.00,0.0038
3240.00,0.0037
3239.00,0.0037
3238.00,0.0037
3237.00,0.0038
3236.00,0.0038
3235.00,0.0038
3234.00,0.0038
3233.00,0.0038
3232.00,0.0038
3231.00,0.0038
3230.00,0.0038
3229.00,0.0038
3228.00,0.0038
3227.00,0.0038
3226.00,0.0038
3225.00,0.0038
3224.00,0.0038
3223.00,0.0038
3222.00,0.0038
3221.00,0.0038
3220.00,0.0038
3219.00,0.0038
3218.00,0.0038
3217.00,0.0039
3216.00,0.0039
3215.00,0.0039
3214.00,0.0040
3213.00,0.0040
3212.00,0.0039
3211.00,0.0040
3210.00,0.0040
3209.00,0.0040
3208.00,0.0040
3207.00,0.0040
3206.00,0.0040
3205.00,0.0041
3204.00,0.0041
3203.00,0.0041
3202.00,0.0041
3201.00,0.0041
3200.00,0.0041
3199.00,0.0040
3198.00,0.0040
3197.00,0.0039
3196.00,0.0039
3195.00,0.0039
3194.00,0.0039
3193.00,0.0039
3192.00,0.0039
3191.00,0.0038
3190.00,0.0038
3189.00,0.0038
3188.00,0.0038
3187.00,0.0038
3186.00,0.0038
3185.00,0.0038
3184.00,0.0038
3183.00,0.0037
3182.00,0.0037
3181.00,0.0037
3180.00,0.0036
3179.00,0.0036
3178.00,0.0036
3177.00,0.0036
3176.00,0.0035
3175.00,0.0035
3174.00,0.0034
3173.00,0.0034
3172.00,0.0034
3171.00,0.0034
3170.00,0.0034
3169.00,0.0034
3168.00,0.0034
3167.00,0.0034
3166.00,0.0035
3165.00,0.0035
3164.00,0.0035
3163.00,0.0034
3162.00,0.0034
3161.00,0.0034
3160.00,0.0034
3159.00,0.0033
3158.00,0.0033
3157.00,0.0033
3156.00,0.0033
3155.00,0.0033
3154.00,0.0033
3153.00,0.0033
3152.00,0.0033
3151.00,0.0033
3150.00,0.0033
3149.00,0.0033
3148.00,0.0034
3147.00,0.0034
3146.00,0.0034
3145.00,0.0034
3144.00,0.0033
3143.00,0.0033
3142.00,0.0032
3141.00,0.0032
3140.00,0.0032
3139.00,0.0031
3138.00,0.0031
3137.00,0.0031
3136.00,0.0031
3135.00,0.0031
3134.00,0.0031
3133.00,0.0031
3132.00,0.0030
3131.00,0.0030
3130.00,0.0030
3129.00,0.0029
3128.00,0.0029
3127.00,0.0029
3126.00,0.0029
3125.00,0.0029
3124.00,0.0029
3123.00,0.0029
3122.00,0.0029
3121.00,0.0028
3120.00,0.0028
3119.00,0.0027
3118.00,0.0027
3117.00,0.0027
3116.00,0.0027
3115.00,0.0027
3114.00,0.0027
3113.00,0.0027
3112.00,0.0027
3111.00,0.0027
3110.00,0.0027
3109.00,0.0026
3108.00,0.0026
3107.00,0.0026
3106.00,0.0026
3105.00,0.0026
3104.00,0.0026
3103.00,0.0026
3102.00,0.0026
3101.00,0.0026
3100.00,0.0026
3099.00,0.0026
3098.00,0.0026
3097.00,0.0025
3096.00,0.0025
3095.00,0.0025
3094.00,0.0025
3093.00,0.0025
3092.00,0.0025
3091.00,0.0025
3090.00,0.0025
3089.00,0.0025
3088.00,0.0024
3087.00,0.0024
3086.00,0.0024
3085.00,0.0024
3084.00,0.0025
3083.00,0.0025
3082.00,0.0025
3081.00,0.0024
3080.00,0.0024
3079.00,0.0024
3078.00,0.0024
3077.00,0.0024
3076.00,0.0024
3075.00,0.0025
3074.00,0.0025
3073.00,0.0025
3072.00,0.0026
3071.00,0.0026
3070.00,0.0026
3069.00,0.0026
3068.00,0.0027
3067.00,0.0027
3066.00,0.0027
3065.00,0.0027
3064.00,0.0027
3063.00,0.0027
3062.00,0.0027
3061.00,0.0028
3060.00,0.0028
3059.00,0.0028
3058.00,0.0028
3057.00,0.0028
3056.00,0.0028
3055.00,0.0028
3054.00,0.0029
3053.00,0.0029
3052.00,0.0029
3051.00,0.0029
3050.00,0.0029
3049.00,0.0029
3048.00,0.0029
3047.00,0.0029
3046.00,0.0029
3045.00,0.0030
3044.00,0.0030
3043.00,0.0030
3042.00,0.0030
3041.00,0.0031
3040.00,0.0031
3039.00,0.0031
3038.00,0.0032
3037.00,0.0032
3036.00,0.0033
3035.00,0.0033
3034.00,0.0033
3033.00,0.0033
3032.00,0.0033
3031.00,0.0034
3030.00,0.0034
3029.00,0.0035
3028.00,0.0036
3027.00,0.0037
3026.00,0.0038
3025.00,0.0038
3024.00,0.0039
3023.00,0.0039
3022.00,0.0040
3021.00,0.0041
3020.00,0.0042
3019.00,0.0043
3018.00,0.0043
3017.00,0.0044
3016.00,0.0045
3015.00,0.0046
3014.00,0.0047
3013.00,0.0048
3012.00,0.0049
3011.00,0.0050
3010.00,0.0052
3009.00,0.0053
3008.00,0.0055
3007.00,0.0056
3006.00,0.0058
3005.00,0.0060
3004.00,0.0062
3003.00,0.0065
3002.00,0.0067
3001.00,0.0069
3000.00,0.0072
2999.00,0.0075
2998.00,0.0078
2997.00,0.0082
2996.00,0.0086
2995.00,0.0090
2994.00,0.0094
2993.00,0.0099
2992.00,0.0104
2991.00,0.0110
2990.00,0.0116
2989.00,0.0124
2988.00,0.0132
2987.00,0.0141
2986.00,0.0151
2985.00,0.0162
2984.00,0.0174
2983.00,0.0188
2982.00,0.0203
2981.00,0.0220
2980.00,0.0239
2979.00,0.0260
2978.00,0.0285
2977.00,0.0313
2976.00,0.0345
2975.00,0.0381
2974.00,0.0423
2973.00,0.0469
2972.00,0.0522
2971.00,0.0580
2970.00,0.0645
2969.00,0.0716
2968.00,0.0792
2967.00,0.0873
2966.00,0.0957
2965.00,0.1041
2964.00,0.1122
2963.00,0.1196
2962.00,0.1260
2961.00,0.1315
2960.00,0.1360
2959.00,0.1401
2958.00,0.1444
2957.00,0.1493
2956.00,0.1553
2955.00,0.1627
2954.00,0.1712
2953.00,0.1802
2952.00,0.1889
2951.00,0.1960
2950.00,0.2002
2949.00,0.2005
2948.00,0.1962
2947.00,0.1875
2946.00,0.1754
2945.00,0.1614
2944.00,0.1473
2943.00,0.1345
2942.00,0.1240
2941.00,0.1163
2940.00,0.1114
2939.00,0.1091
2938.00,0.1091
2937.00,0.1111
2936.00,0.1150
2935.00,0.1206
2934.00,0.1277
2933.00,0.1363
2932.00,0.1461
2931.00,0.1570
2930.00,0.1685
2929.00,0.1804
2928.00,0.1924
2927.00,0.2040
2926.00,0.2153
2925.00,0.2260
2924.00,0.2365
2923.00,0.2467
2922.00,0.2569
2921.00,0.2666
2920.00,0.2755
2919.00,0.2825
2918.00,0.2866
2917.00,0.2869
2916.00,0.2832
2915.00,0.2759
2914.00,0.2659
2913.00,0.2544
2912.00,0.2426
2911.00,0.2313
2910.00,0.2208
2909.00,0.2112
2908.00,0.2022
2907.00,0.1937
2906.00,0.1854
2905.00,0.1773
2904.00,0.1694
2903.00,0.1616
2902.00,0.1541
2901.00,0.1468
2900.00,0.1398
2899.00,0.1333
2898.00,0.1273
2897.00,0.1220
2896.00,0.1173
2895.00,0.1133
2894.00,0.1101
2893.00,0.1077
2892.00,0.1060
2891.00,0.1049
2890.00,0.1045
2889.00,0.1046
2888.00,0.1051
2887.00,0.1060
2886.00,0.1073
2885.00,0.1090
2884.00,0.1111
2883.00,0.1138
2882.00,0.1170
2881.00,0.1205
2880.00,0.1241
2879.00,0.1272
2878.00,0.1294
2877.00,0.1304
2876.00,0.1304
2875.00,0.1296
2874.00,0.1287
2873.00,0.1283
2872.00,0.1288
2871.00,0.1301
2870.00,0.1323
2869.00,0.1346
2868.00,0.1364
2867.00,0.1365
2866.00,0.1341
2865.00,0.1287
2864.00,0.1207
2863.00,0.1108
2862.00,0.1004
2861.00,0.0904
2860.00,0.0818
2859.00,0.0747
2858.00,0.0693
2857.00,0.0654
2856.00,0.0626
2855.00,0.0608
2854.00,0.0598
2853.00,0.0596
2852.00,0.0600
2851.00,0.0611
2850.00,0.0628
2849.00,0.0653
2848.00,0.0686
2847.00,0.0727
2846.00,0.0778
2845.00,0.0839
2844.00,0.0907
2843.00,0.0981
2842.00,0.1058
2841.00,0.1130
2840.00,0.1191
2839.00,0.1232
2838.00,0.1243
2837.00,0.1220
2836.00,0.1161
2835.00,0.1073
2834.00,0.0966
2833.00,0.0853
2832.00,0.0744
2831.00,0.0647
2830.00,0.0564
2829.00,0.0497
2828.00,0.0442
2827.00,0.0398
2826.00,0.0363
2825.00,0.0334
2824.00,0.0310
2823.00,0.0289
2822.00,0.0272
2821.00,0.0258
2820.00,0.0245
2819.00,0.0234
2818.00,0.0225
2817.00,0.0217
2816.00,0.0209
2815.00,0.0203
2814.00,0.0196
2813.00,0.0191
2812.00,0.0185
2811.00,0.0179
2810.00,0.0174
2809.00,0.0168
2808.00,0.0161
2807.00,0.0155
2806.00,0.0148
2805.00,0.0140
2804.00,0.0134
2803.00,0.0128
2802.00,0.0122
2801.00,0.0118
2800.00,0.0114
2799.00,0.0110
2798.00,0.0108
2797.00,0.0105
2796.00,0.0103
2795.00,0.0100
2794.00,0.0097
2793.00,0.0095
2792.00,0.0092
2791.00,0.0089
2790.00,0.0086
2789.00,0.0083
2788.00,0.0080
2787.00,0.0078
2786.00,0.0075
2785.00,0.0073
2784.00,0.0071
2783.00,0.0069
2782.00,0.0067
2781.00,0.0065
2780.00,0.0063
2779.00,0.0062
2778.00,0.0060
2777.00,0.0059
2776.00,0.0058
2775.00,0.0057
2774.00,0.0056
2773.00,0.0056
2772.00,0.0055
2771.00,0.0055
2770.00,0.0055
2769.00,0.0054
2768.00,0.0053
2767.00,0.0052
2766.00,0.0052
2765.00,0.0052
2764.00,0.0052
2763.00,0.0052
2762.00,0.0051
2761.00,0.0051
2760.00,0.0050
2759.00,0.0050
2758.00,0.0050
2757.00,0.0050
2756.00,0.0050
2755.00,0.0050
2754.00,0.0050
2753.00,0.0050
2752.00,0.0049
2751.00,0.0049
2750.00,0.0049
2749.00,0.0049
2748.00,0.0049
2747.00,0.0049
2746.00,0.0050
2745.00,0.0051
2744.00,0.0051
2743.00,0.0052
2742.00,0.0053
2741.00,0.0055
2740.00,0.0056
2739.00,0.0057
2738.00,0.0059
2737.00,0.0061
2736.00,0.0062
2735.00,0.0064
2734.00,0.0066
2733.00,0.0068
2732.00,0.0070
2731.00,0.0072
2730.00,0.0074
2729.00,0.0077
2728.00,0.0080
2727.00,0.0083
2726.00,0.0086
2725.00,0.0088
2724.00,0.0089
2723.00,0.0090
2722.00,0.0089
2721.00,0.0087
2720.00,0.0084
2719.00,0.0081
2718.00,0.0077
2717.00,0.0074
2716.00,0.0070
2715.00,0.0067
2714.00,0.0065
2713.00,0.0062
2712.00,0.0060
2711.00,0.0058
2710.00,0.0056
2709.00,0.0054
2708.00,0.0053
2707.00,0.0051
2706.00,0.0049
2705.00,0.0048
2704.00,0.0047
2703.00,0.0046
2702.00,0.0045
2701.00,0.0045
2700.00,0.0044
2699.00,0.0044
2698.00,0.0043
2697.00,0.0043
2696.00,0.0042
2695.00,0.0042
2694.00,0.0042
2693.00,0.0042
2692.00,0.0042
2691.00,0.0042
2690.00,0.0042
2689.00,0.0042
2688.00,0.0042
2687.00,0.0042
2686.00,0.0042
2685.00,0.0042
2684.00,0.0042
2683.00,0.0042
2682.00,0.0042
2681.00,0.0042
2680.00,0.0043
2679.00,0.0043
2678.00,0.0043
2677.00,0.0043
2676.00,0.0043
2675.00,0.0043
2674.00,0.0043
2673.00,0.0043
2672.00,0.0042
2671.00,0.0042
2670.00,0.0042
2669.00,0.0042
2668.00,0.0042
2667.00,0.0042
2666.00,0.0043
2665.00,0.0043
2664.00,0.0044
2663.00,0.0045
2662.00,0.0045
2661.00,0.0046
2660.00,0.0046
2659.00,0.0046
2658.00,0.0046
2657.00,0.0046
2656.00,0.0045
2655.00,0.0045
2654.00,0.0044
2653.00,0.0043
2652.00,0.0042
2651.00,0.0041
2650.00,0.0041
2649.00,0.0041
2648.00,0.0041
2647.00,0.0040
2646.00,0.0040
2645.00,0.0040
2644.00,0.0039
2643.00,0.0039
2642.00,0.0038
2641.00,0.0038
2640.00,0.0037
2639.00,0.0037
2638.00,0.0036
2637.00,0.0036
2636.00,0.0035
2635.00,0.0035
2634.00,0.0035
2633.00,0.0036
2632.00,0.0036
2631.00,0.0036
2630.00,0.0036
2629.00,0.0036
2628.00,0.0036
2627.00,0.0037
2626.00,0.0037
2625.00,0.0037
2624.00,0.0037
2623.00,0.0037
2622.00,0.0038
2621.00,0.0038
2620.00,0.0038
2619.00,0.0039
2618.00,0.0039
2617.00,0.0039
2616.00,0.0039
2615.00,0.0039
2614.00,0.0039
2613.00,0.0039
2612.00,0.0038
2611.00,0.0038
2610.00,0.0037
2609.00,0.0036
2608.00,0.0035
2607.00,0.0034
2606.00,0.0033
2605.00,0.0032
2604.00,0.0031
2603.00,0.0031
2602.00,0.0031
2601.00,0.0031
2600.00,0.0032
2599.00,0.0032
2598.00,0.0033
2597.00,0.0033
2596.00,0.0032
2595.00,0.0032
2594.00,0.0031
2593.00,0.0031
2592.00,0.0032
2591.00,0.0033
2590.00,0.0034
2589.00,0.0035
2588.00,0.0036
2587.00,0.0036
2586.00,0.0037
2585.00,0.0038
2584.00,0.0039
2583.00,0.0040
2582.00,0.0040
2581.00,0.0040
2580.00,0.0039
2579.00,0.0038
2578.00,0.0036
2577.00,0.0034
2576.00,0.0033
2575.00,0.0032
2574.00,0.0032
2573.00,0.0031
2572.00,0.0030
2571.00,0.0029
2570.00,0.0028
2569.00,0.0026
2568.00,0.0025
2567.00,0.0025
2566.00,0.0025
2565.00,0.0024
2564.00,0.0024
2563.00,0.0024
2562.00,0.0024
2561.00,0.0024
2560.00,0.0024
2559.00,0.0023
2558.00,0.0023
2557.00,0.0023
2556.00,0.0022
2555.00,0.0022
2554.00,0.0022
2553.00,0.0021
2552.00,0.0020
2551.00,0.0020
2550.00,0.0019
2549.00,0.0018
2548.00,0.0018
2547.00,0.0017
2546.00,0.0017
2545.00,0.0017
2544.00,0.0017
2543.00,0.0017
2542.00,0.0017
2541.00,0.0016
2540.00,0.0016
2539.00,0.0015
2538.00,0.0015
2537.00,0.0015
2536.00,0.0015
2535.00,0.0015
2534.00,0.0014
2533.00,0.0014
2532.00,0.0013
2531.00,0.0013
2530.00,0.0013
2529.00,0.0013
2528.00,0.0013
2527.00,0.0012
2526.00,0.0012
2525.00,0.0012
2524.00,0.0013
2523.00,0.0013
2522.00,0.0012
2521.00,0.0012
2520.00,0.0011
2519.00,0.0010
2518.00,0.0010
2517.00,0.0010
2516.00,0.0010
2515.00,0.0010
2514.00,0.0010
2513.00,0.0009
2512.00,0.0009
2511.00,0.0009
2510.00,0.0008
2509.00,0.0008
2508.00,0.0007
2507.00,0.0008
2506.00,0.0008
2505.00,0.0009
2504.00,0.0009
2503.00,0.0009
2502.00,0.0009
2501.00,0.0009
2500.00,0.0009
2499.00,0.0008
2498.00,0.0008
2497.00,0.0009
2496.00,0.0010
2495.00,0.0010
2494.00,0.0011
2493.00,0.0011
2492.00,0.0010
2491.00,0.0010
2490.00,0.0009
2489.00,0.0009
2488.00,0.0009
2487.00,0.0009
2486.00,0.0009
2485.00,0.0008
2484.00,0.0007
2483.00,0.0007
2482.00,0.0007
2481.00,0.0007
2480.00,0.0007
2479.00,0.0008
2478.00,0.0007
2477.00,0.0007
2476.00,0.0008
2475.00,0.0008
2474.00,0.0008
2473.00,0.0008
2472.00,0.0008
2471.00,0.0008
2470.00,0.0008
2469.00,0.0008
2468.00,0.0008
2467.00,0.0008
2466.00,0.0008
2465.00,0.0008
2464.00,0.0009
2463.00,0.0009
2462.00,0.0009
2461.00,0.0009
2460.00,0.0010
2459.00,0.0010
2458.00,0.0010
2457.00,0.0010
2456.00,0.0010
2455.00,0.0009
2454.00,0.0009
2453.00,0.0010
2452.00,0.0010
2451.00,0.0011
2450.00,0.0011
2449.00,0.0010
2448.00,0.0010
2447.00,0.0009
2446.00,0.0009
2445.00,0.0009
2444.00,0.0009
2443.00,0.0009
2442.00,0.0009
2441.00,0.0009
2440.00,0.0009
2439.00,0.0009
2438.00,0.0009
2437.00,0.0009
2436.00,0.0010
2435.00,0.0010
2434.00,0.0011
2433.00,0.0011
2432.00,0.0012
2431.00,0.0012
2430.00,0.0011
2429.00,0.0011
2428.00,0.0010
2427.00,0.0010
2426.00,0.0010
2425.00,0.0010
2424.00,0.0010
2423.00,0.0009
2422.00,0.0009
2421.00,0.0009
2420.00,0.0009
2419.00,0.0009
2418.00,0.0010
2417.00,0.0010
2416.00,0.0009
2415.00,0.0009
2414.00,0.0009
2413.00,0.0009
2412.00,0.0009
2411.00,0.0009
2410.00,0.0009
2409.00,0.0009
2408.00,0.0008
2407.00,0.0007
2406.00,0.0007
2405.00,0.0007
2404.00,0.0007
2403.00,0.0007
2402.00,0.0006
2401.00,0.0006
2400.00,0.0006
2399.00,0.0006
2398.00,0.0006
2397.00,0.0006
2396.00,0.0007
2395.00,0.0007
2394.00,0.0007
2393.00,0.0007
2392.00,0.0006
2391.00,0.0005
2390.00,0.0005
2389.00,0.0005
2388.00,0.0004
2387.00,0.0004
2386.00,0.0003
2385.00,0.0002
2384.00,0.0001
2383.00,0.0000
2382.00,-0.0001
2381.00,-0.0001
2380.00,-0.0002
2379.00,-0.0002
2378.00,-0.0002
2377.00,-0.0002
2376.00,-0.0002
2375.00,-0.0001
2374.00,-0.0001
2373.00,-0.0002
2372.00,-0.0002
2371.00,-0.0003
2370.00,-0.0004
2369.00,-0.0004
2368.00,-0.0004
2367.00,-0.0004
2366.00,-0.0004
2365.00,-0.0004
2364.00,-0.0003
2363.00,-0.0003
2362.00,-0.0003
2361.00,-0.0003
2360.00,-0.0003
2359.00,-0.0003
2358.00,-0.0003
2357.00,-0.0003
2356.00,-0.0003
2355.00,-0.0003
2354.00,-0.0003
2353.00,-0.0003
2352.00,-0.0003
2351.00,-0.0003
2350.00,-0.0003
2349.00,-0.0003
2348.00,-0.0003
2347.00,-0.0002
2346.00,-0.0002
2345.00,-0.0002
2344.00,-0.0002
2343.00,-0.0002
2342.00,-0.0001
2341.00,-0.0001
2340.00,-0.0001
2339.00,-0.0000
2338.00,0.0001
2337.00,0.0001
2336.00,0.0001
2335.00,0.0001
2334.00,-0.0000
2333.00,-0.0001
2332.00,-0.0001
2331.00,-0.0000
2330.00,0.0000
2329.00,0.0001
2328.00,0.0003
2327.00,0.0006
2326.00,0.0010
2325.00,0.0014
2324.00,0.0016
2323.00,0.0015
2322.00,0.0013
2321.00,0.0010
2320.00,0.0009
2319.00,0.0008
2318.00,0.0007
2317.00,0.0007
2316.00,0.0007
2315.00,0.0006
2314.00,0.0005
2313.00,0.0004
2312.00,0.0003
2311.00,0.0003
2310.00,0.0002
2309.00,0.0003
2308.00,0.0003
2307.00,0.0004
2306.00,0.0005
2305.00,0.0005
2304.00,0.0005
2303.00,0.0005
2302.00,0.0005
2301.00,0.0005
2300.00,0.0005
2299.00,0.0006
2298.00,0.0006
2297.00,0.0007
2296.00,0.0007
2295.00,0.0009
2294.00,0.0010
2293.00,0.0011
2292.00,0.0012
2291.00,0.0013
2290.00,0.0014
2289.00,0.0015
2288.00,0.0016
2287.00,0.0016
2286.00,0.0016
2285.00,0.0015
2284.00,0.0015
2283.00,0.0014
2282.00,0.0014
2281.00,0.0014
2280.00,0.0014
2279.00,0.0013
2278.00,0.0012
2277.00,0.0012
2276.00,0.0012
2275.00,0.0012
2274.00,0.0012
2273.00,0.0012
2272.00,0.0012
2271.00,0.0011
2270.00,0.0011
2269.00,0.0011
2268.00,0.0010
2267.00,0.0010
2266.00,0.0009
2265.00,0.0008
2264.00,0.0008
2263.00,0.0008
2262.00,0.0008
2261.00,0.0010
2260.00,0.0010
2259.00,0.0011
2258.00,0.0010
2257.00,0.0010
2256.00,0.0010
2255.00,0.0009
2254.00,0.0008
2253.00,0.0007
2252.00,0.0007
2251.00,0.0008
2250.00,0.0008
2249.00,0.0008
2248.00,0.0007
2247.00,0.0006
2246.00,0.0006
2245.00,0.0007
2244.00,0.0007
2243.00,0.0007
2242.00,0.0006
2241.00,0.0006
2240.00,0.0007
2239.00,0.0008
2238.00,0.0009
2237.00,0.0009
2236.00,0.0008
2235.00,0.0007
2234.00,0.0007
2233.00,0.0007
2232.00,0.0006
2231.00,0.0006
2230.00,0.0006
2229.00,0.0008
2228.00,0.0009
2227.00,0.0010
2226.00,0.0010
2225.00,0.0010
2224.00,0.0009
2223.00,0.0009
2222.00,0.0008
2221.00,0.0006
2220.00,0.0005
2219.00,0.0003
2218.00,0.0002
2217.00,0.0002
2216.00,0.0001
2215.00,0.0001
2214.00,0.0001
2213.00,0.0002
2212.00,0.0003
2211.00,0.0004
2210.00,0.0004
2209.00,0.0005
2208.00,0.0007
2207.00,0.0007
2206.00,0.0007
2205.00,0.0006
2204.00,0.0006
2203.00,0.0006
2202.00,0.0007
2201.00,0.0006
2200.00,0.0006
2199.00,0.0005
2198.00,0.0005
2197.00,0.0006
2196.00,0.0007
2195.00,0.0006
2194.00,0.0005
2193.00,0.0005
2192.00,0.0007
2191.00,0.0008
2190.00,0.0010
2189.00,0.0012
2188.00,0.0014
2187.00,0.0015
2186.00,0.0016
2185.00,0.0015
2184.00,0.0012
2183.00,0.0007
2182.00,0.0003
2181.00,0.0001
2180.00,0.0001
2179.00,0.0001
2178.00,0.0003
2177.00,0.0003
2176.00,0.0003
2175.00,0.0002
2174.00,0.0002
2173.00,0.0003
2172.00,0.0004
2171.00,0.0006
2170.00,0.0008
2169.00,0.0010
2168.00,0.0010
2167.00,0.0009
2166.00,0.0010
2165.00,0.0011
2164.00,0.0012
2163.00,0.0012
2162.00,0.0012
2161.00,0.0010
2160.00,0.0004
2159.00,-0.0007
2158.00,-0.0019
2157.00,-0.0026
2156.00,-0.0028
2155.00,-0.0028
2154.00,-0.0028
2153.00,-0.0026
2152.00,-0.0023
2151.00,-0.0022
2150.00,-0.0021
2149.00,-0.0019
2148.00,-0.0017
2147.00,-0.0016
2146.00,-0.0015
2145.00,-0.0016
2144.00,-0.0017
2143.00,-0.0018
2142.00,-0.0018
2141.00,-0.0017
2140.00,-0.0016
2139.00,-0.0015
2138.00,-0.0015
2137.00,-0.0016
2136.00,-0.0017
2135.00,-0.0019
2134.00,-0.0021
2133.00,-0.0021
2132.00,-0.0018
2131.00,-0.0015
2130.00,-0.0013
2129.00,-0.0010
2128.00,-0.0008
2127.00,-0.0007
2126.00,-0.0006
2125.00,-0.0007
2124.00,-0.0008
2123.00,-0.0008
2122.00,-0.0008
2121.00,-0.0008
2120.00,-0.0007
2119.00,-0.0006
2118.00,-0.0005
2117.00,-0.0003
2116.00,-0.0001
2115.00,0.0000
2114.00,0.0001
2113.00,0.0001
2112.00,0.0002
2111.00,0.0002
2110.00,0.0002
2109.00,0.0002
2108.00,0.0002
2107.00,0.0002
2106.00,0.0001
2105.00,0.0002
2104.00,0.0002
2103.00,0.0001
2102.00,0.0001
2101.00,-0.0000
2100.00,-0.0001
2099.00,-0.0002
2098.00,-0.0002
2097.00,-0.0001
2096.00,-0.0001
2095.00,-0.0001
2094.00,-0.0001
2093.00,-0.0001
2092.00,-0.0001
2091.00,-0.0001
2090.00,-0.0001
2089.00,-0.0000
2088.00,0.0001
2087.00,0.0002
2086.00,0.0002
2085.00,0.0002
2084.00,0.0002
2083.00,0.0001
2082.00,0.0001
2081.00,0.0000
2080.00,0.0001
2079.00,0.0001
2078.00,0.0001
2077.00,0.0002
2076.00,0.0002
2075.00,0.0002
2074.00,0.0003
2073.00,0.0003
2072.00,0.0004
2071.00,0.0005
2070.00,0.0005
2069.00,0.0003
2068.00,0.0001
2067.00,-0.0001
2066.00,-0.0002
2065.00,-0.0001
2064.00,-0.0000
2063.00,-0.0000
2062.00,-0.0000
2061.00,-0.0000
2060.00,0.0001
2059.00,0.0002
2058.00,0.0003
2057.00,0.0003
2056.00,0.0004
2055.00,0.0004
2054.00,0.0005
2053.00,0.0008
2052.00,0.0012
2051.00,0.0013
2050.00,0.0010
2049.00,0.0005
2048.00,0.0001
2047.00,-0.0001
2046.00,-0.0002
2045.00,-0.0003
2044.00,-0.0002
2043.00,-0.0001
2042.00,0.0000
2041.00,0.0003
2040.00,0.0005
2039.00,0.0006
2038.00,0.0005
2037.00,0.0004
2036.00,0.0004
2035.00,0.0003
2034.00,0.0001
2033.00,-0.0003
2032.00,-0.0007
2031.00,-0.0011
2030.00,-0.0012
2029.00,-0.0011
2028.00,-0.0010
2027.00,-0.0008
2026.00,-0.0008
2025.00,-0.0009
2024.00,-0.0010
2023.00,-0.0011
2022.00,-0.0012
2021.00,-0.0013
2020.00,-0.0013
2019.00,-0.0012
2018.00,-0.0011
2017.00,-0.0009
2016.00,-0.0009
2015.00,-0.0010
2014.00,-0.0010
2013.00,-0.0009
2012.00,-0.0008
2011.00,-0.0008
2010.00,-0.0008
2009.00,-0.0011
2008.00,-0.0014
2007.00,-0.0017
2006.00,-0.0019
2005.00,-0.0019
2004.00,-0.0018
2003.00,-0.0017
2002.00,-0.0016
2001.00,-0.0015
2000.00,-0.0014
1999.00,-0.0012
1998.00,-0.0011
1997.00,-0.0010
1996.00,-0.0008
1995.00,-0.0005
1994.00,-0.0004
1993.00,-0.0005
1992.00,-0.0007
1991.00,-0.0007
1990.00,-0.0005
1989.00,-0.0001
1988.00,0.0001
1987.00,0.0001
1986.00,0.0000
1985.00,0.0001
1984.00,0.0003
1983.00,0.0005
1982.00,0.0007
1981.00,0.0008
1980.00,0.0005
1979.00,0.0001
1978.00,-0.0005
1977.00,-0.0008
1976.00,-0.0008
1975.00,-0.0008
1974.00,-0.0008
1973.00,-0.0009
1972.00,-0.0010
1971.00,-0.0013
1970.00,-0.0015
1969.00,-0.0015
1968.00,-0.0015
1967.00,-0.0015
1966.00,-0.0016
1965.00,-0.0016
1964.00,-0.0017
1963.00,-0.0017
1962.00,-0.0018
1961.00,-0.0019
1960.00,-0.0020
1959.00,-0.0021
1958.00,-0.0022
1957.00,-0.0022
1956.00,-0.0021
1955.00,-0.0019
1954.00,-0.0018
1953.00,-0.0017
1952.00,-0.0015
1951.00,-0.0014
1950.00,-0.0013
1949.00,-0.0014
1948.00,-0.0016
1947.00,-0.0018
1946.00,-0.0020
1945.00,-0.0022
1944.00,-0.0021
1943.00,-0.0018
1942.00,-0.0014
1941.00,-0.0012
1940.00,-0.0011
1939.00,-0.0011
1938.00,-0.0012
1937.00,-0.0013
1936.00,-0.0013
1935.00,-0.0012
1934.00,-0.0012
1933.00,-0.0011
1932.00,-0.0010
1931.00,-0.0010
1930.00,-0.0009
1929.00,-0.0010
1928.00,-0.0010
1927.00,-0.0010
1926.00,-0.0009
1925.00,-0.0007
1924.00,-0.0006
1923.00,-0.0006
1922.00,-0.0007
1921.00,-0.0008
1920.00,-0.0008
1919.00,-0.0008
1918.00,-0.0006
1917.00,-0.0005
1916.00,-0.0004
1915.00,-0.0004
1914.00,-0.0005
1913.00,-0.0004
1912.00,-0.0004
1911.00,-0.0004
1910.00,-0.0004
1909.00,-0.0005
1908.00,-0.0005
1907.00,-0.0004
1906.00,-0.0004
1905.00,-0.0004
1904.00,-0.0004
1903.00,-0.0003
1902.00,-0.0002
1901.00,0.0000
1900.00,0.0001
1899.00,0.0001
1898.00,0.0000
1897.00,-0.0000
1896.00,-0.0000
1895.00,0.0000
1894.00,0.0000
1893.00,0.0000
1892.00,-0.0000
1891.00,-0.0001
1890.00,-0.0002
1889.00,-0.0002
1888.00,-0.0002
1887.00,-0.0002
1886.00,-0.0003
1885.00,-0.0003
1884.00,-0.0003
1883.00,-0.0003
1882.00,-0.0004
1881.00,-0.0004
1880.00,-0.0004
1879.00,-0.0004
1878.00,-0.0004
1877.00,-0.0004
1876.00,-0.0003
1875.00,-0.0003
1874.00,-0.0003
1873.00,-0.0002
1872.00,-0.0002
1871.00,-0.0002
1870.00,-0.0002
1869.00,-0.0002
1868.00,-0.0001
1867.00,-0.0001
1866.00,-0.0001
1865.00,-0.0000
1864.00,-0.0000
1863.00,0.0000
1862.00,0.0000
1861.00,0.0000
1860.00,-0.0000
1859.00,-0.0001
1858.00,-0.0001
1857.00,-0.0001
1856.00,-0.0001
1855.00,-0.0001
1854.00,-0.0001
1853.00,-0.0001
1852.00,-0.0000
1851.00,-0.0000
1850.00,-0.0001
1849.00,-0.0001
1848.00,-0.0001
1847.00,-0.0001
1846.00,-0.0002
1845.00,-0.0001
1844.00,-0.0001
1843.00,-0.0000
1842.00,0.0000
1841.00,0.0000
1840.00,0.0000
1839.00,0.0000
1838.00,0.0000
1837.00,0.0001
1836.00,0.0001
1835.00,0.0001
1834.00,0.0001
1833.00,0.0001
1832.00,0.0001
1831.00,0.0001
1830.00,0.0001
1829.00,0.0002
1828.00,0.0001
1827.00,0.0001
1826.00,0.0001
1825.00,0.0001
1824.00,0.0001
1823.00,0.0002
1822.00,0.0002
1821.00,0.0002
1820.00,0.0001
1819.00,0.0001
1818.00,-0.0001
1817.00,-0.0002
1816.00,-0.0002
1815.00,-0.0001
1814.00,-0.0000
1813.00,0.0001
1812.00,0.0001
1811.00,0.0002
1810.00,0.0002
1809.00,0.0001
1808.00,0.0001
1807.00,0.0001
1806.00,0.0001
1805.00,0.0002
1804.00,0.0003
1803.00,0.0003
1802.00,0.0003
1801.00,0.0003
1800.00,0.0003
1799.00,0.0003
1798.00,0.0003
1797.00,0.0003
1796.00,0.0003
1795.00,0.0003
1794.00,0.0003
1793.00,0.0004
1792.00,0.0004
1791.00,0.0004
1790.00,0.0005
1789.00,0.0005
1788.00,0.0006
1787.00,0.0006
1786.00,0.0005
1785.00,0.0006
1784.00,0.0006
1783.00,0.0006
1782.00,0.0006
1781.00,0.0006
1780.00,0.0006
1779.00,0.0006
1778.00,0.0006
1777.00,0.0005
1776.00,0.0006
1775.00,0.0006
1774.00,0.0007
1773.00,0.0007
1772.00,0.0008
1771.00,0.0008
1770.00,0.0007
1769.00,0.0007
1768.00,0.0007
1767.00,0.0007
1766.00,0.0007
1765.00,0.0008
1764.00,0.0008
1763.00,0.0009
1762.00,0.0009
1761.00,0.0009
1760.00,0.0009
1759.00,0.0009
1758.00,0.0009
1757.00,0.0010
1756.00,0.0011
1755.00,0.0011
1754.00,0.0012
1753.00,0.0012
1752.00,0.0012
1751.00,0.0013
1750.00,0.0014
1749.00,0.0014
1748.00,0.0014
1747.00,0.0014
1746.00,0.0014
1745.00,0.0014
1744.00,0.0014
1743.00,0.0015
1742.00,0.0015
1741.00,0.0015
1740.00,0.0015
1739.00,0.0016
1738.00,0.0017
1737.00,0.0017
1736.00,0.0017
1735.00,0.0017
1734.00,0.0017
1733.00,0.0017
1732.00,0.0017
1731.00,0.0017
1730.00,0.0017
1729.00,0.0017
1728.00,0.0017
1727.00,0.0017
1726.00,0.0017
1725.00,0.0017
1724.00,0.0017
1723.00,0.0017
1722.00,0.0017
1721.00,0.0018
1720.00,0.0018
1719.00,0.0018
1718.00,0.0018
1717.00,0.0018
1716.00,0.0019
1715.00,0.0019
1714.00,0.0020
1713.00,0.0020
1712.00,0.0020
1711.00,0.0020
1710.00,0.0020
1709.00,0.0020
1708.00,0.0020
1707.00,0.0020
1706.00,0.0020
1705.00,0.0020
1704.00,0.0021
1703.00,0.0021
1702.00,0.0021
1701.00,0.0021
1700.00,0.0022
1699.00,0.0022
1698.00,0.0022
1697.00,0.0022
1696.00,0.0023
1695.00,0.0024
1694.00,0.0024
1693.00,0.0025
1692.00,0.0025
1691.00,0.0025
1690.00,0.0025
1689.00,0.0026
1688.00,0.0026
1687.00,0.0026
1686.00,0.0026
1685.00,0.0026
1684.00,0.0027
1683.00,0.0028
1682.00,0.0029
1681.00,0.0028
1680.00,0.0028
1679.00,0.0028
1678.00,0.0029
1677.00,0.0029
1676.00,0.0030
1675.00,0.0030
1674.00,0.0030
1673.00,0.0030
1672.00,0.0030
1671.00,0.0030
1670.00,0.0030
1669.00,0.0030
1668.00,0.0031
1667.00,0.0032
1666.00,0.0032
1665.00,0.0032
1664.00,0.0033
1663.00,0.0033
1662.00,0.0034
1661.00,0.0035
1660.00,0.0035
1659.00,0.0036
1658.00,0.0036
1657.00,0.0036
1656.00,0.0037
1655.00,0.0038
1654.00,0.0038
1653.00,0.0038
1652.00,0.0038
1651.00,0.0039
1650.00,0.0039
1649.00,0.0040
1648.00,0.0041
1647.00,0.0042
1646.00,0.0042
1645.00,0.0042
1644.00,0.0042
1643.00,0.0043
1642.00,0.0043
1641.00,0.0044
1640.00,0.0044
1639.00,0.0044
1638.00,0.0045
1637.00,0.0045
1636.00,0.0045
1635.00,0.0045
1634.00,0.0045
1633.00,0.0045
1632.00,0.0045
1631.00,0.0045
1630.00,0.0045
1629.00,0.0045
1628.00,0.0045
1627.00,0.0044
1626.00,0.0044
1625.00,0.0045
1624.00,0.0045
1623.00,0.0045
1622.00,0.0044
1621.00,0.0044
1620.00,0.0043
1619.00,0.0043
1618.00,0.0043
1617.00,0.0043
1616.00,0.0043
1615.00,0.0043
1614.00,0.0043
1613.00,0.0043
1612.00,0.0043
1611.00,0.0043
1610.00,0.0042
1609.00,0.0042
1608.00,0.0042
1607.00,0.0042
1606.00,0.0042
1605.00,0.0042
1604.00,0.0042
1603.00,0.0041
1602.00,0.0041
1601.00,0.0041
1600.00,0.0041
1599.00,0.0041
1598.00,0.0040
1597.00,0.0040
1596.00,0.0040
1595.00,0.0040
1594.00,0.0039
1593.00,0.0039
1592.00,0.0039
1591.00,0.0038
1590.00,0.0038
1589.00,0.0038
1588.00,0.0038
1587.00,0.0039
1586.00,0.0038
1585.00,0.0038
1584.00,0.0038
1583.00,0.0038
1582.00,0.0038
1581.00,0.0038
1580.00,0.0038
1579.00,0.0038
1578.00,0.0038
1577.00,0.0039
1576.00,0.0039
1575.00,0.0039
1574.00,0.0038
1573.00,0.0038
1572.00,0.0039
1571.00,0.0039
1570.00,0.0039
1569.00,0.0039
1568.00,0.0040
1567.00,0.0040
1566.00,0.0040
1565.00,0.0040
1564.00,0.0041
1563.00,0.0041
1562.00,0.0042
1561.00,0.0044
1560.00,0.0045
1559.00,0.0045
1558.00,0.0044
1557.00,0.0044
1556.00,0.0044
1555.00,0.0045
1554.00,0.0045
1553.00,0.0046
1552.00,0.0047
1551.00,0.0047
1550.00,0.0047
1549.00,0.0047
1548.00,0.0047
1547.00,0.0047
1546.00,0.0048
1545.00,0.0048
1544.00,0.0049
1543.00,0.0049
1542.00,0.0049
1541.00,0.0048
1540.00,0.0048
1539.00,0.0047
1538.00,0.0045
1537.00,0.0045
1536.00,0.0045
1535.00,0.0044
1534.00,0.0043
1533.00,0.0042
1532.00,0.0043
1531.00,0.0043
1530.00,0.0043
1529.00,0.0043
1528.00,0.0043
1527.00,0.0043
1526.00,0.0042
1525.00,0.0042
1524.00,0.0042
1523.00,0.0043
1522.00,0.0043
1521.00,0.0043
1520.00,0.0044
1519.00,0.0044
1518.00,0.0044
1517.00,0.0044
1516.00,0.0044
1515.00,0.0044
1514.00,0.0044
1513.00,0.0045
1512.00,0.0046
1511.00,0.0048
1510.00,0.0049
1509.00,0.0051
1508.00,0.0053
1507.00,0.0054
1506.00,0.0054
1505.00,0.0055
1504.00,0.0056
1503.00,0.0057
1502.00,0.0059
1501.00,0.0061
1500.00,0.0064
1499.00,0.0066
1498.00,0.0069
1497.00,0.0073
1496.00,0.0077
1495.00,0.0080
1494.00,0.0082
1493.00,0.0086
1492.00,0.0090
1491.00,0.0093
1490.00,0.0097
1489.00,0.0102
1488.00,0.0107
1487.00,0.0111
1486.00,0.0116
1485.00,0.0121
1484.00,0.0127
1483.00,0.0133
1482.00,0.0141
1481.00,0.0151
1480.00,0.0162
1479.00,0.0173
1478.00,0.0187
1477.00,0.0205
1476.00,0.0227
1475.00,0.0253
1474.00,0.0290
1473.00,0.0345
1472.00,0.0412
1471.00,0.0478
1470.00,0.0541
1469.00,0.0609
1468.00,0.0682
1467.00,0.0764
1466.00,0.0858
1465.00,0.0961
1464.00,0.1054
1463.00,0.1120
1462.00,0.1165
1461.00,0.1196
1460.00,0.1219
1459.00,0.1233
1458.00,0.1244
1457.00,0.1251
1456.00,0.1251
1455.00,0.1243
1454.00,0.1230
1453.00,0.1211
1452.00,0.1182
1451.00,0.1140
1450.00,0.1083
1449.00,0.1004
1448.00,0.0905
1447.00,0.0803
1446.00,0.0711
1445.00,0.0634
1444.00,0.0570
1443.00,0.0518
1442.00,0.0481
1441.00,0.0457
1440.00,0.0443
1439.00,0.0440
1438.00,0.0444
1437.00,0.0449
1436.00,0.0441
1435.00,0.0414
1434.00,0.0373
1433.00,0.0323
1432.00,0.0273
1431.00,0.0228
1430.00,0.0195
1429.00,0.0170
1428.00,0.0154
1427.00,0.0144
1426.00,0.0137
1425.00,0.0131
1424.00,0.0126
1423.00,0.0123
1422.00,0.0122
1421.00,0.0120
1420.00,0.0117
1419.00,0.0115
1418.00,0.0113
1417.00,0.0111
1416.00,0.0108
1415.00,0.0107
1414.00,0.0107
1413.00,0.0106
1412.00,0.0105
1411.00,0.0105
1410.00,0.0105
1409.00,0.0105
1408.00,0.0104
1407.00,0.0104
1406.00,0.0104
1405.00,0.0104
1404.00,0.0105
1403.00,0.0106
1402.00,0.0108
1401.00,0.0110
1400.00,0.0111
1399.00,0.0114
1398.00,0.0117
1397.00,0.0119
1396.00,0.0122
1395.00,0.0126
1394.00,0.0132
1393.00,0.0137
1392.00,0.0143
1391.00,0.0152
1390.00,0.0164
1389.00,0.0182
1388.00,0.0209
1387.00,0.0249
1386.00,0.0302
1385.00,0.0368
1384.00,0.0455
1383.00,0.0572
1382.00,0.0727
1381.00,0.0929
1380.00,0.1185
1379.00,0.1488
1378.00,0.1796
1377.00,0.2041
1376.00,0.2152
1375.00,0.2076
1374.00,0.1832
1373.00,0.1516
1372.00,0.1218
1371.00,0.0969
1370.00,0.0769
1369.00,0.0617
1368.00,0.0512
1367.00,0.0449
1366.00,0.0415
1365.00,0.0402
1364.00,0.0406
1363.00,0.0422
1362.00,0.0448
1361.00,0.0475
1360.00,0.0495
1359.00,0.0501
1358.00,0.0488
1357.00,0.0457
1356.00,0.0413
1355.00,0.0364
1354.00,0.0316
1353.00,0.0275
1352.00,0.0242
1351.00,0.0216
1350.00,0.0195
1349.00,0.0179
1348.00,0.0166
1347.00,0.0156
1346.00,0.0147
1345.00,0.0140
1344.00,0.0135
1343.00,0.0131
1342.00,0.0128
1341.00,0.0126
1340.00,0.0123
1339.00,0.0120
1338.00,0.0118
1337.00,0.0118
1336.00,0.0119
1335.00,0.0121
1334.00,0.0125
1333.00,0.0130
1332.00,0.0135
1331.00,0.0138
1330.00,0.0139
1329.00,0.0138
1328.00,0.0133
1327.00,0.0127
1326.00,0.0120
1325.00,0.0113
1324.00,0.0106
1323.00,0.0100
1322.00,0.0096
1321.00,0.0092
1320.00,0.0090
1319.00,0.0087
1318.00,0.0085
1317.00,0.0083
1316.00,0.0081
1315.00,0.0080
1314.00,0.0079
1313.00,0.0080
1312.00,0.0081
1311.00,0.0082
1310.00,0.0085
1309.00,0.0090
1308.00,0.0098
1307.00,0.0107
1306.00,0.0116
1305.00,0.0123
1304.00,0.0126
1303.00,0.0126
1302.00,0.0124
1301.00,0.0122
1300.00,0.0123
1299.00,0.0124
1298.00,0.0126
1297.00,0.0127
1296.00,0.0127
1295.00,0.0125
1294.00,0.0121
1293.00,0.0115
1292.00,0.0109
1291.00,0.0103
1290.00,0.0097
1289.00,0.0093
1288.00,0.0089
1287.00,0.0086
1286.00,0.0084
1285.00,0.0081
1284.00,0.0079
1283.00,0.0078
1282.00,0.0076
1281.00,0.0074
1280.00,0.0073
1279.00,0.0072
1278.00,0.0071
1277.00,0.0070
1276.00,0.0070
1275.00,0.0070
1274.00,0.0070
1273.00,0.0070
1272.00,0.0070
1271.00,0.0071
1270.00,0.0071
1269.00,0.0071
1268.00,0.0072
1267.00,0.0073
1266.00,0.0075
1265.00,0.0077
1264.00,0.0079
1263.00,0.0081
1262.00,0.0084
1261.00,0.0087
1260.00,0.0092
1259.00,0.0098
1258.00,0.0104
1257.00,0.0109
1256.00,0.0111
1255.00,0.0111
1254.00,0.0107
1253.00,0.0102
1252.00,0.0095
1251.00,0.0090
1250.00,0.0086
1249.00,0.0083
1248.00,0.0082
1247.00,0.0081
1246.00,0.0080
1245.00,0.0079
1244.00,0.0079
1243.00,0.0078
1242.00,0.0078
1241.00,0.0077
1240.00,0.0075
1239.00,0.0074
1238.00,0.0073
1237.00,0.0073
1236.00,0.0073
1235.00,0.0073
1234.00,0.0073
1233.00,0.0073
1232.00,0.0073
1231.00,0.0074
1230.00,0.0074
1229.00,0.0074
1228.00,0.0075
1227.00,0.0076
1226.00,0.0078
1225.00,0.0081
1224.00,0.0085
1223.00,0.0089
1222.00,0.0093
1221.00,0.0096
1220.00,0.0097
1219.00,0.0098
1218.00,0.0097
1217.00,0.0094
1216.00,0.0092
1215.00,0.0089
1214.00,0.0086
1213.00,0.0083
1212.00,0.0080
1211.00,0.0076
1210.00,0.0074
1209.00,0.0072
1208.00,0.0070
1207.00,0.0069
1206.00,0.0068
1205.00,0.0068
1204.00,0.0067
1203.00,0.0067
1202.00,0.0066
1201.00,0.0065
1200.00,0.0064
1199.00,0.0064
1198.00,0.0065
1197.00,0.0065
1196.00,0.0065
1195.00,0.0065
1194.00,0.0066
1193.00,0.0066
1192.00,0.0066
1191.00,0.0066
1190.00,0.0066
1189.00,0.0065
1188.00,0.0064
1187.00,0.0064
1186.00,0.0065
1185.00,0.0066
1184.00,0.0067
1183.00,0.0069
1182.00,0.0071
1181.00,0.0073
1180.00,0.0076
1179.00,0.0081
1178.00,0.0086
1177.00,0.0093
1176.00,0.0102
1175.00,0.0115
1174.00,0.0131
1173.00,0.0152
1172.00,0.0176
1171.00,0.0202
1170.00,0.0226
1169.00,0.0247
1168.00,0.0260
1167.00,0.0264
1166.00,0.0261
1165.00,0.0253
1164.00,0.0241
1163.00,0.0228
1162.00,0.0217
1161.00,0.0207
1160.00,0.0200
1159.00,0.0195
1158.00,0.0191
1157.00,0.0189
1156.00,0.0188
1155.00,0.0188
1154.00,0.0188
1153.00,0.0186
1152.00,0.0183
1151.00,0.0177
1150.00,0.0169
1149.00,0.0160
1148.00,0.0150
1147.00,0.0140
1146.00,0.0132
1145.00,0.0124
1144.00,0.0118
1143.00,0.0111
1142.00,0.0105
1141.00,0.0100
1140.00,0.0095
1139.00,0.0091
1138.00,0.0087
1137.00,0.0084
1136.00,0.0081
1135.00,0.0079
1134.00,0.0077
1133.00,0.0076
1132.00,0.0075
1131.00,0.0075
1130.00,0.0075
1129.00,0.0076
1128.00,0.0077
1127.00,0.0078
1126.00,0.0079
1125.00,0.0080
1124.00,0.0080
1123.00,0.0080
1122.00,0.0079
1121.00,0.0080
1120.00,0.0081
1119.00,0.0082
1118.00,0.0084
1117.00,0.0085
1116.00,0.0086
1115.00,0.0087
1114.00,0.0088
1113.00,0.0090
1112.00,0.0093
1111.00,0.0095
1110.00,0.0099
1109.00,0.0103
1108.00,0.0109
1107.00,0.0116
1106.00,0.0123
1105.00,0.0131
1104.00,0.0137
1103.00,0.0141
1102.00,0.0142
1101.00,0.0138
1100.00,0.0133
1099.00,0.0126
1098.00,0.0119
1097.00,0.0111
1096.00,0.0105
1095.00,0.0100
1094.00,0.0096
1093.00,0.0093
1092.00,0.0091
1091.00,0.0089
1090.00,0.0087
1089.00,0.0085
1088.00,0.0083
1087.00,0.0082
1086.00,0.0082
1085.00,0.0082
1084.00,0.0082
1083.00,0.0081
1082.00,0.0079
1081.00,0.0078
1080.00,0.0076
1079.00,0.0075
1078.00,0.0074
1077.00,0.0073
1076.00,0.0071
1075.00,0.0071
1074.00,0.0070
1073.00,0.0070
1072.00,0.0071
1071.00,0.0071
1070.00,0.0071
1069.00,0.0072
1068.00,0.0072
1067.00,0.0071
1066.00,0.0071
1065.00,0.0070
1064.00,0.0070
1063.00,0.0070
1062.00,0.0071
1061.00,0.0072
1060.00,0.0072
1059.00,0.0073
1058.00,0.0074
1057.00,0.0075
1056.00,0.0075
1055.00,0.0076
1054.00,0.0076
1053.00,0.0076
1052.00,0.0076
1051.00,0.0077
1050.00,0.0078
1049.00,0.0080
1048.00,0.0082
1047.00,0.0085
1046.00,0.0086
1045.00,0.0087
1044.00,0.0087
1043.00,0.0087
1042.00,0.0086
1041.00,0.0085
1040.00,0.0085
1039.00,0.0083
1038.00,0.0082
1037.00,0.0081
1036.00,0.0080
1035.00,0.0080
1034.00,0.0080
1033.00,0.0080
1032.00,0.0080
1031.00,0.0080
1030.00,0.0079
1029.00,0.0079
1028.00,0.0079
1027.00,0.0079
1026.00,0.0079
1025.00,0.0079
1024.00,0.0079
1023.00,0.0079
1022.00,0.0079
1021.00,0.0079
1020.00,0.0080
1019.00,0.0080
1018.00,0.0081
1017.00,0.0082
1016.00,0.0084
1015.00,0.0087
1014.00,0.0090
1013.00,0.0094
1012.00,0.0096
1011.00,0.0099
1010.00,0.0102
1009.00,0.0106
1008.00,0.0110
1007.00,0.0116
1006.00,0.0123
1005.00,0.0132
1004.00,0.0144
1003.00,0.0161
1002.00,0.0183
1001.00,0.0211
1000.00,0.0239
999.00,0.0262
998.00,0.0273
997.00,0.0266
996.00,0.0245
995.00,0.0215
994.00,0.0184
993.00,0.0157
992.00,0.0135
991.00,0.0120
990.00,0.0109
989.00,0.0103
988.00,0.0099
987.00,0.0098
986.00,0.0099
985.00,0.0101
984.00,0.0105
983.00,0.0111
982.00,0.0120
981.00,0.0134
980.00,0.0154
979.00,0.0180
978.00,0.0213
977.00,0.0250
976.00,0.0287
975.00,0.0321
974.00,0.0344
973.00,0.0349
972.00,0.0335
971.00,0.0305
970.00,0.0264
969.00,0.0224
968.00,0.0189
967.00,0.0162
966.00,0.0142
965.00,0.0128
964.00,0.0117
963.00,0.0108
962.00,0.0101
961.00,0.0095
960.00,0.0091
959.00,0.0088
958.00,0.0086
957.00,0.0084
956.00,0.0082
955.00,0.0080
954.00,0.0078
953.00,0.0078
952.00,0.0077
951.00,0.0077
950.00,0.0076
949.00,0.0076
948.00,0.0076
947.00,0.0078
946.00,0.0081
945.00,0.0084
944.00,0.0088
943.00,0.0092
942.00,0.0095
941.00,0.0097
940.00,0.0097
939.00,0.0094
938.00,0.0090
937.00,0.0084
936.00,0.0078
935.00,0.0072
934.00,0.0069
933.00,0.0066
932.00,0.0064
931.00,0.0063
930.00,0.0062
929.00,0.0062
928.00,0.0062
927.00,0.0062
926.00,0.0062
925.00,0.0063
924.00,0.0063
923.00,0.0063
922.00,0.0064
921.00,0.0065
920.00,0.0067
919.00,0.0068
918.00,0.0068
917.00,0.0068
916.00,0.0069
915.00,0.0070
914.00,0.0071
913.00,0.0072
912.00,0.0073
911.00,0.0074
910.00,0.0075
909.00,0.0078
908.00,0.0081
907.00,0.0087
906.00,0.0095
905.00,0.0106
904.00,0.0122
903.00,0.0143
902.00,0.0166
901.00,0.0187
900.00,0.0201
899.00,0.0205
898.00,0.0196
897.00,0.0179
896.00,0.0156
895.00,0.0134
894.00,0.0116
893.00,0.0102
892.00,0.0092
891.00,0.0086
890.00,0.0081
889.00,0.0077
888.00,0.0075
887.00,0.0074
886.00,0.0073
885.00,0.0071
884.00,0.0068
883.00,0.0066
882.00,0.0064
881.00,0.0063
880.00,0.0064
879.00,0.0066
878.00,0.0067
877.00,0.0066
876.00,0.0066
875.00,0.0065
874.00,0.0066
873.00,0.0066
872.00,0.0067
871.00,0.0068
870.00,0.0069
869.00,0.0068
868.00,0.0068
867.00,0.0068
866.00,0.0069
865.00,0.0070
864.00,0.0072
863.00,0.0074
862.00,0.0076
861.00,0.0078
860.00,0.0079
859.00,0.0081
858.00,0.0082
857.00,0.0083
856.00,0.0083
855.00,0.0084
854.00,0.0084
853.00,0.0085
852.00,0.0087
851.00,0.0091
850.00,0.0096
849.00,0.0101
848.00,0.0108
847.00,0.0118
846.00,0.0135
845.00,0.0160
844.00,0.0193
843.00,0.0228
842.00,0.0252
841.00,0.0256
840.00,0.0239
839.00,0.0207
838.00,0.0175
837.00,0.0150
836.00,0.0133
835.00,0.0123
834.00,0.0117
833.00,0.0112
832.00,0.0108
831.00,0.0105
830.00,0.0103
829.00,0.0101
828.00,0.0100
827.00,0.0099
826.00,0.0098
825.00,0.0097
824.00,0.0097
823.00,0.0097
822.00,0.0098
821.00,0.0099
820.00,0.0101
819.00,0.0104
818.00,0.0110
817.00,0.0117
816.00,0.0127
815.00,0.0140
814.00,0.0155
813.00,0.0172
812.00,0.0191
811.00,0.0210
810.00,0.0223
809.00,0.0229
808.00,0.0227
807.00,0.0216
806.00,0.0200
805.00,0.0181
804.00,0.0162
803.00,0.0145
802.00,0.0132
801.00,0.0122
800.00,0.0114
799.00,0.0107
798.00,0.0102
797.00,0.0097
796.00,0.0095
795.00,0.0093
794.00,0.0091
793.00,0.0088
792.00,0.0086
791.00,0.0083
790.00,0.0081
789.00,0.0080
788.00,0.0078
787.00,0.0076
786.00,0.0073
785.00,0.0071
784.00,0.0069
783.00,0.0066
782.00,0.0064
781.00,0.0062
780.00,0.0062
779.00,0.0062
778.00,0.0063
777.00,0.0063
776.00,0.0063
775.00,0.0063
774.00,0.0064
773.00,0.0065
772.00,0.0067
771.00,0.0068
770.00,0.0069
769.00,0.0070
768.00,0.0070
767.00,0.0070
766.00,0.0069
765.00,0.0068
764.00,0.0067
763.00,0.0066
762.00,0.0065
761.00,0.0062
760.00,0.0060
759.00,0.0059
758.00,0.0058
757.00,0.0056
756.00,0.0055
755.00,0.0053
754.00,0.0051
753.00,0.0050
752.00,0.0049
751.00,0.0049
750.00,0.0050
749.00,0.0051
748.00,0.0052
747.00,0.0054
746.00,0.0055
745.00,0.0056
744.00,0.0057
743.00,0.0058
742.00,0.0057
741.00,0.0057
740.00,0.0057
739.00,0.0058
738.00,0.0059
737.00,0.0061
736.00,0.0062
735.00,0.0064
734.00,0.0066
733.00,0.0067
732.00,0.0068
731.00,0.0069
730.00,0.0069
729.00,0.0069
728.00,0.0068
727.00,0.0068
726.00,0.0067
725.00,0.0066
724.00,0.0065
723.00,0.0064
722.00,0.0063
721.00,0.0062
720.00,0.0061
719.00,0.0061
718.00,0.0060
717.00,0.0060
716.00,0.0059
715.00,0.0058
714.00,0.0057
713.00,0.0057
712.00,0.0057
711.00,0.0058
710.00,0.0058
709.00,0.0058
708.00,0.0058
707.00,0.0059
706.00,0.0060
705.00,0.0061
704.00,0.0062
703.00,0.0062
702.00,0.0059
701.00,0.0057
700.00,0.0054
699.00,0.0051
698.00,0.0049
697.00,0.0048
696.00,0.0047
695.00,0.0047
694.00,0.0047
693.00,0.0047
692.00,0.0047
691.00,0.0048
690.00,0.0049
689.00,0.0048
688.00,0.0047
687.00,0.0045
686.00,0.0044
685.00,0.0042
684.00,0.0042
683.00,0.0043
682.00,0.0044
681.00,0.0044
680.00,0.0042
679.00,0.0041
678.00,0.0041
677.00,0.0043
676.00,0.0045
675.00,0.0046
674.00,0.0048
673.00,0.0050
672.00,0.0052
671.00,0.0054
670.00,0.0057
669.00,0.0059
668.00,0.0061
667.00,0.0063
666.00,0.0061
665.00,0.0058
664.00,0.0056
663.00,0.0055
662.00,0.0054
661.00,0.0052
660.00,0.0052
659.00,0.0052
658.00,0.0051
657.00,0.0049
656.00,0.0048
655.00,0.0047
654.00,0.0048
653.00,0.0049
652.00,0.0050
651.00,0.0051
650.00,0.0051
649.00,0.0051
648.00,0.0051
647.00,0.0052
646.00,0.0051
645.00,0.0051
644.00,0.0050
643.00,0.0051
642.00,0.0051
641.00,0.0050
640.00,0.0049
639.00,0.0048
638.00,0.0049
637.00,0.0051
636.00,0.0053
635.00,0.0054
634.00,0.0053
633.00,0.0050
632.00,0.0048
631.00,0.0049
630.00,0.0051
629.00,0.0054
628.00,0.0056
627.00,0.0057
626.00,0.0057
625.00,0.0055
624.00,0.0053
623.00,0.0051
622.00,0.0051
621.00,0.0052
620.00,0.0053
619.00,0.0053
618.00,0.0052
617.00,0.0051
616.00,0.0052
615.00,0.0054
614.00,0.0055
613.00,0.0056
612.00,0.0057
611.00,0.0057
610.00,0.0056
609.00,0.0054
608.00,0.0053
607.00,0.0053
606.00,0.0055
605.00,0.0057
604.00,0.0060
603.00,0.0063
602.00,0.0064
601.00,0.0063
600.00,0.0062
599.00,0.0061
598.00,0.0059
597.00,0.0057
596.00,0.0056
595.00,0.0056
594.00,0.0056
593.00,0.0055
592.00,0.0054
591.00,0.0054
590.00,0.0055
589.00,0.0058
588.00,0.0060
587.00,0.0061
586.00,0.0061
585.00,0.0060
584.00,0.0060
583.00,0.0060
582.00,0.0058
581.00,0.0056
580.00,0.0053
579.00,0.0051
578.00,0.0050
577.00,0.0051
576.00,0.0053
575.00,0.0056
574.00,0.0056
573.00,0.0053
572.00,0.0049
571.00,0.0045
570.00,0.0046
569.00,0.0051
568.00,0.0058
567.00,0.0064
566.00,0.0065
565.00,0.0064
564.00,0.0063
563.00,0.0064
562.00,0.0064
561.00,0.0063
560.00,0.0059
559.00,0.0057
558.00,0.0057
557.00,0.0059
556.00,0.0063
555.00,0.0064
554.00,0.0064
553.00,0.0061
552.00,0.0059
551.00,0.0057
550.00,0.0055
549.00,0.0054
548.00,0.0055
547.00,0.0059
546.00,0.0065
545.00,0.0070
544.00,0.0073
543.00,0.0074
542.00,0.0075
541.00,0.0076
540.00,0.0075
539.00,0.0073
538.00,0.0071
537.00,0.0069
536.00,0.0069
535.00,0.0071
534.00,0.0074
533.00,0.0078
532.00,0.0083
531.00,0.0087
530.00,0.0089
529.00,0.0089
528.00,0.0086
527.00,0.0081
526.00,0.0074
525.00,0.0069
524.00,0.0067
523.00,0.0068
522.00,0.0067
521.00,0.0062
520.00,0.0058
519.00,0.0058
518.00,0.0061
517.00,0.0064
516.00,0.0066
515.00,0.0068
514.00,0.0071
513.00,0.0071
512.00,0.0069
511.00,0.0065
510.00,0.0064
509.00,0.0065
508.00,0.0069
507.00,0.0076
506.00,0.0080
505.00,0.0079
504.00,0.0072
503.00,0.0065
502.00,0.0065
501.00,0.0072
500.00,0.0081
499.00,0.0085
498.00,0.0083
497.00,0.0077
496.00,0.0069
495.00,0.0064
494.00,0.0062
493.00,0.0064
492.00,0.0069
491.00,0.0072
490.00,0.0070
489.00,0.0066
488.00,0.0063
487.00,0.0060
486.00,0.0056
485.00,0.0050
484.00,0.0049
483.00,0.0057
482.00,0.0069
481.00,0.0076
480.00,0.0076
479.00,0.0074
478.00,0.0074
477.00,0.0074
476.00,0.0078
475.00,0.0089
474.00,0.0104
473.00,0.0114
472.00,0.0112
471.00,0.0101
470.00,0.0090
469.00,0.0082
468.00,0.0082
467.00,0.0089
466.00,0.0102
465.00,0.0115
464.00,0.0126
463.00,0.0140
462.00,0.0157
461.00,0.0169
460.00,0.0169
459.00,0.0158
458.00,0.0143
457.00,0.0134
456.00,0.0133
455.00,0.0134
454.00,0.0135
453.00,0.0130
452.00,0.0120
451.00,0.0109
450.00,0.0103
