Created as New Dataset,Sample 007 By Administrator Date Wednesday, September 10 2025
cm-1,A
4000.00,0.0010
3999.00,0.0010
3998.00,0.0010
3997.00,0.0009
3996.00,0.0009
3995.00,0.0009
3994.00,0.0009
3993.00,0.0008
3992.00,0.0009
3991.00,0.0009
3990.00,0.0009
3989.00,0.0009
3988.00,0.0009
3987.00,0.0009
3986.00,0.0009
3985.00,0.0009
3984.00,0.0009
3983.00,0.0009
3982.00,0.0008
3981.00,0.0008
3980.00,0.0008
3979.00,0.0008
3978.00,0.0008
3977.00,0.0008
3976.00,0.0008
3975.00,0.0007
3974.00,0.0007
3973.00,0.0007
3972.00,0.0007
3971.00,0.0007
3970.00,0.0007
3969.00,0.0007
3968.00,0.0007
3967.00,0.0007
3966.00,0.0007
3965.00,0.0007
3964.00,0.0007
3963.00,0.0008
3962.00,0.0008
3961.00,0.0008
3960.00,0.0007
3959.00,0.0007
3958.00,0.0007
3957.00,0.0007
3956.00,0.0007
3955.00,0.0007
3954.00,0.0007
3953.00,0.0007
3952.00,0.0007
3951.00,0.0008
3950.00,0.0008
3949.00,0.0008
3948.00,0.0008
3947.00,0.0008
3946.00,0.0007
3945.00,0.0007
3944.00,0.0007
3943.00,0.0007
3942.00,0.0008
3941.00,0.0008
3940.00,0.0008
3939.00,0.0007
3938.00,0.0007
3937.00,0.0007
3936.00,0.0007
3935.00,0.0007
3934.00,0.0007
3933.00,0.0007
3932.00,0.0006
3931.00,0.0007
3930.00,0.0007
3929.00,0.0007
3928.00,0.0007
3927.00,0.0007
3926.00,0.0007
3925.00,0.0007
3924.00,0.0007
3923.00,0.0007
3922.00,0.0007
3921.00,0.0007
3920.00,0.0007
3919.00,0.0007
3918.00,0.0007
3917.00,0.0007
3916.00,0.0007
3915.00,0.0007
3914.00,0.0007
3913.00,0.0007
3912.00,0.0007
3911.00,0.0007
3910.00,0.0007
3909.00,0.0007
3908.00,0.0007
3907.00,0.0007
3906.00,0.0007
3905.00,0.0006
3904.00,0.0006
3903.00,0.0006
3902.00,0.0006
3901.00,0.0006
3900.00,0.0006
3899.00,0.0006
3898.00,0.0006
3897.00,0.0006
3896.00,0.0007
3895.00,0.0007
3894.00,0.0008
3893.00,0.0008
3892.00,0.0008
3891.00,0.0007
3890.00,0.0007
3889.00,0.0007
3888.00,0.0007
3887.00,0.0007
3886.00,0.0007
3885.00,0.0007
3884.00,0.0007
3883.00,0.0007
3882.00,0.0007
3881.00,0.0006
3880.00,0.0006
3879.00,0.0006
3878.00,0.0006
3877.00,0.0006
3876.00,0.0006
3875.00,0.0006
3874.00,0.0006
3873.00,0.0007
3872.00,0.0007
3871.00,0.0007
3870.00,0.0007
3869.00,0.0006
3868.00,0.0006
3867.00,0.0006
3866.00,0.0006
3865.00,0.0005
3864.00,0.0005
3863.00,0.0006
3862.00,0.0006
3861.00,0.0007
3860.00,0.0007
3859.00,0.0007
3858.00,0.0006
3857.00,0.0006
3856.00,0.0006
3855.00,0.0005
3854.00,0.0005
3853.00,0.0004
3852.00,0.0004
3851.00,0.0004
3850.00,0.0004
3849.00,0.0004
3848.00,0.0005
3847.00,0.0005
3846.00,0.0006
3845.00,0.0006
3844.00,0.0006
3843.00,0.0006
3842.00,0.0007
3841.00,0.0007
3840.00,0.0007
3839.00,0.0007
3838.00,0.0006
3837.00,0.0006
3836.00,0.0006
3835.00,0.0006
3834.00,0.0006
3833.00,0.0006
3832.00,0.0006
3831.00,0.0006
3830.00,0.0007
3829.00,0.0007
3828.00,0.0007
3827.00,0.0007
3826.00,0.0007
3825.00,0.0007
3824.00,0.0007
3823.00,0.0006
3822.00,0.0005
3821.00,0.0005
3820.00,0.0005
3819.00,0.0006
3818.00,0.0006
3817.00,0.0006
3816.00,0.0006
3815.00,0.0006
3814.00,0.0006
3813.00,0.0006
3812.00,0.0006
3811.00,0.0007
3810.00,0.0007
3809.00,0.0007
3808.00,0.0006
3807.00,0.0005
3806.00,0.0005
3805.00,0.0005
3804.00,0.0005
3803.00,0.0005
3802.00,0.0006
3801.00,0.0006
3800.00,0.0006
3799.00,0.0006
3798.00,0.0006
3797.00,0.0006
3796.00,0.0006
3795.00,0.0006
3794.00,0.0006
3793.00,0.0006
3792.00,0.0006
3791.00,0.0007
3790.00,0.0007
3789.00,0.0008
3788.00,0.0008
3787.00,0.0007
3786.00,0.0007
3785.00,0.0007
3784.00,0.0007
3783.00,0.0007
3782.00,0.0007
3781.00,0.0007
3780.00,0.0007
3779.00,0.0007
3778.00,0.0007
3777.00,0.0007
3776.00,0.0007
3775.00,0.0007
3774.00,0.0008
3773.00,0.0008
3772.00,0.0007
3771.00,0.0007
3770.00,0.0007
3769.00,0.0007
3768.00,0.0007
3767.00,0.0007
3766.00,0.0006
3765.00,0.0006
3764.00,0.0006
3763.00,0.0007
3762.00,0.0007
3761.00,0.0007
3760.00,0.0007
3759.00,0.0007
3758.00,0.0006
3757.00,0.0006
3756.00,0.0006
3755.00,0.0006
3754.00,0.0006
3753.00,0.0006
3752.00,0.0006
3751.00,0.0006
3750.00,0.0006
3749.00,0.0005
3748.00,0.0005
3747.00,0.0004
3746.00,0.0003
3745.00,0.0002
3744.00,0.0003
3743.00,0.0003
3742.00,0.0004
3741.00,0.0005
3740.00,0.0005
3739.00,0.0006
3738.00,0.0006
3737.00,0.0006
3736.00,0.0005
3735.00,0.0005
3734.00,0.0005
3733.00,0.0005
3732.00,0.0005
3731.00,0.0005
3730.00,0.0005
3729.00,0.0005
3728.00,0.0005
3727.00,0.0005
3726.00,0.0005
3725.00,0.0005
3724.00,0.0005
3723.00,0.0005
3722.00,0.0005
3721.00,0.0005
3720.00,0.0005
3719.00,0.0005
3718.00,0.0005
3717.00,0.0005
3716.00,0.0006
3715.00,0.0006
3714.00,0.0006
3713.00,0.0007
3712.00,0.0007
3711.00,0.0007
3710.00,0.0006
3709.00,0.0006
3708.00,0.0006
3707.00,0.0006
3706.00,0.0006
3705.00,0.0006
3704.00,0.0005
3703.00,0.0005
3702.00,0.0005
3701.00,0.0005
3700.00,0.0005
3699.00,0.0005
3698.00,0.0005
3697.00,0.0005
3696.00,0.0005
3695.00,0.0005
3694.00,0.0005
3693.00,0.0005
3692.00,0.0005
3691.00,0.0005
3690.00,0.0005
3689.00,0.0005
3688.00,0.0005
3687.00,0.0005
3686.00,0.0006
3685.00,0.0006
3684.00,0.0006
3683.00,0.0006
3682.00,0.0007
3681.00,0.0007
3680.00,0.0007
3679.00,0.0007
3678.00,0.0008
3677.00,0.0008
3676.00,0.0008
3675.00,0.0008
3674.00,0.0008
3673.00,0.0008
3672.00,0.0008
3671.00,0.0008
3670.00,0.0008
3669.00,0.0008
3668.00,0.0008
3667.00,0.0008
3666.00,0.0008
3665.00,0.0008
3664.00,0.0009
3663.00,0.0009
3662.00,0.0009
3661.00,0.0009
3660.00,0.0009
3659.00,0.0009
3658.00,0.0009
3657.00,0.0009
3656.00,0.0009
3655.00,0.0009
3654.00,0.0009
3653.00,0.0009
3652.00,0.0009
3651.00,0.0010
3650.00,0.0010
3649.00,0.0011
3648.00,0.0011
3647.00,0.0010
3646.00,0.0010
3645.00,0.0009
3644.00,0.0009
3643.00,0.0009
3642.00,0.0009
3641.00,0.0009
3640.00,0.0009
3639.00,0.0008
3638.00,0.0009
3637.00,0.0009
3636.00,0.0009
3635.00,0.0009
3634.00,0.0009
3633.00,0.0009
3632.00,0.0009
3631.00,0.0009
3630.00,0.0008
3629.00,0.0008
3628.00,0.0008
3627.00,0.0008
3626.00,0.0008
3625.00,0.0008
3624.00,0.0008
3623.00,0.0009
3622.00,0.0009
3621.00,0.0009
3620.00,0.0009
3619.00,0.0009
3618.00,0.0009
3617.00,0.0009
3616.00,0.0010
3615.00,0.0010
3614.00,0.0010
3613.00,0.0010
3612.00,0.0010
3611.00,0.0010
3610.00,0.0010
3609.00,0.0010
3608.00,0.0010
3607.00,0.0011
3606.00,0.0011
3605.00,0.0011
3604.00,0.0011
3603.00,0.0011
3602.00,0.0011
3601.00,0.0011
3600.00,0.0012
3599.00,0.0012
3598.00,0.0013
3597.00,0.0013
3596.00,0.0013
3595.00,0.0013
3594.00,0.0014
3593.00,0.0014
3592.00,0.0014
3591.00,0.0014
3590.00,0.0014
3589.00,0.0014
3588.00,0.0014
3587.00,0.0014
3586.00,0.0014
3585.00,0.0014
3584.00,0.0014
3583.00,0.0015
3582.00,0.0015
3581.00,0.0015
3580.00,0.0016
3579.00,0.0016
3578.00,0.0016
3577.00,0.0017
3576.00,0.0017
3575.00,0.0018
3574.00,0.0018
3573.00,0.0018
3572.00,0.0018
3571.00,0.0018
3570.00,0.0018
3569.00,0.0019
3568.00,0.0019
3567.00,0.0019
3566.00,0.0020
3565.00,0.0020
3564.00,0.0020
3563.00,0.0020
3562.00,0.0020
3561.00,0.0020
3560.00,0.0020
3559.00,0.0020
3558.00,0.0020
3557.00,0.0020
3556.00,0.0020
3555.00,0.0020
3554.00,0.0020
3553.00,0.0020
3552.00,0.0020
3551.00,0.0021
3550.00,0.0021
3549.00,0.0022
3548.00,0.0022
3547.00,0.0023
3546.00,0.0023
3545.00,0.0023
3544.00,0.0023
3543.00,0.0023
3542.00,0.0023
3541.00,0.0024
3540.00,0.0024
3539.00,0.0024
3538.00,0.0024
3537.00,0.0024
3536.00,0.0024
3535.00,0.0024
3534.00,0.0024
3533.00,0.0024
3532.00,0.0025
3531.00,0.0025
3530.00,0.0025
3529.00,0.0026
3528.00,0.0026
3527.00,0.0027
3526.00,0.0027
3525.00,0.0027
3524.00,0.0027
3523.00,0.0027
3522.00,0.0026
3521.00,0.0026
3520.00,0.0026
3519.00,0.0026
3518.00,0.0027
3517.00,0.0027
3516.00,0.0027
3515.00,0.0027
3514.00,0.0027
3513.00,0.0027
3512.00,0.0027
3511.00,0.0027
3510.00,0.0028
3509.00,0.0028
3508.00,0.0029
3507.00,0.0029
3506.00,0.0029
3505.00,0.0029
3504.00,0.0029
3503.00,0.0030
3502.00,0.0030
3501.00,0.0030
3500.00,0.0030
3499.00,0.0030
3498.00,0.0030
3497.00,0.0030
3496.00,0.0031
3495.00,0.0031
3494.00,0.0031
3493.00,0.0031
3492.00,0.0031
3491.00,0.0031
3490.00,0.0032
3489.00,0.0032
3488.00,0.0032
3487.00,0.0033
3486.00,0.0033
3485.00,0.0033
3484.00,0.0033
3483.00,0.0034
3482.00,0.0034
3481.00,0.0034
3480.00,0.0034
3479.00,0.0034
3478.00,0.0034
3477.00,0.0034
3476.00,0.0034
3475.00,0.0034
3474.00,0.0034
3473.00,0.0035
3472.00,0.0035
3471.00,0.0036
3470.00,0.0036
3469.00,0.0036
3468.00,0.0037
3467.00,0.0037
3466.00,0.0037
3465.00,0.0037
3464.00,0.0037
3463.00,0.0037
3462.00,0.0038
3461.00,0.0038
3460.00,0.0038
3459.00,0.0038
3458.00,0.0038
3457.00,0.0038
3456.00,0.0038
3455.00,0.0038
3454.00,0.0038
3453.00,0.0038
3452.00,0.0038
3451.00,0.0038
3450.00,0.0039
3449.00,0.0039
3448.00,0.0039
3447.00,0.0039
3446.00,0.0039
3445.00,0.0040
3444.00,0.0040
3443.00,0.0040
3442.00,0.0040
3441.00,0.0040
3440.00,0.0040
3439.00,0.0040
3438.00,0.0040
3437.00,0.0040
3436.00,0.0041
3435.00,0.0041
3434.00,0.0042
3433.00,0.0042
3432.00,0.0042
3431.00,0.0043
3430.00,0.0043
3429.00,0.0043
3428.00,0.0043
3427.00,0.0043
3426.00,0.0043
3425.00,0.0043
3424.00,0.0043
3423.00,0.0042
3422.00,0.0042
3421.00,0.0042
3420.00,0.0043
3419.00,0.0044
3418.00,0.0044
3417.00,0.0045
3416.00,0.0045
3415.00,0.0044
3414.00,0.0044
3413.00,0.0044
3412.00,0.0044
3411.00,0.0044
3410.00,0.0045
3409.00,0.0045
3408.00,0.0045
3407.00,0.0045
3406.00,0.0045
3405.00,0.0045
3404.00,0.0045
3403.00,0.0045
3402.00,0.0045
3401.00,0.0046
3400.00,0.0046
3399.00,0.0046
3398.00,0.0047
3397.00,0.0047
3396.00,0.0047
3395.00,0.0048
3394.00,0.0048
3393.00,0.0047
3392.00,0.0047
3391.00,0.0047
3390.00,0.0047
3389.00,0.0047
3388.00,0.0046
3387.00,0.0046
3386.00,0.0046
3385.00,0.0046
3384.00,0.0047
3383.00,0.0047
3382.00,0.0047
3381.00,0.0047
3380.00,0.0047
3379.00,0.0047
3378.00,0.0047
3377.00,0.0048
3376.00,0.0048
3375.00,0.0048
3374.00,0.0048
3373.00,0.0049
3372.00,0.0049
3371.00,0.0048
3370.00,0.0048
3369.00,0.0048
3368.00,0.0048
3367.00,0.0048
3366.00,0.0048
3365.00,0.0048
3364.00,0.0048
3363.00,0.0047
3362.00,0.0047
3361.00,0.0047
3360.00,0.0048
3359.00,0.0048
3358.00,0.0048
3357.00,0.0048
3356.00,0.0048
3355.00,0.0048
3354.00,0.0048
3353.00,0.0049
3352.00,0.0049
3351.00,0.0049
3350.00,0.0049
3349.00,0.0049
3348.00,0.0049
3347.00,0.0049
3346.00,0.0049
3345.00,0.0049
3344.00,0.0049
3343.00,0.0049
3342.00,0.0049
3341.00,0.0048
3340.00,0.0048
3339.00,0.0049
3338.00,0.0049
3337.00,0.0049
3336.00,0.0049
3335.00,0.0049
3334.00,0.0048
3333.00,0.0048
3332.00,0.0048
3331.00,0.0047
3330.00,0.0048
3329.00,0.0048
3328.00,0.0049
3327.00,0.0049
3326.00,0.0048
3325.00,0.0048
3324.00,0.0047
3323.00,0.0047
3322.00,0.0047
3321.00,0.0047
3320.00,0.0047
3319.00,0.0047
3318.00,0.0047
3317.00,0.0047
3316.00,0.0047
3315.00,0.0047
3314.00,0.0047
3313.00,0.0048
3312.00,0.0048
3311.00,0.0048
3310.00,0.0048
3309.00,0.0048
3308.00,0.0048
3307.00,0.0048
3306.00,0.0047
3305.00,0.0047
3304.00,0.0047
3303.00,0.0047
3302.00,0.0047
3301.00,0.0046
3300.00,0.0046
3299.00,0.0046
3298.00,0.0046
3297.00,0.0045
3296.00,0.0045
3295.00,0.0046
3294.00,0.0046
3293.00,0.0046
3292.00,0.0046
3291.00,0.0046
3290.00,0.0046
3289.00,0.0046
3288.00,0.0046
3287.00,0.0046
3286.00,0.0046
3285.00,0.0045
3284.00,0.0045
3283.00,0.0045
3282.00,0.0044
3281.00,0.0044
3280.00,0.0044
3279.00,0.0044
3278.00,0.0044
3277.00,0.0044
3276.00,0.0044
3275.00,0.0043
3274.00,0.0043
3273.00,0.0044
3272.00,0.0044
3271.00,0.0044
3270.00,0.0044
3269.00,0.0043
3268.00,0.0043
3267.00,0.0043
3266.00,0.0043
3265.00,0.0043
3264.00,0.0043
3263.00,0.0043
3262.00,0.0043
3261.00,0.0043
3260.00,0.0043
3259.00,0.0042
3258.00,0.0042
3257.00,0.0042
3256.00,0.0042
3255.00,0.0042
3254.00,0.0041
3253.00,0.0041
3252.00,0.0042
3251.00,0.0042
3250.00,0.0042
3249.00,0.0041
3248.00,0.0041
3247.00,0.0040
3246.00,0.0040
3245.00,0.0039
3244.00,0.0039
3243.00,0.0039
3242.00,0.0040
3241.00,0.0040
3240.00,0.0040
3239.00,0.0040
3238.00,0.0040
3237.00,0.0040
3236.00,0.0040
3235.00,0.0040
3234.00,0.0040
3233.00,0.0041
3232.00,0.0041
3231.00,0.0041
3230.00,0.0041
3229.00,0.0041
3228.00,0.0041
3227.00,0.0041
3226.00,0.0041
3225.00,0.0041
3224.00,0.0042
3223.00,0.0042
3222.00,0.0043
3221.00,0.0043
3220.00,0.0043
3219.00,0.0043
3218.00,0.0043
3217.00,0.0044
3216.00,0.0044
3215.00,0.0044
3214.00,0.0044
3213.00,0.0044
3212.00,0.0044
3211.00,0.0044
3210.00,0.0044
3209.00,0.0045
3208.00,0.0045
3207.00,0.0045
3206.00,0.0046
3205.00,0.0046
3204.00,0.0046
3203.00,0.0045
3202.00,0.0045
3201.00,0.0045
3200.00,0.0045
3199.00,0.0045
3198.00,0.0045
3197.00,0.0045
3196.00,0.0045
3195.00,0.0045
3194.00,0.0045
3193.00,0.0045
3192.00,0.0045
3191.00,0.0045
3190.00,0.0045
3189.00,0.0045
3188.00,0.0044
3187.00,0.0044
3186.00,0.0043
3185.00,0.0043
3184.00,0.0043
3183.00,0.0043
3182.00,0.0042
3181.00,0.0042
3180.00,0.0042
3179.00,0.0042
3178.00,0.0042
3177.00,0.0042
3176.00,0.0041
3175.00,0.0041
3174.00,0.0041
3173.00,0.0040
3172.00,0.0040
3171.00,0.0040
3170.00,0.0041
3169.00,0.0041
3168.00,0.0041
3167.00,0.0040
3166.00,0.0040
3165.00,0.0040
3164.00,0.0040
3163.00,0.0040
3162.00,0.0040
3161.00,0.0040
3160.00,0.0040
3159.00,0.0039
3158.00,0.0039
3157.00,0.0039
3156.00,0.0039
3155.00,0.0038
3154.00,0.0038
3153.00,0.0038
3152.00,0.0038
3151.00,0.0038
3150.00,0.0038
3149.00,0.0038
3148.00,0.0039
3147.00,0.0038
3146.00,0.0038
3145.00,0.0038
3144.00,0.0038
3143.00,0.0038
3142.00,0.0037
3141.00,0.0037
3140.00,0.0037
3139.00,0.0037
3138.00,0.0036
3137.00,0.0036
3136.00,0.0036
3135.00,0.0036
3134.00,0.0036
3133.00,0.0036
3132.00,0.0036
3131.00,0.0036
3130.00,0.0036
3129.00,0.0035
3128.00,0.0035
3127.00,0.0035
3126.00,0.0034
3125.00,0.0034
3124.00,0.0034
3123.00,0.0033
3122.00,0.0033
3121.00,0.0032
3120.00,0.0032
3119.00,0.0032
3118.00,0.0032
3117.00,0.0032
3116.00,0.0032
3115.00,0.0032
3114.00,0.0032
3113.00,0.0032
3112.00,0.0032
3111.00,0.0032
3110.00,0.0032
3109.00,0.0032
3108.00,0.0032
3107.00,0.0032
3106.00,0.0031
3105.00,0.0031
3104.00,0.0031
3103.00,0.0031
3102.00,0.0031
3101.00,0.0031
3100.00,0.0031
3099.00,0.0032
3098.00,0.0032
3097.00,0.0032
3096.00,0.0032
3095.00,0.0031
3094.00,0.0031
3093.00,0.0031
3092.00,0.0031
3091.00,0.0031
3090.00,0.0031
3089.00,0.0031
3088.00,0.0031
3087.00,0.0031
3086.00,0.0031
3085.00,0.0031
3084.00,0.0031
3083.00,0.0031
3082.00,0.0031
3081.00,0.0030
3080.00,0.0030
3079.00,0.0030
3078.00,0.0030
3077.00,0.0030
3076.00,0.0031
3075.00,0.0031
3074.00,0.0031
3073.00,0.0031
3072.00,0.0031
3071.00,0.0031
3070.00,0.0031
3069.00,0.0031
3068.00,0.0032
3067.00,0.0032
3066.00,0.0032
3065.00,0.0032
3064.00,0.0032
3063.00,0.0032
3062.00,0.0032
3061.00,0.0032
3060.00,0.0033
3059.00,0.0033
3058.00,0.0034
3057.00,0.0034
3056.00,0.0034
3055.00,0.0034
3054.00,0.0035
3053.00,0.0035
3052.00,0.0035
3051.00,0.0035
3050.00,0.0035
3049.00,0.0035
3048.00,0.0035
3047.00,0.0035
3046.00,0.0035
3045.00,0.0035
3044.00,0.0036
3043.00,0.0036
3042.00,0.0036
3041.00,0.0036
3040.00,0.0036
3039.00,0.0036
3038.00,0.0037
3037.00,0.0037
3036.00,0.0037
3035.00,0.0038
3034.00,0.0038
3033.00,0.0038
3032.00,0.0039
3031.00,0.0039
3030.00,0.0040
3029.00,0.0041
3028.00,0.0042
3027.00,0.0042
3026.00,0.0043
3025.00,0.0043
3024.00,0.0044
3023.00,0.0045
3022.00,0.0046
3021.00,0.0047
3020.00,0.0048
3019.00,0.0050
3018.00,0.0051
3017.00,0.0053
3016.00,0.0054
3015.00,0.0056
3014.00,0.0057
3013.00,0.0059
3012.00,0.0062
3011.00,0.0064
3010.00,0.0066
3009.00,0.0069
3008.00,0.0071
3007.00,0.0074
3006.00,0.0077
3005.00,0.0080
3004.00,0.0083
3003.00,0.0086
3002.00,0.0089
3001.00,0.0092
3000.00,0.0095
2999.00,0.0098
2998.00,0.0102
2997.00,0.0106
2996.00,0.0110
2995.00,0.0115
2994.00,0.0120
2993.00,0.0125
2992.00,0.0131
2991.00,0.0137
2990.00,0.0144
2989.00,0.0152
2988.00,0.0161
2987.00,0.0172
2986.00,0.0184
2985.00,0.0198
2984.00,0.0214
2983.00,0.0231
2982.00,0.0249
2981.00,0.0268
2980.00,0.0287
2979.00,0.0309
2978.00,0.0334
2977.00,0.0362
2976.00,0.0395
2975.00,0.0434
2974.00,0.0478
2973.00,0.0529
2972.00,0.0586
2971.00,0.0651
2970.00,0.0722
2969.00,0.0801
2968.00,0.0888
2967.00,0.0983
2966.00,0.1085
2965.00,0.1193
2964.00,0.1303
2963.00,0.1410
2962.00,0.1511
2961.00,0.1598
2960.00,0.1670
2959.00,0.1724
2958.00,0.1763
2957.00,0.1792
2956.00,0.1817
2955.00,0.1843
2954.00,0.1874
2953.00,0.1908
2952.00,0.1938
2951.00,0.1956
2950.00,0.1953
2949.00,0.1921
2948.00,0.1856
2947.00,0.1762
2946.00,0.1645
2945.00,0.1519
2944.00,0.1395
2943.00,0.1286
2942.00,0.1197
2941.00,0.1133
2940.00,0.1093
2939.00,0.1076
2938.00,0.1079
2937.00,0.1100
2936.00,0.1137
2935.00,0.1188
2934.00,0.1252
2933.00,0.1328
2932.00,0.1413
2931.00,0.1507
2930.00,0.1606
2929.00,0.1707
2928.00,0.1809
2927.00,0.1908
2926.00,0.2002
2925.00,0.2093
2924.00,0.2180
2923.00,0.2265
2922.00,0.2347
2921.00,0.2426
2920.00,0.2496
2919.00,0.2549
2918.00,0.2578
2917.00,0.2576
2916.00,0.2541
2915.00,0.2477
2914.00,0.2392
2913.00,0.2298
2912.00,0.2205
2911.00,0.2119
2910.00,0.2043
2909.00,0.1975
2908.00,0.1913
2907.00,0.1854
2906.00,0.1793
2905.00,0.1731
2904.00,0.1666
2903.00,0.1598
2902.00,0.1530
2901.00,0.1461
2900.00,0.1395
2899.00,0.1331
2898.00,0.1271
2897.00,0.1217
2896.00,0.1169
2895.00,0.1128
2894.00,0.1094
2893.00,0.1067
2892.00,0.1046
2891.00,0.1032
2890.00,0.1022
2889.00,0.1018
2888.00,0.1017
2887.00,0.1021
2886.00,0.1027
2885.00,0.1037
2884.00,0.1051
2883.00,0.1069
2882.00,0.1089
2881.00,0.1112
2880.00,0.1134
2879.00,0.1151
2878.00,0.1162
2877.00,0.1165
2876.00,0.1161
2875.00,0.1154
2874.00,0.1147
2873.00,0.1145
2872.00,0.1150
2871.00,0.1162
2870.00,0.1178
2869.00,0.1196
2868.00,0.1207
2867.00,0.1205
2866.00,0.1184
2865.00,0.1141
2864.00,0.1078
2863.00,0.1001
2862.00,0.0922
2861.00,0.0848
2860.00,0.0784
2859.00,0.0734
2858.00,0.0699
2857.00,0.0675
2856.00,0.0663
2855.00,0.0660
2854.00,0.0665
2853.00,0.0677
2852.00,0.0694
2851.00,0.0714
2850.00,0.0735
2849.00,0.0757
2848.00,0.0780
2847.00,0.0807
2846.00,0.0842
2845.00,0.0887
2844.00,0.0942
2843.00,0.1005
2842.00,0.1073
2841.00,0.1138
2840.00,0.1193
2839.00,0.1227
2838.00,0.1234
2837.00,0.1206
2836.00,0.1146
2835.00,0.1057
2834.00,0.0952
2833.00,0.0842
2832.00,0.0737
2831.00,0.0644
2830.00,0.0565
2829.00,0.0500
2828.00,0.0447
2827.00,0.0404
2826.00,0.0369
2825.00,0.0340
2824.00,0.0316
2823.00,0.0295
2822.00,0.0278
2821.00,0.0262
2820.00,0.0249
2819.00,0.0238
2818.00,0.0228
2817.00,0.0219
2816.00,0.0211
2815.00,0.0204
2814.00,0.0198
2813.00,0.0192
2812.00,0.0187
2811.00,0.0182
2810.00,0.0177
2809.00,0.0172
2808.00,0.0166
2807.00,0.0160
2806.00,0.0154
2805.00,0.0148
2804.00,0.0141
2803.00,0.0135
2802.00,0.0130
2801.00,0.0125
2800.00,0.0122
2799.00,0.0118
2798.00,0.0116
2797.00,0.0113
2796.00,0.0111
2795.00,0.0109
2794.00,0.0106
2793.00,0.0104
2792.00,0.0100
2791.00,0.0097
2790.00,0.0093
2789.00,0.0090
2788.00,0.0086
2787.00,0.0083
2786.00,0.0080
2785.00,0.0078
2784.00,0.0075
2783.00,0.0073
2782.00,0.0071
2781.00,0.0069
2780.00,0.0067
2779.00,0.0065
2778.00,0.0064
2777.00,0.0062
2776.00,0.0061
2775.00,0.0060
2774.00,0.0059
2773.00,0.0059
2772.00,0.0058
2771.00,0.0058
2770.00,0.0057
2769.00,0.0057
2768.00,0.0057
2767.00,0.0056
2766.00,0.0056
2765.00,0.0056
2764.00,0.0055
2763.00,0.0055
2762.00,0.0055
2761.00,0.0054
2760.00,0.0054
2759.00,0.0053
2758.00,0.0053
2757.00,0.0053
2756.00,0.0053
2755.00,0.0053
2754.00,0.0053
2753.00,0.0053
2752.00,0.0052
2751.00,0.0052
2750.00,0.0052
2749.00,0.0052
2748.00,0.0052
2747.00,0.0052
2746.00,0.0053
2745.00,0.0053
2744.00,0.0054
2743.00,0.0055
2742.00,0.0056
2741.00,0.0057
2740.00,0.0058
2739.00,0.0059
2738.00,0.0061
2737.00,0.0062
2736.00,0.0064
2735.00,0.0065
2734.00,0.0067
2733.00,0.0068
2732.00,0.0070
2731.00,0.0071
2730.00,0.0073
2729.00,0.0076
2728.00,0.0078
2727.00,0.0081
2726.00,0.0083
2725.00,0.0085
2724.00,0.0087
2723.00,0.0087
2722.00,0.0086
2721.00,0.0084
2720.00,0.0081
2719.00,0.0078
2718.00,0.0074
2717.00,0.0072
2716.00,0.0069
2715.00,0.0067
2714.00,0.0065
2713.00,0.0063
2712.00,0.0061
2711.00,0.0059
2710.00,0.0058
2709.00,0.0056
2708.00,0.0054
2707.00,0.0053
2706.00,0.0052
2705.00,0.0051
2704.00,0.0050
2703.00,0.0049
2702.00,0.0048
2701.00,0.0048
2700.00,0.0047
2699.00,0.0047
2698.00,0.0046
2697.00,0.0046
2696.00,0.0045
2695.00,0.0045
2694.00,0.0045
2693.00,0.0045
2692.00,0.0045
2691.00,0.0045
2690.00,0.0045
2689.00,0.0045
2688.00,0.0046
2687.00,0.0046
2686.00,0.0046
2685.00,0.0046
2684.00,0.0046
2683.00,0.0046
2682.00,0.0046
2681.00,0.0046
2680.00,0.0046
2679.00,0.0046
2678.00,0.0046
2677.00,0.0046
2676.00,0.0046
2675.00,0.0046
2674.00,0.0046
2673.00,0.0045
2672.00,0.0045
2671.00,0.0045
2670.00,0.0045
2669.00,0.0045
2668.00,0.0045
2667.00,0.0045
2666.00,0.0045
2665.00,0.0046
2664.00,0.0047
2663.00,0.0047
2662.00,0.0048
2661.00,0.0048
2660.00,0.0048
2659.00,0.0048
2658.00,0.0048
2657.00,0.0048
2656.00,0.0047
2655.00,0.0047
2654.00,0.0047
2653.00,0.0046
2652.00,0.0045
2651.00,0.0045
2650.00,0.0044
2649.00,0.0044
2648.00,0.0043
2647.00,0.0043
2646.00,0.0043
2645.00,0.0042
2644.00,0.0042
2643.00,0.0042
2642.00,0.0042
2641.00,0.0041
2640.00,0.0041
2639.00,0.0040
2638.00,0.0040
2637.00,0.0039
2636.00,0.0039
2635.00,0.0039
2634.00,0.0038
2633.00,0.0039
2632.00,0.0039
2631.00,0.0039
2630.00,0.0039
2629.00,0.0040
2628.00,0.0040
2627.00,0.0041
2626.00,0.0041
2625.00,0.0041
2624.00,0.0040
2623.00,0.0040
2622.00,0.0040
2621.00,0.0040
2620.00,0.0040
2619.00,0.0041
2618.00,0.0041
2617.00,0.0041
2616.00,0.0041
2615.00,0.0041
2614.00,0.0040
2613.00,0.0040
2612.00,0.0039
2611.00,0.0038
2610.00,0.0038
2609.00,0.0037
2608.00,0.0036
2607.00,0.0036
2606.00,0.0035
2605.00,0.0035
2604.00,0.0034
2603.00,0.0033
2602.00,0.0033
2601.00,0.0032
2600.00,0.0032
2599.00,0.0031
2598.00,0.0031
2597.00,0.0031
2596.00,0.0032
2595.00,0.0032
2594.00,0.0033
2593.00,0.0033
2592.00,0.0034
2591.00,0.0034
2590.00,0.0034
2589.00,0.0034
2588.00,0.0035
2587.00,0.0036
2586.00,0.0036
2585.00,0.0037
2584.00,0.0038
2583.00,0.0038
2582.00,0.0039
2581.00,0.0039
2580.00,0.0038
2579.00,0.0038
2578.00,0.0037
2577.00,0.0036
2576.00,0.0035
2575.00,0.0034
2574.00,0.0032
2573.00,0.0031
2572.00,0.0030
2571.00,0.0029
2570.00,0.0028
2569.00,0.0027
2568.00,0.0026
2567.00,0.0026
2566.00,0.0025
2565.00,0.0025
2564.00,0.0025
2563.00,0.0025
2562.00,0.0025
2561.00,0.0025
2560.00,0.0025
2559.00,0.0025
2558.00,0.0024
2557.00,0.0024
2556.00,0.0024
2555.00,0.0024
2554.00,0.0024
2553.00,0.0023
2552.00,0.0023
2551.00,0.0022
2550.00,0.0022
2549.00,0.0021
2548.00,0.0021
2547.00,0.0020
2546.00,0.0020
2545.00,0.0019
2544.00,0.0018
2543.00,0.0018
2542.00,0.0017
2541.00,0.0017
2540.00,0.0017
2539.00,0.0018
2538.00,0.0018
2537.00,0.0018
2536.00,0.0017
2535.00,0.0017
2534.00,0.0016
2533.00,0.0016
2532.00,0.0016
2531.00,0.0015
2530.00,0.0015
2529.00,0.0014
2528.00,0.0014
2527.00,0.0014
2526.00,0.0014
2525.00,0.0014
2524.00,0.0015
2523.00,0.0015
2522.00,0.0014
2521.00,0.0014
2520.00,0.0013
2519.00,0.0012
2518.00,0.0011
2517.00,0.0010
2516.00,0.0010
2515.00,0.0010
2514.00,0.0010
2513.00,0.0010
2512.00,0.0011
2511.00,0.0011
2510.00,0.0011
2509.00,0.0011
2508.00,0.0011
2507.00,0.0010
2506.00,0.0011
2505.00,0.0011
2504.00,0.0011
2503.00,0.0011
2502.00,0.0011
2501.00,0.0011
2500.00,0.0011
2499.00,0.0011
2498.00,0.0011
2497.00,0.0011
2496.00,0.0011
2495.00,0.0011
2494.00,0.0012
2493.00,0.0012
2492.00,0.0012
2491.00,0.0011
2490.00,0.0011
2489.00,0.0011
2488.00,0.0011
2487.00,0.0011
2486.00,0.0011
2485.00,0.0011
2484.00,0.0010
2483.00,0.0010
2482.00,0.0010
2481.00,0.0010
2480.00,0.0010
2479.00,0.0010
2478.00,0.0010
2477.00,0.0010
2476.00,0.0010
2475.00,0.0009
2474.00,0.0009
2473.00,0.0008
2472.00,0.0008
2471.00,0.0008
2470.00,0.0008
2469.00,0.0008
2468.00,0.0009
2467.00,0.0009
2466.00,0.0010
2465.00,0.0010
2464.00,0.0010
2463.00,0.0009
2462.00,0.0009
2461.00,0.0010
2460.00,0.0010
2459.00,0.0011
2458.00,0.0011
2457.00,0.0012
2456.00,0.0012
2455.00,0.0012
2454.00,0.0012
2453.00,0.0012
2452.00,0.0012
2451.00,0.0012
2450.00,0.0012
2449.00,0.0012
2448.00,0.0011
2447.00,0.0011
2446.00,0.0011
2445.00,0.0011
2444.00,0.0011
2443.00,0.0011
2442.00,0.0010
2441.00,0.0010
2440.00,0.0011
2439.00,0.0012
2438.00,0.0012
2437.00,0.0013
2436.00,0.0013
2435.00,0.0013
2434.00,0.0013
2433.00,0.0012
2432.00,0.0012
2431.00,0.0011
2430.00,0.0011
2429.00,0.0011
2428.00,0.0012
2427.00,0.0012
2426.00,0.0013
2425.00,0.0013
2424.00,0.0013
2423.00,0.0012
2422.00,0.0012
2421.00,0.0011
2420.00,0.0011
2419.00,0.0010
2418.00,0.0010
2417.00,0.0010
2416.00,0.0010
2415.00,0.0010
2414.00,0.0011
2413.00,0.0011
2412.00,0.0011
2411.00,0.0011
2410.00,0.0011
2409.00,0.0011
2408.00,0.0011
2407.00,0.0011
2406.00,0.0010
2405.00,0.0010
2404.00,0.0009
2403.00,0.0009
2402.00,0.0009
2401.00,0.0010
2400.00,0.0010
2399.00,0.0010
2398.00,0.0010
2397.00,0.0009
2396.00,0.0009
2395.00,0.0009
2394.00,0.0009
2393.00,0.0009
2392.00,0.0009
2391.00,0.0009
2390.00,0.0009
2389.00,0.0009
2388.00,0.0008
2387.00,0.0008
2386.00,0.0007
2385.00,0.0007
2384.00,0.0006
2383.00,0.0006
2382.00,0.0006
2381.00,0.0006
2380.00,0.0006
2379.00,0.0006
2378.00,0.0006
2377.00,0.0006
2376.00,0.0006
2375.00,0.0005
2374.00,0.0005
2373.00,0.0005
2372.00,0.0004
2371.00,0.0004
2370.00,0.0005
2369.00,0.0005
2368.00,0.0005
2367.00,0.0004
2366.00,0.0003
2365.00,0.0003
2364.00,0.0003
2363.00,0.0004
2362.00,0.0005
2361.00,0.0005
2360.00,0.0005
2359.00,0.0005
2358.00,0.0005
2357.00,0.0005
2356.00,0.0005
2355.00,0.0005
2354.00,0.0005
2353.00,0.0006
2352.00,0.0006
2351.00,0.0007
2350.00,0.0007
2349.00,0.0007
2348.00,0.0006
2347.00,0.0007
2346.00,0.0007
2345.00,0.0007
2344.00,0.0007
2343.00,0.0007
2342.00,0.0007
2341.00,0.0008
2340.00,0.0009
2339.00,0.0010
2338.00,0.0010
2337.00,0.0010
2336.00,0.0009
2335.00,0.0009
2334.00,0.0009
2333.00,0.0009
2332.00,0.0009
2331.00,0.0009
2330.00,0.0009
2329.00,0.0008
2328.00,0.0009
2327.00,0.0012
2326.00,0.0016
2325.00,0.0020
2324.00,0.0022
2323.00,0.0021
2322.00,0.0019
2321.00,0.0017
2320.00,0.0016
2319.00,0.0015
2318.00,0.0015
2317.00,0.0015
2316.00,0.0014
2315.00,0.0012
2314.00,0.0011
2313.00,0.0010
2312.00,0.0009
2311.00,0.0009
2310.00,0.0009
2309.00,0.0009
2308.00,0.0009
2307.00,0.0010
2306.00,0.0009
2305.00,0.0009
2304.00,0.0009
2303.00,0.0009
2302.00,0.0009
2301.00,0.0009
2300.00,0.0009
2299.00,0.0010
2298.00,0.0010
2297.00,0.0011
2296.00,0.0012
2295.00,0.0013
2294.00,0.0013
2293.00,0.0014
2292.00,0.0015
2291.00,0.0016
2290.00,0.0017
2289.00,0.0017
2288.00,0.0017
2287.00,0.0017
2286.00,0.0018
2285.00,0.0019
2284.00,0.0019
2283.00,0.0019
2282.00,0.0017
2281.00,0.0016
2280.00,0.0015
2279.00,0.0014
2278.00,0.0014
2277.00,0.0014
2276.00,0.0013
2275.00,0.0013
2274.00,0.0013
2273.00,0.0013
2272.00,0.0014
2271.00,0.0015
2270.00,0.0015
2269.00,0.0015
2268.00,0.0014
2267.00,0.0013
2266.00,0.0012
2265.00,0.0012
2264.00,0.0012
2263.00,0.0013
2262.00,0.0013
2261.00,0.0013
2260.00,0.0013
2259.00,0.0013
2258.00,0.0013
2257.00,0.0013
2256.00,0.0013
2255.00,0.0012
2254.00,0.0012
2253.00,0.0011
2252.00,0.0011
2251.00,0.0011
2250.00,0.0011
2249.00,0.0011
2248.00,0.0010
2247.00,0.0010
2246.00,0.0009
2245.00,0.0009
2244.00,0.0008
2243.00,0.0007
2242.00,0.0007
2241.00,0.0007
2240.00,0.0007
2239.00,0.0008
2238.00,0.0009
2237.00,0.0010
2236.00,0.0010
2235.00,0.0010
2234.00,0.0009
2233.00,0.0009
2232.00,0.0008
2231.00,0.0007
2230.00,0.0006
2229.00,0.0007
2228.00,0.0008
2227.00,0.0007
2226.00,0.0006
2225.00,0.0005
2224.00,0.0004
2223.00,0.0004
2222.00,0.0004
2221.00,0.0006
2220.00,0.0007
2219.00,0.0008
2218.00,0.0009
2217.00,0.0009
2216.00,0.0009
2215.00,0.0008
2214.00,0.0008
2213.00,0.0008
2212.00,0.0009
2211.00,0.0010
2210.00,0.0010
2209.00,0.0010
2208.00,0.0009
2207.00,0.0009
2206.00,0.0009
2205.00,0.0007
2204.00,0.0004
2203.00,0.0001
2202.00,-0.0001
2201.00,-0.0001
2200.00,-0.0000
2199.00,0.0001
2198.00,0.0003
2197.00,0.0006
2196.00,0.0009
2195.00,0.0012
2194.00,0.0013
2193.00,0.0014
2192.00,0.0014
2191.00,0.0013
2190.00,0.0012
2189.00,0.0013
2188.00,0.0014
2187.00,0.0015
2186.00,0.0015
2185.00,0.0013
2184.00,0.0012
2183.00,0.0010
2182.00,0.0008
2181.00,0.0007
2180.00,0.0006
2179.00,0.0006
2178.00,0.0004
2177.00,0.0003
2176.00,0.0003
2175.00,0.0004
2174.00,0.0005
2173.00,0.0007
2172.00,0.0008
2171.00,0.0008
2170.00,0.0006
2169.00,0.0005
2168.00,0.0005
2167.00,0.0005
2166.00,0.0006
2165.00,0.0008
2164.00,0.0011
2163.00,0.0015
2162.00,0.0018
2161.00,0.0017
2160.00,0.0009
2159.00,-0.0005
2158.00,-0.0017
2157.00,-0.0024
2156.00,-0.0026
2155.00,-0.0025
2154.00,-0.0024
2153.00,-0.0022
2152.00,-0.0019
2151.00,-0.0016
2150.00,-0.0013
2149.00,-0.0011
2148.00,-0.0010
2147.00,-0.0011
2146.00,-0.0012
2145.00,-0.0013
2144.00,-0.0013
2143.00,-0.0013
2142.00,-0.0013
2141.00,-0.0012
2140.00,-0.0012
2139.00,-0.0013
2138.00,-0.0013
2137.00,-0.0014
2136.00,-0.0014
2135.00,-0.0015
2134.00,-0.0016
2133.00,-0.0015
2132.00,-0.0014
2131.00,-0.0012
2130.00,-0.0010
2129.00,-0.0007
2128.00,-0.0005
2127.00,-0.0003
2126.00,-0.0002
2125.00,-0.0002
2124.00,-0.0003
2123.00,-0.0004
2122.00,-0.0004
2121.00,-0.0003
2120.00,-0.0003
2119.00,-0.0002
2118.00,-0.0002
2117.00,-0.0001
2116.00,0.0002
2115.00,0.0004
2114.00,0.0005
2113.00,0.0005
2112.00,0.0004
2111.00,0.0002
2110.00,0.0002
2109.00,0.0002
2108.00,0.0003
2107.00,0.0004
2106.00,0.0004
2105.00,0.0004
2104.00,0.0003
2103.00,0.0002
2102.00,0.0002
2101.00,0.0003
2100.00,0.0003
2099.00,0.0003
2098.00,0.0002
2097.00,0.0000
2096.00,-0.0002
2095.00,-0.0004
2094.00,-0.0004
2093.00,-0.0004
2092.00,-0.0003
2091.00,-0.0002
2090.00,-0.0000
2089.00,0.0002
2088.00,0.0003
2087.00,0.0004
2086.00,0.0004
2085.00,0.0004
2084.00,0.0003
2083.00,0.0003
2082.00,0.0004
2081.00,0.0006
2080.00,0.0007
2079.00,0.0007
2078.00,0.0006
2077.00,0.0004
2076.00,0.0003
2075.00,0.0004
2074.00,0.0005
2073.00,0.0005
2072.00,0.0005
2071.00,0.0003
2070.00,0.0001
2069.00,0.0001
2068.00,0.0002
2067.00,0.0003
2066.00,0.0004
2065.00,0.0004
2064.00,0.0005
2063.00,0.0005
2062.00,0.0005
2061.00,0.0004
2060.00,0.0003
2059.00,0.0002
2058.00,0.0001
2057.00,0.0002
2056.00,0.0002
2055.00,0.0003
2054.00,0.0005
2053.00,0.0009
2052.00,0.0012
2051.00,0.0014
2050.00,0.0012
2049.00,0.0009
2048.00,0.0005
2047.00,0.0003
2046.00,0.0001
2045.00,-0.0001
2044.00,-0.0002
2043.00,-0.0002
2042.00,-0.0002
2041.00,-0.0001
2040.00,-0.0001
2039.00,-0.0001
2038.00,-0.0002
2037.00,-0.0003
2036.00,-0.0006
2035.00,-0.0009
2034.00,-0.0011
2033.00,-0.0012
2032.00,-0.0011
2031.00,-0.0010
2030.00,-0.0008
2029.00,-0.0006
2028.00,-0.0004
2027.00,-0.0004
2026.00,-0.0006
2025.00,-0.0007
2024.00,-0.0008
2023.00,-0.0009
2022.00,-0.0011
2021.00,-0.0014
2020.00,-0.0016
2019.00,-0.0017
2018.00,-0.0016
2017.00,-0.0014
2016.00,-0.0011
2015.00,-0.0010
2014.00,-0.0011
2013.00,-0.0011
2012.00,-0.0011
2011.00,-0.0010
2010.00,-0.0010
2009.00,-0.0010
2008.00,-0.0011
2007.00,-0.0012
2006.00,-0.0014
2005.00,-0.0015
2004.00,-0.0015
2003.00,-0.0013
2002.00,-0.0011
2001.00,-0.0010
2000.00,-0.0009
1999.00,-0.0009
1998.00,-0.0011
1997.00,-0.0012
1996.00,-0.0013
1995.00,-0.0013
1994.00,-0.0011
1993.00,-0.0008
1992.00,-0.0006
1991.00,-0.0005
1990.00,-0.0005
1989.00,-0.0005
1988.00,-0.0006
1987.00,-0.0006
1986.00,-0.0006
1985.00,-0.0003
1984.00,0.0003
1983.00,0.0008
1982.00,0.0013
1981.00,0.0015
1980.00,0.0013
1979.00,0.0005
1978.00,-0.0005
1977.00,-0.0013
1976.00,-0.0017
1975.00,-0.0019
1974.00,-0.0020
1973.00,-0.0020
1972.00,-0.0019
1971.00,-0.0017
1970.00,-0.0015
1969.00,-0.0013
1968.00,-0.0011
1967.00,-0.0010
1966.00,-0.0010
1965.00,-0.0011
1964.00,-0.0012
1963.00,-0.0013
1962.00,-0.0015
1961.00,-0.0016
1960.00,-0.0017
1959.00,-0.0017
1958.00,-0.0017
1957.00,-0.0016
1956.00,-0.0015
1955.00,-0.0015
1954.00,-0.0016
1953.00,-0.0016
1952.00,-0.0016
1951.00,-0.0016
1950.00,-0.0016
1949.00,-0.0016
1948.00,-0.0016
1947.00,-0.0017
1946.00,-0.0018
1945.00,-0.0019
1944.00,-0.0018
1943.00,-0.0018
1942.00,-0.0017
1941.00,-0.0015
1940.00,-0.0014
1939.00,-0.0014
1938.00,-0.0013
1937.00,-0.0012
1936.00,-0.0009
1935.00,-0.0007
1934.00,-0.0007
1933.00,-0.0008
1932.00,-0.0009
1931.00,-0.0009
1930.00,-0.0008
1929.00,-0.0007
1928.00,-0.0006
1927.00,-0.0005
1926.00,-0.0005
1925.00,-0.0006
1924.00,-0.0007
1923.00,-0.0008
1922.00,-0.0008
1921.00,-0.0007
1920.00,-0.0007
1919.00,-0.0006
1918.00,-0.0005
1917.00,-0.0004
1916.00,-0.0003
1915.00,-0.0002
1914.00,-0.0001
1913.00,-0.0001
1912.00,-0.0001
1911.00,-0.0001
1910.00,-0.0002
1909.00,-0.0003
1908.00,-0.0003
1907.00,-0.0003
1906.00,-0.0002
1905.00,-0.0001
1904.00,-0.0000
1903.00,-0.0000
1902.00,-0.0000
1901.00,-0.0000
1900.00,0.0000
1899.00,0.0000
1898.00,0.0000
1897.00,0.0000
1896.00,0.0000
1895.00,0.0000
1894.00,0.0001
1893.00,0.0001
1892.00,0.0002
1891.00,0.0002
1890.00,0.0001
1889.00,-0.0000
1888.00,-0.0001
1887.00,-0.0001
1886.00,-0.0000
1885.00,0.0001
1884.00,0.0001
1883.00,0.0001
1882.00,0.0001
1881.00,-0.0000
1880.00,-0.0001
1879.00,-0.0002
1878.00,-0.0002
1877.00,-0.0002
1876.00,-0.0001
1875.00,-0.0000
1874.00,-0.0000
1873.00,0.0000
1872.00,0.0000
1871.00,0.0001
1870.00,0.0001
1869.00,0.0002
1868.00,0.0002
1867.00,0.0001
1866.00,0.0001
1865.00,0.0002
1864.00,0.0002
1863.00,0.0002
1862.00,0.0002
1861.00,0.0001
1860.00,0.0001
1859.00,0.0001
1858.00,0.0001
1857.00,0.0001
1856.00,0.0001
1855.00,0.0002
1854.00,0.0002
1853.00,0.0002
1852.00,0.0002
1851.00,0.0002
1850.00,0.0001
1849.00,0.0002
1848.00,0.0002
1847.00,0.0002
1846.00,0.0002
1845.00,0.0001
1844.00,0.0001
1843.00,0.0001
1842.00,0.0002
1841.00,0.0003
1840.00,0.0003
1839.00,0.0003
1838.00,0.0004
1837.00,0.0004
1836.00,0.0005
1835.00,0.0006
1834.00,0.0005
1833.00,0.0005
1832.00,0.0005
1831.00,0.0004
1830.00,0.0004
1829.00,0.0005
1828.00,0.0005
1827.00,0.0005
1826.00,0.0005
1825.00,0.0004
1824.00,0.0004
1823.00,0.0005
1822.00,0.0005
1821.00,0.0004
1820.00,0.0004
1819.00,0.0003
1818.00,0.0002
1817.00,0.0002
1816.00,0.0002
1815.00,0.0003
1814.00,0.0003
1813.00,0.0004
1812.00,0.0004
1811.00,0.0004
1810.00,0.0004
1809.00,0.0004
1808.00,0.0004
1807.00,0.0004
1806.00,0.0004
1805.00,0.0005
1804.00,0.0005
1803.00,0.0006
1802.00,0.0007
1801.00,0.0007
1800.00,0.0007
1799.00,0.0007
1798.00,0.0007
1797.00,0.0008
1796.00,0.0008
1795.00,0.0008
1794.00,0.0008
1793.00,0.0008
1792.00,0.0009
1791.00,0.0009
1790.00,0.0009
1789.00,0.0009
1788.00,0.0010
1787.00,0.0010
1786.00,0.0010
1785.00,0.0010
1784.00,0.0010
1783.00,0.0010
1782.00,0.0010
1781.00,0.0010
1780.00,0.0010
1779.00,0.0011
1778.00,0.0011
1777.00,0.0011
1776.00,0.0012
1775.00,0.0013
1774.00,0.0013
1773.00,0.0013
1772.00,0.0013
1771.00,0.0014
1770.00,0.0015
1769.00,0.0017
1768.00,0.0018
1767.00,0.0018
1766.00,0.0019
1765.00,0.0019
1764.00,0.0021
1763.00,0.0022
1762.00,0.0024
1761.00,0.0027
1760.00,0.0030
1759.00,0.0033
1758.00,0.0036
1757.00,0.0041
1756.00,0.0046
1755.00,0.0051
1754.00,0.0056
1753.00,0.0061
1752.00,0.0066
1751.00,0.0071
1750.00,0.0074
1749.00,0.0077
1748.00,0.0079
1747.00,0.0080
1746.00,0.0080
1745.00,0.0079
1744.00,0.0078
1743.00,0.0075
1742.00,0.0073
1741.00,0.0070
1740.00,0.0066
1739.00,0.0063
1738.00,0.0061
1737.00,0.0059
1736.00,0.0057
1735.00,0.0053
1734.00,0.0049
1733.00,0.0047
1732.00,0.0045
1731.00,0.0043
1730.00,0.0042
1729.00,0.0040
1728.00,0.0038
1727.00,0.0037
1726.00,0.0036
1725.00,0.0035
1724.00,0.0034
1723.00,0.0033
1722.00,0.0032
1721.00,0.0031
1720.00,0.0031
1719.00,0.0031
1718.00,0.0030
1717.00,0.0030
1716.00,0.0031
1715.00,0.0031
1714.00,0.0031
1713.00,0.0031
1712.00,0.0031
1711.00,0.0031
1710.00,0.0031
1709.00,0.0031
1708.00,0.0030
1707.00,0.0030
1706.00,0.0030
1705.00,0.0031
1704.00,0.0032
1703.00,0.0033
1702.00,0.0034
1701.00,0.0034
1700.00,0.0035
1699.00,0.0035
1698.00,0.0035
1697.00,0.0036
1696.00,0.0036
1695.00,0.0037
1694.00,0.0037
1693.00,0.0038
1692.00,0.0038
1691.00,0.0039
1690.00,0.0039
1689.00,0.0040
1688.00,0.0041
1687.00,0.0042
1686.00,0.0043
1685.00,0.0044
1684.00,0.0045
1683.00,0.0047
1682.00,0.0047
1681.00,0.0048
1680.00,0.0048
1679.00,0.0049
1678.00,0.0049
1677.00,0.0050
1676.00,0.0051
1675.00,0.0051
1674.00,0.0052
1673.00,0.0053
1672.00,0.0055
1671.00,0.0055
1670.00,0.0055
1669.00,0.0056
1668.00,0.0056
1667.00,0.0057
1666.00,0.0057
1665.00,0.0057
1664.00,0.0058
1663.00,0.0058
1662.00,0.0059
1661.00,0.0060
1660.00,0.0061
1659.00,0.0061
1658.00,0.0062
1657.00,0.0063
1656.00,0.0064
1655.00,0.0066
1654.00,0.0067
1653.00,0.0068
1652.00,0.0069
1651.00,0.0069
1650.00,0.0069
1649.00,0.0070
1648.00,0.0071
1647.00,0.0072
1646.00,0.0073
1645.00,0.0073
1644.00,0.0073
1643.00,0.0072
1642.00,0.0072
1641.00,0.0072
1640.00,0.0072
1639.00,0.0072
1638.00,0.0073
1637.00,0.0073
1636.00,0.0074
1635.00,0.0074
1634.00,0.0074
1633.00,0.0074
1632.00,0.0073
1631.00,0.0073
1630.00,0.0072
1629.00,0.0072
1628.00,0.0072
1627.00,0.0072
1626.00,0.0072
1625.00,0.0072
1624.00,0.0071
1623.00,0.0071
1622.00,0.0070
1621.00,0.0070
1620.00,0.0070
1619.00,0.0070
1618.00,0.0069
1617.00,0.0069
1616.00,0.0068
1615.00,0.0068
1614.00,0.0067
1613.00,0.0067
1612.00,0.0067
1611.00,0.0067
1610.00,0.0067
1609.00,0.0067
1608.00,0.0067
1607.00,0.0066
1606.00,0.0066
1605.00,0.0066
1604.00,0.0067
1603.00,0.0067
1602.00,0.0068
1601.00,0.0068
1600.00,0.0069
1599.00,0.0069
1598.00,0.0069
1597.00,0.0070
1596.00,0.0070
1595.00,0.0071
1594.00,0.0072
1593.00,0.0074
1592.00,0.0076
1591.00,0.0079
1590.00,0.0082
1589.00,0.0085
1588.00,0.0089
1587.00,0.0093
1586.00,0.0099
1585.00,0.0105
1584.00,0.0113
1583.00,0.0121
1582.00,0.0130
1581.00,0.0138
1580.00,0.0146
1579.00,0.0152
1578.00,0.0154
1577.00,0.0154
1576.00,0.0151
1575.00,0.0145
1574.00,0.0140
1573.00,0.0135
1572.00,0.0129
1571.00,0.0123
1570.00,0.0115
1569.00,0.0107
1568.00,0.0102
1567.00,0.0099
1566.00,0.0096
1565.00,0.0093
1564.00,0.0091
1563.00,0.0089
1562.00,0.0089
1561.00,0.0089
1560.00,0.0089
1559.00,0.0089
1558.00,0.0089
1557.00,0.0090
1556.00,0.0091
1555.00,0.0092
1554.00,0.0094
1553.00,0.0097
1552.00,0.0101
1551.00,0.0106
1550.00,0.0112
1549.00,0.0118
1548.00,0.0124
1547.00,0.0131
1546.00,0.0140
1545.00,0.0151
1544.00,0.0161
1543.00,0.0171
1542.00,0.0177
1541.00,0.0180
1540.00,0.0175
1539.00,0.0165
1538.00,0.0155
1537.00,0.0147
1536.00,0.0140
1535.00,0.0131
1534.00,0.0120
1533.00,0.0110
1532.00,0.0103
1531.00,0.0098
1530.00,0.0094
1529.00,0.0091
1528.00,0.0089
1527.00,0.0086
1526.00,0.0084
1525.00,0.0082
1524.00,0.0082
1523.00,0.0081
1522.00,0.0080
1521.00,0.0079
1520.00,0.0078
1519.00,0.0078
1518.00,0.0078
1517.00,0.0078
1516.00,0.0078
1515.00,0.0078
1514.00,0.0077
1513.00,0.0078
1512.00,0.0078
1511.00,0.0078
1510.00,0.0079
1509.00,0.0080
1508.00,0.0083
1507.00,0.0084
1506.00,0.0084
1505.00,0.0084
1504.00,0.0085
1503.00,0.0086
1502.00,0.0087
1501.00,0.0089
1500.00,0.0092
1499.00,0.0095
1498.00,0.0098
1497.00,0.0102
1496.00,0.0106
1495.00,0.0108
1494.00,0.0110
1493.00,0.0113
1492.00,0.0117
1491.00,0.0122
1490.00,0.0127
1489.00,0.0134
1488.00,0.0141
1487.00,0.0147
1486.00,0.0153
1485.00,0.0162
1484.00,0.0172
1483.00,0.0183
1482.00,0.0197
1481.00,0.0213
1480.00,0.0231
1479.00,0.0247
1478.00,0.0265
1477.00,0.0287
1476.00,0.0312
1475.00,0.0340
1474.00,0.0376
1473.00,0.0427
1472.00,0.0488
1471.00,0.0546
1470.00,0.0602
1469.00,0.0661
1468.00,0.0725
1467.00,0.0797
1466.00,0.0880
1465.00,0.0970
1464.00,0.1050
1463.00,0.1107
1462.00,0.1145
1461.00,0.1172
1460.00,0.1194
1459.00,0.1211
1458.00,0.1229
1457.00,0.1248
1456.00,0.1259
1455.00,0.1261
1454.00,0.1259
1453.00,0.1251
1452.00,0.1233
1451.00,0.1201
1450.00,0.1151
1449.00,0.1078
1448.00,0.0982
1447.00,0.0879
1446.00,0.0786
1445.00,0.0706
1444.00,0.0637
1443.00,0.0581
1442.00,0.0539
1441.00,0.0511
1440.00,0.0495
1439.00,0.0487
1438.00,0.0487
1437.00,0.0485
1436.00,0.0473
1435.00,0.0447
1434.00,0.0409
1433.00,0.0365
1432.00,0.0318
1431.00,0.0277
1430.00,0.0246
1429.00,0.0223
1428.00,0.0208
1427.00,0.0199
1426.00,0.0193
1425.00,0.0189
1424.00,0.0185
1423.00,0.0183
1422.00,0.0182
1421.00,0.0180
1420.00,0.0177
1419.00,0.0173
1418.00,0.0170
1417.00,0.0166
1416.00,0.0162
1415.00,0.0159
1414.00,0.0157
1413.00,0.0155
1412.00,0.0152
1411.00,0.0150
1410.00,0.0149
1409.00,0.0147
1408.00,0.0145
1407.00,0.0145
1406.00,0.0145
1405.00,0.0144
1404.00,0.0143
1403.00,0.0143
1402.00,0.0144
1401.00,0.0144
1400.00,0.0145
1399.00,0.0146
1398.00,0.0149
1397.00,0.0151
1396.00,0.0154
1395.00,0.0158
1394.00,0.0164
1393.00,0.0169
1392.00,0.0175
1391.00,0.0184
1390.00,0.0196
1389.00,0.0213
1388.00,0.0238
1387.00,0.0277
1386.00,0.0328
1385.00,0.0391
1384.00,0.0474
1383.00,0.0583
1382.00,0.0726
1381.00,0.0904
1380.00,0.1120
1379.00,0.1364
1378.00,0.1598
1377.00,0.1773
1376.00,0.1836
1375.00,0.1756
1374.00,0.1552
1373.00,0.1298
1372.00,0.1061
1371.00,0.0862
1370.00,0.0700
1369.00,0.0576
1368.00,0.0488
1367.00,0.0434
1366.00,0.0405
1365.00,0.0393
1364.00,0.0394
1363.00,0.0407
1362.00,0.0427
1361.00,0.0449
1360.00,0.0464
1359.00,0.0468
1358.00,0.0457
1357.00,0.0431
1356.00,0.0395
1355.00,0.0353
1354.00,0.0313
1353.00,0.0279
1352.00,0.0251
1351.00,0.0229
1350.00,0.0211
1349.00,0.0197
1348.00,0.0185
1347.00,0.0175
1346.00,0.0166
1345.00,0.0160
1344.00,0.0154
1343.00,0.0151
1342.00,0.0148
1341.00,0.0146
1340.00,0.0144
1339.00,0.0142
1338.00,0.0140
1337.00,0.0139
1336.00,0.0139
1335.00,0.0141
1334.00,0.0143
1333.00,0.0147
1332.00,0.0151
1331.00,0.0154
1330.00,0.0155
1329.00,0.0154
1328.00,0.0150
1327.00,0.0145
1326.00,0.0139
1325.00,0.0134
1324.00,0.0128
1323.00,0.0123
1322.00,0.0120
1321.00,0.0117
1320.00,0.0115
1319.00,0.0113
1318.00,0.0111
1317.00,0.0108
1316.00,0.0106
1315.00,0.0104
1314.00,0.0104
1313.00,0.0103
1312.00,0.0104
1311.00,0.0107
1310.00,0.0112
1309.00,0.0120
1308.00,0.0132
1307.00,0.0146
1306.00,0.0160
1305.00,0.0170
1304.00,0.0174
1303.00,0.0171
1302.00,0.0165
1301.00,0.0158
1300.00,0.0153
1299.00,0.0150
1298.00,0.0149
1297.00,0.0148
1296.00,0.0146
1295.00,0.0142
1294.00,0.0138
1293.00,0.0133
1292.00,0.0128
1291.00,0.0123
1290.00,0.0118
1289.00,0.0114
1288.00,0.0111
1287.00,0.0108
1286.00,0.0107
1285.00,0.0105
1284.00,0.0103
1283.00,0.0102
1282.00,0.0100
1281.00,0.0099
1280.00,0.0098
1279.00,0.0098
1278.00,0.0099
1277.00,0.0099
1276.00,0.0099
1275.00,0.0098
1274.00,0.0098
1273.00,0.0098
1272.00,0.0099
1271.00,0.0100
1270.00,0.0101
1269.00,0.0103
1268.00,0.0105
1267.00,0.0107
1266.00,0.0110
1265.00,0.0114
1264.00,0.0118
1263.00,0.0122
1262.00,0.0127
1261.00,0.0133
1260.00,0.0140
1259.00,0.0149
1258.00,0.0158
1257.00,0.0166
1256.00,0.0170
1255.00,0.0168
1254.00,0.0162
1253.00,0.0152
1252.00,0.0142
1251.00,0.0134
1250.00,0.0128
1249.00,0.0124
1248.00,0.0121
1247.00,0.0120
1246.00,0.0119
1245.00,0.0118
1244.00,0.0118
1243.00,0.0117
1242.00,0.0117
1241.00,0.0116
1240.00,0.0115
1239.00,0.0115
1238.00,0.0115
1237.00,0.0115
1236.00,0.0115
1235.00,0.0115
1234.00,0.0114
1233.00,0.0113
1232.00,0.0113
1231.00,0.0113
1230.00,0.0114
1229.00,0.0114
1228.00,0.0115
1227.00,0.0116
1226.00,0.0117
1225.00,0.0119
1224.00,0.0121
1223.00,0.0125
1222.00,0.0128
1221.00,0.0130
1220.00,0.0132
1219.00,0.0132
1218.00,0.0132
1217.00,0.0130
1216.00,0.0128
1215.00,0.0126
1214.00,0.0123
1213.00,0.0120
1212.00,0.0117
1211.00,0.0115
1210.00,0.0113
1209.00,0.0111
1208.00,0.0109
1207.00,0.0107
1206.00,0.0106
1205.00,0.0105
1204.00,0.0105
1203.00,0.0106
1202.00,0.0106
1201.00,0.0107
1200.00,0.0108
1199.00,0.0108
1198.00,0.0109
1197.00,0.0109
1196.00,0.0110
1195.00,0.0112
1194.00,0.0113
1193.00,0.0114
1192.00,0.0114
1191.00,0.0115
1190.00,0.0116
1189.00,0.0117
1188.00,0.0117
1187.00,0.0118
1186.00,0.0118
1185.00,0.0120
1184.00,0.0121
1183.00,0.0124
1182.00,0.0127
1181.00,0.0131
1180.00,0.0136
1179.00,0.0142
1178.00,0.0150
1177.00,0.0161
1176.00,0.0175
1175.00,0.0195
1174.00,0.0220
1173.00,0.0251
1172.00,0.0288
1171.00,0.0328
1170.00,0.0368
1169.00,0.0401
1168.00,0.0423
1167.00,0.0429
1166.00,0.0421
1165.00,0.0402
1164.00,0.0378
1163.00,0.0353
1162.00,0.0329
1161.00,0.0310
1160.00,0.0294
1159.00,0.0281
1158.00,0.0271
1157.00,0.0263
1156.00,0.0257
1155.00,0.0252
1154.00,0.0247
1153.00,0.0242
1152.00,0.0236
1151.00,0.0229
1150.00,0.0221
1149.00,0.0211
1148.00,0.0201
1147.00,0.0190
1146.00,0.0181
1145.00,0.0172
1144.00,0.0164
1143.00,0.0157
1142.00,0.0150
1141.00,0.0143
1140.00,0.0137
1139.00,0.0131
1138.00,0.0127
1137.00,0.0123
1136.00,0.0119
1135.00,0.0116
1134.00,0.0114
1133.00,0.0112
1132.00,0.0112
1131.00,0.0112
1130.00,0.0113
1129.00,0.0115
1128.00,0.0116
1127.00,0.0116
1126.00,0.0116
1125.00,0.0116
1124.00,0.0115
1123.00,0.0115
1122.00,0.0114
1121.00,0.0114
1120.00,0.0115
1119.00,0.0116
1118.00,0.0117
1117.00,0.0119
1116.00,0.0121
1115.00,0.0123
1114.00,0.0123
1113.00,0.0124
1112.00,0.0125
1111.00,0.0127
1110.00,0.0129
1109.00,0.0133
1108.00,0.0137
1107.00,0.0142
1106.00,0.0148
1105.00,0.0155
1104.00,0.0161
1103.00,0.0164
1102.00,0.0164
1101.00,0.0161
1100.00,0.0157
1099.00,0.0153
1098.00,0.0148
1097.00,0.0143
1096.00,0.0138
1095.00,0.0133
1094.00,0.0128
1093.00,0.0125
1092.00,0.0122
1091.00,0.0120
1090.00,0.0118
1089.00,0.0115
1088.00,0.0113
1087.00,0.0112
1086.00,0.0111
1085.00,0.0110
1084.00,0.0110
1083.00,0.0110
1082.00,0.0109
1081.00,0.0107
1080.00,0.0105
1079.00,0.0102
1078.00,0.0100
1077.00,0.0099
1076.00,0.0098
1075.00,0.0098
1074.00,0.0098
1073.00,0.0098
1072.00,0.0098
1071.00,0.0097
1070.00,0.0097
1069.00,0.0098
1068.00,0.0098
1067.00,0.0098
1066.00,0.0098
1065.00,0.0099
1064.00,0.0099
1063.00,0.0099
1062.00,0.0099
1061.00,0.0099
1060.00,0.0099
1059.00,0.0099
1058.00,0.0099
1057.00,0.0099
1056.00,0.0099
1055.00,0.0099
1054.00,0.0100
1053.00,0.0100
1052.00,0.0101
1051.00,0.0102
1050.00,0.0105
1049.00,0.0108
1048.00,0.0112
1047.00,0.0116
1046.00,0.0120
1045.00,0.0122
1044.00,0.0123
1043.00,0.0122
1042.00,0.0119
1041.00,0.0116
1040.00,0.0114
1039.00,0.0113
1038.00,0.0112
1037.00,0.0113
1036.00,0.0113
1035.00,0.0112
1034.00,0.0111
1033.00,0.0109
1032.00,0.0107
1031.00,0.0106
1030.00,0.0104
1029.00,0.0103
1028.00,0.0102
1027.00,0.0102
1026.00,0.0102
1025.00,0.0102
1024.00,0.0102
1023.00,0.0102
1022.00,0.0102
1021.00,0.0102
1020.00,0.0103
1019.00,0.0105
1018.00,0.0107
1017.00,0.0111
1016.00,0.0114
1015.00,0.0119
1014.00,0.0124
1013.00,0.0130
1012.00,0.0136
1011.00,0.0141
1010.00,0.0146
1009.00,0.0149
1008.00,0.0153
1007.00,0.0158
1006.00,0.0166
1005.00,0.0178
1004.00,0.0197
1003.00,0.0223
1002.00,0.0259
1001.00,0.0303
1000.00,0.0350
999.00,0.0391
998.00,0.0414
997.00,0.0410
996.00,0.0381
995.00,0.0334
994.00,0.0283
993.00,0.0237
992.00,0.0201
991.00,0.0175
990.00,0.0156
989.00,0.0143
988.00,0.0135
987.00,0.0130
986.00,0.0128
985.00,0.0130
984.00,0.0135
983.00,0.0144
982.00,0.0157
981.00,0.0175
980.00,0.0200
979.00,0.0233
978.00,0.0275
977.00,0.0324
976.00,0.0380
975.00,0.0436
974.00,0.0480
973.00,0.0503
972.00,0.0494
971.00,0.0455
970.00,0.0397
969.00,0.0333
968.00,0.0276
967.00,0.0232
966.00,0.0199
965.00,0.0175
964.00,0.0157
963.00,0.0144
962.00,0.0133
961.00,0.0124
960.00,0.0118
959.00,0.0115
958.00,0.0112
957.00,0.0110
956.00,0.0106
955.00,0.0102
954.00,0.0099
953.00,0.0098
952.00,0.0097
951.00,0.0097
950.00,0.0097
949.00,0.0097
948.00,0.0097
947.00,0.0096
946.00,0.0097
945.00,0.0098
944.00,0.0101
943.00,0.0103
942.00,0.0106
941.00,0.0107
940.00,0.0107
939.00,0.0104
938.00,0.0099
937.00,0.0093
936.00,0.0088
935.00,0.0084
934.00,0.0081
933.00,0.0078
932.00,0.0075
931.00,0.0072
930.00,0.0070
929.00,0.0068
928.00,0.0068
927.00,0.0069
926.00,0.0069
925.00,0.0068
924.00,0.0068
923.00,0.0068
922.00,0.0069
921.00,0.0071
920.00,0.0072
919.00,0.0072
918.00,0.0073
917.00,0.0074
916.00,0.0074
915.00,0.0075
914.00,0.0076
913.00,0.0076
912.00,0.0077
911.00,0.0078
910.00,0.0079
909.00,0.0080
908.00,0.0081
907.00,0.0085
906.00,0.0091
905.00,0.0101
904.00,0.0115
903.00,0.0133
902.00,0.0152
901.00,0.0170
900.00,0.0182
899.00,0.0185
898.00,0.0179
897.00,0.0165
896.00,0.0146
895.00,0.0128
894.00,0.0113
893.00,0.0101
892.00,0.0094
891.00,0.0089
890.00,0.0085
889.00,0.0081
888.00,0.0079
887.00,0.0077
886.00,0.0076
885.00,0.0075
884.00,0.0076
883.00,0.0077
882.00,0.0079
881.00,0.0081
880.00,0.0081
879.00,0.0081
878.00,0.0081
877.00,0.0081
876.00,0.0081
875.00,0.0082
874.00,0.0082
873.00,0.0081
872.00,0.0081
871.00,0.0080
870.00,0.0079
869.00,0.0079
868.00,0.0079
867.00,0.0079
866.00,0.0081
865.00,0.0082
864.00,0.0083
863.00,0.0083
862.00,0.0084
861.00,0.0086
860.00,0.0088
859.00,0.0091
858.00,0.0093
857.00,0.0094
856.00,0.0095
855.00,0.0097
854.00,0.0100
853.00,0.0104
852.00,0.0108
851.00,0.0113
850.00,0.0119
849.00,0.0128
848.00,0.0140
847.00,0.0158
846.00,0.0186
845.00,0.0226
844.00,0.0281
843.00,0.0344
842.00,0.0395
841.00,0.0412
840.00,0.0388
839.00,0.0335
838.00,0.0275
837.00,0.0225
836.00,0.0191
835.00,0.0170
834.00,0.0158
833.00,0.0150
832.00,0.0144
831.00,0.0139
830.00,0.0135
829.00,0.0132
828.00,0.0129
827.00,0.0127
826.00,0.0125
825.00,0.0123
824.00,0.0122
823.00,0.0120
822.00,0.0119
821.00,0.0120
820.00,0.0121
819.00,0.0124
818.00,0.0127
817.00,0.0132
816.00,0.0139
815.00,0.0148
814.00,0.0160
813.00,0.0175
812.00,0.0190
811.00,0.0205
810.00,0.0217
809.00,0.0224
808.00,0.0224
807.00,0.0215
806.00,0.0200
805.00,0.0183
804.00,0.0166
803.00,0.0153
802.00,0.0143
801.00,0.0134
800.00,0.0126
799.00,0.0120
798.00,0.0114
797.00,0.0110
796.00,0.0106
795.00,0.0104
794.00,0.0100
793.00,0.0096
792.00,0.0093
791.00,0.0089
790.00,0.0088
789.00,0.0087
788.00,0.0086
787.00,0.0085
786.00,0.0083
785.00,0.0080
784.00,0.0076
783.00,0.0073
782.00,0.0071
781.00,0.0070
780.00,0.0068
779.00,0.0067
778.00,0.0068
777.00,0.0069
776.00,0.0072
775.00,0.0075
774.00,0.0077
773.00,0.0080
772.00,0.0083
771.00,0.0087
770.00,0.0090
769.00,0.0092
768.00,0.0093
767.00,0.0092
766.00,0.0089
765.00,0.0087
764.00,0.0083
763.00,0.0080
762.00,0.0077
761.00,0.0075
760.00,0.0072
759.00,0.0071
758.00,0.0069
757.00,0.0067
756.00,0.0065
755.00,0.0064
754.00,0.0065
753.00,0.0066
752.00,0.0067
751.00,0.0067
750.00,0.0067
749.00,0.0066
748.00,0.0065
747.00,0.0065
746.00,0.0067
745.00,0.0069
744.00,0.0069
743.00,0.0068
742.00,0.0068
741.00,0.0070
740.00,0.0072
739.00,0.0074
738.00,0.0075
737.00,0.0076
736.00,0.0078
735.00,0.0080
734.00,0.0081
733.00,0.0082
732.00,0.0082
731.00,0.0083
730.00,0.0085
729.00,0.0087
728.00,0.0088
727.00,0.0089
726.00,0.0088
725.00,0.0088
724.00,0.0088
723.00,0.0088
722.00,0.0088
721.00,0.0089
720.00,0.0088
719.00,0.0086
718.00,0.0082
717.00,0.0078
716.00,0.0076
715.00,0.0076
714.00,0.0076
713.00,0.0076
712.00,0.0074
711.00,0.0073
710.00,0.0072
709.00,0.0072
708.00,0.0071
707.00,0.0071
706.00,0.0071
705.00,0.0072
704.00,0.0073
703.00,0.0074
702.00,0.0074
701.00,0.0074
700.00,0.0072
699.00,0.0070
698.00,0.0069
697.00,0.0069
696.00,0.0069
695.00,0.0070
694.00,0.0072
693.00,0.0073
692.00,0.0073
691.00,0.0073
690.00,0.0073
689.00,0.0072
688.00,0.0073
687.00,0.0074
686.00,0.0075
685.00,0.0075
684.00,0.0074
683.00,0.0073
682.00,0.0072
681.00,0.0072
680.00,0.0071
679.00,0.0069
678.00,0.0068
677.00,0.0068
676.00,0.0068
675.00,0.0070
674.00,0.0072
673.00,0.0074
672.00,0.0075
671.00,0.0077
670.00,0.0078
669.00,0.0080
668.00,0.0081
667.00,0.0080
666.00,0.0077
665.00,0.0074
664.00,0.0072
663.00,0.0072
662.00,0.0073
661.00,0.0072
660.00,0.0071
659.00,0.0069
658.00,0.0068
657.00,0.0068
656.00,0.0069
655.00,0.0070
654.00,0.0069
653.00,0.0068
652.00,0.0068
651.00,0.0069
650.00,0.0070
649.00,0.0069
648.00,0.0066
647.00,0.0064
646.00,0.0065
645.00,0.0066
644.00,0.0068
643.00,0.0068
642.00,0.0068
641.00,0.0067
640.00,0.0067
639.00,0.0067
638.00,0.0068
637.00,0.0070
636.00,0.0072
635.00,0.0072
634.00,0.0071
633.00,0.0070
632.00,0.0071
631.00,0.0074
630.00,0.0078
629.00,0.0079
628.00,0.0076
627.00,0.0072
626.00,0.0069
625.00,0.0068
624.00,0.0067
623.00,0.0067
622.00,0.0067
621.00,0.0068
620.00,0.0070
619.00,0.0070
618.00,0.0071
617.00,0.0072
616.00,0.0072
615.00,0.0073
614.00,0.0073
613.00,0.0072
612.00,0.0070
611.00,0.0068
610.00,0.0066
609.00,0.0066
608.00,0.0067
607.00,0.0070
606.00,0.0071
605.00,0.0071
604.00,0.0070
603.00,0.0071
602.00,0.0073
601.00,0.0076
600.00,0.0078
599.00,0.0076
598.00,0.0073
597.00,0.0070
596.00,0.0068
595.00,0.0067
594.00,0.0068
593.00,0.0069
592.00,0.0071
591.00,0.0071
590.00,0.0070
589.00,0.0068
588.00,0.0066
587.00,0.0066
586.00,0.0067
585.00,0.0068
584.00,0.0068
583.00,0.0070
582.00,0.0075
581.00,0.0080
580.00,0.0083
579.00,0.0083
578.00,0.0079
577.00,0.0075
576.00,0.0073
575.00,0.0072
574.00,0.0072
573.00,0.0070
572.00,0.0067
571.00,0.0066
570.00,0.0068
569.00,0.0071
568.00,0.0074
567.00,0.0074
566.00,0.0073
565.00,0.0071
564.00,0.0069
563.00,0.0068
562.00,0.0067
561.00,0.0068
560.00,0.0069
559.00,0.0071
558.00,0.0072
557.00,0.0073
556.00,0.0075
555.00,0.0076
554.00,0.0078
553.00,0.0078
552.00,0.0077
551.00,0.0077
550.00,0.0077
549.00,0.0075
548.00,0.0072
547.00,0.0069
546.00,0.0069
545.00,0.0071
544.00,0.0074
543.00,0.0078
542.00,0.0081
541.00,0.0083
540.00,0.0082
539.00,0.0078
538.00,0.0076
537.00,0.0077
536.00,0.0083
535.00,0.0089
534.00,0.0092
533.00,0.0093
532.00,0.0092
531.00,0.0090
530.00,0.0088
529.00,0.0085
528.00,0.0083
527.00,0.0081
526.00,0.0080
525.00,0.0077
524.00,0.0076
523.00,0.0076
522.00,0.0079
521.00,0.0084
520.00,0.0087
519.00,0.0085
518.00,0.0078
517.00,0.0071
516.00,0.0068
515.00,0.0072
514.00,0.0079
513.00,0.0084
512.00,0.0084
511.00,0.0076
510.00,0.0065
509.00,0.0055
508.00,0.0051
507.00,0.0054
506.00,0.0057
505.00,0.0059
504.00,0.0057
503.00,0.0056
502.00,0.0059
501.00,0.0065
500.00,0.0073
499.00,0.0079
498.00,0.0083
497.00,0.0086
496.00,0.0086
495.00,0.0083
494.00,0.0078
493.00,0.0076
492.00,0.0079
491.00,0.0086
490.00,0.0091
489.00,0.0090
488.00,0.0083
487.00,0.0075
486.00,0.0069
485.00,0.0066
484.00,0.0066
483.00,0.0068
482.00,0.0072
481.00,0.0076
480.00,0.0082
479.00,0.0089
478.00,0.0093
477.00,0.0092
476.00,0.0091
475.00,0.0092
474.00,0.0095
473.00,0.0096
472.00,0.0096
471.00,0.0098
470.00,0.0104
469.00,0.0109
468.00,0.0109
467.00,0.0107
466.00,0.0105
465.00,0.0107
464.00,0.0118
463.00,0.0140
462.00,0.0167
461.00,0.0187
460.00,0.0188
459.00,0.0170
458.00,0.0144
457.00,0.0129
456.00,0.0134
455.00,0.0152
454.00,0.0171
453.00,0.0177
452.00,0.0164
451.00,0.0138
450.00,0.0112
