Created as New Dataset,Sample 141 By Administrator Date Wednesday, September 10 2025
cm-1,A
4000.00,0.0009
3999.00,0.0009
3998.00,0.0009
3997.00,0.0009
3996.00,0.0009
3995.00,0.0009
3994.00,0.0009
3993.00,0.0009
3992.00,0.0009
3991.00,0.0009
3990.00,0.0009
3989.00,0.0009
3988.00,0.0009
3987.00,0.0009
3986.00,0.0008
3985.00,0.0008
3984.00,0.0008
3983.00,0.0008
3982.00,0.0008
3981.00,0.0008
3980.00,0.0008
3979.00,0.0007
3978.00,0.0007
3977.00,0.0007
3976.00,0.0007
3975.00,0.0007
3974.00,0.0007
3973.00,0.0007
3972.00,0.0007
3971.00,0.0007
3970.00,0.0007
3969.00,0.0008
3968.00,0.0008
3967.00,0.0008
3966.00,0.0008
3965.00,0.0008
3964.00,0.0008
3963.00,0.0007
3962.00,0.0007
3961.00,0.0007
3960.00,0.0006
3959.00,0.0006
3958.00,0.0007
3957.00,0.0007
3956.00,0.0007
3955.00,0.0008
3954.00,0.0008
3953.00,0.0008
3952.00,0.0008
3951.00,0.0007
3950.00,0.0007
3949.00,0.0007
3948.00,0.0006
3947.00,0.0006
3946.00,0.0006
3945.00,0.0006
3944.00,0.0006
3943.00,0.0007
3942.00,0.0007
3941.00,0.0008
3940.00,0.0008
3939.00,0.0008
3938.00,0.0008
3937.00,0.0008
3936.00,0.0008
3935.00,0.0008
3934.00,0.0008
3933.00,0.0008
3932.00,0.0008
3931.00,0.0008
3930.00,0.0008
3929.00,0.0008
3928.00,0.0008
3927.00,0.0008
3926.00,0.0008
3925.00,0.0008
3924.00,0.0008
3923.00,0.0009
3922.00,0.0009
3921.00,0.0009
3920.00,0.0008
3919.00,0.0008
3918.00,0.0008
3917.00,0.0007
3916.00,0.0007
3915.00,0.0007
3914.00,0.0007
3913.00,0.0008
3912.00,0.0008
3911.00,0.0007
3910.00,0.0007
3909.00,0.0007
3908.00,0.0007
3907.00,0.0007
3906.00,0.0008
3905.00,0.0008
3904.00,0.0008
3903.00,0.0007
3902.00,0.0007
3901.00,0.0006
3900.00,0.0006
3899.00,0.0007
3898.00,0.0007
3897.00,0.0007
3896.00,0.0007
3895.00,0.0007
3894.00,0.0007
3893.00,0.0007
3892.00,0.0007
3891.00,0.0007
3890.00,0.0007
3889.00,0.0007
3888.00,0.0007
3887.00,0.0007
3886.00,0.0007
3885.00,0.0007
3884.00,0.0007
3883.00,0.0006
3882.00,0.0006
3881.00,0.0006
3880.00,0.0007
3879.00,0.0007
3878.00,0.0007
3877.00,0.0007
3876.00,0.0007
3875.00,0.0007
3874.00,0.0007
3873.00,0.0008
3872.00,0.0008
3871.00,0.0007
3870.00,0.0007
3869.00,0.0007
3868.00,0.0007
3867.00,0.0006
3866.00,0.0006
3865.00,0.0006
3864.00,0.0006
3863.00,0.0006
3862.00,0.0006
3861.00,0.0006
3860.00,0.0006
3859.00,0.0006
3858.00,0.0006
3857.00,0.0006
3856.00,0.0006
3855.00,0.0006
3854.00,0.0007
3853.00,0.0007
3852.00,0.0007
3851.00,0.0007
3850.00,0.0007
3849.00,0.0007
3848.00,0.0006
3847.00,0.0006
3846.00,0.0006
3845.00,0.0006
3844.00,0.0006
3843.00,0.0007
3842.00,0.0007
3841.00,0.0007
3840.00,0.0007
3839.00,0.0007
3838.00,0.0007
3837.00,0.0007
3836.00,0.0007
3835.00,0.0007
3834.00,0.0007
3833.00,0.0006
3832.00,0.0006
3831.00,0.0006
3830.00,0.0006
3829.00,0.0006
3828.00,0.0007
3827.00,0.0007
3826.00,0.0008
3825.00,0.0008
3824.00,0.0008
3823.00,0.0008
3822.00,0.0008
3821.00,0.0008
3820.00,0.0008
3819.00,0.0008
3818.00,0.0008
3817.00,0.0008
3816.00,0.0008
3815.00,0.0008
3814.00,0.0008
3813.00,0.0008
3812.00,0.0008
3811.00,0.0008
3810.00,0.0007
3809.00,0.0007
3808.00,0.0007
3807.00,0.0007
3806.00,0.0007
3805.00,0.0008
3804.00,0.0008
3803.00,0.0008
3802.00,0.0008
3801.00,0.0008
3800.00,0.0008
3799.00,0.0007
3798.00,0.0007
3797.00,0.0006
3796.00,0.0006
3795.00,0.0006
3794.00,0.0006
3793.00,0.0006
3792.00,0.0007
3791.00,0.0007
3790.00,0.0007
3789.00,0.0007
3788.00,0.0007
3787.00,0.0007
3786.00,0.0007
3785.00,0.0007
3784.00,0.0007
3783.00,0.0007
3782.00,0.0008
3781.00,0.0008
3780.00,0.0007
3779.00,0.0007
3778.00,0.0007
3777.00,0.0008
3776.00,0.0008
3775.00,0.0008
3774.00,0.0008
3773.00,0.0008
3772.00,0.0008
3771.00,0.0008
3770.00,0.0008
3769.00,0.0008
3768.00,0.0008
3767.00,0.0008
3766.00,0.0008
3765.00,0.0009
3764.00,0.0009
3763.00,0.0009
3762.00,0.0009
3761.00,0.0009
3760.00,0.0008
3759.00,0.0008
3758.00,0.0007
3757.00,0.0007
3756.00,0.0007
3755.00,0.0007
3754.00,0.0007
3753.00,0.0008
3752.00,0.0008
3751.00,0.0008
3750.00,0.0008
3749.00,0.0007
3748.00,0.0007
3747.00,0.0006
3746.00,0.0006
3745.00,0.0006
3744.00,0.0007
3743.00,0.0007
3742.00,0.0007
3741.00,0.0007
3740.00,0.0007
3739.00,0.0006
3738.00,0.0006
3737.00,0.0006
3736.00,0.0006
3735.00,0.0006
3734.00,0.0006
3733.00,0.0005
3732.00,0.0006
3731.00,0.0006
3730.00,0.0006
3729.00,0.0006
3728.00,0.0006
3727.00,0.0006
3726.00,0.0006
3725.00,0.0006
3724.00,0.0006
3723.00,0.0006
3722.00,0.0006
3721.00,0.0006
3720.00,0.0006
3719.00,0.0006
3718.00,0.0006
3717.00,0.0006
3716.00,0.0006
3715.00,0.0006
3714.00,0.0005
3713.00,0.0005
3712.00,0.0005
3711.00,0.0005
3710.00,0.0005
3709.00,0.0005
3708.00,0.0005
3707.00,0.0005
3706.00,0.0005
3705.00,0.0005
3704.00,0.0005
3703.00,0.0005
3702.00,0.0005
3701.00,0.0005
3700.00,0.0005
3699.00,0.0005
3698.00,0.0005
3697.00,0.0005
3696.00,0.0006
3695.00,0.0006
3694.00,0.0006
3693.00,0.0007
3692.00,0.0007
3691.00,0.0007
3690.00,0.0006
3689.00,0.0006
3688.00,0.0005
3687.00,0.0005
3686.00,0.0005
3685.00,0.0006
3684.00,0.0006
3683.00,0.0006
3682.00,0.0006
3681.00,0.0006
3680.00,0.0006
3679.00,0.0006
3678.00,0.0005
3677.00,0.0005
3676.00,0.0006
3675.00,0.0006
3674.00,0.0007
3673.00,0.0007
3672.00,0.0007
3671.00,0.0006
3670.00,0.0005
3669.00,0.0005
3668.00,0.0005
3667.00,0.0005
3666.00,0.0006
3665.00,0.0007
3664.00,0.0007
3663.00,0.0007
3662.00,0.0006
3661.00,0.0006
3660.00,0.0006
3659.00,0.0006
3658.00,0.0006
3657.00,0.0005
3656.00,0.0005
3655.00,0.0005
3654.00,0.0005
3653.00,0.0006
3652.00,0.0006
3651.00,0.0006
3650.00,0.0006
3649.00,0.0007
3648.00,0.0007
3647.00,0.0007
3646.00,0.0007
3645.00,0.0007
3644.00,0.0007
3643.00,0.0007
3642.00,0.0007
3641.00,0.0007
3640.00,0.0006
3639.00,0.0006
3638.00,0.0006
3637.00,0.0006
3636.00,0.0006
3635.00,0.0006
3634.00,0.0006
3633.00,0.0006
3632.00,0.0007
3631.00,0.0007
3630.00,0.0007
3629.00,0.0007
3628.00,0.0007
3627.00,0.0006
3626.00,0.0006
3625.00,0.0007
3624.00,0.0007
3623.00,0.0007
3622.00,0.0008
3621.00,0.0008
3620.00,0.0007
3619.00,0.0007
3618.00,0.0007
3617.00,0.0006
3616.00,0.0006
3615.00,0.0007
3614.00,0.0008
3613.00,0.0008
3612.00,0.0008
3611.00,0.0008
3610.00,0.0008
3609.00,0.0008
3608.00,0.0008
3607.00,0.0008
3606.00,0.0008
3605.00,0.0008
3604.00,0.0008
3603.00,0.0008
3602.00,0.0008
3601.00,0.0008
3600.00,0.0008
3599.00,0.0009
3598.00,0.0009
3597.00,0.0009
3596.00,0.0009
3595.00,0.0008
3594.00,0.0009
3593.00,0.0009
3592.00,0.0009
3591.00,0.0010
3590.00,0.0010
3589.00,0.0010
3588.00,0.0010
3587.00,0.0010
3586.00,0.0010
3585.00,0.0011
3584.00,0.0011
3583.00,0.0011
3582.00,0.0011
3581.00,0.0012
3580.00,0.0012
3579.00,0.0012
3578.00,0.0012
3577.00,0.0012
3576.00,0.0012
3575.00,0.0012
3574.00,0.0012
3573.00,0.0012
3572.00,0.0012
3571.00,0.0012
3570.00,0.0012
3569.00,0.0012
3568.00,0.0013
3567.00,0.0013
3566.00,0.0014
3565.00,0.0014
3564.00,0.0015
3563.00,0.0015
3562.00,0.0015
3561.00,0.0015
3560.00,0.0015
3559.00,0.0015
3558.00,0.0015
3557.00,0.0016
3556.00,0.0016
3555.00,0.0016
3554.00,0.0017
3553.00,0.0017
3552.00,0.0017
3551.00,0.0017
3550.00,0.0017
3549.00,0.0017
3548.00,0.0017
3547.00,0.0017
3546.00,0.0018
3545.00,0.0018
3544.00,0.0018
3543.00,0.0018
3542.00,0.0018
3541.00,0.0019
3540.00,0.0019
3539.00,0.0019
3538.00,0.0019
3537.00,0.0019
3536.00,0.0019
3535.00,0.0019
3534.00,0.0019
3533.00,0.0019
3532.00,0.0020
3531.00,0.0020
3530.00,0.0020
3529.00,0.0020
3528.00,0.0020
3527.00,0.0021
3526.00,0.0021
3525.00,0.0022
3524.00,0.0022
3523.00,0.0022
3522.00,0.0022
3521.00,0.0022
3520.00,0.0022
3519.00,0.0022
3518.00,0.0023
3517.00,0.0023
3516.00,0.0023
3515.00,0.0023
3514.00,0.0023
3513.00,0.0023
3512.00,0.0024
3511.00,0.0024
3510.00,0.0024
3509.00,0.0024
3508.00,0.0024
3507.00,0.0025
3506.00,0.0025
3505.00,0.0025
3504.00,0.0025
3503.00,0.0025
3502.00,0.0025
3501.00,0.0025
3500.00,0.0025
3499.00,0.0025
3498.00,0.0025
3497.00,0.0026
3496.00,0.0026
3495.00,0.0026
3494.00,0.0026
3493.00,0.0026
3492.00,0.0027
3491.00,0.0027
3490.00,0.0027
3489.00,0.0028
3488.00,0.0028
3487.00,0.0028
3486.00,0.0029
3485.00,0.0029
3484.00,0.0029
3483.00,0.0030
3482.00,0.0030
3481.00,0.0029
3480.00,0.0029
3479.00,0.0029
3478.00,0.0030
3477.00,0.0030
3476.00,0.0030
3475.00,0.0030
3474.00,0.0030
3473.00,0.0030
3472.00,0.0030
3471.00,0.0030
3470.00,0.0030
3469.00,0.0030
3468.00,0.0030
3467.00,0.0030
3466.00,0.0031
3465.00,0.0032
3464.00,0.0032
3463.00,0.0032
3462.00,0.0033
3461.00,0.0033
3460.00,0.0033
3459.00,0.0033
3458.00,0.0033
3457.00,0.0033
3456.00,0.0033
3455.00,0.0034
3454.00,0.0034
3453.00,0.0034
3452.00,0.0034
3451.00,0.0034
3450.00,0.0034
3449.00,0.0034
3448.00,0.0034
3447.00,0.0035
3446.00,0.0035
3445.00,0.0035
3444.00,0.0035
3443.00,0.0035
3442.00,0.0035
3441.00,0.0036
3440.00,0.0036
3439.00,0.0036
3438.00,0.0036
3437.00,0.0037
3436.00,0.0037
3435.00,0.0037
3434.00,0.0037
3433.00,0.0037
3432.00,0.0037
3431.00,0.0037
3430.00,0.0037
3429.00,0.0037
3428.00,0.0037
3427.00,0.0038
3426.00,0.0038
3425.00,0.0038
3424.00,0.0038
3423.00,0.0038
3422.00,0.0038
3421.00,0.0038
3420.00,0.0039
3419.00,0.0039
3418.00,0.0039
3417.00,0.0039
3416.00,0.0039
3415.00,0.0039
3414.00,0.0039
3413.00,0.0039
3412.00,0.0039
3411.00,0.0039
3410.00,0.0039
3409.00,0.0040
3408.00,0.0040
3407.00,0.0040
3406.00,0.0040
3405.00,0.0040
3404.00,0.0040
3403.00,0.0040
3402.00,0.0040
3401.00,0.0040
3400.00,0.0040
3399.00,0.0040
3398.00,0.0040
3397.00,0.0041
3396.00,0.0041
3395.00,0.0042
3394.00,0.0042
3393.00,0.0042
3392.00,0.0042
3391.00,0.0042
3390.00,0.0041
3389.00,0.0041
3388.00,0.0042
3387.00,0.0042
3386.00,0.0042
3385.00,0.0042
3384.00,0.0042
3383.00,0.0042
3382.00,0.0042
3381.00,0.0042
3380.00,0.0042
3379.00,0.0042
3378.00,0.0042
3377.00,0.0042
3376.00,0.0043
3375.00,0.0043
3374.00,0.0043
3373.00,0.0043
3372.00,0.0043
3371.00,0.0043
3370.00,0.0043
3369.00,0.0043
3368.00,0.0043
3367.00,0.0043
3366.00,0.0043
3365.00,0.0044
3364.00,0.0044
3363.00,0.0044
3362.00,0.0044
3361.00,0.0044
3360.00,0.0043
3359.00,0.0043
3358.00,0.0043
3357.00,0.0044
3356.00,0.0044
3355.00,0.0044
3354.00,0.0044
3353.00,0.0044
3352.00,0.0044
3351.00,0.0044
3350.00,0.0044
3349.00,0.0044
3348.00,0.0045
3347.00,0.0044
3346.00,0.0044
3345.00,0.0044
3344.00,0.0043
3343.00,0.0043
3342.00,0.0043
3341.00,0.0043
3340.00,0.0043
3339.00,0.0043
3338.00,0.0043
3337.00,0.0043
3336.00,0.0043
3335.00,0.0044
3334.00,0.0044
3333.00,0.0044
3332.00,0.0044
3331.00,0.0043
3330.00,0.0043
3329.00,0.0043
3328.00,0.0042
3327.00,0.0042
3326.00,0.0042
3325.00,0.0042
3324.00,0.0042
3323.00,0.0042
3322.00,0.0041
3321.00,0.0041
3320.00,0.0041
3319.00,0.0041
3318.00,0.0041
3317.00,0.0041
3316.00,0.0041
3315.00,0.0041
3314.00,0.0041
3313.00,0.0041
3312.00,0.0041
3311.00,0.0041
3310.00,0.0041
3309.00,0.0042
3308.00,0.0042
3307.00,0.0041
3306.00,0.0041
3305.00,0.0040
3304.00,0.0040
3303.00,0.0040
3302.00,0.0040
3301.00,0.0041
3300.00,0.0041
3299.00,0.0041
3298.00,0.0042
3297.00,0.0042
3296.00,0.0042
3295.00,0.0042
3294.00,0.0041
3293.00,0.0041
3292.00,0.0040
3291.00,0.0040
3290.00,0.0040
3289.00,0.0040
3288.00,0.0040
3287.00,0.0040
3286.00,0.0040
3285.00,0.0040
3284.00,0.0040
3283.00,0.0040
3282.00,0.0040
3281.00,0.0040
3280.00,0.0039
3279.00,0.0039
3278.00,0.0040
3277.00,0.0040
3276.00,0.0039
3275.00,0.0039
3274.00,0.0039
3273.00,0.0039
3272.00,0.0039
3271.00,0.0039
3270.00,0.0039
3269.00,0.0039
3268.00,0.0039
3267.00,0.0039
3266.00,0.0039
3265.00,0.0039
3264.00,0.0039
3263.00,0.0039
3262.00,0.0039
3261.00,0.0038
3260.00,0.0038
3259.00,0.0037
3258.00,0.0037
3257.00,0.0036
3256.00,0.0036
3255.00,0.0035
3254.00,0.0035
3253.00,0.0035
3252.00,0.0035
3251.00,0.0035
3250.00,0.0035
3249.00,0.0035
3248.00,0.0035
3247.00,0.0035
3246.00,0.0036
3245.00,0.0036
3244.00,0.0036
3243.00,0.0036
3242.00,0.0036
3241.00,0.0036
3240.00,0.0036
3239.00,0.0035
3238.00,0.0035
3237.00,0.0035
3236.00,0.0035
3235.00,0.0036
3234.00,0.0036
3233.00,0.0035
3232.00,0.0035
3231.00,0.0035
3230.00,0.0036
3229.00,0.0036
3228.00,0.0036
3227.00,0.0037
3226.00,0.0037
3225.00,0.0037
3224.00,0.0038
3223.00,0.0038
3222.00,0.0037
3221.00,0.0037
3220.00,0.0037
3219.00,0.0037
3218.00,0.0038
3217.00,0.0038
3216.00,0.0038
3215.00,0.0038
3214.00,0.0038
3213.00,0.0038
3212.00,0.0038
3211.00,0.0038
3210.00,0.0038
3209.00,0.0039
3208.00,0.0039
3207.00,0.0039
3206.00,0.0039
3205.00,0.0039
3204.00,0.0039
3203.00,0.0039
3202.00,0.0039
3201.00,0.0039
3200.00,0.0040
3199.00,0.0040
3198.00,0.0040
3197.00,0.0040
3196.00,0.0039
3195.00,0.0039
3194.00,0.0039
3193.00,0.0039
3192.00,0.0039
3191.00,0.0039
3190.00,0.0038
3189.00,0.0038
3188.00,0.0038
3187.00,0.0038
3186.00,0.0038
3185.00,0.0038
3184.00,0.0037
3183.00,0.0037
3182.00,0.0037
3181.00,0.0037
3180.00,0.0037
3179.00,0.0036
3178.00,0.0036
3177.00,0.0036
3176.00,0.0035
3175.00,0.0035
3174.00,0.0036
3173.00,0.0036
3172.00,0.0035
3171.00,0.0035
3170.00,0.0034
3169.00,0.0034
3168.00,0.0034
3167.00,0.0034
3166.00,0.0034
3165.00,0.0034
3164.00,0.0034
3163.00,0.0035
3162.00,0.0035
3161.00,0.0035
3160.00,0.0035
3159.00,0.0034
3158.00,0.0034
3157.00,0.0034
3156.00,0.0034
3155.00,0.0034
3154.00,0.0034
3153.00,0.0034
3152.00,0.0033
3151.00,0.0033
3150.00,0.0033
3149.00,0.0033
3148.00,0.0034
3147.00,0.0034
3146.00,0.0034
3145.00,0.0033
3144.00,0.0033
3143.00,0.0033
3142.00,0.0033
3141.00,0.0033
3140.00,0.0032
3139.00,0.0032
3138.00,0.0032
3137.00,0.0032
3136.00,0.0032
3135.00,0.0032
3134.00,0.0031
3133.00,0.0031
3132.00,0.0031
3131.00,0.0031
3130.00,0.0030
3129.00,0.0030
3128.00,0.0030
3127.00,0.0030
3126.00,0.0030
3125.00,0.0030
3124.00,0.0030
3123.00,0.0030
3122.00,0.0029
3121.00,0.0029
3120.00,0.0028
3119.00,0.0028
3118.00,0.0028
3117.00,0.0028
3116.00,0.0028
3115.00,0.0027
3114.00,0.0027
3113.00,0.0027
3112.00,0.0027
3111.00,0.0027
3110.00,0.0027
3109.00,0.0027
3108.00,0.0027
3107.00,0.0027
3106.00,0.0027
3105.00,0.0027
3104.00,0.0027
3103.00,0.0027
3102.00,0.0026
3101.00,0.0026
3100.00,0.0026
3099.00,0.0026
3098.00,0.0026
3097.00,0.0026
3096.00,0.0025
3095.00,0.0025
3094.00,0.0025
3093.00,0.0025
3092.00,0.0026
3091.00,0.0026
3090.00,0.0026
3089.00,0.0026
3088.00,0.0026
3087.00,0.0026
3086.00,0.0025
3085.00,0.0025
3084.00,0.0025
3083.00,0.0025
3082.00,0.0025
3081.00,0.0025
3080.00,0.0025
3079.00,0.0025
3078.00,0.0025
3077.00,0.0025
3076.00,0.0025
3075.00,0.0026
3074.00,0.0026
3073.00,0.0026
3072.00,0.0026
3071.00,0.0027
3070.00,0.0027
3069.00,0.0027
3068.00,0.0027
3067.00,0.0027
3066.00,0.0027
3065.00,0.0028
3064.00,0.0028
3063.00,0.0029
3062.00,0.0029
3061.00,0.0028
3060.00,0.0028
3059.00,0.0028
3058.00,0.0028
3057.00,0.0028
3056.00,0.0028
3055.00,0.0028
3054.00,0.0028
3053.00,0.0028
3052.00,0.0029
3051.00,0.0029
3050.00,0.0029
3049.00,0.0030
3048.00,0.0030
3047.00,0.0030
3046.00,0.0030
3045.00,0.0030
3044.00,0.0030
3043.00,0.0031
3042.00,0.0031
3041.00,0.0032
3040.00,0.0032
3039.00,0.0032
3038.00,0.0032
3037.00,0.0033
3036.00,0.0033
3035.00,0.0033
3034.00,0.0034
3033.00,0.0034
3032.00,0.0035
3031.00,0.0035
3030.00,0.0035
3029.00,0.0036
3028.00,0.0036
3027.00,0.0036
3026.00,0.0037
3025.00,0.0037
3024.00,0.0038
3023.00,0.0039
3022.00,0.0039
3021.00,0.0040
3020.00,0.0041
3019.00,0.0042
3018.00,0.0043
3017.00,0.0044
3016.00,0.0045
3015.00,0.0046
3014.00,0.0047
3013.00,0.0048
3012.00,0.0049
3011.00,0.0050
3010.00,0.0051
3009.00,0.0053
3008.00,0.0055
3007.00,0.0057
3006.00,0.0059
3005.00,0.0061
3004.00,0.0063
3003.00,0.0064
3002.00,0.0066
3001.00,0.0068
3000.00,0.0071
2999.00,0.0074
2998.00,0.0077
2997.00,0.0080
2996.00,0.0084
2995.00,0.0088
2994.00,0.0092
2993.00,0.0097
2992.00,0.0102
2991.00,0.0108
2990.00,0.0114
2989.00,0.0122
2988.00,0.0129
2987.00,0.0138
2986.00,0.0148
2985.00,0.0159
2984.00,0.0171
2983.00,0.0184
2982.00,0.0199
2981.00,0.0216
2980.00,0.0235
2979.00,0.0257
2978.00,0.0282
2977.00,0.0310
2976.00,0.0342
2975.00,0.0379
2974.00,0.0421
2973.00,0.0468
2972.00,0.0520
2971.00,0.0578
2970.00,0.0643
2969.00,0.0714
2968.00,0.0790
2967.00,0.0872
2966.00,0.0957
2965.00,0.1043
2964.00,0.1126
2963.00,0.1203
2962.00,0.1272
2961.00,0.1329
2960.00,0.1378
2959.00,0.1419
2958.00,0.1460
2957.00,0.1504
2956.00,0.1556
2955.00,0.1619
2954.00,0.1691
2953.00,0.1767
2952.00,0.1838
2951.00,0.1894
2950.00,0.1923
2949.00,0.1916
2948.00,0.1868
2947.00,0.1782
2946.00,0.1666
2945.00,0.1535
2944.00,0.1405
2943.00,0.1288
2942.00,0.1193
2941.00,0.1124
2940.00,0.1081
2939.00,0.1063
2938.00,0.1065
2937.00,0.1087
2936.00,0.1126
2935.00,0.1180
2934.00,0.1249
2933.00,0.1330
2932.00,0.1422
2931.00,0.1524
2930.00,0.1632
2929.00,0.1743
2928.00,0.1853
2927.00,0.1959
2926.00,0.2061
2925.00,0.2158
2924.00,0.2251
2923.00,0.2342
2922.00,0.2432
2921.00,0.2519
2920.00,0.2597
2919.00,0.2660
2918.00,0.2696
2917.00,0.2699
2916.00,0.2666
2915.00,0.2601
2914.00,0.2511
2913.00,0.2409
2912.00,0.2303
2911.00,0.2202
2910.00,0.2108
2909.00,0.2023
2908.00,0.1943
2907.00,0.1868
2906.00,0.1795
2905.00,0.1723
2904.00,0.1650
2903.00,0.1577
2902.00,0.1506
2901.00,0.1437
2900.00,0.1372
2899.00,0.1310
2898.00,0.1254
2897.00,0.1203
2896.00,0.1158
2895.00,0.1119
2894.00,0.1087
2893.00,0.1063
2892.00,0.1045
2891.00,0.1034
2890.00,0.1028
2889.00,0.1027
2888.00,0.1029
2887.00,0.1035
2886.00,0.1045
2885.00,0.1059
2884.00,0.1077
2883.00,0.1100
2882.00,0.1128
2881.00,0.1158
2880.00,0.1188
2879.00,0.1214
2878.00,0.1231
2877.00,0.1239
2876.00,0.1238
2875.00,0.1231
2874.00,0.1224
2873.00,0.1221
2872.00,0.1226
2871.00,0.1239
2870.00,0.1258
2869.00,0.1278
2868.00,0.1291
2867.00,0.1288
2866.00,0.1262
2865.00,0.1209
2864.00,0.1133
2863.00,0.1043
2862.00,0.0948
2861.00,0.0860
2860.00,0.0785
2859.00,0.0726
2858.00,0.0682
2857.00,0.0650
2856.00,0.0628
2855.00,0.0615
2854.00,0.0608
2853.00,0.0608
2852.00,0.0614
2851.00,0.0626
2850.00,0.0644
2849.00,0.0668
2848.00,0.0698
2847.00,0.0737
2846.00,0.0783
2845.00,0.0838
2844.00,0.0900
2843.00,0.0969
2842.00,0.1039
2841.00,0.1105
2840.00,0.1160
2839.00,0.1196
2838.00,0.1203
2837.00,0.1177
2836.00,0.1119
2835.00,0.1032
2834.00,0.0928
2833.00,0.0819
2832.00,0.0715
2831.00,0.0622
2830.00,0.0543
2829.00,0.0479
2828.00,0.0427
2827.00,0.0386
2826.00,0.0352
2825.00,0.0324
2824.00,0.0301
2823.00,0.0281
2822.00,0.0264
2821.00,0.0250
2820.00,0.0238
2819.00,0.0227
2818.00,0.0218
2817.00,0.0211
2816.00,0.0204
2815.00,0.0197
2814.00,0.0191
2813.00,0.0186
2812.00,0.0180
2811.00,0.0174
2810.00,0.0169
2809.00,0.0163
2808.00,0.0157
2807.00,0.0150
2806.00,0.0144
2805.00,0.0138
2804.00,0.0132
2803.00,0.0127
2802.00,0.0122
2801.00,0.0117
2800.00,0.0113
2799.00,0.0110
2798.00,0.0107
2797.00,0.0104
2796.00,0.0102
2795.00,0.0099
2794.00,0.0097
2793.00,0.0095
2792.00,0.0092
2791.00,0.0089
2790.00,0.0086
2789.00,0.0084
2788.00,0.0081
2787.00,0.0078
2786.00,0.0076
2785.00,0.0074
2784.00,0.0071
2783.00,0.0069
2782.00,0.0067
2781.00,0.0065
2780.00,0.0063
2779.00,0.0061
2778.00,0.0060
2777.00,0.0059
2776.00,0.0057
2775.00,0.0056
2774.00,0.0056
2773.00,0.0055
2772.00,0.0055
2771.00,0.0054
2770.00,0.0054
2769.00,0.0054
2768.00,0.0053
2767.00,0.0053
2766.00,0.0053
2765.00,0.0052
2764.00,0.0052
2763.00,0.0052
2762.00,0.0052
2761.00,0.0051
2760.00,0.0051
2759.00,0.0050
2758.00,0.0050
2757.00,0.0050
2756.00,0.0050
2755.00,0.0050
2754.00,0.0050
2753.00,0.0050
2752.00,0.0050
2751.00,0.0050
2750.00,0.0050
2749.00,0.0050
2748.00,0.0050
2747.00,0.0050
2746.00,0.0051
2745.00,0.0051
2744.00,0.0052
2743.00,0.0052
2742.00,0.0053
2741.00,0.0054
2740.00,0.0056
2739.00,0.0057
2738.00,0.0058
2737.00,0.0060
2736.00,0.0062
2735.00,0.0063
2734.00,0.0065
2733.00,0.0067
2732.00,0.0069
2731.00,0.0070
2730.00,0.0073
2729.00,0.0075
2728.00,0.0078
2727.00,0.0081
2726.00,0.0084
2725.00,0.0086
2724.00,0.0088
2723.00,0.0088
2722.00,0.0087
2721.00,0.0085
2720.00,0.0082
2719.00,0.0079
2718.00,0.0075
2717.00,0.0072
2716.00,0.0069
2715.00,0.0066
2714.00,0.0064
2713.00,0.0062
2712.00,0.0060
2711.00,0.0058
2710.00,0.0057
2709.00,0.0055
2708.00,0.0054
2707.00,0.0052
2706.00,0.0051
2705.00,0.0050
2704.00,0.0048
2703.00,0.0047
2702.00,0.0046
2701.00,0.0045
2700.00,0.0044
2699.00,0.0044
2698.00,0.0044
2697.00,0.0043
2696.00,0.0043
2695.00,0.0043
2694.00,0.0043
2693.00,0.0043
2692.00,0.0043
2691.00,0.0043
2690.00,0.0043
2689.00,0.0042
2688.00,0.0042
2687.00,0.0042
2686.00,0.0042
2685.00,0.0042
2684.00,0.0042
2683.00,0.0043
2682.00,0.0043
2681.00,0.0043
2680.00,0.0043
2679.00,0.0043
2678.00,0.0043
2677.00,0.0043
2676.00,0.0043
2675.00,0.0043
2674.00,0.0043
2673.00,0.0043
2672.00,0.0043
2671.00,0.0043
2670.00,0.0043
2669.00,0.0043
2668.00,0.0043
2667.00,0.0043
2666.00,0.0044
2665.00,0.0044
2664.00,0.0044
2663.00,0.0045
2662.00,0.0045
2661.00,0.0046
2660.00,0.0046
2659.00,0.0047
2658.00,0.0047
2657.00,0.0046
2656.00,0.0046
2655.00,0.0045
2654.00,0.0044
2653.00,0.0044
2652.00,0.0043
2651.00,0.0042
2650.00,0.0042
2649.00,0.0041
2648.00,0.0041
2647.00,0.0041
2646.00,0.0041
2645.00,0.0041
2644.00,0.0040
2643.00,0.0040
2642.00,0.0039
2641.00,0.0038
2640.00,0.0037
2639.00,0.0037
2638.00,0.0037
2637.00,0.0036
2636.00,0.0036
2635.00,0.0036
2634.00,0.0036
2633.00,0.0036
2632.00,0.0037
2631.00,0.0037
2630.00,0.0037
2629.00,0.0037
2628.00,0.0038
2627.00,0.0038
2626.00,0.0038
2625.00,0.0038
2624.00,0.0038
2623.00,0.0038
2622.00,0.0039
2621.00,0.0039
2620.00,0.0040
2619.00,0.0040
2618.00,0.0040
2617.00,0.0040
2616.00,0.0040
2615.00,0.0039
2614.00,0.0039
2613.00,0.0039
2612.00,0.0038
2611.00,0.0038
2610.00,0.0037
2609.00,0.0037
2608.00,0.0036
2607.00,0.0035
2606.00,0.0034
2605.00,0.0033
2604.00,0.0032
2603.00,0.0031
2602.00,0.0031
2601.00,0.0031
2600.00,0.0031
2599.00,0.0030
2598.00,0.0030
2597.00,0.0030
2596.00,0.0031
2595.00,0.0031
2594.00,0.0032
2593.00,0.0032
2592.00,0.0032
2591.00,0.0033
2590.00,0.0034
2589.00,0.0035
2588.00,0.0036
2587.00,0.0037
2586.00,0.0039
2585.00,0.0040
2584.00,0.0040
2583.00,0.0040
2582.00,0.0040
2581.00,0.0039
2580.00,0.0039
2579.00,0.0038
2578.00,0.0037
2577.00,0.0036
2576.00,0.0035
2575.00,0.0034
2574.00,0.0033
2573.00,0.0031
2572.00,0.0030
2571.00,0.0029
2570.00,0.0028
2569.00,0.0028
2568.00,0.0027
2567.00,0.0026
2566.00,0.0025
2565.00,0.0024
2564.00,0.0024
2563.00,0.0023
2562.00,0.0023
2561.00,0.0022
2560.00,0.0022
2559.00,0.0021
2558.00,0.0020
2557.00,0.0020
2556.00,0.0020
2555.00,0.0021
2554.00,0.0021
2553.00,0.0022
2552.00,0.0022
2551.00,0.0022
2550.00,0.0022
2549.00,0.0021
2548.00,0.0021
2547.00,0.0020
2546.00,0.0019
2545.00,0.0018
2544.00,0.0018
2543.00,0.0018
2542.00,0.0018
2541.00,0.0018
2540.00,0.0018
2539.00,0.0018
2538.00,0.0018
2537.00,0.0017
2536.00,0.0016
2535.00,0.0015
2534.00,0.0015
2533.00,0.0014
2532.00,0.0014
2531.00,0.0014
2530.00,0.0015
2529.00,0.0015
2528.00,0.0016
2527.00,0.0015
2526.00,0.0015
2525.00,0.0014
2524.00,0.0014
2523.00,0.0014
2522.00,0.0014
2521.00,0.0014
2520.00,0.0014
2519.00,0.0014
2518.00,0.0013
2517.00,0.0013
2516.00,0.0012
2515.00,0.0012
2514.00,0.0011
2513.00,0.0011
2512.00,0.0010
2511.00,0.0010
2510.00,0.0011
2509.00,0.0011
2508.00,0.0010
2507.00,0.0010
2506.00,0.0009
2505.00,0.0010
2504.00,0.0010
2503.00,0.0011
2502.00,0.0011
2501.00,0.0011
2500.00,0.0010
2499.00,0.0010
2498.00,0.0010
2497.00,0.0010
2496.00,0.0010
2495.00,0.0010
2494.00,0.0010
2493.00,0.0010
2492.00,0.0010
2491.00,0.0010
2490.00,0.0010
2489.00,0.0010
2488.00,0.0010
2487.00,0.0010
2486.00,0.0010
2485.00,0.0010
2484.00,0.0010
2483.00,0.0010
2482.00,0.0009
2481.00,0.0009
2480.00,0.0008
2479.00,0.0008
2478.00,0.0008
2477.00,0.0008
2476.00,0.0009
2475.00,0.0009
2474.00,0.0010
2473.00,0.0010
2472.00,0.0010
2471.00,0.0010
2470.00,0.0010
2469.00,0.0010
2468.00,0.0010
2467.00,0.0010
2466.00,0.0010
2465.00,0.0010
2464.00,0.0010
2463.00,0.0010
2462.00,0.0010
2461.00,0.0010
2460.00,0.0010
2459.00,0.0010
2458.00,0.0010
2457.00,0.0010
2456.00,0.0011
2455.00,0.0011
2454.00,0.0011
2453.00,0.0012
2452.00,0.0011
2451.00,0.0011
2450.00,0.0011
2449.00,0.0011
2448.00,0.0012
2447.00,0.0012
2446.00,0.0011
2445.00,0.0011
2444.00,0.0010
2443.00,0.0011
2442.00,0.0011
2441.00,0.0012
2440.00,0.0012
2439.00,0.0012
2438.00,0.0012
2437.00,0.0012
2436.00,0.0011
2435.00,0.0011
2434.00,0.0011
2433.00,0.0011
2432.00,0.0011
2431.00,0.0011
2430.00,0.0011
2429.00,0.0010
2428.00,0.0010
2427.00,0.0010
2426.00,0.0010
2425.00,0.0011
2424.00,0.0012
2423.00,0.0012
2422.00,0.0012
2421.00,0.0011
2420.00,0.0010
2419.00,0.0010
2418.00,0.0010
2417.00,0.0010
2416.00,0.0010
2415.00,0.0010
2414.00,0.0010
2413.00,0.0010
2412.00,0.0010
2411.00,0.0011
2410.00,0.0011
2409.00,0.0011
2408.00,0.0011
2407.00,0.0010
2406.00,0.0009
2405.00,0.0008
2404.00,0.0007
2403.00,0.0007
2402.00,0.0007
2401.00,0.0008
2400.00,0.0009
2399.00,0.0010
2398.00,0.0010
2397.00,0.0010
2396.00,0.0010
2395.00,0.0009
2394.00,0.0009
2393.00,0.0008
2392.00,0.0008
2391.00,0.0008
2390.00,0.0008
2389.00,0.0008
2388.00,0.0007
2387.00,0.0007
2386.00,0.0007
2385.00,0.0007
2384.00,0.0007
2383.00,0.0007
2382.00,0.0006
2381.00,0.0006
2380.00,0.0006
2379.00,0.0005
2378.00,0.0006
2377.00,0.0006
2376.00,0.0007
2375.00,0.0007
2374.00,0.0007
2373.00,0.0006
2372.00,0.0005
2371.00,0.0005
2370.00,0.0004
2369.00,0.0004
2368.00,0.0004
2367.00,0.0004
2366.00,0.0004
2365.00,0.0004
2364.00,0.0004
2363.00,0.0005
2362.00,0.0006
2361.00,0.0006
2360.00,0.0006
2359.00,0.0006
2358.00,0.0007
2357.00,0.0007
2356.00,0.0007
2355.00,0.0006
2354.00,0.0006
2353.00,0.0006
2352.00,0.0006
2351.00,0.0006
2350.00,0.0006
2349.00,0.0006
2348.00,0.0007
2347.00,0.0007
2346.00,0.0007
2345.00,0.0007
2344.00,0.0007
2343.00,0.0008
2342.00,0.0009
2341.00,0.0009
2340.00,0.0009
2339.00,0.0008
2338.00,0.0008
2337.00,0.0007
2336.00,0.0007
2335.00,0.0008
2334.00,0.0008
2333.00,0.0008
2332.00,0.0008
2331.00,0.0008
2330.00,0.0008
2329.00,0.0008
2328.00,0.0010
2327.00,0.0013
2326.00,0.0017
2325.00,0.0021
2324.00,0.0023
2323.00,0.0023
2322.00,0.0022
2321.00,0.0020
2320.00,0.0017
2319.00,0.0015
2318.00,0.0014
2317.00,0.0013
2316.00,0.0012
2315.00,0.0012
2314.00,0.0012
2313.00,0.0013
2312.00,0.0013
2311.00,0.0012
2310.00,0.0012
2309.00,0.0012
2308.00,0.0011
2307.00,0.0011
2306.00,0.0011
2305.00,0.0011
2304.00,0.0011
2303.00,0.0011
2302.00,0.0011
2301.00,0.0012
2300.00,0.0012
2299.00,0.0013
2298.00,0.0013
2297.00,0.0014
2296.00,0.0014
2295.00,0.0013
2294.00,0.0013
2293.00,0.0014
2292.00,0.0015
2291.00,0.0016
2290.00,0.0017
2289.00,0.0018
2288.00,0.0018
2287.00,0.0018
2286.00,0.0018
2285.00,0.0018
2284.00,0.0018
2283.00,0.0018
2282.00,0.0017
2281.00,0.0016
2280.00,0.0015
2279.00,0.0014
2278.00,0.0013
2277.00,0.0012
2276.00,0.0012
2275.00,0.0011
2274.00,0.0011
2273.00,0.0011
2272.00,0.0011
2271.00,0.0011
2270.00,0.0011
2269.00,0.0012
2268.00,0.0012
2267.00,0.0011
2266.00,0.0011
2265.00,0.0011
2264.00,0.0011
2263.00,0.0011
2262.00,0.0010
2261.00,0.0010
2260.00,0.0010
2259.00,0.0011
2258.00,0.0011
2257.00,0.0011
2256.00,0.0010
2255.00,0.0008
2254.00,0.0007
2253.00,0.0006
2252.00,0.0007
2251.00,0.0006
2250.00,0.0007
2249.00,0.0007
2248.00,0.0008
2247.00,0.0009
2246.00,0.0009
2245.00,0.0009
2244.00,0.0008
2243.00,0.0008
2242.00,0.0008
2241.00,0.0009
2240.00,0.0010
2239.00,0.0010
2238.00,0.0010
2237.00,0.0011
2236.00,0.0012
2235.00,0.0012
2234.00,0.0011
2233.00,0.0011
2232.00,0.0011
2231.00,0.0011
2230.00,0.0011
2229.00,0.0011
2228.00,0.0011
2227.00,0.0010
2226.00,0.0009
2225.00,0.0008
2224.00,0.0007
2223.00,0.0006
2222.00,0.0004
2221.00,0.0002
2220.00,0.0002
2219.00,0.0002
2218.00,0.0003
2217.00,0.0004
2216.00,0.0005
2215.00,0.0005
2214.00,0.0005
2213.00,0.0005
2212.00,0.0005
2211.00,0.0006
2210.00,0.0007
2209.00,0.0007
2208.00,0.0008
2207.00,0.0008
2206.00,0.0008
2205.00,0.0009
2204.00,0.0009
2203.00,0.0010
2202.00,0.0011
2201.00,0.0012
2200.00,0.0012
2199.00,0.0010
2198.00,0.0007
2197.00,0.0004
2196.00,0.0002
2195.00,0.0003
2194.00,0.0005
2193.00,0.0008
2192.00,0.0011
2191.00,0.0013
2190.00,0.0015
2189.00,0.0016
2188.00,0.0015
2187.00,0.0012
2186.00,0.0009
2185.00,0.0007
2184.00,0.0007
2183.00,0.0006
2182.00,0.0003
2181.00,0.0001
2180.00,0.0001
2179.00,0.0004
2178.00,0.0007
2177.00,0.0009
2176.00,0.0008
2175.00,0.0007
2174.00,0.0007
2173.00,0.0008
2172.00,0.0010
2171.00,0.0010
2170.00,0.0010
2169.00,0.0011
2168.00,0.0014
2167.00,0.0017
2166.00,0.0020
2165.00,0.0022
2164.00,0.0023
2163.00,0.0023
2162.00,0.0021
2161.00,0.0014
2160.00,0.0002
2159.00,-0.0013
2158.00,-0.0024
2157.00,-0.0028
2156.00,-0.0027
2155.00,-0.0023
2154.00,-0.0019
2153.00,-0.0017
2152.00,-0.0017
2151.00,-0.0017
2150.00,-0.0017
2149.00,-0.0017
2148.00,-0.0017
2147.00,-0.0017
2146.00,-0.0016
2145.00,-0.0014
2144.00,-0.0012
2143.00,-0.0011
2142.00,-0.0011
2141.00,-0.0012
2140.00,-0.0013
2139.00,-0.0014
2138.00,-0.0013
2137.00,-0.0012
2136.00,-0.0012
2135.00,-0.0014
2134.00,-0.0015
2133.00,-0.0015
2132.00,-0.0014
2131.00,-0.0013
2130.00,-0.0011
2129.00,-0.0010
2128.00,-0.0010
2127.00,-0.0009
2126.00,-0.0009
2125.00,-0.0008
2124.00,-0.0007
2123.00,-0.0007
2122.00,-0.0006
2121.00,-0.0004
2120.00,-0.0002
2119.00,-0.0000
2118.00,-0.0000
2117.00,0.0000
2116.00,0.0001
2115.00,0.0002
2114.00,0.0002
2113.00,0.0002
2112.00,0.0001
2111.00,-0.0000
2110.00,-0.0000
2109.00,0.0001
2108.00,0.0002
2107.00,0.0002
2106.00,0.0003
2105.00,0.0003
2104.00,0.0003
2103.00,0.0003
2102.00,0.0002
2101.00,0.0001
2100.00,0.0001
2099.00,0.0001
2098.00,0.0000
2097.00,-0.0000
2096.00,-0.0002
2095.00,-0.0003
2094.00,-0.0004
2093.00,-0.0003
2092.00,-0.0002
2091.00,-0.0001
2090.00,-0.0001
2089.00,0.0001
2088.00,0.0002
2087.00,0.0003
2086.00,0.0004
2085.00,0.0003
2084.00,0.0003
2083.00,0.0003
2082.00,0.0003
2081.00,0.0002
2080.00,0.0001
2079.00,0.0001
2078.00,0.0001
2077.00,0.0002
2076.00,0.0002
2075.00,0.0001
2074.00,-0.0001
2073.00,-0.0001
2072.00,-0.0000
2071.00,0.0001
2070.00,0.0002
2069.00,0.0002
2068.00,0.0000
2067.00,-0.0001
2066.00,-0.0002
2065.00,-0.0001
2064.00,0.0001
2063.00,0.0001
2062.00,0.0001
2061.00,0.0000
2060.00,0.0000
2059.00,-0.0000
2058.00,-0.0000
2057.00,0.0000
2056.00,0.0001
2055.00,0.0001
2054.00,0.0003
2053.00,0.0007
2052.00,0.0013
2051.00,0.0016
2050.00,0.0016
2049.00,0.0012
2048.00,0.0007
2047.00,0.0004
2046.00,0.0002
2045.00,0.0001
2044.00,0.0000
2043.00,0.0000
2042.00,0.0001
2041.00,0.0001
2040.00,0.0002
2039.00,0.0001
2038.00,-0.0001
2037.00,-0.0004
2036.00,-0.0004
2035.00,-0.0004
2034.00,-0.0004
2033.00,-0.0004
2032.00,-0.0006
2031.00,-0.0009
2030.00,-0.0011
2029.00,-0.0011
2028.00,-0.0010
2027.00,-0.0011
2026.00,-0.0013
2025.00,-0.0015
2024.00,-0.0015
2023.00,-0.0015
2022.00,-0.0013
2021.00,-0.0010
2020.00,-0.0006
2019.00,-0.0004
2018.00,-0.0002
2017.00,-0.0002
2016.00,-0.0003
2015.00,-0.0004
2014.00,-0.0006
2013.00,-0.0007
2012.00,-0.0008
2011.00,-0.0010
2010.00,-0.0011
2009.00,-0.0011
2008.00,-0.0011
2007.00,-0.0011
2006.00,-0.0012
2005.00,-0.0012
2004.00,-0.0012
2003.00,-0.0012
2002.00,-0.0013
2001.00,-0.0013
2000.00,-0.0013
1999.00,-0.0012
1998.00,-0.0010
1997.00,-0.0008
1996.00,-0.0006
1995.00,-0.0006
1994.00,-0.0006
1993.00,-0.0006
1992.00,-0.0006
1991.00,-0.0006
1990.00,-0.0005
1989.00,-0.0004
1988.00,-0.0003
1987.00,-0.0003
1986.00,-0.0003
1985.00,-0.0003
1984.00,-0.0001
1983.00,0.0002
1982.00,0.0006
1981.00,0.0007
1980.00,0.0006
1979.00,0.0002
1978.00,-0.0004
1977.00,-0.0008
1976.00,-0.0011
1975.00,-0.0014
1974.00,-0.0017
1973.00,-0.0018
1972.00,-0.0018
1971.00,-0.0016
1970.00,-0.0015
1969.00,-0.0015
1968.00,-0.0015
1967.00,-0.0015
1966.00,-0.0014
1965.00,-0.0012
1964.00,-0.0011
1963.00,-0.0012
1962.00,-0.0014
1961.00,-0.0016
1960.00,-0.0017
1959.00,-0.0018
1958.00,-0.0018
1957.00,-0.0017
1956.00,-0.0016
1955.00,-0.0015
1954.00,-0.0015
1953.00,-0.0016
1952.00,-0.0017
1951.00,-0.0019
1950.00,-0.0019
1949.00,-0.0018
1948.00,-0.0017
1947.00,-0.0018
1946.00,-0.0019
1945.00,-0.0019
1944.00,-0.0018
1943.00,-0.0016
1942.00,-0.0013
1941.00,-0.0010
1940.00,-0.0009
1939.00,-0.0009
1938.00,-0.0010
1937.00,-0.0011
1936.00,-0.0011
1935.00,-0.0011
1934.00,-0.0010
1933.00,-0.0009
1932.00,-0.0008
1931.00,-0.0008
1930.00,-0.0009
1929.00,-0.0008
1928.00,-0.0008
1927.00,-0.0007
1926.00,-0.0007
1925.00,-0.0006
1924.00,-0.0006
1923.00,-0.0006
1922.00,-0.0006
1921.00,-0.0005
1920.00,-0.0003
1919.00,-0.0002
1918.00,-0.0002
1917.00,-0.0002
1916.00,-0.0002
1915.00,-0.0001
1914.00,-0.0001
1913.00,-0.0002
1912.00,-0.0002
1911.00,-0.0002
1910.00,-0.0001
1909.00,-0.0000
1908.00,-0.0000
1907.00,-0.0001
1906.00,-0.0002
1905.00,-0.0002
1904.00,-0.0001
1903.00,-0.0001
1902.00,-0.0002
1901.00,-0.0003
1900.00,-0.0003
1899.00,-0.0002
1898.00,-0.0002
1897.00,-0.0001
1896.00,-0.0002
1895.00,-0.0002
1894.00,-0.0002
1893.00,-0.0002
1892.00,-0.0002
1891.00,-0.0001
1890.00,0.0000
1889.00,0.0000
1888.00,-0.0000
1887.00,-0.0001
1886.00,-0.0001
1885.00,-0.0001
1884.00,-0.0001
1883.00,-0.0000
1882.00,0.0000
1881.00,0.0001
1880.00,0.0001
1879.00,0.0001
1878.00,0.0001
1877.00,0.0001
1876.00,0.0000
1875.00,-0.0000
1874.00,-0.0001
1873.00,-0.0000
1872.00,0.0000
1871.00,0.0001
1870.00,0.0001
1869.00,0.0001
1868.00,0.0001
1867.00,0.0000
1866.00,-0.0000
1865.00,-0.0000
1864.00,0.0000
1863.00,0.0000
1862.00,-0.0000
1861.00,-0.0000
1860.00,0.0000
1859.00,0.0000
1858.00,0.0000
1857.00,0.0000
1856.00,-0.0000
1855.00,-0.0000
1854.00,-0.0000
1853.00,0.0000
1852.00,0.0001
1851.00,0.0001
1850.00,0.0001
1849.00,0.0001
1848.00,0.0001
1847.00,0.0001
1846.00,0.0000
1845.00,0.0001
1844.00,0.0002
1843.00,0.0003
1842.00,0.0003
1841.00,0.0003
1840.00,0.0004
1839.00,0.0004
1838.00,0.0004
1837.00,0.0004
1836.00,0.0004
1835.00,0.0004
1834.00,0.0004
1833.00,0.0005
1832.00,0.0005
1831.00,0.0005
1830.00,0.0005
1829.00,0.0005
1828.00,0.0005
1827.00,0.0004
1826.00,0.0004
1825.00,0.0003
1824.00,0.0003
1823.00,0.0003
1822.00,0.0003
1821.00,0.0002
1820.00,0.0002
1819.00,0.0001
1818.00,0.0000
1817.00,0.0000
1816.00,0.0001
1815.00,0.0001
1814.00,0.0002
1813.00,0.0002
1812.00,0.0002
1811.00,0.0002
1810.00,0.0003
1809.00,0.0003
1808.00,0.0003
1807.00,0.0003
1806.00,0.0003
1805.00,0.0004
1804.00,0.0004
1803.00,0.0005
1802.00,0.0005
1801.00,0.0005
1800.00,0.0005
1799.00,0.0005
1798.00,0.0005
1797.00,0.0005
1796.00,0.0005
1795.00,0.0005
1794.00,0.0005
1793.00,0.0005
1792.00,0.0006
1791.00,0.0006
1790.00,0.0006
1789.00,0.0006
1788.00,0.0006
1787.00,0.0007
1786.00,0.0007
1785.00,0.0008
1784.00,0.0008
1783.00,0.0008
1782.00,0.0008
1781.00,0.0008
1780.00,0.0008
1779.00,0.0008
1778.00,0.0007
1777.00,0.0007
1776.00,0.0007
1775.00,0.0007
1774.00,0.0008
1773.00,0.0008
1772.00,0.0009
1771.00,0.0010
1770.00,0.0010
1769.00,0.0010
1768.00,0.0010
1767.00,0.0010
1766.00,0.0011
1765.00,0.0011
1764.00,0.0011
1763.00,0.0011
1762.00,0.0011
1761.00,0.0011
1760.00,0.0012
1759.00,0.0013
1758.00,0.0014
1757.00,0.0015
1756.00,0.0015
1755.00,0.0016
1754.00,0.0017
1753.00,0.0018
1752.00,0.0020
1751.00,0.0021
1750.00,0.0023
1749.00,0.0024
1748.00,0.0025
1747.00,0.0026
1746.00,0.0027
1745.00,0.0028
1744.00,0.0029
1743.00,0.0030
1742.00,0.0030
1741.00,0.0030
1740.00,0.0030
1739.00,0.0030
1738.00,0.0030
1737.00,0.0030
1736.00,0.0030
1735.00,0.0031
1734.00,0.0031
1733.00,0.0031
1732.00,0.0030
1731.00,0.0029
1730.00,0.0029
1729.00,0.0028
1728.00,0.0028
1727.00,0.0027
1726.00,0.0027
1725.00,0.0026
1724.00,0.0026
1723.00,0.0026
1722.00,0.0026
1721.00,0.0025
1720.00,0.0025
1719.00,0.0024
1718.00,0.0024
1717.00,0.0024
1716.00,0.0024
1715.00,0.0023
1714.00,0.0023
1713.00,0.0023
1712.00,0.0023
1711.00,0.0023
1710.00,0.0023
1709.00,0.0023
1708.00,0.0023
1707.00,0.0023
1706.00,0.0023
1705.00,0.0023
1704.00,0.0024
1703.00,0.0024
1702.00,0.0024
1701.00,0.0025
1700.00,0.0025
1699.00,0.0025
1698.00,0.0025
1697.00,0.0026
1696.00,0.0026
1695.00,0.0027
1694.00,0.0027
1693.00,0.0027
1692.00,0.0027
1691.00,0.0028
1690.00,0.0028
1689.00,0.0029
1688.00,0.0029
1687.00,0.0029
1686.00,0.0029
1685.00,0.0030
1684.00,0.0031
1683.00,0.0031
1682.00,0.0032
1681.00,0.0032
1680.00,0.0033
1679.00,0.0033
1678.00,0.0033
1677.00,0.0033
1676.00,0.0033
1675.00,0.0034
1674.00,0.0035
1673.00,0.0035
1672.00,0.0036
1671.00,0.0037
1670.00,0.0037
1669.00,0.0037
1668.00,0.0037
1667.00,0.0037
1666.00,0.0038
1665.00,0.0039
1664.00,0.0039
1663.00,0.0039
1662.00,0.0039
1661.00,0.0039
1660.00,0.0040
1659.00,0.0040
1658.00,0.0041
1657.00,0.0041
1656.00,0.0041
1655.00,0.0042
1654.00,0.0042
1653.00,0.0043
1652.00,0.0043
1651.00,0.0043
1650.00,0.0043
1649.00,0.0044
1648.00,0.0044
1647.00,0.0044
1646.00,0.0044
1645.00,0.0044
1644.00,0.0044
1643.00,0.0044
1642.00,0.0044
1641.00,0.0045
1640.00,0.0046
1639.00,0.0046
1638.00,0.0047
1637.00,0.0047
1636.00,0.0047
1635.00,0.0046
1634.00,0.0045
1633.00,0.0045
1632.00,0.0046
1631.00,0.0046
1630.00,0.0046
1629.00,0.0047
1628.00,0.0047
1627.00,0.0047
1626.00,0.0047
1625.00,0.0047
1624.00,0.0047
1623.00,0.0046
1622.00,0.0046
1621.00,0.0045
1620.00,0.0045
1619.00,0.0045
1618.00,0.0045
1617.00,0.0044
1616.00,0.0044
1615.00,0.0044
1614.00,0.0045
1613.00,0.0045
1612.00,0.0045
1611.00,0.0045
1610.00,0.0044
1609.00,0.0044
1608.00,0.0045
1607.00,0.0045
1606.00,0.0045
1605.00,0.0045
1604.00,0.0045
1603.00,0.0045
1602.00,0.0045
1601.00,0.0044
1600.00,0.0044
1599.00,0.0044
1598.00,0.0044
1597.00,0.0044
1596.00,0.0044
1595.00,0.0045
1594.00,0.0045
1593.00,0.0045
1592.00,0.0046
1591.00,0.0047
1590.00,0.0047
1589.00,0.0048
1588.00,0.0049
1587.00,0.0050
1586.00,0.0051
1585.00,0.0052
1584.00,0.0054
1583.00,0.0056
1582.00,0.0057
1581.00,0.0059
1580.00,0.0061
1579.00,0.0062
1578.00,0.0062
1577.00,0.0062
1576.00,0.0062
1575.00,0.0061
1574.00,0.0060
1573.00,0.0059
1572.00,0.0058
1571.00,0.0057
1570.00,0.0055
1569.00,0.0053
1568.00,0.0052
1567.00,0.0051
1566.00,0.0051
1565.00,0.0051
1564.00,0.0051
1563.00,0.0051
1562.00,0.0051
1561.00,0.0052
1560.00,0.0052
1559.00,0.0052
1558.00,0.0051
1557.00,0.0052
1556.00,0.0053
1555.00,0.0053
1554.00,0.0053
1553.00,0.0054
1552.00,0.0055
1551.00,0.0056
1550.00,0.0057
1549.00,0.0058
1548.00,0.0060
1547.00,0.0062
1546.00,0.0064
1545.00,0.0066
1544.00,0.0069
1543.00,0.0071
1542.00,0.0072
1541.00,0.0072
1540.00,0.0070
1539.00,0.0066
1538.00,0.0063
1537.00,0.0062
1536.00,0.0061
1535.00,0.0058
1534.00,0.0056
1533.00,0.0053
1532.00,0.0050
1531.00,0.0049
1530.00,0.0048
1529.00,0.0048
1528.00,0.0049
1527.00,0.0049
1526.00,0.0048
1525.00,0.0048
1524.00,0.0048
1523.00,0.0048
1522.00,0.0048
1521.00,0.0048
1520.00,0.0049
1519.00,0.0049
1518.00,0.0049
1517.00,0.0050
1516.00,0.0051
1515.00,0.0051
1514.00,0.0051
1513.00,0.0052
1512.00,0.0053
1511.00,0.0054
1510.00,0.0054
1509.00,0.0055
1508.00,0.0056
1507.00,0.0057
1506.00,0.0058
1505.00,0.0059
1504.00,0.0061
1503.00,0.0063
1502.00,0.0065
1501.00,0.0067
1500.00,0.0069
1499.00,0.0071
1498.00,0.0073
1497.00,0.0076
1496.00,0.0081
1495.00,0.0083
1494.00,0.0086
1493.00,0.0089
1492.00,0.0092
1491.00,0.0096
1490.00,0.0100
1489.00,0.0105
1488.00,0.0110
1487.00,0.0114
1486.00,0.0119
1485.00,0.0125
1484.00,0.0132
1483.00,0.0140
1482.00,0.0149
1481.00,0.0160
1480.00,0.0173
1479.00,0.0185
1478.00,0.0200
1477.00,0.0220
1476.00,0.0243
1475.00,0.0269
1474.00,0.0304
1473.00,0.0356
1472.00,0.0420
1471.00,0.0483
1470.00,0.0544
1469.00,0.0608
1468.00,0.0677
1467.00,0.0754
1466.00,0.0843
1465.00,0.0942
1464.00,0.1030
1463.00,0.1093
1462.00,0.1134
1461.00,0.1163
1460.00,0.1182
1459.00,0.1196
1458.00,0.1208
1457.00,0.1220
1456.00,0.1224
1455.00,0.1219
1454.00,0.1209
1453.00,0.1192
1452.00,0.1165
1451.00,0.1124
1450.00,0.1068
1449.00,0.0992
1448.00,0.0896
1447.00,0.0796
1446.00,0.0707
1445.00,0.0632
1444.00,0.0569
1443.00,0.0519
1442.00,0.0482
1441.00,0.0457
1440.00,0.0444
1439.00,0.0440
1438.00,0.0444
1437.00,0.0448
1436.00,0.0439
1435.00,0.0414
1434.00,0.0375
1433.00,0.0329
1432.00,0.0281
1431.00,0.0239
1430.00,0.0207
1429.00,0.0183
1428.00,0.0168
1427.00,0.0159
1426.00,0.0153
1425.00,0.0147
1424.00,0.0142
1423.00,0.0138
1422.00,0.0136
1421.00,0.0134
1420.00,0.0132
1419.00,0.0130
1418.00,0.0128
1417.00,0.0125
1416.00,0.0122
1415.00,0.0121
1414.00,0.0119
1413.00,0.0117
1412.00,0.0115
1411.00,0.0115
1410.00,0.0115
1409.00,0.0114
1408.00,0.0113
1407.00,0.0113
1406.00,0.0114
1405.00,0.0113
1404.00,0.0113
1403.00,0.0114
1402.00,0.0115
1401.00,0.0116
1400.00,0.0117
1399.00,0.0119
1398.00,0.0122
1397.00,0.0124
1396.00,0.0126
1395.00,0.0130
1394.00,0.0136
1393.00,0.0141
1392.00,0.0147
1391.00,0.0156
1390.00,0.0169
1389.00,0.0185
1388.00,0.0210
1387.00,0.0247
1386.00,0.0296
1385.00,0.0358
1384.00,0.0441
1383.00,0.0554
1382.00,0.0705
1381.00,0.0902
1380.00,0.1149
1379.00,0.1435
1378.00,0.1720
1377.00,0.1938
1376.00,0.2027
1375.00,0.1945
1374.00,0.1711
1373.00,0.1416
1372.00,0.1140
1371.00,0.0911
1370.00,0.0727
1369.00,0.0587
1368.00,0.0491
1367.00,0.0432
1366.00,0.0400
1365.00,0.0387
1364.00,0.0390
1363.00,0.0405
1362.00,0.0429
1361.00,0.0455
1360.00,0.0474
1359.00,0.0480
1358.00,0.0467
1357.00,0.0438
1356.00,0.0397
1355.00,0.0352
1354.00,0.0308
1353.00,0.0271
1352.00,0.0241
1351.00,0.0217
1350.00,0.0197
1349.00,0.0182
1348.00,0.0169
1347.00,0.0159
1346.00,0.0152
1345.00,0.0145
1344.00,0.0140
1343.00,0.0136
1342.00,0.0133
1341.00,0.0130
1340.00,0.0127
1339.00,0.0125
1338.00,0.0123
1337.00,0.0123
1336.00,0.0125
1335.00,0.0128
1334.00,0.0131
1333.00,0.0135
1332.00,0.0139
1331.00,0.0143
1330.00,0.0144
1329.00,0.0142
1328.00,0.0139
1327.00,0.0133
1326.00,0.0126
1325.00,0.0119
1324.00,0.0113
1323.00,0.0107
1322.00,0.0103
1321.00,0.0099
1320.00,0.0097
1319.00,0.0094
1318.00,0.0092
1317.00,0.0090
1316.00,0.0089
1315.00,0.0087
1314.00,0.0087
1313.00,0.0087
1312.00,0.0088
1311.00,0.0090
1310.00,0.0094
1309.00,0.0100
1308.00,0.0108
1307.00,0.0117
1306.00,0.0126
1305.00,0.0133
1304.00,0.0136
1303.00,0.0136
1302.00,0.0134
1301.00,0.0131
1300.00,0.0130
1299.00,0.0130
1298.00,0.0131
1297.00,0.0132
1296.00,0.0131
1295.00,0.0128
1294.00,0.0125
1293.00,0.0120
1292.00,0.0114
1291.00,0.0109
1290.00,0.0105
1289.00,0.0101
1288.00,0.0097
1287.00,0.0094
1286.00,0.0091
1285.00,0.0089
1284.00,0.0088
1283.00,0.0086
1282.00,0.0085
1281.00,0.0084
1280.00,0.0082
1279.00,0.0081
1278.00,0.0080
1277.00,0.0079
1276.00,0.0078
1275.00,0.0078
1274.00,0.0078
1273.00,0.0078
1272.00,0.0078
1271.00,0.0079
1270.00,0.0079
1269.00,0.0080
1268.00,0.0082
1267.00,0.0083
1266.00,0.0085
1265.00,0.0086
1264.00,0.0088
1263.00,0.0090
1262.00,0.0093
1261.00,0.0097
1260.00,0.0103
1259.00,0.0109
1258.00,0.0115
1257.00,0.0120
1256.00,0.0122
1255.00,0.0120
1254.00,0.0116
1253.00,0.0110
1252.00,0.0103
1251.00,0.0098
1250.00,0.0095
1249.00,0.0092
1248.00,0.0090
1247.00,0.0088
1246.00,0.0087
1245.00,0.0086
1244.00,0.0085
1243.00,0.0085
1242.00,0.0085
1241.00,0.0085
1240.00,0.0084
1239.00,0.0083
1238.00,0.0083
1237.00,0.0083
1236.00,0.0082
1235.00,0.0082
1234.00,0.0082
1233.00,0.0082
1232.00,0.0082
1231.00,0.0083
1230.00,0.0083
1229.00,0.0084
1228.00,0.0086
1227.00,0.0088
1226.00,0.0091
1225.00,0.0093
1224.00,0.0096
1223.00,0.0099
1222.00,0.0102
1221.00,0.0104
1220.00,0.0106
1219.00,0.0107
1218.00,0.0108
1217.00,0.0107
1216.00,0.0105
1215.00,0.0102
1214.00,0.0098
1213.00,0.0095
1212.00,0.0091
1211.00,0.0088
1210.00,0.0086
1209.00,0.0084
1208.00,0.0083
1207.00,0.0083
1206.00,0.0082
1205.00,0.0081
1204.00,0.0081
1203.00,0.0080
1202.00,0.0079
1201.00,0.0079
1200.00,0.0078
1199.00,0.0078
1198.00,0.0078
1197.00,0.0079
1196.00,0.0080
1195.00,0.0081
1194.00,0.0081
1193.00,0.0081
1192.00,0.0080
1191.00,0.0080
1190.00,0.0080
1189.00,0.0080
1188.00,0.0081
1187.00,0.0082
1186.00,0.0083
1185.00,0.0083
1184.00,0.0084
1183.00,0.0085
1182.00,0.0087
1181.00,0.0088
1180.00,0.0091
1179.00,0.0094
1178.00,0.0099
1177.00,0.0106
1176.00,0.0116
1175.00,0.0129
1174.00,0.0147
1173.00,0.0168
1172.00,0.0193
1171.00,0.0221
1170.00,0.0248
1169.00,0.0271
1168.00,0.0285
1167.00,0.0290
1166.00,0.0285
1165.00,0.0274
1164.00,0.0260
1163.00,0.0246
1162.00,0.0233
1161.00,0.0223
1160.00,0.0214
1159.00,0.0207
1158.00,0.0201
1157.00,0.0198
1156.00,0.0196
1155.00,0.0195
1154.00,0.0194
1153.00,0.0191
1152.00,0.0187
1151.00,0.0181
1150.00,0.0173
1149.00,0.0164
1148.00,0.0154
1147.00,0.0145
1146.00,0.0137
1145.00,0.0129
1144.00,0.0122
1143.00,0.0115
1142.00,0.0109
1141.00,0.0103
1140.00,0.0098
1139.00,0.0094
1138.00,0.0091
1137.00,0.0089
1136.00,0.0087
1135.00,0.0085
1134.00,0.0084
1133.00,0.0083
1132.00,0.0082
1131.00,0.0082
1130.00,0.0083
1129.00,0.0084
1128.00,0.0085
1127.00,0.0087
1126.00,0.0088
1125.00,0.0089
1124.00,0.0089
1123.00,0.0088
1122.00,0.0087
1121.00,0.0086
1120.00,0.0085
1119.00,0.0086
1118.00,0.0087
1117.00,0.0090
1116.00,0.0092
1115.00,0.0094
1114.00,0.0096
1113.00,0.0097
1112.00,0.0098
1111.00,0.0099
1110.00,0.0102
1109.00,0.0106
1108.00,0.0111
1107.00,0.0118
1106.00,0.0125
1105.00,0.0132
1104.00,0.0138
1103.00,0.0142
1102.00,0.0142
1101.00,0.0140
1100.00,0.0135
1099.00,0.0129
1098.00,0.0122
1097.00,0.0114
1096.00,0.0108
1095.00,0.0103
1094.00,0.0098
1093.00,0.0095
1092.00,0.0092
1091.00,0.0090
1090.00,0.0088
1089.00,0.0086
1088.00,0.0084
1087.00,0.0082
1086.00,0.0082
1085.00,0.0081
1084.00,0.0081
1083.00,0.0080
1082.00,0.0079
1081.00,0.0078
1080.00,0.0077
1079.00,0.0076
1078.00,0.0076
1077.00,0.0077
1076.00,0.0076
1075.00,0.0076
1074.00,0.0076
1073.00,0.0076
1072.00,0.0077
1071.00,0.0077
1070.00,0.0077
1069.00,0.0077
1068.00,0.0077
1067.00,0.0077
1066.00,0.0077
1065.00,0.0077
1064.00,0.0076
1063.00,0.0077
1062.00,0.0077
1061.00,0.0078
1060.00,0.0079
1059.00,0.0080
1058.00,0.0081
1057.00,0.0081
1056.00,0.0082
1055.00,0.0082
1054.00,0.0083
1053.00,0.0084
1052.00,0.0084
1051.00,0.0085
1050.00,0.0087
1049.00,0.0089
1048.00,0.0091
1047.00,0.0093
1046.00,0.0095
1045.00,0.0096
1044.00,0.0096
1043.00,0.0095
1042.00,0.0093
1041.00,0.0092
1040.00,0.0092
1039.00,0.0093
1038.00,0.0094
1037.00,0.0095
1036.00,0.0095
1035.00,0.0094
1034.00,0.0093
1033.00,0.0092
1032.00,0.0091
1031.00,0.0091
1030.00,0.0090
1029.00,0.0090
1028.00,0.0089
1027.00,0.0088
1026.00,0.0088
1025.00,0.0087
1024.00,0.0087
1023.00,0.0087
1022.00,0.0087
1021.00,0.0087
1020.00,0.0088
1019.00,0.0090
1018.00,0.0093
1017.00,0.0095
1016.00,0.0096
1015.00,0.0098
1014.00,0.0101
1013.00,0.0104
1012.00,0.0108
1011.00,0.0112
1010.00,0.0115
1009.00,0.0117
1008.00,0.0120
1007.00,0.0124
1006.00,0.0130
1005.00,0.0140
1004.00,0.0154
1003.00,0.0174
1002.00,0.0198
1001.00,0.0227
1000.00,0.0257
999.00,0.0282
998.00,0.0293
997.00,0.0287
996.00,0.0266
995.00,0.0234
994.00,0.0201
993.00,0.0172
992.00,0.0149
991.00,0.0133
990.00,0.0122
989.00,0.0115
988.00,0.0111
987.00,0.0110
986.00,0.0111
985.00,0.0113
984.00,0.0118
983.00,0.0126
982.00,0.0138
981.00,0.0154
980.00,0.0174
979.00,0.0200
978.00,0.0232
977.00,0.0268
976.00,0.0306
975.00,0.0341
974.00,0.0367
973.00,0.0374
972.00,0.0360
971.00,0.0327
970.00,0.0284
969.00,0.0240
968.00,0.0201
967.00,0.0172
966.00,0.0150
965.00,0.0134
964.00,0.0123
963.00,0.0114
962.00,0.0107
961.00,0.0102
960.00,0.0097
959.00,0.0093
958.00,0.0090
957.00,0.0088
956.00,0.0086
955.00,0.0084
954.00,0.0083
953.00,0.0082
952.00,0.0081
951.00,0.0080
950.00,0.0080
949.00,0.0080
948.00,0.0080
947.00,0.0082
946.00,0.0084
945.00,0.0087
944.00,0.0091
943.00,0.0094
942.00,0.0097
941.00,0.0098
940.00,0.0097
939.00,0.0094
938.00,0.0090
937.00,0.0085
936.00,0.0080
935.00,0.0075
934.00,0.0072
933.00,0.0068
932.00,0.0066
931.00,0.0064
930.00,0.0063
929.00,0.0064
928.00,0.0064
927.00,0.0064
926.00,0.0063
925.00,0.0063
924.00,0.0063
923.00,0.0064
922.00,0.0065
921.00,0.0066
920.00,0.0066
919.00,0.0067
918.00,0.0068
917.00,0.0069
916.00,0.0070
915.00,0.0071
914.00,0.0072
913.00,0.0074
912.00,0.0076
911.00,0.0077
910.00,0.0078
909.00,0.0080
908.00,0.0082
907.00,0.0086
906.00,0.0094
905.00,0.0106
904.00,0.0122
903.00,0.0141
902.00,0.0161
901.00,0.0178
900.00,0.0190
899.00,0.0193
898.00,0.0186
897.00,0.0170
896.00,0.0150
895.00,0.0130
894.00,0.0113
893.00,0.0101
892.00,0.0091
891.00,0.0085
890.00,0.0080
889.00,0.0076
888.00,0.0074
887.00,0.0072
886.00,0.0072
885.00,0.0072
884.00,0.0073
883.00,0.0073
882.00,0.0073
881.00,0.0074
880.00,0.0075
879.00,0.0075
878.00,0.0075
877.00,0.0075
876.00,0.0074
875.00,0.0073
874.00,0.0072
873.00,0.0072
872.00,0.0072
871.00,0.0073
870.00,0.0073
869.00,0.0073
868.00,0.0073
867.00,0.0073
866.00,0.0073
865.00,0.0073
864.00,0.0074
863.00,0.0076
862.00,0.0078
861.00,0.0081
860.00,0.0082
859.00,0.0083
858.00,0.0083
857.00,0.0083
856.00,0.0084
855.00,0.0086
854.00,0.0089
853.00,0.0092
852.00,0.0095
851.00,0.0098
850.00,0.0102
849.00,0.0109
848.00,0.0117
847.00,0.0129
846.00,0.0147
845.00,0.0173
844.00,0.0207
843.00,0.0245
842.00,0.0273
841.00,0.0280
840.00,0.0262
839.00,0.0228
838.00,0.0191
837.00,0.0162
836.00,0.0143
835.00,0.0131
834.00,0.0123
833.00,0.0117
832.00,0.0112
831.00,0.0108
830.00,0.0105
829.00,0.0104
828.00,0.0103
827.00,0.0102
826.00,0.0100
825.00,0.0100
824.00,0.0101
823.00,0.0103
822.00,0.0104
821.00,0.0104
820.00,0.0104
819.00,0.0105
818.00,0.0111
817.00,0.0119
816.00,0.0129
815.00,0.0140
814.00,0.0153
813.00,0.0167
812.00,0.0183
811.00,0.0200
810.00,0.0214
809.00,0.0222
808.00,0.0220
807.00,0.0209
806.00,0.0192
805.00,0.0175
804.00,0.0159
803.00,0.0146
802.00,0.0136
801.00,0.0127
800.00,0.0119
799.00,0.0112
798.00,0.0106
797.00,0.0102
796.00,0.0099
795.00,0.0096
794.00,0.0093
793.00,0.0089
792.00,0.0085
791.00,0.0082
790.00,0.0080
789.00,0.0078
788.00,0.0077
787.00,0.0074
786.00,0.0072
785.00,0.0069
784.00,0.0067
783.00,0.0065
782.00,0.0064
781.00,0.0063
780.00,0.0062
779.00,0.0062
778.00,0.0062
777.00,0.0062
776.00,0.0062
775.00,0.0062
774.00,0.0062
773.00,0.0064
772.00,0.0066
771.00,0.0067
770.00,0.0069
769.00,0.0071
768.00,0.0073
767.00,0.0073
766.00,0.0073
765.00,0.0072
764.00,0.0070
763.00,0.0068
762.00,0.0066
761.00,0.0063
760.00,0.0061
759.00,0.0059
758.00,0.0057
757.00,0.0056
756.00,0.0055
755.00,0.0054
754.00,0.0054
753.00,0.0055
752.00,0.0054
751.00,0.0053
750.00,0.0052
749.00,0.0052
748.00,0.0053
747.00,0.0055
746.00,0.0057
745.00,0.0058
744.00,0.0060
743.00,0.0061
742.00,0.0062
741.00,0.0064
740.00,0.0066
739.00,0.0069
738.00,0.0072
737.00,0.0075
736.00,0.0078
735.00,0.0079
734.00,0.0079
733.00,0.0080
732.00,0.0080
731.00,0.0081
730.00,0.0081
729.00,0.0081
728.00,0.0081
727.00,0.0080
726.00,0.0078
725.00,0.0076
724.00,0.0074
723.00,0.0073
722.00,0.0070
721.00,0.0067
720.00,0.0063
719.00,0.0061
718.00,0.0059
717.00,0.0058
716.00,0.0057
715.00,0.0057
714.00,0.0057
713.00,0.0057
712.00,0.0059
711.00,0.0061
710.00,0.0064
709.00,0.0066
708.00,0.0065
707.00,0.0064
706.00,0.0061
705.00,0.0060
704.00,0.0059
703.00,0.0059
702.00,0.0059
701.00,0.0058
700.00,0.0057
699.00,0.0058
698.00,0.0058
697.00,0.0058
696.00,0.0057
695.00,0.0055
694.00,0.0055
693.00,0.0055
692.00,0.0055
691.00,0.0055
690.00,0.0054
689.00,0.0053
688.00,0.0053
687.00,0.0053
686.00,0.0052
685.00,0.0052
684.00,0.0053
683.00,0.0055
682.00,0.0056
681.00,0.0057
680.00,0.0057
679.00,0.0056
678.00,0.0056
677.00,0.0056
676.00,0.0058
675.00,0.0060
674.00,0.0061
673.00,0.0059
672.00,0.0056
671.00,0.0053
670.00,0.0051
669.00,0.0052
668.00,0.0056
667.00,0.0060
666.00,0.0062
665.00,0.0061
664.00,0.0058
663.00,0.0055
662.00,0.0053
661.00,0.0052
660.00,0.0052
659.00,0.0053
658.00,0.0054
657.00,0.0054
656.00,0.0052
655.00,0.0052
654.00,0.0052
653.00,0.0054
652.00,0.0055
651.00,0.0055
650.00,0.0053
649.00,0.0050
648.00,0.0050
647.00,0.0052
646.00,0.0055
645.00,0.0059
644.00,0.0060
643.00,0.0060
642.00,0.0060
641.00,0.0060
640.00,0.0060
639.00,0.0061
638.00,0.0061
637.00,0.0059
636.00,0.0058
635.00,0.0059
634.00,0.0060
633.00,0.0061
632.00,0.0061
631.00,0.0060
630.00,0.0058
629.00,0.0056
628.00,0.0054
627.00,0.0053
626.00,0.0053
625.00,0.0054
624.00,0.0054
623.00,0.0054
622.00,0.0057
621.00,0.0060
620.00,0.0063
619.00,0.0064
618.00,0.0063
617.00,0.0061
616.00,0.0059
615.00,0.0058
614.00,0.0059
613.00,0.0060
612.00,0.0061
611.00,0.0063
610.00,0.0065
609.00,0.0066
608.00,0.0066
607.00,0.0063
606.00,0.0060
605.00,0.0057
604.00,0.0055
603.00,0.0057
602.00,0.0060
601.00,0.0064
600.00,0.0066
599.00,0.0066
598.00,0.0064
597.00,0.0064
596.00,0.0064
595.00,0.0065
594.00,0.0065
593.00,0.0064
592.00,0.0064
591.00,0.0063
590.00,0.0062
589.00,0.0061
588.00,0.0062
587.00,0.0064
586.00,0.0066
585.00,0.0067
584.00,0.0068
583.00,0.0071
582.00,0.0074
581.00,0.0074
580.00,0.0071
579.00,0.0067
578.00,0.0064
577.00,0.0063
576.00,0.0062
575.00,0.0061
574.00,0.0060
573.00,0.0060
572.00,0.0061
571.00,0.0060
570.00,0.0059
569.00,0.0059
568.00,0.0060
567.00,0.0062
566.00,0.0064
565.00,0.0065
564.00,0.0064
563.00,0.0061
562.00,0.0058
561.00,0.0058
560.00,0.0061
559.00,0.0065
558.00,0.0067
557.00,0.0065
556.00,0.0062
555.00,0.0061
554.00,0.0062
553.00,0.0063
552.00,0.0063
551.00,0.0061
550.00,0.0060
549.00,0.0061
548.00,0.0064
547.00,0.0067
546.00,0.0070
545.00,0.0072
544.00,0.0071
543.00,0.0067
542.00,0.0065
541.00,0.0064
540.00,0.0066
539.00,0.0068
538.00,0.0071
537.00,0.0074
536.00,0.0076
535.00,0.0077
534.00,0.0078
533.00,0.0081
532.00,0.0086
531.00,0.0090
530.00,0.0092
529.00,0.0092
528.00,0.0090
527.00,0.0088
526.00,0.0083
525.00,0.0078
524.00,0.0076
523.00,0.0076
522.00,0.0076
521.00,0.0076
520.00,0.0077
519.00,0.0080
518.00,0.0084
517.00,0.0087
516.00,0.0088
515.00,0.0086
514.00,0.0082
513.00,0.0079
512.00,0.0079
511.00,0.0082
510.00,0.0085
509.00,0.0084
508.00,0.0082
507.00,0.0082
506.00,0.0082
505.00,0.0082
504.00,0.0082
503.00,0.0082
502.00,0.0083
501.00,0.0081
500.00,0.0078
499.00,0.0078
498.00,0.0082
497.00,0.0085
496.00,0.0083
495.00,0.0076
494.00,0.0067
493.00,0.0061
492.00,0.0059
491.00,0.0060
490.00,0.0065
489.00,0.0070
488.00,0.0075
487.00,0.0078
486.00,0.0077
485.00,0.0074
484.00,0.0070
483.00,0.0068
482.00,0.0068
481.00,0.0069
480.00,0.0070
479.00,0.0070
478.00,0.0069
477.00,0.0067
476.00,0.0067
475.00,0.0071
474.00,0.0074
473.00,0.0076
472.00,0.0077
471.00,0.0081
470.00,0.0086
469.00,0.0089
468.00,0.0092
467.00,0.0098
466.00,0.0110
465.00,0.0121
464.00,0.0127
463.00,0.0128
462.00,0.0135
461.00,0.0151
460.00,0.0170
459.00,0.0178
458.00,0.0167
457.00,0.0146
456.00,0.0128
455.00,0.0119
454.00,0.0111
453.00,0.0101
452.00,0.0090
451.00,0.0081
450.00,0.0077
