Created as New Dataset,Sample 150 By Administrator Date Wednesday, September 10 2025
cm-1,A
4000.00,0.0011
3999.00,0.0011
3998.00,0.0011
3997.00,0.0011
3996.00,0.0011
3995.00,0.0011
3994.00,0.0010
3993.00,0.0010
3992.00,0.0010
3991.00,0.0009
3990.00,0.0009
3989.00,0.0009
3988.00,0.0009
3987.00,0.0009
3986.00,0.0009
3985.00,0.0009
3984.00,0.0010
3983.00,0.0010
3982.00,0.0010
3981.00,0.0010
3980.00,0.0010
3979.00,0.0009
3978.00,0.0009
3977.00,0.0009
3976.00,0.0009
3975.00,0.0009
3974.00,0.0009
3973.00,0.0009
3972.00,0.0008
3971.00,0.0008
3970.00,0.0008
3969.00,0.0008
3968.00,0.0008
3967.00,0.0008
3966.00,0.0009
3965.00,0.0009
3964.00,0.0009
3963.00,0.0009
3962.00,0.0008
3961.00,0.0008
3960.00,0.0008
3959.00,0.0008
3958.00,0.0008
3957.00,0.0009
3956.00,0.0009
3955.00,0.0009
3954.00,0.0009
3953.00,0.0009
3952.00,0.0009
3951.00,0.0009
3950.00,0.0009
3949.00,0.0009
3948.00,0.0009
3947.00,0.0008
3946.00,0.0008
3945.00,0.0008
3944.00,0.0009
3943.00,0.0009
3942.00,0.0009
3941.00,0.0009
3940.00,0.0008
3939.00,0.0008
3938.00,0.0008
3937.00,0.0008
3936.00,0.0009
3935.00,0.0009
3934.00,0.0009
3933.00,0.0009
3932.00,0.0009
3931.00,0.0009
3930.00,0.0009
3929.00,0.0008
3928.00,0.0008
3927.00,0.0008
3926.00,0.0008
3925.00,0.0008
3924.00,0.0008
3923.00,0.0008
3922.00,0.0008
3921.00,0.0008
3920.00,0.0008
3919.00,0.0008
3918.00,0.0009
3917.00,0.0008
3916.00,0.0008
3915.00,0.0008
3914.00,0.0008
3913.00,0.0008
3912.00,0.0008
3911.00,0.0009
3910.00,0.0009
3909.00,0.0009
3908.00,0.0009
3907.00,0.0009
3906.00,0.0008
3905.00,0.0008
3904.00,0.0008
3903.00,0.0008
3902.00,0.0008
3901.00,0.0008
3900.00,0.0008
3899.00,0.0007
3898.00,0.0007
3897.00,0.0008
3896.00,0.0008
3895.00,0.0008
3894.00,0.0009
3893.00,0.0009
3892.00,0.0009
3891.00,0.0009
3890.00,0.0008
3889.00,0.0008
3888.00,0.0007
3887.00,0.0007
3886.00,0.0008
3885.00,0.0008
3884.00,0.0007
3883.00,0.0007
3882.00,0.0007
3881.00,0.0007
3880.00,0.0007
3879.00,0.0007
3878.00,0.0007
3877.00,0.0007
3876.00,0.0007
3875.00,0.0008
3874.00,0.0008
3873.00,0.0008
3872.00,0.0008
3871.00,0.0008
3870.00,0.0008
3869.00,0.0008
3868.00,0.0008
3867.00,0.0007
3866.00,0.0007
3865.00,0.0007
3864.00,0.0007
3863.00,0.0007
3862.00,0.0007
3861.00,0.0007
3860.00,0.0007
3859.00,0.0007
3858.00,0.0008
3857.00,0.0008
3856.00,0.0008
3855.00,0.0008
3854.00,0.0007
3853.00,0.0007
3852.00,0.0006
3851.00,0.0006
3850.00,0.0006
3849.00,0.0006
3848.00,0.0007
3847.00,0.0007
3846.00,0.0007
3845.00,0.0008
3844.00,0.0008
3843.00,0.0008
3842.00,0.0008
3841.00,0.0007
3840.00,0.0007
3839.00,0.0007
3838.00,0.0007
3837.00,0.0007
3836.00,0.0007
3835.00,0.0007
3834.00,0.0007
3833.00,0.0007
3832.00,0.0007
3831.00,0.0007
3830.00,0.0007
3829.00,0.0007
3828.00,0.0008
3827.00,0.0008
3826.00,0.0009
3825.00,0.0009
3824.00,0.0008
3823.00,0.0008
3822.00,0.0008
3821.00,0.0009
3820.00,0.0009
3819.00,0.0008
3818.00,0.0007
3817.00,0.0007
3816.00,0.0007
3815.00,0.0007
3814.00,0.0007
3813.00,0.0007
3812.00,0.0008
3811.00,0.0008
3810.00,0.0008
3809.00,0.0008
3808.00,0.0008
3807.00,0.0008
3806.00,0.0008
3805.00,0.0008
3804.00,0.0007
3803.00,0.0007
3802.00,0.0007
3801.00,0.0007
3800.00,0.0007
3799.00,0.0006
3798.00,0.0006
3797.00,0.0006
3796.00,0.0006
3795.00,0.0007
3794.00,0.0007
3793.00,0.0007
3792.00,0.0008
3791.00,0.0008
3790.00,0.0008
3789.00,0.0009
3788.00,0.0008
3787.00,0.0008
3786.00,0.0008
3785.00,0.0008
3784.00,0.0008
3783.00,0.0008
3782.00,0.0008
3781.00,0.0008
3780.00,0.0008
3779.00,0.0008
3778.00,0.0008
3777.00,0.0008
3776.00,0.0008
3775.00,0.0008
3774.00,0.0008
3773.00,0.0008
3772.00,0.0008
3771.00,0.0009
3770.00,0.0009
3769.00,0.0010
3768.00,0.0009
3767.00,0.0009
3766.00,0.0009
3765.00,0.0009
3764.00,0.0009
3763.00,0.0009
3762.00,0.0009
3761.00,0.0009
3760.00,0.0008
3759.00,0.0008
3758.00,0.0008
3757.00,0.0008
3756.00,0.0008
3755.00,0.0008
3754.00,0.0008
3753.00,0.0008
3752.00,0.0009
3751.00,0.0009
3750.00,0.0009
3749.00,0.0009
3748.00,0.0009
3747.00,0.0008
3746.00,0.0007
3745.00,0.0007
3744.00,0.0007
3743.00,0.0007
3742.00,0.0006
3741.00,0.0007
3740.00,0.0007
3739.00,0.0007
3738.00,0.0007
3737.00,0.0007
3736.00,0.0007
3735.00,0.0007
3734.00,0.0007
3733.00,0.0008
3732.00,0.0008
3731.00,0.0007
3730.00,0.0007
3729.00,0.0007
3728.00,0.0007
3727.00,0.0007
3726.00,0.0007
3725.00,0.0007
3724.00,0.0007
3723.00,0.0007
3722.00,0.0007
3721.00,0.0007
3720.00,0.0007
3719.00,0.0007
3718.00,0.0007
3717.00,0.0007
3716.00,0.0007
3715.00,0.0007
3714.00,0.0006
3713.00,0.0006
3712.00,0.0006
3711.00,0.0006
3710.00,0.0006
3709.00,0.0006
3708.00,0.0006
3707.00,0.0006
3706.00,0.0006
3705.00,0.0006
3704.00,0.0006
3703.00,0.0006
3702.00,0.0007
3701.00,0.0007
3700.00,0.0007
3699.00,0.0007
3698.00,0.0006
3697.00,0.0007
3696.00,0.0007
3695.00,0.0007
3694.00,0.0006
3693.00,0.0006
3692.00,0.0006
3691.00,0.0006
3690.00,0.0006
3689.00,0.0007
3688.00,0.0007
3687.00,0.0007
3686.00,0.0007
3685.00,0.0007
3684.00,0.0007
3683.00,0.0007
3682.00,0.0006
3681.00,0.0006
3680.00,0.0006
3679.00,0.0006
3678.00,0.0006
3677.00,0.0007
3676.00,0.0007
3675.00,0.0007
3674.00,0.0007
3673.00,0.0007
3672.00,0.0007
3671.00,0.0007
3670.00,0.0007
3669.00,0.0007
3668.00,0.0007
3667.00,0.0007
3666.00,0.0007
3665.00,0.0007
3664.00,0.0007
3663.00,0.0007
3662.00,0.0007
3661.00,0.0007
3660.00,0.0007
3659.00,0.0007
3658.00,0.0007
3657.00,0.0007
3656.00,0.0007
3655.00,0.0007
3654.00,0.0007
3653.00,0.0007
3652.00,0.0008
3651.00,0.0008
3650.00,0.0009
3649.00,0.0008
3648.00,0.0008
3647.00,0.0008
3646.00,0.0008
3645.00,0.0008
3644.00,0.0008
3643.00,0.0007
3642.00,0.0007
3641.00,0.0007
3640.00,0.0008
3639.00,0.0008
3638.00,0.0008
3637.00,0.0008
3636.00,0.0008
3635.00,0.0008
3634.00,0.0008
3633.00,0.0008
3632.00,0.0008
3631.00,0.0008
3630.00,0.0008
3629.00,0.0008
3628.00,0.0007
3627.00,0.0007
3626.00,0.0007
3625.00,0.0007
3624.00,0.0008
3623.00,0.0008
3622.00,0.0008
3621.00,0.0008
3620.00,0.0008
3619.00,0.0007
3618.00,0.0007
3617.00,0.0007
3616.00,0.0007
3615.00,0.0007
3614.00,0.0007
3613.00,0.0007
3612.00,0.0007
3611.00,0.0007
3610.00,0.0007
3609.00,0.0007
3608.00,0.0007
3607.00,0.0007
3606.00,0.0008
3605.00,0.0008
3604.00,0.0008
3603.00,0.0008
3602.00,0.0008
3601.00,0.0008
3600.00,0.0008
3599.00,0.0009
3598.00,0.0009
3597.00,0.0010
3596.00,0.0010
3595.00,0.0010
3594.00,0.0010
3593.00,0.0010
3592.00,0.0010
3591.00,0.0011
3590.00,0.0011
3589.00,0.0011
3588.00,0.0012
3587.00,0.0011
3586.00,0.0011
3585.00,0.0011
3584.00,0.0011
3583.00,0.0011
3582.00,0.0011
3581.00,0.0011
3580.00,0.0011
3579.00,0.0011
3578.00,0.0011
3577.00,0.0011
3576.00,0.0011
3575.00,0.0011
3574.00,0.0011
3573.00,0.0011
3572.00,0.0011
3571.00,0.0012
3570.00,0.0013
3569.00,0.0013
3568.00,0.0013
3567.00,0.0014
3566.00,0.0013
3565.00,0.0013
3564.00,0.0012
3563.00,0.0012
3562.00,0.0013
3561.00,0.0013
3560.00,0.0014
3559.00,0.0014
3558.00,0.0014
3557.00,0.0015
3556.00,0.0016
3555.00,0.0016
3554.00,0.0016
3553.00,0.0016
3552.00,0.0016
3551.00,0.0016
3550.00,0.0016
3549.00,0.0016
3548.00,0.0016
3547.00,0.0017
3546.00,0.0017
3545.00,0.0017
3544.00,0.0018
3543.00,0.0018
3542.00,0.0018
3541.00,0.0018
3540.00,0.0018
3539.00,0.0018
3538.00,0.0018
3537.00,0.0018
3536.00,0.0019
3535.00,0.0019
3534.00,0.0020
3533.00,0.0020
3532.00,0.0019
3531.00,0.0019
3530.00,0.0019
3529.00,0.0020
3528.00,0.0020
3527.00,0.0020
3526.00,0.0021
3525.00,0.0021
3524.00,0.0021
3523.00,0.0021
3522.00,0.0021
3521.00,0.0021
3520.00,0.0021
3519.00,0.0021
3518.00,0.0022
3517.00,0.0022
3516.00,0.0022
3515.00,0.0021
3514.00,0.0021
3513.00,0.0021
3512.00,0.0021
3511.00,0.0021
3510.00,0.0021
3509.00,0.0021
3508.00,0.0022
3507.00,0.0022
3506.00,0.0023
3505.00,0.0023
3504.00,0.0024
3503.00,0.0024
3502.00,0.0024
3501.00,0.0024
3500.00,0.0024
3499.00,0.0024
3498.00,0.0024
3497.00,0.0024
3496.00,0.0024
3495.00,0.0025
3494.00,0.0025
3493.00,0.0025
3492.00,0.0025
3491.00,0.0026
3490.00,0.0026
3489.00,0.0026
3488.00,0.0027
3487.00,0.0027
3486.00,0.0027
3485.00,0.0027
3484.00,0.0027
3483.00,0.0027
3482.00,0.0027
3481.00,0.0027
3480.00,0.0027
3479.00,0.0027
3478.00,0.0027
3477.00,0.0027
3476.00,0.0028
3475.00,0.0028
3474.00,0.0029
3473.00,0.0029
3472.00,0.0029
3471.00,0.0029
3470.00,0.0029
3469.00,0.0029
3468.00,0.0029
3467.00,0.0030
3466.00,0.0030
3465.00,0.0030
3464.00,0.0030
3463.00,0.0031
3462.00,0.0031
3461.00,0.0032
3460.00,0.0032
3459.00,0.0031
3458.00,0.0031
3457.00,0.0031
3456.00,0.0031
3455.00,0.0031
3454.00,0.0031
3453.00,0.0032
3452.00,0.0032
3451.00,0.0032
3450.00,0.0032
3449.00,0.0032
3448.00,0.0033
3447.00,0.0033
3446.00,0.0033
3445.00,0.0033
3444.00,0.0033
3443.00,0.0034
3442.00,0.0034
3441.00,0.0034
3440.00,0.0034
3439.00,0.0034
3438.00,0.0034
3437.00,0.0034
3436.00,0.0034
3435.00,0.0034
3434.00,0.0035
3433.00,0.0035
3432.00,0.0035
3431.00,0.0036
3430.00,0.0036
3429.00,0.0036
3428.00,0.0036
3427.00,0.0037
3426.00,0.0037
3425.00,0.0037
3424.00,0.0037
3423.00,0.0036
3422.00,0.0036
3421.00,0.0036
3420.00,0.0036
3419.00,0.0036
3418.00,0.0036
3417.00,0.0037
3416.00,0.0037
3415.00,0.0037
3414.00,0.0037
3413.00,0.0038
3412.00,0.0038
3411.00,0.0038
3410.00,0.0038
3409.00,0.0038
3408.00,0.0038
3407.00,0.0038
3406.00,0.0038
3405.00,0.0038
3404.00,0.0038
3403.00,0.0038
3402.00,0.0038
3401.00,0.0038
3400.00,0.0038
3399.00,0.0038
3398.00,0.0038
3397.00,0.0039
3396.00,0.0039
3395.00,0.0039
3394.00,0.0039
3393.00,0.0039
3392.00,0.0039
3391.00,0.0039
3390.00,0.0039
3389.00,0.0039
3388.00,0.0039
3387.00,0.0039
3386.00,0.0038
3385.00,0.0038
3384.00,0.0038
3383.00,0.0038
3382.00,0.0038
3381.00,0.0038
3380.00,0.0038
3379.00,0.0038
3378.00,0.0039
3377.00,0.0039
3376.00,0.0039
3375.00,0.0039
3374.00,0.0039
3373.00,0.0039
3372.00,0.0039
3371.00,0.0039
3370.00,0.0039
3369.00,0.0039
3368.00,0.0040
3367.00,0.0040
3366.00,0.0040
3365.00,0.0040
3364.00,0.0039
3363.00,0.0039
3362.00,0.0039
3361.00,0.0040
3360.00,0.0040
3359.00,0.0040
3358.00,0.0040
3357.00,0.0041
3356.00,0.0041
3355.00,0.0041
3354.00,0.0041
3353.00,0.0041
3352.00,0.0041
3351.00,0.0040
3350.00,0.0040
3349.00,0.0040
3348.00,0.0040
3347.00,0.0040
3346.00,0.0040
3345.00,0.0040
3344.00,0.0040
3343.00,0.0040
3342.00,0.0040
3341.00,0.0040
3340.00,0.0040
3339.00,0.0040
3338.00,0.0040
3337.00,0.0039
3336.00,0.0039
3335.00,0.0039
3334.00,0.0039
3333.00,0.0039
3332.00,0.0039
3331.00,0.0039
3330.00,0.0039
3329.00,0.0039
3328.00,0.0039
3327.00,0.0039
3326.00,0.0039
3325.00,0.0038
3324.00,0.0038
3323.00,0.0038
3322.00,0.0038
3321.00,0.0038
3320.00,0.0038
3319.00,0.0038
3318.00,0.0038
3317.00,0.0038
3316.00,0.0037
3315.00,0.0037
3314.00,0.0037
3313.00,0.0037
3312.00,0.0037
3311.00,0.0037
3310.00,0.0037
3309.00,0.0037
3308.00,0.0037
3307.00,0.0037
3306.00,0.0037
3305.00,0.0037
3304.00,0.0037
3303.00,0.0038
3302.00,0.0038
3301.00,0.0038
3300.00,0.0038
3299.00,0.0039
3298.00,0.0039
3297.00,0.0038
3296.00,0.0038
3295.00,0.0038
3294.00,0.0038
3293.00,0.0038
3292.00,0.0038
3291.00,0.0037
3290.00,0.0037
3289.00,0.0037
3288.00,0.0037
3287.00,0.0037
3286.00,0.0037
3285.00,0.0037
3284.00,0.0037
3283.00,0.0037
3282.00,0.0037
3281.00,0.0036
3280.00,0.0036
3279.00,0.0036
3278.00,0.0036
3277.00,0.0036
3276.00,0.0036
3275.00,0.0036
3274.00,0.0036
3273.00,0.0036
3272.00,0.0036
3271.00,0.0036
3270.00,0.0036
3269.00,0.0036
3268.00,0.0036
3267.00,0.0036
3266.00,0.0036
3265.00,0.0036
3264.00,0.0036
3263.00,0.0035
3262.00,0.0035
3261.00,0.0035
3260.00,0.0035
3259.00,0.0035
3258.00,0.0035
3257.00,0.0035
3256.00,0.0035
3255.00,0.0035
3254.00,0.0035
3253.00,0.0035
3252.00,0.0034
3251.00,0.0034
3250.00,0.0034
3249.00,0.0034
3248.00,0.0033
3247.00,0.0033
3246.00,0.0033
3245.00,0.0033
3244.00,0.0033
3243.00,0.0034
3242.00,0.0034
3241.00,0.0034
3240.00,0.0034
3239.00,0.0034
3238.00,0.0034
3237.00,0.0034
3236.00,0.0034
3235.00,0.0035
3234.00,0.0035
3233.00,0.0035
3232.00,0.0035
3231.00,0.0035
3230.00,0.0035
3229.00,0.0035
3228.00,0.0035
3227.00,0.0035
3226.00,0.0035
3225.00,0.0036
3224.00,0.0036
3223.00,0.0036
3222.00,0.0036
3221.00,0.0036
3220.00,0.0037
3219.00,0.0037
3218.00,0.0038
3217.00,0.0038
3216.00,0.0038
3215.00,0.0039
3214.00,0.0039
3213.00,0.0039
3212.00,0.0039
3211.00,0.0039
3210.00,0.0039
3209.00,0.0039
3208.00,0.0039
3207.00,0.0040
3206.00,0.0040
3205.00,0.0041
3204.00,0.0041
3203.00,0.0041
3202.00,0.0041
3201.00,0.0040
3200.00,0.0040
3199.00,0.0040
3198.00,0.0040
3197.00,0.0040
3196.00,0.0040
3195.00,0.0041
3194.00,0.0041
3193.00,0.0041
3192.00,0.0041
3191.00,0.0041
3190.00,0.0041
3189.00,0.0041
3188.00,0.0040
3187.00,0.0040
3186.00,0.0040
3185.00,0.0040
3184.00,0.0040
3183.00,0.0040
3182.00,0.0039
3181.00,0.0039
3180.00,0.0039
3179.00,0.0038
3178.00,0.0038
3177.00,0.0038
3176.00,0.0037
3175.00,0.0037
3174.00,0.0036
3173.00,0.0036
3172.00,0.0036
3171.00,0.0036
3170.00,0.0036
3169.00,0.0036
3168.00,0.0036
3167.00,0.0036
3166.00,0.0036
3165.00,0.0036
3164.00,0.0036
3163.00,0.0036
3162.00,0.0036
3161.00,0.0035
3160.00,0.0035
3159.00,0.0035
3158.00,0.0035
3157.00,0.0035
3156.00,0.0035
3155.00,0.0035
3154.00,0.0035
3153.00,0.0035
3152.00,0.0035
3151.00,0.0036
3150.00,0.0036
3149.00,0.0036
3148.00,0.0035
3147.00,0.0035
3146.00,0.0035
3145.00,0.0035
3144.00,0.0036
3143.00,0.0036
3142.00,0.0035
3141.00,0.0035
3140.00,0.0035
3139.00,0.0035
3138.00,0.0035
3137.00,0.0034
3136.00,0.0034
3135.00,0.0034
3134.00,0.0034
3133.00,0.0034
3132.00,0.0034
3131.00,0.0034
3130.00,0.0033
3129.00,0.0033
3128.00,0.0032
3127.00,0.0032
3126.00,0.0032
3125.00,0.0032
3124.00,0.0032
3123.00,0.0032
3122.00,0.0031
3121.00,0.0031
3120.00,0.0030
3119.00,0.0030
3118.00,0.0030
3117.00,0.0030
3116.00,0.0030
3115.00,0.0030
3114.00,0.0030
3113.00,0.0030
3112.00,0.0030
3111.00,0.0030
3110.00,0.0030
3109.00,0.0030
3108.00,0.0030
3107.00,0.0029
3106.00,0.0029
3105.00,0.0029
3104.00,0.0029
3103.00,0.0029
3102.00,0.0028
3101.00,0.0028
3100.00,0.0028
3099.00,0.0028
3098.00,0.0028
3097.00,0.0028
3096.00,0.0028
3095.00,0.0028
3094.00,0.0028
3093.00,0.0028
3092.00,0.0028
3091.00,0.0028
3090.00,0.0028
3089.00,0.0028
3088.00,0.0028
3087.00,0.0028
3086.00,0.0028
3085.00,0.0028
3084.00,0.0028
3083.00,0.0028
3082.00,0.0028
3081.00,0.0028
3080.00,0.0028
3079.00,0.0028
3078.00,0.0028
3077.00,0.0027
3076.00,0.0027
3075.00,0.0027
3074.00,0.0027
3073.00,0.0027
3072.00,0.0027
3071.00,0.0028
3070.00,0.0028
3069.00,0.0028
3068.00,0.0028
3067.00,0.0029
3066.00,0.0029
3065.00,0.0029
3064.00,0.0029
3063.00,0.0029
3062.00,0.0029
3061.00,0.0029
3060.00,0.0029
3059.00,0.0030
3058.00,0.0030
3057.00,0.0030
3056.00,0.0030
3055.00,0.0030
3054.00,0.0030
3053.00,0.0030
3052.00,0.0031
3051.00,0.0031
3050.00,0.0031
3049.00,0.0032
3048.00,0.0032
3047.00,0.0032
3046.00,0.0032
3045.00,0.0032
3044.00,0.0032
3043.00,0.0032
3042.00,0.0032
3041.00,0.0032
3040.00,0.0032
3039.00,0.0033
3038.00,0.0033
3037.00,0.0033
3036.00,0.0034
3035.00,0.0034
3034.00,0.0035
3033.00,0.0035
3032.00,0.0035
3031.00,0.0036
3030.00,0.0037
3029.00,0.0037
3028.00,0.0038
3027.00,0.0039
3026.00,0.0039
3025.00,0.0040
3024.00,0.0040
3023.00,0.0041
3022.00,0.0042
3021.00,0.0042
3020.00,0.0043
3019.00,0.0044
3018.00,0.0044
3017.00,0.0046
3016.00,0.0047
3015.00,0.0048
3014.00,0.0049
3013.00,0.0051
3012.00,0.0052
3011.00,0.0054
3010.00,0.0056
3009.00,0.0058
3008.00,0.0059
3007.00,0.0061
3006.00,0.0064
3005.00,0.0066
3004.00,0.0068
3003.00,0.0071
3002.00,0.0073
3001.00,0.0077
3000.00,0.0080
2999.00,0.0084
2998.00,0.0087
2997.00,0.0091
2996.00,0.0095
2995.00,0.0100
2994.00,0.0105
2993.00,0.0111
2992.00,0.0117
2991.00,0.0124
2990.00,0.0131
2989.00,0.0140
2988.00,0.0149
2987.00,0.0160
2986.00,0.0171
2985.00,0.0184
2984.00,0.0198
2983.00,0.0214
2982.00,0.0232
2981.00,0.0252
2980.00,0.0273
2979.00,0.0298
2978.00,0.0326
2977.00,0.0358
2976.00,0.0395
2975.00,0.0437
2974.00,0.0485
2973.00,0.0540
2972.00,0.0602
2971.00,0.0672
2970.00,0.0750
2969.00,0.0837
2968.00,0.0933
2967.00,0.1038
2966.00,0.1152
2965.00,0.1272
2964.00,0.1397
2963.00,0.1522
2962.00,0.1640
2961.00,0.1746
2960.00,0.1834
2959.00,0.1902
2958.00,0.1949
2957.00,0.1979
2956.00,0.1999
2955.00,0.2015
2954.00,0.2030
2953.00,0.2045
2952.00,0.2057
2951.00,0.2057
2950.00,0.2037
2949.00,0.1990
2948.00,0.1911
2947.00,0.1804
2946.00,0.1675
2945.00,0.1538
2944.00,0.1404
2943.00,0.1285
2942.00,0.1188
2941.00,0.1116
2940.00,0.1069
2939.00,0.1046
2938.00,0.1043
2937.00,0.1059
2936.00,0.1091
2935.00,0.1138
2934.00,0.1199
2933.00,0.1270
2932.00,0.1351
2931.00,0.1438
2930.00,0.1530
2929.00,0.1622
2928.00,0.1711
2927.00,0.1796
2926.00,0.1875
2925.00,0.1949
2924.00,0.2018
2923.00,0.2086
2922.00,0.2151
2921.00,0.2214
2920.00,0.2269
2919.00,0.2312
2918.00,0.2338
2917.00,0.2342
2916.00,0.2323
2915.00,0.2284
2914.00,0.2230
2913.00,0.2169
2912.00,0.2105
2911.00,0.2044
2910.00,0.1988
2909.00,0.1936
2908.00,0.1887
2907.00,0.1837
2906.00,0.1785
2905.00,0.1728
2904.00,0.1666
2903.00,0.1600
2902.00,0.1531
2901.00,0.1461
2900.00,0.1393
2899.00,0.1328
2898.00,0.1268
2897.00,0.1212
2896.00,0.1164
2895.00,0.1122
2894.00,0.1087
2893.00,0.1060
2892.00,0.1040
2891.00,0.1026
2890.00,0.1018
2889.00,0.1015
2888.00,0.1016
2887.00,0.1021
2886.00,0.1030
2885.00,0.1042
2884.00,0.1058
2883.00,0.1077
2882.00,0.1100
2881.00,0.1124
2880.00,0.1147
2879.00,0.1165
2878.00,0.1175
2877.00,0.1176
2876.00,0.1170
2875.00,0.1160
2874.00,0.1151
2873.00,0.1148
2872.00,0.1152
2871.00,0.1163
2870.00,0.1179
2869.00,0.1196
2868.00,0.1204
2867.00,0.1198
2866.00,0.1170
2865.00,0.1118
2864.00,0.1044
2863.00,0.0957
2862.00,0.0867
2861.00,0.0782
2860.00,0.0708
2859.00,0.0648
2858.00,0.0602
2857.00,0.0569
2856.00,0.0547
2855.00,0.0533
2854.00,0.0527
2853.00,0.0529
2852.00,0.0537
2851.00,0.0553
2850.00,0.0576
2849.00,0.0609
2848.00,0.0651
2847.00,0.0703
2846.00,0.0765
2845.00,0.0836
2844.00,0.0914
2843.00,0.0998
2842.00,0.1084
2841.00,0.1166
2840.00,0.1234
2839.00,0.1280
2838.00,0.1293
2837.00,0.1268
2836.00,0.1206
2835.00,0.1113
2834.00,0.1002
2833.00,0.0884
2832.00,0.0771
2831.00,0.0671
2830.00,0.0586
2829.00,0.0517
2828.00,0.0461
2827.00,0.0415
2826.00,0.0379
2825.00,0.0348
2824.00,0.0322
2823.00,0.0301
2822.00,0.0282
2821.00,0.0267
2820.00,0.0253
2819.00,0.0241
2818.00,0.0230
2817.00,0.0221
2816.00,0.0213
2815.00,0.0207
2814.00,0.0201
2813.00,0.0195
2812.00,0.0190
2811.00,0.0184
2810.00,0.0179
2809.00,0.0173
2808.00,0.0168
2807.00,0.0161
2806.00,0.0155
2805.00,0.0149
2804.00,0.0143
2803.00,0.0137
2802.00,0.0131
2801.00,0.0126
2800.00,0.0123
2799.00,0.0120
2798.00,0.0117
2797.00,0.0115
2796.00,0.0113
2795.00,0.0111
2794.00,0.0108
2793.00,0.0105
2792.00,0.0102
2791.00,0.0098
2790.00,0.0094
2789.00,0.0090
2788.00,0.0087
2787.00,0.0083
2786.00,0.0080
2785.00,0.0077
2784.00,0.0075
2783.00,0.0072
2782.00,0.0070
2781.00,0.0068
2780.00,0.0066
2779.00,0.0065
2778.00,0.0063
2777.00,0.0062
2776.00,0.0061
2775.00,0.0060
2774.00,0.0059
2773.00,0.0058
2772.00,0.0057
2771.00,0.0056
2770.00,0.0056
2769.00,0.0056
2768.00,0.0056
2767.00,0.0055
2766.00,0.0055
2765.00,0.0055
2764.00,0.0054
2763.00,0.0054
2762.00,0.0054
2761.00,0.0053
2760.00,0.0053
2759.00,0.0053
2758.00,0.0052
2757.00,0.0052
2756.00,0.0052
2755.00,0.0052
2754.00,0.0052
2753.00,0.0051
2752.00,0.0051
2751.00,0.0051
2750.00,0.0051
2749.00,0.0051
2748.00,0.0052
2747.00,0.0052
2746.00,0.0053
2745.00,0.0053
2744.00,0.0054
2743.00,0.0054
2742.00,0.0055
2741.00,0.0057
2740.00,0.0058
2739.00,0.0060
2738.00,0.0061
2737.00,0.0062
2736.00,0.0064
2735.00,0.0065
2734.00,0.0067
2733.00,0.0069
2732.00,0.0070
2731.00,0.0072
2730.00,0.0074
2729.00,0.0076
2728.00,0.0079
2727.00,0.0082
2726.00,0.0085
2725.00,0.0087
2724.00,0.0089
2723.00,0.0089
2722.00,0.0088
2721.00,0.0086
2720.00,0.0084
2719.00,0.0080
2718.00,0.0077
2717.00,0.0074
2716.00,0.0070
2715.00,0.0068
2714.00,0.0065
2713.00,0.0063
2712.00,0.0062
2711.00,0.0060
2710.00,0.0058
2709.00,0.0057
2708.00,0.0056
2707.00,0.0054
2706.00,0.0053
2705.00,0.0052
2704.00,0.0050
2703.00,0.0049
2702.00,0.0048
2701.00,0.0048
2700.00,0.0047
2699.00,0.0046
2698.00,0.0046
2697.00,0.0045
2696.00,0.0045
2695.00,0.0045
2694.00,0.0045
2693.00,0.0045
2692.00,0.0046
2691.00,0.0046
2690.00,0.0046
2689.00,0.0046
2688.00,0.0046
2687.00,0.0046
2686.00,0.0046
2685.00,0.0046
2684.00,0.0046
2683.00,0.0046
2682.00,0.0046
2681.00,0.0046
2680.00,0.0047
2679.00,0.0047
2678.00,0.0047
2677.00,0.0047
2676.00,0.0046
2675.00,0.0046
2674.00,0.0046
2673.00,0.0045
2672.00,0.0045
2671.00,0.0044
2670.00,0.0044
2669.00,0.0044
2668.00,0.0044
2667.00,0.0044
2666.00,0.0045
2665.00,0.0045
2664.00,0.0046
2663.00,0.0047
2662.00,0.0047
2661.00,0.0048
2660.00,0.0048
2659.00,0.0048
2658.00,0.0047
2657.00,0.0047
2656.00,0.0047
2655.00,0.0046
2654.00,0.0046
2653.00,0.0045
2652.00,0.0045
2651.00,0.0044
2650.00,0.0044
2649.00,0.0044
2648.00,0.0043
2647.00,0.0043
2646.00,0.0043
2645.00,0.0042
2644.00,0.0042
2643.00,0.0042
2642.00,0.0041
2641.00,0.0041
2640.00,0.0041
2639.00,0.0040
2638.00,0.0039
2637.00,0.0039
2636.00,0.0039
2635.00,0.0038
2634.00,0.0038
2633.00,0.0038
2632.00,0.0039
2631.00,0.0039
2630.00,0.0039
2629.00,0.0039
2628.00,0.0039
2627.00,0.0039
2626.00,0.0040
2625.00,0.0040
2624.00,0.0040
2623.00,0.0040
2622.00,0.0040
2621.00,0.0040
2620.00,0.0040
2619.00,0.0040
2618.00,0.0040
2617.00,0.0040
2616.00,0.0040
2615.00,0.0040
2614.00,0.0040
2613.00,0.0039
2612.00,0.0038
2611.00,0.0038
2610.00,0.0037
2609.00,0.0037
2608.00,0.0036
2607.00,0.0036
2606.00,0.0035
2605.00,0.0034
2604.00,0.0034
2603.00,0.0033
2602.00,0.0032
2601.00,0.0032
2600.00,0.0032
2599.00,0.0032
2598.00,0.0032
2597.00,0.0032
2596.00,0.0032
2595.00,0.0032
2594.00,0.0032
2593.00,0.0032
2592.00,0.0033
2591.00,0.0033
2590.00,0.0034
2589.00,0.0035
2588.00,0.0035
2587.00,0.0036
2586.00,0.0038
2585.00,0.0039
2584.00,0.0040
2583.00,0.0040
2582.00,0.0039
2581.00,0.0038
2580.00,0.0037
2579.00,0.0036
2578.00,0.0036
2577.00,0.0035
2576.00,0.0035
2575.00,0.0034
2574.00,0.0033
2573.00,0.0032
2572.00,0.0031
2571.00,0.0031
2570.00,0.0030
2569.00,0.0029
2568.00,0.0029
2567.00,0.0028
2566.00,0.0027
2565.00,0.0027
2564.00,0.0026
2563.00,0.0026
2562.00,0.0026
2561.00,0.0025
2560.00,0.0025
2559.00,0.0025
2558.00,0.0025
2557.00,0.0025
2556.00,0.0024
2555.00,0.0024
2554.00,0.0023
2553.00,0.0022
2552.00,0.0022
2551.00,0.0022
2550.00,0.0022
2549.00,0.0021
2548.00,0.0021
2547.00,0.0020
2546.00,0.0020
2545.00,0.0019
2544.00,0.0019
2543.00,0.0019
2542.00,0.0020
2541.00,0.0020
2540.00,0.0019
2539.00,0.0018
2538.00,0.0017
2537.00,0.0016
2536.00,0.0016
2535.00,0.0016
2534.00,0.0017
2533.00,0.0017
2532.00,0.0017
2531.00,0.0016
2530.00,0.0016
2529.00,0.0015
2528.00,0.0015
2527.00,0.0015
2526.00,0.0015
2525.00,0.0015
2524.00,0.0015
2523.00,0.0015
2522.00,0.0015
2521.00,0.0015
2520.00,0.0014
2519.00,0.0014
2518.00,0.0013
2517.00,0.0012
2516.00,0.0011
2515.00,0.0011
2514.00,0.0010
2513.00,0.0010
2512.00,0.0010
2511.00,0.0009
2510.00,0.0009
2509.00,0.0010
2508.00,0.0010
2507.00,0.0010
2506.00,0.0011
2505.00,0.0010
2504.00,0.0010
2503.00,0.0009
2502.00,0.0009
2501.00,0.0009
2500.00,0.0009
2499.00,0.0010
2498.00,0.0010
2497.00,0.0011
2496.00,0.0011
2495.00,0.0011
2494.00,0.0011
2493.00,0.0011
2492.00,0.0011
2491.00,0.0011
2490.00,0.0011
2489.00,0.0011
2488.00,0.0011
2487.00,0.0010
2486.00,0.0010
2485.00,0.0009
2484.00,0.0009
2483.00,0.0009
2482.00,0.0009
2481.00,0.0010
2480.00,0.0010
2479.00,0.0010
2478.00,0.0010
2477.00,0.0010
2476.00,0.0009
2475.00,0.0009
2474.00,0.0009
2473.00,0.0009
2472.00,0.0009
2471.00,0.0008
2470.00,0.0008
2469.00,0.0008
2468.00,0.0008
2467.00,0.0008
2466.00,0.0008
2465.00,0.0009
2464.00,0.0009
2463.00,0.0009
2462.00,0.0009
2461.00,0.0009
2460.00,0.0009
2459.00,0.0010
2458.00,0.0010
2457.00,0.0011
2456.00,0.0012
2455.00,0.0012
2454.00,0.0012
2453.00,0.0013
2452.00,0.0013
2451.00,0.0012
2450.00,0.0012
2449.00,0.0011
2448.00,0.0011
2447.00,0.0011
2446.00,0.0011
2445.00,0.0012
2444.00,0.0012
2443.00,0.0012
2442.00,0.0012
2441.00,0.0012
2440.00,0.0012
2439.00,0.0011
2438.00,0.0011
2437.00,0.0010
2436.00,0.0011
2435.00,0.0011
2434.00,0.0012
2433.00,0.0013
2432.00,0.0013
2431.00,0.0014
2430.00,0.0014
2429.00,0.0014
2428.00,0.0014
2427.00,0.0014
2426.00,0.0014
2425.00,0.0013
2424.00,0.0013
2423.00,0.0012
2422.00,0.0011
2421.00,0.0011
2420.00,0.0011
2419.00,0.0011
2418.00,0.0010
2417.00,0.0010
2416.00,0.0010
2415.00,0.0010
2414.00,0.0011
2413.00,0.0011
2412.00,0.0012
2411.00,0.0012
2410.00,0.0012
2409.00,0.0011
2408.00,0.0011
2407.00,0.0011
2406.00,0.0011
2405.00,0.0010
2404.00,0.0010
2403.00,0.0010
2402.00,0.0010
2401.00,0.0009
2400.00,0.0009
2399.00,0.0009
2398.00,0.0010
2397.00,0.0010
2396.00,0.0010
2395.00,0.0010
2394.00,0.0010
2393.00,0.0010
2392.00,0.0009
2391.00,0.0009
2390.00,0.0010
2389.00,0.0010
2388.00,0.0011
2387.00,0.0011
2386.00,0.0011
2385.00,0.0010
2384.00,0.0010
2383.00,0.0010
2382.00,0.0009
2381.00,0.0009
2380.00,0.0009
2379.00,0.0010
2378.00,0.0010
2377.00,0.0010
2376.00,0.0010
2375.00,0.0010
2374.00,0.0009
2373.00,0.0009
2372.00,0.0010
2371.00,0.0010
2370.00,0.0010
2369.00,0.0010
2368.00,0.0010
2367.00,0.0009
2366.00,0.0009
2365.00,0.0010
2364.00,0.0010
2363.00,0.0011
2362.00,0.0011
2361.00,0.0011
2360.00,0.0011
2359.00,0.0011
2358.00,0.0011
2357.00,0.0011
2356.00,0.0011
2355.00,0.0010
2354.00,0.0010
2353.00,0.0010
2352.00,0.0010
2351.00,0.0011
2350.00,0.0012
2349.00,0.0013
2348.00,0.0013
2347.00,0.0012
2346.00,0.0012
2345.00,0.0012
2344.00,0.0012
2343.00,0.0013
2342.00,0.0014
2341.00,0.0014
2340.00,0.0014
2339.00,0.0013
2338.00,0.0013
2337.00,0.0012
2336.00,0.0012
2335.00,0.0012
2334.00,0.0012
2333.00,0.0011
2332.00,0.0011
2331.00,0.0011
2330.00,0.0011
2329.00,0.0011
2328.00,0.0012
2327.00,0.0015
2326.00,0.0020
2325.00,0.0024
2324.00,0.0026
2323.00,0.0026
2322.00,0.0023
2321.00,0.0021
2320.00,0.0019
2319.00,0.0018
2318.00,0.0017
2317.00,0.0016
2316.00,0.0015
2315.00,0.0014
2314.00,0.0013
2313.00,0.0013
2312.00,0.0013
2311.00,0.0013
2310.00,0.0013
2309.00,0.0012
2308.00,0.0012
2307.00,0.0011
2306.00,0.0011
2305.00,0.0011
2304.00,0.0011
2303.00,0.0012
2302.00,0.0012
2301.00,0.0012
2300.00,0.0011
2299.00,0.0011
2298.00,0.0012
2297.00,0.0013
2296.00,0.0014
2295.00,0.0016
2294.00,0.0016
2293.00,0.0017
2292.00,0.0017
2291.00,0.0017
2290.00,0.0017
2289.00,0.0018
2288.00,0.0018
2287.00,0.0018
2286.00,0.0018
2285.00,0.0019
2284.00,0.0019
2283.00,0.0018
2282.00,0.0017
2281.00,0.0016
2280.00,0.0016
2279.00,0.0016
2278.00,0.0016
2277.00,0.0017
2276.00,0.0016
2275.00,0.0015
2274.00,0.0013
2273.00,0.0012
2272.00,0.0011
2271.00,0.0012
2270.00,0.0013
2269.00,0.0014
2268.00,0.0014
2267.00,0.0014
2266.00,0.0013
2265.00,0.0013
2264.00,0.0012
2263.00,0.0011
2262.00,0.0010
2261.00,0.0009
2260.00,0.0009
2259.00,0.0011
2258.00,0.0012
2257.00,0.0013
2256.00,0.0013
2255.00,0.0012
2254.00,0.0011
2253.00,0.0010
2252.00,0.0010
2251.00,0.0009
2250.00,0.0008
2249.00,0.0008
2248.00,0.0009
2247.00,0.0009
2246.00,0.0009
2245.00,0.0010
2244.00,0.0010
2243.00,0.0010
2242.00,0.0009
2241.00,0.0008
2240.00,0.0007
2239.00,0.0007
2238.00,0.0007
2237.00,0.0007
2236.00,0.0005
2235.00,0.0004
2234.00,0.0004
2233.00,0.0005
2232.00,0.0006
2231.00,0.0007
2230.00,0.0007
2229.00,0.0006
2228.00,0.0005
2227.00,0.0004
2226.00,0.0003
2225.00,0.0002
2224.00,0.0003
2223.00,0.0004
2222.00,0.0006
2221.00,0.0008
2220.00,0.0008
2219.00,0.0006
2218.00,0.0003
2217.00,0.0002
2216.00,0.0003
2215.00,0.0004
2214.00,0.0005
2213.00,0.0006
2212.00,0.0005
2211.00,0.0003
2210.00,0.0001
2209.00,-0.0000
2208.00,0.0001
2207.00,0.0003
2206.00,0.0006
2205.00,0.0008
2204.00,0.0009
2203.00,0.0009
2202.00,0.0009
2201.00,0.0009
2200.00,0.0009
2199.00,0.0008
2198.00,0.0008
2197.00,0.0008
2196.00,0.0008
2195.00,0.0007
2194.00,0.0007
2193.00,0.0008
2192.00,0.0008
2191.00,0.0006
2190.00,0.0004
2189.00,0.0002
2188.00,0.0001
2187.00,0.0001
2186.00,0.0004
2185.00,0.0006
2184.00,0.0008
2183.00,0.0007
2182.00,0.0005
2181.00,0.0003
2180.00,0.0002
2179.00,0.0002
2178.00,0.0003
2177.00,0.0005
2176.00,0.0005
2175.00,0.0003
2174.00,0.0001
2173.00,-0.0000
2172.00,-0.0000
2171.00,0.0001
2170.00,0.0005
2169.00,0.0011
2168.00,0.0016
2167.00,0.0018
2166.00,0.0018
2165.00,0.0017
2164.00,0.0017
2163.00,0.0020
2162.00,0.0020
2161.00,0.0014
2160.00,0.0002
2159.00,-0.0013
2158.00,-0.0024
2157.00,-0.0026
2156.00,-0.0024
2155.00,-0.0021
2154.00,-0.0020
2153.00,-0.0019
2152.00,-0.0018
2151.00,-0.0016
2150.00,-0.0015
2149.00,-0.0015
2148.00,-0.0015
2147.00,-0.0016
2146.00,-0.0016
2145.00,-0.0016
2144.00,-0.0015
2143.00,-0.0015
2142.00,-0.0015
2141.00,-0.0015
2140.00,-0.0015
2139.00,-0.0014
2138.00,-0.0013
2137.00,-0.0012
2136.00,-0.0014
2135.00,-0.0016
2134.00,-0.0017
2133.00,-0.0017
2132.00,-0.0015
2131.00,-0.0012
2130.00,-0.0010
2129.00,-0.0008
2128.00,-0.0007
2127.00,-0.0005
2126.00,-0.0003
2125.00,-0.0001
2124.00,-0.0000
2123.00,0.0001
2122.00,0.0001
2121.00,0.0001
2120.00,0.0001
2119.00,0.0000
2118.00,-0.0001
2117.00,-0.0000
2116.00,0.0001
2115.00,0.0002
2114.00,0.0003
2113.00,0.0003
2112.00,0.0004
2111.00,0.0004
2110.00,0.0003
2109.00,0.0003
2108.00,0.0003
2107.00,0.0003
2106.00,0.0002
2105.00,0.0001
2104.00,0.0001
2103.00,0.0002
2102.00,0.0004
2101.00,0.0005
2100.00,0.0006
2099.00,0.0006
2098.00,0.0005
2097.00,0.0004
2096.00,0.0001
2095.00,-0.0002
2094.00,-0.0003
2093.00,-0.0003
2092.00,-0.0002
2091.00,-0.0000
2090.00,0.0001
2089.00,0.0002
2088.00,0.0002
2087.00,0.0002
2086.00,0.0002
2085.00,0.0002
2084.00,0.0002
2083.00,0.0003
2082.00,0.0004
2081.00,0.0004
2080.00,0.0005
2079.00,0.0005
2078.00,0.0004
2077.00,0.0003
2076.00,0.0003
2075.00,0.0003
2074.00,0.0002
2073.00,0.0002
2072.00,0.0000
2071.00,-0.0001
2070.00,-0.0001
2069.00,-0.0001
2068.00,-0.0000
2067.00,0.0001
2066.00,0.0003
2065.00,0.0004
2064.00,0.0004
2063.00,0.0003
2062.00,0.0001
2061.00,-0.0001
2060.00,-0.0001
2059.00,-0.0000
2058.00,0.0000
2057.00,0.0001
2056.00,0.0001
2055.00,0.0001
2054.00,0.0002
2053.00,0.0006
2052.00,0.0011
2051.00,0.0014
2050.00,0.0013
2049.00,0.0011
2048.00,0.0008
2047.00,0.0006
2046.00,0.0005
2045.00,0.0004
2044.00,0.0004
2043.00,0.0004
2042.00,0.0003
2041.00,0.0002
2040.00,0.0001
2039.00,-0.0001
2038.00,-0.0002
2037.00,-0.0002
2036.00,-0.0001
2035.00,-0.0000
2034.00,-0.0002
2033.00,-0.0005
2032.00,-0.0010
2031.00,-0.0014
2030.00,-0.0018
2029.00,-0.0020
2028.00,-0.0020
2027.00,-0.0019
2026.00,-0.0018
2025.00,-0.0015
2024.00,-0.0011
2023.00,-0.0008
2022.00,-0.0006
2021.00,-0.0007
2020.00,-0.0009
2019.00,-0.0013
2018.00,-0.0015
2017.00,-0.0015
2016.00,-0.0014
2015.00,-0.0012
2014.00,-0.0011
2013.00,-0.0009
2012.00,-0.0007
2011.00,-0.0006
2010.00,-0.0006
2009.00,-0.0007
2008.00,-0.0009
2007.00,-0.0012
2006.00,-0.0014
2005.00,-0.0013
2004.00,-0.0010
2003.00,-0.0007
2002.00,-0.0006
2001.00,-0.0005
2000.00,-0.0006
1999.00,-0.0007
1998.00,-0.0010
1997.00,-0.0011
1996.00,-0.0012
1995.00,-0.0012
1994.00,-0.0011
1993.00,-0.0010
1992.00,-0.0008
1991.00,-0.0008
1990.00,-0.0007
1989.00,-0.0007
1988.00,-0.0007
1987.00,-0.0007
1986.00,-0.0007
1985.00,-0.0005
1984.00,-0.0000
1983.00,0.0006
1982.00,0.0011
1981.00,0.0014
1980.00,0.0013
1979.00,0.0006
1978.00,-0.0002
1977.00,-0.0007
1976.00,-0.0010
1975.00,-0.0011
1974.00,-0.0013
1973.00,-0.0015
1972.00,-0.0015
1971.00,-0.0014
1970.00,-0.0012
1969.00,-0.0010
1968.00,-0.0009
1967.00,-0.0008
1966.00,-0.0009
1965.00,-0.0011
1964.00,-0.0012
1963.00,-0.0012
1962.00,-0.0012
1961.00,-0.0012
1960.00,-0.0013
1959.00,-0.0015
1958.00,-0.0015
1957.00,-0.0013
1956.00,-0.0012
1955.00,-0.0013
1954.00,-0.0013
1953.00,-0.0014
1952.00,-0.0014
1951.00,-0.0014
1950.00,-0.0015
1949.00,-0.0015
1948.00,-0.0014
1947.00,-0.0014
1946.00,-0.0014
1945.00,-0.0014
1944.00,-0.0013
1943.00,-0.0013
1942.00,-0.0013
1941.00,-0.0014
1940.00,-0.0015
1939.00,-0.0014
1938.00,-0.0012
1937.00,-0.0010
1936.00,-0.0008
1935.00,-0.0007
1934.00,-0.0006
1933.00,-0.0005
1932.00,-0.0005
1931.00,-0.0005
1930.00,-0.0006
1929.00,-0.0007
1928.00,-0.0007
1927.00,-0.0006
1926.00,-0.0006
1925.00,-0.0004
1924.00,-0.0003
1923.00,-0.0002
1922.00,-0.0001
1921.00,-0.0001
1920.00,-0.0002
1919.00,-0.0002
1918.00,-0.0002
1917.00,-0.0002
1916.00,-0.0002
1915.00,-0.0001
1914.00,-0.0001
1913.00,-0.0001
1912.00,-0.0000
1911.00,-0.0001
1910.00,-0.0002
1909.00,-0.0002
1908.00,-0.0001
1907.00,-0.0001
1906.00,-0.0001
1905.00,-0.0002
1904.00,-0.0002
1903.00,-0.0002
1902.00,-0.0002
1901.00,-0.0001
1900.00,-0.0001
1899.00,-0.0001
1898.00,-0.0001
1897.00,-0.0001
1896.00,-0.0000
1895.00,0.0000
1894.00,0.0001
1893.00,0.0002
1892.00,0.0002
1891.00,0.0002
1890.00,-0.0000
1889.00,-0.0001
1888.00,-0.0002
1887.00,-0.0002
1886.00,-0.0001
1885.00,0.0000
1884.00,0.0001
1883.00,0.0002
1882.00,0.0002
1881.00,0.0002
1880.00,0.0002
1879.00,0.0001
1878.00,0.0001
1877.00,0.0001
1876.00,0.0001
1875.00,0.0001
1874.00,0.0001
1873.00,0.0001
1872.00,0.0001
1871.00,-0.0000
1870.00,-0.0001
1869.00,-0.0001
1868.00,-0.0000
1867.00,-0.0000
1866.00,0.0000
1865.00,0.0001
1864.00,0.0002
1863.00,0.0002
1862.00,0.0003
1861.00,0.0002
1860.00,0.0002
1859.00,0.0002
1858.00,0.0002
1857.00,0.0002
1856.00,0.0002
1855.00,0.0002
1854.00,0.0002
1853.00,0.0002
1852.00,0.0003
1851.00,0.0003
1850.00,0.0002
1849.00,0.0002
1848.00,0.0002
1847.00,0.0001
1846.00,0.0001
1845.00,0.0001
1844.00,0.0002
1843.00,0.0002
1842.00,0.0003
1841.00,0.0003
1840.00,0.0003
1839.00,0.0003
1838.00,0.0003
1837.00,0.0003
1836.00,0.0003
1835.00,0.0004
1834.00,0.0004
1833.00,0.0005
1832.00,0.0005
1831.00,0.0005
1830.00,0.0004
1829.00,0.0004
1828.00,0.0004
1827.00,0.0005
1826.00,0.0005
1825.00,0.0006
1824.00,0.0006
1823.00,0.0005
1822.00,0.0004
1821.00,0.0003
1820.00,0.0003
1819.00,0.0002
1818.00,0.0002
1817.00,0.0001
1816.00,0.0001
1815.00,0.0001
1814.00,0.0002
1813.00,0.0003
1812.00,0.0004
1811.00,0.0004
1810.00,0.0005
1809.00,0.0005
1808.00,0.0005
1807.00,0.0006
1806.00,0.0005
1805.00,0.0005
1804.00,0.0005
1803.00,0.0004
1802.00,0.0004
1801.00,0.0005
1800.00,0.0005
1799.00,0.0006
1798.00,0.0007
1797.00,0.0007
1796.00,0.0007
1795.00,0.0008
1794.00,0.0008
1793.00,0.0008
1792.00,0.0009
1791.00,0.0009
1790.00,0.0008
1789.00,0.0009
1788.00,0.0009
1787.00,0.0009
1786.00,0.0009
1785.00,0.0009
1784.00,0.0010
1783.00,0.0010
1782.00,0.0010
1781.00,0.0010
1780.00,0.0010
1779.00,0.0009
1778.00,0.0009
1777.00,0.0009
1776.00,0.0009
1775.00,0.0009
1774.00,0.0008
1773.00,0.0009
1772.00,0.0009
1771.00,0.0009
1770.00,0.0009
1769.00,0.0009
1768.00,0.0010
1767.00,0.0010
1766.00,0.0010
1765.00,0.0010
1764.00,0.0010
1763.00,0.0010
1762.00,0.0010
1761.00,0.0011
1760.00,0.0012
1759.00,0.0012
1758.00,0.0013
1757.00,0.0013
1756.00,0.0014
1755.00,0.0014
1754.00,0.0014
1753.00,0.0014
1752.00,0.0015
1751.00,0.0015
1750.00,0.0016
1749.00,0.0016
1748.00,0.0017
1747.00,0.0017
1746.00,0.0017
1745.00,0.0017
1744.00,0.0018
1743.00,0.0018
1742.00,0.0018
1741.00,0.0018
1740.00,0.0018
1739.00,0.0019
1738.00,0.0019
1737.00,0.0019
1736.00,0.0019
1735.00,0.0019
1734.00,0.0020
1733.00,0.0021
1732.00,0.0021
1731.00,0.0021
1730.00,0.0021
1729.00,0.0022
1728.00,0.0022
1727.00,0.0022
1726.00,0.0022
1725.00,0.0022
1724.00,0.0022
1723.00,0.0022
1722.00,0.0022
1721.00,0.0022
1720.00,0.0023
1719.00,0.0023
1718.00,0.0023
1717.00,0.0024
1716.00,0.0024
1715.00,0.0023
1714.00,0.0022
1713.00,0.0022
1712.00,0.0022
1711.00,0.0022
1710.00,0.0023
1709.00,0.0023
1708.00,0.0024
1707.00,0.0024
1706.00,0.0024
1705.00,0.0025
1704.00,0.0026
1703.00,0.0028
1702.00,0.0028
1701.00,0.0030
1700.00,0.0032
1699.00,0.0033
1698.00,0.0033
1697.00,0.0034
1696.00,0.0035
1695.00,0.0036
1694.00,0.0036
1693.00,0.0037
1692.00,0.0038
1691.00,0.0040
1690.00,0.0042
1689.00,0.0044
1688.00,0.0046
1687.00,0.0048
1686.00,0.0049
1685.00,0.0051
1684.00,0.0052
1683.00,0.0053
1682.00,0.0054
1681.00,0.0055
1680.00,0.0057
1679.00,0.0058
1678.00,0.0059
1677.00,0.0060
1676.00,0.0061
1675.00,0.0062
1674.00,0.0063
1673.00,0.0064
1672.00,0.0064
1671.00,0.0065
1670.00,0.0066
1669.00,0.0067
1668.00,0.0068
1667.00,0.0068
1666.00,0.0068
1665.00,0.0068
1664.00,0.0068
1663.00,0.0069
1662.00,0.0069
1661.00,0.0069
1660.00,0.0069
1659.00,0.0069
1658.00,0.0069
1657.00,0.0069
1656.00,0.0070
1655.00,0.0070
1654.00,0.0071
1653.00,0.0070
1652.00,0.0070
1651.00,0.0068
1650.00,0.0068
1649.00,0.0067
1648.00,0.0068
1647.00,0.0067
1646.00,0.0066
1645.00,0.0065
1644.00,0.0064
1643.00,0.0063
1642.00,0.0063
1641.00,0.0062
1640.00,0.0062
1639.00,0.0061
1638.00,0.0060
1637.00,0.0059
1636.00,0.0058
1635.00,0.0057
1634.00,0.0057
1633.00,0.0057
1632.00,0.0058
1631.00,0.0058
1630.00,0.0058
1629.00,0.0057
1628.00,0.0057
1627.00,0.0056
1626.00,0.0055
1625.00,0.0054
1624.00,0.0054
1623.00,0.0054
1622.00,0.0053
1621.00,0.0053
1620.00,0.0053
1619.00,0.0054
1618.00,0.0054
1617.00,0.0053
1616.00,0.0053
1615.00,0.0051
1614.00,0.0051
1613.00,0.0051
1612.00,0.0051
1611.00,0.0051
1610.00,0.0050
1609.00,0.0050
1608.00,0.0050
1607.00,0.0050
1606.00,0.0050
1605.00,0.0050
1604.00,0.0050
1603.00,0.0050
1602.00,0.0049
1601.00,0.0048
1600.00,0.0048
1599.00,0.0048
1598.00,0.0048
1597.00,0.0048
1596.00,0.0048
1595.00,0.0048
1594.00,0.0048
1593.00,0.0047
1592.00,0.0046
1591.00,0.0046
1590.00,0.0046
1589.00,0.0046
1588.00,0.0046
1587.00,0.0045
1586.00,0.0044
1585.00,0.0044
1584.00,0.0043
1583.00,0.0043
1582.00,0.0042
1581.00,0.0042
1580.00,0.0042
1579.00,0.0042
1578.00,0.0041
1577.00,0.0041
1576.00,0.0041
1575.00,0.0041
1574.00,0.0041
1573.00,0.0042
1572.00,0.0043
1571.00,0.0043
1570.00,0.0044
1569.00,0.0044
1568.00,0.0045
1567.00,0.0045
1566.00,0.0046
1565.00,0.0047
1564.00,0.0048
1563.00,0.0048
1562.00,0.0049
1561.00,0.0049
1560.00,0.0050
1559.00,0.0049
1558.00,0.0047
1557.00,0.0047
1556.00,0.0048
1555.00,0.0048
1554.00,0.0048
1553.00,0.0049
1552.00,0.0049
1551.00,0.0049
1550.00,0.0049
1549.00,0.0049
1548.00,0.0050
1547.00,0.0049
1546.00,0.0048
1545.00,0.0047
1544.00,0.0045
1543.00,0.0043
1542.00,0.0042
1541.00,0.0041
1540.00,0.0042
1539.00,0.0042
1538.00,0.0042
1537.00,0.0043
1536.00,0.0044
1535.00,0.0045
1534.00,0.0045
1533.00,0.0045
1532.00,0.0046
1531.00,0.0046
1530.00,0.0046
1529.00,0.0046
1528.00,0.0047
1527.00,0.0047
1526.00,0.0047
1525.00,0.0048
1524.00,0.0049
1523.00,0.0050
1522.00,0.0050
1521.00,0.0050
1520.00,0.0051
1519.00,0.0050
1518.00,0.0050
1517.00,0.0051
1516.00,0.0052
1515.00,0.0053
1514.00,0.0054
1513.00,0.0054
1512.00,0.0055
1511.00,0.0056
1510.00,0.0056
1509.00,0.0057
1508.00,0.0059
1507.00,0.0060
1506.00,0.0061
1505.00,0.0062
1504.00,0.0064
1503.00,0.0065
1502.00,0.0066
1501.00,0.0068
1500.00,0.0070
1499.00,0.0072
1498.00,0.0075
1497.00,0.0078
1496.00,0.0082
1495.00,0.0084
1494.00,0.0085
1493.00,0.0088
1492.00,0.0091
1491.00,0.0095
1490.00,0.0097
1489.00,0.0101
1488.00,0.0105
1487.00,0.0109
1486.00,0.0113
1485.00,0.0119
1484.00,0.0126
1483.00,0.0133
1482.00,0.0141
1481.00,0.0151
1480.00,0.0161
1479.00,0.0172
1478.00,0.0186
1477.00,0.0203
1476.00,0.0225
1475.00,0.0249
1474.00,0.0282
1473.00,0.0334
1472.00,0.0397
1471.00,0.0461
1470.00,0.0522
1469.00,0.0586
1468.00,0.0655
1467.00,0.0730
1466.00,0.0817
1465.00,0.0913
1464.00,0.0999
1463.00,0.1062
1462.00,0.1107
1461.00,0.1140
1460.00,0.1168
1459.00,0.1190
1458.00,0.1213
1457.00,0.1238
1456.00,0.1254
1455.00,0.1259
1454.00,0.1259
1453.00,0.1253
1452.00,0.1237
1451.00,0.1206
1450.00,0.1157
1449.00,0.1084
1448.00,0.0986
1447.00,0.0881
1446.00,0.0784
1445.00,0.0701
1444.00,0.0629
1443.00,0.0570
1442.00,0.0526
1441.00,0.0496
1440.00,0.0476
1439.00,0.0465
1438.00,0.0460
1437.00,0.0455
1436.00,0.0439
1435.00,0.0410
1434.00,0.0372
1433.00,0.0327
1432.00,0.0281
1431.00,0.0241
1430.00,0.0211
1429.00,0.0189
1428.00,0.0174
1427.00,0.0165
1426.00,0.0158
1425.00,0.0152
1424.00,0.0146
1423.00,0.0143
1422.00,0.0141
1421.00,0.0139
1420.00,0.0135
1419.00,0.0132
1418.00,0.0128
1417.00,0.0125
1416.00,0.0122
1415.00,0.0120
1414.00,0.0120
1413.00,0.0118
1412.00,0.0117
1411.00,0.0117
1410.00,0.0117
1409.00,0.0116
1408.00,0.0115
1407.00,0.0115
1406.00,0.0116
1405.00,0.0116
1404.00,0.0116
1403.00,0.0118
1402.00,0.0119
1401.00,0.0120
1400.00,0.0121
1399.00,0.0123
1398.00,0.0126
1397.00,0.0129
1396.00,0.0131
1395.00,0.0135
1394.00,0.0141
1393.00,0.0147
1392.00,0.0154
1391.00,0.0163
1390.00,0.0176
1389.00,0.0194
1388.00,0.0221
1387.00,0.0261
1386.00,0.0314
1385.00,0.0380
1384.00,0.0466
1383.00,0.0580
1382.00,0.0727
1381.00,0.0908
1380.00,0.1126
1379.00,0.1365
1378.00,0.1591
1377.00,0.1753
1376.00,0.1806
1375.00,0.1720
1374.00,0.1515
1373.00,0.1265
1372.00,0.1031
1371.00,0.0836
1370.00,0.0677
1369.00,0.0554
1368.00,0.0467
1367.00,0.0413
1366.00,0.0384
1365.00,0.0373
1364.00,0.0375
1363.00,0.0389
1362.00,0.0410
1361.00,0.0432
1360.00,0.0447
1359.00,0.0450
1358.00,0.0438
1357.00,0.0412
1356.00,0.0375
1355.00,0.0334
1354.00,0.0295
1353.00,0.0260
1352.00,0.0232
1351.00,0.0209
1350.00,0.0191
1349.00,0.0177
1348.00,0.0165
1347.00,0.0156
1346.00,0.0149
1345.00,0.0143
1344.00,0.0138
1343.00,0.0134
1342.00,0.0131
1341.00,0.0128
1340.00,0.0126
1339.00,0.0124
1338.00,0.0122
1337.00,0.0121
1336.00,0.0122
1335.00,0.0124
1334.00,0.0127
1333.00,0.0132
1332.00,0.0136
1331.00,0.0139
1330.00,0.0141
1329.00,0.0139
1328.00,0.0136
1327.00,0.0132
1326.00,0.0126
1325.00,0.0120
1324.00,0.0114
1323.00,0.0109
1322.00,0.0105
1321.00,0.0101
1320.00,0.0099
1319.00,0.0097
1318.00,0.0095
1317.00,0.0093
1316.00,0.0091
1315.00,0.0090
1314.00,0.0089
1313.00,0.0090
1312.00,0.0092
1311.00,0.0095
1310.00,0.0101
1309.00,0.0111
1308.00,0.0124
1307.00,0.0139
1306.00,0.0155
1305.00,0.0166
1304.00,0.0169
1303.00,0.0165
1302.00,0.0157
1301.00,0.0149
1300.00,0.0144
1299.00,0.0141
1298.00,0.0140
1297.00,0.0140
1296.00,0.0138
1295.00,0.0136
1294.00,0.0133
1293.00,0.0128
1292.00,0.0122
1291.00,0.0117
1290.00,0.0112
1289.00,0.0108
1288.00,0.0104
1287.00,0.0101
1286.00,0.0098
1285.00,0.0096
1284.00,0.0094
1283.00,0.0092
1282.00,0.0090
1281.00,0.0088
1280.00,0.0087
1279.00,0.0086
1278.00,0.0086
1277.00,0.0085
1276.00,0.0085
1275.00,0.0086
1274.00,0.0086
1273.00,0.0086
1272.00,0.0086
1271.00,0.0086
1270.00,0.0086
1269.00,0.0086
1268.00,0.0087
1267.00,0.0088
1266.00,0.0090
1265.00,0.0092
1264.00,0.0096
1263.00,0.0099
1262.00,0.0104
1261.00,0.0110
1260.00,0.0118
1259.00,0.0128
1258.00,0.0139
1257.00,0.0148
1256.00,0.0153
1255.00,0.0151
1254.00,0.0143
1253.00,0.0132
1252.00,0.0121
1251.00,0.0111
1250.00,0.0104
1249.00,0.0100
1248.00,0.0096
1247.00,0.0094
1246.00,0.0093
1245.00,0.0091
1244.00,0.0090
1243.00,0.0089
1242.00,0.0088
1241.00,0.0087
1240.00,0.0086
1239.00,0.0085
1238.00,0.0083
1237.00,0.0082
1236.00,0.0082
1235.00,0.0081
1234.00,0.0080
1233.00,0.0079
1232.00,0.0078
1231.00,0.0078
1230.00,0.0078
1229.00,0.0078
1228.00,0.0079
1227.00,0.0080
1226.00,0.0081
1225.00,0.0082
1224.00,0.0085
1223.00,0.0088
1222.00,0.0090
1221.00,0.0093
1220.00,0.0094
1219.00,0.0095
1218.00,0.0095
1217.00,0.0093
1216.00,0.0091
1215.00,0.0088
1214.00,0.0085
1213.00,0.0082
1212.00,0.0080
1211.00,0.0077
1210.00,0.0076
1209.00,0.0074
1208.00,0.0073
1207.00,0.0071
1206.00,0.0070
1205.00,0.0069
1204.00,0.0068
1203.00,0.0068
1202.00,0.0067
1201.00,0.0067
1200.00,0.0067
1199.00,0.0067
1198.00,0.0067
1197.00,0.0067
1196.00,0.0067
1195.00,0.0068
1194.00,0.0068
1193.00,0.0069
1192.00,0.0069
1191.00,0.0069
1190.00,0.0069
1189.00,0.0069
1188.00,0.0070
1187.00,0.0071
1186.00,0.0072
1185.00,0.0073
1184.00,0.0074
1183.00,0.0076
1182.00,0.0078
1181.00,0.0083
1180.00,0.0089
1179.00,0.0097
1178.00,0.0106
1177.00,0.0118
1176.00,0.0133
1175.00,0.0154
1174.00,0.0181
1173.00,0.0214
1172.00,0.0255
1171.00,0.0299
1170.00,0.0344
1169.00,0.0381
1168.00,0.0405
1167.00,0.0412
1166.00,0.0403
1165.00,0.0383
1164.00,0.0357
1163.00,0.0329
1162.00,0.0304
1161.00,0.0283
1160.00,0.0266
1159.00,0.0252
1158.00,0.0241
1157.00,0.0232
1156.00,0.0225
1155.00,0.0220
1154.00,0.0215
1153.00,0.0210
1152.00,0.0204
1151.00,0.0196
1150.00,0.0186
1149.00,0.0176
1148.00,0.0165
1147.00,0.0155
1146.00,0.0146
1145.00,0.0137
1144.00,0.0130
1143.00,0.0123
1142.00,0.0117
1141.00,0.0111
1140.00,0.0106
1139.00,0.0101
1138.00,0.0097
1137.00,0.0094
1136.00,0.0091
1135.00,0.0088
1134.00,0.0085
1133.00,0.0083
1132.00,0.0082
1131.00,0.0081
1130.00,0.0081
1129.00,0.0081
1128.00,0.0081
1127.00,0.0081
1126.00,0.0082
1125.00,0.0083
1124.00,0.0084
1123.00,0.0084
1122.00,0.0085
1121.00,0.0085
1120.00,0.0085
1119.00,0.0086
1118.00,0.0086
1117.00,0.0087
1116.00,0.0088
1115.00,0.0088
1114.00,0.0089
1113.00,0.0090
1112.00,0.0092
1111.00,0.0095
1110.00,0.0099
1109.00,0.0104
1108.00,0.0109
1107.00,0.0115
1106.00,0.0121
1105.00,0.0128
1104.00,0.0133
1103.00,0.0137
1102.00,0.0138
1101.00,0.0136
1100.00,0.0132
1099.00,0.0125
1098.00,0.0118
1097.00,0.0112
1096.00,0.0107
1095.00,0.0103
1094.00,0.0100
1093.00,0.0097
1092.00,0.0095
1091.00,0.0093
1090.00,0.0091
1089.00,0.0090
1088.00,0.0089
1087.00,0.0088
1086.00,0.0087
1085.00,0.0086
1084.00,0.0086
1083.00,0.0086
1082.00,0.0085
1081.00,0.0084
1080.00,0.0083
1079.00,0.0082
1078.00,0.0080
1077.00,0.0079
1076.00,0.0078
1075.00,0.0077
1074.00,0.0076
1073.00,0.0077
1072.00,0.0077
1071.00,0.0078
1070.00,0.0077
1069.00,0.0077
1068.00,0.0076
1067.00,0.0076
1066.00,0.0076
1065.00,0.0077
1064.00,0.0078
1063.00,0.0079
1062.00,0.0080
1061.00,0.0081
1060.00,0.0081
1059.00,0.0081
1058.00,0.0082
1057.00,0.0082
1056.00,0.0082
1055.00,0.0083
1054.00,0.0084
1053.00,0.0085
1052.00,0.0087
1051.00,0.0090
1050.00,0.0094
1049.00,0.0098
1048.00,0.0103
1047.00,0.0107
1046.00,0.0110
1045.00,0.0111
1044.00,0.0111
1043.00,0.0108
1042.00,0.0104
1041.00,0.0100
1040.00,0.0096
1039.00,0.0093
1038.00,0.0092
1037.00,0.0091
1036.00,0.0091
1035.00,0.0091
1034.00,0.0092
1033.00,0.0092
1032.00,0.0093
1031.00,0.0093
1030.00,0.0093
1029.00,0.0093
1028.00,0.0092
1027.00,0.0092
1026.00,0.0092
1025.00,0.0092
1024.00,0.0092
1023.00,0.0093
1022.00,0.0095
1021.00,0.0096
1020.00,0.0097
1019.00,0.0099
1018.00,0.0100
1017.00,0.0101
1016.00,0.0104
1015.00,0.0107
1014.00,0.0111
1013.00,0.0116
1012.00,0.0120
1011.00,0.0125
1010.00,0.0130
1009.00,0.0136
1008.00,0.0143
1007.00,0.0152
1006.00,0.0164
1005.00,0.0180
1004.00,0.0201
1003.00,0.0230
1002.00,0.0268
1001.00,0.0315
1000.00,0.0367
999.00,0.0413
998.00,0.0440
997.00,0.0437
996.00,0.0406
995.00,0.0355
994.00,0.0300
993.00,0.0249
992.00,0.0209
991.00,0.0180
990.00,0.0159
989.00,0.0145
988.00,0.0137
987.00,0.0132
986.00,0.0131
985.00,0.0132
984.00,0.0137
983.00,0.0146
982.00,0.0159
981.00,0.0179
980.00,0.0205
979.00,0.0240
978.00,0.0285
977.00,0.0339
976.00,0.0399
975.00,0.0459
974.00,0.0508
973.00,0.0532
972.00,0.0522
971.00,0.0479
970.00,0.0414
969.00,0.0344
968.00,0.0281
967.00,0.0232
966.00,0.0195
965.00,0.0169
964.00,0.0149
963.00,0.0135
962.00,0.0124
961.00,0.0115
960.00,0.0107
959.00,0.0102
958.00,0.0099
957.00,0.0096
956.00,0.0093
955.00,0.0090
954.00,0.0088
953.00,0.0086
952.00,0.0085
951.00,0.0084
950.00,0.0083
949.00,0.0083
948.00,0.0084
947.00,0.0085
946.00,0.0087
945.00,0.0089
944.00,0.0092
943.00,0.0094
942.00,0.0096
941.00,0.0096
940.00,0.0096
939.00,0.0094
938.00,0.0091
937.00,0.0087
936.00,0.0082
935.00,0.0078
934.00,0.0075
933.00,0.0072
932.00,0.0069
931.00,0.0068
930.00,0.0068
929.00,0.0068
928.00,0.0068
927.00,0.0067
926.00,0.0065
925.00,0.0064
924.00,0.0064
923.00,0.0064
922.00,0.0064
921.00,0.0064
920.00,0.0065
919.00,0.0066
918.00,0.0067
917.00,0.0069
916.00,0.0071
915.00,0.0072
914.00,0.0073
913.00,0.0073
912.00,0.0074
911.00,0.0075
910.00,0.0075
909.00,0.0076
908.00,0.0078
907.00,0.0081
906.00,0.0088
905.00,0.0099
904.00,0.0113
903.00,0.0130
902.00,0.0149
901.00,0.0166
900.00,0.0178
899.00,0.0181
898.00,0.0174
897.00,0.0160
896.00,0.0143
895.00,0.0126
894.00,0.0111
893.00,0.0100
892.00,0.0091
891.00,0.0084
890.00,0.0080
889.00,0.0077
888.00,0.0075
887.00,0.0074
886.00,0.0073
885.00,0.0071
884.00,0.0071
883.00,0.0071
882.00,0.0073
881.00,0.0074
880.00,0.0075
879.00,0.0075
878.00,0.0075
877.00,0.0076
876.00,0.0076
875.00,0.0077
874.00,0.0077
873.00,0.0077
872.00,0.0077
871.00,0.0076
870.00,0.0076
869.00,0.0076
868.00,0.0075
867.00,0.0076
866.00,0.0077
865.00,0.0079
864.00,0.0081
863.00,0.0082
862.00,0.0084
861.00,0.0086
860.00,0.0089
859.00,0.0092
858.00,0.0094
857.00,0.0095
856.00,0.0095
855.00,0.0096
854.00,0.0098
853.00,0.0100
852.00,0.0103
851.00,0.0109
850.00,0.0116
849.00,0.0126
848.00,0.0140
847.00,0.0160
846.00,0.0190
845.00,0.0235
844.00,0.0297
843.00,0.0366
842.00,0.0423
841.00,0.0442
840.00,0.0416
839.00,0.0357
838.00,0.0290
837.00,0.0235
836.00,0.0198
835.00,0.0174
834.00,0.0159
833.00,0.0149
832.00,0.0141
831.00,0.0135
830.00,0.0130
829.00,0.0126
828.00,0.0123
827.00,0.0120
826.00,0.0119
825.00,0.0118
824.00,0.0118
823.00,0.0117
822.00,0.0116
821.00,0.0116
820.00,0.0117
819.00,0.0119
818.00,0.0122
817.00,0.0126
816.00,0.0132
815.00,0.0141
814.00,0.0153
813.00,0.0168
812.00,0.0184
811.00,0.0198
810.00,0.0209
809.00,0.0214
808.00,0.0211
807.00,0.0201
806.00,0.0187
805.00,0.0171
804.00,0.0156
803.00,0.0143
802.00,0.0134
801.00,0.0126
800.00,0.0119
799.00,0.0114
798.00,0.0109
797.00,0.0105
796.00,0.0102
795.00,0.0099
794.00,0.0095
793.00,0.0091
792.00,0.0088
791.00,0.0087
790.00,0.0085
789.00,0.0084
788.00,0.0082
787.00,0.0079
786.00,0.0075
785.00,0.0072
784.00,0.0069
783.00,0.0066
782.00,0.0064
781.00,0.0064
780.00,0.0064
779.00,0.0064
778.00,0.0064
777.00,0.0064
776.00,0.0064
775.00,0.0066
774.00,0.0068
773.00,0.0072
772.00,0.0076
771.00,0.0081
770.00,0.0085
769.00,0.0087
768.00,0.0087
767.00,0.0085
766.00,0.0083
765.00,0.0081
764.00,0.0078
763.00,0.0075
762.00,0.0072
761.00,0.0070
760.00,0.0067
759.00,0.0064
758.00,0.0061
757.00,0.0058
756.00,0.0056
755.00,0.0055
754.00,0.0056
753.00,0.0055
752.00,0.0054
751.00,0.0052
750.00,0.0051
749.00,0.0052
748.00,0.0052
747.00,0.0053
746.00,0.0053
745.00,0.0054
744.00,0.0055
743.00,0.0056
742.00,0.0058
741.00,0.0059
740.00,0.0059
739.00,0.0059
738.00,0.0058
737.00,0.0059
736.00,0.0061
735.00,0.0064
734.00,0.0065
733.00,0.0065
732.00,0.0065
731.00,0.0065
730.00,0.0064
729.00,0.0063
728.00,0.0062
727.00,0.0061
726.00,0.0061
725.00,0.0060
724.00,0.0060
723.00,0.0059
722.00,0.0058
721.00,0.0057
720.00,0.0056
719.00,0.0055
718.00,0.0055
717.00,0.0055
716.00,0.0054
715.00,0.0055
714.00,0.0056
713.00,0.0057
712.00,0.0057
711.00,0.0056
710.00,0.0056
709.00,0.0056
708.00,0.0056
707.00,0.0056
706.00,0.0056
705.00,0.0055
704.00,0.0054
703.00,0.0054
702.00,0.0054
701.00,0.0054
700.00,0.0054
699.00,0.0055
698.00,0.0056
697.00,0.0057
696.00,0.0057
695.00,0.0057
694.00,0.0056
693.00,0.0054
692.00,0.0053
691.00,0.0053
690.00,0.0055
689.00,0.0057
688.00,0.0059
687.00,0.0058
686.00,0.0056
685.00,0.0054
684.00,0.0053
683.00,0.0053
682.00,0.0054
681.00,0.0054
680.00,0.0053
679.00,0.0052
678.00,0.0052
677.00,0.0052
676.00,0.0052
675.00,0.0052
674.00,0.0052
673.00,0.0053
672.00,0.0053
671.00,0.0053
670.00,0.0053
669.00,0.0053
668.00,0.0053
667.00,0.0053
666.00,0.0052
665.00,0.0050
664.00,0.0048
663.00,0.0047
662.00,0.0048
661.00,0.0051
660.00,0.0055
659.00,0.0057
658.00,0.0057
657.00,0.0056
656.00,0.0054
655.00,0.0053
654.00,0.0053
653.00,0.0054
652.00,0.0056
651.00,0.0056
650.00,0.0055
649.00,0.0052
648.00,0.0051
647.00,0.0050
646.00,0.0051
645.00,0.0053
644.00,0.0054
643.00,0.0055
642.00,0.0056
641.00,0.0055
640.00,0.0055
639.00,0.0055
638.00,0.0056
637.00,0.0057
636.00,0.0056
635.00,0.0054
634.00,0.0051
633.00,0.0049
632.00,0.0047
631.00,0.0048
630.00,0.0052
629.00,0.0056
628.00,0.0059
627.00,0.0061
626.00,0.0061
625.00,0.0060
624.00,0.0061
623.00,0.0062
622.00,0.0064
621.00,0.0064
620.00,0.0063
619.00,0.0060
618.00,0.0056
617.00,0.0053
616.00,0.0053
615.00,0.0055
614.00,0.0059
613.00,0.0061
612.00,0.0060
611.00,0.0058
610.00,0.0056
609.00,0.0055
608.00,0.0056
607.00,0.0056
606.00,0.0055
605.00,0.0055
604.00,0.0054
603.00,0.0053
602.00,0.0054
601.00,0.0056
600.00,0.0059
599.00,0.0062
598.00,0.0064
597.00,0.0066
596.00,0.0066
595.00,0.0066
594.00,0.0064
593.00,0.0062
592.00,0.0059
591.00,0.0056
590.00,0.0053
589.00,0.0052
588.00,0.0052
587.00,0.0054
586.00,0.0057
585.00,0.0060
584.00,0.0062
583.00,0.0063
582.00,0.0063
581.00,0.0061
580.00,0.0058
579.00,0.0055
578.00,0.0055
577.00,0.0055
576.00,0.0055
575.00,0.0053
574.00,0.0050
573.00,0.0050
572.00,0.0054
571.00,0.0060
570.00,0.0065
569.00,0.0065
568.00,0.0064
567.00,0.0063
566.00,0.0062
565.00,0.0062
564.00,0.0061
563.00,0.0060
562.00,0.0059
561.00,0.0059
560.00,0.0060
559.00,0.0060
558.00,0.0059
557.00,0.0058
556.00,0.0056
555.00,0.0054
554.00,0.0053
553.00,0.0053
552.00,0.0055
551.00,0.0058
550.00,0.0062
549.00,0.0065
548.00,0.0067
547.00,0.0068
546.00,0.0069
545.00,0.0072
544.00,0.0074
543.00,0.0074
542.00,0.0072
541.00,0.0067
540.00,0.0064
539.00,0.0063
538.00,0.0064
537.00,0.0065
536.00,0.0066
535.00,0.0068
534.00,0.0072
533.00,0.0078
532.00,0.0084
531.00,0.0089
530.00,0.0091
529.00,0.0092
528.00,0.0092
527.00,0.0092
526.00,0.0092
525.00,0.0090
524.00,0.0086
523.00,0.0080
522.00,0.0075
521.00,0.0073
520.00,0.0072
519.00,0.0071
518.00,0.0068
517.00,0.0065
516.00,0.0062
515.00,0.0061
514.00,0.0060
513.00,0.0061
512.00,0.0062
511.00,0.0064
510.00,0.0066
509.00,0.0067
508.00,0.0066
507.00,0.0063
506.00,0.0062
505.00,0.0062
504.00,0.0065
503.00,0.0066
502.00,0.0066
501.00,0.0065
500.00,0.0066
499.00,0.0069
498.00,0.0070
497.00,0.0068
496.00,0.0066
495.00,0.0068
494.00,0.0073
493.00,0.0077
492.00,0.0075
491.00,0.0069
490.00,0.0063
489.00,0.0060
488.00,0.0059
487.00,0.0058
486.00,0.0056
485.00,0.0053
484.00,0.0051
483.00,0.0054
482.00,0.0062
481.00,0.0075
480.00,0.0084
479.00,0.0084
478.00,0.0077
477.00,0.0067
476.00,0.0061
475.00,0.0058
474.00,0.0055
473.00,0.0051
472.00,0.0051
471.00,0.0060
470.00,0.0077
469.00,0.0094
468.00,0.0105
467.00,0.0108
466.00,0.0105
465.00,0.0101
464.00,0.0100
463.00,0.0101
462.00,0.0107
461.00,0.0116
460.00,0.0131
459.00,0.0145
458.00,0.0153
457.00,0.0152
456.00,0.0146
455.00,0.0139
454.00,0.0128
453.00,0.0111
452.00,0.0090
451.00,0.0073
450.00,0.0063
