Created as New Dataset,Sample 083 By Administrator Date Friday, September 05 2025
cm-1,A
4000.00,0.0011
3999.00,0.0011
3998.00,0.0011
3997.00,0.0011
3996.00,0.0011
3995.00,0.0011
3994.00,0.0011
3993.00,0.0011
3992.00,0.0011
3991.00,0.0011
3990.00,0.0011
3989.00,0.0011
3988.00,0.0011
3987.00,0.0011
3986.00,0.0010
3985.00,0.0010
3984.00,0.0010
3983.00,0.0010
3982.00,0.0010
3981.00,0.0010
3980.00,0.0010
3979.00,0.0010
3978.00,0.0010
3977.00,0.0009
3976.00,0.0009
3975.00,0.0009
3974.00,0.0009
3973.00,0.0009
3972.00,0.0009
3971.00,0.0009
3970.00,0.0009
3969.00,0.0009
3968.00,0.0009
3967.00,0.0010
3966.00,0.0010
3965.00,0.0010
3964.00,0.0010
3963.00,0.0010
3962.00,0.0010
3961.00,0.0010
3960.00,0.0010
3959.00,0.0010
3958.00,0.0009
3957.00,0.0009
3956.00,0.0009
3955.00,0.0010
3954.00,0.0010
3953.00,0.0010
3952.00,0.0010
3951.00,0.0010
3950.00,0.0009
3949.00,0.0009
3948.00,0.0009
3947.00,0.0009
3946.00,0.0009
3945.00,0.0009
3944.00,0.0009
3943.00,0.0010
3942.00,0.0010
3941.00,0.0010
3940.00,0.0010
3939.00,0.0009
3938.00,0.0009
3937.00,0.0009
3936.00,0.0009
3935.00,0.0009
3934.00,0.0009
3933.00,0.0009
3932.00,0.0009
3931.00,0.0009
3930.00,0.0009
3929.00,0.0009
3928.00,0.0009
3927.00,0.0009
3926.00,0.0009
3925.00,0.0009
3924.00,0.0009
3923.00,0.0009
3922.00,0.0009
3921.00,0.0009
3920.00,0.0010
3919.00,0.0009
3918.00,0.0009
3917.00,0.0009
3916.00,0.0009
3915.00,0.0009
3914.00,0.0009
3913.00,0.0009
3912.00,0.0009
3911.00,0.0009
3910.00,0.0009
3909.00,0.0009
3908.00,0.0009
3907.00,0.0009
3906.00,0.0009
3905.00,0.0009
3904.00,0.0009
3903.00,0.0009
3902.00,0.0009
3901.00,0.0009
3900.00,0.0009
3899.00,0.0009
3898.00,0.0009
3897.00,0.0009
3896.00,0.0009
3895.00,0.0009
3894.00,0.0009
3893.00,0.0009
3892.00,0.0009
3891.00,0.0009
3890.00,0.0009
3889.00,0.0009
3888.00,0.0009
3887.00,0.0009
3886.00,0.0009
3885.00,0.0009
3884.00,0.0009
3883.00,0.0009
3882.00,0.0009
3881.00,0.0009
3880.00,0.0009
3879.00,0.0009
3878.00,0.0010
3877.00,0.0010
3876.00,0.0010
3875.00,0.0009
3874.00,0.0009
3873.00,0.0009
3872.00,0.0009
3871.00,0.0008
3870.00,0.0008
3869.00,0.0008
3868.00,0.0008
3867.00,0.0008
3866.00,0.0008
3865.00,0.0008
3864.00,0.0009
3863.00,0.0009
3862.00,0.0009
3861.00,0.0009
3860.00,0.0009
3859.00,0.0009
3858.00,0.0009
3857.00,0.0009
3856.00,0.0009
3855.00,0.0009
3854.00,0.0009
3853.00,0.0009
3852.00,0.0009
3851.00,0.0009
3850.00,0.0009
3849.00,0.0009
3848.00,0.0009
3847.00,0.0009
3846.00,0.0009
3845.00,0.0009
3844.00,0.0009
3843.00,0.0008
3842.00,0.0008
3841.00,0.0008
3840.00,0.0008
3839.00,0.0008
3838.00,0.0009
3837.00,0.0009
3836.00,0.0009
3835.00,0.0009
3834.00,0.0009
3833.00,0.0008
3832.00,0.0008
3831.00,0.0008
3830.00,0.0008
3829.00,0.0008
3828.00,0.0009
3827.00,0.0009
3826.00,0.0009
3825.00,0.0009
3824.00,0.0010
3823.00,0.0010
3822.00,0.0010
3821.00,0.0010
3820.00,0.0010
3819.00,0.0010
3818.00,0.0010
3817.00,0.0010
3816.00,0.0010
3815.00,0.0009
3814.00,0.0009
3813.00,0.0009
3812.00,0.0009
3811.00,0.0009
3810.00,0.0009
3809.00,0.0010
3808.00,0.0010
3807.00,0.0011
3806.00,0.0011
3805.00,0.0011
3804.00,0.0010
3803.00,0.0010
3802.00,0.0009
3801.00,0.0009
3800.00,0.0009
3799.00,0.0009
3798.00,0.0009
3797.00,0.0009
3796.00,0.0009
3795.00,0.0008
3794.00,0.0009
3793.00,0.0009
3792.00,0.0009
3791.00,0.0009
3790.00,0.0009
3789.00,0.0009
3788.00,0.0009
3787.00,0.0009
3786.00,0.0009
3785.00,0.0009
3784.00,0.0009
3783.00,0.0009
3782.00,0.0009
3781.00,0.0009
3780.00,0.0009
3779.00,0.0009
3778.00,0.0009
3777.00,0.0009
3776.00,0.0009
3775.00,0.0008
3774.00,0.0008
3773.00,0.0008
3772.00,0.0009
3771.00,0.0009
3770.00,0.0009
3769.00,0.0009
3768.00,0.0009
3767.00,0.0009
3766.00,0.0009
3765.00,0.0009
3764.00,0.0010
3763.00,0.0010
3762.00,0.0010
3761.00,0.0010
3760.00,0.0009
3759.00,0.0008
3758.00,0.0008
3757.00,0.0008
3756.00,0.0008
3755.00,0.0009
3754.00,0.0009
3753.00,0.0009
3752.00,0.0008
3751.00,0.0008
3750.00,0.0008
3749.00,0.0008
3748.00,0.0009
3747.00,0.0009
3746.00,0.0009
3745.00,0.0009
3744.00,0.0009
3743.00,0.0009
3742.00,0.0009
3741.00,0.0008
3740.00,0.0008
3739.00,0.0007
3738.00,0.0007
3737.00,0.0006
3736.00,0.0006
3735.00,0.0007
3734.00,0.0007
3733.00,0.0008
3732.00,0.0009
3731.00,0.0009
3730.00,0.0009
3729.00,0.0009
3728.00,0.0009
3727.00,0.0009
3726.00,0.0008
3725.00,0.0008
3724.00,0.0008
3723.00,0.0008
3722.00,0.0009
3721.00,0.0009
3720.00,0.0009
3719.00,0.0009
3718.00,0.0008
3717.00,0.0008
3716.00,0.0007
3715.00,0.0007
3714.00,0.0007
3713.00,0.0007
3712.00,0.0007
3711.00,0.0007
3710.00,0.0007
3709.00,0.0007
3708.00,0.0007
3707.00,0.0008
3706.00,0.0008
3705.00,0.0008
3704.00,0.0009
3703.00,0.0009
3702.00,0.0008
3701.00,0.0008
3700.00,0.0008
3699.00,0.0008
3698.00,0.0007
3697.00,0.0007
3696.00,0.0007
3695.00,0.0007
3694.00,0.0007
3693.00,0.0007
3692.00,0.0007
3691.00,0.0007
3690.00,0.0007
3689.00,0.0007
3688.00,0.0007
3687.00,0.0007
3686.00,0.0007
3685.00,0.0007
3684.00,0.0007
3683.00,0.0007
3682.00,0.0007
3681.00,0.0007
3680.00,0.0006
3679.00,0.0006
3678.00,0.0006
3677.00,0.0006
3676.00,0.0006
3675.00,0.0006
3674.00,0.0006
3673.00,0.0007
3672.00,0.0007
3671.00,0.0007
3670.00,0.0007
3669.00,0.0008
3668.00,0.0008
3667.00,0.0008
3666.00,0.0008
3665.00,0.0008
3664.00,0.0008
3663.00,0.0008
3662.00,0.0008
3661.00,0.0008
3660.00,0.0008
3659.00,0.0007
3658.00,0.0007
3657.00,0.0007
3656.00,0.0007
3655.00,0.0007
3654.00,0.0007
3653.00,0.0007
3652.00,0.0008
3651.00,0.0008
3650.00,0.0007
3649.00,0.0007
3648.00,0.0007
3647.00,0.0007
3646.00,0.0007
3645.00,0.0007
3644.00,0.0007
3643.00,0.0006
3642.00,0.0007
3641.00,0.0007
3640.00,0.0007
3639.00,0.0007
3638.00,0.0007
3637.00,0.0007
3636.00,0.0007
3635.00,0.0007
3634.00,0.0006
3633.00,0.0006
3632.00,0.0006
3631.00,0.0007
3630.00,0.0007
3629.00,0.0008
3628.00,0.0008
3627.00,0.0008
3626.00,0.0007
3625.00,0.0007
3624.00,0.0006
3623.00,0.0006
3622.00,0.0006
3621.00,0.0006
3620.00,0.0005
3619.00,0.0006
3618.00,0.0006
3617.00,0.0006
3616.00,0.0007
3615.00,0.0007
3614.00,0.0008
3613.00,0.0008
3612.00,0.0008
3611.00,0.0008
3610.00,0.0008
3609.00,0.0008
3608.00,0.0008
3607.00,0.0008
3606.00,0.0008
3605.00,0.0008
3604.00,0.0007
3603.00,0.0007
3602.00,0.0007
3601.00,0.0007
3600.00,0.0007
3599.00,0.0007
3598.00,0.0007
3597.00,0.0007
3596.00,0.0007
3595.00,0.0007
3594.00,0.0008
3593.00,0.0008
3592.00,0.0009
3591.00,0.0009
3590.00,0.0009
3589.00,0.0008
3588.00,0.0008
3587.00,0.0008
3586.00,0.0008
3585.00,0.0009
3584.00,0.0009
3583.00,0.0009
3582.00,0.0009
3581.00,0.0009
3580.00,0.0009
3579.00,0.0009
3578.00,0.0008
3577.00,0.0008
3576.00,0.0009
3575.00,0.0009
3574.00,0.0009
3573.00,0.0009
3572.00,0.0009
3571.00,0.0009
3570.00,0.0009
3569.00,0.0009
3568.00,0.0009
3567.00,0.0009
3566.00,0.0009
3565.00,0.0009
3564.00,0.0010
3563.00,0.0010
3562.00,0.0010
3561.00,0.0010
3560.00,0.0010
3559.00,0.0011
3558.00,0.0011
3557.00,0.0011
3556.00,0.0011
3555.00,0.0011
3554.00,0.0011
3553.00,0.0011
3552.00,0.0011
3551.00,0.0010
3550.00,0.0010
3549.00,0.0010
3548.00,0.0011
3547.00,0.0011
3546.00,0.0011
3545.00,0.0011
3544.00,0.0011
3543.00,0.0011
3542.00,0.0012
3541.00,0.0012
3540.00,0.0012
3539.00,0.0012
3538.00,0.0011
3537.00,0.0011
3536.00,0.0012
3535.00,0.0012
3534.00,0.0013
3533.00,0.0013
3532.00,0.0013
3531.00,0.0012
3530.00,0.0012
3529.00,0.0012
3528.00,0.0013
3527.00,0.0013
3526.00,0.0013
3525.00,0.0013
3524.00,0.0012
3523.00,0.0012
3522.00,0.0012
3521.00,0.0012
3520.00,0.0012
3519.00,0.0013
3518.00,0.0013
3517.00,0.0014
3516.00,0.0014
3515.00,0.0014
3514.00,0.0014
3513.00,0.0014
3512.00,0.0014
3511.00,0.0014
3510.00,0.0013
3509.00,0.0013
3508.00,0.0013
3507.00,0.0013
3506.00,0.0013
3505.00,0.0013
3504.00,0.0013
3503.00,0.0013
3502.00,0.0013
3501.00,0.0014
3500.00,0.0014
3499.00,0.0014
3498.00,0.0014
3497.00,0.0014
3496.00,0.0014
3495.00,0.0014
3494.00,0.0014
3493.00,0.0015
3492.00,0.0015
3491.00,0.0016
3490.00,0.0016
3489.00,0.0015
3488.00,0.0015
3487.00,0.0015
3486.00,0.0014
3485.00,0.0014
3484.00,0.0014
3483.00,0.0015
3482.00,0.0015
3481.00,0.0016
3480.00,0.0016
3479.00,0.0016
3478.00,0.0016
3477.00,0.0016
3476.00,0.0016
3475.00,0.0016
3474.00,0.0016
3473.00,0.0016
3472.00,0.0017
3471.00,0.0017
3470.00,0.0017
3469.00,0.0017
3468.00,0.0017
3467.00,0.0017
3466.00,0.0017
3465.00,0.0017
3464.00,0.0017
3463.00,0.0017
3462.00,0.0017
3461.00,0.0017
3460.00,0.0017
3459.00,0.0017
3458.00,0.0017
3457.00,0.0017
3456.00,0.0017
3455.00,0.0017
3454.00,0.0017
3453.00,0.0017
3452.00,0.0017
3451.00,0.0017
3450.00,0.0018
3449.00,0.0018
3448.00,0.0018
3447.00,0.0018
3446.00,0.0019
3445.00,0.0019
3444.00,0.0019
3443.00,0.0019
3442.00,0.0019
3441.00,0.0019
3440.00,0.0018
3439.00,0.0018
3438.00,0.0018
3437.00,0.0018
3436.00,0.0018
3435.00,0.0019
3434.00,0.0019
3433.00,0.0019
3432.00,0.0020
3431.00,0.0020
3430.00,0.0020
3429.00,0.0020
3428.00,0.0019
3427.00,0.0019
3426.00,0.0019
3425.00,0.0019
3424.00,0.0020
3423.00,0.0020
3422.00,0.0020
3421.00,0.0020
3420.00,0.0020
3419.00,0.0020
3418.00,0.0020
3417.00,0.0021
3416.00,0.0021
3415.00,0.0021
3414.00,0.0021
3413.00,0.0021
3412.00,0.0020
3411.00,0.0021
3410.00,0.0021
3409.00,0.0021
3408.00,0.0021
3407.00,0.0021
3406.00,0.0021
3405.00,0.0021
3404.00,0.0021
3403.00,0.0021
3402.00,0.0021
3401.00,0.0021
3400.00,0.0021
3399.00,0.0021
3398.00,0.0021
3397.00,0.0022
3396.00,0.0022
3395.00,0.0022
3394.00,0.0021
3393.00,0.0021
3392.00,0.0021
3391.00,0.0021
3390.00,0.0021
3389.00,0.0021
3388.00,0.0021
3387.00,0.0021
3386.00,0.0021
3385.00,0.0021
3384.00,0.0021
3383.00,0.0022
3382.00,0.0022
3381.00,0.0022
3380.00,0.0021
3379.00,0.0021
3378.00,0.0021
3377.00,0.0021
3376.00,0.0021
3375.00,0.0021
3374.00,0.0021
3373.00,0.0021
3372.00,0.0021
3371.00,0.0021
3370.00,0.0021
3369.00,0.0022
3368.00,0.0022
3367.00,0.0022
3366.00,0.0022
3365.00,0.0022
3364.00,0.0022
3363.00,0.0022
3362.00,0.0021
3361.00,0.0021
3360.00,0.0021
3359.00,0.0021
3358.00,0.0021
3357.00,0.0022
3356.00,0.0022
3355.00,0.0022
3354.00,0.0023
3353.00,0.0023
3352.00,0.0023
3351.00,0.0023
3350.00,0.0023
3349.00,0.0023
3348.00,0.0023
3347.00,0.0022
3346.00,0.0022
3345.00,0.0021
3344.00,0.0021
3343.00,0.0021
3342.00,0.0022
3341.00,0.0022
3340.00,0.0022
3339.00,0.0022
3338.00,0.0022
3337.00,0.0022
3336.00,0.0022
3335.00,0.0022
3334.00,0.0022
3333.00,0.0022
3332.00,0.0022
3331.00,0.0022
3330.00,0.0022
3329.00,0.0022
3328.00,0.0022
3327.00,0.0021
3326.00,0.0021
3325.00,0.0021
3324.00,0.0021
3323.00,0.0021
3322.00,0.0022
3321.00,0.0022
3320.00,0.0022
3319.00,0.0022
3318.00,0.0021
3317.00,0.0021
3316.00,0.0021
3315.00,0.0022
3314.00,0.0022
3313.00,0.0022
3312.00,0.0022
3311.00,0.0022
3310.00,0.0022
3309.00,0.0022
3308.00,0.0022
3307.00,0.0022
3306.00,0.0022
3305.00,0.0022
3304.00,0.0022
3303.00,0.0022
3302.00,0.0022
3301.00,0.0022
3300.00,0.0022
3299.00,0.0022
3298.00,0.0022
3297.00,0.0021
3296.00,0.0021
3295.00,0.0021
3294.00,0.0022
3293.00,0.0022
3292.00,0.0022
3291.00,0.0022
3290.00,0.0022
3289.00,0.0022
3288.00,0.0022
3287.00,0.0022
3286.00,0.0022
3285.00,0.0022
3284.00,0.0022
3283.00,0.0021
3282.00,0.0021
3281.00,0.0021
3280.00,0.0021
3279.00,0.0021
3278.00,0.0021
3277.00,0.0021
3276.00,0.0021
3275.00,0.0021
3274.00,0.0021
3273.00,0.0021
3272.00,0.0021
3271.00,0.0021
3270.00,0.0021
3269.00,0.0021
3268.00,0.0021
3267.00,0.0021
3266.00,0.0020
3265.00,0.0020
3264.00,0.0020
3263.00,0.0020
3262.00,0.0020
3261.00,0.0020
3260.00,0.0020
3259.00,0.0020
3258.00,0.0020
3257.00,0.0020
3256.00,0.0020
3255.00,0.0019
3254.00,0.0019
3253.00,0.0019
3252.00,0.0019
3251.00,0.0019
3250.00,0.0019
3249.00,0.0019
3248.00,0.0019
3247.00,0.0019
3246.00,0.0019
3245.00,0.0019
3244.00,0.0019
3243.00,0.0019
3242.00,0.0019
3241.00,0.0019
3240.00,0.0019
3239.00,0.0019
3238.00,0.0019
3237.00,0.0020
3236.00,0.0020
3235.00,0.0020
3234.00,0.0020
3233.00,0.0021
3232.00,0.0021
3231.00,0.0021
3230.00,0.0021
3229.00,0.0021
3228.00,0.0021
3227.00,0.0021
3226.00,0.0021
3225.00,0.0021
3224.00,0.0021
3223.00,0.0021
3222.00,0.0021
3221.00,0.0021
3220.00,0.0021
3219.00,0.0021
3218.00,0.0022
3217.00,0.0022
3216.00,0.0022
3215.00,0.0023
3214.00,0.0023
3213.00,0.0023
3212.00,0.0023
3211.00,0.0024
3210.00,0.0024
3209.00,0.0024
3208.00,0.0024
3207.00,0.0024
3206.00,0.0024
3205.00,0.0024
3204.00,0.0024
3203.00,0.0023
3202.00,0.0023
3201.00,0.0023
3200.00,0.0023
3199.00,0.0023
3198.00,0.0023
3197.00,0.0023
3196.00,0.0024
3195.00,0.0024
3194.00,0.0024
3193.00,0.0024
3192.00,0.0024
3191.00,0.0024
3190.00,0.0023
3189.00,0.0023
3188.00,0.0023
3187.00,0.0023
3186.00,0.0023
3185.00,0.0023
3184.00,0.0023
3183.00,0.0023
3182.00,0.0023
3181.00,0.0023
3180.00,0.0022
3179.00,0.0022
3178.00,0.0022
3177.00,0.0022
3176.00,0.0022
3175.00,0.0022
3174.00,0.0023
3173.00,0.0023
3172.00,0.0023
3171.00,0.0023
3170.00,0.0023
3169.00,0.0022
3168.00,0.0022
3167.00,0.0022
3166.00,0.0022
3165.00,0.0022
3164.00,0.0022
3163.00,0.0022
3162.00,0.0021
3161.00,0.0021
3160.00,0.0021
3159.00,0.0021
3158.00,0.0021
3157.00,0.0022
3156.00,0.0022
3155.00,0.0022
3154.00,0.0022
3153.00,0.0022
3152.00,0.0022
3151.00,0.0022
3150.00,0.0022
3149.00,0.0022
3148.00,0.0022
3147.00,0.0022
3146.00,0.0022
3145.00,0.0022
3144.00,0.0022
3143.00,0.0022
3142.00,0.0022
3141.00,0.0022
3140.00,0.0022
3139.00,0.0022
3138.00,0.0022
3137.00,0.0021
3136.00,0.0021
3135.00,0.0021
3134.00,0.0021
3133.00,0.0020
3132.00,0.0020
3131.00,0.0020
3130.00,0.0021
3129.00,0.0021
3128.00,0.0021
3127.00,0.0021
3126.00,0.0021
3125.00,0.0020
3124.00,0.0020
3123.00,0.0020
3122.00,0.0019
3121.00,0.0019
3120.00,0.0019
3119.00,0.0019
3118.00,0.0019
3117.00,0.0020
3116.00,0.0020
3115.00,0.0020
3114.00,0.0019
3113.00,0.0019
3112.00,0.0018
3111.00,0.0018
3110.00,0.0018
3109.00,0.0018
3108.00,0.0018
3107.00,0.0018
3106.00,0.0019
3105.00,0.0019
3104.00,0.0019
3103.00,0.0019
3102.00,0.0019
3101.00,0.0019
3100.00,0.0018
3099.00,0.0018
3098.00,0.0018
3097.00,0.0018
3096.00,0.0019
3095.00,0.0019
3094.00,0.0019
3093.00,0.0018
3092.00,0.0018
3091.00,0.0018
3090.00,0.0018
3089.00,0.0018
3088.00,0.0019
3087.00,0.0019
3086.00,0.0019
3085.00,0.0019
3084.00,0.0018
3083.00,0.0018
3082.00,0.0018
3081.00,0.0018
3080.00,0.0018
3079.00,0.0018
3078.00,0.0019
3077.00,0.0019
3076.00,0.0019
3075.00,0.0019
3074.00,0.0019
3073.00,0.0019
3072.00,0.0019
3071.00,0.0019
3070.00,0.0020
3069.00,0.0020
3068.00,0.0020
3067.00,0.0020
3066.00,0.0020
3065.00,0.0020
3064.00,0.0020
3063.00,0.0020
3062.00,0.0020
3061.00,0.0020
3060.00,0.0020
3059.00,0.0020
3058.00,0.0021
3057.00,0.0021
3056.00,0.0020
3055.00,0.0020
3054.00,0.0020
3053.00,0.0020
3052.00,0.0020
3051.00,0.0021
3050.00,0.0021
3049.00,0.0021
3048.00,0.0021
3047.00,0.0021
3046.00,0.0022
3045.00,0.0022
3044.00,0.0022
3043.00,0.0022
3042.00,0.0022
3041.00,0.0022
3040.00,0.0022
3039.00,0.0022
3038.00,0.0022
3037.00,0.0022
3036.00,0.0022
3035.00,0.0023
3034.00,0.0023
3033.00,0.0023
3032.00,0.0023
3031.00,0.0024
3030.00,0.0024
3029.00,0.0024
3028.00,0.0025
3027.00,0.0025
3026.00,0.0025
3025.00,0.0025
3024.00,0.0026
3023.00,0.0026
3022.00,0.0026
3021.00,0.0026
3020.00,0.0027
3019.00,0.0027
3018.00,0.0028
3017.00,0.0029
3016.00,0.0029
3015.00,0.0030
3014.00,0.0030
3013.00,0.0031
3012.00,0.0032
3011.00,0.0033
3010.00,0.0034
3009.00,0.0035
3008.00,0.0036
3007.00,0.0037
3006.00,0.0038
3005.00,0.0039
3004.00,0.0040
3003.00,0.0042
3002.00,0.0044
3001.00,0.0045
3000.00,0.0047
2999.00,0.0049
2998.00,0.0051
2997.00,0.0053
2996.00,0.0055
2995.00,0.0057
2994.00,0.0060
2993.00,0.0063
2992.00,0.0066
2991.00,0.0070
2990.00,0.0074
2989.00,0.0078
2988.00,0.0083
2987.00,0.0089
2986.00,0.0095
2985.00,0.0103
2984.00,0.0111
2983.00,0.0120
2982.00,0.0129
2981.00,0.0140
2980.00,0.0153
2979.00,0.0166
2978.00,0.0182
2977.00,0.0200
2976.00,0.0221
2975.00,0.0245
2974.00,0.0273
2973.00,0.0305
2972.00,0.0340
2971.00,0.0380
2970.00,0.0424
2969.00,0.0473
2968.00,0.0526
2967.00,0.0584
2966.00,0.0645
2965.00,0.0708
2964.00,0.0771
2963.00,0.0831
2962.00,0.0884
2961.00,0.0928
2960.00,0.0962
2959.00,0.0987
2958.00,0.1004
2957.00,0.1017
2956.00,0.1028
2955.00,0.1040
2954.00,0.1053
2953.00,0.1067
2952.00,0.1077
2951.00,0.1078
2950.00,0.1067
2949.00,0.1040
2948.00,0.0996
2947.00,0.0939
2946.00,0.0873
2945.00,0.0805
2944.00,0.0741
2943.00,0.0686
2942.00,0.0642
2941.00,0.0612
2940.00,0.0594
2939.00,0.0589
2938.00,0.0595
2937.00,0.0610
2936.00,0.0633
2935.00,0.0663
2934.00,0.0700
2933.00,0.0743
2932.00,0.0791
2931.00,0.0842
2930.00,0.0895
2929.00,0.0948
2928.00,0.0999
2927.00,0.1048
2926.00,0.1093
2925.00,0.1135
2924.00,0.1176
2923.00,0.1214
2922.00,0.1251
2921.00,0.1284
2920.00,0.1312
2919.00,0.1331
2918.00,0.1338
2917.00,0.1331
2916.00,0.1312
2915.00,0.1281
2914.00,0.1244
2913.00,0.1204
2912.00,0.1165
2911.00,0.1130
2910.00,0.1099
2909.00,0.1072
2908.00,0.1046
2907.00,0.1021
2906.00,0.0995
2905.00,0.0967
2904.00,0.0936
2903.00,0.0904
2902.00,0.0870
2901.00,0.0836
2900.00,0.0802
2899.00,0.0770
2898.00,0.0739
2897.00,0.0710
2896.00,0.0684
2895.00,0.0662
2894.00,0.0643
2893.00,0.0627
2892.00,0.0615
2891.00,0.0605
2890.00,0.0598
2889.00,0.0594
2888.00,0.0591
2887.00,0.0591
2886.00,0.0593
2885.00,0.0596
2884.00,0.0602
2883.00,0.0609
2882.00,0.0619
2881.00,0.0629
2880.00,0.0639
2879.00,0.0646
2878.00,0.0650
2877.00,0.0649
2876.00,0.0645
2875.00,0.0640
2874.00,0.0637
2873.00,0.0636
2872.00,0.0640
2871.00,0.0647
2870.00,0.0656
2869.00,0.0663
2868.00,0.0665
2867.00,0.0659
2866.00,0.0642
2865.00,0.0613
2864.00,0.0576
2863.00,0.0535
2862.00,0.0494
2861.00,0.0459
2860.00,0.0431
2859.00,0.0412
2858.00,0.0400
2857.00,0.0396
2856.00,0.0396
2855.00,0.0401
2854.00,0.0410
2853.00,0.0420
2852.00,0.0432
2851.00,0.0443
2850.00,0.0454
2849.00,0.0464
2848.00,0.0476
2847.00,0.0490
2846.00,0.0510
2845.00,0.0535
2844.00,0.0565
2843.00,0.0600
2842.00,0.0636
2841.00,0.0670
2840.00,0.0697
2839.00,0.0713
2838.00,0.0713
2837.00,0.0694
2836.00,0.0659
2835.00,0.0608
2834.00,0.0548
2833.00,0.0486
2832.00,0.0427
2831.00,0.0374
2830.00,0.0329
2829.00,0.0291
2828.00,0.0261
2827.00,0.0237
2826.00,0.0217
2825.00,0.0200
2824.00,0.0187
2823.00,0.0175
2822.00,0.0165
2821.00,0.0156
2820.00,0.0149
2819.00,0.0142
2818.00,0.0137
2817.00,0.0132
2816.00,0.0127
2815.00,0.0123
2814.00,0.0120
2813.00,0.0116
2812.00,0.0113
2811.00,0.0110
2810.00,0.0107
2809.00,0.0104
2808.00,0.0100
2807.00,0.0097
2806.00,0.0093
2805.00,0.0090
2804.00,0.0086
2803.00,0.0083
2802.00,0.0080
2801.00,0.0077
2800.00,0.0075
2799.00,0.0073
2798.00,0.0072
2797.00,0.0071
2796.00,0.0069
2795.00,0.0068
2794.00,0.0067
2793.00,0.0065
2792.00,0.0063
2791.00,0.0061
2790.00,0.0059
2789.00,0.0057
2788.00,0.0055
2787.00,0.0053
2786.00,0.0051
2785.00,0.0049
2784.00,0.0047
2783.00,0.0046
2782.00,0.0045
2781.00,0.0044
2780.00,0.0043
2779.00,0.0042
2778.00,0.0042
2777.00,0.0041
2776.00,0.0040
2775.00,0.0040
2774.00,0.0039
2773.00,0.0039
2772.00,0.0039
2771.00,0.0038
2770.00,0.0038
2769.00,0.0038
2768.00,0.0037
2767.00,0.0037
2766.00,0.0036
2765.00,0.0036
2764.00,0.0036
2763.00,0.0036
2762.00,0.0036
2761.00,0.0036
2760.00,0.0036
2759.00,0.0036
2758.00,0.0036
2757.00,0.0036
2756.00,0.0036
2755.00,0.0036
2754.00,0.0036
2753.00,0.0036
2752.00,0.0035
2751.00,0.0035
2750.00,0.0035
2749.00,0.0035
2748.00,0.0035
2747.00,0.0035
2746.00,0.0035
2745.00,0.0035
2744.00,0.0036
2743.00,0.0036
2742.00,0.0037
2741.00,0.0038
2740.00,0.0039
2739.00,0.0039
2738.00,0.0040
2737.00,0.0040
2736.00,0.0041
2735.00,0.0041
2734.00,0.0042
2733.00,0.0043
2732.00,0.0044
2731.00,0.0045
2730.00,0.0047
2729.00,0.0048
2728.00,0.0050
2727.00,0.0051
2726.00,0.0053
2725.00,0.0055
2724.00,0.0055
2723.00,0.0056
2722.00,0.0055
2721.00,0.0054
2720.00,0.0052
2719.00,0.0050
2718.00,0.0048
2717.00,0.0046
2716.00,0.0044
2715.00,0.0043
2714.00,0.0042
2713.00,0.0041
2712.00,0.0040
2711.00,0.0039
2710.00,0.0038
2709.00,0.0038
2708.00,0.0037
2707.00,0.0036
2706.00,0.0036
2705.00,0.0035
2704.00,0.0034
2703.00,0.0034
2702.00,0.0033
2701.00,0.0032
2700.00,0.0032
2699.00,0.0031
2698.00,0.0032
2697.00,0.0032
2696.00,0.0032
2695.00,0.0031
2694.00,0.0031
2693.00,0.0031
2692.00,0.0031
2691.00,0.0031
2690.00,0.0031
2689.00,0.0031
2688.00,0.0031
2687.00,0.0031
2686.00,0.0031
2685.00,0.0031
2684.00,0.0031
2683.00,0.0031
2682.00,0.0031
2681.00,0.0031
2680.00,0.0031
2679.00,0.0031
2678.00,0.0031
2677.00,0.0031
2676.00,0.0031
2675.00,0.0031
2674.00,0.0031
2673.00,0.0031
2672.00,0.0031
2671.00,0.0031
2670.00,0.0031
2669.00,0.0031
2668.00,0.0031
2667.00,0.0031
2666.00,0.0032
2665.00,0.0032
2664.00,0.0032
2663.00,0.0033
2662.00,0.0033
2661.00,0.0034
2660.00,0.0034
2659.00,0.0033
2658.00,0.0033
2657.00,0.0033
2656.00,0.0033
2655.00,0.0033
2654.00,0.0032
2653.00,0.0032
2652.00,0.0032
2651.00,0.0032
2650.00,0.0032
2649.00,0.0032
2648.00,0.0032
2647.00,0.0031
2646.00,0.0031
2645.00,0.0031
2644.00,0.0030
2643.00,0.0030
2642.00,0.0030
2641.00,0.0030
2640.00,0.0029
2639.00,0.0029
2638.00,0.0029
2637.00,0.0029
2636.00,0.0028
2635.00,0.0028
2634.00,0.0028
2633.00,0.0027
2632.00,0.0027
2631.00,0.0027
2630.00,0.0027
2629.00,0.0028
2628.00,0.0028
2627.00,0.0028
2626.00,0.0028
2625.00,0.0029
2624.00,0.0029
2623.00,0.0030
2622.00,0.0030
2621.00,0.0029
2620.00,0.0029
2619.00,0.0028
2618.00,0.0028
2617.00,0.0029
2616.00,0.0029
2615.00,0.0030
2614.00,0.0030
2613.00,0.0030
2612.00,0.0029
2611.00,0.0029
2610.00,0.0028
2609.00,0.0026
2608.00,0.0025
2607.00,0.0024
2606.00,0.0024
2605.00,0.0024
2604.00,0.0024
2603.00,0.0024
2602.00,0.0024
2601.00,0.0024
2600.00,0.0024
2599.00,0.0023
2598.00,0.0023
2597.00,0.0023
2596.00,0.0023
2595.00,0.0023
2594.00,0.0023
2593.00,0.0023
2592.00,0.0023
2591.00,0.0023
2590.00,0.0023
2589.00,0.0023
2588.00,0.0024
2587.00,0.0025
2586.00,0.0026
2585.00,0.0027
2584.00,0.0028
2583.00,0.0028
2582.00,0.0028
2581.00,0.0027
2580.00,0.0027
2579.00,0.0026
2578.00,0.0026
2577.00,0.0025
2576.00,0.0025
2575.00,0.0024
2574.00,0.0023
2573.00,0.0022
2572.00,0.0022
2571.00,0.0021
2570.00,0.0021
2569.00,0.0020
2568.00,0.0020
2567.00,0.0020
2566.00,0.0020
2565.00,0.0019
2564.00,0.0018
2563.00,0.0018
2562.00,0.0018
2561.00,0.0018
2560.00,0.0018
2559.00,0.0017
2558.00,0.0016
2557.00,0.0016
2556.00,0.0016
2555.00,0.0016
2554.00,0.0016
2553.00,0.0017
2552.00,0.0017
2551.00,0.0017
2550.00,0.0017
2549.00,0.0016
2548.00,0.0016
2547.00,0.0015
2546.00,0.0014
2545.00,0.0014
2544.00,0.0014
2543.00,0.0014
2542.00,0.0014
2541.00,0.0015
2540.00,0.0015
2539.00,0.0014
2538.00,0.0014
2537.00,0.0013
2536.00,0.0013
2535.00,0.0013
2534.00,0.0013
2533.00,0.0013
2532.00,0.0013
2531.00,0.0013
2530.00,0.0013
2529.00,0.0013
2528.00,0.0013
2527.00,0.0013
2526.00,0.0013
2525.00,0.0012
2524.00,0.0012
2523.00,0.0011
2522.00,0.0010
2521.00,0.0010
2520.00,0.0010
2519.00,0.0010
2518.00,0.0011
2517.00,0.0012
2516.00,0.0012
2515.00,0.0012
2514.00,0.0011
2513.00,0.0011
2512.00,0.0010
2511.00,0.0010
2510.00,0.0010
2509.00,0.0010
2508.00,0.0010
2507.00,0.0010
2506.00,0.0011
2505.00,0.0011
2504.00,0.0010
2503.00,0.0010
2502.00,0.0010
2501.00,0.0009
2500.00,0.0009
2499.00,0.0009
2498.00,0.0009
2497.00,0.0009
2496.00,0.0010
2495.00,0.0011
2494.00,0.0011
2493.00,0.0011
2492.00,0.0011
2491.00,0.0010
2490.00,0.0009
2489.00,0.0009
2488.00,0.0009
2487.00,0.0009
2486.00,0.0009
2485.00,0.0010
2484.00,0.0009
2483.00,0.0009
2482.00,0.0007
2481.00,0.0006
2480.00,0.0006
2479.00,0.0007
2478.00,0.0007
2477.00,0.0008
2476.00,0.0008
2475.00,0.0009
2474.00,0.0009
2473.00,0.0009
2472.00,0.0010
2471.00,0.0010
2470.00,0.0010
2469.00,0.0010
2468.00,0.0009
2467.00,0.0009
2466.00,0.0009
2465.00,0.0009
2464.00,0.0009
2463.00,0.0009
2462.00,0.0009
2461.00,0.0009
2460.00,0.0009
2459.00,0.0010
2458.00,0.0010
2457.00,0.0010
2456.00,0.0010
2455.00,0.0010
2454.00,0.0010
2453.00,0.0010
2452.00,0.0009
2451.00,0.0009
2450.00,0.0009
2449.00,0.0009
2448.00,0.0009
2447.00,0.0010
2446.00,0.0010
2445.00,0.0010
2444.00,0.0010
2443.00,0.0010
2442.00,0.0010
2441.00,0.0009
2440.00,0.0009
2439.00,0.0009
2438.00,0.0010
2437.00,0.0010
2436.00,0.0010
2435.00,0.0010
2434.00,0.0009
2433.00,0.0009
2432.00,0.0009
2431.00,0.0009
2430.00,0.0009
2429.00,0.0009
2428.00,0.0009
2427.00,0.0009
2426.00,0.0009
2425.00,0.0009
2424.00,0.0009
2423.00,0.0008
2422.00,0.0008
2421.00,0.0008
2420.00,0.0009
2419.00,0.0009
2418.00,0.0009
2417.00,0.0009
2416.00,0.0009
2415.00,0.0009
2414.00,0.0009
2413.00,0.0009
2412.00,0.0009
2411.00,0.0009
2410.00,0.0008
2409.00,0.0008
2408.00,0.0007
2407.00,0.0007
2406.00,0.0007
2405.00,0.0007
2404.00,0.0008
2403.00,0.0007
2402.00,0.0007
2401.00,0.0007
2400.00,0.0007
2399.00,0.0007
2398.00,0.0008
2397.00,0.0008
2396.00,0.0008
2395.00,0.0007
2394.00,0.0007
2393.00,0.0007
2392.00,0.0007
2391.00,0.0007
2390.00,0.0007
2389.00,0.0006
2388.00,0.0006
2387.00,0.0007
2386.00,0.0007
2385.00,0.0007
2384.00,0.0006
2383.00,0.0006
2382.00,0.0005
2381.00,0.0005
2380.00,0.0005
2379.00,0.0005
2378.00,0.0005
2377.00,0.0006
2376.00,0.0006
2375.00,0.0006
2374.00,0.0006
2373.00,0.0006
2372.00,0.0005
2371.00,0.0005
2370.00,0.0005
2369.00,0.0006
2368.00,0.0007
2367.00,0.0008
2366.00,0.0008
2365.00,0.0009
2364.00,0.0009
2363.00,0.0009
2362.00,0.0008
2361.00,0.0008
2360.00,0.0008
2359.00,0.0008
2358.00,0.0008
2357.00,0.0008
2356.00,0.0009
2355.00,0.0009
2354.00,0.0008
2353.00,0.0008
2352.00,0.0007
2351.00,0.0007
2350.00,0.0008
2349.00,0.0009
2348.00,0.0010
2347.00,0.0010
2346.00,0.0010
2345.00,0.0010
2344.00,0.0011
2343.00,0.0011
2342.00,0.0010
2341.00,0.0010
2340.00,0.0010
2339.00,0.0011
2338.00,0.0011
2337.00,0.0010
2336.00,0.0009
2335.00,0.0009
2334.00,0.0009
2333.00,0.0008
2332.00,0.0008
2331.00,0.0008
2330.00,0.0008
2329.00,0.0008
2328.00,0.0010
2327.00,0.0013
2326.00,0.0017
2325.00,0.0021
2324.00,0.0022
2323.00,0.0020
2322.00,0.0018
2321.00,0.0016
2320.00,0.0014
2319.00,0.0014
2318.00,0.0014
2317.00,0.0014
2316.00,0.0013
2315.00,0.0013
2314.00,0.0012
2313.00,0.0011
2312.00,0.0010
2311.00,0.0010
2310.00,0.0009
2309.00,0.0009
2308.00,0.0009
2307.00,0.0009
2306.00,0.0010
2305.00,0.0010
2304.00,0.0010
2303.00,0.0011
2302.00,0.0011
2301.00,0.0011
2300.00,0.0011
2299.00,0.0011
2298.00,0.0012
2297.00,0.0012
2296.00,0.0013
2295.00,0.0013
2294.00,0.0013
2293.00,0.0013
2292.00,0.0013
2291.00,0.0014
2290.00,0.0015
2289.00,0.0015
2288.00,0.0016
2287.00,0.0016
2286.00,0.0017
2285.00,0.0018
2284.00,0.0018
2283.00,0.0017
2282.00,0.0016
2281.00,0.0015
2280.00,0.0014
2279.00,0.0014
2278.00,0.0014
2277.00,0.0014
2276.00,0.0014
2275.00,0.0014
2274.00,0.0013
2273.00,0.0013
2272.00,0.0013
2271.00,0.0012
2270.00,0.0011
2269.00,0.0011
2268.00,0.0011
2267.00,0.0011
2266.00,0.0011
2265.00,0.0011
2264.00,0.0012
2263.00,0.0012
2262.00,0.0013
2261.00,0.0014
2260.00,0.0014
2259.00,0.0013
2258.00,0.0012
2257.00,0.0011
2256.00,0.0011
2255.00,0.0010
2254.00,0.0010
2253.00,0.0010
2252.00,0.0010
2251.00,0.0010
2250.00,0.0010
2249.00,0.0010
2248.00,0.0011
2247.00,0.0012
2246.00,0.0011
2245.00,0.0010
2244.00,0.0009
2243.00,0.0009
2242.00,0.0009
2241.00,0.0009
2240.00,0.0010
2239.00,0.0010
2238.00,0.0010
2237.00,0.0010
2236.00,0.0010
2235.00,0.0009
2234.00,0.0007
2233.00,0.0005
2232.00,0.0004
2231.00,0.0005
2230.00,0.0007
2229.00,0.0008
2228.00,0.0009
2227.00,0.0009
2226.00,0.0009
2225.00,0.0008
2224.00,0.0007
2223.00,0.0007
2222.00,0.0008
2221.00,0.0009
2220.00,0.0009
2219.00,0.0009
2218.00,0.0008
2217.00,0.0007
2216.00,0.0006
2215.00,0.0006
2214.00,0.0007
2213.00,0.0007
2212.00,0.0008
2211.00,0.0008
2210.00,0.0007
2209.00,0.0007
2208.00,0.0007
2207.00,0.0008
2206.00,0.0009
2205.00,0.0010
2204.00,0.0011
2203.00,0.0010
2202.00,0.0009
2201.00,0.0008
2200.00,0.0009
2199.00,0.0009
2198.00,0.0009
2197.00,0.0009
2196.00,0.0008
2195.00,0.0007
2194.00,0.0007
2193.00,0.0006
2192.00,0.0006
2191.00,0.0007
2190.00,0.0007
2189.00,0.0006
2188.00,0.0006
2187.00,0.0005
2186.00,0.0005
2185.00,0.0004
2184.00,0.0002
2183.00,0.0001
2182.00,0.0000
2181.00,0.0002
2180.00,0.0004
2179.00,0.0008
2178.00,0.0010
2177.00,0.0009
2176.00,0.0006
2175.00,0.0003
2174.00,0.0001
2173.00,0.0003
2172.00,0.0007
2171.00,0.0011
2170.00,0.0015
2169.00,0.0018
2168.00,0.0018
2167.00,0.0017
2166.00,0.0015
2165.00,0.0014
2164.00,0.0016
2163.00,0.0021
2162.00,0.0024
2161.00,0.0022
2160.00,0.0012
2159.00,-0.0003
2158.00,-0.0015
2157.00,-0.0020
2156.00,-0.0020
2155.00,-0.0019
2154.00,-0.0019
2153.00,-0.0019
2152.00,-0.0019
2151.00,-0.0017
2150.00,-0.0015
2149.00,-0.0012
2148.00,-0.0010
2147.00,-0.0010
2146.00,-0.0009
2145.00,-0.0009
2144.00,-0.0008
2143.00,-0.0008
2142.00,-0.0008
2141.00,-0.0008
2140.00,-0.0009
2139.00,-0.0010
2138.00,-0.0011
2137.00,-0.0012
2136.00,-0.0012
2135.00,-0.0012
2134.00,-0.0012
2133.00,-0.0011
2132.00,-0.0010
2131.00,-0.0009
2130.00,-0.0008
2129.00,-0.0007
2128.00,-0.0006
2127.00,-0.0005
2126.00,-0.0004
2125.00,-0.0003
2124.00,-0.0003
2123.00,-0.0002
2122.00,-0.0002
2121.00,-0.0002
2120.00,-0.0003
2119.00,-0.0003
2118.00,-0.0002
2117.00,-0.0001
2116.00,0.0001
2115.00,0.0002
2114.00,0.0002
2113.00,0.0002
2112.00,0.0002
2111.00,0.0003
2110.00,0.0004
2109.00,0.0005
2108.00,0.0005
2107.00,0.0005
2106.00,0.0003
2105.00,0.0002
2104.00,0.0002
2103.00,0.0002
2102.00,0.0003
2101.00,0.0003
2100.00,0.0003
2099.00,0.0004
2098.00,0.0004
2097.00,0.0004
2096.00,0.0002
2095.00,0.0001
2094.00,0.0000
2093.00,0.0001
2092.00,0.0003
2091.00,0.0004
2090.00,0.0004
2089.00,0.0004
2088.00,0.0003
2087.00,0.0003
2086.00,0.0004
2085.00,0.0005
2084.00,0.0005
2083.00,0.0005
2082.00,0.0004
2081.00,0.0002
2080.00,0.0002
2079.00,0.0002
2078.00,0.0003
2077.00,0.0004
2076.00,0.0004
2075.00,0.0003
2074.00,0.0002
2073.00,0.0002
2072.00,0.0002
2071.00,0.0002
2070.00,0.0002
2069.00,0.0001
2068.00,0.0001
2067.00,0.0002
2066.00,0.0003
2065.00,0.0003
2064.00,0.0003
2063.00,0.0003
2062.00,0.0002
2061.00,0.0002
2060.00,0.0003
2059.00,0.0004
2058.00,0.0005
2057.00,0.0005
2056.00,0.0004
2055.00,0.0003
2054.00,0.0005
2053.00,0.0008
2052.00,0.0011
2051.00,0.0013
2050.00,0.0013
2049.00,0.0012
2048.00,0.0011
2047.00,0.0009
2046.00,0.0008
2045.00,0.0007
2044.00,0.0008
2043.00,0.0009
2042.00,0.0008
2041.00,0.0005
2040.00,0.0001
2039.00,-0.0002
2038.00,-0.0003
2037.00,-0.0002
2036.00,-0.0000
2035.00,0.0000
2034.00,0.0000
2033.00,-0.0000
2032.00,-0.0001
2031.00,-0.0003
2030.00,-0.0004
2029.00,-0.0006
2028.00,-0.0007
2027.00,-0.0007
2026.00,-0.0005
2025.00,-0.0002
2024.00,0.0000
2023.00,-0.0001
2022.00,-0.0006
2021.00,-0.0011
2020.00,-0.0013
2019.00,-0.0013
2018.00,-0.0011
2017.00,-0.0008
2016.00,-0.0007
2015.00,-0.0006
2014.00,-0.0006
2013.00,-0.0007
2012.00,-0.0007
2011.00,-0.0006
2010.00,-0.0005
2009.00,-0.0004
2008.00,-0.0006
2007.00,-0.0008
2006.00,-0.0010
2005.00,-0.0010
2004.00,-0.0008
2003.00,-0.0006
2002.00,-0.0004
2001.00,-0.0005
2000.00,-0.0006
1999.00,-0.0008
1998.00,-0.0010
1997.00,-0.0012
1996.00,-0.0012
1995.00,-0.0013
1994.00,-0.0012
1993.00,-0.0011
1992.00,-0.0009
1991.00,-0.0006
1990.00,-0.0003
1989.00,-0.0000
1988.00,0.0002
1987.00,0.0001
1986.00,0.0001
1985.00,0.0001
1984.00,0.0004
1983.00,0.0009
1982.00,0.0014
1981.00,0.0017
1980.00,0.0018
1979.00,0.0015
1978.00,0.0010
1977.00,0.0003
1976.00,-0.0004
1975.00,-0.0009
1974.00,-0.0011
1973.00,-0.0011
1972.00,-0.0009
1971.00,-0.0008
1970.00,-0.0009
1969.00,-0.0008
1968.00,-0.0006
1967.00,-0.0003
1966.00,-0.0003
1965.00,-0.0005
1964.00,-0.0008
1963.00,-0.0010
1962.00,-0.0011
1961.00,-0.0011
1960.00,-0.0011
1959.00,-0.0010
1958.00,-0.0010
1957.00,-0.0008
1956.00,-0.0008
1955.00,-0.0009
1954.00,-0.0012
1953.00,-0.0014
1952.00,-0.0016
1951.00,-0.0016
1950.00,-0.0015
1949.00,-0.0014
1948.00,-0.0014
1947.00,-0.0013
1946.00,-0.0013
1945.00,-0.0013
1944.00,-0.0012
1943.00,-0.0010
1942.00,-0.0008
1941.00,-0.0008
1940.00,-0.0008
1939.00,-0.0009
1938.00,-0.0009
1937.00,-0.0008
1936.00,-0.0006
1935.00,-0.0005
1934.00,-0.0004
1933.00,-0.0003
1932.00,-0.0004
1931.00,-0.0005
1930.00,-0.0005
1929.00,-0.0005
1928.00,-0.0005
1927.00,-0.0005
1926.00,-0.0005
1925.00,-0.0005
1924.00,-0.0003
1923.00,-0.0002
1922.00,-0.0000
1921.00,0.0001
1920.00,0.0001
1919.00,0.0001
1918.00,0.0001
1917.00,0.0001
1916.00,0.0001
1915.00,0.0001
1914.00,0.0001
1913.00,-0.0000
1912.00,-0.0001
1911.00,-0.0003
1910.00,-0.0003
1909.00,-0.0003
1908.00,-0.0002
1907.00,-0.0002
1906.00,-0.0001
1905.00,-0.0001
1904.00,-0.0001
1903.00,-0.0001
1902.00,-0.0000
1901.00,-0.0000
1900.00,0.0000
1899.00,0.0001
1898.00,0.0001
1897.00,0.0000
1896.00,0.0000
1895.00,-0.0000
1894.00,-0.0000
1893.00,0.0000
1892.00,0.0001
1891.00,0.0001
1890.00,0.0001
1889.00,0.0001
1888.00,0.0000
1887.00,-0.0000
1886.00,-0.0000
1885.00,-0.0001
1884.00,-0.0001
1883.00,-0.0001
1882.00,-0.0001
1881.00,-0.0001
1880.00,-0.0001
1879.00,-0.0000
1878.00,0.0000
1877.00,0.0001
1876.00,0.0001
1875.00,0.0001
1874.00,0.0000
1873.00,0.0001
1872.00,0.0001
1871.00,0.0002
1870.00,0.0002
1869.00,0.0002
1868.00,0.0003
1867.00,0.0003
1866.00,0.0002
1865.00,0.0002
1864.00,0.0001
1863.00,0.0001
1862.00,0.0001
1861.00,0.0001
1860.00,0.0001
1859.00,0.0001
1858.00,0.0001
1857.00,0.0001
1856.00,0.0001
1855.00,0.0001
1854.00,0.0001
1853.00,0.0001
1852.00,0.0001
1851.00,0.0001
1850.00,0.0000
1849.00,0.0000
1848.00,-0.0000
1847.00,0.0000
1846.00,0.0001
1845.00,0.0001
1844.00,0.0002
1843.00,0.0003
1842.00,0.0003
1841.00,0.0004
1840.00,0.0004
1839.00,0.0005
1838.00,0.0004
1837.00,0.0004
1836.00,0.0004
1835.00,0.0003
1834.00,0.0003
1833.00,0.0003
1832.00,0.0003
1831.00,0.0003
1830.00,0.0003
1829.00,0.0004
1828.00,0.0004
1827.00,0.0004
1826.00,0.0004
1825.00,0.0004
1824.00,0.0004
1823.00,0.0004
1822.00,0.0003
1821.00,0.0002
1820.00,0.0001
1819.00,-0.0000
1818.00,-0.0001
1817.00,-0.0001
1816.00,-0.0001
1815.00,0.0000
1814.00,0.0001
1813.00,0.0002
1812.00,0.0002
1811.00,0.0003
1810.00,0.0003
1809.00,0.0003
1808.00,0.0004
1807.00,0.0004
1806.00,0.0004
1805.00,0.0005
1804.00,0.0005
1803.00,0.0004
1802.00,0.0004
1801.00,0.0003
1800.00,0.0003
1799.00,0.0004
1798.00,0.0004
1797.00,0.0004
1796.00,0.0005
1795.00,0.0005
1794.00,0.0005
1793.00,0.0005
1792.00,0.0005
1791.00,0.0005
1790.00,0.0005
1789.00,0.0006
1788.00,0.0006
1787.00,0.0006
1786.00,0.0007
1785.00,0.0007
1784.00,0.0007
1783.00,0.0007
1782.00,0.0006
1781.00,0.0006
1780.00,0.0006
1779.00,0.0006
1778.00,0.0006
1777.00,0.0007
1776.00,0.0007
1775.00,0.0008
1774.00,0.0008
1773.00,0.0008
1772.00,0.0008
1771.00,0.0008
1770.00,0.0008
1769.00,0.0009
1768.00,0.0009
1767.00,0.0010
1766.00,0.0009
1765.00,0.0009
1764.00,0.0009
1763.00,0.0010
1762.00,0.0010
1761.00,0.0011
1760.00,0.0011
1759.00,0.0011
1758.00,0.0010
1757.00,0.0010
1756.00,0.0011
1755.00,0.0011
1754.00,0.0011
1753.00,0.0012
1752.00,0.0012
1751.00,0.0012
1750.00,0.0012
1749.00,0.0012
1748.00,0.0013
1747.00,0.0013
1746.00,0.0013
1745.00,0.0014
1744.00,0.0014
1743.00,0.0014
1742.00,0.0014
1741.00,0.0014
1740.00,0.0014
1739.00,0.0014
1738.00,0.0014
1737.00,0.0014
1736.00,0.0014
1735.00,0.0014
1734.00,0.0014
1733.00,0.0014
1732.00,0.0014
1731.00,0.0014
1730.00,0.0014
1729.00,0.0015
1728.00,0.0015
1727.00,0.0015
1726.00,0.0014
1725.00,0.0014
1724.00,0.0014
1723.00,0.0014
1722.00,0.0014
1721.00,0.0015
1720.00,0.0015
1719.00,0.0015
1718.00,0.0015
1717.00,0.0015
1716.00,0.0016
1715.00,0.0016
1714.00,0.0016
1713.00,0.0016
1712.00,0.0016
1711.00,0.0016
1710.00,0.0016
1709.00,0.0016
1708.00,0.0016
1707.00,0.0015
1706.00,0.0015
1705.00,0.0016
1704.00,0.0016
1703.00,0.0017
1702.00,0.0018
1701.00,0.0019
1700.00,0.0020
1699.00,0.0020
1698.00,0.0020
1697.00,0.0020
1696.00,0.0020
1695.00,0.0021
1694.00,0.0020
1693.00,0.0020
1692.00,0.0021
1691.00,0.0021
1690.00,0.0022
1689.00,0.0022
1688.00,0.0023
1687.00,0.0022
1686.00,0.0022
1685.00,0.0022
1684.00,0.0022
1683.00,0.0023
1682.00,0.0024
1681.00,0.0024
1680.00,0.0024
1679.00,0.0024
1678.00,0.0024
1677.00,0.0025
1676.00,0.0026
1675.00,0.0027
1674.00,0.0028
1673.00,0.0027
1672.00,0.0027
1671.00,0.0027
1670.00,0.0028
1669.00,0.0028
1668.00,0.0029
1667.00,0.0029
1666.00,0.0030
1665.00,0.0030
1664.00,0.0030
1663.00,0.0030
1662.00,0.0031
1661.00,0.0031
1660.00,0.0032
1659.00,0.0032
1658.00,0.0032
1657.00,0.0033
1656.00,0.0033
1655.00,0.0034
1654.00,0.0034
1653.00,0.0034
1652.00,0.0034
1651.00,0.0035
1650.00,0.0035
1649.00,0.0036
1648.00,0.0037
1647.00,0.0037
1646.00,0.0037
1645.00,0.0037
1644.00,0.0037
1643.00,0.0037
1642.00,0.0037
1641.00,0.0037
1640.00,0.0038
1639.00,0.0038
1638.00,0.0038
1637.00,0.0038
1636.00,0.0038
1635.00,0.0038
1634.00,0.0038
1633.00,0.0038
1632.00,0.0038
1631.00,0.0038
1630.00,0.0039
1629.00,0.0039
1628.00,0.0038
1627.00,0.0038
1626.00,0.0038
1625.00,0.0037
1624.00,0.0037
1623.00,0.0036
1622.00,0.0036
1621.00,0.0035
1620.00,0.0035
1619.00,0.0035
1618.00,0.0035
1617.00,0.0035
1616.00,0.0035
1615.00,0.0035
1614.00,0.0035
1613.00,0.0035
1612.00,0.0035
1611.00,0.0035
1610.00,0.0035
1609.00,0.0035
1608.00,0.0035
1607.00,0.0035
1606.00,0.0035
1605.00,0.0035
1604.00,0.0035
1603.00,0.0035
1602.00,0.0035
1601.00,0.0035
1600.00,0.0035
1599.00,0.0035
1598.00,0.0035
1597.00,0.0036
1596.00,0.0036
1595.00,0.0036
1594.00,0.0036
1593.00,0.0037
1592.00,0.0037
1591.00,0.0037
1590.00,0.0037
1589.00,0.0037
1588.00,0.0038
1587.00,0.0038
1586.00,0.0038
1585.00,0.0038
1584.00,0.0039
1583.00,0.0039
1582.00,0.0039
1581.00,0.0039
1580.00,0.0040
1579.00,0.0040
1578.00,0.0040
1577.00,0.0040
1576.00,0.0040
1575.00,0.0039
1574.00,0.0039
1573.00,0.0039
1572.00,0.0039
1571.00,0.0039
1570.00,0.0038
1569.00,0.0038
1568.00,0.0037
1567.00,0.0037
1566.00,0.0037
1565.00,0.0037
1564.00,0.0037
1563.00,0.0036
1562.00,0.0037
1561.00,0.0037
1560.00,0.0038
1559.00,0.0037
1558.00,0.0036
1557.00,0.0037
1556.00,0.0037
1555.00,0.0037
1554.00,0.0037
1553.00,0.0037
1552.00,0.0037
1551.00,0.0037
1550.00,0.0038
1549.00,0.0038
1548.00,0.0039
1547.00,0.0040
1546.00,0.0040
1545.00,0.0041
1544.00,0.0042
1543.00,0.0043
1542.00,0.0044
1541.00,0.0044
1540.00,0.0045
1539.00,0.0044
1538.00,0.0044
1537.00,0.0043
1536.00,0.0043
1535.00,0.0043
1534.00,0.0043
1533.00,0.0042
1532.00,0.0042
1531.00,0.0041
1530.00,0.0041
1529.00,0.0042
1528.00,0.0042
1527.00,0.0042
1526.00,0.0042
1525.00,0.0042
1524.00,0.0042
1523.00,0.0042
1522.00,0.0042
1521.00,0.0041
1520.00,0.0041
1519.00,0.0042
1518.00,0.0042
1517.00,0.0043
1516.00,0.0043
1515.00,0.0043
1514.00,0.0044
1513.00,0.0044
1512.00,0.0045
1511.00,0.0045
1510.00,0.0045
1509.00,0.0045
1508.00,0.0046
1507.00,0.0047
1506.00,0.0048
1505.00,0.0049
1504.00,0.0049
1503.00,0.0050
1502.00,0.0051
1501.00,0.0052
1500.00,0.0054
1499.00,0.0056
1498.00,0.0058
1497.00,0.0060
1496.00,0.0063
1495.00,0.0065
1494.00,0.0067
1493.00,0.0069
1492.00,0.0071
1491.00,0.0073
1490.00,0.0075
1489.00,0.0078
1488.00,0.0081
1487.00,0.0083
1486.00,0.0087
1485.00,0.0090
1484.00,0.0095
1483.00,0.0099
1482.00,0.0103
1481.00,0.0109
1480.00,0.0115
1479.00,0.0123
1478.00,0.0131
1477.00,0.0143
1476.00,0.0158
1475.00,0.0175
1474.00,0.0199
1473.00,0.0233
1472.00,0.0273
1471.00,0.0310
1470.00,0.0345
1469.00,0.0382
1468.00,0.0421
1467.00,0.0464
1466.00,0.0513
1465.00,0.0568
1464.00,0.0616
1463.00,0.0649
1462.00,0.0669
1461.00,0.0683
1460.00,0.0694
1459.00,0.0703
1458.00,0.0715
1457.00,0.0728
1456.00,0.0734
1455.00,0.0732
1454.00,0.0726
1453.00,0.0717
1452.00,0.0704
1451.00,0.0684
1450.00,0.0655
1449.00,0.0615
1448.00,0.0563
1447.00,0.0508
1446.00,0.0458
1445.00,0.0414
1444.00,0.0375
1443.00,0.0342
1442.00,0.0317
1441.00,0.0299
1440.00,0.0287
1439.00,0.0281
1438.00,0.0280
1437.00,0.0279
1436.00,0.0272
1435.00,0.0256
1434.00,0.0235
1433.00,0.0211
1432.00,0.0186
1431.00,0.0163
1430.00,0.0146
1429.00,0.0132
1428.00,0.0123
1427.00,0.0117
1426.00,0.0113
1425.00,0.0109
1424.00,0.0106
1423.00,0.0103
1422.00,0.0103
1421.00,0.0102
1420.00,0.0100
1419.00,0.0098
1418.00,0.0096
1417.00,0.0094
1416.00,0.0092
1415.00,0.0091
1414.00,0.0090
1413.00,0.0088
1412.00,0.0086
1411.00,0.0085
1410.00,0.0085
1409.00,0.0084
1408.00,0.0084
1407.00,0.0084
1406.00,0.0084
1405.00,0.0084
1404.00,0.0083
1403.00,0.0084
1402.00,0.0084
1401.00,0.0084
1400.00,0.0084
1399.00,0.0085
1398.00,0.0087
1397.00,0.0089
1396.00,0.0091
1395.00,0.0093
1394.00,0.0096
1393.00,0.0099
1392.00,0.0102
1391.00,0.0107
1390.00,0.0113
1389.00,0.0123
1388.00,0.0137
1387.00,0.0158
1386.00,0.0186
1385.00,0.0221
1384.00,0.0270
1383.00,0.0337
1382.00,0.0426
1381.00,0.0538
1380.00,0.0669
1379.00,0.0810
1378.00,0.0935
1377.00,0.1015
1376.00,0.1029
1375.00,0.0965
1374.00,0.0841
1373.00,0.0698
1372.00,0.0570
1371.00,0.0464
1370.00,0.0380
1369.00,0.0316
1368.00,0.0271
1367.00,0.0243
1366.00,0.0228
1365.00,0.0221
1364.00,0.0222
1363.00,0.0229
1362.00,0.0240
1361.00,0.0252
1360.00,0.0261
1359.00,0.0263
1358.00,0.0257
1357.00,0.0242
1356.00,0.0223
1355.00,0.0201
1354.00,0.0180
1353.00,0.0162
1352.00,0.0147
1351.00,0.0135
1350.00,0.0125
1349.00,0.0117
1348.00,0.0110
1347.00,0.0104
1346.00,0.0098
1345.00,0.0094
1344.00,0.0090
1343.00,0.0088
1342.00,0.0086
1341.00,0.0084
1340.00,0.0083
1339.00,0.0082
1338.00,0.0082
1337.00,0.0081
1336.00,0.0082
1335.00,0.0082
1334.00,0.0084
1333.00,0.0085
1332.00,0.0087
1331.00,0.0089
1330.00,0.0089
1329.00,0.0089
1328.00,0.0088
1327.00,0.0085
1326.00,0.0082
1325.00,0.0079
1324.00,0.0075
1323.00,0.0072
1322.00,0.0070
1321.00,0.0068
1320.00,0.0066
1319.00,0.0065
1318.00,0.0064
1317.00,0.0063
1316.00,0.0063
1315.00,0.0062
1314.00,0.0062
1313.00,0.0062
1312.00,0.0063
1311.00,0.0065
1310.00,0.0068
1309.00,0.0073
1308.00,0.0080
1307.00,0.0089
1306.00,0.0099
1305.00,0.0105
1304.00,0.0107
1303.00,0.0104
1302.00,0.0099
1301.00,0.0094
1300.00,0.0091
1299.00,0.0089
1298.00,0.0088
1297.00,0.0088
1296.00,0.0086
1295.00,0.0084
1294.00,0.0081
1293.00,0.0078
1292.00,0.0075
1291.00,0.0072
1290.00,0.0070
1289.00,0.0068
1288.00,0.0066
1287.00,0.0065
1286.00,0.0063
1285.00,0.0062
1284.00,0.0060
1283.00,0.0059
1282.00,0.0058
1281.00,0.0058
1280.00,0.0057
1279.00,0.0057
1278.00,0.0057
1277.00,0.0056
1276.00,0.0055
1275.00,0.0055
1274.00,0.0055
1273.00,0.0056
1272.00,0.0056
1271.00,0.0057
1270.00,0.0058
1269.00,0.0059
1268.00,0.0061
1267.00,0.0062
1266.00,0.0064
1265.00,0.0066
1264.00,0.0067
1263.00,0.0070
1262.00,0.0072
1261.00,0.0075
1260.00,0.0080
1259.00,0.0086
1258.00,0.0093
1257.00,0.0099
1256.00,0.0101
1255.00,0.0100
1254.00,0.0095
1253.00,0.0088
1252.00,0.0080
1251.00,0.0074
1250.00,0.0069
1249.00,0.0066
1248.00,0.0063
1247.00,0.0061
1246.00,0.0060
1245.00,0.0059
1244.00,0.0058
1243.00,0.0057
1242.00,0.0056
1241.00,0.0056
1240.00,0.0055
1239.00,0.0055
1238.00,0.0055
1237.00,0.0055
1236.00,0.0055
1235.00,0.0054
1234.00,0.0054
1233.00,0.0054
1232.00,0.0054
1231.00,0.0054
1230.00,0.0055
1229.00,0.0055
1228.00,0.0055
1227.00,0.0056
1226.00,0.0057
1225.00,0.0059
1224.00,0.0061
1223.00,0.0063
1222.00,0.0064
1221.00,0.0065
1220.00,0.0065
1219.00,0.0065
1218.00,0.0065
1217.00,0.0064
1216.00,0.0063
1215.00,0.0061
1214.00,0.0059
1213.00,0.0058
1212.00,0.0056
1211.00,0.0055
1210.00,0.0055
1209.00,0.0054
1208.00,0.0053
1207.00,0.0052
1206.00,0.0052
1205.00,0.0051
1204.00,0.0051
1203.00,0.0051
1202.00,0.0051
1201.00,0.0050
1200.00,0.0050
1199.00,0.0050
1198.00,0.0050
1197.00,0.0051
1196.00,0.0052
1195.00,0.0052
1194.00,0.0052
1193.00,0.0052
1192.00,0.0052
1191.00,0.0052
1190.00,0.0052
1189.00,0.0052
1188.00,0.0053
1187.00,0.0054
1186.00,0.0055
1185.00,0.0056
1184.00,0.0057
1183.00,0.0058
1182.00,0.0059
1181.00,0.0061
1180.00,0.0065
1179.00,0.0069
1178.00,0.0074
1177.00,0.0081
1176.00,0.0090
1175.00,0.0102
1174.00,0.0119
1173.00,0.0139
1172.00,0.0163
1171.00,0.0189
1170.00,0.0213
1169.00,0.0231
1168.00,0.0241
1167.00,0.0242
1166.00,0.0235
1165.00,0.0222
1164.00,0.0206
1163.00,0.0191
1162.00,0.0178
1161.00,0.0167
1160.00,0.0159
1159.00,0.0152
1158.00,0.0147
1157.00,0.0143
1156.00,0.0140
1155.00,0.0137
1154.00,0.0134
1153.00,0.0132
1152.00,0.0129
1151.00,0.0124
1150.00,0.0119
1149.00,0.0113
1148.00,0.0106
1147.00,0.0100
1146.00,0.0094
1145.00,0.0090
1144.00,0.0086
1143.00,0.0081
1142.00,0.0077
1141.00,0.0074
1140.00,0.0070
1139.00,0.0067
1138.00,0.0065
1137.00,0.0063
1136.00,0.0061
1135.00,0.0059
1134.00,0.0057
1133.00,0.0056
1132.00,0.0055
1131.00,0.0054
1130.00,0.0053
1129.00,0.0052
1128.00,0.0052
1127.00,0.0052
1126.00,0.0052
1125.00,0.0052
1124.00,0.0052
1123.00,0.0052
1122.00,0.0052
1121.00,0.0052
1120.00,0.0053
1119.00,0.0053
1118.00,0.0055
1117.00,0.0057
1116.00,0.0059
1115.00,0.0060
1114.00,0.0061
1113.00,0.0062
1112.00,0.0062
1111.00,0.0062
1110.00,0.0063
1109.00,0.0065
1108.00,0.0067
1107.00,0.0071
1106.00,0.0075
1105.00,0.0078
1104.00,0.0081
1103.00,0.0083
1102.00,0.0083
1101.00,0.0081
1100.00,0.0079
1099.00,0.0077
1098.00,0.0074
1097.00,0.0071
1096.00,0.0068
1095.00,0.0066
1094.00,0.0064
1093.00,0.0063
1092.00,0.0062
1091.00,0.0061
1090.00,0.0059
1089.00,0.0058
1088.00,0.0057
1087.00,0.0057
1086.00,0.0057
1085.00,0.0058
1084.00,0.0058
1083.00,0.0058
1082.00,0.0057
1081.00,0.0055
1080.00,0.0054
1079.00,0.0053
1078.00,0.0052
1077.00,0.0053
1076.00,0.0053
1075.00,0.0053
1074.00,0.0053
1073.00,0.0053
1072.00,0.0052
1071.00,0.0052
1070.00,0.0051
1069.00,0.0050
1068.00,0.0050
1067.00,0.0050
1066.00,0.0050
1065.00,0.0050
1064.00,0.0051
1063.00,0.0051
1062.00,0.0052
1061.00,0.0053
1060.00,0.0054
1059.00,0.0054
1058.00,0.0053
1057.00,0.0053
1056.00,0.0054
1055.00,0.0055
1054.00,0.0057
1053.00,0.0057
1052.00,0.0057
1051.00,0.0058
1050.00,0.0059
1049.00,0.0061
1048.00,0.0063
1047.00,0.0066
1046.00,0.0070
1045.00,0.0072
1044.00,0.0072
1043.00,0.0071
1042.00,0.0069
1041.00,0.0066
1040.00,0.0063
1039.00,0.0062
1038.00,0.0062
1037.00,0.0062
1036.00,0.0062
1035.00,0.0061
1034.00,0.0059
1033.00,0.0057
1032.00,0.0056
1031.00,0.0056
1030.00,0.0056
1029.00,0.0057
1028.00,0.0058
1027.00,0.0059
1026.00,0.0060
1025.00,0.0061
1024.00,0.0061
1023.00,0.0061
1022.00,0.0061
1021.00,0.0061
1020.00,0.0062
1019.00,0.0061
1018.00,0.0061
1017.00,0.0062
1016.00,0.0063
1015.00,0.0064
1014.00,0.0066
1013.00,0.0068
1012.00,0.0071
1011.00,0.0073
1010.00,0.0076
1009.00,0.0079
1008.00,0.0083
1007.00,0.0089
1006.00,0.0096
1005.00,0.0106
1004.00,0.0119
1003.00,0.0139
1002.00,0.0165
1001.00,0.0198
1000.00,0.0233
999.00,0.0262
998.00,0.0277
997.00,0.0274
996.00,0.0252
995.00,0.0219
994.00,0.0184
993.00,0.0154
992.00,0.0131
991.00,0.0115
990.00,0.0103
989.00,0.0095
988.00,0.0090
987.00,0.0087
986.00,0.0086
985.00,0.0087
984.00,0.0089
983.00,0.0094
982.00,0.0103
981.00,0.0115
980.00,0.0133
979.00,0.0155
978.00,0.0184
977.00,0.0218
976.00,0.0254
975.00,0.0290
974.00,0.0317
973.00,0.0328
972.00,0.0318
971.00,0.0288
970.00,0.0246
969.00,0.0203
968.00,0.0165
967.00,0.0137
966.00,0.0117
965.00,0.0102
964.00,0.0092
963.00,0.0084
962.00,0.0078
961.00,0.0074
960.00,0.0070
959.00,0.0067
958.00,0.0065
957.00,0.0063
956.00,0.0061
955.00,0.0059
954.00,0.0059
953.00,0.0058
952.00,0.0058
951.00,0.0057
950.00,0.0057
949.00,0.0057
948.00,0.0057
947.00,0.0057
946.00,0.0058
945.00,0.0059
944.00,0.0061
943.00,0.0062
942.00,0.0064
941.00,0.0065
940.00,0.0065
939.00,0.0064
938.00,0.0062
937.00,0.0059
936.00,0.0056
935.00,0.0053
934.00,0.0052
933.00,0.0050
932.00,0.0049
931.00,0.0048
930.00,0.0047
929.00,0.0045
928.00,0.0045
927.00,0.0046
926.00,0.0047
925.00,0.0047
924.00,0.0046
923.00,0.0046
922.00,0.0045
921.00,0.0046
920.00,0.0046
919.00,0.0045
918.00,0.0043
917.00,0.0042
916.00,0.0043
915.00,0.0044
914.00,0.0046
913.00,0.0048
912.00,0.0049
911.00,0.0048
910.00,0.0048
909.00,0.0049
908.00,0.0051
907.00,0.0055
906.00,0.0061
905.00,0.0068
904.00,0.0076
903.00,0.0087
902.00,0.0097
901.00,0.0107
900.00,0.0112
899.00,0.0113
898.00,0.0108
897.00,0.0100
896.00,0.0090
895.00,0.0081
894.00,0.0073
893.00,0.0067
892.00,0.0062
891.00,0.0059
890.00,0.0057
889.00,0.0056
888.00,0.0055
887.00,0.0055
886.00,0.0055
885.00,0.0055
884.00,0.0055
883.00,0.0055
882.00,0.0056
881.00,0.0057
880.00,0.0059
879.00,0.0061
878.00,0.0062
877.00,0.0063
876.00,0.0064
875.00,0.0064
874.00,0.0064
873.00,0.0064
872.00,0.0062
871.00,0.0060
870.00,0.0058
869.00,0.0057
868.00,0.0058
867.00,0.0058
866.00,0.0059
865.00,0.0059
864.00,0.0059
863.00,0.0060
862.00,0.0061
861.00,0.0062
860.00,0.0063
859.00,0.0065
858.00,0.0067
857.00,0.0068
856.00,0.0068
855.00,0.0069
854.00,0.0071
853.00,0.0073
852.00,0.0075
851.00,0.0078
850.00,0.0082
849.00,0.0086
848.00,0.0094
847.00,0.0106
846.00,0.0125
845.00,0.0155
844.00,0.0195
843.00,0.0241
842.00,0.0278
841.00,0.0288
840.00,0.0267
839.00,0.0225
838.00,0.0179
837.00,0.0144
836.00,0.0121
835.00,0.0106
834.00,0.0096
833.00,0.0089
832.00,0.0084
831.00,0.0081
830.00,0.0081
829.00,0.0081
828.00,0.0080
827.00,0.0079
826.00,0.0077
825.00,0.0075
824.00,0.0073
823.00,0.0072
822.00,0.0071
821.00,0.0071
820.00,0.0073
819.00,0.0076
818.00,0.0080
817.00,0.0085
816.00,0.0090
815.00,0.0096
814.00,0.0103
813.00,0.0112
812.00,0.0121
811.00,0.0130
810.00,0.0137
809.00,0.0140
808.00,0.0139
807.00,0.0134
806.00,0.0124
805.00,0.0113
804.00,0.0102
803.00,0.0093
802.00,0.0087
801.00,0.0082
800.00,0.0079
799.00,0.0075
798.00,0.0073
797.00,0.0071
796.00,0.0071
795.00,0.0070
794.00,0.0069
793.00,0.0067
792.00,0.0066
791.00,0.0064
790.00,0.0063
789.00,0.0060
788.00,0.0057
787.00,0.0054
786.00,0.0052
785.00,0.0050
784.00,0.0047
783.00,0.0045
782.00,0.0044
781.00,0.0044
780.00,0.0045
779.00,0.0046
778.00,0.0046
777.00,0.0046
776.00,0.0046
775.00,0.0046
774.00,0.0046
773.00,0.0046
772.00,0.0046
771.00,0.0045
770.00,0.0044
769.00,0.0045
768.00,0.0046
767.00,0.0047
766.00,0.0047
765.00,0.0046
764.00,0.0045
763.00,0.0046
762.00,0.0048
761.00,0.0049
760.00,0.0050
759.00,0.0050
758.00,0.0050
757.00,0.0049
756.00,0.0049
755.00,0.0049
754.00,0.0049
753.00,0.0049
752.00,0.0048
751.00,0.0047
750.00,0.0047
749.00,0.0047
748.00,0.0047
747.00,0.0048
746.00,0.0049
745.00,0.0049
744.00,0.0050
743.00,0.0051
742.00,0.0052
741.00,0.0053
740.00,0.0054
739.00,0.0055
738.00,0.0057
737.00,0.0059
736.00,0.0060
735.00,0.0062
734.00,0.0064
733.00,0.0067
732.00,0.0070
731.00,0.0074
730.00,0.0079
729.00,0.0083
728.00,0.0085
727.00,0.0084
726.00,0.0084
725.00,0.0084
724.00,0.0085
723.00,0.0088
722.00,0.0091
721.00,0.0093
720.00,0.0093
719.00,0.0091
718.00,0.0085
717.00,0.0079
716.00,0.0074
715.00,0.0070
714.00,0.0068
713.00,0.0066
712.00,0.0064
711.00,0.0063
710.00,0.0063
709.00,0.0061
708.00,0.0060
707.00,0.0058
706.00,0.0057
705.00,0.0055
704.00,0.0053
703.00,0.0051
702.00,0.0050
701.00,0.0051
700.00,0.0051
699.00,0.0050
698.00,0.0049
697.00,0.0048
696.00,0.0046
695.00,0.0045
694.00,0.0044
693.00,0.0043
692.00,0.0041
691.00,0.0039
690.00,0.0038
689.00,0.0038
688.00,0.0040
687.00,0.0042
686.00,0.0045
685.00,0.0046
684.00,0.0047
683.00,0.0046
682.00,0.0046
681.00,0.0047
680.00,0.0047
679.00,0.0046
678.00,0.0045
677.00,0.0044
676.00,0.0043
675.00,0.0043
674.00,0.0043
673.00,0.0043
672.00,0.0043
671.00,0.0042
670.00,0.0042
669.00,0.0042
668.00,0.0044
667.00,0.0046
666.00,0.0047
665.00,0.0045
664.00,0.0043
663.00,0.0042
662.00,0.0042
661.00,0.0043
660.00,0.0044
659.00,0.0045
658.00,0.0046
657.00,0.0046
656.00,0.0045
655.00,0.0044
654.00,0.0043
653.00,0.0043
652.00,0.0044
651.00,0.0045
650.00,0.0045
649.00,0.0044
648.00,0.0041
647.00,0.0039
646.00,0.0038
645.00,0.0039
644.00,0.0039
643.00,0.0040
642.00,0.0041
641.00,0.0042
640.00,0.0043
639.00,0.0045
638.00,0.0046
637.00,0.0046
636.00,0.0045
635.00,0.0045
634.00,0.0045
633.00,0.0046
632.00,0.0047
631.00,0.0048
630.00,0.0048
629.00,0.0047
628.00,0.0045
627.00,0.0043
626.00,0.0043
625.00,0.0044
624.00,0.0046
623.00,0.0048
622.00,0.0048
621.00,0.0047
620.00,0.0046
619.00,0.0046
618.00,0.0046
617.00,0.0045
616.00,0.0044
615.00,0.0043
614.00,0.0044
613.00,0.0045
612.00,0.0045
611.00,0.0045
610.00,0.0043
609.00,0.0042
608.00,0.0041
607.00,0.0042
606.00,0.0043
605.00,0.0044
604.00,0.0045
603.00,0.0047
602.00,0.0050
601.00,0.0052
600.00,0.0052
599.00,0.0049
598.00,0.0045
597.00,0.0043
596.00,0.0043
595.00,0.0046
594.00,0.0048
593.00,0.0048
592.00,0.0047
591.00,0.0045
590.00,0.0045
589.00,0.0046
588.00,0.0047
587.00,0.0048
586.00,0.0049
585.00,0.0050
584.00,0.0049
583.00,0.0050
582.00,0.0052
581.00,0.0054
580.00,0.0055
579.00,0.0055
578.00,0.0055
577.00,0.0055
576.00,0.0054
575.00,0.0053
574.00,0.0053
573.00,0.0053
572.00,0.0051
571.00,0.0047
570.00,0.0042
569.00,0.0038
568.00,0.0037
567.00,0.0038
566.00,0.0042
565.00,0.0045
564.00,0.0048
563.00,0.0049
562.00,0.0049
561.00,0.0046
560.00,0.0044
559.00,0.0044
558.00,0.0046
557.00,0.0049
556.00,0.0049
555.00,0.0047
554.00,0.0044
553.00,0.0043
552.00,0.0045
551.00,0.0048
550.00,0.0050
549.00,0.0051
548.00,0.0050
547.00,0.0048
546.00,0.0049
545.00,0.0053
544.00,0.0057
543.00,0.0059
542.00,0.0058
541.00,0.0055
540.00,0.0051
539.00,0.0049
538.00,0.0048
537.00,0.0047
536.00,0.0046
535.00,0.0046
534.00,0.0047
533.00,0.0049
532.00,0.0049
531.00,0.0050
530.00,0.0052
529.00,0.0054
528.00,0.0054
527.00,0.0055
526.00,0.0055
525.00,0.0055
524.00,0.0055
523.00,0.0055
522.00,0.0055
521.00,0.0055
520.00,0.0056
519.00,0.0056
518.00,0.0057
517.00,0.0057
516.00,0.0057
515.00,0.0055
514.00,0.0054
513.00,0.0055
512.00,0.0058
511.00,0.0063
510.00,0.0066
509.00,0.0066
508.00,0.0061
507.00,0.0054
506.00,0.0046
505.00,0.0041
504.00,0.0037
503.00,0.0036
502.00,0.0042
501.00,0.0052
500.00,0.0062
499.00,0.0067
498.00,0.0067
497.00,0.0063
496.00,0.0058
495.00,0.0055
494.00,0.0058
493.00,0.0061
492.00,0.0063
491.00,0.0060
490.00,0.0056
489.00,0.0053
488.00,0.0050
487.00,0.0049
486.00,0.0050
485.00,0.0052
484.00,0.0053
483.00,0.0055
482.00,0.0059
481.00,0.0064
480.00,0.0066
479.00,0.0059
478.00,0.0048
477.00,0.0043
476.00,0.0048
475.00,0.0060
474.00,0.0068
473.00,0.0065
472.00,0.0056
471.00,0.0050
470.00,0.0052
469.00,0.0059
468.00,0.0064
467.00,0.0067
466.00,0.0068
465.00,0.0068
464.00,0.0070
463.00,0.0077
462.00,0.0090
461.00,0.0107
460.00,0.0121
459.00,0.0127
458.00,0.0122
457.00,0.0112
456.00,0.0103
455.00,0.0100
454.00,0.0099
453.00,0.0095
452.00,0.0086
451.00,0.0074
450.00,0.0064
