Created as New Dataset,Sample 049 By Administrator Date Wednesday, September 10 2025
cm-1,A
4000.00,0.0009
3999.00,0.0009
3998.00,0.0009
3997.00,0.0009
3996.00,0.0009
3995.00,0.0009
3994.00,0.0009
3993.00,0.0009
3992.00,0.0008
3991.00,0.0008
3990.00,0.0008
3989.00,0.0008
3988.00,0.0009
3987.00,0.0008
3986.00,0.0008
3985.00,0.0008
3984.00,0.0008
3983.00,0.0008
3982.00,0.0008
3981.00,0.0008
3980.00,0.0008
3979.00,0.0008
3978.00,0.0008
3977.00,0.0008
3976.00,0.0007
3975.00,0.0007
3974.00,0.0007
3973.00,0.0007
3972.00,0.0007
3971.00,0.0007
3970.00,0.0007
3969.00,0.0007
3968.00,0.0007
3967.00,0.0007
3966.00,0.0007
3965.00,0.0007
3964.00,0.0007
3963.00,0.0007
3962.00,0.0007
3961.00,0.0007
3960.00,0.0007
3959.00,0.0007
3958.00,0.0007
3957.00,0.0007
3956.00,0.0007
3955.00,0.0007
3954.00,0.0007
3953.00,0.0006
3952.00,0.0006
3951.00,0.0006
3950.00,0.0006
3949.00,0.0006
3948.00,0.0006
3947.00,0.0007
3946.00,0.0007
3945.00,0.0007
3944.00,0.0007
3943.00,0.0007
3942.00,0.0007
3941.00,0.0007
3940.00,0.0007
3939.00,0.0007
3938.00,0.0007
3937.00,0.0007
3936.00,0.0007
3935.00,0.0007
3934.00,0.0007
3933.00,0.0006
3932.00,0.0006
3931.00,0.0006
3930.00,0.0007
3929.00,0.0007
3928.00,0.0007
3927.00,0.0007
3926.00,0.0007
3925.00,0.0007
3924.00,0.0007
3923.00,0.0007
3922.00,0.0007
3921.00,0.0007
3920.00,0.0007
3919.00,0.0007
3918.00,0.0006
3917.00,0.0007
3916.00,0.0007
3915.00,0.0007
3914.00,0.0007
3913.00,0.0007
3912.00,0.0007
3911.00,0.0007
3910.00,0.0007
3909.00,0.0006
3908.00,0.0006
3907.00,0.0006
3906.00,0.0006
3905.00,0.0006
3904.00,0.0005
3903.00,0.0005
3902.00,0.0004
3901.00,0.0004
3900.00,0.0005
3899.00,0.0005
3898.00,0.0005
3897.00,0.0005
3896.00,0.0006
3895.00,0.0006
3894.00,0.0006
3893.00,0.0006
3892.00,0.0006
3891.00,0.0006
3890.00,0.0006
3889.00,0.0006
3888.00,0.0006
3887.00,0.0006
3886.00,0.0005
3885.00,0.0005
3884.00,0.0006
3883.00,0.0006
3882.00,0.0006
3881.00,0.0007
3880.00,0.0007
3879.00,0.0007
3878.00,0.0007
3877.00,0.0007
3876.00,0.0007
3875.00,0.0006
3874.00,0.0006
3873.00,0.0006
3872.00,0.0005
3871.00,0.0005
3870.00,0.0005
3869.00,0.0005
3868.00,0.0005
3867.00,0.0005
3866.00,0.0005
3865.00,0.0006
3864.00,0.0006
3863.00,0.0006
3862.00,0.0006
3861.00,0.0006
3860.00,0.0006
3859.00,0.0006
3858.00,0.0007
3857.00,0.0007
3856.00,0.0006
3855.00,0.0006
3854.00,0.0005
3853.00,0.0005
3852.00,0.0005
3851.00,0.0005
3850.00,0.0005
3849.00,0.0005
3848.00,0.0006
3847.00,0.0006
3846.00,0.0006
3845.00,0.0006
3844.00,0.0006
3843.00,0.0007
3842.00,0.0007
3841.00,0.0006
3840.00,0.0007
3839.00,0.0007
3838.00,0.0007
3837.00,0.0007
3836.00,0.0007
3835.00,0.0006
3834.00,0.0005
3833.00,0.0005
3832.00,0.0005
3831.00,0.0005
3830.00,0.0006
3829.00,0.0006
3828.00,0.0006
3827.00,0.0006
3826.00,0.0006
3825.00,0.0006
3824.00,0.0006
3823.00,0.0006
3822.00,0.0006
3821.00,0.0006
3820.00,0.0005
3819.00,0.0005
3818.00,0.0005
3817.00,0.0006
3816.00,0.0006
3815.00,0.0006
3814.00,0.0007
3813.00,0.0007
3812.00,0.0007
3811.00,0.0007
3810.00,0.0007
3809.00,0.0006
3808.00,0.0006
3807.00,0.0006
3806.00,0.0007
3805.00,0.0007
3804.00,0.0007
3803.00,0.0007
3802.00,0.0006
3801.00,0.0006
3800.00,0.0006
3799.00,0.0006
3798.00,0.0006
3797.00,0.0006
3796.00,0.0006
3795.00,0.0006
3794.00,0.0006
3793.00,0.0006
3792.00,0.0006
3791.00,0.0006
3790.00,0.0006
3789.00,0.0006
3788.00,0.0007
3787.00,0.0007
3786.00,0.0007
3785.00,0.0006
3784.00,0.0006
3783.00,0.0006
3782.00,0.0006
3781.00,0.0006
3780.00,0.0006
3779.00,0.0006
3778.00,0.0006
3777.00,0.0006
3776.00,0.0006
3775.00,0.0006
3774.00,0.0007
3773.00,0.0007
3772.00,0.0008
3771.00,0.0008
3770.00,0.0008
3769.00,0.0008
3768.00,0.0007
3767.00,0.0007
3766.00,0.0007
3765.00,0.0007
3764.00,0.0007
3763.00,0.0007
3762.00,0.0007
3761.00,0.0007
3760.00,0.0007
3759.00,0.0007
3758.00,0.0007
3757.00,0.0006
3756.00,0.0006
3755.00,0.0006
3754.00,0.0006
3753.00,0.0007
3752.00,0.0007
3751.00,0.0007
3750.00,0.0007
3749.00,0.0007
3748.00,0.0007
3747.00,0.0007
3746.00,0.0007
3745.00,0.0007
3744.00,0.0007
3743.00,0.0006
3742.00,0.0006
3741.00,0.0005
3740.00,0.0005
3739.00,0.0005
3738.00,0.0005
3737.00,0.0005
3736.00,0.0005
3735.00,0.0005
3734.00,0.0004
3733.00,0.0004
3732.00,0.0005
3731.00,0.0005
3730.00,0.0005
3729.00,0.0005
3728.00,0.0005
3727.00,0.0005
3726.00,0.0005
3725.00,0.0005
3724.00,0.0005
3723.00,0.0005
3722.00,0.0005
3721.00,0.0005
3720.00,0.0005
3719.00,0.0004
3718.00,0.0004
3717.00,0.0004
3716.00,0.0004
3715.00,0.0003
3714.00,0.0003
3713.00,0.0003
3712.00,0.0003
3711.00,0.0004
3710.00,0.0004
3709.00,0.0005
3708.00,0.0005
3707.00,0.0005
3706.00,0.0005
3705.00,0.0005
3704.00,0.0005
3703.00,0.0004
3702.00,0.0004
3701.00,0.0004
3700.00,0.0005
3699.00,0.0005
3698.00,0.0005
3697.00,0.0005
3696.00,0.0005
3695.00,0.0005
3694.00,0.0005
3693.00,0.0006
3692.00,0.0006
3691.00,0.0006
3690.00,0.0007
3689.00,0.0007
3688.00,0.0008
3687.00,0.0008
3686.00,0.0007
3685.00,0.0007
3684.00,0.0006
3683.00,0.0005
3682.00,0.0005
3681.00,0.0004
3680.00,0.0004
3679.00,0.0004
3678.00,0.0004
3677.00,0.0005
3676.00,0.0006
3675.00,0.0006
3674.00,0.0007
3673.00,0.0006
3672.00,0.0005
3671.00,0.0005
3670.00,0.0005
3669.00,0.0005
3668.00,0.0005
3667.00,0.0005
3666.00,0.0005
3665.00,0.0005
3664.00,0.0006
3663.00,0.0006
3662.00,0.0006
3661.00,0.0006
3660.00,0.0006
3659.00,0.0006
3658.00,0.0006
3657.00,0.0006
3656.00,0.0006
3655.00,0.0006
3654.00,0.0006
3653.00,0.0006
3652.00,0.0006
3651.00,0.0006
3650.00,0.0006
3649.00,0.0006
3648.00,0.0006
3647.00,0.0006
3646.00,0.0006
3645.00,0.0006
3644.00,0.0006
3643.00,0.0006
3642.00,0.0007
3641.00,0.0007
3640.00,0.0007
3639.00,0.0007
3638.00,0.0007
3637.00,0.0007
3636.00,0.0007
3635.00,0.0007
3634.00,0.0007
3633.00,0.0007
3632.00,0.0006
3631.00,0.0006
3630.00,0.0006
3629.00,0.0007
3628.00,0.0007
3627.00,0.0007
3626.00,0.0007
3625.00,0.0007
3624.00,0.0008
3623.00,0.0008
3622.00,0.0008
3621.00,0.0008
3620.00,0.0008
3619.00,0.0008
3618.00,0.0008
3617.00,0.0008
3616.00,0.0008
3615.00,0.0009
3614.00,0.0009
3613.00,0.0009
3612.00,0.0009
3611.00,0.0009
3610.00,0.0009
3609.00,0.0010
3608.00,0.0010
3607.00,0.0010
3606.00,0.0010
3605.00,0.0010
3604.00,0.0010
3603.00,0.0009
3602.00,0.0010
3601.00,0.0010
3600.00,0.0010
3599.00,0.0011
3598.00,0.0011
3597.00,0.0012
3596.00,0.0012
3595.00,0.0012
3594.00,0.0012
3593.00,0.0012
3592.00,0.0012
3591.00,0.0012
3590.00,0.0012
3589.00,0.0012
3588.00,0.0012
3587.00,0.0012
3586.00,0.0012
3585.00,0.0012
3584.00,0.0012
3583.00,0.0013
3582.00,0.0013
3581.00,0.0014
3580.00,0.0014
3579.00,0.0015
3578.00,0.0015
3577.00,0.0015
3576.00,0.0015
3575.00,0.0015
3574.00,0.0015
3573.00,0.0016
3572.00,0.0016
3571.00,0.0017
3570.00,0.0016
3569.00,0.0016
3568.00,0.0016
3567.00,0.0017
3566.00,0.0018
3565.00,0.0018
3564.00,0.0019
3563.00,0.0018
3562.00,0.0018
3561.00,0.0018
3560.00,0.0019
3559.00,0.0019
3558.00,0.0020
3557.00,0.0020
3556.00,0.0020
3555.00,0.0020
3554.00,0.0020
3553.00,0.0021
3552.00,0.0021
3551.00,0.0022
3550.00,0.0022
3549.00,0.0022
3548.00,0.0022
3547.00,0.0023
3546.00,0.0023
3545.00,0.0022
3544.00,0.0023
3543.00,0.0023
3542.00,0.0023
3541.00,0.0023
3540.00,0.0023
3539.00,0.0024
3538.00,0.0024
3537.00,0.0024
3536.00,0.0024
3535.00,0.0025
3534.00,0.0025
3533.00,0.0026
3532.00,0.0026
3531.00,0.0026
3530.00,0.0026
3529.00,0.0026
3528.00,0.0026
3527.00,0.0026
3526.00,0.0026
3525.00,0.0026
3524.00,0.0026
3523.00,0.0027
3522.00,0.0028
3521.00,0.0028
3520.00,0.0028
3519.00,0.0028
3518.00,0.0029
3517.00,0.0029
3516.00,0.0029
3515.00,0.0030
3514.00,0.0030
3513.00,0.0031
3512.00,0.0031
3511.00,0.0031
3510.00,0.0032
3509.00,0.0032
3508.00,0.0032
3507.00,0.0032
3506.00,0.0032
3505.00,0.0032
3504.00,0.0032
3503.00,0.0032
3502.00,0.0032
3501.00,0.0032
3500.00,0.0033
3499.00,0.0033
3498.00,0.0033
3497.00,0.0034
3496.00,0.0034
3495.00,0.0034
3494.00,0.0034
3493.00,0.0034
3492.00,0.0035
3491.00,0.0035
3490.00,0.0036
3489.00,0.0036
3488.00,0.0037
3487.00,0.0037
3486.00,0.0037
3485.00,0.0037
3484.00,0.0037
3483.00,0.0037
3482.00,0.0037
3481.00,0.0038
3480.00,0.0038
3479.00,0.0038
3478.00,0.0039
3477.00,0.0039
3476.00,0.0039
3475.00,0.0040
3474.00,0.0040
3473.00,0.0040
3472.00,0.0040
3471.00,0.0041
3470.00,0.0041
3469.00,0.0040
3468.00,0.0041
3467.00,0.0041
3466.00,0.0041
3465.00,0.0042
3464.00,0.0042
3463.00,0.0042
3462.00,0.0042
3461.00,0.0042
3460.00,0.0042
3459.00,0.0042
3458.00,0.0043
3457.00,0.0043
3456.00,0.0044
3455.00,0.0044
3454.00,0.0044
3453.00,0.0045
3452.00,0.0045
3451.00,0.0045
3450.00,0.0045
3449.00,0.0045
3448.00,0.0046
3447.00,0.0046
3446.00,0.0046
3445.00,0.0046
3444.00,0.0046
3443.00,0.0046
3442.00,0.0046
3441.00,0.0046
3440.00,0.0047
3439.00,0.0048
3438.00,0.0048
3437.00,0.0049
3436.00,0.0050
3435.00,0.0050
3434.00,0.0050
3433.00,0.0050
3432.00,0.0050
3431.00,0.0050
3430.00,0.0050
3429.00,0.0050
3428.00,0.0051
3427.00,0.0051
3426.00,0.0051
3425.00,0.0051
3424.00,0.0051
3423.00,0.0051
3422.00,0.0051
3421.00,0.0052
3420.00,0.0052
3419.00,0.0052
3418.00,0.0053
3417.00,0.0053
3416.00,0.0054
3415.00,0.0054
3414.00,0.0054
3413.00,0.0055
3412.00,0.0055
3411.00,0.0056
3410.00,0.0056
3409.00,0.0056
3408.00,0.0056
3407.00,0.0056
3406.00,0.0056
3405.00,0.0056
3404.00,0.0056
3403.00,0.0056
3402.00,0.0056
3401.00,0.0057
3400.00,0.0058
3399.00,0.0058
3398.00,0.0058
3397.00,0.0057
3396.00,0.0057
3395.00,0.0057
3394.00,0.0057
3393.00,0.0058
3392.00,0.0058
3391.00,0.0058
3390.00,0.0058
3389.00,0.0058
3388.00,0.0058
3387.00,0.0058
3386.00,0.0059
3385.00,0.0059
3384.00,0.0058
3383.00,0.0058
3382.00,0.0058
3381.00,0.0059
3380.00,0.0059
3379.00,0.0059
3378.00,0.0060
3377.00,0.0060
3376.00,0.0060
3375.00,0.0060
3374.00,0.0060
3373.00,0.0060
3372.00,0.0060
3371.00,0.0060
3370.00,0.0061
3369.00,0.0061
3368.00,0.0061
3367.00,0.0061
3366.00,0.0061
3365.00,0.0061
3364.00,0.0061
3363.00,0.0062
3362.00,0.0062
3361.00,0.0062
3360.00,0.0062
3359.00,0.0062
3358.00,0.0062
3357.00,0.0063
3356.00,0.0063
3355.00,0.0063
3354.00,0.0064
3353.00,0.0064
3352.00,0.0064
3351.00,0.0064
3350.00,0.0064
3349.00,0.0064
3348.00,0.0064
3347.00,0.0064
3346.00,0.0064
3345.00,0.0064
3344.00,0.0065
3343.00,0.0065
3342.00,0.0065
3341.00,0.0065
3340.00,0.0065
3339.00,0.0065
3338.00,0.0065
3337.00,0.0065
3336.00,0.0065
3335.00,0.0065
3334.00,0.0065
3333.00,0.0065
3332.00,0.0065
3331.00,0.0065
3330.00,0.0066
3329.00,0.0066
3328.00,0.0066
3327.00,0.0066
3326.00,0.0066
3325.00,0.0065
3324.00,0.0065
3323.00,0.0065
3322.00,0.0065
3321.00,0.0065
3320.00,0.0065
3319.00,0.0065
3318.00,0.0065
3317.00,0.0065
3316.00,0.0065
3315.00,0.0066
3314.00,0.0066
3313.00,0.0066
3312.00,0.0066
3311.00,0.0066
3310.00,0.0067
3309.00,0.0067
3308.00,0.0067
3307.00,0.0067
3306.00,0.0067
3305.00,0.0067
3304.00,0.0066
3303.00,0.0066
3302.00,0.0066
3301.00,0.0066
3300.00,0.0066
3299.00,0.0066
3298.00,0.0066
3297.00,0.0066
3296.00,0.0066
3295.00,0.0066
3294.00,0.0066
3293.00,0.0066
3292.00,0.0066
3291.00,0.0066
3290.00,0.0066
3289.00,0.0066
3288.00,0.0066
3287.00,0.0065
3286.00,0.0065
3285.00,0.0064
3284.00,0.0064
3283.00,0.0064
3282.00,0.0064
3281.00,0.0064
3280.00,0.0064
3279.00,0.0064
3278.00,0.0063
3277.00,0.0063
3276.00,0.0062
3275.00,0.0062
3274.00,0.0062
3273.00,0.0062
3272.00,0.0062
3271.00,0.0062
3270.00,0.0062
3269.00,0.0062
3268.00,0.0061
3267.00,0.0061
3266.00,0.0060
3265.00,0.0060
3264.00,0.0060
3263.00,0.0060
3262.00,0.0060
3261.00,0.0059
3260.00,0.0059
3259.00,0.0058
3258.00,0.0058
3257.00,0.0057
3256.00,0.0057
3255.00,0.0057
3254.00,0.0057
3253.00,0.0056
3252.00,0.0056
3251.00,0.0056
3250.00,0.0056
3249.00,0.0056
3248.00,0.0056
3247.00,0.0056
3246.00,0.0056
3245.00,0.0056
3244.00,0.0056
3243.00,0.0056
3242.00,0.0056
3241.00,0.0056
3240.00,0.0056
3239.00,0.0056
3238.00,0.0055
3237.00,0.0055
3236.00,0.0055
3235.00,0.0054
3234.00,0.0054
3233.00,0.0055
3232.00,0.0055
3231.00,0.0056
3230.00,0.0056
3229.00,0.0056
3228.00,0.0056
3227.00,0.0056
3226.00,0.0056
3225.00,0.0056
3224.00,0.0056
3223.00,0.0056
3222.00,0.0056
3221.00,0.0056
3220.00,0.0056
3219.00,0.0056
3218.00,0.0057
3217.00,0.0057
3216.00,0.0058
3215.00,0.0058
3214.00,0.0059
3213.00,0.0059
3212.00,0.0060
3211.00,0.0060
3210.00,0.0060
3209.00,0.0060
3208.00,0.0060
3207.00,0.0060
3206.00,0.0060
3205.00,0.0060
3204.00,0.0060
3203.00,0.0059
3202.00,0.0059
3201.00,0.0059
3200.00,0.0058
3199.00,0.0058
3198.00,0.0058
3197.00,0.0059
3196.00,0.0059
3195.00,0.0059
3194.00,0.0058
3193.00,0.0058
3192.00,0.0058
3191.00,0.0058
3190.00,0.0058
3189.00,0.0058
3188.00,0.0058
3187.00,0.0057
3186.00,0.0056
3185.00,0.0056
3184.00,0.0055
3183.00,0.0055
3182.00,0.0055
3181.00,0.0055
3180.00,0.0055
3179.00,0.0055
3178.00,0.0055
3177.00,0.0054
3176.00,0.0054
3175.00,0.0054
3174.00,0.0053
3173.00,0.0052
3172.00,0.0052
3171.00,0.0051
3170.00,0.0051
3169.00,0.0051
3168.00,0.0051
3167.00,0.0050
3166.00,0.0050
3165.00,0.0050
3164.00,0.0050
3163.00,0.0050
3162.00,0.0050
3161.00,0.0050
3160.00,0.0050
3159.00,0.0049
3158.00,0.0049
3157.00,0.0048
3156.00,0.0048
3155.00,0.0048
3154.00,0.0048
3153.00,0.0048
3152.00,0.0048
3151.00,0.0048
3150.00,0.0049
3149.00,0.0048
3148.00,0.0048
3147.00,0.0048
3146.00,0.0047
3145.00,0.0047
3144.00,0.0047
3143.00,0.0047
3142.00,0.0047
3141.00,0.0047
3140.00,0.0047
3139.00,0.0047
3138.00,0.0047
3137.00,0.0047
3136.00,0.0046
3135.00,0.0046
3134.00,0.0046
3133.00,0.0045
3132.00,0.0045
3131.00,0.0044
3130.00,0.0044
3129.00,0.0044
3128.00,0.0044
3127.00,0.0043
3126.00,0.0043
3125.00,0.0043
3124.00,0.0043
3123.00,0.0042
3122.00,0.0042
3121.00,0.0042
3120.00,0.0042
3119.00,0.0042
3118.00,0.0041
3117.00,0.0041
3116.00,0.0041
3115.00,0.0041
3114.00,0.0041
3113.00,0.0041
3112.00,0.0040
3111.00,0.0040
3110.00,0.0040
3109.00,0.0040
3108.00,0.0040
3107.00,0.0040
3106.00,0.0039
3105.00,0.0039
3104.00,0.0039
3103.00,0.0039
3102.00,0.0038
3101.00,0.0038
3100.00,0.0038
3099.00,0.0038
3098.00,0.0038
3097.00,0.0037
3096.00,0.0037
3095.00,0.0037
3094.00,0.0037
3093.00,0.0037
3092.00,0.0037
3091.00,0.0037
3090.00,0.0037
3089.00,0.0037
3088.00,0.0037
3087.00,0.0037
3086.00,0.0037
3085.00,0.0036
3084.00,0.0036
3083.00,0.0037
3082.00,0.0037
3081.00,0.0037
3080.00,0.0037
3079.00,0.0037
3078.00,0.0037
3077.00,0.0037
3076.00,0.0037
3075.00,0.0037
3074.00,0.0037
3073.00,0.0037
3072.00,0.0037
3071.00,0.0037
3070.00,0.0037
3069.00,0.0037
3068.00,0.0038
3067.00,0.0038
3066.00,0.0038
3065.00,0.0038
3064.00,0.0038
3063.00,0.0038
3062.00,0.0038
3061.00,0.0039
3060.00,0.0039
3059.00,0.0039
3058.00,0.0039
3057.00,0.0039
3056.00,0.0039
3055.00,0.0039
3054.00,0.0039
3053.00,0.0039
3052.00,0.0039
3051.00,0.0040
3050.00,0.0040
3049.00,0.0040
3048.00,0.0040
3047.00,0.0040
3046.00,0.0040
3045.00,0.0040
3044.00,0.0040
3043.00,0.0041
3042.00,0.0041
3041.00,0.0041
3040.00,0.0042
3039.00,0.0042
3038.00,0.0042
3037.00,0.0042
3036.00,0.0042
3035.00,0.0043
3034.00,0.0043
3033.00,0.0043
3032.00,0.0044
3031.00,0.0044
3030.00,0.0045
3029.00,0.0045
3028.00,0.0046
3027.00,0.0046
3026.00,0.0047
3025.00,0.0048
3024.00,0.0049
3023.00,0.0050
3022.00,0.0051
3021.00,0.0051
3020.00,0.0052
3019.00,0.0052
3018.00,0.0053
3017.00,0.0054
3016.00,0.0056
3015.00,0.0057
3014.00,0.0059
3013.00,0.0060
3012.00,0.0061
3011.00,0.0063
3010.00,0.0064
3009.00,0.0066
3008.00,0.0068
3007.00,0.0069
3006.00,0.0071
3005.00,0.0072
3004.00,0.0074
3003.00,0.0076
3002.00,0.0078
3001.00,0.0081
3000.00,0.0083
2999.00,0.0086
2998.00,0.0088
2997.00,0.0091
2996.00,0.0095
2995.00,0.0099
2994.00,0.0103
2993.00,0.0108
2992.00,0.0114
2991.00,0.0120
2990.00,0.0126
2989.00,0.0133
2988.00,0.0141
2987.00,0.0150
2986.00,0.0160
2985.00,0.0171
2984.00,0.0183
2983.00,0.0197
2982.00,0.0213
2981.00,0.0230
2980.00,0.0250
2979.00,0.0272
2978.00,0.0297
2977.00,0.0325
2976.00,0.0357
2975.00,0.0394
2974.00,0.0436
2973.00,0.0484
2972.00,0.0538
2971.00,0.0598
2970.00,0.0664
2969.00,0.0737
2968.00,0.0816
2967.00,0.0899
2966.00,0.0987
2965.00,0.1075
2964.00,0.1160
2963.00,0.1238
2962.00,0.1306
2961.00,0.1361
2960.00,0.1404
2959.00,0.1441
2958.00,0.1477
2957.00,0.1519
2956.00,0.1572
2955.00,0.1639
2954.00,0.1719
2953.00,0.1807
2952.00,0.1891
2951.00,0.1960
2950.00,0.2000
2949.00,0.1999
2948.00,0.1953
2947.00,0.1863
2946.00,0.1742
2945.00,0.1604
2944.00,0.1466
2943.00,0.1342
2942.00,0.1241
2941.00,0.1166
2940.00,0.1118
2939.00,0.1095
2938.00,0.1095
2937.00,0.1114
2936.00,0.1151
2935.00,0.1204
2934.00,0.1273
2933.00,0.1355
2932.00,0.1450
2931.00,0.1555
2930.00,0.1668
2929.00,0.1785
2928.00,0.1903
2927.00,0.2018
2926.00,0.2128
2925.00,0.2234
2924.00,0.2337
2923.00,0.2438
2922.00,0.2539
2921.00,0.2637
2920.00,0.2724
2919.00,0.2793
2918.00,0.2833
2917.00,0.2835
2916.00,0.2796
2915.00,0.2722
2914.00,0.2621
2913.00,0.2508
2912.00,0.2391
2911.00,0.2281
2910.00,0.2180
2909.00,0.2088
2908.00,0.2004
2907.00,0.1924
2906.00,0.1846
2905.00,0.1768
2904.00,0.1691
2903.00,0.1615
2902.00,0.1540
2901.00,0.1467
2900.00,0.1398
2899.00,0.1333
2898.00,0.1273
2897.00,0.1220
2896.00,0.1173
2895.00,0.1133
2894.00,0.1101
2893.00,0.1076
2892.00,0.1058
2891.00,0.1047
2890.00,0.1042
2889.00,0.1043
2888.00,0.1047
2887.00,0.1055
2886.00,0.1067
2885.00,0.1082
2884.00,0.1102
2883.00,0.1126
2882.00,0.1155
2881.00,0.1187
2880.00,0.1218
2879.00,0.1244
2878.00,0.1262
2877.00,0.1269
2876.00,0.1267
2875.00,0.1258
2874.00,0.1250
2873.00,0.1248
2872.00,0.1254
2871.00,0.1269
2870.00,0.1291
2869.00,0.1316
2868.00,0.1335
2867.00,0.1338
2866.00,0.1318
2865.00,0.1270
2864.00,0.1195
2863.00,0.1102
2862.00,0.1003
2861.00,0.0909
2860.00,0.0828
2859.00,0.0761
2858.00,0.0710
2857.00,0.0673
2856.00,0.0646
2855.00,0.0629
2854.00,0.0620
2853.00,0.0617
2852.00,0.0621
2851.00,0.0631
2850.00,0.0647
2849.00,0.0671
2848.00,0.0703
2847.00,0.0744
2846.00,0.0794
2845.00,0.0853
2844.00,0.0921
2843.00,0.0994
2842.00,0.1068
2841.00,0.1138
2840.00,0.1196
2839.00,0.1231
2838.00,0.1238
2837.00,0.1210
2836.00,0.1149
2835.00,0.1060
2834.00,0.0955
2833.00,0.0844
2832.00,0.0738
2831.00,0.0644
2830.00,0.0565
2829.00,0.0499
2828.00,0.0446
2827.00,0.0403
2826.00,0.0368
2825.00,0.0339
2824.00,0.0315
2823.00,0.0295
2822.00,0.0279
2821.00,0.0264
2820.00,0.0251
2819.00,0.0240
2818.00,0.0230
2817.00,0.0221
2816.00,0.0213
2815.00,0.0207
2814.00,0.0200
2813.00,0.0194
2812.00,0.0189
2811.00,0.0184
2810.00,0.0179
2809.00,0.0173
2808.00,0.0167
2807.00,0.0160
2806.00,0.0153
2805.00,0.0147
2804.00,0.0140
2803.00,0.0134
2802.00,0.0128
2801.00,0.0123
2800.00,0.0119
2799.00,0.0116
2798.00,0.0113
2797.00,0.0111
2796.00,0.0109
2795.00,0.0107
2794.00,0.0104
2793.00,0.0101
2792.00,0.0098
2791.00,0.0095
2790.00,0.0092
2789.00,0.0089
2788.00,0.0086
2787.00,0.0083
2786.00,0.0080
2785.00,0.0078
2784.00,0.0076
2783.00,0.0073
2782.00,0.0071
2781.00,0.0070
2780.00,0.0068
2779.00,0.0066
2778.00,0.0064
2777.00,0.0063
2776.00,0.0062
2775.00,0.0061
2774.00,0.0060
2773.00,0.0059
2772.00,0.0059
2771.00,0.0059
2770.00,0.0059
2769.00,0.0058
2768.00,0.0058
2767.00,0.0058
2766.00,0.0058
2765.00,0.0057
2764.00,0.0057
2763.00,0.0056
2762.00,0.0056
2761.00,0.0055
2760.00,0.0055
2759.00,0.0055
2758.00,0.0055
2757.00,0.0055
2756.00,0.0055
2755.00,0.0055
2754.00,0.0054
2753.00,0.0054
2752.00,0.0054
2751.00,0.0053
2750.00,0.0053
2749.00,0.0053
2748.00,0.0053
2747.00,0.0054
2746.00,0.0054
2745.00,0.0055
2744.00,0.0056
2743.00,0.0057
2742.00,0.0058
2741.00,0.0059
2740.00,0.0059
2739.00,0.0060
2738.00,0.0062
2737.00,0.0063
2736.00,0.0065
2735.00,0.0066
2734.00,0.0068
2733.00,0.0070
2732.00,0.0072
2731.00,0.0075
2730.00,0.0077
2729.00,0.0080
2728.00,0.0082
2727.00,0.0085
2726.00,0.0088
2725.00,0.0090
2724.00,0.0092
2723.00,0.0092
2722.00,0.0091
2721.00,0.0089
2720.00,0.0087
2719.00,0.0083
2718.00,0.0080
2717.00,0.0076
2716.00,0.0073
2715.00,0.0070
2714.00,0.0067
2713.00,0.0065
2712.00,0.0062
2711.00,0.0060
2710.00,0.0059
2709.00,0.0057
2708.00,0.0055
2707.00,0.0054
2706.00,0.0053
2705.00,0.0051
2704.00,0.0050
2703.00,0.0049
2702.00,0.0049
2701.00,0.0048
2700.00,0.0047
2699.00,0.0046
2698.00,0.0046
2697.00,0.0045
2696.00,0.0045
2695.00,0.0045
2694.00,0.0045
2693.00,0.0045
2692.00,0.0045
2691.00,0.0045
2690.00,0.0045
2689.00,0.0045
2688.00,0.0045
2687.00,0.0045
2686.00,0.0045
2685.00,0.0045
2684.00,0.0045
2683.00,0.0046
2682.00,0.0046
2681.00,0.0046
2680.00,0.0046
2679.00,0.0046
2678.00,0.0046
2677.00,0.0046
2676.00,0.0047
2675.00,0.0047
2674.00,0.0047
2673.00,0.0047
2672.00,0.0046
2671.00,0.0046
2670.00,0.0046
2669.00,0.0045
2668.00,0.0045
2667.00,0.0046
2666.00,0.0046
2665.00,0.0047
2664.00,0.0048
2663.00,0.0048
2662.00,0.0048
2661.00,0.0048
2660.00,0.0048
2659.00,0.0048
2658.00,0.0048
2657.00,0.0048
2656.00,0.0048
2655.00,0.0048
2654.00,0.0047
2653.00,0.0047
2652.00,0.0046
2651.00,0.0045
2650.00,0.0044
2649.00,0.0044
2648.00,0.0044
2647.00,0.0044
2646.00,0.0043
2645.00,0.0043
2644.00,0.0042
2643.00,0.0041
2642.00,0.0040
2641.00,0.0040
2640.00,0.0039
2639.00,0.0039
2638.00,0.0039
2637.00,0.0039
2636.00,0.0038
2635.00,0.0038
2634.00,0.0038
2633.00,0.0038
2632.00,0.0038
2631.00,0.0038
2630.00,0.0039
2629.00,0.0039
2628.00,0.0040
2627.00,0.0040
2626.00,0.0040
2625.00,0.0040
2624.00,0.0040
2623.00,0.0040
2622.00,0.0040
2621.00,0.0040
2620.00,0.0040
2619.00,0.0041
2618.00,0.0041
2617.00,0.0041
2616.00,0.0041
2615.00,0.0041
2614.00,0.0041
2613.00,0.0041
2612.00,0.0040
2611.00,0.0040
2610.00,0.0039
2609.00,0.0038
2608.00,0.0038
2607.00,0.0037
2606.00,0.0036
2605.00,0.0036
2604.00,0.0035
2603.00,0.0034
2602.00,0.0034
2601.00,0.0034
2600.00,0.0034
2599.00,0.0034
2598.00,0.0033
2597.00,0.0033
2596.00,0.0033
2595.00,0.0033
2594.00,0.0034
2593.00,0.0034
2592.00,0.0035
2591.00,0.0035
2590.00,0.0035
2589.00,0.0036
2588.00,0.0037
2587.00,0.0038
2586.00,0.0039
2585.00,0.0040
2584.00,0.0040
2583.00,0.0040
2582.00,0.0040
2581.00,0.0040
2580.00,0.0040
2579.00,0.0040
2578.00,0.0039
2577.00,0.0037
2576.00,0.0036
2575.00,0.0035
2574.00,0.0034
2573.00,0.0032
2572.00,0.0031
2571.00,0.0030
2570.00,0.0029
2569.00,0.0028
2568.00,0.0027
2567.00,0.0026
2566.00,0.0026
2565.00,0.0025
2564.00,0.0024
2563.00,0.0024
2562.00,0.0024
2561.00,0.0024
2560.00,0.0025
2559.00,0.0025
2558.00,0.0025
2557.00,0.0024
2556.00,0.0024
2555.00,0.0023
2554.00,0.0023
2553.00,0.0022
2552.00,0.0022
2551.00,0.0022
2550.00,0.0021
2549.00,0.0021
2548.00,0.0021
2547.00,0.0021
2546.00,0.0021
2545.00,0.0020
2544.00,0.0020
2543.00,0.0020
2542.00,0.0019
2541.00,0.0019
2540.00,0.0017
2539.00,0.0016
2538.00,0.0016
2537.00,0.0016
2536.00,0.0016
2535.00,0.0016
2534.00,0.0017
2533.00,0.0017
2532.00,0.0017
2531.00,0.0016
2530.00,0.0016
2529.00,0.0015
2528.00,0.0015
2527.00,0.0015
2526.00,0.0014
2525.00,0.0014
2524.00,0.0014
2523.00,0.0013
2522.00,0.0013
2521.00,0.0013
2520.00,0.0013
2519.00,0.0013
2518.00,0.0012
2517.00,0.0012
2516.00,0.0012
2515.00,0.0012
2514.00,0.0011
2513.00,0.0011
2512.00,0.0011
2511.00,0.0011
2510.00,0.0011
2509.00,0.0012
2508.00,0.0012
2507.00,0.0012
2506.00,0.0013
2505.00,0.0013
2504.00,0.0013
2503.00,0.0013
2502.00,0.0012
2501.00,0.0011
2500.00,0.0011
2499.00,0.0011
2498.00,0.0012
2497.00,0.0012
2496.00,0.0012
2495.00,0.0011
2494.00,0.0010
2493.00,0.0009
2492.00,0.0009
2491.00,0.0009
2490.00,0.0010
2489.00,0.0010
2488.00,0.0011
2487.00,0.0011
2486.00,0.0011
2485.00,0.0011
2484.00,0.0011
2483.00,0.0011
2482.00,0.0011
2481.00,0.0011
2480.00,0.0011
2479.00,0.0011
2478.00,0.0011
2477.00,0.0011
2476.00,0.0010
2475.00,0.0010
2474.00,0.0010
2473.00,0.0010
2472.00,0.0011
2471.00,0.0011
2470.00,0.0011
2469.00,0.0010
2468.00,0.0010
2467.00,0.0009
2466.00,0.0009
2465.00,0.0009
2464.00,0.0009
2463.00,0.0009
2462.00,0.0010
2461.00,0.0010
2460.00,0.0011
2459.00,0.0011
2458.00,0.0011
2457.00,0.0012
2456.00,0.0012
2455.00,0.0013
2454.00,0.0013
2453.00,0.0013
2452.00,0.0013
2451.00,0.0012
2450.00,0.0012
2449.00,0.0011
2448.00,0.0010
2447.00,0.0009
2446.00,0.0009
2445.00,0.0009
2444.00,0.0009
2443.00,0.0009
2442.00,0.0010
2441.00,0.0011
2440.00,0.0011
2439.00,0.0011
2438.00,0.0011
2437.00,0.0011
2436.00,0.0011
2435.00,0.0011
2434.00,0.0010
2433.00,0.0011
2432.00,0.0011
2431.00,0.0011
2430.00,0.0012
2429.00,0.0012
2428.00,0.0012
2427.00,0.0011
2426.00,0.0011
2425.00,0.0011
2424.00,0.0011
2423.00,0.0011
2422.00,0.0010
2421.00,0.0010
2420.00,0.0009
2419.00,0.0009
2418.00,0.0010
2417.00,0.0010
2416.00,0.0011
2415.00,0.0011
2414.00,0.0011
2413.00,0.0011
2412.00,0.0011
2411.00,0.0011
2410.00,0.0010
2409.00,0.0009
2408.00,0.0008
2407.00,0.0007
2406.00,0.0006
2405.00,0.0007
2404.00,0.0007
2403.00,0.0008
2402.00,0.0008
2401.00,0.0008
2400.00,0.0008
2399.00,0.0008
2398.00,0.0007
2397.00,0.0007
2396.00,0.0007
2395.00,0.0007
2394.00,0.0007
2393.00,0.0007
2392.00,0.0007
2391.00,0.0007
2390.00,0.0007
2389.00,0.0007
2388.00,0.0008
2387.00,0.0008
2386.00,0.0008
2385.00,0.0007
2384.00,0.0007
2383.00,0.0006
2382.00,0.0006
2381.00,0.0005
2380.00,0.0005
2379.00,0.0005
2378.00,0.0004
2377.00,0.0004
2376.00,0.0005
2375.00,0.0005
2374.00,0.0006
2373.00,0.0006
2372.00,0.0006
2371.00,0.0006
2370.00,0.0005
2369.00,0.0004
2368.00,0.0003
2367.00,0.0002
2366.00,0.0002
2365.00,0.0003
2364.00,0.0005
2363.00,0.0007
2362.00,0.0008
2361.00,0.0009
2360.00,0.0009
2359.00,0.0007
2358.00,0.0006
2357.00,0.0005
2356.00,0.0005
2355.00,0.0005
2354.00,0.0006
2353.00,0.0006
2352.00,0.0005
2351.00,0.0005
2350.00,0.0005
2349.00,0.0006
2348.00,0.0007
2347.00,0.0008
2346.00,0.0008
2345.00,0.0008
2344.00,0.0008
2343.00,0.0009
2342.00,0.0009
2341.00,0.0009
2340.00,0.0009
2339.00,0.0009
2338.00,0.0009
2337.00,0.0009
2336.00,0.0009
2335.00,0.0009
2334.00,0.0009
2333.00,0.0008
2332.00,0.0008
2331.00,0.0007
2330.00,0.0007
2329.00,0.0008
2328.00,0.0009
2327.00,0.0013
2326.00,0.0017
2325.00,0.0021
2324.00,0.0023
2323.00,0.0021
2322.00,0.0018
2321.00,0.0015
2320.00,0.0013
2319.00,0.0012
2318.00,0.0011
2317.00,0.0010
2316.00,0.0010
2315.00,0.0010
2314.00,0.0010
2313.00,0.0009
2312.00,0.0009
2311.00,0.0009
2310.00,0.0009
2309.00,0.0009
2308.00,0.0009
2307.00,0.0009
2306.00,0.0009
2305.00,0.0009
2304.00,0.0009
2303.00,0.0010
2302.00,0.0010
2301.00,0.0010
2300.00,0.0011
2299.00,0.0012
2298.00,0.0013
2297.00,0.0013
2296.00,0.0012
2295.00,0.0012
2294.00,0.0012
2293.00,0.0013
2292.00,0.0014
2291.00,0.0015
2290.00,0.0016
2289.00,0.0016
2288.00,0.0017
2287.00,0.0018
2286.00,0.0018
2285.00,0.0018
2284.00,0.0017
2283.00,0.0016
2282.00,0.0015
2281.00,0.0015
2280.00,0.0015
2279.00,0.0015
2278.00,0.0015
2277.00,0.0014
2276.00,0.0013
2275.00,0.0013
2274.00,0.0012
2273.00,0.0012
2272.00,0.0012
2271.00,0.0011
2270.00,0.0011
2269.00,0.0010
2268.00,0.0011
2267.00,0.0011
2266.00,0.0011
2265.00,0.0011
2264.00,0.0011
2263.00,0.0011
2262.00,0.0011
2261.00,0.0011
2260.00,0.0012
2259.00,0.0013
2258.00,0.0012
2257.00,0.0010
2256.00,0.0008
2255.00,0.0007
2254.00,0.0008
2253.00,0.0009
2252.00,0.0010
2251.00,0.0010
2250.00,0.0011
2249.00,0.0011
2248.00,0.0011
2247.00,0.0010
2246.00,0.0008
2245.00,0.0006
2244.00,0.0005
2243.00,0.0005
2242.00,0.0005
2241.00,0.0005
2240.00,0.0005
2239.00,0.0004
2238.00,0.0004
2237.00,0.0004
2236.00,0.0006
2235.00,0.0008
2234.00,0.0010
2233.00,0.0010
2232.00,0.0010
2231.00,0.0009
2230.00,0.0008
2229.00,0.0007
2228.00,0.0006
2227.00,0.0005
2226.00,0.0004
2225.00,0.0003
2224.00,0.0003
2223.00,0.0003
2222.00,0.0004
2221.00,0.0005
2220.00,0.0006
2219.00,0.0007
2218.00,0.0007
2217.00,0.0006
2216.00,0.0006
2215.00,0.0005
2214.00,0.0004
2213.00,0.0005
2212.00,0.0005
2211.00,0.0005
2210.00,0.0005
2209.00,0.0004
2208.00,0.0005
2207.00,0.0007
2206.00,0.0009
2205.00,0.0011
2204.00,0.0011
2203.00,0.0008
2202.00,0.0006
2201.00,0.0005
2200.00,0.0005
2199.00,0.0007
2198.00,0.0008
2197.00,0.0007
2196.00,0.0006
2195.00,0.0006
2194.00,0.0006
2193.00,0.0006
2192.00,0.0008
2191.00,0.0011
2190.00,0.0014
2189.00,0.0017
2188.00,0.0019
2187.00,0.0018
2186.00,0.0015
2185.00,0.0013
2184.00,0.0012
2183.00,0.0010
2182.00,0.0007
2181.00,0.0005
2180.00,0.0005
2179.00,0.0007
2178.00,0.0009
2177.00,0.0010
2176.00,0.0009
2175.00,0.0007
2174.00,0.0005
2173.00,0.0005
2172.00,0.0005
2171.00,0.0006
2170.00,0.0008
2169.00,0.0011
2168.00,0.0013
2167.00,0.0015
2166.00,0.0017
2165.00,0.0019
2164.00,0.0021
2163.00,0.0024
2162.00,0.0025
2161.00,0.0021
2160.00,0.0011
2159.00,-0.0004
2158.00,-0.0018
2157.00,-0.0027
2156.00,-0.0030
2155.00,-0.0029
2154.00,-0.0028
2153.00,-0.0025
2152.00,-0.0022
2151.00,-0.0018
2150.00,-0.0015
2149.00,-0.0013
2148.00,-0.0013
2147.00,-0.0014
2146.00,-0.0014
2145.00,-0.0014
2144.00,-0.0011
2143.00,-0.0009
2142.00,-0.0008
2141.00,-0.0008
2140.00,-0.0011
2139.00,-0.0013
2138.00,-0.0015
2137.00,-0.0015
2136.00,-0.0016
2135.00,-0.0016
2134.00,-0.0017
2133.00,-0.0018
2132.00,-0.0017
2131.00,-0.0016
2130.00,-0.0015
2129.00,-0.0014
2128.00,-0.0012
2127.00,-0.0011
2126.00,-0.0009
2125.00,-0.0008
2124.00,-0.0006
2123.00,-0.0005
2122.00,-0.0004
2121.00,-0.0003
2120.00,-0.0002
2119.00,-0.0001
2118.00,-0.0000
2117.00,0.0000
2116.00,0.0001
2115.00,0.0002
2114.00,0.0003
2113.00,0.0004
2112.00,0.0004
2111.00,0.0003
2110.00,0.0001
2109.00,-0.0000
2108.00,-0.0001
2107.00,-0.0000
2106.00,0.0001
2105.00,0.0002
2104.00,0.0003
2103.00,0.0002
2102.00,0.0001
2101.00,0.0001
2100.00,0.0003
2099.00,0.0004
2098.00,0.0003
2097.00,0.0002
2096.00,-0.0000
2095.00,-0.0002
2094.00,-0.0003
2093.00,-0.0003
2092.00,-0.0003
2091.00,-0.0003
2090.00,-0.0004
2089.00,-0.0003
2088.00,-0.0002
2087.00,-0.0001
2086.00,0.0001
2085.00,0.0003
2084.00,0.0003
2083.00,0.0003
2082.00,0.0004
2081.00,0.0004
2080.00,0.0004
2079.00,0.0003
2078.00,0.0003
2077.00,0.0003
2076.00,0.0003
2075.00,0.0003
2074.00,0.0002
2073.00,0.0001
2072.00,0.0001
2071.00,0.0000
2070.00,0.0000
2069.00,0.0001
2068.00,0.0001
2067.00,0.0000
2066.00,-0.0001
2065.00,-0.0002
2064.00,-0.0002
2063.00,-0.0002
2062.00,-0.0002
2061.00,-0.0003
2060.00,-0.0003
2059.00,-0.0002
2058.00,-0.0001
2057.00,-0.0000
2056.00,0.0000
2055.00,-0.0000
2054.00,0.0001
2053.00,0.0003
2052.00,0.0008
2051.00,0.0011
2050.00,0.0011
2049.00,0.0007
2048.00,0.0003
2047.00,0.0000
2046.00,-0.0002
2045.00,-0.0003
2044.00,-0.0002
2043.00,-0.0001
2042.00,0.0000
2041.00,0.0001
2040.00,0.0002
2039.00,0.0003
2038.00,0.0003
2037.00,0.0000
2036.00,-0.0005
2035.00,-0.0009
2034.00,-0.0012
2033.00,-0.0011
2032.00,-0.0010
2031.00,-0.0009
2030.00,-0.0011
2029.00,-0.0015
2028.00,-0.0019
2027.00,-0.0021
2026.00,-0.0021
2025.00,-0.0019
2024.00,-0.0016
2023.00,-0.0013
2022.00,-0.0011
2021.00,-0.0008
2020.00,-0.0006
2019.00,-0.0004
2018.00,-0.0004
2017.00,-0.0004
2016.00,-0.0004
2015.00,-0.0003
2014.00,-0.0002
2013.00,-0.0001
2012.00,-0.0003
2011.00,-0.0006
2010.00,-0.0009
2009.00,-0.0012
2008.00,-0.0014
2007.00,-0.0016
2006.00,-0.0017
2005.00,-0.0015
2004.00,-0.0013
2003.00,-0.0012
2002.00,-0.0011
2001.00,-0.0011
2000.00,-0.0011
1999.00,-0.0011
1998.00,-0.0010
1997.00,-0.0009
1996.00,-0.0008
1995.00,-0.0009
1994.00,-0.0010
1993.00,-0.0011
1992.00,-0.0010
1991.00,-0.0009
1990.00,-0.0008
1989.00,-0.0007
1988.00,-0.0006
1987.00,-0.0005
1986.00,-0.0005
1985.00,-0.0004
1984.00,-0.0002
1983.00,0.0001
1982.00,0.0004
1981.00,0.0008
1980.00,0.0009
1979.00,0.0005
1978.00,-0.0003
1977.00,-0.0010
1976.00,-0.0015
1975.00,-0.0017
1974.00,-0.0018
1973.00,-0.0019
1972.00,-0.0019
1971.00,-0.0020
1970.00,-0.0020
1969.00,-0.0017
1968.00,-0.0013
1967.00,-0.0012
1966.00,-0.0013
1965.00,-0.0014
1964.00,-0.0015
1963.00,-0.0015
1962.00,-0.0014
1961.00,-0.0014
1960.00,-0.0016
1959.00,-0.0018
1958.00,-0.0020
1957.00,-0.0019
1956.00,-0.0018
1955.00,-0.0017
1954.00,-0.0016
1953.00,-0.0016
1952.00,-0.0015
1951.00,-0.0016
1950.00,-0.0017
1949.00,-0.0018
1948.00,-0.0018
1947.00,-0.0017
1946.00,-0.0016
1945.00,-0.0015
1944.00,-0.0015
1943.00,-0.0016
1942.00,-0.0015
1941.00,-0.0013
1940.00,-0.0010
1939.00,-0.0008
1938.00,-0.0007
1937.00,-0.0007
1936.00,-0.0007
1935.00,-0.0007
1934.00,-0.0007
1933.00,-0.0008
1932.00,-0.0009
1931.00,-0.0009
1930.00,-0.0010
1929.00,-0.0010
1928.00,-0.0009
1927.00,-0.0008
1926.00,-0.0007
1925.00,-0.0006
1924.00,-0.0005
1923.00,-0.0005
1922.00,-0.0004
1921.00,-0.0003
1920.00,-0.0002
1919.00,-0.0003
1918.00,-0.0004
1917.00,-0.0004
1916.00,-0.0003
1915.00,-0.0002
1914.00,-0.0002
1913.00,-0.0003
1912.00,-0.0003
1911.00,-0.0003
1910.00,-0.0004
1909.00,-0.0004
1908.00,-0.0004
1907.00,-0.0003
1906.00,-0.0003
1905.00,-0.0002
1904.00,-0.0001
1903.00,-0.0002
1902.00,-0.0003
1901.00,-0.0004
1900.00,-0.0004
1899.00,-0.0004
1898.00,-0.0004
1897.00,-0.0003
1896.00,-0.0002
1895.00,-0.0001
1894.00,-0.0000
1893.00,-0.0000
1892.00,-0.0001
1891.00,-0.0002
1890.00,-0.0003
1889.00,-0.0004
1888.00,-0.0003
1887.00,-0.0003
1886.00,-0.0003
1885.00,-0.0003
1884.00,-0.0003
1883.00,-0.0003
1882.00,-0.0002
1881.00,-0.0002
1880.00,-0.0002
1879.00,-0.0002
1878.00,-0.0003
1877.00,-0.0003
1876.00,-0.0002
1875.00,-0.0002
1874.00,-0.0001
1873.00,-0.0001
1872.00,-0.0001
1871.00,-0.0000
1870.00,-0.0000
1869.00,0.0000
1868.00,0.0000
1867.00,0.0000
1866.00,-0.0000
1865.00,-0.0001
1864.00,-0.0001
1863.00,-0.0002
1862.00,-0.0002
1861.00,-0.0001
1860.00,-0.0001
1859.00,-0.0000
1858.00,0.0000
1857.00,0.0001
1856.00,0.0001
1855.00,0.0001
1854.00,0.0002
1853.00,0.0002
1852.00,0.0002
1851.00,0.0002
1850.00,0.0002
1849.00,0.0002
1848.00,0.0001
1847.00,0.0001
1846.00,0.0000
1845.00,-0.0000
1844.00,-0.0000
1843.00,-0.0000
1842.00,0.0000
1841.00,0.0001
1840.00,0.0001
1839.00,0.0001
1838.00,0.0001
1837.00,0.0001
1836.00,0.0001
1835.00,0.0001
1834.00,0.0002
1833.00,0.0002
1832.00,0.0002
1831.00,0.0002
1830.00,0.0002
1829.00,0.0002
1828.00,0.0003
1827.00,0.0003
1826.00,0.0003
1825.00,0.0002
1824.00,0.0002
1823.00,0.0002
1822.00,0.0002
1821.00,0.0002
1820.00,0.0002
1819.00,0.0002
1818.00,0.0001
1817.00,0.0001
1816.00,0.0001
1815.00,0.0002
1814.00,0.0003
1813.00,0.0004
1812.00,0.0004
1811.00,0.0005
1810.00,0.0005
1809.00,0.0004
1808.00,0.0004
1807.00,0.0004
1806.00,0.0004
1805.00,0.0005
1804.00,0.0005
1803.00,0.0005
1802.00,0.0005
1801.00,0.0005
1800.00,0.0005
1799.00,0.0005
1798.00,0.0005
1797.00,0.0005
1796.00,0.0006
1795.00,0.0006
1794.00,0.0007
1793.00,0.0007
1792.00,0.0008
1791.00,0.0008
1790.00,0.0008
1789.00,0.0008
1788.00,0.0009
1787.00,0.0009
1786.00,0.0010
1785.00,0.0010
1784.00,0.0009
1783.00,0.0010
1782.00,0.0010
1781.00,0.0010
1780.00,0.0009
1779.00,0.0009
1778.00,0.0009
1777.00,0.0009
1776.00,0.0010
1775.00,0.0011
1774.00,0.0011
1773.00,0.0011
1772.00,0.0011
1771.00,0.0012
1770.00,0.0013
1769.00,0.0014
1768.00,0.0015
1767.00,0.0015
1766.00,0.0016
1765.00,0.0017
1764.00,0.0019
1763.00,0.0020
1762.00,0.0022
1761.00,0.0024
1760.00,0.0026
1759.00,0.0029
1758.00,0.0032
1757.00,0.0035
1756.00,0.0039
1755.00,0.0043
1754.00,0.0047
1753.00,0.0050
1752.00,0.0054
1751.00,0.0058
1750.00,0.0062
1749.00,0.0064
1748.00,0.0066
1747.00,0.0067
1746.00,0.0067
1745.00,0.0066
1744.00,0.0065
1743.00,0.0064
1742.00,0.0063
1741.00,0.0062
1740.00,0.0060
1739.00,0.0058
1738.00,0.0056
1737.00,0.0055
1736.00,0.0054
1735.00,0.0051
1734.00,0.0048
1733.00,0.0045
1732.00,0.0044
1731.00,0.0043
1730.00,0.0042
1729.00,0.0041
1728.00,0.0039
1727.00,0.0038
1726.00,0.0037
1725.00,0.0036
1724.00,0.0036
1723.00,0.0035
1722.00,0.0035
1721.00,0.0035
1720.00,0.0035
1719.00,0.0034
1718.00,0.0033
1717.00,0.0032
1716.00,0.0032
1715.00,0.0032
1714.00,0.0031
1713.00,0.0031
1712.00,0.0032
1711.00,0.0033
1710.00,0.0034
1709.00,0.0034
1708.00,0.0035
1707.00,0.0035
1706.00,0.0035
1705.00,0.0035
1704.00,0.0037
1703.00,0.0038
1702.00,0.0039
1701.00,0.0039
1700.00,0.0040
1699.00,0.0040
1698.00,0.0040
1697.00,0.0040
1696.00,0.0042
1695.00,0.0043
1694.00,0.0045
1693.00,0.0047
1692.00,0.0048
1691.00,0.0050
1690.00,0.0051
1689.00,0.0053
1688.00,0.0054
1687.00,0.0055
1686.00,0.0055
1685.00,0.0056
1684.00,0.0058
1683.00,0.0059
1682.00,0.0060
1681.00,0.0062
1680.00,0.0063
1679.00,0.0064
1678.00,0.0066
1677.00,0.0067
1676.00,0.0068
1675.00,0.0070
1674.00,0.0071
1673.00,0.0072
1672.00,0.0073
1671.00,0.0074
1670.00,0.0075
1669.00,0.0076
1668.00,0.0077
1667.00,0.0078
1666.00,0.0079
1665.00,0.0080
1664.00,0.0080
1663.00,0.0081
1662.00,0.0083
1661.00,0.0084
1660.00,0.0085
1659.00,0.0086
1658.00,0.0087
1657.00,0.0088
1656.00,0.0089
1655.00,0.0090
1654.00,0.0091
1653.00,0.0093
1652.00,0.0094
1651.00,0.0095
1650.00,0.0095
1649.00,0.0096
1648.00,0.0096
1647.00,0.0097
1646.00,0.0097
1645.00,0.0097
1644.00,0.0097
1643.00,0.0097
1642.00,0.0097
1641.00,0.0097
1640.00,0.0096
1639.00,0.0096
1638.00,0.0095
1637.00,0.0094
1636.00,0.0093
1635.00,0.0093
1634.00,0.0093
1633.00,0.0093
1632.00,0.0093
1631.00,0.0092
1630.00,0.0091
1629.00,0.0090
1628.00,0.0088
1627.00,0.0087
1626.00,0.0086
1625.00,0.0085
1624.00,0.0084
1623.00,0.0083
1622.00,0.0081
1621.00,0.0080
1620.00,0.0079
1619.00,0.0078
1618.00,0.0077
1617.00,0.0075
1616.00,0.0074
1615.00,0.0074
1614.00,0.0074
1613.00,0.0074
1612.00,0.0074
1611.00,0.0074
1610.00,0.0073
1609.00,0.0073
1608.00,0.0073
1607.00,0.0073
1606.00,0.0073
1605.00,0.0074
1604.00,0.0074
1603.00,0.0074
1602.00,0.0073
1601.00,0.0072
1600.00,0.0072
1599.00,0.0071
1598.00,0.0071
1597.00,0.0071
1596.00,0.0071
1595.00,0.0070
1594.00,0.0069
1593.00,0.0069
1592.00,0.0069
1591.00,0.0069
1590.00,0.0069
1589.00,0.0069
1588.00,0.0069
1587.00,0.0070
1586.00,0.0070
1585.00,0.0071
1584.00,0.0072
1583.00,0.0072
1582.00,0.0073
1581.00,0.0073
1580.00,0.0073
1579.00,0.0073
1578.00,0.0073
1577.00,0.0072
1576.00,0.0071
1575.00,0.0071
1574.00,0.0071
1573.00,0.0072
1572.00,0.0072
1571.00,0.0072
1570.00,0.0072
1569.00,0.0072
1568.00,0.0073
1567.00,0.0073
1566.00,0.0073
1565.00,0.0073
1564.00,0.0074
1563.00,0.0074
1562.00,0.0074
1561.00,0.0075
1560.00,0.0075
1559.00,0.0076
1558.00,0.0077
1557.00,0.0078
1556.00,0.0079
1555.00,0.0080
1554.00,0.0080
1553.00,0.0081
1552.00,0.0082
1551.00,0.0083
1550.00,0.0084
1549.00,0.0085
1548.00,0.0086
1547.00,0.0086
1546.00,0.0087
1545.00,0.0088
1544.00,0.0089
1543.00,0.0090
1542.00,0.0091
1541.00,0.0092
1540.00,0.0093
1539.00,0.0093
1538.00,0.0093
1537.00,0.0094
1536.00,0.0094
1535.00,0.0094
1534.00,0.0092
1533.00,0.0090
1532.00,0.0088
1531.00,0.0087
1530.00,0.0085
1529.00,0.0083
1528.00,0.0081
1527.00,0.0079
1526.00,0.0077
1525.00,0.0076
1524.00,0.0075
1523.00,0.0074
1522.00,0.0073
1521.00,0.0073
1520.00,0.0074
1519.00,0.0074
1518.00,0.0074
1517.00,0.0073
1516.00,0.0073
1515.00,0.0073
1514.00,0.0074
1513.00,0.0074
1512.00,0.0075
1511.00,0.0075
1510.00,0.0075
1509.00,0.0076
1508.00,0.0076
1507.00,0.0076
1506.00,0.0076
1505.00,0.0077
1504.00,0.0079
1503.00,0.0080
1502.00,0.0082
1501.00,0.0085
1500.00,0.0088
1499.00,0.0091
1498.00,0.0094
1497.00,0.0099
1496.00,0.0103
1495.00,0.0106
1494.00,0.0108
1493.00,0.0111
1492.00,0.0113
1491.00,0.0115
1490.00,0.0116
1489.00,0.0120
1488.00,0.0124
1487.00,0.0127
1486.00,0.0132
1485.00,0.0137
1484.00,0.0144
1483.00,0.0151
1482.00,0.0158
1481.00,0.0168
1480.00,0.0179
1479.00,0.0191
1478.00,0.0205
1477.00,0.0224
1476.00,0.0246
1475.00,0.0272
1474.00,0.0309
1473.00,0.0364
1472.00,0.0431
1471.00,0.0497
1470.00,0.0560
1469.00,0.0627
1468.00,0.0699
1467.00,0.0779
1466.00,0.0871
1465.00,0.0971
1464.00,0.1061
1463.00,0.1126
1462.00,0.1170
1461.00,0.1202
1460.00,0.1225
1459.00,0.1241
1458.00,0.1254
1457.00,0.1264
1456.00,0.1266
1455.00,0.1262
1454.00,0.1254
1453.00,0.1241
1452.00,0.1217
1451.00,0.1180
1450.00,0.1127
1449.00,0.1051
1448.00,0.0953
1447.00,0.0850
1446.00,0.0757
1445.00,0.0678
1444.00,0.0612
1443.00,0.0558
1442.00,0.0518
1441.00,0.0492
1440.00,0.0477
1439.00,0.0472
1438.00,0.0475
1437.00,0.0480
1436.00,0.0471
1435.00,0.0445
1434.00,0.0405
1433.00,0.0357
1432.00,0.0306
1431.00,0.0262
1430.00,0.0228
1429.00,0.0204
1428.00,0.0188
1427.00,0.0178
1426.00,0.0172
1425.00,0.0166
1424.00,0.0160
1423.00,0.0157
1422.00,0.0156
1421.00,0.0154
1420.00,0.0151
1419.00,0.0149
1418.00,0.0148
1417.00,0.0146
1416.00,0.0144
1415.00,0.0142
1414.00,0.0141
1413.00,0.0139
1412.00,0.0137
1411.00,0.0136
1410.00,0.0136
1409.00,0.0135
1408.00,0.0134
1407.00,0.0133
1406.00,0.0134
1405.00,0.0134
1404.00,0.0134
1403.00,0.0135
1402.00,0.0137
1401.00,0.0138
1400.00,0.0139
1399.00,0.0141
1398.00,0.0143
1397.00,0.0145
1396.00,0.0146
1395.00,0.0150
1394.00,0.0155
1393.00,0.0161
1392.00,0.0167
1391.00,0.0176
1390.00,0.0188
1389.00,0.0206
1388.00,0.0231
1387.00,0.0270
1386.00,0.0321
1385.00,0.0385
1384.00,0.0468
1383.00,0.0579
1382.00,0.0727
1381.00,0.0919
1380.00,0.1162
1379.00,0.1451
1378.00,0.1749
1377.00,0.1991
1376.00,0.2107
1375.00,0.2044
1374.00,0.1814
1373.00,0.1512
1372.00,0.1223
1371.00,0.0979
1370.00,0.0783
1369.00,0.0633
1368.00,0.0529
1367.00,0.0465
1366.00,0.0430
1365.00,0.0417
1364.00,0.0419
1363.00,0.0435
1362.00,0.0461
1361.00,0.0488
1360.00,0.0509
1359.00,0.0516
1358.00,0.0503
1357.00,0.0473
1356.00,0.0429
1355.00,0.0379
1354.00,0.0332
1353.00,0.0292
1352.00,0.0260
1351.00,0.0235
1350.00,0.0215
1349.00,0.0198
1348.00,0.0185
1347.00,0.0175
1346.00,0.0166
1345.00,0.0159
1344.00,0.0153
1343.00,0.0149
1342.00,0.0146
1341.00,0.0143
1340.00,0.0140
1339.00,0.0138
1338.00,0.0136
1337.00,0.0135
1336.00,0.0136
1335.00,0.0138
1334.00,0.0142
1333.00,0.0147
1332.00,0.0152
1331.00,0.0156
1330.00,0.0158
1329.00,0.0157
1328.00,0.0153
1327.00,0.0146
1326.00,0.0139
1325.00,0.0132
1324.00,0.0125
1323.00,0.0120
1322.00,0.0116
1321.00,0.0112
1320.00,0.0109
1319.00,0.0106
1318.00,0.0104
1317.00,0.0101
1316.00,0.0100
1315.00,0.0099
1314.00,0.0099
1313.00,0.0099
1312.00,0.0101
1311.00,0.0103
1310.00,0.0107
1309.00,0.0113
1308.00,0.0121
1307.00,0.0131
1306.00,0.0141
1305.00,0.0148
1304.00,0.0151
1303.00,0.0150
1302.00,0.0147
1301.00,0.0144
1300.00,0.0142
1299.00,0.0143
1298.00,0.0144
1297.00,0.0146
1296.00,0.0146
1295.00,0.0144
1294.00,0.0139
1293.00,0.0134
1292.00,0.0129
1291.00,0.0123
1290.00,0.0118
1289.00,0.0114
1288.00,0.0110
1287.00,0.0107
1286.00,0.0104
1285.00,0.0102
1284.00,0.0100
1283.00,0.0099
1282.00,0.0098
1281.00,0.0097
1280.00,0.0096
1279.00,0.0095
1278.00,0.0095
1277.00,0.0095
1276.00,0.0095
1275.00,0.0094
1274.00,0.0094
1273.00,0.0094
1272.00,0.0094
1271.00,0.0095
1270.00,0.0096
1269.00,0.0097
1268.00,0.0099
1267.00,0.0100
1266.00,0.0102
1265.00,0.0104
1264.00,0.0107
1263.00,0.0110
1262.00,0.0113
1261.00,0.0117
1260.00,0.0122
1259.00,0.0128
1258.00,0.0135
1257.00,0.0140
1256.00,0.0143
1255.00,0.0142
1254.00,0.0137
1253.00,0.0131
1252.00,0.0124
1251.00,0.0119
1250.00,0.0115
1249.00,0.0112
1248.00,0.0111
1247.00,0.0110
1246.00,0.0108
1245.00,0.0107
1244.00,0.0106
1243.00,0.0106
1242.00,0.0105
1241.00,0.0105
1240.00,0.0104
1239.00,0.0103
1238.00,0.0103
1237.00,0.0102
1236.00,0.0102
1235.00,0.0102
1234.00,0.0101
1233.00,0.0101
1232.00,0.0100
1231.00,0.0100
1230.00,0.0099
1229.00,0.0099
1228.00,0.0100
1227.00,0.0100
1226.00,0.0102
1225.00,0.0105
1224.00,0.0109
1223.00,0.0113
1222.00,0.0117
1221.00,0.0120
1220.00,0.0122
1219.00,0.0123
1218.00,0.0123
1217.00,0.0121
1216.00,0.0117
1215.00,0.0113
1214.00,0.0109
1213.00,0.0105
1212.00,0.0102
1211.00,0.0100
1210.00,0.0098
1209.00,0.0096
1208.00,0.0094
1207.00,0.0094
1206.00,0.0093
1205.00,0.0093
1204.00,0.0092
1203.00,0.0092
1202.00,0.0093
1201.00,0.0093
1200.00,0.0093
1199.00,0.0093
1198.00,0.0092
1197.00,0.0092
1196.00,0.0091
1195.00,0.0092
1194.00,0.0093
1193.00,0.0093
1192.00,0.0093
1191.00,0.0093
1190.00,0.0093
1189.00,0.0093
1188.00,0.0094
1187.00,0.0095
1186.00,0.0096
1185.00,0.0098
1184.00,0.0099
1183.00,0.0102
1182.00,0.0104
1181.00,0.0107
1180.00,0.0111
1179.00,0.0115
1178.00,0.0121
1177.00,0.0129
1176.00,0.0139
1175.00,0.0153
1174.00,0.0171
1173.00,0.0194
1172.00,0.0222
1171.00,0.0252
1170.00,0.0281
1169.00,0.0304
1168.00,0.0319
1167.00,0.0323
1166.00,0.0319
1165.00,0.0308
1164.00,0.0293
1163.00,0.0278
1162.00,0.0264
1161.00,0.0251
1160.00,0.0242
1159.00,0.0235
1158.00,0.0230
1157.00,0.0227
1156.00,0.0224
1155.00,0.0223
1154.00,0.0221
1153.00,0.0219
1152.00,0.0215
1151.00,0.0209
1150.00,0.0200
1149.00,0.0190
1148.00,0.0180
1147.00,0.0171
1146.00,0.0162
1145.00,0.0154
1144.00,0.0146
1143.00,0.0140
1142.00,0.0134
1141.00,0.0129
1140.00,0.0124
1139.00,0.0119
1138.00,0.0115
1137.00,0.0111
1136.00,0.0107
1135.00,0.0104
1134.00,0.0102
1133.00,0.0101
1132.00,0.0100
1131.00,0.0099
1130.00,0.0100
1129.00,0.0100
1128.00,0.0100
1127.00,0.0100
1126.00,0.0100
1125.00,0.0101
1124.00,0.0103
1123.00,0.0104
1122.00,0.0105
1121.00,0.0105
1120.00,0.0106
1119.00,0.0108
1118.00,0.0110
1117.00,0.0112
1116.00,0.0113
1115.00,0.0115
1114.00,0.0116
1113.00,0.0116
1112.00,0.0118
1111.00,0.0121
1110.00,0.0125
1109.00,0.0129
1108.00,0.0134
1107.00,0.0141
1106.00,0.0149
1105.00,0.0157
1104.00,0.0164
1103.00,0.0169
1102.00,0.0170
1101.00,0.0168
1100.00,0.0162
1099.00,0.0155
1098.00,0.0147
1097.00,0.0141
1096.00,0.0135
1095.00,0.0131
1094.00,0.0126
1093.00,0.0122
1092.00,0.0119
1091.00,0.0117
1090.00,0.0116
1089.00,0.0115
1088.00,0.0113
1087.00,0.0112
1086.00,0.0111
1085.00,0.0110
1084.00,0.0110
1083.00,0.0110
1082.00,0.0109
1081.00,0.0108
1080.00,0.0105
1079.00,0.0103
1078.00,0.0101
1077.00,0.0100
1076.00,0.0099
1075.00,0.0099
1074.00,0.0100
1073.00,0.0100
1072.00,0.0100
1071.00,0.0100
1070.00,0.0099
1069.00,0.0099
1068.00,0.0099
1067.00,0.0098
1066.00,0.0098
1065.00,0.0098
1064.00,0.0097
1063.00,0.0097
1062.00,0.0097
1061.00,0.0097
1060.00,0.0096
1059.00,0.0096
1058.00,0.0096
1057.00,0.0096
1056.00,0.0097
1055.00,0.0098
1054.00,0.0098
1053.00,0.0099
1052.00,0.0100
1051.00,0.0102
1050.00,0.0104
1049.00,0.0107
1048.00,0.0110
1047.00,0.0112
1046.00,0.0114
1045.00,0.0114
1044.00,0.0114
1043.00,0.0112
1042.00,0.0110
1041.00,0.0108
1040.00,0.0106
1039.00,0.0105
1038.00,0.0105
1037.00,0.0105
1036.00,0.0105
1035.00,0.0105
1034.00,0.0104
1033.00,0.0102
1032.00,0.0101
1031.00,0.0102
1030.00,0.0102
1029.00,0.0103
1028.00,0.0103
1027.00,0.0102
1026.00,0.0101
1025.00,0.0100
1024.00,0.0099
1023.00,0.0099
1022.00,0.0100
1021.00,0.0101
1020.00,0.0102
1019.00,0.0102
1018.00,0.0102
1017.00,0.0103
1016.00,0.0105
1015.00,0.0108
1014.00,0.0110
1013.00,0.0113
1012.00,0.0115
1011.00,0.0117
1010.00,0.0120
1009.00,0.0123
1008.00,0.0128
1007.00,0.0133
1006.00,0.0141
1005.00,0.0151
1004.00,0.0165
1003.00,0.0184
1002.00,0.0210
1001.00,0.0241
1000.00,0.0274
999.00,0.0300
998.00,0.0312
997.00,0.0305
996.00,0.0281
995.00,0.0247
994.00,0.0212
993.00,0.0180
992.00,0.0156
991.00,0.0139
990.00,0.0127
989.00,0.0120
988.00,0.0115
987.00,0.0112
986.00,0.0111
985.00,0.0112
984.00,0.0117
983.00,0.0125
982.00,0.0136
981.00,0.0151
980.00,0.0171
979.00,0.0197
978.00,0.0228
977.00,0.0266
976.00,0.0307
975.00,0.0346
974.00,0.0374
973.00,0.0384
972.00,0.0372
971.00,0.0339
970.00,0.0295
969.00,0.0250
968.00,0.0211
967.00,0.0180
966.00,0.0158
965.00,0.0142
964.00,0.0130
963.00,0.0121
962.00,0.0114
961.00,0.0109
960.00,0.0104
959.00,0.0100
958.00,0.0095
957.00,0.0091
956.00,0.0088
955.00,0.0086
954.00,0.0085
953.00,0.0085
952.00,0.0085
951.00,0.0085
950.00,0.0084
949.00,0.0084
948.00,0.0085
947.00,0.0086
946.00,0.0089
945.00,0.0091
944.00,0.0095
943.00,0.0098
942.00,0.0101
941.00,0.0102
940.00,0.0102
939.00,0.0100
938.00,0.0095
937.00,0.0090
936.00,0.0084
935.00,0.0080
934.00,0.0077
933.00,0.0075
932.00,0.0073
931.00,0.0071
930.00,0.0069
929.00,0.0068
928.00,0.0068
927.00,0.0068
926.00,0.0068
925.00,0.0068
924.00,0.0069
923.00,0.0069
922.00,0.0070
921.00,0.0071
920.00,0.0072
919.00,0.0072
918.00,0.0073
917.00,0.0073
916.00,0.0074
915.00,0.0075
914.00,0.0076
913.00,0.0077
912.00,0.0078
911.00,0.0079
910.00,0.0080
909.00,0.0082
908.00,0.0084
907.00,0.0089
906.00,0.0097
905.00,0.0109
904.00,0.0124
903.00,0.0144
902.00,0.0167
901.00,0.0188
900.00,0.0203
899.00,0.0207
898.00,0.0199
897.00,0.0182
896.00,0.0161
895.00,0.0140
894.00,0.0122
893.00,0.0108
892.00,0.0097
891.00,0.0090
890.00,0.0085
889.00,0.0083
888.00,0.0082
887.00,0.0082
886.00,0.0081
885.00,0.0079
884.00,0.0078
883.00,0.0076
882.00,0.0074
881.00,0.0074
880.00,0.0075
879.00,0.0077
878.00,0.0079
877.00,0.0080
876.00,0.0079
875.00,0.0078
874.00,0.0077
873.00,0.0077
872.00,0.0077
871.00,0.0076
870.00,0.0076
869.00,0.0077
868.00,0.0078
867.00,0.0079
866.00,0.0079
865.00,0.0079
864.00,0.0079
863.00,0.0079
862.00,0.0080
861.00,0.0082
860.00,0.0085
859.00,0.0088
858.00,0.0090
857.00,0.0092
856.00,0.0093
855.00,0.0094
854.00,0.0094
853.00,0.0096
852.00,0.0099
851.00,0.0103
850.00,0.0108
849.00,0.0114
848.00,0.0121
847.00,0.0132
846.00,0.0151
845.00,0.0179
844.00,0.0218
843.00,0.0259
842.00,0.0290
841.00,0.0298
840.00,0.0279
839.00,0.0243
838.00,0.0204
837.00,0.0174
836.00,0.0153
835.00,0.0141
834.00,0.0132
833.00,0.0126
832.00,0.0122
831.00,0.0119
830.00,0.0116
829.00,0.0113
828.00,0.0110
827.00,0.0109
826.00,0.0110
825.00,0.0111
824.00,0.0111
823.00,0.0111
822.00,0.0111
821.00,0.0111
820.00,0.0111
819.00,0.0114
818.00,0.0119
817.00,0.0126
816.00,0.0135
815.00,0.0148
814.00,0.0163
813.00,0.0182
812.00,0.0202
811.00,0.0220
810.00,0.0233
809.00,0.0238
808.00,0.0236
807.00,0.0227
806.00,0.0212
805.00,0.0194
804.00,0.0175
803.00,0.0159
802.00,0.0145
801.00,0.0136
800.00,0.0128
799.00,0.0122
798.00,0.0117
797.00,0.0112
796.00,0.0108
795.00,0.0105
794.00,0.0103
793.00,0.0101
792.00,0.0098
791.00,0.0094
790.00,0.0091
789.00,0.0087
788.00,0.0084
787.00,0.0082
786.00,0.0081
785.00,0.0080
784.00,0.0079
783.00,0.0077
782.00,0.0074
781.00,0.0071
780.00,0.0067
779.00,0.0065
778.00,0.0064
777.00,0.0065
776.00,0.0067
775.00,0.0070
774.00,0.0072
773.00,0.0073
772.00,0.0075
771.00,0.0078
770.00,0.0081
769.00,0.0083
768.00,0.0084
767.00,0.0085
766.00,0.0084
765.00,0.0082
764.00,0.0079
763.00,0.0076
762.00,0.0074
761.00,0.0074
760.00,0.0072
759.00,0.0070
758.00,0.0068
757.00,0.0067
756.00,0.0065
755.00,0.0063
754.00,0.0062
753.00,0.0061
752.00,0.0062
751.00,0.0063
750.00,0.0063
749.00,0.0063
748.00,0.0065
747.00,0.0067
746.00,0.0068
745.00,0.0068
744.00,0.0068
743.00,0.0067
742.00,0.0067
741.00,0.0067
740.00,0.0069
739.00,0.0071
738.00,0.0074
737.00,0.0076
736.00,0.0079
735.00,0.0082
734.00,0.0085
733.00,0.0086
732.00,0.0086
731.00,0.0086
730.00,0.0086
729.00,0.0085
728.00,0.0084
727.00,0.0083
726.00,0.0082
725.00,0.0081
724.00,0.0080
723.00,0.0080
722.00,0.0080
721.00,0.0079
720.00,0.0077
719.00,0.0075
718.00,0.0073
717.00,0.0073
716.00,0.0072
715.00,0.0073
714.00,0.0074
713.00,0.0074
712.00,0.0073
711.00,0.0073
710.00,0.0072
709.00,0.0072
708.00,0.0071
707.00,0.0071
706.00,0.0070
705.00,0.0069
704.00,0.0068
703.00,0.0066
702.00,0.0066
701.00,0.0065
700.00,0.0065
699.00,0.0065
698.00,0.0065
697.00,0.0065
696.00,0.0066
695.00,0.0066
694.00,0.0065
693.00,0.0064
692.00,0.0063
691.00,0.0063
690.00,0.0063
689.00,0.0062
688.00,0.0062
687.00,0.0062
686.00,0.0062
685.00,0.0062
684.00,0.0061
683.00,0.0061
682.00,0.0063
681.00,0.0066
680.00,0.0069
679.00,0.0070
678.00,0.0070
677.00,0.0069
676.00,0.0067
675.00,0.0066
674.00,0.0064
673.00,0.0063
672.00,0.0061
671.00,0.0061
670.00,0.0063
669.00,0.0064
668.00,0.0064
667.00,0.0064
666.00,0.0064
665.00,0.0063
664.00,0.0063
663.00,0.0064
662.00,0.0063
661.00,0.0062
660.00,0.0061
659.00,0.0061
658.00,0.0061
657.00,0.0062
656.00,0.0063
655.00,0.0063
654.00,0.0063
653.00,0.0062
652.00,0.0061
651.00,0.0059
650.00,0.0059
649.00,0.0059
648.00,0.0060
647.00,0.0061
646.00,0.0062
645.00,0.0063
644.00,0.0063
643.00,0.0063
642.00,0.0063
641.00,0.0063
640.00,0.0062
639.00,0.0062
638.00,0.0063
637.00,0.0064
636.00,0.0065
635.00,0.0066
634.00,0.0066
633.00,0.0066
632.00,0.0066
631.00,0.0066
630.00,0.0066
629.00,0.0065
628.00,0.0064
627.00,0.0064
626.00,0.0066
625.00,0.0067
624.00,0.0066
623.00,0.0064
622.00,0.0062
621.00,0.0062
620.00,0.0064
619.00,0.0066
618.00,0.0069
617.00,0.0070
616.00,0.0070
615.00,0.0068
614.00,0.0066
613.00,0.0064
612.00,0.0064
611.00,0.0066
610.00,0.0066
609.00,0.0065
608.00,0.0063
607.00,0.0062
606.00,0.0061
605.00,0.0062
604.00,0.0064
603.00,0.0066
602.00,0.0069
601.00,0.0071
600.00,0.0071
599.00,0.0071
598.00,0.0069
597.00,0.0065
596.00,0.0061
595.00,0.0060
594.00,0.0063
593.00,0.0067
592.00,0.0069
591.00,0.0068
590.00,0.0066
589.00,0.0065
588.00,0.0066
587.00,0.0067
586.00,0.0068
585.00,0.0069
584.00,0.0071
583.00,0.0074
582.00,0.0075
581.00,0.0074
580.00,0.0070
579.00,0.0068
578.00,0.0068
577.00,0.0070
576.00,0.0072
575.00,0.0073
574.00,0.0073
573.00,0.0074
572.00,0.0073
571.00,0.0071
570.00,0.0069
569.00,0.0068
568.00,0.0070
567.00,0.0071
566.00,0.0072
565.00,0.0072
564.00,0.0072
563.00,0.0072
562.00,0.0074
561.00,0.0076
560.00,0.0077
559.00,0.0076
558.00,0.0075
557.00,0.0073
556.00,0.0073
555.00,0.0074
554.00,0.0075
553.00,0.0074
552.00,0.0072
551.00,0.0069
550.00,0.0067
549.00,0.0068
548.00,0.0069
547.00,0.0070
546.00,0.0070
545.00,0.0069
544.00,0.0069
543.00,0.0072
542.00,0.0075
541.00,0.0077
540.00,0.0076
539.00,0.0075
538.00,0.0075
537.00,0.0076
536.00,0.0078
535.00,0.0082
534.00,0.0086
533.00,0.0088
532.00,0.0089
531.00,0.0088
530.00,0.0087
529.00,0.0090
528.00,0.0094
527.00,0.0098
526.00,0.0099
525.00,0.0094
524.00,0.0088
523.00,0.0083
522.00,0.0081
521.00,0.0080
520.00,0.0079
519.00,0.0078
518.00,0.0077
517.00,0.0078
516.00,0.0081
515.00,0.0082
514.00,0.0081
513.00,0.0075
512.00,0.0067
511.00,0.0061
510.00,0.0060
509.00,0.0062
508.00,0.0066
507.00,0.0070
506.00,0.0073
505.00,0.0073
504.00,0.0070
503.00,0.0066
502.00,0.0064
501.00,0.0063
500.00,0.0061
499.00,0.0057
498.00,0.0052
497.00,0.0052
496.00,0.0056
495.00,0.0062
494.00,0.0065
493.00,0.0063
492.00,0.0056
491.00,0.0050
490.00,0.0051
489.00,0.0060
488.00,0.0075
487.00,0.0088
486.00,0.0093
485.00,0.0092
484.00,0.0090
483.00,0.0088
482.00,0.0087
481.00,0.0084
480.00,0.0080
479.00,0.0080
478.00,0.0085
477.00,0.0090
476.00,0.0092
475.00,0.0094
474.00,0.0098
473.00,0.0103
472.00,0.0103
471.00,0.0097
470.00,0.0089
469.00,0.0087
468.00,0.0091
467.00,0.0099
466.00,0.0105
465.00,0.0112
464.00,0.0121
463.00,0.0134
462.00,0.0145
461.00,0.0148
460.00,0.0143
459.00,0.0131
458.00,0.0123
457.00,0.0124
456.00,0.0133
455.00,0.0141
454.00,0.0142
453.00,0.0132
452.00,0.0114
451.00,0.0096
450.00,0.0084
