Created as New Dataset,Sample 104 By Administrator Date Wednesday, September 10 2025
cm-1,A
4000.00,0.0012
3999.00,0.0012
3998.00,0.0012
3997.00,0.0012
3996.00,0.0012
3995.00,0.0011
3994.00,0.0011
3993.00,0.0011
3992.00,0.0011
3991.00,0.0011
3990.00,0.0012
3989.00,0.0012
3988.00,0.0012
3987.00,0.0011
3986.00,0.0011
3985.00,0.0011
3984.00,0.0011
3983.00,0.0010
3982.00,0.0011
3981.00,0.0011
3980.00,0.0011
3979.00,0.0011
3978.00,0.0011
3977.00,0.0011
3976.00,0.0011
3975.00,0.0011
3974.00,0.0011
3973.00,0.0010
3972.00,0.0010
3971.00,0.0010
3970.00,0.0010
3969.00,0.0010
3968.00,0.0010
3967.00,0.0010
3966.00,0.0010
3965.00,0.0010
3964.00,0.0010
3963.00,0.0010
3962.00,0.0010
3961.00,0.0010
3960.00,0.0010
3959.00,0.0009
3958.00,0.0009
3957.00,0.0009
3956.00,0.0009
3955.00,0.0009
3954.00,0.0010
3953.00,0.0010
3952.00,0.0010
3951.00,0.0010
3950.00,0.0010
3949.00,0.0010
3948.00,0.0010
3947.00,0.0010
3946.00,0.0010
3945.00,0.0010
3944.00,0.0010
3943.00,0.0010
3942.00,0.0010
3941.00,0.0009
3940.00,0.0009
3939.00,0.0009
3938.00,0.0009
3937.00,0.0009
3936.00,0.0010
3935.00,0.0010
3934.00,0.0010
3933.00,0.0010
3932.00,0.0009
3931.00,0.0009
3930.00,0.0009
3929.00,0.0010
3928.00,0.0010
3927.00,0.0010
3926.00,0.0010
3925.00,0.0010
3924.00,0.0010
3923.00,0.0010
3922.00,0.0010
3921.00,0.0010
3920.00,0.0010
3919.00,0.0010
3918.00,0.0010
3917.00,0.0009
3916.00,0.0009
3915.00,0.0009
3914.00,0.0009
3913.00,0.0009
3912.00,0.0009
3911.00,0.0009
3910.00,0.0009
3909.00,0.0009
3908.00,0.0009
3907.00,0.0009
3906.00,0.0009
3905.00,0.0009
3904.00,0.0010
3903.00,0.0010
3902.00,0.0010
3901.00,0.0010
3900.00,0.0010
3899.00,0.0010
3898.00,0.0010
3897.00,0.0010
3896.00,0.0010
3895.00,0.0010
3894.00,0.0009
3893.00,0.0009
3892.00,0.0009
3891.00,0.0010
3890.00,0.0010
3889.00,0.0010
3888.00,0.0010
3887.00,0.0010
3886.00,0.0010
3885.00,0.0009
3884.00,0.0009
3883.00,0.0009
3882.00,0.0009
3881.00,0.0009
3880.00,0.0010
3879.00,0.0010
3878.00,0.0010
3877.00,0.0010
3876.00,0.0009
3875.00,0.0009
3874.00,0.0009
3873.00,0.0009
3872.00,0.0009
3871.00,0.0009
3870.00,0.0009
3869.00,0.0009
3868.00,0.0009
3867.00,0.0009
3866.00,0.0009
3865.00,0.0009
3864.00,0.0009
3863.00,0.0009
3862.00,0.0009
3861.00,0.0009
3860.00,0.0009
3859.00,0.0009
3858.00,0.0009
3857.00,0.0010
3856.00,0.0010
3855.00,0.0010
3854.00,0.0010
3853.00,0.0010
3852.00,0.0010
3851.00,0.0009
3850.00,0.0009
3849.00,0.0008
3848.00,0.0008
3847.00,0.0008
3846.00,0.0008
3845.00,0.0008
3844.00,0.0008
3843.00,0.0008
3842.00,0.0009
3841.00,0.0009
3840.00,0.0009
3839.00,0.0009
3838.00,0.0009
3837.00,0.0009
3836.00,0.0008
3835.00,0.0008
3834.00,0.0008
3833.00,0.0008
3832.00,0.0009
3831.00,0.0009
3830.00,0.0009
3829.00,0.0009
3828.00,0.0009
3827.00,0.0009
3826.00,0.0009
3825.00,0.0010
3824.00,0.0010
3823.00,0.0010
3822.00,0.0010
3821.00,0.0010
3820.00,0.0010
3819.00,0.0009
3818.00,0.0009
3817.00,0.0009
3816.00,0.0009
3815.00,0.0010
3814.00,0.0010
3813.00,0.0010
3812.00,0.0010
3811.00,0.0009
3810.00,0.0009
3809.00,0.0009
3808.00,0.0009
3807.00,0.0009
3806.00,0.0009
3805.00,0.0009
3804.00,0.0009
3803.00,0.0009
3802.00,0.0009
3801.00,0.0009
3800.00,0.0009
3799.00,0.0008
3798.00,0.0008
3797.00,0.0008
3796.00,0.0008
3795.00,0.0008
3794.00,0.0008
3793.00,0.0008
3792.00,0.0008
3791.00,0.0009
3790.00,0.0009
3789.00,0.0010
3788.00,0.0010
3787.00,0.0010
3786.00,0.0010
3785.00,0.0009
3784.00,0.0009
3783.00,0.0009
3782.00,0.0009
3781.00,0.0009
3780.00,0.0009
3779.00,0.0009
3778.00,0.0009
3777.00,0.0009
3776.00,0.0009
3775.00,0.0009
3774.00,0.0009
3773.00,0.0009
3772.00,0.0010
3771.00,0.0010
3770.00,0.0010
3769.00,0.0010
3768.00,0.0010
3767.00,0.0010
3766.00,0.0010
3765.00,0.0010
3764.00,0.0010
3763.00,0.0010
3762.00,0.0010
3761.00,0.0010
3760.00,0.0010
3759.00,0.0010
3758.00,0.0010
3757.00,0.0011
3756.00,0.0011
3755.00,0.0011
3754.00,0.0012
3753.00,0.0012
3752.00,0.0013
3751.00,0.0013
3750.00,0.0012
3749.00,0.0012
3748.00,0.0012
3747.00,0.0011
3746.00,0.0010
3745.00,0.0009
3744.00,0.0009
3743.00,0.0010
3742.00,0.0010
3741.00,0.0010
3740.00,0.0010
3739.00,0.0010
3738.00,0.0010
3737.00,0.0010
3736.00,0.0009
3735.00,0.0009
3734.00,0.0008
3733.00,0.0008
3732.00,0.0008
3731.00,0.0008
3730.00,0.0009
3729.00,0.0009
3728.00,0.0009
3727.00,0.0009
3726.00,0.0009
3725.00,0.0009
3724.00,0.0009
3723.00,0.0009
3722.00,0.0008
3721.00,0.0009
3720.00,0.0009
3719.00,0.0009
3718.00,0.0009
3717.00,0.0009
3716.00,0.0009
3715.00,0.0009
3714.00,0.0009
3713.00,0.0009
3712.00,0.0009
3711.00,0.0009
3710.00,0.0008
3709.00,0.0008
3708.00,0.0008
3707.00,0.0008
3706.00,0.0008
3705.00,0.0008
3704.00,0.0008
3703.00,0.0008
3702.00,0.0009
3701.00,0.0010
3700.00,0.0010
3699.00,0.0010
3698.00,0.0010
3697.00,0.0010
3696.00,0.0010
3695.00,0.0010
3694.00,0.0010
3693.00,0.0010
3692.00,0.0010
3691.00,0.0011
3690.00,0.0011
3689.00,0.0011
3688.00,0.0012
3687.00,0.0012
3686.00,0.0011
3685.00,0.0011
3684.00,0.0011
3683.00,0.0011
3682.00,0.0012
3681.00,0.0012
3680.00,0.0013
3679.00,0.0013
3678.00,0.0014
3677.00,0.0015
3676.00,0.0015
3675.00,0.0015
3674.00,0.0015
3673.00,0.0015
3672.00,0.0015
3671.00,0.0016
3670.00,0.0016
3669.00,0.0015
3668.00,0.0015
3667.00,0.0014
3666.00,0.0014
3665.00,0.0014
3664.00,0.0014
3663.00,0.0014
3662.00,0.0015
3661.00,0.0015
3660.00,0.0015
3659.00,0.0015
3658.00,0.0015
3657.00,0.0015
3656.00,0.0015
3655.00,0.0016
3654.00,0.0016
3653.00,0.0015
3652.00,0.0015
3651.00,0.0016
3650.00,0.0016
3649.00,0.0016
3648.00,0.0016
3647.00,0.0017
3646.00,0.0017
3645.00,0.0018
3644.00,0.0018
3643.00,0.0018
3642.00,0.0019
3641.00,0.0019
3640.00,0.0019
3639.00,0.0019
3638.00,0.0019
3637.00,0.0019
3636.00,0.0020
3635.00,0.0020
3634.00,0.0020
3633.00,0.0021
3632.00,0.0021
3631.00,0.0021
3630.00,0.0021
3629.00,0.0022
3628.00,0.0022
3627.00,0.0022
3626.00,0.0022
3625.00,0.0022
3624.00,0.0023
3623.00,0.0023
3622.00,0.0024
3621.00,0.0024
3620.00,0.0024
3619.00,0.0025
3618.00,0.0026
3617.00,0.0027
3616.00,0.0027
3615.00,0.0028
3614.00,0.0028
3613.00,0.0029
3612.00,0.0029
3611.00,0.0029
3610.00,0.0030
3609.00,0.0030
3608.00,0.0030
3607.00,0.0030
3606.00,0.0031
3605.00,0.0031
3604.00,0.0031
3603.00,0.0032
3602.00,0.0033
3601.00,0.0033
3600.00,0.0033
3599.00,0.0034
3598.00,0.0034
3597.00,0.0035
3596.00,0.0036
3595.00,0.0036
3594.00,0.0037
3593.00,0.0037
3592.00,0.0038
3591.00,0.0039
3590.00,0.0040
3589.00,0.0041
3588.00,0.0041
3587.00,0.0042
3586.00,0.0043
3585.00,0.0043
3584.00,0.0044
3583.00,0.0044
3582.00,0.0044
3581.00,0.0044
3580.00,0.0045
3579.00,0.0045
3578.00,0.0046
3577.00,0.0047
3576.00,0.0048
3575.00,0.0048
3574.00,0.0049
3573.00,0.0049
3572.00,0.0049
3571.00,0.0049
3570.00,0.0050
3569.00,0.0051
3568.00,0.0052
3567.00,0.0053
3566.00,0.0054
3565.00,0.0054
3564.00,0.0055
3563.00,0.0056
3562.00,0.0057
3561.00,0.0057
3560.00,0.0058
3559.00,0.0059
3558.00,0.0060
3557.00,0.0061
3556.00,0.0061
3555.00,0.0062
3554.00,0.0062
3553.00,0.0062
3552.00,0.0063
3551.00,0.0064
3550.00,0.0065
3549.00,0.0066
3548.00,0.0068
3547.00,0.0069
3546.00,0.0069
3545.00,0.0070
3544.00,0.0071
3543.00,0.0071
3542.00,0.0072
3541.00,0.0073
3540.00,0.0074
3539.00,0.0075
3538.00,0.0075
3537.00,0.0076
3536.00,0.0077
3535.00,0.0078
3534.00,0.0079
3533.00,0.0079
3532.00,0.0080
3531.00,0.0081
3530.00,0.0082
3529.00,0.0083
3528.00,0.0084
3527.00,0.0085
3526.00,0.0086
3525.00,0.0086
3524.00,0.0087
3523.00,0.0087
3522.00,0.0088
3521.00,0.0088
3520.00,0.0089
3519.00,0.0091
3518.00,0.0092
3517.00,0.0093
3516.00,0.0094
3515.00,0.0095
3514.00,0.0096
3513.00,0.0097
3512.00,0.0098
3511.00,0.0099
3510.00,0.0100
3509.00,0.0101
3508.00,0.0102
3507.00,0.0103
3506.00,0.0104
3505.00,0.0105
3504.00,0.0105
3503.00,0.0106
3502.00,0.0107
3501.00,0.0107
3500.00,0.0108
3499.00,0.0109
3498.00,0.0110
3497.00,0.0111
3496.00,0.0111
3495.00,0.0112
3494.00,0.0112
3493.00,0.0113
3492.00,0.0114
3491.00,0.0115
3490.00,0.0116
3489.00,0.0117
3488.00,0.0118
3487.00,0.0118
3486.00,0.0119
3485.00,0.0120
3484.00,0.0121
3483.00,0.0122
3482.00,0.0123
3481.00,0.0123
3480.00,0.0124
3479.00,0.0125
3478.00,0.0126
3477.00,0.0127
3476.00,0.0128
3475.00,0.0129
3474.00,0.0130
3473.00,0.0131
3472.00,0.0131
3471.00,0.0132
3470.00,0.0132
3469.00,0.0133
3468.00,0.0133
3467.00,0.0134
3466.00,0.0134
3465.00,0.0135
3464.00,0.0135
3463.00,0.0136
3462.00,0.0137
3461.00,0.0138
3460.00,0.0139
3459.00,0.0140
3458.00,0.0140
3457.00,0.0141
3456.00,0.0141
3455.00,0.0142
3454.00,0.0142
3453.00,0.0143
3452.00,0.0144
3451.00,0.0145
3450.00,0.0146
3449.00,0.0147
3448.00,0.0147
3447.00,0.0148
3446.00,0.0148
3445.00,0.0149
3444.00,0.0149
3443.00,0.0150
3442.00,0.0151
3441.00,0.0151
3440.00,0.0151
3439.00,0.0151
3438.00,0.0152
3437.00,0.0152
3436.00,0.0153
3435.00,0.0153
3434.00,0.0154
3433.00,0.0155
3432.00,0.0155
3431.00,0.0156
3430.00,0.0156
3429.00,0.0157
3428.00,0.0157
3427.00,0.0158
3426.00,0.0158
3425.00,0.0159
3424.00,0.0160
3423.00,0.0161
3422.00,0.0161
3421.00,0.0161
3420.00,0.0161
3419.00,0.0161
3418.00,0.0162
3417.00,0.0162
3416.00,0.0163
3415.00,0.0163
3414.00,0.0164
3413.00,0.0164
3412.00,0.0165
3411.00,0.0166
3410.00,0.0166
3409.00,0.0167
3408.00,0.0167
3407.00,0.0167
3406.00,0.0167
3405.00,0.0167
3404.00,0.0167
3403.00,0.0168
3402.00,0.0168
3401.00,0.0168
3400.00,0.0169
3399.00,0.0168
3398.00,0.0169
3397.00,0.0169
3396.00,0.0169
3395.00,0.0170
3394.00,0.0170
3393.00,0.0170
3392.00,0.0170
3391.00,0.0169
3390.00,0.0169
3389.00,0.0169
3388.00,0.0170
3387.00,0.0170
3386.00,0.0170
3385.00,0.0171
3384.00,0.0171
3383.00,0.0171
3382.00,0.0171
3381.00,0.0171
3380.00,0.0171
3379.00,0.0171
3378.00,0.0171
3377.00,0.0171
3376.00,0.0170
3375.00,0.0170
3374.00,0.0170
3373.00,0.0171
3372.00,0.0171
3371.00,0.0171
3370.00,0.0172
3369.00,0.0172
3368.00,0.0172
3367.00,0.0172
3366.00,0.0171
3365.00,0.0171
3364.00,0.0170
3363.00,0.0170
3362.00,0.0170
3361.00,0.0170
3360.00,0.0170
3359.00,0.0170
3358.00,0.0170
3357.00,0.0170
3356.00,0.0169
3355.00,0.0169
3354.00,0.0169
3353.00,0.0168
3352.00,0.0168
3351.00,0.0168
3350.00,0.0168
3349.00,0.0168
3348.00,0.0167
3347.00,0.0167
3346.00,0.0167
3345.00,0.0167
3344.00,0.0167
3343.00,0.0167
3342.00,0.0167
3341.00,0.0167
3340.00,0.0167
3339.00,0.0166
3338.00,0.0166
3337.00,0.0165
3336.00,0.0165
3335.00,0.0164
3334.00,0.0163
3333.00,0.0163
3332.00,0.0163
3331.00,0.0162
3330.00,0.0162
3329.00,0.0161
3328.00,0.0161
3327.00,0.0160
3326.00,0.0160
3325.00,0.0160
3324.00,0.0160
3323.00,0.0159
3322.00,0.0159
3321.00,0.0158
3320.00,0.0158
3319.00,0.0157
3318.00,0.0157
3317.00,0.0157
3316.00,0.0156
3315.00,0.0156
3314.00,0.0155
3313.00,0.0155
3312.00,0.0154
3311.00,0.0154
3310.00,0.0154
3309.00,0.0153
3308.00,0.0153
3307.00,0.0153
3306.00,0.0152
3305.00,0.0152
3304.00,0.0151
3303.00,0.0151
3302.00,0.0151
3301.00,0.0150
3300.00,0.0150
3299.00,0.0150
3298.00,0.0150
3297.00,0.0149
3296.00,0.0148
3295.00,0.0147
3294.00,0.0147
3293.00,0.0146
3292.00,0.0145
3291.00,0.0145
3290.00,0.0145
3289.00,0.0144
3288.00,0.0144
3287.00,0.0143
3286.00,0.0143
3285.00,0.0142
3284.00,0.0141
3283.00,0.0141
3282.00,0.0140
3281.00,0.0140
3280.00,0.0139
3279.00,0.0139
3278.00,0.0139
3277.00,0.0138
3276.00,0.0137
3275.00,0.0137
3274.00,0.0136
3273.00,0.0135
3272.00,0.0134
3271.00,0.0134
3270.00,0.0134
3269.00,0.0134
3268.00,0.0134
3267.00,0.0134
3266.00,0.0133
3265.00,0.0133
3264.00,0.0132
3263.00,0.0131
3262.00,0.0131
3261.00,0.0130
3260.00,0.0130
3259.00,0.0130
3258.00,0.0129
3257.00,0.0129
3256.00,0.0128
3255.00,0.0127
3254.00,0.0127
3253.00,0.0126
3252.00,0.0126
3251.00,0.0126
3250.00,0.0125
3249.00,0.0124
3248.00,0.0123
3247.00,0.0123
3246.00,0.0122
3245.00,0.0122
3244.00,0.0121
3243.00,0.0121
3242.00,0.0120
3241.00,0.0119
3240.00,0.0119
3239.00,0.0119
3238.00,0.0119
3237.00,0.0119
3236.00,0.0119
3235.00,0.0119
3234.00,0.0118
3233.00,0.0118
3232.00,0.0117
3231.00,0.0117
3230.00,0.0117
3229.00,0.0117
3228.00,0.0117
3227.00,0.0116
3226.00,0.0116
3225.00,0.0116
3224.00,0.0116
3223.00,0.0116
3222.00,0.0116
3221.00,0.0115
3220.00,0.0115
3219.00,0.0114
3218.00,0.0114
3217.00,0.0114
3216.00,0.0114
3215.00,0.0114
3214.00,0.0114
3213.00,0.0114
3212.00,0.0113
3211.00,0.0113
3210.00,0.0113
3209.00,0.0113
3208.00,0.0113
3207.00,0.0113
3206.00,0.0113
3205.00,0.0113
3204.00,0.0113
3203.00,0.0112
3202.00,0.0112
3201.00,0.0112
3200.00,0.0111
3199.00,0.0111
3198.00,0.0111
3197.00,0.0111
3196.00,0.0110
3195.00,0.0110
3194.00,0.0110
3193.00,0.0109
3192.00,0.0109
3191.00,0.0109
3190.00,0.0109
3189.00,0.0109
3188.00,0.0109
3187.00,0.0109
3186.00,0.0108
3185.00,0.0107
3184.00,0.0107
3183.00,0.0106
3182.00,0.0106
3181.00,0.0105
3180.00,0.0105
3179.00,0.0104
3178.00,0.0103
3177.00,0.0103
3176.00,0.0102
3175.00,0.0101
3174.00,0.0101
3173.00,0.0101
3172.00,0.0100
3171.00,0.0100
3170.00,0.0099
3169.00,0.0099
3168.00,0.0099
3167.00,0.0098
3166.00,0.0098
3165.00,0.0098
3164.00,0.0097
3163.00,0.0096
3162.00,0.0096
3161.00,0.0095
3160.00,0.0095
3159.00,0.0094
3158.00,0.0093
3157.00,0.0093
3156.00,0.0093
3155.00,0.0092
3154.00,0.0092
3153.00,0.0092
3152.00,0.0092
3151.00,0.0092
3150.00,0.0091
3149.00,0.0091
3148.00,0.0090
3147.00,0.0090
3146.00,0.0089
3145.00,0.0089
3144.00,0.0088
3143.00,0.0088
3142.00,0.0088
3141.00,0.0087
3140.00,0.0087
3139.00,0.0086
3138.00,0.0086
3137.00,0.0086
3136.00,0.0085
3135.00,0.0085
3134.00,0.0084
3133.00,0.0083
3132.00,0.0083
3131.00,0.0082
3130.00,0.0081
3129.00,0.0081
3128.00,0.0080
3127.00,0.0080
3126.00,0.0079
3125.00,0.0079
3124.00,0.0079
3123.00,0.0078
3122.00,0.0077
3121.00,0.0077
3120.00,0.0076
3119.00,0.0076
3118.00,0.0076
3117.00,0.0075
3116.00,0.0075
3115.00,0.0074
3114.00,0.0074
3113.00,0.0074
3112.00,0.0074
3111.00,0.0073
3110.00,0.0073
3109.00,0.0072
3108.00,0.0071
3107.00,0.0071
3106.00,0.0070
3105.00,0.0070
3104.00,0.0070
3103.00,0.0070
3102.00,0.0070
3101.00,0.0069
3100.00,0.0069
3099.00,0.0068
3098.00,0.0068
3097.00,0.0068
3096.00,0.0068
3095.00,0.0068
3094.00,0.0068
3093.00,0.0067
3092.00,0.0067
3091.00,0.0066
3090.00,0.0066
3089.00,0.0065
3088.00,0.0065
3087.00,0.0064
3086.00,0.0064
3085.00,0.0063
3084.00,0.0063
3083.00,0.0063
3082.00,0.0062
3081.00,0.0062
3080.00,0.0062
3079.00,0.0062
3078.00,0.0062
3077.00,0.0062
3076.00,0.0062
3075.00,0.0062
3074.00,0.0063
3073.00,0.0063
3072.00,0.0063
3071.00,0.0063
3070.00,0.0063
3069.00,0.0063
3068.00,0.0063
3067.00,0.0064
3066.00,0.0064
3065.00,0.0065
3064.00,0.0065
3063.00,0.0065
3062.00,0.0064
3061.00,0.0064
3060.00,0.0064
3059.00,0.0064
3058.00,0.0064
3057.00,0.0064
3056.00,0.0064
3055.00,0.0063
3054.00,0.0064
3053.00,0.0064
3052.00,0.0064
3051.00,0.0064
3050.00,0.0064
3049.00,0.0064
3048.00,0.0064
3047.00,0.0065
3046.00,0.0065
3045.00,0.0065
3044.00,0.0065
3043.00,0.0066
3042.00,0.0066
3041.00,0.0067
3040.00,0.0067
3039.00,0.0068
3038.00,0.0068
3037.00,0.0069
3036.00,0.0069
3035.00,0.0070
3034.00,0.0070
3033.00,0.0070
3032.00,0.0071
3031.00,0.0071
3030.00,0.0071
3029.00,0.0071
3028.00,0.0071
3027.00,0.0072
3026.00,0.0072
3025.00,0.0072
3024.00,0.0072
3023.00,0.0073
3022.00,0.0073
3021.00,0.0074
3020.00,0.0075
3019.00,0.0076
3018.00,0.0077
3017.00,0.0077
3016.00,0.0078
3015.00,0.0079
3014.00,0.0080
3013.00,0.0081
3012.00,0.0082
3011.00,0.0083
3010.00,0.0083
3009.00,0.0084
3008.00,0.0085
3007.00,0.0087
3006.00,0.0088
3005.00,0.0090
3004.00,0.0092
3003.00,0.0094
3002.00,0.0096
3001.00,0.0098
3000.00,0.0100
2999.00,0.0103
2998.00,0.0106
2997.00,0.0109
2996.00,0.0113
2995.00,0.0117
2994.00,0.0121
2993.00,0.0126
2992.00,0.0131
2991.00,0.0136
2990.00,0.0141
2989.00,0.0148
2988.00,0.0155
2987.00,0.0163
2986.00,0.0172
2985.00,0.0182
2984.00,0.0194
2983.00,0.0207
2982.00,0.0221
2981.00,0.0237
2980.00,0.0255
2979.00,0.0275
2978.00,0.0298
2977.00,0.0325
2976.00,0.0355
2975.00,0.0389
2974.00,0.0428
2973.00,0.0472
2972.00,0.0522
2971.00,0.0578
2970.00,0.0640
2969.00,0.0709
2968.00,0.0785
2967.00,0.0866
2966.00,0.0954
2965.00,0.1044
2964.00,0.1135
2963.00,0.1222
2962.00,0.1301
2961.00,0.1368
2960.00,0.1422
2959.00,0.1462
2958.00,0.1494
2957.00,0.1521
2956.00,0.1549
2955.00,0.1582
2954.00,0.1621
2953.00,0.1663
2952.00,0.1701
2951.00,0.1729
2950.00,0.1738
2949.00,0.1720
2948.00,0.1673
2947.00,0.1598
2946.00,0.1504
2945.00,0.1401
2944.00,0.1299
2943.00,0.1210
2942.00,0.1139
2941.00,0.1090
2940.00,0.1062
2939.00,0.1054
2938.00,0.1063
2937.00,0.1089
2936.00,0.1128
2935.00,0.1181
2934.00,0.1245
2933.00,0.1321
2932.00,0.1404
2931.00,0.1495
2930.00,0.1590
2929.00,0.1686
2928.00,0.1781
2927.00,0.1871
2926.00,0.1955
2925.00,0.2033
2924.00,0.2105
2923.00,0.2173
2922.00,0.2237
2921.00,0.2294
2920.00,0.2342
2919.00,0.2375
2918.00,0.2387
2917.00,0.2373
2916.00,0.2334
2915.00,0.2274
2914.00,0.2199
2913.00,0.2117
2912.00,0.2035
2911.00,0.1959
2910.00,0.1889
2909.00,0.1826
2908.00,0.1766
2907.00,0.1710
2906.00,0.1653
2905.00,0.1595
2904.00,0.1536
2903.00,0.1476
2902.00,0.1415
2901.00,0.1354
2900.00,0.1296
2899.00,0.1240
2898.00,0.1187
2897.00,0.1140
2896.00,0.1097
2895.00,0.1061
2894.00,0.1030
2893.00,0.1005
2892.00,0.0986
2891.00,0.0973
2890.00,0.0964
2889.00,0.0960
2888.00,0.0959
2887.00,0.0961
2886.00,0.0966
2885.00,0.0975
2884.00,0.0987
2883.00,0.1004
2882.00,0.1024
2881.00,0.1046
2880.00,0.1069
2879.00,0.1088
2878.00,0.1102
2877.00,0.1109
2876.00,0.1109
2875.00,0.1104
2874.00,0.1101
2873.00,0.1100
2872.00,0.1106
2871.00,0.1118
2870.00,0.1134
2869.00,0.1152
2868.00,0.1165
2867.00,0.1167
2866.00,0.1152
2865.00,0.1118
2864.00,0.1067
2863.00,0.1005
2862.00,0.0940
2861.00,0.0880
2860.00,0.0830
2859.00,0.0791
2858.00,0.0763
2857.00,0.0744
2856.00,0.0732
2855.00,0.0724
2854.00,0.0719
2853.00,0.0716
2852.00,0.0715
2851.00,0.0717
2850.00,0.0721
2849.00,0.0729
2848.00,0.0743
2847.00,0.0763
2846.00,0.0791
2845.00,0.0828
2844.00,0.0873
2843.00,0.0925
2842.00,0.0980
2841.00,0.1032
2840.00,0.1075
2839.00,0.1102
2838.00,0.1105
2837.00,0.1080
2836.00,0.1027
2835.00,0.0951
2834.00,0.0859
2833.00,0.0764
2832.00,0.0672
2831.00,0.0591
2830.00,0.0522
2829.00,0.0465
2828.00,0.0419
2827.00,0.0381
2826.00,0.0350
2825.00,0.0324
2824.00,0.0303
2823.00,0.0285
2822.00,0.0269
2821.00,0.0256
2820.00,0.0244
2819.00,0.0233
2818.00,0.0224
2817.00,0.0215
2816.00,0.0208
2815.00,0.0202
2814.00,0.0196
2813.00,0.0190
2812.00,0.0185
2811.00,0.0180
2810.00,0.0175
2809.00,0.0171
2808.00,0.0166
2807.00,0.0160
2806.00,0.0154
2805.00,0.0148
2804.00,0.0142
2803.00,0.0137
2802.00,0.0132
2801.00,0.0128
2800.00,0.0125
2799.00,0.0122
2798.00,0.0119
2797.00,0.0117
2796.00,0.0115
2795.00,0.0112
2794.00,0.0110
2793.00,0.0107
2792.00,0.0104
2791.00,0.0101
2790.00,0.0098
2789.00,0.0095
2788.00,0.0091
2787.00,0.0089
2786.00,0.0086
2785.00,0.0084
2784.00,0.0082
2783.00,0.0080
2782.00,0.0078
2781.00,0.0077
2780.00,0.0075
2779.00,0.0073
2778.00,0.0071
2777.00,0.0070
2776.00,0.0068
2775.00,0.0067
2774.00,0.0066
2773.00,0.0066
2772.00,0.0065
2771.00,0.0065
2770.00,0.0064
2769.00,0.0064
2768.00,0.0064
2767.00,0.0064
2766.00,0.0063
2765.00,0.0063
2764.00,0.0062
2763.00,0.0062
2762.00,0.0062
2761.00,0.0061
2760.00,0.0061
2759.00,0.0060
2758.00,0.0060
2757.00,0.0060
2756.00,0.0060
2755.00,0.0060
2754.00,0.0059
2753.00,0.0059
2752.00,0.0059
2751.00,0.0058
2750.00,0.0058
2749.00,0.0058
2748.00,0.0058
2747.00,0.0058
2746.00,0.0059
2745.00,0.0059
2744.00,0.0060
2743.00,0.0060
2742.00,0.0061
2741.00,0.0062
2740.00,0.0063
2739.00,0.0065
2738.00,0.0066
2737.00,0.0067
2736.00,0.0069
2735.00,0.0070
2734.00,0.0071
2733.00,0.0072
2732.00,0.0074
2731.00,0.0075
2730.00,0.0077
2729.00,0.0079
2728.00,0.0081
2727.00,0.0083
2726.00,0.0085
2725.00,0.0086
2724.00,0.0087
2723.00,0.0088
2722.00,0.0087
2721.00,0.0085
2720.00,0.0083
2719.00,0.0080
2718.00,0.0077
2717.00,0.0074
2716.00,0.0072
2715.00,0.0069
2714.00,0.0067
2713.00,0.0065
2712.00,0.0064
2711.00,0.0062
2710.00,0.0060
2709.00,0.0059
2708.00,0.0058
2707.00,0.0057
2706.00,0.0056
2705.00,0.0055
2704.00,0.0054
2703.00,0.0053
2702.00,0.0053
2701.00,0.0052
2700.00,0.0051
2699.00,0.0051
2698.00,0.0050
2697.00,0.0050
2696.00,0.0050
2695.00,0.0050
2694.00,0.0050
2693.00,0.0050
2692.00,0.0051
2691.00,0.0050
2690.00,0.0050
2689.00,0.0050
2688.00,0.0049
2687.00,0.0049
2686.00,0.0049
2685.00,0.0049
2684.00,0.0049
2683.00,0.0049
2682.00,0.0050
2681.00,0.0050
2680.00,0.0050
2679.00,0.0050
2678.00,0.0050
2677.00,0.0050
2676.00,0.0050
2675.00,0.0049
2674.00,0.0049
2673.00,0.0048
2672.00,0.0048
2671.00,0.0048
2670.00,0.0048
2669.00,0.0048
2668.00,0.0048
2667.00,0.0048
2666.00,0.0048
2665.00,0.0048
2664.00,0.0049
2663.00,0.0049
2662.00,0.0049
2661.00,0.0050
2660.00,0.0050
2659.00,0.0050
2658.00,0.0050
2657.00,0.0050
2656.00,0.0050
2655.00,0.0050
2654.00,0.0049
2653.00,0.0049
2652.00,0.0048
2651.00,0.0047
2650.00,0.0046
2649.00,0.0046
2648.00,0.0046
2647.00,0.0046
2646.00,0.0046
2645.00,0.0045
2644.00,0.0045
2643.00,0.0044
2642.00,0.0044
2641.00,0.0043
2640.00,0.0043
2639.00,0.0042
2638.00,0.0042
2637.00,0.0041
2636.00,0.0041
2635.00,0.0041
2634.00,0.0041
2633.00,0.0041
2632.00,0.0040
2631.00,0.0041
2630.00,0.0041
2629.00,0.0041
2628.00,0.0041
2627.00,0.0041
2626.00,0.0041
2625.00,0.0041
2624.00,0.0041
2623.00,0.0042
2622.00,0.0042
2621.00,0.0043
2620.00,0.0043
2619.00,0.0043
2618.00,0.0043
2617.00,0.0042
2616.00,0.0042
2615.00,0.0042
2614.00,0.0041
2613.00,0.0041
2612.00,0.0041
2611.00,0.0040
2610.00,0.0040
2609.00,0.0039
2608.00,0.0039
2607.00,0.0038
2606.00,0.0037
2605.00,0.0036
2604.00,0.0036
2603.00,0.0036
2602.00,0.0035
2601.00,0.0035
2600.00,0.0035
2599.00,0.0035
2598.00,0.0035
2597.00,0.0036
2596.00,0.0035
2595.00,0.0035
2594.00,0.0035
2593.00,0.0036
2592.00,0.0037
2591.00,0.0037
2590.00,0.0038
2589.00,0.0038
2588.00,0.0039
2587.00,0.0039
2586.00,0.0040
2585.00,0.0040
2584.00,0.0040
2583.00,0.0040
2582.00,0.0040
2581.00,0.0040
2580.00,0.0040
2579.00,0.0039
2578.00,0.0038
2577.00,0.0036
2576.00,0.0035
2575.00,0.0034
2574.00,0.0033
2573.00,0.0031
2572.00,0.0031
2571.00,0.0030
2570.00,0.0030
2569.00,0.0030
2568.00,0.0030
2567.00,0.0029
2566.00,0.0029
2565.00,0.0028
2564.00,0.0027
2563.00,0.0026
2562.00,0.0026
2561.00,0.0026
2560.00,0.0026
2559.00,0.0027
2558.00,0.0027
2557.00,0.0027
2556.00,0.0027
2555.00,0.0027
2554.00,0.0026
2553.00,0.0025
2552.00,0.0025
2551.00,0.0024
2550.00,0.0024
2549.00,0.0023
2548.00,0.0023
2547.00,0.0022
2546.00,0.0022
2545.00,0.0022
2544.00,0.0021
2543.00,0.0021
2542.00,0.0020
2541.00,0.0020
2540.00,0.0021
2539.00,0.0021
2538.00,0.0021
2537.00,0.0021
2536.00,0.0021
2535.00,0.0020
2534.00,0.0020
2533.00,0.0019
2532.00,0.0018
2531.00,0.0018
2530.00,0.0017
2529.00,0.0017
2528.00,0.0017
2527.00,0.0017
2526.00,0.0018
2525.00,0.0018
2524.00,0.0018
2523.00,0.0018
2522.00,0.0018
2521.00,0.0019
2520.00,0.0018
2519.00,0.0018
2518.00,0.0017
2517.00,0.0017
2516.00,0.0017
2515.00,0.0017
2514.00,0.0017
2513.00,0.0017
2512.00,0.0016
2511.00,0.0015
2510.00,0.0014
2509.00,0.0013
2508.00,0.0014
2507.00,0.0014
2506.00,0.0014
2505.00,0.0014
2504.00,0.0014
2503.00,0.0014
2502.00,0.0014
2501.00,0.0014
2500.00,0.0014
2499.00,0.0014
2498.00,0.0014
2497.00,0.0014
2496.00,0.0015
2495.00,0.0015
2494.00,0.0014
2493.00,0.0014
2492.00,0.0014
2491.00,0.0014
2490.00,0.0014
2489.00,0.0014
2488.00,0.0014
2487.00,0.0014
2486.00,0.0014
2485.00,0.0014
2484.00,0.0014
2483.00,0.0014
2482.00,0.0013
2481.00,0.0013
2480.00,0.0013
2479.00,0.0014
2478.00,0.0014
2477.00,0.0014
2476.00,0.0013
2475.00,0.0013
2474.00,0.0012
2473.00,0.0012
2472.00,0.0012
2471.00,0.0012
2470.00,0.0013
2469.00,0.0013
2468.00,0.0013
2467.00,0.0013
2466.00,0.0013
2465.00,0.0013
2464.00,0.0014
2463.00,0.0013
2462.00,0.0013
2461.00,0.0012
2460.00,0.0013
2459.00,0.0013
2458.00,0.0014
2457.00,0.0015
2456.00,0.0015
2455.00,0.0015
2454.00,0.0016
2453.00,0.0016
2452.00,0.0015
2451.00,0.0015
2450.00,0.0015
2449.00,0.0015
2448.00,0.0014
2447.00,0.0014
2446.00,0.0014
2445.00,0.0013
2444.00,0.0013
2443.00,0.0013
2442.00,0.0012
2441.00,0.0012
2440.00,0.0012
2439.00,0.0013
2438.00,0.0013
2437.00,0.0013
2436.00,0.0014
2435.00,0.0015
2434.00,0.0015
2433.00,0.0015
2432.00,0.0015
2431.00,0.0015
2430.00,0.0015
2429.00,0.0015
2428.00,0.0016
2427.00,0.0016
2426.00,0.0016
2425.00,0.0016
2424.00,0.0015
2423.00,0.0015
2422.00,0.0014
2421.00,0.0014
2420.00,0.0014
2419.00,0.0014
2418.00,0.0013
2417.00,0.0013
2416.00,0.0013
2415.00,0.0013
2414.00,0.0013
2413.00,0.0013
2412.00,0.0013
2411.00,0.0014
2410.00,0.0014
2409.00,0.0014
2408.00,0.0014
2407.00,0.0013
2406.00,0.0012
2405.00,0.0012
2404.00,0.0012
2403.00,0.0013
2402.00,0.0013
2401.00,0.0012
2400.00,0.0012
2399.00,0.0011
2398.00,0.0011
2397.00,0.0011
2396.00,0.0011
2395.00,0.0011
2394.00,0.0011
2393.00,0.0011
2392.00,0.0010
2391.00,0.0010
2390.00,0.0010
2389.00,0.0010
2388.00,0.0010
2387.00,0.0010
2386.00,0.0010
2385.00,0.0010
2384.00,0.0010
2383.00,0.0009
2382.00,0.0009
2381.00,0.0009
2380.00,0.0009
2379.00,0.0008
2378.00,0.0008
2377.00,0.0008
2376.00,0.0009
2375.00,0.0009
2374.00,0.0009
2373.00,0.0010
2372.00,0.0009
2371.00,0.0009
2370.00,0.0008
2369.00,0.0008
2368.00,0.0008
2367.00,0.0008
2366.00,0.0009
2365.00,0.0009
2364.00,0.0009
2363.00,0.0009
2362.00,0.0009
2361.00,0.0009
2360.00,0.0009
2359.00,0.0010
2358.00,0.0010
2357.00,0.0010
2356.00,0.0010
2355.00,0.0010
2354.00,0.0010
2353.00,0.0009
2352.00,0.0008
2351.00,0.0008
2350.00,0.0009
2349.00,0.0010
2348.00,0.0012
2347.00,0.0012
2346.00,0.0012
2345.00,0.0011
2344.00,0.0012
2343.00,0.0012
2342.00,0.0013
2341.00,0.0013
2340.00,0.0013
2339.00,0.0013
2338.00,0.0013
2337.00,0.0013
2336.00,0.0013
2335.00,0.0013
2334.00,0.0013
2333.00,0.0013
2332.00,0.0012
2331.00,0.0011
2330.00,0.0011
2329.00,0.0011
2328.00,0.0012
2327.00,0.0015
2326.00,0.0019
2325.00,0.0022
2324.00,0.0023
2323.00,0.0023
2322.00,0.0021
2321.00,0.0019
2320.00,0.0017
2319.00,0.0016
2318.00,0.0015
2317.00,0.0015
2316.00,0.0014
2315.00,0.0014
2314.00,0.0014
2313.00,0.0013
2312.00,0.0012
2311.00,0.0011
2310.00,0.0010
2309.00,0.0010
2308.00,0.0010
2307.00,0.0011
2306.00,0.0012
2305.00,0.0013
2304.00,0.0013
2303.00,0.0014
2302.00,0.0014
2301.00,0.0015
2300.00,0.0016
2299.00,0.0016
2298.00,0.0016
2297.00,0.0016
2296.00,0.0016
2295.00,0.0016
2294.00,0.0016
2293.00,0.0017
2292.00,0.0018
2291.00,0.0018
2290.00,0.0019
2289.00,0.0019
2288.00,0.0020
2287.00,0.0020
2286.00,0.0020
2285.00,0.0020
2284.00,0.0020
2283.00,0.0019
2282.00,0.0019
2281.00,0.0019
2280.00,0.0018
2279.00,0.0018
2278.00,0.0017
2277.00,0.0016
2276.00,0.0015
2275.00,0.0015
2274.00,0.0015
2273.00,0.0016
2272.00,0.0016
2271.00,0.0016
2270.00,0.0016
2269.00,0.0017
2268.00,0.0018
2267.00,0.0018
2266.00,0.0018
2265.00,0.0016
2264.00,0.0015
2263.00,0.0014
2262.00,0.0014
2261.00,0.0015
2260.00,0.0016
2259.00,0.0017
2258.00,0.0017
2257.00,0.0016
2256.00,0.0015
2255.00,0.0013
2254.00,0.0011
2253.00,0.0011
2252.00,0.0012
2251.00,0.0014
2250.00,0.0015
2249.00,0.0014
2248.00,0.0013
2247.00,0.0011
2246.00,0.0010
2245.00,0.0009
2244.00,0.0010
2243.00,0.0010
2242.00,0.0011
2241.00,0.0011
2240.00,0.0010
2239.00,0.0010
2238.00,0.0009
2237.00,0.0010
2236.00,0.0011
2235.00,0.0011
2234.00,0.0012
2233.00,0.0012
2232.00,0.0012
2231.00,0.0013
2230.00,0.0013
2229.00,0.0013
2228.00,0.0012
2227.00,0.0011
2226.00,0.0010
2225.00,0.0010
2224.00,0.0011
2223.00,0.0012
2222.00,0.0012
2221.00,0.0012
2220.00,0.0013
2219.00,0.0012
2218.00,0.0010
2217.00,0.0008
2216.00,0.0007
2215.00,0.0007
2214.00,0.0008
2213.00,0.0010
2212.00,0.0011
2211.00,0.0011
2210.00,0.0011
2209.00,0.0011
2208.00,0.0012
2207.00,0.0012
2206.00,0.0011
2205.00,0.0010
2204.00,0.0009
2203.00,0.0008
2202.00,0.0007
2201.00,0.0008
2200.00,0.0007
2199.00,0.0007
2198.00,0.0007
2197.00,0.0008
2196.00,0.0009
2195.00,0.0011
2194.00,0.0013
2193.00,0.0014
2192.00,0.0015
2191.00,0.0017
2190.00,0.0019
2189.00,0.0021
2188.00,0.0022
2187.00,0.0021
2186.00,0.0019
2185.00,0.0016
2184.00,0.0014
2183.00,0.0012
2182.00,0.0013
2181.00,0.0014
2180.00,0.0017
2179.00,0.0019
2178.00,0.0021
2177.00,0.0021
2176.00,0.0020
2175.00,0.0019
2174.00,0.0018
2173.00,0.0019
2172.00,0.0020
2171.00,0.0020
2170.00,0.0020
2169.00,0.0021
2168.00,0.0023
2167.00,0.0026
2166.00,0.0029
2165.00,0.0031
2164.00,0.0032
2163.00,0.0033
2162.00,0.0032
2161.00,0.0027
2160.00,0.0015
2159.00,0.0001
2158.00,-0.0012
2157.00,-0.0019
2156.00,-0.0021
2155.00,-0.0018
2154.00,-0.0014
2153.00,-0.0008
2152.00,-0.0003
2151.00,0.0000
2150.00,0.0001
2149.00,-0.0001
2148.00,-0.0003
2147.00,-0.0004
2146.00,-0.0005
2145.00,-0.0004
2144.00,-0.0003
2143.00,-0.0002
2142.00,-0.0003
2141.00,-0.0004
2140.00,-0.0004
2139.00,-0.0005
2138.00,-0.0006
2137.00,-0.0007
2136.00,-0.0008
2135.00,-0.0010
2134.00,-0.0012
2133.00,-0.0012
2132.00,-0.0009
2131.00,-0.0007
2130.00,-0.0005
2129.00,-0.0004
2128.00,-0.0002
2127.00,-0.0000
2126.00,0.0000
2125.00,0.0000
2124.00,0.0001
2123.00,0.0001
2122.00,0.0003
2121.00,0.0005
2120.00,0.0005
2119.00,0.0006
2118.00,0.0006
2117.00,0.0008
2116.00,0.0010
2115.00,0.0012
2114.00,0.0013
2113.00,0.0013
2112.00,0.0011
2111.00,0.0010
2110.00,0.0008
2109.00,0.0008
2108.00,0.0008
2107.00,0.0009
2106.00,0.0010
2105.00,0.0010
2104.00,0.0010
2103.00,0.0010
2102.00,0.0011
2101.00,0.0011
2100.00,0.0011
2099.00,0.0011
2098.00,0.0010
2097.00,0.0009
2096.00,0.0006
2095.00,0.0003
2094.00,0.0001
2093.00,0.0001
2092.00,0.0002
2091.00,0.0004
2090.00,0.0006
2089.00,0.0007
2088.00,0.0008
2087.00,0.0008
2086.00,0.0009
2085.00,0.0009
2084.00,0.0009
2083.00,0.0009
2082.00,0.0009
2081.00,0.0009
2080.00,0.0009
2079.00,0.0009
2078.00,0.0010
2077.00,0.0010
2076.00,0.0011
2075.00,0.0012
2074.00,0.0012
2073.00,0.0011
2072.00,0.0010
2071.00,0.0009
2070.00,0.0007
2069.00,0.0006
2068.00,0.0006
2067.00,0.0005
2066.00,0.0005
2065.00,0.0005
2064.00,0.0006
2063.00,0.0007
2062.00,0.0007
2061.00,0.0007
2060.00,0.0007
2059.00,0.0008
2058.00,0.0009
2057.00,0.0009
2056.00,0.0009
2055.00,0.0009
2054.00,0.0010
2053.00,0.0013
2052.00,0.0017
2051.00,0.0019
2050.00,0.0018
2049.00,0.0016
2048.00,0.0012
2047.00,0.0009
2046.00,0.0008
2045.00,0.0010
2044.00,0.0011
2043.00,0.0012
2042.00,0.0011
2041.00,0.0009
2040.00,0.0007
2039.00,0.0006
2038.00,0.0004
2037.00,0.0002
2036.00,0.0001
2035.00,-0.0000
2034.00,0.0000
2033.00,0.0003
2032.00,0.0005
2031.00,0.0006
2030.00,0.0005
2029.00,0.0003
2028.00,0.0002
2027.00,-0.0000
2026.00,-0.0003
2025.00,-0.0006
2024.00,-0.0007
2023.00,-0.0008
2022.00,-0.0008
2021.00,-0.0009
2020.00,-0.0008
2019.00,-0.0005
2018.00,-0.0001
2017.00,0.0002
2016.00,0.0002
2015.00,-0.0001
2014.00,-0.0005
2013.00,-0.0008
2012.00,-0.0008
2011.00,-0.0006
2010.00,-0.0004
2009.00,-0.0004
2008.00,-0.0007
2007.00,-0.0011
2006.00,-0.0015
2005.00,-0.0015
2004.00,-0.0013
2003.00,-0.0011
2002.00,-0.0009
2001.00,-0.0007
2000.00,-0.0006
1999.00,-0.0005
1998.00,-0.0005
1997.00,-0.0006
1996.00,-0.0007
1995.00,-0.0008
1994.00,-0.0008
1993.00,-0.0007
1992.00,-0.0005
1991.00,-0.0004
1990.00,-0.0004
1989.00,-0.0003
1988.00,-0.0001
1987.00,0.0001
1986.00,0.0003
1985.00,0.0005
1984.00,0.0008
1983.00,0.0012
1982.00,0.0016
1981.00,0.0019
1980.00,0.0019
1979.00,0.0013
1978.00,0.0005
1977.00,-0.0003
1976.00,-0.0007
1975.00,-0.0008
1974.00,-0.0007
1973.00,-0.0007
1972.00,-0.0006
1971.00,-0.0006
1970.00,-0.0006
1969.00,-0.0006
1968.00,-0.0005
1967.00,-0.0006
1966.00,-0.0006
1965.00,-0.0006
1964.00,-0.0005
1963.00,-0.0005
1962.00,-0.0006
1961.00,-0.0005
1960.00,-0.0005
1959.00,-0.0006
1958.00,-0.0006
1957.00,-0.0007
1956.00,-0.0007
1955.00,-0.0008
1954.00,-0.0009
1953.00,-0.0010
1952.00,-0.0010
1951.00,-0.0009
1950.00,-0.0008
1949.00,-0.0008
1948.00,-0.0008
1947.00,-0.0009
1946.00,-0.0010
1945.00,-0.0009
1944.00,-0.0009
1943.00,-0.0008
1942.00,-0.0007
1941.00,-0.0006
1940.00,-0.0005
1939.00,-0.0005
1938.00,-0.0004
1937.00,-0.0004
1936.00,-0.0004
1935.00,-0.0005
1934.00,-0.0005
1933.00,-0.0004
1932.00,-0.0004
1931.00,-0.0004
1930.00,-0.0004
1929.00,-0.0004
1928.00,-0.0003
1927.00,-0.0003
1926.00,-0.0002
1925.00,-0.0002
1924.00,-0.0001
1923.00,-0.0001
1922.00,-0.0001
1921.00,-0.0001
1920.00,-0.0001
1919.00,-0.0001
1918.00,-0.0000
1917.00,0.0000
1916.00,0.0001
1915.00,0.0001
1914.00,0.0001
1913.00,0.0001
1912.00,0.0001
1911.00,0.0000
1910.00,0.0001
1909.00,0.0002
1908.00,0.0003
1907.00,0.0003
1906.00,0.0002
1905.00,0.0002
1904.00,0.0002
1903.00,0.0002
1902.00,0.0002
1901.00,0.0002
1900.00,0.0003
1899.00,0.0002
1898.00,0.0002
1897.00,0.0002
1896.00,0.0002
1895.00,0.0002
1894.00,0.0002
1893.00,0.0002
1892.00,0.0002
1891.00,0.0003
1890.00,0.0004
1889.00,0.0005
1888.00,0.0006
1887.00,0.0005
1886.00,0.0004
1885.00,0.0003
1884.00,0.0003
1883.00,0.0004
1882.00,0.0005
1881.00,0.0006
1880.00,0.0006
1879.00,0.0006
1878.00,0.0005
1877.00,0.0005
1876.00,0.0005
1875.00,0.0005
1874.00,0.0005
1873.00,0.0005
1872.00,0.0005
1871.00,0.0005
1870.00,0.0005
1869.00,0.0004
1868.00,0.0004
1867.00,0.0002
1866.00,0.0001
1865.00,0.0001
1864.00,0.0002
1863.00,0.0002
1862.00,0.0003
1861.00,0.0004
1860.00,0.0005
1859.00,0.0005
1858.00,0.0006
1857.00,0.0005
1856.00,0.0004
1855.00,0.0004
1854.00,0.0003
1853.00,0.0004
1852.00,0.0004
1851.00,0.0005
1850.00,0.0005
1849.00,0.0005
1848.00,0.0006
1847.00,0.0007
1846.00,0.0008
1845.00,0.0008
1844.00,0.0008
1843.00,0.0008
1842.00,0.0008
1841.00,0.0008
1840.00,0.0008
1839.00,0.0007
1838.00,0.0007
1837.00,0.0008
1836.00,0.0008
1835.00,0.0008
1834.00,0.0008
1833.00,0.0008
1832.00,0.0008
1831.00,0.0008
1830.00,0.0009
1829.00,0.0010
1828.00,0.0009
1827.00,0.0008
1826.00,0.0008
1825.00,0.0008
1824.00,0.0009
1823.00,0.0010
1822.00,0.0010
1821.00,0.0010
1820.00,0.0009
1819.00,0.0008
1818.00,0.0007
1817.00,0.0006
1816.00,0.0006
1815.00,0.0006
1814.00,0.0007
1813.00,0.0008
1812.00,0.0008
1811.00,0.0009
1810.00,0.0010
1809.00,0.0010
1808.00,0.0010
1807.00,0.0009
1806.00,0.0009
1805.00,0.0009
1804.00,0.0009
1803.00,0.0009
1802.00,0.0010
1801.00,0.0010
1800.00,0.0010
1799.00,0.0010
1798.00,0.0010
1797.00,0.0011
1796.00,0.0011
1795.00,0.0012
1794.00,0.0013
1793.00,0.0014
1792.00,0.0014
1791.00,0.0013
1790.00,0.0013
1789.00,0.0012
1788.00,0.0013
1787.00,0.0013
1786.00,0.0013
1785.00,0.0014
1784.00,0.0014
1783.00,0.0015
1782.00,0.0015
1781.00,0.0015
1780.00,0.0015
1779.00,0.0014
1778.00,0.0014
1777.00,0.0013
1776.00,0.0013
1775.00,0.0013
1774.00,0.0014
1773.00,0.0014
1772.00,0.0015
1771.00,0.0015
1770.00,0.0015
1769.00,0.0016
1768.00,0.0016
1767.00,0.0016
1766.00,0.0016
1765.00,0.0016
1764.00,0.0016
1763.00,0.0017
1762.00,0.0018
1761.00,0.0018
1760.00,0.0019
1759.00,0.0019
1758.00,0.0019
1757.00,0.0020
1756.00,0.0021
1755.00,0.0022
1754.00,0.0022
1753.00,0.0023
1752.00,0.0024
1751.00,0.0025
1750.00,0.0026
1749.00,0.0028
1748.00,0.0029
1747.00,0.0030
1746.00,0.0031
1745.00,0.0031
1744.00,0.0033
1743.00,0.0033
1742.00,0.0034
1741.00,0.0035
1740.00,0.0037
1739.00,0.0038
1738.00,0.0039
1737.00,0.0039
1736.00,0.0039
1735.00,0.0040
1734.00,0.0040
1733.00,0.0040
1732.00,0.0040
1731.00,0.0039
1730.00,0.0039
1729.00,0.0039
1728.00,0.0039
1727.00,0.0038
1726.00,0.0038
1725.00,0.0038
1724.00,0.0038
1723.00,0.0038
1722.00,0.0037
1721.00,0.0036
1720.00,0.0036
1719.00,0.0035
1718.00,0.0035
1717.00,0.0036
1716.00,0.0036
1715.00,0.0036
1714.00,0.0036
1713.00,0.0036
1712.00,0.0036
1711.00,0.0036
1710.00,0.0037
1709.00,0.0037
1708.00,0.0037
1707.00,0.0038
1706.00,0.0038
1705.00,0.0038
1704.00,0.0039
1703.00,0.0039
1702.00,0.0039
1701.00,0.0041
1700.00,0.0042
1699.00,0.0043
1698.00,0.0044
1697.00,0.0045
1696.00,0.0046
1695.00,0.0048
1694.00,0.0049
1693.00,0.0050
1692.00,0.0051
1691.00,0.0053
1690.00,0.0054
1689.00,0.0056
1688.00,0.0057
1687.00,0.0057
1686.00,0.0058
1685.00,0.0061
1684.00,0.0065
1683.00,0.0068
1682.00,0.0070
1681.00,0.0073
1680.00,0.0075
1679.00,0.0077
1678.00,0.0079
1677.00,0.0081
1676.00,0.0083
1675.00,0.0086
1674.00,0.0087
1673.00,0.0089
1672.00,0.0091
1671.00,0.0094
1670.00,0.0096
1669.00,0.0099
1668.00,0.0100
1667.00,0.0101
1666.00,0.0101
1665.00,0.0102
1664.00,0.0104
1663.00,0.0106
1662.00,0.0109
1661.00,0.0110
1660.00,0.0112
1659.00,0.0113
1658.00,0.0115
1657.00,0.0116
1656.00,0.0117
1655.00,0.0117
1654.00,0.0118
1653.00,0.0119
1652.00,0.0121
1651.00,0.0124
1650.00,0.0126
1649.00,0.0128
1648.00,0.0131
1647.00,0.0133
1646.00,0.0134
1645.00,0.0135
1644.00,0.0136
1643.00,0.0137
1642.00,0.0138
1641.00,0.0138
1640.00,0.0139
1639.00,0.0140
1638.00,0.0140
1637.00,0.0141
1636.00,0.0141
1635.00,0.0141
1634.00,0.0139
1633.00,0.0139
1632.00,0.0138
1631.00,0.0138
1630.00,0.0138
1629.00,0.0138
1628.00,0.0138
1627.00,0.0138
1626.00,0.0137
1625.00,0.0137
1624.00,0.0137
1623.00,0.0136
1622.00,0.0136
1621.00,0.0135
1620.00,0.0135
1619.00,0.0134
1618.00,0.0133
1617.00,0.0134
1616.00,0.0135
1615.00,0.0135
1614.00,0.0136
1613.00,0.0136
1612.00,0.0136
1611.00,0.0136
1610.00,0.0136
1609.00,0.0136
1608.00,0.0136
1607.00,0.0136
1606.00,0.0136
1605.00,0.0135
1604.00,0.0134
1603.00,0.0132
1602.00,0.0131
1601.00,0.0129
1600.00,0.0128
1599.00,0.0126
1598.00,0.0125
1597.00,0.0124
1596.00,0.0123
1595.00,0.0121
1594.00,0.0120
1593.00,0.0119
1592.00,0.0118
1591.00,0.0117
1590.00,0.0116
1589.00,0.0116
1588.00,0.0115
1587.00,0.0115
1586.00,0.0115
1585.00,0.0115
1584.00,0.0116
1583.00,0.0116
1582.00,0.0117
1581.00,0.0117
1580.00,0.0118
1579.00,0.0118
1578.00,0.0118
1577.00,0.0117
1576.00,0.0117
1575.00,0.0117
1574.00,0.0117
1573.00,0.0118
1572.00,0.0118
1571.00,0.0119
1570.00,0.0119
1569.00,0.0119
1568.00,0.0119
1567.00,0.0119
1566.00,0.0119
1565.00,0.0120
1564.00,0.0121
1563.00,0.0122
1562.00,0.0123
1561.00,0.0124
1560.00,0.0128
1559.00,0.0131
1558.00,0.0132
1557.00,0.0133
1556.00,0.0135
1555.00,0.0136
1554.00,0.0137
1553.00,0.0139
1552.00,0.0140
1551.00,0.0141
1550.00,0.0143
1549.00,0.0144
1548.00,0.0145
1547.00,0.0146
1546.00,0.0147
1545.00,0.0148
1544.00,0.0149
1543.00,0.0149
1542.00,0.0148
1541.00,0.0147
1540.00,0.0143
1539.00,0.0139
1538.00,0.0136
1537.00,0.0136
1536.00,0.0135
1535.00,0.0134
1534.00,0.0131
1533.00,0.0128
1532.00,0.0124
1531.00,0.0122
1530.00,0.0119
1529.00,0.0117
1528.00,0.0115
1527.00,0.0113
1526.00,0.0110
1525.00,0.0108
1524.00,0.0106
1523.00,0.0104
1522.00,0.0101
1521.00,0.0099
1520.00,0.0097
1519.00,0.0096
1518.00,0.0095
1517.00,0.0095
1516.00,0.0093
1515.00,0.0092
1514.00,0.0091
1513.00,0.0091
1512.00,0.0092
1511.00,0.0092
1510.00,0.0092
1509.00,0.0091
1508.00,0.0092
1507.00,0.0092
1506.00,0.0093
1505.00,0.0095
1504.00,0.0098
1503.00,0.0100
1502.00,0.0103
1501.00,0.0107
1500.00,0.0113
1499.00,0.0118
1498.00,0.0124
1497.00,0.0133
1496.00,0.0144
1495.00,0.0153
1494.00,0.0161
1493.00,0.0168
1492.00,0.0174
1491.00,0.0178
1490.00,0.0182
1489.00,0.0185
1488.00,0.0189
1487.00,0.0192
1486.00,0.0196
1485.00,0.0201
1484.00,0.0206
1483.00,0.0212
1482.00,0.0219
1481.00,0.0228
1480.00,0.0238
1479.00,0.0248
1478.00,0.0260
1477.00,0.0277
1476.00,0.0298
1475.00,0.0322
1474.00,0.0356
1473.00,0.0407
1472.00,0.0469
1471.00,0.0530
1470.00,0.0589
1469.00,0.0648
1468.00,0.0712
1467.00,0.0780
1466.00,0.0858
1465.00,0.0942
1464.00,0.1017
1463.00,0.1071
1462.00,0.1108
1461.00,0.1135
1460.00,0.1157
1459.00,0.1174
1458.00,0.1192
1457.00,0.1209
1456.00,0.1217
1455.00,0.1214
1454.00,0.1206
1453.00,0.1192
1452.00,0.1169
1451.00,0.1135
1450.00,0.1087
1449.00,0.1019
1448.00,0.0931
1447.00,0.0838
1446.00,0.0753
1445.00,0.0681
1444.00,0.0619
1443.00,0.0568
1442.00,0.0531
1441.00,0.0505
1440.00,0.0489
1439.00,0.0480
1438.00,0.0478
1437.00,0.0475
1436.00,0.0462
1435.00,0.0435
1434.00,0.0399
1433.00,0.0356
1432.00,0.0312
1431.00,0.0274
1430.00,0.0245
1429.00,0.0224
1428.00,0.0210
1427.00,0.0201
1426.00,0.0196
1425.00,0.0192
1424.00,0.0189
1423.00,0.0187
1422.00,0.0187
1421.00,0.0185
1420.00,0.0183
1419.00,0.0181
1418.00,0.0180
1417.00,0.0177
1416.00,0.0174
1415.00,0.0171
1414.00,0.0170
1413.00,0.0167
1412.00,0.0164
1411.00,0.0162
1410.00,0.0161
1409.00,0.0160
1408.00,0.0158
1407.00,0.0158
1406.00,0.0158
1405.00,0.0158
1404.00,0.0158
1403.00,0.0159
1402.00,0.0160
1401.00,0.0161
1400.00,0.0162
1399.00,0.0164
1398.00,0.0166
1397.00,0.0167
1396.00,0.0168
1395.00,0.0171
1394.00,0.0175
1393.00,0.0180
1392.00,0.0185
1391.00,0.0193
1390.00,0.0204
1389.00,0.0220
1388.00,0.0243
1387.00,0.0278
1386.00,0.0324
1385.00,0.0383
1384.00,0.0459
1383.00,0.0561
1382.00,0.0695
1381.00,0.0863
1380.00,0.1070
1379.00,0.1306
1378.00,0.1536
1377.00,0.1708
1376.00,0.1774
1375.00,0.1701
1374.00,0.1507
1373.00,0.1264
1372.00,0.1036
1371.00,0.0844
1370.00,0.0689
1369.00,0.0570
1368.00,0.0487
1367.00,0.0436
1366.00,0.0409
1365.00,0.0398
1364.00,0.0400
1363.00,0.0413
1362.00,0.0433
1361.00,0.0454
1360.00,0.0469
1359.00,0.0473
1358.00,0.0463
1357.00,0.0438
1356.00,0.0404
1355.00,0.0365
1354.00,0.0328
1353.00,0.0295
1352.00,0.0269
1351.00,0.0249
1350.00,0.0233
1349.00,0.0220
1348.00,0.0210
1347.00,0.0203
1346.00,0.0197
1345.00,0.0192
1344.00,0.0186
1343.00,0.0181
1342.00,0.0175
1341.00,0.0170
1340.00,0.0166
1339.00,0.0162
1338.00,0.0159
1337.00,0.0157
1336.00,0.0157
1335.00,0.0158
1334.00,0.0160
1333.00,0.0163
1332.00,0.0166
1331.00,0.0168
1330.00,0.0169
1329.00,0.0167
1328.00,0.0164
1327.00,0.0160
1326.00,0.0154
1325.00,0.0148
1324.00,0.0142
1323.00,0.0137
1322.00,0.0133
1321.00,0.0130
1320.00,0.0127
1319.00,0.0125
1318.00,0.0123
1317.00,0.0121
1316.00,0.0120
1315.00,0.0119
1314.00,0.0119
1313.00,0.0119
1312.00,0.0120
1311.00,0.0123
1310.00,0.0127
1309.00,0.0134
1308.00,0.0144
1307.00,0.0155
1306.00,0.0167
1305.00,0.0175
1304.00,0.0177
1303.00,0.0175
1302.00,0.0171
1301.00,0.0166
1300.00,0.0162
1299.00,0.0161
1298.00,0.0160
1297.00,0.0160
1296.00,0.0159
1295.00,0.0156
1294.00,0.0153
1293.00,0.0149
1292.00,0.0144
1291.00,0.0139
1290.00,0.0134
1289.00,0.0129
1288.00,0.0126
1287.00,0.0123
1286.00,0.0121
1285.00,0.0119
1284.00,0.0117
1283.00,0.0115
1282.00,0.0114
1281.00,0.0113
1280.00,0.0112
1279.00,0.0111
1278.00,0.0110
1277.00,0.0109
1276.00,0.0109
1275.00,0.0108
1274.00,0.0108
1273.00,0.0108
1272.00,0.0109
1271.00,0.0110
1270.00,0.0111
1269.00,0.0113
1268.00,0.0115
1267.00,0.0117
1266.00,0.0119
1265.00,0.0123
1264.00,0.0126
1263.00,0.0130
1262.00,0.0135
1261.00,0.0140
1260.00,0.0146
1259.00,0.0154
1258.00,0.0162
1257.00,0.0169
1256.00,0.0172
1255.00,0.0170
1254.00,0.0165
1253.00,0.0157
1252.00,0.0150
1251.00,0.0143
1250.00,0.0138
1249.00,0.0135
1248.00,0.0132
1247.00,0.0131
1246.00,0.0129
1245.00,0.0128
1244.00,0.0127
1243.00,0.0126
1242.00,0.0125
1241.00,0.0124
1240.00,0.0122
1239.00,0.0121
1238.00,0.0119
1237.00,0.0118
1236.00,0.0117
1235.00,0.0116
1234.00,0.0115
1233.00,0.0115
1232.00,0.0115
1231.00,0.0115
1230.00,0.0115
1229.00,0.0117
1228.00,0.0118
1227.00,0.0120
1226.00,0.0122
1225.00,0.0125
1224.00,0.0128
1223.00,0.0132
1222.00,0.0135
1221.00,0.0138
1220.00,0.0140
1219.00,0.0142
1218.00,0.0141
1217.00,0.0140
1216.00,0.0137
1215.00,0.0134
1214.00,0.0130
1213.00,0.0126
1212.00,0.0122
1211.00,0.0118
1210.00,0.0115
1209.00,0.0113
1208.00,0.0112
1207.00,0.0111
1206.00,0.0110
1205.00,0.0109
1204.00,0.0108
1203.00,0.0107
1202.00,0.0107
1201.00,0.0107
1200.00,0.0108
1199.00,0.0108
1198.00,0.0109
1197.00,0.0109
1196.00,0.0108
1195.00,0.0108
1194.00,0.0108
1193.00,0.0109
1192.00,0.0109
1191.00,0.0110
1190.00,0.0110
1189.00,0.0110
1188.00,0.0110
1187.00,0.0110
1186.00,0.0112
1185.00,0.0113
1184.00,0.0114
1183.00,0.0116
1182.00,0.0118
1181.00,0.0120
1180.00,0.0124
1179.00,0.0128
1178.00,0.0135
1177.00,0.0143
1176.00,0.0156
1175.00,0.0172
1174.00,0.0193
1173.00,0.0219
1172.00,0.0250
1171.00,0.0284
1170.00,0.0318
1169.00,0.0345
1168.00,0.0363
1167.00,0.0367
1166.00,0.0361
1165.00,0.0347
1164.00,0.0330
1163.00,0.0313
1162.00,0.0297
1161.00,0.0284
1160.00,0.0272
1159.00,0.0264
1158.00,0.0257
1157.00,0.0253
1156.00,0.0249
1155.00,0.0247
1154.00,0.0245
1153.00,0.0243
1152.00,0.0240
1151.00,0.0236
1150.00,0.0230
1149.00,0.0223
1148.00,0.0215
1147.00,0.0207
1146.00,0.0199
1145.00,0.0192
1144.00,0.0186
1143.00,0.0182
1142.00,0.0177
1141.00,0.0172
1140.00,0.0168
1139.00,0.0164
1138.00,0.0161
1137.00,0.0159
1136.00,0.0158
1135.00,0.0157
1134.00,0.0156
1133.00,0.0156
1132.00,0.0157
1131.00,0.0158
1130.00,0.0160
1129.00,0.0162
1128.00,0.0165
1127.00,0.0168
1126.00,0.0171
1125.00,0.0174
1124.00,0.0178
1123.00,0.0182
1122.00,0.0186
1121.00,0.0189
1120.00,0.0192
1119.00,0.0193
1118.00,0.0193
1117.00,0.0192
1116.00,0.0192
1115.00,0.0192
1114.00,0.0192
1113.00,0.0191
1112.00,0.0192
1111.00,0.0193
1110.00,0.0196
1109.00,0.0200
1108.00,0.0204
1107.00,0.0209
1106.00,0.0215
1105.00,0.0220
1104.00,0.0224
1103.00,0.0227
1102.00,0.0227
1101.00,0.0225
1100.00,0.0220
1099.00,0.0214
1098.00,0.0207
1097.00,0.0201
1096.00,0.0196
1095.00,0.0191
1094.00,0.0188
1093.00,0.0184
1092.00,0.0181
1091.00,0.0177
1090.00,0.0174
1089.00,0.0171
1088.00,0.0169
1087.00,0.0169
1086.00,0.0168
1085.00,0.0168
1084.00,0.0167
1083.00,0.0166
1082.00,0.0164
1081.00,0.0162
1080.00,0.0159
1079.00,0.0156
1078.00,0.0154
1077.00,0.0151
1076.00,0.0149
1075.00,0.0146
1074.00,0.0144
1073.00,0.0142
1072.00,0.0141
1071.00,0.0141
1070.00,0.0140
1069.00,0.0139
1068.00,0.0139
1067.00,0.0138
1066.00,0.0138
1065.00,0.0137
1064.00,0.0136
1063.00,0.0136
1062.00,0.0136
1061.00,0.0135
1060.00,0.0134
1059.00,0.0133
1058.00,0.0133
1057.00,0.0132
1056.00,0.0132
1055.00,0.0132
1054.00,0.0133
1053.00,0.0134
1052.00,0.0135
1051.00,0.0137
1050.00,0.0140
1049.00,0.0143
1048.00,0.0146
1047.00,0.0149
1046.00,0.0151
1045.00,0.0151
1044.00,0.0151
1043.00,0.0149
1042.00,0.0148
1041.00,0.0146
1040.00,0.0146
1039.00,0.0146
1038.00,0.0146
1037.00,0.0147
1036.00,0.0146
1035.00,0.0145
1034.00,0.0144
1033.00,0.0142
1032.00,0.0141
1031.00,0.0139
1030.00,0.0137
1029.00,0.0135
1028.00,0.0133
1027.00,0.0131
1026.00,0.0130
1025.00,0.0130
1024.00,0.0130
1023.00,0.0130
1022.00,0.0131
1021.00,0.0130
1020.00,0.0130
1019.00,0.0130
1018.00,0.0131
1017.00,0.0133
1016.00,0.0135
1015.00,0.0139
1014.00,0.0143
1013.00,0.0147
1012.00,0.0150
1011.00,0.0154
1010.00,0.0157
1009.00,0.0160
1008.00,0.0165
1007.00,0.0171
1006.00,0.0180
1005.00,0.0192
1004.00,0.0208
1003.00,0.0231
1002.00,0.0261
1001.00,0.0297
1000.00,0.0335
999.00,0.0368
998.00,0.0386
997.00,0.0381
996.00,0.0354
995.00,0.0315
994.00,0.0272
993.00,0.0234
992.00,0.0204
991.00,0.0182
990.00,0.0166
989.00,0.0155
988.00,0.0149
987.00,0.0145
986.00,0.0145
985.00,0.0146
984.00,0.0150
983.00,0.0157
982.00,0.0168
981.00,0.0184
980.00,0.0205
979.00,0.0233
978.00,0.0269
977.00,0.0312
976.00,0.0358
975.00,0.0403
974.00,0.0438
973.00,0.0454
972.00,0.0444
971.00,0.0410
970.00,0.0359
969.00,0.0306
968.00,0.0259
967.00,0.0222
966.00,0.0195
965.00,0.0175
964.00,0.0160
963.00,0.0149
962.00,0.0140
961.00,0.0133
960.00,0.0127
959.00,0.0123
958.00,0.0120
957.00,0.0117
956.00,0.0115
955.00,0.0113
954.00,0.0111
953.00,0.0110
952.00,0.0110
951.00,0.0110
950.00,0.0109
949.00,0.0108
948.00,0.0108
947.00,0.0110
946.00,0.0112
945.00,0.0115
944.00,0.0118
943.00,0.0121
942.00,0.0124
941.00,0.0126
940.00,0.0126
939.00,0.0123
938.00,0.0120
937.00,0.0115
936.00,0.0110
935.00,0.0106
934.00,0.0104
933.00,0.0101
932.00,0.0100
931.00,0.0099
930.00,0.0098
929.00,0.0097
928.00,0.0097
927.00,0.0096
926.00,0.0096
925.00,0.0096
924.00,0.0096
923.00,0.0095
922.00,0.0096
921.00,0.0096
920.00,0.0097
919.00,0.0099
918.00,0.0100
917.00,0.0102
916.00,0.0103
915.00,0.0103
914.00,0.0103
913.00,0.0104
912.00,0.0105
911.00,0.0106
910.00,0.0107
909.00,0.0108
908.00,0.0110
907.00,0.0114
906.00,0.0121
905.00,0.0131
904.00,0.0144
903.00,0.0161
902.00,0.0180
901.00,0.0198
900.00,0.0211
899.00,0.0215
898.00,0.0209
897.00,0.0195
896.00,0.0177
895.00,0.0160
894.00,0.0145
893.00,0.0133
892.00,0.0124
891.00,0.0118
890.00,0.0114
889.00,0.0110
888.00,0.0108
887.00,0.0106
886.00,0.0106
885.00,0.0106
884.00,0.0105
883.00,0.0104
882.00,0.0103
881.00,0.0104
880.00,0.0105
879.00,0.0107
878.00,0.0109
877.00,0.0110
876.00,0.0111
875.00,0.0112
874.00,0.0111
873.00,0.0111
872.00,0.0109
871.00,0.0107
870.00,0.0105
869.00,0.0105
868.00,0.0106
867.00,0.0106
866.00,0.0107
865.00,0.0107
864.00,0.0107
863.00,0.0107
862.00,0.0107
861.00,0.0108
860.00,0.0109
859.00,0.0110
858.00,0.0109
857.00,0.0109
856.00,0.0110
855.00,0.0112
854.00,0.0114
853.00,0.0118
852.00,0.0122
851.00,0.0127
850.00,0.0133
849.00,0.0140
848.00,0.0151
847.00,0.0166
846.00,0.0190
845.00,0.0224
844.00,0.0271
843.00,0.0322
842.00,0.0363
841.00,0.0374
840.00,0.0352
839.00,0.0307
838.00,0.0259
837.00,0.0221
836.00,0.0195
835.00,0.0178
834.00,0.0167
833.00,0.0160
832.00,0.0156
831.00,0.0153
830.00,0.0150
829.00,0.0147
828.00,0.0144
827.00,0.0140
826.00,0.0138
825.00,0.0136
824.00,0.0135
823.00,0.0134
822.00,0.0134
821.00,0.0135
820.00,0.0135
819.00,0.0136
818.00,0.0139
817.00,0.0144
816.00,0.0152
815.00,0.0162
814.00,0.0175
813.00,0.0192
812.00,0.0209
811.00,0.0225
810.00,0.0236
809.00,0.0240
808.00,0.0237
807.00,0.0226
806.00,0.0212
805.00,0.0197
804.00,0.0185
803.00,0.0174
802.00,0.0164
801.00,0.0157
800.00,0.0150
799.00,0.0145
798.00,0.0140
797.00,0.0136
796.00,0.0131
795.00,0.0127
794.00,0.0124
793.00,0.0122
792.00,0.0121
791.00,0.0120
790.00,0.0119
789.00,0.0119
788.00,0.0118
787.00,0.0117
786.00,0.0114
785.00,0.0111
784.00,0.0109
783.00,0.0107
782.00,0.0106
781.00,0.0105
780.00,0.0104
779.00,0.0104
778.00,0.0104
777.00,0.0105
776.00,0.0105
775.00,0.0105
774.00,0.0104
773.00,0.0105
772.00,0.0107
771.00,0.0111
770.00,0.0115
769.00,0.0120
768.00,0.0122
767.00,0.0123
766.00,0.0122
765.00,0.0120
764.00,0.0116
763.00,0.0111
762.00,0.0107
761.00,0.0103
760.00,0.0101
759.00,0.0101
758.00,0.0101
757.00,0.0101
756.00,0.0101
755.00,0.0100
754.00,0.0100
753.00,0.0101
752.00,0.0101
751.00,0.0102
750.00,0.0101
749.00,0.0101
748.00,0.0101
747.00,0.0101
746.00,0.0103
745.00,0.0106
744.00,0.0109
743.00,0.0112
742.00,0.0115
741.00,0.0118
740.00,0.0121
739.00,0.0124
738.00,0.0127
737.00,0.0130
736.00,0.0133
735.00,0.0137
734.00,0.0140
733.00,0.0143
732.00,0.0145
731.00,0.0147
730.00,0.0148
729.00,0.0148
728.00,0.0149
727.00,0.0149
726.00,0.0150
725.00,0.0149
724.00,0.0147
723.00,0.0146
722.00,0.0145
721.00,0.0143
720.00,0.0141
719.00,0.0137
718.00,0.0133
717.00,0.0128
716.00,0.0123
715.00,0.0122
714.00,0.0122
713.00,0.0124
712.00,0.0125
711.00,0.0126
710.00,0.0126
709.00,0.0127
708.00,0.0128
707.00,0.0130
706.00,0.0132
705.00,0.0134
704.00,0.0135
703.00,0.0135
702.00,0.0134
701.00,0.0130
700.00,0.0125
699.00,0.0120
698.00,0.0115
697.00,0.0111
696.00,0.0109
695.00,0.0107
694.00,0.0106
693.00,0.0105
692.00,0.0105
691.00,0.0106
690.00,0.0108
689.00,0.0108
688.00,0.0108
687.00,0.0107
686.00,0.0106
685.00,0.0107
684.00,0.0107
683.00,0.0107
682.00,0.0106
681.00,0.0105
680.00,0.0103
679.00,0.0102
678.00,0.0103
677.00,0.0105
676.00,0.0108
675.00,0.0111
674.00,0.0112
673.00,0.0111
672.00,0.0108
671.00,0.0106
670.00,0.0105
669.00,0.0103
668.00,0.0100
667.00,0.0099
666.00,0.0100
665.00,0.0101
664.00,0.0104
663.00,0.0107
662.00,0.0109
661.00,0.0109
660.00,0.0110
659.00,0.0110
658.00,0.0111
657.00,0.0111
656.00,0.0109
655.00,0.0107
654.00,0.0104
653.00,0.0102
652.00,0.0102
651.00,0.0103
650.00,0.0104
649.00,0.0105
648.00,0.0106
647.00,0.0107
646.00,0.0108
645.00,0.0109
644.00,0.0109
643.00,0.0110
642.00,0.0110
641.00,0.0109
640.00,0.0107
639.00,0.0106
638.00,0.0105
637.00,0.0105
636.00,0.0105
635.00,0.0105
634.00,0.0106
633.00,0.0107
632.00,0.0108
631.00,0.0110
630.00,0.0113
629.00,0.0115
628.00,0.0115
627.00,0.0114
626.00,0.0113
625.00,0.0113
624.00,0.0114
623.00,0.0116
622.00,0.0118
621.00,0.0118
620.00,0.0118
619.00,0.0117
618.00,0.0117
617.00,0.0115
616.00,0.0113
615.00,0.0111
614.00,0.0109
613.00,0.0110
612.00,0.0112
611.00,0.0114
610.00,0.0117
609.00,0.0120
608.00,0.0122
607.00,0.0124
606.00,0.0125
605.00,0.0126
604.00,0.0126
603.00,0.0124
602.00,0.0123
601.00,0.0121
600.00,0.0120
599.00,0.0118
598.00,0.0116
597.00,0.0113
596.00,0.0111
595.00,0.0109
594.00,0.0108
593.00,0.0108
592.00,0.0109
591.00,0.0111
590.00,0.0113
589.00,0.0117
588.00,0.0122
587.00,0.0128
586.00,0.0131
585.00,0.0132
584.00,0.0132
583.00,0.0133
582.00,0.0132
581.00,0.0130
580.00,0.0126
579.00,0.0123
578.00,0.0119
577.00,0.0116
576.00,0.0112
575.00,0.0109
574.00,0.0110
573.00,0.0113
572.00,0.0115
571.00,0.0116
570.00,0.0114
569.00,0.0113
568.00,0.0114
567.00,0.0116
566.00,0.0117
565.00,0.0117
564.00,0.0119
563.00,0.0122
562.00,0.0124
561.00,0.0122
560.00,0.0120
559.00,0.0118
558.00,0.0117
557.00,0.0117
556.00,0.0118
555.00,0.0118
554.00,0.0118
553.00,0.0117
552.00,0.0116
551.00,0.0116
550.00,0.0116
549.00,0.0117
548.00,0.0119
547.00,0.0123
546.00,0.0126
545.00,0.0130
544.00,0.0135
543.00,0.0141
542.00,0.0145
541.00,0.0145
540.00,0.0141
539.00,0.0136
538.00,0.0132
537.00,0.0129
536.00,0.0126
535.00,0.0125
534.00,0.0126
533.00,0.0129
532.00,0.0132
531.00,0.0136
530.00,0.0143
529.00,0.0150
528.00,0.0156
527.00,0.0157
526.00,0.0153
525.00,0.0148
524.00,0.0145
523.00,0.0144
522.00,0.0142
521.00,0.0137
520.00,0.0130
519.00,0.0125
518.00,0.0122
517.00,0.0119
516.00,0.0116
515.00,0.0113
514.00,0.0110
513.00,0.0109
512.00,0.0108
511.00,0.0105
510.00,0.0100
509.00,0.0094
508.00,0.0093
507.00,0.0097
506.00,0.0105
505.00,0.0111
504.00,0.0116
503.00,0.0123
502.00,0.0130
501.00,0.0133
500.00,0.0128
499.00,0.0117
498.00,0.0107
497.00,0.0102
496.00,0.0102
495.00,0.0102
494.00,0.0101
493.00,0.0099
492.00,0.0099
491.00,0.0105
490.00,0.0113
489.00,0.0118
488.00,0.0122
487.00,0.0124
486.00,0.0128
485.00,0.0132
484.00,0.0134
483.00,0.0129
482.00,0.0118
481.00,0.0107
480.00,0.0102
479.00,0.0106
478.00,0.0114
477.00,0.0122
476.00,0.0125
475.00,0.0126
474.00,0.0126
473.00,0.0126
472.00,0.0124
471.00,0.0120
470.00,0.0115
469.00,0.0113
468.00,0.0115
467.00,0.0122
466.00,0.0130
465.00,0.0138
464.00,0.0148
463.00,0.0158
462.00,0.0167
461.00,0.0172
460.00,0.0175
459.00,0.0179
458.00,0.0183
457.00,0.0184
456.00,0.0185
455.00,0.0189
454.00,0.0193
453.00,0.0195
452.00,0.0190
451.00,0.0176
450.00,0.0157
