Created as New Dataset,Sample 102 By Administrator Date Wednesday, September 10 2025
cm-1,A
4000.00,0.0009
3999.00,0.0009
3998.00,0.0009
3997.00,0.0009
3996.00,0.0009
3995.00,0.0009
3994.00,0.0009
3993.00,0.0009
3992.00,0.0010
3991.00,0.0010
3990.00,0.0010
3989.00,0.0010
3988.00,0.0010
3987.00,0.0009
3986.00,0.0009
3985.00,0.0009
3984.00,0.0009
3983.00,0.0009
3982.00,0.0009
3981.00,0.0009
3980.00,0.0009
3979.00,0.0009
3978.00,0.0008
3977.00,0.0008
3976.00,0.0008
3975.00,0.0008
3974.00,0.0008
3973.00,0.0008
3972.00,0.0008
3971.00,0.0008
3970.00,0.0008
3969.00,0.0008
3968.00,0.0008
3967.00,0.0008
3966.00,0.0008
3965.00,0.0007
3964.00,0.0007
3963.00,0.0007
3962.00,0.0007
3961.00,0.0007
3960.00,0.0007
3959.00,0.0007
3958.00,0.0007
3957.00,0.0007
3956.00,0.0007
3955.00,0.0007
3954.00,0.0007
3953.00,0.0007
3952.00,0.0007
3951.00,0.0007
3950.00,0.0007
3949.00,0.0007
3948.00,0.0007
3947.00,0.0007
3946.00,0.0007
3945.00,0.0007
3944.00,0.0007
3943.00,0.0007
3942.00,0.0007
3941.00,0.0006
3940.00,0.0006
3939.00,0.0006
3938.00,0.0007
3937.00,0.0007
3936.00,0.0007
3935.00,0.0007
3934.00,0.0008
3933.00,0.0008
3932.00,0.0008
3931.00,0.0008
3930.00,0.0008
3929.00,0.0008
3928.00,0.0008
3927.00,0.0008
3926.00,0.0008
3925.00,0.0008
3924.00,0.0008
3923.00,0.0008
3922.00,0.0008
3921.00,0.0008
3920.00,0.0009
3919.00,0.0009
3918.00,0.0009
3917.00,0.0008
3916.00,0.0008
3915.00,0.0007
3914.00,0.0007
3913.00,0.0007
3912.00,0.0007
3911.00,0.0007
3910.00,0.0007
3909.00,0.0006
3908.00,0.0006
3907.00,0.0006
3906.00,0.0006
3905.00,0.0007
3904.00,0.0007
3903.00,0.0008
3902.00,0.0008
3901.00,0.0008
3900.00,0.0008
3899.00,0.0008
3898.00,0.0008
3897.00,0.0007
3896.00,0.0007
3895.00,0.0007
3894.00,0.0007
3893.00,0.0007
3892.00,0.0007
3891.00,0.0007
3890.00,0.0007
3889.00,0.0007
3888.00,0.0007
3887.00,0.0007
3886.00,0.0006
3885.00,0.0006
3884.00,0.0006
3883.00,0.0007
3882.00,0.0007
3881.00,0.0007
3880.00,0.0007
3879.00,0.0007
3878.00,0.0007
3877.00,0.0006
3876.00,0.0006
3875.00,0.0006
3874.00,0.0006
3873.00,0.0005
3872.00,0.0005
3871.00,0.0005
3870.00,0.0005
3869.00,0.0005
3868.00,0.0005
3867.00,0.0006
3866.00,0.0006
3865.00,0.0006
3864.00,0.0006
3863.00,0.0006
3862.00,0.0006
3861.00,0.0005
3860.00,0.0005
3859.00,0.0005
3858.00,0.0005
3857.00,0.0004
3856.00,0.0004
3855.00,0.0004
3854.00,0.0004
3853.00,0.0004
3852.00,0.0004
3851.00,0.0004
3850.00,0.0004
3849.00,0.0005
3848.00,0.0005
3847.00,0.0005
3846.00,0.0005
3845.00,0.0005
3844.00,0.0005
3843.00,0.0005
3842.00,0.0005
3841.00,0.0004
3840.00,0.0003
3839.00,0.0003
3838.00,0.0003
3837.00,0.0003
3836.00,0.0004
3835.00,0.0004
3834.00,0.0005
3833.00,0.0006
3832.00,0.0006
3831.00,0.0006
3830.00,0.0006
3829.00,0.0006
3828.00,0.0006
3827.00,0.0006
3826.00,0.0005
3825.00,0.0005
3824.00,0.0005
3823.00,0.0005
3822.00,0.0005
3821.00,0.0005
3820.00,0.0005
3819.00,0.0004
3818.00,0.0005
3817.00,0.0005
3816.00,0.0006
3815.00,0.0006
3814.00,0.0007
3813.00,0.0007
3812.00,0.0007
3811.00,0.0007
3810.00,0.0006
3809.00,0.0006
3808.00,0.0006
3807.00,0.0006
3806.00,0.0005
3805.00,0.0005
3804.00,0.0005
3803.00,0.0005
3802.00,0.0005
3801.00,0.0005
3800.00,0.0005
3799.00,0.0006
3798.00,0.0006
3797.00,0.0006
3796.00,0.0006
3795.00,0.0006
3794.00,0.0006
3793.00,0.0006
3792.00,0.0006
3791.00,0.0006
3790.00,0.0006
3789.00,0.0006
3788.00,0.0006
3787.00,0.0007
3786.00,0.0007
3785.00,0.0007
3784.00,0.0007
3783.00,0.0006
3782.00,0.0006
3781.00,0.0007
3780.00,0.0007
3779.00,0.0007
3778.00,0.0008
3777.00,0.0008
3776.00,0.0007
3775.00,0.0007
3774.00,0.0007
3773.00,0.0007
3772.00,0.0007
3771.00,0.0007
3770.00,0.0007
3769.00,0.0007
3768.00,0.0007
3767.00,0.0008
3766.00,0.0008
3765.00,0.0008
3764.00,0.0008
3763.00,0.0008
3762.00,0.0008
3761.00,0.0008
3760.00,0.0008
3759.00,0.0008
3758.00,0.0008
3757.00,0.0007
3756.00,0.0007
3755.00,0.0007
3754.00,0.0006
3753.00,0.0006
3752.00,0.0005
3751.00,0.0005
3750.00,0.0005
3749.00,0.0004
3748.00,0.0004
3747.00,0.0004
3746.00,0.0004
3745.00,0.0005
3744.00,0.0005
3743.00,0.0005
3742.00,0.0005
3741.00,0.0006
3740.00,0.0006
3739.00,0.0006
3738.00,0.0005
3737.00,0.0005
3736.00,0.0005
3735.00,0.0005
3734.00,0.0004
3733.00,0.0004
3732.00,0.0004
3731.00,0.0004
3730.00,0.0004
3729.00,0.0005
3728.00,0.0005
3727.00,0.0006
3726.00,0.0006
3725.00,0.0006
3724.00,0.0006
3723.00,0.0005
3722.00,0.0005
3721.00,0.0005
3720.00,0.0006
3719.00,0.0006
3718.00,0.0006
3717.00,0.0006
3716.00,0.0006
3715.00,0.0005
3714.00,0.0005
3713.00,0.0004
3712.00,0.0004
3711.00,0.0003
3710.00,0.0003
3709.00,0.0004
3708.00,0.0004
3707.00,0.0004
3706.00,0.0004
3705.00,0.0004
3704.00,0.0004
3703.00,0.0004
3702.00,0.0005
3701.00,0.0005
3700.00,0.0006
3699.00,0.0006
3698.00,0.0005
3697.00,0.0005
3696.00,0.0005
3695.00,0.0005
3694.00,0.0005
3693.00,0.0005
3692.00,0.0004
3691.00,0.0004
3690.00,0.0004
3689.00,0.0004
3688.00,0.0004
3687.00,0.0004
3686.00,0.0003
3685.00,0.0003
3684.00,0.0004
3683.00,0.0004
3682.00,0.0004
3681.00,0.0004
3680.00,0.0004
3679.00,0.0005
3678.00,0.0005
3677.00,0.0005
3676.00,0.0005
3675.00,0.0004
3674.00,0.0003
3673.00,0.0003
3672.00,0.0003
3671.00,0.0004
3670.00,0.0004
3669.00,0.0005
3668.00,0.0005
3667.00,0.0005
3666.00,0.0005
3665.00,0.0005
3664.00,0.0006
3663.00,0.0006
3662.00,0.0006
3661.00,0.0006
3660.00,0.0006
3659.00,0.0005
3658.00,0.0005
3657.00,0.0005
3656.00,0.0004
3655.00,0.0004
3654.00,0.0004
3653.00,0.0004
3652.00,0.0004
3651.00,0.0004
3650.00,0.0004
3649.00,0.0004
3648.00,0.0005
3647.00,0.0005
3646.00,0.0005
3645.00,0.0006
3644.00,0.0006
3643.00,0.0007
3642.00,0.0007
3641.00,0.0006
3640.00,0.0006
3639.00,0.0005
3638.00,0.0005
3637.00,0.0005
3636.00,0.0006
3635.00,0.0006
3634.00,0.0006
3633.00,0.0006
3632.00,0.0006
3631.00,0.0006
3630.00,0.0006
3629.00,0.0006
3628.00,0.0005
3627.00,0.0005
3626.00,0.0005
3625.00,0.0005
3624.00,0.0004
3623.00,0.0004
3622.00,0.0004
3621.00,0.0005
3620.00,0.0005
3619.00,0.0005
3618.00,0.0005
3617.00,0.0005
3616.00,0.0005
3615.00,0.0005
3614.00,0.0006
3613.00,0.0006
3612.00,0.0007
3611.00,0.0007
3610.00,0.0008
3609.00,0.0008
3608.00,0.0008
3607.00,0.0008
3606.00,0.0008
3605.00,0.0007
3604.00,0.0007
3603.00,0.0007
3602.00,0.0007
3601.00,0.0007
3600.00,0.0007
3599.00,0.0007
3598.00,0.0007
3597.00,0.0008
3596.00,0.0008
3595.00,0.0009
3594.00,0.0009
3593.00,0.0008
3592.00,0.0008
3591.00,0.0009
3590.00,0.0009
3589.00,0.0009
3588.00,0.0010
3587.00,0.0010
3586.00,0.0011
3585.00,0.0011
3584.00,0.0010
3583.00,0.0010
3582.00,0.0010
3581.00,0.0010
3580.00,0.0010
3579.00,0.0010
3578.00,0.0010
3577.00,0.0010
3576.00,0.0011
3575.00,0.0011
3574.00,0.0011
3573.00,0.0011
3572.00,0.0011
3571.00,0.0011
3570.00,0.0010
3569.00,0.0010
3568.00,0.0010
3567.00,0.0011
3566.00,0.0011
3565.00,0.0011
3564.00,0.0012
3563.00,0.0012
3562.00,0.0013
3561.00,0.0013
3560.00,0.0014
3559.00,0.0014
3558.00,0.0014
3557.00,0.0014
3556.00,0.0014
3555.00,0.0014
3554.00,0.0014
3553.00,0.0014
3552.00,0.0014
3551.00,0.0014
3550.00,0.0015
3549.00,0.0015
3548.00,0.0015
3547.00,0.0016
3546.00,0.0016
3545.00,0.0016
3544.00,0.0016
3543.00,0.0016
3542.00,0.0016
3541.00,0.0017
3540.00,0.0017
3539.00,0.0017
3538.00,0.0017
3537.00,0.0017
3536.00,0.0018
3535.00,0.0018
3534.00,0.0018
3533.00,0.0019
3532.00,0.0018
3531.00,0.0018
3530.00,0.0018
3529.00,0.0018
3528.00,0.0018
3527.00,0.0019
3526.00,0.0020
3525.00,0.0020
3524.00,0.0020
3523.00,0.0020
3522.00,0.0020
3521.00,0.0020
3520.00,0.0020
3519.00,0.0020
3518.00,0.0020
3517.00,0.0020
3516.00,0.0021
3515.00,0.0021
3514.00,0.0021
3513.00,0.0021
3512.00,0.0022
3511.00,0.0023
3510.00,0.0023
3509.00,0.0023
3508.00,0.0023
3507.00,0.0023
3506.00,0.0023
3505.00,0.0023
3504.00,0.0023
3503.00,0.0024
3502.00,0.0024
3501.00,0.0024
3500.00,0.0024
3499.00,0.0024
3498.00,0.0024
3497.00,0.0024
3496.00,0.0024
3495.00,0.0024
3494.00,0.0024
3493.00,0.0024
3492.00,0.0025
3491.00,0.0025
3490.00,0.0026
3489.00,0.0026
3488.00,0.0026
3487.00,0.0027
3486.00,0.0027
3485.00,0.0027
3484.00,0.0027
3483.00,0.0027
3482.00,0.0027
3481.00,0.0027
3480.00,0.0027
3479.00,0.0027
3478.00,0.0028
3477.00,0.0028
3476.00,0.0028
3475.00,0.0029
3474.00,0.0029
3473.00,0.0029
3472.00,0.0028
3471.00,0.0028
3470.00,0.0028
3469.00,0.0029
3468.00,0.0029
3467.00,0.0029
3466.00,0.0030
3465.00,0.0029
3464.00,0.0029
3463.00,0.0030
3462.00,0.0030
3461.00,0.0030
3460.00,0.0031
3459.00,0.0031
3458.00,0.0031
3457.00,0.0031
3456.00,0.0031
3455.00,0.0031
3454.00,0.0032
3453.00,0.0032
3452.00,0.0033
3451.00,0.0033
3450.00,0.0033
3449.00,0.0033
3448.00,0.0033
3447.00,0.0033
3446.00,0.0033
3445.00,0.0034
3444.00,0.0034
3443.00,0.0035
3442.00,0.0035
3441.00,0.0035
3440.00,0.0034
3439.00,0.0034
3438.00,0.0034
3437.00,0.0034
3436.00,0.0034
3435.00,0.0034
3434.00,0.0035
3433.00,0.0035
3432.00,0.0035
3431.00,0.0036
3430.00,0.0036
3429.00,0.0036
3428.00,0.0036
3427.00,0.0037
3426.00,0.0037
3425.00,0.0037
3424.00,0.0038
3423.00,0.0038
3422.00,0.0038
3421.00,0.0037
3420.00,0.0037
3419.00,0.0037
3418.00,0.0037
3417.00,0.0038
3416.00,0.0038
3415.00,0.0038
3414.00,0.0038
3413.00,0.0038
3412.00,0.0039
3411.00,0.0039
3410.00,0.0039
3409.00,0.0039
3408.00,0.0039
3407.00,0.0039
3406.00,0.0039
3405.00,0.0039
3404.00,0.0040
3403.00,0.0040
3402.00,0.0040
3401.00,0.0041
3400.00,0.0041
3399.00,0.0041
3398.00,0.0041
3397.00,0.0042
3396.00,0.0042
3395.00,0.0042
3394.00,0.0042
3393.00,0.0041
3392.00,0.0041
3391.00,0.0040
3390.00,0.0040
3389.00,0.0041
3388.00,0.0041
3387.00,0.0041
3386.00,0.0041
3385.00,0.0041
3384.00,0.0041
3383.00,0.0041
3382.00,0.0041
3381.00,0.0041
3380.00,0.0041
3379.00,0.0041
3378.00,0.0041
3377.00,0.0040
3376.00,0.0040
3375.00,0.0041
3374.00,0.0041
3373.00,0.0041
3372.00,0.0042
3371.00,0.0042
3370.00,0.0042
3369.00,0.0042
3368.00,0.0042
3367.00,0.0042
3366.00,0.0043
3365.00,0.0043
3364.00,0.0043
3363.00,0.0043
3362.00,0.0043
3361.00,0.0043
3360.00,0.0043
3359.00,0.0043
3358.00,0.0043
3357.00,0.0042
3356.00,0.0042
3355.00,0.0042
3354.00,0.0042
3353.00,0.0042
3352.00,0.0042
3351.00,0.0042
3350.00,0.0043
3349.00,0.0043
3348.00,0.0043
3347.00,0.0043
3346.00,0.0043
3345.00,0.0043
3344.00,0.0042
3343.00,0.0042
3342.00,0.0042
3341.00,0.0042
3340.00,0.0042
3339.00,0.0042
3338.00,0.0042
3337.00,0.0042
3336.00,0.0042
3335.00,0.0042
3334.00,0.0042
3333.00,0.0042
3332.00,0.0042
3331.00,0.0041
3330.00,0.0041
3329.00,0.0041
3328.00,0.0040
3327.00,0.0040
3326.00,0.0040
3325.00,0.0040
3324.00,0.0040
3323.00,0.0040
3322.00,0.0040
3321.00,0.0040
3320.00,0.0041
3319.00,0.0041
3318.00,0.0041
3317.00,0.0041
3316.00,0.0041
3315.00,0.0040
3314.00,0.0040
3313.00,0.0040
3312.00,0.0040
3311.00,0.0040
3310.00,0.0040
3309.00,0.0040
3308.00,0.0040
3307.00,0.0040
3306.00,0.0040
3305.00,0.0040
3304.00,0.0040
3303.00,0.0041
3302.00,0.0041
3301.00,0.0041
3300.00,0.0040
3299.00,0.0040
3298.00,0.0040
3297.00,0.0039
3296.00,0.0039
3295.00,0.0039
3294.00,0.0040
3293.00,0.0039
3292.00,0.0039
3291.00,0.0039
3290.00,0.0039
3289.00,0.0039
3288.00,0.0039
3287.00,0.0039
3286.00,0.0038
3285.00,0.0038
3284.00,0.0038
3283.00,0.0038
3282.00,0.0038
3281.00,0.0038
3280.00,0.0039
3279.00,0.0039
3278.00,0.0039
3277.00,0.0039
3276.00,0.0038
3275.00,0.0037
3274.00,0.0037
3273.00,0.0036
3272.00,0.0036
3271.00,0.0037
3270.00,0.0037
3269.00,0.0037
3268.00,0.0037
3267.00,0.0037
3266.00,0.0037
3265.00,0.0037
3264.00,0.0037
3263.00,0.0037
3262.00,0.0037
3261.00,0.0037
3260.00,0.0037
3259.00,0.0037
3258.00,0.0037
3257.00,0.0036
3256.00,0.0036
3255.00,0.0036
3254.00,0.0036
3253.00,0.0036
3252.00,0.0036
3251.00,0.0036
3250.00,0.0036
3249.00,0.0035
3248.00,0.0035
3247.00,0.0035
3246.00,0.0034
3245.00,0.0034
3244.00,0.0034
3243.00,0.0034
3242.00,0.0034
3241.00,0.0035
3240.00,0.0035
3239.00,0.0035
3238.00,0.0035
3237.00,0.0035
3236.00,0.0035
3235.00,0.0036
3234.00,0.0036
3233.00,0.0036
3232.00,0.0036
3231.00,0.0036
3230.00,0.0036
3229.00,0.0036
3228.00,0.0036
3227.00,0.0036
3226.00,0.0037
3225.00,0.0037
3224.00,0.0037
3223.00,0.0037
3222.00,0.0037
3221.00,0.0037
3220.00,0.0037
3219.00,0.0037
3218.00,0.0038
3217.00,0.0038
3216.00,0.0038
3215.00,0.0039
3214.00,0.0039
3213.00,0.0039
3212.00,0.0040
3211.00,0.0040
3210.00,0.0040
3209.00,0.0040
3208.00,0.0040
3207.00,0.0040
3206.00,0.0040
3205.00,0.0040
3204.00,0.0040
3203.00,0.0040
3202.00,0.0040
3201.00,0.0040
3200.00,0.0041
3199.00,0.0041
3198.00,0.0041
3197.00,0.0041
3196.00,0.0041
3195.00,0.0041
3194.00,0.0041
3193.00,0.0041
3192.00,0.0041
3191.00,0.0041
3190.00,0.0041
3189.00,0.0041
3188.00,0.0041
3187.00,0.0041
3186.00,0.0040
3185.00,0.0040
3184.00,0.0040
3183.00,0.0039
3182.00,0.0039
3181.00,0.0039
3180.00,0.0039
3179.00,0.0039
3178.00,0.0039
3177.00,0.0038
3176.00,0.0038
3175.00,0.0037
3174.00,0.0037
3173.00,0.0037
3172.00,0.0036
3171.00,0.0036
3170.00,0.0036
3169.00,0.0036
3168.00,0.0036
3167.00,0.0036
3166.00,0.0036
3165.00,0.0035
3164.00,0.0035
3163.00,0.0035
3162.00,0.0035
3161.00,0.0035
3160.00,0.0036
3159.00,0.0035
3158.00,0.0035
3157.00,0.0035
3156.00,0.0035
3155.00,0.0035
3154.00,0.0036
3153.00,0.0036
3152.00,0.0036
3151.00,0.0036
3150.00,0.0036
3149.00,0.0036
3148.00,0.0036
3147.00,0.0036
3146.00,0.0036
3145.00,0.0036
3144.00,0.0035
3143.00,0.0035
3142.00,0.0035
3141.00,0.0035
3140.00,0.0035
3139.00,0.0035
3138.00,0.0034
3137.00,0.0034
3136.00,0.0034
3135.00,0.0034
3134.00,0.0034
3133.00,0.0034
3132.00,0.0034
3131.00,0.0033
3130.00,0.0033
3129.00,0.0033
3128.00,0.0032
3127.00,0.0032
3126.00,0.0032
3125.00,0.0031
3124.00,0.0031
3123.00,0.0031
3122.00,0.0030
3121.00,0.0030
3120.00,0.0030
3119.00,0.0030
3118.00,0.0030
3117.00,0.0029
3116.00,0.0029
3115.00,0.0029
3114.00,0.0029
3113.00,0.0029
3112.00,0.0029
3111.00,0.0030
3110.00,0.0029
3109.00,0.0029
3108.00,0.0029
3107.00,0.0029
3106.00,0.0029
3105.00,0.0029
3104.00,0.0028
3103.00,0.0028
3102.00,0.0028
3101.00,0.0028
3100.00,0.0028
3099.00,0.0028
3098.00,0.0028
3097.00,0.0028
3096.00,0.0028
3095.00,0.0028
3094.00,0.0028
3093.00,0.0027
3092.00,0.0027
3091.00,0.0027
3090.00,0.0027
3089.00,0.0027
3088.00,0.0027
3087.00,0.0027
3086.00,0.0027
3085.00,0.0027
3084.00,0.0026
3083.00,0.0026
3082.00,0.0026
3081.00,0.0027
3080.00,0.0027
3079.00,0.0027
3078.00,0.0027
3077.00,0.0027
3076.00,0.0027
3075.00,0.0027
3074.00,0.0027
3073.00,0.0028
3072.00,0.0028
3071.00,0.0028
3070.00,0.0028
3069.00,0.0028
3068.00,0.0028
3067.00,0.0028
3066.00,0.0028
3065.00,0.0028
3064.00,0.0028
3063.00,0.0029
3062.00,0.0029
3061.00,0.0029
3060.00,0.0029
3059.00,0.0029
3058.00,0.0029
3057.00,0.0029
3056.00,0.0029
3055.00,0.0030
3054.00,0.0030
3053.00,0.0030
3052.00,0.0031
3051.00,0.0031
3050.00,0.0031
3049.00,0.0031
3048.00,0.0031
3047.00,0.0031
3046.00,0.0031
3045.00,0.0031
3044.00,0.0031
3043.00,0.0032
3042.00,0.0032
3041.00,0.0032
3040.00,0.0033
3039.00,0.0033
3038.00,0.0033
3037.00,0.0034
3036.00,0.0034
3035.00,0.0034
3034.00,0.0035
3033.00,0.0036
3032.00,0.0036
3031.00,0.0037
3030.00,0.0037
3029.00,0.0038
3028.00,0.0038
3027.00,0.0038
3026.00,0.0038
3025.00,0.0038
3024.00,0.0039
3023.00,0.0040
3022.00,0.0041
3021.00,0.0042
3020.00,0.0043
3019.00,0.0044
3018.00,0.0045
3017.00,0.0046
3016.00,0.0047
3015.00,0.0048
3014.00,0.0049
3013.00,0.0050
3012.00,0.0052
3011.00,0.0053
3010.00,0.0054
3009.00,0.0056
3008.00,0.0057
3007.00,0.0059
3006.00,0.0062
3005.00,0.0064
3004.00,0.0066
3003.00,0.0068
3002.00,0.0071
3001.00,0.0073
3000.00,0.0076
2999.00,0.0079
2998.00,0.0082
2997.00,0.0086
2996.00,0.0090
2995.00,0.0094
2994.00,0.0099
2993.00,0.0104
2992.00,0.0110
2991.00,0.0116
2990.00,0.0123
2989.00,0.0130
2988.00,0.0139
2987.00,0.0148
2986.00,0.0159
2985.00,0.0171
2984.00,0.0184
2983.00,0.0199
2982.00,0.0215
2981.00,0.0233
2980.00,0.0254
2979.00,0.0277
2978.00,0.0304
2977.00,0.0334
2976.00,0.0369
2975.00,0.0409
2974.00,0.0455
2973.00,0.0506
2972.00,0.0564
2971.00,0.0630
2970.00,0.0702
2969.00,0.0782
2968.00,0.0868
2967.00,0.0962
2966.00,0.1060
2965.00,0.1161
2964.00,0.1261
2963.00,0.1355
2962.00,0.1438
2961.00,0.1507
2960.00,0.1561
2959.00,0.1605
2958.00,0.1641
2957.00,0.1679
2956.00,0.1722
2955.00,0.1776
2954.00,0.1839
2953.00,0.1907
2952.00,0.1972
2951.00,0.2021
2950.00,0.2042
2949.00,0.2027
2948.00,0.1970
2947.00,0.1873
2946.00,0.1746
2945.00,0.1604
2944.00,0.1463
2943.00,0.1337
2942.00,0.1234
2941.00,0.1158
2940.00,0.1109
2939.00,0.1086
2938.00,0.1085
2937.00,0.1104
2936.00,0.1141
2935.00,0.1195
2934.00,0.1264
2933.00,0.1346
2932.00,0.1439
2931.00,0.1542
2930.00,0.1652
2929.00,0.1765
2928.00,0.1877
2927.00,0.1986
2926.00,0.2090
2925.00,0.2189
2924.00,0.2284
2923.00,0.2377
2922.00,0.2468
2921.00,0.2556
2920.00,0.2634
2919.00,0.2695
2918.00,0.2728
2917.00,0.2727
2916.00,0.2691
2915.00,0.2624
2914.00,0.2534
2913.00,0.2433
2912.00,0.2332
2911.00,0.2235
2910.00,0.2147
2909.00,0.2067
2908.00,0.1993
2907.00,0.1921
2906.00,0.1850
2905.00,0.1778
2904.00,0.1705
2903.00,0.1631
2902.00,0.1557
2901.00,0.1484
2900.00,0.1414
2899.00,0.1348
2898.00,0.1287
2897.00,0.1232
2896.00,0.1184
2895.00,0.1143
2894.00,0.1110
2893.00,0.1085
2892.00,0.1066
2891.00,0.1054
2890.00,0.1049
2889.00,0.1048
2888.00,0.1051
2887.00,0.1058
2886.00,0.1069
2885.00,0.1083
2884.00,0.1102
2883.00,0.1126
2882.00,0.1154
2881.00,0.1185
2880.00,0.1215
2879.00,0.1241
2878.00,0.1258
2877.00,0.1264
2876.00,0.1260
2875.00,0.1251
2874.00,0.1243
2873.00,0.1239
2872.00,0.1244
2871.00,0.1257
2870.00,0.1277
2869.00,0.1297
2868.00,0.1311
2867.00,0.1308
2866.00,0.1282
2865.00,0.1227
2864.00,0.1148
2863.00,0.1054
2862.00,0.0954
2861.00,0.0860
2860.00,0.0778
2859.00,0.0712
2858.00,0.0662
2857.00,0.0626
2856.00,0.0602
2855.00,0.0588
2854.00,0.0582
2853.00,0.0585
2852.00,0.0594
2851.00,0.0610
2850.00,0.0632
2849.00,0.0661
2848.00,0.0697
2847.00,0.0741
2846.00,0.0794
2845.00,0.0857
2844.00,0.0927
2843.00,0.1004
2842.00,0.1084
2841.00,0.1159
2840.00,0.1221
2839.00,0.1262
2838.00,0.1272
2837.00,0.1246
2836.00,0.1184
2835.00,0.1093
2834.00,0.0983
2833.00,0.0867
2832.00,0.0757
2831.00,0.0659
2830.00,0.0576
2829.00,0.0507
2828.00,0.0452
2827.00,0.0408
2826.00,0.0371
2825.00,0.0342
2824.00,0.0317
2823.00,0.0297
2822.00,0.0279
2821.00,0.0264
2820.00,0.0250
2819.00,0.0239
2818.00,0.0229
2817.00,0.0220
2816.00,0.0212
2815.00,0.0205
2814.00,0.0199
2813.00,0.0193
2812.00,0.0187
2811.00,0.0182
2810.00,0.0177
2809.00,0.0171
2808.00,0.0165
2807.00,0.0159
2806.00,0.0152
2805.00,0.0145
2804.00,0.0139
2803.00,0.0133
2802.00,0.0127
2801.00,0.0123
2800.00,0.0119
2799.00,0.0115
2798.00,0.0112
2797.00,0.0110
2796.00,0.0107
2795.00,0.0105
2794.00,0.0102
2793.00,0.0100
2792.00,0.0097
2791.00,0.0093
2790.00,0.0090
2789.00,0.0087
2788.00,0.0083
2787.00,0.0081
2786.00,0.0078
2785.00,0.0075
2784.00,0.0073
2783.00,0.0071
2782.00,0.0069
2781.00,0.0067
2780.00,0.0065
2779.00,0.0064
2778.00,0.0062
2777.00,0.0061
2776.00,0.0059
2775.00,0.0058
2774.00,0.0057
2773.00,0.0056
2772.00,0.0056
2771.00,0.0056
2770.00,0.0056
2769.00,0.0056
2768.00,0.0055
2767.00,0.0055
2766.00,0.0055
2765.00,0.0054
2764.00,0.0054
2763.00,0.0053
2762.00,0.0053
2761.00,0.0053
2760.00,0.0052
2759.00,0.0052
2758.00,0.0052
2757.00,0.0051
2756.00,0.0051
2755.00,0.0051
2754.00,0.0051
2753.00,0.0051
2752.00,0.0050
2751.00,0.0050
2750.00,0.0050
2749.00,0.0050
2748.00,0.0050
2747.00,0.0051
2746.00,0.0051
2745.00,0.0052
2744.00,0.0053
2743.00,0.0054
2742.00,0.0055
2741.00,0.0056
2740.00,0.0058
2739.00,0.0060
2738.00,0.0061
2737.00,0.0063
2736.00,0.0064
2735.00,0.0065
2734.00,0.0066
2733.00,0.0068
2732.00,0.0070
2731.00,0.0072
2730.00,0.0075
2729.00,0.0077
2728.00,0.0080
2727.00,0.0083
2726.00,0.0086
2725.00,0.0089
2724.00,0.0090
2723.00,0.0091
2722.00,0.0090
2721.00,0.0088
2720.00,0.0085
2719.00,0.0082
2718.00,0.0078
2717.00,0.0075
2716.00,0.0071
2715.00,0.0068
2714.00,0.0066
2713.00,0.0063
2712.00,0.0061
2711.00,0.0059
2710.00,0.0057
2709.00,0.0056
2708.00,0.0054
2707.00,0.0053
2706.00,0.0052
2705.00,0.0051
2704.00,0.0050
2703.00,0.0048
2702.00,0.0047
2701.00,0.0047
2700.00,0.0046
2699.00,0.0045
2698.00,0.0045
2697.00,0.0044
2696.00,0.0044
2695.00,0.0044
2694.00,0.0044
2693.00,0.0044
2692.00,0.0044
2691.00,0.0044
2690.00,0.0044
2689.00,0.0044
2688.00,0.0044
2687.00,0.0044
2686.00,0.0045
2685.00,0.0045
2684.00,0.0045
2683.00,0.0045
2682.00,0.0045
2681.00,0.0045
2680.00,0.0045
2679.00,0.0045
2678.00,0.0045
2677.00,0.0045
2676.00,0.0044
2675.00,0.0044
2674.00,0.0044
2673.00,0.0044
2672.00,0.0044
2671.00,0.0044
2670.00,0.0044
2669.00,0.0044
2668.00,0.0044
2667.00,0.0044
2666.00,0.0044
2665.00,0.0044
2664.00,0.0045
2663.00,0.0046
2662.00,0.0047
2661.00,0.0047
2660.00,0.0047
2659.00,0.0047
2658.00,0.0047
2657.00,0.0047
2656.00,0.0047
2655.00,0.0046
2654.00,0.0046
2653.00,0.0045
2652.00,0.0044
2651.00,0.0043
2650.00,0.0043
2649.00,0.0042
2648.00,0.0042
2647.00,0.0042
2646.00,0.0042
2645.00,0.0042
2644.00,0.0041
2643.00,0.0040
2642.00,0.0040
2641.00,0.0039
2640.00,0.0038
2639.00,0.0038
2638.00,0.0038
2637.00,0.0037
2636.00,0.0037
2635.00,0.0037
2634.00,0.0037
2633.00,0.0037
2632.00,0.0037
2631.00,0.0038
2630.00,0.0038
2629.00,0.0038
2628.00,0.0039
2627.00,0.0039
2626.00,0.0039
2625.00,0.0039
2624.00,0.0039
2623.00,0.0039
2622.00,0.0040
2621.00,0.0040
2620.00,0.0041
2619.00,0.0041
2618.00,0.0041
2617.00,0.0041
2616.00,0.0041
2615.00,0.0041
2614.00,0.0040
2613.00,0.0039
2612.00,0.0038
2611.00,0.0037
2610.00,0.0037
2609.00,0.0037
2608.00,0.0036
2607.00,0.0035
2606.00,0.0034
2605.00,0.0033
2604.00,0.0033
2603.00,0.0033
2602.00,0.0033
2601.00,0.0032
2600.00,0.0032
2599.00,0.0032
2598.00,0.0032
2597.00,0.0032
2596.00,0.0032
2595.00,0.0032
2594.00,0.0032
2593.00,0.0032
2592.00,0.0033
2591.00,0.0034
2590.00,0.0035
2589.00,0.0036
2588.00,0.0037
2587.00,0.0038
2586.00,0.0038
2585.00,0.0039
2584.00,0.0039
2583.00,0.0040
2582.00,0.0040
2581.00,0.0040
2580.00,0.0040
2579.00,0.0039
2578.00,0.0038
2577.00,0.0037
2576.00,0.0035
2575.00,0.0034
2574.00,0.0032
2573.00,0.0030
2572.00,0.0029
2571.00,0.0028
2570.00,0.0027
2569.00,0.0027
2568.00,0.0027
2567.00,0.0027
2566.00,0.0026
2565.00,0.0025
2564.00,0.0024
2563.00,0.0024
2562.00,0.0024
2561.00,0.0024
2560.00,0.0024
2559.00,0.0024
2558.00,0.0025
2557.00,0.0025
2556.00,0.0025
2555.00,0.0024
2554.00,0.0023
2553.00,0.0022
2552.00,0.0022
2551.00,0.0021
2550.00,0.0021
2549.00,0.0020
2548.00,0.0019
2547.00,0.0019
2546.00,0.0018
2545.00,0.0018
2544.00,0.0017
2543.00,0.0016
2542.00,0.0016
2541.00,0.0017
2540.00,0.0017
2539.00,0.0017
2538.00,0.0017
2537.00,0.0017
2536.00,0.0017
2535.00,0.0016
2534.00,0.0016
2533.00,0.0015
2532.00,0.0015
2531.00,0.0014
2530.00,0.0014
2529.00,0.0013
2528.00,0.0013
2527.00,0.0013
2526.00,0.0013
2525.00,0.0014
2524.00,0.0014
2523.00,0.0015
2522.00,0.0015
2521.00,0.0014
2520.00,0.0014
2519.00,0.0013
2518.00,0.0013
2517.00,0.0012
2516.00,0.0012
2515.00,0.0011
2514.00,0.0011
2513.00,0.0011
2512.00,0.0011
2511.00,0.0010
2510.00,0.0010
2509.00,0.0010
2508.00,0.0010
2507.00,0.0010
2506.00,0.0010
2505.00,0.0010
2504.00,0.0010
2503.00,0.0011
2502.00,0.0012
2501.00,0.0012
2500.00,0.0011
2499.00,0.0011
2498.00,0.0010
2497.00,0.0010
2496.00,0.0010
2495.00,0.0010
2494.00,0.0010
2493.00,0.0010
2492.00,0.0010
2491.00,0.0010
2490.00,0.0010
2489.00,0.0010
2488.00,0.0010
2487.00,0.0010
2486.00,0.0010
2485.00,0.0010
2484.00,0.0010
2483.00,0.0010
2482.00,0.0011
2481.00,0.0011
2480.00,0.0011
2479.00,0.0011
2478.00,0.0011
2477.00,0.0010
2476.00,0.0010
2475.00,0.0009
2474.00,0.0009
2473.00,0.0009
2472.00,0.0009
2471.00,0.0008
2470.00,0.0008
2469.00,0.0008
2468.00,0.0008
2467.00,0.0009
2466.00,0.0009
2465.00,0.0009
2464.00,0.0010
2463.00,0.0010
2462.00,0.0010
2461.00,0.0010
2460.00,0.0010
2459.00,0.0011
2458.00,0.0011
2457.00,0.0012
2456.00,0.0012
2455.00,0.0011
2454.00,0.0011
2453.00,0.0011
2452.00,0.0011
2451.00,0.0011
2450.00,0.0011
2449.00,0.0011
2448.00,0.0011
2447.00,0.0011
2446.00,0.0011
2445.00,0.0011
2444.00,0.0010
2443.00,0.0010
2442.00,0.0010
2441.00,0.0010
2440.00,0.0010
2439.00,0.0009
2438.00,0.0009
2437.00,0.0010
2436.00,0.0010
2435.00,0.0011
2434.00,0.0012
2433.00,0.0013
2432.00,0.0013
2431.00,0.0012
2430.00,0.0012
2429.00,0.0012
2428.00,0.0012
2427.00,0.0012
2426.00,0.0012
2425.00,0.0012
2424.00,0.0011
2423.00,0.0011
2422.00,0.0010
2421.00,0.0010
2420.00,0.0010
2419.00,0.0010
2418.00,0.0010
2417.00,0.0010
2416.00,0.0010
2415.00,0.0009
2414.00,0.0009
2413.00,0.0009
2412.00,0.0009
2411.00,0.0010
2410.00,0.0010
2409.00,0.0009
2408.00,0.0009
2407.00,0.0008
2406.00,0.0008
2405.00,0.0008
2404.00,0.0008
2403.00,0.0008
2402.00,0.0008
2401.00,0.0008
2400.00,0.0008
2399.00,0.0008
2398.00,0.0008
2397.00,0.0008
2396.00,0.0007
2395.00,0.0007
2394.00,0.0007
2393.00,0.0007
2392.00,0.0007
2391.00,0.0007
2390.00,0.0007
2389.00,0.0008
2388.00,0.0008
2387.00,0.0008
2386.00,0.0007
2385.00,0.0006
2384.00,0.0005
2383.00,0.0005
2382.00,0.0005
2381.00,0.0005
2380.00,0.0004
2379.00,0.0004
2378.00,0.0004
2377.00,0.0004
2376.00,0.0004
2375.00,0.0004
2374.00,0.0004
2373.00,0.0004
2372.00,0.0004
2371.00,0.0003
2370.00,0.0003
2369.00,0.0003
2368.00,0.0003
2367.00,0.0003
2366.00,0.0003
2365.00,0.0003
2364.00,0.0003
2363.00,0.0003
2362.00,0.0003
2361.00,0.0004
2360.00,0.0004
2359.00,0.0003
2358.00,0.0003
2357.00,0.0002
2356.00,0.0002
2355.00,0.0003
2354.00,0.0002
2353.00,0.0002
2352.00,0.0001
2351.00,0.0000
2350.00,0.0001
2349.00,0.0003
2348.00,0.0005
2347.00,0.0006
2346.00,0.0006
2345.00,0.0004
2344.00,0.0004
2343.00,0.0004
2342.00,0.0005
2341.00,0.0006
2340.00,0.0006
2339.00,0.0005
2338.00,0.0005
2337.00,0.0005
2336.00,0.0005
2335.00,0.0005
2334.00,0.0006
2333.00,0.0006
2332.00,0.0006
2331.00,0.0005
2330.00,0.0004
2329.00,0.0004
2328.00,0.0005
2327.00,0.0009
2326.00,0.0013
2325.00,0.0017
2324.00,0.0018
2323.00,0.0017
2322.00,0.0015
2321.00,0.0012
2320.00,0.0011
2319.00,0.0009
2318.00,0.0009
2317.00,0.0008
2316.00,0.0008
2315.00,0.0009
2314.00,0.0009
2313.00,0.0008
2312.00,0.0008
2311.00,0.0007
2310.00,0.0007
2309.00,0.0007
2308.00,0.0007
2307.00,0.0007
2306.00,0.0008
2305.00,0.0008
2304.00,0.0008
2303.00,0.0008
2302.00,0.0008
2301.00,0.0009
2300.00,0.0010
2299.00,0.0010
2298.00,0.0011
2297.00,0.0011
2296.00,0.0011
2295.00,0.0012
2294.00,0.0012
2293.00,0.0013
2292.00,0.0014
2291.00,0.0015
2290.00,0.0016
2289.00,0.0017
2288.00,0.0018
2287.00,0.0018
2286.00,0.0018
2285.00,0.0018
2284.00,0.0018
2283.00,0.0017
2282.00,0.0017
2281.00,0.0017
2280.00,0.0017
2279.00,0.0016
2278.00,0.0016
2277.00,0.0015
2276.00,0.0014
2275.00,0.0013
2274.00,0.0013
2273.00,0.0013
2272.00,0.0014
2271.00,0.0014
2270.00,0.0014
2269.00,0.0014
2268.00,0.0014
2267.00,0.0013
2266.00,0.0012
2265.00,0.0011
2264.00,0.0009
2263.00,0.0009
2262.00,0.0009
2261.00,0.0011
2260.00,0.0012
2259.00,0.0014
2258.00,0.0014
2257.00,0.0013
2256.00,0.0011
2255.00,0.0010
2254.00,0.0008
2253.00,0.0008
2252.00,0.0009
2251.00,0.0011
2250.00,0.0011
2249.00,0.0011
2248.00,0.0009
2247.00,0.0007
2246.00,0.0006
2245.00,0.0007
2244.00,0.0008
2243.00,0.0009
2242.00,0.0010
2241.00,0.0009
2240.00,0.0009
2239.00,0.0008
2238.00,0.0007
2237.00,0.0007
2236.00,0.0008
2235.00,0.0009
2234.00,0.0009
2233.00,0.0009
2232.00,0.0009
2231.00,0.0008
2230.00,0.0008
2229.00,0.0007
2228.00,0.0007
2227.00,0.0006
2226.00,0.0005
2225.00,0.0007
2224.00,0.0009
2223.00,0.0009
2222.00,0.0009
2221.00,0.0007
2220.00,0.0007
2219.00,0.0006
2218.00,0.0006
2217.00,0.0005
2216.00,0.0004
2215.00,0.0003
2214.00,0.0003
2213.00,0.0004
2212.00,0.0005
2211.00,0.0006
2210.00,0.0006
2209.00,0.0007
2208.00,0.0008
2207.00,0.0009
2206.00,0.0008
2205.00,0.0007
2204.00,0.0006
2203.00,0.0005
2202.00,0.0004
2201.00,0.0004
2200.00,0.0004
2199.00,0.0004
2198.00,0.0005
2197.00,0.0005
2196.00,0.0006
2195.00,0.0006
2194.00,0.0006
2193.00,0.0007
2192.00,0.0008
2191.00,0.0009
2190.00,0.0011
2189.00,0.0011
2188.00,0.0012
2187.00,0.0010
2186.00,0.0009
2185.00,0.0006
2184.00,0.0004
2183.00,0.0002
2182.00,0.0001
2181.00,0.0002
2180.00,0.0005
2179.00,0.0006
2178.00,0.0005
2177.00,0.0003
2176.00,0.0002
2175.00,0.0003
2174.00,0.0006
2173.00,0.0008
2172.00,0.0010
2171.00,0.0011
2170.00,0.0011
2169.00,0.0013
2168.00,0.0016
2167.00,0.0019
2166.00,0.0021
2165.00,0.0020
2164.00,0.0020
2163.00,0.0021
2162.00,0.0021
2161.00,0.0016
2160.00,0.0004
2159.00,-0.0012
2158.00,-0.0024
2157.00,-0.0029
2156.00,-0.0029
2155.00,-0.0027
2154.00,-0.0024
2153.00,-0.0021
2152.00,-0.0017
2151.00,-0.0014
2150.00,-0.0013
2149.00,-0.0012
2148.00,-0.0013
2147.00,-0.0014
2146.00,-0.0015
2145.00,-0.0016
2144.00,-0.0016
2143.00,-0.0015
2142.00,-0.0015
2141.00,-0.0014
2140.00,-0.0014
2139.00,-0.0015
2138.00,-0.0016
2137.00,-0.0017
2136.00,-0.0019
2135.00,-0.0020
2134.00,-0.0021
2133.00,-0.0019
2132.00,-0.0015
2131.00,-0.0012
2130.00,-0.0011
2129.00,-0.0010
2128.00,-0.0009
2127.00,-0.0008
2126.00,-0.0008
2125.00,-0.0007
2124.00,-0.0007
2123.00,-0.0006
2122.00,-0.0005
2121.00,-0.0003
2120.00,-0.0002
2119.00,-0.0002
2118.00,-0.0001
2117.00,0.0000
2116.00,0.0001
2115.00,0.0002
2114.00,0.0003
2113.00,0.0003
2112.00,0.0003
2111.00,0.0003
2110.00,0.0003
2109.00,0.0004
2108.00,0.0004
2107.00,0.0004
2106.00,0.0004
2105.00,0.0004
2104.00,0.0003
2103.00,0.0003
2102.00,0.0002
2101.00,0.0002
2100.00,0.0001
2099.00,0.0000
2098.00,-0.0001
2097.00,-0.0002
2096.00,-0.0004
2095.00,-0.0005
2094.00,-0.0006
2093.00,-0.0006
2092.00,-0.0005
2091.00,-0.0004
2090.00,-0.0004
2089.00,-0.0004
2088.00,-0.0002
2087.00,-0.0000
2086.00,0.0001
2085.00,0.0002
2084.00,0.0002
2083.00,0.0001
2082.00,-0.0000
2081.00,-0.0000
2080.00,0.0001
2079.00,0.0002
2078.00,0.0003
2077.00,0.0004
2076.00,0.0004
2075.00,0.0003
2074.00,0.0003
2073.00,0.0003
2072.00,0.0003
2071.00,0.0001
2070.00,-0.0000
2069.00,-0.0001
2068.00,-0.0002
2067.00,-0.0002
2066.00,-0.0003
2065.00,-0.0003
2064.00,-0.0003
2063.00,-0.0001
2062.00,0.0001
2061.00,0.0002
2060.00,0.0003
2059.00,0.0003
2058.00,0.0003
2057.00,0.0004
2056.00,0.0004
2055.00,0.0004
2054.00,0.0005
2053.00,0.0007
2052.00,0.0011
2051.00,0.0013
2050.00,0.0012
2049.00,0.0009
2048.00,0.0004
2047.00,0.0000
2046.00,-0.0002
2045.00,-0.0001
2044.00,0.0001
2043.00,0.0001
2042.00,0.0000
2041.00,-0.0003
2040.00,-0.0005
2039.00,-0.0006
2038.00,-0.0005
2037.00,-0.0005
2036.00,-0.0007
2035.00,-0.0009
2034.00,-0.0010
2033.00,-0.0008
2032.00,-0.0005
2031.00,-0.0002
2030.00,-0.0001
2029.00,-0.0001
2028.00,-0.0002
2027.00,-0.0004
2026.00,-0.0007
2025.00,-0.0010
2024.00,-0.0011
2023.00,-0.0011
2022.00,-0.0011
2021.00,-0.0010
2020.00,-0.0009
2019.00,-0.0008
2018.00,-0.0006
2017.00,-0.0005
2016.00,-0.0006
2015.00,-0.0009
2014.00,-0.0014
2013.00,-0.0017
2012.00,-0.0016
2011.00,-0.0012
2010.00,-0.0007
2009.00,-0.0007
2008.00,-0.0011
2007.00,-0.0018
2006.00,-0.0022
2005.00,-0.0022
2004.00,-0.0017
2003.00,-0.0013
2002.00,-0.0012
2001.00,-0.0012
2000.00,-0.0014
1999.00,-0.0016
1998.00,-0.0016
1997.00,-0.0014
1996.00,-0.0013
1995.00,-0.0013
1994.00,-0.0014
1993.00,-0.0014
1992.00,-0.0013
1991.00,-0.0011
1990.00,-0.0010
1989.00,-0.0007
1988.00,-0.0006
1987.00,-0.0004
1986.00,-0.0004
1985.00,-0.0003
1984.00,-0.0001
1983.00,0.0003
1982.00,0.0007
1981.00,0.0010
1980.00,0.0009
1979.00,0.0003
1978.00,-0.0004
1977.00,-0.0008
1976.00,-0.0010
1975.00,-0.0011
1974.00,-0.0013
1973.00,-0.0014
1972.00,-0.0015
1971.00,-0.0014
1970.00,-0.0013
1969.00,-0.0012
1968.00,-0.0012
1967.00,-0.0011
1966.00,-0.0009
1965.00,-0.0007
1964.00,-0.0008
1963.00,-0.0011
1962.00,-0.0016
1961.00,-0.0018
1960.00,-0.0019
1959.00,-0.0019
1958.00,-0.0018
1957.00,-0.0017
1956.00,-0.0016
1955.00,-0.0015
1954.00,-0.0014
1953.00,-0.0014
1952.00,-0.0014
1951.00,-0.0014
1950.00,-0.0014
1949.00,-0.0014
1948.00,-0.0015
1947.00,-0.0015
1946.00,-0.0016
1945.00,-0.0016
1944.00,-0.0016
1943.00,-0.0016
1942.00,-0.0016
1941.00,-0.0015
1940.00,-0.0014
1939.00,-0.0013
1938.00,-0.0012
1937.00,-0.0011
1936.00,-0.0011
1935.00,-0.0010
1934.00,-0.0010
1933.00,-0.0010
1932.00,-0.0009
1931.00,-0.0010
1930.00,-0.0010
1929.00,-0.0010
1928.00,-0.0009
1927.00,-0.0008
1926.00,-0.0008
1925.00,-0.0007
1924.00,-0.0007
1923.00,-0.0007
1922.00,-0.0007
1921.00,-0.0007
1920.00,-0.0007
1919.00,-0.0007
1918.00,-0.0005
1917.00,-0.0003
1916.00,-0.0002
1915.00,-0.0002
1914.00,-0.0003
1913.00,-0.0005
1912.00,-0.0005
1911.00,-0.0006
1910.00,-0.0004
1909.00,-0.0003
1908.00,-0.0001
1907.00,-0.0002
1906.00,-0.0002
1905.00,-0.0003
1904.00,-0.0003
1903.00,-0.0003
1902.00,-0.0003
1901.00,-0.0003
1900.00,-0.0003
1899.00,-0.0003
1898.00,-0.0003
1897.00,-0.0003
1896.00,-0.0004
1895.00,-0.0004
1894.00,-0.0003
1893.00,-0.0003
1892.00,-0.0003
1891.00,-0.0002
1890.00,-0.0001
1889.00,-0.0001
1888.00,-0.0001
1887.00,-0.0001
1886.00,-0.0002
1885.00,-0.0002
1884.00,-0.0001
1883.00,-0.0001
1882.00,-0.0001
1881.00,-0.0001
1880.00,-0.0001
1879.00,-0.0002
1878.00,-0.0002
1877.00,-0.0002
1876.00,-0.0001
1875.00,-0.0001
1874.00,0.0000
1873.00,0.0000
1872.00,-0.0000
1871.00,-0.0001
1870.00,-0.0002
1869.00,-0.0001
1868.00,-0.0001
1867.00,-0.0001
1866.00,-0.0002
1865.00,-0.0002
1864.00,-0.0002
1863.00,-0.0001
1862.00,-0.0001
1861.00,-0.0000
1860.00,0.0000
1859.00,0.0001
1858.00,0.0002
1857.00,0.0002
1856.00,0.0001
1855.00,-0.0000
1854.00,-0.0001
1853.00,-0.0001
1852.00,-0.0000
1851.00,-0.0000
1850.00,0.0000
1849.00,0.0001
1848.00,0.0001
1847.00,0.0001
1846.00,0.0001
1845.00,0.0001
1844.00,0.0001
1843.00,0.0002
1842.00,0.0002
1841.00,0.0002
1840.00,0.0003
1839.00,0.0003
1838.00,0.0003
1837.00,0.0004
1836.00,0.0004
1835.00,0.0004
1834.00,0.0003
1833.00,0.0002
1832.00,0.0002
1831.00,0.0001
1830.00,0.0001
1829.00,0.0002
1828.00,0.0001
1827.00,0.0001
1826.00,0.0001
1825.00,0.0003
1824.00,0.0004
1823.00,0.0005
1822.00,0.0005
1821.00,0.0004
1820.00,0.0003
1819.00,0.0002
1818.00,0.0001
1817.00,0.0000
1816.00,-0.0000
1815.00,0.0000
1814.00,0.0001
1813.00,0.0001
1812.00,0.0002
1811.00,0.0003
1810.00,0.0004
1809.00,0.0004
1808.00,0.0004
1807.00,0.0004
1806.00,0.0003
1805.00,0.0002
1804.00,0.0002
1803.00,0.0003
1802.00,0.0003
1801.00,0.0003
1800.00,0.0003
1799.00,0.0004
1798.00,0.0004
1797.00,0.0005
1796.00,0.0005
1795.00,0.0006
1794.00,0.0006
1793.00,0.0006
1792.00,0.0006
1791.00,0.0006
1790.00,0.0005
1789.00,0.0005
1788.00,0.0005
1787.00,0.0006
1786.00,0.0006
1785.00,0.0006
1784.00,0.0007
1783.00,0.0007
1782.00,0.0007
1781.00,0.0007
1780.00,0.0007
1779.00,0.0007
1778.00,0.0007
1777.00,0.0007
1776.00,0.0007
1775.00,0.0007
1774.00,0.0007
1773.00,0.0007
1772.00,0.0007
1771.00,0.0007
1770.00,0.0007
1769.00,0.0008
1768.00,0.0008
1767.00,0.0009
1766.00,0.0009
1765.00,0.0009
1764.00,0.0010
1763.00,0.0010
1762.00,0.0011
1761.00,0.0011
1760.00,0.0011
1759.00,0.0010
1758.00,0.0010
1757.00,0.0011
1756.00,0.0011
1755.00,0.0012
1754.00,0.0012
1753.00,0.0012
1752.00,0.0013
1751.00,0.0013
1750.00,0.0014
1749.00,0.0015
1748.00,0.0016
1747.00,0.0016
1746.00,0.0015
1745.00,0.0015
1744.00,0.0015
1743.00,0.0016
1742.00,0.0016
1741.00,0.0017
1740.00,0.0017
1739.00,0.0017
1738.00,0.0016
1737.00,0.0016
1736.00,0.0017
1735.00,0.0017
1734.00,0.0017
1733.00,0.0017
1732.00,0.0016
1731.00,0.0017
1730.00,0.0017
1729.00,0.0018
1728.00,0.0019
1727.00,0.0019
1726.00,0.0019
1725.00,0.0019
1724.00,0.0020
1723.00,0.0019
1722.00,0.0019
1721.00,0.0018
1720.00,0.0018
1719.00,0.0017
1718.00,0.0018
1717.00,0.0018
1716.00,0.0019
1715.00,0.0019
1714.00,0.0019
1713.00,0.0019
1712.00,0.0020
1711.00,0.0020
1710.00,0.0020
1709.00,0.0021
1708.00,0.0022
1707.00,0.0022
1706.00,0.0022
1705.00,0.0022
1704.00,0.0023
1703.00,0.0023
1702.00,0.0024
1701.00,0.0024
1700.00,0.0025
1699.00,0.0025
1698.00,0.0026
1697.00,0.0026
1696.00,0.0027
1695.00,0.0027
1694.00,0.0027
1693.00,0.0027
1692.00,0.0028
1691.00,0.0028
1690.00,0.0029
1689.00,0.0029
1688.00,0.0030
1687.00,0.0030
1686.00,0.0029
1685.00,0.0029
1684.00,0.0030
1683.00,0.0031
1682.00,0.0032
1681.00,0.0033
1680.00,0.0034
1679.00,0.0035
1678.00,0.0035
1677.00,0.0036
1676.00,0.0036
1675.00,0.0037
1674.00,0.0037
1673.00,0.0038
1672.00,0.0038
1671.00,0.0038
1670.00,0.0039
1669.00,0.0040
1668.00,0.0040
1667.00,0.0041
1666.00,0.0041
1665.00,0.0042
1664.00,0.0042
1663.00,0.0043
1662.00,0.0043
1661.00,0.0043
1660.00,0.0044
1659.00,0.0044
1658.00,0.0045
1657.00,0.0047
1656.00,0.0047
1655.00,0.0047
1654.00,0.0047
1653.00,0.0047
1652.00,0.0048
1651.00,0.0049
1650.00,0.0051
1649.00,0.0052
1648.00,0.0054
1647.00,0.0055
1646.00,0.0056
1645.00,0.0056
1644.00,0.0056
1643.00,0.0056
1642.00,0.0056
1641.00,0.0056
1640.00,0.0056
1639.00,0.0056
1638.00,0.0056
1637.00,0.0056
1636.00,0.0056
1635.00,0.0055
1634.00,0.0054
1633.00,0.0054
1632.00,0.0054
1631.00,0.0054
1630.00,0.0054
1629.00,0.0054
1628.00,0.0054
1627.00,0.0054
1626.00,0.0055
1625.00,0.0055
1624.00,0.0054
1623.00,0.0053
1622.00,0.0052
1621.00,0.0051
1620.00,0.0051
1619.00,0.0051
1618.00,0.0050
1617.00,0.0050
1616.00,0.0050
1615.00,0.0050
1614.00,0.0050
1613.00,0.0051
1612.00,0.0051
1611.00,0.0051
1610.00,0.0050
1609.00,0.0050
1608.00,0.0051
1607.00,0.0051
1606.00,0.0051
1605.00,0.0051
1604.00,0.0051
1603.00,0.0051
1602.00,0.0051
1601.00,0.0051
1600.00,0.0051
1599.00,0.0050
1598.00,0.0050
1597.00,0.0050
1596.00,0.0050
1595.00,0.0050
1594.00,0.0050
1593.00,0.0050
1592.00,0.0050
1591.00,0.0049
1590.00,0.0049
1589.00,0.0049
1588.00,0.0050
1587.00,0.0050
1586.00,0.0051
1585.00,0.0052
1584.00,0.0053
1583.00,0.0054
1582.00,0.0055
1581.00,0.0056
1580.00,0.0057
1579.00,0.0058
1578.00,0.0058
1577.00,0.0058
1576.00,0.0059
1575.00,0.0058
1574.00,0.0058
1573.00,0.0058
1572.00,0.0058
1571.00,0.0057
1570.00,0.0056
1569.00,0.0054
1568.00,0.0053
1567.00,0.0053
1566.00,0.0053
1565.00,0.0053
1564.00,0.0053
1563.00,0.0053
1562.00,0.0053
1561.00,0.0054
1560.00,0.0055
1559.00,0.0055
1558.00,0.0055
1557.00,0.0055
1556.00,0.0056
1555.00,0.0056
1554.00,0.0057
1553.00,0.0057
1552.00,0.0058
1551.00,0.0058
1550.00,0.0059
1549.00,0.0061
1548.00,0.0062
1547.00,0.0063
1546.00,0.0064
1545.00,0.0065
1544.00,0.0067
1543.00,0.0068
1542.00,0.0068
1541.00,0.0068
1540.00,0.0067
1539.00,0.0066
1538.00,0.0065
1537.00,0.0065
1536.00,0.0064
1535.00,0.0063
1534.00,0.0061
1533.00,0.0059
1532.00,0.0058
1531.00,0.0057
1530.00,0.0056
1529.00,0.0055
1528.00,0.0055
1527.00,0.0054
1526.00,0.0053
1525.00,0.0053
1524.00,0.0053
1523.00,0.0052
1522.00,0.0052
1521.00,0.0052
1520.00,0.0052
1519.00,0.0053
1518.00,0.0053
1517.00,0.0053
1516.00,0.0054
1515.00,0.0054
1514.00,0.0054
1513.00,0.0054
1512.00,0.0054
1511.00,0.0054
1510.00,0.0054
1509.00,0.0055
1508.00,0.0056
1507.00,0.0058
1506.00,0.0060
1505.00,0.0062
1504.00,0.0064
1503.00,0.0066
1502.00,0.0067
1501.00,0.0070
1500.00,0.0073
1499.00,0.0075
1498.00,0.0077
1497.00,0.0081
1496.00,0.0085
1495.00,0.0089
1494.00,0.0092
1493.00,0.0095
1492.00,0.0098
1491.00,0.0100
1490.00,0.0103
1489.00,0.0106
1488.00,0.0111
1487.00,0.0116
1486.00,0.0121
1485.00,0.0127
1484.00,0.0134
1483.00,0.0142
1482.00,0.0150
1481.00,0.0161
1480.00,0.0174
1479.00,0.0186
1478.00,0.0200
1477.00,0.0219
1476.00,0.0241
1475.00,0.0267
1474.00,0.0302
1473.00,0.0355
1472.00,0.0421
1471.00,0.0485
1470.00,0.0548
1469.00,0.0614
1468.00,0.0685
1467.00,0.0764
1466.00,0.0855
1465.00,0.0956
1464.00,0.1046
1463.00,0.1111
1462.00,0.1155
1461.00,0.1187
1460.00,0.1211
1459.00,0.1230
1458.00,0.1246
1457.00,0.1261
1456.00,0.1266
1455.00,0.1262
1454.00,0.1255
1453.00,0.1242
1452.00,0.1218
1451.00,0.1180
1450.00,0.1126
1449.00,0.1048
1448.00,0.0950
1447.00,0.0845
1446.00,0.0751
1445.00,0.0671
1444.00,0.0604
1443.00,0.0549
1442.00,0.0509
1441.00,0.0482
1440.00,0.0466
1439.00,0.0459
1438.00,0.0460
1437.00,0.0462
1436.00,0.0451
1435.00,0.0424
1434.00,0.0384
1433.00,0.0337
1432.00,0.0287
1431.00,0.0244
1430.00,0.0211
1429.00,0.0188
1428.00,0.0172
1427.00,0.0162
1426.00,0.0156
1425.00,0.0150
1424.00,0.0145
1423.00,0.0143
1422.00,0.0141
1421.00,0.0139
1420.00,0.0135
1419.00,0.0131
1418.00,0.0129
1417.00,0.0126
1416.00,0.0124
1415.00,0.0123
1414.00,0.0123
1413.00,0.0121
1412.00,0.0119
1411.00,0.0118
1410.00,0.0118
1409.00,0.0117
1408.00,0.0116
1407.00,0.0116
1406.00,0.0117
1405.00,0.0117
1404.00,0.0117
1403.00,0.0118
1402.00,0.0120
1401.00,0.0121
1400.00,0.0122
1399.00,0.0124
1398.00,0.0126
1397.00,0.0127
1396.00,0.0129
1395.00,0.0132
1394.00,0.0138
1393.00,0.0144
1392.00,0.0151
1391.00,0.0161
1390.00,0.0174
1389.00,0.0191
1388.00,0.0218
1387.00,0.0258
1386.00,0.0311
1385.00,0.0377
1384.00,0.0464
1383.00,0.0581
1382.00,0.0734
1381.00,0.0929
1380.00,0.1172
1379.00,0.1452
1378.00,0.1730
1377.00,0.1944
1376.00,0.2031
1375.00,0.1949
1374.00,0.1717
1373.00,0.1424
1372.00,0.1150
1371.00,0.0922
1370.00,0.0738
1369.00,0.0598
1368.00,0.0500
1367.00,0.0441
1366.00,0.0408
1365.00,0.0395
1364.00,0.0397
1363.00,0.0412
1362.00,0.0436
1361.00,0.0462
1360.00,0.0481
1359.00,0.0486
1358.00,0.0474
1357.00,0.0445
1356.00,0.0404
1355.00,0.0358
1354.00,0.0313
1353.00,0.0274
1352.00,0.0243
1351.00,0.0218
1350.00,0.0199
1349.00,0.0183
1348.00,0.0171
1347.00,0.0161
1346.00,0.0153
1345.00,0.0146
1344.00,0.0141
1343.00,0.0137
1342.00,0.0133
1341.00,0.0129
1340.00,0.0127
1339.00,0.0124
1338.00,0.0123
1337.00,0.0122
1336.00,0.0123
1335.00,0.0126
1334.00,0.0129
1333.00,0.0134
1332.00,0.0138
1331.00,0.0142
1330.00,0.0143
1329.00,0.0141
1328.00,0.0137
1327.00,0.0131
1326.00,0.0125
1325.00,0.0118
1324.00,0.0111
1323.00,0.0106
1322.00,0.0102
1321.00,0.0098
1320.00,0.0095
1319.00,0.0093
1318.00,0.0091
1317.00,0.0089
1316.00,0.0087
1315.00,0.0086
1314.00,0.0085
1313.00,0.0085
1312.00,0.0086
1311.00,0.0089
1310.00,0.0093
1309.00,0.0100
1308.00,0.0109
1307.00,0.0121
1306.00,0.0132
1305.00,0.0140
1304.00,0.0143
1303.00,0.0141
1302.00,0.0137
1301.00,0.0133
1300.00,0.0131
1299.00,0.0131
1298.00,0.0131
1297.00,0.0132
1296.00,0.0131
1295.00,0.0128
1294.00,0.0124
1293.00,0.0119
1292.00,0.0113
1291.00,0.0107
1290.00,0.0102
1289.00,0.0098
1288.00,0.0094
1287.00,0.0091
1286.00,0.0089
1285.00,0.0086
1284.00,0.0084
1283.00,0.0083
1282.00,0.0082
1281.00,0.0081
1280.00,0.0080
1279.00,0.0079
1278.00,0.0078
1277.00,0.0077
1276.00,0.0077
1275.00,0.0077
1274.00,0.0077
1273.00,0.0078
1272.00,0.0078
1271.00,0.0079
1270.00,0.0080
1269.00,0.0081
1268.00,0.0082
1267.00,0.0085
1266.00,0.0088
1265.00,0.0092
1264.00,0.0095
1263.00,0.0098
1262.00,0.0102
1261.00,0.0107
1260.00,0.0112
1259.00,0.0119
1258.00,0.0126
1257.00,0.0132
1256.00,0.0134
1255.00,0.0132
1254.00,0.0125
1253.00,0.0117
1252.00,0.0108
1251.00,0.0101
1250.00,0.0096
1249.00,0.0092
1248.00,0.0090
1247.00,0.0089
1246.00,0.0088
1245.00,0.0087
1244.00,0.0086
1243.00,0.0085
1242.00,0.0084
1241.00,0.0084
1240.00,0.0083
1239.00,0.0082
1238.00,0.0081
1237.00,0.0079
1236.00,0.0078
1235.00,0.0077
1234.00,0.0077
1233.00,0.0077
1232.00,0.0077
1231.00,0.0077
1230.00,0.0078
1229.00,0.0078
1228.00,0.0080
1227.00,0.0081
1226.00,0.0083
1225.00,0.0085
1224.00,0.0088
1223.00,0.0092
1222.00,0.0095
1221.00,0.0098
1220.00,0.0100
1219.00,0.0101
1218.00,0.0100
1217.00,0.0099
1216.00,0.0097
1215.00,0.0094
1214.00,0.0091
1213.00,0.0088
1212.00,0.0085
1211.00,0.0082
1210.00,0.0079
1209.00,0.0077
1208.00,0.0075
1207.00,0.0074
1206.00,0.0073
1205.00,0.0072
1204.00,0.0071
1203.00,0.0071
1202.00,0.0070
1201.00,0.0070
1200.00,0.0070
1199.00,0.0070
1198.00,0.0070
1197.00,0.0070
1196.00,0.0070
1195.00,0.0070
1194.00,0.0069
1193.00,0.0069
1192.00,0.0070
1191.00,0.0070
1190.00,0.0071
1189.00,0.0071
1188.00,0.0071
1187.00,0.0071
1186.00,0.0072
1185.00,0.0073
1184.00,0.0075
1183.00,0.0077
1182.00,0.0079
1181.00,0.0081
1180.00,0.0085
1179.00,0.0090
1178.00,0.0097
1177.00,0.0106
1176.00,0.0119
1175.00,0.0135
1174.00,0.0156
1173.00,0.0182
1172.00,0.0214
1171.00,0.0248
1170.00,0.0281
1169.00,0.0309
1168.00,0.0325
1167.00,0.0329
1166.00,0.0321
1165.00,0.0306
1164.00,0.0288
1163.00,0.0270
1162.00,0.0254
1161.00,0.0240
1160.00,0.0229
1159.00,0.0221
1158.00,0.0214
1157.00,0.0209
1156.00,0.0205
1155.00,0.0202
1154.00,0.0200
1153.00,0.0198
1152.00,0.0194
1151.00,0.0188
1150.00,0.0180
1149.00,0.0170
1148.00,0.0160
1147.00,0.0150
1146.00,0.0141
1145.00,0.0133
1144.00,0.0126
1143.00,0.0120
1142.00,0.0114
1141.00,0.0108
1140.00,0.0103
1139.00,0.0098
1138.00,0.0094
1137.00,0.0091
1136.00,0.0089
1135.00,0.0088
1134.00,0.0087
1133.00,0.0086
1132.00,0.0086
1131.00,0.0086
1130.00,0.0086
1129.00,0.0085
1128.00,0.0086
1127.00,0.0086
1126.00,0.0087
1125.00,0.0087
1124.00,0.0087
1123.00,0.0088
1122.00,0.0089
1121.00,0.0089
1120.00,0.0090
1119.00,0.0090
1118.00,0.0091
1117.00,0.0092
1116.00,0.0094
1115.00,0.0095
1114.00,0.0097
1113.00,0.0099
1112.00,0.0101
1111.00,0.0105
1110.00,0.0109
1109.00,0.0115
1108.00,0.0121
1107.00,0.0129
1106.00,0.0136
1105.00,0.0143
1104.00,0.0148
1103.00,0.0151
1102.00,0.0152
1101.00,0.0150
1100.00,0.0145
1099.00,0.0139
1098.00,0.0132
1097.00,0.0125
1096.00,0.0120
1095.00,0.0115
1094.00,0.0111
1093.00,0.0108
1092.00,0.0105
1091.00,0.0102
1090.00,0.0099
1089.00,0.0097
1088.00,0.0095
1087.00,0.0094
1086.00,0.0093
1085.00,0.0092
1084.00,0.0091
1083.00,0.0090
1082.00,0.0088
1081.00,0.0087
1080.00,0.0085
1079.00,0.0084
1078.00,0.0083
1077.00,0.0083
1076.00,0.0082
1075.00,0.0082
1074.00,0.0081
1073.00,0.0081
1072.00,0.0081
1071.00,0.0082
1070.00,0.0082
1069.00,0.0083
1068.00,0.0083
1067.00,0.0084
1066.00,0.0084
1065.00,0.0084
1064.00,0.0083
1063.00,0.0082
1062.00,0.0082
1061.00,0.0082
1060.00,0.0083
1059.00,0.0084
1058.00,0.0084
1057.00,0.0084
1056.00,0.0084
1055.00,0.0084
1054.00,0.0085
1053.00,0.0087
1052.00,0.0089
1051.00,0.0091
1050.00,0.0093
1049.00,0.0096
1048.00,0.0098
1047.00,0.0101
1046.00,0.0103
1045.00,0.0104
1044.00,0.0104
1043.00,0.0103
1042.00,0.0101
1041.00,0.0099
1040.00,0.0097
1039.00,0.0096
1038.00,0.0095
1037.00,0.0094
1036.00,0.0094
1035.00,0.0094
1034.00,0.0093
1033.00,0.0093
1032.00,0.0093
1031.00,0.0093
1030.00,0.0093
1029.00,0.0093
1028.00,0.0093
1027.00,0.0092
1026.00,0.0092
1025.00,0.0093
1024.00,0.0093
1023.00,0.0094
1022.00,0.0096
1021.00,0.0097
1020.00,0.0097
1019.00,0.0097
1018.00,0.0097
1017.00,0.0099
1016.00,0.0101
1015.00,0.0104
1014.00,0.0106
1013.00,0.0109
1012.00,0.0112
1011.00,0.0116
1010.00,0.0119
1009.00,0.0123
1008.00,0.0129
1007.00,0.0135
1006.00,0.0144
1005.00,0.0155
1004.00,0.0171
1003.00,0.0193
1002.00,0.0223
1001.00,0.0259
1000.00,0.0296
999.00,0.0327
998.00,0.0343
997.00,0.0336
996.00,0.0309
995.00,0.0271
994.00,0.0231
993.00,0.0196
992.00,0.0167
991.00,0.0146
990.00,0.0132
989.00,0.0122
988.00,0.0117
987.00,0.0114
986.00,0.0113
985.00,0.0115
984.00,0.0118
983.00,0.0125
982.00,0.0136
981.00,0.0152
980.00,0.0175
979.00,0.0205
978.00,0.0242
977.00,0.0286
976.00,0.0333
975.00,0.0377
974.00,0.0409
973.00,0.0421
972.00,0.0408
971.00,0.0372
970.00,0.0322
969.00,0.0269
968.00,0.0223
967.00,0.0188
966.00,0.0162
965.00,0.0144
964.00,0.0130
963.00,0.0119
962.00,0.0110
961.00,0.0103
960.00,0.0097
959.00,0.0093
958.00,0.0090
957.00,0.0087
956.00,0.0085
955.00,0.0082
954.00,0.0081
953.00,0.0080
952.00,0.0079
951.00,0.0079
950.00,0.0079
949.00,0.0079
948.00,0.0079
947.00,0.0081
946.00,0.0083
945.00,0.0086
944.00,0.0088
943.00,0.0091
942.00,0.0093
941.00,0.0094
940.00,0.0093
939.00,0.0091
938.00,0.0087
937.00,0.0082
936.00,0.0078
935.00,0.0074
934.00,0.0070
933.00,0.0068
932.00,0.0065
931.00,0.0064
930.00,0.0063
929.00,0.0062
928.00,0.0061
927.00,0.0060
926.00,0.0060
925.00,0.0060
924.00,0.0061
923.00,0.0062
922.00,0.0063
921.00,0.0065
920.00,0.0066
919.00,0.0067
918.00,0.0068
917.00,0.0068
916.00,0.0068
915.00,0.0069
914.00,0.0070
913.00,0.0072
912.00,0.0073
911.00,0.0074
910.00,0.0075
909.00,0.0076
908.00,0.0078
907.00,0.0083
906.00,0.0090
905.00,0.0102
904.00,0.0118
903.00,0.0137
902.00,0.0157
901.00,0.0177
900.00,0.0191
899.00,0.0195
898.00,0.0188
897.00,0.0172
896.00,0.0152
895.00,0.0132
894.00,0.0115
893.00,0.0102
892.00,0.0092
891.00,0.0085
890.00,0.0080
889.00,0.0077
888.00,0.0075
887.00,0.0074
886.00,0.0074
885.00,0.0073
884.00,0.0073
883.00,0.0071
882.00,0.0070
881.00,0.0070
880.00,0.0071
879.00,0.0073
878.00,0.0074
877.00,0.0074
876.00,0.0074
875.00,0.0074
874.00,0.0074
873.00,0.0074
872.00,0.0074
871.00,0.0073
870.00,0.0072
869.00,0.0072
868.00,0.0073
867.00,0.0073
866.00,0.0074
865.00,0.0075
864.00,0.0076
863.00,0.0078
862.00,0.0080
861.00,0.0082
860.00,0.0084
859.00,0.0086
858.00,0.0087
857.00,0.0087
856.00,0.0088
855.00,0.0088
854.00,0.0090
853.00,0.0092
852.00,0.0096
851.00,0.0102
850.00,0.0108
849.00,0.0116
848.00,0.0127
847.00,0.0143
846.00,0.0166
845.00,0.0198
844.00,0.0242
843.00,0.0290
842.00,0.0326
841.00,0.0335
840.00,0.0312
839.00,0.0269
838.00,0.0223
837.00,0.0187
836.00,0.0163
835.00,0.0148
834.00,0.0138
833.00,0.0131
832.00,0.0126
831.00,0.0122
830.00,0.0119
829.00,0.0117
828.00,0.0115
827.00,0.0113
826.00,0.0111
825.00,0.0110
824.00,0.0109
823.00,0.0110
822.00,0.0110
821.00,0.0111
820.00,0.0114
819.00,0.0117
818.00,0.0121
817.00,0.0126
816.00,0.0134
815.00,0.0145
814.00,0.0160
813.00,0.0178
812.00,0.0197
811.00,0.0214
810.00,0.0227
809.00,0.0232
808.00,0.0229
807.00,0.0218
806.00,0.0202
805.00,0.0185
804.00,0.0170
803.00,0.0157
802.00,0.0146
801.00,0.0137
800.00,0.0129
799.00,0.0122
798.00,0.0116
797.00,0.0111
796.00,0.0106
795.00,0.0102
794.00,0.0099
793.00,0.0095
792.00,0.0092
791.00,0.0090
790.00,0.0088
789.00,0.0086
788.00,0.0084
787.00,0.0081
786.00,0.0077
785.00,0.0074
784.00,0.0071
783.00,0.0068
782.00,0.0066
781.00,0.0063
780.00,0.0062
779.00,0.0062
778.00,0.0064
777.00,0.0065
776.00,0.0065
775.00,0.0065
774.00,0.0066
773.00,0.0067
772.00,0.0070
771.00,0.0074
770.00,0.0079
769.00,0.0082
768.00,0.0083
767.00,0.0082
766.00,0.0079
765.00,0.0077
764.00,0.0073
763.00,0.0069
762.00,0.0066
761.00,0.0063
760.00,0.0061
759.00,0.0059
758.00,0.0057
757.00,0.0056
756.00,0.0055
755.00,0.0054
754.00,0.0053
753.00,0.0054
752.00,0.0054
751.00,0.0055
750.00,0.0055
749.00,0.0055
748.00,0.0054
747.00,0.0054
746.00,0.0054
745.00,0.0054
744.00,0.0056
743.00,0.0057
742.00,0.0057
741.00,0.0057
740.00,0.0057
739.00,0.0058
738.00,0.0059
737.00,0.0060
736.00,0.0061
735.00,0.0063
734.00,0.0065
733.00,0.0066
732.00,0.0066
731.00,0.0067
730.00,0.0067
729.00,0.0066
728.00,0.0065
727.00,0.0065
726.00,0.0065
725.00,0.0064
724.00,0.0063
723.00,0.0063
722.00,0.0063
721.00,0.0064
720.00,0.0064
719.00,0.0063
718.00,0.0062
717.00,0.0060
716.00,0.0058
715.00,0.0057
714.00,0.0057
713.00,0.0058
712.00,0.0059
711.00,0.0060
710.00,0.0060
709.00,0.0060
708.00,0.0060
707.00,0.0059
706.00,0.0059
705.00,0.0059
704.00,0.0059
703.00,0.0059
702.00,0.0058
701.00,0.0058
700.00,0.0056
699.00,0.0055
698.00,0.0053
697.00,0.0052
696.00,0.0051
695.00,0.0051
694.00,0.0051
693.00,0.0052
692.00,0.0053
691.00,0.0054
690.00,0.0053
689.00,0.0052
688.00,0.0051
687.00,0.0051
686.00,0.0052
685.00,0.0054
684.00,0.0056
683.00,0.0056
682.00,0.0055
681.00,0.0051
680.00,0.0048
679.00,0.0047
678.00,0.0048
677.00,0.0050
676.00,0.0052
675.00,0.0054
674.00,0.0055
673.00,0.0054
672.00,0.0052
671.00,0.0050
670.00,0.0048
669.00,0.0045
668.00,0.0043
667.00,0.0043
666.00,0.0046
665.00,0.0047
664.00,0.0049
663.00,0.0050
662.00,0.0050
661.00,0.0050
660.00,0.0051
659.00,0.0052
658.00,0.0054
657.00,0.0055
656.00,0.0053
655.00,0.0050
654.00,0.0048
653.00,0.0048
652.00,0.0050
651.00,0.0051
650.00,0.0053
649.00,0.0054
648.00,0.0054
647.00,0.0054
646.00,0.0053
645.00,0.0052
644.00,0.0051
643.00,0.0050
642.00,0.0049
641.00,0.0048
640.00,0.0047
639.00,0.0048
638.00,0.0050
637.00,0.0052
636.00,0.0054
635.00,0.0055
634.00,0.0057
633.00,0.0058
632.00,0.0058
631.00,0.0057
630.00,0.0054
629.00,0.0052
628.00,0.0050
627.00,0.0050
626.00,0.0049
625.00,0.0050
624.00,0.0051
623.00,0.0052
622.00,0.0053
621.00,0.0052
620.00,0.0051
619.00,0.0051
618.00,0.0052
617.00,0.0052
616.00,0.0053
615.00,0.0053
614.00,0.0054
613.00,0.0055
612.00,0.0056
611.00,0.0058
610.00,0.0059
609.00,0.0058
608.00,0.0057
607.00,0.0057
606.00,0.0058
605.00,0.0059
604.00,0.0060
603.00,0.0061
602.00,0.0062
601.00,0.0062
600.00,0.0062
599.00,0.0061
598.00,0.0060
597.00,0.0060
596.00,0.0059
595.00,0.0057
594.00,0.0056
593.00,0.0055
592.00,0.0057
591.00,0.0059
590.00,0.0062
589.00,0.0065
588.00,0.0067
587.00,0.0068
586.00,0.0068
585.00,0.0065
584.00,0.0063
583.00,0.0060
582.00,0.0058
581.00,0.0057
580.00,0.0055
579.00,0.0055
578.00,0.0056
577.00,0.0058
576.00,0.0060
575.00,0.0060
574.00,0.0061
573.00,0.0062
572.00,0.0060
571.00,0.0057
570.00,0.0053
569.00,0.0051
568.00,0.0051
567.00,0.0053
566.00,0.0054
565.00,0.0053
564.00,0.0053
563.00,0.0055
562.00,0.0056
561.00,0.0057
560.00,0.0058
559.00,0.0059
558.00,0.0061
557.00,0.0063
556.00,0.0065
555.00,0.0065
554.00,0.0065
553.00,0.0063
552.00,0.0061
551.00,0.0060
550.00,0.0060
549.00,0.0061
548.00,0.0064
547.00,0.0066
546.00,0.0068
545.00,0.0068
544.00,0.0067
543.00,0.0066
542.00,0.0067
541.00,0.0067
540.00,0.0067
539.00,0.0069
538.00,0.0073
537.00,0.0076
536.00,0.0079
535.00,0.0079
534.00,0.0079
533.00,0.0080
532.00,0.0083
531.00,0.0088
530.00,0.0092
529.00,0.0094
528.00,0.0094
527.00,0.0091
526.00,0.0087
525.00,0.0083
524.00,0.0080
523.00,0.0079
522.00,0.0081
521.00,0.0083
520.00,0.0082
519.00,0.0078
518.00,0.0075
517.00,0.0074
516.00,0.0073
515.00,0.0071
514.00,0.0067
513.00,0.0063
512.00,0.0059
511.00,0.0056
510.00,0.0054
509.00,0.0052
508.00,0.0050
507.00,0.0048
506.00,0.0046
505.00,0.0046
504.00,0.0048
503.00,0.0053
502.00,0.0057
501.00,0.0056
500.00,0.0050
499.00,0.0044
498.00,0.0044
497.00,0.0052
496.00,0.0062
495.00,0.0068
494.00,0.0065
493.00,0.0057
492.00,0.0049
491.00,0.0045
490.00,0.0046
489.00,0.0050
488.00,0.0053
487.00,0.0056
486.00,0.0060
485.00,0.0066
484.00,0.0071
483.00,0.0072
482.00,0.0069
481.00,0.0066
480.00,0.0066
479.00,0.0069
478.00,0.0076
477.00,0.0083
476.00,0.0087
475.00,0.0088
474.00,0.0086
473.00,0.0084
472.00,0.0082
471.00,0.0077
470.00,0.0073
469.00,0.0073
468.00,0.0080
467.00,0.0095
466.00,0.0110
465.00,0.0120
464.00,0.0125
463.00,0.0128
462.00,0.0133
461.00,0.0138
460.00,0.0142
459.00,0.0143
458.00,0.0141
457.00,0.0140
456.00,0.0142
455.00,0.0142
454.00,0.0139
453.00,0.0135
452.00,0.0130
451.00,0.0123
450.00,0.0113
