Created as New Dataset,Sample 107 By Administrator Date Wednesday, September 10 2025
cm-1,A
4000.00,0.0009
3999.00,0.0009
3998.00,0.0008
3997.00,0.0008
3996.00,0.0008
3995.00,0.0008
3994.00,0.0008
3993.00,0.0008
3992.00,0.0008
3991.00,0.0008
3990.00,0.0008
3989.00,0.0008
3988.00,0.0008
3987.00,0.0008
3986.00,0.0008
3985.00,0.0008
3984.00,0.0008
3983.00,0.0007
3982.00,0.0007
3981.00,0.0007
3980.00,0.0007
3979.00,0.0007
3978.00,0.0007
3977.00,0.0007
3976.00,0.0007
3975.00,0.0006
3974.00,0.0006
3973.00,0.0006
3972.00,0.0006
3971.00,0.0006
3970.00,0.0006
3969.00,0.0006
3968.00,0.0006
3967.00,0.0006
3966.00,0.0006
3965.00,0.0006
3964.00,0.0006
3963.00,0.0006
3962.00,0.0006
3961.00,0.0006
3960.00,0.0006
3959.00,0.0006
3958.00,0.0006
3957.00,0.0006
3956.00,0.0006
3955.00,0.0006
3954.00,0.0006
3953.00,0.0006
3952.00,0.0006
3951.00,0.0006
3950.00,0.0006
3949.00,0.0006
3948.00,0.0006
3947.00,0.0006
3946.00,0.0006
3945.00,0.0006
3944.00,0.0006
3943.00,0.0006
3942.00,0.0006
3941.00,0.0006
3940.00,0.0005
3939.00,0.0006
3938.00,0.0006
3937.00,0.0006
3936.00,0.0007
3935.00,0.0007
3934.00,0.0007
3933.00,0.0007
3932.00,0.0007
3931.00,0.0007
3930.00,0.0007
3929.00,0.0007
3928.00,0.0007
3927.00,0.0007
3926.00,0.0007
3925.00,0.0007
3924.00,0.0007
3923.00,0.0007
3922.00,0.0007
3921.00,0.0007
3920.00,0.0006
3919.00,0.0006
3918.00,0.0006
3917.00,0.0006
3916.00,0.0006
3915.00,0.0006
3914.00,0.0006
3913.00,0.0006
3912.00,0.0006
3911.00,0.0006
3910.00,0.0006
3909.00,0.0006
3908.00,0.0006
3907.00,0.0005
3906.00,0.0005
3905.00,0.0005
3904.00,0.0005
3903.00,0.0005
3902.00,0.0005
3901.00,0.0005
3900.00,0.0005
3899.00,0.0005
3898.00,0.0006
3897.00,0.0006
3896.00,0.0006
3895.00,0.0006
3894.00,0.0006
3893.00,0.0006
3892.00,0.0006
3891.00,0.0006
3890.00,0.0006
3889.00,0.0005
3888.00,0.0005
3887.00,0.0005
3886.00,0.0005
3885.00,0.0005
3884.00,0.0005
3883.00,0.0006
3882.00,0.0006
3881.00,0.0006
3880.00,0.0006
3879.00,0.0006
3878.00,0.0006
3877.00,0.0006
3876.00,0.0006
3875.00,0.0006
3874.00,0.0006
3873.00,0.0006
3872.00,0.0005
3871.00,0.0005
3870.00,0.0005
3869.00,0.0005
3868.00,0.0005
3867.00,0.0005
3866.00,0.0005
3865.00,0.0005
3864.00,0.0005
3863.00,0.0006
3862.00,0.0006
3861.00,0.0005
3860.00,0.0006
3859.00,0.0006
3858.00,0.0006
3857.00,0.0005
3856.00,0.0005
3855.00,0.0005
3854.00,0.0004
3853.00,0.0004
3852.00,0.0003
3851.00,0.0004
3850.00,0.0004
3849.00,0.0004
3848.00,0.0004
3847.00,0.0005
3846.00,0.0005
3845.00,0.0005
3844.00,0.0005
3843.00,0.0006
3842.00,0.0006
3841.00,0.0006
3840.00,0.0005
3839.00,0.0005
3838.00,0.0005
3837.00,0.0005
3836.00,0.0005
3835.00,0.0005
3834.00,0.0005
3833.00,0.0005
3832.00,0.0005
3831.00,0.0005
3830.00,0.0005
3829.00,0.0005
3828.00,0.0005
3827.00,0.0005
3826.00,0.0005
3825.00,0.0005
3824.00,0.0005
3823.00,0.0006
3822.00,0.0006
3821.00,0.0006
3820.00,0.0006
3819.00,0.0006
3818.00,0.0006
3817.00,0.0006
3816.00,0.0006
3815.00,0.0006
3814.00,0.0006
3813.00,0.0006
3812.00,0.0006
3811.00,0.0006
3810.00,0.0006
3809.00,0.0006
3808.00,0.0006
3807.00,0.0006
3806.00,0.0006
3805.00,0.0005
3804.00,0.0005
3803.00,0.0005
3802.00,0.0005
3801.00,0.0005
3800.00,0.0005
3799.00,0.0005
3798.00,0.0005
3797.00,0.0005
3796.00,0.0005
3795.00,0.0005
3794.00,0.0005
3793.00,0.0006
3792.00,0.0006
3791.00,0.0006
3790.00,0.0006
3789.00,0.0006
3788.00,0.0006
3787.00,0.0006
3786.00,0.0006
3785.00,0.0006
3784.00,0.0006
3783.00,0.0006
3782.00,0.0006
3781.00,0.0006
3780.00,0.0006
3779.00,0.0006
3778.00,0.0006
3777.00,0.0006
3776.00,0.0006
3775.00,0.0006
3774.00,0.0006
3773.00,0.0006
3772.00,0.0006
3771.00,0.0007
3770.00,0.0007
3769.00,0.0007
3768.00,0.0007
3767.00,0.0007
3766.00,0.0007
3765.00,0.0007
3764.00,0.0007
3763.00,0.0007
3762.00,0.0007
3761.00,0.0007
3760.00,0.0007
3759.00,0.0008
3758.00,0.0008
3757.00,0.0008
3756.00,0.0008
3755.00,0.0008
3754.00,0.0008
3753.00,0.0007
3752.00,0.0007
3751.00,0.0006
3750.00,0.0005
3749.00,0.0005
3748.00,0.0004
3747.00,0.0004
3746.00,0.0004
3745.00,0.0005
3744.00,0.0006
3743.00,0.0006
3742.00,0.0006
3741.00,0.0006
3740.00,0.0006
3739.00,0.0005
3738.00,0.0005
3737.00,0.0004
3736.00,0.0004
3735.00,0.0003
3734.00,0.0003
3733.00,0.0003
3732.00,0.0003
3731.00,0.0004
3730.00,0.0004
3729.00,0.0004
3728.00,0.0004
3727.00,0.0004
3726.00,0.0005
3725.00,0.0005
3724.00,0.0005
3723.00,0.0004
3722.00,0.0004
3721.00,0.0004
3720.00,0.0004
3719.00,0.0004
3718.00,0.0004
3717.00,0.0004
3716.00,0.0004
3715.00,0.0004
3714.00,0.0005
3713.00,0.0005
3712.00,0.0004
3711.00,0.0004
3710.00,0.0004
3709.00,0.0004
3708.00,0.0004
3707.00,0.0004
3706.00,0.0004
3705.00,0.0003
3704.00,0.0003
3703.00,0.0004
3702.00,0.0004
3701.00,0.0004
3700.00,0.0004
3699.00,0.0004
3698.00,0.0005
3697.00,0.0005
3696.00,0.0005
3695.00,0.0005
3694.00,0.0005
3693.00,0.0005
3692.00,0.0005
3691.00,0.0005
3690.00,0.0005
3689.00,0.0005
3688.00,0.0004
3687.00,0.0004
3686.00,0.0004
3685.00,0.0004
3684.00,0.0004
3683.00,0.0004
3682.00,0.0004
3681.00,0.0005
3680.00,0.0005
3679.00,0.0005
3678.00,0.0004
3677.00,0.0004
3676.00,0.0004
3675.00,0.0004
3674.00,0.0003
3673.00,0.0002
3672.00,0.0002
3671.00,0.0003
3670.00,0.0003
3669.00,0.0003
3668.00,0.0003
3667.00,0.0003
3666.00,0.0003
3665.00,0.0003
3664.00,0.0003
3663.00,0.0003
3662.00,0.0003
3661.00,0.0003
3660.00,0.0003
3659.00,0.0003
3658.00,0.0002
3657.00,0.0001
3656.00,0.0001
3655.00,0.0001
3654.00,0.0001
3653.00,0.0001
3652.00,0.0002
3651.00,0.0001
3650.00,0.0001
3649.00,0.0000
3648.00,0.0001
3647.00,0.0001
3646.00,0.0002
3645.00,0.0002
3644.00,0.0002
3643.00,0.0003
3642.00,0.0003
3641.00,0.0003
3640.00,0.0002
3639.00,0.0002
3638.00,0.0002
3637.00,0.0002
3636.00,0.0002
3635.00,0.0002
3634.00,0.0002
3633.00,0.0002
3632.00,0.0001
3631.00,0.0001
3630.00,0.0000
3629.00,-0.0000
3628.00,-0.0001
3627.00,-0.0001
3626.00,-0.0001
3625.00,-0.0001
3624.00,-0.0001
3623.00,-0.0001
3622.00,-0.0000
3621.00,-0.0000
3620.00,0.0000
3619.00,0.0000
3618.00,0.0001
3617.00,0.0001
3616.00,0.0001
3615.00,0.0001
3614.00,0.0001
3613.00,0.0001
3612.00,0.0001
3611.00,0.0001
3610.00,0.0001
3609.00,0.0001
3608.00,0.0001
3607.00,0.0001
3606.00,0.0001
3605.00,0.0001
3604.00,0.0001
3603.00,0.0001
3602.00,0.0001
3601.00,0.0001
3600.00,0.0001
3599.00,0.0001
3598.00,0.0001
3597.00,0.0001
3596.00,0.0001
3595.00,0.0001
3594.00,0.0001
3593.00,0.0001
3592.00,0.0001
3591.00,0.0001
3590.00,0.0001
3589.00,0.0001
3588.00,0.0001
3587.00,0.0001
3586.00,0.0002
3585.00,0.0002
3584.00,0.0002
3583.00,0.0002
3582.00,0.0001
3581.00,0.0001
3580.00,0.0001
3579.00,0.0001
3578.00,0.0002
3577.00,0.0002
3576.00,0.0002
3575.00,0.0002
3574.00,0.0002
3573.00,0.0002
3572.00,0.0001
3571.00,0.0001
3570.00,0.0000
3569.00,0.0000
3568.00,-0.0000
3567.00,-0.0000
3566.00,0.0000
3565.00,0.0001
3564.00,0.0001
3563.00,0.0002
3562.00,0.0002
3561.00,0.0003
3560.00,0.0003
3559.00,0.0003
3558.00,0.0003
3557.00,0.0003
3556.00,0.0003
3555.00,0.0002
3554.00,0.0002
3553.00,0.0002
3552.00,0.0002
3551.00,0.0002
3550.00,0.0003
3549.00,0.0003
3548.00,0.0003
3547.00,0.0002
3546.00,0.0002
3545.00,0.0002
3544.00,0.0002
3543.00,0.0002
3542.00,0.0002
3541.00,0.0002
3540.00,0.0003
3539.00,0.0003
3538.00,0.0003
3537.00,0.0003
3536.00,0.0003
3535.00,0.0004
3534.00,0.0004
3533.00,0.0005
3532.00,0.0005
3531.00,0.0004
3530.00,0.0004
3529.00,0.0004
3528.00,0.0004
3527.00,0.0004
3526.00,0.0004
3525.00,0.0004
3524.00,0.0004
3523.00,0.0004
3522.00,0.0004
3521.00,0.0004
3520.00,0.0004
3519.00,0.0004
3518.00,0.0005
3517.00,0.0005
3516.00,0.0005
3515.00,0.0005
3514.00,0.0004
3513.00,0.0004
3512.00,0.0005
3511.00,0.0005
3510.00,0.0005
3509.00,0.0006
3508.00,0.0006
3507.00,0.0005
3506.00,0.0005
3505.00,0.0005
3504.00,0.0005
3503.00,0.0004
3502.00,0.0005
3501.00,0.0005
3500.00,0.0005
3499.00,0.0005
3498.00,0.0006
3497.00,0.0006
3496.00,0.0006
3495.00,0.0006
3494.00,0.0005
3493.00,0.0005
3492.00,0.0005
3491.00,0.0005
3490.00,0.0005
3489.00,0.0006
3488.00,0.0006
3487.00,0.0006
3486.00,0.0006
3485.00,0.0006
3484.00,0.0006
3483.00,0.0006
3482.00,0.0006
3481.00,0.0005
3480.00,0.0005
3479.00,0.0005
3478.00,0.0006
3477.00,0.0006
3476.00,0.0006
3475.00,0.0006
3474.00,0.0006
3473.00,0.0006
3472.00,0.0006
3471.00,0.0006
3470.00,0.0006
3469.00,0.0006
3468.00,0.0006
3467.00,0.0006
3466.00,0.0006
3465.00,0.0006
3464.00,0.0006
3463.00,0.0006
3462.00,0.0006
3461.00,0.0007
3460.00,0.0007
3459.00,0.0007
3458.00,0.0006
3457.00,0.0006
3456.00,0.0006
3455.00,0.0007
3454.00,0.0007
3453.00,0.0008
3452.00,0.0008
3451.00,0.0008
3450.00,0.0009
3449.00,0.0009
3448.00,0.0009
3447.00,0.0008
3446.00,0.0008
3445.00,0.0008
3444.00,0.0009
3443.00,0.0009
3442.00,0.0009
3441.00,0.0009
3440.00,0.0008
3439.00,0.0008
3438.00,0.0008
3437.00,0.0008
3436.00,0.0008
3435.00,0.0009
3434.00,0.0009
3433.00,0.0009
3432.00,0.0009
3431.00,0.0010
3430.00,0.0010
3429.00,0.0009
3428.00,0.0009
3427.00,0.0009
3426.00,0.0009
3425.00,0.0009
3424.00,0.0009
3423.00,0.0010
3422.00,0.0010
3421.00,0.0010
3420.00,0.0010
3419.00,0.0010
3418.00,0.0010
3417.00,0.0010
3416.00,0.0010
3415.00,0.0010
3414.00,0.0010
3413.00,0.0010
3412.00,0.0010
3411.00,0.0010
3410.00,0.0010
3409.00,0.0010
3408.00,0.0010
3407.00,0.0010
3406.00,0.0009
3405.00,0.0009
3404.00,0.0010
3403.00,0.0010
3402.00,0.0010
3401.00,0.0010
3400.00,0.0010
3399.00,0.0010
3398.00,0.0010
3397.00,0.0010
3396.00,0.0010
3395.00,0.0010
3394.00,0.0010
3393.00,0.0010
3392.00,0.0010
3391.00,0.0009
3390.00,0.0010
3389.00,0.0010
3388.00,0.0009
3387.00,0.0009
3386.00,0.0009
3385.00,0.0010
3384.00,0.0010
3383.00,0.0010
3382.00,0.0010
3381.00,0.0010
3380.00,0.0010
3379.00,0.0010
3378.00,0.0010
3377.00,0.0009
3376.00,0.0010
3375.00,0.0010
3374.00,0.0010
3373.00,0.0010
3372.00,0.0011
3371.00,0.0011
3370.00,0.0011
3369.00,0.0011
3368.00,0.0011
3367.00,0.0011
3366.00,0.0012
3365.00,0.0011
3364.00,0.0011
3363.00,0.0011
3362.00,0.0011
3361.00,0.0012
3360.00,0.0012
3359.00,0.0012
3358.00,0.0012
3357.00,0.0012
3356.00,0.0012
3355.00,0.0012
3354.00,0.0012
3353.00,0.0012
3352.00,0.0012
3351.00,0.0012
3350.00,0.0012
3349.00,0.0012
3348.00,0.0012
3347.00,0.0012
3346.00,0.0012
3345.00,0.0012
3344.00,0.0012
3343.00,0.0012
3342.00,0.0012
3341.00,0.0011
3340.00,0.0011
3339.00,0.0011
3338.00,0.0011
3337.00,0.0011
3336.00,0.0011
3335.00,0.0011
3334.00,0.0011
3333.00,0.0011
3332.00,0.0011
3331.00,0.0011
3330.00,0.0011
3329.00,0.0011
3328.00,0.0011
3327.00,0.0011
3326.00,0.0011
3325.00,0.0011
3324.00,0.0011
3323.00,0.0011
3322.00,0.0011
3321.00,0.0011
3320.00,0.0010
3319.00,0.0010
3318.00,0.0010
3317.00,0.0010
3316.00,0.0010
3315.00,0.0010
3314.00,0.0010
3313.00,0.0010
3312.00,0.0010
3311.00,0.0010
3310.00,0.0010
3309.00,0.0010
3308.00,0.0010
3307.00,0.0010
3306.00,0.0010
3305.00,0.0011
3304.00,0.0011
3303.00,0.0011
3302.00,0.0012
3301.00,0.0012
3300.00,0.0012
3299.00,0.0012
3298.00,0.0011
3297.00,0.0011
3296.00,0.0011
3295.00,0.0011
3294.00,0.0011
3293.00,0.0011
3292.00,0.0011
3291.00,0.0011
3290.00,0.0011
3289.00,0.0011
3288.00,0.0011
3287.00,0.0011
3286.00,0.0011
3285.00,0.0011
3284.00,0.0011
3283.00,0.0011
3282.00,0.0011
3281.00,0.0012
3280.00,0.0012
3279.00,0.0012
3278.00,0.0012
3277.00,0.0012
3276.00,0.0011
3275.00,0.0011
3274.00,0.0011
3273.00,0.0011
3272.00,0.0011
3271.00,0.0011
3270.00,0.0011
3269.00,0.0011
3268.00,0.0011
3267.00,0.0011
3266.00,0.0012
3265.00,0.0012
3264.00,0.0012
3263.00,0.0012
3262.00,0.0012
3261.00,0.0012
3260.00,0.0012
3259.00,0.0012
3258.00,0.0012
3257.00,0.0012
3256.00,0.0012
3255.00,0.0011
3254.00,0.0011
3253.00,0.0011
3252.00,0.0011
3251.00,0.0011
3250.00,0.0011
3249.00,0.0011
3248.00,0.0011
3247.00,0.0011
3246.00,0.0011
3245.00,0.0011
3244.00,0.0012
3243.00,0.0012
3242.00,0.0012
3241.00,0.0012
3240.00,0.0012
3239.00,0.0012
3238.00,0.0012
3237.00,0.0012
3236.00,0.0012
3235.00,0.0012
3234.00,0.0012
3233.00,0.0013
3232.00,0.0013
3231.00,0.0013
3230.00,0.0014
3229.00,0.0014
3228.00,0.0015
3227.00,0.0015
3226.00,0.0015
3225.00,0.0015
3224.00,0.0016
3223.00,0.0016
3222.00,0.0016
3221.00,0.0016
3220.00,0.0016
3219.00,0.0016
3218.00,0.0016
3217.00,0.0016
3216.00,0.0017
3215.00,0.0017
3214.00,0.0018
3213.00,0.0019
3212.00,0.0019
3211.00,0.0019
3210.00,0.0019
3209.00,0.0019
3208.00,0.0019
3207.00,0.0019
3206.00,0.0019
3205.00,0.0019
3204.00,0.0019
3203.00,0.0019
3202.00,0.0019
3201.00,0.0019
3200.00,0.0019
3199.00,0.0019
3198.00,0.0019
3197.00,0.0019
3196.00,0.0019
3195.00,0.0019
3194.00,0.0019
3193.00,0.0020
3192.00,0.0020
3191.00,0.0020
3190.00,0.0021
3189.00,0.0021
3188.00,0.0021
3187.00,0.0020
3186.00,0.0020
3185.00,0.0019
3184.00,0.0019
3183.00,0.0019
3182.00,0.0019
3181.00,0.0019
3180.00,0.0018
3179.00,0.0018
3178.00,0.0018
3177.00,0.0017
3176.00,0.0017
3175.00,0.0017
3174.00,0.0017
3173.00,0.0017
3172.00,0.0017
3171.00,0.0017
3170.00,0.0018
3169.00,0.0018
3168.00,0.0018
3167.00,0.0018
3166.00,0.0017
3165.00,0.0017
3164.00,0.0017
3163.00,0.0017
3162.00,0.0017
3161.00,0.0018
3160.00,0.0018
3159.00,0.0018
3158.00,0.0018
3157.00,0.0017
3156.00,0.0018
3155.00,0.0018
3154.00,0.0018
3153.00,0.0018
3152.00,0.0019
3151.00,0.0019
3150.00,0.0019
3149.00,0.0019
3148.00,0.0019
3147.00,0.0019
3146.00,0.0019
3145.00,0.0019
3144.00,0.0019
3143.00,0.0019
3142.00,0.0019
3141.00,0.0019
3140.00,0.0019
3139.00,0.0019
3138.00,0.0019
3137.00,0.0019
3136.00,0.0019
3135.00,0.0019
3134.00,0.0019
3133.00,0.0019
3132.00,0.0018
3131.00,0.0018
3130.00,0.0017
3129.00,0.0017
3128.00,0.0016
3127.00,0.0016
3126.00,0.0016
3125.00,0.0016
3124.00,0.0016
3123.00,0.0016
3122.00,0.0015
3121.00,0.0015
3120.00,0.0015
3119.00,0.0015
3118.00,0.0015
3117.00,0.0014
3116.00,0.0014
3115.00,0.0014
3114.00,0.0015
3113.00,0.0015
3112.00,0.0015
3111.00,0.0015
3110.00,0.0015
3109.00,0.0015
3108.00,0.0015
3107.00,0.0015
3106.00,0.0016
3105.00,0.0016
3104.00,0.0016
3103.00,0.0015
3102.00,0.0015
3101.00,0.0015
3100.00,0.0015
3099.00,0.0015
3098.00,0.0015
3097.00,0.0015
3096.00,0.0015
3095.00,0.0015
3094.00,0.0015
3093.00,0.0015
3092.00,0.0015
3091.00,0.0015
3090.00,0.0015
3089.00,0.0015
3088.00,0.0015
3087.00,0.0015
3086.00,0.0015
3085.00,0.0015
3084.00,0.0015
3083.00,0.0015
3082.00,0.0015
3081.00,0.0015
3080.00,0.0015
3079.00,0.0015
3078.00,0.0015
3077.00,0.0015
3076.00,0.0016
3075.00,0.0016
3074.00,0.0016
3073.00,0.0016
3072.00,0.0016
3071.00,0.0016
3070.00,0.0017
3069.00,0.0017
3068.00,0.0017
3067.00,0.0017
3066.00,0.0017
3065.00,0.0017
3064.00,0.0017
3063.00,0.0017
3062.00,0.0018
3061.00,0.0018
3060.00,0.0018
3059.00,0.0019
3058.00,0.0019
3057.00,0.0019
3056.00,0.0019
3055.00,0.0019
3054.00,0.0020
3053.00,0.0020
3052.00,0.0021
3051.00,0.0021
3050.00,0.0021
3049.00,0.0021
3048.00,0.0021
3047.00,0.0021
3046.00,0.0021
3045.00,0.0021
3044.00,0.0021
3043.00,0.0022
3042.00,0.0022
3041.00,0.0023
3040.00,0.0023
3039.00,0.0023
3038.00,0.0024
3037.00,0.0024
3036.00,0.0024
3035.00,0.0024
3034.00,0.0024
3033.00,0.0024
3032.00,0.0025
3031.00,0.0026
3030.00,0.0026
3029.00,0.0027
3028.00,0.0027
3027.00,0.0028
3026.00,0.0028
3025.00,0.0029
3024.00,0.0029
3023.00,0.0030
3022.00,0.0031
3021.00,0.0032
3020.00,0.0033
3019.00,0.0034
3018.00,0.0035
3017.00,0.0036
3016.00,0.0037
3015.00,0.0038
3014.00,0.0039
3013.00,0.0041
3012.00,0.0042
3011.00,0.0044
3010.00,0.0045
3009.00,0.0046
3008.00,0.0047
3007.00,0.0049
3006.00,0.0052
3005.00,0.0054
3004.00,0.0057
3003.00,0.0059
3002.00,0.0062
3001.00,0.0064
3000.00,0.0067
2999.00,0.0070
2998.00,0.0074
2997.00,0.0077
2996.00,0.0081
2995.00,0.0085
2994.00,0.0090
2993.00,0.0095
2992.00,0.0100
2991.00,0.0106
2990.00,0.0112
2989.00,0.0119
2988.00,0.0127
2987.00,0.0136
2986.00,0.0147
2985.00,0.0158
2984.00,0.0171
2983.00,0.0185
2982.00,0.0200
2981.00,0.0218
2980.00,0.0237
2979.00,0.0259
2978.00,0.0284
2977.00,0.0312
2976.00,0.0345
2975.00,0.0382
2974.00,0.0424
2973.00,0.0472
2972.00,0.0525
2971.00,0.0583
2970.00,0.0648
2969.00,0.0718
2968.00,0.0794
2967.00,0.0873
2966.00,0.0955
2965.00,0.1036
2964.00,0.1113
2963.00,0.1183
2962.00,0.1244
2961.00,0.1296
2960.00,0.1342
2959.00,0.1387
2958.00,0.1436
2957.00,0.1494
2956.00,0.1566
2955.00,0.1652
2954.00,0.1751
2953.00,0.1856
2952.00,0.1956
2951.00,0.2040
2950.00,0.2092
2949.00,0.2101
2948.00,0.2059
2947.00,0.1967
2946.00,0.1837
2945.00,0.1685
2944.00,0.1531
2943.00,0.1391
2942.00,0.1275
2941.00,0.1189
2940.00,0.1134
2939.00,0.1106
2938.00,0.1103
2937.00,0.1122
2936.00,0.1162
2935.00,0.1220
2934.00,0.1294
2933.00,0.1384
2932.00,0.1488
2931.00,0.1602
2930.00,0.1725
2929.00,0.1852
2928.00,0.1981
2927.00,0.2107
2926.00,0.2230
2925.00,0.2349
2924.00,0.2467
2923.00,0.2584
2922.00,0.2701
2921.00,0.2817
2920.00,0.2923
2919.00,0.3010
2918.00,0.3063
2917.00,0.3073
2916.00,0.3034
2915.00,0.2953
2914.00,0.2839
2913.00,0.2709
2912.00,0.2573
2911.00,0.2443
2910.00,0.2322
2909.00,0.2211
2908.00,0.2108
2907.00,0.2012
2906.00,0.1921
2905.00,0.1832
2904.00,0.1745
2903.00,0.1661
2902.00,0.1580
2901.00,0.1503
2900.00,0.1431
2899.00,0.1364
2898.00,0.1302
2897.00,0.1247
2896.00,0.1200
2895.00,0.1160
2894.00,0.1128
2893.00,0.1104
2892.00,0.1088
2891.00,0.1079
2890.00,0.1076
2889.00,0.1078
2888.00,0.1085
2887.00,0.1096
2886.00,0.1111
2885.00,0.1131
2884.00,0.1155
2883.00,0.1186
2882.00,0.1221
2881.00,0.1261
2880.00,0.1301
2879.00,0.1336
2878.00,0.1360
2877.00,0.1372
2876.00,0.1370
2875.00,0.1360
2874.00,0.1349
2873.00,0.1344
2872.00,0.1348
2871.00,0.1362
2870.00,0.1385
2869.00,0.1410
2868.00,0.1429
2867.00,0.1430
2866.00,0.1403
2865.00,0.1344
2864.00,0.1253
2863.00,0.1142
2862.00,0.1024
2861.00,0.0911
2860.00,0.0812
2859.00,0.0732
2858.00,0.0670
2857.00,0.0624
2856.00,0.0593
2855.00,0.0574
2854.00,0.0566
2853.00,0.0568
2852.00,0.0577
2851.00,0.0594
2850.00,0.0618
2849.00,0.0649
2848.00,0.0687
2847.00,0.0733
2846.00,0.0787
2845.00,0.0852
2844.00,0.0925
2843.00,0.1004
2842.00,0.1085
2841.00,0.1163
2840.00,0.1228
2839.00,0.1272
2838.00,0.1285
2837.00,0.1261
2836.00,0.1200
2835.00,0.1108
2834.00,0.0996
2833.00,0.0877
2832.00,0.0763
2831.00,0.0662
2830.00,0.0577
2829.00,0.0507
2828.00,0.0450
2827.00,0.0405
2826.00,0.0368
2825.00,0.0338
2824.00,0.0313
2823.00,0.0292
2822.00,0.0275
2821.00,0.0260
2820.00,0.0247
2819.00,0.0236
2818.00,0.0227
2817.00,0.0218
2816.00,0.0210
2815.00,0.0203
2814.00,0.0197
2813.00,0.0191
2812.00,0.0185
2811.00,0.0180
2810.00,0.0174
2809.00,0.0168
2808.00,0.0161
2807.00,0.0154
2806.00,0.0147
2805.00,0.0140
2804.00,0.0133
2803.00,0.0127
2802.00,0.0121
2801.00,0.0116
2800.00,0.0112
2799.00,0.0109
2798.00,0.0106
2797.00,0.0103
2796.00,0.0100
2795.00,0.0098
2794.00,0.0095
2793.00,0.0093
2792.00,0.0090
2791.00,0.0087
2790.00,0.0084
2789.00,0.0081
2788.00,0.0078
2787.00,0.0075
2786.00,0.0073
2785.00,0.0070
2784.00,0.0069
2783.00,0.0067
2782.00,0.0065
2781.00,0.0063
2780.00,0.0061
2779.00,0.0059
2778.00,0.0058
2777.00,0.0057
2776.00,0.0056
2775.00,0.0055
2774.00,0.0054
2773.00,0.0053
2772.00,0.0053
2771.00,0.0052
2770.00,0.0052
2769.00,0.0052
2768.00,0.0052
2767.00,0.0052
2766.00,0.0051
2765.00,0.0051
2764.00,0.0050
2763.00,0.0050
2762.00,0.0050
2761.00,0.0050
2760.00,0.0049
2759.00,0.0049
2758.00,0.0048
2757.00,0.0048
2756.00,0.0049
2755.00,0.0049
2754.00,0.0048
2753.00,0.0048
2752.00,0.0048
2751.00,0.0047
2750.00,0.0047
2749.00,0.0047
2748.00,0.0047
2747.00,0.0048
2746.00,0.0049
2745.00,0.0049
2744.00,0.0050
2743.00,0.0051
2742.00,0.0052
2741.00,0.0053
2740.00,0.0055
2739.00,0.0057
2738.00,0.0058
2737.00,0.0060
2736.00,0.0062
2735.00,0.0064
2734.00,0.0066
2733.00,0.0068
2732.00,0.0070
2731.00,0.0072
2730.00,0.0075
2729.00,0.0078
2728.00,0.0081
2727.00,0.0084
2726.00,0.0087
2725.00,0.0090
2724.00,0.0092
2723.00,0.0092
2722.00,0.0091
2721.00,0.0089
2720.00,0.0086
2719.00,0.0082
2718.00,0.0078
2717.00,0.0074
2716.00,0.0071
2715.00,0.0068
2714.00,0.0065
2713.00,0.0063
2712.00,0.0060
2711.00,0.0058
2710.00,0.0056
2709.00,0.0054
2708.00,0.0052
2707.00,0.0050
2706.00,0.0049
2705.00,0.0048
2704.00,0.0046
2703.00,0.0045
2702.00,0.0044
2701.00,0.0043
2700.00,0.0042
2699.00,0.0041
2698.00,0.0041
2697.00,0.0041
2696.00,0.0041
2695.00,0.0041
2694.00,0.0041
2693.00,0.0041
2692.00,0.0041
2691.00,0.0041
2690.00,0.0041
2689.00,0.0041
2688.00,0.0041
2687.00,0.0041
2686.00,0.0041
2685.00,0.0041
2684.00,0.0042
2683.00,0.0042
2682.00,0.0042
2681.00,0.0043
2680.00,0.0043
2679.00,0.0043
2678.00,0.0043
2677.00,0.0043
2676.00,0.0043
2675.00,0.0042
2674.00,0.0042
2673.00,0.0042
2672.00,0.0042
2671.00,0.0042
2670.00,0.0042
2669.00,0.0042
2668.00,0.0042
2667.00,0.0042
2666.00,0.0042
2665.00,0.0043
2664.00,0.0044
2663.00,0.0044
2662.00,0.0045
2661.00,0.0045
2660.00,0.0046
2659.00,0.0046
2658.00,0.0045
2657.00,0.0045
2656.00,0.0044
2655.00,0.0044
2654.00,0.0044
2653.00,0.0043
2652.00,0.0042
2651.00,0.0042
2650.00,0.0041
2649.00,0.0040
2648.00,0.0040
2647.00,0.0040
2646.00,0.0039
2645.00,0.0039
2644.00,0.0039
2643.00,0.0038
2642.00,0.0038
2641.00,0.0037
2640.00,0.0037
2639.00,0.0036
2638.00,0.0036
2637.00,0.0035
2636.00,0.0036
2635.00,0.0036
2634.00,0.0036
2633.00,0.0036
2632.00,0.0036
2631.00,0.0036
2630.00,0.0036
2629.00,0.0036
2628.00,0.0036
2627.00,0.0036
2626.00,0.0036
2625.00,0.0037
2624.00,0.0037
2623.00,0.0038
2622.00,0.0039
2621.00,0.0039
2620.00,0.0040
2619.00,0.0040
2618.00,0.0039
2617.00,0.0039
2616.00,0.0038
2615.00,0.0038
2614.00,0.0038
2613.00,0.0038
2612.00,0.0038
2611.00,0.0037
2610.00,0.0037
2609.00,0.0036
2608.00,0.0036
2607.00,0.0035
2606.00,0.0034
2605.00,0.0033
2604.00,0.0033
2603.00,0.0032
2602.00,0.0032
2601.00,0.0031
2600.00,0.0030
2599.00,0.0030
2598.00,0.0031
2597.00,0.0031
2596.00,0.0031
2595.00,0.0031
2594.00,0.0031
2593.00,0.0032
2592.00,0.0033
2591.00,0.0034
2590.00,0.0035
2589.00,0.0036
2588.00,0.0037
2587.00,0.0038
2586.00,0.0039
2585.00,0.0040
2584.00,0.0041
2583.00,0.0042
2582.00,0.0042
2581.00,0.0042
2580.00,0.0041
2579.00,0.0040
2578.00,0.0038
2577.00,0.0036
2576.00,0.0034
2575.00,0.0033
2574.00,0.0031
2573.00,0.0030
2572.00,0.0029
2571.00,0.0028
2570.00,0.0027
2569.00,0.0026
2568.00,0.0026
2567.00,0.0026
2566.00,0.0025
2565.00,0.0024
2564.00,0.0023
2563.00,0.0022
2562.00,0.0022
2561.00,0.0023
2560.00,0.0023
2559.00,0.0024
2558.00,0.0024
2557.00,0.0024
2556.00,0.0023
2555.00,0.0022
2554.00,0.0021
2553.00,0.0020
2552.00,0.0020
2551.00,0.0020
2550.00,0.0020
2549.00,0.0019
2548.00,0.0019
2547.00,0.0018
2546.00,0.0017
2545.00,0.0017
2544.00,0.0016
2543.00,0.0015
2542.00,0.0015
2541.00,0.0014
2540.00,0.0014
2539.00,0.0014
2538.00,0.0015
2537.00,0.0015
2536.00,0.0015
2535.00,0.0014
2534.00,0.0014
2533.00,0.0013
2532.00,0.0013
2531.00,0.0013
2530.00,0.0013
2529.00,0.0013
2528.00,0.0013
2527.00,0.0013
2526.00,0.0013
2525.00,0.0012
2524.00,0.0012
2523.00,0.0012
2522.00,0.0012
2521.00,0.0012
2520.00,0.0012
2519.00,0.0011
2518.00,0.0011
2517.00,0.0010
2516.00,0.0010
2515.00,0.0010
2514.00,0.0010
2513.00,0.0009
2512.00,0.0009
2511.00,0.0008
2510.00,0.0008
2509.00,0.0008
2508.00,0.0008
2507.00,0.0009
2506.00,0.0009
2505.00,0.0010
2504.00,0.0010
2503.00,0.0009
2502.00,0.0009
2501.00,0.0008
2500.00,0.0008
2499.00,0.0008
2498.00,0.0008
2497.00,0.0008
2496.00,0.0009
2495.00,0.0009
2494.00,0.0009
2493.00,0.0009
2492.00,0.0009
2491.00,0.0009
2490.00,0.0009
2489.00,0.0009
2488.00,0.0009
2487.00,0.0009
2486.00,0.0009
2485.00,0.0009
2484.00,0.0009
2483.00,0.0009
2482.00,0.0009
2481.00,0.0009
2480.00,0.0010
2479.00,0.0010
2478.00,0.0010
2477.00,0.0009
2476.00,0.0009
2475.00,0.0008
2474.00,0.0008
2473.00,0.0008
2472.00,0.0008
2471.00,0.0008
2470.00,0.0008
2469.00,0.0007
2468.00,0.0007
2467.00,0.0007
2466.00,0.0007
2465.00,0.0008
2464.00,0.0008
2463.00,0.0009
2462.00,0.0009
2461.00,0.0009
2460.00,0.0009
2459.00,0.0009
2458.00,0.0009
2457.00,0.0010
2456.00,0.0010
2455.00,0.0011
2454.00,0.0011
2453.00,0.0011
2452.00,0.0010
2451.00,0.0009
2450.00,0.0009
2449.00,0.0009
2448.00,0.0009
2447.00,0.0009
2446.00,0.0008
2445.00,0.0008
2444.00,0.0008
2443.00,0.0007
2442.00,0.0008
2441.00,0.0008
2440.00,0.0009
2439.00,0.0008
2438.00,0.0008
2437.00,0.0008
2436.00,0.0009
2435.00,0.0010
2434.00,0.0011
2433.00,0.0011
2432.00,0.0011
2431.00,0.0010
2430.00,0.0010
2429.00,0.0010
2428.00,0.0011
2427.00,0.0012
2426.00,0.0012
2425.00,0.0012
2424.00,0.0011
2423.00,0.0010
2422.00,0.0009
2421.00,0.0008
2420.00,0.0008
2419.00,0.0008
2418.00,0.0008
2417.00,0.0008
2416.00,0.0008
2415.00,0.0007
2414.00,0.0007
2413.00,0.0007
2412.00,0.0008
2411.00,0.0008
2410.00,0.0008
2409.00,0.0007
2408.00,0.0007
2407.00,0.0006
2406.00,0.0006
2405.00,0.0006
2404.00,0.0006
2403.00,0.0007
2402.00,0.0007
2401.00,0.0007
2400.00,0.0007
2399.00,0.0007
2398.00,0.0007
2397.00,0.0006
2396.00,0.0006
2395.00,0.0005
2394.00,0.0005
2393.00,0.0005
2392.00,0.0005
2391.00,0.0005
2390.00,0.0005
2389.00,0.0005
2388.00,0.0005
2387.00,0.0005
2386.00,0.0005
2385.00,0.0005
2384.00,0.0004
2383.00,0.0004
2382.00,0.0003
2381.00,0.0003
2380.00,0.0003
2379.00,0.0003
2378.00,0.0003
2377.00,0.0003
2376.00,0.0003
2375.00,0.0003
2374.00,0.0003
2373.00,0.0002
2372.00,0.0002
2371.00,0.0001
2370.00,0.0001
2369.00,0.0001
2368.00,0.0000
2367.00,0.0000
2366.00,0.0000
2365.00,0.0001
2364.00,0.0001
2363.00,0.0001
2362.00,0.0002
2361.00,0.0003
2360.00,0.0004
2359.00,0.0004
2358.00,0.0004
2357.00,0.0005
2356.00,0.0005
2355.00,0.0005
2354.00,0.0004
2353.00,0.0003
2352.00,0.0003
2351.00,0.0003
2350.00,0.0003
2349.00,0.0004
2348.00,0.0004
2347.00,0.0004
2346.00,0.0004
2345.00,0.0004
2344.00,0.0004
2343.00,0.0005
2342.00,0.0005
2341.00,0.0005
2340.00,0.0006
2339.00,0.0006
2338.00,0.0007
2337.00,0.0007
2336.00,0.0007
2335.00,0.0007
2334.00,0.0006
2333.00,0.0006
2332.00,0.0005
2331.00,0.0005
2330.00,0.0004
2329.00,0.0005
2328.00,0.0007
2327.00,0.0011
2326.00,0.0015
2325.00,0.0019
2324.00,0.0020
2323.00,0.0020
2322.00,0.0018
2321.00,0.0016
2320.00,0.0014
2319.00,0.0013
2318.00,0.0013
2317.00,0.0012
2316.00,0.0012
2315.00,0.0011
2314.00,0.0011
2313.00,0.0010
2312.00,0.0009
2311.00,0.0008
2310.00,0.0008
2309.00,0.0008
2308.00,0.0009
2307.00,0.0009
2306.00,0.0009
2305.00,0.0009
2304.00,0.0008
2303.00,0.0008
2302.00,0.0009
2301.00,0.0009
2300.00,0.0009
2299.00,0.0009
2298.00,0.0010
2297.00,0.0011
2296.00,0.0011
2295.00,0.0012
2294.00,0.0012
2293.00,0.0013
2292.00,0.0013
2291.00,0.0013
2290.00,0.0014
2289.00,0.0014
2288.00,0.0014
2287.00,0.0014
2286.00,0.0015
2285.00,0.0015
2284.00,0.0015
2283.00,0.0014
2282.00,0.0014
2281.00,0.0014
2280.00,0.0013
2279.00,0.0012
2278.00,0.0012
2277.00,0.0011
2276.00,0.0011
2275.00,0.0011
2274.00,0.0012
2273.00,0.0012
2272.00,0.0012
2271.00,0.0012
2270.00,0.0012
2269.00,0.0013
2268.00,0.0013
2267.00,0.0013
2266.00,0.0012
2265.00,0.0010
2264.00,0.0009
2263.00,0.0009
2262.00,0.0010
2261.00,0.0012
2260.00,0.0013
2259.00,0.0013
2258.00,0.0012
2257.00,0.0011
2256.00,0.0009
2255.00,0.0007
2254.00,0.0007
2253.00,0.0007
2252.00,0.0008
2251.00,0.0008
2250.00,0.0009
2249.00,0.0009
2248.00,0.0008
2247.00,0.0008
2246.00,0.0008
2245.00,0.0008
2244.00,0.0009
2243.00,0.0008
2242.00,0.0008
2241.00,0.0007
2240.00,0.0006
2239.00,0.0006
2238.00,0.0006
2237.00,0.0007
2236.00,0.0008
2235.00,0.0009
2234.00,0.0009
2233.00,0.0009
2232.00,0.0008
2231.00,0.0007
2230.00,0.0006
2229.00,0.0005
2228.00,0.0004
2227.00,0.0004
2226.00,0.0004
2225.00,0.0005
2224.00,0.0005
2223.00,0.0006
2222.00,0.0006
2221.00,0.0005
2220.00,0.0004
2219.00,0.0003
2218.00,0.0003
2217.00,0.0003
2216.00,0.0004
2215.00,0.0005
2214.00,0.0005
2213.00,0.0005
2212.00,0.0005
2211.00,0.0004
2210.00,0.0003
2209.00,0.0004
2208.00,0.0005
2207.00,0.0007
2206.00,0.0008
2205.00,0.0008
2204.00,0.0008
2203.00,0.0008
2202.00,0.0007
2201.00,0.0007
2200.00,0.0006
2199.00,0.0004
2198.00,0.0003
2197.00,0.0003
2196.00,0.0004
2195.00,0.0005
2194.00,0.0006
2193.00,0.0006
2192.00,0.0008
2191.00,0.0009
2190.00,0.0010
2189.00,0.0010
2188.00,0.0010
2187.00,0.0009
2186.00,0.0008
2185.00,0.0007
2184.00,0.0006
2183.00,0.0005
2182.00,0.0005
2181.00,0.0007
2180.00,0.0008
2179.00,0.0009
2178.00,0.0008
2177.00,0.0006
2176.00,0.0003
2175.00,0.0002
2174.00,0.0002
2173.00,0.0003
2172.00,0.0005
2171.00,0.0007
2170.00,0.0009
2169.00,0.0011
2168.00,0.0012
2167.00,0.0013
2166.00,0.0014
2165.00,0.0016
2164.00,0.0018
2163.00,0.0018
2162.00,0.0015
2161.00,0.0008
2160.00,-0.0004
2159.00,-0.0017
2158.00,-0.0027
2157.00,-0.0031
2156.00,-0.0031
2155.00,-0.0028
2154.00,-0.0024
2153.00,-0.0020
2152.00,-0.0016
2151.00,-0.0014
2150.00,-0.0013
2149.00,-0.0013
2148.00,-0.0015
2147.00,-0.0017
2146.00,-0.0018
2145.00,-0.0018
2144.00,-0.0017
2143.00,-0.0015
2142.00,-0.0013
2141.00,-0.0012
2140.00,-0.0013
2139.00,-0.0016
2138.00,-0.0018
2137.00,-0.0019
2136.00,-0.0020
2135.00,-0.0022
2134.00,-0.0024
2133.00,-0.0024
2132.00,-0.0022
2131.00,-0.0019
2130.00,-0.0016
2129.00,-0.0014
2128.00,-0.0012
2127.00,-0.0011
2126.00,-0.0010
2125.00,-0.0010
2124.00,-0.0010
2123.00,-0.0010
2122.00,-0.0009
2121.00,-0.0007
2120.00,-0.0005
2119.00,-0.0004
2118.00,-0.0004
2117.00,-0.0003
2116.00,-0.0002
2115.00,-0.0000
2114.00,0.0001
2113.00,0.0002
2112.00,0.0002
2111.00,0.0001
2110.00,-0.0000
2109.00,-0.0001
2108.00,-0.0001
2107.00,-0.0001
2106.00,-0.0000
2105.00,-0.0000
2104.00,-0.0001
2103.00,-0.0001
2102.00,-0.0001
2101.00,0.0001
2100.00,0.0002
2099.00,0.0002
2098.00,0.0001
2097.00,-0.0000
2096.00,-0.0002
2095.00,-0.0004
2094.00,-0.0006
2093.00,-0.0006
2092.00,-0.0006
2091.00,-0.0005
2090.00,-0.0004
2089.00,-0.0003
2088.00,-0.0002
2087.00,-0.0001
2086.00,0.0001
2085.00,0.0002
2084.00,0.0003
2083.00,0.0002
2082.00,0.0001
2081.00,0.0001
2080.00,0.0001
2079.00,0.0001
2078.00,0.0002
2077.00,0.0002
2076.00,0.0002
2075.00,0.0002
2074.00,0.0001
2073.00,-0.0000
2072.00,-0.0001
2071.00,-0.0003
2070.00,-0.0004
2069.00,-0.0004
2068.00,-0.0004
2067.00,-0.0004
2066.00,-0.0005
2065.00,-0.0005
2064.00,-0.0004
2063.00,-0.0002
2062.00,-0.0002
2061.00,-0.0002
2060.00,-0.0001
2059.00,-0.0000
2058.00,0.0002
2057.00,0.0003
2056.00,0.0004
2055.00,0.0004
2054.00,0.0005
2053.00,0.0006
2052.00,0.0009
2051.00,0.0010
2050.00,0.0009
2049.00,0.0005
2048.00,0.0001
2047.00,-0.0002
2046.00,-0.0002
2045.00,-0.0001
2044.00,-0.0000
2043.00,-0.0000
2042.00,-0.0001
2041.00,-0.0003
2040.00,-0.0005
2039.00,-0.0006
2038.00,-0.0008
2037.00,-0.0009
2036.00,-0.0011
2035.00,-0.0012
2034.00,-0.0013
2033.00,-0.0011
2032.00,-0.0008
2031.00,-0.0006
2030.00,-0.0006
2029.00,-0.0007
2028.00,-0.0010
2027.00,-0.0012
2026.00,-0.0013
2025.00,-0.0014
2024.00,-0.0015
2023.00,-0.0015
2022.00,-0.0016
2021.00,-0.0016
2020.00,-0.0015
2019.00,-0.0012
2018.00,-0.0007
2017.00,-0.0003
2016.00,-0.0003
2015.00,-0.0006
2014.00,-0.0010
2013.00,-0.0014
2012.00,-0.0016
2011.00,-0.0015
2010.00,-0.0013
2009.00,-0.0012
2008.00,-0.0014
2007.00,-0.0018
2006.00,-0.0022
2005.00,-0.0023
2004.00,-0.0022
2003.00,-0.0019
2002.00,-0.0018
2001.00,-0.0018
2000.00,-0.0019
1999.00,-0.0018
1998.00,-0.0017
1997.00,-0.0016
1996.00,-0.0016
1995.00,-0.0018
1994.00,-0.0020
1993.00,-0.0021
1992.00,-0.0020
1991.00,-0.0016
1990.00,-0.0011
1989.00,-0.0006
1988.00,-0.0003
1987.00,-0.0002
1986.00,-0.0002
1985.00,-0.0002
1984.00,-0.0001
1983.00,-0.0000
1982.00,0.0002
1981.00,0.0005
1980.00,0.0006
1979.00,0.0003
1978.00,-0.0003
1977.00,-0.0009
1976.00,-0.0012
1975.00,-0.0015
1974.00,-0.0017
1973.00,-0.0018
1972.00,-0.0018
1971.00,-0.0016
1970.00,-0.0015
1969.00,-0.0015
1968.00,-0.0016
1967.00,-0.0017
1966.00,-0.0016
1965.00,-0.0013
1964.00,-0.0012
1963.00,-0.0013
1962.00,-0.0017
1961.00,-0.0021
1960.00,-0.0022
1959.00,-0.0022
1958.00,-0.0021
1957.00,-0.0021
1956.00,-0.0021
1955.00,-0.0021
1954.00,-0.0020
1953.00,-0.0019
1952.00,-0.0017
1951.00,-0.0016
1950.00,-0.0015
1949.00,-0.0016
1948.00,-0.0018
1947.00,-0.0020
1946.00,-0.0021
1945.00,-0.0022
1944.00,-0.0022
1943.00,-0.0021
1942.00,-0.0020
1941.00,-0.0018
1940.00,-0.0016
1939.00,-0.0015
1938.00,-0.0014
1937.00,-0.0013
1936.00,-0.0013
1935.00,-0.0014
1934.00,-0.0014
1933.00,-0.0013
1932.00,-0.0011
1931.00,-0.0010
1930.00,-0.0010
1929.00,-0.0011
1928.00,-0.0011
1927.00,-0.0011
1926.00,-0.0010
1925.00,-0.0009
1924.00,-0.0007
1923.00,-0.0008
1922.00,-0.0009
1921.00,-0.0009
1920.00,-0.0009
1919.00,-0.0009
1918.00,-0.0008
1917.00,-0.0007
1916.00,-0.0006
1915.00,-0.0005
1914.00,-0.0006
1913.00,-0.0006
1912.00,-0.0006
1911.00,-0.0007
1910.00,-0.0006
1909.00,-0.0006
1908.00,-0.0005
1907.00,-0.0005
1906.00,-0.0006
1905.00,-0.0006
1904.00,-0.0007
1903.00,-0.0006
1902.00,-0.0006
1901.00,-0.0006
1900.00,-0.0005
1899.00,-0.0006
1898.00,-0.0006
1897.00,-0.0006
1896.00,-0.0005
1895.00,-0.0005
1894.00,-0.0004
1893.00,-0.0004
1892.00,-0.0004
1891.00,-0.0003
1890.00,-0.0002
1889.00,-0.0002
1888.00,-0.0002
1887.00,-0.0002
1886.00,-0.0003
1885.00,-0.0004
1884.00,-0.0004
1883.00,-0.0004
1882.00,-0.0003
1881.00,-0.0003
1880.00,-0.0003
1879.00,-0.0003
1878.00,-0.0004
1877.00,-0.0004
1876.00,-0.0004
1875.00,-0.0003
1874.00,-0.0003
1873.00,-0.0003
1872.00,-0.0004
1871.00,-0.0004
1870.00,-0.0004
1869.00,-0.0004
1868.00,-0.0004
1867.00,-0.0004
1866.00,-0.0005
1865.00,-0.0005
1864.00,-0.0004
1863.00,-0.0004
1862.00,-0.0004
1861.00,-0.0004
1860.00,-0.0003
1859.00,-0.0002
1858.00,-0.0002
1857.00,-0.0002
1856.00,-0.0003
1855.00,-0.0003
1854.00,-0.0004
1853.00,-0.0004
1852.00,-0.0004
1851.00,-0.0004
1850.00,-0.0003
1849.00,-0.0003
1848.00,-0.0002
1847.00,-0.0002
1846.00,-0.0001
1845.00,-0.0001
1844.00,-0.0001
1843.00,-0.0000
1842.00,-0.0000
1841.00,-0.0000
1840.00,-0.0001
1839.00,-0.0001
1838.00,-0.0001
1837.00,-0.0001
1836.00,-0.0000
1835.00,-0.0000
1834.00,-0.0001
1833.00,-0.0001
1832.00,-0.0001
1831.00,-0.0001
1830.00,-0.0001
1829.00,-0.0001
1828.00,-0.0001
1827.00,-0.0001
1826.00,-0.0001
1825.00,0.0000
1824.00,0.0002
1823.00,0.0002
1822.00,0.0002
1821.00,0.0001
1820.00,-0.0000
1819.00,-0.0002
1818.00,-0.0003
1817.00,-0.0003
1816.00,-0.0003
1815.00,-0.0002
1814.00,-0.0002
1813.00,-0.0001
1812.00,-0.0001
1811.00,-0.0000
1810.00,0.0000
1809.00,0.0000
1808.00,0.0000
1807.00,0.0000
1806.00,-0.0000
1805.00,-0.0000
1804.00,-0.0000
1803.00,0.0000
1802.00,0.0000
1801.00,0.0000
1800.00,0.0000
1799.00,0.0001
1798.00,0.0001
1797.00,0.0001
1796.00,0.0002
1795.00,0.0002
1794.00,0.0002
1793.00,0.0002
1792.00,0.0003
1791.00,0.0003
1790.00,0.0003
1789.00,0.0003
1788.00,0.0004
1787.00,0.0004
1786.00,0.0004
1785.00,0.0004
1784.00,0.0004
1783.00,0.0004
1782.00,0.0004
1781.00,0.0004
1780.00,0.0004
1779.00,0.0004
1778.00,0.0004
1777.00,0.0004
1776.00,0.0004
1775.00,0.0004
1774.00,0.0004
1773.00,0.0004
1772.00,0.0004
1771.00,0.0005
1770.00,0.0005
1769.00,0.0005
1768.00,0.0005
1767.00,0.0005
1766.00,0.0005
1765.00,0.0006
1764.00,0.0006
1763.00,0.0007
1762.00,0.0007
1761.00,0.0007
1760.00,0.0007
1759.00,0.0007
1758.00,0.0007
1757.00,0.0008
1756.00,0.0009
1755.00,0.0010
1754.00,0.0010
1753.00,0.0010
1752.00,0.0010
1751.00,0.0010
1750.00,0.0010
1749.00,0.0011
1748.00,0.0011
1747.00,0.0011
1746.00,0.0011
1745.00,0.0011
1744.00,0.0010
1743.00,0.0010
1742.00,0.0010
1741.00,0.0010
1740.00,0.0010
1739.00,0.0010
1738.00,0.0011
1737.00,0.0011
1736.00,0.0011
1735.00,0.0011
1734.00,0.0011
1733.00,0.0011
1732.00,0.0010
1731.00,0.0010
1730.00,0.0011
1729.00,0.0011
1728.00,0.0012
1727.00,0.0013
1726.00,0.0013
1725.00,0.0013
1724.00,0.0014
1723.00,0.0014
1722.00,0.0014
1721.00,0.0013
1720.00,0.0013
1719.00,0.0012
1718.00,0.0012
1717.00,0.0012
1716.00,0.0013
1715.00,0.0014
1714.00,0.0014
1713.00,0.0014
1712.00,0.0015
1711.00,0.0015
1710.00,0.0015
1709.00,0.0016
1708.00,0.0016
1707.00,0.0016
1706.00,0.0016
1705.00,0.0017
1704.00,0.0017
1703.00,0.0017
1702.00,0.0017
1701.00,0.0017
1700.00,0.0017
1699.00,0.0018
1698.00,0.0018
1697.00,0.0019
1696.00,0.0020
1695.00,0.0020
1694.00,0.0020
1693.00,0.0019
1692.00,0.0019
1691.00,0.0019
1690.00,0.0019
1689.00,0.0020
1688.00,0.0020
1687.00,0.0019
1686.00,0.0018
1685.00,0.0018
1684.00,0.0019
1683.00,0.0019
1682.00,0.0019
1681.00,0.0018
1680.00,0.0019
1679.00,0.0019
1678.00,0.0020
1677.00,0.0020
1676.00,0.0020
1675.00,0.0019
1674.00,0.0019
1673.00,0.0019
1672.00,0.0019
1671.00,0.0020
1670.00,0.0020
1669.00,0.0020
1668.00,0.0020
1667.00,0.0020
1666.00,0.0019
1665.00,0.0020
1664.00,0.0020
1663.00,0.0021
1662.00,0.0021
1661.00,0.0021
1660.00,0.0021
1659.00,0.0021
1658.00,0.0022
1657.00,0.0022
1656.00,0.0022
1655.00,0.0021
1654.00,0.0021
1653.00,0.0022
1652.00,0.0023
1651.00,0.0024
1650.00,0.0024
1649.00,0.0024
1648.00,0.0024
1647.00,0.0024
1646.00,0.0024
1645.00,0.0025
1644.00,0.0025
1643.00,0.0025
1642.00,0.0026
1641.00,0.0026
1640.00,0.0026
1639.00,0.0026
1638.00,0.0026
1637.00,0.0027
1636.00,0.0027
1635.00,0.0027
1634.00,0.0027
1633.00,0.0027
1632.00,0.0027
1631.00,0.0027
1630.00,0.0027
1629.00,0.0027
1628.00,0.0027
1627.00,0.0027
1626.00,0.0027
1625.00,0.0027
1624.00,0.0026
1623.00,0.0026
1622.00,0.0026
1621.00,0.0026
1620.00,0.0025
1619.00,0.0025
1618.00,0.0024
1617.00,0.0023
1616.00,0.0024
1615.00,0.0025
1614.00,0.0025
1613.00,0.0025
1612.00,0.0025
1611.00,0.0025
1610.00,0.0025
1609.00,0.0025
1608.00,0.0025
1607.00,0.0026
1606.00,0.0026
1605.00,0.0026
1604.00,0.0026
1603.00,0.0025
1602.00,0.0025
1601.00,0.0025
1600.00,0.0025
1599.00,0.0025
1598.00,0.0025
1597.00,0.0025
1596.00,0.0025
1595.00,0.0025
1594.00,0.0025
1593.00,0.0025
1592.00,0.0025
1591.00,0.0026
1590.00,0.0026
1589.00,0.0026
1588.00,0.0026
1587.00,0.0027
1586.00,0.0028
1585.00,0.0029
1584.00,0.0029
1583.00,0.0030
1582.00,0.0030
1581.00,0.0031
1580.00,0.0032
1579.00,0.0032
1578.00,0.0033
1577.00,0.0033
1576.00,0.0033
1575.00,0.0033
1574.00,0.0033
1573.00,0.0032
1572.00,0.0032
1571.00,0.0032
1570.00,0.0031
1569.00,0.0031
1568.00,0.0031
1567.00,0.0030
1566.00,0.0030
1565.00,0.0029
1564.00,0.0029
1563.00,0.0030
1562.00,0.0030
1561.00,0.0031
1560.00,0.0033
1559.00,0.0032
1558.00,0.0031
1557.00,0.0031
1556.00,0.0031
1555.00,0.0031
1554.00,0.0031
1553.00,0.0031
1552.00,0.0032
1551.00,0.0032
1550.00,0.0033
1549.00,0.0034
1548.00,0.0035
1547.00,0.0035
1546.00,0.0036
1545.00,0.0037
1544.00,0.0038
1543.00,0.0038
1542.00,0.0038
1541.00,0.0038
1540.00,0.0038
1539.00,0.0038
1538.00,0.0038
1537.00,0.0038
1536.00,0.0038
1535.00,0.0037
1534.00,0.0035
1533.00,0.0034
1532.00,0.0034
1531.00,0.0034
1530.00,0.0034
1529.00,0.0034
1528.00,0.0035
1527.00,0.0035
1526.00,0.0034
1525.00,0.0035
1524.00,0.0035
1523.00,0.0035
1522.00,0.0034
1521.00,0.0035
1520.00,0.0036
1519.00,0.0036
1518.00,0.0036
1517.00,0.0037
1516.00,0.0038
1515.00,0.0039
1514.00,0.0039
1513.00,0.0040
1512.00,0.0041
1511.00,0.0042
1510.00,0.0042
1509.00,0.0042
1508.00,0.0043
1507.00,0.0044
1506.00,0.0046
1505.00,0.0049
1504.00,0.0051
1503.00,0.0052
1502.00,0.0053
1501.00,0.0055
1500.00,0.0057
1499.00,0.0059
1498.00,0.0061
1497.00,0.0063
1496.00,0.0066
1495.00,0.0068
1494.00,0.0069
1493.00,0.0071
1492.00,0.0074
1491.00,0.0076
1490.00,0.0079
1489.00,0.0084
1488.00,0.0090
1487.00,0.0095
1486.00,0.0100
1485.00,0.0107
1484.00,0.0114
1483.00,0.0121
1482.00,0.0129
1481.00,0.0140
1480.00,0.0152
1479.00,0.0164
1478.00,0.0179
1477.00,0.0199
1476.00,0.0223
1475.00,0.0250
1474.00,0.0287
1473.00,0.0342
1472.00,0.0410
1471.00,0.0477
1470.00,0.0543
1469.00,0.0612
1468.00,0.0688
1467.00,0.0774
1466.00,0.0873
1465.00,0.0983
1464.00,0.1080
1463.00,0.1150
1462.00,0.1196
1461.00,0.1227
1460.00,0.1249
1459.00,0.1262
1458.00,0.1271
1457.00,0.1275
1456.00,0.1272
1455.00,0.1261
1454.00,0.1248
1453.00,0.1227
1452.00,0.1197
1451.00,0.1153
1450.00,0.1093
1449.00,0.1011
1448.00,0.0909
1447.00,0.0804
1446.00,0.0711
1445.00,0.0633
1444.00,0.0568
1443.00,0.0516
1442.00,0.0479
1441.00,0.0454
1440.00,0.0442
1439.00,0.0440
1438.00,0.0447
1437.00,0.0454
1436.00,0.0448
1435.00,0.0422
1434.00,0.0380
1433.00,0.0328
1432.00,0.0275
1431.00,0.0228
1430.00,0.0193
1429.00,0.0169
1428.00,0.0152
1427.00,0.0142
1426.00,0.0135
1425.00,0.0129
1424.00,0.0123
1423.00,0.0120
1422.00,0.0118
1421.00,0.0116
1420.00,0.0113
1419.00,0.0110
1418.00,0.0108
1417.00,0.0106
1416.00,0.0103
1415.00,0.0102
1414.00,0.0102
1413.00,0.0101
1412.00,0.0100
1411.00,0.0099
1410.00,0.0100
1409.00,0.0099
1408.00,0.0098
1407.00,0.0098
1406.00,0.0099
1405.00,0.0099
1404.00,0.0099
1403.00,0.0100
1402.00,0.0102
1401.00,0.0103
1400.00,0.0105
1399.00,0.0107
1398.00,0.0110
1397.00,0.0112
1396.00,0.0115
1395.00,0.0119
1394.00,0.0125
1393.00,0.0131
1392.00,0.0138
1391.00,0.0147
1390.00,0.0161
1389.00,0.0179
1388.00,0.0207
1387.00,0.0248
1386.00,0.0303
1385.00,0.0372
1384.00,0.0461
1383.00,0.0582
1382.00,0.0743
1381.00,0.0953
1380.00,0.1222
1379.00,0.1542
1378.00,0.1871
1377.00,0.2139
1376.00,0.2265
1375.00,0.2191
1374.00,0.1933
1373.00,0.1597
1372.00,0.1278
1371.00,0.1011
1370.00,0.0797
1369.00,0.0635
1368.00,0.0524
1367.00,0.0456
1366.00,0.0420
1365.00,0.0406
1364.00,0.0410
1363.00,0.0429
1362.00,0.0457
1361.00,0.0486
1360.00,0.0508
1359.00,0.0515
1358.00,0.0501
1357.00,0.0468
1356.00,0.0422
1355.00,0.0370
1354.00,0.0319
1353.00,0.0276
1352.00,0.0241
1351.00,0.0214
1350.00,0.0192
1349.00,0.0175
1348.00,0.0161
1347.00,0.0150
1346.00,0.0141
1345.00,0.0134
1344.00,0.0129
1343.00,0.0124
1342.00,0.0121
1341.00,0.0117
1340.00,0.0115
1339.00,0.0113
1338.00,0.0112
1337.00,0.0112
1336.00,0.0113
1335.00,0.0115
1334.00,0.0119
1333.00,0.0125
1332.00,0.0130
1331.00,0.0135
1330.00,0.0136
1329.00,0.0134
1328.00,0.0129
1327.00,0.0122
1326.00,0.0114
1325.00,0.0107
1324.00,0.0100
1323.00,0.0094
1322.00,0.0090
1321.00,0.0086
1320.00,0.0083
1319.00,0.0080
1318.00,0.0078
1317.00,0.0076
1316.00,0.0074
1315.00,0.0073
1314.00,0.0072
1313.00,0.0071
1312.00,0.0072
1311.00,0.0074
1310.00,0.0077
1309.00,0.0081
1308.00,0.0088
1307.00,0.0096
1306.00,0.0105
1305.00,0.0111
1304.00,0.0114
1303.00,0.0114
1302.00,0.0113
1301.00,0.0113
1300.00,0.0114
1299.00,0.0117
1298.00,0.0120
1297.00,0.0122
1296.00,0.0122
1295.00,0.0120
1294.00,0.0115
1293.00,0.0110
1292.00,0.0103
1291.00,0.0097
1290.00,0.0092
1289.00,0.0087
1288.00,0.0083
1287.00,0.0080
1286.00,0.0077
1285.00,0.0075
1284.00,0.0073
1283.00,0.0071
1282.00,0.0069
1281.00,0.0068
1280.00,0.0067
1279.00,0.0066
1278.00,0.0065
1277.00,0.0065
1276.00,0.0065
1275.00,0.0065
1274.00,0.0065
1273.00,0.0065
1272.00,0.0065
1271.00,0.0065
1270.00,0.0066
1269.00,0.0067
1268.00,0.0068
1267.00,0.0069
1266.00,0.0071
1265.00,0.0074
1264.00,0.0076
1263.00,0.0078
1262.00,0.0081
1261.00,0.0084
1260.00,0.0088
1259.00,0.0093
1258.00,0.0097
1257.00,0.0101
1256.00,0.0103
1255.00,0.0101
1254.00,0.0097
1253.00,0.0091
1252.00,0.0085
1251.00,0.0080
1250.00,0.0077
1249.00,0.0074
1248.00,0.0072
1247.00,0.0071
1246.00,0.0070
1245.00,0.0069
1244.00,0.0068
1243.00,0.0068
1242.00,0.0068
1241.00,0.0068
1240.00,0.0068
1239.00,0.0067
1238.00,0.0066
1237.00,0.0065
1236.00,0.0064
1235.00,0.0064
1234.00,0.0064
1233.00,0.0064
1232.00,0.0064
1231.00,0.0064
1230.00,0.0065
1229.00,0.0066
1228.00,0.0068
1227.00,0.0070
1226.00,0.0072
1225.00,0.0075
1224.00,0.0078
1223.00,0.0082
1222.00,0.0085
1221.00,0.0088
1220.00,0.0090
1219.00,0.0091
1218.00,0.0091
1217.00,0.0089
1216.00,0.0086
1215.00,0.0083
1214.00,0.0079
1213.00,0.0076
1212.00,0.0072
1211.00,0.0069
1210.00,0.0067
1209.00,0.0065
1208.00,0.0063
1207.00,0.0062
1206.00,0.0061
1205.00,0.0060
1204.00,0.0059
1203.00,0.0059
1202.00,0.0058
1201.00,0.0058
1200.00,0.0058
1199.00,0.0058
1198.00,0.0058
1197.00,0.0058
1196.00,0.0057
1195.00,0.0057
1194.00,0.0057
1193.00,0.0057
1192.00,0.0057
1191.00,0.0057
1190.00,0.0057
1189.00,0.0057
1188.00,0.0057
1187.00,0.0057
1186.00,0.0058
1185.00,0.0058
1184.00,0.0059
1183.00,0.0060
1182.00,0.0062
1181.00,0.0064
1180.00,0.0067
1179.00,0.0071
1178.00,0.0076
1177.00,0.0083
1176.00,0.0092
1175.00,0.0103
1174.00,0.0118
1173.00,0.0137
1172.00,0.0159
1171.00,0.0182
1170.00,0.0205
1169.00,0.0223
1168.00,0.0235
1167.00,0.0239
1166.00,0.0236
1165.00,0.0228
1164.00,0.0218
1163.00,0.0208
1162.00,0.0199
1161.00,0.0192
1160.00,0.0186
1159.00,0.0181
1158.00,0.0177
1157.00,0.0175
1156.00,0.0174
1155.00,0.0173
1154.00,0.0172
1153.00,0.0170
1152.00,0.0167
1151.00,0.0161
1150.00,0.0154
1149.00,0.0145
1148.00,0.0135
1147.00,0.0126
1146.00,0.0117
1145.00,0.0109
1144.00,0.0102
1143.00,0.0096
1142.00,0.0091
1141.00,0.0086
1140.00,0.0081
1139.00,0.0077
1138.00,0.0073
1137.00,0.0070
1136.00,0.0068
1135.00,0.0066
1134.00,0.0064
1133.00,0.0062
1132.00,0.0061
1131.00,0.0061
1130.00,0.0061
1129.00,0.0061
1128.00,0.0061
1127.00,0.0061
1126.00,0.0061
1125.00,0.0062
1124.00,0.0062
1123.00,0.0061
1122.00,0.0061
1121.00,0.0061
1120.00,0.0061
1119.00,0.0062
1118.00,0.0063
1117.00,0.0065
1116.00,0.0066
1115.00,0.0067
1114.00,0.0068
1113.00,0.0070
1112.00,0.0072
1111.00,0.0076
1110.00,0.0082
1109.00,0.0088
1108.00,0.0094
1107.00,0.0102
1106.00,0.0111
1105.00,0.0119
1104.00,0.0125
1103.00,0.0129
1102.00,0.0130
1101.00,0.0127
1100.00,0.0122
1099.00,0.0115
1098.00,0.0107
1097.00,0.0099
1096.00,0.0093
1095.00,0.0088
1094.00,0.0084
1093.00,0.0082
1092.00,0.0079
1091.00,0.0076
1090.00,0.0072
1089.00,0.0069
1088.00,0.0067
1087.00,0.0067
1086.00,0.0066
1085.00,0.0065
1084.00,0.0064
1083.00,0.0063
1082.00,0.0062
1081.00,0.0060
1080.00,0.0059
1079.00,0.0058
1078.00,0.0057
1077.00,0.0056
1076.00,0.0057
1075.00,0.0057
1074.00,0.0058
1073.00,0.0058
1072.00,0.0058
1071.00,0.0059
1070.00,0.0059
1069.00,0.0060
1068.00,0.0060
1067.00,0.0060
1066.00,0.0060
1065.00,0.0060
1064.00,0.0060
1063.00,0.0061
1062.00,0.0061
1061.00,0.0061
1060.00,0.0061
1059.00,0.0061
1058.00,0.0061
1057.00,0.0061
1056.00,0.0062
1055.00,0.0062
1054.00,0.0063
1053.00,0.0063
1052.00,0.0064
1051.00,0.0065
1050.00,0.0067
1049.00,0.0069
1048.00,0.0070
1047.00,0.0072
1046.00,0.0073
1045.00,0.0074
1044.00,0.0074
1043.00,0.0073
1042.00,0.0073
1041.00,0.0073
1040.00,0.0073
1039.00,0.0073
1038.00,0.0073
1037.00,0.0072
1036.00,0.0072
1035.00,0.0072
1034.00,0.0072
1033.00,0.0072
1032.00,0.0072
1031.00,0.0072
1030.00,0.0072
1029.00,0.0071
1028.00,0.0072
1027.00,0.0072
1026.00,0.0073
1025.00,0.0073
1024.00,0.0073
1023.00,0.0074
1022.00,0.0074
1021.00,0.0074
1020.00,0.0073
1019.00,0.0073
1018.00,0.0074
1017.00,0.0075
1016.00,0.0078
1015.00,0.0080
1014.00,0.0082
1013.00,0.0084
1012.00,0.0087
1011.00,0.0090
1010.00,0.0092
1009.00,0.0096
1008.00,0.0100
1007.00,0.0105
1006.00,0.0110
1005.00,0.0118
1004.00,0.0129
1003.00,0.0144
1002.00,0.0164
1001.00,0.0187
1000.00,0.0211
999.00,0.0230
998.00,0.0238
997.00,0.0231
996.00,0.0213
995.00,0.0188
994.00,0.0161
993.00,0.0138
992.00,0.0120
991.00,0.0106
990.00,0.0096
989.00,0.0090
988.00,0.0086
987.00,0.0084
986.00,0.0085
985.00,0.0087
984.00,0.0091
983.00,0.0099
982.00,0.0110
981.00,0.0124
980.00,0.0143
979.00,0.0168
978.00,0.0198
977.00,0.0232
976.00,0.0266
975.00,0.0296
974.00,0.0316
973.00,0.0320
972.00,0.0306
971.00,0.0277
970.00,0.0241
969.00,0.0204
968.00,0.0173
967.00,0.0148
966.00,0.0129
965.00,0.0115
964.00,0.0105
963.00,0.0097
962.00,0.0091
961.00,0.0086
960.00,0.0082
959.00,0.0078
958.00,0.0075
957.00,0.0073
956.00,0.0071
955.00,0.0069
954.00,0.0068
953.00,0.0068
952.00,0.0068
951.00,0.0068
950.00,0.0069
949.00,0.0069
948.00,0.0070
947.00,0.0071
946.00,0.0074
945.00,0.0077
944.00,0.0081
943.00,0.0085
942.00,0.0089
941.00,0.0091
940.00,0.0090
939.00,0.0086
938.00,0.0081
937.00,0.0075
936.00,0.0070
935.00,0.0066
934.00,0.0063
933.00,0.0060
932.00,0.0058
931.00,0.0057
930.00,0.0056
929.00,0.0055
928.00,0.0053
927.00,0.0052
926.00,0.0051
925.00,0.0051
924.00,0.0052
923.00,0.0053
922.00,0.0054
921.00,0.0055
920.00,0.0056
919.00,0.0058
918.00,0.0061
917.00,0.0063
916.00,0.0064
915.00,0.0064
914.00,0.0065
913.00,0.0065
912.00,0.0066
911.00,0.0066
910.00,0.0067
909.00,0.0069
908.00,0.0073
907.00,0.0079
906.00,0.0087
905.00,0.0100
904.00,0.0117
903.00,0.0138
902.00,0.0162
901.00,0.0184
900.00,0.0200
899.00,0.0205
898.00,0.0197
897.00,0.0178
896.00,0.0154
895.00,0.0130
894.00,0.0111
893.00,0.0096
892.00,0.0085
891.00,0.0077
890.00,0.0072
889.00,0.0068
888.00,0.0065
887.00,0.0064
886.00,0.0064
885.00,0.0064
884.00,0.0063
883.00,0.0061
882.00,0.0060
881.00,0.0059
880.00,0.0060
879.00,0.0061
878.00,0.0062
877.00,0.0062
876.00,0.0062
875.00,0.0062
874.00,0.0063
873.00,0.0063
872.00,0.0063
871.00,0.0063
870.00,0.0062
869.00,0.0063
868.00,0.0063
867.00,0.0064
866.00,0.0064
865.00,0.0065
864.00,0.0066
863.00,0.0068
862.00,0.0070
861.00,0.0071
860.00,0.0072
859.00,0.0073
858.00,0.0073
857.00,0.0074
856.00,0.0076
855.00,0.0077
854.00,0.0077
853.00,0.0078
852.00,0.0079
851.00,0.0083
850.00,0.0087
849.00,0.0093
848.00,0.0101
847.00,0.0111
846.00,0.0125
845.00,0.0146
844.00,0.0172
843.00,0.0200
842.00,0.0220
841.00,0.0222
840.00,0.0206
839.00,0.0180
838.00,0.0154
837.00,0.0134
836.00,0.0121
835.00,0.0113
834.00,0.0107
833.00,0.0103
832.00,0.0100
831.00,0.0098
830.00,0.0097
829.00,0.0097
828.00,0.0097
827.00,0.0097
826.00,0.0097
825.00,0.0097
824.00,0.0097
823.00,0.0097
822.00,0.0096
821.00,0.0096
820.00,0.0098
819.00,0.0100
818.00,0.0105
817.00,0.0111
816.00,0.0120
815.00,0.0135
814.00,0.0153
813.00,0.0175
812.00,0.0197
811.00,0.0217
810.00,0.0231
809.00,0.0236
808.00,0.0232
807.00,0.0220
806.00,0.0201
805.00,0.0181
804.00,0.0162
803.00,0.0146
802.00,0.0134
801.00,0.0124
800.00,0.0115
799.00,0.0108
798.00,0.0102
797.00,0.0097
796.00,0.0093
795.00,0.0090
794.00,0.0087
793.00,0.0084
792.00,0.0081
791.00,0.0079
790.00,0.0076
789.00,0.0075
788.00,0.0073
787.00,0.0070
786.00,0.0066
785.00,0.0062
784.00,0.0058
783.00,0.0056
782.00,0.0054
781.00,0.0052
780.00,0.0052
779.00,0.0052
778.00,0.0053
777.00,0.0055
776.00,0.0056
775.00,0.0056
774.00,0.0056
773.00,0.0055
772.00,0.0057
771.00,0.0059
770.00,0.0063
769.00,0.0066
768.00,0.0067
767.00,0.0066
766.00,0.0065
765.00,0.0063
764.00,0.0060
763.00,0.0057
762.00,0.0055
761.00,0.0052
760.00,0.0050
759.00,0.0048
758.00,0.0047
757.00,0.0046
756.00,0.0045
755.00,0.0044
754.00,0.0042
753.00,0.0042
752.00,0.0042
751.00,0.0042
750.00,0.0041
749.00,0.0040
748.00,0.0039
747.00,0.0040
746.00,0.0042
745.00,0.0044
744.00,0.0045
743.00,0.0046
742.00,0.0046
741.00,0.0045
740.00,0.0044
739.00,0.0044
738.00,0.0043
737.00,0.0043
736.00,0.0044
735.00,0.0046
734.00,0.0048
733.00,0.0050
732.00,0.0050
731.00,0.0050
730.00,0.0050
729.00,0.0049
728.00,0.0048
727.00,0.0047
726.00,0.0047
725.00,0.0046
724.00,0.0044
723.00,0.0043
722.00,0.0043
721.00,0.0044
720.00,0.0046
719.00,0.0047
718.00,0.0048
717.00,0.0047
716.00,0.0045
715.00,0.0042
714.00,0.0040
713.00,0.0040
712.00,0.0040
711.00,0.0041
710.00,0.0042
709.00,0.0042
708.00,0.0042
707.00,0.0042
706.00,0.0042
705.00,0.0041
704.00,0.0041
703.00,0.0042
702.00,0.0044
701.00,0.0045
700.00,0.0044
699.00,0.0043
698.00,0.0041
697.00,0.0040
696.00,0.0039
695.00,0.0038
694.00,0.0039
693.00,0.0040
692.00,0.0041
691.00,0.0043
690.00,0.0044
689.00,0.0043
688.00,0.0043
687.00,0.0042
686.00,0.0042
685.00,0.0043
684.00,0.0043
683.00,0.0043
682.00,0.0040
681.00,0.0037
680.00,0.0035
679.00,0.0035
678.00,0.0037
677.00,0.0039
676.00,0.0042
675.00,0.0044
674.00,0.0044
673.00,0.0041
672.00,0.0037
671.00,0.0035
670.00,0.0036
669.00,0.0039
668.00,0.0040
667.00,0.0040
666.00,0.0038
665.00,0.0036
664.00,0.0035
663.00,0.0036
662.00,0.0037
661.00,0.0037
660.00,0.0037
659.00,0.0037
658.00,0.0037
657.00,0.0037
656.00,0.0037
655.00,0.0037
654.00,0.0036
653.00,0.0036
652.00,0.0035
651.00,0.0035
650.00,0.0036
649.00,0.0037
648.00,0.0038
647.00,0.0037
646.00,0.0036
645.00,0.0036
644.00,0.0036
643.00,0.0037
642.00,0.0038
641.00,0.0040
640.00,0.0041
639.00,0.0041
638.00,0.0042
637.00,0.0042
636.00,0.0042
635.00,0.0041
634.00,0.0040
633.00,0.0039
632.00,0.0038
631.00,0.0037
630.00,0.0038
629.00,0.0039
628.00,0.0039
627.00,0.0038
626.00,0.0036
625.00,0.0035
624.00,0.0034
623.00,0.0035
622.00,0.0036
621.00,0.0038
620.00,0.0040
619.00,0.0042
618.00,0.0045
617.00,0.0046
616.00,0.0044
615.00,0.0042
614.00,0.0041
613.00,0.0042
612.00,0.0043
611.00,0.0045
610.00,0.0046
609.00,0.0045
608.00,0.0044
607.00,0.0043
606.00,0.0043
605.00,0.0043
604.00,0.0042
603.00,0.0040
602.00,0.0039
601.00,0.0041
600.00,0.0044
599.00,0.0047
598.00,0.0047
597.00,0.0046
596.00,0.0045
595.00,0.0043
594.00,0.0041
593.00,0.0040
592.00,0.0040
591.00,0.0040
590.00,0.0042
589.00,0.0045
588.00,0.0049
587.00,0.0053
586.00,0.0055
585.00,0.0055
584.00,0.0053
583.00,0.0053
582.00,0.0052
581.00,0.0049
580.00,0.0046
579.00,0.0044
578.00,0.0044
577.00,0.0044
576.00,0.0043
575.00,0.0042
574.00,0.0041
573.00,0.0042
572.00,0.0044
571.00,0.0044
570.00,0.0041
569.00,0.0037
568.00,0.0034
567.00,0.0033
566.00,0.0035
565.00,0.0038
564.00,0.0044
563.00,0.0049
562.00,0.0052
561.00,0.0050
560.00,0.0046
559.00,0.0044
558.00,0.0046
557.00,0.0049
556.00,0.0051
555.00,0.0050
554.00,0.0050
553.00,0.0050
552.00,0.0050
551.00,0.0050
550.00,0.0049
549.00,0.0049
548.00,0.0050
547.00,0.0053
546.00,0.0057
545.00,0.0061
544.00,0.0063
543.00,0.0063
542.00,0.0065
541.00,0.0067
540.00,0.0070
539.00,0.0070
538.00,0.0069
537.00,0.0069
536.00,0.0069
535.00,0.0069
534.00,0.0068
533.00,0.0067
532.00,0.0066
531.00,0.0067
530.00,0.0069
529.00,0.0072
528.00,0.0075
527.00,0.0076
526.00,0.0076
525.00,0.0076
524.00,0.0077
523.00,0.0077
522.00,0.0077
521.00,0.0073
520.00,0.0067
519.00,0.0060
518.00,0.0056
517.00,0.0057
516.00,0.0059
515.00,0.0056
514.00,0.0050
513.00,0.0044
512.00,0.0045
511.00,0.0051
510.00,0.0055
509.00,0.0053
508.00,0.0046
507.00,0.0041
506.00,0.0039
505.00,0.0038
504.00,0.0038
503.00,0.0039
502.00,0.0041
501.00,0.0043
500.00,0.0041
499.00,0.0038
498.00,0.0036
497.00,0.0040
496.00,0.0046
495.00,0.0051
494.00,0.0053
493.00,0.0050
492.00,0.0046
491.00,0.0042
490.00,0.0040
489.00,0.0039
488.00,0.0040
487.00,0.0040
486.00,0.0042
485.00,0.0047
484.00,0.0054
483.00,0.0058
482.00,0.0057
481.00,0.0053
480.00,0.0049
479.00,0.0051
478.00,0.0056
477.00,0.0062
476.00,0.0068
475.00,0.0072
474.00,0.0076
473.00,0.0080
472.00,0.0082
471.00,0.0078
470.00,0.0070
469.00,0.0062
468.00,0.0060
467.00,0.0064
466.00,0.0075
465.00,0.0088
464.00,0.0101
463.00,0.0112
462.00,0.0120
461.00,0.0126
460.00,0.0131
459.00,0.0134
458.00,0.0132
457.00,0.0128
456.00,0.0128
455.00,0.0130
454.00,0.0130
453.00,0.0124
452.00,0.0113
451.00,0.0102
450.00,0.0095
