Created as New Dataset,Sample 005 By Administrator Date Wednesday, September 10 2025
cm-1,A
4000.00,0.0008
3999.00,0.0008
3998.00,0.0008
3997.00,0.0008
3996.00,0.0008
3995.00,0.0008
3994.00,0.0009
3993.00,0.0009
3992.00,0.0009
3991.00,0.0009
3990.00,0.0009
3989.00,0.0009
3988.00,0.0008
3987.00,0.0008
3986.00,0.0008
3985.00,0.0007
3984.00,0.0007
3983.00,0.0007
3982.00,0.0007
3981.00,0.0007
3980.00,0.0007
3979.00,0.0007
3978.00,0.0007
3977.00,0.0007
3976.00,0.0007
3975.00,0.0007
3974.00,0.0007
3973.00,0.0007
3972.00,0.0007
3971.00,0.0007
3970.00,0.0007
3969.00,0.0007
3968.00,0.0007
3967.00,0.0006
3966.00,0.0006
3965.00,0.0006
3964.00,0.0006
3963.00,0.0006
3962.00,0.0006
3961.00,0.0006
3960.00,0.0006
3959.00,0.0006
3958.00,0.0006
3957.00,0.0006
3956.00,0.0006
3955.00,0.0006
3954.00,0.0005
3953.00,0.0005
3952.00,0.0005
3951.00,0.0005
3950.00,0.0005
3949.00,0.0005
3948.00,0.0005
3947.00,0.0005
3946.00,0.0005
3945.00,0.0006
3944.00,0.0006
3943.00,0.0006
3942.00,0.0007
3941.00,0.0007
3940.00,0.0007
3939.00,0.0007
3938.00,0.0007
3937.00,0.0007
3936.00,0.0007
3935.00,0.0007
3934.00,0.0007
3933.00,0.0006
3932.00,0.0006
3931.00,0.0006
3930.00,0.0006
3929.00,0.0006
3928.00,0.0006
3927.00,0.0006
3926.00,0.0006
3925.00,0.0006
3924.00,0.0007
3923.00,0.0007
3922.00,0.0006
3921.00,0.0006
3920.00,0.0006
3919.00,0.0005
3918.00,0.0005
3917.00,0.0005
3916.00,0.0005
3915.00,0.0006
3914.00,0.0006
3913.00,0.0006
3912.00,0.0006
3911.00,0.0007
3910.00,0.0006
3909.00,0.0006
3908.00,0.0005
3907.00,0.0005
3906.00,0.0004
3905.00,0.0004
3904.00,0.0003
3903.00,0.0003
3902.00,0.0003
3901.00,0.0003
3900.00,0.0004
3899.00,0.0005
3898.00,0.0005
3897.00,0.0006
3896.00,0.0006
3895.00,0.0006
3894.00,0.0006
3893.00,0.0006
3892.00,0.0006
3891.00,0.0006
3890.00,0.0005
3889.00,0.0005
3888.00,0.0005
3887.00,0.0005
3886.00,0.0005
3885.00,0.0005
3884.00,0.0005
3883.00,0.0005
3882.00,0.0005
3881.00,0.0005
3880.00,0.0006
3879.00,0.0006
3878.00,0.0005
3877.00,0.0005
3876.00,0.0005
3875.00,0.0005
3874.00,0.0005
3873.00,0.0005
3872.00,0.0005
3871.00,0.0004
3870.00,0.0004
3869.00,0.0004
3868.00,0.0004
3867.00,0.0004
3866.00,0.0004
3865.00,0.0004
3864.00,0.0005
3863.00,0.0005
3862.00,0.0005
3861.00,0.0005
3860.00,0.0005
3859.00,0.0005
3858.00,0.0005
3857.00,0.0004
3856.00,0.0004
3855.00,0.0004
3854.00,0.0003
3853.00,0.0004
3852.00,0.0004
3851.00,0.0003
3850.00,0.0004
3849.00,0.0004
3848.00,0.0004
3847.00,0.0005
3846.00,0.0005
3845.00,0.0005
3844.00,0.0004
3843.00,0.0004
3842.00,0.0004
3841.00,0.0004
3840.00,0.0004
3839.00,0.0004
3838.00,0.0004
3837.00,0.0004
3836.00,0.0004
3835.00,0.0004
3834.00,0.0005
3833.00,0.0005
3832.00,0.0006
3831.00,0.0006
3830.00,0.0005
3829.00,0.0005
3828.00,0.0006
3827.00,0.0006
3826.00,0.0006
3825.00,0.0006
3824.00,0.0006
3823.00,0.0006
3822.00,0.0006
3821.00,0.0006
3820.00,0.0006
3819.00,0.0006
3818.00,0.0006
3817.00,0.0006
3816.00,0.0006
3815.00,0.0006
3814.00,0.0006
3813.00,0.0005
3812.00,0.0005
3811.00,0.0005
3810.00,0.0005
3809.00,0.0005
3808.00,0.0005
3807.00,0.0005
3806.00,0.0005
3805.00,0.0005
3804.00,0.0005
3803.00,0.0006
3802.00,0.0006
3801.00,0.0006
3800.00,0.0006
3799.00,0.0006
3798.00,0.0006
3797.00,0.0007
3796.00,0.0007
3795.00,0.0006
3794.00,0.0006
3793.00,0.0006
3792.00,0.0006
3791.00,0.0006
3790.00,0.0005
3789.00,0.0005
3788.00,0.0005
3787.00,0.0005
3786.00,0.0005
3785.00,0.0006
3784.00,0.0006
3783.00,0.0006
3782.00,0.0006
3781.00,0.0006
3780.00,0.0006
3779.00,0.0006
3778.00,0.0006
3777.00,0.0006
3776.00,0.0006
3775.00,0.0006
3774.00,0.0006
3773.00,0.0006
3772.00,0.0006
3771.00,0.0006
3770.00,0.0006
3769.00,0.0006
3768.00,0.0006
3767.00,0.0006
3766.00,0.0006
3765.00,0.0006
3764.00,0.0006
3763.00,0.0006
3762.00,0.0006
3761.00,0.0006
3760.00,0.0006
3759.00,0.0006
3758.00,0.0006
3757.00,0.0006
3756.00,0.0006
3755.00,0.0006
3754.00,0.0005
3753.00,0.0005
3752.00,0.0005
3751.00,0.0004
3750.00,0.0004
3749.00,0.0004
3748.00,0.0004
3747.00,0.0004
3746.00,0.0004
3745.00,0.0004
3744.00,0.0004
3743.00,0.0004
3742.00,0.0003
3741.00,0.0003
3740.00,0.0003
3739.00,0.0003
3738.00,0.0003
3737.00,0.0004
3736.00,0.0004
3735.00,0.0005
3734.00,0.0005
3733.00,0.0004
3732.00,0.0004
3731.00,0.0004
3730.00,0.0003
3729.00,0.0003
3728.00,0.0003
3727.00,0.0003
3726.00,0.0002
3725.00,0.0002
3724.00,0.0003
3723.00,0.0003
3722.00,0.0003
3721.00,0.0004
3720.00,0.0004
3719.00,0.0004
3718.00,0.0004
3717.00,0.0004
3716.00,0.0004
3715.00,0.0004
3714.00,0.0004
3713.00,0.0004
3712.00,0.0004
3711.00,0.0004
3710.00,0.0004
3709.00,0.0004
3708.00,0.0003
3707.00,0.0004
3706.00,0.0003
3705.00,0.0003
3704.00,0.0003
3703.00,0.0003
3702.00,0.0003
3701.00,0.0003
3700.00,0.0003
3699.00,0.0002
3698.00,0.0002
3697.00,0.0002
3696.00,0.0002
3695.00,0.0003
3694.00,0.0003
3693.00,0.0004
3692.00,0.0004
3691.00,0.0004
3690.00,0.0003
3689.00,0.0003
3688.00,0.0003
3687.00,0.0003
3686.00,0.0003
3685.00,0.0003
3684.00,0.0003
3683.00,0.0003
3682.00,0.0003
3681.00,0.0002
3680.00,0.0002
3679.00,0.0002
3678.00,0.0003
3677.00,0.0003
3676.00,0.0003
3675.00,0.0002
3674.00,0.0002
3673.00,0.0001
3672.00,0.0001
3671.00,0.0001
3670.00,0.0001
3669.00,0.0001
3668.00,0.0002
3667.00,0.0002
3666.00,0.0003
3665.00,0.0003
3664.00,0.0003
3663.00,0.0003
3662.00,0.0003
3661.00,0.0003
3660.00,0.0003
3659.00,0.0003
3658.00,0.0003
3657.00,0.0002
3656.00,0.0002
3655.00,0.0003
3654.00,0.0003
3653.00,0.0003
3652.00,0.0002
3651.00,0.0002
3650.00,0.0002
3649.00,0.0003
3648.00,0.0003
3647.00,0.0003
3646.00,0.0002
3645.00,0.0002
3644.00,0.0002
3643.00,0.0002
3642.00,0.0002
3641.00,0.0002
3640.00,0.0003
3639.00,0.0003
3638.00,0.0004
3637.00,0.0004
3636.00,0.0004
3635.00,0.0003
3634.00,0.0003
3633.00,0.0003
3632.00,0.0002
3631.00,0.0001
3630.00,0.0001
3629.00,0.0001
3628.00,0.0001
3627.00,0.0001
3626.00,0.0002
3625.00,0.0003
3624.00,0.0003
3623.00,0.0003
3622.00,0.0003
3621.00,0.0002
3620.00,0.0002
3619.00,0.0002
3618.00,0.0003
3617.00,0.0002
3616.00,0.0002
3615.00,0.0002
3614.00,0.0002
3613.00,0.0002
3612.00,0.0003
3611.00,0.0003
3610.00,0.0004
3609.00,0.0004
3608.00,0.0004
3607.00,0.0004
3606.00,0.0004
3605.00,0.0004
3604.00,0.0004
3603.00,0.0004
3602.00,0.0004
3601.00,0.0005
3600.00,0.0004
3599.00,0.0004
3598.00,0.0004
3597.00,0.0004
3596.00,0.0004
3595.00,0.0005
3594.00,0.0005
3593.00,0.0005
3592.00,0.0005
3591.00,0.0005
3590.00,0.0004
3589.00,0.0004
3588.00,0.0004
3587.00,0.0005
3586.00,0.0005
3585.00,0.0006
3584.00,0.0006
3583.00,0.0006
3582.00,0.0005
3581.00,0.0005
3580.00,0.0004
3579.00,0.0004
3578.00,0.0005
3577.00,0.0005
3576.00,0.0005
3575.00,0.0006
3574.00,0.0006
3573.00,0.0006
3572.00,0.0006
3571.00,0.0006
3570.00,0.0006
3569.00,0.0005
3568.00,0.0005
3567.00,0.0006
3566.00,0.0007
3565.00,0.0007
3564.00,0.0008
3563.00,0.0008
3562.00,0.0009
3561.00,0.0009
3560.00,0.0009
3559.00,0.0009
3558.00,0.0009
3557.00,0.0009
3556.00,0.0009
3555.00,0.0009
3554.00,0.0009
3553.00,0.0009
3552.00,0.0010
3551.00,0.0010
3550.00,0.0010
3549.00,0.0010
3548.00,0.0010
3547.00,0.0011
3546.00,0.0011
3545.00,0.0011
3544.00,0.0011
3543.00,0.0011
3542.00,0.0011
3541.00,0.0011
3540.00,0.0012
3539.00,0.0012
3538.00,0.0012
3537.00,0.0012
3536.00,0.0012
3535.00,0.0012
3534.00,0.0012
3533.00,0.0012
3532.00,0.0012
3531.00,0.0012
3530.00,0.0012
3529.00,0.0012
3528.00,0.0013
3527.00,0.0013
3526.00,0.0013
3525.00,0.0013
3524.00,0.0013
3523.00,0.0013
3522.00,0.0013
3521.00,0.0013
3520.00,0.0014
3519.00,0.0014
3518.00,0.0014
3517.00,0.0014
3516.00,0.0015
3515.00,0.0015
3514.00,0.0015
3513.00,0.0015
3512.00,0.0016
3511.00,0.0016
3510.00,0.0016
3509.00,0.0016
3508.00,0.0016
3507.00,0.0016
3506.00,0.0016
3505.00,0.0016
3504.00,0.0016
3503.00,0.0016
3502.00,0.0016
3501.00,0.0016
3500.00,0.0017
3499.00,0.0017
3498.00,0.0017
3497.00,0.0017
3496.00,0.0017
3495.00,0.0017
3494.00,0.0018
3493.00,0.0018
3492.00,0.0019
3491.00,0.0019
3490.00,0.0019
3489.00,0.0019
3488.00,0.0018
3487.00,0.0018
3486.00,0.0018
3485.00,0.0018
3484.00,0.0019
3483.00,0.0019
3482.00,0.0019
3481.00,0.0019
3480.00,0.0019
3479.00,0.0019
3478.00,0.0020
3477.00,0.0020
3476.00,0.0021
3475.00,0.0021
3474.00,0.0021
3473.00,0.0021
3472.00,0.0021
3471.00,0.0020
3470.00,0.0021
3469.00,0.0021
3468.00,0.0021
3467.00,0.0021
3466.00,0.0021
3465.00,0.0021
3464.00,0.0021
3463.00,0.0021
3462.00,0.0022
3461.00,0.0023
3460.00,0.0023
3459.00,0.0023
3458.00,0.0024
3457.00,0.0024
3456.00,0.0024
3455.00,0.0024
3454.00,0.0023
3453.00,0.0023
3452.00,0.0023
3451.00,0.0023
3450.00,0.0023
3449.00,0.0024
3448.00,0.0024
3447.00,0.0024
3446.00,0.0025
3445.00,0.0025
3444.00,0.0025
3443.00,0.0025
3442.00,0.0026
3441.00,0.0026
3440.00,0.0027
3439.00,0.0027
3438.00,0.0027
3437.00,0.0027
3436.00,0.0027
3435.00,0.0026
3434.00,0.0026
3433.00,0.0026
3432.00,0.0027
3431.00,0.0027
3430.00,0.0027
3429.00,0.0027
3428.00,0.0027
3427.00,0.0028
3426.00,0.0028
3425.00,0.0028
3424.00,0.0028
3423.00,0.0028
3422.00,0.0028
3421.00,0.0028
3420.00,0.0028
3419.00,0.0028
3418.00,0.0028
3417.00,0.0028
3416.00,0.0029
3415.00,0.0029
3414.00,0.0029
3413.00,0.0030
3412.00,0.0030
3411.00,0.0030
3410.00,0.0030
3409.00,0.0030
3408.00,0.0030
3407.00,0.0029
3406.00,0.0030
3405.00,0.0030
3404.00,0.0030
3403.00,0.0030
3402.00,0.0030
3401.00,0.0030
3400.00,0.0030
3399.00,0.0030
3398.00,0.0030
3397.00,0.0030
3396.00,0.0030
3395.00,0.0030
3394.00,0.0030
3393.00,0.0030
3392.00,0.0030
3391.00,0.0030
3390.00,0.0030
3389.00,0.0030
3388.00,0.0029
3387.00,0.0029
3386.00,0.0029
3385.00,0.0029
3384.00,0.0029
3383.00,0.0030
3382.00,0.0030
3381.00,0.0030
3380.00,0.0030
3379.00,0.0030
3378.00,0.0030
3377.00,0.0030
3376.00,0.0031
3375.00,0.0031
3374.00,0.0031
3373.00,0.0032
3372.00,0.0032
3371.00,0.0032
3370.00,0.0033
3369.00,0.0033
3368.00,0.0033
3367.00,0.0032
3366.00,0.0032
3365.00,0.0032
3364.00,0.0032
3363.00,0.0032
3362.00,0.0032
3361.00,0.0032
3360.00,0.0032
3359.00,0.0032
3358.00,0.0032
3357.00,0.0032
3356.00,0.0031
3355.00,0.0031
3354.00,0.0031
3353.00,0.0031
3352.00,0.0032
3351.00,0.0032
3350.00,0.0033
3349.00,0.0033
3348.00,0.0033
3347.00,0.0033
3346.00,0.0033
3345.00,0.0033
3344.00,0.0033
3343.00,0.0033
3342.00,0.0033
3341.00,0.0032
3340.00,0.0032
3339.00,0.0032
3338.00,0.0031
3337.00,0.0032
3336.00,0.0032
3335.00,0.0032
3334.00,0.0032
3333.00,0.0032
3332.00,0.0032
3331.00,0.0032
3330.00,0.0031
3329.00,0.0031
3328.00,0.0031
3327.00,0.0031
3326.00,0.0031
3325.00,0.0031
3324.00,0.0031
3323.00,0.0032
3322.00,0.0032
3321.00,0.0031
3320.00,0.0031
3319.00,0.0030
3318.00,0.0030
3317.00,0.0030
3316.00,0.0031
3315.00,0.0031
3314.00,0.0031
3313.00,0.0031
3312.00,0.0031
3311.00,0.0031
3310.00,0.0031
3309.00,0.0031
3308.00,0.0031
3307.00,0.0031
3306.00,0.0031
3305.00,0.0031
3304.00,0.0031
3303.00,0.0031
3302.00,0.0031
3301.00,0.0031
3300.00,0.0031
3299.00,0.0031
3298.00,0.0031
3297.00,0.0031
3296.00,0.0031
3295.00,0.0031
3294.00,0.0031
3293.00,0.0031
3292.00,0.0031
3291.00,0.0031
3290.00,0.0031
3289.00,0.0031
3288.00,0.0031
3287.00,0.0031
3286.00,0.0031
3285.00,0.0031
3284.00,0.0031
3283.00,0.0031
3282.00,0.0031
3281.00,0.0030
3280.00,0.0031
3279.00,0.0031
3278.00,0.0031
3277.00,0.0031
3276.00,0.0031
3275.00,0.0031
3274.00,0.0031
3273.00,0.0031
3272.00,0.0030
3271.00,0.0030
3270.00,0.0030
3269.00,0.0029
3268.00,0.0029
3267.00,0.0030
3266.00,0.0030
3265.00,0.0030
3264.00,0.0030
3263.00,0.0030
3262.00,0.0030
3261.00,0.0029
3260.00,0.0029
3259.00,0.0028
3258.00,0.0028
3257.00,0.0028
3256.00,0.0027
3255.00,0.0027
3254.00,0.0027
3253.00,0.0027
3252.00,0.0027
3251.00,0.0027
3250.00,0.0027
3249.00,0.0027
3248.00,0.0027
3247.00,0.0027
3246.00,0.0027
3245.00,0.0028
3244.00,0.0028
3243.00,0.0028
3242.00,0.0028
3241.00,0.0028
3240.00,0.0028
3239.00,0.0028
3238.00,0.0028
3237.00,0.0028
3236.00,0.0028
3235.00,0.0028
3234.00,0.0028
3233.00,0.0028
3232.00,0.0029
3231.00,0.0029
3230.00,0.0029
3229.00,0.0029
3228.00,0.0029
3227.00,0.0029
3226.00,0.0029
3225.00,0.0029
3224.00,0.0029
3223.00,0.0029
3222.00,0.0029
3221.00,0.0030
3220.00,0.0030
3219.00,0.0030
3218.00,0.0031
3217.00,0.0031
3216.00,0.0032
3215.00,0.0032
3214.00,0.0033
3213.00,0.0033
3212.00,0.0032
3211.00,0.0032
3210.00,0.0032
3209.00,0.0032
3208.00,0.0032
3207.00,0.0033
3206.00,0.0033
3205.00,0.0033
3204.00,0.0033
3203.00,0.0033
3202.00,0.0032
3201.00,0.0032
3200.00,0.0033
3199.00,0.0033
3198.00,0.0034
3197.00,0.0034
3196.00,0.0033
3195.00,0.0033
3194.00,0.0033
3193.00,0.0032
3192.00,0.0032
3191.00,0.0032
3190.00,0.0032
3189.00,0.0032
3188.00,0.0032
3187.00,0.0032
3186.00,0.0032
3185.00,0.0032
3184.00,0.0032
3183.00,0.0032
3182.00,0.0031
3181.00,0.0030
3180.00,0.0030
3179.00,0.0030
3178.00,0.0030
3177.00,0.0030
3176.00,0.0030
3175.00,0.0029
3174.00,0.0029
3173.00,0.0029
3172.00,0.0029
3171.00,0.0030
3170.00,0.0029
3169.00,0.0029
3168.00,0.0029
3167.00,0.0030
3166.00,0.0030
3165.00,0.0030
3164.00,0.0029
3163.00,0.0029
3162.00,0.0029
3161.00,0.0029
3160.00,0.0029
3159.00,0.0029
3158.00,0.0030
3157.00,0.0030
3156.00,0.0030
3155.00,0.0030
3154.00,0.0030
3153.00,0.0030
3152.00,0.0030
3151.00,0.0030
3150.00,0.0029
3149.00,0.0029
3148.00,0.0029
3147.00,0.0029
3146.00,0.0029
3145.00,0.0030
3144.00,0.0030
3143.00,0.0030
3142.00,0.0029
3141.00,0.0029
3140.00,0.0028
3139.00,0.0028
3138.00,0.0028
3137.00,0.0028
3136.00,0.0028
3135.00,0.0028
3134.00,0.0028
3133.00,0.0028
3132.00,0.0028
3131.00,0.0028
3130.00,0.0028
3129.00,0.0028
3128.00,0.0027
3127.00,0.0027
3126.00,0.0027
3125.00,0.0027
3124.00,0.0027
3123.00,0.0026
3122.00,0.0025
3121.00,0.0025
3120.00,0.0025
3119.00,0.0025
3118.00,0.0025
3117.00,0.0025
3116.00,0.0025
3115.00,0.0025
3114.00,0.0025
3113.00,0.0025
3112.00,0.0025
3111.00,0.0024
3110.00,0.0024
3109.00,0.0024
3108.00,0.0024
3107.00,0.0024
3106.00,0.0024
3105.00,0.0024
3104.00,0.0023
3103.00,0.0023
3102.00,0.0023
3101.00,0.0023
3100.00,0.0023
3099.00,0.0023
3098.00,0.0023
3097.00,0.0023
3096.00,0.0024
3095.00,0.0024
3094.00,0.0024
3093.00,0.0023
3092.00,0.0023
3091.00,0.0022
3090.00,0.0022
3089.00,0.0022
3088.00,0.0023
3087.00,0.0023
3086.00,0.0023
3085.00,0.0023
3084.00,0.0023
3083.00,0.0023
3082.00,0.0023
3081.00,0.0023
3080.00,0.0023
3079.00,0.0023
3078.00,0.0023
3077.00,0.0022
3076.00,0.0022
3075.00,0.0023
3074.00,0.0023
3073.00,0.0023
3072.00,0.0024
3071.00,0.0024
3070.00,0.0024
3069.00,0.0024
3068.00,0.0024
3067.00,0.0024
3066.00,0.0024
3065.00,0.0025
3064.00,0.0025
3063.00,0.0025
3062.00,0.0025
3061.00,0.0026
3060.00,0.0026
3059.00,0.0026
3058.00,0.0026
3057.00,0.0026
3056.00,0.0026
3055.00,0.0025
3054.00,0.0025
3053.00,0.0025
3052.00,0.0026
3051.00,0.0026
3050.00,0.0026
3049.00,0.0027
3048.00,0.0027
3047.00,0.0028
3046.00,0.0028
3045.00,0.0028
3044.00,0.0028
3043.00,0.0028
3042.00,0.0028
3041.00,0.0028
3040.00,0.0029
3039.00,0.0029
3038.00,0.0030
3037.00,0.0030
3036.00,0.0030
3035.00,0.0030
3034.00,0.0030
3033.00,0.0031
3032.00,0.0031
3031.00,0.0032
3030.00,0.0033
3029.00,0.0033
3028.00,0.0033
3027.00,0.0034
3026.00,0.0035
3025.00,0.0035
3024.00,0.0036
3023.00,0.0036
3022.00,0.0037
3021.00,0.0038
3020.00,0.0039
3019.00,0.0039
3018.00,0.0040
3017.00,0.0041
3016.00,0.0042
3015.00,0.0043
3014.00,0.0043
3013.00,0.0044
3012.00,0.0046
3011.00,0.0047
3010.00,0.0048
3009.00,0.0050
3008.00,0.0052
3007.00,0.0053
3006.00,0.0055
3005.00,0.0057
3004.00,0.0059
3003.00,0.0061
3002.00,0.0064
3001.00,0.0066
3000.00,0.0068
2999.00,0.0071
2998.00,0.0075
2997.00,0.0078
2996.00,0.0081
2995.00,0.0085
2994.00,0.0089
2993.00,0.0094
2992.00,0.0100
2991.00,0.0106
2990.00,0.0112
2989.00,0.0119
2988.00,0.0127
2987.00,0.0136
2986.00,0.0146
2985.00,0.0157
2984.00,0.0169
2983.00,0.0182
2982.00,0.0197
2981.00,0.0214
2980.00,0.0233
2979.00,0.0255
2978.00,0.0280
2977.00,0.0308
2976.00,0.0340
2975.00,0.0376
2974.00,0.0417
2973.00,0.0464
2972.00,0.0516
2971.00,0.0574
2970.00,0.0638
2969.00,0.0708
2968.00,0.0782
2967.00,0.0860
2966.00,0.0940
2965.00,0.1019
2964.00,0.1095
2963.00,0.1163
2962.00,0.1223
2961.00,0.1274
2960.00,0.1320
2959.00,0.1363
2958.00,0.1411
2957.00,0.1468
2956.00,0.1539
2955.00,0.1625
2954.00,0.1723
2953.00,0.1828
2952.00,0.1928
2951.00,0.2012
2950.00,0.2065
2949.00,0.2074
2948.00,0.2033
2947.00,0.1943
2946.00,0.1816
2945.00,0.1668
2944.00,0.1518
2943.00,0.1381
2942.00,0.1269
2941.00,0.1186
2940.00,0.1132
2939.00,0.1106
2938.00,0.1104
2937.00,0.1123
2936.00,0.1162
2935.00,0.1219
2934.00,0.1293
2933.00,0.1381
2932.00,0.1483
2931.00,0.1596
2930.00,0.1716
2929.00,0.1842
2928.00,0.1968
2927.00,0.2092
2926.00,0.2213
2925.00,0.2330
2924.00,0.2444
2923.00,0.2559
2922.00,0.2673
2921.00,0.2785
2920.00,0.2888
2919.00,0.2971
2918.00,0.3023
2917.00,0.3032
2916.00,0.2994
2915.00,0.2915
2914.00,0.2804
2913.00,0.2677
2912.00,0.2545
2911.00,0.2418
2910.00,0.2299
2909.00,0.2190
2908.00,0.2090
2907.00,0.1995
2906.00,0.1905
2905.00,0.1817
2904.00,0.1731
2903.00,0.1649
2902.00,0.1569
2901.00,0.1493
2900.00,0.1422
2899.00,0.1355
2898.00,0.1294
2897.00,0.1240
2896.00,0.1192
2895.00,0.1153
2894.00,0.1121
2893.00,0.1098
2892.00,0.1082
2891.00,0.1073
2890.00,0.1070
2889.00,0.1072
2888.00,0.1079
2887.00,0.1090
2886.00,0.1105
2885.00,0.1123
2884.00,0.1147
2883.00,0.1176
2882.00,0.1211
2881.00,0.1250
2880.00,0.1289
2879.00,0.1324
2878.00,0.1348
2877.00,0.1360
2876.00,0.1359
2875.00,0.1350
2874.00,0.1340
2873.00,0.1335
2872.00,0.1339
2871.00,0.1354
2870.00,0.1376
2869.00,0.1402
2868.00,0.1421
2867.00,0.1423
2866.00,0.1398
2865.00,0.1341
2864.00,0.1254
2863.00,0.1146
2862.00,0.1032
2861.00,0.0923
2860.00,0.0827
2859.00,0.0748
2858.00,0.0687
2857.00,0.0642
2856.00,0.0611
2855.00,0.0591
2854.00,0.0580
2853.00,0.0578
2852.00,0.0583
2851.00,0.0595
2850.00,0.0616
2849.00,0.0644
2848.00,0.0681
2847.00,0.0727
2846.00,0.0782
2845.00,0.0846
2844.00,0.0918
2843.00,0.0995
2842.00,0.1075
2841.00,0.1150
2840.00,0.1214
2839.00,0.1256
2838.00,0.1269
2837.00,0.1245
2836.00,0.1185
2835.00,0.1095
2834.00,0.0985
2833.00,0.0868
2832.00,0.0757
2831.00,0.0658
2830.00,0.0573
2829.00,0.0504
2828.00,0.0448
2827.00,0.0404
2826.00,0.0367
2825.00,0.0338
2824.00,0.0314
2823.00,0.0293
2822.00,0.0276
2821.00,0.0261
2820.00,0.0248
2819.00,0.0237
2818.00,0.0227
2817.00,0.0219
2816.00,0.0211
2815.00,0.0205
2814.00,0.0199
2813.00,0.0193
2812.00,0.0187
2811.00,0.0181
2810.00,0.0176
2809.00,0.0169
2808.00,0.0163
2807.00,0.0156
2806.00,0.0149
2805.00,0.0142
2804.00,0.0135
2803.00,0.0129
2802.00,0.0123
2801.00,0.0118
2800.00,0.0114
2799.00,0.0111
2798.00,0.0108
2797.00,0.0105
2796.00,0.0103
2795.00,0.0100
2794.00,0.0097
2793.00,0.0094
2792.00,0.0092
2791.00,0.0089
2790.00,0.0086
2789.00,0.0083
2788.00,0.0080
2787.00,0.0077
2786.00,0.0074
2785.00,0.0072
2784.00,0.0070
2783.00,0.0068
2782.00,0.0067
2781.00,0.0065
2780.00,0.0064
2779.00,0.0062
2778.00,0.0061
2777.00,0.0059
2776.00,0.0058
2775.00,0.0057
2774.00,0.0056
2773.00,0.0055
2772.00,0.0055
2771.00,0.0054
2770.00,0.0054
2769.00,0.0054
2768.00,0.0054
2767.00,0.0053
2766.00,0.0053
2765.00,0.0053
2764.00,0.0053
2763.00,0.0052
2762.00,0.0052
2761.00,0.0052
2760.00,0.0051
2759.00,0.0050
2758.00,0.0049
2757.00,0.0049
2756.00,0.0049
2755.00,0.0049
2754.00,0.0049
2753.00,0.0049
2752.00,0.0049
2751.00,0.0048
2750.00,0.0048
2749.00,0.0049
2748.00,0.0049
2747.00,0.0049
2746.00,0.0050
2745.00,0.0050
2744.00,0.0051
2743.00,0.0052
2742.00,0.0053
2741.00,0.0055
2740.00,0.0056
2739.00,0.0057
2738.00,0.0059
2737.00,0.0060
2736.00,0.0062
2735.00,0.0064
2734.00,0.0066
2733.00,0.0068
2732.00,0.0070
2731.00,0.0072
2730.00,0.0075
2729.00,0.0078
2728.00,0.0081
2727.00,0.0084
2726.00,0.0087
2725.00,0.0090
2724.00,0.0092
2723.00,0.0093
2722.00,0.0092
2721.00,0.0090
2720.00,0.0086
2719.00,0.0083
2718.00,0.0079
2717.00,0.0076
2716.00,0.0072
2715.00,0.0069
2714.00,0.0066
2713.00,0.0063
2712.00,0.0060
2711.00,0.0058
2710.00,0.0056
2709.00,0.0054
2708.00,0.0053
2707.00,0.0051
2706.00,0.0050
2705.00,0.0048
2704.00,0.0047
2703.00,0.0047
2702.00,0.0046
2701.00,0.0045
2700.00,0.0044
2699.00,0.0043
2698.00,0.0042
2697.00,0.0042
2696.00,0.0042
2695.00,0.0042
2694.00,0.0042
2693.00,0.0042
2692.00,0.0042
2691.00,0.0042
2690.00,0.0042
2689.00,0.0042
2688.00,0.0042
2687.00,0.0042
2686.00,0.0042
2685.00,0.0042
2684.00,0.0042
2683.00,0.0042
2682.00,0.0042
2681.00,0.0042
2680.00,0.0043
2679.00,0.0043
2678.00,0.0043
2677.00,0.0044
2676.00,0.0044
2675.00,0.0044
2674.00,0.0044
2673.00,0.0043
2672.00,0.0043
2671.00,0.0043
2670.00,0.0043
2669.00,0.0043
2668.00,0.0043
2667.00,0.0044
2666.00,0.0044
2665.00,0.0044
2664.00,0.0045
2663.00,0.0045
2662.00,0.0046
2661.00,0.0046
2660.00,0.0047
2659.00,0.0047
2658.00,0.0046
2657.00,0.0046
2656.00,0.0046
2655.00,0.0045
2654.00,0.0045
2653.00,0.0044
2652.00,0.0043
2651.00,0.0043
2650.00,0.0042
2649.00,0.0041
2648.00,0.0041
2647.00,0.0040
2646.00,0.0040
2645.00,0.0040
2644.00,0.0039
2643.00,0.0039
2642.00,0.0038
2641.00,0.0038
2640.00,0.0037
2639.00,0.0036
2638.00,0.0036
2637.00,0.0037
2636.00,0.0037
2635.00,0.0037
2634.00,0.0037
2633.00,0.0037
2632.00,0.0037
2631.00,0.0037
2630.00,0.0037
2629.00,0.0037
2628.00,0.0037
2627.00,0.0038
2626.00,0.0038
2625.00,0.0038
2624.00,0.0038
2623.00,0.0039
2622.00,0.0039
2621.00,0.0039
2620.00,0.0039
2619.00,0.0039
2618.00,0.0039
2617.00,0.0039
2616.00,0.0039
2615.00,0.0039
2614.00,0.0039
2613.00,0.0038
2612.00,0.0038
2611.00,0.0037
2610.00,0.0037
2609.00,0.0036
2608.00,0.0036
2607.00,0.0035
2606.00,0.0034
2605.00,0.0033
2604.00,0.0032
2603.00,0.0031
2602.00,0.0031
2601.00,0.0032
2600.00,0.0031
2599.00,0.0031
2598.00,0.0031
2597.00,0.0031
2596.00,0.0031
2595.00,0.0032
2594.00,0.0033
2593.00,0.0034
2592.00,0.0034
2591.00,0.0034
2590.00,0.0034
2589.00,0.0035
2588.00,0.0036
2587.00,0.0037
2586.00,0.0038
2585.00,0.0039
2584.00,0.0040
2583.00,0.0040
2582.00,0.0040
2581.00,0.0040
2580.00,0.0039
2579.00,0.0038
2578.00,0.0037
2577.00,0.0036
2576.00,0.0035
2575.00,0.0034
2574.00,0.0032
2573.00,0.0031
2572.00,0.0029
2571.00,0.0028
2570.00,0.0028
2569.00,0.0028
2568.00,0.0027
2567.00,0.0027
2566.00,0.0026
2565.00,0.0026
2564.00,0.0025
2563.00,0.0025
2562.00,0.0024
2561.00,0.0024
2560.00,0.0023
2559.00,0.0022
2558.00,0.0022
2557.00,0.0021
2556.00,0.0021
2555.00,0.0020
2554.00,0.0020
2553.00,0.0020
2552.00,0.0020
2551.00,0.0020
2550.00,0.0020
2549.00,0.0020
2548.00,0.0020
2547.00,0.0019
2546.00,0.0018
2545.00,0.0017
2544.00,0.0017
2543.00,0.0016
2542.00,0.0016
2541.00,0.0015
2540.00,0.0014
2539.00,0.0014
2538.00,0.0014
2537.00,0.0014
2536.00,0.0014
2535.00,0.0015
2534.00,0.0015
2533.00,0.0015
2532.00,0.0014
2531.00,0.0014
2530.00,0.0014
2529.00,0.0013
2528.00,0.0013
2527.00,0.0014
2526.00,0.0014
2525.00,0.0014
2524.00,0.0014
2523.00,0.0013
2522.00,0.0013
2521.00,0.0012
2520.00,0.0012
2519.00,0.0012
2518.00,0.0011
2517.00,0.0011
2516.00,0.0010
2515.00,0.0009
2514.00,0.0009
2513.00,0.0009
2512.00,0.0009
2511.00,0.0009
2510.00,0.0008
2509.00,0.0008
2508.00,0.0008
2507.00,0.0008
2506.00,0.0008
2505.00,0.0008
2504.00,0.0008
2503.00,0.0008
2502.00,0.0007
2501.00,0.0007
2500.00,0.0008
2499.00,0.0009
2498.00,0.0009
2497.00,0.0010
2496.00,0.0010
2495.00,0.0010
2494.00,0.0010
2493.00,0.0011
2492.00,0.0011
2491.00,0.0010
2490.00,0.0010
2489.00,0.0010
2488.00,0.0009
2487.00,0.0009
2486.00,0.0009
2485.00,0.0009
2484.00,0.0009
2483.00,0.0009
2482.00,0.0008
2481.00,0.0008
2480.00,0.0008
2479.00,0.0008
2478.00,0.0008
2477.00,0.0008
2476.00,0.0007
2475.00,0.0007
2474.00,0.0008
2473.00,0.0008
2472.00,0.0008
2471.00,0.0008
2470.00,0.0008
2469.00,0.0008
2468.00,0.0008
2467.00,0.0008
2466.00,0.0008
2465.00,0.0008
2464.00,0.0009
2463.00,0.0009
2462.00,0.0009
2461.00,0.0009
2460.00,0.0008
2459.00,0.0007
2458.00,0.0007
2457.00,0.0007
2456.00,0.0008
2455.00,0.0009
2454.00,0.0010
2453.00,0.0011
2452.00,0.0011
2451.00,0.0010
2450.00,0.0010
2449.00,0.0009
2448.00,0.0009
2447.00,0.0009
2446.00,0.0009
2445.00,0.0010
2444.00,0.0010
2443.00,0.0010
2442.00,0.0010
2441.00,0.0009
2440.00,0.0009
2439.00,0.0008
2438.00,0.0009
2437.00,0.0009
2436.00,0.0010
2435.00,0.0010
2434.00,0.0011
2433.00,0.0011
2432.00,0.0010
2431.00,0.0010
2430.00,0.0010
2429.00,0.0010
2428.00,0.0011
2427.00,0.0011
2426.00,0.0011
2425.00,0.0010
2424.00,0.0010
2423.00,0.0010
2422.00,0.0009
2421.00,0.0010
2420.00,0.0010
2419.00,0.0010
2418.00,0.0010
2417.00,0.0010
2416.00,0.0010
2415.00,0.0009
2414.00,0.0009
2413.00,0.0009
2412.00,0.0008
2411.00,0.0008
2410.00,0.0008
2409.00,0.0009
2408.00,0.0008
2407.00,0.0008
2406.00,0.0008
2405.00,0.0007
2404.00,0.0007
2403.00,0.0007
2402.00,0.0006
2401.00,0.0006
2400.00,0.0006
2399.00,0.0007
2398.00,0.0007
2397.00,0.0007
2396.00,0.0006
2395.00,0.0006
2394.00,0.0006
2393.00,0.0006
2392.00,0.0006
2391.00,0.0006
2390.00,0.0006
2389.00,0.0006
2388.00,0.0006
2387.00,0.0005
2386.00,0.0005
2385.00,0.0004
2384.00,0.0004
2383.00,0.0003
2382.00,0.0002
2381.00,0.0001
2380.00,-0.0000
2379.00,-0.0001
2378.00,-0.0001
2377.00,-0.0001
2376.00,-0.0001
2375.00,-0.0001
2374.00,-0.0001
2373.00,-0.0001
2372.00,-0.0001
2371.00,-0.0001
2370.00,-0.0002
2369.00,-0.0002
2368.00,-0.0003
2367.00,-0.0004
2366.00,-0.0005
2365.00,-0.0005
2364.00,-0.0005
2363.00,-0.0004
2362.00,-0.0003
2361.00,-0.0002
2360.00,-0.0002
2359.00,-0.0003
2358.00,-0.0003
2357.00,-0.0003
2356.00,-0.0002
2355.00,-0.0002
2354.00,-0.0002
2353.00,-0.0002
2352.00,-0.0002
2351.00,-0.0002
2350.00,-0.0002
2349.00,-0.0002
2348.00,-0.0001
2347.00,-0.0001
2346.00,-0.0001
2345.00,-0.0001
2344.00,-0.0002
2343.00,-0.0002
2342.00,-0.0002
2341.00,-0.0001
2340.00,0.0000
2339.00,0.0001
2338.00,0.0002
2337.00,0.0002
2336.00,0.0002
2335.00,0.0001
2334.00,0.0001
2333.00,0.0001
2332.00,0.0001
2331.00,0.0002
2330.00,0.0002
2329.00,0.0003
2328.00,0.0005
2327.00,0.0008
2326.00,0.0012
2325.00,0.0015
2324.00,0.0016
2323.00,0.0015
2322.00,0.0013
2321.00,0.0011
2320.00,0.0010
2319.00,0.0008
2318.00,0.0007
2317.00,0.0006
2316.00,0.0005
2315.00,0.0005
2314.00,0.0004
2313.00,0.0004
2312.00,0.0004
2311.00,0.0004
2310.00,0.0004
2309.00,0.0004
2308.00,0.0004
2307.00,0.0004
2306.00,0.0004
2305.00,0.0005
2304.00,0.0006
2303.00,0.0006
2302.00,0.0007
2301.00,0.0007
2300.00,0.0007
2299.00,0.0008
2298.00,0.0008
2297.00,0.0008
2296.00,0.0008
2295.00,0.0008
2294.00,0.0009
2293.00,0.0011
2292.00,0.0012
2291.00,0.0013
2290.00,0.0014
2289.00,0.0014
2288.00,0.0015
2287.00,0.0015
2286.00,0.0016
2285.00,0.0016
2284.00,0.0015
2283.00,0.0015
2282.00,0.0014
2281.00,0.0014
2280.00,0.0014
2279.00,0.0014
2278.00,0.0014
2277.00,0.0014
2276.00,0.0013
2275.00,0.0013
2274.00,0.0013
2273.00,0.0013
2272.00,0.0013
2271.00,0.0013
2270.00,0.0013
2269.00,0.0013
2268.00,0.0013
2267.00,0.0013
2266.00,0.0012
2265.00,0.0012
2264.00,0.0011
2263.00,0.0010
2262.00,0.0009
2261.00,0.0010
2260.00,0.0011
2259.00,0.0012
2258.00,0.0012
2257.00,0.0012
2256.00,0.0012
2255.00,0.0011
2254.00,0.0010
2253.00,0.0009
2252.00,0.0009
2251.00,0.0008
2250.00,0.0008
2249.00,0.0008
2248.00,0.0008
2247.00,0.0008
2246.00,0.0009
2245.00,0.0011
2244.00,0.0012
2243.00,0.0012
2242.00,0.0011
2241.00,0.0011
2240.00,0.0010
2239.00,0.0009
2238.00,0.0008
2237.00,0.0009
2236.00,0.0009
2235.00,0.0009
2234.00,0.0008
2233.00,0.0006
2232.00,0.0005
2231.00,0.0005
2230.00,0.0005
2229.00,0.0005
2228.00,0.0006
2227.00,0.0006
2226.00,0.0005
2225.00,0.0006
2224.00,0.0005
2223.00,0.0004
2222.00,0.0003
2221.00,0.0002
2220.00,0.0003
2219.00,0.0005
2218.00,0.0006
2217.00,0.0007
2216.00,0.0007
2215.00,0.0005
2214.00,0.0003
2213.00,0.0002
2212.00,0.0002
2211.00,0.0003
2210.00,0.0003
2209.00,0.0003
2208.00,0.0003
2207.00,0.0003
2206.00,0.0005
2205.00,0.0006
2204.00,0.0006
2203.00,0.0005
2202.00,0.0005
2201.00,0.0007
2200.00,0.0008
2199.00,0.0008
2198.00,0.0008
2197.00,0.0007
2196.00,0.0008
2195.00,0.0009
2194.00,0.0011
2193.00,0.0012
2192.00,0.0012
2191.00,0.0010
2190.00,0.0007
2189.00,0.0006
2188.00,0.0007
2187.00,0.0009
2186.00,0.0010
2185.00,0.0011
2184.00,0.0010
2183.00,0.0007
2182.00,0.0004
2181.00,0.0002
2180.00,0.0001
2179.00,0.0002
2178.00,0.0003
2177.00,0.0003
2176.00,0.0004
2175.00,0.0004
2174.00,0.0005
2173.00,0.0005
2172.00,0.0005
2171.00,0.0005
2170.00,0.0005
2169.00,0.0008
2168.00,0.0013
2167.00,0.0016
2166.00,0.0018
2165.00,0.0018
2164.00,0.0019
2163.00,0.0020
2162.00,0.0019
2161.00,0.0014
2160.00,0.0001
2159.00,-0.0015
2158.00,-0.0028
2157.00,-0.0035
2156.00,-0.0034
2155.00,-0.0030
2154.00,-0.0023
2153.00,-0.0017
2152.00,-0.0013
2151.00,-0.0013
2150.00,-0.0015
2149.00,-0.0016
2148.00,-0.0016
2147.00,-0.0016
2146.00,-0.0015
2145.00,-0.0015
2144.00,-0.0013
2143.00,-0.0012
2142.00,-0.0010
2141.00,-0.0009
2140.00,-0.0008
2139.00,-0.0008
2138.00,-0.0009
2137.00,-0.0011
2136.00,-0.0015
2135.00,-0.0018
2134.00,-0.0020
2133.00,-0.0019
2132.00,-0.0016
2131.00,-0.0013
2130.00,-0.0011
2129.00,-0.0010
2128.00,-0.0010
2127.00,-0.0011
2126.00,-0.0011
2125.00,-0.0011
2124.00,-0.0010
2123.00,-0.0008
2122.00,-0.0007
2121.00,-0.0007
2120.00,-0.0006
2119.00,-0.0005
2118.00,-0.0003
2117.00,-0.0001
2116.00,0.0001
2115.00,0.0002
2114.00,0.0002
2113.00,0.0001
2112.00,-0.0000
2111.00,-0.0000
2110.00,0.0000
2109.00,0.0001
2108.00,0.0001
2107.00,0.0000
2106.00,-0.0001
2105.00,-0.0001
2104.00,-0.0001
2103.00,-0.0000
2102.00,0.0001
2101.00,0.0001
2100.00,0.0001
2099.00,0.0001
2098.00,0.0001
2097.00,0.0001
2096.00,0.0001
2095.00,-0.0001
2094.00,-0.0002
2093.00,-0.0002
2092.00,-0.0002
2091.00,-0.0001
2090.00,-0.0001
2089.00,-0.0000
2088.00,-0.0000
2087.00,-0.0001
2086.00,-0.0002
2085.00,-0.0002
2084.00,-0.0003
2083.00,-0.0003
2082.00,-0.0002
2081.00,-0.0002
2080.00,-0.0001
2079.00,-0.0001
2078.00,-0.0001
2077.00,-0.0000
2076.00,0.0001
2075.00,0.0001
2074.00,0.0000
2073.00,-0.0000
2072.00,-0.0000
2071.00,-0.0000
2070.00,-0.0000
2069.00,-0.0001
2068.00,-0.0001
2067.00,-0.0002
2066.00,-0.0003
2065.00,-0.0004
2064.00,-0.0005
2063.00,-0.0005
2062.00,-0.0005
2061.00,-0.0003
2060.00,-0.0000
2059.00,0.0002
2058.00,0.0003
2057.00,0.0003
2056.00,0.0003
2055.00,0.0003
2054.00,0.0005
2053.00,0.0010
2052.00,0.0014
2051.00,0.0016
2050.00,0.0014
2049.00,0.0009
2048.00,0.0004
2047.00,0.0001
2046.00,-0.0000
2045.00,-0.0000
2044.00,-0.0000
2043.00,-0.0001
2042.00,-0.0002
2041.00,-0.0002
2040.00,-0.0002
2039.00,-0.0002
2038.00,-0.0003
2037.00,-0.0003
2036.00,-0.0002
2035.00,-0.0000
2034.00,0.0001
2033.00,0.0002
2032.00,0.0002
2031.00,-0.0000
2030.00,-0.0002
2029.00,-0.0004
2028.00,-0.0005
2027.00,-0.0007
2026.00,-0.0009
2025.00,-0.0011
2024.00,-0.0013
2023.00,-0.0013
2022.00,-0.0013
2021.00,-0.0012
2020.00,-0.0011
2019.00,-0.0010
2018.00,-0.0009
2017.00,-0.0009
2016.00,-0.0009
2015.00,-0.0010
2014.00,-0.0013
2013.00,-0.0015
2012.00,-0.0015
2011.00,-0.0013
2010.00,-0.0011
2009.00,-0.0010
2008.00,-0.0010
2007.00,-0.0013
2006.00,-0.0015
2005.00,-0.0017
2004.00,-0.0017
2003.00,-0.0016
2002.00,-0.0015
2001.00,-0.0014
2000.00,-0.0012
1999.00,-0.0010
1998.00,-0.0008
1997.00,-0.0008
1996.00,-0.0007
1995.00,-0.0007
1994.00,-0.0007
1993.00,-0.0006
1992.00,-0.0006
1991.00,-0.0004
1990.00,-0.0003
1989.00,-0.0001
1988.00,0.0001
1987.00,0.0003
1986.00,0.0004
1985.00,0.0004
1984.00,0.0004
1983.00,0.0004
1982.00,0.0006
1981.00,0.0009
1980.00,0.0012
1979.00,0.0010
1978.00,0.0003
1977.00,-0.0005
1976.00,-0.0011
1975.00,-0.0014
1974.00,-0.0014
1973.00,-0.0014
1972.00,-0.0016
1971.00,-0.0017
1970.00,-0.0019
1969.00,-0.0018
1968.00,-0.0017
1967.00,-0.0014
1966.00,-0.0013
1965.00,-0.0013
1964.00,-0.0015
1963.00,-0.0016
1962.00,-0.0016
1961.00,-0.0016
1960.00,-0.0016
1959.00,-0.0017
1958.00,-0.0018
1957.00,-0.0018
1956.00,-0.0017
1955.00,-0.0015
1954.00,-0.0014
1953.00,-0.0012
1952.00,-0.0013
1951.00,-0.0014
1950.00,-0.0016
1949.00,-0.0018
1948.00,-0.0020
1947.00,-0.0022
1946.00,-0.0023
1945.00,-0.0023
1944.00,-0.0021
1943.00,-0.0020
1942.00,-0.0018
1941.00,-0.0017
1940.00,-0.0016
1939.00,-0.0014
1938.00,-0.0013
1937.00,-0.0012
1936.00,-0.0012
1935.00,-0.0011
1934.00,-0.0010
1933.00,-0.0009
1932.00,-0.0008
1931.00,-0.0008
1930.00,-0.0009
1929.00,-0.0009
1928.00,-0.0008
1927.00,-0.0008
1926.00,-0.0008
1925.00,-0.0008
1924.00,-0.0008
1923.00,-0.0008
1922.00,-0.0008
1921.00,-0.0008
1920.00,-0.0007
1919.00,-0.0005
1918.00,-0.0004
1917.00,-0.0003
1916.00,-0.0003
1915.00,-0.0002
1914.00,-0.0002
1913.00,-0.0002
1912.00,-0.0003
1911.00,-0.0003
1910.00,-0.0003
1909.00,-0.0003
1908.00,-0.0004
1907.00,-0.0004
1906.00,-0.0005
1905.00,-0.0006
1904.00,-0.0005
1903.00,-0.0004
1902.00,-0.0003
1901.00,-0.0003
1900.00,-0.0002
1899.00,-0.0002
1898.00,-0.0002
1897.00,-0.0001
1896.00,-0.0001
1895.00,-0.0001
1894.00,-0.0001
1893.00,-0.0002
1892.00,-0.0002
1891.00,-0.0003
1890.00,-0.0004
1889.00,-0.0004
1888.00,-0.0004
1887.00,-0.0004
1886.00,-0.0004
1885.00,-0.0004
1884.00,-0.0004
1883.00,-0.0005
1882.00,-0.0006
1881.00,-0.0005
1880.00,-0.0004
1879.00,-0.0003
1878.00,-0.0002
1877.00,-0.0002
1876.00,-0.0002
1875.00,-0.0003
1874.00,-0.0003
1873.00,-0.0003
1872.00,-0.0003
1871.00,-0.0003
1870.00,-0.0003
1869.00,-0.0002
1868.00,-0.0002
1867.00,-0.0002
1866.00,-0.0002
1865.00,-0.0001
1864.00,-0.0000
1863.00,-0.0000
1862.00,-0.0001
1861.00,-0.0001
1860.00,-0.0002
1859.00,-0.0003
1858.00,-0.0003
1857.00,-0.0003
1856.00,-0.0002
1855.00,-0.0001
1854.00,-0.0000
1853.00,0.0000
1852.00,0.0001
1851.00,0.0001
1850.00,0.0001
1849.00,0.0001
1848.00,0.0001
1847.00,-0.0000
1846.00,-0.0001
1845.00,-0.0001
1844.00,-0.0001
1843.00,-0.0001
1842.00,-0.0000
1841.00,0.0000
1840.00,0.0001
1839.00,0.0001
1838.00,0.0002
1837.00,0.0003
1836.00,0.0003
1835.00,0.0003
1834.00,0.0003
1833.00,0.0002
1832.00,0.0001
1831.00,0.0001
1830.00,0.0000
1829.00,0.0001
1828.00,0.0001
1827.00,0.0002
1826.00,0.0001
1825.00,0.0002
1824.00,0.0002
1823.00,0.0003
1822.00,0.0002
1821.00,0.0002
1820.00,0.0001
1819.00,-0.0001
1818.00,-0.0002
1817.00,-0.0002
1816.00,-0.0001
1815.00,-0.0001
1814.00,-0.0000
1813.00,0.0000
1812.00,0.0000
1811.00,0.0001
1810.00,0.0001
1809.00,0.0001
1808.00,0.0002
1807.00,0.0002
1806.00,0.0002
1805.00,0.0002
1804.00,0.0003
1803.00,0.0003
1802.00,0.0002
1801.00,0.0002
1800.00,0.0002
1799.00,0.0002
1798.00,0.0003
1797.00,0.0003
1796.00,0.0004
1795.00,0.0004
1794.00,0.0004
1793.00,0.0004
1792.00,0.0004
1791.00,0.0004
1790.00,0.0004
1789.00,0.0004
1788.00,0.0004
1787.00,0.0004
1786.00,0.0005
1785.00,0.0005
1784.00,0.0005
1783.00,0.0006
1782.00,0.0006
1781.00,0.0006
1780.00,0.0006
1779.00,0.0006
1778.00,0.0006
1777.00,0.0006
1776.00,0.0007
1775.00,0.0007
1774.00,0.0006
1773.00,0.0006
1772.00,0.0006
1771.00,0.0007
1770.00,0.0007
1769.00,0.0008
1768.00,0.0009
1767.00,0.0009
1766.00,0.0009
1765.00,0.0009
1764.00,0.0009
1763.00,0.0009
1762.00,0.0009
1761.00,0.0009
1760.00,0.0009
1759.00,0.0009
1758.00,0.0009
1757.00,0.0009
1756.00,0.0009
1755.00,0.0009
1754.00,0.0009
1753.00,0.0009
1752.00,0.0010
1751.00,0.0010
1750.00,0.0010
1749.00,0.0011
1748.00,0.0011
1747.00,0.0011
1746.00,0.0011
1745.00,0.0012
1744.00,0.0013
1743.00,0.0013
1742.00,0.0013
1741.00,0.0013
1740.00,0.0014
1739.00,0.0014
1738.00,0.0014
1737.00,0.0015
1736.00,0.0015
1735.00,0.0015
1734.00,0.0016
1733.00,0.0016
1732.00,0.0016
1731.00,0.0016
1730.00,0.0016
1729.00,0.0015
1728.00,0.0015
1727.00,0.0015
1726.00,0.0016
1725.00,0.0016
1724.00,0.0016
1723.00,0.0017
1722.00,0.0017
1721.00,0.0017
1720.00,0.0017
1719.00,0.0017
1718.00,0.0016
1717.00,0.0016
1716.00,0.0016
1715.00,0.0016
1714.00,0.0017
1713.00,0.0017
1712.00,0.0018
1711.00,0.0019
1710.00,0.0020
1709.00,0.0020
1708.00,0.0020
1707.00,0.0019
1706.00,0.0019
1705.00,0.0020
1704.00,0.0021
1703.00,0.0021
1702.00,0.0021
1701.00,0.0022
1700.00,0.0023
1699.00,0.0023
1698.00,0.0023
1697.00,0.0023
1696.00,0.0024
1695.00,0.0024
1694.00,0.0024
1693.00,0.0025
1692.00,0.0025
1691.00,0.0025
1690.00,0.0025
1689.00,0.0025
1688.00,0.0025
1687.00,0.0025
1686.00,0.0025
1685.00,0.0026
1684.00,0.0026
1683.00,0.0026
1682.00,0.0027
1681.00,0.0027
1680.00,0.0028
1679.00,0.0028
1678.00,0.0028
1677.00,0.0029
1676.00,0.0029
1675.00,0.0029
1674.00,0.0029
1673.00,0.0030
1672.00,0.0030
1671.00,0.0031
1670.00,0.0032
1669.00,0.0033
1668.00,0.0033
1667.00,0.0033
1666.00,0.0033
1665.00,0.0032
1664.00,0.0032
1663.00,0.0032
1662.00,0.0032
1661.00,0.0033
1660.00,0.0034
1659.00,0.0035
1658.00,0.0036
1657.00,0.0036
1656.00,0.0037
1655.00,0.0038
1654.00,0.0038
1653.00,0.0039
1652.00,0.0039
1651.00,0.0039
1650.00,0.0039
1649.00,0.0039
1648.00,0.0039
1647.00,0.0039
1646.00,0.0039
1645.00,0.0039
1644.00,0.0039
1643.00,0.0040
1642.00,0.0041
1641.00,0.0041
1640.00,0.0042
1639.00,0.0043
1638.00,0.0044
1637.00,0.0044
1636.00,0.0045
1635.00,0.0044
1634.00,0.0044
1633.00,0.0043
1632.00,0.0043
1631.00,0.0043
1630.00,0.0043
1629.00,0.0043
1628.00,0.0043
1627.00,0.0042
1626.00,0.0042
1625.00,0.0042
1624.00,0.0043
1623.00,0.0042
1622.00,0.0042
1621.00,0.0042
1620.00,0.0042
1619.00,0.0042
1618.00,0.0041
1617.00,0.0041
1616.00,0.0040
1615.00,0.0040
1614.00,0.0040
1613.00,0.0040
1612.00,0.0041
1611.00,0.0042
1610.00,0.0042
1609.00,0.0042
1608.00,0.0042
1607.00,0.0041
1606.00,0.0041
1605.00,0.0041
1604.00,0.0041
1603.00,0.0041
1602.00,0.0040
1601.00,0.0040
1600.00,0.0040
1599.00,0.0040
1598.00,0.0040
1597.00,0.0040
1596.00,0.0040
1595.00,0.0040
1594.00,0.0039
1593.00,0.0039
1592.00,0.0038
1591.00,0.0038
1590.00,0.0038
1589.00,0.0038
1588.00,0.0038
1587.00,0.0039
1586.00,0.0039
1585.00,0.0039
1584.00,0.0040
1583.00,0.0040
1582.00,0.0040
1581.00,0.0040
1580.00,0.0040
1579.00,0.0040
1578.00,0.0040
1577.00,0.0040
1576.00,0.0040
1575.00,0.0039
1574.00,0.0039
1573.00,0.0039
1572.00,0.0039
1571.00,0.0039
1570.00,0.0039
1569.00,0.0039
1568.00,0.0040
1567.00,0.0040
1566.00,0.0041
1565.00,0.0042
1564.00,0.0042
1563.00,0.0042
1562.00,0.0042
1561.00,0.0042
1560.00,0.0043
1559.00,0.0043
1558.00,0.0044
1557.00,0.0045
1556.00,0.0046
1555.00,0.0046
1554.00,0.0046
1553.00,0.0047
1552.00,0.0047
1551.00,0.0047
1550.00,0.0047
1549.00,0.0047
1548.00,0.0047
1547.00,0.0047
1546.00,0.0048
1545.00,0.0048
1544.00,0.0049
1543.00,0.0048
1542.00,0.0048
1541.00,0.0048
1540.00,0.0048
1539.00,0.0047
1538.00,0.0047
1537.00,0.0047
1536.00,0.0047
1535.00,0.0047
1534.00,0.0046
1533.00,0.0045
1532.00,0.0045
1531.00,0.0045
1530.00,0.0044
1529.00,0.0044
1528.00,0.0044
1527.00,0.0043
1526.00,0.0043
1525.00,0.0043
1524.00,0.0044
1523.00,0.0044
1522.00,0.0043
1521.00,0.0043
1520.00,0.0044
1519.00,0.0045
1518.00,0.0045
1517.00,0.0046
1516.00,0.0047
1515.00,0.0047
1514.00,0.0047
1513.00,0.0048
1512.00,0.0049
1511.00,0.0050
1510.00,0.0050
1509.00,0.0051
1508.00,0.0052
1507.00,0.0053
1506.00,0.0053
1505.00,0.0055
1504.00,0.0057
1503.00,0.0058
1502.00,0.0059
1501.00,0.0061
1500.00,0.0063
1499.00,0.0065
1498.00,0.0067
1497.00,0.0069
1496.00,0.0073
1495.00,0.0076
1494.00,0.0078
1493.00,0.0081
1492.00,0.0085
1491.00,0.0089
1490.00,0.0092
1489.00,0.0097
1488.00,0.0102
1487.00,0.0105
1486.00,0.0109
1485.00,0.0115
1484.00,0.0121
1483.00,0.0128
1482.00,0.0136
1481.00,0.0146
1480.00,0.0157
1479.00,0.0169
1478.00,0.0183
1477.00,0.0203
1476.00,0.0226
1475.00,0.0252
1474.00,0.0288
1473.00,0.0344
1472.00,0.0413
1471.00,0.0480
1470.00,0.0545
1469.00,0.0613
1468.00,0.0689
1467.00,0.0773
1466.00,0.0872
1465.00,0.0980
1464.00,0.1076
1463.00,0.1145
1462.00,0.1190
1461.00,0.1222
1460.00,0.1244
1459.00,0.1257
1458.00,0.1265
1457.00,0.1270
1456.00,0.1267
1455.00,0.1258
1454.00,0.1245
1453.00,0.1225
1452.00,0.1194
1451.00,0.1149
1450.00,0.1090
1449.00,0.1009
1448.00,0.0908
1447.00,0.0804
1446.00,0.0713
1445.00,0.0636
1444.00,0.0571
1443.00,0.0520
1442.00,0.0483
1441.00,0.0459
1440.00,0.0447
1439.00,0.0444
1438.00,0.0451
1437.00,0.0458
1436.00,0.0451
1435.00,0.0423
1434.00,0.0382
1433.00,0.0331
1432.00,0.0279
1431.00,0.0233
1430.00,0.0198
1429.00,0.0174
1428.00,0.0157
1427.00,0.0146
1426.00,0.0139
1425.00,0.0133
1424.00,0.0127
1423.00,0.0123
1422.00,0.0122
1421.00,0.0120
1420.00,0.0117
1419.00,0.0115
1418.00,0.0113
1417.00,0.0111
1416.00,0.0109
1415.00,0.0108
1414.00,0.0108
1413.00,0.0107
1412.00,0.0106
1411.00,0.0106
1410.00,0.0106
1409.00,0.0105
1408.00,0.0104
1407.00,0.0104
1406.00,0.0105
1405.00,0.0105
1404.00,0.0105
1403.00,0.0106
1402.00,0.0108
1401.00,0.0110
1400.00,0.0111
1399.00,0.0112
1398.00,0.0115
1397.00,0.0117
1396.00,0.0119
1395.00,0.0124
1394.00,0.0130
1393.00,0.0137
1392.00,0.0143
1391.00,0.0152
1390.00,0.0165
1389.00,0.0183
1388.00,0.0210
1387.00,0.0251
1386.00,0.0304
1385.00,0.0371
1384.00,0.0459
1383.00,0.0578
1382.00,0.0737
1381.00,0.0945
1380.00,0.1211
1379.00,0.1528
1378.00,0.1855
1377.00,0.2121
1376.00,0.2249
1375.00,0.2179
1374.00,0.1925
1373.00,0.1591
1372.00,0.1275
1371.00,0.1011
1370.00,0.0799
1369.00,0.0638
1368.00,0.0528
1367.00,0.0461
1366.00,0.0425
1365.00,0.0412
1364.00,0.0415
1363.00,0.0434
1362.00,0.0461
1361.00,0.0490
1360.00,0.0511
1359.00,0.0517
1358.00,0.0504
1357.00,0.0471
1356.00,0.0425
1355.00,0.0373
1354.00,0.0323
1353.00,0.0280
1352.00,0.0246
1351.00,0.0219
1350.00,0.0198
1349.00,0.0180
1348.00,0.0167
1347.00,0.0156
1346.00,0.0147
1345.00,0.0140
1344.00,0.0135
1343.00,0.0131
1342.00,0.0127
1341.00,0.0125
1340.00,0.0122
1339.00,0.0119
1338.00,0.0118
1337.00,0.0117
1336.00,0.0119
1335.00,0.0121
1334.00,0.0125
1333.00,0.0130
1332.00,0.0135
1331.00,0.0139
1330.00,0.0141
1329.00,0.0140
1328.00,0.0135
1327.00,0.0129
1326.00,0.0121
1325.00,0.0114
1324.00,0.0107
1323.00,0.0100
1322.00,0.0095
1321.00,0.0091
1320.00,0.0088
1319.00,0.0086
1318.00,0.0084
1317.00,0.0082
1316.00,0.0080
1315.00,0.0078
1314.00,0.0078
1313.00,0.0078
1312.00,0.0079
1311.00,0.0081
1310.00,0.0084
1309.00,0.0088
1308.00,0.0095
1307.00,0.0103
1306.00,0.0111
1305.00,0.0117
1304.00,0.0120
1303.00,0.0120
1302.00,0.0119
1301.00,0.0118
1300.00,0.0119
1299.00,0.0122
1298.00,0.0124
1297.00,0.0126
1296.00,0.0127
1295.00,0.0124
1294.00,0.0120
1293.00,0.0114
1292.00,0.0108
1291.00,0.0102
1290.00,0.0097
1289.00,0.0093
1288.00,0.0089
1287.00,0.0087
1286.00,0.0084
1285.00,0.0082
1284.00,0.0080
1283.00,0.0078
1282.00,0.0076
1281.00,0.0075
1280.00,0.0074
1279.00,0.0072
1278.00,0.0071
1277.00,0.0070
1276.00,0.0069
1275.00,0.0069
1274.00,0.0069
1273.00,0.0070
1272.00,0.0070
1271.00,0.0070
1270.00,0.0070
1269.00,0.0070
1268.00,0.0071
1267.00,0.0071
1266.00,0.0073
1265.00,0.0074
1264.00,0.0076
1263.00,0.0078
1262.00,0.0081
1261.00,0.0085
1260.00,0.0089
1259.00,0.0094
1258.00,0.0098
1257.00,0.0102
1256.00,0.0104
1255.00,0.0103
1254.00,0.0099
1253.00,0.0094
1252.00,0.0089
1251.00,0.0085
1250.00,0.0082
1249.00,0.0080
1248.00,0.0078
1247.00,0.0077
1246.00,0.0076
1245.00,0.0075
1244.00,0.0074
1243.00,0.0074
1242.00,0.0073
1241.00,0.0073
1240.00,0.0072
1239.00,0.0071
1238.00,0.0070
1237.00,0.0070
1236.00,0.0069
1235.00,0.0069
1234.00,0.0069
1233.00,0.0069
1232.00,0.0069
1231.00,0.0070
1230.00,0.0070
1229.00,0.0071
1228.00,0.0072
1227.00,0.0074
1226.00,0.0077
1225.00,0.0080
1224.00,0.0083
1223.00,0.0086
1222.00,0.0089
1221.00,0.0092
1220.00,0.0094
1219.00,0.0096
1218.00,0.0096
1217.00,0.0094
1216.00,0.0091
1215.00,0.0088
1214.00,0.0085
1213.00,0.0081
1212.00,0.0077
1211.00,0.0074
1210.00,0.0072
1209.00,0.0069
1208.00,0.0067
1207.00,0.0066
1206.00,0.0065
1205.00,0.0064
1204.00,0.0063
1203.00,0.0063
1202.00,0.0063
1201.00,0.0063
1200.00,0.0063
1199.00,0.0062
1198.00,0.0061
1197.00,0.0061
1196.00,0.0061
1195.00,0.0061
1194.00,0.0061
1193.00,0.0061
1192.00,0.0060
1191.00,0.0060
1190.00,0.0060
1189.00,0.0060
1188.00,0.0060
1187.00,0.0060
1186.00,0.0061
1185.00,0.0062
1184.00,0.0062
1183.00,0.0063
1182.00,0.0065
1181.00,0.0067
1180.00,0.0070
1179.00,0.0073
1178.00,0.0078
1177.00,0.0084
1176.00,0.0093
1175.00,0.0104
1174.00,0.0119
1173.00,0.0138
1172.00,0.0160
1171.00,0.0183
1170.00,0.0205
1169.00,0.0223
1168.00,0.0235
1167.00,0.0238
1166.00,0.0236
1165.00,0.0229
1164.00,0.0220
1163.00,0.0210
1162.00,0.0201
1161.00,0.0193
1160.00,0.0187
1159.00,0.0183
1158.00,0.0180
1157.00,0.0179
1156.00,0.0178
1155.00,0.0178
1154.00,0.0177
1153.00,0.0176
1152.00,0.0174
1151.00,0.0169
1150.00,0.0162
1149.00,0.0153
1148.00,0.0144
1147.00,0.0136
1146.00,0.0128
1145.00,0.0120
1144.00,0.0113
1143.00,0.0106
1142.00,0.0099
1141.00,0.0093
1140.00,0.0088
1139.00,0.0084
1138.00,0.0082
1137.00,0.0079
1136.00,0.0077
1135.00,0.0075
1134.00,0.0073
1133.00,0.0072
1132.00,0.0071
1131.00,0.0071
1130.00,0.0071
1129.00,0.0072
1128.00,0.0073
1127.00,0.0074
1126.00,0.0075
1125.00,0.0075
1124.00,0.0074
1123.00,0.0074
1122.00,0.0074
1121.00,0.0075
1120.00,0.0075
1119.00,0.0076
1118.00,0.0077
1117.00,0.0078
1116.00,0.0080
1115.00,0.0082
1114.00,0.0083
1113.00,0.0085
1112.00,0.0087
1111.00,0.0091
1110.00,0.0095
1109.00,0.0100
1108.00,0.0106
1107.00,0.0114
1106.00,0.0123
1105.00,0.0132
1104.00,0.0138
1103.00,0.0141
1102.00,0.0141
1101.00,0.0137
1100.00,0.0132
1099.00,0.0125
1098.00,0.0118
1097.00,0.0110
1096.00,0.0104
1095.00,0.0098
1094.00,0.0094
1093.00,0.0091
1092.00,0.0088
1091.00,0.0086
1090.00,0.0084
1089.00,0.0081
1088.00,0.0078
1087.00,0.0077
1086.00,0.0076
1085.00,0.0075
1084.00,0.0073
1083.00,0.0072
1082.00,0.0071
1081.00,0.0070
1080.00,0.0070
1079.00,0.0070
1078.00,0.0069
1077.00,0.0068
1076.00,0.0067
1075.00,0.0067
1074.00,0.0067
1073.00,0.0067
1072.00,0.0066
1071.00,0.0067
1070.00,0.0067
1069.00,0.0068
1068.00,0.0068
1067.00,0.0068
1066.00,0.0068
1065.00,0.0068
1064.00,0.0068
1063.00,0.0070
1062.00,0.0071
1061.00,0.0071
1060.00,0.0070
1059.00,0.0070
1058.00,0.0070
1057.00,0.0070
1056.00,0.0071
1055.00,0.0070
1054.00,0.0070
1053.00,0.0070
1052.00,0.0071
1051.00,0.0073
1050.00,0.0075
1049.00,0.0076
1048.00,0.0077
1047.00,0.0079
1046.00,0.0080
1045.00,0.0081
1044.00,0.0081
1043.00,0.0081
1042.00,0.0080
1041.00,0.0079
1040.00,0.0078
1039.00,0.0078
1038.00,0.0078
1037.00,0.0077
1036.00,0.0076
1035.00,0.0075
1034.00,0.0075
1033.00,0.0075
1032.00,0.0076
1031.00,0.0076
1030.00,0.0076
1029.00,0.0076
1028.00,0.0076
1027.00,0.0076
1026.00,0.0076
1025.00,0.0076
1024.00,0.0076
1023.00,0.0076
1022.00,0.0076
1021.00,0.0076
1020.00,0.0076
1019.00,0.0077
1018.00,0.0078
1017.00,0.0080
1016.00,0.0083
1015.00,0.0085
1014.00,0.0087
1013.00,0.0089
1012.00,0.0091
1011.00,0.0094
1010.00,0.0096
1009.00,0.0099
1008.00,0.0102
1007.00,0.0107
1006.00,0.0113
1005.00,0.0122
1004.00,0.0134
1003.00,0.0149
1002.00,0.0169
1001.00,0.0191
1000.00,0.0213
999.00,0.0231
998.00,0.0238
997.00,0.0232
996.00,0.0214
995.00,0.0189
994.00,0.0163
993.00,0.0140
992.00,0.0122
991.00,0.0110
990.00,0.0101
989.00,0.0095
988.00,0.0091
987.00,0.0089
986.00,0.0089
985.00,0.0091
984.00,0.0095
983.00,0.0102
982.00,0.0111
981.00,0.0125
980.00,0.0144
979.00,0.0169
978.00,0.0200
977.00,0.0233
976.00,0.0268
975.00,0.0298
974.00,0.0317
973.00,0.0321
972.00,0.0308
971.00,0.0279
970.00,0.0242
969.00,0.0205
968.00,0.0174
967.00,0.0150
966.00,0.0132
965.00,0.0118
964.00,0.0108
963.00,0.0100
962.00,0.0093
961.00,0.0088
960.00,0.0084
959.00,0.0082
958.00,0.0080
957.00,0.0079
956.00,0.0076
955.00,0.0074
954.00,0.0072
953.00,0.0070
952.00,0.0070
951.00,0.0070
950.00,0.0071
949.00,0.0071
948.00,0.0073
947.00,0.0074
946.00,0.0077
945.00,0.0080
944.00,0.0084
943.00,0.0088
942.00,0.0091
941.00,0.0093
940.00,0.0092
939.00,0.0089
938.00,0.0084
937.00,0.0079
936.00,0.0074
935.00,0.0071
934.00,0.0068
933.00,0.0065
932.00,0.0062
931.00,0.0061
930.00,0.0061
929.00,0.0060
928.00,0.0060
927.00,0.0059
926.00,0.0059
925.00,0.0059
924.00,0.0059
923.00,0.0060
922.00,0.0061
921.00,0.0062
920.00,0.0063
919.00,0.0064
918.00,0.0065
917.00,0.0066
916.00,0.0067
915.00,0.0068
914.00,0.0069
913.00,0.0070
912.00,0.0071
911.00,0.0072
910.00,0.0074
909.00,0.0076
908.00,0.0080
907.00,0.0084
906.00,0.0091
905.00,0.0103
904.00,0.0120
903.00,0.0141
902.00,0.0166
901.00,0.0188
900.00,0.0203
899.00,0.0207
898.00,0.0199
897.00,0.0180
896.00,0.0156
895.00,0.0133
894.00,0.0114
893.00,0.0100
892.00,0.0089
891.00,0.0083
890.00,0.0078
889.00,0.0075
888.00,0.0072
887.00,0.0070
886.00,0.0069
885.00,0.0067
884.00,0.0066
883.00,0.0066
882.00,0.0066
881.00,0.0066
880.00,0.0066
879.00,0.0067
878.00,0.0066
877.00,0.0066
876.00,0.0066
875.00,0.0066
874.00,0.0067
873.00,0.0067
872.00,0.0066
871.00,0.0066
870.00,0.0066
869.00,0.0066
868.00,0.0067
867.00,0.0069
866.00,0.0070
865.00,0.0072
864.00,0.0073
863.00,0.0075
862.00,0.0076
861.00,0.0078
860.00,0.0079
859.00,0.0080
858.00,0.0081
857.00,0.0082
856.00,0.0082
855.00,0.0082
854.00,0.0083
853.00,0.0084
852.00,0.0085
851.00,0.0088
850.00,0.0092
849.00,0.0098
848.00,0.0104
847.00,0.0114
846.00,0.0128
845.00,0.0148
844.00,0.0174
843.00,0.0202
842.00,0.0221
841.00,0.0223
840.00,0.0209
839.00,0.0183
838.00,0.0157
837.00,0.0136
836.00,0.0122
835.00,0.0113
834.00,0.0108
833.00,0.0105
832.00,0.0103
831.00,0.0102
830.00,0.0100
829.00,0.0098
828.00,0.0096
827.00,0.0095
826.00,0.0096
825.00,0.0097
824.00,0.0098
823.00,0.0097
822.00,0.0096
821.00,0.0096
820.00,0.0098
819.00,0.0102
818.00,0.0107
817.00,0.0116
816.00,0.0127
815.00,0.0140
814.00,0.0157
813.00,0.0176
812.00,0.0196
811.00,0.0215
810.00,0.0230
809.00,0.0236
808.00,0.0234
807.00,0.0223
806.00,0.0207
805.00,0.0187
804.00,0.0167
803.00,0.0149
802.00,0.0135
801.00,0.0124
800.00,0.0115
799.00,0.0108
798.00,0.0103
797.00,0.0098
796.00,0.0095
795.00,0.0092
794.00,0.0090
793.00,0.0087
792.00,0.0083
791.00,0.0080
790.00,0.0078
789.00,0.0077
788.00,0.0076
787.00,0.0075
786.00,0.0073
785.00,0.0071
784.00,0.0069
783.00,0.0066
782.00,0.0064
781.00,0.0061
780.00,0.0058
779.00,0.0056
778.00,0.0055
777.00,0.0056
776.00,0.0058
775.00,0.0061
774.00,0.0064
773.00,0.0065
772.00,0.0066
771.00,0.0066
770.00,0.0066
769.00,0.0065
768.00,0.0065
767.00,0.0066
766.00,0.0066
765.00,0.0065
764.00,0.0063
763.00,0.0062
762.00,0.0061
761.00,0.0059
760.00,0.0057
759.00,0.0056
758.00,0.0054
757.00,0.0053
756.00,0.0051
755.00,0.0049
754.00,0.0047
753.00,0.0046
752.00,0.0046
751.00,0.0046
750.00,0.0046
749.00,0.0047
748.00,0.0048
747.00,0.0049
746.00,0.0050
745.00,0.0050
744.00,0.0050
743.00,0.0050
742.00,0.0049
741.00,0.0048
740.00,0.0048
739.00,0.0049
738.00,0.0051
737.00,0.0053
736.00,0.0054
735.00,0.0056
734.00,0.0059
733.00,0.0062
732.00,0.0063
731.00,0.0063
730.00,0.0061
729.00,0.0059
728.00,0.0057
727.00,0.0056
726.00,0.0056
725.00,0.0057
724.00,0.0059
723.00,0.0059
722.00,0.0059
721.00,0.0058
720.00,0.0057
719.00,0.0056
718.00,0.0056
717.00,0.0055
716.00,0.0053
715.00,0.0050
714.00,0.0049
713.00,0.0049
712.00,0.0050
711.00,0.0051
710.00,0.0052
709.00,0.0053
708.00,0.0054
707.00,0.0054
706.00,0.0054
705.00,0.0054
704.00,0.0053
703.00,0.0051
702.00,0.0049
701.00,0.0048
700.00,0.0048
699.00,0.0048
698.00,0.0048
697.00,0.0047
696.00,0.0046
695.00,0.0045
694.00,0.0045
693.00,0.0045
692.00,0.0046
691.00,0.0047
690.00,0.0048
689.00,0.0048
688.00,0.0046
687.00,0.0044
686.00,0.0041
685.00,0.0039
684.00,0.0037
683.00,0.0038
682.00,0.0042
681.00,0.0045
680.00,0.0047
679.00,0.0047
678.00,0.0046
677.00,0.0045
676.00,0.0043
675.00,0.0043
674.00,0.0042
673.00,0.0042
672.00,0.0042
671.00,0.0042
670.00,0.0043
669.00,0.0044
668.00,0.0046
667.00,0.0047
666.00,0.0045
665.00,0.0042
664.00,0.0040
663.00,0.0039
662.00,0.0039
661.00,0.0040
660.00,0.0042
659.00,0.0045
658.00,0.0047
657.00,0.0049
656.00,0.0049
655.00,0.0048
654.00,0.0046
653.00,0.0044
652.00,0.0044
651.00,0.0046
650.00,0.0047
649.00,0.0047
648.00,0.0047
647.00,0.0046
646.00,0.0045
645.00,0.0045
644.00,0.0046
643.00,0.0048
642.00,0.0050
641.00,0.0051
640.00,0.0051
639.00,0.0050
638.00,0.0048
637.00,0.0047
636.00,0.0046
635.00,0.0045
634.00,0.0045
633.00,0.0044
632.00,0.0043
631.00,0.0042
630.00,0.0043
629.00,0.0045
628.00,0.0047
627.00,0.0049
626.00,0.0049
625.00,0.0048
624.00,0.0047
623.00,0.0048
622.00,0.0049
621.00,0.0050
620.00,0.0050
619.00,0.0049
618.00,0.0049
617.00,0.0050
616.00,0.0050
615.00,0.0051
614.00,0.0052
613.00,0.0054
612.00,0.0055
611.00,0.0055
610.00,0.0053
609.00,0.0052
608.00,0.0052
607.00,0.0053
606.00,0.0052
605.00,0.0050
604.00,0.0048
603.00,0.0047
602.00,0.0045
601.00,0.0045
600.00,0.0047
599.00,0.0050
598.00,0.0051
597.00,0.0051
596.00,0.0051
595.00,0.0051
594.00,0.0053
593.00,0.0055
592.00,0.0055
591.00,0.0053
590.00,0.0049
589.00,0.0045
588.00,0.0044
587.00,0.0046
586.00,0.0051
585.00,0.0055
584.00,0.0056
583.00,0.0055
582.00,0.0052
581.00,0.0048
580.00,0.0047
579.00,0.0049
578.00,0.0052
577.00,0.0055
576.00,0.0055
575.00,0.0055
574.00,0.0055
573.00,0.0056
572.00,0.0056
571.00,0.0056
570.00,0.0056
569.00,0.0057
568.00,0.0059
567.00,0.0061
566.00,0.0062
565.00,0.0062
564.00,0.0060
563.00,0.0059
562.00,0.0058
561.00,0.0057
560.00,0.0056
559.00,0.0056
558.00,0.0057
557.00,0.0057
556.00,0.0056
555.00,0.0052
554.00,0.0046
553.00,0.0041
552.00,0.0040
551.00,0.0044
550.00,0.0050
549.00,0.0056
548.00,0.0061
547.00,0.0063
546.00,0.0064
545.00,0.0064
544.00,0.0062
543.00,0.0061
542.00,0.0061
541.00,0.0062
540.00,0.0064
539.00,0.0068
538.00,0.0072
537.00,0.0073
536.00,0.0071
535.00,0.0068
534.00,0.0067
533.00,0.0068
532.00,0.0071
531.00,0.0074
530.00,0.0077
529.00,0.0078
528.00,0.0077
527.00,0.0076
526.00,0.0077
525.00,0.0079
524.00,0.0080
523.00,0.0079
522.00,0.0075
521.00,0.0071
520.00,0.0066
519.00,0.0061
518.00,0.0057
517.00,0.0053
516.00,0.0052
515.00,0.0053
514.00,0.0056
513.00,0.0059
512.00,0.0061
511.00,0.0063
510.00,0.0064
509.00,0.0064
508.00,0.0063
507.00,0.0061
506.00,0.0059
505.00,0.0057
504.00,0.0055
503.00,0.0051
502.00,0.0046
501.00,0.0043
500.00,0.0042
499.00,0.0043
498.00,0.0047
497.00,0.0054
496.00,0.0061
495.00,0.0067
494.00,0.0070
493.00,0.0071
492.00,0.0069
491.00,0.0065
490.00,0.0059
489.00,0.0055
488.00,0.0053
487.00,0.0054
486.00,0.0053
485.00,0.0049
484.00,0.0045
483.00,0.0045
482.00,0.0050
481.00,0.0055
480.00,0.0060
479.00,0.0065
478.00,0.0070
477.00,0.0069
476.00,0.0063
475.00,0.0055
474.00,0.0053
473.00,0.0058
472.00,0.0066
471.00,0.0075
470.00,0.0084
469.00,0.0094
468.00,0.0103
467.00,0.0110
466.00,0.0113
465.00,0.0116
464.00,0.0119
463.00,0.0123
462.00,0.0130
461.00,0.0136
460.00,0.0143
459.00,0.0154
458.00,0.0167
457.00,0.0175
456.00,0.0173
455.00,0.0160
454.00,0.0142
453.00,0.0122
452.00,0.0108
451.00,0.0102
450.00,0.0100
