Created as New Dataset,Sample 093 By Administrator Date Friday, September 05 2025
cm-1,A
4000.00,0.0011
3999.00,0.0012
3998.00,0.0012
3997.00,0.0012
3996.00,0.0012
3995.00,0.0012
3994.00,0.0011
3993.00,0.0011
3992.00,0.0011
3991.00,0.0011
3990.00,0.0010
3989.00,0.0010
3988.00,0.0010
3987.00,0.0010
3986.00,0.0010
3985.00,0.0010
3984.00,0.0010
3983.00,0.0010
3982.00,0.0010
3981.00,0.0010
3980.00,0.0010
3979.00,0.0010
3978.00,0.0009
3977.00,0.0009
3976.00,0.0009
3975.00,0.0009
3974.00,0.0009
3973.00,0.0009
3972.00,0.0009
3971.00,0.0009
3970.00,0.0009
3969.00,0.0009
3968.00,0.0009
3967.00,0.0009
3966.00,0.0009
3965.00,0.0009
3964.00,0.0009
3963.00,0.0009
3962.00,0.0009
3961.00,0.0009
3960.00,0.0009
3959.00,0.0009
3958.00,0.0009
3957.00,0.0009
3956.00,0.0009
3955.00,0.0009
3954.00,0.0009
3953.00,0.0009
3952.00,0.0009
3951.00,0.0009
3950.00,0.0009
3949.00,0.0009
3948.00,0.0009
3947.00,0.0009
3946.00,0.0009
3945.00,0.0009
3944.00,0.0009
3943.00,0.0010
3942.00,0.0010
3941.00,0.0010
3940.00,0.0010
3939.00,0.0009
3938.00,0.0009
3937.00,0.0009
3936.00,0.0009
3935.00,0.0009
3934.00,0.0009
3933.00,0.0009
3932.00,0.0009
3931.00,0.0009
3930.00,0.0009
3929.00,0.0009
3928.00,0.0009
3927.00,0.0009
3926.00,0.0010
3925.00,0.0010
3924.00,0.0010
3923.00,0.0010
3922.00,0.0010
3921.00,0.0010
3920.00,0.0009
3919.00,0.0009
3918.00,0.0009
3917.00,0.0009
3916.00,0.0009
3915.00,0.0009
3914.00,0.0009
3913.00,0.0009
3912.00,0.0009
3911.00,0.0009
3910.00,0.0009
3909.00,0.0009
3908.00,0.0009
3907.00,0.0009
3906.00,0.0009
3905.00,0.0009
3904.00,0.0009
3903.00,0.0008
3902.00,0.0008
3901.00,0.0008
3900.00,0.0008
3899.00,0.0008
3898.00,0.0009
3897.00,0.0009
3896.00,0.0009
3895.00,0.0009
3894.00,0.0008
3893.00,0.0008
3892.00,0.0008
3891.00,0.0008
3890.00,0.0008
3889.00,0.0008
3888.00,0.0008
3887.00,0.0008
3886.00,0.0008
3885.00,0.0008
3884.00,0.0008
3883.00,0.0008
3882.00,0.0009
3881.00,0.0009
3880.00,0.0009
3879.00,0.0009
3878.00,0.0009
3877.00,0.0009
3876.00,0.0009
3875.00,0.0009
3874.00,0.0009
3873.00,0.0009
3872.00,0.0009
3871.00,0.0009
3870.00,0.0008
3869.00,0.0008
3868.00,0.0008
3867.00,0.0008
3866.00,0.0007
3865.00,0.0008
3864.00,0.0008
3863.00,0.0008
3862.00,0.0008
3861.00,0.0008
3860.00,0.0009
3859.00,0.0009
3858.00,0.0009
3857.00,0.0009
3856.00,0.0010
3855.00,0.0009
3854.00,0.0009
3853.00,0.0010
3852.00,0.0010
3851.00,0.0010
3850.00,0.0009
3849.00,0.0009
3848.00,0.0008
3847.00,0.0008
3846.00,0.0008
3845.00,0.0008
3844.00,0.0008
3843.00,0.0008
3842.00,0.0008
3841.00,0.0008
3840.00,0.0009
3839.00,0.0010
3838.00,0.0010
3837.00,0.0010
3836.00,0.0009
3835.00,0.0009
3834.00,0.0008
3833.00,0.0008
3832.00,0.0008
3831.00,0.0008
3830.00,0.0008
3829.00,0.0008
3828.00,0.0008
3827.00,0.0008
3826.00,0.0008
3825.00,0.0008
3824.00,0.0008
3823.00,0.0009
3822.00,0.0009
3821.00,0.0009
3820.00,0.0009
3819.00,0.0009
3818.00,0.0010
3817.00,0.0010
3816.00,0.0010
3815.00,0.0009
3814.00,0.0009
3813.00,0.0009
3812.00,0.0008
3811.00,0.0008
3810.00,0.0009
3809.00,0.0009
3808.00,0.0009
3807.00,0.0009
3806.00,0.0009
3805.00,0.0009
3804.00,0.0009
3803.00,0.0009
3802.00,0.0009
3801.00,0.0009
3800.00,0.0009
3799.00,0.0009
3798.00,0.0009
3797.00,0.0008
3796.00,0.0008
3795.00,0.0008
3794.00,0.0008
3793.00,0.0008
3792.00,0.0008
3791.00,0.0008
3790.00,0.0008
3789.00,0.0008
3788.00,0.0008
3787.00,0.0008
3786.00,0.0008
3785.00,0.0008
3784.00,0.0008
3783.00,0.0008
3782.00,0.0008
3781.00,0.0008
3780.00,0.0008
3779.00,0.0008
3778.00,0.0008
3777.00,0.0008
3776.00,0.0008
3775.00,0.0008
3774.00,0.0008
3773.00,0.0009
3772.00,0.0009
3771.00,0.0008
3770.00,0.0008
3769.00,0.0008
3768.00,0.0008
3767.00,0.0008
3766.00,0.0009
3765.00,0.0009
3764.00,0.0010
3763.00,0.0010
3762.00,0.0010
3761.00,0.0010
3760.00,0.0010
3759.00,0.0010
3758.00,0.0009
3757.00,0.0009
3756.00,0.0008
3755.00,0.0008
3754.00,0.0008
3753.00,0.0008
3752.00,0.0008
3751.00,0.0008
3750.00,0.0008
3749.00,0.0008
3748.00,0.0009
3747.00,0.0009
3746.00,0.0009
3745.00,0.0008
3744.00,0.0008
3743.00,0.0008
3742.00,0.0007
3741.00,0.0007
3740.00,0.0007
3739.00,0.0006
3738.00,0.0006
3737.00,0.0007
3736.00,0.0008
3735.00,0.0009
3734.00,0.0009
3733.00,0.0009
3732.00,0.0009
3731.00,0.0009
3730.00,0.0009
3729.00,0.0008
3728.00,0.0008
3727.00,0.0008
3726.00,0.0007
3725.00,0.0007
3724.00,0.0007
3723.00,0.0008
3722.00,0.0008
3721.00,0.0009
3720.00,0.0009
3719.00,0.0008
3718.00,0.0007
3717.00,0.0007
3716.00,0.0006
3715.00,0.0006
3714.00,0.0006
3713.00,0.0007
3712.00,0.0007
3711.00,0.0008
3710.00,0.0008
3709.00,0.0008
3708.00,0.0008
3707.00,0.0008
3706.00,0.0008
3705.00,0.0008
3704.00,0.0008
3703.00,0.0008
3702.00,0.0008
3701.00,0.0008
3700.00,0.0007
3699.00,0.0007
3698.00,0.0007
3697.00,0.0007
3696.00,0.0007
3695.00,0.0007
3694.00,0.0007
3693.00,0.0007
3692.00,0.0007
3691.00,0.0007
3690.00,0.0007
3689.00,0.0007
3688.00,0.0007
3687.00,0.0007
3686.00,0.0008
3685.00,0.0008
3684.00,0.0008
3683.00,0.0007
3682.00,0.0007
3681.00,0.0007
3680.00,0.0007
3679.00,0.0007
3678.00,0.0007
3677.00,0.0007
3676.00,0.0007
3675.00,0.0008
3674.00,0.0008
3673.00,0.0008
3672.00,0.0008
3671.00,0.0008
3670.00,0.0008
3669.00,0.0007
3668.00,0.0007
3667.00,0.0007
3666.00,0.0007
3665.00,0.0006
3664.00,0.0006
3663.00,0.0006
3662.00,0.0006
3661.00,0.0007
3660.00,0.0007
3659.00,0.0007
3658.00,0.0007
3657.00,0.0007
3656.00,0.0007
3655.00,0.0007
3654.00,0.0008
3653.00,0.0008
3652.00,0.0008
3651.00,0.0008
3650.00,0.0008
3649.00,0.0008
3648.00,0.0008
3647.00,0.0008
3646.00,0.0008
3645.00,0.0008
3644.00,0.0008
3643.00,0.0008
3642.00,0.0008
3641.00,0.0008
3640.00,0.0008
3639.00,0.0008
3638.00,0.0008
3637.00,0.0008
3636.00,0.0008
3635.00,0.0008
3634.00,0.0008
3633.00,0.0009
3632.00,0.0009
3631.00,0.0009
3630.00,0.0009
3629.00,0.0009
3628.00,0.0009
3627.00,0.0009
3626.00,0.0008
3625.00,0.0008
3624.00,0.0008
3623.00,0.0008
3622.00,0.0008
3621.00,0.0008
3620.00,0.0008
3619.00,0.0008
3618.00,0.0009
3617.00,0.0009
3616.00,0.0010
3615.00,0.0011
3614.00,0.0011
3613.00,0.0011
3612.00,0.0011
3611.00,0.0010
3610.00,0.0010
3609.00,0.0011
3608.00,0.0011
3607.00,0.0012
3606.00,0.0012
3605.00,0.0012
3604.00,0.0011
3603.00,0.0012
3602.00,0.0012
3601.00,0.0012
3600.00,0.0013
3599.00,0.0013
3598.00,0.0013
3597.00,0.0013
3596.00,0.0013
3595.00,0.0014
3594.00,0.0014
3593.00,0.0015
3592.00,0.0015
3591.00,0.0014
3590.00,0.0014
3589.00,0.0014
3588.00,0.0014
3587.00,0.0014
3586.00,0.0014
3585.00,0.0014
3584.00,0.0014
3583.00,0.0015
3582.00,0.0015
3581.00,0.0015
3580.00,0.0015
3579.00,0.0015
3578.00,0.0015
3577.00,0.0015
3576.00,0.0016
3575.00,0.0016
3574.00,0.0016
3573.00,0.0016
3572.00,0.0016
3571.00,0.0016
3570.00,0.0016
3569.00,0.0017
3568.00,0.0018
3567.00,0.0018
3566.00,0.0019
3565.00,0.0019
3564.00,0.0019
3563.00,0.0019
3562.00,0.0019
3561.00,0.0020
3560.00,0.0020
3559.00,0.0020
3558.00,0.0020
3557.00,0.0021
3556.00,0.0021
3555.00,0.0021
3554.00,0.0021
3553.00,0.0022
3552.00,0.0022
3551.00,0.0022
3550.00,0.0022
3549.00,0.0022
3548.00,0.0022
3547.00,0.0022
3546.00,0.0022
3545.00,0.0022
3544.00,0.0022
3543.00,0.0022
3542.00,0.0022
3541.00,0.0022
3540.00,0.0023
3539.00,0.0023
3538.00,0.0023
3537.00,0.0023
3536.00,0.0023
3535.00,0.0024
3534.00,0.0024
3533.00,0.0024
3532.00,0.0024
3531.00,0.0025
3530.00,0.0025
3529.00,0.0025
3528.00,0.0026
3527.00,0.0026
3526.00,0.0026
3525.00,0.0026
3524.00,0.0026
3523.00,0.0026
3522.00,0.0026
3521.00,0.0026
3520.00,0.0026
3519.00,0.0027
3518.00,0.0027
3517.00,0.0027
3516.00,0.0028
3515.00,0.0028
3514.00,0.0028
3513.00,0.0028
3512.00,0.0028
3511.00,0.0028
3510.00,0.0028
3509.00,0.0028
3508.00,0.0028
3507.00,0.0029
3506.00,0.0028
3505.00,0.0028
3504.00,0.0028
3503.00,0.0028
3502.00,0.0028
3501.00,0.0029
3500.00,0.0030
3499.00,0.0030
3498.00,0.0030
3497.00,0.0030
3496.00,0.0030
3495.00,0.0030
3494.00,0.0030
3493.00,0.0031
3492.00,0.0031
3491.00,0.0031
3490.00,0.0032
3489.00,0.0032
3488.00,0.0032
3487.00,0.0032
3486.00,0.0032
3485.00,0.0032
3484.00,0.0032
3483.00,0.0033
3482.00,0.0033
3481.00,0.0033
3480.00,0.0033
3479.00,0.0034
3478.00,0.0034
3477.00,0.0034
3476.00,0.0034
3475.00,0.0034
3474.00,0.0035
3473.00,0.0035
3472.00,0.0035
3471.00,0.0035
3470.00,0.0036
3469.00,0.0036
3468.00,0.0036
3467.00,0.0036
3466.00,0.0036
3465.00,0.0036
3464.00,0.0036
3463.00,0.0037
3462.00,0.0037
3461.00,0.0038
3460.00,0.0038
3459.00,0.0038
3458.00,0.0037
3457.00,0.0037
3456.00,0.0038
3455.00,0.0038
3454.00,0.0038
3453.00,0.0038
3452.00,0.0038
3451.00,0.0039
3450.00,0.0039
3449.00,0.0039
3448.00,0.0039
3447.00,0.0039
3446.00,0.0040
3445.00,0.0040
3444.00,0.0041
3443.00,0.0041
3442.00,0.0041
3441.00,0.0041
3440.00,0.0041
3439.00,0.0041
3438.00,0.0041
3437.00,0.0041
3436.00,0.0041
3435.00,0.0042
3434.00,0.0042
3433.00,0.0043
3432.00,0.0043
3431.00,0.0043
3430.00,0.0043
3429.00,0.0043
3428.00,0.0043
3427.00,0.0043
3426.00,0.0044
3425.00,0.0044
3424.00,0.0044
3423.00,0.0044
3422.00,0.0044
3421.00,0.0044
3420.00,0.0044
3419.00,0.0044
3418.00,0.0044
3417.00,0.0045
3416.00,0.0046
3415.00,0.0046
3414.00,0.0047
3413.00,0.0047
3412.00,0.0047
3411.00,0.0048
3410.00,0.0048
3409.00,0.0048
3408.00,0.0048
3407.00,0.0047
3406.00,0.0047
3405.00,0.0048
3404.00,0.0048
3403.00,0.0048
3402.00,0.0049
3401.00,0.0049
3400.00,0.0049
3399.00,0.0049
3398.00,0.0050
3397.00,0.0050
3396.00,0.0051
3395.00,0.0050
3394.00,0.0050
3393.00,0.0049
3392.00,0.0049
3391.00,0.0049
3390.00,0.0049
3389.00,0.0049
3388.00,0.0049
3387.00,0.0050
3386.00,0.0050
3385.00,0.0050
3384.00,0.0050
3383.00,0.0050
3382.00,0.0050
3381.00,0.0049
3380.00,0.0049
3379.00,0.0048
3378.00,0.0048
3377.00,0.0049
3376.00,0.0049
3375.00,0.0049
3374.00,0.0049
3373.00,0.0049
3372.00,0.0049
3371.00,0.0050
3370.00,0.0050
3369.00,0.0050
3368.00,0.0050
3367.00,0.0050
3366.00,0.0050
3365.00,0.0051
3364.00,0.0051
3363.00,0.0050
3362.00,0.0050
3361.00,0.0050
3360.00,0.0050
3359.00,0.0050
3358.00,0.0050
3357.00,0.0051
3356.00,0.0051
3355.00,0.0051
3354.00,0.0051
3353.00,0.0052
3352.00,0.0052
3351.00,0.0052
3350.00,0.0052
3349.00,0.0051
3348.00,0.0051
3347.00,0.0051
3346.00,0.0050
3345.00,0.0050
3344.00,0.0050
3343.00,0.0050
3342.00,0.0050
3341.00,0.0051
3340.00,0.0051
3339.00,0.0052
3338.00,0.0052
3337.00,0.0052
3336.00,0.0051
3335.00,0.0051
3334.00,0.0051
3333.00,0.0051
3332.00,0.0051
3331.00,0.0051
3330.00,0.0052
3329.00,0.0052
3328.00,0.0052
3327.00,0.0052
3326.00,0.0052
3325.00,0.0052
3324.00,0.0052
3323.00,0.0052
3322.00,0.0052
3321.00,0.0052
3320.00,0.0053
3319.00,0.0053
3318.00,0.0053
3317.00,0.0052
3316.00,0.0052
3315.00,0.0052
3314.00,0.0053
3313.00,0.0053
3312.00,0.0052
3311.00,0.0052
3310.00,0.0052
3309.00,0.0052
3308.00,0.0053
3307.00,0.0053
3306.00,0.0053
3305.00,0.0053
3304.00,0.0053
3303.00,0.0053
3302.00,0.0053
3301.00,0.0052
3300.00,0.0052
3299.00,0.0052
3298.00,0.0052
3297.00,0.0051
3296.00,0.0051
3295.00,0.0051
3294.00,0.0051
3293.00,0.0051
3292.00,0.0051
3291.00,0.0051
3290.00,0.0051
3289.00,0.0051
3288.00,0.0051
3287.00,0.0051
3286.00,0.0051
3285.00,0.0051
3284.00,0.0050
3283.00,0.0050
3282.00,0.0049
3281.00,0.0049
3280.00,0.0048
3279.00,0.0048
3278.00,0.0048
3277.00,0.0048
3276.00,0.0048
3275.00,0.0048
3274.00,0.0048
3273.00,0.0048
3272.00,0.0048
3271.00,0.0048
3270.00,0.0047
3269.00,0.0047
3268.00,0.0047
3267.00,0.0047
3266.00,0.0047
3265.00,0.0047
3264.00,0.0047
3263.00,0.0046
3262.00,0.0046
3261.00,0.0045
3260.00,0.0045
3259.00,0.0044
3258.00,0.0044
3257.00,0.0044
3256.00,0.0043
3255.00,0.0043
3254.00,0.0043
3253.00,0.0043
3252.00,0.0043
3251.00,0.0043
3250.00,0.0043
3249.00,0.0043
3248.00,0.0043
3247.00,0.0043
3246.00,0.0043
3245.00,0.0043
3244.00,0.0042
3243.00,0.0042
3242.00,0.0042
3241.00,0.0042
3240.00,0.0043
3239.00,0.0043
3238.00,0.0043
3237.00,0.0043
3236.00,0.0043
3235.00,0.0043
3234.00,0.0043
3233.00,0.0043
3232.00,0.0044
3231.00,0.0044
3230.00,0.0044
3229.00,0.0044
3228.00,0.0045
3227.00,0.0045
3226.00,0.0045
3225.00,0.0046
3224.00,0.0046
3223.00,0.0046
3222.00,0.0046
3221.00,0.0046
3220.00,0.0046
3219.00,0.0047
3218.00,0.0047
3217.00,0.0047
3216.00,0.0047
3215.00,0.0048
3214.00,0.0048
3213.00,0.0049
3212.00,0.0049
3211.00,0.0049
3210.00,0.0050
3209.00,0.0050
3208.00,0.0050
3207.00,0.0051
3206.00,0.0051
3205.00,0.0051
3204.00,0.0051
3203.00,0.0051
3202.00,0.0051
3201.00,0.0051
3200.00,0.0051
3199.00,0.0051
3198.00,0.0051
3197.00,0.0052
3196.00,0.0051
3195.00,0.0051
3194.00,0.0051
3193.00,0.0051
3192.00,0.0051
3191.00,0.0051
3190.00,0.0051
3189.00,0.0051
3188.00,0.0051
3187.00,0.0050
3186.00,0.0050
3185.00,0.0049
3184.00,0.0049
3183.00,0.0049
3182.00,0.0049
3181.00,0.0048
3180.00,0.0048
3179.00,0.0048
3178.00,0.0048
3177.00,0.0047
3176.00,0.0047
3175.00,0.0047
3174.00,0.0046
3173.00,0.0046
3172.00,0.0046
3171.00,0.0046
3170.00,0.0045
3169.00,0.0045
3168.00,0.0045
3167.00,0.0045
3166.00,0.0045
3165.00,0.0045
3164.00,0.0045
3163.00,0.0044
3162.00,0.0044
3161.00,0.0044
3160.00,0.0043
3159.00,0.0044
3158.00,0.0044
3157.00,0.0044
3156.00,0.0044
3155.00,0.0044
3154.00,0.0044
3153.00,0.0043
3152.00,0.0043
3151.00,0.0043
3150.00,0.0042
3149.00,0.0042
3148.00,0.0042
3147.00,0.0043
3146.00,0.0043
3145.00,0.0043
3144.00,0.0043
3143.00,0.0043
3142.00,0.0043
3141.00,0.0042
3140.00,0.0042
3139.00,0.0042
3138.00,0.0042
3137.00,0.0042
3136.00,0.0042
3135.00,0.0041
3134.00,0.0041
3133.00,0.0040
3132.00,0.0040
3131.00,0.0040
3130.00,0.0041
3129.00,0.0041
3128.00,0.0041
3127.00,0.0041
3126.00,0.0040
3125.00,0.0040
3124.00,0.0039
3123.00,0.0039
3122.00,0.0039
3121.00,0.0038
3120.00,0.0038
3119.00,0.0038
3118.00,0.0038
3117.00,0.0038
3116.00,0.0038
3115.00,0.0038
3114.00,0.0038
3113.00,0.0037
3112.00,0.0037
3111.00,0.0036
3110.00,0.0036
3109.00,0.0036
3108.00,0.0036
3107.00,0.0036
3106.00,0.0036
3105.00,0.0036
3104.00,0.0036
3103.00,0.0036
3102.00,0.0036
3101.00,0.0035
3100.00,0.0035
3099.00,0.0035
3098.00,0.0035
3097.00,0.0035
3096.00,0.0035
3095.00,0.0035
3094.00,0.0035
3093.00,0.0035
3092.00,0.0034
3091.00,0.0034
3090.00,0.0034
3089.00,0.0035
3088.00,0.0035
3087.00,0.0035
3086.00,0.0035
3085.00,0.0034
3084.00,0.0034
3083.00,0.0034
3082.00,0.0034
3081.00,0.0034
3080.00,0.0034
3079.00,0.0034
3078.00,0.0034
3077.00,0.0035
3076.00,0.0035
3075.00,0.0035
3074.00,0.0035
3073.00,0.0035
3072.00,0.0035
3071.00,0.0036
3070.00,0.0036
3069.00,0.0036
3068.00,0.0036
3067.00,0.0036
3066.00,0.0036
3065.00,0.0036
3064.00,0.0036
3063.00,0.0036
3062.00,0.0036
3061.00,0.0036
3060.00,0.0036
3059.00,0.0036
3058.00,0.0036
3057.00,0.0036
3056.00,0.0036
3055.00,0.0036
3054.00,0.0036
3053.00,0.0036
3052.00,0.0037
3051.00,0.0037
3050.00,0.0038
3049.00,0.0038
3048.00,0.0038
3047.00,0.0038
3046.00,0.0038
3045.00,0.0039
3044.00,0.0039
3043.00,0.0039
3042.00,0.0039
3041.00,0.0039
3040.00,0.0040
3039.00,0.0040
3038.00,0.0040
3037.00,0.0041
3036.00,0.0041
3035.00,0.0042
3034.00,0.0042
3033.00,0.0042
3032.00,0.0043
3031.00,0.0043
3030.00,0.0043
3029.00,0.0044
3028.00,0.0044
3027.00,0.0045
3026.00,0.0045
3025.00,0.0046
3024.00,0.0046
3023.00,0.0047
3022.00,0.0047
3021.00,0.0048
3020.00,0.0049
3019.00,0.0049
3018.00,0.0050
3017.00,0.0051
3016.00,0.0052
3015.00,0.0054
3014.00,0.0055
3013.00,0.0056
3012.00,0.0057
3011.00,0.0058
3010.00,0.0060
3009.00,0.0061
3008.00,0.0063
3007.00,0.0065
3006.00,0.0066
3005.00,0.0068
3004.00,0.0070
3003.00,0.0072
3002.00,0.0074
3001.00,0.0076
3000.00,0.0079
2999.00,0.0082
2998.00,0.0085
2997.00,0.0089
2996.00,0.0092
2995.00,0.0096
2994.00,0.0101
2993.00,0.0106
2992.00,0.0112
2991.00,0.0118
2990.00,0.0125
2989.00,0.0132
2988.00,0.0140
2987.00,0.0149
2986.00,0.0159
2985.00,0.0170
2984.00,0.0183
2983.00,0.0197
2982.00,0.0213
2981.00,0.0231
2980.00,0.0252
2979.00,0.0275
2978.00,0.0302
2977.00,0.0332
2976.00,0.0367
2975.00,0.0407
2974.00,0.0453
2973.00,0.0506
2972.00,0.0565
2971.00,0.0633
2970.00,0.0708
2969.00,0.0790
2968.00,0.0880
2967.00,0.0978
2966.00,0.1081
2965.00,0.1187
2964.00,0.1291
2963.00,0.1390
2962.00,0.1476
2961.00,0.1548
2960.00,0.1603
2959.00,0.1644
2958.00,0.1676
2957.00,0.1706
2956.00,0.1740
2955.00,0.1780
2954.00,0.1827
2953.00,0.1875
2952.00,0.1915
2951.00,0.1938
2950.00,0.1933
2949.00,0.1894
2948.00,0.1819
2947.00,0.1715
2946.00,0.1592
2945.00,0.1463
2944.00,0.1342
2943.00,0.1237
2942.00,0.1154
2941.00,0.1097
2940.00,0.1063
2939.00,0.1053
2938.00,0.1062
2937.00,0.1089
2936.00,0.1132
2935.00,0.1189
2934.00,0.1260
2933.00,0.1343
2932.00,0.1436
2931.00,0.1538
2930.00,0.1645
2929.00,0.1753
2928.00,0.1861
2927.00,0.1965
2926.00,0.2065
2925.00,0.2161
2924.00,0.2254
2923.00,0.2345
2922.00,0.2434
2921.00,0.2516
2920.00,0.2586
2919.00,0.2636
2918.00,0.2657
2917.00,0.2644
2916.00,0.2596
2915.00,0.2520
2914.00,0.2426
2913.00,0.2326
2912.00,0.2229
2911.00,0.2142
2910.00,0.2065
2909.00,0.1997
2908.00,0.1935
2907.00,0.1877
2906.00,0.1818
2905.00,0.1758
2904.00,0.1695
2903.00,0.1631
2902.00,0.1565
2901.00,0.1500
2900.00,0.1436
2899.00,0.1374
2898.00,0.1316
2897.00,0.1263
2896.00,0.1216
2895.00,0.1174
2894.00,0.1139
2893.00,0.1111
2892.00,0.1088
2891.00,0.1071
2890.00,0.1060
2889.00,0.1052
2888.00,0.1049
2887.00,0.1048
2886.00,0.1051
2885.00,0.1058
2884.00,0.1069
2883.00,0.1084
2882.00,0.1103
2881.00,0.1124
2880.00,0.1145
2879.00,0.1162
2878.00,0.1172
2877.00,0.1174
2876.00,0.1169
2875.00,0.1161
2874.00,0.1155
2873.00,0.1154
2872.00,0.1160
2871.00,0.1172
2870.00,0.1188
2869.00,0.1203
2868.00,0.1210
2867.00,0.1201
2866.00,0.1173
2865.00,0.1122
2864.00,0.1055
2863.00,0.0978
2862.00,0.0903
2861.00,0.0837
2860.00,0.0785
2859.00,0.0748
2858.00,0.0726
2857.00,0.0717
2856.00,0.0718
2855.00,0.0727
2854.00,0.0744
2853.00,0.0765
2852.00,0.0788
2851.00,0.0811
2850.00,0.0831
2849.00,0.0848
2848.00,0.0864
2847.00,0.0883
2846.00,0.0910
2845.00,0.0947
2844.00,0.0995
2843.00,0.1052
2842.00,0.1112
2841.00,0.1170
2840.00,0.1217
2839.00,0.1245
2838.00,0.1245
2837.00,0.1214
2836.00,0.1151
2835.00,0.1062
2834.00,0.0957
2833.00,0.0848
2832.00,0.0743
2831.00,0.0649
2830.00,0.0569
2829.00,0.0503
2828.00,0.0449
2827.00,0.0406
2826.00,0.0372
2825.00,0.0343
2824.00,0.0319
2823.00,0.0299
2822.00,0.0281
2821.00,0.0266
2820.00,0.0253
2819.00,0.0241
2818.00,0.0231
2817.00,0.0222
2816.00,0.0214
2815.00,0.0207
2814.00,0.0201
2813.00,0.0195
2812.00,0.0189
2811.00,0.0183
2810.00,0.0178
2809.00,0.0173
2808.00,0.0167
2807.00,0.0161
2806.00,0.0155
2805.00,0.0148
2804.00,0.0142
2803.00,0.0136
2802.00,0.0130
2801.00,0.0126
2800.00,0.0122
2799.00,0.0119
2798.00,0.0117
2797.00,0.0115
2796.00,0.0112
2795.00,0.0110
2794.00,0.0108
2793.00,0.0105
2792.00,0.0102
2791.00,0.0099
2790.00,0.0096
2789.00,0.0092
2788.00,0.0089
2787.00,0.0086
2786.00,0.0082
2785.00,0.0079
2784.00,0.0076
2783.00,0.0074
2782.00,0.0072
2781.00,0.0070
2780.00,0.0068
2779.00,0.0067
2778.00,0.0065
2777.00,0.0064
2776.00,0.0063
2775.00,0.0062
2774.00,0.0061
2773.00,0.0061
2772.00,0.0060
2771.00,0.0060
2770.00,0.0059
2769.00,0.0059
2768.00,0.0058
2767.00,0.0058
2766.00,0.0057
2765.00,0.0057
2764.00,0.0056
2763.00,0.0056
2762.00,0.0056
2761.00,0.0055
2760.00,0.0055
2759.00,0.0055
2758.00,0.0054
2757.00,0.0055
2756.00,0.0055
2755.00,0.0055
2754.00,0.0055
2753.00,0.0054
2752.00,0.0054
2751.00,0.0054
2750.00,0.0053
2749.00,0.0053
2748.00,0.0053
2747.00,0.0054
2746.00,0.0054
2745.00,0.0055
2744.00,0.0056
2743.00,0.0057
2742.00,0.0058
2741.00,0.0060
2740.00,0.0061
2739.00,0.0062
2738.00,0.0062
2737.00,0.0063
2736.00,0.0064
2735.00,0.0066
2734.00,0.0067
2733.00,0.0069
2732.00,0.0070
2731.00,0.0072
2730.00,0.0075
2729.00,0.0077
2728.00,0.0079
2727.00,0.0082
2726.00,0.0085
2725.00,0.0087
2724.00,0.0089
2723.00,0.0089
2722.00,0.0088
2721.00,0.0086
2720.00,0.0083
2719.00,0.0080
2718.00,0.0077
2717.00,0.0074
2716.00,0.0071
2715.00,0.0069
2714.00,0.0067
2713.00,0.0065
2712.00,0.0063
2711.00,0.0061
2710.00,0.0059
2709.00,0.0058
2708.00,0.0057
2707.00,0.0056
2706.00,0.0055
2705.00,0.0054
2704.00,0.0053
2703.00,0.0052
2702.00,0.0051
2701.00,0.0050
2700.00,0.0049
2699.00,0.0049
2698.00,0.0049
2697.00,0.0049
2696.00,0.0049
2695.00,0.0048
2694.00,0.0048
2693.00,0.0048
2692.00,0.0048
2691.00,0.0048
2690.00,0.0048
2689.00,0.0048
2688.00,0.0048
2687.00,0.0047
2686.00,0.0047
2685.00,0.0047
2684.00,0.0047
2683.00,0.0048
2682.00,0.0048
2681.00,0.0048
2680.00,0.0049
2679.00,0.0049
2678.00,0.0049
2677.00,0.0049
2676.00,0.0048
2675.00,0.0048
2674.00,0.0048
2673.00,0.0048
2672.00,0.0048
2671.00,0.0048
2670.00,0.0048
2669.00,0.0048
2668.00,0.0048
2667.00,0.0048
2666.00,0.0048
2665.00,0.0049
2664.00,0.0049
2663.00,0.0050
2662.00,0.0050
2661.00,0.0051
2660.00,0.0051
2659.00,0.0051
2658.00,0.0051
2657.00,0.0051
2656.00,0.0050
2655.00,0.0050
2654.00,0.0049
2653.00,0.0049
2652.00,0.0048
2651.00,0.0048
2650.00,0.0047
2649.00,0.0047
2648.00,0.0047
2647.00,0.0046
2646.00,0.0045
2645.00,0.0044
2644.00,0.0044
2643.00,0.0043
2642.00,0.0043
2641.00,0.0043
2640.00,0.0043
2639.00,0.0042
2638.00,0.0042
2637.00,0.0042
2636.00,0.0041
2635.00,0.0041
2634.00,0.0041
2633.00,0.0041
2632.00,0.0041
2631.00,0.0041
2630.00,0.0042
2629.00,0.0042
2628.00,0.0042
2627.00,0.0042
2626.00,0.0042
2625.00,0.0042
2624.00,0.0043
2623.00,0.0043
2622.00,0.0043
2621.00,0.0043
2620.00,0.0042
2619.00,0.0042
2618.00,0.0042
2617.00,0.0042
2616.00,0.0043
2615.00,0.0043
2614.00,0.0042
2613.00,0.0042
2612.00,0.0042
2611.00,0.0041
2610.00,0.0040
2609.00,0.0038
2608.00,0.0037
2607.00,0.0036
2606.00,0.0036
2605.00,0.0035
2604.00,0.0035
2603.00,0.0034
2602.00,0.0035
2601.00,0.0035
2600.00,0.0035
2599.00,0.0034
2598.00,0.0034
2597.00,0.0034
2596.00,0.0034
2595.00,0.0034
2594.00,0.0035
2593.00,0.0035
2592.00,0.0035
2591.00,0.0035
2590.00,0.0036
2589.00,0.0037
2588.00,0.0038
2587.00,0.0039
2586.00,0.0040
2585.00,0.0040
2584.00,0.0041
2583.00,0.0041
2582.00,0.0041
2581.00,0.0041
2580.00,0.0041
2579.00,0.0040
2578.00,0.0039
2577.00,0.0038
2576.00,0.0037
2575.00,0.0035
2574.00,0.0034
2573.00,0.0032
2572.00,0.0031
2571.00,0.0030
2570.00,0.0029
2569.00,0.0028
2568.00,0.0028
2567.00,0.0028
2566.00,0.0027
2565.00,0.0027
2564.00,0.0027
2563.00,0.0027
2562.00,0.0027
2561.00,0.0027
2560.00,0.0027
2559.00,0.0026
2558.00,0.0026
2557.00,0.0025
2556.00,0.0024
2555.00,0.0024
2554.00,0.0024
2553.00,0.0024
2552.00,0.0024
2551.00,0.0024
2550.00,0.0023
2549.00,0.0023
2548.00,0.0022
2547.00,0.0021
2546.00,0.0021
2545.00,0.0021
2544.00,0.0021
2543.00,0.0021
2542.00,0.0021
2541.00,0.0021
2540.00,0.0020
2539.00,0.0020
2538.00,0.0019
2537.00,0.0019
2536.00,0.0019
2535.00,0.0019
2534.00,0.0019
2533.00,0.0019
2532.00,0.0019
2531.00,0.0019
2530.00,0.0019
2529.00,0.0019
2528.00,0.0019
2527.00,0.0019
2526.00,0.0017
2525.00,0.0016
2524.00,0.0016
2523.00,0.0015
2522.00,0.0015
2521.00,0.0014
2520.00,0.0014
2519.00,0.0014
2518.00,0.0015
2517.00,0.0015
2516.00,0.0016
2515.00,0.0016
2514.00,0.0015
2513.00,0.0015
2512.00,0.0014
2511.00,0.0014
2510.00,0.0013
2509.00,0.0013
2508.00,0.0013
2507.00,0.0013
2506.00,0.0013
2505.00,0.0013
2504.00,0.0013
2503.00,0.0012
2502.00,0.0012
2501.00,0.0012
2500.00,0.0012
2499.00,0.0012
2498.00,0.0012
2497.00,0.0012
2496.00,0.0012
2495.00,0.0012
2494.00,0.0013
2493.00,0.0014
2492.00,0.0014
2491.00,0.0013
2490.00,0.0013
2489.00,0.0013
2488.00,0.0013
2487.00,0.0014
2486.00,0.0014
2485.00,0.0014
2484.00,0.0013
2483.00,0.0012
2482.00,0.0011
2481.00,0.0010
2480.00,0.0010
2479.00,0.0011
2478.00,0.0011
2477.00,0.0012
2476.00,0.0013
2475.00,0.0013
2474.00,0.0012
2473.00,0.0012
2472.00,0.0012
2471.00,0.0012
2470.00,0.0012
2469.00,0.0012
2468.00,0.0012
2467.00,0.0013
2466.00,0.0013
2465.00,0.0013
2464.00,0.0013
2463.00,0.0012
2462.00,0.0012
2461.00,0.0012
2460.00,0.0012
2459.00,0.0013
2458.00,0.0014
2457.00,0.0015
2456.00,0.0015
2455.00,0.0015
2454.00,0.0015
2453.00,0.0015
2452.00,0.0014
2451.00,0.0013
2450.00,0.0013
2449.00,0.0014
2448.00,0.0014
2447.00,0.0014
2446.00,0.0014
2445.00,0.0013
2444.00,0.0013
2443.00,0.0013
2442.00,0.0013
2441.00,0.0013
2440.00,0.0013
2439.00,0.0013
2438.00,0.0013
2437.00,0.0013
2436.00,0.0014
2435.00,0.0014
2434.00,0.0015
2433.00,0.0015
2432.00,0.0014
2431.00,0.0014
2430.00,0.0015
2429.00,0.0015
2428.00,0.0015
2427.00,0.0015
2426.00,0.0014
2425.00,0.0014
2424.00,0.0013
2423.00,0.0013
2422.00,0.0013
2421.00,0.0013
2420.00,0.0013
2419.00,0.0012
2418.00,0.0012
2417.00,0.0012
2416.00,0.0011
2415.00,0.0012
2414.00,0.0012
2413.00,0.0012
2412.00,0.0012
2411.00,0.0011
2410.00,0.0011
2409.00,0.0011
2408.00,0.0011
2407.00,0.0010
2406.00,0.0010
2405.00,0.0011
2404.00,0.0011
2403.00,0.0012
2402.00,0.0012
2401.00,0.0012
2400.00,0.0012
2399.00,0.0012
2398.00,0.0012
2397.00,0.0012
2396.00,0.0011
2395.00,0.0011
2394.00,0.0011
2393.00,0.0011
2392.00,0.0011
2391.00,0.0011
2390.00,0.0011
2389.00,0.0010
2388.00,0.0010
2387.00,0.0010
2386.00,0.0009
2385.00,0.0009
2384.00,0.0007
2383.00,0.0006
2382.00,0.0005
2381.00,0.0003
2380.00,0.0002
2379.00,0.0000
2378.00,-0.0001
2377.00,-0.0002
2376.00,-0.0002
2375.00,-0.0002
2374.00,-0.0002
2373.00,-0.0002
2372.00,-0.0002
2371.00,-0.0002
2370.00,-0.0002
2369.00,-0.0002
2368.00,-0.0001
2367.00,-0.0000
2366.00,0.0001
2365.00,0.0002
2364.00,0.0003
2363.00,0.0002
2362.00,0.0002
2361.00,0.0001
2360.00,0.0001
2359.00,0.0001
2358.00,0.0001
2357.00,0.0001
2356.00,0.0001
2355.00,0.0001
2354.00,0.0001
2353.00,0.0001
2352.00,0.0001
2351.00,0.0001
2350.00,0.0001
2349.00,0.0002
2348.00,0.0003
2347.00,0.0003
2346.00,0.0004
2345.00,0.0004
2344.00,0.0004
2343.00,0.0003
2342.00,0.0003
2341.00,0.0003
2340.00,0.0004
2339.00,0.0004
2338.00,0.0005
2337.00,0.0005
2336.00,0.0005
2335.00,0.0004
2334.00,0.0003
2333.00,0.0003
2332.00,0.0002
2331.00,0.0002
2330.00,0.0002
2329.00,0.0003
2328.00,0.0006
2327.00,0.0010
2326.00,0.0013
2325.00,0.0016
2324.00,0.0017
2323.00,0.0015
2322.00,0.0012
2321.00,0.0010
2320.00,0.0009
2319.00,0.0009
2318.00,0.0009
2317.00,0.0009
2316.00,0.0009
2315.00,0.0008
2314.00,0.0008
2313.00,0.0007
2312.00,0.0007
2311.00,0.0006
2310.00,0.0006
2309.00,0.0006
2308.00,0.0007
2307.00,0.0007
2306.00,0.0008
2305.00,0.0009
2304.00,0.0010
2303.00,0.0011
2302.00,0.0012
2301.00,0.0012
2300.00,0.0012
2299.00,0.0012
2298.00,0.0013
2297.00,0.0014
2296.00,0.0014
2295.00,0.0015
2294.00,0.0016
2293.00,0.0016
2292.00,0.0016
2291.00,0.0016
2290.00,0.0017
2289.00,0.0018
2288.00,0.0019
2287.00,0.0020
2286.00,0.0020
2285.00,0.0021
2284.00,0.0021
2283.00,0.0020
2282.00,0.0018
2281.00,0.0017
2280.00,0.0016
2279.00,0.0015
2278.00,0.0015
2277.00,0.0014
2276.00,0.0015
2275.00,0.0014
2274.00,0.0014
2273.00,0.0014
2272.00,0.0014
2271.00,0.0014
2270.00,0.0014
2269.00,0.0014
2268.00,0.0015
2267.00,0.0014
2266.00,0.0013
2265.00,0.0012
2264.00,0.0012
2263.00,0.0012
2262.00,0.0013
2261.00,0.0014
2260.00,0.0014
2259.00,0.0014
2258.00,0.0014
2257.00,0.0014
2256.00,0.0014
2255.00,0.0013
2254.00,0.0013
2253.00,0.0013
2252.00,0.0013
2251.00,0.0012
2250.00,0.0012
2249.00,0.0012
2248.00,0.0013
2247.00,0.0013
2246.00,0.0012
2245.00,0.0011
2244.00,0.0010
2243.00,0.0009
2242.00,0.0009
2241.00,0.0010
2240.00,0.0011
2239.00,0.0011
2238.00,0.0010
2237.00,0.0009
2236.00,0.0009
2235.00,0.0008
2234.00,0.0007
2233.00,0.0006
2232.00,0.0006
2231.00,0.0006
2230.00,0.0007
2229.00,0.0009
2228.00,0.0011
2227.00,0.0013
2226.00,0.0014
2225.00,0.0014
2224.00,0.0013
2223.00,0.0012
2222.00,0.0012
2221.00,0.0013
2220.00,0.0013
2219.00,0.0011
2218.00,0.0009
2217.00,0.0007
2216.00,0.0007
2215.00,0.0007
2214.00,0.0008
2213.00,0.0008
2212.00,0.0009
2211.00,0.0009
2210.00,0.0009
2209.00,0.0009
2208.00,0.0009
2207.00,0.0008
2206.00,0.0009
2205.00,0.0010
2204.00,0.0011
2203.00,0.0012
2202.00,0.0012
2201.00,0.0012
2200.00,0.0012
2199.00,0.0011
2198.00,0.0010
2197.00,0.0009
2196.00,0.0009
2195.00,0.0008
2194.00,0.0007
2193.00,0.0006
2192.00,0.0006
2191.00,0.0008
2190.00,0.0011
2189.00,0.0012
2188.00,0.0012
2187.00,0.0010
2186.00,0.0010
2185.00,0.0009
2184.00,0.0007
2183.00,0.0004
2182.00,0.0001
2181.00,-0.0000
2180.00,0.0002
2179.00,0.0006
2178.00,0.0007
2177.00,0.0007
2176.00,0.0005
2175.00,0.0004
2174.00,0.0006
2173.00,0.0008
2172.00,0.0011
2171.00,0.0013
2170.00,0.0015
2169.00,0.0019
2168.00,0.0021
2167.00,0.0021
2166.00,0.0018
2165.00,0.0016
2164.00,0.0018
2163.00,0.0021
2162.00,0.0024
2161.00,0.0020
2160.00,0.0009
2159.00,-0.0006
2158.00,-0.0018
2157.00,-0.0024
2156.00,-0.0024
2155.00,-0.0024
2154.00,-0.0023
2153.00,-0.0020
2152.00,-0.0017
2151.00,-0.0015
2150.00,-0.0014
2149.00,-0.0014
2148.00,-0.0013
2147.00,-0.0011
2146.00,-0.0009
2145.00,-0.0007
2144.00,-0.0006
2143.00,-0.0006
2142.00,-0.0007
2141.00,-0.0008
2140.00,-0.0009
2139.00,-0.0009
2138.00,-0.0010
2137.00,-0.0011
2136.00,-0.0012
2135.00,-0.0014
2134.00,-0.0015
2133.00,-0.0015
2132.00,-0.0014
2131.00,-0.0012
2130.00,-0.0011
2129.00,-0.0010
2128.00,-0.0009
2127.00,-0.0007
2126.00,-0.0006
2125.00,-0.0004
2124.00,-0.0002
2123.00,0.0001
2122.00,0.0002
2121.00,0.0003
2120.00,0.0003
2119.00,0.0002
2118.00,0.0001
2117.00,0.0002
2116.00,0.0004
2115.00,0.0005
2114.00,0.0006
2113.00,0.0006
2112.00,0.0005
2111.00,0.0005
2110.00,0.0005
2109.00,0.0005
2108.00,0.0005
2107.00,0.0005
2106.00,0.0005
2105.00,0.0005
2104.00,0.0005
2103.00,0.0003
2102.00,0.0001
2101.00,-0.0000
2100.00,-0.0000
2099.00,0.0001
2098.00,0.0002
2097.00,0.0002
2096.00,0.0001
2095.00,-0.0000
2094.00,-0.0001
2093.00,-0.0001
2092.00,0.0001
2091.00,0.0001
2090.00,0.0002
2089.00,0.0003
2088.00,0.0003
2087.00,0.0004
2086.00,0.0004
2085.00,0.0005
2084.00,0.0006
2083.00,0.0006
2082.00,0.0006
2081.00,0.0004
2080.00,0.0004
2079.00,0.0004
2078.00,0.0004
2077.00,0.0005
2076.00,0.0005
2075.00,0.0005
2074.00,0.0005
2073.00,0.0005
2072.00,0.0004
2071.00,0.0003
2070.00,0.0003
2069.00,0.0003
2068.00,0.0003
2067.00,0.0003
2066.00,0.0002
2065.00,0.0002
2064.00,0.0002
2063.00,0.0002
2062.00,0.0002
2061.00,0.0001
2060.00,-0.0000
2059.00,-0.0000
2058.00,0.0000
2057.00,0.0001
2056.00,0.0002
2055.00,0.0003
2054.00,0.0006
2053.00,0.0010
2052.00,0.0016
2051.00,0.0019
2050.00,0.0019
2049.00,0.0016
2048.00,0.0012
2047.00,0.0009
2046.00,0.0008
2045.00,0.0009
2044.00,0.0010
2043.00,0.0011
2042.00,0.0011
2041.00,0.0011
2040.00,0.0011
2039.00,0.0009
2038.00,0.0006
2037.00,0.0005
2036.00,0.0003
2035.00,0.0001
2034.00,-0.0003
2033.00,-0.0006
2032.00,-0.0008
2031.00,-0.0008
2030.00,-0.0009
2029.00,-0.0008
2028.00,-0.0006
2027.00,-0.0002
2026.00,0.0002
2025.00,0.0005
2024.00,0.0005
2023.00,0.0000
2022.00,-0.0006
2021.00,-0.0010
2020.00,-0.0012
2019.00,-0.0011
2018.00,-0.0010
2017.00,-0.0008
2016.00,-0.0007
2015.00,-0.0007
2014.00,-0.0007
2013.00,-0.0008
2012.00,-0.0008
2011.00,-0.0008
2010.00,-0.0006
2009.00,-0.0004
2008.00,-0.0005
2007.00,-0.0009
2006.00,-0.0014
2005.00,-0.0015
2004.00,-0.0013
2003.00,-0.0011
2002.00,-0.0009
2001.00,-0.0008
2000.00,-0.0008
1999.00,-0.0009
1998.00,-0.0009
1997.00,-0.0009
1996.00,-0.0009
1995.00,-0.0010
1994.00,-0.0011
1993.00,-0.0011
1992.00,-0.0010
1991.00,-0.0008
1990.00,-0.0006
1989.00,-0.0004
1988.00,-0.0002
1987.00,-0.0001
1986.00,-0.0002
1985.00,-0.0002
1984.00,-0.0000
1983.00,0.0003
1982.00,0.0008
1981.00,0.0010
1980.00,0.0009
1979.00,0.0005
1978.00,0.0000
1977.00,-0.0004
1976.00,-0.0008
1975.00,-0.0012
1974.00,-0.0015
1973.00,-0.0015
1972.00,-0.0012
1971.00,-0.0010
1970.00,-0.0010
1969.00,-0.0010
1968.00,-0.0010
1967.00,-0.0009
1966.00,-0.0010
1965.00,-0.0011
1964.00,-0.0013
1963.00,-0.0015
1962.00,-0.0016
1961.00,-0.0015
1960.00,-0.0013
1959.00,-0.0012
1958.00,-0.0013
1957.00,-0.0013
1956.00,-0.0012
1955.00,-0.0012
1954.00,-0.0013
1953.00,-0.0016
1952.00,-0.0018
1951.00,-0.0019
1950.00,-0.0019
1949.00,-0.0018
1948.00,-0.0017
1947.00,-0.0016
1946.00,-0.0016
1945.00,-0.0015
1944.00,-0.0015
1943.00,-0.0014
1942.00,-0.0013
1941.00,-0.0013
1940.00,-0.0012
1939.00,-0.0011
1938.00,-0.0010
1937.00,-0.0009
1936.00,-0.0008
1935.00,-0.0008
1934.00,-0.0008
1933.00,-0.0008
1932.00,-0.0009
1931.00,-0.0009
1930.00,-0.0009
1929.00,-0.0008
1928.00,-0.0006
1927.00,-0.0006
1926.00,-0.0006
1925.00,-0.0006
1924.00,-0.0006
1923.00,-0.0005
1922.00,-0.0003
1921.00,-0.0002
1920.00,-0.0000
1919.00,0.0000
1918.00,0.0000
1917.00,0.0000
1916.00,0.0000
1915.00,-0.0000
1914.00,-0.0001
1913.00,-0.0002
1912.00,-0.0002
1911.00,-0.0003
1910.00,-0.0003
1909.00,-0.0002
1908.00,-0.0002
1907.00,-0.0001
1906.00,0.0000
1905.00,0.0002
1904.00,0.0003
1903.00,0.0004
1902.00,0.0004
1901.00,0.0003
1900.00,0.0003
1899.00,0.0003
1898.00,0.0002
1897.00,0.0002
1896.00,0.0002
1895.00,0.0002
1894.00,0.0002
1893.00,0.0002
1892.00,0.0002
1891.00,0.0002
1890.00,0.0001
1889.00,0.0001
1888.00,0.0001
1887.00,0.0001
1886.00,0.0001
1885.00,0.0000
1884.00,-0.0000
1883.00,-0.0000
1882.00,-0.0000
1881.00,0.0000
1880.00,0.0001
1879.00,0.0002
1878.00,0.0002
1877.00,0.0002
1876.00,0.0002
1875.00,0.0001
1874.00,0.0002
1873.00,0.0003
1872.00,0.0004
1871.00,0.0004
1870.00,0.0003
1869.00,0.0003
1868.00,0.0003
1867.00,0.0004
1866.00,0.0003
1865.00,0.0003
1864.00,0.0002
1863.00,0.0002
1862.00,0.0001
1861.00,0.0002
1860.00,0.0002
1859.00,0.0003
1858.00,0.0003
1857.00,0.0002
1856.00,0.0002
1855.00,0.0003
1854.00,0.0003
1853.00,0.0003
1852.00,0.0003
1851.00,0.0004
1850.00,0.0003
1849.00,0.0003
1848.00,0.0003
1847.00,0.0003
1846.00,0.0003
1845.00,0.0003
1844.00,0.0004
1843.00,0.0004
1842.00,0.0005
1841.00,0.0005
1840.00,0.0006
1839.00,0.0006
1838.00,0.0006
1837.00,0.0005
1836.00,0.0005
1835.00,0.0004
1834.00,0.0004
1833.00,0.0003
1832.00,0.0003
1831.00,0.0003
1830.00,0.0004
1829.00,0.0006
1828.00,0.0007
1827.00,0.0007
1826.00,0.0007
1825.00,0.0007
1824.00,0.0007
1823.00,0.0006
1822.00,0.0005
1821.00,0.0005
1820.00,0.0004
1819.00,0.0002
1818.00,0.0001
1817.00,-0.0000
1816.00,-0.0000
1815.00,0.0001
1814.00,0.0002
1813.00,0.0004
1812.00,0.0005
1811.00,0.0005
1810.00,0.0006
1809.00,0.0006
1808.00,0.0006
1807.00,0.0006
1806.00,0.0006
1805.00,0.0007
1804.00,0.0007
1803.00,0.0008
1802.00,0.0008
1801.00,0.0007
1800.00,0.0007
1799.00,0.0008
1798.00,0.0008
1797.00,0.0008
1796.00,0.0008
1795.00,0.0009
1794.00,0.0009
1793.00,0.0009
1792.00,0.0009
1791.00,0.0009
1790.00,0.0009
1789.00,0.0009
1788.00,0.0010
1787.00,0.0010
1786.00,0.0010
1785.00,0.0011
1784.00,0.0011
1783.00,0.0011
1782.00,0.0011
1781.00,0.0011
1780.00,0.0011
1779.00,0.0011
1778.00,0.0011
1777.00,0.0010
1776.00,0.0010
1775.00,0.0010
1774.00,0.0010
1773.00,0.0011
1772.00,0.0011
1771.00,0.0012
1770.00,0.0013
1769.00,0.0013
1768.00,0.0014
1767.00,0.0014
1766.00,0.0014
1765.00,0.0014
1764.00,0.0015
1763.00,0.0015
1762.00,0.0016
1761.00,0.0016
1760.00,0.0016
1759.00,0.0016
1758.00,0.0016
1757.00,0.0017
1756.00,0.0018
1755.00,0.0019
1754.00,0.0020
1753.00,0.0020
1752.00,0.0020
1751.00,0.0021
1750.00,0.0021
1749.00,0.0022
1748.00,0.0023
1747.00,0.0023
1746.00,0.0024
1745.00,0.0024
1744.00,0.0024
1743.00,0.0024
1742.00,0.0024
1741.00,0.0024
1740.00,0.0025
1739.00,0.0025
1738.00,0.0026
1737.00,0.0026
1736.00,0.0025
1735.00,0.0024
1734.00,0.0024
1733.00,0.0025
1732.00,0.0026
1731.00,0.0027
1730.00,0.0027
1729.00,0.0027
1728.00,0.0027
1727.00,0.0027
1726.00,0.0027
1725.00,0.0027
1724.00,0.0027
1723.00,0.0026
1722.00,0.0026
1721.00,0.0027
1720.00,0.0027
1719.00,0.0028
1718.00,0.0027
1717.00,0.0027
1716.00,0.0028
1715.00,0.0028
1714.00,0.0028
1713.00,0.0028
1712.00,0.0029
1711.00,0.0029
1710.00,0.0029
1709.00,0.0029
1708.00,0.0029
1707.00,0.0029
1706.00,0.0029
1705.00,0.0030
1704.00,0.0031
1703.00,0.0032
1702.00,0.0033
1701.00,0.0034
1700.00,0.0034
1699.00,0.0034
1698.00,0.0035
1697.00,0.0035
1696.00,0.0035
1695.00,0.0036
1694.00,0.0036
1693.00,0.0036
1692.00,0.0037
1691.00,0.0038
1690.00,0.0039
1689.00,0.0040
1688.00,0.0041
1687.00,0.0041
1686.00,0.0041
1685.00,0.0041
1684.00,0.0042
1683.00,0.0044
1682.00,0.0045
1681.00,0.0046
1680.00,0.0047
1679.00,0.0047
1678.00,0.0048
1677.00,0.0049
1676.00,0.0050
1675.00,0.0052
1674.00,0.0053
1673.00,0.0054
1672.00,0.0055
1671.00,0.0055
1670.00,0.0056
1669.00,0.0057
1668.00,0.0057
1667.00,0.0058
1666.00,0.0058
1665.00,0.0059
1664.00,0.0060
1663.00,0.0061
1662.00,0.0062
1661.00,0.0064
1660.00,0.0065
1659.00,0.0066
1658.00,0.0067
1657.00,0.0069
1656.00,0.0071
1655.00,0.0072
1654.00,0.0073
1653.00,0.0076
1652.00,0.0078
1651.00,0.0080
1650.00,0.0082
1649.00,0.0084
1648.00,0.0087
1647.00,0.0089
1646.00,0.0090
1645.00,0.0091
1644.00,0.0091
1643.00,0.0090
1642.00,0.0089
1641.00,0.0089
1640.00,0.0088
1639.00,0.0088
1638.00,0.0088
1637.00,0.0087
1636.00,0.0086
1635.00,0.0086
1634.00,0.0085
1633.00,0.0085
1632.00,0.0085
1631.00,0.0085
1630.00,0.0084
1629.00,0.0084
1628.00,0.0083
1627.00,0.0082
1626.00,0.0081
1625.00,0.0080
1624.00,0.0078
1623.00,0.0077
1622.00,0.0075
1621.00,0.0074
1620.00,0.0074
1619.00,0.0073
1618.00,0.0072
1617.00,0.0071
1616.00,0.0071
1615.00,0.0071
1614.00,0.0071
1613.00,0.0071
1612.00,0.0071
1611.00,0.0071
1610.00,0.0071
1609.00,0.0071
1608.00,0.0072
1607.00,0.0072
1606.00,0.0071
1605.00,0.0071
1604.00,0.0071
1603.00,0.0071
1602.00,0.0071
1601.00,0.0070
1600.00,0.0070
1599.00,0.0070
1598.00,0.0070
1597.00,0.0070
1596.00,0.0070
1595.00,0.0071
1594.00,0.0071
1593.00,0.0071
1592.00,0.0072
1591.00,0.0073
1590.00,0.0074
1589.00,0.0075
1588.00,0.0076
1587.00,0.0078
1586.00,0.0080
1585.00,0.0083
1584.00,0.0086
1583.00,0.0089
1582.00,0.0092
1581.00,0.0095
1580.00,0.0098
1579.00,0.0100
1578.00,0.0102
1577.00,0.0102
1576.00,0.0101
1575.00,0.0099
1574.00,0.0097
1573.00,0.0095
1572.00,0.0093
1571.00,0.0090
1570.00,0.0087
1569.00,0.0084
1568.00,0.0082
1567.00,0.0080
1566.00,0.0079
1565.00,0.0078
1564.00,0.0078
1563.00,0.0078
1562.00,0.0078
1561.00,0.0079
1560.00,0.0079
1559.00,0.0077
1558.00,0.0077
1557.00,0.0077
1556.00,0.0078
1555.00,0.0079
1554.00,0.0080
1553.00,0.0081
1552.00,0.0083
1551.00,0.0085
1550.00,0.0087
1549.00,0.0090
1548.00,0.0094
1547.00,0.0098
1546.00,0.0102
1545.00,0.0108
1544.00,0.0114
1543.00,0.0119
1542.00,0.0123
1541.00,0.0126
1540.00,0.0127
1539.00,0.0126
1538.00,0.0123
1537.00,0.0122
1536.00,0.0120
1535.00,0.0117
1534.00,0.0112
1533.00,0.0107
1532.00,0.0103
1531.00,0.0099
1530.00,0.0097
1529.00,0.0095
1528.00,0.0093
1527.00,0.0090
1526.00,0.0087
1525.00,0.0086
1524.00,0.0085
1523.00,0.0084
1522.00,0.0082
1521.00,0.0081
1520.00,0.0080
1519.00,0.0079
1518.00,0.0079
1517.00,0.0079
1516.00,0.0080
1515.00,0.0079
1514.00,0.0078
1513.00,0.0078
1512.00,0.0078
1511.00,0.0078
1510.00,0.0079
1509.00,0.0079
1508.00,0.0080
1507.00,0.0080
1506.00,0.0081
1505.00,0.0083
1504.00,0.0084
1503.00,0.0086
1502.00,0.0087
1501.00,0.0090
1500.00,0.0094
1499.00,0.0097
1498.00,0.0102
1497.00,0.0108
1496.00,0.0114
1495.00,0.0119
1494.00,0.0123
1493.00,0.0127
1492.00,0.0130
1491.00,0.0133
1490.00,0.0135
1489.00,0.0139
1488.00,0.0144
1487.00,0.0149
1486.00,0.0155
1485.00,0.0162
1484.00,0.0169
1483.00,0.0178
1482.00,0.0187
1481.00,0.0199
1480.00,0.0212
1479.00,0.0225
1478.00,0.0241
1477.00,0.0261
1476.00,0.0286
1475.00,0.0315
1474.00,0.0354
1473.00,0.0410
1472.00,0.0476
1471.00,0.0538
1470.00,0.0598
1469.00,0.0661
1468.00,0.0728
1467.00,0.0802
1466.00,0.0887
1465.00,0.0980
1464.00,0.1062
1463.00,0.1120
1462.00,0.1157
1461.00,0.1183
1460.00,0.1203
1459.00,0.1218
1458.00,0.1231
1457.00,0.1243
1456.00,0.1246
1455.00,0.1240
1454.00,0.1230
1453.00,0.1214
1452.00,0.1189
1451.00,0.1151
1450.00,0.1100
1449.00,0.1028
1448.00,0.0937
1447.00,0.0842
1446.00,0.0755
1445.00,0.0682
1444.00,0.0618
1443.00,0.0565
1442.00,0.0525
1441.00,0.0497
1440.00,0.0479
1439.00,0.0471
1438.00,0.0471
1437.00,0.0470
1436.00,0.0459
1435.00,0.0435
1434.00,0.0400
1433.00,0.0359
1432.00,0.0315
1431.00,0.0277
1430.00,0.0246
1429.00,0.0223
1428.00,0.0207
1427.00,0.0198
1426.00,0.0192
1425.00,0.0186
1424.00,0.0181
1423.00,0.0178
1422.00,0.0176
1421.00,0.0175
1420.00,0.0172
1419.00,0.0169
1418.00,0.0167
1417.00,0.0163
1416.00,0.0160
1415.00,0.0157
1414.00,0.0155
1413.00,0.0151
1412.00,0.0148
1411.00,0.0146
1410.00,0.0144
1409.00,0.0142
1408.00,0.0140
1407.00,0.0140
1406.00,0.0140
1405.00,0.0139
1404.00,0.0138
1403.00,0.0138
1402.00,0.0139
1401.00,0.0139
1400.00,0.0139
1399.00,0.0140
1398.00,0.0143
1397.00,0.0145
1396.00,0.0147
1395.00,0.0151
1394.00,0.0156
1393.00,0.0161
1392.00,0.0166
1391.00,0.0174
1390.00,0.0185
1389.00,0.0200
1388.00,0.0222
1387.00,0.0256
1386.00,0.0301
1385.00,0.0359
1384.00,0.0439
1383.00,0.0551
1382.00,0.0703
1381.00,0.0897
1380.00,0.1133
1379.00,0.1396
1378.00,0.1640
1377.00,0.1807
1376.00,0.1846
1375.00,0.1732
1374.00,0.1500
1373.00,0.1233
1372.00,0.0997
1371.00,0.0806
1370.00,0.0655
1369.00,0.0540
1368.00,0.0460
1367.00,0.0410
1366.00,0.0383
1365.00,0.0372
1364.00,0.0373
1363.00,0.0385
1362.00,0.0405
1361.00,0.0426
1360.00,0.0441
1359.00,0.0445
1358.00,0.0435
1357.00,0.0411
1356.00,0.0377
1355.00,0.0339
1354.00,0.0303
1353.00,0.0272
1352.00,0.0247
1351.00,0.0227
1350.00,0.0210
1349.00,0.0195
1348.00,0.0183
1347.00,0.0173
1346.00,0.0164
1345.00,0.0156
1344.00,0.0150
1343.00,0.0145
1342.00,0.0141
1341.00,0.0138
1340.00,0.0136
1339.00,0.0134
1338.00,0.0133
1337.00,0.0133
1336.00,0.0133
1335.00,0.0135
1334.00,0.0137
1333.00,0.0141
1332.00,0.0144
1331.00,0.0147
1330.00,0.0147
1329.00,0.0146
1328.00,0.0143
1327.00,0.0139
1326.00,0.0134
1325.00,0.0128
1324.00,0.0123
1323.00,0.0119
1322.00,0.0115
1321.00,0.0112
1320.00,0.0110
1319.00,0.0109
1318.00,0.0107
1317.00,0.0105
1316.00,0.0103
1315.00,0.0101
1314.00,0.0101
1313.00,0.0101
1312.00,0.0103
1311.00,0.0105
1310.00,0.0110
1309.00,0.0117
1308.00,0.0127
1307.00,0.0140
1306.00,0.0153
1305.00,0.0163
1304.00,0.0166
1303.00,0.0163
1302.00,0.0157
1301.00,0.0150
1300.00,0.0146
1299.00,0.0144
1298.00,0.0143
1297.00,0.0143
1296.00,0.0141
1295.00,0.0138
1294.00,0.0133
1293.00,0.0128
1292.00,0.0122
1291.00,0.0118
1290.00,0.0114
1289.00,0.0111
1288.00,0.0107
1287.00,0.0104
1286.00,0.0101
1285.00,0.0099
1284.00,0.0097
1283.00,0.0096
1282.00,0.0094
1281.00,0.0094
1280.00,0.0093
1279.00,0.0093
1278.00,0.0092
1277.00,0.0091
1276.00,0.0090
1275.00,0.0089
1274.00,0.0089
1273.00,0.0089
1272.00,0.0091
1271.00,0.0092
1270.00,0.0094
1269.00,0.0096
1268.00,0.0098
1267.00,0.0101
1266.00,0.0104
1265.00,0.0107
1264.00,0.0111
1263.00,0.0115
1262.00,0.0119
1261.00,0.0124
1260.00,0.0131
1259.00,0.0139
1258.00,0.0148
1257.00,0.0155
1256.00,0.0159
1255.00,0.0156
1254.00,0.0148
1253.00,0.0138
1252.00,0.0127
1251.00,0.0119
1250.00,0.0112
1249.00,0.0107
1248.00,0.0103
1247.00,0.0100
1246.00,0.0098
1245.00,0.0097
1244.00,0.0095
1243.00,0.0094
1242.00,0.0093
1241.00,0.0091
1240.00,0.0090
1239.00,0.0090
1238.00,0.0089
1237.00,0.0089
1236.00,0.0088
1235.00,0.0088
1234.00,0.0089
1233.00,0.0089
1232.00,0.0089
1231.00,0.0089
1230.00,0.0090
1229.00,0.0091
1228.00,0.0092
1227.00,0.0094
1226.00,0.0097
1225.00,0.0099
1224.00,0.0103
1223.00,0.0106
1222.00,0.0109
1221.00,0.0111
1220.00,0.0111
1219.00,0.0111
1218.00,0.0111
1217.00,0.0109
1216.00,0.0107
1215.00,0.0105
1214.00,0.0101
1213.00,0.0098
1212.00,0.0095
1211.00,0.0093
1210.00,0.0091
1209.00,0.0090
1208.00,0.0089
1207.00,0.0089
1206.00,0.0088
1205.00,0.0088
1204.00,0.0087
1203.00,0.0086
1202.00,0.0086
1201.00,0.0086
1200.00,0.0086
1199.00,0.0085
1198.00,0.0085
1197.00,0.0085
1196.00,0.0085
1195.00,0.0085
1194.00,0.0086
1193.00,0.0086
1192.00,0.0086
1191.00,0.0086
1190.00,0.0086
1189.00,0.0087
1188.00,0.0088
1187.00,0.0088
1186.00,0.0089
1185.00,0.0090
1184.00,0.0091
1183.00,0.0093
1182.00,0.0096
1181.00,0.0099
1180.00,0.0103
1179.00,0.0110
1178.00,0.0118
1177.00,0.0128
1176.00,0.0142
1175.00,0.0160
1174.00,0.0184
1173.00,0.0214
1172.00,0.0249
1171.00,0.0288
1170.00,0.0323
1169.00,0.0350
1168.00,0.0365
1167.00,0.0365
1166.00,0.0353
1165.00,0.0334
1164.00,0.0312
1163.00,0.0291
1162.00,0.0273
1161.00,0.0258
1160.00,0.0247
1159.00,0.0238
1158.00,0.0231
1157.00,0.0226
1156.00,0.0221
1155.00,0.0218
1154.00,0.0216
1153.00,0.0213
1152.00,0.0208
1151.00,0.0201
1150.00,0.0192
1149.00,0.0183
1148.00,0.0173
1147.00,0.0164
1146.00,0.0156
1145.00,0.0148
1144.00,0.0140
1143.00,0.0132
1142.00,0.0125
1141.00,0.0119
1140.00,0.0115
1139.00,0.0111
1138.00,0.0107
1137.00,0.0104
1136.00,0.0101
1135.00,0.0098
1134.00,0.0096
1133.00,0.0094
1132.00,0.0093
1131.00,0.0093
1130.00,0.0093
1129.00,0.0093
1128.00,0.0093
1127.00,0.0093
1126.00,0.0094
1125.00,0.0095
1124.00,0.0095
1123.00,0.0096
1122.00,0.0097
1121.00,0.0098
1120.00,0.0099
1119.00,0.0100
1118.00,0.0101
1117.00,0.0102
1116.00,0.0104
1115.00,0.0105
1114.00,0.0107
1113.00,0.0108
1112.00,0.0110
1111.00,0.0112
1110.00,0.0115
1109.00,0.0119
1108.00,0.0123
1107.00,0.0129
1106.00,0.0135
1105.00,0.0141
1104.00,0.0145
1103.00,0.0147
1102.00,0.0147
1101.00,0.0145
1100.00,0.0141
1099.00,0.0136
1098.00,0.0131
1097.00,0.0126
1096.00,0.0121
1095.00,0.0116
1094.00,0.0113
1093.00,0.0109
1092.00,0.0106
1091.00,0.0104
1090.00,0.0102
1089.00,0.0101
1088.00,0.0100
1087.00,0.0101
1086.00,0.0102
1085.00,0.0102
1084.00,0.0102
1083.00,0.0100
1082.00,0.0098
1081.00,0.0095
1080.00,0.0093
1079.00,0.0091
1078.00,0.0091
1077.00,0.0091
1076.00,0.0091
1075.00,0.0091
1074.00,0.0091
1073.00,0.0090
1072.00,0.0089
1071.00,0.0089
1070.00,0.0089
1069.00,0.0089
1068.00,0.0089
1067.00,0.0088
1066.00,0.0088
1065.00,0.0088
1064.00,0.0088
1063.00,0.0089
1062.00,0.0089
1061.00,0.0089
1060.00,0.0089
1059.00,0.0089
1058.00,0.0090
1057.00,0.0090
1056.00,0.0091
1055.00,0.0091
1054.00,0.0092
1053.00,0.0093
1052.00,0.0095
1051.00,0.0097
1050.00,0.0099
1049.00,0.0102
1048.00,0.0106
1047.00,0.0110
1046.00,0.0113
1045.00,0.0115
1044.00,0.0115
1043.00,0.0113
1042.00,0.0110
1041.00,0.0107
1040.00,0.0105
1039.00,0.0104
1038.00,0.0104
1037.00,0.0104
1036.00,0.0104
1035.00,0.0102
1034.00,0.0100
1033.00,0.0098
1032.00,0.0096
1031.00,0.0095
1030.00,0.0094
1029.00,0.0094
1028.00,0.0094
1027.00,0.0094
1026.00,0.0094
1025.00,0.0094
1024.00,0.0094
1023.00,0.0094
1022.00,0.0095
1021.00,0.0095
1020.00,0.0095
1019.00,0.0095
1018.00,0.0096
1017.00,0.0098
1016.00,0.0100
1015.00,0.0102
1014.00,0.0105
1013.00,0.0109
1012.00,0.0113
1011.00,0.0117
1010.00,0.0121
1009.00,0.0124
1008.00,0.0128
1007.00,0.0135
1006.00,0.0144
1005.00,0.0158
1004.00,0.0178
1003.00,0.0205
1002.00,0.0242
1001.00,0.0288
1000.00,0.0337
999.00,0.0377
998.00,0.0397
997.00,0.0390
996.00,0.0358
995.00,0.0311
994.00,0.0262
993.00,0.0221
992.00,0.0189
991.00,0.0166
990.00,0.0150
989.00,0.0138
988.00,0.0131
987.00,0.0126
986.00,0.0125
985.00,0.0126
984.00,0.0130
983.00,0.0138
982.00,0.0151
981.00,0.0169
980.00,0.0195
979.00,0.0228
978.00,0.0272
977.00,0.0323
976.00,0.0378
975.00,0.0429
974.00,0.0465
973.00,0.0476
972.00,0.0456
971.00,0.0409
970.00,0.0348
969.00,0.0287
968.00,0.0235
967.00,0.0197
966.00,0.0169
965.00,0.0149
964.00,0.0135
963.00,0.0124
962.00,0.0115
961.00,0.0109
960.00,0.0104
959.00,0.0100
958.00,0.0097
957.00,0.0093
956.00,0.0090
955.00,0.0088
954.00,0.0087
953.00,0.0086
952.00,0.0085
951.00,0.0083
950.00,0.0082
949.00,0.0081
948.00,0.0079
947.00,0.0079
946.00,0.0081
945.00,0.0084
944.00,0.0087
943.00,0.0090
942.00,0.0094
941.00,0.0096
940.00,0.0097
939.00,0.0096
938.00,0.0092
937.00,0.0087
936.00,0.0081
935.00,0.0077
934.00,0.0074
933.00,0.0072
932.00,0.0071
931.00,0.0069
930.00,0.0068
929.00,0.0067
928.00,0.0067
927.00,0.0067
926.00,0.0067
925.00,0.0067
924.00,0.0066
923.00,0.0065
922.00,0.0065
921.00,0.0066
920.00,0.0066
919.00,0.0066
918.00,0.0065
917.00,0.0064
916.00,0.0064
915.00,0.0065
914.00,0.0066
913.00,0.0068
912.00,0.0069
911.00,0.0070
910.00,0.0072
909.00,0.0074
908.00,0.0079
907.00,0.0085
906.00,0.0093
905.00,0.0103
904.00,0.0117
903.00,0.0133
902.00,0.0151
901.00,0.0168
900.00,0.0178
899.00,0.0180
898.00,0.0172
897.00,0.0157
896.00,0.0139
895.00,0.0122
894.00,0.0109
893.00,0.0099
892.00,0.0091
891.00,0.0087
890.00,0.0084
889.00,0.0082
888.00,0.0081
887.00,0.0079
886.00,0.0078
885.00,0.0078
884.00,0.0078
883.00,0.0079
882.00,0.0080
881.00,0.0081
880.00,0.0084
879.00,0.0088
878.00,0.0091
877.00,0.0093
876.00,0.0094
875.00,0.0094
874.00,0.0092
873.00,0.0090
872.00,0.0088
871.00,0.0085
870.00,0.0083
869.00,0.0082
868.00,0.0081
867.00,0.0081
866.00,0.0081
865.00,0.0083
864.00,0.0086
863.00,0.0089
862.00,0.0091
861.00,0.0092
860.00,0.0093
859.00,0.0094
858.00,0.0096
857.00,0.0097
856.00,0.0098
855.00,0.0100
854.00,0.0102
853.00,0.0106
852.00,0.0109
851.00,0.0113
850.00,0.0118
849.00,0.0125
848.00,0.0136
847.00,0.0152
846.00,0.0178
845.00,0.0219
844.00,0.0274
843.00,0.0336
842.00,0.0382
841.00,0.0392
840.00,0.0361
839.00,0.0304
838.00,0.0244
837.00,0.0199
836.00,0.0170
835.00,0.0152
834.00,0.0140
833.00,0.0131
832.00,0.0125
831.00,0.0121
830.00,0.0119
829.00,0.0117
828.00,0.0116
827.00,0.0115
826.00,0.0114
825.00,0.0112
824.00,0.0111
823.00,0.0110
822.00,0.0110
821.00,0.0109
820.00,0.0110
819.00,0.0112
818.00,0.0117
817.00,0.0124
816.00,0.0133
815.00,0.0144
814.00,0.0157
813.00,0.0173
812.00,0.0190
811.00,0.0206
810.00,0.0218
809.00,0.0224
808.00,0.0222
807.00,0.0212
806.00,0.0197
805.00,0.0178
804.00,0.0161
803.00,0.0146
802.00,0.0136
801.00,0.0129
800.00,0.0123
799.00,0.0118
798.00,0.0114
797.00,0.0111
796.00,0.0108
795.00,0.0106
794.00,0.0103
793.00,0.0100
792.00,0.0096
791.00,0.0092
790.00,0.0089
789.00,0.0087
788.00,0.0084
787.00,0.0080
786.00,0.0077
785.00,0.0074
784.00,0.0071
783.00,0.0068
782.00,0.0067
781.00,0.0066
780.00,0.0065
779.00,0.0064
778.00,0.0063
777.00,0.0062
776.00,0.0062
775.00,0.0063
774.00,0.0064
773.00,0.0065
772.00,0.0065
771.00,0.0065
770.00,0.0065
769.00,0.0066
768.00,0.0068
767.00,0.0069
766.00,0.0070
765.00,0.0070
764.00,0.0071
763.00,0.0071
762.00,0.0072
761.00,0.0072
760.00,0.0073
759.00,0.0073
758.00,0.0073
757.00,0.0073
756.00,0.0073
755.00,0.0072
754.00,0.0071
753.00,0.0070
752.00,0.0069
751.00,0.0069
750.00,0.0070
749.00,0.0072
748.00,0.0074
747.00,0.0076
746.00,0.0077
745.00,0.0078
744.00,0.0079
743.00,0.0081
742.00,0.0082
741.00,0.0083
740.00,0.0085
739.00,0.0087
738.00,0.0091
737.00,0.0094
736.00,0.0096
735.00,0.0098
734.00,0.0101
733.00,0.0106
732.00,0.0114
731.00,0.0123
730.00,0.0132
729.00,0.0137
728.00,0.0139
727.00,0.0138
726.00,0.0138
725.00,0.0139
724.00,0.0142
723.00,0.0146
722.00,0.0151
721.00,0.0153
720.00,0.0151
719.00,0.0144
718.00,0.0135
717.00,0.0125
716.00,0.0116
715.00,0.0109
714.00,0.0103
713.00,0.0099
712.00,0.0095
711.00,0.0092
710.00,0.0090
709.00,0.0087
708.00,0.0085
707.00,0.0084
706.00,0.0084
705.00,0.0083
704.00,0.0081
703.00,0.0079
702.00,0.0077
701.00,0.0075
700.00,0.0074
699.00,0.0072
698.00,0.0070
697.00,0.0069
696.00,0.0067
695.00,0.0066
694.00,0.0066
693.00,0.0067
692.00,0.0067
691.00,0.0067
690.00,0.0065
689.00,0.0065
688.00,0.0066
687.00,0.0068
686.00,0.0069
685.00,0.0069
684.00,0.0068
683.00,0.0067
682.00,0.0066
681.00,0.0066
680.00,0.0067
679.00,0.0067
678.00,0.0067
677.00,0.0066
676.00,0.0065
675.00,0.0066
674.00,0.0067
673.00,0.0068
672.00,0.0068
671.00,0.0066
670.00,0.0063
669.00,0.0060
668.00,0.0060
667.00,0.0063
666.00,0.0066
665.00,0.0068
664.00,0.0069
663.00,0.0069
662.00,0.0068
661.00,0.0069
660.00,0.0069
659.00,0.0069
658.00,0.0069
657.00,0.0068
656.00,0.0068
655.00,0.0069
654.00,0.0069
653.00,0.0068
652.00,0.0068
651.00,0.0069
650.00,0.0069
649.00,0.0069
648.00,0.0068
647.00,0.0067
646.00,0.0066
645.00,0.0066
644.00,0.0066
643.00,0.0067
642.00,0.0067
641.00,0.0067
640.00,0.0067
639.00,0.0067
638.00,0.0068
637.00,0.0069
636.00,0.0069
635.00,0.0069
634.00,0.0068
633.00,0.0067
632.00,0.0066
631.00,0.0066
630.00,0.0067
629.00,0.0067
628.00,0.0067
627.00,0.0066
626.00,0.0066
625.00,0.0066
624.00,0.0067
623.00,0.0069
622.00,0.0070
621.00,0.0070
620.00,0.0068
619.00,0.0066
618.00,0.0064
617.00,0.0063
616.00,0.0062
615.00,0.0062
614.00,0.0064
613.00,0.0066
612.00,0.0068
611.00,0.0068
610.00,0.0067
609.00,0.0066
608.00,0.0065
607.00,0.0065
606.00,0.0065
605.00,0.0066
604.00,0.0068
603.00,0.0071
602.00,0.0074
601.00,0.0075
600.00,0.0075
599.00,0.0072
598.00,0.0070
597.00,0.0069
596.00,0.0070
595.00,0.0073
594.00,0.0078
593.00,0.0080
592.00,0.0079
591.00,0.0077
590.00,0.0074
589.00,0.0072
588.00,0.0070
587.00,0.0068
586.00,0.0068
585.00,0.0071
584.00,0.0076
583.00,0.0081
582.00,0.0084
581.00,0.0084
580.00,0.0082
579.00,0.0078
578.00,0.0075
577.00,0.0073
576.00,0.0072
575.00,0.0072
574.00,0.0073
573.00,0.0074
572.00,0.0074
571.00,0.0073
570.00,0.0072
569.00,0.0071
568.00,0.0070
567.00,0.0070
566.00,0.0071
565.00,0.0071
564.00,0.0072
563.00,0.0073
562.00,0.0074
561.00,0.0074
560.00,0.0072
559.00,0.0070
558.00,0.0071
557.00,0.0072
556.00,0.0072
555.00,0.0071
554.00,0.0071
553.00,0.0073
552.00,0.0075
551.00,0.0076
550.00,0.0074
549.00,0.0073
548.00,0.0074
547.00,0.0077
546.00,0.0080
545.00,0.0083
544.00,0.0083
543.00,0.0081
542.00,0.0078
541.00,0.0077
540.00,0.0077
539.00,0.0079
538.00,0.0081
537.00,0.0080
536.00,0.0078
535.00,0.0078
534.00,0.0079
533.00,0.0082
532.00,0.0085
531.00,0.0087
530.00,0.0087
529.00,0.0086
528.00,0.0086
527.00,0.0089
526.00,0.0091
525.00,0.0091
524.00,0.0089
523.00,0.0088
522.00,0.0088
521.00,0.0089
520.00,0.0088
519.00,0.0087
518.00,0.0087
517.00,0.0085
516.00,0.0084
515.00,0.0085
514.00,0.0085
513.00,0.0086
512.00,0.0087
511.00,0.0088
510.00,0.0089
509.00,0.0084
508.00,0.0075
507.00,0.0068
506.00,0.0065
505.00,0.0066
504.00,0.0067
503.00,0.0069
502.00,0.0074
501.00,0.0080
500.00,0.0083
499.00,0.0081
498.00,0.0076
497.00,0.0072
496.00,0.0072
495.00,0.0078
494.00,0.0084
493.00,0.0086
492.00,0.0082
491.00,0.0078
490.00,0.0077
489.00,0.0080
488.00,0.0083
487.00,0.0085
486.00,0.0087
485.00,0.0088
484.00,0.0089
483.00,0.0092
482.00,0.0097
481.00,0.0101
480.00,0.0100
479.00,0.0094
478.00,0.0088
477.00,0.0089
476.00,0.0096
475.00,0.0105
474.00,0.0110
473.00,0.0106
472.00,0.0096
471.00,0.0090
470.00,0.0094
469.00,0.0105
468.00,0.0120
467.00,0.0130
466.00,0.0132
465.00,0.0127
464.00,0.0123
463.00,0.0131
462.00,0.0149
461.00,0.0168
460.00,0.0177
459.00,0.0169
458.00,0.0150
457.00,0.0128
456.00,0.0111
455.00,0.0105
454.00,0.0108
453.00,0.0119
452.00,0.0131
451.00,0.0134
450.00,0.0126
