Created as New Dataset,Sample 135 By Administrator Date Wednesday, September 10 2025
cm-1,A
4000.00,0.0009
3999.00,0.0009
3998.00,0.0009
3997.00,0.0010
3996.00,0.0009
3995.00,0.0010
3994.00,0.0010
3993.00,0.0010
3992.00,0.0010
3991.00,0.0010
3990.00,0.0010
3989.00,0.0009
3988.00,0.0009
3987.00,0.0009
3986.00,0.0009
3985.00,0.0009
3984.00,0.0009
3983.00,0.0009
3982.00,0.0009
3981.00,0.0009
3980.00,0.0009
3979.00,0.0009
3978.00,0.0009
3977.00,0.0009
3976.00,0.0008
3975.00,0.0008
3974.00,0.0008
3973.00,0.0008
3972.00,0.0008
3971.00,0.0008
3970.00,0.0008
3969.00,0.0008
3968.00,0.0008
3967.00,0.0008
3966.00,0.0008
3965.00,0.0008
3964.00,0.0008
3963.00,0.0008
3962.00,0.0008
3961.00,0.0008
3960.00,0.0008
3959.00,0.0008
3958.00,0.0008
3957.00,0.0007
3956.00,0.0007
3955.00,0.0007
3954.00,0.0006
3953.00,0.0006
3952.00,0.0006
3951.00,0.0006
3950.00,0.0007
3949.00,0.0007
3948.00,0.0007
3947.00,0.0008
3946.00,0.0008
3945.00,0.0008
3944.00,0.0008
3943.00,0.0008
3942.00,0.0008
3941.00,0.0008
3940.00,0.0008
3939.00,0.0008
3938.00,0.0008
3937.00,0.0008
3936.00,0.0007
3935.00,0.0007
3934.00,0.0007
3933.00,0.0007
3932.00,0.0007
3931.00,0.0007
3930.00,0.0007
3929.00,0.0007
3928.00,0.0007
3927.00,0.0007
3926.00,0.0007
3925.00,0.0007
3924.00,0.0007
3923.00,0.0007
3922.00,0.0007
3921.00,0.0007
3920.00,0.0007
3919.00,0.0007
3918.00,0.0007
3917.00,0.0007
3916.00,0.0007
3915.00,0.0007
3914.00,0.0007
3913.00,0.0007
3912.00,0.0007
3911.00,0.0007
3910.00,0.0007
3909.00,0.0006
3908.00,0.0006
3907.00,0.0006
3906.00,0.0006
3905.00,0.0007
3904.00,0.0007
3903.00,0.0008
3902.00,0.0008
3901.00,0.0007
3900.00,0.0007
3899.00,0.0007
3898.00,0.0007
3897.00,0.0007
3896.00,0.0007
3895.00,0.0007
3894.00,0.0007
3893.00,0.0007
3892.00,0.0007
3891.00,0.0008
3890.00,0.0008
3889.00,0.0008
3888.00,0.0007
3887.00,0.0007
3886.00,0.0006
3885.00,0.0007
3884.00,0.0007
3883.00,0.0007
3882.00,0.0007
3881.00,0.0006
3880.00,0.0007
3879.00,0.0007
3878.00,0.0007
3877.00,0.0007
3876.00,0.0007
3875.00,0.0007
3874.00,0.0008
3873.00,0.0008
3872.00,0.0008
3871.00,0.0007
3870.00,0.0007
3869.00,0.0007
3868.00,0.0007
3867.00,0.0007
3866.00,0.0007
3865.00,0.0007
3864.00,0.0007
3863.00,0.0007
3862.00,0.0007
3861.00,0.0007
3860.00,0.0007
3859.00,0.0008
3858.00,0.0008
3857.00,0.0008
3856.00,0.0008
3855.00,0.0008
3854.00,0.0008
3853.00,0.0008
3852.00,0.0007
3851.00,0.0007
3850.00,0.0007
3849.00,0.0007
3848.00,0.0007
3847.00,0.0007
3846.00,0.0007
3845.00,0.0007
3844.00,0.0008
3843.00,0.0008
3842.00,0.0008
3841.00,0.0007
3840.00,0.0007
3839.00,0.0007
3838.00,0.0007
3837.00,0.0007
3836.00,0.0007
3835.00,0.0007
3834.00,0.0006
3833.00,0.0006
3832.00,0.0007
3831.00,0.0007
3830.00,0.0007
3829.00,0.0007
3828.00,0.0007
3827.00,0.0007
3826.00,0.0007
3825.00,0.0007
3824.00,0.0007
3823.00,0.0007
3822.00,0.0007
3821.00,0.0008
3820.00,0.0008
3819.00,0.0007
3818.00,0.0007
3817.00,0.0007
3816.00,0.0008
3815.00,0.0008
3814.00,0.0008
3813.00,0.0008
3812.00,0.0008
3811.00,0.0008
3810.00,0.0008
3809.00,0.0008
3808.00,0.0008
3807.00,0.0008
3806.00,0.0008
3805.00,0.0007
3804.00,0.0007
3803.00,0.0006
3802.00,0.0006
3801.00,0.0007
3800.00,0.0007
3799.00,0.0007
3798.00,0.0007
3797.00,0.0007
3796.00,0.0007
3795.00,0.0007
3794.00,0.0007
3793.00,0.0006
3792.00,0.0007
3791.00,0.0007
3790.00,0.0007
3789.00,0.0007
3788.00,0.0006
3787.00,0.0006
3786.00,0.0006
3785.00,0.0006
3784.00,0.0007
3783.00,0.0007
3782.00,0.0007
3781.00,0.0007
3780.00,0.0007
3779.00,0.0007
3778.00,0.0007
3777.00,0.0007
3776.00,0.0007
3775.00,0.0008
3774.00,0.0008
3773.00,0.0008
3772.00,0.0008
3771.00,0.0008
3770.00,0.0008
3769.00,0.0009
3768.00,0.0009
3767.00,0.0008
3766.00,0.0008
3765.00,0.0008
3764.00,0.0008
3763.00,0.0008
3762.00,0.0007
3761.00,0.0007
3760.00,0.0008
3759.00,0.0008
3758.00,0.0008
3757.00,0.0008
3756.00,0.0008
3755.00,0.0008
3754.00,0.0009
3753.00,0.0009
3752.00,0.0009
3751.00,0.0008
3750.00,0.0008
3749.00,0.0008
3748.00,0.0008
3747.00,0.0007
3746.00,0.0007
3745.00,0.0007
3744.00,0.0007
3743.00,0.0007
3742.00,0.0007
3741.00,0.0007
3740.00,0.0007
3739.00,0.0007
3738.00,0.0007
3737.00,0.0007
3736.00,0.0007
3735.00,0.0006
3734.00,0.0006
3733.00,0.0005
3732.00,0.0005
3731.00,0.0005
3730.00,0.0005
3729.00,0.0005
3728.00,0.0005
3727.00,0.0005
3726.00,0.0005
3725.00,0.0005
3724.00,0.0005
3723.00,0.0005
3722.00,0.0006
3721.00,0.0006
3720.00,0.0006
3719.00,0.0006
3718.00,0.0006
3717.00,0.0006
3716.00,0.0006
3715.00,0.0006
3714.00,0.0006
3713.00,0.0005
3712.00,0.0005
3711.00,0.0005
3710.00,0.0005
3709.00,0.0005
3708.00,0.0005
3707.00,0.0005
3706.00,0.0005
3705.00,0.0005
3704.00,0.0005
3703.00,0.0005
3702.00,0.0005
3701.00,0.0006
3700.00,0.0006
3699.00,0.0006
3698.00,0.0006
3697.00,0.0006
3696.00,0.0006
3695.00,0.0006
3694.00,0.0006
3693.00,0.0007
3692.00,0.0007
3691.00,0.0007
3690.00,0.0007
3689.00,0.0006
3688.00,0.0006
3687.00,0.0005
3686.00,0.0005
3685.00,0.0005
3684.00,0.0005
3683.00,0.0006
3682.00,0.0006
3681.00,0.0007
3680.00,0.0007
3679.00,0.0007
3678.00,0.0008
3677.00,0.0007
3676.00,0.0007
3675.00,0.0007
3674.00,0.0007
3673.00,0.0006
3672.00,0.0006
3671.00,0.0006
3670.00,0.0006
3669.00,0.0006
3668.00,0.0007
3667.00,0.0006
3666.00,0.0006
3665.00,0.0007
3664.00,0.0007
3663.00,0.0007
3662.00,0.0007
3661.00,0.0007
3660.00,0.0007
3659.00,0.0007
3658.00,0.0007
3657.00,0.0007
3656.00,0.0007
3655.00,0.0007
3654.00,0.0007
3653.00,0.0006
3652.00,0.0006
3651.00,0.0005
3650.00,0.0005
3649.00,0.0006
3648.00,0.0006
3647.00,0.0006
3646.00,0.0007
3645.00,0.0008
3644.00,0.0008
3643.00,0.0008
3642.00,0.0008
3641.00,0.0008
3640.00,0.0008
3639.00,0.0008
3638.00,0.0008
3637.00,0.0009
3636.00,0.0009
3635.00,0.0009
3634.00,0.0010
3633.00,0.0010
3632.00,0.0010
3631.00,0.0009
3630.00,0.0009
3629.00,0.0008
3628.00,0.0008
3627.00,0.0008
3626.00,0.0009
3625.00,0.0009
3624.00,0.0010
3623.00,0.0011
3622.00,0.0011
3621.00,0.0011
3620.00,0.0011
3619.00,0.0010
3618.00,0.0010
3617.00,0.0011
3616.00,0.0011
3615.00,0.0011
3614.00,0.0011
3613.00,0.0012
3612.00,0.0012
3611.00,0.0012
3610.00,0.0012
3609.00,0.0012
3608.00,0.0012
3607.00,0.0012
3606.00,0.0013
3605.00,0.0013
3604.00,0.0013
3603.00,0.0013
3602.00,0.0013
3601.00,0.0013
3600.00,0.0013
3599.00,0.0013
3598.00,0.0013
3597.00,0.0013
3596.00,0.0013
3595.00,0.0013
3594.00,0.0013
3593.00,0.0013
3592.00,0.0014
3591.00,0.0014
3590.00,0.0014
3589.00,0.0014
3588.00,0.0014
3587.00,0.0015
3586.00,0.0015
3585.00,0.0016
3584.00,0.0017
3583.00,0.0017
3582.00,0.0018
3581.00,0.0018
3580.00,0.0019
3579.00,0.0019
3578.00,0.0019
3577.00,0.0019
3576.00,0.0019
3575.00,0.0020
3574.00,0.0020
3573.00,0.0020
3572.00,0.0020
3571.00,0.0020
3570.00,0.0021
3569.00,0.0021
3568.00,0.0021
3567.00,0.0021
3566.00,0.0021
3565.00,0.0021
3564.00,0.0021
3563.00,0.0022
3562.00,0.0022
3561.00,0.0022
3560.00,0.0023
3559.00,0.0023
3558.00,0.0024
3557.00,0.0024
3556.00,0.0025
3555.00,0.0025
3554.00,0.0026
3553.00,0.0026
3552.00,0.0026
3551.00,0.0026
3550.00,0.0026
3549.00,0.0026
3548.00,0.0027
3547.00,0.0027
3546.00,0.0028
3545.00,0.0028
3544.00,0.0028
3543.00,0.0028
3542.00,0.0028
3541.00,0.0028
3540.00,0.0028
3539.00,0.0029
3538.00,0.0029
3537.00,0.0030
3536.00,0.0030
3535.00,0.0030
3534.00,0.0030
3533.00,0.0030
3532.00,0.0031
3531.00,0.0031
3530.00,0.0032
3529.00,0.0032
3528.00,0.0033
3527.00,0.0033
3526.00,0.0033
3525.00,0.0033
3524.00,0.0033
3523.00,0.0033
3522.00,0.0033
3521.00,0.0034
3520.00,0.0034
3519.00,0.0035
3518.00,0.0036
3517.00,0.0036
3516.00,0.0037
3515.00,0.0037
3514.00,0.0038
3513.00,0.0038
3512.00,0.0038
3511.00,0.0038
3510.00,0.0038
3509.00,0.0038
3508.00,0.0038
3507.00,0.0038
3506.00,0.0039
3505.00,0.0039
3504.00,0.0039
3503.00,0.0039
3502.00,0.0039
3501.00,0.0040
3500.00,0.0040
3499.00,0.0040
3498.00,0.0041
3497.00,0.0042
3496.00,0.0042
3495.00,0.0043
3494.00,0.0043
3493.00,0.0044
3492.00,0.0044
3491.00,0.0044
3490.00,0.0044
3489.00,0.0044
3488.00,0.0044
3487.00,0.0045
3486.00,0.0044
3485.00,0.0044
3484.00,0.0044
3483.00,0.0044
3482.00,0.0044
3481.00,0.0045
3480.00,0.0045
3479.00,0.0045
3478.00,0.0045
3477.00,0.0046
3476.00,0.0046
3475.00,0.0047
3474.00,0.0048
3473.00,0.0049
3472.00,0.0049
3471.00,0.0049
3470.00,0.0050
3469.00,0.0050
3468.00,0.0050
3467.00,0.0051
3466.00,0.0051
3465.00,0.0051
3464.00,0.0051
3463.00,0.0051
3462.00,0.0051
3461.00,0.0051
3460.00,0.0052
3459.00,0.0052
3458.00,0.0052
3457.00,0.0051
3456.00,0.0052
3455.00,0.0052
3454.00,0.0053
3453.00,0.0053
3452.00,0.0054
3451.00,0.0054
3450.00,0.0054
3449.00,0.0054
3448.00,0.0054
3447.00,0.0055
3446.00,0.0055
3445.00,0.0056
3444.00,0.0056
3443.00,0.0057
3442.00,0.0057
3441.00,0.0058
3440.00,0.0058
3439.00,0.0058
3438.00,0.0058
3437.00,0.0058
3436.00,0.0059
3435.00,0.0059
3434.00,0.0060
3433.00,0.0060
3432.00,0.0060
3431.00,0.0060
3430.00,0.0060
3429.00,0.0060
3428.00,0.0060
3427.00,0.0061
3426.00,0.0061
3425.00,0.0061
3424.00,0.0062
3423.00,0.0062
3422.00,0.0063
3421.00,0.0063
3420.00,0.0063
3419.00,0.0063
3418.00,0.0063
3417.00,0.0063
3416.00,0.0063
3415.00,0.0063
3414.00,0.0063
3413.00,0.0064
3412.00,0.0064
3411.00,0.0064
3410.00,0.0064
3409.00,0.0065
3408.00,0.0065
3407.00,0.0065
3406.00,0.0066
3405.00,0.0067
3404.00,0.0067
3403.00,0.0067
3402.00,0.0067
3401.00,0.0067
3400.00,0.0067
3399.00,0.0067
3398.00,0.0067
3397.00,0.0066
3396.00,0.0066
3395.00,0.0067
3394.00,0.0067
3393.00,0.0067
3392.00,0.0068
3391.00,0.0068
3390.00,0.0068
3389.00,0.0068
3388.00,0.0068
3387.00,0.0068
3386.00,0.0068
3385.00,0.0068
3384.00,0.0068
3383.00,0.0069
3382.00,0.0069
3381.00,0.0070
3380.00,0.0070
3379.00,0.0070
3378.00,0.0070
3377.00,0.0070
3376.00,0.0070
3375.00,0.0070
3374.00,0.0070
3373.00,0.0070
3372.00,0.0070
3371.00,0.0070
3370.00,0.0070
3369.00,0.0070
3368.00,0.0070
3367.00,0.0071
3366.00,0.0071
3365.00,0.0072
3364.00,0.0072
3363.00,0.0072
3362.00,0.0072
3361.00,0.0071
3360.00,0.0072
3359.00,0.0072
3358.00,0.0072
3357.00,0.0072
3356.00,0.0072
3355.00,0.0072
3354.00,0.0072
3353.00,0.0072
3352.00,0.0073
3351.00,0.0073
3350.00,0.0073
3349.00,0.0073
3348.00,0.0073
3347.00,0.0073
3346.00,0.0073
3345.00,0.0073
3344.00,0.0073
3343.00,0.0073
3342.00,0.0073
3341.00,0.0073
3340.00,0.0073
3339.00,0.0073
3338.00,0.0072
3337.00,0.0072
3336.00,0.0072
3335.00,0.0072
3334.00,0.0072
3333.00,0.0072
3332.00,0.0072
3331.00,0.0072
3330.00,0.0071
3329.00,0.0071
3328.00,0.0071
3327.00,0.0070
3326.00,0.0070
3325.00,0.0070
3324.00,0.0069
3323.00,0.0070
3322.00,0.0070
3321.00,0.0070
3320.00,0.0071
3319.00,0.0070
3318.00,0.0070
3317.00,0.0070
3316.00,0.0070
3315.00,0.0069
3314.00,0.0069
3313.00,0.0069
3312.00,0.0070
3311.00,0.0070
3310.00,0.0070
3309.00,0.0069
3308.00,0.0069
3307.00,0.0069
3306.00,0.0069
3305.00,0.0069
3304.00,0.0069
3303.00,0.0070
3302.00,0.0070
3301.00,0.0070
3300.00,0.0069
3299.00,0.0069
3298.00,0.0068
3297.00,0.0068
3296.00,0.0068
3295.00,0.0068
3294.00,0.0068
3293.00,0.0068
3292.00,0.0067
3291.00,0.0067
3290.00,0.0067
3289.00,0.0067
3288.00,0.0067
3287.00,0.0067
3286.00,0.0067
3285.00,0.0067
3284.00,0.0066
3283.00,0.0066
3282.00,0.0066
3281.00,0.0066
3280.00,0.0065
3279.00,0.0065
3278.00,0.0065
3277.00,0.0065
3276.00,0.0065
3275.00,0.0064
3274.00,0.0064
3273.00,0.0063
3272.00,0.0063
3271.00,0.0062
3270.00,0.0062
3269.00,0.0063
3268.00,0.0063
3267.00,0.0063
3266.00,0.0063
3265.00,0.0063
3264.00,0.0063
3263.00,0.0062
3262.00,0.0062
3261.00,0.0062
3260.00,0.0062
3259.00,0.0061
3258.00,0.0061
3257.00,0.0061
3256.00,0.0060
3255.00,0.0060
3254.00,0.0060
3253.00,0.0060
3252.00,0.0060
3251.00,0.0059
3250.00,0.0059
3249.00,0.0059
3248.00,0.0059
3247.00,0.0059
3246.00,0.0059
3245.00,0.0058
3244.00,0.0058
3243.00,0.0058
3242.00,0.0058
3241.00,0.0058
3240.00,0.0058
3239.00,0.0058
3238.00,0.0058
3237.00,0.0058
3236.00,0.0058
3235.00,0.0058
3234.00,0.0058
3233.00,0.0058
3232.00,0.0058
3231.00,0.0058
3230.00,0.0058
3229.00,0.0058
3228.00,0.0057
3227.00,0.0057
3226.00,0.0058
3225.00,0.0058
3224.00,0.0058
3223.00,0.0058
3222.00,0.0058
3221.00,0.0058
3220.00,0.0058
3219.00,0.0058
3218.00,0.0058
3217.00,0.0058
3216.00,0.0058
3215.00,0.0058
3214.00,0.0058
3213.00,0.0058
3212.00,0.0058
3211.00,0.0058
3210.00,0.0058
3209.00,0.0058
3208.00,0.0058
3207.00,0.0058
3206.00,0.0058
3205.00,0.0058
3204.00,0.0058
3203.00,0.0058
3202.00,0.0058
3201.00,0.0058
3200.00,0.0058
3199.00,0.0058
3198.00,0.0058
3197.00,0.0058
3196.00,0.0058
3195.00,0.0058
3194.00,0.0057
3193.00,0.0057
3192.00,0.0057
3191.00,0.0056
3190.00,0.0056
3189.00,0.0056
3188.00,0.0056
3187.00,0.0055
3186.00,0.0055
3185.00,0.0055
3184.00,0.0055
3183.00,0.0054
3182.00,0.0054
3181.00,0.0053
3180.00,0.0053
3179.00,0.0052
3178.00,0.0052
3177.00,0.0052
3176.00,0.0052
3175.00,0.0052
3174.00,0.0052
3173.00,0.0052
3172.00,0.0052
3171.00,0.0052
3170.00,0.0051
3169.00,0.0051
3168.00,0.0050
3167.00,0.0050
3166.00,0.0050
3165.00,0.0050
3164.00,0.0049
3163.00,0.0049
3162.00,0.0049
3161.00,0.0049
3160.00,0.0049
3159.00,0.0048
3158.00,0.0048
3157.00,0.0048
3156.00,0.0048
3155.00,0.0048
3154.00,0.0048
3153.00,0.0048
3152.00,0.0048
3151.00,0.0048
3150.00,0.0048
3149.00,0.0048
3148.00,0.0048
3147.00,0.0048
3146.00,0.0048
3145.00,0.0048
3144.00,0.0047
3143.00,0.0047
3142.00,0.0046
3141.00,0.0046
3140.00,0.0046
3139.00,0.0046
3138.00,0.0046
3137.00,0.0046
3136.00,0.0045
3135.00,0.0045
3134.00,0.0045
3133.00,0.0044
3132.00,0.0044
3131.00,0.0043
3130.00,0.0043
3129.00,0.0043
3128.00,0.0042
3127.00,0.0042
3126.00,0.0042
3125.00,0.0042
3124.00,0.0042
3123.00,0.0042
3122.00,0.0042
3121.00,0.0042
3120.00,0.0041
3119.00,0.0041
3118.00,0.0040
3117.00,0.0040
3116.00,0.0039
3115.00,0.0039
3114.00,0.0039
3113.00,0.0039
3112.00,0.0039
3111.00,0.0039
3110.00,0.0039
3109.00,0.0038
3108.00,0.0038
3107.00,0.0038
3106.00,0.0038
3105.00,0.0038
3104.00,0.0038
3103.00,0.0037
3102.00,0.0037
3101.00,0.0036
3100.00,0.0036
3099.00,0.0036
3098.00,0.0036
3097.00,0.0036
3096.00,0.0036
3095.00,0.0036
3094.00,0.0036
3093.00,0.0036
3092.00,0.0036
3091.00,0.0036
3090.00,0.0036
3089.00,0.0036
3088.00,0.0036
3087.00,0.0036
3086.00,0.0035
3085.00,0.0035
3084.00,0.0035
3083.00,0.0035
3082.00,0.0035
3081.00,0.0035
3080.00,0.0035
3079.00,0.0035
3078.00,0.0035
3077.00,0.0035
3076.00,0.0035
3075.00,0.0035
3074.00,0.0035
3073.00,0.0035
3072.00,0.0036
3071.00,0.0036
3070.00,0.0036
3069.00,0.0036
3068.00,0.0036
3067.00,0.0036
3066.00,0.0036
3065.00,0.0036
3064.00,0.0036
3063.00,0.0036
3062.00,0.0036
3061.00,0.0036
3060.00,0.0037
3059.00,0.0037
3058.00,0.0037
3057.00,0.0037
3056.00,0.0037
3055.00,0.0037
3054.00,0.0037
3053.00,0.0037
3052.00,0.0037
3051.00,0.0036
3050.00,0.0036
3049.00,0.0036
3048.00,0.0037
3047.00,0.0037
3046.00,0.0037
3045.00,0.0037
3044.00,0.0037
3043.00,0.0038
3042.00,0.0038
3041.00,0.0038
3040.00,0.0038
3039.00,0.0038
3038.00,0.0039
3037.00,0.0039
3036.00,0.0040
3035.00,0.0040
3034.00,0.0040
3033.00,0.0041
3032.00,0.0041
3031.00,0.0041
3030.00,0.0041
3029.00,0.0041
3028.00,0.0042
3027.00,0.0043
3026.00,0.0043
3025.00,0.0044
3024.00,0.0045
3023.00,0.0045
3022.00,0.0046
3021.00,0.0047
3020.00,0.0047
3019.00,0.0048
3018.00,0.0048
3017.00,0.0049
3016.00,0.0050
3015.00,0.0050
3014.00,0.0052
3013.00,0.0053
3012.00,0.0054
3011.00,0.0056
3010.00,0.0058
3009.00,0.0059
3008.00,0.0061
3007.00,0.0062
3006.00,0.0063
3005.00,0.0065
3004.00,0.0067
3003.00,0.0069
3002.00,0.0071
3001.00,0.0073
3000.00,0.0076
2999.00,0.0078
2998.00,0.0081
2997.00,0.0084
2996.00,0.0087
2995.00,0.0091
2994.00,0.0095
2993.00,0.0100
2992.00,0.0105
2991.00,0.0111
2990.00,0.0117
2989.00,0.0123
2988.00,0.0131
2987.00,0.0139
2986.00,0.0148
2985.00,0.0158
2984.00,0.0170
2983.00,0.0182
2982.00,0.0197
2981.00,0.0213
2980.00,0.0231
2979.00,0.0252
2978.00,0.0276
2977.00,0.0302
2976.00,0.0333
2975.00,0.0368
2974.00,0.0407
2973.00,0.0452
2972.00,0.0501
2971.00,0.0557
2970.00,0.0618
2969.00,0.0685
2968.00,0.0757
2967.00,0.0832
2966.00,0.0909
2965.00,0.0986
2964.00,0.1059
2963.00,0.1126
2962.00,0.1184
2961.00,0.1234
2960.00,0.1278
2959.00,0.1320
2958.00,0.1366
2957.00,0.1419
2956.00,0.1485
2955.00,0.1564
2954.00,0.1654
2953.00,0.1749
2952.00,0.1839
2951.00,0.1913
2950.00,0.1959
2949.00,0.1965
2948.00,0.1926
2947.00,0.1845
2946.00,0.1731
2945.00,0.1597
2944.00,0.1461
2943.00,0.1337
2942.00,0.1235
2941.00,0.1160
2940.00,0.1112
2939.00,0.1090
2938.00,0.1090
2937.00,0.1110
2936.00,0.1149
2935.00,0.1204
2934.00,0.1275
2933.00,0.1359
2932.00,0.1456
2931.00,0.1563
2930.00,0.1678
2929.00,0.1796
2928.00,0.1914
2927.00,0.2030
2926.00,0.2142
2925.00,0.2249
2924.00,0.2353
2923.00,0.2455
2922.00,0.2557
2921.00,0.2657
2920.00,0.2749
2919.00,0.2822
2918.00,0.2868
2917.00,0.2875
2916.00,0.2841
2915.00,0.2770
2914.00,0.2671
2913.00,0.2556
2912.00,0.2436
2911.00,0.2319
2910.00,0.2210
2909.00,0.2110
2908.00,0.2018
2907.00,0.1931
2906.00,0.1847
2905.00,0.1766
2904.00,0.1686
2903.00,0.1609
2902.00,0.1535
2901.00,0.1464
2900.00,0.1397
2899.00,0.1334
2898.00,0.1276
2897.00,0.1225
2896.00,0.1180
2895.00,0.1142
2894.00,0.1111
2893.00,0.1087
2892.00,0.1070
2891.00,0.1060
2890.00,0.1055
2889.00,0.1055
2888.00,0.1059
2887.00,0.1067
2886.00,0.1078
2885.00,0.1094
2884.00,0.1115
2883.00,0.1141
2882.00,0.1171
2881.00,0.1206
2880.00,0.1240
2879.00,0.1270
2878.00,0.1292
2877.00,0.1302
2876.00,0.1302
2875.00,0.1294
2874.00,0.1286
2873.00,0.1283
2872.00,0.1288
2871.00,0.1302
2870.00,0.1324
2869.00,0.1348
2868.00,0.1365
2867.00,0.1367
2866.00,0.1343
2865.00,0.1290
2864.00,0.1211
2863.00,0.1115
2862.00,0.1013
2861.00,0.0917
2860.00,0.0834
2859.00,0.0767
2858.00,0.0715
2857.00,0.0677
2856.00,0.0650
2855.00,0.0631
2854.00,0.0620
2853.00,0.0616
2852.00,0.0618
2851.00,0.0627
2850.00,0.0643
2849.00,0.0666
2848.00,0.0697
2847.00,0.0737
2846.00,0.0786
2845.00,0.0843
2844.00,0.0908
2843.00,0.0978
2842.00,0.1049
2841.00,0.1117
2840.00,0.1173
2839.00,0.1210
2838.00,0.1219
2837.00,0.1194
2836.00,0.1136
2835.00,0.1050
2834.00,0.0945
2833.00,0.0835
2832.00,0.0730
2831.00,0.0636
2830.00,0.0556
2829.00,0.0490
2828.00,0.0437
2827.00,0.0394
2826.00,0.0360
2825.00,0.0331
2824.00,0.0308
2823.00,0.0289
2822.00,0.0272
2821.00,0.0258
2820.00,0.0246
2819.00,0.0236
2818.00,0.0227
2817.00,0.0219
2816.00,0.0211
2815.00,0.0204
2814.00,0.0198
2813.00,0.0192
2812.00,0.0187
2811.00,0.0181
2810.00,0.0175
2809.00,0.0169
2808.00,0.0163
2807.00,0.0156
2806.00,0.0150
2805.00,0.0143
2804.00,0.0137
2803.00,0.0131
2802.00,0.0126
2801.00,0.0121
2800.00,0.0117
2799.00,0.0114
2798.00,0.0111
2797.00,0.0108
2796.00,0.0105
2795.00,0.0103
2794.00,0.0100
2793.00,0.0098
2792.00,0.0095
2791.00,0.0093
2790.00,0.0090
2789.00,0.0087
2788.00,0.0084
2787.00,0.0082
2786.00,0.0079
2785.00,0.0077
2784.00,0.0075
2783.00,0.0073
2782.00,0.0071
2781.00,0.0069
2780.00,0.0067
2779.00,0.0066
2778.00,0.0064
2777.00,0.0063
2776.00,0.0062
2775.00,0.0061
2774.00,0.0060
2773.00,0.0060
2772.00,0.0059
2771.00,0.0059
2770.00,0.0058
2769.00,0.0058
2768.00,0.0058
2767.00,0.0058
2766.00,0.0057
2765.00,0.0057
2764.00,0.0056
2763.00,0.0056
2762.00,0.0056
2761.00,0.0055
2760.00,0.0055
2759.00,0.0055
2758.00,0.0054
2757.00,0.0054
2756.00,0.0054
2755.00,0.0054
2754.00,0.0054
2753.00,0.0054
2752.00,0.0054
2751.00,0.0053
2750.00,0.0053
2749.00,0.0053
2748.00,0.0053
2747.00,0.0054
2746.00,0.0054
2745.00,0.0055
2744.00,0.0056
2743.00,0.0056
2742.00,0.0057
2741.00,0.0058
2740.00,0.0060
2739.00,0.0061
2738.00,0.0063
2737.00,0.0064
2736.00,0.0066
2735.00,0.0068
2734.00,0.0069
2733.00,0.0071
2732.00,0.0073
2731.00,0.0075
2730.00,0.0077
2729.00,0.0080
2728.00,0.0083
2727.00,0.0086
2726.00,0.0089
2725.00,0.0092
2724.00,0.0093
2723.00,0.0094
2722.00,0.0093
2721.00,0.0091
2720.00,0.0088
2719.00,0.0084
2718.00,0.0080
2717.00,0.0077
2716.00,0.0073
2715.00,0.0070
2714.00,0.0068
2713.00,0.0066
2712.00,0.0063
2711.00,0.0061
2710.00,0.0059
2709.00,0.0057
2708.00,0.0055
2707.00,0.0054
2706.00,0.0052
2705.00,0.0051
2704.00,0.0050
2703.00,0.0049
2702.00,0.0048
2701.00,0.0047
2700.00,0.0047
2699.00,0.0047
2698.00,0.0046
2697.00,0.0046
2696.00,0.0046
2695.00,0.0045
2694.00,0.0045
2693.00,0.0045
2692.00,0.0045
2691.00,0.0045
2690.00,0.0045
2689.00,0.0045
2688.00,0.0046
2687.00,0.0046
2686.00,0.0045
2685.00,0.0045
2684.00,0.0046
2683.00,0.0046
2682.00,0.0046
2681.00,0.0047
2680.00,0.0047
2679.00,0.0047
2678.00,0.0047
2677.00,0.0047
2676.00,0.0047
2675.00,0.0047
2674.00,0.0047
2673.00,0.0046
2672.00,0.0046
2671.00,0.0046
2670.00,0.0045
2669.00,0.0045
2668.00,0.0046
2667.00,0.0046
2666.00,0.0046
2665.00,0.0047
2664.00,0.0047
2663.00,0.0048
2662.00,0.0048
2661.00,0.0049
2660.00,0.0049
2659.00,0.0049
2658.00,0.0049
2657.00,0.0049
2656.00,0.0048
2655.00,0.0048
2654.00,0.0047
2653.00,0.0047
2652.00,0.0046
2651.00,0.0046
2650.00,0.0045
2649.00,0.0044
2648.00,0.0043
2647.00,0.0043
2646.00,0.0042
2645.00,0.0042
2644.00,0.0041
2643.00,0.0041
2642.00,0.0041
2641.00,0.0041
2640.00,0.0041
2639.00,0.0040
2638.00,0.0040
2637.00,0.0039
2636.00,0.0039
2635.00,0.0039
2634.00,0.0039
2633.00,0.0039
2632.00,0.0039
2631.00,0.0039
2630.00,0.0039
2629.00,0.0040
2628.00,0.0040
2627.00,0.0040
2626.00,0.0040
2625.00,0.0040
2624.00,0.0040
2623.00,0.0041
2622.00,0.0041
2621.00,0.0041
2620.00,0.0041
2619.00,0.0041
2618.00,0.0041
2617.00,0.0042
2616.00,0.0042
2615.00,0.0042
2614.00,0.0042
2613.00,0.0041
2612.00,0.0040
2611.00,0.0039
2610.00,0.0038
2609.00,0.0037
2608.00,0.0036
2607.00,0.0035
2606.00,0.0035
2605.00,0.0034
2604.00,0.0034
2603.00,0.0033
2602.00,0.0033
2601.00,0.0032
2600.00,0.0032
2599.00,0.0032
2598.00,0.0032
2597.00,0.0033
2596.00,0.0033
2595.00,0.0034
2594.00,0.0034
2593.00,0.0035
2592.00,0.0035
2591.00,0.0036
2590.00,0.0036
2589.00,0.0037
2588.00,0.0039
2587.00,0.0040
2586.00,0.0041
2585.00,0.0042
2584.00,0.0042
2583.00,0.0042
2582.00,0.0042
2581.00,0.0041
2580.00,0.0041
2579.00,0.0040
2578.00,0.0039
2577.00,0.0038
2576.00,0.0037
2575.00,0.0036
2574.00,0.0035
2573.00,0.0033
2572.00,0.0032
2571.00,0.0032
2570.00,0.0031
2569.00,0.0030
2568.00,0.0029
2567.00,0.0028
2566.00,0.0027
2565.00,0.0026
2564.00,0.0026
2563.00,0.0026
2562.00,0.0025
2561.00,0.0025
2560.00,0.0024
2559.00,0.0024
2558.00,0.0024
2557.00,0.0023
2556.00,0.0023
2555.00,0.0023
2554.00,0.0022
2553.00,0.0022
2552.00,0.0021
2551.00,0.0021
2550.00,0.0022
2549.00,0.0022
2548.00,0.0022
2547.00,0.0021
2546.00,0.0020
2545.00,0.0020
2544.00,0.0020
2543.00,0.0020
2542.00,0.0020
2541.00,0.0019
2540.00,0.0019
2539.00,0.0018
2538.00,0.0018
2537.00,0.0018
2536.00,0.0018
2535.00,0.0018
2534.00,0.0018
2533.00,0.0018
2532.00,0.0018
2531.00,0.0018
2530.00,0.0018
2529.00,0.0017
2528.00,0.0017
2527.00,0.0017
2526.00,0.0016
2525.00,0.0016
2524.00,0.0016
2523.00,0.0015
2522.00,0.0015
2521.00,0.0014
2520.00,0.0014
2519.00,0.0014
2518.00,0.0014
2517.00,0.0014
2516.00,0.0014
2515.00,0.0014
2514.00,0.0013
2513.00,0.0013
2512.00,0.0012
2511.00,0.0012
2510.00,0.0012
2509.00,0.0011
2508.00,0.0011
2507.00,0.0011
2506.00,0.0011
2505.00,0.0011
2504.00,0.0011
2503.00,0.0011
2502.00,0.0011
2501.00,0.0011
2500.00,0.0011
2499.00,0.0011
2498.00,0.0011
2497.00,0.0012
2496.00,0.0012
2495.00,0.0012
2494.00,0.0012
2493.00,0.0012
2492.00,0.0012
2491.00,0.0012
2490.00,0.0012
2489.00,0.0012
2488.00,0.0011
2487.00,0.0011
2486.00,0.0010
2485.00,0.0010
2484.00,0.0011
2483.00,0.0012
2482.00,0.0012
2481.00,0.0012
2480.00,0.0012
2479.00,0.0012
2478.00,0.0011
2477.00,0.0011
2476.00,0.0011
2475.00,0.0011
2474.00,0.0011
2473.00,0.0011
2472.00,0.0011
2471.00,0.0011
2470.00,0.0011
2469.00,0.0011
2468.00,0.0011
2467.00,0.0012
2466.00,0.0012
2465.00,0.0012
2464.00,0.0012
2463.00,0.0012
2462.00,0.0012
2461.00,0.0013
2460.00,0.0013
2459.00,0.0014
2458.00,0.0013
2457.00,0.0013
2456.00,0.0013
2455.00,0.0012
2454.00,0.0012
2453.00,0.0012
2452.00,0.0012
2451.00,0.0012
2450.00,0.0012
2449.00,0.0012
2448.00,0.0012
2447.00,0.0012
2446.00,0.0012
2445.00,0.0012
2444.00,0.0012
2443.00,0.0011
2442.00,0.0011
2441.00,0.0011
2440.00,0.0011
2439.00,0.0011
2438.00,0.0012
2437.00,0.0012
2436.00,0.0012
2435.00,0.0012
2434.00,0.0012
2433.00,0.0012
2432.00,0.0013
2431.00,0.0013
2430.00,0.0013
2429.00,0.0014
2428.00,0.0014
2427.00,0.0013
2426.00,0.0013
2425.00,0.0013
2424.00,0.0014
2423.00,0.0014
2422.00,0.0014
2421.00,0.0013
2420.00,0.0012
2419.00,0.0012
2418.00,0.0011
2417.00,0.0011
2416.00,0.0011
2415.00,0.0011
2414.00,0.0011
2413.00,0.0011
2412.00,0.0011
2411.00,0.0012
2410.00,0.0012
2409.00,0.0012
2408.00,0.0011
2407.00,0.0010
2406.00,0.0010
2405.00,0.0010
2404.00,0.0010
2403.00,0.0011
2402.00,0.0011
2401.00,0.0011
2400.00,0.0010
2399.00,0.0010
2398.00,0.0010
2397.00,0.0010
2396.00,0.0010
2395.00,0.0010
2394.00,0.0010
2393.00,0.0010
2392.00,0.0010
2391.00,0.0010
2390.00,0.0009
2389.00,0.0009
2388.00,0.0008
2387.00,0.0007
2386.00,0.0007
2385.00,0.0007
2384.00,0.0006
2383.00,0.0006
2382.00,0.0006
2381.00,0.0005
2380.00,0.0005
2379.00,0.0005
2378.00,0.0005
2377.00,0.0005
2376.00,0.0005
2375.00,0.0005
2374.00,0.0005
2373.00,0.0004
2372.00,0.0004
2371.00,0.0003
2370.00,0.0003
2369.00,0.0004
2368.00,0.0004
2367.00,0.0004
2366.00,0.0004
2365.00,0.0004
2364.00,0.0005
2363.00,0.0007
2362.00,0.0007
2361.00,0.0008
2360.00,0.0007
2359.00,0.0006
2358.00,0.0006
2357.00,0.0005
2356.00,0.0005
2355.00,0.0005
2354.00,0.0005
2353.00,0.0005
2352.00,0.0005
2351.00,0.0005
2350.00,0.0005
2349.00,0.0006
2348.00,0.0006
2347.00,0.0007
2346.00,0.0006
2345.00,0.0006
2344.00,0.0006
2343.00,0.0007
2342.00,0.0007
2341.00,0.0008
2340.00,0.0008
2339.00,0.0008
2338.00,0.0007
2337.00,0.0007
2336.00,0.0007
2335.00,0.0007
2334.00,0.0007
2333.00,0.0007
2332.00,0.0006
2331.00,0.0006
2330.00,0.0007
2329.00,0.0008
2328.00,0.0010
2327.00,0.0014
2326.00,0.0018
2325.00,0.0021
2324.00,0.0022
2323.00,0.0021
2322.00,0.0019
2321.00,0.0016
2320.00,0.0015
2319.00,0.0014
2318.00,0.0014
2317.00,0.0014
2316.00,0.0013
2315.00,0.0013
2314.00,0.0012
2313.00,0.0011
2312.00,0.0010
2311.00,0.0010
2310.00,0.0010
2309.00,0.0010
2308.00,0.0010
2307.00,0.0010
2306.00,0.0010
2305.00,0.0010
2304.00,0.0010
2303.00,0.0011
2302.00,0.0011
2301.00,0.0011
2300.00,0.0012
2299.00,0.0012
2298.00,0.0013
2297.00,0.0013
2296.00,0.0014
2295.00,0.0014
2294.00,0.0015
2293.00,0.0016
2292.00,0.0016
2291.00,0.0017
2290.00,0.0017
2289.00,0.0017
2288.00,0.0018
2287.00,0.0018
2286.00,0.0019
2285.00,0.0019
2284.00,0.0019
2283.00,0.0018
2282.00,0.0017
2281.00,0.0017
2280.00,0.0016
2279.00,0.0016
2278.00,0.0015
2277.00,0.0014
2276.00,0.0014
2275.00,0.0014
2274.00,0.0015
2273.00,0.0016
2272.00,0.0017
2271.00,0.0017
2270.00,0.0016
2269.00,0.0016
2268.00,0.0015
2267.00,0.0014
2266.00,0.0013
2265.00,0.0012
2264.00,0.0011
2263.00,0.0011
2262.00,0.0011
2261.00,0.0011
2260.00,0.0011
2259.00,0.0011
2258.00,0.0012
2257.00,0.0012
2256.00,0.0012
2255.00,0.0010
2254.00,0.0009
2253.00,0.0009
2252.00,0.0009
2251.00,0.0010
2250.00,0.0011
2249.00,0.0011
2248.00,0.0011
2247.00,0.0011
2246.00,0.0012
2245.00,0.0012
2244.00,0.0011
2243.00,0.0009
2242.00,0.0007
2241.00,0.0006
2240.00,0.0006
2239.00,0.0007
2238.00,0.0007
2237.00,0.0008
2236.00,0.0009
2235.00,0.0009
2234.00,0.0010
2233.00,0.0010
2232.00,0.0010
2231.00,0.0010
2230.00,0.0010
2229.00,0.0010
2228.00,0.0009
2227.00,0.0007
2226.00,0.0005
2225.00,0.0003
2224.00,0.0001
2223.00,0.0002
2222.00,0.0003
2221.00,0.0005
2220.00,0.0007
2219.00,0.0007
2218.00,0.0008
2217.00,0.0007
2216.00,0.0006
2215.00,0.0005
2214.00,0.0004
2213.00,0.0003
2212.00,0.0003
2211.00,0.0004
2210.00,0.0004
2209.00,0.0006
2208.00,0.0007
2207.00,0.0009
2206.00,0.0009
2205.00,0.0008
2204.00,0.0007
2203.00,0.0006
2202.00,0.0006
2201.00,0.0008
2200.00,0.0010
2199.00,0.0012
2198.00,0.0010
2197.00,0.0007
2196.00,0.0002
2195.00,-0.0000
2194.00,0.0000
2193.00,0.0004
2192.00,0.0008
2191.00,0.0011
2190.00,0.0012
2189.00,0.0012
2188.00,0.0012
2187.00,0.0012
2186.00,0.0013
2185.00,0.0012
2184.00,0.0011
2183.00,0.0008
2182.00,0.0006
2181.00,0.0005
2180.00,0.0004
2179.00,0.0005
2178.00,0.0006
2177.00,0.0007
2176.00,0.0006
2175.00,0.0004
2174.00,0.0003
2173.00,0.0004
2172.00,0.0006
2171.00,0.0009
2170.00,0.0013
2169.00,0.0015
2168.00,0.0017
2167.00,0.0017
2166.00,0.0016
2165.00,0.0016
2164.00,0.0017
2163.00,0.0017
2162.00,0.0015
2161.00,0.0010
2160.00,-0.0000
2159.00,-0.0013
2158.00,-0.0023
2157.00,-0.0028
2156.00,-0.0027
2155.00,-0.0023
2154.00,-0.0018
2153.00,-0.0013
2152.00,-0.0008
2151.00,-0.0006
2150.00,-0.0007
2149.00,-0.0009
2148.00,-0.0009
2147.00,-0.0008
2146.00,-0.0007
2145.00,-0.0006
2144.00,-0.0007
2143.00,-0.0009
2142.00,-0.0010
2141.00,-0.0009
2140.00,-0.0008
2139.00,-0.0007
2138.00,-0.0008
2137.00,-0.0009
2136.00,-0.0012
2135.00,-0.0014
2134.00,-0.0016
2133.00,-0.0016
2132.00,-0.0015
2131.00,-0.0013
2130.00,-0.0010
2129.00,-0.0008
2128.00,-0.0007
2127.00,-0.0006
2126.00,-0.0006
2125.00,-0.0006
2124.00,-0.0005
2123.00,-0.0005
2122.00,-0.0005
2121.00,-0.0005
2120.00,-0.0004
2119.00,-0.0002
2118.00,-0.0001
2117.00,-0.0000
2116.00,0.0001
2115.00,0.0002
2114.00,0.0002
2113.00,0.0003
2112.00,0.0004
2111.00,0.0004
2110.00,0.0004
2109.00,0.0003
2108.00,0.0001
2107.00,0.0000
2106.00,0.0001
2105.00,0.0002
2104.00,0.0003
2103.00,0.0003
2102.00,0.0003
2101.00,0.0003
2100.00,0.0004
2099.00,0.0005
2098.00,0.0005
2097.00,0.0004
2096.00,0.0001
2095.00,-0.0002
2094.00,-0.0004
2093.00,-0.0004
2092.00,-0.0002
2091.00,0.0000
2090.00,0.0002
2089.00,0.0002
2088.00,0.0002
2087.00,0.0002
2086.00,0.0003
2085.00,0.0003
2084.00,0.0004
2083.00,0.0004
2082.00,0.0005
2081.00,0.0006
2080.00,0.0008
2079.00,0.0007
2078.00,0.0006
2077.00,0.0004
2076.00,0.0004
2075.00,0.0005
2074.00,0.0006
2073.00,0.0006
2072.00,0.0005
2071.00,0.0004
2070.00,0.0003
2069.00,0.0003
2068.00,0.0003
2067.00,0.0003
2066.00,0.0003
2065.00,0.0004
2064.00,0.0004
2063.00,0.0004
2062.00,0.0003
2061.00,0.0002
2060.00,0.0001
2059.00,0.0000
2058.00,0.0001
2057.00,0.0004
2056.00,0.0006
2055.00,0.0007
2054.00,0.0007
2053.00,0.0009
2052.00,0.0011
2051.00,0.0013
2050.00,0.0012
2049.00,0.0010
2048.00,0.0007
2047.00,0.0005
2046.00,0.0003
2045.00,0.0003
2044.00,0.0004
2043.00,0.0005
2042.00,0.0004
2041.00,0.0001
2040.00,-0.0002
2039.00,-0.0003
2038.00,-0.0004
2037.00,-0.0003
2036.00,-0.0005
2035.00,-0.0006
2034.00,-0.0008
2033.00,-0.0008
2032.00,-0.0008
2031.00,-0.0009
2030.00,-0.0011
2029.00,-0.0013
2028.00,-0.0014
2027.00,-0.0013
2026.00,-0.0010
2025.00,-0.0007
2024.00,-0.0006
2023.00,-0.0008
2022.00,-0.0011
2021.00,-0.0013
2020.00,-0.0014
2019.00,-0.0014
2018.00,-0.0013
2017.00,-0.0011
2016.00,-0.0009
2015.00,-0.0007
2014.00,-0.0006
2013.00,-0.0006
2012.00,-0.0006
2011.00,-0.0005
2010.00,-0.0005
2009.00,-0.0005
2008.00,-0.0008
2007.00,-0.0011
2006.00,-0.0014
2005.00,-0.0014
2004.00,-0.0012
2003.00,-0.0012
2002.00,-0.0013
2001.00,-0.0015
2000.00,-0.0015
1999.00,-0.0013
1998.00,-0.0010
1997.00,-0.0008
1996.00,-0.0008
1995.00,-0.0010
1994.00,-0.0011
1993.00,-0.0009
1992.00,-0.0006
1991.00,-0.0004
1990.00,-0.0004
1989.00,-0.0002
1988.00,-0.0001
1987.00,-0.0000
1986.00,-0.0000
1985.00,-0.0000
1984.00,0.0001
1983.00,0.0002
1982.00,0.0005
1981.00,0.0009
1980.00,0.0011
1979.00,0.0008
1978.00,0.0002
1977.00,-0.0004
1976.00,-0.0007
1975.00,-0.0008
1974.00,-0.0010
1973.00,-0.0013
1972.00,-0.0017
1971.00,-0.0020
1970.00,-0.0023
1969.00,-0.0024
1968.00,-0.0024
1967.00,-0.0023
1966.00,-0.0022
1965.00,-0.0022
1964.00,-0.0020
1963.00,-0.0018
1962.00,-0.0015
1961.00,-0.0015
1960.00,-0.0016
1959.00,-0.0017
1958.00,-0.0018
1957.00,-0.0016
1956.00,-0.0012
1955.00,-0.0009
1954.00,-0.0007
1953.00,-0.0007
1952.00,-0.0008
1951.00,-0.0010
1950.00,-0.0011
1949.00,-0.0013
1948.00,-0.0014
1947.00,-0.0015
1946.00,-0.0016
1945.00,-0.0016
1944.00,-0.0015
1943.00,-0.0015
1942.00,-0.0014
1941.00,-0.0013
1940.00,-0.0013
1939.00,-0.0014
1938.00,-0.0013
1937.00,-0.0011
1936.00,-0.0008
1935.00,-0.0007
1934.00,-0.0007
1933.00,-0.0007
1932.00,-0.0007
1931.00,-0.0006
1930.00,-0.0006
1929.00,-0.0007
1928.00,-0.0007
1927.00,-0.0007
1926.00,-0.0007
1925.00,-0.0007
1924.00,-0.0006
1923.00,-0.0006
1922.00,-0.0005
1921.00,-0.0004
1920.00,-0.0003
1919.00,-0.0002
1918.00,-0.0001
1917.00,-0.0000
1916.00,0.0001
1915.00,0.0001
1914.00,0.0001
1913.00,0.0001
1912.00,0.0000
1911.00,-0.0000
1910.00,-0.0001
1909.00,-0.0002
1908.00,-0.0002
1907.00,-0.0001
1906.00,-0.0000
1905.00,0.0001
1904.00,0.0001
1903.00,0.0001
1902.00,0.0001
1901.00,0.0000
1900.00,0.0000
1899.00,0.0000
1898.00,0.0001
1897.00,0.0001
1896.00,0.0001
1895.00,0.0001
1894.00,0.0002
1893.00,0.0002
1892.00,0.0002
1891.00,0.0002
1890.00,0.0003
1889.00,0.0003
1888.00,0.0004
1887.00,0.0004
1886.00,0.0003
1885.00,0.0001
1884.00,0.0000
1883.00,-0.0001
1882.00,-0.0001
1881.00,-0.0000
1880.00,-0.0000
1879.00,-0.0000
1878.00,-0.0001
1877.00,-0.0000
1876.00,-0.0000
1875.00,-0.0000
1874.00,-0.0000
1873.00,0.0000
1872.00,0.0000
1871.00,0.0000
1870.00,0.0000
1869.00,0.0000
1868.00,0.0001
1867.00,0.0001
1866.00,0.0001
1865.00,0.0001
1864.00,0.0001
1863.00,0.0001
1862.00,0.0002
1861.00,0.0002
1860.00,0.0003
1859.00,0.0003
1858.00,0.0003
1857.00,0.0004
1856.00,0.0004
1855.00,0.0004
1854.00,0.0003
1853.00,0.0002
1852.00,0.0002
1851.00,0.0002
1850.00,0.0002
1849.00,0.0002
1848.00,0.0003
1847.00,0.0003
1846.00,0.0003
1845.00,0.0003
1844.00,0.0003
1843.00,0.0003
1842.00,0.0003
1841.00,0.0003
1840.00,0.0002
1839.00,0.0002
1838.00,0.0002
1837.00,0.0002
1836.00,0.0003
1835.00,0.0003
1834.00,0.0004
1833.00,0.0005
1832.00,0.0005
1831.00,0.0005
1830.00,0.0005
1829.00,0.0005
1828.00,0.0004
1827.00,0.0004
1826.00,0.0004
1825.00,0.0004
1824.00,0.0005
1823.00,0.0005
1822.00,0.0005
1821.00,0.0005
1820.00,0.0004
1819.00,0.0002
1818.00,0.0001
1817.00,0.0000
1816.00,0.0001
1815.00,0.0001
1814.00,0.0002
1813.00,0.0003
1812.00,0.0004
1811.00,0.0004
1810.00,0.0005
1809.00,0.0005
1808.00,0.0005
1807.00,0.0006
1806.00,0.0006
1805.00,0.0006
1804.00,0.0006
1803.00,0.0006
1802.00,0.0005
1801.00,0.0005
1800.00,0.0005
1799.00,0.0005
1798.00,0.0006
1797.00,0.0006
1796.00,0.0006
1795.00,0.0006
1794.00,0.0007
1793.00,0.0007
1792.00,0.0008
1791.00,0.0008
1790.00,0.0008
1789.00,0.0009
1788.00,0.0009
1787.00,0.0009
1786.00,0.0009
1785.00,0.0009
1784.00,0.0009
1783.00,0.0009
1782.00,0.0009
1781.00,0.0009
1780.00,0.0010
1779.00,0.0010
1778.00,0.0009
1777.00,0.0009
1776.00,0.0009
1775.00,0.0008
1774.00,0.0009
1773.00,0.0009
1772.00,0.0010
1771.00,0.0011
1770.00,0.0011
1769.00,0.0011
1768.00,0.0011
1767.00,0.0011
1766.00,0.0012
1765.00,0.0012
1764.00,0.0012
1763.00,0.0012
1762.00,0.0012
1761.00,0.0012
1760.00,0.0012
1759.00,0.0012
1758.00,0.0013
1757.00,0.0014
1756.00,0.0015
1755.00,0.0015
1754.00,0.0016
1753.00,0.0016
1752.00,0.0017
1751.00,0.0018
1750.00,0.0018
1749.00,0.0019
1748.00,0.0020
1747.00,0.0021
1746.00,0.0023
1745.00,0.0024
1744.00,0.0025
1743.00,0.0026
1742.00,0.0027
1741.00,0.0028
1740.00,0.0029
1739.00,0.0029
1738.00,0.0030
1737.00,0.0030
1736.00,0.0031
1735.00,0.0031
1734.00,0.0031
1733.00,0.0031
1732.00,0.0031
1731.00,0.0031
1730.00,0.0030
1729.00,0.0030
1728.00,0.0030
1727.00,0.0030
1726.00,0.0030
1725.00,0.0030
1724.00,0.0030
1723.00,0.0029
1722.00,0.0029
1721.00,0.0028
1720.00,0.0027
1719.00,0.0027
1718.00,0.0026
1717.00,0.0026
1716.00,0.0027
1715.00,0.0028
1714.00,0.0028
1713.00,0.0028
1712.00,0.0028
1711.00,0.0028
1710.00,0.0027
1709.00,0.0027
1708.00,0.0027
1707.00,0.0027
1706.00,0.0027
1705.00,0.0028
1704.00,0.0029
1703.00,0.0029
1702.00,0.0028
1701.00,0.0028
1700.00,0.0028
1699.00,0.0029
1698.00,0.0029
1697.00,0.0030
1696.00,0.0031
1695.00,0.0032
1694.00,0.0033
1693.00,0.0034
1692.00,0.0034
1691.00,0.0035
1690.00,0.0035
1689.00,0.0036
1688.00,0.0037
1687.00,0.0037
1686.00,0.0037
1685.00,0.0038
1684.00,0.0039
1683.00,0.0040
1682.00,0.0040
1681.00,0.0042
1680.00,0.0043
1679.00,0.0044
1678.00,0.0045
1677.00,0.0046
1676.00,0.0047
1675.00,0.0047
1674.00,0.0048
1673.00,0.0048
1672.00,0.0048
1671.00,0.0049
1670.00,0.0050
1669.00,0.0051
1668.00,0.0052
1667.00,0.0053
1666.00,0.0053
1665.00,0.0054
1664.00,0.0055
1663.00,0.0055
1662.00,0.0056
1661.00,0.0057
1660.00,0.0057
1659.00,0.0058
1658.00,0.0058
1657.00,0.0058
1656.00,0.0059
1655.00,0.0060
1654.00,0.0061
1653.00,0.0061
1652.00,0.0061
1651.00,0.0061
1650.00,0.0062
1649.00,0.0063
1648.00,0.0064
1647.00,0.0066
1646.00,0.0066
1645.00,0.0067
1644.00,0.0067
1643.00,0.0068
1642.00,0.0068
1641.00,0.0068
1640.00,0.0068
1639.00,0.0068
1638.00,0.0068
1637.00,0.0068
1636.00,0.0068
1635.00,0.0068
1634.00,0.0067
1633.00,0.0067
1632.00,0.0067
1631.00,0.0067
1630.00,0.0066
1629.00,0.0066
1628.00,0.0066
1627.00,0.0066
1626.00,0.0065
1625.00,0.0065
1624.00,0.0065
1623.00,0.0064
1622.00,0.0064
1621.00,0.0065
1620.00,0.0065
1619.00,0.0064
1618.00,0.0064
1617.00,0.0064
1616.00,0.0064
1615.00,0.0064
1614.00,0.0064
1613.00,0.0065
1612.00,0.0065
1611.00,0.0065
1610.00,0.0064
1609.00,0.0064
1608.00,0.0063
1607.00,0.0063
1606.00,0.0064
1605.00,0.0064
1604.00,0.0064
1603.00,0.0064
1602.00,0.0064
1601.00,0.0064
1600.00,0.0065
1599.00,0.0065
1598.00,0.0065
1597.00,0.0065
1596.00,0.0065
1595.00,0.0064
1594.00,0.0064
1593.00,0.0064
1592.00,0.0064
1591.00,0.0064
1590.00,0.0063
1589.00,0.0063
1588.00,0.0063
1587.00,0.0063
1586.00,0.0064
1585.00,0.0064
1584.00,0.0065
1583.00,0.0066
1582.00,0.0066
1581.00,0.0067
1580.00,0.0068
1579.00,0.0068
1578.00,0.0069
1577.00,0.0068
1576.00,0.0068
1575.00,0.0067
1574.00,0.0067
1573.00,0.0067
1572.00,0.0067
1571.00,0.0066
1570.00,0.0066
1569.00,0.0066
1568.00,0.0065
1567.00,0.0065
1566.00,0.0065
1565.00,0.0065
1564.00,0.0065
1563.00,0.0065
1562.00,0.0065
1561.00,0.0066
1560.00,0.0067
1559.00,0.0068
1558.00,0.0068
1557.00,0.0068
1556.00,0.0069
1555.00,0.0070
1554.00,0.0071
1553.00,0.0072
1552.00,0.0072
1551.00,0.0072
1550.00,0.0072
1549.00,0.0073
1548.00,0.0074
1547.00,0.0075
1546.00,0.0075
1545.00,0.0076
1544.00,0.0077
1543.00,0.0077
1542.00,0.0077
1541.00,0.0075
1540.00,0.0073
1539.00,0.0070
1538.00,0.0068
1537.00,0.0068
1536.00,0.0068
1535.00,0.0067
1534.00,0.0065
1533.00,0.0064
1532.00,0.0062
1531.00,0.0061
1530.00,0.0060
1529.00,0.0059
1528.00,0.0059
1527.00,0.0058
1526.00,0.0057
1525.00,0.0057
1524.00,0.0057
1523.00,0.0057
1522.00,0.0057
1521.00,0.0057
1520.00,0.0058
1519.00,0.0058
1518.00,0.0059
1517.00,0.0060
1516.00,0.0061
1515.00,0.0061
1514.00,0.0061
1513.00,0.0062
1512.00,0.0064
1511.00,0.0065
1510.00,0.0065
1509.00,0.0067
1508.00,0.0069
1507.00,0.0069
1506.00,0.0070
1505.00,0.0071
1504.00,0.0072
1503.00,0.0074
1502.00,0.0075
1501.00,0.0077
1500.00,0.0079
1499.00,0.0080
1498.00,0.0082
1497.00,0.0085
1496.00,0.0089
1495.00,0.0092
1494.00,0.0094
1493.00,0.0097
1492.00,0.0100
1491.00,0.0103
1490.00,0.0106
1489.00,0.0112
1488.00,0.0118
1487.00,0.0123
1486.00,0.0128
1485.00,0.0134
1484.00,0.0141
1483.00,0.0148
1482.00,0.0157
1481.00,0.0167
1480.00,0.0178
1479.00,0.0190
1478.00,0.0204
1477.00,0.0223
1476.00,0.0246
1475.00,0.0272
1474.00,0.0309
1473.00,0.0363
1472.00,0.0430
1471.00,0.0495
1470.00,0.0557
1469.00,0.0624
1468.00,0.0697
1467.00,0.0778
1466.00,0.0872
1465.00,0.0975
1464.00,0.1067
1463.00,0.1133
1462.00,0.1177
1461.00,0.1208
1460.00,0.1229
1459.00,0.1244
1458.00,0.1253
1457.00,0.1258
1456.00,0.1255
1455.00,0.1245
1454.00,0.1233
1453.00,0.1214
1452.00,0.1184
1451.00,0.1141
1450.00,0.1083
1449.00,0.1005
1448.00,0.0907
1447.00,0.0806
1446.00,0.0717
1445.00,0.0643
1444.00,0.0582
1443.00,0.0532
1442.00,0.0495
1441.00,0.0472
1440.00,0.0459
1439.00,0.0457
1438.00,0.0463
1437.00,0.0470
1436.00,0.0464
1435.00,0.0439
1434.00,0.0399
1433.00,0.0351
1432.00,0.0301
1431.00,0.0257
1430.00,0.0223
1429.00,0.0199
1428.00,0.0183
1427.00,0.0173
1426.00,0.0167
1425.00,0.0161
1424.00,0.0156
1423.00,0.0152
1422.00,0.0151
1421.00,0.0149
1420.00,0.0146
1419.00,0.0144
1418.00,0.0142
1417.00,0.0139
1416.00,0.0137
1415.00,0.0136
1414.00,0.0135
1413.00,0.0134
1412.00,0.0132
1411.00,0.0131
1410.00,0.0130
1409.00,0.0130
1408.00,0.0129
1407.00,0.0129
1406.00,0.0129
1405.00,0.0129
1404.00,0.0128
1403.00,0.0129
1402.00,0.0131
1401.00,0.0133
1400.00,0.0134
1399.00,0.0136
1398.00,0.0138
1397.00,0.0139
1396.00,0.0141
1395.00,0.0145
1394.00,0.0151
1393.00,0.0156
1392.00,0.0162
1391.00,0.0171
1390.00,0.0183
1389.00,0.0199
1388.00,0.0223
1387.00,0.0260
1386.00,0.0308
1385.00,0.0371
1384.00,0.0453
1383.00,0.0567
1382.00,0.0721
1381.00,0.0923
1380.00,0.1181
1379.00,0.1488
1378.00,0.1800
1377.00,0.2052
1376.00,0.2169
1375.00,0.2098
1374.00,0.1856
1373.00,0.1539
1372.00,0.1240
1371.00,0.0989
1370.00,0.0788
1369.00,0.0635
1368.00,0.0530
1367.00,0.0465
1366.00,0.0431
1365.00,0.0417
1364.00,0.0420
1363.00,0.0436
1362.00,0.0462
1361.00,0.0490
1360.00,0.0511
1359.00,0.0518
1358.00,0.0505
1357.00,0.0475
1356.00,0.0431
1355.00,0.0382
1354.00,0.0335
1353.00,0.0294
1352.00,0.0262
1351.00,0.0236
1350.00,0.0215
1349.00,0.0199
1348.00,0.0185
1347.00,0.0175
1346.00,0.0166
1345.00,0.0159
1344.00,0.0154
1343.00,0.0149
1342.00,0.0145
1341.00,0.0142
1340.00,0.0139
1339.00,0.0137
1338.00,0.0135
1337.00,0.0135
1336.00,0.0136
1335.00,0.0139
1334.00,0.0143
1333.00,0.0148
1332.00,0.0153
1331.00,0.0157
1330.00,0.0159
1329.00,0.0157
1328.00,0.0152
1327.00,0.0146
1326.00,0.0139
1325.00,0.0132
1324.00,0.0125
1323.00,0.0119
1322.00,0.0115
1321.00,0.0111
1320.00,0.0108
1319.00,0.0106
1318.00,0.0104
1317.00,0.0102
1316.00,0.0101
1315.00,0.0099
1314.00,0.0098
1313.00,0.0097
1312.00,0.0098
1311.00,0.0100
1310.00,0.0103
1309.00,0.0108
1308.00,0.0115
1307.00,0.0122
1306.00,0.0130
1305.00,0.0135
1304.00,0.0137
1303.00,0.0137
1302.00,0.0135
1301.00,0.0134
1300.00,0.0135
1299.00,0.0138
1298.00,0.0140
1297.00,0.0141
1296.00,0.0141
1295.00,0.0139
1294.00,0.0135
1293.00,0.0130
1292.00,0.0124
1291.00,0.0119
1290.00,0.0114
1289.00,0.0109
1288.00,0.0105
1287.00,0.0102
1286.00,0.0099
1285.00,0.0097
1284.00,0.0095
1283.00,0.0094
1282.00,0.0092
1281.00,0.0091
1280.00,0.0090
1279.00,0.0089
1278.00,0.0088
1277.00,0.0088
1276.00,0.0087
1275.00,0.0086
1274.00,0.0086
1273.00,0.0086
1272.00,0.0086
1271.00,0.0087
1270.00,0.0088
1269.00,0.0089
1268.00,0.0089
1267.00,0.0090
1266.00,0.0091
1265.00,0.0092
1264.00,0.0094
1263.00,0.0096
1262.00,0.0098
1261.00,0.0102
1260.00,0.0106
1259.00,0.0111
1258.00,0.0117
1257.00,0.0121
1256.00,0.0123
1255.00,0.0122
1254.00,0.0119
1253.00,0.0114
1252.00,0.0109
1251.00,0.0104
1250.00,0.0101
1249.00,0.0099
1248.00,0.0097
1247.00,0.0096
1246.00,0.0095
1245.00,0.0094
1244.00,0.0093
1243.00,0.0092
1242.00,0.0092
1241.00,0.0091
1240.00,0.0090
1239.00,0.0090
1238.00,0.0090
1237.00,0.0090
1236.00,0.0090
1235.00,0.0089
1234.00,0.0089
1233.00,0.0088
1232.00,0.0088
1231.00,0.0089
1230.00,0.0090
1229.00,0.0091
1228.00,0.0092
1227.00,0.0093
1226.00,0.0095
1225.00,0.0097
1224.00,0.0101
1223.00,0.0105
1222.00,0.0109
1221.00,0.0113
1220.00,0.0114
1219.00,0.0115
1218.00,0.0114
1217.00,0.0112
1216.00,0.0110
1215.00,0.0106
1214.00,0.0103
1213.00,0.0101
1212.00,0.0098
1211.00,0.0096
1210.00,0.0094
1209.00,0.0091
1208.00,0.0089
1207.00,0.0087
1206.00,0.0086
1205.00,0.0085
1204.00,0.0085
1203.00,0.0085
1202.00,0.0084
1201.00,0.0084
1200.00,0.0084
1199.00,0.0084
1198.00,0.0084
1197.00,0.0084
1196.00,0.0083
1195.00,0.0082
1194.00,0.0082
1193.00,0.0081
1192.00,0.0082
1191.00,0.0082
1190.00,0.0083
1189.00,0.0084
1188.00,0.0084
1187.00,0.0085
1186.00,0.0087
1185.00,0.0088
1184.00,0.0089
1183.00,0.0090
1182.00,0.0091
1181.00,0.0092
1180.00,0.0095
1179.00,0.0099
1178.00,0.0103
1177.00,0.0109
1176.00,0.0117
1175.00,0.0127
1174.00,0.0142
1173.00,0.0161
1172.00,0.0183
1171.00,0.0207
1170.00,0.0229
1169.00,0.0248
1168.00,0.0260
1167.00,0.0264
1166.00,0.0262
1165.00,0.0255
1164.00,0.0246
1163.00,0.0237
1162.00,0.0228
1161.00,0.0220
1160.00,0.0213
1159.00,0.0208
1158.00,0.0205
1157.00,0.0203
1156.00,0.0202
1155.00,0.0201
1154.00,0.0201
1153.00,0.0200
1152.00,0.0197
1151.00,0.0192
1150.00,0.0185
1149.00,0.0176
1148.00,0.0167
1147.00,0.0158
1146.00,0.0150
1145.00,0.0142
1144.00,0.0135
1143.00,0.0129
1142.00,0.0124
1141.00,0.0119
1140.00,0.0114
1139.00,0.0110
1138.00,0.0107
1137.00,0.0104
1136.00,0.0102
1135.00,0.0101
1134.00,0.0100
1133.00,0.0100
1132.00,0.0100
1131.00,0.0101
1130.00,0.0102
1129.00,0.0103
1128.00,0.0103
1127.00,0.0104
1126.00,0.0105
1125.00,0.0106
1124.00,0.0107
1123.00,0.0108
1122.00,0.0109
1121.00,0.0109
1120.00,0.0110
1119.00,0.0111
1118.00,0.0112
1117.00,0.0113
1116.00,0.0115
1115.00,0.0117
1114.00,0.0120
1113.00,0.0122
1112.00,0.0124
1111.00,0.0126
1110.00,0.0130
1109.00,0.0135
1108.00,0.0141
1107.00,0.0148
1106.00,0.0155
1105.00,0.0162
1104.00,0.0168
1103.00,0.0171
1102.00,0.0172
1101.00,0.0170
1100.00,0.0165
1099.00,0.0158
1098.00,0.0151
1097.00,0.0143
1096.00,0.0137
1095.00,0.0131
1094.00,0.0127
1093.00,0.0124
1092.00,0.0121
1091.00,0.0119
1090.00,0.0117
1089.00,0.0114
1088.00,0.0112
1087.00,0.0111
1086.00,0.0110
1085.00,0.0109
1084.00,0.0108
1083.00,0.0108
1082.00,0.0107
1081.00,0.0107
1080.00,0.0105
1079.00,0.0104
1078.00,0.0103
1077.00,0.0102
1076.00,0.0103
1075.00,0.0104
1074.00,0.0105
1073.00,0.0105
1072.00,0.0106
1071.00,0.0106
1070.00,0.0106
1069.00,0.0106
1068.00,0.0107
1067.00,0.0107
1066.00,0.0108
1065.00,0.0108
1064.00,0.0108
1063.00,0.0108
1062.00,0.0109
1061.00,0.0110
1060.00,0.0111
1059.00,0.0111
1058.00,0.0111
1057.00,0.0111
1056.00,0.0111
1055.00,0.0112
1054.00,0.0113
1053.00,0.0114
1052.00,0.0115
1051.00,0.0116
1050.00,0.0117
1049.00,0.0118
1048.00,0.0119
1047.00,0.0120
1046.00,0.0121
1045.00,0.0121
1044.00,0.0121
1043.00,0.0120
1042.00,0.0119
1041.00,0.0119
1040.00,0.0119
1039.00,0.0120
1038.00,0.0120
1037.00,0.0121
1036.00,0.0121
1035.00,0.0121
1034.00,0.0120
1033.00,0.0118
1032.00,0.0117
1031.00,0.0117
1030.00,0.0117
1029.00,0.0117
1028.00,0.0117
1027.00,0.0116
1026.00,0.0116
1025.00,0.0115
1024.00,0.0114
1023.00,0.0113
1022.00,0.0112
1021.00,0.0111
1020.00,0.0111
1019.00,0.0111
1018.00,0.0111
1017.00,0.0113
1016.00,0.0114
1015.00,0.0116
1014.00,0.0118
1013.00,0.0120
1012.00,0.0122
1011.00,0.0125
1010.00,0.0128
1009.00,0.0130
1008.00,0.0134
1007.00,0.0138
1006.00,0.0144
1005.00,0.0152
1004.00,0.0163
1003.00,0.0177
1002.00,0.0197
1001.00,0.0220
1000.00,0.0243
999.00,0.0262
998.00,0.0271
997.00,0.0265
996.00,0.0247
995.00,0.0222
994.00,0.0196
993.00,0.0173
992.00,0.0155
991.00,0.0143
990.00,0.0134
989.00,0.0127
988.00,0.0123
987.00,0.0121
986.00,0.0121
985.00,0.0124
984.00,0.0128
983.00,0.0135
982.00,0.0145
981.00,0.0158
980.00,0.0175
979.00,0.0198
978.00,0.0226
977.00,0.0258
976.00,0.0292
975.00,0.0321
974.00,0.0340
973.00,0.0342
972.00,0.0327
971.00,0.0298
970.00,0.0261
969.00,0.0225
968.00,0.0195
967.00,0.0171
966.00,0.0153
965.00,0.0140
964.00,0.0130
963.00,0.0121
962.00,0.0114
961.00,0.0109
960.00,0.0105
959.00,0.0102
958.00,0.0098
957.00,0.0094
956.00,0.0092
955.00,0.0090
954.00,0.0090
953.00,0.0090
952.00,0.0089
951.00,0.0088
950.00,0.0088
949.00,0.0088
948.00,0.0088
947.00,0.0090
946.00,0.0093
945.00,0.0096
944.00,0.0100
943.00,0.0104
942.00,0.0107
941.00,0.0108
940.00,0.0107
939.00,0.0103
938.00,0.0099
937.00,0.0094
936.00,0.0089
935.00,0.0085
934.00,0.0081
933.00,0.0078
932.00,0.0077
931.00,0.0076
930.00,0.0075
929.00,0.0075
928.00,0.0075
927.00,0.0074
926.00,0.0073
925.00,0.0072
924.00,0.0072
923.00,0.0073
922.00,0.0075
921.00,0.0077
920.00,0.0078
919.00,0.0078
918.00,0.0078
917.00,0.0078
916.00,0.0078
915.00,0.0078
914.00,0.0079
913.00,0.0080
912.00,0.0082
911.00,0.0083
910.00,0.0086
909.00,0.0088
908.00,0.0091
907.00,0.0096
906.00,0.0103
905.00,0.0115
904.00,0.0132
903.00,0.0153
902.00,0.0177
901.00,0.0198
900.00,0.0213
899.00,0.0217
898.00,0.0209
897.00,0.0191
896.00,0.0169
895.00,0.0147
894.00,0.0127
893.00,0.0113
892.00,0.0102
891.00,0.0096
890.00,0.0092
889.00,0.0090
888.00,0.0087
887.00,0.0084
886.00,0.0080
885.00,0.0078
884.00,0.0077
883.00,0.0078
882.00,0.0079
881.00,0.0080
880.00,0.0080
879.00,0.0080
878.00,0.0080
877.00,0.0081
876.00,0.0082
875.00,0.0084
874.00,0.0084
873.00,0.0084
872.00,0.0084
871.00,0.0083
870.00,0.0082
869.00,0.0080
868.00,0.0079
867.00,0.0079
866.00,0.0080
865.00,0.0081
864.00,0.0082
863.00,0.0083
862.00,0.0083
861.00,0.0084
860.00,0.0086
859.00,0.0088
858.00,0.0091
857.00,0.0092
856.00,0.0093
855.00,0.0093
854.00,0.0094
853.00,0.0095
852.00,0.0097
851.00,0.0101
850.00,0.0106
849.00,0.0112
848.00,0.0118
847.00,0.0127
846.00,0.0141
845.00,0.0161
844.00,0.0187
843.00,0.0214
842.00,0.0233
841.00,0.0235
840.00,0.0220
839.00,0.0194
838.00,0.0167
837.00,0.0146
836.00,0.0132
835.00,0.0124
834.00,0.0120
833.00,0.0116
832.00,0.0113
831.00,0.0110
830.00,0.0108
829.00,0.0107
828.00,0.0105
827.00,0.0104
826.00,0.0103
825.00,0.0104
824.00,0.0105
823.00,0.0105
822.00,0.0106
821.00,0.0107
820.00,0.0109
819.00,0.0113
818.00,0.0119
817.00,0.0126
816.00,0.0137
815.00,0.0150
814.00,0.0166
813.00,0.0184
812.00,0.0202
811.00,0.0219
810.00,0.0231
809.00,0.0237
808.00,0.0235
807.00,0.0225
806.00,0.0209
805.00,0.0191
804.00,0.0174
803.00,0.0158
802.00,0.0145
801.00,0.0135
800.00,0.0126
799.00,0.0120
798.00,0.0115
797.00,0.0111
796.00,0.0107
795.00,0.0104
794.00,0.0100
793.00,0.0097
792.00,0.0096
791.00,0.0094
790.00,0.0092
789.00,0.0090
788.00,0.0087
787.00,0.0084
786.00,0.0081
785.00,0.0079
784.00,0.0077
783.00,0.0076
782.00,0.0075
781.00,0.0073
780.00,0.0072
779.00,0.0071
778.00,0.0070
777.00,0.0070
776.00,0.0071
775.00,0.0072
774.00,0.0073
773.00,0.0074
772.00,0.0075
771.00,0.0076
770.00,0.0077
769.00,0.0078
768.00,0.0079
767.00,0.0080
766.00,0.0080
765.00,0.0079
764.00,0.0077
763.00,0.0074
762.00,0.0072
761.00,0.0069
760.00,0.0067
759.00,0.0066
758.00,0.0065
757.00,0.0064
756.00,0.0065
755.00,0.0066
754.00,0.0068
753.00,0.0069
752.00,0.0068
751.00,0.0068
750.00,0.0069
749.00,0.0070
748.00,0.0071
747.00,0.0071
746.00,0.0070
745.00,0.0069
744.00,0.0070
743.00,0.0072
742.00,0.0074
741.00,0.0075
740.00,0.0076
739.00,0.0078
738.00,0.0081
737.00,0.0086
736.00,0.0091
735.00,0.0094
734.00,0.0097
733.00,0.0097
732.00,0.0096
731.00,0.0094
730.00,0.0092
729.00,0.0090
728.00,0.0089
727.00,0.0088
726.00,0.0086
725.00,0.0084
724.00,0.0082
723.00,0.0082
722.00,0.0083
721.00,0.0083
720.00,0.0081
719.00,0.0079
718.00,0.0076
717.00,0.0074
716.00,0.0073
715.00,0.0073
714.00,0.0073
713.00,0.0075
712.00,0.0076
711.00,0.0077
710.00,0.0077
709.00,0.0076
708.00,0.0075
707.00,0.0074
706.00,0.0074
705.00,0.0074
704.00,0.0074
703.00,0.0073
702.00,0.0072
701.00,0.0070
700.00,0.0069
699.00,0.0068
698.00,0.0068
697.00,0.0069
696.00,0.0069
695.00,0.0070
694.00,0.0071
693.00,0.0071
692.00,0.0070
691.00,0.0068
690.00,0.0067
689.00,0.0067
688.00,0.0067
687.00,0.0066
686.00,0.0066
685.00,0.0068
684.00,0.0070
683.00,0.0072
682.00,0.0072
681.00,0.0071
680.00,0.0070
679.00,0.0069
678.00,0.0068
677.00,0.0068
676.00,0.0068
675.00,0.0068
674.00,0.0069
673.00,0.0069
672.00,0.0070
671.00,0.0071
670.00,0.0072
669.00,0.0071
668.00,0.0069
667.00,0.0067
666.00,0.0068
665.00,0.0071
664.00,0.0073
663.00,0.0075
662.00,0.0075
661.00,0.0073
660.00,0.0071
659.00,0.0070
658.00,0.0068
657.00,0.0068
656.00,0.0069
655.00,0.0069
654.00,0.0069
653.00,0.0068
652.00,0.0066
651.00,0.0066
650.00,0.0067
649.00,0.0070
648.00,0.0072
647.00,0.0074
646.00,0.0075
645.00,0.0076
644.00,0.0077
643.00,0.0078
642.00,0.0077
641.00,0.0076
640.00,0.0074
639.00,0.0073
638.00,0.0071
637.00,0.0069
636.00,0.0068
635.00,0.0068
634.00,0.0071
633.00,0.0074
632.00,0.0077
631.00,0.0078
630.00,0.0078
629.00,0.0077
628.00,0.0077
627.00,0.0076
626.00,0.0076
625.00,0.0077
624.00,0.0079
623.00,0.0080
622.00,0.0080
621.00,0.0079
620.00,0.0080
619.00,0.0082
618.00,0.0084
617.00,0.0085
616.00,0.0083
615.00,0.0079
614.00,0.0076
613.00,0.0074
612.00,0.0075
611.00,0.0077
610.00,0.0079
609.00,0.0079
608.00,0.0078
607.00,0.0076
606.00,0.0075
605.00,0.0076
604.00,0.0077
603.00,0.0076
602.00,0.0073
601.00,0.0068
600.00,0.0065
599.00,0.0065
598.00,0.0068
597.00,0.0072
596.00,0.0076
595.00,0.0080
594.00,0.0082
593.00,0.0083
592.00,0.0082
591.00,0.0082
590.00,0.0082
589.00,0.0082
588.00,0.0083
587.00,0.0083
586.00,0.0083
585.00,0.0082
584.00,0.0082
583.00,0.0083
582.00,0.0086
581.00,0.0090
580.00,0.0092
579.00,0.0092
578.00,0.0088
577.00,0.0084
576.00,0.0080
575.00,0.0079
574.00,0.0079
573.00,0.0079
572.00,0.0077
571.00,0.0075
570.00,0.0073
569.00,0.0073
568.00,0.0074
567.00,0.0074
566.00,0.0074
565.00,0.0075
564.00,0.0076
563.00,0.0077
562.00,0.0078
561.00,0.0078
560.00,0.0079
559.00,0.0080
558.00,0.0080
557.00,0.0078
556.00,0.0078
555.00,0.0079
554.00,0.0081
553.00,0.0082
552.00,0.0083
551.00,0.0084
550.00,0.0085
549.00,0.0086
548.00,0.0087
547.00,0.0087
546.00,0.0089
545.00,0.0091
544.00,0.0093
543.00,0.0093
542.00,0.0092
541.00,0.0092
540.00,0.0093
539.00,0.0095
538.00,0.0098
537.00,0.0100
536.00,0.0102
535.00,0.0102
534.00,0.0103
533.00,0.0102
532.00,0.0101
531.00,0.0100
530.00,0.0101
529.00,0.0101
528.00,0.0102
527.00,0.0103
526.00,0.0105
525.00,0.0110
524.00,0.0113
523.00,0.0112
522.00,0.0107
521.00,0.0101
520.00,0.0096
519.00,0.0093
518.00,0.0091
517.00,0.0091
516.00,0.0091
515.00,0.0093
514.00,0.0094
513.00,0.0097
512.00,0.0101
511.00,0.0103
510.00,0.0103
509.00,0.0098
508.00,0.0092
507.00,0.0087
506.00,0.0084
505.00,0.0085
504.00,0.0087
503.00,0.0086
502.00,0.0079
501.00,0.0073
500.00,0.0073
499.00,0.0081
498.00,0.0090
497.00,0.0095
496.00,0.0097
495.00,0.0097
494.00,0.0096
493.00,0.0095
492.00,0.0094
491.00,0.0093
490.00,0.0090
489.00,0.0085
488.00,0.0081
487.00,0.0080
486.00,0.0079
485.00,0.0075
484.00,0.0072
483.00,0.0076
482.00,0.0083
481.00,0.0086
480.00,0.0083
479.00,0.0077
478.00,0.0076
477.00,0.0079
476.00,0.0083
475.00,0.0085
474.00,0.0085
473.00,0.0085
472.00,0.0087
471.00,0.0093
470.00,0.0103
469.00,0.0114
468.00,0.0123
467.00,0.0127
466.00,0.0127
465.00,0.0131
464.00,0.0145
463.00,0.0165
462.00,0.0182
461.00,0.0186
460.00,0.0180
459.00,0.0167
458.00,0.0154
457.00,0.0143
456.00,0.0136
455.00,0.0125
454.00,0.0115
453.00,0.0107
452.00,0.0105
451.00,0.0108
450.00,0.0112
