Created as New Dataset,Sample 014 By Administrator Date Wednesday, September 10 2025
cm-1,A
4000.00,0.0009
3999.00,0.0008
3998.00,0.0008
3997.00,0.0008
3996.00,0.0008
3995.00,0.0008
3994.00,0.0008
3993.00,0.0008
3992.00,0.0008
3991.00,0.0008
3990.00,0.0008
3989.00,0.0008
3988.00,0.0008
3987.00,0.0008
3986.00,0.0008
3985.00,0.0008
3984.00,0.0008
3983.00,0.0007
3982.00,0.0007
3981.00,0.0007
3980.00,0.0006
3979.00,0.0007
3978.00,0.0007
3977.00,0.0007
3976.00,0.0007
3975.00,0.0007
3974.00,0.0007
3973.00,0.0007
3972.00,0.0007
3971.00,0.0007
3970.00,0.0007
3969.00,0.0007
3968.00,0.0007
3967.00,0.0007
3966.00,0.0007
3965.00,0.0007
3964.00,0.0007
3963.00,0.0007
3962.00,0.0007
3961.00,0.0007
3960.00,0.0007
3959.00,0.0007
3958.00,0.0006
3957.00,0.0006
3956.00,0.0006
3955.00,0.0006
3954.00,0.0006
3953.00,0.0006
3952.00,0.0006
3951.00,0.0007
3950.00,0.0007
3949.00,0.0007
3948.00,0.0007
3947.00,0.0007
3946.00,0.0006
3945.00,0.0006
3944.00,0.0006
3943.00,0.0006
3942.00,0.0007
3941.00,0.0007
3940.00,0.0007
3939.00,0.0007
3938.00,0.0007
3937.00,0.0007
3936.00,0.0007
3935.00,0.0007
3934.00,0.0007
3933.00,0.0007
3932.00,0.0007
3931.00,0.0007
3930.00,0.0007
3929.00,0.0007
3928.00,0.0007
3927.00,0.0007
3926.00,0.0007
3925.00,0.0007
3924.00,0.0007
3923.00,0.0007
3922.00,0.0007
3921.00,0.0007
3920.00,0.0008
3919.00,0.0008
3918.00,0.0008
3917.00,0.0007
3916.00,0.0007
3915.00,0.0007
3914.00,0.0007
3913.00,0.0007
3912.00,0.0007
3911.00,0.0007
3910.00,0.0007
3909.00,0.0007
3908.00,0.0007
3907.00,0.0007
3906.00,0.0007
3905.00,0.0008
3904.00,0.0008
3903.00,0.0009
3902.00,0.0010
3901.00,0.0010
3900.00,0.0010
3899.00,0.0009
3898.00,0.0008
3897.00,0.0008
3896.00,0.0007
3895.00,0.0007
3894.00,0.0007
3893.00,0.0007
3892.00,0.0007
3891.00,0.0007
3890.00,0.0007
3889.00,0.0007
3888.00,0.0007
3887.00,0.0007
3886.00,0.0007
3885.00,0.0007
3884.00,0.0007
3883.00,0.0007
3882.00,0.0008
3881.00,0.0008
3880.00,0.0008
3879.00,0.0008
3878.00,0.0007
3877.00,0.0007
3876.00,0.0006
3875.00,0.0006
3874.00,0.0006
3873.00,0.0007
3872.00,0.0007
3871.00,0.0007
3870.00,0.0007
3869.00,0.0007
3868.00,0.0008
3867.00,0.0008
3866.00,0.0008
3865.00,0.0008
3864.00,0.0007
3863.00,0.0007
3862.00,0.0007
3861.00,0.0007
3860.00,0.0007
3859.00,0.0006
3858.00,0.0006
3857.00,0.0007
3856.00,0.0007
3855.00,0.0008
3854.00,0.0009
3853.00,0.0009
3852.00,0.0009
3851.00,0.0008
3850.00,0.0008
3849.00,0.0007
3848.00,0.0007
3847.00,0.0006
3846.00,0.0006
3845.00,0.0006
3844.00,0.0006
3843.00,0.0006
3842.00,0.0007
3841.00,0.0007
3840.00,0.0007
3839.00,0.0008
3838.00,0.0008
3837.00,0.0008
3836.00,0.0008
3835.00,0.0008
3834.00,0.0008
3833.00,0.0008
3832.00,0.0007
3831.00,0.0007
3830.00,0.0007
3829.00,0.0007
3828.00,0.0006
3827.00,0.0006
3826.00,0.0006
3825.00,0.0006
3824.00,0.0006
3823.00,0.0007
3822.00,0.0007
3821.00,0.0007
3820.00,0.0007
3819.00,0.0007
3818.00,0.0007
3817.00,0.0007
3816.00,0.0007
3815.00,0.0007
3814.00,0.0007
3813.00,0.0007
3812.00,0.0006
3811.00,0.0006
3810.00,0.0006
3809.00,0.0006
3808.00,0.0006
3807.00,0.0006
3806.00,0.0006
3805.00,0.0006
3804.00,0.0007
3803.00,0.0007
3802.00,0.0007
3801.00,0.0007
3800.00,0.0007
3799.00,0.0007
3798.00,0.0007
3797.00,0.0007
3796.00,0.0007
3795.00,0.0007
3794.00,0.0007
3793.00,0.0006
3792.00,0.0006
3791.00,0.0006
3790.00,0.0006
3789.00,0.0006
3788.00,0.0005
3787.00,0.0005
3786.00,0.0006
3785.00,0.0006
3784.00,0.0006
3783.00,0.0006
3782.00,0.0006
3781.00,0.0006
3780.00,0.0006
3779.00,0.0006
3778.00,0.0006
3777.00,0.0006
3776.00,0.0005
3775.00,0.0006
3774.00,0.0006
3773.00,0.0007
3772.00,0.0007
3771.00,0.0008
3770.00,0.0007
3769.00,0.0007
3768.00,0.0007
3767.00,0.0008
3766.00,0.0008
3765.00,0.0008
3764.00,0.0008
3763.00,0.0008
3762.00,0.0007
3761.00,0.0007
3760.00,0.0007
3759.00,0.0007
3758.00,0.0008
3757.00,0.0008
3756.00,0.0008
3755.00,0.0008
3754.00,0.0008
3753.00,0.0008
3752.00,0.0008
3751.00,0.0008
3750.00,0.0009
3749.00,0.0009
3748.00,0.0009
3747.00,0.0009
3746.00,0.0009
3745.00,0.0009
3744.00,0.0008
3743.00,0.0008
3742.00,0.0008
3741.00,0.0008
3740.00,0.0007
3739.00,0.0007
3738.00,0.0007
3737.00,0.0007
3736.00,0.0007
3735.00,0.0007
3734.00,0.0007
3733.00,0.0007
3732.00,0.0007
3731.00,0.0007
3730.00,0.0007
3729.00,0.0007
3728.00,0.0006
3727.00,0.0006
3726.00,0.0006
3725.00,0.0006
3724.00,0.0006
3723.00,0.0006
3722.00,0.0006
3721.00,0.0006
3720.00,0.0006
3719.00,0.0006
3718.00,0.0006
3717.00,0.0006
3716.00,0.0006
3715.00,0.0005
3714.00,0.0005
3713.00,0.0005
3712.00,0.0005
3711.00,0.0005
3710.00,0.0005
3709.00,0.0005
3708.00,0.0005
3707.00,0.0004
3706.00,0.0004
3705.00,0.0003
3704.00,0.0003
3703.00,0.0004
3702.00,0.0004
3701.00,0.0004
3700.00,0.0005
3699.00,0.0005
3698.00,0.0004
3697.00,0.0004
3696.00,0.0004
3695.00,0.0004
3694.00,0.0004
3693.00,0.0003
3692.00,0.0003
3691.00,0.0003
3690.00,0.0003
3689.00,0.0003
3688.00,0.0004
3687.00,0.0004
3686.00,0.0004
3685.00,0.0004
3684.00,0.0004
3683.00,0.0004
3682.00,0.0004
3681.00,0.0005
3680.00,0.0005
3679.00,0.0006
3678.00,0.0006
3677.00,0.0006
3676.00,0.0006
3675.00,0.0006
3674.00,0.0007
3673.00,0.0007
3672.00,0.0008
3671.00,0.0008
3670.00,0.0007
3669.00,0.0007
3668.00,0.0007
3667.00,0.0006
3666.00,0.0006
3665.00,0.0006
3664.00,0.0005
3663.00,0.0005
3662.00,0.0005
3661.00,0.0005
3660.00,0.0004
3659.00,0.0004
3658.00,0.0004
3657.00,0.0004
3656.00,0.0005
3655.00,0.0005
3654.00,0.0005
3653.00,0.0005
3652.00,0.0006
3651.00,0.0006
3650.00,0.0006
3649.00,0.0006
3648.00,0.0006
3647.00,0.0006
3646.00,0.0006
3645.00,0.0005
3644.00,0.0005
3643.00,0.0005
3642.00,0.0004
3641.00,0.0004
3640.00,0.0003
3639.00,0.0003
3638.00,0.0004
3637.00,0.0004
3636.00,0.0004
3635.00,0.0005
3634.00,0.0005
3633.00,0.0005
3632.00,0.0005
3631.00,0.0006
3630.00,0.0006
3629.00,0.0006
3628.00,0.0006
3627.00,0.0006
3626.00,0.0006
3625.00,0.0006
3624.00,0.0005
3623.00,0.0005
3622.00,0.0005
3621.00,0.0005
3620.00,0.0005
3619.00,0.0005
3618.00,0.0005
3617.00,0.0006
3616.00,0.0006
3615.00,0.0007
3614.00,0.0007
3613.00,0.0008
3612.00,0.0009
3611.00,0.0009
3610.00,0.0009
3609.00,0.0009
3608.00,0.0008
3607.00,0.0007
3606.00,0.0006
3605.00,0.0006
3604.00,0.0006
3603.00,0.0006
3602.00,0.0007
3601.00,0.0007
3600.00,0.0007
3599.00,0.0007
3598.00,0.0007
3597.00,0.0007
3596.00,0.0007
3595.00,0.0007
3594.00,0.0007
3593.00,0.0007
3592.00,0.0007
3591.00,0.0007
3590.00,0.0008
3589.00,0.0009
3588.00,0.0010
3587.00,0.0010
3586.00,0.0010
3585.00,0.0010
3584.00,0.0009
3583.00,0.0009
3582.00,0.0009
3581.00,0.0008
3580.00,0.0008
3579.00,0.0009
3578.00,0.0009
3577.00,0.0010
3576.00,0.0010
3575.00,0.0010
3574.00,0.0010
3573.00,0.0010
3572.00,0.0010
3571.00,0.0010
3570.00,0.0011
3569.00,0.0011
3568.00,0.0011
3567.00,0.0011
3566.00,0.0011
3565.00,0.0011
3564.00,0.0011
3563.00,0.0011
3562.00,0.0011
3561.00,0.0011
3560.00,0.0011
3559.00,0.0012
3558.00,0.0012
3557.00,0.0012
3556.00,0.0013
3555.00,0.0013
3554.00,0.0013
3553.00,0.0013
3552.00,0.0013
3551.00,0.0013
3550.00,0.0013
3549.00,0.0013
3548.00,0.0014
3547.00,0.0014
3546.00,0.0015
3545.00,0.0015
3544.00,0.0015
3543.00,0.0015
3542.00,0.0014
3541.00,0.0014
3540.00,0.0014
3539.00,0.0014
3538.00,0.0015
3537.00,0.0016
3536.00,0.0016
3535.00,0.0016
3534.00,0.0016
3533.00,0.0016
3532.00,0.0016
3531.00,0.0017
3530.00,0.0017
3529.00,0.0017
3528.00,0.0017
3527.00,0.0017
3526.00,0.0017
3525.00,0.0018
3524.00,0.0019
3523.00,0.0019
3522.00,0.0019
3521.00,0.0019
3520.00,0.0019
3519.00,0.0019
3518.00,0.0019
3517.00,0.0019
3516.00,0.0019
3515.00,0.0020
3514.00,0.0020
3513.00,0.0020
3512.00,0.0020
3511.00,0.0021
3510.00,0.0021
3509.00,0.0021
3508.00,0.0021
3507.00,0.0021
3506.00,0.0021
3505.00,0.0021
3504.00,0.0022
3503.00,0.0022
3502.00,0.0022
3501.00,0.0023
3500.00,0.0023
3499.00,0.0023
3498.00,0.0022
3497.00,0.0022
3496.00,0.0022
3495.00,0.0022
3494.00,0.0023
3493.00,0.0023
3492.00,0.0024
3491.00,0.0024
3490.00,0.0024
3489.00,0.0024
3488.00,0.0024
3487.00,0.0024
3486.00,0.0024
3485.00,0.0024
3484.00,0.0024
3483.00,0.0024
3482.00,0.0025
3481.00,0.0025
3480.00,0.0025
3479.00,0.0026
3478.00,0.0026
3477.00,0.0026
3476.00,0.0027
3475.00,0.0027
3474.00,0.0028
3473.00,0.0028
3472.00,0.0027
3471.00,0.0027
3470.00,0.0027
3469.00,0.0027
3468.00,0.0027
3467.00,0.0027
3466.00,0.0027
3465.00,0.0028
3464.00,0.0029
3463.00,0.0029
3462.00,0.0030
3461.00,0.0029
3460.00,0.0029
3459.00,0.0029
3458.00,0.0030
3457.00,0.0030
3456.00,0.0030
3455.00,0.0030
3454.00,0.0030
3453.00,0.0030
3452.00,0.0030
3451.00,0.0030
3450.00,0.0030
3449.00,0.0030
3448.00,0.0030
3447.00,0.0030
3446.00,0.0031
3445.00,0.0031
3444.00,0.0031
3443.00,0.0032
3442.00,0.0032
3441.00,0.0032
3440.00,0.0032
3439.00,0.0032
3438.00,0.0032
3437.00,0.0033
3436.00,0.0033
3435.00,0.0033
3434.00,0.0033
3433.00,0.0033
3432.00,0.0033
3431.00,0.0034
3430.00,0.0034
3429.00,0.0035
3428.00,0.0035
3427.00,0.0035
3426.00,0.0036
3425.00,0.0036
3424.00,0.0036
3423.00,0.0036
3422.00,0.0036
3421.00,0.0036
3420.00,0.0037
3419.00,0.0037
3418.00,0.0038
3417.00,0.0038
3416.00,0.0037
3415.00,0.0037
3414.00,0.0037
3413.00,0.0037
3412.00,0.0038
3411.00,0.0038
3410.00,0.0038
3409.00,0.0039
3408.00,0.0039
3407.00,0.0039
3406.00,0.0039
3405.00,0.0040
3404.00,0.0041
3403.00,0.0041
3402.00,0.0041
3401.00,0.0041
3400.00,0.0041
3399.00,0.0041
3398.00,0.0041
3397.00,0.0042
3396.00,0.0042
3395.00,0.0042
3394.00,0.0043
3393.00,0.0042
3392.00,0.0042
3391.00,0.0042
3390.00,0.0042
3389.00,0.0042
3388.00,0.0041
3387.00,0.0041
3386.00,0.0041
3385.00,0.0040
3384.00,0.0040
3383.00,0.0040
3382.00,0.0039
3381.00,0.0039
3380.00,0.0039
3379.00,0.0040
3378.00,0.0040
3377.00,0.0040
3376.00,0.0040
3375.00,0.0040
3374.00,0.0040
3373.00,0.0040
3372.00,0.0040
3371.00,0.0040
3370.00,0.0040
3369.00,0.0039
3368.00,0.0039
3367.00,0.0039
3366.00,0.0039
3365.00,0.0040
3364.00,0.0040
3363.00,0.0040
3362.00,0.0039
3361.00,0.0039
3360.00,0.0039
3359.00,0.0039
3358.00,0.0039
3357.00,0.0039
3356.00,0.0040
3355.00,0.0040
3354.00,0.0040
3353.00,0.0040
3352.00,0.0040
3351.00,0.0040
3350.00,0.0040
3349.00,0.0040
3348.00,0.0040
3347.00,0.0041
3346.00,0.0041
3345.00,0.0041
3344.00,0.0040
3343.00,0.0040
3342.00,0.0040
3341.00,0.0040
3340.00,0.0040
3339.00,0.0039
3338.00,0.0039
3337.00,0.0039
3336.00,0.0038
3335.00,0.0038
3334.00,0.0038
3333.00,0.0038
3332.00,0.0038
3331.00,0.0038
3330.00,0.0038
3329.00,0.0038
3328.00,0.0038
3327.00,0.0038
3326.00,0.0037
3325.00,0.0037
3324.00,0.0037
3323.00,0.0037
3322.00,0.0037
3321.00,0.0037
3320.00,0.0038
3319.00,0.0038
3318.00,0.0038
3317.00,0.0039
3316.00,0.0039
3315.00,0.0039
3314.00,0.0039
3313.00,0.0038
3312.00,0.0038
3311.00,0.0037
3310.00,0.0037
3309.00,0.0037
3308.00,0.0037
3307.00,0.0037
3306.00,0.0037
3305.00,0.0037
3304.00,0.0037
3303.00,0.0037
3302.00,0.0037
3301.00,0.0037
3300.00,0.0037
3299.00,0.0037
3298.00,0.0037
3297.00,0.0037
3296.00,0.0036
3295.00,0.0036
3294.00,0.0036
3293.00,0.0036
3292.00,0.0036
3291.00,0.0036
3290.00,0.0036
3289.00,0.0036
3288.00,0.0036
3287.00,0.0036
3286.00,0.0036
3285.00,0.0036
3284.00,0.0035
3283.00,0.0035
3282.00,0.0035
3281.00,0.0035
3280.00,0.0035
3279.00,0.0035
3278.00,0.0035
3277.00,0.0035
3276.00,0.0035
3275.00,0.0035
3274.00,0.0035
3273.00,0.0035
3272.00,0.0035
3271.00,0.0035
3270.00,0.0035
3269.00,0.0035
3268.00,0.0035
3267.00,0.0034
3266.00,0.0034
3265.00,0.0033
3264.00,0.0033
3263.00,0.0033
3262.00,0.0033
3261.00,0.0033
3260.00,0.0033
3259.00,0.0033
3258.00,0.0033
3257.00,0.0033
3256.00,0.0033
3255.00,0.0033
3254.00,0.0032
3253.00,0.0032
3252.00,0.0032
3251.00,0.0032
3250.00,0.0032
3249.00,0.0032
3248.00,0.0032
3247.00,0.0032
3246.00,0.0032
3245.00,0.0032
3244.00,0.0032
3243.00,0.0032
3242.00,0.0032
3241.00,0.0032
3240.00,0.0031
3239.00,0.0031
3238.00,0.0031
3237.00,0.0031
3236.00,0.0031
3235.00,0.0031
3234.00,0.0031
3233.00,0.0031
3232.00,0.0032
3231.00,0.0032
3230.00,0.0032
3229.00,0.0033
3228.00,0.0033
3227.00,0.0034
3226.00,0.0034
3225.00,0.0034
3224.00,0.0035
3223.00,0.0035
3222.00,0.0035
3221.00,0.0035
3220.00,0.0036
3219.00,0.0036
3218.00,0.0036
3217.00,0.0036
3216.00,0.0036
3215.00,0.0037
3214.00,0.0037
3213.00,0.0037
3212.00,0.0037
3211.00,0.0038
3210.00,0.0038
3209.00,0.0038
3208.00,0.0038
3207.00,0.0039
3206.00,0.0039
3205.00,0.0039
3204.00,0.0039
3203.00,0.0040
3202.00,0.0040
3201.00,0.0039
3200.00,0.0039
3199.00,0.0039
3198.00,0.0039
3197.00,0.0039
3196.00,0.0039
3195.00,0.0039
3194.00,0.0040
3193.00,0.0040
3192.00,0.0040
3191.00,0.0039
3190.00,0.0039
3189.00,0.0039
3188.00,0.0039
3187.00,0.0039
3186.00,0.0039
3185.00,0.0039
3184.00,0.0038
3183.00,0.0038
3182.00,0.0037
3181.00,0.0037
3180.00,0.0038
3179.00,0.0038
3178.00,0.0038
3177.00,0.0038
3176.00,0.0038
3175.00,0.0038
3174.00,0.0037
3173.00,0.0037
3172.00,0.0036
3171.00,0.0036
3170.00,0.0035
3169.00,0.0035
3168.00,0.0035
3167.00,0.0035
3166.00,0.0035
3165.00,0.0034
3164.00,0.0034
3163.00,0.0034
3162.00,0.0033
3161.00,0.0033
3160.00,0.0033
3159.00,0.0033
3158.00,0.0032
3157.00,0.0032
3156.00,0.0031
3155.00,0.0031
3154.00,0.0031
3153.00,0.0032
3152.00,0.0033
3151.00,0.0033
3150.00,0.0034
3149.00,0.0034
3148.00,0.0034
3147.00,0.0033
3146.00,0.0033
3145.00,0.0033
3144.00,0.0033
3143.00,0.0033
3142.00,0.0033
3141.00,0.0033
3140.00,0.0032
3139.00,0.0033
3138.00,0.0033
3137.00,0.0033
3136.00,0.0033
3135.00,0.0032
3134.00,0.0032
3133.00,0.0031
3132.00,0.0031
3131.00,0.0030
3130.00,0.0029
3129.00,0.0029
3128.00,0.0029
3127.00,0.0029
3126.00,0.0029
3125.00,0.0028
3124.00,0.0028
3123.00,0.0028
3122.00,0.0027
3121.00,0.0027
3120.00,0.0027
3119.00,0.0027
3118.00,0.0027
3117.00,0.0027
3116.00,0.0027
3115.00,0.0027
3114.00,0.0027
3113.00,0.0027
3112.00,0.0027
3111.00,0.0027
3110.00,0.0027
3109.00,0.0026
3108.00,0.0026
3107.00,0.0026
3106.00,0.0026
3105.00,0.0026
3104.00,0.0026
3103.00,0.0026
3102.00,0.0025
3101.00,0.0025
3100.00,0.0025
3099.00,0.0025
3098.00,0.0024
3097.00,0.0024
3096.00,0.0025
3095.00,0.0025
3094.00,0.0025
3093.00,0.0025
3092.00,0.0025
3091.00,0.0026
3090.00,0.0026
3089.00,0.0025
3088.00,0.0025
3087.00,0.0025
3086.00,0.0025
3085.00,0.0024
3084.00,0.0024
3083.00,0.0024
3082.00,0.0024
3081.00,0.0024
3080.00,0.0024
3079.00,0.0024
3078.00,0.0024
3077.00,0.0024
3076.00,0.0024
3075.00,0.0025
3074.00,0.0025
3073.00,0.0025
3072.00,0.0025
3071.00,0.0025
3070.00,0.0025
3069.00,0.0025
3068.00,0.0025
3067.00,0.0026
3066.00,0.0026
3065.00,0.0027
3064.00,0.0027
3063.00,0.0027
3062.00,0.0027
3061.00,0.0027
3060.00,0.0027
3059.00,0.0027
3058.00,0.0027
3057.00,0.0027
3056.00,0.0027
3055.00,0.0027
3054.00,0.0027
3053.00,0.0028
3052.00,0.0028
3051.00,0.0029
3050.00,0.0029
3049.00,0.0029
3048.00,0.0029
3047.00,0.0029
3046.00,0.0029
3045.00,0.0030
3044.00,0.0030
3043.00,0.0030
3042.00,0.0030
3041.00,0.0030
3040.00,0.0030
3039.00,0.0030
3038.00,0.0031
3037.00,0.0031
3036.00,0.0032
3035.00,0.0032
3034.00,0.0032
3033.00,0.0033
3032.00,0.0033
3031.00,0.0033
3030.00,0.0034
3029.00,0.0034
3028.00,0.0035
3027.00,0.0036
3026.00,0.0036
3025.00,0.0037
3024.00,0.0038
3023.00,0.0039
3022.00,0.0039
3021.00,0.0040
3020.00,0.0042
3019.00,0.0043
3018.00,0.0044
3017.00,0.0045
3016.00,0.0046
3015.00,0.0047
3014.00,0.0048
3013.00,0.0049
3012.00,0.0050
3011.00,0.0052
3010.00,0.0053
3009.00,0.0055
3008.00,0.0057
3007.00,0.0058
3006.00,0.0060
3005.00,0.0062
3004.00,0.0064
3003.00,0.0067
3002.00,0.0069
3001.00,0.0072
3000.00,0.0075
2999.00,0.0078
2998.00,0.0082
2997.00,0.0086
2996.00,0.0090
2995.00,0.0094
2994.00,0.0099
2993.00,0.0104
2992.00,0.0110
2991.00,0.0116
2990.00,0.0124
2989.00,0.0132
2988.00,0.0141
2987.00,0.0151
2986.00,0.0162
2985.00,0.0174
2984.00,0.0188
2983.00,0.0204
2982.00,0.0221
2981.00,0.0241
2980.00,0.0263
2979.00,0.0287
2978.00,0.0316
2977.00,0.0348
2976.00,0.0385
2975.00,0.0427
2974.00,0.0475
2973.00,0.0530
2972.00,0.0592
2971.00,0.0663
2970.00,0.0741
2969.00,0.0829
2968.00,0.0925
2967.00,0.1031
2966.00,0.1145
2965.00,0.1266
2964.00,0.1391
2963.00,0.1514
2962.00,0.1631
2961.00,0.1734
2960.00,0.1819
2959.00,0.1883
2958.00,0.1927
2957.00,0.1955
2956.00,0.1974
2955.00,0.1991
2954.00,0.2011
2953.00,0.2032
2952.00,0.2049
2951.00,0.2056
2950.00,0.2042
2949.00,0.2000
2948.00,0.1925
2947.00,0.1819
2946.00,0.1691
2945.00,0.1553
2944.00,0.1419
2943.00,0.1299
2942.00,0.1202
2941.00,0.1130
2940.00,0.1084
2939.00,0.1062
2938.00,0.1061
2937.00,0.1078
2936.00,0.1112
2935.00,0.1161
2934.00,0.1224
2933.00,0.1298
2932.00,0.1382
2931.00,0.1473
2930.00,0.1569
2929.00,0.1667
2928.00,0.1763
2927.00,0.1854
2926.00,0.1940
2925.00,0.2020
2924.00,0.2097
2923.00,0.2171
2922.00,0.2243
2921.00,0.2311
2920.00,0.2371
2919.00,0.2417
2918.00,0.2443
2917.00,0.2445
2916.00,0.2420
2915.00,0.2373
2914.00,0.2309
2913.00,0.2237
2912.00,0.2164
2911.00,0.2095
2910.00,0.2032
2909.00,0.1976
2908.00,0.1922
2907.00,0.1869
2906.00,0.1813
2905.00,0.1752
2904.00,0.1687
2903.00,0.1619
2902.00,0.1548
2901.00,0.1477
2900.00,0.1408
2899.00,0.1341
2898.00,0.1279
2897.00,0.1223
2896.00,0.1174
2895.00,0.1132
2894.00,0.1097
2893.00,0.1070
2892.00,0.1050
2891.00,0.1037
2890.00,0.1029
2889.00,0.1026
2888.00,0.1028
2887.00,0.1033
2886.00,0.1042
2885.00,0.1054
2884.00,0.1070
2883.00,0.1089
2882.00,0.1111
2881.00,0.1135
2880.00,0.1158
2879.00,0.1177
2878.00,0.1188
2877.00,0.1190
2876.00,0.1184
2875.00,0.1175
2874.00,0.1167
2873.00,0.1164
2872.00,0.1168
2871.00,0.1180
2870.00,0.1196
2869.00,0.1213
2868.00,0.1224
2867.00,0.1219
2866.00,0.1193
2865.00,0.1143
2864.00,0.1071
2863.00,0.0985
2862.00,0.0895
2861.00,0.0810
2860.00,0.0736
2859.00,0.0677
2858.00,0.0633
2857.00,0.0601
2856.00,0.0580
2855.00,0.0569
2854.00,0.0566
2853.00,0.0570
2852.00,0.0581
2851.00,0.0599
2850.00,0.0624
2849.00,0.0655
2848.00,0.0693
2847.00,0.0740
2846.00,0.0796
2845.00,0.0861
2844.00,0.0935
2843.00,0.1017
2842.00,0.1100
2841.00,0.1179
2840.00,0.1246
2839.00,0.1289
2838.00,0.1300
2837.00,0.1274
2836.00,0.1210
2835.00,0.1116
2834.00,0.1004
2833.00,0.0885
2832.00,0.0772
2831.00,0.0671
2830.00,0.0586
2829.00,0.0517
2828.00,0.0461
2827.00,0.0416
2826.00,0.0379
2825.00,0.0349
2824.00,0.0323
2823.00,0.0302
2822.00,0.0283
2821.00,0.0267
2820.00,0.0253
2819.00,0.0241
2818.00,0.0231
2817.00,0.0221
2816.00,0.0213
2815.00,0.0206
2814.00,0.0200
2813.00,0.0194
2812.00,0.0189
2811.00,0.0184
2810.00,0.0178
2809.00,0.0173
2808.00,0.0167
2807.00,0.0161
2806.00,0.0155
2805.00,0.0148
2804.00,0.0142
2803.00,0.0136
2802.00,0.0130
2801.00,0.0125
2800.00,0.0121
2799.00,0.0118
2798.00,0.0116
2797.00,0.0114
2796.00,0.0112
2795.00,0.0109
2794.00,0.0106
2793.00,0.0103
2792.00,0.0100
2791.00,0.0096
2790.00,0.0093
2789.00,0.0089
2788.00,0.0085
2787.00,0.0082
2786.00,0.0079
2785.00,0.0076
2784.00,0.0073
2783.00,0.0071
2782.00,0.0068
2781.00,0.0066
2780.00,0.0065
2779.00,0.0063
2778.00,0.0062
2777.00,0.0061
2776.00,0.0059
2775.00,0.0058
2774.00,0.0057
2773.00,0.0056
2772.00,0.0056
2771.00,0.0055
2770.00,0.0055
2769.00,0.0055
2768.00,0.0054
2767.00,0.0054
2766.00,0.0054
2765.00,0.0054
2764.00,0.0053
2763.00,0.0053
2762.00,0.0052
2761.00,0.0052
2760.00,0.0051
2759.00,0.0051
2758.00,0.0051
2757.00,0.0050
2756.00,0.0049
2755.00,0.0049
2754.00,0.0049
2753.00,0.0049
2752.00,0.0049
2751.00,0.0049
2750.00,0.0049
2749.00,0.0049
2748.00,0.0049
2747.00,0.0050
2746.00,0.0050
2745.00,0.0051
2744.00,0.0052
2743.00,0.0053
2742.00,0.0054
2741.00,0.0055
2740.00,0.0056
2739.00,0.0057
2738.00,0.0059
2737.00,0.0060
2736.00,0.0061
2735.00,0.0063
2734.00,0.0064
2733.00,0.0066
2732.00,0.0068
2731.00,0.0070
2730.00,0.0072
2729.00,0.0074
2728.00,0.0077
2727.00,0.0080
2726.00,0.0083
2725.00,0.0086
2724.00,0.0087
2723.00,0.0088
2722.00,0.0087
2721.00,0.0084
2720.00,0.0082
2719.00,0.0078
2718.00,0.0075
2717.00,0.0072
2716.00,0.0069
2715.00,0.0066
2714.00,0.0064
2713.00,0.0062
2712.00,0.0060
2711.00,0.0058
2710.00,0.0056
2709.00,0.0054
2708.00,0.0053
2707.00,0.0052
2706.00,0.0050
2705.00,0.0049
2704.00,0.0048
2703.00,0.0047
2702.00,0.0047
2701.00,0.0046
2700.00,0.0045
2699.00,0.0044
2698.00,0.0044
2697.00,0.0044
2696.00,0.0044
2695.00,0.0044
2694.00,0.0044
2693.00,0.0044
2692.00,0.0044
2691.00,0.0044
2690.00,0.0044
2689.00,0.0044
2688.00,0.0044
2687.00,0.0044
2686.00,0.0044
2685.00,0.0044
2684.00,0.0044
2683.00,0.0043
2682.00,0.0044
2681.00,0.0044
2680.00,0.0044
2679.00,0.0044
2678.00,0.0044
2677.00,0.0044
2676.00,0.0044
2675.00,0.0044
2674.00,0.0044
2673.00,0.0044
2672.00,0.0043
2671.00,0.0043
2670.00,0.0043
2669.00,0.0043
2668.00,0.0043
2667.00,0.0044
2666.00,0.0044
2665.00,0.0045
2664.00,0.0045
2663.00,0.0045
2662.00,0.0046
2661.00,0.0046
2660.00,0.0046
2659.00,0.0046
2658.00,0.0046
2657.00,0.0046
2656.00,0.0045
2655.00,0.0045
2654.00,0.0044
2653.00,0.0044
2652.00,0.0043
2651.00,0.0042
2650.00,0.0042
2649.00,0.0041
2648.00,0.0041
2647.00,0.0041
2646.00,0.0040
2645.00,0.0040
2644.00,0.0040
2643.00,0.0039
2642.00,0.0039
2641.00,0.0038
2640.00,0.0038
2639.00,0.0037
2638.00,0.0037
2637.00,0.0036
2636.00,0.0036
2635.00,0.0036
2634.00,0.0036
2633.00,0.0036
2632.00,0.0036
2631.00,0.0036
2630.00,0.0036
2629.00,0.0037
2628.00,0.0037
2627.00,0.0037
2626.00,0.0038
2625.00,0.0038
2624.00,0.0038
2623.00,0.0038
2622.00,0.0039
2621.00,0.0039
2620.00,0.0039
2619.00,0.0039
2618.00,0.0039
2617.00,0.0040
2616.00,0.0040
2615.00,0.0040
2614.00,0.0040
2613.00,0.0039
2612.00,0.0038
2611.00,0.0037
2610.00,0.0035
2609.00,0.0034
2608.00,0.0034
2607.00,0.0033
2606.00,0.0033
2605.00,0.0032
2604.00,0.0032
2603.00,0.0032
2602.00,0.0032
2601.00,0.0031
2600.00,0.0031
2599.00,0.0030
2598.00,0.0030
2597.00,0.0029
2596.00,0.0029
2595.00,0.0029
2594.00,0.0029
2593.00,0.0030
2592.00,0.0031
2591.00,0.0032
2590.00,0.0033
2589.00,0.0034
2588.00,0.0035
2587.00,0.0035
2586.00,0.0035
2585.00,0.0036
2584.00,0.0036
2583.00,0.0036
2582.00,0.0036
2581.00,0.0036
2580.00,0.0037
2579.00,0.0037
2578.00,0.0037
2577.00,0.0036
2576.00,0.0035
2575.00,0.0033
2574.00,0.0031
2573.00,0.0030
2572.00,0.0028
2571.00,0.0027
2570.00,0.0027
2569.00,0.0027
2568.00,0.0027
2567.00,0.0026
2566.00,0.0025
2565.00,0.0024
2564.00,0.0023
2563.00,0.0023
2562.00,0.0022
2561.00,0.0022
2560.00,0.0021
2559.00,0.0021
2558.00,0.0021
2557.00,0.0021
2556.00,0.0021
2555.00,0.0021
2554.00,0.0021
2553.00,0.0020
2552.00,0.0019
2551.00,0.0018
2550.00,0.0017
2549.00,0.0017
2548.00,0.0017
2547.00,0.0017
2546.00,0.0017
2545.00,0.0017
2544.00,0.0018
2543.00,0.0018
2542.00,0.0017
2541.00,0.0017
2540.00,0.0016
2539.00,0.0016
2538.00,0.0015
2537.00,0.0015
2536.00,0.0015
2535.00,0.0015
2534.00,0.0015
2533.00,0.0015
2532.00,0.0015
2531.00,0.0015
2530.00,0.0014
2529.00,0.0014
2528.00,0.0013
2527.00,0.0012
2526.00,0.0011
2525.00,0.0011
2524.00,0.0011
2523.00,0.0010
2522.00,0.0010
2521.00,0.0010
2520.00,0.0010
2519.00,0.0010
2518.00,0.0010
2517.00,0.0010
2516.00,0.0010
2515.00,0.0010
2514.00,0.0009
2513.00,0.0009
2512.00,0.0009
2511.00,0.0010
2510.00,0.0010
2509.00,0.0009
2508.00,0.0009
2507.00,0.0009
2506.00,0.0009
2505.00,0.0009
2504.00,0.0009
2503.00,0.0009
2502.00,0.0009
2501.00,0.0010
2500.00,0.0010
2499.00,0.0010
2498.00,0.0010
2497.00,0.0010
2496.00,0.0010
2495.00,0.0010
2494.00,0.0010
2493.00,0.0010
2492.00,0.0009
2491.00,0.0009
2490.00,0.0009
2489.00,0.0008
2488.00,0.0007
2487.00,0.0007
2486.00,0.0007
2485.00,0.0007
2484.00,0.0008
2483.00,0.0008
2482.00,0.0008
2481.00,0.0008
2480.00,0.0008
2479.00,0.0008
2478.00,0.0007
2477.00,0.0007
2476.00,0.0007
2475.00,0.0007
2474.00,0.0007
2473.00,0.0007
2472.00,0.0007
2471.00,0.0007
2470.00,0.0006
2469.00,0.0007
2468.00,0.0007
2467.00,0.0007
2466.00,0.0007
2465.00,0.0007
2464.00,0.0007
2463.00,0.0008
2462.00,0.0009
2461.00,0.0010
2460.00,0.0010
2459.00,0.0010
2458.00,0.0009
2457.00,0.0009
2456.00,0.0009
2455.00,0.0009
2454.00,0.0009
2453.00,0.0009
2452.00,0.0009
2451.00,0.0010
2450.00,0.0009
2449.00,0.0009
2448.00,0.0009
2447.00,0.0009
2446.00,0.0009
2445.00,0.0009
2444.00,0.0009
2443.00,0.0009
2442.00,0.0009
2441.00,0.0010
2440.00,0.0010
2439.00,0.0010
2438.00,0.0010
2437.00,0.0010
2436.00,0.0010
2435.00,0.0011
2434.00,0.0011
2433.00,0.0012
2432.00,0.0012
2431.00,0.0013
2430.00,0.0013
2429.00,0.0012
2428.00,0.0012
2427.00,0.0012
2426.00,0.0011
2425.00,0.0011
2424.00,0.0011
2423.00,0.0011
2422.00,0.0011
2421.00,0.0010
2420.00,0.0009
2419.00,0.0008
2418.00,0.0008
2417.00,0.0008
2416.00,0.0008
2415.00,0.0008
2414.00,0.0008
2413.00,0.0008
2412.00,0.0008
2411.00,0.0009
2410.00,0.0008
2409.00,0.0008
2408.00,0.0008
2407.00,0.0008
2406.00,0.0008
2405.00,0.0008
2404.00,0.0008
2403.00,0.0008
2402.00,0.0007
2401.00,0.0007
2400.00,0.0007
2399.00,0.0007
2398.00,0.0007
2397.00,0.0007
2396.00,0.0007
2395.00,0.0007
2394.00,0.0007
2393.00,0.0007
2392.00,0.0007
2391.00,0.0008
2390.00,0.0008
2389.00,0.0007
2388.00,0.0007
2387.00,0.0006
2386.00,0.0006
2385.00,0.0005
2384.00,0.0005
2383.00,0.0004
2382.00,0.0002
2381.00,0.0001
2380.00,0.0000
2379.00,-0.0000
2378.00,-0.0001
2377.00,-0.0000
2376.00,-0.0000
2375.00,0.0000
2374.00,0.0000
2373.00,0.0000
2372.00,-0.0000
2371.00,-0.0001
2370.00,-0.0002
2369.00,-0.0002
2368.00,-0.0002
2367.00,-0.0002
2366.00,-0.0002
2365.00,-0.0001
2364.00,-0.0001
2363.00,-0.0001
2362.00,-0.0001
2361.00,-0.0001
2360.00,-0.0001
2359.00,0.0000
2358.00,0.0001
2357.00,0.0002
2356.00,0.0003
2355.00,0.0003
2354.00,0.0002
2353.00,0.0001
2352.00,0.0000
2351.00,-0.0000
2350.00,-0.0000
2349.00,-0.0000
2348.00,0.0000
2347.00,0.0001
2346.00,0.0001
2345.00,0.0002
2344.00,0.0001
2343.00,0.0001
2342.00,0.0002
2341.00,0.0002
2340.00,0.0003
2339.00,0.0003
2338.00,0.0003
2337.00,0.0003
2336.00,0.0003
2335.00,0.0004
2334.00,0.0004
2333.00,0.0004
2332.00,0.0004
2331.00,0.0003
2330.00,0.0003
2329.00,0.0003
2328.00,0.0005
2327.00,0.0009
2326.00,0.0014
2325.00,0.0017
2324.00,0.0019
2323.00,0.0018
2322.00,0.0015
2321.00,0.0012
2320.00,0.0011
2319.00,0.0009
2318.00,0.0009
2317.00,0.0008
2316.00,0.0008
2315.00,0.0008
2314.00,0.0007
2313.00,0.0007
2312.00,0.0007
2311.00,0.0007
2310.00,0.0006
2309.00,0.0006
2308.00,0.0005
2307.00,0.0005
2306.00,0.0005
2305.00,0.0005
2304.00,0.0006
2303.00,0.0007
2302.00,0.0008
2301.00,0.0008
2300.00,0.0008
2299.00,0.0008
2298.00,0.0008
2297.00,0.0009
2296.00,0.0009
2295.00,0.0010
2294.00,0.0011
2293.00,0.0011
2292.00,0.0012
2291.00,0.0013
2290.00,0.0014
2289.00,0.0015
2288.00,0.0016
2287.00,0.0016
2286.00,0.0017
2285.00,0.0018
2284.00,0.0018
2283.00,0.0017
2282.00,0.0016
2281.00,0.0015
2280.00,0.0014
2279.00,0.0012
2278.00,0.0011
2277.00,0.0010
2276.00,0.0011
2275.00,0.0011
2274.00,0.0012
2273.00,0.0012
2272.00,0.0011
2271.00,0.0011
2270.00,0.0010
2269.00,0.0009
2268.00,0.0009
2267.00,0.0008
2266.00,0.0008
2265.00,0.0007
2264.00,0.0007
2263.00,0.0006
2262.00,0.0006
2261.00,0.0007
2260.00,0.0008
2259.00,0.0010
2258.00,0.0011
2257.00,0.0012
2256.00,0.0012
2255.00,0.0011
2254.00,0.0010
2253.00,0.0010
2252.00,0.0010
2251.00,0.0009
2250.00,0.0009
2249.00,0.0009
2248.00,0.0008
2247.00,0.0008
2246.00,0.0007
2245.00,0.0007
2244.00,0.0006
2243.00,0.0006
2242.00,0.0005
2241.00,0.0005
2240.00,0.0005
2239.00,0.0005
2238.00,0.0005
2237.00,0.0006
2236.00,0.0007
2235.00,0.0007
2234.00,0.0007
2233.00,0.0006
2232.00,0.0005
2231.00,0.0005
2230.00,0.0006
2229.00,0.0008
2228.00,0.0009
2227.00,0.0010
2226.00,0.0009
2225.00,0.0008
2224.00,0.0006
2223.00,0.0004
2222.00,0.0002
2221.00,0.0002
2220.00,0.0002
2219.00,0.0002
2218.00,0.0002
2217.00,0.0002
2216.00,0.0002
2215.00,0.0003
2214.00,0.0004
2213.00,0.0005
2212.00,0.0006
2211.00,0.0006
2210.00,0.0006
2209.00,0.0006
2208.00,0.0006
2207.00,0.0005
2206.00,0.0004
2205.00,0.0003
2204.00,0.0003
2203.00,0.0004
2202.00,0.0005
2201.00,0.0006
2200.00,0.0006
2199.00,0.0005
2198.00,0.0004
2197.00,0.0004
2196.00,0.0005
2195.00,0.0006
2194.00,0.0007
2193.00,0.0007
2192.00,0.0008
2191.00,0.0009
2190.00,0.0010
2189.00,0.0012
2188.00,0.0012
2187.00,0.0012
2186.00,0.0012
2185.00,0.0012
2184.00,0.0013
2183.00,0.0011
2182.00,0.0007
2181.00,0.0002
2180.00,-0.0002
2179.00,-0.0003
2178.00,-0.0003
2177.00,-0.0002
2176.00,-0.0002
2175.00,-0.0003
2174.00,-0.0003
2173.00,-0.0001
2172.00,0.0003
2171.00,0.0007
2170.00,0.0011
2169.00,0.0013
2168.00,0.0015
2167.00,0.0016
2166.00,0.0016
2165.00,0.0015
2164.00,0.0013
2163.00,0.0013
2162.00,0.0013
2161.00,0.0009
2160.00,-0.0000
2159.00,-0.0015
2158.00,-0.0028
2157.00,-0.0035
2156.00,-0.0035
2155.00,-0.0032
2154.00,-0.0028
2153.00,-0.0024
2152.00,-0.0020
2151.00,-0.0017
2150.00,-0.0016
2149.00,-0.0016
2148.00,-0.0015
2147.00,-0.0015
2146.00,-0.0015
2145.00,-0.0014
2144.00,-0.0013
2143.00,-0.0012
2142.00,-0.0012
2141.00,-0.0014
2140.00,-0.0014
2139.00,-0.0014
2138.00,-0.0015
2137.00,-0.0015
2136.00,-0.0016
2135.00,-0.0017
2134.00,-0.0017
2133.00,-0.0017
2132.00,-0.0016
2131.00,-0.0014
2130.00,-0.0013
2129.00,-0.0011
2128.00,-0.0009
2127.00,-0.0008
2126.00,-0.0007
2125.00,-0.0006
2124.00,-0.0006
2123.00,-0.0006
2122.00,-0.0006
2121.00,-0.0006
2120.00,-0.0006
2119.00,-0.0005
2118.00,-0.0005
2117.00,-0.0004
2116.00,-0.0003
2115.00,-0.0001
2114.00,-0.0000
2113.00,0.0000
2112.00,0.0000
2111.00,0.0001
2110.00,0.0001
2109.00,0.0001
2108.00,0.0001
2107.00,0.0001
2106.00,0.0001
2105.00,0.0001
2104.00,0.0001
2103.00,0.0001
2102.00,0.0001
2101.00,0.0001
2100.00,0.0001
2099.00,-0.0000
2098.00,-0.0002
2097.00,-0.0003
2096.00,-0.0004
2095.00,-0.0005
2094.00,-0.0005
2093.00,-0.0004
2092.00,-0.0002
2091.00,-0.0000
2090.00,0.0000
2089.00,0.0001
2088.00,0.0001
2087.00,0.0000
2086.00,-0.0000
2085.00,-0.0001
2084.00,-0.0001
2083.00,-0.0001
2082.00,-0.0001
2081.00,-0.0002
2080.00,-0.0002
2079.00,-0.0002
2078.00,-0.0001
2077.00,0.0001
2076.00,0.0001
2075.00,0.0001
2074.00,-0.0000
2073.00,-0.0001
2072.00,-0.0001
2071.00,0.0000
2070.00,0.0001
2069.00,0.0001
2068.00,0.0000
2067.00,-0.0002
2066.00,-0.0003
2065.00,-0.0003
2064.00,-0.0001
2063.00,-0.0000
2062.00,-0.0001
2061.00,-0.0002
2060.00,-0.0004
2059.00,-0.0004
2058.00,-0.0004
2057.00,-0.0002
2056.00,-0.0002
2055.00,-0.0002
2054.00,-0.0002
2053.00,0.0001
2052.00,0.0006
2051.00,0.0010
2050.00,0.0010
2049.00,0.0006
2048.00,0.0002
2047.00,-0.0001
2046.00,-0.0003
2045.00,-0.0004
2044.00,-0.0004
2043.00,-0.0005
2042.00,-0.0005
2041.00,-0.0006
2040.00,-0.0006
2039.00,-0.0005
2038.00,-0.0004
2037.00,-0.0003
2036.00,-0.0002
2035.00,-0.0003
2034.00,-0.0006
2033.00,-0.0008
2032.00,-0.0010
2031.00,-0.0011
2030.00,-0.0011
2029.00,-0.0011
2028.00,-0.0011
2027.00,-0.0011
2026.00,-0.0009
2025.00,-0.0006
2024.00,-0.0005
2023.00,-0.0007
2022.00,-0.0010
2021.00,-0.0013
2020.00,-0.0015
2019.00,-0.0017
2018.00,-0.0018
2017.00,-0.0019
2016.00,-0.0019
2015.00,-0.0019
2014.00,-0.0019
2013.00,-0.0019
2012.00,-0.0018
2011.00,-0.0016
2010.00,-0.0014
2009.00,-0.0014
2008.00,-0.0015
2007.00,-0.0017
2006.00,-0.0019
2005.00,-0.0017
2004.00,-0.0014
2003.00,-0.0010
2002.00,-0.0008
2001.00,-0.0008
2000.00,-0.0010
1999.00,-0.0013
1998.00,-0.0016
1997.00,-0.0016
1996.00,-0.0014
1995.00,-0.0012
1994.00,-0.0011
1993.00,-0.0012
1992.00,-0.0012
1991.00,-0.0013
1990.00,-0.0011
1989.00,-0.0008
1988.00,-0.0005
1987.00,-0.0004
1986.00,-0.0004
1985.00,-0.0004
1984.00,-0.0003
1983.00,-0.0002
1982.00,-0.0001
1981.00,0.0001
1980.00,0.0002
1979.00,0.0000
1978.00,-0.0005
1977.00,-0.0010
1976.00,-0.0013
1975.00,-0.0014
1974.00,-0.0012
1973.00,-0.0010
1972.00,-0.0008
1971.00,-0.0007
1970.00,-0.0006
1969.00,-0.0005
1968.00,-0.0006
1967.00,-0.0009
1966.00,-0.0012
1965.00,-0.0014
1964.00,-0.0016
1963.00,-0.0017
1962.00,-0.0017
1961.00,-0.0017
1960.00,-0.0018
1959.00,-0.0018
1958.00,-0.0018
1957.00,-0.0018
1956.00,-0.0017
1955.00,-0.0018
1954.00,-0.0018
1953.00,-0.0019
1952.00,-0.0020
1951.00,-0.0021
1950.00,-0.0023
1949.00,-0.0023
1948.00,-0.0022
1947.00,-0.0022
1946.00,-0.0022
1945.00,-0.0022
1944.00,-0.0021
1943.00,-0.0020
1942.00,-0.0018
1941.00,-0.0016
1940.00,-0.0014
1939.00,-0.0013
1938.00,-0.0013
1937.00,-0.0012
1936.00,-0.0012
1935.00,-0.0011
1934.00,-0.0011
1933.00,-0.0011
1932.00,-0.0010
1931.00,-0.0010
1930.00,-0.0011
1929.00,-0.0012
1928.00,-0.0012
1927.00,-0.0012
1926.00,-0.0010
1925.00,-0.0009
1924.00,-0.0008
1923.00,-0.0008
1922.00,-0.0008
1921.00,-0.0007
1920.00,-0.0007
1919.00,-0.0007
1918.00,-0.0007
1917.00,-0.0007
1916.00,-0.0006
1915.00,-0.0006
1914.00,-0.0005
1913.00,-0.0004
1912.00,-0.0004
1911.00,-0.0005
1910.00,-0.0007
1909.00,-0.0008
1908.00,-0.0008
1907.00,-0.0008
1906.00,-0.0007
1905.00,-0.0007
1904.00,-0.0006
1903.00,-0.0006
1902.00,-0.0005
1901.00,-0.0004
1900.00,-0.0003
1899.00,-0.0002
1898.00,-0.0002
1897.00,-0.0002
1896.00,-0.0002
1895.00,-0.0003
1894.00,-0.0003
1893.00,-0.0003
1892.00,-0.0002
1891.00,-0.0002
1890.00,-0.0002
1889.00,-0.0002
1888.00,-0.0003
1887.00,-0.0003
1886.00,-0.0004
1885.00,-0.0003
1884.00,-0.0002
1883.00,-0.0002
1882.00,-0.0002
1881.00,-0.0002
1880.00,-0.0002
1879.00,-0.0002
1878.00,-0.0002
1877.00,-0.0002
1876.00,-0.0003
1875.00,-0.0003
1874.00,-0.0004
1873.00,-0.0004
1872.00,-0.0004
1871.00,-0.0004
1870.00,-0.0004
1869.00,-0.0004
1868.00,-0.0004
1867.00,-0.0003
1866.00,-0.0002
1865.00,-0.0001
1864.00,-0.0001
1863.00,-0.0001
1862.00,-0.0001
1861.00,-0.0002
1860.00,-0.0002
1859.00,-0.0002
1858.00,-0.0002
1857.00,-0.0001
1856.00,-0.0001
1855.00,-0.0002
1854.00,-0.0002
1853.00,-0.0001
1852.00,-0.0001
1851.00,-0.0001
1850.00,-0.0002
1849.00,-0.0001
1848.00,-0.0001
1847.00,-0.0001
1846.00,-0.0001
1845.00,-0.0001
1844.00,-0.0002
1843.00,-0.0001
1842.00,-0.0000
1841.00,0.0000
1840.00,0.0001
1839.00,0.0001
1838.00,0.0001
1837.00,0.0001
1836.00,0.0001
1835.00,0.0001
1834.00,0.0001
1833.00,0.0001
1832.00,0.0002
1831.00,0.0003
1830.00,0.0003
1829.00,0.0003
1828.00,0.0003
1827.00,0.0003
1826.00,0.0003
1825.00,0.0002
1824.00,0.0002
1823.00,0.0002
1822.00,0.0002
1821.00,0.0001
1820.00,0.0000
1819.00,-0.0001
1818.00,-0.0002
1817.00,-0.0003
1816.00,-0.0003
1815.00,-0.0002
1814.00,-0.0001
1813.00,-0.0001
1812.00,-0.0000
1811.00,-0.0000
1810.00,0.0000
1809.00,0.0001
1808.00,0.0002
1807.00,0.0003
1806.00,0.0004
1805.00,0.0004
1804.00,0.0004
1803.00,0.0003
1802.00,0.0003
1801.00,0.0003
1800.00,0.0003
1799.00,0.0003
1798.00,0.0003
1797.00,0.0002
1796.00,0.0002
1795.00,0.0003
1794.00,0.0004
1793.00,0.0004
1792.00,0.0005
1791.00,0.0005
1790.00,0.0005
1789.00,0.0005
1788.00,0.0005
1787.00,0.0005
1786.00,0.0005
1785.00,0.0006
1784.00,0.0006
1783.00,0.0006
1782.00,0.0006
1781.00,0.0006
1780.00,0.0006
1779.00,0.0006
1778.00,0.0006
1777.00,0.0006
1776.00,0.0006
1775.00,0.0006
1774.00,0.0006
1773.00,0.0006
1772.00,0.0007
1771.00,0.0007
1770.00,0.0007
1769.00,0.0008
1768.00,0.0008
1767.00,0.0008
1766.00,0.0008
1765.00,0.0008
1764.00,0.0008
1763.00,0.0009
1762.00,0.0009
1761.00,0.0010
1760.00,0.0010
1759.00,0.0010
1758.00,0.0010
1757.00,0.0011
1756.00,0.0011
1755.00,0.0012
1754.00,0.0012
1753.00,0.0012
1752.00,0.0012
1751.00,0.0012
1750.00,0.0012
1749.00,0.0012
1748.00,0.0012
1747.00,0.0013
1746.00,0.0013
1745.00,0.0014
1744.00,0.0015
1743.00,0.0015
1742.00,0.0016
1741.00,0.0016
1740.00,0.0016
1739.00,0.0016
1738.00,0.0015
1737.00,0.0015
1736.00,0.0014
1735.00,0.0013
1734.00,0.0013
1733.00,0.0015
1732.00,0.0016
1731.00,0.0016
1730.00,0.0017
1729.00,0.0017
1728.00,0.0017
1727.00,0.0016
1726.00,0.0016
1725.00,0.0016
1724.00,0.0016
1723.00,0.0016
1722.00,0.0016
1721.00,0.0016
1720.00,0.0017
1719.00,0.0017
1718.00,0.0017
1717.00,0.0017
1716.00,0.0017
1715.00,0.0017
1714.00,0.0017
1713.00,0.0017
1712.00,0.0017
1711.00,0.0017
1710.00,0.0018
1709.00,0.0019
1708.00,0.0020
1707.00,0.0020
1706.00,0.0020
1705.00,0.0020
1704.00,0.0021
1703.00,0.0021
1702.00,0.0021
1701.00,0.0022
1700.00,0.0022
1699.00,0.0022
1698.00,0.0022
1697.00,0.0023
1696.00,0.0023
1695.00,0.0024
1694.00,0.0024
1693.00,0.0024
1692.00,0.0025
1691.00,0.0025
1690.00,0.0026
1689.00,0.0026
1688.00,0.0027
1687.00,0.0027
1686.00,0.0027
1685.00,0.0027
1684.00,0.0026
1683.00,0.0026
1682.00,0.0027
1681.00,0.0028
1680.00,0.0028
1679.00,0.0029
1678.00,0.0029
1677.00,0.0029
1676.00,0.0030
1675.00,0.0031
1674.00,0.0032
1673.00,0.0033
1672.00,0.0033
1671.00,0.0034
1670.00,0.0034
1669.00,0.0034
1668.00,0.0034
1667.00,0.0035
1666.00,0.0035
1665.00,0.0035
1664.00,0.0036
1663.00,0.0037
1662.00,0.0038
1661.00,0.0039
1660.00,0.0040
1659.00,0.0040
1658.00,0.0040
1657.00,0.0040
1656.00,0.0040
1655.00,0.0041
1654.00,0.0041
1653.00,0.0044
1652.00,0.0046
1651.00,0.0048
1650.00,0.0049
1649.00,0.0051
1648.00,0.0054
1647.00,0.0056
1646.00,0.0057
1645.00,0.0057
1644.00,0.0057
1643.00,0.0055
1642.00,0.0054
1641.00,0.0052
1640.00,0.0051
1639.00,0.0050
1638.00,0.0050
1637.00,0.0049
1636.00,0.0050
1635.00,0.0050
1634.00,0.0050
1633.00,0.0050
1632.00,0.0049
1631.00,0.0049
1630.00,0.0049
1629.00,0.0049
1628.00,0.0049
1627.00,0.0050
1626.00,0.0049
1625.00,0.0049
1624.00,0.0048
1623.00,0.0047
1622.00,0.0045
1621.00,0.0045
1620.00,0.0045
1619.00,0.0044
1618.00,0.0043
1617.00,0.0042
1616.00,0.0042
1615.00,0.0042
1614.00,0.0042
1613.00,0.0043
1612.00,0.0043
1611.00,0.0043
1610.00,0.0043
1609.00,0.0042
1608.00,0.0042
1607.00,0.0041
1606.00,0.0041
1605.00,0.0042
1604.00,0.0042
1603.00,0.0042
1602.00,0.0042
1601.00,0.0042
1600.00,0.0042
1599.00,0.0041
1598.00,0.0041
1597.00,0.0041
1596.00,0.0041
1595.00,0.0041
1594.00,0.0041
1593.00,0.0040
1592.00,0.0040
1591.00,0.0040
1590.00,0.0040
1589.00,0.0040
1588.00,0.0041
1587.00,0.0042
1586.00,0.0042
1585.00,0.0043
1584.00,0.0044
1583.00,0.0045
1582.00,0.0046
1581.00,0.0047
1580.00,0.0047
1579.00,0.0048
1578.00,0.0048
1577.00,0.0049
1576.00,0.0049
1575.00,0.0049
1574.00,0.0048
1573.00,0.0048
1572.00,0.0048
1571.00,0.0047
1570.00,0.0047
1569.00,0.0047
1568.00,0.0047
1567.00,0.0047
1566.00,0.0047
1565.00,0.0047
1564.00,0.0047
1563.00,0.0048
1562.00,0.0048
1561.00,0.0049
1560.00,0.0050
1559.00,0.0050
1558.00,0.0050
1557.00,0.0050
1556.00,0.0050
1555.00,0.0050
1554.00,0.0051
1553.00,0.0051
1552.00,0.0052
1551.00,0.0052
1550.00,0.0053
1549.00,0.0054
1548.00,0.0055
1547.00,0.0056
1546.00,0.0057
1545.00,0.0058
1544.00,0.0060
1543.00,0.0060
1542.00,0.0060
1541.00,0.0060
1540.00,0.0059
1539.00,0.0057
1538.00,0.0056
1537.00,0.0055
1536.00,0.0054
1535.00,0.0053
1534.00,0.0052
1533.00,0.0051
1532.00,0.0050
1531.00,0.0049
1530.00,0.0048
1529.00,0.0048
1528.00,0.0048
1527.00,0.0048
1526.00,0.0048
1525.00,0.0048
1524.00,0.0049
1523.00,0.0049
1522.00,0.0049
1521.00,0.0049
1520.00,0.0049
1519.00,0.0049
1518.00,0.0049
1517.00,0.0050
1516.00,0.0051
1515.00,0.0051
1514.00,0.0051
1513.00,0.0052
1512.00,0.0052
1511.00,0.0053
1510.00,0.0053
1509.00,0.0055
1508.00,0.0057
1507.00,0.0058
1506.00,0.0059
1505.00,0.0060
1504.00,0.0061
1503.00,0.0061
1502.00,0.0063
1501.00,0.0065
1500.00,0.0068
1499.00,0.0070
1498.00,0.0072
1497.00,0.0074
1496.00,0.0077
1495.00,0.0080
1494.00,0.0082
1493.00,0.0086
1492.00,0.0090
1491.00,0.0093
1490.00,0.0097
1489.00,0.0102
1488.00,0.0107
1487.00,0.0112
1486.00,0.0117
1485.00,0.0123
1484.00,0.0130
1483.00,0.0137
1482.00,0.0145
1481.00,0.0155
1480.00,0.0167
1479.00,0.0179
1478.00,0.0193
1477.00,0.0212
1476.00,0.0234
1475.00,0.0259
1474.00,0.0294
1473.00,0.0347
1472.00,0.0412
1471.00,0.0475
1470.00,0.0535
1469.00,0.0598
1468.00,0.0665
1467.00,0.0739
1466.00,0.0825
1465.00,0.0920
1464.00,0.1006
1463.00,0.1069
1462.00,0.1113
1461.00,0.1147
1460.00,0.1174
1459.00,0.1195
1458.00,0.1218
1457.00,0.1241
1456.00,0.1257
1455.00,0.1262
1454.00,0.1262
1453.00,0.1256
1452.00,0.1240
1451.00,0.1209
1450.00,0.1160
1449.00,0.1086
1448.00,0.0988
1447.00,0.0881
1446.00,0.0783
1445.00,0.0699
1444.00,0.0625
1443.00,0.0565
1442.00,0.0520
1441.00,0.0490
1440.00,0.0470
1439.00,0.0460
1438.00,0.0457
1437.00,0.0454
1436.00,0.0439
1435.00,0.0411
1434.00,0.0371
1433.00,0.0326
1432.00,0.0279
1431.00,0.0238
1430.00,0.0207
1429.00,0.0184
1428.00,0.0169
1427.00,0.0159
1426.00,0.0153
1425.00,0.0147
1424.00,0.0141
1423.00,0.0138
1422.00,0.0137
1421.00,0.0136
1420.00,0.0134
1419.00,0.0131
1418.00,0.0129
1417.00,0.0126
1416.00,0.0123
1415.00,0.0121
1414.00,0.0120
1413.00,0.0119
1412.00,0.0116
1411.00,0.0115
1410.00,0.0114
1409.00,0.0113
1408.00,0.0112
1407.00,0.0112
1406.00,0.0113
1405.00,0.0114
1404.00,0.0114
1403.00,0.0115
1402.00,0.0116
1401.00,0.0117
1400.00,0.0118
1399.00,0.0120
1398.00,0.0122
1397.00,0.0124
1396.00,0.0126
1395.00,0.0130
1394.00,0.0136
1393.00,0.0142
1392.00,0.0148
1391.00,0.0157
1390.00,0.0170
1389.00,0.0188
1388.00,0.0215
1387.00,0.0255
1386.00,0.0308
1385.00,0.0374
1384.00,0.0459
1383.00,0.0571
1382.00,0.0716
1381.00,0.0897
1380.00,0.1115
1379.00,0.1360
1378.00,0.1595
1377.00,0.1768
1376.00,0.1829
1375.00,0.1746
1374.00,0.1541
1373.00,0.1286
1372.00,0.1047
1371.00,0.0847
1370.00,0.0683
1369.00,0.0556
1368.00,0.0468
1367.00,0.0413
1366.00,0.0384
1365.00,0.0372
1364.00,0.0375
1363.00,0.0389
1362.00,0.0410
1361.00,0.0432
1360.00,0.0449
1359.00,0.0453
1358.00,0.0442
1357.00,0.0415
1356.00,0.0378
1355.00,0.0335
1354.00,0.0294
1353.00,0.0258
1352.00,0.0230
1351.00,0.0207
1350.00,0.0188
1349.00,0.0174
1348.00,0.0162
1347.00,0.0152
1346.00,0.0145
1345.00,0.0138
1344.00,0.0134
1343.00,0.0130
1342.00,0.0127
1341.00,0.0124
1340.00,0.0121
1339.00,0.0119
1338.00,0.0117
1337.00,0.0117
1336.00,0.0118
1335.00,0.0119
1334.00,0.0122
1333.00,0.0126
1332.00,0.0130
1331.00,0.0134
1330.00,0.0135
1329.00,0.0135
1328.00,0.0132
1327.00,0.0127
1326.00,0.0121
1325.00,0.0115
1324.00,0.0109
1323.00,0.0103
1322.00,0.0099
1321.00,0.0096
1320.00,0.0093
1319.00,0.0090
1318.00,0.0088
1317.00,0.0086
1316.00,0.0085
1315.00,0.0084
1314.00,0.0084
1313.00,0.0085
1312.00,0.0087
1311.00,0.0090
1310.00,0.0096
1309.00,0.0105
1308.00,0.0118
1307.00,0.0133
1306.00,0.0148
1305.00,0.0159
1304.00,0.0163
1303.00,0.0159
1302.00,0.0151
1301.00,0.0143
1300.00,0.0137
1299.00,0.0133
1298.00,0.0132
1297.00,0.0130
1296.00,0.0128
1295.00,0.0125
1294.00,0.0120
1293.00,0.0115
1292.00,0.0109
1291.00,0.0103
1290.00,0.0099
1289.00,0.0094
1288.00,0.0091
1287.00,0.0088
1286.00,0.0086
1285.00,0.0083
1284.00,0.0081
1283.00,0.0080
1282.00,0.0078
1281.00,0.0077
1280.00,0.0076
1279.00,0.0075
1278.00,0.0075
1277.00,0.0074
1276.00,0.0074
1275.00,0.0074
1274.00,0.0074
1273.00,0.0074
1272.00,0.0075
1271.00,0.0075
1270.00,0.0076
1269.00,0.0077
1268.00,0.0078
1267.00,0.0079
1266.00,0.0081
1265.00,0.0084
1264.00,0.0087
1263.00,0.0091
1262.00,0.0096
1261.00,0.0102
1260.00,0.0110
1259.00,0.0120
1258.00,0.0130
1257.00,0.0139
1256.00,0.0144
1255.00,0.0142
1254.00,0.0135
1253.00,0.0124
1252.00,0.0113
1251.00,0.0104
1250.00,0.0098
1249.00,0.0093
1248.00,0.0090
1247.00,0.0088
1246.00,0.0087
1245.00,0.0086
1244.00,0.0085
1243.00,0.0084
1242.00,0.0083
1241.00,0.0082
1240.00,0.0080
1239.00,0.0080
1238.00,0.0079
1237.00,0.0079
1236.00,0.0078
1235.00,0.0077
1234.00,0.0076
1233.00,0.0076
1232.00,0.0075
1231.00,0.0075
1230.00,0.0075
1229.00,0.0076
1228.00,0.0077
1227.00,0.0077
1226.00,0.0078
1225.00,0.0080
1224.00,0.0082
1223.00,0.0085
1222.00,0.0089
1221.00,0.0092
1220.00,0.0094
1219.00,0.0095
1218.00,0.0095
1217.00,0.0094
1216.00,0.0091
1215.00,0.0089
1214.00,0.0086
1213.00,0.0083
1212.00,0.0080
1211.00,0.0078
1210.00,0.0075
1209.00,0.0073
1208.00,0.0072
1207.00,0.0071
1206.00,0.0070
1205.00,0.0070
1204.00,0.0069
1203.00,0.0069
1202.00,0.0069
1201.00,0.0069
1200.00,0.0069
1199.00,0.0069
1198.00,0.0068
1197.00,0.0068
1196.00,0.0068
1195.00,0.0069
1194.00,0.0069
1193.00,0.0069
1192.00,0.0070
1191.00,0.0071
1190.00,0.0072
1189.00,0.0072
1188.00,0.0072
1187.00,0.0072
1186.00,0.0073
1185.00,0.0074
1184.00,0.0076
1183.00,0.0078
1182.00,0.0080
1181.00,0.0084
1180.00,0.0088
1179.00,0.0095
1178.00,0.0104
1177.00,0.0116
1176.00,0.0131
1175.00,0.0151
1174.00,0.0177
1173.00,0.0209
1172.00,0.0248
1171.00,0.0292
1170.00,0.0336
1169.00,0.0372
1168.00,0.0396
1167.00,0.0403
1166.00,0.0394
1165.00,0.0374
1164.00,0.0348
1163.00,0.0320
1162.00,0.0295
1161.00,0.0274
1160.00,0.0257
1159.00,0.0244
1158.00,0.0233
1157.00,0.0225
1156.00,0.0218
1155.00,0.0213
1154.00,0.0209
1153.00,0.0204
1152.00,0.0199
1151.00,0.0191
1150.00,0.0182
1149.00,0.0171
1148.00,0.0160
1147.00,0.0151
1146.00,0.0142
1145.00,0.0134
1144.00,0.0127
1143.00,0.0121
1142.00,0.0115
1141.00,0.0110
1140.00,0.0105
1139.00,0.0100
1138.00,0.0095
1137.00,0.0091
1136.00,0.0087
1135.00,0.0083
1134.00,0.0081
1133.00,0.0079
1132.00,0.0078
1131.00,0.0078
1130.00,0.0078
1129.00,0.0078
1128.00,0.0079
1127.00,0.0079
1126.00,0.0079
1125.00,0.0079
1124.00,0.0079
1123.00,0.0079
1122.00,0.0079
1121.00,0.0080
1120.00,0.0081
1119.00,0.0082
1118.00,0.0083
1117.00,0.0085
1116.00,0.0086
1115.00,0.0088
1114.00,0.0089
1113.00,0.0090
1112.00,0.0092
1111.00,0.0095
1110.00,0.0099
1109.00,0.0102
1108.00,0.0107
1107.00,0.0113
1106.00,0.0120
1105.00,0.0127
1104.00,0.0133
1103.00,0.0136
1102.00,0.0136
1101.00,0.0134
1100.00,0.0129
1099.00,0.0123
1098.00,0.0116
1097.00,0.0110
1096.00,0.0105
1095.00,0.0101
1094.00,0.0098
1093.00,0.0095
1092.00,0.0092
1091.00,0.0089
1090.00,0.0087
1089.00,0.0085
1088.00,0.0084
1087.00,0.0083
1086.00,0.0082
1085.00,0.0082
1084.00,0.0082
1083.00,0.0081
1082.00,0.0081
1081.00,0.0081
1080.00,0.0080
1079.00,0.0078
1078.00,0.0077
1077.00,0.0076
1076.00,0.0075
1075.00,0.0075
1074.00,0.0075
1073.00,0.0075
1072.00,0.0074
1071.00,0.0074
1070.00,0.0074
1069.00,0.0075
1068.00,0.0075
1067.00,0.0075
1066.00,0.0075
1065.00,0.0074
1064.00,0.0074
1063.00,0.0073
1062.00,0.0073
1061.00,0.0074
1060.00,0.0075
1059.00,0.0077
1058.00,0.0078
1057.00,0.0078
1056.00,0.0078
1055.00,0.0079
1054.00,0.0080
1053.00,0.0082
1052.00,0.0083
1051.00,0.0085
1050.00,0.0088
1049.00,0.0091
1048.00,0.0096
1047.00,0.0101
1046.00,0.0105
1045.00,0.0106
1044.00,0.0105
1043.00,0.0102
1042.00,0.0099
1041.00,0.0095
1040.00,0.0092
1039.00,0.0090
1038.00,0.0090
1037.00,0.0089
1036.00,0.0088
1035.00,0.0088
1034.00,0.0087
1033.00,0.0087
1032.00,0.0086
1031.00,0.0086
1030.00,0.0085
1029.00,0.0084
1028.00,0.0084
1027.00,0.0084
1026.00,0.0084
1025.00,0.0084
1024.00,0.0085
1023.00,0.0086
1022.00,0.0087
1021.00,0.0088
1020.00,0.0089
1019.00,0.0091
1018.00,0.0093
1017.00,0.0096
1016.00,0.0099
1015.00,0.0102
1014.00,0.0105
1013.00,0.0109
1012.00,0.0113
1011.00,0.0117
1010.00,0.0123
1009.00,0.0129
1008.00,0.0136
1007.00,0.0146
1006.00,0.0158
1005.00,0.0174
1004.00,0.0196
1003.00,0.0225
1002.00,0.0263
1001.00,0.0310
1000.00,0.0361
999.00,0.0406
998.00,0.0432
997.00,0.0428
996.00,0.0395
995.00,0.0345
994.00,0.0290
993.00,0.0241
992.00,0.0202
991.00,0.0173
990.00,0.0153
989.00,0.0140
988.00,0.0131
987.00,0.0126
986.00,0.0124
985.00,0.0125
984.00,0.0129
983.00,0.0138
982.00,0.0151
981.00,0.0169
980.00,0.0195
979.00,0.0228
978.00,0.0272
977.00,0.0325
976.00,0.0385
975.00,0.0445
974.00,0.0494
973.00,0.0519
972.00,0.0510
971.00,0.0469
970.00,0.0405
969.00,0.0336
968.00,0.0274
967.00,0.0225
966.00,0.0189
965.00,0.0163
964.00,0.0144
963.00,0.0129
962.00,0.0118
961.00,0.0110
960.00,0.0103
959.00,0.0098
958.00,0.0095
957.00,0.0092
956.00,0.0090
955.00,0.0087
954.00,0.0084
953.00,0.0081
952.00,0.0079
951.00,0.0079
950.00,0.0079
949.00,0.0079
948.00,0.0079
947.00,0.0080
946.00,0.0081
945.00,0.0083
944.00,0.0086
943.00,0.0089
942.00,0.0092
941.00,0.0094
940.00,0.0094
939.00,0.0091
938.00,0.0087
937.00,0.0081
936.00,0.0076
935.00,0.0072
934.00,0.0068
933.00,0.0066
932.00,0.0065
931.00,0.0064
930.00,0.0062
929.00,0.0061
928.00,0.0060
927.00,0.0060
926.00,0.0061
925.00,0.0061
924.00,0.0061
923.00,0.0061
922.00,0.0062
921.00,0.0063
920.00,0.0065
919.00,0.0067
918.00,0.0068
917.00,0.0068
916.00,0.0068
915.00,0.0068
914.00,0.0069
913.00,0.0069
912.00,0.0070
911.00,0.0070
910.00,0.0071
909.00,0.0073
908.00,0.0076
907.00,0.0081
906.00,0.0088
905.00,0.0097
904.00,0.0110
903.00,0.0127
902.00,0.0146
901.00,0.0164
900.00,0.0176
899.00,0.0180
898.00,0.0174
897.00,0.0161
896.00,0.0143
895.00,0.0125
894.00,0.0109
893.00,0.0097
892.00,0.0088
891.00,0.0081
890.00,0.0077
889.00,0.0074
888.00,0.0072
887.00,0.0071
886.00,0.0071
885.00,0.0072
884.00,0.0072
883.00,0.0072
882.00,0.0072
881.00,0.0071
880.00,0.0072
879.00,0.0073
878.00,0.0073
877.00,0.0072
876.00,0.0071
875.00,0.0070
874.00,0.0070
873.00,0.0071
872.00,0.0070
871.00,0.0070
870.00,0.0070
869.00,0.0072
868.00,0.0073
867.00,0.0074
866.00,0.0074
865.00,0.0074
864.00,0.0075
863.00,0.0077
862.00,0.0079
861.00,0.0081
860.00,0.0083
859.00,0.0085
858.00,0.0087
857.00,0.0088
856.00,0.0090
855.00,0.0092
854.00,0.0096
853.00,0.0099
852.00,0.0103
851.00,0.0107
850.00,0.0113
849.00,0.0123
848.00,0.0136
847.00,0.0156
846.00,0.0187
845.00,0.0233
844.00,0.0294
843.00,0.0362
842.00,0.0417
841.00,0.0437
840.00,0.0410
839.00,0.0352
838.00,0.0285
837.00,0.0230
836.00,0.0193
835.00,0.0170
834.00,0.0155
833.00,0.0146
832.00,0.0140
831.00,0.0135
830.00,0.0131
829.00,0.0126
828.00,0.0122
827.00,0.0119
826.00,0.0118
825.00,0.0117
824.00,0.0115
823.00,0.0112
822.00,0.0109
821.00,0.0109
820.00,0.0111
819.00,0.0114
818.00,0.0118
817.00,0.0123
816.00,0.0130
815.00,0.0139
814.00,0.0151
813.00,0.0165
812.00,0.0180
811.00,0.0195
810.00,0.0207
809.00,0.0213
808.00,0.0210
807.00,0.0200
806.00,0.0184
805.00,0.0168
804.00,0.0153
803.00,0.0141
802.00,0.0131
801.00,0.0123
800.00,0.0117
799.00,0.0111
798.00,0.0106
797.00,0.0101
796.00,0.0096
795.00,0.0092
794.00,0.0089
793.00,0.0088
792.00,0.0086
791.00,0.0085
790.00,0.0083
789.00,0.0081
788.00,0.0079
787.00,0.0077
786.00,0.0074
785.00,0.0071
784.00,0.0068
783.00,0.0065
782.00,0.0063
781.00,0.0061
780.00,0.0060
779.00,0.0061
778.00,0.0062
777.00,0.0063
776.00,0.0064
775.00,0.0065
774.00,0.0068
773.00,0.0071
772.00,0.0075
771.00,0.0078
770.00,0.0081
769.00,0.0082
768.00,0.0083
767.00,0.0082
766.00,0.0080
765.00,0.0078
764.00,0.0076
763.00,0.0073
762.00,0.0069
761.00,0.0065
760.00,0.0062
759.00,0.0059
758.00,0.0056
757.00,0.0054
756.00,0.0052
755.00,0.0052
754.00,0.0052
753.00,0.0053
752.00,0.0053
751.00,0.0052
750.00,0.0051
749.00,0.0051
748.00,0.0050
747.00,0.0050
746.00,0.0051
745.00,0.0051
744.00,0.0052
743.00,0.0053
742.00,0.0055
741.00,0.0056
740.00,0.0058
739.00,0.0060
738.00,0.0061
737.00,0.0061
736.00,0.0061
735.00,0.0062
734.00,0.0063
733.00,0.0065
732.00,0.0066
731.00,0.0066
730.00,0.0065
729.00,0.0064
728.00,0.0064
727.00,0.0065
726.00,0.0064
725.00,0.0063
724.00,0.0062
723.00,0.0063
722.00,0.0064
721.00,0.0065
720.00,0.0064
719.00,0.0063
718.00,0.0061
717.00,0.0059
716.00,0.0058
715.00,0.0058
714.00,0.0059
713.00,0.0059
712.00,0.0058
711.00,0.0058
710.00,0.0057
709.00,0.0057
708.00,0.0056
707.00,0.0056
706.00,0.0055
705.00,0.0055
704.00,0.0054
703.00,0.0053
702.00,0.0052
701.00,0.0051
700.00,0.0050
699.00,0.0050
698.00,0.0051
697.00,0.0050
696.00,0.0048
695.00,0.0046
694.00,0.0044
693.00,0.0044
692.00,0.0045
691.00,0.0046
690.00,0.0047
689.00,0.0048
688.00,0.0048
687.00,0.0048
686.00,0.0047
685.00,0.0047
684.00,0.0047
683.00,0.0048
682.00,0.0051
681.00,0.0052
680.00,0.0053
679.00,0.0053
678.00,0.0053
677.00,0.0054
676.00,0.0056
675.00,0.0057
674.00,0.0057
673.00,0.0056
672.00,0.0054
671.00,0.0053
670.00,0.0052
669.00,0.0052
668.00,0.0054
667.00,0.0056
666.00,0.0056
665.00,0.0055
664.00,0.0054
663.00,0.0055
662.00,0.0056
661.00,0.0054
660.00,0.0051
659.00,0.0049
658.00,0.0050
657.00,0.0052
656.00,0.0053
655.00,0.0052
654.00,0.0051
653.00,0.0051
652.00,0.0051
651.00,0.0051
650.00,0.0052
649.00,0.0052
648.00,0.0052
647.00,0.0052
646.00,0.0054
645.00,0.0055
644.00,0.0055
643.00,0.0054
642.00,0.0053
641.00,0.0053
640.00,0.0053
639.00,0.0054
638.00,0.0056
637.00,0.0056
636.00,0.0055
635.00,0.0054
634.00,0.0052
633.00,0.0052
632.00,0.0053
631.00,0.0053
630.00,0.0054
629.00,0.0054
628.00,0.0055
627.00,0.0055
626.00,0.0054
625.00,0.0054
624.00,0.0054
623.00,0.0053
622.00,0.0052
621.00,0.0051
620.00,0.0049
619.00,0.0049
618.00,0.0048
617.00,0.0047
616.00,0.0047
615.00,0.0049
614.00,0.0052
613.00,0.0055
612.00,0.0058
611.00,0.0058
610.00,0.0059
609.00,0.0058
608.00,0.0058
607.00,0.0056
606.00,0.0054
605.00,0.0052
604.00,0.0049
603.00,0.0047
602.00,0.0046
601.00,0.0047
600.00,0.0048
599.00,0.0049
598.00,0.0048
597.00,0.0047
596.00,0.0047
595.00,0.0047
594.00,0.0048
593.00,0.0048
592.00,0.0047
591.00,0.0047
590.00,0.0048
589.00,0.0052
588.00,0.0056
587.00,0.0058
586.00,0.0058
585.00,0.0055
584.00,0.0051
583.00,0.0050
582.00,0.0051
581.00,0.0055
580.00,0.0059
579.00,0.0063
578.00,0.0064
577.00,0.0063
576.00,0.0062
575.00,0.0060
574.00,0.0058
573.00,0.0056
572.00,0.0056
571.00,0.0056
570.00,0.0058
569.00,0.0059
568.00,0.0061
567.00,0.0062
566.00,0.0062
565.00,0.0062
564.00,0.0061
563.00,0.0061
562.00,0.0060
561.00,0.0059
560.00,0.0057
559.00,0.0056
558.00,0.0055
557.00,0.0053
556.00,0.0053
555.00,0.0056
554.00,0.0060
553.00,0.0063
552.00,0.0064
551.00,0.0065
550.00,0.0066
549.00,0.0066
548.00,0.0063
547.00,0.0059
546.00,0.0056
545.00,0.0056
544.00,0.0058
543.00,0.0059
542.00,0.0059
541.00,0.0055
540.00,0.0053
539.00,0.0053
538.00,0.0058
537.00,0.0065
536.00,0.0072
535.00,0.0077
534.00,0.0080
533.00,0.0080
532.00,0.0077
531.00,0.0074
530.00,0.0071
529.00,0.0071
528.00,0.0072
527.00,0.0073
526.00,0.0071
525.00,0.0066
524.00,0.0063
523.00,0.0064
522.00,0.0068
521.00,0.0070
520.00,0.0069
519.00,0.0066
518.00,0.0064
517.00,0.0064
516.00,0.0067
515.00,0.0072
514.00,0.0077
513.00,0.0079
512.00,0.0077
511.00,0.0071
510.00,0.0063
509.00,0.0056
508.00,0.0054
507.00,0.0054
506.00,0.0054
505.00,0.0052
504.00,0.0047
503.00,0.0043
502.00,0.0043
501.00,0.0048
500.00,0.0053
499.00,0.0054
498.00,0.0051
497.00,0.0046
496.00,0.0042
495.00,0.0044
494.00,0.0050
493.00,0.0057
492.00,0.0060
491.00,0.0059
490.00,0.0058
489.00,0.0055
488.00,0.0052
487.00,0.0050
486.00,0.0051
485.00,0.0055
484.00,0.0061
483.00,0.0066
482.00,0.0069
481.00,0.0068
480.00,0.0065
479.00,0.0061
478.00,0.0059
477.00,0.0058
476.00,0.0059
475.00,0.0059
474.00,0.0060
473.00,0.0063
472.00,0.0069
471.00,0.0078
470.00,0.0081
469.00,0.0074
468.00,0.0062
467.00,0.0057
466.00,0.0062
465.00,0.0071
464.00,0.0078
463.00,0.0082
462.00,0.0091
461.00,0.0107
460.00,0.0124
459.00,0.0131
458.00,0.0124
457.00,0.0109
456.00,0.0101
455.00,0.0103
454.00,0.0106
453.00,0.0106
452.00,0.0104
451.00,0.0107
450.00,0.0111
