Created as New Dataset,Sample 131 By Administrator Date Wednesday, September 10 2025
cm-1,A
4000.00,0.0009
3999.00,0.0009
3998.00,0.0009
3997.00,0.0009
3996.00,0.0009
3995.00,0.0009
3994.00,0.0009
3993.00,0.0010
3992.00,0.0010
3991.00,0.0010
3990.00,0.0009
3989.00,0.0009
3988.00,0.0009
3987.00,0.0009
3986.00,0.0009
3985.00,0.0009
3984.00,0.0009
3983.00,0.0009
3982.00,0.0009
3981.00,0.0008
3980.00,0.0008
3979.00,0.0008
3978.00,0.0009
3977.00,0.0009
3976.00,0.0008
3975.00,0.0008
3974.00,0.0008
3973.00,0.0008
3972.00,0.0008
3971.00,0.0008
3970.00,0.0008
3969.00,0.0008
3968.00,0.0008
3967.00,0.0008
3966.00,0.0008
3965.00,0.0008
3964.00,0.0008
3963.00,0.0008
3962.00,0.0008
3961.00,0.0008
3960.00,0.0008
3959.00,0.0009
3958.00,0.0009
3957.00,0.0008
3956.00,0.0008
3955.00,0.0008
3954.00,0.0007
3953.00,0.0007
3952.00,0.0007
3951.00,0.0007
3950.00,0.0007
3949.00,0.0007
3948.00,0.0007
3947.00,0.0008
3946.00,0.0008
3945.00,0.0008
3944.00,0.0008
3943.00,0.0007
3942.00,0.0007
3941.00,0.0007
3940.00,0.0007
3939.00,0.0007
3938.00,0.0007
3937.00,0.0007
3936.00,0.0007
3935.00,0.0008
3934.00,0.0008
3933.00,0.0008
3932.00,0.0008
3931.00,0.0008
3930.00,0.0008
3929.00,0.0008
3928.00,0.0007
3927.00,0.0007
3926.00,0.0007
3925.00,0.0007
3924.00,0.0007
3923.00,0.0007
3922.00,0.0007
3921.00,0.0007
3920.00,0.0007
3919.00,0.0007
3918.00,0.0007
3917.00,0.0008
3916.00,0.0007
3915.00,0.0007
3914.00,0.0007
3913.00,0.0007
3912.00,0.0007
3911.00,0.0007
3910.00,0.0007
3909.00,0.0007
3908.00,0.0007
3907.00,0.0007
3906.00,0.0007
3905.00,0.0007
3904.00,0.0007
3903.00,0.0007
3902.00,0.0006
3901.00,0.0006
3900.00,0.0006
3899.00,0.0006
3898.00,0.0007
3897.00,0.0007
3896.00,0.0008
3895.00,0.0008
3894.00,0.0008
3893.00,0.0008
3892.00,0.0009
3891.00,0.0009
3890.00,0.0009
3889.00,0.0008
3888.00,0.0008
3887.00,0.0007
3886.00,0.0007
3885.00,0.0007
3884.00,0.0007
3883.00,0.0007
3882.00,0.0007
3881.00,0.0007
3880.00,0.0007
3879.00,0.0007
3878.00,0.0007
3877.00,0.0007
3876.00,0.0007
3875.00,0.0007
3874.00,0.0008
3873.00,0.0008
3872.00,0.0008
3871.00,0.0007
3870.00,0.0007
3869.00,0.0007
3868.00,0.0007
3867.00,0.0007
3866.00,0.0007
3865.00,0.0007
3864.00,0.0007
3863.00,0.0007
3862.00,0.0007
3861.00,0.0007
3860.00,0.0007
3859.00,0.0007
3858.00,0.0007
3857.00,0.0007
3856.00,0.0007
3855.00,0.0008
3854.00,0.0008
3853.00,0.0009
3852.00,0.0008
3851.00,0.0008
3850.00,0.0007
3849.00,0.0007
3848.00,0.0007
3847.00,0.0007
3846.00,0.0008
3845.00,0.0008
3844.00,0.0009
3843.00,0.0009
3842.00,0.0009
3841.00,0.0009
3840.00,0.0009
3839.00,0.0008
3838.00,0.0008
3837.00,0.0008
3836.00,0.0008
3835.00,0.0007
3834.00,0.0007
3833.00,0.0007
3832.00,0.0007
3831.00,0.0007
3830.00,0.0007
3829.00,0.0007
3828.00,0.0007
3827.00,0.0007
3826.00,0.0007
3825.00,0.0007
3824.00,0.0007
3823.00,0.0007
3822.00,0.0008
3821.00,0.0009
3820.00,0.0009
3819.00,0.0009
3818.00,0.0009
3817.00,0.0009
3816.00,0.0009
3815.00,0.0009
3814.00,0.0008
3813.00,0.0008
3812.00,0.0008
3811.00,0.0008
3810.00,0.0008
3809.00,0.0008
3808.00,0.0008
3807.00,0.0008
3806.00,0.0007
3805.00,0.0007
3804.00,0.0007
3803.00,0.0006
3802.00,0.0006
3801.00,0.0007
3800.00,0.0007
3799.00,0.0007
3798.00,0.0007
3797.00,0.0007
3796.00,0.0006
3795.00,0.0006
3794.00,0.0006
3793.00,0.0006
3792.00,0.0006
3791.00,0.0007
3790.00,0.0007
3789.00,0.0006
3788.00,0.0006
3787.00,0.0006
3786.00,0.0006
3785.00,0.0007
3784.00,0.0007
3783.00,0.0007
3782.00,0.0007
3781.00,0.0007
3780.00,0.0007
3779.00,0.0007
3778.00,0.0007
3777.00,0.0008
3776.00,0.0008
3775.00,0.0008
3774.00,0.0008
3773.00,0.0008
3772.00,0.0008
3771.00,0.0008
3770.00,0.0008
3769.00,0.0008
3768.00,0.0008
3767.00,0.0008
3766.00,0.0008
3765.00,0.0008
3764.00,0.0008
3763.00,0.0008
3762.00,0.0008
3761.00,0.0008
3760.00,0.0008
3759.00,0.0008
3758.00,0.0008
3757.00,0.0008
3756.00,0.0008
3755.00,0.0008
3754.00,0.0008
3753.00,0.0008
3752.00,0.0008
3751.00,0.0007
3750.00,0.0007
3749.00,0.0007
3748.00,0.0007
3747.00,0.0006
3746.00,0.0006
3745.00,0.0006
3744.00,0.0007
3743.00,0.0007
3742.00,0.0007
3741.00,0.0007
3740.00,0.0006
3739.00,0.0006
3738.00,0.0006
3737.00,0.0006
3736.00,0.0005
3735.00,0.0005
3734.00,0.0004
3733.00,0.0004
3732.00,0.0004
3731.00,0.0004
3730.00,0.0003
3729.00,0.0003
3728.00,0.0003
3727.00,0.0003
3726.00,0.0004
3725.00,0.0004
3724.00,0.0004
3723.00,0.0004
3722.00,0.0004
3721.00,0.0005
3720.00,0.0005
3719.00,0.0005
3718.00,0.0005
3717.00,0.0006
3716.00,0.0005
3715.00,0.0005
3714.00,0.0005
3713.00,0.0005
3712.00,0.0005
3711.00,0.0006
3710.00,0.0006
3709.00,0.0006
3708.00,0.0006
3707.00,0.0005
3706.00,0.0005
3705.00,0.0005
3704.00,0.0005
3703.00,0.0004
3702.00,0.0004
3701.00,0.0004
3700.00,0.0005
3699.00,0.0005
3698.00,0.0005
3697.00,0.0005
3696.00,0.0005
3695.00,0.0005
3694.00,0.0005
3693.00,0.0005
3692.00,0.0006
3691.00,0.0005
3690.00,0.0005
3689.00,0.0005
3688.00,0.0005
3687.00,0.0005
3686.00,0.0005
3685.00,0.0005
3684.00,0.0005
3683.00,0.0006
3682.00,0.0006
3681.00,0.0006
3680.00,0.0007
3679.00,0.0007
3678.00,0.0007
3677.00,0.0007
3676.00,0.0007
3675.00,0.0007
3674.00,0.0007
3673.00,0.0006
3672.00,0.0006
3671.00,0.0006
3670.00,0.0006
3669.00,0.0005
3668.00,0.0005
3667.00,0.0005
3666.00,0.0005
3665.00,0.0006
3664.00,0.0006
3663.00,0.0006
3662.00,0.0006
3661.00,0.0006
3660.00,0.0006
3659.00,0.0005
3658.00,0.0005
3657.00,0.0005
3656.00,0.0004
3655.00,0.0004
3654.00,0.0004
3653.00,0.0004
3652.00,0.0004
3651.00,0.0005
3650.00,0.0005
3649.00,0.0004
3648.00,0.0004
3647.00,0.0005
3646.00,0.0005
3645.00,0.0006
3644.00,0.0006
3643.00,0.0006
3642.00,0.0006
3641.00,0.0007
3640.00,0.0007
3639.00,0.0007
3638.00,0.0007
3637.00,0.0007
3636.00,0.0007
3635.00,0.0007
3634.00,0.0007
3633.00,0.0006
3632.00,0.0006
3631.00,0.0006
3630.00,0.0006
3629.00,0.0006
3628.00,0.0006
3627.00,0.0006
3626.00,0.0006
3625.00,0.0006
3624.00,0.0006
3623.00,0.0006
3622.00,0.0006
3621.00,0.0006
3620.00,0.0005
3619.00,0.0006
3618.00,0.0006
3617.00,0.0006
3616.00,0.0007
3615.00,0.0007
3614.00,0.0007
3613.00,0.0008
3612.00,0.0008
3611.00,0.0008
3610.00,0.0008
3609.00,0.0008
3608.00,0.0008
3607.00,0.0008
3606.00,0.0009
3605.00,0.0009
3604.00,0.0009
3603.00,0.0009
3602.00,0.0009
3601.00,0.0009
3600.00,0.0009
3599.00,0.0009
3598.00,0.0009
3597.00,0.0009
3596.00,0.0009
3595.00,0.0009
3594.00,0.0009
3593.00,0.0009
3592.00,0.0010
3591.00,0.0010
3590.00,0.0010
3589.00,0.0010
3588.00,0.0010
3587.00,0.0010
3586.00,0.0011
3585.00,0.0011
3584.00,0.0012
3583.00,0.0012
3582.00,0.0012
3581.00,0.0012
3580.00,0.0012
3579.00,0.0012
3578.00,0.0012
3577.00,0.0012
3576.00,0.0013
3575.00,0.0013
3574.00,0.0013
3573.00,0.0014
3572.00,0.0014
3571.00,0.0014
3570.00,0.0014
3569.00,0.0014
3568.00,0.0014
3567.00,0.0013
3566.00,0.0013
3565.00,0.0013
3564.00,0.0013
3563.00,0.0014
3562.00,0.0015
3561.00,0.0015
3560.00,0.0016
3559.00,0.0016
3558.00,0.0016
3557.00,0.0016
3556.00,0.0016
3555.00,0.0017
3554.00,0.0017
3553.00,0.0017
3552.00,0.0017
3551.00,0.0017
3550.00,0.0017
3549.00,0.0018
3548.00,0.0018
3547.00,0.0019
3546.00,0.0019
3545.00,0.0019
3544.00,0.0019
3543.00,0.0020
3542.00,0.0020
3541.00,0.0020
3540.00,0.0020
3539.00,0.0020
3538.00,0.0020
3537.00,0.0021
3536.00,0.0021
3535.00,0.0021
3534.00,0.0021
3533.00,0.0021
3532.00,0.0022
3531.00,0.0022
3530.00,0.0022
3529.00,0.0022
3528.00,0.0022
3527.00,0.0022
3526.00,0.0022
3525.00,0.0022
3524.00,0.0022
3523.00,0.0022
3522.00,0.0022
3521.00,0.0023
3520.00,0.0023
3519.00,0.0024
3518.00,0.0024
3517.00,0.0025
3516.00,0.0025
3515.00,0.0025
3514.00,0.0026
3513.00,0.0026
3512.00,0.0026
3511.00,0.0026
3510.00,0.0026
3509.00,0.0026
3508.00,0.0026
3507.00,0.0026
3506.00,0.0027
3505.00,0.0027
3504.00,0.0027
3503.00,0.0027
3502.00,0.0027
3501.00,0.0027
3500.00,0.0028
3499.00,0.0028
3498.00,0.0028
3497.00,0.0028
3496.00,0.0029
3495.00,0.0029
3494.00,0.0030
3493.00,0.0030
3492.00,0.0030
3491.00,0.0030
3490.00,0.0031
3489.00,0.0031
3488.00,0.0031
3487.00,0.0031
3486.00,0.0031
3485.00,0.0031
3484.00,0.0031
3483.00,0.0031
3482.00,0.0031
3481.00,0.0031
3480.00,0.0031
3479.00,0.0031
3478.00,0.0031
3477.00,0.0031
3476.00,0.0032
3475.00,0.0032
3474.00,0.0033
3473.00,0.0033
3472.00,0.0033
3471.00,0.0034
3470.00,0.0034
3469.00,0.0034
3468.00,0.0034
3467.00,0.0034
3466.00,0.0034
3465.00,0.0034
3464.00,0.0035
3463.00,0.0035
3462.00,0.0035
3461.00,0.0035
3460.00,0.0035
3459.00,0.0035
3458.00,0.0035
3457.00,0.0035
3456.00,0.0035
3455.00,0.0036
3454.00,0.0036
3453.00,0.0036
3452.00,0.0037
3451.00,0.0037
3450.00,0.0038
3449.00,0.0038
3448.00,0.0038
3447.00,0.0039
3446.00,0.0039
3445.00,0.0039
3444.00,0.0039
3443.00,0.0039
3442.00,0.0040
3441.00,0.0040
3440.00,0.0040
3439.00,0.0040
3438.00,0.0040
3437.00,0.0040
3436.00,0.0040
3435.00,0.0040
3434.00,0.0041
3433.00,0.0041
3432.00,0.0041
3431.00,0.0041
3430.00,0.0042
3429.00,0.0042
3428.00,0.0042
3427.00,0.0043
3426.00,0.0043
3425.00,0.0043
3424.00,0.0044
3423.00,0.0044
3422.00,0.0044
3421.00,0.0044
3420.00,0.0044
3419.00,0.0044
3418.00,0.0044
3417.00,0.0044
3416.00,0.0045
3415.00,0.0045
3414.00,0.0045
3413.00,0.0045
3412.00,0.0045
3411.00,0.0045
3410.00,0.0045
3409.00,0.0045
3408.00,0.0045
3407.00,0.0046
3406.00,0.0046
3405.00,0.0046
3404.00,0.0047
3403.00,0.0047
3402.00,0.0047
3401.00,0.0047
3400.00,0.0047
3399.00,0.0047
3398.00,0.0047
3397.00,0.0047
3396.00,0.0047
3395.00,0.0047
3394.00,0.0048
3393.00,0.0048
3392.00,0.0048
3391.00,0.0048
3390.00,0.0048
3389.00,0.0048
3388.00,0.0048
3387.00,0.0048
3386.00,0.0048
3385.00,0.0048
3384.00,0.0049
3383.00,0.0049
3382.00,0.0049
3381.00,0.0049
3380.00,0.0049
3379.00,0.0049
3378.00,0.0049
3377.00,0.0049
3376.00,0.0049
3375.00,0.0049
3374.00,0.0050
3373.00,0.0050
3372.00,0.0050
3371.00,0.0049
3370.00,0.0049
3369.00,0.0049
3368.00,0.0050
3367.00,0.0050
3366.00,0.0051
3365.00,0.0051
3364.00,0.0051
3363.00,0.0051
3362.00,0.0051
3361.00,0.0051
3360.00,0.0051
3359.00,0.0051
3358.00,0.0052
3357.00,0.0051
3356.00,0.0051
3355.00,0.0051
3354.00,0.0051
3353.00,0.0051
3352.00,0.0052
3351.00,0.0052
3350.00,0.0052
3349.00,0.0052
3348.00,0.0052
3347.00,0.0052
3346.00,0.0052
3345.00,0.0052
3344.00,0.0052
3343.00,0.0052
3342.00,0.0052
3341.00,0.0052
3340.00,0.0052
3339.00,0.0052
3338.00,0.0052
3337.00,0.0052
3336.00,0.0052
3335.00,0.0052
3334.00,0.0052
3333.00,0.0051
3332.00,0.0051
3331.00,0.0051
3330.00,0.0050
3329.00,0.0050
3328.00,0.0050
3327.00,0.0050
3326.00,0.0050
3325.00,0.0050
3324.00,0.0050
3323.00,0.0050
3322.00,0.0051
3321.00,0.0051
3320.00,0.0051
3319.00,0.0050
3318.00,0.0050
3317.00,0.0050
3316.00,0.0050
3315.00,0.0050
3314.00,0.0049
3313.00,0.0049
3312.00,0.0049
3311.00,0.0049
3310.00,0.0049
3309.00,0.0049
3308.00,0.0049
3307.00,0.0049
3306.00,0.0049
3305.00,0.0050
3304.00,0.0050
3303.00,0.0050
3302.00,0.0050
3301.00,0.0050
3300.00,0.0049
3299.00,0.0049
3298.00,0.0049
3297.00,0.0049
3296.00,0.0049
3295.00,0.0049
3294.00,0.0049
3293.00,0.0049
3292.00,0.0049
3291.00,0.0049
3290.00,0.0048
3289.00,0.0048
3288.00,0.0048
3287.00,0.0049
3286.00,0.0049
3285.00,0.0048
3284.00,0.0048
3283.00,0.0048
3282.00,0.0048
3281.00,0.0048
3280.00,0.0047
3279.00,0.0047
3278.00,0.0047
3277.00,0.0047
3276.00,0.0047
3275.00,0.0046
3274.00,0.0046
3273.00,0.0046
3272.00,0.0046
3271.00,0.0046
3270.00,0.0046
3269.00,0.0046
3268.00,0.0045
3267.00,0.0045
3266.00,0.0045
3265.00,0.0045
3264.00,0.0045
3263.00,0.0045
3262.00,0.0045
3261.00,0.0045
3260.00,0.0045
3259.00,0.0045
3258.00,0.0044
3257.00,0.0044
3256.00,0.0044
3255.00,0.0044
3254.00,0.0044
3253.00,0.0044
3252.00,0.0044
3251.00,0.0044
3250.00,0.0043
3249.00,0.0043
3248.00,0.0043
3247.00,0.0043
3246.00,0.0043
3245.00,0.0043
3244.00,0.0043
3243.00,0.0043
3242.00,0.0042
3241.00,0.0042
3240.00,0.0042
3239.00,0.0043
3238.00,0.0043
3237.00,0.0043
3236.00,0.0042
3235.00,0.0042
3234.00,0.0042
3233.00,0.0043
3232.00,0.0043
3231.00,0.0043
3230.00,0.0043
3229.00,0.0043
3228.00,0.0043
3227.00,0.0044
3226.00,0.0044
3225.00,0.0044
3224.00,0.0044
3223.00,0.0044
3222.00,0.0044
3221.00,0.0044
3220.00,0.0044
3219.00,0.0044
3218.00,0.0044
3217.00,0.0044
3216.00,0.0044
3215.00,0.0045
3214.00,0.0045
3213.00,0.0045
3212.00,0.0045
3211.00,0.0045
3210.00,0.0045
3209.00,0.0046
3208.00,0.0046
3207.00,0.0046
3206.00,0.0046
3205.00,0.0046
3204.00,0.0046
3203.00,0.0046
3202.00,0.0046
3201.00,0.0046
3200.00,0.0046
3199.00,0.0046
3198.00,0.0046
3197.00,0.0047
3196.00,0.0047
3195.00,0.0046
3194.00,0.0046
3193.00,0.0046
3192.00,0.0046
3191.00,0.0045
3190.00,0.0045
3189.00,0.0045
3188.00,0.0044
3187.00,0.0044
3186.00,0.0044
3185.00,0.0044
3184.00,0.0044
3183.00,0.0044
3182.00,0.0043
3181.00,0.0043
3180.00,0.0043
3179.00,0.0042
3178.00,0.0042
3177.00,0.0042
3176.00,0.0043
3175.00,0.0043
3174.00,0.0043
3173.00,0.0043
3172.00,0.0043
3171.00,0.0043
3170.00,0.0042
3169.00,0.0042
3168.00,0.0041
3167.00,0.0041
3166.00,0.0041
3165.00,0.0040
3164.00,0.0040
3163.00,0.0040
3162.00,0.0040
3161.00,0.0040
3160.00,0.0039
3159.00,0.0039
3158.00,0.0039
3157.00,0.0039
3156.00,0.0039
3155.00,0.0040
3154.00,0.0040
3153.00,0.0040
3152.00,0.0040
3151.00,0.0040
3150.00,0.0040
3149.00,0.0040
3148.00,0.0040
3147.00,0.0040
3146.00,0.0040
3145.00,0.0040
3144.00,0.0040
3143.00,0.0040
3142.00,0.0039
3141.00,0.0039
3140.00,0.0038
3139.00,0.0038
3138.00,0.0038
3137.00,0.0038
3136.00,0.0037
3135.00,0.0037
3134.00,0.0037
3133.00,0.0037
3132.00,0.0037
3131.00,0.0037
3130.00,0.0037
3129.00,0.0037
3128.00,0.0036
3127.00,0.0036
3126.00,0.0036
3125.00,0.0035
3124.00,0.0035
3123.00,0.0035
3122.00,0.0035
3121.00,0.0034
3120.00,0.0034
3119.00,0.0033
3118.00,0.0033
3117.00,0.0032
3116.00,0.0032
3115.00,0.0032
3114.00,0.0032
3113.00,0.0032
3112.00,0.0032
3111.00,0.0032
3110.00,0.0033
3109.00,0.0032
3108.00,0.0032
3107.00,0.0032
3106.00,0.0032
3105.00,0.0031
3104.00,0.0031
3103.00,0.0031
3102.00,0.0030
3101.00,0.0030
3100.00,0.0030
3099.00,0.0030
3098.00,0.0030
3097.00,0.0031
3096.00,0.0031
3095.00,0.0030
3094.00,0.0030
3093.00,0.0030
3092.00,0.0029
3091.00,0.0029
3090.00,0.0029
3089.00,0.0030
3088.00,0.0030
3087.00,0.0030
3086.00,0.0030
3085.00,0.0030
3084.00,0.0030
3083.00,0.0029
3082.00,0.0029
3081.00,0.0029
3080.00,0.0029
3079.00,0.0029
3078.00,0.0029
3077.00,0.0029
3076.00,0.0029
3075.00,0.0030
3074.00,0.0030
3073.00,0.0030
3072.00,0.0030
3071.00,0.0030
3070.00,0.0030
3069.00,0.0030
3068.00,0.0030
3067.00,0.0030
3066.00,0.0031
3065.00,0.0031
3064.00,0.0031
3063.00,0.0031
3062.00,0.0031
3061.00,0.0032
3060.00,0.0032
3059.00,0.0032
3058.00,0.0032
3057.00,0.0032
3056.00,0.0032
3055.00,0.0032
3054.00,0.0031
3053.00,0.0032
3052.00,0.0031
3051.00,0.0032
3050.00,0.0032
3049.00,0.0032
3048.00,0.0032
3047.00,0.0033
3046.00,0.0033
3045.00,0.0033
3044.00,0.0033
3043.00,0.0033
3042.00,0.0033
3041.00,0.0034
3040.00,0.0034
3039.00,0.0034
3038.00,0.0035
3037.00,0.0035
3036.00,0.0035
3035.00,0.0036
3034.00,0.0036
3033.00,0.0037
3032.00,0.0037
3031.00,0.0038
3030.00,0.0038
3029.00,0.0038
3028.00,0.0038
3027.00,0.0039
3026.00,0.0040
3025.00,0.0040
3024.00,0.0041
3023.00,0.0042
3022.00,0.0042
3021.00,0.0042
3020.00,0.0043
3019.00,0.0044
3018.00,0.0045
3017.00,0.0046
3016.00,0.0047
3015.00,0.0048
3014.00,0.0049
3013.00,0.0051
3012.00,0.0052
3011.00,0.0053
3010.00,0.0054
3009.00,0.0056
3008.00,0.0057
3007.00,0.0059
3006.00,0.0061
3005.00,0.0062
3004.00,0.0064
3003.00,0.0066
3002.00,0.0069
3001.00,0.0072
3000.00,0.0075
2999.00,0.0077
2998.00,0.0080
2997.00,0.0084
2996.00,0.0088
2995.00,0.0092
2994.00,0.0096
2993.00,0.0101
2992.00,0.0107
2991.00,0.0113
2990.00,0.0120
2989.00,0.0127
2988.00,0.0135
2987.00,0.0144
2986.00,0.0154
2985.00,0.0165
2984.00,0.0178
2983.00,0.0192
2982.00,0.0208
2981.00,0.0226
2980.00,0.0246
2979.00,0.0269
2978.00,0.0295
2977.00,0.0325
2976.00,0.0359
2975.00,0.0398
2974.00,0.0443
2973.00,0.0493
2972.00,0.0550
2971.00,0.0614
2970.00,0.0685
2969.00,0.0763
2968.00,0.0848
2967.00,0.0940
2966.00,0.1035
2965.00,0.1133
2964.00,0.1229
2963.00,0.1318
2962.00,0.1397
2961.00,0.1463
2960.00,0.1516
2959.00,0.1558
2958.00,0.1596
2957.00,0.1635
2956.00,0.1682
2955.00,0.1739
2954.00,0.1806
2953.00,0.1878
2952.00,0.1946
2951.00,0.1998
2950.00,0.2023
2949.00,0.2010
2948.00,0.1956
2947.00,0.1862
2946.00,0.1738
2945.00,0.1599
2944.00,0.1460
2943.00,0.1335
2942.00,0.1233
2941.00,0.1158
2940.00,0.1110
2939.00,0.1087
2938.00,0.1086
2937.00,0.1105
2936.00,0.1142
2935.00,0.1196
2934.00,0.1264
2933.00,0.1346
2932.00,0.1439
2931.00,0.1541
2930.00,0.1650
2929.00,0.1761
2928.00,0.1872
2927.00,0.1979
2926.00,0.2081
2925.00,0.2178
2924.00,0.2270
2923.00,0.2361
2922.00,0.2450
2921.00,0.2535
2920.00,0.2611
2919.00,0.2671
2918.00,0.2706
2917.00,0.2708
2916.00,0.2676
2915.00,0.2613
2914.00,0.2528
2913.00,0.2431
2912.00,0.2332
2911.00,0.2236
2910.00,0.2149
2909.00,0.2069
2908.00,0.1994
2907.00,0.1922
2906.00,0.1851
2905.00,0.1779
2904.00,0.1706
2903.00,0.1633
2902.00,0.1560
2901.00,0.1489
2900.00,0.1420
2899.00,0.1356
2898.00,0.1296
2897.00,0.1242
2896.00,0.1194
2895.00,0.1154
2894.00,0.1121
2893.00,0.1095
2892.00,0.1077
2891.00,0.1065
2890.00,0.1059
2889.00,0.1057
2888.00,0.1060
2887.00,0.1066
2886.00,0.1076
2885.00,0.1090
2884.00,0.1108
2883.00,0.1132
2882.00,0.1159
2881.00,0.1189
2880.00,0.1218
2879.00,0.1243
2878.00,0.1259
2877.00,0.1265
2876.00,0.1262
2875.00,0.1253
2874.00,0.1245
2873.00,0.1242
2872.00,0.1247
2871.00,0.1261
2870.00,0.1281
2869.00,0.1301
2868.00,0.1314
2867.00,0.1312
2866.00,0.1285
2865.00,0.1231
2864.00,0.1152
2863.00,0.1058
2862.00,0.0959
2861.00,0.0867
2860.00,0.0788
2859.00,0.0725
2858.00,0.0676
2857.00,0.0641
2856.00,0.0616
2855.00,0.0600
2854.00,0.0592
2853.00,0.0591
2852.00,0.0597
2851.00,0.0610
2850.00,0.0630
2849.00,0.0658
2848.00,0.0695
2847.00,0.0740
2846.00,0.0795
2845.00,0.0858
2844.00,0.0930
2843.00,0.1006
2842.00,0.1084
2841.00,0.1157
2840.00,0.1218
2839.00,0.1257
2838.00,0.1266
2837.00,0.1240
2836.00,0.1178
2835.00,0.1087
2834.00,0.0978
2833.00,0.0863
2832.00,0.0753
2831.00,0.0655
2830.00,0.0573
2829.00,0.0505
2828.00,0.0450
2827.00,0.0406
2826.00,0.0370
2825.00,0.0341
2824.00,0.0317
2823.00,0.0296
2822.00,0.0279
2821.00,0.0263
2820.00,0.0250
2819.00,0.0239
2818.00,0.0229
2817.00,0.0220
2816.00,0.0213
2815.00,0.0206
2814.00,0.0200
2813.00,0.0194
2812.00,0.0189
2811.00,0.0183
2810.00,0.0178
2809.00,0.0172
2808.00,0.0165
2807.00,0.0159
2806.00,0.0152
2805.00,0.0146
2804.00,0.0139
2803.00,0.0133
2802.00,0.0127
2801.00,0.0123
2800.00,0.0119
2799.00,0.0115
2798.00,0.0113
2797.00,0.0110
2796.00,0.0108
2795.00,0.0106
2794.00,0.0104
2793.00,0.0101
2792.00,0.0098
2791.00,0.0095
2790.00,0.0092
2789.00,0.0088
2788.00,0.0085
2787.00,0.0083
2786.00,0.0080
2785.00,0.0077
2784.00,0.0075
2783.00,0.0073
2782.00,0.0071
2781.00,0.0068
2780.00,0.0066
2779.00,0.0065
2778.00,0.0063
2777.00,0.0062
2776.00,0.0061
2775.00,0.0060
2774.00,0.0059
2773.00,0.0058
2772.00,0.0058
2771.00,0.0057
2770.00,0.0057
2769.00,0.0057
2768.00,0.0057
2767.00,0.0056
2766.00,0.0055
2765.00,0.0055
2764.00,0.0055
2763.00,0.0055
2762.00,0.0054
2761.00,0.0054
2760.00,0.0054
2759.00,0.0054
2758.00,0.0053
2757.00,0.0053
2756.00,0.0053
2755.00,0.0052
2754.00,0.0052
2753.00,0.0052
2752.00,0.0051
2751.00,0.0051
2750.00,0.0051
2749.00,0.0051
2748.00,0.0051
2747.00,0.0052
2746.00,0.0052
2745.00,0.0053
2744.00,0.0054
2743.00,0.0055
2742.00,0.0056
2741.00,0.0057
2740.00,0.0058
2739.00,0.0060
2738.00,0.0061
2737.00,0.0063
2736.00,0.0065
2735.00,0.0066
2734.00,0.0068
2733.00,0.0069
2732.00,0.0071
2731.00,0.0073
2730.00,0.0075
2729.00,0.0078
2728.00,0.0081
2727.00,0.0084
2726.00,0.0087
2725.00,0.0090
2724.00,0.0092
2723.00,0.0092
2722.00,0.0091
2721.00,0.0089
2720.00,0.0086
2719.00,0.0082
2718.00,0.0078
2717.00,0.0075
2716.00,0.0072
2715.00,0.0069
2714.00,0.0067
2713.00,0.0064
2712.00,0.0062
2711.00,0.0060
2710.00,0.0058
2709.00,0.0056
2708.00,0.0055
2707.00,0.0053
2706.00,0.0052
2705.00,0.0050
2704.00,0.0049
2703.00,0.0048
2702.00,0.0047
2701.00,0.0047
2700.00,0.0046
2699.00,0.0046
2698.00,0.0045
2697.00,0.0045
2696.00,0.0044
2695.00,0.0044
2694.00,0.0044
2693.00,0.0045
2692.00,0.0045
2691.00,0.0045
2690.00,0.0045
2689.00,0.0046
2688.00,0.0046
2687.00,0.0045
2686.00,0.0045
2685.00,0.0045
2684.00,0.0045
2683.00,0.0045
2682.00,0.0045
2681.00,0.0045
2680.00,0.0046
2679.00,0.0045
2678.00,0.0045
2677.00,0.0045
2676.00,0.0045
2675.00,0.0045
2674.00,0.0045
2673.00,0.0045
2672.00,0.0044
2671.00,0.0044
2670.00,0.0044
2669.00,0.0044
2668.00,0.0044
2667.00,0.0044
2666.00,0.0045
2665.00,0.0045
2664.00,0.0046
2663.00,0.0047
2662.00,0.0048
2661.00,0.0048
2660.00,0.0049
2659.00,0.0049
2658.00,0.0048
2657.00,0.0048
2656.00,0.0047
2655.00,0.0047
2654.00,0.0046
2653.00,0.0045
2652.00,0.0045
2651.00,0.0044
2650.00,0.0044
2649.00,0.0043
2648.00,0.0043
2647.00,0.0042
2646.00,0.0042
2645.00,0.0042
2644.00,0.0042
2643.00,0.0041
2642.00,0.0041
2641.00,0.0040
2640.00,0.0040
2639.00,0.0039
2638.00,0.0039
2637.00,0.0039
2636.00,0.0039
2635.00,0.0038
2634.00,0.0038
2633.00,0.0039
2632.00,0.0039
2631.00,0.0039
2630.00,0.0039
2629.00,0.0040
2628.00,0.0040
2627.00,0.0040
2626.00,0.0039
2625.00,0.0039
2624.00,0.0039
2623.00,0.0040
2622.00,0.0040
2621.00,0.0041
2620.00,0.0041
2619.00,0.0041
2618.00,0.0041
2617.00,0.0041
2616.00,0.0041
2615.00,0.0041
2614.00,0.0041
2613.00,0.0040
2612.00,0.0040
2611.00,0.0039
2610.00,0.0038
2609.00,0.0037
2608.00,0.0036
2607.00,0.0036
2606.00,0.0035
2605.00,0.0035
2604.00,0.0034
2603.00,0.0033
2602.00,0.0032
2601.00,0.0032
2600.00,0.0032
2599.00,0.0032
2598.00,0.0032
2597.00,0.0032
2596.00,0.0032
2595.00,0.0033
2594.00,0.0033
2593.00,0.0033
2592.00,0.0034
2591.00,0.0034
2590.00,0.0035
2589.00,0.0036
2588.00,0.0037
2587.00,0.0039
2586.00,0.0040
2585.00,0.0041
2584.00,0.0041
2583.00,0.0041
2582.00,0.0041
2581.00,0.0041
2580.00,0.0040
2579.00,0.0040
2578.00,0.0039
2577.00,0.0038
2576.00,0.0037
2575.00,0.0036
2574.00,0.0034
2573.00,0.0032
2572.00,0.0030
2571.00,0.0029
2570.00,0.0029
2569.00,0.0029
2568.00,0.0028
2567.00,0.0027
2566.00,0.0027
2565.00,0.0026
2564.00,0.0026
2563.00,0.0025
2562.00,0.0025
2561.00,0.0025
2560.00,0.0025
2559.00,0.0024
2558.00,0.0024
2557.00,0.0024
2556.00,0.0024
2555.00,0.0024
2554.00,0.0023
2553.00,0.0022
2552.00,0.0022
2551.00,0.0022
2550.00,0.0022
2549.00,0.0022
2548.00,0.0022
2547.00,0.0021
2546.00,0.0020
2545.00,0.0019
2544.00,0.0019
2543.00,0.0019
2542.00,0.0019
2541.00,0.0019
2540.00,0.0019
2539.00,0.0019
2538.00,0.0019
2537.00,0.0019
2536.00,0.0018
2535.00,0.0018
2534.00,0.0018
2533.00,0.0018
2532.00,0.0018
2531.00,0.0017
2530.00,0.0017
2529.00,0.0016
2528.00,0.0016
2527.00,0.0015
2526.00,0.0015
2525.00,0.0015
2524.00,0.0014
2523.00,0.0014
2522.00,0.0014
2521.00,0.0014
2520.00,0.0014
2519.00,0.0014
2518.00,0.0014
2517.00,0.0014
2516.00,0.0013
2515.00,0.0013
2514.00,0.0012
2513.00,0.0012
2512.00,0.0012
2511.00,0.0011
2510.00,0.0011
2509.00,0.0011
2508.00,0.0011
2507.00,0.0011
2506.00,0.0011
2505.00,0.0011
2504.00,0.0010
2503.00,0.0010
2502.00,0.0010
2501.00,0.0010
2500.00,0.0011
2499.00,0.0011
2498.00,0.0011
2497.00,0.0011
2496.00,0.0012
2495.00,0.0012
2494.00,0.0012
2493.00,0.0012
2492.00,0.0012
2491.00,0.0012
2490.00,0.0012
2489.00,0.0011
2488.00,0.0011
2487.00,0.0010
2486.00,0.0011
2485.00,0.0011
2484.00,0.0011
2483.00,0.0011
2482.00,0.0011
2481.00,0.0011
2480.00,0.0011
2479.00,0.0011
2478.00,0.0010
2477.00,0.0010
2476.00,0.0010
2475.00,0.0009
2474.00,0.0009
2473.00,0.0009
2472.00,0.0009
2471.00,0.0009
2470.00,0.0010
2469.00,0.0010
2468.00,0.0010
2467.00,0.0010
2466.00,0.0010
2465.00,0.0010
2464.00,0.0010
2463.00,0.0010
2462.00,0.0011
2461.00,0.0011
2460.00,0.0012
2459.00,0.0012
2458.00,0.0012
2457.00,0.0012
2456.00,0.0012
2455.00,0.0012
2454.00,0.0011
2453.00,0.0011
2452.00,0.0011
2451.00,0.0011
2450.00,0.0011
2449.00,0.0011
2448.00,0.0012
2447.00,0.0012
2446.00,0.0012
2445.00,0.0011
2444.00,0.0011
2443.00,0.0011
2442.00,0.0011
2441.00,0.0011
2440.00,0.0012
2439.00,0.0012
2438.00,0.0013
2437.00,0.0013
2436.00,0.0012
2435.00,0.0012
2434.00,0.0012
2433.00,0.0012
2432.00,0.0012
2431.00,0.0012
2430.00,0.0013
2429.00,0.0013
2428.00,0.0014
2427.00,0.0015
2426.00,0.0015
2425.00,0.0015
2424.00,0.0014
2423.00,0.0013
2422.00,0.0013
2421.00,0.0012
2420.00,0.0011
2419.00,0.0010
2418.00,0.0010
2417.00,0.0010
2416.00,0.0011
2415.00,0.0011
2414.00,0.0011
2413.00,0.0011
2412.00,0.0011
2411.00,0.0011
2410.00,0.0011
2409.00,0.0011
2408.00,0.0010
2407.00,0.0010
2406.00,0.0009
2405.00,0.0009
2404.00,0.0009
2403.00,0.0010
2402.00,0.0010
2401.00,0.0010
2400.00,0.0009
2399.00,0.0009
2398.00,0.0009
2397.00,0.0009
2396.00,0.0009
2395.00,0.0009
2394.00,0.0009
2393.00,0.0009
2392.00,0.0009
2391.00,0.0010
2390.00,0.0010
2389.00,0.0009
2388.00,0.0008
2387.00,0.0007
2386.00,0.0007
2385.00,0.0006
2384.00,0.0005
2383.00,0.0004
2382.00,0.0003
2381.00,0.0003
2380.00,0.0002
2379.00,0.0001
2378.00,0.0001
2377.00,0.0002
2376.00,0.0002
2375.00,0.0002
2374.00,0.0002
2373.00,0.0001
2372.00,-0.0000
2371.00,-0.0001
2370.00,-0.0002
2369.00,-0.0002
2368.00,-0.0002
2367.00,-0.0002
2366.00,-0.0002
2365.00,-0.0001
2364.00,-0.0000
2363.00,0.0001
2362.00,0.0001
2361.00,0.0001
2360.00,0.0001
2359.00,-0.0000
2358.00,-0.0001
2357.00,-0.0001
2356.00,-0.0001
2355.00,-0.0001
2354.00,-0.0001
2353.00,-0.0001
2352.00,-0.0001
2351.00,-0.0001
2350.00,-0.0001
2349.00,-0.0000
2348.00,0.0000
2347.00,0.0000
2346.00,-0.0000
2345.00,-0.0000
2344.00,0.0000
2343.00,0.0001
2342.00,0.0001
2341.00,0.0002
2340.00,0.0002
2339.00,0.0002
2338.00,0.0002
2337.00,0.0002
2336.00,0.0002
2335.00,0.0002
2334.00,0.0001
2333.00,0.0001
2332.00,0.0000
2331.00,0.0000
2330.00,0.0000
2329.00,0.0001
2328.00,0.0004
2327.00,0.0008
2326.00,0.0012
2325.00,0.0016
2324.00,0.0017
2323.00,0.0017
2322.00,0.0015
2321.00,0.0012
2320.00,0.0011
2319.00,0.0010
2318.00,0.0009
2317.00,0.0009
2316.00,0.0009
2315.00,0.0009
2314.00,0.0008
2313.00,0.0007
2312.00,0.0006
2311.00,0.0006
2310.00,0.0006
2309.00,0.0006
2308.00,0.0007
2307.00,0.0007
2306.00,0.0008
2305.00,0.0007
2304.00,0.0007
2303.00,0.0007
2302.00,0.0007
2301.00,0.0008
2300.00,0.0009
2299.00,0.0010
2298.00,0.0011
2297.00,0.0011
2296.00,0.0011
2295.00,0.0012
2294.00,0.0014
2293.00,0.0016
2292.00,0.0017
2291.00,0.0018
2290.00,0.0018
2289.00,0.0018
2288.00,0.0018
2287.00,0.0019
2286.00,0.0019
2285.00,0.0019
2284.00,0.0018
2283.00,0.0017
2282.00,0.0015
2281.00,0.0014
2280.00,0.0014
2279.00,0.0014
2278.00,0.0013
2277.00,0.0013
2276.00,0.0013
2275.00,0.0013
2274.00,0.0013
2273.00,0.0014
2272.00,0.0015
2271.00,0.0016
2270.00,0.0016
2269.00,0.0016
2268.00,0.0015
2267.00,0.0015
2266.00,0.0014
2265.00,0.0013
2264.00,0.0012
2263.00,0.0011
2262.00,0.0011
2261.00,0.0011
2260.00,0.0012
2259.00,0.0014
2258.00,0.0015
2257.00,0.0016
2256.00,0.0016
2255.00,0.0014
2254.00,0.0012
2253.00,0.0011
2252.00,0.0010
2251.00,0.0010
2250.00,0.0010
2249.00,0.0009
2248.00,0.0009
2247.00,0.0010
2246.00,0.0010
2245.00,0.0010
2244.00,0.0010
2243.00,0.0009
2242.00,0.0009
2241.00,0.0009
2240.00,0.0009
2239.00,0.0009
2238.00,0.0009
2237.00,0.0009
2236.00,0.0009
2235.00,0.0009
2234.00,0.0008
2233.00,0.0008
2232.00,0.0008
2231.00,0.0008
2230.00,0.0008
2229.00,0.0008
2228.00,0.0008
2227.00,0.0008
2226.00,0.0007
2225.00,0.0007
2224.00,0.0007
2223.00,0.0008
2222.00,0.0008
2221.00,0.0007
2220.00,0.0006
2219.00,0.0005
2218.00,0.0004
2217.00,0.0004
2216.00,0.0004
2215.00,0.0005
2214.00,0.0006
2213.00,0.0007
2212.00,0.0006
2211.00,0.0005
2210.00,0.0005
2209.00,0.0006
2208.00,0.0009
2207.00,0.0011
2206.00,0.0012
2205.00,0.0011
2204.00,0.0010
2203.00,0.0008
2202.00,0.0008
2201.00,0.0009
2200.00,0.0011
2199.00,0.0012
2198.00,0.0011
2197.00,0.0009
2196.00,0.0006
2195.00,0.0005
2194.00,0.0005
2193.00,0.0008
2192.00,0.0011
2191.00,0.0013
2190.00,0.0013
2189.00,0.0012
2188.00,0.0010
2187.00,0.0010
2186.00,0.0011
2185.00,0.0013
2184.00,0.0014
2183.00,0.0014
2182.00,0.0011
2181.00,0.0009
2180.00,0.0007
2179.00,0.0005
2178.00,0.0003
2177.00,0.0003
2176.00,0.0003
2175.00,0.0003
2174.00,0.0003
2173.00,0.0005
2172.00,0.0008
2171.00,0.0011
2170.00,0.0015
2169.00,0.0018
2168.00,0.0020
2167.00,0.0019
2166.00,0.0018
2165.00,0.0018
2164.00,0.0018
2163.00,0.0018
2162.00,0.0017
2161.00,0.0012
2160.00,0.0003
2159.00,-0.0010
2158.00,-0.0020
2157.00,-0.0024
2156.00,-0.0023
2155.00,-0.0021
2154.00,-0.0018
2153.00,-0.0015
2152.00,-0.0013
2151.00,-0.0012
2150.00,-0.0012
2149.00,-0.0010
2148.00,-0.0009
2147.00,-0.0007
2146.00,-0.0007
2145.00,-0.0008
2144.00,-0.0009
2143.00,-0.0011
2142.00,-0.0012
2141.00,-0.0011
2140.00,-0.0011
2139.00,-0.0011
2138.00,-0.0011
2137.00,-0.0012
2136.00,-0.0014
2135.00,-0.0016
2134.00,-0.0017
2133.00,-0.0017
2132.00,-0.0016
2131.00,-0.0014
2130.00,-0.0012
2129.00,-0.0010
2128.00,-0.0008
2127.00,-0.0006
2126.00,-0.0005
2125.00,-0.0003
2124.00,-0.0003
2123.00,-0.0002
2122.00,-0.0001
2121.00,-0.0000
2120.00,0.0001
2119.00,0.0002
2118.00,0.0004
2117.00,0.0005
2116.00,0.0006
2115.00,0.0006
2114.00,0.0006
2113.00,0.0006
2112.00,0.0005
2111.00,0.0005
2110.00,0.0004
2109.00,0.0003
2108.00,0.0002
2107.00,0.0002
2106.00,0.0002
2105.00,0.0002
2104.00,0.0003
2103.00,0.0003
2102.00,0.0002
2101.00,0.0001
2100.00,0.0001
2099.00,0.0000
2098.00,-0.0000
2097.00,-0.0001
2096.00,-0.0002
2095.00,-0.0003
2094.00,-0.0003
2093.00,-0.0003
2092.00,-0.0002
2091.00,-0.0001
2090.00,-0.0000
2089.00,0.0000
2088.00,0.0001
2087.00,0.0001
2086.00,0.0001
2085.00,0.0001
2084.00,0.0002
2083.00,0.0003
2082.00,0.0005
2081.00,0.0006
2080.00,0.0006
2079.00,0.0005
2078.00,0.0003
2077.00,0.0003
2076.00,0.0003
2075.00,0.0004
2074.00,0.0004
2073.00,0.0004
2072.00,0.0004
2071.00,0.0004
2070.00,0.0004
2069.00,0.0003
2068.00,0.0003
2067.00,0.0003
2066.00,0.0003
2065.00,0.0002
2064.00,0.0002
2063.00,0.0000
2062.00,-0.0001
2061.00,-0.0002
2060.00,-0.0002
2059.00,-0.0001
2058.00,-0.0000
2057.00,0.0001
2056.00,0.0001
2055.00,0.0001
2054.00,0.0002
2053.00,0.0004
2052.00,0.0007
2051.00,0.0009
2050.00,0.0010
2049.00,0.0010
2048.00,0.0008
2047.00,0.0006
2046.00,0.0004
2045.00,0.0001
2044.00,-0.0001
2043.00,-0.0002
2042.00,-0.0004
2041.00,-0.0006
2040.00,-0.0007
2039.00,-0.0007
2038.00,-0.0007
2037.00,-0.0006
2036.00,-0.0006
2035.00,-0.0006
2034.00,-0.0007
2033.00,-0.0006
2032.00,-0.0005
2031.00,-0.0004
2030.00,-0.0004
2029.00,-0.0005
2028.00,-0.0006
2027.00,-0.0007
2026.00,-0.0007
2025.00,-0.0006
2024.00,-0.0006
2023.00,-0.0008
2022.00,-0.0011
2021.00,-0.0013
2020.00,-0.0015
2019.00,-0.0015
2018.00,-0.0014
2017.00,-0.0012
2016.00,-0.0009
2015.00,-0.0008
2014.00,-0.0007
2013.00,-0.0008
2012.00,-0.0009
2011.00,-0.0010
2010.00,-0.0010
2009.00,-0.0009
2008.00,-0.0010
2007.00,-0.0013
2006.00,-0.0016
2005.00,-0.0017
2004.00,-0.0016
2003.00,-0.0016
2002.00,-0.0015
2001.00,-0.0015
2000.00,-0.0014
1999.00,-0.0013
1998.00,-0.0013
1997.00,-0.0013
1996.00,-0.0015
1995.00,-0.0017
1994.00,-0.0018
1993.00,-0.0015
1992.00,-0.0010
1991.00,-0.0006
1990.00,-0.0003
1989.00,-0.0001
1988.00,-0.0000
1987.00,0.0000
1986.00,-0.0000
1985.00,-0.0000
1984.00,0.0000
1983.00,0.0001
1982.00,0.0005
1981.00,0.0010
1980.00,0.0013
1979.00,0.0011
1978.00,0.0005
1977.00,-0.0002
1976.00,-0.0007
1975.00,-0.0009
1974.00,-0.0011
1973.00,-0.0012
1972.00,-0.0015
1971.00,-0.0018
1970.00,-0.0021
1969.00,-0.0023
1968.00,-0.0024
1967.00,-0.0025
1966.00,-0.0024
1965.00,-0.0022
1964.00,-0.0019
1963.00,-0.0017
1962.00,-0.0016
1961.00,-0.0017
1960.00,-0.0019
1959.00,-0.0021
1958.00,-0.0022
1957.00,-0.0020
1956.00,-0.0016
1955.00,-0.0013
1954.00,-0.0011
1953.00,-0.0009
1952.00,-0.0010
1951.00,-0.0011
1950.00,-0.0012
1949.00,-0.0012
1948.00,-0.0013
1947.00,-0.0013
1946.00,-0.0014
1945.00,-0.0015
1944.00,-0.0016
1943.00,-0.0017
1942.00,-0.0017
1941.00,-0.0017
1940.00,-0.0017
1939.00,-0.0017
1938.00,-0.0017
1937.00,-0.0015
1936.00,-0.0013
1935.00,-0.0012
1934.00,-0.0010
1933.00,-0.0009
1932.00,-0.0007
1931.00,-0.0006
1930.00,-0.0006
1929.00,-0.0007
1928.00,-0.0008
1927.00,-0.0009
1926.00,-0.0010
1925.00,-0.0010
1924.00,-0.0009
1923.00,-0.0007
1922.00,-0.0006
1921.00,-0.0004
1920.00,-0.0003
1919.00,-0.0003
1918.00,-0.0003
1917.00,-0.0004
1916.00,-0.0005
1915.00,-0.0005
1914.00,-0.0004
1913.00,-0.0003
1912.00,-0.0003
1911.00,-0.0002
1910.00,-0.0003
1909.00,-0.0003
1908.00,-0.0003
1907.00,-0.0004
1906.00,-0.0003
1905.00,-0.0002
1904.00,-0.0002
1903.00,-0.0001
1902.00,-0.0001
1901.00,-0.0002
1900.00,-0.0002
1899.00,-0.0002
1898.00,-0.0001
1897.00,0.0000
1896.00,0.0001
1895.00,0.0002
1894.00,0.0002
1893.00,0.0002
1892.00,0.0001
1891.00,-0.0000
1890.00,-0.0001
1889.00,-0.0001
1888.00,-0.0000
1887.00,-0.0001
1886.00,-0.0002
1885.00,-0.0002
1884.00,-0.0003
1883.00,-0.0002
1882.00,-0.0002
1881.00,-0.0002
1880.00,-0.0002
1879.00,-0.0002
1878.00,-0.0002
1877.00,-0.0002
1876.00,-0.0002
1875.00,-0.0002
1874.00,-0.0002
1873.00,-0.0001
1872.00,-0.0001
1871.00,-0.0002
1870.00,-0.0002
1869.00,-0.0002
1868.00,-0.0002
1867.00,-0.0001
1866.00,-0.0001
1865.00,-0.0000
1864.00,-0.0000
1863.00,0.0000
1862.00,0.0000
1861.00,0.0001
1860.00,0.0001
1859.00,0.0001
1858.00,0.0001
1857.00,0.0001
1856.00,0.0001
1855.00,0.0001
1854.00,0.0001
1853.00,0.0000
1852.00,0.0001
1851.00,0.0001
1850.00,0.0002
1849.00,0.0002
1848.00,0.0002
1847.00,0.0001
1846.00,0.0001
1845.00,0.0001
1844.00,0.0002
1843.00,0.0002
1842.00,0.0001
1841.00,0.0001
1840.00,0.0001
1839.00,0.0001
1838.00,0.0001
1837.00,0.0002
1836.00,0.0002
1835.00,0.0003
1834.00,0.0003
1833.00,0.0003
1832.00,0.0003
1831.00,0.0003
1830.00,0.0003
1829.00,0.0003
1828.00,0.0003
1827.00,0.0003
1826.00,0.0004
1825.00,0.0004
1824.00,0.0005
1823.00,0.0004
1822.00,0.0004
1821.00,0.0003
1820.00,0.0002
1819.00,0.0001
1818.00,-0.0000
1817.00,-0.0001
1816.00,-0.0002
1815.00,-0.0001
1814.00,-0.0000
1813.00,0.0001
1812.00,0.0002
1811.00,0.0003
1810.00,0.0003
1809.00,0.0003
1808.00,0.0004
1807.00,0.0004
1806.00,0.0004
1805.00,0.0004
1804.00,0.0004
1803.00,0.0004
1802.00,0.0004
1801.00,0.0004
1800.00,0.0004
1799.00,0.0005
1798.00,0.0005
1797.00,0.0005
1796.00,0.0005
1795.00,0.0005
1794.00,0.0006
1793.00,0.0006
1792.00,0.0007
1791.00,0.0007
1790.00,0.0007
1789.00,0.0008
1788.00,0.0008
1787.00,0.0008
1786.00,0.0008
1785.00,0.0008
1784.00,0.0007
1783.00,0.0007
1782.00,0.0007
1781.00,0.0007
1780.00,0.0007
1779.00,0.0007
1778.00,0.0006
1777.00,0.0006
1776.00,0.0006
1775.00,0.0006
1774.00,0.0007
1773.00,0.0008
1772.00,0.0009
1771.00,0.0010
1770.00,0.0010
1769.00,0.0010
1768.00,0.0010
1767.00,0.0010
1766.00,0.0010
1765.00,0.0010
1764.00,0.0010
1763.00,0.0010
1762.00,0.0010
1761.00,0.0011
1760.00,0.0011
1759.00,0.0012
1758.00,0.0012
1757.00,0.0013
1756.00,0.0013
1755.00,0.0013
1754.00,0.0013
1753.00,0.0014
1752.00,0.0014
1751.00,0.0015
1750.00,0.0015
1749.00,0.0016
1748.00,0.0017
1747.00,0.0018
1746.00,0.0018
1745.00,0.0019
1744.00,0.0020
1743.00,0.0020
1742.00,0.0020
1741.00,0.0020
1740.00,0.0020
1739.00,0.0021
1738.00,0.0021
1737.00,0.0022
1736.00,0.0022
1735.00,0.0022
1734.00,0.0023
1733.00,0.0023
1732.00,0.0023
1731.00,0.0023
1730.00,0.0023
1729.00,0.0023
1728.00,0.0023
1727.00,0.0023
1726.00,0.0023
1725.00,0.0023
1724.00,0.0023
1723.00,0.0023
1722.00,0.0023
1721.00,0.0022
1720.00,0.0021
1719.00,0.0021
1718.00,0.0020
1717.00,0.0021
1716.00,0.0021
1715.00,0.0022
1714.00,0.0023
1713.00,0.0024
1712.00,0.0024
1711.00,0.0024
1710.00,0.0024
1709.00,0.0024
1708.00,0.0024
1707.00,0.0024
1706.00,0.0024
1705.00,0.0025
1704.00,0.0026
1703.00,0.0026
1702.00,0.0026
1701.00,0.0026
1700.00,0.0026
1699.00,0.0026
1698.00,0.0026
1697.00,0.0026
1696.00,0.0027
1695.00,0.0028
1694.00,0.0029
1693.00,0.0030
1692.00,0.0030
1691.00,0.0031
1690.00,0.0031
1689.00,0.0031
1688.00,0.0032
1687.00,0.0032
1686.00,0.0032
1685.00,0.0032
1684.00,0.0034
1683.00,0.0035
1682.00,0.0036
1681.00,0.0036
1680.00,0.0038
1679.00,0.0038
1678.00,0.0039
1677.00,0.0039
1676.00,0.0040
1675.00,0.0040
1674.00,0.0041
1673.00,0.0041
1672.00,0.0041
1671.00,0.0041
1670.00,0.0041
1669.00,0.0042
1668.00,0.0044
1667.00,0.0044
1666.00,0.0045
1665.00,0.0045
1664.00,0.0045
1663.00,0.0046
1662.00,0.0047
1661.00,0.0048
1660.00,0.0048
1659.00,0.0049
1658.00,0.0049
1657.00,0.0049
1656.00,0.0050
1655.00,0.0051
1654.00,0.0052
1653.00,0.0053
1652.00,0.0053
1651.00,0.0054
1650.00,0.0054
1649.00,0.0055
1648.00,0.0056
1647.00,0.0057
1646.00,0.0058
1645.00,0.0058
1644.00,0.0058
1643.00,0.0057
1642.00,0.0057
1641.00,0.0057
1640.00,0.0057
1639.00,0.0058
1638.00,0.0058
1637.00,0.0058
1636.00,0.0058
1635.00,0.0058
1634.00,0.0057
1633.00,0.0057
1632.00,0.0057
1631.00,0.0057
1630.00,0.0057
1629.00,0.0057
1628.00,0.0057
1627.00,0.0057
1626.00,0.0056
1625.00,0.0055
1624.00,0.0055
1623.00,0.0054
1622.00,0.0054
1621.00,0.0054
1620.00,0.0055
1619.00,0.0055
1618.00,0.0054
1617.00,0.0054
1616.00,0.0054
1615.00,0.0054
1614.00,0.0054
1613.00,0.0054
1612.00,0.0055
1611.00,0.0054
1610.00,0.0054
1609.00,0.0053
1608.00,0.0053
1607.00,0.0053
1606.00,0.0053
1605.00,0.0053
1604.00,0.0054
1603.00,0.0054
1602.00,0.0054
1601.00,0.0054
1600.00,0.0055
1599.00,0.0055
1598.00,0.0055
1597.00,0.0055
1596.00,0.0055
1595.00,0.0054
1594.00,0.0054
1593.00,0.0054
1592.00,0.0054
1591.00,0.0054
1590.00,0.0054
1589.00,0.0053
1588.00,0.0054
1587.00,0.0054
1586.00,0.0055
1585.00,0.0055
1584.00,0.0056
1583.00,0.0056
1582.00,0.0056
1581.00,0.0057
1580.00,0.0057
1579.00,0.0058
1578.00,0.0058
1577.00,0.0058
1576.00,0.0058
1575.00,0.0058
1574.00,0.0058
1573.00,0.0058
1572.00,0.0058
1571.00,0.0058
1570.00,0.0057
1569.00,0.0057
1568.00,0.0057
1567.00,0.0057
1566.00,0.0056
1565.00,0.0056
1564.00,0.0056
1563.00,0.0057
1562.00,0.0057
1561.00,0.0057
1560.00,0.0059
1559.00,0.0060
1558.00,0.0059
1557.00,0.0059
1556.00,0.0060
1555.00,0.0060
1554.00,0.0061
1553.00,0.0061
1552.00,0.0062
1551.00,0.0062
1550.00,0.0062
1549.00,0.0063
1548.00,0.0064
1547.00,0.0064
1546.00,0.0064
1545.00,0.0065
1544.00,0.0066
1543.00,0.0065
1542.00,0.0065
1541.00,0.0064
1540.00,0.0064
1539.00,0.0063
1538.00,0.0062
1537.00,0.0062
1536.00,0.0061
1535.00,0.0059
1534.00,0.0058
1533.00,0.0056
1532.00,0.0056
1531.00,0.0055
1530.00,0.0054
1529.00,0.0054
1528.00,0.0054
1527.00,0.0053
1526.00,0.0053
1525.00,0.0053
1524.00,0.0054
1523.00,0.0054
1522.00,0.0053
1521.00,0.0053
1520.00,0.0054
1519.00,0.0054
1518.00,0.0055
1517.00,0.0056
1516.00,0.0057
1515.00,0.0057
1514.00,0.0058
1513.00,0.0059
1512.00,0.0061
1511.00,0.0062
1510.00,0.0062
1509.00,0.0063
1508.00,0.0065
1507.00,0.0066
1506.00,0.0066
1505.00,0.0067
1504.00,0.0068
1503.00,0.0069
1502.00,0.0071
1501.00,0.0073
1500.00,0.0075
1499.00,0.0077
1498.00,0.0078
1497.00,0.0081
1496.00,0.0085
1495.00,0.0087
1494.00,0.0089
1493.00,0.0092
1492.00,0.0095
1491.00,0.0098
1490.00,0.0102
1489.00,0.0107
1488.00,0.0113
1487.00,0.0117
1486.00,0.0122
1485.00,0.0129
1484.00,0.0135
1483.00,0.0142
1482.00,0.0150
1481.00,0.0161
1480.00,0.0173
1479.00,0.0185
1478.00,0.0200
1477.00,0.0219
1476.00,0.0242
1475.00,0.0267
1474.00,0.0302
1473.00,0.0355
1472.00,0.0421
1471.00,0.0485
1470.00,0.0547
1469.00,0.0612
1468.00,0.0684
1467.00,0.0764
1466.00,0.0855
1465.00,0.0956
1464.00,0.1046
1463.00,0.1111
1462.00,0.1156
1461.00,0.1188
1460.00,0.1212
1459.00,0.1230
1458.00,0.1246
1457.00,0.1261
1456.00,0.1266
1455.00,0.1263
1454.00,0.1256
1453.00,0.1242
1452.00,0.1219
1451.00,0.1181
1450.00,0.1126
1449.00,0.1049
1448.00,0.0950
1447.00,0.0845
1446.00,0.0751
1445.00,0.0671
1444.00,0.0604
1443.00,0.0550
1442.00,0.0510
1441.00,0.0483
1440.00,0.0467
1439.00,0.0462
1438.00,0.0464
1437.00,0.0467
1436.00,0.0458
1435.00,0.0432
1434.00,0.0392
1433.00,0.0345
1432.00,0.0296
1431.00,0.0252
1430.00,0.0219
1429.00,0.0196
1428.00,0.0180
1427.00,0.0170
1426.00,0.0164
1425.00,0.0158
1424.00,0.0152
1423.00,0.0149
1422.00,0.0147
1421.00,0.0145
1420.00,0.0141
1419.00,0.0139
1418.00,0.0137
1417.00,0.0134
1416.00,0.0132
1415.00,0.0131
1414.00,0.0130
1413.00,0.0128
1412.00,0.0125
1411.00,0.0124
1410.00,0.0124
1409.00,0.0123
1408.00,0.0122
1407.00,0.0121
1406.00,0.0122
1405.00,0.0121
1404.00,0.0121
1403.00,0.0122
1402.00,0.0124
1401.00,0.0126
1400.00,0.0127
1399.00,0.0129
1398.00,0.0131
1397.00,0.0133
1396.00,0.0135
1395.00,0.0139
1394.00,0.0145
1393.00,0.0150
1392.00,0.0156
1391.00,0.0164
1390.00,0.0176
1389.00,0.0193
1388.00,0.0218
1387.00,0.0256
1386.00,0.0306
1385.00,0.0369
1384.00,0.0453
1383.00,0.0567
1382.00,0.0720
1381.00,0.0917
1380.00,0.1164
1379.00,0.1450
1378.00,0.1734
1377.00,0.1953
1376.00,0.2043
1375.00,0.1961
1374.00,0.1727
1373.00,0.1433
1372.00,0.1158
1371.00,0.0928
1370.00,0.0743
1369.00,0.0601
1368.00,0.0503
1367.00,0.0442
1366.00,0.0409
1365.00,0.0397
1364.00,0.0400
1363.00,0.0415
1362.00,0.0440
1361.00,0.0465
1360.00,0.0483
1359.00,0.0488
1358.00,0.0476
1357.00,0.0447
1356.00,0.0406
1355.00,0.0360
1354.00,0.0316
1353.00,0.0277
1352.00,0.0246
1351.00,0.0222
1350.00,0.0202
1349.00,0.0186
1348.00,0.0174
1347.00,0.0164
1346.00,0.0156
1345.00,0.0149
1344.00,0.0144
1343.00,0.0140
1342.00,0.0137
1341.00,0.0134
1340.00,0.0131
1339.00,0.0129
1338.00,0.0127
1337.00,0.0127
1336.00,0.0128
1335.00,0.0130
1334.00,0.0134
1333.00,0.0138
1332.00,0.0143
1331.00,0.0147
1330.00,0.0149
1329.00,0.0147
1328.00,0.0143
1327.00,0.0137
1326.00,0.0130
1325.00,0.0123
1324.00,0.0116
1323.00,0.0111
1322.00,0.0106
1321.00,0.0103
1320.00,0.0100
1319.00,0.0097
1318.00,0.0096
1317.00,0.0094
1316.00,0.0093
1315.00,0.0092
1314.00,0.0091
1313.00,0.0091
1312.00,0.0092
1311.00,0.0095
1310.00,0.0099
1309.00,0.0106
1308.00,0.0115
1307.00,0.0126
1306.00,0.0137
1305.00,0.0144
1304.00,0.0147
1303.00,0.0145
1302.00,0.0141
1301.00,0.0137
1300.00,0.0135
1299.00,0.0135
1298.00,0.0135
1297.00,0.0136
1296.00,0.0134
1295.00,0.0132
1294.00,0.0127
1293.00,0.0122
1292.00,0.0116
1291.00,0.0111
1290.00,0.0106
1289.00,0.0102
1288.00,0.0099
1287.00,0.0096
1286.00,0.0094
1285.00,0.0091
1284.00,0.0089
1283.00,0.0088
1282.00,0.0086
1281.00,0.0085
1280.00,0.0084
1279.00,0.0083
1278.00,0.0082
1277.00,0.0081
1276.00,0.0081
1275.00,0.0080
1274.00,0.0079
1273.00,0.0079
1272.00,0.0080
1271.00,0.0081
1270.00,0.0082
1269.00,0.0083
1268.00,0.0084
1267.00,0.0085
1266.00,0.0086
1265.00,0.0088
1264.00,0.0090
1263.00,0.0092
1262.00,0.0095
1261.00,0.0100
1260.00,0.0106
1259.00,0.0113
1258.00,0.0121
1257.00,0.0127
1256.00,0.0130
1255.00,0.0129
1254.00,0.0124
1253.00,0.0116
1252.00,0.0108
1251.00,0.0102
1250.00,0.0097
1249.00,0.0094
1248.00,0.0092
1247.00,0.0090
1246.00,0.0089
1245.00,0.0088
1244.00,0.0087
1243.00,0.0086
1242.00,0.0086
1241.00,0.0085
1240.00,0.0084
1239.00,0.0084
1238.00,0.0083
1237.00,0.0083
1236.00,0.0083
1235.00,0.0083
1234.00,0.0082
1233.00,0.0082
1232.00,0.0081
1231.00,0.0082
1230.00,0.0082
1229.00,0.0083
1228.00,0.0084
1227.00,0.0085
1226.00,0.0086
1225.00,0.0088
1224.00,0.0091
1223.00,0.0095
1222.00,0.0098
1221.00,0.0101
1220.00,0.0103
1219.00,0.0104
1218.00,0.0104
1217.00,0.0102
1216.00,0.0100
1215.00,0.0097
1214.00,0.0094
1213.00,0.0091
1212.00,0.0089
1211.00,0.0087
1210.00,0.0085
1209.00,0.0084
1208.00,0.0082
1207.00,0.0080
1206.00,0.0078
1205.00,0.0077
1204.00,0.0077
1203.00,0.0076
1202.00,0.0076
1201.00,0.0076
1200.00,0.0076
1199.00,0.0076
1198.00,0.0076
1197.00,0.0076
1196.00,0.0076
1195.00,0.0075
1194.00,0.0075
1193.00,0.0075
1192.00,0.0075
1191.00,0.0075
1190.00,0.0076
1189.00,0.0076
1188.00,0.0077
1187.00,0.0079
1186.00,0.0081
1185.00,0.0082
1184.00,0.0084
1183.00,0.0085
1182.00,0.0086
1181.00,0.0088
1180.00,0.0092
1179.00,0.0096
1178.00,0.0102
1177.00,0.0110
1176.00,0.0121
1175.00,0.0136
1174.00,0.0157
1173.00,0.0182
1172.00,0.0213
1171.00,0.0246
1170.00,0.0278
1169.00,0.0304
1168.00,0.0321
1167.00,0.0325
1166.00,0.0319
1165.00,0.0306
1164.00,0.0289
1163.00,0.0272
1162.00,0.0256
1161.00,0.0243
1160.00,0.0232
1159.00,0.0223
1158.00,0.0217
1157.00,0.0212
1156.00,0.0209
1155.00,0.0206
1154.00,0.0204
1153.00,0.0202
1152.00,0.0198
1151.00,0.0191
1150.00,0.0183
1149.00,0.0174
1148.00,0.0164
1147.00,0.0154
1146.00,0.0146
1145.00,0.0138
1144.00,0.0132
1143.00,0.0126
1142.00,0.0120
1141.00,0.0113
1140.00,0.0107
1139.00,0.0102
1138.00,0.0098
1137.00,0.0095
1136.00,0.0093
1135.00,0.0092
1134.00,0.0091
1133.00,0.0090
1132.00,0.0090
1131.00,0.0089
1130.00,0.0089
1129.00,0.0090
1128.00,0.0090
1127.00,0.0090
1126.00,0.0090
1125.00,0.0090
1124.00,0.0090
1123.00,0.0091
1122.00,0.0092
1121.00,0.0093
1120.00,0.0094
1119.00,0.0095
1118.00,0.0096
1117.00,0.0097
1116.00,0.0098
1115.00,0.0100
1114.00,0.0101
1113.00,0.0103
1112.00,0.0105
1111.00,0.0108
1110.00,0.0111
1109.00,0.0116
1108.00,0.0122
1107.00,0.0128
1106.00,0.0135
1105.00,0.0142
1104.00,0.0148
1103.00,0.0152
1102.00,0.0153
1101.00,0.0151
1100.00,0.0145
1099.00,0.0139
1098.00,0.0131
1097.00,0.0124
1096.00,0.0118
1095.00,0.0113
1094.00,0.0110
1093.00,0.0107
1092.00,0.0105
1091.00,0.0103
1090.00,0.0101
1089.00,0.0099
1088.00,0.0097
1087.00,0.0096
1086.00,0.0095
1085.00,0.0094
1084.00,0.0094
1083.00,0.0093
1082.00,0.0092
1081.00,0.0092
1080.00,0.0091
1079.00,0.0090
1078.00,0.0090
1077.00,0.0089
1076.00,0.0088
1075.00,0.0087
1074.00,0.0087
1073.00,0.0088
1072.00,0.0088
1071.00,0.0089
1070.00,0.0089
1069.00,0.0089
1068.00,0.0089
1067.00,0.0089
1066.00,0.0091
1065.00,0.0091
1064.00,0.0092
1063.00,0.0093
1062.00,0.0093
1061.00,0.0094
1060.00,0.0094
1059.00,0.0095
1058.00,0.0096
1057.00,0.0096
1056.00,0.0097
1055.00,0.0097
1054.00,0.0098
1053.00,0.0099
1052.00,0.0100
1051.00,0.0101
1050.00,0.0103
1049.00,0.0106
1048.00,0.0109
1047.00,0.0111
1046.00,0.0113
1045.00,0.0114
1044.00,0.0113
1043.00,0.0111
1042.00,0.0109
1041.00,0.0106
1040.00,0.0104
1039.00,0.0103
1038.00,0.0102
1037.00,0.0102
1036.00,0.0103
1035.00,0.0103
1034.00,0.0102
1033.00,0.0101
1032.00,0.0100
1031.00,0.0100
1030.00,0.0099
1029.00,0.0099
1028.00,0.0099
1027.00,0.0099
1026.00,0.0099
1025.00,0.0099
1024.00,0.0099
1023.00,0.0098
1022.00,0.0098
1021.00,0.0098
1020.00,0.0098
1019.00,0.0099
1018.00,0.0101
1017.00,0.0103
1016.00,0.0105
1015.00,0.0107
1014.00,0.0109
1013.00,0.0111
1012.00,0.0114
1011.00,0.0118
1010.00,0.0121
1009.00,0.0125
1008.00,0.0131
1007.00,0.0138
1006.00,0.0148
1005.00,0.0160
1004.00,0.0175
1003.00,0.0196
1002.00,0.0224
1001.00,0.0258
1000.00,0.0295
999.00,0.0325
998.00,0.0341
997.00,0.0335
996.00,0.0310
995.00,0.0273
994.00,0.0234
993.00,0.0200
992.00,0.0173
991.00,0.0154
990.00,0.0141
989.00,0.0131
988.00,0.0125
987.00,0.0121
986.00,0.0121
985.00,0.0124
984.00,0.0130
983.00,0.0139
982.00,0.0151
981.00,0.0167
980.00,0.0189
979.00,0.0216
978.00,0.0251
977.00,0.0292
976.00,0.0337
975.00,0.0378
974.00,0.0408
973.00,0.0418
972.00,0.0404
971.00,0.0367
970.00,0.0317
969.00,0.0266
968.00,0.0221
967.00,0.0187
966.00,0.0163
965.00,0.0145
964.00,0.0131
963.00,0.0121
962.00,0.0112
961.00,0.0105
960.00,0.0100
959.00,0.0096
958.00,0.0094
957.00,0.0092
956.00,0.0089
955.00,0.0087
954.00,0.0086
953.00,0.0085
952.00,0.0084
951.00,0.0083
950.00,0.0083
949.00,0.0082
948.00,0.0083
947.00,0.0084
946.00,0.0086
945.00,0.0089
944.00,0.0093
943.00,0.0096
942.00,0.0098
941.00,0.0099
940.00,0.0098
939.00,0.0095
938.00,0.0091
937.00,0.0086
936.00,0.0082
935.00,0.0077
934.00,0.0074
933.00,0.0071
932.00,0.0070
931.00,0.0069
930.00,0.0068
929.00,0.0067
928.00,0.0066
927.00,0.0064
926.00,0.0063
925.00,0.0062
924.00,0.0062
923.00,0.0063
922.00,0.0064
921.00,0.0066
920.00,0.0067
919.00,0.0068
918.00,0.0069
917.00,0.0070
916.00,0.0071
915.00,0.0072
914.00,0.0073
913.00,0.0074
912.00,0.0075
911.00,0.0076
910.00,0.0078
909.00,0.0080
908.00,0.0083
907.00,0.0087
906.00,0.0094
905.00,0.0105
904.00,0.0120
903.00,0.0140
902.00,0.0162
901.00,0.0182
900.00,0.0195
899.00,0.0199
898.00,0.0191
897.00,0.0176
896.00,0.0156
895.00,0.0136
894.00,0.0119
893.00,0.0106
892.00,0.0096
891.00,0.0089
890.00,0.0084
889.00,0.0081
888.00,0.0079
887.00,0.0077
886.00,0.0075
885.00,0.0073
884.00,0.0073
883.00,0.0074
882.00,0.0074
881.00,0.0075
880.00,0.0075
879.00,0.0076
878.00,0.0077
877.00,0.0079
876.00,0.0080
875.00,0.0081
874.00,0.0081
873.00,0.0080
872.00,0.0078
871.00,0.0077
870.00,0.0077
869.00,0.0076
868.00,0.0075
867.00,0.0075
866.00,0.0076
865.00,0.0077
864.00,0.0079
863.00,0.0081
862.00,0.0082
861.00,0.0083
860.00,0.0084
859.00,0.0086
858.00,0.0088
857.00,0.0089
856.00,0.0090
855.00,0.0091
854.00,0.0092
853.00,0.0095
852.00,0.0098
851.00,0.0103
850.00,0.0109
849.00,0.0117
848.00,0.0127
847.00,0.0141
846.00,0.0162
845.00,0.0194
844.00,0.0236
843.00,0.0282
842.00,0.0316
841.00,0.0323
840.00,0.0301
839.00,0.0259
838.00,0.0214
837.00,0.0178
836.00,0.0154
835.00,0.0141
834.00,0.0132
833.00,0.0126
832.00,0.0120
831.00,0.0115
830.00,0.0111
829.00,0.0109
828.00,0.0109
827.00,0.0108
826.00,0.0108
825.00,0.0107
824.00,0.0106
823.00,0.0106
822.00,0.0105
821.00,0.0106
820.00,0.0108
819.00,0.0111
818.00,0.0115
817.00,0.0122
816.00,0.0131
815.00,0.0142
814.00,0.0157
813.00,0.0173
812.00,0.0190
811.00,0.0205
810.00,0.0217
809.00,0.0221
808.00,0.0218
807.00,0.0209
806.00,0.0195
805.00,0.0178
804.00,0.0161
803.00,0.0146
802.00,0.0134
801.00,0.0125
800.00,0.0118
799.00,0.0111
798.00,0.0106
797.00,0.0103
796.00,0.0101
795.00,0.0098
794.00,0.0094
793.00,0.0090
792.00,0.0087
791.00,0.0086
790.00,0.0086
789.00,0.0086
788.00,0.0083
787.00,0.0079
786.00,0.0075
785.00,0.0070
784.00,0.0068
783.00,0.0067
782.00,0.0066
781.00,0.0065
780.00,0.0064
779.00,0.0063
778.00,0.0061
777.00,0.0061
776.00,0.0061
775.00,0.0063
774.00,0.0065
773.00,0.0067
772.00,0.0069
771.00,0.0072
770.00,0.0074
769.00,0.0076
768.00,0.0077
767.00,0.0078
766.00,0.0077
765.00,0.0075
764.00,0.0073
763.00,0.0070
762.00,0.0067
761.00,0.0064
760.00,0.0061
759.00,0.0059
758.00,0.0058
757.00,0.0058
756.00,0.0058
755.00,0.0059
754.00,0.0059
753.00,0.0059
752.00,0.0058
751.00,0.0058
750.00,0.0058
749.00,0.0059
748.00,0.0059
747.00,0.0058
746.00,0.0058
745.00,0.0059
744.00,0.0061
743.00,0.0064
742.00,0.0066
741.00,0.0067
740.00,0.0068
739.00,0.0069
738.00,0.0071
737.00,0.0074
736.00,0.0078
735.00,0.0081
734.00,0.0084
733.00,0.0086
732.00,0.0086
731.00,0.0085
730.00,0.0082
729.00,0.0079
728.00,0.0076
727.00,0.0074
726.00,0.0073
725.00,0.0073
724.00,0.0073
723.00,0.0073
722.00,0.0073
721.00,0.0071
720.00,0.0069
719.00,0.0066
718.00,0.0064
717.00,0.0063
716.00,0.0063
715.00,0.0063
714.00,0.0065
713.00,0.0067
712.00,0.0067
711.00,0.0067
710.00,0.0065
709.00,0.0063
708.00,0.0062
707.00,0.0062
706.00,0.0062
705.00,0.0062
704.00,0.0061
703.00,0.0060
702.00,0.0059
701.00,0.0058
700.00,0.0057
699.00,0.0057
698.00,0.0058
697.00,0.0058
696.00,0.0058
695.00,0.0057
694.00,0.0057
693.00,0.0057
692.00,0.0057
691.00,0.0058
690.00,0.0057
689.00,0.0056
688.00,0.0055
687.00,0.0053
686.00,0.0052
685.00,0.0053
684.00,0.0054
683.00,0.0056
682.00,0.0056
681.00,0.0057
680.00,0.0056
679.00,0.0055
678.00,0.0054
677.00,0.0053
676.00,0.0054
675.00,0.0055
674.00,0.0055
673.00,0.0056
672.00,0.0057
671.00,0.0059
670.00,0.0060
669.00,0.0060
668.00,0.0058
667.00,0.0056
666.00,0.0055
665.00,0.0056
664.00,0.0059
663.00,0.0061
662.00,0.0061
661.00,0.0060
660.00,0.0059
659.00,0.0057
658.00,0.0056
657.00,0.0055
656.00,0.0054
655.00,0.0053
654.00,0.0053
653.00,0.0053
652.00,0.0056
651.00,0.0060
650.00,0.0063
649.00,0.0064
648.00,0.0064
647.00,0.0063
646.00,0.0062
645.00,0.0062
644.00,0.0063
643.00,0.0063
642.00,0.0064
641.00,0.0064
640.00,0.0065
639.00,0.0065
638.00,0.0065
637.00,0.0064
636.00,0.0063
635.00,0.0063
634.00,0.0063
633.00,0.0065
632.00,0.0068
631.00,0.0069
630.00,0.0068
629.00,0.0067
628.00,0.0066
627.00,0.0066
626.00,0.0065
625.00,0.0063
624.00,0.0062
623.00,0.0062
622.00,0.0062
621.00,0.0063
620.00,0.0064
619.00,0.0067
618.00,0.0070
617.00,0.0072
616.00,0.0071
615.00,0.0069
614.00,0.0066
613.00,0.0063
612.00,0.0060
611.00,0.0059
610.00,0.0060
609.00,0.0063
608.00,0.0066
607.00,0.0068
606.00,0.0069
605.00,0.0070
604.00,0.0069
603.00,0.0068
602.00,0.0065
601.00,0.0061
600.00,0.0058
599.00,0.0058
598.00,0.0060
597.00,0.0063
596.00,0.0065
595.00,0.0067
594.00,0.0068
593.00,0.0069
592.00,0.0070
591.00,0.0071
590.00,0.0072
589.00,0.0072
588.00,0.0072
587.00,0.0071
586.00,0.0070
585.00,0.0070
584.00,0.0069
583.00,0.0068
582.00,0.0069
581.00,0.0070
580.00,0.0072
579.00,0.0073
578.00,0.0073
577.00,0.0073
576.00,0.0072
575.00,0.0070
574.00,0.0067
573.00,0.0065
572.00,0.0063
571.00,0.0062
570.00,0.0063
569.00,0.0064
568.00,0.0064
567.00,0.0064
566.00,0.0064
565.00,0.0065
564.00,0.0067
563.00,0.0069
562.00,0.0072
561.00,0.0072
560.00,0.0070
559.00,0.0066
558.00,0.0062
557.00,0.0060
556.00,0.0060
555.00,0.0061
554.00,0.0063
553.00,0.0066
552.00,0.0069
551.00,0.0072
550.00,0.0074
549.00,0.0075
548.00,0.0076
547.00,0.0076
546.00,0.0078
545.00,0.0081
544.00,0.0085
543.00,0.0086
542.00,0.0085
541.00,0.0083
540.00,0.0080
539.00,0.0078
538.00,0.0076
537.00,0.0076
536.00,0.0077
535.00,0.0078
534.00,0.0078
533.00,0.0078
532.00,0.0078
531.00,0.0078
530.00,0.0079
529.00,0.0082
528.00,0.0086
527.00,0.0090
526.00,0.0095
525.00,0.0100
524.00,0.0102
523.00,0.0102
522.00,0.0099
521.00,0.0095
520.00,0.0090
519.00,0.0083
518.00,0.0077
517.00,0.0074
516.00,0.0076
515.00,0.0077
514.00,0.0077
513.00,0.0074
512.00,0.0072
511.00,0.0072
510.00,0.0074
509.00,0.0076
508.00,0.0075
507.00,0.0071
506.00,0.0067
505.00,0.0065
504.00,0.0066
503.00,0.0068
502.00,0.0066
501.00,0.0064
500.00,0.0067
499.00,0.0073
498.00,0.0077
497.00,0.0076
496.00,0.0071
495.00,0.0068
494.00,0.0068
493.00,0.0071
492.00,0.0076
491.00,0.0082
490.00,0.0085
489.00,0.0084
488.00,0.0079
487.00,0.0072
486.00,0.0066
485.00,0.0062
484.00,0.0060
483.00,0.0066
482.00,0.0075
481.00,0.0084
480.00,0.0087
479.00,0.0082
478.00,0.0072
477.00,0.0065
476.00,0.0066
475.00,0.0077
474.00,0.0090
473.00,0.0100
472.00,0.0107
471.00,0.0112
470.00,0.0116
469.00,0.0117
468.00,0.0115
467.00,0.0112
466.00,0.0110
465.00,0.0110
464.00,0.0114
463.00,0.0124
462.00,0.0142
461.00,0.0160
460.00,0.0173
459.00,0.0175
458.00,0.0165
457.00,0.0148
456.00,0.0134
455.00,0.0126
454.00,0.0124
453.00,0.0125
452.00,0.0127
451.00,0.0128
450.00,0.0123
