Created as New Dataset,Sample 120 By Administrator Date Wednesday, September 10 2025
cm-1,A
4000.00,0.0007
3999.00,0.0007
3998.00,0.0007
3997.00,0.0008
3996.00,0.0008
3995.00,0.0008
3994.00,0.0008
3993.00,0.0008
3992.00,0.0008
3991.00,0.0008
3990.00,0.0008
3989.00,0.0008
3988.00,0.0008
3987.00,0.0008
3986.00,0.0008
3985.00,0.0007
3984.00,0.0007
3983.00,0.0007
3982.00,0.0007
3981.00,0.0007
3980.00,0.0007
3979.00,0.0007
3978.00,0.0007
3977.00,0.0007
3976.00,0.0007
3975.00,0.0007
3974.00,0.0007
3973.00,0.0007
3972.00,0.0007
3971.00,0.0007
3970.00,0.0007
3969.00,0.0007
3968.00,0.0007
3967.00,0.0007
3966.00,0.0007
3965.00,0.0006
3964.00,0.0006
3963.00,0.0006
3962.00,0.0007
3961.00,0.0007
3960.00,0.0007
3959.00,0.0006
3958.00,0.0006
3957.00,0.0006
3956.00,0.0006
3955.00,0.0006
3954.00,0.0006
3953.00,0.0006
3952.00,0.0006
3951.00,0.0006
3950.00,0.0007
3949.00,0.0007
3948.00,0.0007
3947.00,0.0007
3946.00,0.0007
3945.00,0.0007
3944.00,0.0007
3943.00,0.0007
3942.00,0.0007
3941.00,0.0006
3940.00,0.0006
3939.00,0.0006
3938.00,0.0006
3937.00,0.0006
3936.00,0.0006
3935.00,0.0006
3934.00,0.0006
3933.00,0.0006
3932.00,0.0006
3931.00,0.0007
3930.00,0.0007
3929.00,0.0007
3928.00,0.0006
3927.00,0.0006
3926.00,0.0006
3925.00,0.0006
3924.00,0.0006
3923.00,0.0006
3922.00,0.0006
3921.00,0.0006
3920.00,0.0005
3919.00,0.0005
3918.00,0.0005
3917.00,0.0006
3916.00,0.0006
3915.00,0.0006
3914.00,0.0006
3913.00,0.0006
3912.00,0.0006
3911.00,0.0006
3910.00,0.0006
3909.00,0.0006
3908.00,0.0005
3907.00,0.0005
3906.00,0.0005
3905.00,0.0005
3904.00,0.0005
3903.00,0.0005
3902.00,0.0005
3901.00,0.0005
3900.00,0.0005
3899.00,0.0005
3898.00,0.0005
3897.00,0.0006
3896.00,0.0006
3895.00,0.0006
3894.00,0.0007
3893.00,0.0007
3892.00,0.0007
3891.00,0.0006
3890.00,0.0006
3889.00,0.0006
3888.00,0.0005
3887.00,0.0005
3886.00,0.0004
3885.00,0.0004
3884.00,0.0004
3883.00,0.0005
3882.00,0.0005
3881.00,0.0005
3880.00,0.0005
3879.00,0.0005
3878.00,0.0005
3877.00,0.0005
3876.00,0.0005
3875.00,0.0006
3874.00,0.0006
3873.00,0.0006
3872.00,0.0006
3871.00,0.0006
3870.00,0.0006
3869.00,0.0005
3868.00,0.0005
3867.00,0.0005
3866.00,0.0005
3865.00,0.0005
3864.00,0.0005
3863.00,0.0005
3862.00,0.0005
3861.00,0.0006
3860.00,0.0006
3859.00,0.0006
3858.00,0.0006
3857.00,0.0006
3856.00,0.0006
3855.00,0.0007
3854.00,0.0007
3853.00,0.0006
3852.00,0.0005
3851.00,0.0005
3850.00,0.0005
3849.00,0.0005
3848.00,0.0006
3847.00,0.0006
3846.00,0.0006
3845.00,0.0007
3844.00,0.0008
3843.00,0.0008
3842.00,0.0008
3841.00,0.0008
3840.00,0.0008
3839.00,0.0007
3838.00,0.0007
3837.00,0.0007
3836.00,0.0007
3835.00,0.0007
3834.00,0.0007
3833.00,0.0007
3832.00,0.0007
3831.00,0.0006
3830.00,0.0006
3829.00,0.0006
3828.00,0.0006
3827.00,0.0006
3826.00,0.0006
3825.00,0.0006
3824.00,0.0006
3823.00,0.0006
3822.00,0.0007
3821.00,0.0007
3820.00,0.0007
3819.00,0.0007
3818.00,0.0007
3817.00,0.0007
3816.00,0.0007
3815.00,0.0006
3814.00,0.0006
3813.00,0.0006
3812.00,0.0006
3811.00,0.0007
3810.00,0.0007
3809.00,0.0007
3808.00,0.0007
3807.00,0.0007
3806.00,0.0007
3805.00,0.0006
3804.00,0.0006
3803.00,0.0006
3802.00,0.0007
3801.00,0.0007
3800.00,0.0006
3799.00,0.0006
3798.00,0.0006
3797.00,0.0006
3796.00,0.0006
3795.00,0.0006
3794.00,0.0006
3793.00,0.0006
3792.00,0.0006
3791.00,0.0006
3790.00,0.0006
3789.00,0.0006
3788.00,0.0006
3787.00,0.0006
3786.00,0.0006
3785.00,0.0006
3784.00,0.0006
3783.00,0.0007
3782.00,0.0006
3781.00,0.0006
3780.00,0.0006
3779.00,0.0006
3778.00,0.0006
3777.00,0.0006
3776.00,0.0006
3775.00,0.0007
3774.00,0.0007
3773.00,0.0007
3772.00,0.0007
3771.00,0.0007
3770.00,0.0007
3769.00,0.0007
3768.00,0.0007
3767.00,0.0007
3766.00,0.0007
3765.00,0.0007
3764.00,0.0007
3763.00,0.0007
3762.00,0.0007
3761.00,0.0007
3760.00,0.0007
3759.00,0.0007
3758.00,0.0008
3757.00,0.0008
3756.00,0.0008
3755.00,0.0008
3754.00,0.0009
3753.00,0.0009
3752.00,0.0009
3751.00,0.0008
3750.00,0.0007
3749.00,0.0007
3748.00,0.0006
3747.00,0.0005
3746.00,0.0004
3745.00,0.0004
3744.00,0.0004
3743.00,0.0004
3742.00,0.0004
3741.00,0.0004
3740.00,0.0004
3739.00,0.0004
3738.00,0.0004
3737.00,0.0004
3736.00,0.0003
3735.00,0.0003
3734.00,0.0002
3733.00,0.0002
3732.00,0.0002
3731.00,0.0001
3730.00,0.0001
3729.00,0.0001
3728.00,0.0001
3727.00,0.0002
3726.00,0.0002
3725.00,0.0002
3724.00,0.0002
3723.00,0.0002
3722.00,0.0002
3721.00,0.0003
3720.00,0.0003
3719.00,0.0003
3718.00,0.0004
3717.00,0.0004
3716.00,0.0004
3715.00,0.0004
3714.00,0.0004
3713.00,0.0004
3712.00,0.0003
3711.00,0.0003
3710.00,0.0003
3709.00,0.0004
3708.00,0.0004
3707.00,0.0003
3706.00,0.0003
3705.00,0.0003
3704.00,0.0003
3703.00,0.0003
3702.00,0.0003
3701.00,0.0003
3700.00,0.0003
3699.00,0.0003
3698.00,0.0004
3697.00,0.0004
3696.00,0.0004
3695.00,0.0004
3694.00,0.0004
3693.00,0.0004
3692.00,0.0004
3691.00,0.0004
3690.00,0.0004
3689.00,0.0003
3688.00,0.0003
3687.00,0.0003
3686.00,0.0003
3685.00,0.0004
3684.00,0.0004
3683.00,0.0004
3682.00,0.0005
3681.00,0.0005
3680.00,0.0006
3679.00,0.0006
3678.00,0.0006
3677.00,0.0005
3676.00,0.0005
3675.00,0.0004
3674.00,0.0004
3673.00,0.0004
3672.00,0.0004
3671.00,0.0004
3670.00,0.0004
3669.00,0.0003
3668.00,0.0003
3667.00,0.0002
3666.00,0.0002
3665.00,0.0003
3664.00,0.0003
3663.00,0.0003
3662.00,0.0004
3661.00,0.0004
3660.00,0.0004
3659.00,0.0004
3658.00,0.0004
3657.00,0.0003
3656.00,0.0003
3655.00,0.0003
3654.00,0.0003
3653.00,0.0003
3652.00,0.0003
3651.00,0.0003
3650.00,0.0002
3649.00,0.0002
3648.00,0.0001
3647.00,0.0001
3646.00,0.0002
3645.00,0.0002
3644.00,0.0003
3643.00,0.0003
3642.00,0.0003
3641.00,0.0004
3640.00,0.0004
3639.00,0.0004
3638.00,0.0004
3637.00,0.0004
3636.00,0.0004
3635.00,0.0004
3634.00,0.0004
3633.00,0.0003
3632.00,0.0002
3631.00,0.0002
3630.00,0.0002
3629.00,0.0001
3628.00,0.0001
3627.00,0.0001
3626.00,0.0002
3625.00,0.0002
3624.00,0.0003
3623.00,0.0003
3622.00,0.0003
3621.00,0.0003
3620.00,0.0003
3619.00,0.0003
3618.00,0.0003
3617.00,0.0003
3616.00,0.0003
3615.00,0.0004
3614.00,0.0004
3613.00,0.0004
3612.00,0.0004
3611.00,0.0003
3610.00,0.0003
3609.00,0.0003
3608.00,0.0004
3607.00,0.0004
3606.00,0.0004
3605.00,0.0004
3604.00,0.0004
3603.00,0.0004
3602.00,0.0004
3601.00,0.0005
3600.00,0.0005
3599.00,0.0004
3598.00,0.0004
3597.00,0.0004
3596.00,0.0004
3595.00,0.0004
3594.00,0.0005
3593.00,0.0005
3592.00,0.0005
3591.00,0.0004
3590.00,0.0004
3589.00,0.0005
3588.00,0.0005
3587.00,0.0005
3586.00,0.0006
3585.00,0.0006
3584.00,0.0007
3583.00,0.0007
3582.00,0.0008
3581.00,0.0008
3580.00,0.0008
3579.00,0.0008
3578.00,0.0008
3577.00,0.0008
3576.00,0.0008
3575.00,0.0008
3574.00,0.0008
3573.00,0.0008
3572.00,0.0008
3571.00,0.0008
3570.00,0.0007
3569.00,0.0007
3568.00,0.0007
3567.00,0.0008
3566.00,0.0008
3565.00,0.0008
3564.00,0.0008
3563.00,0.0009
3562.00,0.0010
3561.00,0.0010
3560.00,0.0010
3559.00,0.0011
3558.00,0.0011
3557.00,0.0011
3556.00,0.0011
3555.00,0.0011
3554.00,0.0011
3553.00,0.0012
3552.00,0.0012
3551.00,0.0011
3550.00,0.0011
3549.00,0.0011
3548.00,0.0011
3547.00,0.0011
3546.00,0.0012
3545.00,0.0013
3544.00,0.0013
3543.00,0.0013
3542.00,0.0013
3541.00,0.0013
3540.00,0.0013
3539.00,0.0014
3538.00,0.0014
3537.00,0.0014
3536.00,0.0014
3535.00,0.0014
3534.00,0.0014
3533.00,0.0014
3532.00,0.0014
3531.00,0.0015
3530.00,0.0015
3529.00,0.0015
3528.00,0.0016
3527.00,0.0015
3526.00,0.0015
3525.00,0.0015
3524.00,0.0015
3523.00,0.0015
3522.00,0.0016
3521.00,0.0016
3520.00,0.0016
3519.00,0.0017
3518.00,0.0017
3517.00,0.0017
3516.00,0.0018
3515.00,0.0018
3514.00,0.0018
3513.00,0.0019
3512.00,0.0019
3511.00,0.0019
3510.00,0.0018
3509.00,0.0018
3508.00,0.0018
3507.00,0.0018
3506.00,0.0018
3505.00,0.0018
3504.00,0.0018
3503.00,0.0018
3502.00,0.0018
3501.00,0.0019
3500.00,0.0019
3499.00,0.0020
3498.00,0.0020
3497.00,0.0021
3496.00,0.0021
3495.00,0.0021
3494.00,0.0022
3493.00,0.0022
3492.00,0.0022
3491.00,0.0022
3490.00,0.0022
3489.00,0.0021
3488.00,0.0021
3487.00,0.0022
3486.00,0.0022
3485.00,0.0022
3484.00,0.0021
3483.00,0.0021
3482.00,0.0022
3481.00,0.0022
3480.00,0.0022
3479.00,0.0022
3478.00,0.0022
3477.00,0.0022
3476.00,0.0023
3475.00,0.0023
3474.00,0.0023
3473.00,0.0024
3472.00,0.0024
3471.00,0.0024
3470.00,0.0025
3469.00,0.0025
3468.00,0.0025
3467.00,0.0025
3466.00,0.0025
3465.00,0.0025
3464.00,0.0025
3463.00,0.0025
3462.00,0.0025
3461.00,0.0026
3460.00,0.0026
3459.00,0.0026
3458.00,0.0026
3457.00,0.0026
3456.00,0.0026
3455.00,0.0026
3454.00,0.0026
3453.00,0.0027
3452.00,0.0027
3451.00,0.0027
3450.00,0.0027
3449.00,0.0028
3448.00,0.0028
3447.00,0.0028
3446.00,0.0028
3445.00,0.0028
3444.00,0.0028
3443.00,0.0029
3442.00,0.0029
3441.00,0.0029
3440.00,0.0029
3439.00,0.0029
3438.00,0.0029
3437.00,0.0029
3436.00,0.0030
3435.00,0.0030
3434.00,0.0031
3433.00,0.0031
3432.00,0.0031
3431.00,0.0031
3430.00,0.0030
3429.00,0.0030
3428.00,0.0030
3427.00,0.0031
3426.00,0.0031
3425.00,0.0032
3424.00,0.0032
3423.00,0.0032
3422.00,0.0032
3421.00,0.0032
3420.00,0.0032
3419.00,0.0032
3418.00,0.0032
3417.00,0.0032
3416.00,0.0032
3415.00,0.0032
3414.00,0.0033
3413.00,0.0033
3412.00,0.0033
3411.00,0.0033
3410.00,0.0033
3409.00,0.0033
3408.00,0.0033
3407.00,0.0034
3406.00,0.0034
3405.00,0.0035
3404.00,0.0035
3403.00,0.0035
3402.00,0.0035
3401.00,0.0035
3400.00,0.0035
3399.00,0.0035
3398.00,0.0034
3397.00,0.0034
3396.00,0.0034
3395.00,0.0034
3394.00,0.0035
3393.00,0.0035
3392.00,0.0035
3391.00,0.0036
3390.00,0.0036
3389.00,0.0036
3388.00,0.0036
3387.00,0.0036
3386.00,0.0036
3385.00,0.0036
3384.00,0.0036
3383.00,0.0036
3382.00,0.0036
3381.00,0.0036
3380.00,0.0035
3379.00,0.0035
3378.00,0.0035
3377.00,0.0036
3376.00,0.0036
3375.00,0.0036
3374.00,0.0036
3373.00,0.0036
3372.00,0.0036
3371.00,0.0035
3370.00,0.0035
3369.00,0.0035
3368.00,0.0036
3367.00,0.0036
3366.00,0.0037
3365.00,0.0037
3364.00,0.0037
3363.00,0.0037
3362.00,0.0037
3361.00,0.0037
3360.00,0.0037
3359.00,0.0037
3358.00,0.0037
3357.00,0.0037
3356.00,0.0037
3355.00,0.0037
3354.00,0.0037
3353.00,0.0037
3352.00,0.0037
3351.00,0.0038
3350.00,0.0038
3349.00,0.0038
3348.00,0.0038
3347.00,0.0038
3346.00,0.0037
3345.00,0.0037
3344.00,0.0037
3343.00,0.0036
3342.00,0.0036
3341.00,0.0037
3340.00,0.0037
3339.00,0.0037
3338.00,0.0037
3337.00,0.0037
3336.00,0.0037
3335.00,0.0037
3334.00,0.0036
3333.00,0.0036
3332.00,0.0036
3331.00,0.0035
3330.00,0.0035
3329.00,0.0035
3328.00,0.0036
3327.00,0.0036
3326.00,0.0035
3325.00,0.0035
3324.00,0.0035
3323.00,0.0035
3322.00,0.0035
3321.00,0.0035
3320.00,0.0035
3319.00,0.0036
3318.00,0.0036
3317.00,0.0035
3316.00,0.0035
3315.00,0.0035
3314.00,0.0035
3313.00,0.0035
3312.00,0.0035
3311.00,0.0035
3310.00,0.0035
3309.00,0.0035
3308.00,0.0034
3307.00,0.0034
3306.00,0.0034
3305.00,0.0035
3304.00,0.0035
3303.00,0.0036
3302.00,0.0036
3301.00,0.0036
3300.00,0.0035
3299.00,0.0035
3298.00,0.0035
3297.00,0.0035
3296.00,0.0035
3295.00,0.0035
3294.00,0.0034
3293.00,0.0034
3292.00,0.0034
3291.00,0.0035
3290.00,0.0035
3289.00,0.0035
3288.00,0.0035
3287.00,0.0035
3286.00,0.0035
3285.00,0.0034
3284.00,0.0034
3283.00,0.0034
3282.00,0.0034
3281.00,0.0033
3280.00,0.0033
3279.00,0.0033
3278.00,0.0033
3277.00,0.0033
3276.00,0.0033
3275.00,0.0033
3274.00,0.0032
3273.00,0.0032
3272.00,0.0032
3271.00,0.0032
3270.00,0.0032
3269.00,0.0032
3268.00,0.0032
3267.00,0.0032
3266.00,0.0032
3265.00,0.0031
3264.00,0.0031
3263.00,0.0031
3262.00,0.0031
3261.00,0.0031
3260.00,0.0031
3259.00,0.0031
3258.00,0.0031
3257.00,0.0031
3256.00,0.0030
3255.00,0.0031
3254.00,0.0031
3253.00,0.0031
3252.00,0.0031
3251.00,0.0031
3250.00,0.0031
3249.00,0.0031
3248.00,0.0031
3247.00,0.0030
3246.00,0.0030
3245.00,0.0030
3244.00,0.0030
3243.00,0.0030
3242.00,0.0030
3241.00,0.0030
3240.00,0.0030
3239.00,0.0030
3238.00,0.0030
3237.00,0.0030
3236.00,0.0030
3235.00,0.0030
3234.00,0.0030
3233.00,0.0031
3232.00,0.0031
3231.00,0.0031
3230.00,0.0032
3229.00,0.0032
3228.00,0.0032
3227.00,0.0033
3226.00,0.0033
3225.00,0.0033
3224.00,0.0032
3223.00,0.0032
3222.00,0.0032
3221.00,0.0032
3220.00,0.0032
3219.00,0.0033
3218.00,0.0033
3217.00,0.0033
3216.00,0.0033
3215.00,0.0033
3214.00,0.0034
3213.00,0.0034
3212.00,0.0034
3211.00,0.0034
3210.00,0.0034
3209.00,0.0035
3208.00,0.0035
3207.00,0.0035
3206.00,0.0035
3205.00,0.0035
3204.00,0.0035
3203.00,0.0036
3202.00,0.0036
3201.00,0.0036
3200.00,0.0036
3199.00,0.0036
3198.00,0.0036
3197.00,0.0037
3196.00,0.0037
3195.00,0.0037
3194.00,0.0037
3193.00,0.0036
3192.00,0.0036
3191.00,0.0036
3190.00,0.0036
3189.00,0.0035
3188.00,0.0035
3187.00,0.0035
3186.00,0.0035
3185.00,0.0035
3184.00,0.0034
3183.00,0.0034
3182.00,0.0034
3181.00,0.0034
3180.00,0.0034
3179.00,0.0034
3178.00,0.0033
3177.00,0.0033
3176.00,0.0033
3175.00,0.0033
3174.00,0.0033
3173.00,0.0033
3172.00,0.0033
3171.00,0.0033
3170.00,0.0032
3169.00,0.0032
3168.00,0.0032
3167.00,0.0031
3166.00,0.0031
3165.00,0.0030
3164.00,0.0030
3163.00,0.0031
3162.00,0.0031
3161.00,0.0031
3160.00,0.0031
3159.00,0.0031
3158.00,0.0031
3157.00,0.0031
3156.00,0.0031
3155.00,0.0031
3154.00,0.0031
3153.00,0.0031
3152.00,0.0031
3151.00,0.0031
3150.00,0.0031
3149.00,0.0032
3148.00,0.0032
3147.00,0.0032
3146.00,0.0033
3145.00,0.0033
3144.00,0.0033
3143.00,0.0033
3142.00,0.0032
3141.00,0.0032
3140.00,0.0032
3139.00,0.0031
3138.00,0.0031
3137.00,0.0031
3136.00,0.0030
3135.00,0.0030
3134.00,0.0030
3133.00,0.0030
3132.00,0.0029
3131.00,0.0029
3130.00,0.0029
3129.00,0.0029
3128.00,0.0029
3127.00,0.0029
3126.00,0.0028
3125.00,0.0028
3124.00,0.0028
3123.00,0.0028
3122.00,0.0027
3121.00,0.0027
3120.00,0.0026
3119.00,0.0026
3118.00,0.0026
3117.00,0.0026
3116.00,0.0026
3115.00,0.0025
3114.00,0.0025
3113.00,0.0025
3112.00,0.0025
3111.00,0.0025
3110.00,0.0025
3109.00,0.0025
3108.00,0.0025
3107.00,0.0025
3106.00,0.0025
3105.00,0.0025
3104.00,0.0025
3103.00,0.0025
3102.00,0.0024
3101.00,0.0024
3100.00,0.0023
3099.00,0.0023
3098.00,0.0024
3097.00,0.0024
3096.00,0.0024
3095.00,0.0024
3094.00,0.0024
3093.00,0.0024
3092.00,0.0024
3091.00,0.0024
3090.00,0.0023
3089.00,0.0024
3088.00,0.0024
3087.00,0.0024
3086.00,0.0024
3085.00,0.0024
3084.00,0.0024
3083.00,0.0024
3082.00,0.0024
3081.00,0.0024
3080.00,0.0023
3079.00,0.0023
3078.00,0.0023
3077.00,0.0023
3076.00,0.0023
3075.00,0.0024
3074.00,0.0024
3073.00,0.0024
3072.00,0.0024
3071.00,0.0025
3070.00,0.0025
3069.00,0.0025
3068.00,0.0025
3067.00,0.0025
3066.00,0.0025
3065.00,0.0025
3064.00,0.0025
3063.00,0.0025
3062.00,0.0026
3061.00,0.0026
3060.00,0.0026
3059.00,0.0026
3058.00,0.0026
3057.00,0.0026
3056.00,0.0026
3055.00,0.0027
3054.00,0.0027
3053.00,0.0027
3052.00,0.0027
3051.00,0.0027
3050.00,0.0027
3049.00,0.0028
3048.00,0.0028
3047.00,0.0028
3046.00,0.0028
3045.00,0.0028
3044.00,0.0028
3043.00,0.0028
3042.00,0.0029
3041.00,0.0029
3040.00,0.0030
3039.00,0.0030
3038.00,0.0030
3037.00,0.0031
3036.00,0.0031
3035.00,0.0031
3034.00,0.0031
3033.00,0.0032
3032.00,0.0032
3031.00,0.0032
3030.00,0.0032
3029.00,0.0033
3028.00,0.0034
3027.00,0.0035
3026.00,0.0035
3025.00,0.0036
3024.00,0.0037
3023.00,0.0037
3022.00,0.0038
3021.00,0.0038
3020.00,0.0039
3019.00,0.0040
3018.00,0.0040
3017.00,0.0041
3016.00,0.0042
3015.00,0.0044
3014.00,0.0045
3013.00,0.0047
3012.00,0.0048
3011.00,0.0050
3010.00,0.0052
3009.00,0.0054
3008.00,0.0055
3007.00,0.0057
3006.00,0.0058
3005.00,0.0060
3004.00,0.0062
3003.00,0.0064
3002.00,0.0067
3001.00,0.0070
3000.00,0.0073
2999.00,0.0076
2998.00,0.0079
2997.00,0.0083
2996.00,0.0087
2995.00,0.0091
2994.00,0.0095
2993.00,0.0101
2992.00,0.0107
2991.00,0.0113
2990.00,0.0120
2989.00,0.0128
2988.00,0.0137
2987.00,0.0147
2986.00,0.0157
2985.00,0.0170
2984.00,0.0183
2983.00,0.0199
2982.00,0.0217
2981.00,0.0236
2980.00,0.0258
2979.00,0.0282
2978.00,0.0311
2977.00,0.0343
2976.00,0.0380
2975.00,0.0423
2974.00,0.0471
2973.00,0.0527
2972.00,0.0589
2971.00,0.0659
2970.00,0.0738
2969.00,0.0826
2968.00,0.0923
2967.00,0.1028
2966.00,0.1142
2965.00,0.1262
2964.00,0.1386
2963.00,0.1507
2962.00,0.1622
2961.00,0.1723
2960.00,0.1805
2959.00,0.1868
2958.00,0.1912
2957.00,0.1941
2956.00,0.1964
2955.00,0.1985
2954.00,0.2009
2953.00,0.2033
2952.00,0.2052
2951.00,0.2058
2950.00,0.2043
2949.00,0.1999
2948.00,0.1922
2947.00,0.1817
2946.00,0.1690
2945.00,0.1554
2944.00,0.1421
2943.00,0.1303
2942.00,0.1206
2941.00,0.1135
2940.00,0.1089
2939.00,0.1066
2938.00,0.1064
2937.00,0.1082
2936.00,0.1116
2935.00,0.1165
2934.00,0.1227
2933.00,0.1301
2932.00,0.1385
2931.00,0.1476
2930.00,0.1571
2929.00,0.1667
2928.00,0.1761
2927.00,0.1851
2926.00,0.1935
2925.00,0.2013
2924.00,0.2087
2923.00,0.2158
2922.00,0.2226
2921.00,0.2291
2920.00,0.2349
2919.00,0.2393
2918.00,0.2419
2917.00,0.2422
2916.00,0.2399
2915.00,0.2355
2914.00,0.2296
2913.00,0.2227
2912.00,0.2158
2911.00,0.2091
2910.00,0.2031
2909.00,0.1976
2908.00,0.1924
2907.00,0.1872
2906.00,0.1817
2905.00,0.1758
2904.00,0.1694
2903.00,0.1627
2902.00,0.1557
2901.00,0.1488
2900.00,0.1420
2899.00,0.1355
2898.00,0.1294
2897.00,0.1239
2896.00,0.1190
2895.00,0.1148
2894.00,0.1114
2893.00,0.1086
2892.00,0.1066
2891.00,0.1052
2890.00,0.1044
2889.00,0.1040
2888.00,0.1040
2887.00,0.1043
2886.00,0.1050
2885.00,0.1061
2884.00,0.1075
2883.00,0.1093
2882.00,0.1114
2881.00,0.1136
2880.00,0.1157
2879.00,0.1174
2878.00,0.1184
2877.00,0.1185
2876.00,0.1179
2875.00,0.1170
2874.00,0.1163
2873.00,0.1160
2872.00,0.1165
2871.00,0.1178
2870.00,0.1195
2869.00,0.1211
2868.00,0.1221
2867.00,0.1215
2866.00,0.1188
2865.00,0.1137
2864.00,0.1064
2863.00,0.0979
2862.00,0.0891
2861.00,0.0809
2860.00,0.0738
2859.00,0.0683
2858.00,0.0641
2857.00,0.0611
2856.00,0.0590
2855.00,0.0578
2854.00,0.0573
2853.00,0.0575
2852.00,0.0585
2851.00,0.0601
2850.00,0.0624
2849.00,0.0656
2848.00,0.0696
2847.00,0.0745
2846.00,0.0803
2845.00,0.0871
2844.00,0.0946
2843.00,0.1027
2842.00,0.1109
2841.00,0.1186
2840.00,0.1249
2839.00,0.1289
2838.00,0.1298
2837.00,0.1269
2836.00,0.1205
2835.00,0.1110
2834.00,0.0998
2833.00,0.0880
2832.00,0.0768
2831.00,0.0668
2830.00,0.0584
2829.00,0.0515
2828.00,0.0459
2827.00,0.0414
2826.00,0.0377
2825.00,0.0347
2824.00,0.0322
2823.00,0.0301
2822.00,0.0282
2821.00,0.0266
2820.00,0.0253
2819.00,0.0241
2818.00,0.0231
2817.00,0.0221
2816.00,0.0213
2815.00,0.0206
2814.00,0.0200
2813.00,0.0194
2812.00,0.0189
2811.00,0.0183
2810.00,0.0178
2809.00,0.0173
2808.00,0.0167
2807.00,0.0161
2806.00,0.0155
2805.00,0.0149
2804.00,0.0142
2803.00,0.0136
2802.00,0.0130
2801.00,0.0126
2800.00,0.0122
2799.00,0.0118
2798.00,0.0116
2797.00,0.0113
2796.00,0.0111
2795.00,0.0109
2794.00,0.0106
2793.00,0.0104
2792.00,0.0100
2791.00,0.0097
2790.00,0.0093
2789.00,0.0090
2788.00,0.0086
2787.00,0.0083
2786.00,0.0079
2785.00,0.0076
2784.00,0.0073
2783.00,0.0071
2782.00,0.0069
2781.00,0.0067
2780.00,0.0065
2779.00,0.0063
2778.00,0.0062
2777.00,0.0060
2776.00,0.0059
2775.00,0.0058
2774.00,0.0057
2773.00,0.0056
2772.00,0.0055
2771.00,0.0055
2770.00,0.0055
2769.00,0.0054
2768.00,0.0054
2767.00,0.0054
2766.00,0.0054
2765.00,0.0053
2764.00,0.0053
2763.00,0.0053
2762.00,0.0052
2761.00,0.0052
2760.00,0.0052
2759.00,0.0051
2758.00,0.0051
2757.00,0.0050
2756.00,0.0050
2755.00,0.0050
2754.00,0.0050
2753.00,0.0050
2752.00,0.0049
2751.00,0.0049
2750.00,0.0048
2749.00,0.0048
2748.00,0.0048
2747.00,0.0049
2746.00,0.0050
2745.00,0.0051
2744.00,0.0052
2743.00,0.0053
2742.00,0.0054
2741.00,0.0055
2740.00,0.0056
2739.00,0.0057
2738.00,0.0059
2737.00,0.0061
2736.00,0.0062
2735.00,0.0064
2734.00,0.0065
2733.00,0.0067
2732.00,0.0068
2731.00,0.0070
2730.00,0.0073
2729.00,0.0075
2728.00,0.0078
2727.00,0.0080
2726.00,0.0083
2725.00,0.0085
2724.00,0.0087
2723.00,0.0087
2722.00,0.0086
2721.00,0.0084
2720.00,0.0082
2719.00,0.0078
2718.00,0.0075
2717.00,0.0072
2716.00,0.0069
2715.00,0.0067
2714.00,0.0064
2713.00,0.0062
2712.00,0.0059
2711.00,0.0057
2710.00,0.0056
2709.00,0.0055
2708.00,0.0053
2707.00,0.0052
2706.00,0.0051
2705.00,0.0049
2704.00,0.0048
2703.00,0.0048
2702.00,0.0047
2701.00,0.0046
2700.00,0.0046
2699.00,0.0045
2698.00,0.0045
2697.00,0.0045
2696.00,0.0045
2695.00,0.0044
2694.00,0.0044
2693.00,0.0044
2692.00,0.0044
2691.00,0.0045
2690.00,0.0045
2689.00,0.0045
2688.00,0.0044
2687.00,0.0044
2686.00,0.0044
2685.00,0.0044
2684.00,0.0044
2683.00,0.0044
2682.00,0.0044
2681.00,0.0044
2680.00,0.0045
2679.00,0.0044
2678.00,0.0044
2677.00,0.0044
2676.00,0.0044
2675.00,0.0044
2674.00,0.0044
2673.00,0.0043
2672.00,0.0043
2671.00,0.0042
2670.00,0.0042
2669.00,0.0042
2668.00,0.0043
2667.00,0.0043
2666.00,0.0044
2665.00,0.0045
2664.00,0.0045
2663.00,0.0045
2662.00,0.0046
2661.00,0.0046
2660.00,0.0047
2659.00,0.0047
2658.00,0.0048
2657.00,0.0047
2656.00,0.0047
2655.00,0.0046
2654.00,0.0045
2653.00,0.0045
2652.00,0.0044
2651.00,0.0044
2650.00,0.0043
2649.00,0.0043
2648.00,0.0042
2647.00,0.0041
2646.00,0.0041
2645.00,0.0040
2644.00,0.0040
2643.00,0.0039
2642.00,0.0039
2641.00,0.0039
2640.00,0.0039
2639.00,0.0038
2638.00,0.0038
2637.00,0.0038
2636.00,0.0037
2635.00,0.0037
2634.00,0.0037
2633.00,0.0037
2632.00,0.0038
2631.00,0.0038
2630.00,0.0038
2629.00,0.0039
2628.00,0.0039
2627.00,0.0039
2626.00,0.0039
2625.00,0.0039
2624.00,0.0039
2623.00,0.0039
2622.00,0.0040
2621.00,0.0040
2620.00,0.0040
2619.00,0.0040
2618.00,0.0039
2617.00,0.0039
2616.00,0.0040
2615.00,0.0040
2614.00,0.0040
2613.00,0.0039
2612.00,0.0039
2611.00,0.0038
2610.00,0.0037
2609.00,0.0036
2608.00,0.0035
2607.00,0.0034
2606.00,0.0034
2605.00,0.0033
2604.00,0.0032
2603.00,0.0031
2602.00,0.0031
2601.00,0.0030
2600.00,0.0030
2599.00,0.0030
2598.00,0.0030
2597.00,0.0030
2596.00,0.0030
2595.00,0.0030
2594.00,0.0031
2593.00,0.0032
2592.00,0.0032
2591.00,0.0033
2590.00,0.0033
2589.00,0.0034
2588.00,0.0035
2587.00,0.0037
2586.00,0.0038
2585.00,0.0038
2584.00,0.0039
2583.00,0.0039
2582.00,0.0038
2581.00,0.0038
2580.00,0.0037
2579.00,0.0037
2578.00,0.0036
2577.00,0.0035
2576.00,0.0034
2575.00,0.0033
2574.00,0.0032
2573.00,0.0031
2572.00,0.0030
2571.00,0.0029
2570.00,0.0028
2569.00,0.0027
2568.00,0.0026
2567.00,0.0026
2566.00,0.0025
2565.00,0.0025
2564.00,0.0025
2563.00,0.0025
2562.00,0.0024
2561.00,0.0024
2560.00,0.0023
2559.00,0.0023
2558.00,0.0023
2557.00,0.0022
2556.00,0.0022
2555.00,0.0021
2554.00,0.0021
2553.00,0.0021
2552.00,0.0021
2551.00,0.0021
2550.00,0.0022
2549.00,0.0021
2548.00,0.0021
2547.00,0.0020
2546.00,0.0019
2545.00,0.0018
2544.00,0.0018
2543.00,0.0017
2542.00,0.0017
2541.00,0.0017
2540.00,0.0017
2539.00,0.0017
2538.00,0.0017
2537.00,0.0017
2536.00,0.0017
2535.00,0.0017
2534.00,0.0017
2533.00,0.0016
2532.00,0.0016
2531.00,0.0015
2530.00,0.0015
2529.00,0.0014
2528.00,0.0014
2527.00,0.0014
2526.00,0.0013
2525.00,0.0013
2524.00,0.0013
2523.00,0.0013
2522.00,0.0013
2521.00,0.0013
2520.00,0.0013
2519.00,0.0012
2518.00,0.0012
2517.00,0.0012
2516.00,0.0012
2515.00,0.0012
2514.00,0.0012
2513.00,0.0011
2512.00,0.0011
2511.00,0.0011
2510.00,0.0010
2509.00,0.0010
2508.00,0.0010
2507.00,0.0010
2506.00,0.0010
2505.00,0.0010
2504.00,0.0010
2503.00,0.0010
2502.00,0.0010
2501.00,0.0009
2500.00,0.0009
2499.00,0.0009
2498.00,0.0010
2497.00,0.0011
2496.00,0.0011
2495.00,0.0012
2494.00,0.0012
2493.00,0.0011
2492.00,0.0010
2491.00,0.0010
2490.00,0.0010
2489.00,0.0010
2488.00,0.0009
2487.00,0.0009
2486.00,0.0009
2485.00,0.0008
2484.00,0.0008
2483.00,0.0009
2482.00,0.0009
2481.00,0.0009
2480.00,0.0010
2479.00,0.0009
2478.00,0.0009
2477.00,0.0009
2476.00,0.0009
2475.00,0.0009
2474.00,0.0010
2473.00,0.0010
2472.00,0.0009
2471.00,0.0009
2470.00,0.0008
2469.00,0.0008
2468.00,0.0008
2467.00,0.0008
2466.00,0.0008
2465.00,0.0008
2464.00,0.0009
2463.00,0.0009
2462.00,0.0010
2461.00,0.0011
2460.00,0.0011
2459.00,0.0011
2458.00,0.0011
2457.00,0.0011
2456.00,0.0011
2455.00,0.0010
2454.00,0.0010
2453.00,0.0010
2452.00,0.0010
2451.00,0.0010
2450.00,0.0010
2449.00,0.0010
2448.00,0.0011
2447.00,0.0011
2446.00,0.0011
2445.00,0.0011
2444.00,0.0011
2443.00,0.0011
2442.00,0.0011
2441.00,0.0011
2440.00,0.0011
2439.00,0.0012
2438.00,0.0012
2437.00,0.0012
2436.00,0.0012
2435.00,0.0012
2434.00,0.0012
2433.00,0.0012
2432.00,0.0012
2431.00,0.0012
2430.00,0.0012
2429.00,0.0012
2428.00,0.0012
2427.00,0.0012
2426.00,0.0012
2425.00,0.0012
2424.00,0.0011
2423.00,0.0011
2422.00,0.0011
2421.00,0.0011
2420.00,0.0011
2419.00,0.0011
2418.00,0.0010
2417.00,0.0010
2416.00,0.0010
2415.00,0.0009
2414.00,0.0009
2413.00,0.0009
2412.00,0.0009
2411.00,0.0009
2410.00,0.0010
2409.00,0.0010
2408.00,0.0010
2407.00,0.0009
2406.00,0.0008
2405.00,0.0008
2404.00,0.0009
2403.00,0.0009
2402.00,0.0010
2401.00,0.0010
2400.00,0.0009
2399.00,0.0009
2398.00,0.0008
2397.00,0.0008
2396.00,0.0007
2395.00,0.0007
2394.00,0.0007
2393.00,0.0008
2392.00,0.0008
2391.00,0.0007
2390.00,0.0007
2389.00,0.0006
2388.00,0.0005
2387.00,0.0005
2386.00,0.0004
2385.00,0.0004
2384.00,0.0004
2383.00,0.0004
2382.00,0.0003
2381.00,0.0003
2380.00,0.0003
2379.00,0.0002
2378.00,0.0003
2377.00,0.0003
2376.00,0.0003
2375.00,0.0003
2374.00,0.0003
2373.00,0.0003
2372.00,0.0002
2371.00,0.0001
2370.00,0.0000
2369.00,-0.0000
2368.00,-0.0000
2367.00,0.0000
2366.00,0.0000
2365.00,0.0001
2364.00,0.0001
2363.00,0.0002
2362.00,0.0003
2361.00,0.0003
2360.00,0.0003
2359.00,0.0002
2358.00,0.0002
2357.00,0.0002
2356.00,0.0002
2355.00,0.0003
2354.00,0.0003
2353.00,0.0002
2352.00,0.0002
2351.00,0.0002
2350.00,0.0002
2349.00,0.0002
2348.00,0.0002
2347.00,0.0002
2346.00,0.0002
2345.00,0.0002
2344.00,0.0003
2343.00,0.0004
2342.00,0.0005
2341.00,0.0005
2340.00,0.0005
2339.00,0.0005
2338.00,0.0005
2337.00,0.0006
2336.00,0.0006
2335.00,0.0006
2334.00,0.0005
2333.00,0.0004
2332.00,0.0003
2331.00,0.0002
2330.00,0.0002
2329.00,0.0003
2328.00,0.0006
2327.00,0.0010
2326.00,0.0015
2325.00,0.0019
2324.00,0.0020
2323.00,0.0020
2322.00,0.0018
2321.00,0.0015
2320.00,0.0014
2319.00,0.0013
2318.00,0.0013
2317.00,0.0012
2316.00,0.0011
2315.00,0.0010
2314.00,0.0009
2313.00,0.0008
2312.00,0.0007
2311.00,0.0007
2310.00,0.0007
2309.00,0.0007
2308.00,0.0007
2307.00,0.0007
2306.00,0.0007
2305.00,0.0007
2304.00,0.0007
2303.00,0.0008
2302.00,0.0008
2301.00,0.0009
2300.00,0.0009
2299.00,0.0010
2298.00,0.0010
2297.00,0.0011
2296.00,0.0012
2295.00,0.0013
2294.00,0.0014
2293.00,0.0015
2292.00,0.0016
2291.00,0.0017
2290.00,0.0016
2289.00,0.0016
2288.00,0.0017
2287.00,0.0018
2286.00,0.0018
2285.00,0.0019
2284.00,0.0019
2283.00,0.0018
2282.00,0.0016
2281.00,0.0014
2280.00,0.0013
2279.00,0.0012
2278.00,0.0011
2277.00,0.0011
2276.00,0.0012
2275.00,0.0014
2274.00,0.0015
2273.00,0.0014
2272.00,0.0014
2271.00,0.0013
2270.00,0.0014
2269.00,0.0015
2268.00,0.0015
2267.00,0.0014
2266.00,0.0012
2265.00,0.0010
2264.00,0.0009
2263.00,0.0009
2262.00,0.0009
2261.00,0.0009
2260.00,0.0010
2259.00,0.0010
2258.00,0.0012
2257.00,0.0013
2256.00,0.0013
2255.00,0.0013
2254.00,0.0012
2253.00,0.0011
2252.00,0.0010
2251.00,0.0010
2250.00,0.0010
2249.00,0.0010
2248.00,0.0010
2247.00,0.0011
2246.00,0.0012
2245.00,0.0012
2244.00,0.0012
2243.00,0.0010
2242.00,0.0009
2241.00,0.0007
2240.00,0.0006
2239.00,0.0006
2238.00,0.0007
2237.00,0.0008
2236.00,0.0009
2235.00,0.0009
2234.00,0.0009
2233.00,0.0009
2232.00,0.0010
2231.00,0.0010
2230.00,0.0010
2229.00,0.0010
2228.00,0.0009
2227.00,0.0007
2226.00,0.0005
2225.00,0.0004
2224.00,0.0003
2223.00,0.0003
2222.00,0.0003
2221.00,0.0002
2220.00,0.0002
2219.00,0.0002
2218.00,0.0004
2217.00,0.0006
2216.00,0.0006
2215.00,0.0006
2214.00,0.0005
2213.00,0.0004
2212.00,0.0003
2211.00,0.0004
2210.00,0.0005
2209.00,0.0007
2208.00,0.0009
2207.00,0.0010
2206.00,0.0010
2205.00,0.0009
2204.00,0.0008
2203.00,0.0006
2202.00,0.0005
2201.00,0.0005
2200.00,0.0007
2199.00,0.0009
2198.00,0.0009
2197.00,0.0008
2196.00,0.0007
2195.00,0.0005
2194.00,0.0005
2193.00,0.0007
2192.00,0.0010
2191.00,0.0012
2190.00,0.0013
2189.00,0.0014
2188.00,0.0015
2187.00,0.0015
2186.00,0.0016
2185.00,0.0015
2184.00,0.0014
2183.00,0.0011
2182.00,0.0007
2181.00,0.0004
2180.00,0.0001
2179.00,-0.0000
2178.00,-0.0001
2177.00,-0.0001
2176.00,-0.0001
2175.00,-0.0002
2174.00,-0.0003
2173.00,-0.0001
2172.00,0.0002
2171.00,0.0006
2170.00,0.0011
2169.00,0.0015
2168.00,0.0016
2167.00,0.0016
2166.00,0.0014
2165.00,0.0014
2164.00,0.0016
2163.00,0.0019
2162.00,0.0019
2161.00,0.0014
2160.00,0.0003
2159.00,-0.0012
2158.00,-0.0026
2157.00,-0.0032
2156.00,-0.0032
2155.00,-0.0026
2154.00,-0.0019
2153.00,-0.0011
2152.00,-0.0007
2151.00,-0.0006
2150.00,-0.0008
2149.00,-0.0011
2148.00,-0.0012
2147.00,-0.0013
2146.00,-0.0013
2145.00,-0.0014
2144.00,-0.0015
2143.00,-0.0016
2142.00,-0.0015
2141.00,-0.0013
2140.00,-0.0011
2139.00,-0.0010
2138.00,-0.0010
2137.00,-0.0011
2136.00,-0.0012
2135.00,-0.0014
2134.00,-0.0015
2133.00,-0.0016
2132.00,-0.0016
2131.00,-0.0015
2130.00,-0.0013
2129.00,-0.0011
2128.00,-0.0009
2127.00,-0.0007
2126.00,-0.0006
2125.00,-0.0005
2124.00,-0.0004
2123.00,-0.0004
2122.00,-0.0005
2121.00,-0.0006
2120.00,-0.0006
2119.00,-0.0005
2118.00,-0.0003
2117.00,-0.0000
2116.00,0.0002
2115.00,0.0004
2114.00,0.0004
2113.00,0.0005
2112.00,0.0005
2111.00,0.0005
2110.00,0.0004
2109.00,0.0002
2108.00,0.0001
2107.00,0.0000
2106.00,0.0000
2105.00,0.0001
2104.00,0.0002
2103.00,0.0002
2102.00,0.0002
2101.00,0.0001
2100.00,0.0001
2099.00,-0.0000
2098.00,-0.0001
2097.00,-0.0002
2096.00,-0.0002
2095.00,-0.0002
2094.00,-0.0003
2093.00,-0.0003
2092.00,-0.0003
2091.00,-0.0001
2090.00,0.0001
2089.00,0.0002
2088.00,0.0002
2087.00,0.0001
2086.00,0.0001
2085.00,0.0001
2084.00,0.0002
2083.00,0.0003
2082.00,0.0004
2081.00,0.0005
2080.00,0.0005
2079.00,0.0004
2078.00,0.0003
2077.00,0.0003
2076.00,0.0003
2075.00,0.0004
2074.00,0.0004
2073.00,0.0003
2072.00,0.0003
2071.00,0.0002
2070.00,0.0002
2069.00,0.0001
2068.00,-0.0001
2067.00,-0.0002
2066.00,-0.0001
2065.00,-0.0000
2064.00,0.0001
2063.00,0.0002
2062.00,0.0001
2061.00,-0.0000
2060.00,-0.0002
2059.00,-0.0003
2058.00,-0.0003
2057.00,-0.0003
2056.00,-0.0001
2055.00,0.0001
2054.00,0.0003
2053.00,0.0006
2052.00,0.0010
2051.00,0.0012
2050.00,0.0012
2049.00,0.0009
2048.00,0.0006
2047.00,0.0002
2046.00,-0.0000
2045.00,-0.0002
2044.00,-0.0002
2043.00,-0.0000
2042.00,0.0000
2041.00,-0.0001
2040.00,-0.0003
2039.00,-0.0005
2038.00,-0.0006
2037.00,-0.0006
2036.00,-0.0007
2035.00,-0.0008
2034.00,-0.0010
2033.00,-0.0012
2032.00,-0.0012
2031.00,-0.0012
2030.00,-0.0012
2029.00,-0.0011
2028.00,-0.0010
2027.00,-0.0009
2026.00,-0.0008
2025.00,-0.0008
2024.00,-0.0009
2023.00,-0.0011
2022.00,-0.0012
2021.00,-0.0010
2020.00,-0.0008
2019.00,-0.0009
2018.00,-0.0011
2017.00,-0.0014
2016.00,-0.0015
2015.00,-0.0014
2014.00,-0.0012
2013.00,-0.0010
2012.00,-0.0008
2011.00,-0.0006
2010.00,-0.0006
2009.00,-0.0007
2008.00,-0.0011
2007.00,-0.0016
2006.00,-0.0019
2005.00,-0.0018
2004.00,-0.0015
2003.00,-0.0013
2002.00,-0.0013
2001.00,-0.0013
2000.00,-0.0015
1999.00,-0.0015
1998.00,-0.0015
1997.00,-0.0014
1996.00,-0.0015
1995.00,-0.0017
1994.00,-0.0017
1993.00,-0.0015
1992.00,-0.0012
1991.00,-0.0010
1990.00,-0.0008
1989.00,-0.0006
1988.00,-0.0003
1987.00,-0.0001
1986.00,0.0000
1985.00,0.0001
1984.00,0.0002
1983.00,0.0005
1982.00,0.0008
1981.00,0.0011
1980.00,0.0011
1979.00,0.0008
1978.00,0.0000
1977.00,-0.0007
1976.00,-0.0013
1975.00,-0.0017
1974.00,-0.0019
1973.00,-0.0019
1972.00,-0.0019
1971.00,-0.0020
1970.00,-0.0020
1969.00,-0.0020
1968.00,-0.0019
1967.00,-0.0019
1966.00,-0.0018
1965.00,-0.0018
1964.00,-0.0018
1963.00,-0.0018
1962.00,-0.0019
1961.00,-0.0021
1960.00,-0.0022
1959.00,-0.0023
1958.00,-0.0023
1957.00,-0.0022
1956.00,-0.0019
1955.00,-0.0016
1954.00,-0.0015
1953.00,-0.0015
1952.00,-0.0015
1951.00,-0.0017
1950.00,-0.0020
1949.00,-0.0021
1948.00,-0.0021
1947.00,-0.0019
1946.00,-0.0018
1945.00,-0.0018
1944.00,-0.0018
1943.00,-0.0018
1942.00,-0.0018
1941.00,-0.0018
1940.00,-0.0018
1939.00,-0.0017
1938.00,-0.0017
1937.00,-0.0015
1936.00,-0.0014
1935.00,-0.0013
1934.00,-0.0013
1933.00,-0.0013
1932.00,-0.0012
1931.00,-0.0011
1930.00,-0.0010
1929.00,-0.0010
1928.00,-0.0010
1927.00,-0.0010
1926.00,-0.0011
1925.00,-0.0012
1924.00,-0.0012
1923.00,-0.0012
1922.00,-0.0011
1921.00,-0.0009
1920.00,-0.0007
1919.00,-0.0005
1918.00,-0.0004
1917.00,-0.0003
1916.00,-0.0003
1915.00,-0.0003
1914.00,-0.0004
1913.00,-0.0004
1912.00,-0.0004
1911.00,-0.0005
1910.00,-0.0006
1909.00,-0.0006
1908.00,-0.0006
1907.00,-0.0006
1906.00,-0.0005
1905.00,-0.0005
1904.00,-0.0004
1903.00,-0.0004
1902.00,-0.0004
1901.00,-0.0004
1900.00,-0.0003
1899.00,-0.0003
1898.00,-0.0002
1897.00,-0.0002
1896.00,-0.0001
1895.00,-0.0000
1894.00,-0.0000
1893.00,-0.0000
1892.00,-0.0001
1891.00,-0.0001
1890.00,-0.0002
1889.00,-0.0002
1888.00,-0.0002
1887.00,-0.0001
1886.00,-0.0001
1885.00,-0.0002
1884.00,-0.0002
1883.00,-0.0002
1882.00,-0.0002
1881.00,-0.0002
1880.00,-0.0002
1879.00,-0.0002
1878.00,-0.0003
1877.00,-0.0004
1876.00,-0.0005
1875.00,-0.0005
1874.00,-0.0005
1873.00,-0.0004
1872.00,-0.0004
1871.00,-0.0003
1870.00,-0.0003
1869.00,-0.0002
1868.00,-0.0001
1867.00,-0.0001
1866.00,-0.0001
1865.00,-0.0001
1864.00,-0.0001
1863.00,-0.0002
1862.00,-0.0002
1861.00,-0.0002
1860.00,-0.0001
1859.00,-0.0002
1858.00,-0.0002
1857.00,-0.0001
1856.00,-0.0001
1855.00,-0.0001
1854.00,-0.0001
1853.00,-0.0002
1852.00,-0.0002
1851.00,-0.0001
1850.00,-0.0001
1849.00,-0.0001
1848.00,-0.0000
1847.00,-0.0000
1846.00,0.0000
1845.00,0.0001
1844.00,0.0001
1843.00,0.0000
1842.00,-0.0000
1841.00,-0.0001
1840.00,-0.0001
1839.00,-0.0000
1838.00,0.0000
1837.00,0.0000
1836.00,0.0001
1835.00,0.0001
1834.00,0.0001
1833.00,0.0002
1832.00,0.0003
1831.00,0.0004
1830.00,0.0005
1829.00,0.0004
1828.00,0.0003
1827.00,0.0002
1826.00,0.0002
1825.00,0.0003
1824.00,0.0003
1823.00,0.0003
1822.00,0.0003
1821.00,0.0002
1820.00,0.0001
1819.00,0.0000
1818.00,-0.0001
1817.00,-0.0001
1816.00,-0.0001
1815.00,-0.0000
1814.00,0.0000
1813.00,0.0000
1812.00,0.0000
1811.00,-0.0000
1810.00,0.0000
1809.00,0.0001
1808.00,0.0002
1807.00,0.0002
1806.00,0.0003
1805.00,0.0003
1804.00,0.0003
1803.00,0.0003
1802.00,0.0003
1801.00,0.0003
1800.00,0.0003
1799.00,0.0003
1798.00,0.0003
1797.00,0.0003
1796.00,0.0003
1795.00,0.0004
1794.00,0.0004
1793.00,0.0005
1792.00,0.0005
1791.00,0.0005
1790.00,0.0005
1789.00,0.0006
1788.00,0.0006
1787.00,0.0007
1786.00,0.0007
1785.00,0.0007
1784.00,0.0007
1783.00,0.0007
1782.00,0.0006
1781.00,0.0007
1780.00,0.0007
1779.00,0.0006
1778.00,0.0006
1777.00,0.0005
1776.00,0.0005
1775.00,0.0005
1774.00,0.0006
1773.00,0.0007
1772.00,0.0007
1771.00,0.0007
1770.00,0.0007
1769.00,0.0008
1768.00,0.0008
1767.00,0.0008
1766.00,0.0008
1765.00,0.0009
1764.00,0.0009
1763.00,0.0009
1762.00,0.0009
1761.00,0.0009
1760.00,0.0009
1759.00,0.0009
1758.00,0.0009
1757.00,0.0010
1756.00,0.0011
1755.00,0.0011
1754.00,0.0011
1753.00,0.0012
1752.00,0.0012
1751.00,0.0012
1750.00,0.0013
1749.00,0.0014
1748.00,0.0015
1747.00,0.0016
1746.00,0.0017
1745.00,0.0017
1744.00,0.0018
1743.00,0.0018
1742.00,0.0018
1741.00,0.0018
1740.00,0.0019
1739.00,0.0019
1738.00,0.0020
1737.00,0.0020
1736.00,0.0021
1735.00,0.0021
1734.00,0.0021
1733.00,0.0021
1732.00,0.0020
1731.00,0.0020
1730.00,0.0021
1729.00,0.0021
1728.00,0.0021
1727.00,0.0021
1726.00,0.0020
1725.00,0.0020
1724.00,0.0021
1723.00,0.0020
1722.00,0.0020
1721.00,0.0020
1720.00,0.0019
1719.00,0.0019
1718.00,0.0019
1717.00,0.0018
1716.00,0.0018
1715.00,0.0018
1714.00,0.0019
1713.00,0.0020
1712.00,0.0020
1711.00,0.0020
1710.00,0.0020
1709.00,0.0020
1708.00,0.0020
1707.00,0.0020
1706.00,0.0021
1705.00,0.0021
1704.00,0.0022
1703.00,0.0022
1702.00,0.0022
1701.00,0.0022
1700.00,0.0023
1699.00,0.0022
1698.00,0.0022
1697.00,0.0022
1696.00,0.0022
1695.00,0.0023
1694.00,0.0024
1693.00,0.0024
1692.00,0.0024
1691.00,0.0024
1690.00,0.0024
1689.00,0.0024
1688.00,0.0024
1687.00,0.0024
1686.00,0.0023
1685.00,0.0023
1684.00,0.0024
1683.00,0.0024
1682.00,0.0025
1681.00,0.0026
1680.00,0.0027
1679.00,0.0028
1678.00,0.0028
1677.00,0.0028
1676.00,0.0029
1675.00,0.0029
1674.00,0.0029
1673.00,0.0029
1672.00,0.0029
1671.00,0.0028
1670.00,0.0028
1669.00,0.0029
1668.00,0.0030
1667.00,0.0031
1666.00,0.0031
1665.00,0.0031
1664.00,0.0032
1663.00,0.0033
1662.00,0.0034
1661.00,0.0034
1660.00,0.0035
1659.00,0.0035
1658.00,0.0035
1657.00,0.0036
1656.00,0.0036
1655.00,0.0037
1654.00,0.0037
1653.00,0.0038
1652.00,0.0039
1651.00,0.0039
1650.00,0.0040
1649.00,0.0040
1648.00,0.0041
1647.00,0.0042
1646.00,0.0042
1645.00,0.0043
1644.00,0.0043
1643.00,0.0044
1642.00,0.0044
1641.00,0.0044
1640.00,0.0044
1639.00,0.0043
1638.00,0.0043
1637.00,0.0043
1636.00,0.0043
1635.00,0.0044
1634.00,0.0044
1633.00,0.0044
1632.00,0.0044
1631.00,0.0044
1630.00,0.0044
1629.00,0.0044
1628.00,0.0043
1627.00,0.0043
1626.00,0.0042
1625.00,0.0042
1624.00,0.0042
1623.00,0.0042
1622.00,0.0041
1621.00,0.0041
1620.00,0.0041
1619.00,0.0041
1618.00,0.0041
1617.00,0.0041
1616.00,0.0041
1615.00,0.0042
1614.00,0.0042
1613.00,0.0042
1612.00,0.0042
1611.00,0.0041
1610.00,0.0041
1609.00,0.0040
1608.00,0.0040
1607.00,0.0040
1606.00,0.0040
1605.00,0.0040
1604.00,0.0040
1603.00,0.0040
1602.00,0.0040
1601.00,0.0040
1600.00,0.0040
1599.00,0.0040
1598.00,0.0040
1597.00,0.0040
1596.00,0.0040
1595.00,0.0039
1594.00,0.0039
1593.00,0.0039
1592.00,0.0040
1591.00,0.0040
1590.00,0.0040
1589.00,0.0040
1588.00,0.0040
1587.00,0.0041
1586.00,0.0042
1585.00,0.0042
1584.00,0.0043
1583.00,0.0044
1582.00,0.0044
1581.00,0.0045
1580.00,0.0046
1579.00,0.0047
1578.00,0.0048
1577.00,0.0049
1576.00,0.0049
1575.00,0.0048
1574.00,0.0048
1573.00,0.0047
1572.00,0.0047
1571.00,0.0047
1570.00,0.0046
1569.00,0.0045
1568.00,0.0045
1567.00,0.0044
1566.00,0.0044
1565.00,0.0044
1564.00,0.0044
1563.00,0.0045
1562.00,0.0044
1561.00,0.0045
1560.00,0.0046
1559.00,0.0047
1558.00,0.0046
1557.00,0.0046
1556.00,0.0046
1555.00,0.0047
1554.00,0.0047
1553.00,0.0049
1552.00,0.0050
1551.00,0.0050
1550.00,0.0050
1549.00,0.0050
1548.00,0.0051
1547.00,0.0052
1546.00,0.0053
1545.00,0.0054
1544.00,0.0055
1543.00,0.0055
1542.00,0.0054
1541.00,0.0054
1540.00,0.0054
1539.00,0.0053
1538.00,0.0053
1537.00,0.0052
1536.00,0.0052
1535.00,0.0051
1534.00,0.0049
1533.00,0.0048
1532.00,0.0047
1531.00,0.0046
1530.00,0.0046
1529.00,0.0046
1528.00,0.0046
1527.00,0.0045
1526.00,0.0044
1525.00,0.0044
1524.00,0.0045
1523.00,0.0045
1522.00,0.0045
1521.00,0.0045
1520.00,0.0045
1519.00,0.0046
1518.00,0.0046
1517.00,0.0047
1516.00,0.0049
1515.00,0.0049
1514.00,0.0049
1513.00,0.0050
1512.00,0.0052
1511.00,0.0052
1510.00,0.0053
1509.00,0.0054
1508.00,0.0055
1507.00,0.0055
1506.00,0.0055
1505.00,0.0056
1504.00,0.0058
1503.00,0.0059
1502.00,0.0061
1501.00,0.0063
1500.00,0.0065
1499.00,0.0066
1498.00,0.0068
1497.00,0.0071
1496.00,0.0074
1495.00,0.0076
1494.00,0.0078
1493.00,0.0081
1492.00,0.0084
1491.00,0.0087
1490.00,0.0091
1489.00,0.0096
1488.00,0.0101
1487.00,0.0106
1486.00,0.0111
1485.00,0.0117
1484.00,0.0124
1483.00,0.0131
1482.00,0.0139
1481.00,0.0149
1480.00,0.0161
1479.00,0.0172
1478.00,0.0187
1477.00,0.0206
1476.00,0.0228
1475.00,0.0253
1474.00,0.0287
1473.00,0.0339
1472.00,0.0403
1471.00,0.0466
1470.00,0.0526
1469.00,0.0588
1468.00,0.0656
1467.00,0.0732
1466.00,0.0818
1465.00,0.0914
1464.00,0.0999
1463.00,0.1062
1462.00,0.1105
1461.00,0.1138
1460.00,0.1165
1459.00,0.1188
1458.00,0.1212
1457.00,0.1237
1456.00,0.1251
1455.00,0.1256
1454.00,0.1255
1453.00,0.1248
1452.00,0.1231
1451.00,0.1199
1450.00,0.1150
1449.00,0.1076
1448.00,0.0977
1447.00,0.0869
1446.00,0.0771
1445.00,0.0686
1444.00,0.0613
1443.00,0.0553
1442.00,0.0509
1441.00,0.0479
1440.00,0.0459
1439.00,0.0450
1438.00,0.0447
1437.00,0.0443
1436.00,0.0428
1435.00,0.0400
1434.00,0.0362
1433.00,0.0317
1432.00,0.0271
1431.00,0.0230
1430.00,0.0198
1429.00,0.0175
1428.00,0.0160
1427.00,0.0151
1426.00,0.0145
1425.00,0.0139
1424.00,0.0133
1423.00,0.0130
1422.00,0.0128
1421.00,0.0127
1420.00,0.0124
1419.00,0.0121
1418.00,0.0119
1417.00,0.0116
1416.00,0.0114
1415.00,0.0113
1414.00,0.0113
1413.00,0.0111
1412.00,0.0109
1411.00,0.0109
1410.00,0.0108
1409.00,0.0108
1408.00,0.0107
1407.00,0.0107
1406.00,0.0108
1405.00,0.0108
1404.00,0.0108
1403.00,0.0109
1402.00,0.0111
1401.00,0.0112
1400.00,0.0113
1399.00,0.0116
1398.00,0.0118
1397.00,0.0121
1396.00,0.0123
1395.00,0.0127
1394.00,0.0133
1393.00,0.0139
1392.00,0.0145
1391.00,0.0154
1390.00,0.0166
1389.00,0.0183
1388.00,0.0209
1387.00,0.0247
1386.00,0.0297
1385.00,0.0360
1384.00,0.0444
1383.00,0.0556
1382.00,0.0702
1381.00,0.0885
1380.00,0.1107
1379.00,0.1355
1378.00,0.1591
1377.00,0.1763
1376.00,0.1821
1375.00,0.1736
1374.00,0.1529
1373.00,0.1275
1372.00,0.1037
1371.00,0.0839
1370.00,0.0677
1369.00,0.0552
1368.00,0.0465
1367.00,0.0411
1366.00,0.0382
1365.00,0.0370
1364.00,0.0372
1363.00,0.0385
1362.00,0.0406
1361.00,0.0428
1360.00,0.0444
1359.00,0.0449
1358.00,0.0437
1357.00,0.0411
1356.00,0.0373
1355.00,0.0332
1354.00,0.0292
1353.00,0.0258
1352.00,0.0230
1351.00,0.0207
1350.00,0.0189
1349.00,0.0174
1348.00,0.0162
1347.00,0.0152
1346.00,0.0145
1345.00,0.0139
1344.00,0.0134
1343.00,0.0130
1342.00,0.0127
1341.00,0.0124
1340.00,0.0121
1339.00,0.0118
1338.00,0.0117
1337.00,0.0117
1336.00,0.0118
1335.00,0.0120
1334.00,0.0123
1333.00,0.0127
1332.00,0.0132
1331.00,0.0136
1330.00,0.0137
1329.00,0.0136
1328.00,0.0132
1327.00,0.0127
1326.00,0.0121
1325.00,0.0115
1324.00,0.0109
1323.00,0.0104
1322.00,0.0099
1321.00,0.0096
1320.00,0.0093
1319.00,0.0091
1318.00,0.0089
1317.00,0.0087
1316.00,0.0086
1315.00,0.0085
1314.00,0.0085
1313.00,0.0085
1312.00,0.0088
1311.00,0.0092
1310.00,0.0098
1309.00,0.0106
1308.00,0.0118
1307.00,0.0133
1306.00,0.0147
1305.00,0.0157
1304.00,0.0160
1303.00,0.0157
1302.00,0.0150
1301.00,0.0142
1300.00,0.0136
1299.00,0.0133
1298.00,0.0131
1297.00,0.0130
1296.00,0.0128
1295.00,0.0125
1294.00,0.0120
1293.00,0.0115
1292.00,0.0110
1291.00,0.0105
1290.00,0.0100
1289.00,0.0096
1288.00,0.0093
1287.00,0.0091
1286.00,0.0088
1285.00,0.0086
1284.00,0.0084
1283.00,0.0082
1282.00,0.0081
1281.00,0.0079
1280.00,0.0078
1279.00,0.0077
1278.00,0.0077
1277.00,0.0076
1276.00,0.0076
1275.00,0.0075
1274.00,0.0074
1273.00,0.0075
1272.00,0.0075
1271.00,0.0076
1270.00,0.0076
1269.00,0.0077
1268.00,0.0078
1267.00,0.0079
1266.00,0.0081
1265.00,0.0083
1264.00,0.0086
1263.00,0.0089
1262.00,0.0093
1261.00,0.0099
1260.00,0.0107
1259.00,0.0117
1258.00,0.0128
1257.00,0.0137
1256.00,0.0142
1255.00,0.0141
1254.00,0.0134
1253.00,0.0124
1252.00,0.0113
1251.00,0.0104
1250.00,0.0098
1249.00,0.0093
1248.00,0.0089
1247.00,0.0087
1246.00,0.0086
1245.00,0.0085
1244.00,0.0084
1243.00,0.0083
1242.00,0.0082
1241.00,0.0082
1240.00,0.0081
1239.00,0.0080
1238.00,0.0079
1237.00,0.0078
1236.00,0.0078
1235.00,0.0077
1234.00,0.0077
1233.00,0.0076
1232.00,0.0076
1231.00,0.0076
1230.00,0.0076
1229.00,0.0077
1228.00,0.0077
1227.00,0.0078
1226.00,0.0079
1225.00,0.0080
1224.00,0.0082
1223.00,0.0085
1222.00,0.0089
1221.00,0.0092
1220.00,0.0094
1219.00,0.0094
1218.00,0.0094
1217.00,0.0092
1216.00,0.0090
1215.00,0.0088
1214.00,0.0087
1213.00,0.0085
1212.00,0.0083
1211.00,0.0082
1210.00,0.0080
1209.00,0.0078
1208.00,0.0076
1207.00,0.0075
1206.00,0.0073
1205.00,0.0073
1204.00,0.0072
1203.00,0.0072
1202.00,0.0071
1201.00,0.0071
1200.00,0.0072
1199.00,0.0072
1198.00,0.0073
1197.00,0.0072
1196.00,0.0072
1195.00,0.0071
1194.00,0.0071
1193.00,0.0070
1192.00,0.0071
1191.00,0.0072
1190.00,0.0073
1189.00,0.0074
1188.00,0.0075
1187.00,0.0077
1186.00,0.0080
1185.00,0.0082
1184.00,0.0085
1183.00,0.0087
1182.00,0.0088
1181.00,0.0091
1180.00,0.0094
1179.00,0.0100
1178.00,0.0108
1177.00,0.0119
1176.00,0.0133
1175.00,0.0153
1174.00,0.0179
1173.00,0.0212
1172.00,0.0251
1171.00,0.0294
1170.00,0.0337
1169.00,0.0372
1168.00,0.0395
1167.00,0.0402
1166.00,0.0394
1165.00,0.0374
1164.00,0.0349
1163.00,0.0323
1162.00,0.0298
1161.00,0.0276
1160.00,0.0258
1159.00,0.0244
1158.00,0.0234
1157.00,0.0226
1156.00,0.0219
1155.00,0.0214
1154.00,0.0209
1153.00,0.0204
1152.00,0.0198
1151.00,0.0191
1150.00,0.0182
1149.00,0.0171
1148.00,0.0161
1147.00,0.0151
1146.00,0.0142
1145.00,0.0133
1144.00,0.0126
1143.00,0.0118
1142.00,0.0112
1141.00,0.0105
1140.00,0.0099
1139.00,0.0094
1138.00,0.0090
1137.00,0.0087
1136.00,0.0085
1135.00,0.0083
1134.00,0.0081
1133.00,0.0080
1132.00,0.0078
1131.00,0.0078
1130.00,0.0078
1129.00,0.0078
1128.00,0.0078
1127.00,0.0078
1126.00,0.0078
1125.00,0.0078
1124.00,0.0078
1123.00,0.0078
1122.00,0.0078
1121.00,0.0078
1120.00,0.0079
1119.00,0.0080
1118.00,0.0080
1117.00,0.0081
1116.00,0.0082
1115.00,0.0084
1114.00,0.0086
1113.00,0.0087
1112.00,0.0088
1111.00,0.0091
1110.00,0.0094
1109.00,0.0098
1108.00,0.0103
1107.00,0.0109
1106.00,0.0115
1105.00,0.0121
1104.00,0.0126
1103.00,0.0129
1102.00,0.0130
1101.00,0.0128
1100.00,0.0124
1099.00,0.0119
1098.00,0.0113
1097.00,0.0107
1096.00,0.0101
1095.00,0.0096
1094.00,0.0092
1093.00,0.0090
1092.00,0.0088
1091.00,0.0086
1090.00,0.0084
1089.00,0.0082
1088.00,0.0080
1087.00,0.0079
1086.00,0.0078
1085.00,0.0076
1084.00,0.0075
1083.00,0.0075
1082.00,0.0074
1081.00,0.0073
1080.00,0.0073
1079.00,0.0072
1078.00,0.0071
1077.00,0.0071
1076.00,0.0071
1075.00,0.0071
1074.00,0.0071
1073.00,0.0071
1072.00,0.0071
1071.00,0.0071
1070.00,0.0072
1069.00,0.0072
1068.00,0.0072
1067.00,0.0072
1066.00,0.0073
1065.00,0.0073
1064.00,0.0074
1063.00,0.0075
1062.00,0.0075
1061.00,0.0076
1060.00,0.0077
1059.00,0.0077
1058.00,0.0078
1057.00,0.0079
1056.00,0.0080
1055.00,0.0081
1054.00,0.0082
1053.00,0.0083
1052.00,0.0085
1051.00,0.0087
1050.00,0.0089
1049.00,0.0092
1048.00,0.0095
1047.00,0.0098
1046.00,0.0100
1045.00,0.0102
1044.00,0.0101
1043.00,0.0100
1042.00,0.0096
1041.00,0.0093
1040.00,0.0090
1039.00,0.0087
1038.00,0.0086
1037.00,0.0085
1036.00,0.0084
1035.00,0.0084
1034.00,0.0083
1033.00,0.0083
1032.00,0.0083
1031.00,0.0083
1030.00,0.0083
1029.00,0.0082
1028.00,0.0082
1027.00,0.0081
1026.00,0.0081
1025.00,0.0081
1024.00,0.0081
1023.00,0.0081
1022.00,0.0082
1021.00,0.0082
1020.00,0.0083
1019.00,0.0085
1018.00,0.0087
1017.00,0.0090
1016.00,0.0093
1015.00,0.0096
1014.00,0.0099
1013.00,0.0103
1012.00,0.0107
1011.00,0.0112
1010.00,0.0117
1009.00,0.0122
1008.00,0.0129
1007.00,0.0138
1006.00,0.0150
1005.00,0.0165
1004.00,0.0186
1003.00,0.0215
1002.00,0.0254
1001.00,0.0301
1000.00,0.0353
999.00,0.0398
998.00,0.0424
997.00,0.0422
996.00,0.0392
995.00,0.0343
994.00,0.0290
993.00,0.0242
992.00,0.0203
991.00,0.0176
990.00,0.0157
989.00,0.0144
988.00,0.0135
987.00,0.0131
986.00,0.0130
985.00,0.0132
984.00,0.0138
983.00,0.0148
982.00,0.0163
981.00,0.0183
980.00,0.0208
979.00,0.0241
978.00,0.0283
977.00,0.0334
976.00,0.0391
975.00,0.0448
974.00,0.0494
973.00,0.0515
972.00,0.0504
971.00,0.0461
970.00,0.0399
969.00,0.0331
968.00,0.0271
967.00,0.0223
966.00,0.0188
965.00,0.0162
964.00,0.0144
963.00,0.0129
962.00,0.0118
961.00,0.0110
960.00,0.0104
959.00,0.0100
958.00,0.0096
957.00,0.0092
956.00,0.0088
955.00,0.0085
954.00,0.0083
953.00,0.0082
952.00,0.0082
951.00,0.0081
950.00,0.0080
949.00,0.0079
948.00,0.0079
947.00,0.0080
946.00,0.0083
945.00,0.0086
944.00,0.0089
943.00,0.0091
942.00,0.0093
941.00,0.0094
940.00,0.0092
939.00,0.0089
938.00,0.0085
937.00,0.0081
936.00,0.0076
935.00,0.0073
934.00,0.0069
933.00,0.0067
932.00,0.0065
931.00,0.0064
930.00,0.0063
929.00,0.0062
928.00,0.0062
927.00,0.0061
926.00,0.0061
925.00,0.0060
924.00,0.0059
923.00,0.0060
922.00,0.0061
921.00,0.0062
920.00,0.0063
919.00,0.0064
918.00,0.0065
917.00,0.0066
916.00,0.0067
915.00,0.0067
914.00,0.0067
913.00,0.0067
912.00,0.0068
911.00,0.0069
910.00,0.0071
909.00,0.0074
908.00,0.0076
907.00,0.0080
906.00,0.0085
905.00,0.0095
904.00,0.0109
903.00,0.0127
902.00,0.0146
901.00,0.0164
900.00,0.0175
899.00,0.0178
898.00,0.0172
897.00,0.0158
896.00,0.0141
895.00,0.0124
894.00,0.0109
893.00,0.0097
892.00,0.0089
891.00,0.0083
890.00,0.0080
889.00,0.0078
888.00,0.0076
887.00,0.0074
886.00,0.0071
885.00,0.0069
884.00,0.0068
883.00,0.0069
882.00,0.0070
881.00,0.0070
880.00,0.0069
879.00,0.0068
878.00,0.0068
877.00,0.0070
876.00,0.0071
875.00,0.0072
874.00,0.0072
873.00,0.0072
872.00,0.0071
871.00,0.0071
870.00,0.0071
869.00,0.0071
868.00,0.0072
867.00,0.0072
866.00,0.0073
865.00,0.0073
864.00,0.0074
863.00,0.0076
862.00,0.0077
861.00,0.0078
860.00,0.0080
859.00,0.0083
858.00,0.0085
857.00,0.0087
856.00,0.0090
855.00,0.0092
854.00,0.0094
853.00,0.0098
852.00,0.0102
851.00,0.0109
850.00,0.0117
849.00,0.0128
848.00,0.0142
847.00,0.0161
846.00,0.0190
845.00,0.0232
844.00,0.0290
843.00,0.0355
842.00,0.0408
841.00,0.0426
840.00,0.0401
839.00,0.0345
838.00,0.0282
837.00,0.0228
836.00,0.0191
835.00,0.0167
834.00,0.0152
833.00,0.0141
832.00,0.0132
831.00,0.0124
830.00,0.0118
829.00,0.0114
828.00,0.0113
827.00,0.0112
826.00,0.0111
825.00,0.0110
824.00,0.0108
823.00,0.0106
822.00,0.0103
821.00,0.0103
820.00,0.0104
819.00,0.0107
818.00,0.0112
817.00,0.0118
816.00,0.0127
815.00,0.0137
814.00,0.0148
813.00,0.0161
812.00,0.0174
811.00,0.0186
810.00,0.0194
809.00,0.0198
808.00,0.0197
807.00,0.0190
806.00,0.0179
805.00,0.0165
804.00,0.0151
803.00,0.0138
802.00,0.0127
801.00,0.0118
800.00,0.0111
799.00,0.0104
798.00,0.0100
797.00,0.0097
796.00,0.0095
795.00,0.0093
794.00,0.0090
793.00,0.0088
792.00,0.0086
791.00,0.0083
790.00,0.0081
789.00,0.0079
788.00,0.0076
787.00,0.0074
786.00,0.0071
785.00,0.0068
784.00,0.0065
783.00,0.0063
782.00,0.0061
781.00,0.0060
780.00,0.0060
779.00,0.0059
778.00,0.0058
777.00,0.0058
776.00,0.0058
775.00,0.0059
774.00,0.0060
773.00,0.0062
772.00,0.0064
771.00,0.0067
770.00,0.0071
769.00,0.0074
768.00,0.0075
767.00,0.0075
766.00,0.0074
765.00,0.0071
764.00,0.0069
763.00,0.0066
762.00,0.0064
761.00,0.0061
760.00,0.0058
759.00,0.0056
758.00,0.0055
757.00,0.0055
756.00,0.0056
755.00,0.0056
754.00,0.0055
753.00,0.0053
752.00,0.0051
751.00,0.0050
750.00,0.0050
749.00,0.0052
748.00,0.0053
747.00,0.0053
746.00,0.0053
745.00,0.0053
744.00,0.0053
743.00,0.0053
742.00,0.0055
741.00,0.0057
740.00,0.0059
739.00,0.0062
738.00,0.0064
737.00,0.0067
736.00,0.0070
735.00,0.0073
734.00,0.0074
733.00,0.0074
732.00,0.0073
731.00,0.0071
730.00,0.0069
729.00,0.0066
728.00,0.0065
727.00,0.0064
726.00,0.0064
725.00,0.0064
724.00,0.0063
723.00,0.0062
722.00,0.0062
721.00,0.0061
720.00,0.0060
719.00,0.0059
718.00,0.0058
717.00,0.0056
716.00,0.0054
715.00,0.0053
714.00,0.0053
713.00,0.0053
712.00,0.0053
711.00,0.0053
710.00,0.0051
709.00,0.0049
708.00,0.0049
707.00,0.0049
706.00,0.0051
705.00,0.0054
704.00,0.0055
703.00,0.0055
702.00,0.0054
701.00,0.0052
700.00,0.0050
699.00,0.0050
698.00,0.0051
697.00,0.0053
696.00,0.0054
695.00,0.0054
694.00,0.0053
693.00,0.0052
692.00,0.0051
691.00,0.0050
690.00,0.0049
689.00,0.0048
688.00,0.0047
687.00,0.0047
686.00,0.0046
685.00,0.0046
684.00,0.0047
683.00,0.0047
682.00,0.0048
681.00,0.0048
680.00,0.0047
679.00,0.0046
678.00,0.0046
677.00,0.0046
676.00,0.0046
675.00,0.0047
674.00,0.0046
673.00,0.0044
672.00,0.0043
671.00,0.0044
670.00,0.0048
669.00,0.0052
668.00,0.0054
667.00,0.0053
666.00,0.0050
665.00,0.0049
664.00,0.0050
663.00,0.0051
662.00,0.0051
661.00,0.0050
660.00,0.0050
659.00,0.0049
658.00,0.0048
657.00,0.0047
656.00,0.0046
655.00,0.0045
654.00,0.0043
653.00,0.0043
652.00,0.0044
651.00,0.0047
650.00,0.0050
649.00,0.0052
648.00,0.0052
647.00,0.0051
646.00,0.0049
645.00,0.0047
644.00,0.0047
643.00,0.0048
642.00,0.0050
641.00,0.0052
640.00,0.0053
639.00,0.0052
638.00,0.0049
637.00,0.0048
636.00,0.0048
635.00,0.0049
634.00,0.0052
633.00,0.0054
632.00,0.0055
631.00,0.0055
630.00,0.0055
629.00,0.0055
628.00,0.0055
627.00,0.0055
626.00,0.0054
625.00,0.0053
624.00,0.0052
623.00,0.0052
622.00,0.0052
621.00,0.0054
620.00,0.0055
619.00,0.0055
618.00,0.0055
617.00,0.0054
616.00,0.0053
615.00,0.0052
614.00,0.0051
613.00,0.0049
612.00,0.0048
611.00,0.0049
610.00,0.0052
609.00,0.0055
608.00,0.0057
607.00,0.0057
606.00,0.0056
605.00,0.0055
604.00,0.0055
603.00,0.0054
602.00,0.0053
601.00,0.0050
600.00,0.0048
599.00,0.0048
598.00,0.0050
597.00,0.0052
596.00,0.0054
595.00,0.0055
594.00,0.0054
593.00,0.0054
592.00,0.0055
591.00,0.0055
590.00,0.0055
589.00,0.0054
588.00,0.0054
587.00,0.0053
586.00,0.0051
585.00,0.0050
584.00,0.0051
583.00,0.0054
582.00,0.0058
581.00,0.0063
580.00,0.0065
579.00,0.0064
578.00,0.0060
577.00,0.0057
576.00,0.0056
575.00,0.0056
574.00,0.0056
573.00,0.0055
572.00,0.0055
571.00,0.0056
570.00,0.0059
569.00,0.0061
568.00,0.0059
567.00,0.0055
566.00,0.0052
565.00,0.0052
564.00,0.0054
563.00,0.0056
562.00,0.0057
561.00,0.0058
560.00,0.0059
559.00,0.0058
558.00,0.0057
557.00,0.0055
556.00,0.0055
555.00,0.0056
554.00,0.0058
553.00,0.0059
552.00,0.0059
551.00,0.0058
550.00,0.0057
549.00,0.0056
548.00,0.0056
547.00,0.0057
546.00,0.0061
545.00,0.0065
544.00,0.0068
543.00,0.0068
542.00,0.0066
541.00,0.0064
540.00,0.0065
539.00,0.0067
538.00,0.0069
537.00,0.0069
536.00,0.0066
535.00,0.0063
534.00,0.0063
533.00,0.0065
532.00,0.0068
531.00,0.0070
530.00,0.0071
529.00,0.0071
528.00,0.0069
527.00,0.0068
526.00,0.0068
525.00,0.0073
524.00,0.0079
523.00,0.0082
522.00,0.0083
521.00,0.0083
520.00,0.0082
519.00,0.0077
518.00,0.0068
517.00,0.0059
516.00,0.0054
515.00,0.0055
514.00,0.0059
513.00,0.0064
512.00,0.0069
511.00,0.0074
510.00,0.0077
509.00,0.0077
508.00,0.0074
507.00,0.0070
506.00,0.0066
505.00,0.0064
504.00,0.0062
503.00,0.0060
502.00,0.0055
501.00,0.0052
500.00,0.0054
499.00,0.0060
498.00,0.0067
497.00,0.0070
496.00,0.0071
495.00,0.0070
494.00,0.0067
493.00,0.0063
492.00,0.0061
491.00,0.0063
490.00,0.0065
489.00,0.0064
488.00,0.0059
487.00,0.0054
486.00,0.0051
485.00,0.0053
484.00,0.0059
483.00,0.0070
482.00,0.0079
481.00,0.0079
480.00,0.0069
479.00,0.0055
478.00,0.0043
477.00,0.0040
476.00,0.0045
475.00,0.0055
474.00,0.0065
473.00,0.0069
472.00,0.0068
471.00,0.0067
470.00,0.0069
469.00,0.0077
468.00,0.0087
467.00,0.0094
466.00,0.0098
465.00,0.0103
464.00,0.0114
463.00,0.0133
462.00,0.0154
461.00,0.0169
460.00,0.0174
459.00,0.0170
458.00,0.0158
457.00,0.0144
456.00,0.0130
455.00,0.0119
454.00,0.0111
453.00,0.0108
452.00,0.0109
451.00,0.0111
450.00,0.0110
