Created as New Dataset,Sample 097 By Administrator Date Wednesday, September 10 2025
cm-1,A
4000.00,0.0008
3999.00,0.0008
3998.00,0.0008
3997.00,0.0008
3996.00,0.0008
3995.00,0.0008
3994.00,0.0008
3993.00,0.0008
3992.00,0.0008
3991.00,0.0008
3990.00,0.0008
3989.00,0.0008
3988.00,0.0008
3987.00,0.0008
3986.00,0.0008
3985.00,0.0008
3984.00,0.0008
3983.00,0.0008
3982.00,0.0008
3981.00,0.0008
3980.00,0.0007
3979.00,0.0007
3978.00,0.0007
3977.00,0.0007
3976.00,0.0007
3975.00,0.0008
3974.00,0.0008
3973.00,0.0008
3972.00,0.0007
3971.00,0.0007
3970.00,0.0007
3969.00,0.0007
3968.00,0.0007
3967.00,0.0007
3966.00,0.0007
3965.00,0.0007
3964.00,0.0007
3963.00,0.0007
3962.00,0.0007
3961.00,0.0007
3960.00,0.0007
3959.00,0.0006
3958.00,0.0006
3957.00,0.0006
3956.00,0.0006
3955.00,0.0006
3954.00,0.0006
3953.00,0.0006
3952.00,0.0006
3951.00,0.0006
3950.00,0.0006
3949.00,0.0006
3948.00,0.0006
3947.00,0.0007
3946.00,0.0007
3945.00,0.0007
3944.00,0.0007
3943.00,0.0007
3942.00,0.0007
3941.00,0.0007
3940.00,0.0007
3939.00,0.0007
3938.00,0.0007
3937.00,0.0007
3936.00,0.0007
3935.00,0.0007
3934.00,0.0007
3933.00,0.0007
3932.00,0.0007
3931.00,0.0007
3930.00,0.0007
3929.00,0.0007
3928.00,0.0007
3927.00,0.0007
3926.00,0.0006
3925.00,0.0006
3924.00,0.0006
3923.00,0.0007
3922.00,0.0007
3921.00,0.0007
3920.00,0.0007
3919.00,0.0007
3918.00,0.0007
3917.00,0.0007
3916.00,0.0006
3915.00,0.0006
3914.00,0.0006
3913.00,0.0006
3912.00,0.0006
3911.00,0.0006
3910.00,0.0006
3909.00,0.0006
3908.00,0.0006
3907.00,0.0006
3906.00,0.0006
3905.00,0.0007
3904.00,0.0007
3903.00,0.0006
3902.00,0.0006
3901.00,0.0006
3900.00,0.0005
3899.00,0.0006
3898.00,0.0006
3897.00,0.0006
3896.00,0.0006
3895.00,0.0006
3894.00,0.0006
3893.00,0.0006
3892.00,0.0007
3891.00,0.0007
3890.00,0.0007
3889.00,0.0007
3888.00,0.0006
3887.00,0.0005
3886.00,0.0005
3885.00,0.0006
3884.00,0.0006
3883.00,0.0006
3882.00,0.0006
3881.00,0.0006
3880.00,0.0006
3879.00,0.0006
3878.00,0.0006
3877.00,0.0006
3876.00,0.0006
3875.00,0.0006
3874.00,0.0006
3873.00,0.0006
3872.00,0.0006
3871.00,0.0006
3870.00,0.0006
3869.00,0.0006
3868.00,0.0006
3867.00,0.0006
3866.00,0.0005
3865.00,0.0006
3864.00,0.0006
3863.00,0.0006
3862.00,0.0006
3861.00,0.0006
3860.00,0.0006
3859.00,0.0006
3858.00,0.0006
3857.00,0.0006
3856.00,0.0006
3855.00,0.0006
3854.00,0.0006
3853.00,0.0006
3852.00,0.0006
3851.00,0.0006
3850.00,0.0005
3849.00,0.0005
3848.00,0.0005
3847.00,0.0005
3846.00,0.0005
3845.00,0.0004
3844.00,0.0004
3843.00,0.0005
3842.00,0.0005
3841.00,0.0005
3840.00,0.0005
3839.00,0.0005
3838.00,0.0005
3837.00,0.0005
3836.00,0.0005
3835.00,0.0006
3834.00,0.0006
3833.00,0.0006
3832.00,0.0006
3831.00,0.0006
3830.00,0.0006
3829.00,0.0006
3828.00,0.0006
3827.00,0.0005
3826.00,0.0005
3825.00,0.0006
3824.00,0.0005
3823.00,0.0005
3822.00,0.0004
3821.00,0.0004
3820.00,0.0004
3819.00,0.0004
3818.00,0.0003
3817.00,0.0004
3816.00,0.0004
3815.00,0.0005
3814.00,0.0006
3813.00,0.0006
3812.00,0.0006
3811.00,0.0006
3810.00,0.0006
3809.00,0.0006
3808.00,0.0006
3807.00,0.0006
3806.00,0.0006
3805.00,0.0006
3804.00,0.0006
3803.00,0.0006
3802.00,0.0006
3801.00,0.0005
3800.00,0.0005
3799.00,0.0004
3798.00,0.0004
3797.00,0.0004
3796.00,0.0005
3795.00,0.0005
3794.00,0.0006
3793.00,0.0006
3792.00,0.0006
3791.00,0.0006
3790.00,0.0007
3789.00,0.0007
3788.00,0.0007
3787.00,0.0006
3786.00,0.0006
3785.00,0.0006
3784.00,0.0005
3783.00,0.0005
3782.00,0.0005
3781.00,0.0005
3780.00,0.0006
3779.00,0.0006
3778.00,0.0006
3777.00,0.0006
3776.00,0.0006
3775.00,0.0007
3774.00,0.0007
3773.00,0.0007
3772.00,0.0007
3771.00,0.0006
3770.00,0.0006
3769.00,0.0006
3768.00,0.0006
3767.00,0.0006
3766.00,0.0006
3765.00,0.0007
3764.00,0.0007
3763.00,0.0007
3762.00,0.0006
3761.00,0.0006
3760.00,0.0006
3759.00,0.0006
3758.00,0.0006
3757.00,0.0006
3756.00,0.0007
3755.00,0.0007
3754.00,0.0006
3753.00,0.0006
3752.00,0.0006
3751.00,0.0005
3750.00,0.0005
3749.00,0.0005
3748.00,0.0005
3747.00,0.0005
3746.00,0.0005
3745.00,0.0005
3744.00,0.0006
3743.00,0.0006
3742.00,0.0006
3741.00,0.0006
3740.00,0.0006
3739.00,0.0006
3738.00,0.0006
3737.00,0.0005
3736.00,0.0005
3735.00,0.0005
3734.00,0.0004
3733.00,0.0004
3732.00,0.0005
3731.00,0.0005
3730.00,0.0005
3729.00,0.0005
3728.00,0.0005
3727.00,0.0004
3726.00,0.0004
3725.00,0.0004
3724.00,0.0004
3723.00,0.0004
3722.00,0.0005
3721.00,0.0005
3720.00,0.0005
3719.00,0.0005
3718.00,0.0005
3717.00,0.0005
3716.00,0.0005
3715.00,0.0006
3714.00,0.0006
3713.00,0.0006
3712.00,0.0006
3711.00,0.0005
3710.00,0.0005
3709.00,0.0005
3708.00,0.0005
3707.00,0.0004
3706.00,0.0004
3705.00,0.0004
3704.00,0.0004
3703.00,0.0004
3702.00,0.0004
3701.00,0.0005
3700.00,0.0005
3699.00,0.0005
3698.00,0.0005
3697.00,0.0006
3696.00,0.0006
3695.00,0.0005
3694.00,0.0005
3693.00,0.0005
3692.00,0.0004
3691.00,0.0004
3690.00,0.0004
3689.00,0.0005
3688.00,0.0005
3687.00,0.0005
3686.00,0.0005
3685.00,0.0005
3684.00,0.0005
3683.00,0.0006
3682.00,0.0006
3681.00,0.0006
3680.00,0.0006
3679.00,0.0005
3678.00,0.0005
3677.00,0.0004
3676.00,0.0004
3675.00,0.0005
3674.00,0.0005
3673.00,0.0005
3672.00,0.0004
3671.00,0.0005
3670.00,0.0005
3669.00,0.0005
3668.00,0.0005
3667.00,0.0005
3666.00,0.0005
3665.00,0.0006
3664.00,0.0006
3663.00,0.0006
3662.00,0.0007
3661.00,0.0007
3660.00,0.0007
3659.00,0.0007
3658.00,0.0007
3657.00,0.0007
3656.00,0.0007
3655.00,0.0007
3654.00,0.0007
3653.00,0.0006
3652.00,0.0004
3651.00,0.0003
3650.00,0.0003
3649.00,0.0003
3648.00,0.0004
3647.00,0.0005
3646.00,0.0006
3645.00,0.0007
3644.00,0.0006
3643.00,0.0006
3642.00,0.0006
3641.00,0.0007
3640.00,0.0007
3639.00,0.0007
3638.00,0.0007
3637.00,0.0007
3636.00,0.0007
3635.00,0.0007
3634.00,0.0008
3633.00,0.0008
3632.00,0.0008
3631.00,0.0008
3630.00,0.0008
3629.00,0.0008
3628.00,0.0009
3627.00,0.0009
3626.00,0.0009
3625.00,0.0008
3624.00,0.0008
3623.00,0.0008
3622.00,0.0008
3621.00,0.0008
3620.00,0.0009
3619.00,0.0009
3618.00,0.0009
3617.00,0.0009
3616.00,0.0009
3615.00,0.0009
3614.00,0.0009
3613.00,0.0009
3612.00,0.0009
3611.00,0.0010
3610.00,0.0010
3609.00,0.0010
3608.00,0.0010
3607.00,0.0010
3606.00,0.0011
3605.00,0.0011
3604.00,0.0012
3603.00,0.0011
3602.00,0.0011
3601.00,0.0011
3600.00,0.0011
3599.00,0.0011
3598.00,0.0011
3597.00,0.0012
3596.00,0.0012
3595.00,0.0012
3594.00,0.0012
3593.00,0.0013
3592.00,0.0013
3591.00,0.0014
3590.00,0.0014
3589.00,0.0014
3588.00,0.0015
3587.00,0.0015
3586.00,0.0015
3585.00,0.0015
3584.00,0.0016
3583.00,0.0016
3582.00,0.0016
3581.00,0.0017
3580.00,0.0017
3579.00,0.0017
3578.00,0.0017
3577.00,0.0017
3576.00,0.0017
3575.00,0.0017
3574.00,0.0017
3573.00,0.0018
3572.00,0.0018
3571.00,0.0019
3570.00,0.0019
3569.00,0.0019
3568.00,0.0018
3567.00,0.0018
3566.00,0.0018
3565.00,0.0019
3564.00,0.0019
3563.00,0.0019
3562.00,0.0019
3561.00,0.0020
3560.00,0.0020
3559.00,0.0020
3558.00,0.0021
3557.00,0.0021
3556.00,0.0022
3555.00,0.0022
3554.00,0.0022
3553.00,0.0023
3552.00,0.0023
3551.00,0.0023
3550.00,0.0024
3549.00,0.0025
3548.00,0.0025
3547.00,0.0026
3546.00,0.0026
3545.00,0.0026
3544.00,0.0026
3543.00,0.0026
3542.00,0.0027
3541.00,0.0027
3540.00,0.0027
3539.00,0.0028
3538.00,0.0028
3537.00,0.0028
3536.00,0.0028
3535.00,0.0028
3534.00,0.0028
3533.00,0.0028
3532.00,0.0029
3531.00,0.0029
3530.00,0.0030
3529.00,0.0031
3528.00,0.0031
3527.00,0.0031
3526.00,0.0031
3525.00,0.0031
3524.00,0.0031
3523.00,0.0031
3522.00,0.0031
3521.00,0.0032
3520.00,0.0032
3519.00,0.0032
3518.00,0.0033
3517.00,0.0033
3516.00,0.0034
3515.00,0.0034
3514.00,0.0034
3513.00,0.0034
3512.00,0.0035
3511.00,0.0035
3510.00,0.0035
3509.00,0.0035
3508.00,0.0035
3507.00,0.0035
3506.00,0.0036
3505.00,0.0036
3504.00,0.0037
3503.00,0.0037
3502.00,0.0038
3501.00,0.0038
3500.00,0.0038
3499.00,0.0038
3498.00,0.0038
3497.00,0.0039
3496.00,0.0040
3495.00,0.0040
3494.00,0.0041
3493.00,0.0041
3492.00,0.0041
3491.00,0.0041
3490.00,0.0041
3489.00,0.0041
3488.00,0.0042
3487.00,0.0042
3486.00,0.0042
3485.00,0.0042
3484.00,0.0043
3483.00,0.0043
3482.00,0.0044
3481.00,0.0044
3480.00,0.0044
3479.00,0.0044
3478.00,0.0044
3477.00,0.0045
3476.00,0.0045
3475.00,0.0046
3474.00,0.0046
3473.00,0.0046
3472.00,0.0046
3471.00,0.0046
3470.00,0.0047
3469.00,0.0047
3468.00,0.0047
3467.00,0.0047
3466.00,0.0048
3465.00,0.0048
3464.00,0.0048
3463.00,0.0049
3462.00,0.0049
3461.00,0.0049
3460.00,0.0049
3459.00,0.0049
3458.00,0.0049
3457.00,0.0050
3456.00,0.0050
3455.00,0.0050
3454.00,0.0050
3453.00,0.0050
3452.00,0.0051
3451.00,0.0051
3450.00,0.0051
3449.00,0.0052
3448.00,0.0052
3447.00,0.0052
3446.00,0.0053
3445.00,0.0053
3444.00,0.0053
3443.00,0.0054
3442.00,0.0054
3441.00,0.0054
3440.00,0.0055
3439.00,0.0055
3438.00,0.0055
3437.00,0.0055
3436.00,0.0055
3435.00,0.0055
3434.00,0.0055
3433.00,0.0055
3432.00,0.0056
3431.00,0.0056
3430.00,0.0056
3429.00,0.0056
3428.00,0.0056
3427.00,0.0057
3426.00,0.0057
3425.00,0.0057
3424.00,0.0057
3423.00,0.0057
3422.00,0.0058
3421.00,0.0058
3420.00,0.0059
3419.00,0.0060
3418.00,0.0060
3417.00,0.0060
3416.00,0.0060
3415.00,0.0060
3414.00,0.0060
3413.00,0.0060
3412.00,0.0060
3411.00,0.0061
3410.00,0.0061
3409.00,0.0061
3408.00,0.0061
3407.00,0.0062
3406.00,0.0062
3405.00,0.0062
3404.00,0.0063
3403.00,0.0063
3402.00,0.0064
3401.00,0.0064
3400.00,0.0065
3399.00,0.0065
3398.00,0.0065
3397.00,0.0066
3396.00,0.0066
3395.00,0.0066
3394.00,0.0066
3393.00,0.0066
3392.00,0.0066
3391.00,0.0065
3390.00,0.0065
3389.00,0.0065
3388.00,0.0065
3387.00,0.0065
3386.00,0.0065
3385.00,0.0065
3384.00,0.0064
3383.00,0.0064
3382.00,0.0064
3381.00,0.0063
3380.00,0.0063
3379.00,0.0063
3378.00,0.0063
3377.00,0.0063
3376.00,0.0063
3375.00,0.0063
3374.00,0.0063
3373.00,0.0063
3372.00,0.0063
3371.00,0.0064
3370.00,0.0064
3369.00,0.0064
3368.00,0.0064
3367.00,0.0063
3366.00,0.0063
3365.00,0.0063
3364.00,0.0063
3363.00,0.0063
3362.00,0.0063
3361.00,0.0063
3360.00,0.0063
3359.00,0.0063
3358.00,0.0063
3357.00,0.0063
3356.00,0.0063
3355.00,0.0063
3354.00,0.0063
3353.00,0.0063
3352.00,0.0063
3351.00,0.0063
3350.00,0.0063
3349.00,0.0063
3348.00,0.0063
3347.00,0.0063
3346.00,0.0063
3345.00,0.0064
3344.00,0.0064
3343.00,0.0063
3342.00,0.0063
3341.00,0.0063
3340.00,0.0062
3339.00,0.0062
3338.00,0.0062
3337.00,0.0062
3336.00,0.0062
3335.00,0.0061
3334.00,0.0061
3333.00,0.0061
3332.00,0.0060
3331.00,0.0060
3330.00,0.0060
3329.00,0.0060
3328.00,0.0060
3327.00,0.0060
3326.00,0.0060
3325.00,0.0060
3324.00,0.0060
3323.00,0.0059
3322.00,0.0059
3321.00,0.0059
3320.00,0.0059
3319.00,0.0059
3318.00,0.0059
3317.00,0.0060
3316.00,0.0059
3315.00,0.0059
3314.00,0.0058
3313.00,0.0058
3312.00,0.0058
3311.00,0.0058
3310.00,0.0058
3309.00,0.0058
3308.00,0.0058
3307.00,0.0058
3306.00,0.0058
3305.00,0.0058
3304.00,0.0057
3303.00,0.0057
3302.00,0.0057
3301.00,0.0057
3300.00,0.0057
3299.00,0.0057
3298.00,0.0057
3297.00,0.0057
3296.00,0.0057
3295.00,0.0056
3294.00,0.0056
3293.00,0.0055
3292.00,0.0055
3291.00,0.0055
3290.00,0.0055
3289.00,0.0055
3288.00,0.0054
3287.00,0.0054
3286.00,0.0054
3285.00,0.0054
3284.00,0.0054
3283.00,0.0054
3282.00,0.0054
3281.00,0.0054
3280.00,0.0054
3279.00,0.0054
3278.00,0.0053
3277.00,0.0053
3276.00,0.0053
3275.00,0.0053
3274.00,0.0052
3273.00,0.0052
3272.00,0.0052
3271.00,0.0052
3270.00,0.0052
3269.00,0.0052
3268.00,0.0052
3267.00,0.0051
3266.00,0.0051
3265.00,0.0050
3264.00,0.0050
3263.00,0.0050
3262.00,0.0050
3261.00,0.0050
3260.00,0.0050
3259.00,0.0050
3258.00,0.0049
3257.00,0.0049
3256.00,0.0049
3255.00,0.0048
3254.00,0.0048
3253.00,0.0048
3252.00,0.0048
3251.00,0.0049
3250.00,0.0049
3249.00,0.0048
3248.00,0.0048
3247.00,0.0048
3246.00,0.0048
3245.00,0.0048
3244.00,0.0048
3243.00,0.0047
3242.00,0.0047
3241.00,0.0047
3240.00,0.0047
3239.00,0.0048
3238.00,0.0048
3237.00,0.0048
3236.00,0.0048
3235.00,0.0048
3234.00,0.0048
3233.00,0.0048
3232.00,0.0048
3231.00,0.0048
3230.00,0.0048
3229.00,0.0048
3228.00,0.0048
3227.00,0.0048
3226.00,0.0048
3225.00,0.0048
3224.00,0.0048
3223.00,0.0048
3222.00,0.0049
3221.00,0.0049
3220.00,0.0049
3219.00,0.0049
3218.00,0.0049
3217.00,0.0049
3216.00,0.0049
3215.00,0.0050
3214.00,0.0050
3213.00,0.0051
3212.00,0.0051
3211.00,0.0051
3210.00,0.0052
3209.00,0.0052
3208.00,0.0052
3207.00,0.0052
3206.00,0.0052
3205.00,0.0052
3204.00,0.0052
3203.00,0.0052
3202.00,0.0053
3201.00,0.0053
3200.00,0.0053
3199.00,0.0053
3198.00,0.0053
3197.00,0.0053
3196.00,0.0053
3195.00,0.0052
3194.00,0.0052
3193.00,0.0052
3192.00,0.0052
3191.00,0.0052
3190.00,0.0053
3189.00,0.0052
3188.00,0.0052
3187.00,0.0052
3186.00,0.0052
3185.00,0.0052
3184.00,0.0052
3183.00,0.0052
3182.00,0.0051
3181.00,0.0050
3180.00,0.0050
3179.00,0.0049
3178.00,0.0049
3177.00,0.0049
3176.00,0.0049
3175.00,0.0049
3174.00,0.0048
3173.00,0.0048
3172.00,0.0047
3171.00,0.0046
3170.00,0.0046
3169.00,0.0046
3168.00,0.0046
3167.00,0.0046
3166.00,0.0046
3165.00,0.0046
3164.00,0.0045
3163.00,0.0045
3162.00,0.0044
3161.00,0.0044
3160.00,0.0044
3159.00,0.0044
3158.00,0.0044
3157.00,0.0044
3156.00,0.0044
3155.00,0.0044
3154.00,0.0044
3153.00,0.0044
3152.00,0.0044
3151.00,0.0044
3150.00,0.0044
3149.00,0.0044
3148.00,0.0044
3147.00,0.0043
3146.00,0.0043
3145.00,0.0043
3144.00,0.0042
3143.00,0.0042
3142.00,0.0042
3141.00,0.0042
3140.00,0.0042
3139.00,0.0042
3138.00,0.0041
3137.00,0.0041
3136.00,0.0040
3135.00,0.0040
3134.00,0.0040
3133.00,0.0039
3132.00,0.0039
3131.00,0.0039
3130.00,0.0038
3129.00,0.0038
3128.00,0.0038
3127.00,0.0038
3126.00,0.0037
3125.00,0.0037
3124.00,0.0038
3123.00,0.0038
3122.00,0.0037
3121.00,0.0037
3120.00,0.0037
3119.00,0.0036
3118.00,0.0036
3117.00,0.0035
3116.00,0.0035
3115.00,0.0034
3114.00,0.0034
3113.00,0.0034
3112.00,0.0034
3111.00,0.0034
3110.00,0.0035
3109.00,0.0035
3108.00,0.0035
3107.00,0.0035
3106.00,0.0034
3105.00,0.0034
3104.00,0.0034
3103.00,0.0033
3102.00,0.0033
3101.00,0.0032
3100.00,0.0032
3099.00,0.0032
3098.00,0.0032
3097.00,0.0032
3096.00,0.0033
3095.00,0.0033
3094.00,0.0033
3093.00,0.0032
3092.00,0.0032
3091.00,0.0032
3090.00,0.0032
3089.00,0.0031
3088.00,0.0031
3087.00,0.0031
3086.00,0.0031
3085.00,0.0031
3084.00,0.0030
3083.00,0.0030
3082.00,0.0030
3081.00,0.0030
3080.00,0.0030
3079.00,0.0031
3078.00,0.0031
3077.00,0.0032
3076.00,0.0032
3075.00,0.0032
3074.00,0.0032
3073.00,0.0032
3072.00,0.0032
3071.00,0.0032
3070.00,0.0032
3069.00,0.0032
3068.00,0.0032
3067.00,0.0033
3066.00,0.0033
3065.00,0.0033
3064.00,0.0033
3063.00,0.0034
3062.00,0.0034
3061.00,0.0034
3060.00,0.0034
3059.00,0.0033
3058.00,0.0033
3057.00,0.0033
3056.00,0.0033
3055.00,0.0034
3054.00,0.0034
3053.00,0.0034
3052.00,0.0035
3051.00,0.0035
3050.00,0.0036
3049.00,0.0036
3048.00,0.0036
3047.00,0.0037
3046.00,0.0036
3045.00,0.0036
3044.00,0.0036
3043.00,0.0036
3042.00,0.0037
3041.00,0.0037
3040.00,0.0038
3039.00,0.0038
3038.00,0.0038
3037.00,0.0038
3036.00,0.0038
3035.00,0.0038
3034.00,0.0039
3033.00,0.0039
3032.00,0.0040
3031.00,0.0040
3030.00,0.0041
3029.00,0.0041
3028.00,0.0042
3027.00,0.0043
3026.00,0.0043
3025.00,0.0044
3024.00,0.0044
3023.00,0.0045
3022.00,0.0045
3021.00,0.0046
3020.00,0.0046
3019.00,0.0047
3018.00,0.0049
3017.00,0.0050
3016.00,0.0051
3015.00,0.0052
3014.00,0.0054
3013.00,0.0055
3012.00,0.0057
3011.00,0.0058
3010.00,0.0060
3009.00,0.0061
3008.00,0.0063
3007.00,0.0064
3006.00,0.0066
3005.00,0.0068
3004.00,0.0070
3003.00,0.0073
3002.00,0.0075
3001.00,0.0078
3000.00,0.0081
2999.00,0.0084
2998.00,0.0087
2997.00,0.0091
2996.00,0.0095
2995.00,0.0099
2994.00,0.0104
2993.00,0.0109
2992.00,0.0115
2991.00,0.0121
2990.00,0.0128
2989.00,0.0136
2988.00,0.0144
2987.00,0.0153
2986.00,0.0164
2985.00,0.0176
2984.00,0.0190
2983.00,0.0206
2982.00,0.0222
2981.00,0.0241
2980.00,0.0261
2979.00,0.0284
2978.00,0.0309
2977.00,0.0339
2976.00,0.0373
2975.00,0.0412
2974.00,0.0457
2973.00,0.0508
2972.00,0.0566
2971.00,0.0630
2970.00,0.0702
2969.00,0.0782
2968.00,0.0869
2967.00,0.0964
2966.00,0.1064
2965.00,0.1168
2964.00,0.1273
2963.00,0.1373
2962.00,0.1463
2961.00,0.1540
2960.00,0.1602
2959.00,0.1649
2958.00,0.1685
2957.00,0.1717
2956.00,0.1751
2955.00,0.1792
2954.00,0.1840
2953.00,0.1893
2952.00,0.1942
2951.00,0.1978
2950.00,0.1989
2949.00,0.1967
2948.00,0.1908
2947.00,0.1813
2946.00,0.1693
2945.00,0.1560
2944.00,0.1428
2943.00,0.1311
2942.00,0.1215
2941.00,0.1145
2940.00,0.1101
2939.00,0.1081
2938.00,0.1083
2937.00,0.1104
2936.00,0.1142
2935.00,0.1195
2934.00,0.1261
2933.00,0.1341
2932.00,0.1431
2931.00,0.1530
2930.00,0.1635
2929.00,0.1742
2928.00,0.1848
2927.00,0.1950
2926.00,0.2047
2925.00,0.2139
2924.00,0.2227
2923.00,0.2312
2922.00,0.2395
2921.00,0.2473
2920.00,0.2541
2919.00,0.2592
2918.00,0.2618
2917.00,0.2613
2916.00,0.2577
2915.00,0.2514
2914.00,0.2432
2913.00,0.2340
2912.00,0.2247
2911.00,0.2159
2910.00,0.2079
2909.00,0.2007
2908.00,0.1941
2907.00,0.1876
2906.00,0.1812
2905.00,0.1746
2904.00,0.1677
2903.00,0.1607
2902.00,0.1536
2901.00,0.1466
2900.00,0.1398
2899.00,0.1333
2898.00,0.1273
2897.00,0.1219
2896.00,0.1171
2895.00,0.1131
2894.00,0.1098
2893.00,0.1071
2892.00,0.1052
2891.00,0.1039
2890.00,0.1031
2889.00,0.1028
2888.00,0.1030
2887.00,0.1036
2886.00,0.1045
2885.00,0.1058
2884.00,0.1075
2883.00,0.1096
2882.00,0.1120
2881.00,0.1148
2880.00,0.1175
2879.00,0.1198
2878.00,0.1213
2877.00,0.1219
2876.00,0.1217
2875.00,0.1209
2874.00,0.1202
2873.00,0.1199
2872.00,0.1203
2871.00,0.1216
2870.00,0.1234
2869.00,0.1252
2868.00,0.1265
2867.00,0.1262
2866.00,0.1238
2865.00,0.1189
2864.00,0.1117
2863.00,0.1031
2862.00,0.0941
2861.00,0.0856
2860.00,0.0783
2859.00,0.0725
2858.00,0.0680
2857.00,0.0649
2856.00,0.0629
2855.00,0.0618
2854.00,0.0614
2853.00,0.0617
2852.00,0.0626
2851.00,0.0641
2850.00,0.0661
2849.00,0.0686
2848.00,0.0717
2847.00,0.0756
2846.00,0.0803
2845.00,0.0859
2844.00,0.0924
2843.00,0.0995
2842.00,0.1070
2841.00,0.1141
2840.00,0.1200
2839.00,0.1239
2838.00,0.1249
2837.00,0.1224
2836.00,0.1164
2835.00,0.1076
2834.00,0.0969
2833.00,0.0856
2832.00,0.0747
2831.00,0.0651
2830.00,0.0570
2829.00,0.0503
2828.00,0.0449
2827.00,0.0405
2826.00,0.0370
2825.00,0.0341
2824.00,0.0316
2823.00,0.0296
2822.00,0.0278
2821.00,0.0263
2820.00,0.0250
2819.00,0.0238
2818.00,0.0228
2817.00,0.0220
2816.00,0.0212
2815.00,0.0204
2814.00,0.0198
2813.00,0.0192
2812.00,0.0186
2811.00,0.0181
2810.00,0.0176
2809.00,0.0170
2808.00,0.0165
2807.00,0.0159
2806.00,0.0152
2805.00,0.0146
2804.00,0.0139
2803.00,0.0133
2802.00,0.0128
2801.00,0.0123
2800.00,0.0120
2799.00,0.0117
2798.00,0.0114
2797.00,0.0112
2796.00,0.0109
2795.00,0.0107
2794.00,0.0104
2793.00,0.0101
2792.00,0.0098
2791.00,0.0095
2790.00,0.0091
2789.00,0.0088
2788.00,0.0085
2787.00,0.0082
2786.00,0.0079
2785.00,0.0077
2784.00,0.0075
2783.00,0.0073
2782.00,0.0071
2781.00,0.0069
2780.00,0.0067
2779.00,0.0065
2778.00,0.0064
2777.00,0.0062
2776.00,0.0061
2775.00,0.0059
2774.00,0.0058
2773.00,0.0058
2772.00,0.0057
2771.00,0.0057
2770.00,0.0057
2769.00,0.0056
2768.00,0.0056
2767.00,0.0055
2766.00,0.0054
2765.00,0.0054
2764.00,0.0054
2763.00,0.0054
2762.00,0.0053
2761.00,0.0053
2760.00,0.0053
2759.00,0.0052
2758.00,0.0052
2757.00,0.0052
2756.00,0.0052
2755.00,0.0052
2754.00,0.0052
2753.00,0.0051
2752.00,0.0051
2751.00,0.0051
2750.00,0.0051
2749.00,0.0051
2748.00,0.0051
2747.00,0.0051
2746.00,0.0052
2745.00,0.0053
2744.00,0.0053
2743.00,0.0054
2742.00,0.0055
2741.00,0.0057
2740.00,0.0058
2739.00,0.0059
2738.00,0.0061
2737.00,0.0062
2736.00,0.0063
2735.00,0.0065
2734.00,0.0067
2733.00,0.0068
2732.00,0.0070
2731.00,0.0073
2730.00,0.0075
2729.00,0.0077
2728.00,0.0079
2727.00,0.0082
2726.00,0.0085
2725.00,0.0087
2724.00,0.0089
2723.00,0.0089
2722.00,0.0088
2721.00,0.0086
2720.00,0.0083
2719.00,0.0080
2718.00,0.0077
2717.00,0.0074
2716.00,0.0071
2715.00,0.0068
2714.00,0.0066
2713.00,0.0064
2712.00,0.0061
2711.00,0.0059
2710.00,0.0057
2709.00,0.0056
2708.00,0.0054
2707.00,0.0053
2706.00,0.0051
2705.00,0.0050
2704.00,0.0049
2703.00,0.0048
2702.00,0.0047
2701.00,0.0047
2700.00,0.0046
2699.00,0.0046
2698.00,0.0045
2697.00,0.0044
2696.00,0.0044
2695.00,0.0044
2694.00,0.0044
2693.00,0.0045
2692.00,0.0045
2691.00,0.0045
2690.00,0.0046
2689.00,0.0046
2688.00,0.0045
2687.00,0.0045
2686.00,0.0045
2685.00,0.0045
2684.00,0.0045
2683.00,0.0045
2682.00,0.0046
2681.00,0.0046
2680.00,0.0046
2679.00,0.0045
2678.00,0.0045
2677.00,0.0045
2676.00,0.0044
2675.00,0.0044
2674.00,0.0044
2673.00,0.0044
2672.00,0.0044
2671.00,0.0044
2670.00,0.0044
2669.00,0.0044
2668.00,0.0044
2667.00,0.0044
2666.00,0.0045
2665.00,0.0045
2664.00,0.0046
2663.00,0.0047
2662.00,0.0047
2661.00,0.0048
2660.00,0.0048
2659.00,0.0048
2658.00,0.0048
2657.00,0.0047
2656.00,0.0047
2655.00,0.0046
2654.00,0.0046
2653.00,0.0045
2652.00,0.0045
2651.00,0.0044
2650.00,0.0043
2649.00,0.0043
2648.00,0.0042
2647.00,0.0042
2646.00,0.0041
2645.00,0.0041
2644.00,0.0040
2643.00,0.0040
2642.00,0.0040
2641.00,0.0039
2640.00,0.0039
2639.00,0.0039
2638.00,0.0039
2637.00,0.0038
2636.00,0.0038
2635.00,0.0038
2634.00,0.0038
2633.00,0.0038
2632.00,0.0038
2631.00,0.0038
2630.00,0.0039
2629.00,0.0039
2628.00,0.0039
2627.00,0.0039
2626.00,0.0039
2625.00,0.0039
2624.00,0.0039
2623.00,0.0039
2622.00,0.0039
2621.00,0.0040
2620.00,0.0040
2619.00,0.0040
2618.00,0.0041
2617.00,0.0041
2616.00,0.0041
2615.00,0.0040
2614.00,0.0040
2613.00,0.0039
2612.00,0.0039
2611.00,0.0039
2610.00,0.0038
2609.00,0.0037
2608.00,0.0036
2607.00,0.0036
2606.00,0.0035
2605.00,0.0034
2604.00,0.0033
2603.00,0.0032
2602.00,0.0031
2601.00,0.0031
2600.00,0.0031
2599.00,0.0031
2598.00,0.0031
2597.00,0.0031
2596.00,0.0032
2595.00,0.0032
2594.00,0.0032
2593.00,0.0033
2592.00,0.0034
2591.00,0.0035
2590.00,0.0036
2589.00,0.0036
2588.00,0.0036
2587.00,0.0036
2586.00,0.0036
2585.00,0.0036
2584.00,0.0037
2583.00,0.0037
2582.00,0.0037
2581.00,0.0037
2580.00,0.0037
2579.00,0.0037
2578.00,0.0036
2577.00,0.0035
2576.00,0.0034
2575.00,0.0033
2574.00,0.0032
2573.00,0.0030
2572.00,0.0029
2571.00,0.0028
2570.00,0.0027
2569.00,0.0027
2568.00,0.0026
2567.00,0.0026
2566.00,0.0026
2565.00,0.0026
2564.00,0.0025
2563.00,0.0025
2562.00,0.0024
2561.00,0.0024
2560.00,0.0024
2559.00,0.0024
2558.00,0.0023
2557.00,0.0023
2556.00,0.0023
2555.00,0.0022
2554.00,0.0022
2553.00,0.0022
2552.00,0.0022
2551.00,0.0021
2550.00,0.0021
2549.00,0.0020
2548.00,0.0020
2547.00,0.0020
2546.00,0.0019
2545.00,0.0019
2544.00,0.0019
2543.00,0.0019
2542.00,0.0019
2541.00,0.0020
2540.00,0.0019
2539.00,0.0019
2538.00,0.0018
2537.00,0.0018
2536.00,0.0017
2535.00,0.0017
2534.00,0.0016
2533.00,0.0016
2532.00,0.0015
2531.00,0.0015
2530.00,0.0016
2529.00,0.0016
2528.00,0.0016
2527.00,0.0015
2526.00,0.0014
2525.00,0.0013
2524.00,0.0012
2523.00,0.0012
2522.00,0.0012
2521.00,0.0013
2520.00,0.0013
2519.00,0.0013
2518.00,0.0013
2517.00,0.0012
2516.00,0.0012
2515.00,0.0011
2514.00,0.0011
2513.00,0.0011
2512.00,0.0011
2511.00,0.0011
2510.00,0.0011
2509.00,0.0011
2508.00,0.0011
2507.00,0.0011
2506.00,0.0011
2505.00,0.0011
2504.00,0.0011
2503.00,0.0011
2502.00,0.0010
2501.00,0.0009
2500.00,0.0009
2499.00,0.0009
2498.00,0.0009
2497.00,0.0009
2496.00,0.0010
2495.00,0.0010
2494.00,0.0010
2493.00,0.0010
2492.00,0.0010
2491.00,0.0010
2490.00,0.0011
2489.00,0.0011
2488.00,0.0011
2487.00,0.0011
2486.00,0.0011
2485.00,0.0010
2484.00,0.0010
2483.00,0.0010
2482.00,0.0010
2481.00,0.0010
2480.00,0.0010
2479.00,0.0009
2478.00,0.0009
2477.00,0.0009
2476.00,0.0010
2475.00,0.0010
2474.00,0.0010
2473.00,0.0009
2472.00,0.0009
2471.00,0.0009
2470.00,0.0008
2469.00,0.0008
2468.00,0.0008
2467.00,0.0008
2466.00,0.0008
2465.00,0.0009
2464.00,0.0009
2463.00,0.0010
2462.00,0.0010
2461.00,0.0010
2460.00,0.0010
2459.00,0.0010
2458.00,0.0011
2457.00,0.0012
2456.00,0.0013
2455.00,0.0013
2454.00,0.0013
2453.00,0.0013
2452.00,0.0012
2451.00,0.0012
2450.00,0.0011
2449.00,0.0011
2448.00,0.0011
2447.00,0.0011
2446.00,0.0011
2445.00,0.0011
2444.00,0.0011
2443.00,0.0011
2442.00,0.0011
2441.00,0.0011
2440.00,0.0010
2439.00,0.0010
2438.00,0.0010
2437.00,0.0010
2436.00,0.0011
2435.00,0.0011
2434.00,0.0011
2433.00,0.0012
2432.00,0.0012
2431.00,0.0012
2430.00,0.0012
2429.00,0.0012
2428.00,0.0012
2427.00,0.0011
2426.00,0.0011
2425.00,0.0011
2424.00,0.0011
2423.00,0.0010
2422.00,0.0010
2421.00,0.0010
2420.00,0.0010
2419.00,0.0010
2418.00,0.0010
2417.00,0.0010
2416.00,0.0010
2415.00,0.0010
2414.00,0.0010
2413.00,0.0010
2412.00,0.0010
2411.00,0.0010
2410.00,0.0010
2409.00,0.0010
2408.00,0.0010
2407.00,0.0009
2406.00,0.0009
2405.00,0.0009
2404.00,0.0010
2403.00,0.0010
2402.00,0.0010
2401.00,0.0010
2400.00,0.0009
2399.00,0.0008
2398.00,0.0008
2397.00,0.0008
2396.00,0.0008
2395.00,0.0008
2394.00,0.0008
2393.00,0.0007
2392.00,0.0007
2391.00,0.0007
2390.00,0.0007
2389.00,0.0007
2388.00,0.0007
2387.00,0.0007
2386.00,0.0007
2385.00,0.0006
2384.00,0.0006
2383.00,0.0005
2382.00,0.0004
2381.00,0.0004
2380.00,0.0004
2379.00,0.0003
2378.00,0.0004
2377.00,0.0004
2376.00,0.0004
2375.00,0.0004
2374.00,0.0004
2373.00,0.0003
2372.00,0.0003
2371.00,0.0003
2370.00,0.0002
2369.00,0.0002
2368.00,0.0002
2367.00,0.0003
2366.00,0.0003
2365.00,0.0004
2364.00,0.0004
2363.00,0.0004
2362.00,0.0003
2361.00,0.0004
2360.00,0.0004
2359.00,0.0005
2358.00,0.0005
2357.00,0.0005
2356.00,0.0005
2355.00,0.0004
2354.00,0.0004
2353.00,0.0004
2352.00,0.0004
2351.00,0.0004
2350.00,0.0004
2349.00,0.0005
2348.00,0.0005
2347.00,0.0005
2346.00,0.0005
2345.00,0.0006
2344.00,0.0006
2343.00,0.0007
2342.00,0.0007
2341.00,0.0007
2340.00,0.0007
2339.00,0.0006
2338.00,0.0006
2337.00,0.0006
2336.00,0.0006
2335.00,0.0006
2334.00,0.0005
2333.00,0.0005
2332.00,0.0004
2331.00,0.0004
2330.00,0.0005
2329.00,0.0006
2328.00,0.0008
2327.00,0.0011
2326.00,0.0015
2325.00,0.0018
2324.00,0.0020
2323.00,0.0019
2322.00,0.0017
2321.00,0.0016
2320.00,0.0015
2319.00,0.0014
2318.00,0.0013
2317.00,0.0012
2316.00,0.0012
2315.00,0.0011
2314.00,0.0011
2313.00,0.0012
2312.00,0.0012
2311.00,0.0011
2310.00,0.0011
2309.00,0.0010
2308.00,0.0010
2307.00,0.0010
2306.00,0.0010
2305.00,0.0010
2304.00,0.0010
2303.00,0.0010
2302.00,0.0011
2301.00,0.0011
2300.00,0.0011
2299.00,0.0012
2298.00,0.0012
2297.00,0.0012
2296.00,0.0012
2295.00,0.0012
2294.00,0.0013
2293.00,0.0014
2292.00,0.0015
2291.00,0.0017
2290.00,0.0018
2289.00,0.0019
2288.00,0.0020
2287.00,0.0020
2286.00,0.0021
2285.00,0.0020
2284.00,0.0019
2283.00,0.0018
2282.00,0.0017
2281.00,0.0016
2280.00,0.0016
2279.00,0.0015
2278.00,0.0014
2277.00,0.0014
2276.00,0.0013
2275.00,0.0013
2274.00,0.0013
2273.00,0.0014
2272.00,0.0014
2271.00,0.0014
2270.00,0.0014
2269.00,0.0013
2268.00,0.0013
2267.00,0.0012
2266.00,0.0012
2265.00,0.0011
2264.00,0.0011
2263.00,0.0011
2262.00,0.0012
2261.00,0.0013
2260.00,0.0014
2259.00,0.0015
2258.00,0.0015
2257.00,0.0014
2256.00,0.0013
2255.00,0.0010
2254.00,0.0008
2253.00,0.0008
2252.00,0.0009
2251.00,0.0011
2250.00,0.0012
2249.00,0.0012
2248.00,0.0011
2247.00,0.0009
2246.00,0.0008
2245.00,0.0007
2244.00,0.0006
2243.00,0.0006
2242.00,0.0006
2241.00,0.0006
2240.00,0.0007
2239.00,0.0008
2238.00,0.0009
2237.00,0.0010
2236.00,0.0011
2235.00,0.0012
2234.00,0.0013
2233.00,0.0013
2232.00,0.0012
2231.00,0.0011
2230.00,0.0009
2229.00,0.0009
2228.00,0.0008
2227.00,0.0007
2226.00,0.0007
2225.00,0.0007
2224.00,0.0007
2223.00,0.0008
2222.00,0.0008
2221.00,0.0009
2220.00,0.0010
2219.00,0.0010
2218.00,0.0009
2217.00,0.0007
2216.00,0.0005
2215.00,0.0004
2214.00,0.0004
2213.00,0.0005
2212.00,0.0006
2211.00,0.0006
2210.00,0.0006
2209.00,0.0006
2208.00,0.0007
2207.00,0.0007
2206.00,0.0006
2205.00,0.0006
2204.00,0.0006
2203.00,0.0005
2202.00,0.0006
2201.00,0.0007
2200.00,0.0008
2199.00,0.0009
2198.00,0.0009
2197.00,0.0008
2196.00,0.0007
2195.00,0.0005
2194.00,0.0006
2193.00,0.0008
2192.00,0.0010
2191.00,0.0011
2190.00,0.0012
2189.00,0.0013
2188.00,0.0014
2187.00,0.0014
2186.00,0.0012
2185.00,0.0010
2184.00,0.0009
2183.00,0.0007
2182.00,0.0006
2181.00,0.0005
2180.00,0.0005
2179.00,0.0006
2178.00,0.0008
2177.00,0.0009
2176.00,0.0008
2175.00,0.0004
2174.00,0.0001
2173.00,0.0001
2172.00,0.0005
2171.00,0.0010
2170.00,0.0015
2169.00,0.0018
2168.00,0.0018
2167.00,0.0018
2166.00,0.0018
2165.00,0.0019
2164.00,0.0021
2163.00,0.0023
2162.00,0.0022
2161.00,0.0015
2160.00,0.0003
2159.00,-0.0013
2158.00,-0.0024
2157.00,-0.0029
2156.00,-0.0029
2155.00,-0.0027
2154.00,-0.0024
2153.00,-0.0020
2152.00,-0.0016
2151.00,-0.0013
2150.00,-0.0012
2149.00,-0.0012
2148.00,-0.0013
2147.00,-0.0013
2146.00,-0.0013
2145.00,-0.0012
2144.00,-0.0010
2143.00,-0.0009
2142.00,-0.0009
2141.00,-0.0010
2140.00,-0.0011
2139.00,-0.0011
2138.00,-0.0010
2137.00,-0.0010
2136.00,-0.0011
2135.00,-0.0014
2134.00,-0.0016
2133.00,-0.0016
2132.00,-0.0014
2131.00,-0.0012
2130.00,-0.0011
2129.00,-0.0010
2128.00,-0.0010
2127.00,-0.0009
2126.00,-0.0008
2125.00,-0.0007
2124.00,-0.0005
2123.00,-0.0004
2122.00,-0.0004
2121.00,-0.0003
2120.00,-0.0003
2119.00,-0.0002
2118.00,-0.0001
2117.00,0.0001
2116.00,0.0003
2115.00,0.0003
2114.00,0.0004
2113.00,0.0005
2112.00,0.0005
2111.00,0.0004
2110.00,0.0003
2109.00,0.0002
2108.00,0.0002
2107.00,0.0003
2106.00,0.0003
2105.00,0.0003
2104.00,0.0002
2103.00,0.0002
2102.00,0.0002
2101.00,0.0003
2100.00,0.0004
2099.00,0.0004
2098.00,0.0003
2097.00,0.0002
2096.00,-0.0000
2095.00,-0.0002
2094.00,-0.0002
2093.00,-0.0002
2092.00,-0.0000
2091.00,0.0001
2090.00,0.0002
2089.00,0.0003
2088.00,0.0003
2087.00,0.0003
2086.00,0.0003
2085.00,0.0003
2084.00,0.0003
2083.00,0.0002
2082.00,0.0001
2081.00,0.0002
2080.00,0.0003
2079.00,0.0005
2078.00,0.0006
2077.00,0.0006
2076.00,0.0006
2075.00,0.0004
2074.00,0.0003
2073.00,0.0002
2072.00,0.0002
2071.00,0.0003
2070.00,0.0003
2069.00,0.0002
2068.00,0.0002
2067.00,0.0002
2066.00,0.0002
2065.00,0.0002
2064.00,0.0001
2063.00,0.0000
2062.00,0.0000
2061.00,0.0001
2060.00,0.0002
2059.00,0.0002
2058.00,0.0001
2057.00,0.0000
2056.00,-0.0001
2055.00,-0.0002
2054.00,-0.0002
2053.00,0.0003
2052.00,0.0009
2051.00,0.0013
2050.00,0.0014
2049.00,0.0011
2048.00,0.0006
2047.00,0.0001
2046.00,-0.0002
2045.00,-0.0005
2044.00,-0.0006
2043.00,-0.0007
2042.00,-0.0006
2041.00,-0.0004
2040.00,-0.0001
2039.00,0.0004
2038.00,0.0007
2037.00,0.0008
2036.00,0.0006
2035.00,0.0002
2034.00,-0.0002
2033.00,-0.0005
2032.00,-0.0007
2031.00,-0.0010
2030.00,-0.0011
2029.00,-0.0011
2028.00,-0.0009
2027.00,-0.0006
2026.00,-0.0003
2025.00,-0.0002
2024.00,-0.0002
2023.00,-0.0003
2022.00,-0.0003
2021.00,-0.0003
2020.00,-0.0003
2019.00,-0.0006
2018.00,-0.0009
2017.00,-0.0011
2016.00,-0.0012
2015.00,-0.0010
2014.00,-0.0009
2013.00,-0.0008
2012.00,-0.0007
2011.00,-0.0008
2010.00,-0.0009
2009.00,-0.0010
2008.00,-0.0009
2007.00,-0.0009
2006.00,-0.0009
2005.00,-0.0009
2004.00,-0.0010
2003.00,-0.0011
2002.00,-0.0010
2001.00,-0.0010
2000.00,-0.0010
1999.00,-0.0011
1998.00,-0.0010
1997.00,-0.0007
1996.00,-0.0003
1995.00,-0.0000
1994.00,0.0000
1993.00,0.0000
1992.00,-0.0001
1991.00,-0.0002
1990.00,-0.0003
1989.00,-0.0003
1988.00,-0.0003
1987.00,-0.0001
1986.00,0.0003
1985.00,0.0007
1984.00,0.0010
1983.00,0.0011
1982.00,0.0011
1981.00,0.0013
1980.00,0.0015
1979.00,0.0013
1978.00,0.0006
1977.00,-0.0001
1976.00,-0.0006
1975.00,-0.0007
1974.00,-0.0008
1973.00,-0.0009
1972.00,-0.0009
1971.00,-0.0008
1970.00,-0.0007
1969.00,-0.0006
1968.00,-0.0008
1967.00,-0.0011
1966.00,-0.0014
1965.00,-0.0016
1964.00,-0.0017
1963.00,-0.0017
1962.00,-0.0017
1961.00,-0.0016
1960.00,-0.0014
1959.00,-0.0014
1958.00,-0.0013
1957.00,-0.0013
1956.00,-0.0013
1955.00,-0.0012
1954.00,-0.0011
1953.00,-0.0011
1952.00,-0.0012
1951.00,-0.0012
1950.00,-0.0013
1949.00,-0.0013
1948.00,-0.0014
1947.00,-0.0015
1946.00,-0.0016
1945.00,-0.0015
1944.00,-0.0014
1943.00,-0.0014
1942.00,-0.0015
1941.00,-0.0015
1940.00,-0.0014
1939.00,-0.0013
1938.00,-0.0013
1937.00,-0.0011
1936.00,-0.0010
1935.00,-0.0009
1934.00,-0.0008
1933.00,-0.0008
1932.00,-0.0007
1931.00,-0.0007
1930.00,-0.0006
1929.00,-0.0005
1928.00,-0.0005
1927.00,-0.0005
1926.00,-0.0005
1925.00,-0.0006
1924.00,-0.0006
1923.00,-0.0006
1922.00,-0.0006
1921.00,-0.0005
1920.00,-0.0004
1919.00,-0.0004
1918.00,-0.0004
1917.00,-0.0004
1916.00,-0.0003
1915.00,-0.0003
1914.00,-0.0003
1913.00,-0.0003
1912.00,-0.0003
1911.00,-0.0003
1910.00,-0.0002
1909.00,-0.0001
1908.00,-0.0000
1907.00,-0.0000
1906.00,-0.0001
1905.00,-0.0002
1904.00,-0.0002
1903.00,-0.0002
1902.00,-0.0000
1901.00,0.0001
1900.00,0.0001
1899.00,-0.0000
1898.00,-0.0001
1897.00,-0.0001
1896.00,-0.0001
1895.00,0.0000
1894.00,0.0000
1893.00,-0.0000
1892.00,-0.0000
1891.00,-0.0000
1890.00,-0.0000
1889.00,0.0000
1888.00,-0.0000
1887.00,-0.0001
1886.00,-0.0002
1885.00,-0.0002
1884.00,-0.0002
1883.00,-0.0000
1882.00,0.0001
1881.00,0.0001
1880.00,0.0001
1879.00,0.0000
1878.00,-0.0001
1877.00,-0.0001
1876.00,-0.0001
1875.00,-0.0001
1874.00,-0.0001
1873.00,-0.0001
1872.00,-0.0000
1871.00,-0.0000
1870.00,0.0000
1869.00,0.0001
1868.00,0.0000
1867.00,-0.0000
1866.00,-0.0001
1865.00,-0.0001
1864.00,-0.0000
1863.00,0.0000
1862.00,0.0001
1861.00,0.0001
1860.00,0.0002
1859.00,0.0003
1858.00,0.0004
1857.00,0.0004
1856.00,0.0004
1855.00,0.0003
1854.00,0.0003
1853.00,0.0003
1852.00,0.0003
1851.00,0.0003
1850.00,0.0003
1849.00,0.0003
1848.00,0.0002
1847.00,0.0002
1846.00,0.0002
1845.00,0.0003
1844.00,0.0003
1843.00,0.0003
1842.00,0.0003
1841.00,0.0002
1840.00,0.0002
1839.00,0.0003
1838.00,0.0003
1837.00,0.0003
1836.00,0.0003
1835.00,0.0004
1834.00,0.0004
1833.00,0.0005
1832.00,0.0004
1831.00,0.0004
1830.00,0.0004
1829.00,0.0004
1828.00,0.0005
1827.00,0.0005
1826.00,0.0005
1825.00,0.0005
1824.00,0.0004
1823.00,0.0004
1822.00,0.0003
1821.00,0.0003
1820.00,0.0002
1819.00,0.0002
1818.00,0.0001
1817.00,0.0001
1816.00,0.0002
1815.00,0.0003
1814.00,0.0003
1813.00,0.0004
1812.00,0.0004
1811.00,0.0004
1810.00,0.0004
1809.00,0.0004
1808.00,0.0004
1807.00,0.0004
1806.00,0.0005
1805.00,0.0005
1804.00,0.0005
1803.00,0.0005
1802.00,0.0005
1801.00,0.0005
1800.00,0.0005
1799.00,0.0005
1798.00,0.0006
1797.00,0.0006
1796.00,0.0006
1795.00,0.0007
1794.00,0.0007
1793.00,0.0008
1792.00,0.0009
1791.00,0.0009
1790.00,0.0008
1789.00,0.0008
1788.00,0.0009
1787.00,0.0009
1786.00,0.0010
1785.00,0.0010
1784.00,0.0010
1783.00,0.0009
1782.00,0.0009
1781.00,0.0009
1780.00,0.0009
1779.00,0.0009
1778.00,0.0009
1777.00,0.0009
1776.00,0.0008
1775.00,0.0008
1774.00,0.0008
1773.00,0.0008
1772.00,0.0009
1771.00,0.0010
1770.00,0.0010
1769.00,0.0009
1768.00,0.0010
1767.00,0.0010
1766.00,0.0010
1765.00,0.0011
1764.00,0.0011
1763.00,0.0011
1762.00,0.0011
1761.00,0.0012
1760.00,0.0012
1759.00,0.0012
1758.00,0.0013
1757.00,0.0014
1756.00,0.0014
1755.00,0.0015
1754.00,0.0015
1753.00,0.0016
1752.00,0.0016
1751.00,0.0016
1750.00,0.0016
1749.00,0.0016
1748.00,0.0017
1747.00,0.0018
1746.00,0.0018
1745.00,0.0018
1744.00,0.0019
1743.00,0.0019
1742.00,0.0020
1741.00,0.0021
1740.00,0.0022
1739.00,0.0022
1738.00,0.0023
1737.00,0.0023
1736.00,0.0024
1735.00,0.0024
1734.00,0.0023
1733.00,0.0022
1732.00,0.0021
1731.00,0.0022
1730.00,0.0022
1729.00,0.0022
1728.00,0.0021
1727.00,0.0020
1726.00,0.0020
1725.00,0.0020
1724.00,0.0021
1723.00,0.0021
1722.00,0.0022
1721.00,0.0022
1720.00,0.0022
1719.00,0.0023
1718.00,0.0023
1717.00,0.0023
1716.00,0.0023
1715.00,0.0023
1714.00,0.0022
1713.00,0.0022
1712.00,0.0022
1711.00,0.0022
1710.00,0.0022
1709.00,0.0023
1708.00,0.0023
1707.00,0.0023
1706.00,0.0024
1705.00,0.0025
1704.00,0.0026
1703.00,0.0026
1702.00,0.0026
1701.00,0.0026
1700.00,0.0026
1699.00,0.0026
1698.00,0.0026
1697.00,0.0027
1696.00,0.0028
1695.00,0.0029
1694.00,0.0029
1693.00,0.0030
1692.00,0.0031
1691.00,0.0032
1690.00,0.0032
1689.00,0.0033
1688.00,0.0033
1687.00,0.0033
1686.00,0.0032
1685.00,0.0033
1684.00,0.0035
1683.00,0.0036
1682.00,0.0038
1681.00,0.0039
1680.00,0.0040
1679.00,0.0041
1678.00,0.0042
1677.00,0.0043
1676.00,0.0045
1675.00,0.0045
1674.00,0.0046
1673.00,0.0046
1672.00,0.0047
1671.00,0.0047
1670.00,0.0047
1669.00,0.0047
1668.00,0.0048
1667.00,0.0048
1666.00,0.0048
1665.00,0.0049
1664.00,0.0050
1663.00,0.0051
1662.00,0.0051
1661.00,0.0052
1660.00,0.0052
1659.00,0.0053
1658.00,0.0054
1657.00,0.0055
1656.00,0.0056
1655.00,0.0057
1654.00,0.0058
1653.00,0.0059
1652.00,0.0060
1651.00,0.0061
1650.00,0.0064
1649.00,0.0066
1648.00,0.0069
1647.00,0.0071
1646.00,0.0072
1645.00,0.0072
1644.00,0.0071
1643.00,0.0070
1642.00,0.0069
1641.00,0.0069
1640.00,0.0069
1639.00,0.0069
1638.00,0.0069
1637.00,0.0069
1636.00,0.0069
1635.00,0.0068
1634.00,0.0067
1633.00,0.0067
1632.00,0.0067
1631.00,0.0068
1630.00,0.0068
1629.00,0.0067
1628.00,0.0067
1627.00,0.0066
1626.00,0.0066
1625.00,0.0065
1624.00,0.0064
1623.00,0.0063
1622.00,0.0062
1621.00,0.0062
1620.00,0.0062
1619.00,0.0061
1618.00,0.0060
1617.00,0.0060
1616.00,0.0060
1615.00,0.0060
1614.00,0.0060
1613.00,0.0060
1612.00,0.0060
1611.00,0.0059
1610.00,0.0059
1609.00,0.0059
1608.00,0.0059
1607.00,0.0058
1606.00,0.0057
1605.00,0.0057
1604.00,0.0058
1603.00,0.0058
1602.00,0.0058
1601.00,0.0058
1600.00,0.0057
1599.00,0.0057
1598.00,0.0056
1597.00,0.0056
1596.00,0.0056
1595.00,0.0056
1594.00,0.0056
1593.00,0.0056
1592.00,0.0056
1591.00,0.0057
1590.00,0.0058
1589.00,0.0058
1588.00,0.0059
1587.00,0.0059
1586.00,0.0060
1585.00,0.0061
1584.00,0.0063
1583.00,0.0065
1582.00,0.0066
1581.00,0.0068
1580.00,0.0070
1579.00,0.0071
1578.00,0.0072
1577.00,0.0073
1576.00,0.0072
1575.00,0.0071
1574.00,0.0071
1573.00,0.0070
1572.00,0.0070
1571.00,0.0069
1570.00,0.0067
1569.00,0.0066
1568.00,0.0065
1567.00,0.0064
1566.00,0.0063
1565.00,0.0063
1564.00,0.0063
1563.00,0.0063
1562.00,0.0064
1561.00,0.0064
1560.00,0.0065
1559.00,0.0065
1558.00,0.0065
1557.00,0.0066
1556.00,0.0067
1555.00,0.0068
1554.00,0.0069
1553.00,0.0070
1552.00,0.0071
1551.00,0.0071
1550.00,0.0072
1549.00,0.0074
1548.00,0.0075
1547.00,0.0077
1546.00,0.0079
1545.00,0.0082
1544.00,0.0084
1543.00,0.0086
1542.00,0.0086
1541.00,0.0086
1540.00,0.0084
1539.00,0.0080
1538.00,0.0078
1537.00,0.0077
1536.00,0.0075
1535.00,0.0073
1534.00,0.0070
1533.00,0.0067
1532.00,0.0065
1531.00,0.0063
1530.00,0.0062
1529.00,0.0061
1528.00,0.0060
1527.00,0.0059
1526.00,0.0058
1525.00,0.0058
1524.00,0.0058
1523.00,0.0058
1522.00,0.0057
1521.00,0.0057
1520.00,0.0057
1519.00,0.0057
1518.00,0.0057
1517.00,0.0057
1516.00,0.0058
1515.00,0.0058
1514.00,0.0058
1513.00,0.0059
1512.00,0.0060
1511.00,0.0061
1510.00,0.0060
1509.00,0.0060
1508.00,0.0061
1507.00,0.0062
1506.00,0.0063
1505.00,0.0065
1504.00,0.0067
1503.00,0.0068
1502.00,0.0071
1501.00,0.0074
1500.00,0.0077
1499.00,0.0080
1498.00,0.0083
1497.00,0.0087
1496.00,0.0091
1495.00,0.0094
1494.00,0.0097
1493.00,0.0101
1492.00,0.0106
1491.00,0.0110
1490.00,0.0114
1489.00,0.0119
1488.00,0.0124
1487.00,0.0128
1486.00,0.0133
1485.00,0.0140
1484.00,0.0147
1483.00,0.0155
1482.00,0.0164
1481.00,0.0175
1480.00,0.0188
1479.00,0.0200
1478.00,0.0214
1477.00,0.0233
1476.00,0.0256
1475.00,0.0282
1474.00,0.0317
1473.00,0.0370
1472.00,0.0434
1471.00,0.0498
1470.00,0.0559
1469.00,0.0623
1468.00,0.0693
1467.00,0.0769
1466.00,0.0856
1465.00,0.0952
1464.00,0.1038
1463.00,0.1100
1462.00,0.1143
1461.00,0.1175
1460.00,0.1199
1459.00,0.1218
1458.00,0.1235
1457.00,0.1251
1456.00,0.1258
1455.00,0.1257
1454.00,0.1250
1453.00,0.1238
1452.00,0.1216
1451.00,0.1180
1450.00,0.1128
1449.00,0.1053
1448.00,0.0956
1447.00,0.0853
1446.00,0.0759
1445.00,0.0679
1444.00,0.0611
1443.00,0.0556
1442.00,0.0515
1441.00,0.0488
1440.00,0.0471
1439.00,0.0464
1438.00,0.0464
1437.00,0.0463
1436.00,0.0450
1435.00,0.0422
1434.00,0.0382
1433.00,0.0336
1432.00,0.0288
1431.00,0.0247
1430.00,0.0215
1429.00,0.0192
1428.00,0.0177
1427.00,0.0168
1426.00,0.0162
1425.00,0.0156
1424.00,0.0151
1423.00,0.0148
1422.00,0.0147
1421.00,0.0145
1420.00,0.0142
1419.00,0.0139
1418.00,0.0137
1417.00,0.0134
1416.00,0.0131
1415.00,0.0129
1414.00,0.0128
1413.00,0.0126
1412.00,0.0124
1411.00,0.0123
1410.00,0.0122
1409.00,0.0121
1408.00,0.0120
1407.00,0.0120
1406.00,0.0120
1405.00,0.0121
1404.00,0.0121
1403.00,0.0122
1402.00,0.0124
1401.00,0.0125
1400.00,0.0126
1399.00,0.0128
1398.00,0.0131
1397.00,0.0133
1396.00,0.0135
1395.00,0.0140
1394.00,0.0145
1393.00,0.0150
1392.00,0.0156
1391.00,0.0165
1390.00,0.0177
1389.00,0.0194
1388.00,0.0220
1387.00,0.0259
1386.00,0.0311
1385.00,0.0376
1384.00,0.0461
1383.00,0.0575
1382.00,0.0724
1381.00,0.0912
1380.00,0.1144
1379.00,0.1408
1378.00,0.1667
1377.00,0.1863
1376.00,0.1939
1375.00,0.1857
1374.00,0.1638
1373.00,0.1363
1372.00,0.1106
1371.00,0.0890
1370.00,0.0717
1369.00,0.0584
1368.00,0.0491
1367.00,0.0433
1366.00,0.0403
1365.00,0.0391
1364.00,0.0393
1363.00,0.0408
1362.00,0.0430
1361.00,0.0453
1360.00,0.0470
1359.00,0.0474
1358.00,0.0462
1357.00,0.0434
1356.00,0.0394
1355.00,0.0350
1354.00,0.0308
1353.00,0.0272
1352.00,0.0243
1351.00,0.0219
1350.00,0.0200
1349.00,0.0184
1348.00,0.0172
1347.00,0.0163
1346.00,0.0155
1345.00,0.0149
1344.00,0.0144
1343.00,0.0140
1342.00,0.0137
1341.00,0.0134
1340.00,0.0131
1339.00,0.0129
1338.00,0.0127
1337.00,0.0126
1336.00,0.0126
1335.00,0.0128
1334.00,0.0131
1333.00,0.0136
1332.00,0.0140
1331.00,0.0144
1330.00,0.0145
1329.00,0.0144
1328.00,0.0140
1327.00,0.0135
1326.00,0.0129
1325.00,0.0122
1324.00,0.0116
1323.00,0.0110
1322.00,0.0105
1321.00,0.0102
1320.00,0.0099
1319.00,0.0097
1318.00,0.0094
1317.00,0.0092
1316.00,0.0090
1315.00,0.0089
1314.00,0.0089
1313.00,0.0090
1312.00,0.0091
1311.00,0.0094
1310.00,0.0099
1309.00,0.0106
1308.00,0.0116
1307.00,0.0129
1306.00,0.0142
1305.00,0.0151
1304.00,0.0154
1303.00,0.0152
1302.00,0.0146
1301.00,0.0141
1300.00,0.0137
1299.00,0.0136
1298.00,0.0135
1297.00,0.0135
1296.00,0.0133
1295.00,0.0131
1294.00,0.0127
1293.00,0.0122
1292.00,0.0116
1291.00,0.0111
1290.00,0.0106
1289.00,0.0102
1288.00,0.0098
1287.00,0.0095
1286.00,0.0092
1285.00,0.0089
1284.00,0.0087
1283.00,0.0085
1282.00,0.0084
1281.00,0.0083
1280.00,0.0082
1279.00,0.0081
1278.00,0.0081
1277.00,0.0080
1276.00,0.0080
1275.00,0.0080
1274.00,0.0080
1273.00,0.0080
1272.00,0.0081
1271.00,0.0081
1270.00,0.0082
1269.00,0.0083
1268.00,0.0084
1267.00,0.0086
1266.00,0.0088
1265.00,0.0091
1264.00,0.0094
1263.00,0.0098
1262.00,0.0102
1261.00,0.0108
1260.00,0.0114
1259.00,0.0122
1258.00,0.0131
1257.00,0.0138
1256.00,0.0141
1255.00,0.0140
1254.00,0.0134
1253.00,0.0125
1252.00,0.0116
1251.00,0.0109
1250.00,0.0104
1249.00,0.0100
1248.00,0.0097
1247.00,0.0096
1246.00,0.0095
1245.00,0.0095
1244.00,0.0094
1243.00,0.0094
1242.00,0.0093
1241.00,0.0092
1240.00,0.0091
1239.00,0.0089
1238.00,0.0089
1237.00,0.0088
1236.00,0.0088
1235.00,0.0087
1234.00,0.0087
1233.00,0.0087
1232.00,0.0087
1231.00,0.0087
1230.00,0.0087
1229.00,0.0088
1228.00,0.0089
1227.00,0.0090
1226.00,0.0091
1225.00,0.0094
1224.00,0.0097
1223.00,0.0101
1222.00,0.0104
1221.00,0.0108
1220.00,0.0110
1219.00,0.0112
1218.00,0.0111
1217.00,0.0110
1216.00,0.0107
1215.00,0.0104
1214.00,0.0100
1213.00,0.0097
1212.00,0.0094
1211.00,0.0091
1210.00,0.0088
1209.00,0.0086
1208.00,0.0085
1207.00,0.0084
1206.00,0.0083
1205.00,0.0083
1204.00,0.0082
1203.00,0.0081
1202.00,0.0081
1201.00,0.0080
1200.00,0.0080
1199.00,0.0080
1198.00,0.0080
1197.00,0.0080
1196.00,0.0081
1195.00,0.0081
1194.00,0.0081
1193.00,0.0081
1192.00,0.0081
1191.00,0.0082
1190.00,0.0083
1189.00,0.0083
1188.00,0.0083
1187.00,0.0083
1186.00,0.0084
1185.00,0.0085
1184.00,0.0087
1183.00,0.0089
1182.00,0.0091
1181.00,0.0094
1180.00,0.0097
1179.00,0.0102
1178.00,0.0108
1177.00,0.0118
1176.00,0.0130
1175.00,0.0147
1174.00,0.0169
1173.00,0.0198
1172.00,0.0232
1171.00,0.0270
1170.00,0.0306
1169.00,0.0335
1168.00,0.0353
1167.00,0.0357
1166.00,0.0349
1165.00,0.0333
1164.00,0.0312
1163.00,0.0291
1162.00,0.0272
1161.00,0.0256
1160.00,0.0243
1159.00,0.0234
1158.00,0.0227
1157.00,0.0222
1156.00,0.0219
1155.00,0.0215
1154.00,0.0211
1153.00,0.0207
1152.00,0.0202
1151.00,0.0195
1150.00,0.0187
1149.00,0.0178
1148.00,0.0168
1147.00,0.0159
1146.00,0.0150
1145.00,0.0142
1144.00,0.0135
1143.00,0.0127
1142.00,0.0121
1141.00,0.0116
1140.00,0.0112
1139.00,0.0108
1138.00,0.0104
1137.00,0.0100
1136.00,0.0097
1135.00,0.0095
1134.00,0.0093
1133.00,0.0092
1132.00,0.0091
1131.00,0.0091
1130.00,0.0091
1129.00,0.0092
1128.00,0.0093
1127.00,0.0094
1126.00,0.0094
1125.00,0.0095
1124.00,0.0094
1123.00,0.0094
1122.00,0.0094
1121.00,0.0095
1120.00,0.0095
1119.00,0.0096
1118.00,0.0096
1117.00,0.0097
1116.00,0.0098
1115.00,0.0100
1114.00,0.0102
1113.00,0.0104
1112.00,0.0107
1111.00,0.0109
1110.00,0.0112
1109.00,0.0116
1108.00,0.0121
1107.00,0.0128
1106.00,0.0135
1105.00,0.0142
1104.00,0.0148
1103.00,0.0151
1102.00,0.0152
1101.00,0.0149
1100.00,0.0144
1099.00,0.0138
1098.00,0.0131
1097.00,0.0124
1096.00,0.0119
1095.00,0.0115
1094.00,0.0111
1093.00,0.0109
1092.00,0.0106
1091.00,0.0103
1090.00,0.0100
1089.00,0.0098
1088.00,0.0096
1087.00,0.0095
1086.00,0.0094
1085.00,0.0093
1084.00,0.0092
1083.00,0.0091
1082.00,0.0090
1081.00,0.0089
1080.00,0.0087
1079.00,0.0086
1078.00,0.0085
1077.00,0.0084
1076.00,0.0083
1075.00,0.0083
1074.00,0.0083
1073.00,0.0084
1072.00,0.0084
1071.00,0.0084
1070.00,0.0083
1069.00,0.0082
1068.00,0.0082
1067.00,0.0082
1066.00,0.0082
1065.00,0.0082
1064.00,0.0082
1063.00,0.0083
1062.00,0.0083
1061.00,0.0084
1060.00,0.0084
1059.00,0.0084
1058.00,0.0085
1057.00,0.0085
1056.00,0.0085
1055.00,0.0086
1054.00,0.0087
1053.00,0.0089
1052.00,0.0091
1051.00,0.0092
1050.00,0.0094
1049.00,0.0096
1048.00,0.0099
1047.00,0.0101
1046.00,0.0104
1045.00,0.0105
1044.00,0.0105
1043.00,0.0105
1042.00,0.0103
1041.00,0.0101
1040.00,0.0099
1039.00,0.0098
1038.00,0.0097
1037.00,0.0098
1036.00,0.0098
1035.00,0.0098
1034.00,0.0098
1033.00,0.0097
1032.00,0.0096
1031.00,0.0095
1030.00,0.0094
1029.00,0.0094
1028.00,0.0093
1027.00,0.0093
1026.00,0.0093
1025.00,0.0093
1024.00,0.0093
1023.00,0.0093
1022.00,0.0093
1021.00,0.0094
1020.00,0.0095
1019.00,0.0097
1018.00,0.0099
1017.00,0.0101
1016.00,0.0103
1015.00,0.0107
1014.00,0.0111
1013.00,0.0115
1012.00,0.0118
1011.00,0.0122
1010.00,0.0126
1009.00,0.0131
1008.00,0.0137
1007.00,0.0144
1006.00,0.0152
1005.00,0.0165
1004.00,0.0183
1003.00,0.0208
1002.00,0.0240
1001.00,0.0279
1000.00,0.0319
999.00,0.0354
998.00,0.0372
997.00,0.0366
996.00,0.0338
995.00,0.0296
994.00,0.0251
993.00,0.0211
992.00,0.0179
991.00,0.0157
990.00,0.0142
989.00,0.0131
988.00,0.0124
987.00,0.0120
986.00,0.0120
985.00,0.0122
984.00,0.0126
983.00,0.0133
982.00,0.0144
981.00,0.0161
980.00,0.0184
979.00,0.0216
978.00,0.0255
977.00,0.0302
976.00,0.0353
975.00,0.0401
974.00,0.0439
973.00,0.0455
972.00,0.0444
971.00,0.0406
970.00,0.0352
969.00,0.0294
968.00,0.0243
967.00,0.0203
966.00,0.0174
965.00,0.0153
964.00,0.0137
963.00,0.0126
962.00,0.0117
961.00,0.0110
960.00,0.0104
959.00,0.0100
958.00,0.0096
957.00,0.0093
956.00,0.0091
955.00,0.0090
954.00,0.0089
953.00,0.0088
952.00,0.0087
951.00,0.0085
950.00,0.0084
949.00,0.0083
948.00,0.0083
947.00,0.0085
946.00,0.0088
945.00,0.0092
944.00,0.0095
943.00,0.0098
942.00,0.0101
941.00,0.0101
940.00,0.0101
939.00,0.0098
938.00,0.0094
937.00,0.0089
936.00,0.0083
935.00,0.0078
934.00,0.0075
933.00,0.0073
932.00,0.0071
931.00,0.0069
930.00,0.0068
929.00,0.0066
928.00,0.0064
927.00,0.0063
926.00,0.0063
925.00,0.0064
924.00,0.0065
923.00,0.0066
922.00,0.0068
921.00,0.0070
920.00,0.0071
919.00,0.0072
918.00,0.0072
917.00,0.0072
916.00,0.0073
915.00,0.0074
914.00,0.0075
913.00,0.0076
912.00,0.0078
911.00,0.0079
910.00,0.0081
909.00,0.0082
908.00,0.0084
907.00,0.0088
906.00,0.0094
905.00,0.0104
904.00,0.0119
903.00,0.0137
902.00,0.0158
901.00,0.0178
900.00,0.0191
899.00,0.0194
898.00,0.0186
897.00,0.0169
896.00,0.0150
895.00,0.0132
894.00,0.0117
893.00,0.0106
892.00,0.0098
891.00,0.0091
890.00,0.0086
889.00,0.0082
888.00,0.0078
887.00,0.0076
886.00,0.0075
885.00,0.0074
884.00,0.0075
883.00,0.0076
882.00,0.0076
881.00,0.0076
880.00,0.0076
879.00,0.0077
878.00,0.0078
877.00,0.0079
876.00,0.0079
875.00,0.0079
874.00,0.0079
873.00,0.0079
872.00,0.0078
871.00,0.0078
870.00,0.0078
869.00,0.0079
868.00,0.0079
867.00,0.0080
866.00,0.0081
865.00,0.0081
864.00,0.0082
863.00,0.0083
862.00,0.0084
861.00,0.0086
860.00,0.0087
859.00,0.0088
858.00,0.0089
857.00,0.0090
856.00,0.0091
855.00,0.0094
854.00,0.0097
853.00,0.0100
852.00,0.0103
851.00,0.0107
850.00,0.0112
849.00,0.0120
848.00,0.0131
847.00,0.0147
846.00,0.0172
845.00,0.0209
844.00,0.0260
843.00,0.0317
842.00,0.0359
841.00,0.0370
840.00,0.0344
839.00,0.0294
838.00,0.0242
837.00,0.0202
836.00,0.0174
835.00,0.0156
834.00,0.0145
833.00,0.0137
832.00,0.0131
831.00,0.0128
830.00,0.0125
829.00,0.0123
828.00,0.0120
827.00,0.0117
826.00,0.0114
825.00,0.0112
824.00,0.0111
823.00,0.0110
822.00,0.0109
821.00,0.0109
820.00,0.0112
819.00,0.0116
818.00,0.0122
817.00,0.0129
816.00,0.0136
815.00,0.0145
814.00,0.0158
813.00,0.0173
812.00,0.0190
811.00,0.0206
810.00,0.0219
809.00,0.0224
808.00,0.0221
807.00,0.0212
806.00,0.0197
805.00,0.0180
804.00,0.0164
803.00,0.0150
802.00,0.0139
801.00,0.0130
800.00,0.0123
799.00,0.0117
798.00,0.0113
797.00,0.0109
796.00,0.0105
795.00,0.0102
794.00,0.0098
793.00,0.0094
792.00,0.0091
791.00,0.0088
790.00,0.0086
789.00,0.0084
788.00,0.0083
787.00,0.0082
786.00,0.0081
785.00,0.0079
784.00,0.0078
783.00,0.0076
782.00,0.0073
781.00,0.0071
780.00,0.0071
779.00,0.0071
778.00,0.0072
777.00,0.0072
776.00,0.0072
775.00,0.0073
774.00,0.0074
773.00,0.0075
772.00,0.0076
771.00,0.0079
770.00,0.0083
769.00,0.0085
768.00,0.0085
767.00,0.0083
766.00,0.0082
765.00,0.0080
764.00,0.0078
763.00,0.0076
762.00,0.0075
761.00,0.0074
760.00,0.0072
759.00,0.0069
758.00,0.0067
757.00,0.0066
756.00,0.0064
755.00,0.0063
754.00,0.0061
753.00,0.0060
752.00,0.0058
751.00,0.0058
750.00,0.0059
749.00,0.0061
748.00,0.0062
747.00,0.0063
746.00,0.0062
745.00,0.0063
744.00,0.0063
743.00,0.0064
742.00,0.0066
741.00,0.0068
740.00,0.0070
739.00,0.0072
738.00,0.0073
737.00,0.0074
736.00,0.0075
735.00,0.0077
734.00,0.0079
733.00,0.0080
732.00,0.0080
731.00,0.0080
730.00,0.0079
729.00,0.0079
728.00,0.0079
727.00,0.0080
726.00,0.0080
725.00,0.0081
724.00,0.0080
723.00,0.0078
722.00,0.0077
721.00,0.0075
720.00,0.0074
719.00,0.0074
718.00,0.0074
717.00,0.0072
716.00,0.0071
715.00,0.0069
714.00,0.0069
713.00,0.0070
712.00,0.0071
711.00,0.0070
710.00,0.0069
709.00,0.0068
708.00,0.0068
707.00,0.0068
706.00,0.0069
705.00,0.0069
704.00,0.0070
703.00,0.0071
702.00,0.0071
701.00,0.0070
700.00,0.0068
699.00,0.0066
698.00,0.0064
697.00,0.0062
696.00,0.0062
695.00,0.0062
694.00,0.0063
693.00,0.0064
692.00,0.0063
691.00,0.0062
690.00,0.0060
689.00,0.0058
688.00,0.0056
687.00,0.0055
686.00,0.0054
685.00,0.0053
684.00,0.0053
683.00,0.0055
682.00,0.0058
681.00,0.0061
680.00,0.0064
679.00,0.0066
678.00,0.0067
677.00,0.0067
676.00,0.0068
675.00,0.0067
674.00,0.0066
673.00,0.0064
672.00,0.0061
671.00,0.0060
670.00,0.0060
669.00,0.0062
668.00,0.0063
667.00,0.0064
666.00,0.0064
665.00,0.0065
664.00,0.0066
663.00,0.0066
662.00,0.0066
661.00,0.0065
660.00,0.0064
659.00,0.0063
658.00,0.0062
657.00,0.0063
656.00,0.0063
655.00,0.0064
654.00,0.0065
653.00,0.0067
652.00,0.0068
651.00,0.0068
650.00,0.0067
649.00,0.0067
648.00,0.0067
647.00,0.0067
646.00,0.0067
645.00,0.0066
644.00,0.0065
643.00,0.0064
642.00,0.0063
641.00,0.0063
640.00,0.0062
639.00,0.0062
638.00,0.0064
637.00,0.0066
636.00,0.0067
635.00,0.0068
634.00,0.0067
633.00,0.0066
632.00,0.0065
631.00,0.0063
630.00,0.0062
629.00,0.0061
628.00,0.0061
627.00,0.0062
626.00,0.0064
625.00,0.0065
624.00,0.0065
623.00,0.0065
622.00,0.0064
621.00,0.0064
620.00,0.0064
619.00,0.0062
618.00,0.0060
617.00,0.0059
616.00,0.0061
615.00,0.0065
614.00,0.0068
613.00,0.0070
612.00,0.0070
611.00,0.0070
610.00,0.0068
609.00,0.0067
608.00,0.0066
607.00,0.0065
606.00,0.0065
605.00,0.0066
604.00,0.0068
603.00,0.0069
602.00,0.0068
601.00,0.0066
600.00,0.0065
599.00,0.0064
598.00,0.0064
597.00,0.0065
596.00,0.0066
595.00,0.0067
594.00,0.0067
593.00,0.0067
592.00,0.0065
591.00,0.0064
590.00,0.0063
589.00,0.0063
588.00,0.0065
587.00,0.0068
586.00,0.0070
585.00,0.0072
584.00,0.0072
583.00,0.0073
582.00,0.0073
581.00,0.0073
580.00,0.0073
579.00,0.0072
578.00,0.0071
577.00,0.0071
576.00,0.0072
575.00,0.0072
574.00,0.0071
573.00,0.0068
572.00,0.0066
571.00,0.0065
570.00,0.0066
569.00,0.0068
568.00,0.0068
567.00,0.0065
566.00,0.0061
565.00,0.0059
564.00,0.0061
563.00,0.0066
562.00,0.0070
561.00,0.0072
560.00,0.0070
559.00,0.0069
558.00,0.0069
557.00,0.0071
556.00,0.0073
555.00,0.0074
554.00,0.0074
553.00,0.0073
552.00,0.0072
551.00,0.0069
550.00,0.0068
549.00,0.0070
548.00,0.0074
547.00,0.0078
546.00,0.0080
545.00,0.0078
544.00,0.0074
543.00,0.0071
542.00,0.0071
541.00,0.0073
540.00,0.0075
539.00,0.0077
538.00,0.0077
537.00,0.0077
536.00,0.0078
535.00,0.0080
534.00,0.0085
533.00,0.0088
532.00,0.0090
531.00,0.0090
530.00,0.0089
529.00,0.0087
528.00,0.0087
527.00,0.0090
526.00,0.0093
525.00,0.0095
524.00,0.0094
523.00,0.0091
522.00,0.0087
521.00,0.0083
520.00,0.0080
519.00,0.0079
518.00,0.0078
517.00,0.0078
516.00,0.0078
515.00,0.0080
514.00,0.0082
513.00,0.0082
512.00,0.0077
511.00,0.0069
510.00,0.0063
509.00,0.0061
508.00,0.0063
507.00,0.0067
506.00,0.0067
505.00,0.0064
504.00,0.0062
503.00,0.0066
502.00,0.0074
501.00,0.0078
500.00,0.0076
499.00,0.0070
498.00,0.0065
497.00,0.0061
496.00,0.0061
495.00,0.0063
494.00,0.0065
493.00,0.0065
492.00,0.0063
491.00,0.0060
490.00,0.0060
489.00,0.0062
488.00,0.0064
487.00,0.0067
486.00,0.0074
485.00,0.0084
484.00,0.0092
483.00,0.0093
482.00,0.0090
481.00,0.0088
480.00,0.0088
479.00,0.0085
478.00,0.0074
477.00,0.0061
476.00,0.0052
475.00,0.0054
474.00,0.0061
473.00,0.0065
472.00,0.0064
471.00,0.0063
470.00,0.0067
469.00,0.0073
468.00,0.0080
467.00,0.0086
466.00,0.0096
465.00,0.0111
464.00,0.0125
463.00,0.0134
462.00,0.0137
461.00,0.0141
460.00,0.0151
459.00,0.0161
458.00,0.0164
457.00,0.0154
456.00,0.0140
455.00,0.0133
454.00,0.0133
453.00,0.0134
452.00,0.0133
451.00,0.0130
450.00,0.0126
