Created as New Dataset,Sample 100 By Administrator Date Wednesday, September 10 2025
cm-1,A
4000.00,0.0009
3999.00,0.0009
3998.00,0.0009
3997.00,0.0009
3996.00,0.0009
3995.00,0.0009
3994.00,0.0009
3993.00,0.0008
3992.00,0.0008
3991.00,0.0008
3990.00,0.0009
3989.00,0.0009
3988.00,0.0009
3987.00,0.0009
3986.00,0.0009
3985.00,0.0009
3984.00,0.0009
3983.00,0.0009
3982.00,0.0009
3981.00,0.0009
3980.00,0.0009
3979.00,0.0009
3978.00,0.0009
3977.00,0.0008
3976.00,0.0008
3975.00,0.0008
3974.00,0.0008
3973.00,0.0008
3972.00,0.0008
3971.00,0.0008
3970.00,0.0008
3969.00,0.0008
3968.00,0.0008
3967.00,0.0008
3966.00,0.0007
3965.00,0.0007
3964.00,0.0007
3963.00,0.0007
3962.00,0.0007
3961.00,0.0007
3960.00,0.0007
3959.00,0.0007
3958.00,0.0007
3957.00,0.0007
3956.00,0.0007
3955.00,0.0007
3954.00,0.0007
3953.00,0.0007
3952.00,0.0007
3951.00,0.0007
3950.00,0.0007
3949.00,0.0007
3948.00,0.0007
3947.00,0.0007
3946.00,0.0007
3945.00,0.0006
3944.00,0.0006
3943.00,0.0006
3942.00,0.0006
3941.00,0.0006
3940.00,0.0006
3939.00,0.0007
3938.00,0.0007
3937.00,0.0007
3936.00,0.0007
3935.00,0.0007
3934.00,0.0008
3933.00,0.0007
3932.00,0.0007
3931.00,0.0007
3930.00,0.0006
3929.00,0.0007
3928.00,0.0007
3927.00,0.0007
3926.00,0.0007
3925.00,0.0007
3924.00,0.0007
3923.00,0.0007
3922.00,0.0007
3921.00,0.0007
3920.00,0.0007
3919.00,0.0007
3918.00,0.0007
3917.00,0.0007
3916.00,0.0007
3915.00,0.0007
3914.00,0.0007
3913.00,0.0007
3912.00,0.0007
3911.00,0.0007
3910.00,0.0007
3909.00,0.0006
3908.00,0.0006
3907.00,0.0006
3906.00,0.0006
3905.00,0.0006
3904.00,0.0006
3903.00,0.0006
3902.00,0.0006
3901.00,0.0006
3900.00,0.0006
3899.00,0.0006
3898.00,0.0006
3897.00,0.0007
3896.00,0.0007
3895.00,0.0007
3894.00,0.0006
3893.00,0.0006
3892.00,0.0007
3891.00,0.0007
3890.00,0.0007
3889.00,0.0007
3888.00,0.0007
3887.00,0.0007
3886.00,0.0007
3885.00,0.0007
3884.00,0.0007
3883.00,0.0007
3882.00,0.0007
3881.00,0.0006
3880.00,0.0006
3879.00,0.0006
3878.00,0.0006
3877.00,0.0006
3876.00,0.0006
3875.00,0.0006
3874.00,0.0006
3873.00,0.0006
3872.00,0.0006
3871.00,0.0006
3870.00,0.0006
3869.00,0.0006
3868.00,0.0005
3867.00,0.0005
3866.00,0.0005
3865.00,0.0005
3864.00,0.0005
3863.00,0.0005
3862.00,0.0005
3861.00,0.0006
3860.00,0.0006
3859.00,0.0006
3858.00,0.0006
3857.00,0.0006
3856.00,0.0006
3855.00,0.0005
3854.00,0.0005
3853.00,0.0004
3852.00,0.0004
3851.00,0.0004
3850.00,0.0004
3849.00,0.0005
3848.00,0.0005
3847.00,0.0005
3846.00,0.0005
3845.00,0.0005
3844.00,0.0005
3843.00,0.0005
3842.00,0.0005
3841.00,0.0004
3840.00,0.0004
3839.00,0.0004
3838.00,0.0004
3837.00,0.0005
3836.00,0.0005
3835.00,0.0005
3834.00,0.0005
3833.00,0.0005
3832.00,0.0006
3831.00,0.0006
3830.00,0.0006
3829.00,0.0006
3828.00,0.0006
3827.00,0.0006
3826.00,0.0006
3825.00,0.0005
3824.00,0.0005
3823.00,0.0004
3822.00,0.0004
3821.00,0.0004
3820.00,0.0004
3819.00,0.0004
3818.00,0.0004
3817.00,0.0004
3816.00,0.0005
3815.00,0.0006
3814.00,0.0006
3813.00,0.0006
3812.00,0.0006
3811.00,0.0006
3810.00,0.0006
3809.00,0.0005
3808.00,0.0005
3807.00,0.0005
3806.00,0.0005
3805.00,0.0005
3804.00,0.0005
3803.00,0.0005
3802.00,0.0005
3801.00,0.0005
3800.00,0.0005
3799.00,0.0005
3798.00,0.0005
3797.00,0.0006
3796.00,0.0006
3795.00,0.0007
3794.00,0.0007
3793.00,0.0007
3792.00,0.0007
3791.00,0.0007
3790.00,0.0007
3789.00,0.0007
3788.00,0.0007
3787.00,0.0007
3786.00,0.0006
3785.00,0.0006
3784.00,0.0006
3783.00,0.0006
3782.00,0.0006
3781.00,0.0006
3780.00,0.0007
3779.00,0.0007
3778.00,0.0007
3777.00,0.0007
3776.00,0.0007
3775.00,0.0007
3774.00,0.0007
3773.00,0.0007
3772.00,0.0007
3771.00,0.0007
3770.00,0.0007
3769.00,0.0007
3768.00,0.0007
3767.00,0.0007
3766.00,0.0007
3765.00,0.0007
3764.00,0.0007
3763.00,0.0007
3762.00,0.0007
3761.00,0.0006
3760.00,0.0006
3759.00,0.0006
3758.00,0.0006
3757.00,0.0006
3756.00,0.0006
3755.00,0.0006
3754.00,0.0006
3753.00,0.0006
3752.00,0.0006
3751.00,0.0006
3750.00,0.0006
3749.00,0.0005
3748.00,0.0005
3747.00,0.0005
3746.00,0.0004
3745.00,0.0004
3744.00,0.0004
3743.00,0.0004
3742.00,0.0004
3741.00,0.0004
3740.00,0.0004
3739.00,0.0004
3738.00,0.0004
3737.00,0.0005
3736.00,0.0005
3735.00,0.0005
3734.00,0.0005
3733.00,0.0005
3732.00,0.0005
3731.00,0.0005
3730.00,0.0005
3729.00,0.0005
3728.00,0.0005
3727.00,0.0006
3726.00,0.0006
3725.00,0.0006
3724.00,0.0005
3723.00,0.0005
3722.00,0.0005
3721.00,0.0005
3720.00,0.0005
3719.00,0.0005
3718.00,0.0005
3717.00,0.0006
3716.00,0.0006
3715.00,0.0005
3714.00,0.0005
3713.00,0.0005
3712.00,0.0004
3711.00,0.0004
3710.00,0.0004
3709.00,0.0004
3708.00,0.0004
3707.00,0.0005
3706.00,0.0005
3705.00,0.0005
3704.00,0.0005
3703.00,0.0006
3702.00,0.0006
3701.00,0.0006
3700.00,0.0006
3699.00,0.0005
3698.00,0.0005
3697.00,0.0005
3696.00,0.0005
3695.00,0.0004
3694.00,0.0004
3693.00,0.0004
3692.00,0.0004
3691.00,0.0004
3690.00,0.0004
3689.00,0.0004
3688.00,0.0003
3687.00,0.0003
3686.00,0.0004
3685.00,0.0004
3684.00,0.0004
3683.00,0.0004
3682.00,0.0005
3681.00,0.0005
3680.00,0.0005
3679.00,0.0006
3678.00,0.0006
3677.00,0.0005
3676.00,0.0005
3675.00,0.0005
3674.00,0.0004
3673.00,0.0004
3672.00,0.0004
3671.00,0.0005
3670.00,0.0005
3669.00,0.0005
3668.00,0.0005
3667.00,0.0005
3666.00,0.0005
3665.00,0.0005
3664.00,0.0006
3663.00,0.0006
3662.00,0.0006
3661.00,0.0006
3660.00,0.0006
3659.00,0.0005
3658.00,0.0005
3657.00,0.0004
3656.00,0.0004
3655.00,0.0004
3654.00,0.0004
3653.00,0.0004
3652.00,0.0004
3651.00,0.0004
3650.00,0.0004
3649.00,0.0005
3648.00,0.0005
3647.00,0.0005
3646.00,0.0005
3645.00,0.0005
3644.00,0.0005
3643.00,0.0006
3642.00,0.0006
3641.00,0.0006
3640.00,0.0006
3639.00,0.0006
3638.00,0.0006
3637.00,0.0006
3636.00,0.0006
3635.00,0.0006
3634.00,0.0006
3633.00,0.0005
3632.00,0.0005
3631.00,0.0004
3630.00,0.0004
3629.00,0.0003
3628.00,0.0003
3627.00,0.0003
3626.00,0.0004
3625.00,0.0004
3624.00,0.0005
3623.00,0.0005
3622.00,0.0005
3621.00,0.0005
3620.00,0.0005
3619.00,0.0005
3618.00,0.0005
3617.00,0.0005
3616.00,0.0006
3615.00,0.0006
3614.00,0.0007
3613.00,0.0008
3612.00,0.0008
3611.00,0.0008
3610.00,0.0008
3609.00,0.0008
3608.00,0.0008
3607.00,0.0008
3606.00,0.0008
3605.00,0.0008
3604.00,0.0008
3603.00,0.0008
3602.00,0.0008
3601.00,0.0008
3600.00,0.0008
3599.00,0.0008
3598.00,0.0008
3597.00,0.0008
3596.00,0.0009
3595.00,0.0009
3594.00,0.0009
3593.00,0.0009
3592.00,0.0009
3591.00,0.0009
3590.00,0.0009
3589.00,0.0009
3588.00,0.0010
3587.00,0.0010
3586.00,0.0011
3585.00,0.0011
3584.00,0.0011
3583.00,0.0011
3582.00,0.0011
3581.00,0.0011
3580.00,0.0011
3579.00,0.0011
3578.00,0.0012
3577.00,0.0012
3576.00,0.0012
3575.00,0.0012
3574.00,0.0012
3573.00,0.0012
3572.00,0.0012
3571.00,0.0012
3570.00,0.0011
3569.00,0.0011
3568.00,0.0011
3567.00,0.0011
3566.00,0.0011
3565.00,0.0012
3564.00,0.0012
3563.00,0.0013
3562.00,0.0014
3561.00,0.0015
3560.00,0.0015
3559.00,0.0015
3558.00,0.0015
3557.00,0.0015
3556.00,0.0015
3555.00,0.0015
3554.00,0.0015
3553.00,0.0015
3552.00,0.0015
3551.00,0.0016
3550.00,0.0016
3549.00,0.0017
3548.00,0.0018
3547.00,0.0018
3546.00,0.0018
3545.00,0.0018
3544.00,0.0018
3543.00,0.0019
3542.00,0.0019
3541.00,0.0019
3540.00,0.0019
3539.00,0.0019
3538.00,0.0019
3537.00,0.0019
3536.00,0.0020
3535.00,0.0020
3534.00,0.0020
3533.00,0.0021
3532.00,0.0021
3531.00,0.0021
3530.00,0.0021
3529.00,0.0022
3528.00,0.0022
3527.00,0.0022
3526.00,0.0022
3525.00,0.0023
3524.00,0.0023
3523.00,0.0023
3522.00,0.0023
3521.00,0.0023
3520.00,0.0023
3519.00,0.0024
3518.00,0.0024
3517.00,0.0024
3516.00,0.0024
3515.00,0.0024
3514.00,0.0025
3513.00,0.0025
3512.00,0.0025
3511.00,0.0026
3510.00,0.0026
3509.00,0.0026
3508.00,0.0026
3507.00,0.0026
3506.00,0.0026
3505.00,0.0026
3504.00,0.0027
3503.00,0.0027
3502.00,0.0027
3501.00,0.0027
3500.00,0.0027
3499.00,0.0028
3498.00,0.0028
3497.00,0.0029
3496.00,0.0029
3495.00,0.0029
3494.00,0.0029
3493.00,0.0029
3492.00,0.0029
3491.00,0.0030
3490.00,0.0030
3489.00,0.0031
3488.00,0.0031
3487.00,0.0031
3486.00,0.0031
3485.00,0.0032
3484.00,0.0032
3483.00,0.0032
3482.00,0.0032
3481.00,0.0032
3480.00,0.0033
3479.00,0.0033
3478.00,0.0034
3477.00,0.0034
3476.00,0.0034
3475.00,0.0035
3474.00,0.0035
3473.00,0.0035
3472.00,0.0034
3471.00,0.0034
3470.00,0.0034
3469.00,0.0034
3468.00,0.0035
3467.00,0.0035
3466.00,0.0035
3465.00,0.0035
3464.00,0.0035
3463.00,0.0035
3462.00,0.0036
3461.00,0.0036
3460.00,0.0037
3459.00,0.0037
3458.00,0.0037
3457.00,0.0037
3456.00,0.0037
3455.00,0.0037
3454.00,0.0038
3453.00,0.0038
3452.00,0.0039
3451.00,0.0039
3450.00,0.0039
3449.00,0.0039
3448.00,0.0039
3447.00,0.0039
3446.00,0.0039
3445.00,0.0039
3444.00,0.0040
3443.00,0.0040
3442.00,0.0040
3441.00,0.0040
3440.00,0.0040
3439.00,0.0040
3438.00,0.0040
3437.00,0.0040
3436.00,0.0041
3435.00,0.0041
3434.00,0.0041
3433.00,0.0041
3432.00,0.0042
3431.00,0.0042
3430.00,0.0042
3429.00,0.0042
3428.00,0.0042
3427.00,0.0042
3426.00,0.0043
3425.00,0.0043
3424.00,0.0043
3423.00,0.0044
3422.00,0.0043
3421.00,0.0043
3420.00,0.0043
3419.00,0.0043
3418.00,0.0044
3417.00,0.0044
3416.00,0.0044
3415.00,0.0044
3414.00,0.0044
3413.00,0.0044
3412.00,0.0044
3411.00,0.0045
3410.00,0.0045
3409.00,0.0045
3408.00,0.0045
3407.00,0.0045
3406.00,0.0045
3405.00,0.0045
3404.00,0.0045
3403.00,0.0045
3402.00,0.0046
3401.00,0.0046
3400.00,0.0047
3399.00,0.0047
3398.00,0.0047
3397.00,0.0047
3396.00,0.0047
3395.00,0.0047
3394.00,0.0047
3393.00,0.0047
3392.00,0.0047
3391.00,0.0047
3390.00,0.0047
3389.00,0.0047
3388.00,0.0047
3387.00,0.0047
3386.00,0.0047
3385.00,0.0047
3384.00,0.0047
3383.00,0.0048
3382.00,0.0047
3381.00,0.0047
3380.00,0.0047
3379.00,0.0047
3378.00,0.0046
3377.00,0.0046
3376.00,0.0046
3375.00,0.0047
3374.00,0.0048
3373.00,0.0048
3372.00,0.0049
3371.00,0.0048
3370.00,0.0048
3369.00,0.0048
3368.00,0.0048
3367.00,0.0048
3366.00,0.0048
3365.00,0.0048
3364.00,0.0048
3363.00,0.0048
3362.00,0.0048
3361.00,0.0048
3360.00,0.0049
3359.00,0.0049
3358.00,0.0049
3357.00,0.0049
3356.00,0.0048
3355.00,0.0048
3354.00,0.0048
3353.00,0.0048
3352.00,0.0048
3351.00,0.0048
3350.00,0.0048
3349.00,0.0048
3348.00,0.0048
3347.00,0.0048
3346.00,0.0048
3345.00,0.0048
3344.00,0.0047
3343.00,0.0047
3342.00,0.0047
3341.00,0.0047
3340.00,0.0047
3339.00,0.0047
3338.00,0.0047
3337.00,0.0047
3336.00,0.0047
3335.00,0.0047
3334.00,0.0047
3333.00,0.0047
3332.00,0.0046
3331.00,0.0046
3330.00,0.0046
3329.00,0.0045
3328.00,0.0045
3327.00,0.0045
3326.00,0.0045
3325.00,0.0045
3324.00,0.0045
3323.00,0.0045
3322.00,0.0045
3321.00,0.0045
3320.00,0.0045
3319.00,0.0045
3318.00,0.0045
3317.00,0.0046
3316.00,0.0046
3315.00,0.0046
3314.00,0.0045
3313.00,0.0045
3312.00,0.0045
3311.00,0.0045
3310.00,0.0044
3309.00,0.0044
3308.00,0.0044
3307.00,0.0044
3306.00,0.0044
3305.00,0.0044
3304.00,0.0045
3303.00,0.0045
3302.00,0.0045
3301.00,0.0045
3300.00,0.0045
3299.00,0.0044
3298.00,0.0044
3297.00,0.0043
3296.00,0.0043
3295.00,0.0043
3294.00,0.0043
3293.00,0.0043
3292.00,0.0043
3291.00,0.0042
3290.00,0.0043
3289.00,0.0043
3288.00,0.0043
3287.00,0.0043
3286.00,0.0043
3285.00,0.0043
3284.00,0.0043
3283.00,0.0042
3282.00,0.0042
3281.00,0.0042
3280.00,0.0042
3279.00,0.0042
3278.00,0.0042
3277.00,0.0042
3276.00,0.0041
3275.00,0.0041
3274.00,0.0041
3273.00,0.0040
3272.00,0.0040
3271.00,0.0040
3270.00,0.0041
3269.00,0.0041
3268.00,0.0041
3267.00,0.0041
3266.00,0.0041
3265.00,0.0041
3264.00,0.0041
3263.00,0.0040
3262.00,0.0040
3261.00,0.0040
3260.00,0.0040
3259.00,0.0040
3258.00,0.0040
3257.00,0.0040
3256.00,0.0039
3255.00,0.0039
3254.00,0.0039
3253.00,0.0039
3252.00,0.0038
3251.00,0.0038
3250.00,0.0038
3249.00,0.0038
3248.00,0.0038
3247.00,0.0038
3246.00,0.0038
3245.00,0.0038
3244.00,0.0038
3243.00,0.0038
3242.00,0.0037
3241.00,0.0037
3240.00,0.0037
3239.00,0.0038
3238.00,0.0038
3237.00,0.0038
3236.00,0.0038
3235.00,0.0038
3234.00,0.0038
3233.00,0.0038
3232.00,0.0038
3231.00,0.0038
3230.00,0.0038
3229.00,0.0038
3228.00,0.0038
3227.00,0.0038
3226.00,0.0039
3225.00,0.0039
3224.00,0.0040
3223.00,0.0040
3222.00,0.0041
3221.00,0.0040
3220.00,0.0040
3219.00,0.0041
3218.00,0.0041
3217.00,0.0041
3216.00,0.0041
3215.00,0.0041
3214.00,0.0041
3213.00,0.0041
3212.00,0.0041
3211.00,0.0041
3210.00,0.0041
3209.00,0.0041
3208.00,0.0041
3207.00,0.0042
3206.00,0.0042
3205.00,0.0042
3204.00,0.0043
3203.00,0.0043
3202.00,0.0043
3201.00,0.0043
3200.00,0.0043
3199.00,0.0043
3198.00,0.0043
3197.00,0.0043
3196.00,0.0043
3195.00,0.0043
3194.00,0.0043
3193.00,0.0043
3192.00,0.0043
3191.00,0.0043
3190.00,0.0043
3189.00,0.0043
3188.00,0.0043
3187.00,0.0043
3186.00,0.0043
3185.00,0.0042
3184.00,0.0042
3183.00,0.0042
3182.00,0.0042
3181.00,0.0042
3180.00,0.0041
3179.00,0.0041
3178.00,0.0040
3177.00,0.0040
3176.00,0.0039
3175.00,0.0039
3174.00,0.0039
3173.00,0.0039
3172.00,0.0039
3171.00,0.0039
3170.00,0.0038
3169.00,0.0038
3168.00,0.0038
3167.00,0.0039
3166.00,0.0039
3165.00,0.0039
3164.00,0.0038
3163.00,0.0038
3162.00,0.0037
3161.00,0.0037
3160.00,0.0037
3159.00,0.0037
3158.00,0.0037
3157.00,0.0038
3156.00,0.0038
3155.00,0.0038
3154.00,0.0037
3153.00,0.0037
3152.00,0.0037
3151.00,0.0037
3150.00,0.0037
3149.00,0.0037
3148.00,0.0037
3147.00,0.0037
3146.00,0.0038
3145.00,0.0038
3144.00,0.0037
3143.00,0.0037
3142.00,0.0037
3141.00,0.0037
3140.00,0.0037
3139.00,0.0036
3138.00,0.0036
3137.00,0.0036
3136.00,0.0036
3135.00,0.0036
3134.00,0.0036
3133.00,0.0036
3132.00,0.0035
3131.00,0.0035
3130.00,0.0034
3129.00,0.0034
3128.00,0.0034
3127.00,0.0034
3126.00,0.0033
3125.00,0.0033
3124.00,0.0032
3123.00,0.0032
3122.00,0.0032
3121.00,0.0031
3120.00,0.0031
3119.00,0.0031
3118.00,0.0031
3117.00,0.0031
3116.00,0.0030
3115.00,0.0030
3114.00,0.0030
3113.00,0.0031
3112.00,0.0031
3111.00,0.0030
3110.00,0.0030
3109.00,0.0030
3108.00,0.0030
3107.00,0.0031
3106.00,0.0030
3105.00,0.0030
3104.00,0.0030
3103.00,0.0029
3102.00,0.0029
3101.00,0.0029
3100.00,0.0029
3099.00,0.0029
3098.00,0.0029
3097.00,0.0029
3096.00,0.0029
3095.00,0.0029
3094.00,0.0029
3093.00,0.0029
3092.00,0.0028
3091.00,0.0028
3090.00,0.0028
3089.00,0.0028
3088.00,0.0028
3087.00,0.0028
3086.00,0.0027
3085.00,0.0028
3084.00,0.0028
3083.00,0.0028
3082.00,0.0028
3081.00,0.0028
3080.00,0.0028
3079.00,0.0028
3078.00,0.0028
3077.00,0.0028
3076.00,0.0028
3075.00,0.0028
3074.00,0.0028
3073.00,0.0028
3072.00,0.0028
3071.00,0.0028
3070.00,0.0028
3069.00,0.0028
3068.00,0.0028
3067.00,0.0028
3066.00,0.0029
3065.00,0.0029
3064.00,0.0030
3063.00,0.0030
3062.00,0.0030
3061.00,0.0030
3060.00,0.0030
3059.00,0.0030
3058.00,0.0030
3057.00,0.0030
3056.00,0.0030
3055.00,0.0030
3054.00,0.0030
3053.00,0.0031
3052.00,0.0031
3051.00,0.0032
3050.00,0.0032
3049.00,0.0032
3048.00,0.0032
3047.00,0.0032
3046.00,0.0032
3045.00,0.0032
3044.00,0.0033
3043.00,0.0033
3042.00,0.0033
3041.00,0.0034
3040.00,0.0034
3039.00,0.0034
3038.00,0.0034
3037.00,0.0035
3036.00,0.0035
3035.00,0.0035
3034.00,0.0036
3033.00,0.0036
3032.00,0.0037
3031.00,0.0037
3030.00,0.0038
3029.00,0.0038
3028.00,0.0038
3027.00,0.0038
3026.00,0.0039
3025.00,0.0039
3024.00,0.0040
3023.00,0.0041
3022.00,0.0041
3021.00,0.0042
3020.00,0.0043
3019.00,0.0044
3018.00,0.0046
3017.00,0.0047
3016.00,0.0048
3015.00,0.0049
3014.00,0.0050
3013.00,0.0052
3012.00,0.0053
3011.00,0.0055
3010.00,0.0056
3009.00,0.0057
3008.00,0.0059
3007.00,0.0061
3006.00,0.0064
3005.00,0.0066
3004.00,0.0068
3003.00,0.0071
3002.00,0.0073
3001.00,0.0076
3000.00,0.0079
2999.00,0.0082
2998.00,0.0086
2997.00,0.0090
2996.00,0.0094
2995.00,0.0098
2994.00,0.0103
2993.00,0.0108
2992.00,0.0114
2991.00,0.0120
2990.00,0.0128
2989.00,0.0136
2988.00,0.0145
2987.00,0.0155
2986.00,0.0166
2985.00,0.0179
2984.00,0.0193
2983.00,0.0209
2982.00,0.0227
2981.00,0.0246
2980.00,0.0268
2979.00,0.0292
2978.00,0.0321
2977.00,0.0353
2976.00,0.0391
2975.00,0.0434
2974.00,0.0482
2973.00,0.0538
2972.00,0.0600
2971.00,0.0671
2970.00,0.0750
2969.00,0.0837
2968.00,0.0934
2967.00,0.1040
2966.00,0.1155
2965.00,0.1277
2964.00,0.1403
2963.00,0.1528
2962.00,0.1647
2961.00,0.1753
2960.00,0.1841
2959.00,0.1909
2958.00,0.1956
2957.00,0.1987
2956.00,0.2007
2955.00,0.2022
2954.00,0.2037
2953.00,0.2051
2952.00,0.2061
2951.00,0.2059
2950.00,0.2038
2949.00,0.1990
2948.00,0.1912
2947.00,0.1805
2946.00,0.1679
2945.00,0.1544
2944.00,0.1413
2943.00,0.1296
2942.00,0.1201
2941.00,0.1131
2940.00,0.1085
2939.00,0.1064
2938.00,0.1063
2937.00,0.1081
2936.00,0.1115
2935.00,0.1163
2934.00,0.1225
2933.00,0.1298
2932.00,0.1380
2931.00,0.1468
2930.00,0.1561
2929.00,0.1655
2928.00,0.1747
2927.00,0.1834
2926.00,0.1916
2925.00,0.1992
2924.00,0.2063
2923.00,0.2131
2922.00,0.2196
2921.00,0.2258
2920.00,0.2313
2919.00,0.2355
2918.00,0.2378
2917.00,0.2379
2916.00,0.2356
2915.00,0.2313
2914.00,0.2255
2913.00,0.2190
2912.00,0.2123
2911.00,0.2061
2910.00,0.2003
2909.00,0.1950
2908.00,0.1900
2907.00,0.1849
2906.00,0.1797
2905.00,0.1739
2904.00,0.1678
2903.00,0.1612
2902.00,0.1543
2901.00,0.1474
2900.00,0.1405
2899.00,0.1339
2898.00,0.1277
2897.00,0.1221
2896.00,0.1172
2895.00,0.1130
2894.00,0.1095
2893.00,0.1068
2892.00,0.1048
2891.00,0.1034
2890.00,0.1026
2889.00,0.1022
2888.00,0.1022
2887.00,0.1026
2886.00,0.1033
2885.00,0.1045
2884.00,0.1060
2883.00,0.1078
2882.00,0.1100
2881.00,0.1123
2880.00,0.1145
2879.00,0.1163
2878.00,0.1173
2877.00,0.1175
2876.00,0.1169
2875.00,0.1159
2874.00,0.1151
2873.00,0.1148
2872.00,0.1153
2871.00,0.1164
2870.00,0.1180
2869.00,0.1196
2868.00,0.1206
2867.00,0.1201
2866.00,0.1174
2865.00,0.1125
2864.00,0.1055
2863.00,0.0971
2862.00,0.0884
2861.00,0.0802
2860.00,0.0731
2859.00,0.0675
2858.00,0.0632
2857.00,0.0601
2856.00,0.0582
2855.00,0.0570
2854.00,0.0567
2853.00,0.0570
2852.00,0.0579
2851.00,0.0595
2850.00,0.0617
2849.00,0.0647
2848.00,0.0685
2847.00,0.0732
2846.00,0.0789
2845.00,0.0855
2844.00,0.0929
2843.00,0.1010
2842.00,0.1093
2841.00,0.1171
2840.00,0.1237
2839.00,0.1280
2838.00,0.1292
2837.00,0.1266
2836.00,0.1204
2835.00,0.1111
2834.00,0.0999
2833.00,0.0881
2832.00,0.0769
2831.00,0.0669
2830.00,0.0585
2829.00,0.0516
2828.00,0.0460
2827.00,0.0415
2826.00,0.0379
2825.00,0.0349
2824.00,0.0324
2823.00,0.0302
2822.00,0.0284
2821.00,0.0268
2820.00,0.0254
2819.00,0.0242
2818.00,0.0231
2817.00,0.0222
2816.00,0.0214
2815.00,0.0207
2814.00,0.0201
2813.00,0.0195
2812.00,0.0189
2811.00,0.0184
2810.00,0.0179
2809.00,0.0173
2808.00,0.0168
2807.00,0.0162
2806.00,0.0155
2805.00,0.0149
2804.00,0.0143
2803.00,0.0137
2802.00,0.0131
2801.00,0.0127
2800.00,0.0123
2799.00,0.0120
2798.00,0.0117
2797.00,0.0115
2796.00,0.0112
2795.00,0.0110
2794.00,0.0107
2793.00,0.0105
2792.00,0.0101
2791.00,0.0098
2790.00,0.0094
2789.00,0.0090
2788.00,0.0086
2787.00,0.0082
2786.00,0.0079
2785.00,0.0076
2784.00,0.0074
2783.00,0.0072
2782.00,0.0070
2781.00,0.0068
2780.00,0.0066
2779.00,0.0065
2778.00,0.0063
2777.00,0.0062
2776.00,0.0060
2775.00,0.0059
2774.00,0.0058
2773.00,0.0057
2772.00,0.0056
2771.00,0.0056
2770.00,0.0055
2769.00,0.0055
2768.00,0.0055
2767.00,0.0055
2766.00,0.0055
2765.00,0.0054
2764.00,0.0054
2763.00,0.0054
2762.00,0.0053
2761.00,0.0053
2760.00,0.0053
2759.00,0.0052
2758.00,0.0052
2757.00,0.0052
2756.00,0.0052
2755.00,0.0051
2754.00,0.0051
2753.00,0.0051
2752.00,0.0050
2751.00,0.0050
2750.00,0.0050
2749.00,0.0050
2748.00,0.0050
2747.00,0.0051
2746.00,0.0052
2745.00,0.0052
2744.00,0.0053
2743.00,0.0054
2742.00,0.0055
2741.00,0.0056
2740.00,0.0058
2739.00,0.0059
2738.00,0.0061
2737.00,0.0062
2736.00,0.0063
2735.00,0.0064
2734.00,0.0065
2733.00,0.0067
2732.00,0.0068
2731.00,0.0071
2730.00,0.0073
2729.00,0.0076
2728.00,0.0078
2727.00,0.0081
2726.00,0.0084
2725.00,0.0086
2724.00,0.0088
2723.00,0.0088
2722.00,0.0087
2721.00,0.0085
2720.00,0.0082
2719.00,0.0079
2718.00,0.0076
2717.00,0.0072
2716.00,0.0069
2715.00,0.0067
2714.00,0.0064
2713.00,0.0062
2712.00,0.0060
2711.00,0.0059
2710.00,0.0057
2709.00,0.0056
2708.00,0.0054
2707.00,0.0053
2706.00,0.0052
2705.00,0.0051
2704.00,0.0050
2703.00,0.0049
2702.00,0.0048
2701.00,0.0047
2700.00,0.0047
2699.00,0.0046
2698.00,0.0046
2697.00,0.0045
2696.00,0.0045
2695.00,0.0045
2694.00,0.0045
2693.00,0.0046
2692.00,0.0046
2691.00,0.0046
2690.00,0.0045
2689.00,0.0045
2688.00,0.0045
2687.00,0.0045
2686.00,0.0045
2685.00,0.0045
2684.00,0.0045
2683.00,0.0045
2682.00,0.0045
2681.00,0.0046
2680.00,0.0046
2679.00,0.0046
2678.00,0.0046
2677.00,0.0046
2676.00,0.0046
2675.00,0.0045
2674.00,0.0045
2673.00,0.0045
2672.00,0.0044
2671.00,0.0044
2670.00,0.0044
2669.00,0.0044
2668.00,0.0043
2667.00,0.0044
2666.00,0.0044
2665.00,0.0044
2664.00,0.0045
2663.00,0.0046
2662.00,0.0046
2661.00,0.0046
2660.00,0.0047
2659.00,0.0047
2658.00,0.0047
2657.00,0.0046
2656.00,0.0046
2655.00,0.0046
2654.00,0.0046
2653.00,0.0045
2652.00,0.0044
2651.00,0.0044
2650.00,0.0043
2649.00,0.0043
2648.00,0.0043
2647.00,0.0042
2646.00,0.0042
2645.00,0.0042
2644.00,0.0041
2643.00,0.0041
2642.00,0.0040
2641.00,0.0040
2640.00,0.0039
2639.00,0.0039
2638.00,0.0038
2637.00,0.0038
2636.00,0.0038
2635.00,0.0038
2634.00,0.0038
2633.00,0.0037
2632.00,0.0038
2631.00,0.0038
2630.00,0.0038
2629.00,0.0039
2628.00,0.0039
2627.00,0.0039
2626.00,0.0039
2625.00,0.0039
2624.00,0.0040
2623.00,0.0040
2622.00,0.0041
2621.00,0.0041
2620.00,0.0042
2619.00,0.0042
2618.00,0.0041
2617.00,0.0041
2616.00,0.0040
2615.00,0.0040
2614.00,0.0039
2613.00,0.0039
2612.00,0.0038
2611.00,0.0038
2610.00,0.0038
2609.00,0.0037
2608.00,0.0036
2607.00,0.0035
2606.00,0.0034
2605.00,0.0034
2604.00,0.0033
2603.00,0.0033
2602.00,0.0032
2601.00,0.0032
2600.00,0.0032
2599.00,0.0032
2598.00,0.0032
2597.00,0.0032
2596.00,0.0032
2595.00,0.0031
2594.00,0.0031
2593.00,0.0031
2592.00,0.0032
2591.00,0.0033
2590.00,0.0033
2589.00,0.0034
2588.00,0.0035
2587.00,0.0036
2586.00,0.0037
2585.00,0.0038
2584.00,0.0038
2583.00,0.0038
2582.00,0.0038
2581.00,0.0038
2580.00,0.0038
2579.00,0.0038
2578.00,0.0037
2577.00,0.0036
2576.00,0.0035
2575.00,0.0033
2574.00,0.0031
2573.00,0.0030
2572.00,0.0029
2571.00,0.0028
2570.00,0.0027
2569.00,0.0026
2568.00,0.0026
2567.00,0.0026
2566.00,0.0026
2565.00,0.0025
2564.00,0.0025
2563.00,0.0024
2562.00,0.0024
2561.00,0.0024
2560.00,0.0025
2559.00,0.0025
2558.00,0.0025
2557.00,0.0024
2556.00,0.0024
2555.00,0.0023
2554.00,0.0022
2553.00,0.0022
2552.00,0.0021
2551.00,0.0021
2550.00,0.0021
2549.00,0.0021
2548.00,0.0020
2547.00,0.0020
2546.00,0.0020
2545.00,0.0019
2544.00,0.0018
2543.00,0.0018
2542.00,0.0018
2541.00,0.0018
2540.00,0.0018
2539.00,0.0018
2538.00,0.0017
2537.00,0.0017
2536.00,0.0017
2535.00,0.0016
2534.00,0.0016
2533.00,0.0016
2532.00,0.0016
2531.00,0.0016
2530.00,0.0016
2529.00,0.0015
2528.00,0.0014
2527.00,0.0014
2526.00,0.0013
2525.00,0.0013
2524.00,0.0013
2523.00,0.0013
2522.00,0.0013
2521.00,0.0014
2520.00,0.0014
2519.00,0.0013
2518.00,0.0013
2517.00,0.0012
2516.00,0.0011
2515.00,0.0011
2514.00,0.0011
2513.00,0.0011
2512.00,0.0010
2511.00,0.0010
2510.00,0.0010
2509.00,0.0010
2508.00,0.0010
2507.00,0.0011
2506.00,0.0012
2505.00,0.0012
2504.00,0.0012
2503.00,0.0011
2502.00,0.0010
2501.00,0.0010
2500.00,0.0010
2499.00,0.0010
2498.00,0.0010
2497.00,0.0010
2496.00,0.0011
2495.00,0.0011
2494.00,0.0011
2493.00,0.0011
2492.00,0.0011
2491.00,0.0011
2490.00,0.0011
2489.00,0.0011
2488.00,0.0010
2487.00,0.0009
2486.00,0.0009
2485.00,0.0009
2484.00,0.0009
2483.00,0.0009
2482.00,0.0009
2481.00,0.0009
2480.00,0.0009
2479.00,0.0010
2478.00,0.0010
2477.00,0.0010
2476.00,0.0010
2475.00,0.0010
2474.00,0.0009
2473.00,0.0009
2472.00,0.0009
2471.00,0.0009
2470.00,0.0009
2469.00,0.0009
2468.00,0.0009
2467.00,0.0009
2466.00,0.0009
2465.00,0.0009
2464.00,0.0010
2463.00,0.0010
2462.00,0.0010
2461.00,0.0010
2460.00,0.0011
2459.00,0.0011
2458.00,0.0011
2457.00,0.0011
2456.00,0.0012
2455.00,0.0012
2454.00,0.0012
2453.00,0.0012
2452.00,0.0012
2451.00,0.0011
2450.00,0.0011
2449.00,0.0011
2448.00,0.0011
2447.00,0.0011
2446.00,0.0010
2445.00,0.0010
2444.00,0.0010
2443.00,0.0010
2442.00,0.0010
2441.00,0.0011
2440.00,0.0011
2439.00,0.0011
2438.00,0.0011
2437.00,0.0011
2436.00,0.0011
2435.00,0.0011
2434.00,0.0012
2433.00,0.0012
2432.00,0.0012
2431.00,0.0012
2430.00,0.0012
2429.00,0.0012
2428.00,0.0013
2427.00,0.0013
2426.00,0.0013
2425.00,0.0013
2424.00,0.0013
2423.00,0.0012
2422.00,0.0011
2421.00,0.0011
2420.00,0.0011
2419.00,0.0011
2418.00,0.0010
2417.00,0.0009
2416.00,0.0009
2415.00,0.0008
2414.00,0.0008
2413.00,0.0009
2412.00,0.0009
2411.00,0.0009
2410.00,0.0009
2409.00,0.0009
2408.00,0.0009
2407.00,0.0008
2406.00,0.0008
2405.00,0.0008
2404.00,0.0008
2403.00,0.0009
2402.00,0.0009
2401.00,0.0010
2400.00,0.0010
2399.00,0.0010
2398.00,0.0009
2397.00,0.0009
2396.00,0.0008
2395.00,0.0008
2394.00,0.0008
2393.00,0.0008
2392.00,0.0008
2391.00,0.0007
2390.00,0.0007
2389.00,0.0007
2388.00,0.0007
2387.00,0.0007
2386.00,0.0006
2385.00,0.0006
2384.00,0.0005
2383.00,0.0004
2382.00,0.0003
2381.00,0.0003
2380.00,0.0003
2379.00,0.0002
2378.00,0.0003
2377.00,0.0003
2376.00,0.0003
2375.00,0.0004
2374.00,0.0004
2373.00,0.0004
2372.00,0.0004
2371.00,0.0003
2370.00,0.0003
2369.00,0.0003
2368.00,0.0002
2367.00,0.0002
2366.00,0.0002
2365.00,0.0002
2364.00,0.0003
2363.00,0.0003
2362.00,0.0003
2361.00,0.0004
2360.00,0.0003
2359.00,0.0003
2358.00,0.0004
2357.00,0.0004
2356.00,0.0005
2355.00,0.0005
2354.00,0.0005
2353.00,0.0004
2352.00,0.0003
2351.00,0.0002
2350.00,0.0002
2349.00,0.0004
2348.00,0.0006
2347.00,0.0007
2346.00,0.0007
2345.00,0.0006
2344.00,0.0005
2343.00,0.0005
2342.00,0.0006
2341.00,0.0006
2340.00,0.0006
2339.00,0.0006
2338.00,0.0006
2337.00,0.0007
2336.00,0.0007
2335.00,0.0007
2334.00,0.0007
2333.00,0.0007
2332.00,0.0006
2331.00,0.0005
2330.00,0.0005
2329.00,0.0005
2328.00,0.0006
2327.00,0.0009
2326.00,0.0013
2325.00,0.0016
2324.00,0.0018
2323.00,0.0017
2322.00,0.0014
2321.00,0.0012
2320.00,0.0010
2319.00,0.0009
2318.00,0.0008
2317.00,0.0008
2316.00,0.0008
2315.00,0.0009
2314.00,0.0008
2313.00,0.0007
2312.00,0.0006
2311.00,0.0004
2310.00,0.0004
2309.00,0.0004
2308.00,0.0005
2307.00,0.0006
2306.00,0.0007
2305.00,0.0007
2304.00,0.0007
2303.00,0.0008
2302.00,0.0009
2301.00,0.0010
2300.00,0.0011
2299.00,0.0011
2298.00,0.0011
2297.00,0.0011
2296.00,0.0011
2295.00,0.0011
2294.00,0.0012
2293.00,0.0013
2292.00,0.0014
2291.00,0.0015
2290.00,0.0016
2289.00,0.0017
2288.00,0.0017
2287.00,0.0018
2286.00,0.0018
2285.00,0.0017
2284.00,0.0016
2283.00,0.0016
2282.00,0.0016
2281.00,0.0016
2280.00,0.0016
2279.00,0.0015
2278.00,0.0015
2277.00,0.0014
2276.00,0.0014
2275.00,0.0014
2274.00,0.0013
2273.00,0.0013
2272.00,0.0012
2271.00,0.0013
2270.00,0.0013
2269.00,0.0015
2268.00,0.0016
2267.00,0.0015
2266.00,0.0013
2265.00,0.0011
2264.00,0.0010
2263.00,0.0010
2262.00,0.0011
2261.00,0.0012
2260.00,0.0013
2259.00,0.0013
2258.00,0.0013
2257.00,0.0013
2256.00,0.0013
2255.00,0.0012
2254.00,0.0011
2253.00,0.0010
2252.00,0.0011
2251.00,0.0011
2250.00,0.0012
2249.00,0.0011
2248.00,0.0011
2247.00,0.0009
2246.00,0.0009
2245.00,0.0009
2244.00,0.0009
2243.00,0.0010
2242.00,0.0010
2241.00,0.0009
2240.00,0.0008
2239.00,0.0008
2238.00,0.0008
2237.00,0.0008
2236.00,0.0008
2235.00,0.0009
2234.00,0.0009
2233.00,0.0009
2232.00,0.0010
2231.00,0.0010
2230.00,0.0011
2229.00,0.0011
2228.00,0.0010
2227.00,0.0008
2226.00,0.0007
2225.00,0.0007
2224.00,0.0009
2223.00,0.0010
2222.00,0.0011
2221.00,0.0011
2220.00,0.0010
2219.00,0.0008
2218.00,0.0007
2217.00,0.0005
2216.00,0.0005
2215.00,0.0005
2214.00,0.0007
2213.00,0.0008
2212.00,0.0009
2211.00,0.0009
2210.00,0.0008
2209.00,0.0008
2208.00,0.0007
2207.00,0.0007
2206.00,0.0006
2205.00,0.0005
2204.00,0.0006
2203.00,0.0006
2202.00,0.0006
2201.00,0.0007
2200.00,0.0007
2199.00,0.0007
2198.00,0.0008
2197.00,0.0009
2196.00,0.0010
2195.00,0.0010
2194.00,0.0010
2193.00,0.0010
2192.00,0.0010
2191.00,0.0009
2190.00,0.0010
2189.00,0.0011
2188.00,0.0013
2187.00,0.0014
2186.00,0.0014
2185.00,0.0013
2184.00,0.0012
2183.00,0.0011
2182.00,0.0010
2181.00,0.0010
2180.00,0.0010
2179.00,0.0011
2178.00,0.0011
2177.00,0.0010
2176.00,0.0008
2175.00,0.0008
2174.00,0.0009
2173.00,0.0012
2172.00,0.0014
2171.00,0.0016
2170.00,0.0018
2169.00,0.0021
2168.00,0.0025
2167.00,0.0027
2166.00,0.0027
2165.00,0.0025
2164.00,0.0022
2163.00,0.0021
2162.00,0.0021
2161.00,0.0018
2160.00,0.0008
2159.00,-0.0007
2158.00,-0.0020
2157.00,-0.0027
2156.00,-0.0028
2155.00,-0.0025
2154.00,-0.0022
2153.00,-0.0020
2152.00,-0.0018
2151.00,-0.0018
2150.00,-0.0016
2149.00,-0.0014
2148.00,-0.0014
2147.00,-0.0014
2146.00,-0.0015
2145.00,-0.0015
2144.00,-0.0014
2143.00,-0.0012
2142.00,-0.0010
2141.00,-0.0009
2140.00,-0.0010
2139.00,-0.0012
2138.00,-0.0015
2137.00,-0.0016
2136.00,-0.0017
2135.00,-0.0020
2134.00,-0.0021
2133.00,-0.0021
2132.00,-0.0019
2131.00,-0.0016
2130.00,-0.0013
2129.00,-0.0011
2128.00,-0.0009
2127.00,-0.0008
2126.00,-0.0007
2125.00,-0.0007
2124.00,-0.0006
2123.00,-0.0005
2122.00,-0.0004
2121.00,-0.0003
2120.00,-0.0003
2119.00,-0.0003
2118.00,-0.0001
2117.00,0.0001
2116.00,0.0003
2115.00,0.0005
2114.00,0.0006
2113.00,0.0006
2112.00,0.0005
2111.00,0.0003
2110.00,0.0002
2109.00,0.0001
2108.00,0.0001
2107.00,0.0002
2106.00,0.0003
2105.00,0.0003
2104.00,0.0004
2103.00,0.0004
2102.00,0.0004
2101.00,0.0004
2100.00,0.0004
2099.00,0.0004
2098.00,0.0003
2097.00,0.0001
2096.00,-0.0002
2095.00,-0.0005
2094.00,-0.0006
2093.00,-0.0006
2092.00,-0.0004
2091.00,-0.0003
2090.00,-0.0002
2089.00,-0.0001
2088.00,-0.0000
2087.00,0.0000
2086.00,0.0001
2085.00,0.0002
2084.00,0.0003
2083.00,0.0002
2082.00,0.0001
2081.00,0.0002
2080.00,0.0002
2079.00,0.0003
2078.00,0.0004
2077.00,0.0004
2076.00,0.0004
2075.00,0.0004
2074.00,0.0003
2073.00,0.0002
2072.00,0.0001
2071.00,-0.0000
2070.00,-0.0002
2069.00,-0.0002
2068.00,-0.0003
2067.00,-0.0003
2066.00,-0.0003
2065.00,-0.0003
2064.00,-0.0002
2063.00,-0.0001
2062.00,-0.0000
2061.00,0.0001
2060.00,0.0001
2059.00,0.0001
2058.00,0.0002
2057.00,0.0004
2056.00,0.0004
2055.00,0.0003
2054.00,0.0002
2053.00,0.0004
2052.00,0.0008
2051.00,0.0012
2050.00,0.0013
2049.00,0.0010
2048.00,0.0006
2047.00,0.0003
2046.00,0.0002
2045.00,0.0002
2044.00,0.0002
2043.00,0.0001
2042.00,-0.0001
2041.00,-0.0004
2040.00,-0.0007
2039.00,-0.0008
2038.00,-0.0008
2037.00,-0.0007
2036.00,-0.0007
2035.00,-0.0008
2034.00,-0.0007
2033.00,-0.0005
2032.00,-0.0004
2031.00,-0.0005
2030.00,-0.0007
2029.00,-0.0007
2028.00,-0.0006
2027.00,-0.0005
2026.00,-0.0005
2025.00,-0.0007
2024.00,-0.0010
2023.00,-0.0012
2022.00,-0.0013
2021.00,-0.0013
2020.00,-0.0012
2019.00,-0.0010
2018.00,-0.0009
2017.00,-0.0007
2016.00,-0.0007
2015.00,-0.0009
2014.00,-0.0013
2013.00,-0.0015
2012.00,-0.0015
2011.00,-0.0012
2010.00,-0.0008
2009.00,-0.0006
2008.00,-0.0008
2007.00,-0.0013
2006.00,-0.0018
2005.00,-0.0020
2004.00,-0.0020
2003.00,-0.0019
2002.00,-0.0017
2001.00,-0.0014
2000.00,-0.0012
1999.00,-0.0011
1998.00,-0.0010
1997.00,-0.0010
1996.00,-0.0011
1995.00,-0.0012
1994.00,-0.0014
1993.00,-0.0014
1992.00,-0.0014
1991.00,-0.0012
1990.00,-0.0010
1989.00,-0.0007
1988.00,-0.0005
1987.00,-0.0004
1986.00,-0.0004
1985.00,-0.0004
1984.00,-0.0004
1983.00,-0.0002
1982.00,-0.0001
1981.00,0.0002
1980.00,0.0003
1979.00,0.0002
1978.00,-0.0001
1977.00,-0.0005
1976.00,-0.0007
1975.00,-0.0009
1974.00,-0.0011
1973.00,-0.0012
1972.00,-0.0012
1971.00,-0.0011
1970.00,-0.0010
1969.00,-0.0009
1968.00,-0.0009
1967.00,-0.0010
1966.00,-0.0010
1965.00,-0.0009
1964.00,-0.0009
1963.00,-0.0010
1962.00,-0.0013
1961.00,-0.0016
1960.00,-0.0019
1959.00,-0.0021
1958.00,-0.0020
1957.00,-0.0018
1956.00,-0.0017
1955.00,-0.0017
1954.00,-0.0018
1953.00,-0.0018
1952.00,-0.0018
1951.00,-0.0017
1950.00,-0.0016
1949.00,-0.0015
1948.00,-0.0015
1947.00,-0.0015
1946.00,-0.0015
1945.00,-0.0015
1944.00,-0.0015
1943.00,-0.0015
1942.00,-0.0015
1941.00,-0.0015
1940.00,-0.0015
1939.00,-0.0015
1938.00,-0.0014
1937.00,-0.0012
1936.00,-0.0011
1935.00,-0.0010
1934.00,-0.0009
1933.00,-0.0008
1932.00,-0.0006
1931.00,-0.0006
1930.00,-0.0007
1929.00,-0.0007
1928.00,-0.0007
1927.00,-0.0007
1926.00,-0.0006
1925.00,-0.0006
1924.00,-0.0007
1923.00,-0.0007
1922.00,-0.0007
1921.00,-0.0006
1920.00,-0.0005
1919.00,-0.0004
1918.00,-0.0003
1917.00,-0.0003
1916.00,-0.0003
1915.00,-0.0003
1914.00,-0.0004
1913.00,-0.0004
1912.00,-0.0004
1911.00,-0.0005
1910.00,-0.0004
1909.00,-0.0004
1908.00,-0.0003
1907.00,-0.0003
1906.00,-0.0003
1905.00,-0.0003
1904.00,-0.0003
1903.00,-0.0003
1902.00,-0.0003
1901.00,-0.0003
1900.00,-0.0003
1899.00,-0.0003
1898.00,-0.0003
1897.00,-0.0003
1896.00,-0.0003
1895.00,-0.0002
1894.00,-0.0002
1893.00,-0.0001
1892.00,-0.0001
1891.00,-0.0001
1890.00,-0.0001
1889.00,-0.0001
1888.00,-0.0001
1887.00,-0.0001
1886.00,-0.0002
1885.00,-0.0003
1884.00,-0.0003
1883.00,-0.0002
1882.00,-0.0001
1881.00,-0.0000
1880.00,-0.0000
1879.00,-0.0001
1878.00,-0.0001
1877.00,-0.0001
1876.00,-0.0000
1875.00,-0.0000
1874.00,-0.0001
1873.00,-0.0001
1872.00,-0.0001
1871.00,-0.0001
1870.00,-0.0000
1869.00,-0.0000
1868.00,-0.0001
1867.00,-0.0002
1866.00,-0.0003
1865.00,-0.0004
1864.00,-0.0003
1863.00,-0.0002
1862.00,-0.0001
1861.00,-0.0001
1860.00,-0.0000
1859.00,0.0000
1858.00,0.0000
1857.00,0.0000
1856.00,-0.0000
1855.00,-0.0001
1854.00,-0.0002
1853.00,-0.0002
1852.00,-0.0001
1851.00,-0.0001
1850.00,-0.0001
1849.00,-0.0000
1848.00,0.0001
1847.00,0.0001
1846.00,0.0001
1845.00,0.0001
1844.00,0.0001
1843.00,0.0001
1842.00,0.0001
1841.00,0.0001
1840.00,0.0001
1839.00,0.0001
1838.00,0.0002
1837.00,0.0002
1836.00,0.0002
1835.00,0.0002
1834.00,0.0002
1833.00,0.0002
1832.00,0.0001
1831.00,0.0001
1830.00,0.0001
1829.00,0.0002
1828.00,0.0002
1827.00,0.0002
1826.00,0.0003
1825.00,0.0004
1824.00,0.0004
1823.00,0.0005
1822.00,0.0004
1821.00,0.0004
1820.00,0.0003
1819.00,0.0002
1818.00,0.0001
1817.00,0.0000
1816.00,0.0000
1815.00,0.0001
1814.00,0.0001
1813.00,0.0001
1812.00,0.0001
1811.00,0.0002
1810.00,0.0003
1809.00,0.0003
1808.00,0.0003
1807.00,0.0003
1806.00,0.0003
1805.00,0.0003
1804.00,0.0003
1803.00,0.0003
1802.00,0.0003
1801.00,0.0003
1800.00,0.0004
1799.00,0.0004
1798.00,0.0005
1797.00,0.0005
1796.00,0.0006
1795.00,0.0006
1794.00,0.0006
1793.00,0.0006
1792.00,0.0006
1791.00,0.0006
1790.00,0.0006
1789.00,0.0006
1788.00,0.0006
1787.00,0.0007
1786.00,0.0007
1785.00,0.0007
1784.00,0.0007
1783.00,0.0007
1782.00,0.0007
1781.00,0.0008
1780.00,0.0008
1779.00,0.0008
1778.00,0.0008
1777.00,0.0007
1776.00,0.0008
1775.00,0.0008
1774.00,0.0008
1773.00,0.0008
1772.00,0.0008
1771.00,0.0008
1770.00,0.0008
1769.00,0.0008
1768.00,0.0009
1767.00,0.0009
1766.00,0.0009
1765.00,0.0009
1764.00,0.0009
1763.00,0.0010
1762.00,0.0010
1761.00,0.0011
1760.00,0.0011
1759.00,0.0011
1758.00,0.0011
1757.00,0.0012
1756.00,0.0013
1755.00,0.0013
1754.00,0.0013
1753.00,0.0014
1752.00,0.0014
1751.00,0.0014
1750.00,0.0014
1749.00,0.0015
1748.00,0.0016
1747.00,0.0016
1746.00,0.0016
1745.00,0.0016
1744.00,0.0016
1743.00,0.0017
1742.00,0.0017
1741.00,0.0018
1740.00,0.0018
1739.00,0.0019
1738.00,0.0019
1737.00,0.0019
1736.00,0.0020
1735.00,0.0021
1734.00,0.0021
1733.00,0.0020
1732.00,0.0019
1731.00,0.0018
1730.00,0.0018
1729.00,0.0019
1728.00,0.0019
1727.00,0.0020
1726.00,0.0020
1725.00,0.0020
1724.00,0.0020
1723.00,0.0019
1722.00,0.0019
1721.00,0.0019
1720.00,0.0019
1719.00,0.0019
1718.00,0.0020
1717.00,0.0020
1716.00,0.0020
1715.00,0.0020
1714.00,0.0020
1713.00,0.0020
1712.00,0.0021
1711.00,0.0021
1710.00,0.0021
1709.00,0.0022
1708.00,0.0022
1707.00,0.0022
1706.00,0.0022
1705.00,0.0022
1704.00,0.0022
1703.00,0.0022
1702.00,0.0022
1701.00,0.0023
1700.00,0.0023
1699.00,0.0023
1698.00,0.0024
1697.00,0.0024
1696.00,0.0026
1695.00,0.0026
1694.00,0.0027
1693.00,0.0026
1692.00,0.0026
1691.00,0.0027
1690.00,0.0027
1689.00,0.0028
1688.00,0.0028
1687.00,0.0028
1686.00,0.0028
1685.00,0.0028
1684.00,0.0029
1683.00,0.0030
1682.00,0.0030
1681.00,0.0031
1680.00,0.0032
1679.00,0.0033
1678.00,0.0034
1677.00,0.0035
1676.00,0.0035
1675.00,0.0036
1674.00,0.0036
1673.00,0.0036
1672.00,0.0037
1671.00,0.0038
1670.00,0.0039
1669.00,0.0039
1668.00,0.0039
1667.00,0.0039
1666.00,0.0039
1665.00,0.0040
1664.00,0.0041
1663.00,0.0041
1662.00,0.0041
1661.00,0.0042
1660.00,0.0042
1659.00,0.0043
1658.00,0.0044
1657.00,0.0044
1656.00,0.0045
1655.00,0.0045
1654.00,0.0045
1653.00,0.0046
1652.00,0.0047
1651.00,0.0048
1650.00,0.0048
1649.00,0.0049
1648.00,0.0050
1647.00,0.0051
1646.00,0.0052
1645.00,0.0052
1644.00,0.0052
1643.00,0.0052
1642.00,0.0052
1641.00,0.0052
1640.00,0.0052
1639.00,0.0053
1638.00,0.0053
1637.00,0.0053
1636.00,0.0053
1635.00,0.0053
1634.00,0.0053
1633.00,0.0053
1632.00,0.0053
1631.00,0.0053
1630.00,0.0053
1629.00,0.0052
1628.00,0.0052
1627.00,0.0052
1626.00,0.0052
1625.00,0.0052
1624.00,0.0052
1623.00,0.0051
1622.00,0.0051
1621.00,0.0050
1620.00,0.0050
1619.00,0.0049
1618.00,0.0049
1617.00,0.0048
1616.00,0.0049
1615.00,0.0049
1614.00,0.0049
1613.00,0.0049
1612.00,0.0049
1611.00,0.0049
1610.00,0.0049
1609.00,0.0049
1608.00,0.0049
1607.00,0.0049
1606.00,0.0049
1605.00,0.0049
1604.00,0.0049
1603.00,0.0048
1602.00,0.0048
1601.00,0.0048
1600.00,0.0048
1599.00,0.0048
1598.00,0.0048
1597.00,0.0047
1596.00,0.0047
1595.00,0.0047
1594.00,0.0047
1593.00,0.0047
1592.00,0.0046
1591.00,0.0046
1590.00,0.0046
1589.00,0.0046
1588.00,0.0046
1587.00,0.0046
1586.00,0.0047
1585.00,0.0047
1584.00,0.0047
1583.00,0.0047
1582.00,0.0047
1581.00,0.0048
1580.00,0.0049
1579.00,0.0049
1578.00,0.0049
1577.00,0.0049
1576.00,0.0049
1575.00,0.0048
1574.00,0.0048
1573.00,0.0048
1572.00,0.0049
1571.00,0.0049
1570.00,0.0049
1569.00,0.0049
1568.00,0.0049
1567.00,0.0050
1566.00,0.0050
1565.00,0.0050
1564.00,0.0050
1563.00,0.0050
1562.00,0.0050
1561.00,0.0051
1560.00,0.0052
1559.00,0.0052
1558.00,0.0052
1557.00,0.0053
1556.00,0.0053
1555.00,0.0054
1554.00,0.0054
1553.00,0.0054
1552.00,0.0055
1551.00,0.0055
1550.00,0.0055
1549.00,0.0056
1548.00,0.0057
1547.00,0.0058
1546.00,0.0058
1545.00,0.0058
1544.00,0.0059
1543.00,0.0059
1542.00,0.0059
1541.00,0.0059
1540.00,0.0058
1539.00,0.0056
1538.00,0.0056
1537.00,0.0056
1536.00,0.0056
1535.00,0.0055
1534.00,0.0054
1533.00,0.0053
1532.00,0.0052
1531.00,0.0051
1530.00,0.0050
1529.00,0.0050
1528.00,0.0050
1527.00,0.0050
1526.00,0.0050
1525.00,0.0050
1524.00,0.0050
1523.00,0.0049
1522.00,0.0048
1521.00,0.0048
1520.00,0.0049
1519.00,0.0049
1518.00,0.0049
1517.00,0.0050
1516.00,0.0051
1515.00,0.0051
1514.00,0.0051
1513.00,0.0052
1512.00,0.0053
1511.00,0.0053
1510.00,0.0054
1509.00,0.0054
1508.00,0.0056
1507.00,0.0057
1506.00,0.0058
1505.00,0.0059
1504.00,0.0061
1503.00,0.0062
1502.00,0.0063
1501.00,0.0066
1500.00,0.0069
1499.00,0.0071
1498.00,0.0073
1497.00,0.0077
1496.00,0.0081
1495.00,0.0085
1494.00,0.0087
1493.00,0.0090
1492.00,0.0094
1491.00,0.0096
1490.00,0.0099
1489.00,0.0103
1488.00,0.0107
1487.00,0.0111
1486.00,0.0116
1485.00,0.0121
1484.00,0.0128
1483.00,0.0135
1482.00,0.0142
1481.00,0.0152
1480.00,0.0163
1479.00,0.0174
1478.00,0.0188
1477.00,0.0207
1476.00,0.0229
1475.00,0.0254
1474.00,0.0289
1473.00,0.0340
1472.00,0.0403
1471.00,0.0465
1470.00,0.0525
1469.00,0.0588
1468.00,0.0656
1467.00,0.0731
1466.00,0.0817
1465.00,0.0911
1464.00,0.0996
1463.00,0.1059
1462.00,0.1103
1461.00,0.1137
1460.00,0.1164
1459.00,0.1186
1458.00,0.1209
1457.00,0.1233
1456.00,0.1249
1455.00,0.1254
1454.00,0.1253
1453.00,0.1247
1452.00,0.1231
1451.00,0.1200
1450.00,0.1152
1449.00,0.1078
1448.00,0.0980
1447.00,0.0873
1446.00,0.0775
1445.00,0.0691
1444.00,0.0619
1443.00,0.0560
1442.00,0.0516
1441.00,0.0485
1440.00,0.0466
1439.00,0.0455
1438.00,0.0451
1437.00,0.0445
1436.00,0.0428
1435.00,0.0399
1434.00,0.0360
1433.00,0.0315
1432.00,0.0269
1431.00,0.0228
1430.00,0.0198
1429.00,0.0176
1428.00,0.0160
1427.00,0.0151
1426.00,0.0145
1425.00,0.0140
1424.00,0.0135
1423.00,0.0132
1422.00,0.0131
1421.00,0.0129
1420.00,0.0126
1419.00,0.0123
1418.00,0.0121
1417.00,0.0118
1416.00,0.0116
1415.00,0.0115
1414.00,0.0114
1413.00,0.0114
1412.00,0.0112
1411.00,0.0112
1410.00,0.0112
1409.00,0.0111
1408.00,0.0110
1407.00,0.0111
1406.00,0.0111
1405.00,0.0111
1404.00,0.0112
1403.00,0.0113
1402.00,0.0115
1401.00,0.0116
1400.00,0.0118
1399.00,0.0120
1398.00,0.0122
1397.00,0.0123
1396.00,0.0125
1395.00,0.0129
1394.00,0.0135
1393.00,0.0141
1392.00,0.0148
1391.00,0.0157
1390.00,0.0170
1389.00,0.0188
1388.00,0.0215
1387.00,0.0255
1386.00,0.0307
1385.00,0.0374
1384.00,0.0459
1383.00,0.0573
1382.00,0.0719
1381.00,0.0899
1380.00,0.1114
1379.00,0.1351
1378.00,0.1574
1377.00,0.1734
1376.00,0.1785
1375.00,0.1700
1374.00,0.1498
1373.00,0.1252
1372.00,0.1022
1371.00,0.0829
1370.00,0.0671
1369.00,0.0549
1368.00,0.0464
1367.00,0.0411
1366.00,0.0382
1365.00,0.0370
1364.00,0.0372
1363.00,0.0385
1362.00,0.0405
1361.00,0.0426
1360.00,0.0442
1359.00,0.0446
1358.00,0.0435
1357.00,0.0410
1356.00,0.0374
1355.00,0.0333
1354.00,0.0293
1353.00,0.0258
1352.00,0.0230
1351.00,0.0208
1350.00,0.0190
1349.00,0.0176
1348.00,0.0165
1347.00,0.0156
1346.00,0.0148
1345.00,0.0142
1344.00,0.0138
1343.00,0.0134
1342.00,0.0130
1341.00,0.0127
1340.00,0.0124
1339.00,0.0122
1338.00,0.0121
1337.00,0.0120
1336.00,0.0121
1335.00,0.0122
1334.00,0.0126
1333.00,0.0129
1332.00,0.0133
1331.00,0.0137
1330.00,0.0138
1329.00,0.0137
1328.00,0.0133
1327.00,0.0128
1326.00,0.0122
1325.00,0.0116
1324.00,0.0110
1323.00,0.0105
1322.00,0.0101
1321.00,0.0098
1320.00,0.0095
1319.00,0.0092
1318.00,0.0090
1317.00,0.0089
1316.00,0.0088
1315.00,0.0087
1314.00,0.0087
1313.00,0.0088
1312.00,0.0089
1311.00,0.0092
1310.00,0.0098
1309.00,0.0107
1308.00,0.0120
1307.00,0.0135
1306.00,0.0151
1305.00,0.0161
1304.00,0.0164
1303.00,0.0160
1302.00,0.0152
1301.00,0.0144
1300.00,0.0138
1299.00,0.0134
1298.00,0.0133
1297.00,0.0131
1296.00,0.0130
1295.00,0.0127
1294.00,0.0122
1293.00,0.0117
1292.00,0.0112
1291.00,0.0108
1290.00,0.0104
1289.00,0.0100
1288.00,0.0096
1287.00,0.0092
1286.00,0.0089
1285.00,0.0087
1284.00,0.0085
1283.00,0.0084
1282.00,0.0082
1281.00,0.0081
1280.00,0.0080
1279.00,0.0080
1278.00,0.0079
1277.00,0.0079
1276.00,0.0079
1275.00,0.0079
1274.00,0.0079
1273.00,0.0080
1272.00,0.0080
1271.00,0.0082
1270.00,0.0083
1269.00,0.0085
1268.00,0.0088
1267.00,0.0091
1266.00,0.0094
1265.00,0.0098
1264.00,0.0102
1263.00,0.0106
1262.00,0.0111
1261.00,0.0116
1260.00,0.0124
1259.00,0.0133
1258.00,0.0143
1257.00,0.0151
1256.00,0.0155
1255.00,0.0153
1254.00,0.0145
1253.00,0.0134
1252.00,0.0122
1251.00,0.0112
1250.00,0.0105
1249.00,0.0100
1248.00,0.0096
1247.00,0.0093
1246.00,0.0092
1245.00,0.0090
1244.00,0.0089
1243.00,0.0089
1242.00,0.0089
1241.00,0.0088
1240.00,0.0087
1239.00,0.0086
1238.00,0.0084
1237.00,0.0083
1236.00,0.0082
1235.00,0.0081
1234.00,0.0081
1233.00,0.0080
1232.00,0.0079
1231.00,0.0079
1230.00,0.0079
1229.00,0.0079
1228.00,0.0080
1227.00,0.0082
1226.00,0.0084
1225.00,0.0086
1224.00,0.0088
1223.00,0.0091
1222.00,0.0093
1221.00,0.0096
1220.00,0.0097
1219.00,0.0098
1218.00,0.0097
1217.00,0.0096
1216.00,0.0094
1215.00,0.0091
1214.00,0.0088
1213.00,0.0085
1212.00,0.0082
1211.00,0.0080
1210.00,0.0078
1209.00,0.0076
1208.00,0.0075
1207.00,0.0074
1206.00,0.0073
1205.00,0.0072
1204.00,0.0072
1203.00,0.0072
1202.00,0.0072
1201.00,0.0072
1200.00,0.0073
1199.00,0.0073
1198.00,0.0073
1197.00,0.0073
1196.00,0.0073
1195.00,0.0073
1194.00,0.0073
1193.00,0.0073
1192.00,0.0073
1191.00,0.0073
1190.00,0.0073
1189.00,0.0073
1188.00,0.0074
1187.00,0.0075
1186.00,0.0077
1185.00,0.0079
1184.00,0.0081
1183.00,0.0083
1182.00,0.0085
1181.00,0.0089
1180.00,0.0094
1179.00,0.0101
1178.00,0.0110
1177.00,0.0122
1176.00,0.0138
1175.00,0.0159
1174.00,0.0186
1173.00,0.0220
1172.00,0.0261
1171.00,0.0306
1170.00,0.0349
1169.00,0.0386
1168.00,0.0409
1167.00,0.0416
1166.00,0.0407
1165.00,0.0386
1164.00,0.0360
1163.00,0.0332
1162.00,0.0307
1161.00,0.0286
1160.00,0.0268
1159.00,0.0255
1158.00,0.0244
1157.00,0.0236
1156.00,0.0229
1155.00,0.0223
1154.00,0.0218
1153.00,0.0213
1152.00,0.0207
1151.00,0.0199
1150.00,0.0190
1149.00,0.0180
1148.00,0.0170
1147.00,0.0160
1146.00,0.0150
1145.00,0.0141
1144.00,0.0134
1143.00,0.0127
1142.00,0.0122
1141.00,0.0116
1140.00,0.0110
1139.00,0.0105
1138.00,0.0100
1137.00,0.0097
1136.00,0.0095
1135.00,0.0093
1134.00,0.0092
1133.00,0.0090
1132.00,0.0089
1131.00,0.0089
1130.00,0.0088
1129.00,0.0088
1128.00,0.0089
1127.00,0.0090
1126.00,0.0091
1125.00,0.0092
1124.00,0.0092
1123.00,0.0093
1122.00,0.0093
1121.00,0.0093
1120.00,0.0094
1119.00,0.0096
1118.00,0.0097
1117.00,0.0099
1116.00,0.0100
1115.00,0.0101
1114.00,0.0102
1113.00,0.0103
1112.00,0.0106
1111.00,0.0109
1110.00,0.0114
1109.00,0.0118
1108.00,0.0124
1107.00,0.0130
1106.00,0.0136
1105.00,0.0142
1104.00,0.0147
1103.00,0.0150
1102.00,0.0151
1101.00,0.0150
1100.00,0.0146
1099.00,0.0141
1098.00,0.0135
1097.00,0.0128
1096.00,0.0122
1095.00,0.0117
1094.00,0.0113
1093.00,0.0111
1092.00,0.0109
1091.00,0.0106
1090.00,0.0103
1089.00,0.0100
1088.00,0.0098
1087.00,0.0097
1086.00,0.0096
1085.00,0.0096
1084.00,0.0095
1083.00,0.0093
1082.00,0.0092
1081.00,0.0090
1080.00,0.0089
1079.00,0.0088
1078.00,0.0087
1077.00,0.0086
1076.00,0.0085
1075.00,0.0085
1074.00,0.0085
1073.00,0.0086
1072.00,0.0086
1071.00,0.0086
1070.00,0.0086
1069.00,0.0086
1068.00,0.0086
1067.00,0.0086
1066.00,0.0087
1065.00,0.0087
1064.00,0.0087
1063.00,0.0087
1062.00,0.0088
1061.00,0.0088
1060.00,0.0088
1059.00,0.0088
1058.00,0.0088
1057.00,0.0088
1056.00,0.0088
1055.00,0.0088
1054.00,0.0090
1053.00,0.0091
1052.00,0.0094
1051.00,0.0097
1050.00,0.0100
1049.00,0.0104
1048.00,0.0107
1047.00,0.0111
1046.00,0.0114
1045.00,0.0116
1044.00,0.0116
1043.00,0.0114
1042.00,0.0110
1041.00,0.0107
1040.00,0.0104
1039.00,0.0102
1038.00,0.0101
1037.00,0.0100
1036.00,0.0100
1035.00,0.0100
1034.00,0.0099
1033.00,0.0099
1032.00,0.0099
1031.00,0.0100
1030.00,0.0099
1029.00,0.0099
1028.00,0.0098
1027.00,0.0098
1026.00,0.0098
1025.00,0.0098
1024.00,0.0099
1023.00,0.0101
1022.00,0.0101
1021.00,0.0102
1020.00,0.0102
1019.00,0.0103
1018.00,0.0105
1017.00,0.0108
1016.00,0.0110
1015.00,0.0112
1014.00,0.0115
1013.00,0.0119
1012.00,0.0123
1011.00,0.0128
1010.00,0.0133
1009.00,0.0138
1008.00,0.0146
1007.00,0.0156
1006.00,0.0168
1005.00,0.0184
1004.00,0.0206
1003.00,0.0235
1002.00,0.0274
1001.00,0.0321
1000.00,0.0372
999.00,0.0417
998.00,0.0443
997.00,0.0440
996.00,0.0408
995.00,0.0357
994.00,0.0301
993.00,0.0251
992.00,0.0211
991.00,0.0181
990.00,0.0160
989.00,0.0147
988.00,0.0138
987.00,0.0134
986.00,0.0133
985.00,0.0134
984.00,0.0138
983.00,0.0147
982.00,0.0160
981.00,0.0179
980.00,0.0206
979.00,0.0241
978.00,0.0285
977.00,0.0339
976.00,0.0399
975.00,0.0459
974.00,0.0508
973.00,0.0533
972.00,0.0525
971.00,0.0483
970.00,0.0419
969.00,0.0348
968.00,0.0285
967.00,0.0234
966.00,0.0197
965.00,0.0170
964.00,0.0151
963.00,0.0136
962.00,0.0125
961.00,0.0116
960.00,0.0110
959.00,0.0104
958.00,0.0100
957.00,0.0096
956.00,0.0092
955.00,0.0089
954.00,0.0087
953.00,0.0085
952.00,0.0084
951.00,0.0084
950.00,0.0083
949.00,0.0083
948.00,0.0083
947.00,0.0084
946.00,0.0085
945.00,0.0088
944.00,0.0091
943.00,0.0094
942.00,0.0096
941.00,0.0096
940.00,0.0095
939.00,0.0092
938.00,0.0088
937.00,0.0083
936.00,0.0078
935.00,0.0074
934.00,0.0072
933.00,0.0070
932.00,0.0069
931.00,0.0068
930.00,0.0067
929.00,0.0066
928.00,0.0064
927.00,0.0063
926.00,0.0062
925.00,0.0062
924.00,0.0063
923.00,0.0063
922.00,0.0065
921.00,0.0066
920.00,0.0068
919.00,0.0070
918.00,0.0071
917.00,0.0072
916.00,0.0072
915.00,0.0072
914.00,0.0072
913.00,0.0073
912.00,0.0074
911.00,0.0076
910.00,0.0077
909.00,0.0077
908.00,0.0079
907.00,0.0082
906.00,0.0088
905.00,0.0098
904.00,0.0112
903.00,0.0130
902.00,0.0148
901.00,0.0166
900.00,0.0178
899.00,0.0182
898.00,0.0177
897.00,0.0164
896.00,0.0145
895.00,0.0127
894.00,0.0111
893.00,0.0099
892.00,0.0090
891.00,0.0084
890.00,0.0081
889.00,0.0079
888.00,0.0077
887.00,0.0076
886.00,0.0075
885.00,0.0074
884.00,0.0072
883.00,0.0072
882.00,0.0072
881.00,0.0073
880.00,0.0074
879.00,0.0075
878.00,0.0075
877.00,0.0075
876.00,0.0075
875.00,0.0075
874.00,0.0076
873.00,0.0077
872.00,0.0078
871.00,0.0079
870.00,0.0079
869.00,0.0079
868.00,0.0079
867.00,0.0080
866.00,0.0081
865.00,0.0082
864.00,0.0082
863.00,0.0083
862.00,0.0085
861.00,0.0087
860.00,0.0088
859.00,0.0089
858.00,0.0090
857.00,0.0091
856.00,0.0092
855.00,0.0094
854.00,0.0097
853.00,0.0100
852.00,0.0104
851.00,0.0110
850.00,0.0118
849.00,0.0128
848.00,0.0142
847.00,0.0162
846.00,0.0194
845.00,0.0240
844.00,0.0302
843.00,0.0371
842.00,0.0426
841.00,0.0445
840.00,0.0418
839.00,0.0361
838.00,0.0296
837.00,0.0241
836.00,0.0203
835.00,0.0179
834.00,0.0163
833.00,0.0153
832.00,0.0146
831.00,0.0142
830.00,0.0138
829.00,0.0134
828.00,0.0131
827.00,0.0128
826.00,0.0125
825.00,0.0124
824.00,0.0123
823.00,0.0122
822.00,0.0122
821.00,0.0122
820.00,0.0123
819.00,0.0124
818.00,0.0126
817.00,0.0130
816.00,0.0135
815.00,0.0144
814.00,0.0157
813.00,0.0173
812.00,0.0190
811.00,0.0204
810.00,0.0215
809.00,0.0219
808.00,0.0216
807.00,0.0207
806.00,0.0193
805.00,0.0178
804.00,0.0164
803.00,0.0152
802.00,0.0142
801.00,0.0134
800.00,0.0127
799.00,0.0122
798.00,0.0118
797.00,0.0114
796.00,0.0110
795.00,0.0106
794.00,0.0104
793.00,0.0101
792.00,0.0098
791.00,0.0094
790.00,0.0090
789.00,0.0087
788.00,0.0084
787.00,0.0081
786.00,0.0079
785.00,0.0076
784.00,0.0074
783.00,0.0071
782.00,0.0069
781.00,0.0067
780.00,0.0065
779.00,0.0065
778.00,0.0065
777.00,0.0067
776.00,0.0068
775.00,0.0069
774.00,0.0070
773.00,0.0071
772.00,0.0073
771.00,0.0076
770.00,0.0080
769.00,0.0084
768.00,0.0086
767.00,0.0086
766.00,0.0085
765.00,0.0082
764.00,0.0078
763.00,0.0073
762.00,0.0069
761.00,0.0065
760.00,0.0063
759.00,0.0061
758.00,0.0060
757.00,0.0058
756.00,0.0057
755.00,0.0056
754.00,0.0054
753.00,0.0054
752.00,0.0055
751.00,0.0057
750.00,0.0058
749.00,0.0058
748.00,0.0057
747.00,0.0056
746.00,0.0056
745.00,0.0056
744.00,0.0056
743.00,0.0056
742.00,0.0055
741.00,0.0055
740.00,0.0056
739.00,0.0057
738.00,0.0059
737.00,0.0060
736.00,0.0062
735.00,0.0064
734.00,0.0065
733.00,0.0066
732.00,0.0067
731.00,0.0068
730.00,0.0068
729.00,0.0068
728.00,0.0066
727.00,0.0065
726.00,0.0064
725.00,0.0063
724.00,0.0062
723.00,0.0062
722.00,0.0062
721.00,0.0062
720.00,0.0063
719.00,0.0063
718.00,0.0063
717.00,0.0062
716.00,0.0061
715.00,0.0058
714.00,0.0057
713.00,0.0056
712.00,0.0057
711.00,0.0058
710.00,0.0058
709.00,0.0059
708.00,0.0059
707.00,0.0060
706.00,0.0060
705.00,0.0061
704.00,0.0062
703.00,0.0062
702.00,0.0062
701.00,0.0061
700.00,0.0059
699.00,0.0056
698.00,0.0055
697.00,0.0054
696.00,0.0054
695.00,0.0053
694.00,0.0052
693.00,0.0053
692.00,0.0055
691.00,0.0057
690.00,0.0057
689.00,0.0057
688.00,0.0056
687.00,0.0057
686.00,0.0057
685.00,0.0057
684.00,0.0056
683.00,0.0055
682.00,0.0054
681.00,0.0052
680.00,0.0050
679.00,0.0049
678.00,0.0050
677.00,0.0051
676.00,0.0052
675.00,0.0053
674.00,0.0054
673.00,0.0055
672.00,0.0055
671.00,0.0055
670.00,0.0056
669.00,0.0057
668.00,0.0057
667.00,0.0055
666.00,0.0053
665.00,0.0052
664.00,0.0051
663.00,0.0050
662.00,0.0049
661.00,0.0050
660.00,0.0052
659.00,0.0054
658.00,0.0057
657.00,0.0058
656.00,0.0058
655.00,0.0057
654.00,0.0057
653.00,0.0056
652.00,0.0057
651.00,0.0056
650.00,0.0056
649.00,0.0055
648.00,0.0054
647.00,0.0053
646.00,0.0052
645.00,0.0051
644.00,0.0049
643.00,0.0050
642.00,0.0051
641.00,0.0053
640.00,0.0055
639.00,0.0055
638.00,0.0056
637.00,0.0056
636.00,0.0055
635.00,0.0055
634.00,0.0054
633.00,0.0054
632.00,0.0055
631.00,0.0056
630.00,0.0056
629.00,0.0057
628.00,0.0056
627.00,0.0055
626.00,0.0054
625.00,0.0052
624.00,0.0053
623.00,0.0054
622.00,0.0057
621.00,0.0060
620.00,0.0061
619.00,0.0062
618.00,0.0063
617.00,0.0063
616.00,0.0063
615.00,0.0061
614.00,0.0058
613.00,0.0057
612.00,0.0057
611.00,0.0058
610.00,0.0060
609.00,0.0062
608.00,0.0064
607.00,0.0065
606.00,0.0066
605.00,0.0065
604.00,0.0063
603.00,0.0061
602.00,0.0060
601.00,0.0058
600.00,0.0058
599.00,0.0059
598.00,0.0060
597.00,0.0060
596.00,0.0057
595.00,0.0055
594.00,0.0054
593.00,0.0057
592.00,0.0059
591.00,0.0060
590.00,0.0058
589.00,0.0058
588.00,0.0060
587.00,0.0063
586.00,0.0065
585.00,0.0066
584.00,0.0066
583.00,0.0065
582.00,0.0063
581.00,0.0062
580.00,0.0061
579.00,0.0062
578.00,0.0063
577.00,0.0062
576.00,0.0060
575.00,0.0060
574.00,0.0061
573.00,0.0061
572.00,0.0061
571.00,0.0059
570.00,0.0058
569.00,0.0058
568.00,0.0059
567.00,0.0060
566.00,0.0059
565.00,0.0059
564.00,0.0058
563.00,0.0058
562.00,0.0057
561.00,0.0055
560.00,0.0055
559.00,0.0058
558.00,0.0062
557.00,0.0066
556.00,0.0067
555.00,0.0067
554.00,0.0066
553.00,0.0066
552.00,0.0068
551.00,0.0069
550.00,0.0069
549.00,0.0068
548.00,0.0068
547.00,0.0070
546.00,0.0073
545.00,0.0074
544.00,0.0073
543.00,0.0072
542.00,0.0072
541.00,0.0072
540.00,0.0073
539.00,0.0075
538.00,0.0077
537.00,0.0078
536.00,0.0079
535.00,0.0080
534.00,0.0082
533.00,0.0084
532.00,0.0086
531.00,0.0090
530.00,0.0094
529.00,0.0096
528.00,0.0095
527.00,0.0092
526.00,0.0087
525.00,0.0083
524.00,0.0079
523.00,0.0076
522.00,0.0075
521.00,0.0073
520.00,0.0072
519.00,0.0071
518.00,0.0073
517.00,0.0076
516.00,0.0077
515.00,0.0074
514.00,0.0068
513.00,0.0062
512.00,0.0060
511.00,0.0061
510.00,0.0062
509.00,0.0060
508.00,0.0057
507.00,0.0056
506.00,0.0056
505.00,0.0054
504.00,0.0051
503.00,0.0052
502.00,0.0058
501.00,0.0066
500.00,0.0071
499.00,0.0070
498.00,0.0068
497.00,0.0068
496.00,0.0069
495.00,0.0070
494.00,0.0069
493.00,0.0068
492.00,0.0068
491.00,0.0067
490.00,0.0064
489.00,0.0058
488.00,0.0049
487.00,0.0039
486.00,0.0034
485.00,0.0036
484.00,0.0043
483.00,0.0050
482.00,0.0053
481.00,0.0052
480.00,0.0050
479.00,0.0051
478.00,0.0054
477.00,0.0059
476.00,0.0063
475.00,0.0068
474.00,0.0077
473.00,0.0087
472.00,0.0090
471.00,0.0084
470.00,0.0074
469.00,0.0068
468.00,0.0071
467.00,0.0081
466.00,0.0095
465.00,0.0107
464.00,0.0118
463.00,0.0126
462.00,0.0135
461.00,0.0146
460.00,0.0159
459.00,0.0168
458.00,0.0165
457.00,0.0151
456.00,0.0138
455.00,0.0132
454.00,0.0130
453.00,0.0126
452.00,0.0118
451.00,0.0109
450.00,0.0099
