Created as New Dataset,Sample 168 By Administrator Date Wednesday, September 10 2025
cm-1,A
4000.00,0.0009
3999.00,0.0008
3998.00,0.0008
3997.00,0.0008
3996.00,0.0008
3995.00,0.0008
3994.00,0.0008
3993.00,0.0008
3992.00,0.0007
3991.00,0.0007
3990.00,0.0007
3989.00,0.0007
3988.00,0.0007
3987.00,0.0007
3986.00,0.0007
3985.00,0.0007
3984.00,0.0007
3983.00,0.0007
3982.00,0.0007
3981.00,0.0006
3980.00,0.0006
3979.00,0.0006
3978.00,0.0006
3977.00,0.0006
3976.00,0.0006
3975.00,0.0006
3974.00,0.0006
3973.00,0.0006
3972.00,0.0006
3971.00,0.0006
3970.00,0.0006
3969.00,0.0006
3968.00,0.0006
3967.00,0.0006
3966.00,0.0005
3965.00,0.0005
3964.00,0.0005
3963.00,0.0005
3962.00,0.0005
3961.00,0.0005
3960.00,0.0005
3959.00,0.0005
3958.00,0.0005
3957.00,0.0005
3956.00,0.0005
3955.00,0.0005
3954.00,0.0005
3953.00,0.0006
3952.00,0.0006
3951.00,0.0006
3950.00,0.0006
3949.00,0.0006
3948.00,0.0005
3947.00,0.0006
3946.00,0.0006
3945.00,0.0006
3944.00,0.0006
3943.00,0.0006
3942.00,0.0007
3941.00,0.0007
3940.00,0.0006
3939.00,0.0006
3938.00,0.0006
3937.00,0.0006
3936.00,0.0006
3935.00,0.0006
3934.00,0.0006
3933.00,0.0006
3932.00,0.0006
3931.00,0.0007
3930.00,0.0007
3929.00,0.0006
3928.00,0.0006
3927.00,0.0006
3926.00,0.0006
3925.00,0.0006
3924.00,0.0005
3923.00,0.0005
3922.00,0.0006
3921.00,0.0006
3920.00,0.0006
3919.00,0.0006
3918.00,0.0006
3917.00,0.0006
3916.00,0.0006
3915.00,0.0006
3914.00,0.0006
3913.00,0.0006
3912.00,0.0006
3911.00,0.0006
3910.00,0.0006
3909.00,0.0006
3908.00,0.0006
3907.00,0.0006
3906.00,0.0006
3905.00,0.0006
3904.00,0.0006
3903.00,0.0005
3902.00,0.0005
3901.00,0.0005
3900.00,0.0005
3899.00,0.0005
3898.00,0.0005
3897.00,0.0005
3896.00,0.0005
3895.00,0.0005
3894.00,0.0006
3893.00,0.0006
3892.00,0.0006
3891.00,0.0006
3890.00,0.0006
3889.00,0.0006
3888.00,0.0006
3887.00,0.0006
3886.00,0.0006
3885.00,0.0006
3884.00,0.0006
3883.00,0.0006
3882.00,0.0006
3881.00,0.0006
3880.00,0.0006
3879.00,0.0006
3878.00,0.0006
3877.00,0.0005
3876.00,0.0005
3875.00,0.0005
3874.00,0.0005
3873.00,0.0005
3872.00,0.0005
3871.00,0.0005
3870.00,0.0005
3869.00,0.0005
3868.00,0.0005
3867.00,0.0005
3866.00,0.0005
3865.00,0.0005
3864.00,0.0005
3863.00,0.0005
3862.00,0.0005
3861.00,0.0005
3860.00,0.0005
3859.00,0.0004
3858.00,0.0004
3857.00,0.0004
3856.00,0.0004
3855.00,0.0004
3854.00,0.0004
3853.00,0.0004
3852.00,0.0004
3851.00,0.0004
3850.00,0.0004
3849.00,0.0004
3848.00,0.0004
3847.00,0.0004
3846.00,0.0004
3845.00,0.0004
3844.00,0.0004
3843.00,0.0005
3842.00,0.0005
3841.00,0.0005
3840.00,0.0005
3839.00,0.0005
3838.00,0.0004
3837.00,0.0004
3836.00,0.0004
3835.00,0.0004
3834.00,0.0004
3833.00,0.0004
3832.00,0.0004
3831.00,0.0004
3830.00,0.0004
3829.00,0.0005
3828.00,0.0005
3827.00,0.0005
3826.00,0.0005
3825.00,0.0004
3824.00,0.0004
3823.00,0.0004
3822.00,0.0005
3821.00,0.0005
3820.00,0.0004
3819.00,0.0004
3818.00,0.0004
3817.00,0.0005
3816.00,0.0006
3815.00,0.0007
3814.00,0.0006
3813.00,0.0006
3812.00,0.0006
3811.00,0.0005
3810.00,0.0005
3809.00,0.0005
3808.00,0.0005
3807.00,0.0005
3806.00,0.0005
3805.00,0.0005
3804.00,0.0004
3803.00,0.0004
3802.00,0.0005
3801.00,0.0004
3800.00,0.0004
3799.00,0.0004
3798.00,0.0004
3797.00,0.0004
3796.00,0.0004
3795.00,0.0005
3794.00,0.0005
3793.00,0.0005
3792.00,0.0005
3791.00,0.0006
3790.00,0.0006
3789.00,0.0006
3788.00,0.0005
3787.00,0.0005
3786.00,0.0005
3785.00,0.0005
3784.00,0.0005
3783.00,0.0005
3782.00,0.0005
3781.00,0.0006
3780.00,0.0006
3779.00,0.0006
3778.00,0.0006
3777.00,0.0006
3776.00,0.0005
3775.00,0.0005
3774.00,0.0005
3773.00,0.0005
3772.00,0.0006
3771.00,0.0006
3770.00,0.0006
3769.00,0.0006
3768.00,0.0005
3767.00,0.0005
3766.00,0.0005
3765.00,0.0005
3764.00,0.0005
3763.00,0.0005
3762.00,0.0005
3761.00,0.0005
3760.00,0.0005
3759.00,0.0005
3758.00,0.0005
3757.00,0.0005
3756.00,0.0005
3755.00,0.0005
3754.00,0.0005
3753.00,0.0004
3752.00,0.0003
3751.00,0.0003
3750.00,0.0003
3749.00,0.0003
3748.00,0.0003
3747.00,0.0002
3746.00,0.0002
3745.00,0.0003
3744.00,0.0003
3743.00,0.0003
3742.00,0.0003
3741.00,0.0003
3740.00,0.0003
3739.00,0.0003
3738.00,0.0003
3737.00,0.0003
3736.00,0.0003
3735.00,0.0003
3734.00,0.0004
3733.00,0.0004
3732.00,0.0004
3731.00,0.0004
3730.00,0.0004
3729.00,0.0004
3728.00,0.0004
3727.00,0.0004
3726.00,0.0004
3725.00,0.0004
3724.00,0.0003
3723.00,0.0003
3722.00,0.0003
3721.00,0.0003
3720.00,0.0003
3719.00,0.0003
3718.00,0.0003
3717.00,0.0004
3716.00,0.0004
3715.00,0.0004
3714.00,0.0004
3713.00,0.0004
3712.00,0.0004
3711.00,0.0004
3710.00,0.0004
3709.00,0.0004
3708.00,0.0004
3707.00,0.0004
3706.00,0.0004
3705.00,0.0004
3704.00,0.0003
3703.00,0.0003
3702.00,0.0003
3701.00,0.0002
3700.00,0.0002
3699.00,0.0002
3698.00,0.0003
3697.00,0.0002
3696.00,0.0002
3695.00,0.0002
3694.00,0.0002
3693.00,0.0002
3692.00,0.0002
3691.00,0.0002
3690.00,0.0002
3689.00,0.0002
3688.00,0.0003
3687.00,0.0003
3686.00,0.0003
3685.00,0.0003
3684.00,0.0003
3683.00,0.0003
3682.00,0.0003
3681.00,0.0003
3680.00,0.0002
3679.00,0.0003
3678.00,0.0003
3677.00,0.0004
3676.00,0.0004
3675.00,0.0004
3674.00,0.0004
3673.00,0.0003
3672.00,0.0003
3671.00,0.0003
3670.00,0.0003
3669.00,0.0002
3668.00,0.0002
3667.00,0.0002
3666.00,0.0002
3665.00,0.0002
3664.00,0.0003
3663.00,0.0003
3662.00,0.0003
3661.00,0.0003
3660.00,0.0003
3659.00,0.0003
3658.00,0.0003
3657.00,0.0003
3656.00,0.0003
3655.00,0.0002
3654.00,0.0002
3653.00,0.0001
3652.00,0.0001
3651.00,0.0001
3650.00,0.0002
3649.00,0.0002
3648.00,0.0002
3647.00,0.0001
3646.00,0.0001
3645.00,0.0001
3644.00,0.0001
3643.00,0.0002
3642.00,0.0002
3641.00,0.0003
3640.00,0.0003
3639.00,0.0003
3638.00,0.0003
3637.00,0.0003
3636.00,0.0003
3635.00,0.0003
3634.00,0.0003
3633.00,0.0002
3632.00,0.0002
3631.00,0.0002
3630.00,0.0002
3629.00,0.0003
3628.00,0.0003
3627.00,0.0003
3626.00,0.0003
3625.00,0.0003
3624.00,0.0003
3623.00,0.0003
3622.00,0.0003
3621.00,0.0002
3620.00,0.0002
3619.00,0.0002
3618.00,0.0002
3617.00,0.0002
3616.00,0.0003
3615.00,0.0003
3614.00,0.0004
3613.00,0.0005
3612.00,0.0005
3611.00,0.0005
3610.00,0.0005
3609.00,0.0004
3608.00,0.0004
3607.00,0.0004
3606.00,0.0003
3605.00,0.0003
3604.00,0.0003
3603.00,0.0003
3602.00,0.0003
3601.00,0.0003
3600.00,0.0003
3599.00,0.0004
3598.00,0.0004
3597.00,0.0004
3596.00,0.0004
3595.00,0.0004
3594.00,0.0004
3593.00,0.0004
3592.00,0.0004
3591.00,0.0004
3590.00,0.0003
3589.00,0.0003
3588.00,0.0003
3587.00,0.0004
3586.00,0.0004
3585.00,0.0005
3584.00,0.0005
3583.00,0.0006
3582.00,0.0006
3581.00,0.0007
3580.00,0.0007
3579.00,0.0007
3578.00,0.0007
3577.00,0.0007
3576.00,0.0007
3575.00,0.0007
3574.00,0.0007
3573.00,0.0007
3572.00,0.0006
3571.00,0.0006
3570.00,0.0005
3569.00,0.0005
3568.00,0.0005
3567.00,0.0006
3566.00,0.0006
3565.00,0.0007
3564.00,0.0008
3563.00,0.0009
3562.00,0.0009
3561.00,0.0010
3560.00,0.0010
3559.00,0.0010
3558.00,0.0010
3557.00,0.0010
3556.00,0.0010
3555.00,0.0010
3554.00,0.0010
3553.00,0.0010
3552.00,0.0010
3551.00,0.0010
3550.00,0.0010
3549.00,0.0010
3548.00,0.0011
3547.00,0.0011
3546.00,0.0011
3545.00,0.0011
3544.00,0.0011
3543.00,0.0012
3542.00,0.0012
3541.00,0.0012
3540.00,0.0012
3539.00,0.0012
3538.00,0.0013
3537.00,0.0013
3536.00,0.0013
3535.00,0.0013
3534.00,0.0013
3533.00,0.0013
3532.00,0.0013
3531.00,0.0013
3530.00,0.0013
3529.00,0.0013
3528.00,0.0013
3527.00,0.0013
3526.00,0.0013
3525.00,0.0013
3524.00,0.0013
3523.00,0.0014
3522.00,0.0014
3521.00,0.0014
3520.00,0.0014
3519.00,0.0015
3518.00,0.0015
3517.00,0.0015
3516.00,0.0015
3515.00,0.0015
3514.00,0.0016
3513.00,0.0016
3512.00,0.0016
3511.00,0.0017
3510.00,0.0017
3509.00,0.0017
3508.00,0.0017
3507.00,0.0017
3506.00,0.0017
3505.00,0.0017
3504.00,0.0017
3503.00,0.0017
3502.00,0.0017
3501.00,0.0017
3500.00,0.0017
3499.00,0.0017
3498.00,0.0018
3497.00,0.0018
3496.00,0.0018
3495.00,0.0019
3494.00,0.0019
3493.00,0.0019
3492.00,0.0019
3491.00,0.0019
3490.00,0.0019
3489.00,0.0020
3488.00,0.0020
3487.00,0.0020
3486.00,0.0019
3485.00,0.0019
3484.00,0.0019
3483.00,0.0019
3482.00,0.0019
3481.00,0.0019
3480.00,0.0019
3479.00,0.0020
3478.00,0.0020
3477.00,0.0020
3476.00,0.0020
3475.00,0.0020
3474.00,0.0020
3473.00,0.0020
3472.00,0.0020
3471.00,0.0021
3470.00,0.0021
3469.00,0.0021
3468.00,0.0021
3467.00,0.0021
3466.00,0.0022
3465.00,0.0022
3464.00,0.0022
3463.00,0.0022
3462.00,0.0022
3461.00,0.0022
3460.00,0.0022
3459.00,0.0023
3458.00,0.0023
3457.00,0.0023
3456.00,0.0023
3455.00,0.0024
3454.00,0.0024
3453.00,0.0024
3452.00,0.0024
3451.00,0.0023
3450.00,0.0023
3449.00,0.0023
3448.00,0.0023
3447.00,0.0023
3446.00,0.0024
3445.00,0.0024
3444.00,0.0024
3443.00,0.0024
3442.00,0.0025
3441.00,0.0025
3440.00,0.0025
3439.00,0.0025
3438.00,0.0025
3437.00,0.0025
3436.00,0.0025
3435.00,0.0025
3434.00,0.0025
3433.00,0.0026
3432.00,0.0026
3431.00,0.0026
3430.00,0.0026
3429.00,0.0027
3428.00,0.0027
3427.00,0.0027
3426.00,0.0027
3425.00,0.0027
3424.00,0.0028
3423.00,0.0028
3422.00,0.0029
3421.00,0.0029
3420.00,0.0029
3419.00,0.0029
3418.00,0.0028
3417.00,0.0028
3416.00,0.0029
3415.00,0.0029
3414.00,0.0029
3413.00,0.0029
3412.00,0.0029
3411.00,0.0030
3410.00,0.0030
3409.00,0.0030
3408.00,0.0030
3407.00,0.0030
3406.00,0.0030
3405.00,0.0030
3404.00,0.0031
3403.00,0.0031
3402.00,0.0031
3401.00,0.0031
3400.00,0.0031
3399.00,0.0032
3398.00,0.0032
3397.00,0.0031
3396.00,0.0031
3395.00,0.0031
3394.00,0.0031
3393.00,0.0032
3392.00,0.0032
3391.00,0.0032
3390.00,0.0032
3389.00,0.0031
3388.00,0.0031
3387.00,0.0031
3386.00,0.0031
3385.00,0.0030
3384.00,0.0030
3383.00,0.0030
3382.00,0.0030
3381.00,0.0030
3380.00,0.0030
3379.00,0.0030
3378.00,0.0030
3377.00,0.0030
3376.00,0.0030
3375.00,0.0030
3374.00,0.0030
3373.00,0.0030
3372.00,0.0030
3371.00,0.0030
3370.00,0.0031
3369.00,0.0031
3368.00,0.0031
3367.00,0.0031
3366.00,0.0030
3365.00,0.0030
3364.00,0.0030
3363.00,0.0030
3362.00,0.0030
3361.00,0.0030
3360.00,0.0030
3359.00,0.0031
3358.00,0.0031
3357.00,0.0031
3356.00,0.0031
3355.00,0.0031
3354.00,0.0031
3353.00,0.0031
3352.00,0.0031
3351.00,0.0031
3350.00,0.0031
3349.00,0.0031
3348.00,0.0031
3347.00,0.0031
3346.00,0.0031
3345.00,0.0031
3344.00,0.0031
3343.00,0.0031
3342.00,0.0031
3341.00,0.0031
3340.00,0.0031
3339.00,0.0030
3338.00,0.0030
3337.00,0.0030
3336.00,0.0030
3335.00,0.0030
3334.00,0.0030
3333.00,0.0030
3332.00,0.0030
3331.00,0.0030
3330.00,0.0029
3329.00,0.0029
3328.00,0.0029
3327.00,0.0029
3326.00,0.0030
3325.00,0.0030
3324.00,0.0029
3323.00,0.0029
3322.00,0.0029
3321.00,0.0028
3320.00,0.0028
3319.00,0.0028
3318.00,0.0028
3317.00,0.0028
3316.00,0.0028
3315.00,0.0028
3314.00,0.0028
3313.00,0.0028
3312.00,0.0028
3311.00,0.0028
3310.00,0.0028
3309.00,0.0029
3308.00,0.0029
3307.00,0.0028
3306.00,0.0028
3305.00,0.0028
3304.00,0.0028
3303.00,0.0027
3302.00,0.0027
3301.00,0.0027
3300.00,0.0028
3299.00,0.0028
3298.00,0.0028
3297.00,0.0028
3296.00,0.0028
3295.00,0.0028
3294.00,0.0028
3293.00,0.0028
3292.00,0.0029
3291.00,0.0029
3290.00,0.0029
3289.00,0.0029
3288.00,0.0028
3287.00,0.0028
3286.00,0.0028
3285.00,0.0027
3284.00,0.0027
3283.00,0.0027
3282.00,0.0027
3281.00,0.0027
3280.00,0.0027
3279.00,0.0027
3278.00,0.0027
3277.00,0.0027
3276.00,0.0027
3275.00,0.0027
3274.00,0.0027
3273.00,0.0027
3272.00,0.0026
3271.00,0.0026
3270.00,0.0026
3269.00,0.0026
3268.00,0.0026
3267.00,0.0026
3266.00,0.0026
3265.00,0.0026
3264.00,0.0026
3263.00,0.0026
3262.00,0.0026
3261.00,0.0026
3260.00,0.0026
3259.00,0.0026
3258.00,0.0026
3257.00,0.0026
3256.00,0.0025
3255.00,0.0025
3254.00,0.0025
3253.00,0.0025
3252.00,0.0024
3251.00,0.0024
3250.00,0.0024
3249.00,0.0024
3248.00,0.0024
3247.00,0.0024
3246.00,0.0024
3245.00,0.0024
3244.00,0.0024
3243.00,0.0024
3242.00,0.0024
3241.00,0.0025
3240.00,0.0025
3239.00,0.0026
3238.00,0.0026
3237.00,0.0026
3236.00,0.0026
3235.00,0.0026
3234.00,0.0026
3233.00,0.0026
3232.00,0.0026
3231.00,0.0026
3230.00,0.0026
3229.00,0.0026
3228.00,0.0027
3227.00,0.0027
3226.00,0.0027
3225.00,0.0027
3224.00,0.0027
3223.00,0.0027
3222.00,0.0027
3221.00,0.0027
3220.00,0.0028
3219.00,0.0028
3218.00,0.0028
3217.00,0.0028
3216.00,0.0029
3215.00,0.0029
3214.00,0.0029
3213.00,0.0029
3212.00,0.0029
3211.00,0.0029
3210.00,0.0029
3209.00,0.0029
3208.00,0.0030
3207.00,0.0030
3206.00,0.0030
3205.00,0.0031
3204.00,0.0031
3203.00,0.0031
3202.00,0.0031
3201.00,0.0031
3200.00,0.0031
3199.00,0.0031
3198.00,0.0031
3197.00,0.0031
3196.00,0.0031
3195.00,0.0031
3194.00,0.0031
3193.00,0.0031
3192.00,0.0031
3191.00,0.0031
3190.00,0.0032
3189.00,0.0032
3188.00,0.0031
3187.00,0.0031
3186.00,0.0031
3185.00,0.0031
3184.00,0.0030
3183.00,0.0030
3182.00,0.0030
3181.00,0.0030
3180.00,0.0029
3179.00,0.0029
3178.00,0.0029
3177.00,0.0028
3176.00,0.0028
3175.00,0.0028
3174.00,0.0028
3173.00,0.0028
3172.00,0.0028
3171.00,0.0028
3170.00,0.0028
3169.00,0.0027
3168.00,0.0027
3167.00,0.0027
3166.00,0.0027
3165.00,0.0027
3164.00,0.0026
3163.00,0.0026
3162.00,0.0026
3161.00,0.0026
3160.00,0.0026
3159.00,0.0026
3158.00,0.0025
3157.00,0.0025
3156.00,0.0025
3155.00,0.0026
3154.00,0.0026
3153.00,0.0026
3152.00,0.0026
3151.00,0.0026
3150.00,0.0026
3149.00,0.0026
3148.00,0.0026
3147.00,0.0026
3146.00,0.0026
3145.00,0.0026
3144.00,0.0026
3143.00,0.0026
3142.00,0.0025
3141.00,0.0025
3140.00,0.0025
3139.00,0.0025
3138.00,0.0025
3137.00,0.0025
3136.00,0.0024
3135.00,0.0024
3134.00,0.0025
3133.00,0.0025
3132.00,0.0025
3131.00,0.0025
3130.00,0.0024
3129.00,0.0024
3128.00,0.0023
3127.00,0.0023
3126.00,0.0023
3125.00,0.0022
3124.00,0.0022
3123.00,0.0022
3122.00,0.0022
3121.00,0.0022
3120.00,0.0022
3119.00,0.0022
3118.00,0.0021
3117.00,0.0021
3116.00,0.0021
3115.00,0.0021
3114.00,0.0022
3113.00,0.0022
3112.00,0.0022
3111.00,0.0022
3110.00,0.0022
3109.00,0.0021
3108.00,0.0021
3107.00,0.0021
3106.00,0.0020
3105.00,0.0020
3104.00,0.0020
3103.00,0.0020
3102.00,0.0020
3101.00,0.0020
3100.00,0.0021
3099.00,0.0021
3098.00,0.0021
3097.00,0.0020
3096.00,0.0020
3095.00,0.0019
3094.00,0.0019
3093.00,0.0019
3092.00,0.0019
3091.00,0.0020
3090.00,0.0020
3089.00,0.0020
3088.00,0.0020
3087.00,0.0020
3086.00,0.0020
3085.00,0.0019
3084.00,0.0019
3083.00,0.0019
3082.00,0.0019
3081.00,0.0019
3080.00,0.0019
3079.00,0.0020
3078.00,0.0020
3077.00,0.0020
3076.00,0.0020
3075.00,0.0020
3074.00,0.0021
3073.00,0.0021
3072.00,0.0021
3071.00,0.0021
3070.00,0.0021
3069.00,0.0021
3068.00,0.0022
3067.00,0.0022
3066.00,0.0023
3065.00,0.0023
3064.00,0.0023
3063.00,0.0023
3062.00,0.0023
3061.00,0.0023
3060.00,0.0023
3059.00,0.0023
3058.00,0.0022
3057.00,0.0022
3056.00,0.0023
3055.00,0.0023
3054.00,0.0024
3053.00,0.0024
3052.00,0.0024
3051.00,0.0024
3050.00,0.0024
3049.00,0.0024
3048.00,0.0024
3047.00,0.0025
3046.00,0.0025
3045.00,0.0025
3044.00,0.0025
3043.00,0.0026
3042.00,0.0026
3041.00,0.0027
3040.00,0.0027
3039.00,0.0027
3038.00,0.0028
3037.00,0.0028
3036.00,0.0028
3035.00,0.0028
3034.00,0.0028
3033.00,0.0029
3032.00,0.0029
3031.00,0.0029
3030.00,0.0030
3029.00,0.0031
3028.00,0.0031
3027.00,0.0032
3026.00,0.0032
3025.00,0.0032
3024.00,0.0033
3023.00,0.0034
3022.00,0.0035
3021.00,0.0036
3020.00,0.0037
3019.00,0.0038
3018.00,0.0039
3017.00,0.0040
3016.00,0.0041
3015.00,0.0042
3014.00,0.0042
3013.00,0.0043
3012.00,0.0045
3011.00,0.0046
3010.00,0.0048
3009.00,0.0049
3008.00,0.0051
3007.00,0.0053
3006.00,0.0054
3005.00,0.0056
3004.00,0.0058
3003.00,0.0061
3002.00,0.0063
3001.00,0.0066
3000.00,0.0068
2999.00,0.0071
2998.00,0.0074
2997.00,0.0077
2996.00,0.0081
2995.00,0.0085
2994.00,0.0090
2993.00,0.0095
2992.00,0.0101
2991.00,0.0107
2990.00,0.0113
2989.00,0.0120
2988.00,0.0128
2987.00,0.0136
2986.00,0.0146
2985.00,0.0156
2984.00,0.0169
2983.00,0.0183
2982.00,0.0199
2981.00,0.0216
2980.00,0.0236
2979.00,0.0259
2978.00,0.0284
2977.00,0.0313
2976.00,0.0345
2975.00,0.0383
2974.00,0.0425
2973.00,0.0473
2972.00,0.0527
2971.00,0.0587
2970.00,0.0654
2969.00,0.0726
2968.00,0.0804
2967.00,0.0887
2966.00,0.0973
2965.00,0.1059
2964.00,0.1141
2963.00,0.1215
2962.00,0.1280
2961.00,0.1335
2960.00,0.1380
2959.00,0.1421
2958.00,0.1463
2957.00,0.1513
2956.00,0.1575
2955.00,0.1651
2954.00,0.1739
2953.00,0.1833
2952.00,0.1923
2951.00,0.1994
2950.00,0.2035
2949.00,0.2035
2948.00,0.1988
2947.00,0.1896
2946.00,0.1771
2945.00,0.1629
2944.00,0.1485
2943.00,0.1356
2942.00,0.1250
2941.00,0.1171
2940.00,0.1121
2939.00,0.1096
2938.00,0.1095
2937.00,0.1115
2936.00,0.1153
2935.00,0.1209
2934.00,0.1280
2933.00,0.1365
2932.00,0.1463
2931.00,0.1572
2930.00,0.1688
2929.00,0.1809
2928.00,0.1930
2927.00,0.2049
2926.00,0.2164
2925.00,0.2275
2924.00,0.2384
2923.00,0.2491
2922.00,0.2597
2921.00,0.2701
2920.00,0.2796
2919.00,0.2872
2918.00,0.2918
2917.00,0.2924
2916.00,0.2888
2915.00,0.2813
2914.00,0.2711
2913.00,0.2593
2912.00,0.2472
2911.00,0.2355
2910.00,0.2248
2909.00,0.2150
2908.00,0.2059
2907.00,0.1973
2906.00,0.1890
2905.00,0.1809
2904.00,0.1729
2903.00,0.1650
2902.00,0.1574
2901.00,0.1501
2900.00,0.1431
2899.00,0.1366
2898.00,0.1306
2897.00,0.1252
2896.00,0.1205
2895.00,0.1165
2894.00,0.1132
2893.00,0.1107
2892.00,0.1089
2891.00,0.1077
2890.00,0.1072
2889.00,0.1072
2888.00,0.1076
2887.00,0.1084
2886.00,0.1095
2885.00,0.1110
2884.00,0.1130
2883.00,0.1155
2882.00,0.1184
2881.00,0.1217
2880.00,0.1249
2879.00,0.1278
2878.00,0.1297
2877.00,0.1305
2876.00,0.1303
2875.00,0.1295
2874.00,0.1287
2873.00,0.1284
2872.00,0.1290
2871.00,0.1305
2870.00,0.1328
2869.00,0.1351
2868.00,0.1368
2867.00,0.1368
2866.00,0.1342
2865.00,0.1286
2864.00,0.1203
2863.00,0.1103
2862.00,0.0998
2861.00,0.0899
2860.00,0.0814
2859.00,0.0745
2858.00,0.0693
2857.00,0.0656
2856.00,0.0630
2855.00,0.0613
2854.00,0.0605
2853.00,0.0604
2852.00,0.0611
2851.00,0.0626
2850.00,0.0647
2849.00,0.0675
2848.00,0.0711
2847.00,0.0754
2846.00,0.0806
2845.00,0.0866
2844.00,0.0935
2843.00,0.1008
2842.00,0.1083
2841.00,0.1153
2840.00,0.1211
2839.00,0.1247
2838.00,0.1255
2837.00,0.1227
2836.00,0.1165
2835.00,0.1074
2834.00,0.0965
2833.00,0.0851
2832.00,0.0741
2831.00,0.0644
2830.00,0.0562
2829.00,0.0495
2828.00,0.0441
2827.00,0.0397
2826.00,0.0362
2825.00,0.0333
2824.00,0.0309
2823.00,0.0289
2822.00,0.0272
2821.00,0.0257
2820.00,0.0244
2819.00,0.0233
2818.00,0.0224
2817.00,0.0215
2816.00,0.0208
2815.00,0.0201
2814.00,0.0195
2813.00,0.0189
2812.00,0.0184
2811.00,0.0178
2810.00,0.0173
2809.00,0.0167
2808.00,0.0160
2807.00,0.0153
2806.00,0.0146
2805.00,0.0140
2804.00,0.0133
2803.00,0.0127
2802.00,0.0122
2801.00,0.0117
2800.00,0.0113
2799.00,0.0110
2798.00,0.0107
2797.00,0.0105
2796.00,0.0102
2795.00,0.0100
2794.00,0.0097
2793.00,0.0094
2792.00,0.0091
2791.00,0.0088
2790.00,0.0085
2789.00,0.0082
2788.00,0.0079
2787.00,0.0076
2786.00,0.0074
2785.00,0.0072
2784.00,0.0069
2783.00,0.0067
2782.00,0.0065
2781.00,0.0063
2780.00,0.0061
2779.00,0.0060
2778.00,0.0059
2777.00,0.0058
2776.00,0.0056
2775.00,0.0055
2774.00,0.0054
2773.00,0.0053
2772.00,0.0053
2771.00,0.0053
2770.00,0.0052
2769.00,0.0052
2768.00,0.0052
2767.00,0.0052
2766.00,0.0051
2765.00,0.0051
2764.00,0.0051
2763.00,0.0050
2762.00,0.0050
2761.00,0.0049
2760.00,0.0049
2759.00,0.0048
2758.00,0.0048
2757.00,0.0048
2756.00,0.0048
2755.00,0.0048
2754.00,0.0049
2753.00,0.0049
2752.00,0.0049
2751.00,0.0049
2750.00,0.0048
2749.00,0.0048
2748.00,0.0048
2747.00,0.0049
2746.00,0.0049
2745.00,0.0050
2744.00,0.0051
2743.00,0.0051
2742.00,0.0052
2741.00,0.0053
2740.00,0.0055
2739.00,0.0056
2738.00,0.0058
2737.00,0.0060
2736.00,0.0061
2735.00,0.0062
2734.00,0.0064
2733.00,0.0065
2732.00,0.0067
2731.00,0.0070
2730.00,0.0072
2729.00,0.0075
2728.00,0.0078
2727.00,0.0081
2726.00,0.0084
2725.00,0.0087
2724.00,0.0089
2723.00,0.0089
2722.00,0.0088
2721.00,0.0086
2720.00,0.0083
2719.00,0.0080
2718.00,0.0077
2717.00,0.0073
2716.00,0.0070
2715.00,0.0067
2714.00,0.0064
2713.00,0.0062
2712.00,0.0059
2711.00,0.0057
2710.00,0.0055
2709.00,0.0053
2708.00,0.0052
2707.00,0.0050
2706.00,0.0049
2705.00,0.0048
2704.00,0.0047
2703.00,0.0046
2702.00,0.0045
2701.00,0.0044
2700.00,0.0043
2699.00,0.0043
2698.00,0.0043
2697.00,0.0043
2696.00,0.0042
2695.00,0.0042
2694.00,0.0042
2693.00,0.0041
2692.00,0.0041
2691.00,0.0041
2690.00,0.0041
2689.00,0.0041
2688.00,0.0041
2687.00,0.0041
2686.00,0.0041
2685.00,0.0041
2684.00,0.0042
2683.00,0.0042
2682.00,0.0042
2681.00,0.0042
2680.00,0.0043
2679.00,0.0043
2678.00,0.0043
2677.00,0.0043
2676.00,0.0043
2675.00,0.0043
2674.00,0.0043
2673.00,0.0042
2672.00,0.0042
2671.00,0.0042
2670.00,0.0042
2669.00,0.0042
2668.00,0.0042
2667.00,0.0042
2666.00,0.0043
2665.00,0.0043
2664.00,0.0044
2663.00,0.0044
2662.00,0.0045
2661.00,0.0045
2660.00,0.0046
2659.00,0.0046
2658.00,0.0046
2657.00,0.0046
2656.00,0.0046
2655.00,0.0045
2654.00,0.0044
2653.00,0.0043
2652.00,0.0042
2651.00,0.0041
2650.00,0.0041
2649.00,0.0041
2648.00,0.0041
2647.00,0.0040
2646.00,0.0040
2645.00,0.0039
2644.00,0.0039
2643.00,0.0039
2642.00,0.0038
2641.00,0.0038
2640.00,0.0037
2639.00,0.0037
2638.00,0.0037
2637.00,0.0037
2636.00,0.0037
2635.00,0.0037
2634.00,0.0037
2633.00,0.0036
2632.00,0.0036
2631.00,0.0036
2630.00,0.0036
2629.00,0.0036
2628.00,0.0036
2627.00,0.0037
2626.00,0.0037
2625.00,0.0037
2624.00,0.0038
2623.00,0.0038
2622.00,0.0039
2621.00,0.0039
2620.00,0.0039
2619.00,0.0039
2618.00,0.0038
2617.00,0.0038
2616.00,0.0037
2615.00,0.0037
2614.00,0.0037
2613.00,0.0037
2612.00,0.0037
2611.00,0.0037
2610.00,0.0037
2609.00,0.0037
2608.00,0.0036
2607.00,0.0035
2606.00,0.0034
2605.00,0.0033
2604.00,0.0032
2603.00,0.0031
2602.00,0.0031
2601.00,0.0030
2600.00,0.0030
2599.00,0.0030
2598.00,0.0030
2597.00,0.0031
2596.00,0.0031
2595.00,0.0031
2594.00,0.0031
2593.00,0.0031
2592.00,0.0032
2591.00,0.0033
2590.00,0.0033
2589.00,0.0034
2588.00,0.0035
2587.00,0.0036
2586.00,0.0037
2585.00,0.0038
2584.00,0.0039
2583.00,0.0039
2582.00,0.0039
2581.00,0.0039
2580.00,0.0038
2579.00,0.0038
2578.00,0.0037
2577.00,0.0036
2576.00,0.0035
2575.00,0.0035
2574.00,0.0033
2573.00,0.0032
2572.00,0.0030
2571.00,0.0029
2570.00,0.0027
2569.00,0.0026
2568.00,0.0026
2567.00,0.0025
2566.00,0.0025
2565.00,0.0024
2564.00,0.0024
2563.00,0.0024
2562.00,0.0023
2561.00,0.0023
2560.00,0.0022
2559.00,0.0022
2558.00,0.0021
2557.00,0.0021
2556.00,0.0021
2555.00,0.0021
2554.00,0.0020
2553.00,0.0020
2552.00,0.0019
2551.00,0.0019
2550.00,0.0019
2549.00,0.0018
2548.00,0.0018
2547.00,0.0018
2546.00,0.0017
2545.00,0.0016
2544.00,0.0015
2543.00,0.0015
2542.00,0.0015
2541.00,0.0015
2540.00,0.0015
2539.00,0.0015
2538.00,0.0015
2537.00,0.0015
2536.00,0.0015
2535.00,0.0015
2534.00,0.0014
2533.00,0.0014
2532.00,0.0014
2531.00,0.0015
2530.00,0.0015
2529.00,0.0015
2528.00,0.0015
2527.00,0.0015
2526.00,0.0015
2525.00,0.0014
2524.00,0.0013
2523.00,0.0013
2522.00,0.0012
2521.00,0.0011
2520.00,0.0011
2519.00,0.0011
2518.00,0.0011
2517.00,0.0010
2516.00,0.0010
2515.00,0.0010
2514.00,0.0010
2513.00,0.0010
2512.00,0.0009
2511.00,0.0009
2510.00,0.0009
2509.00,0.0009
2508.00,0.0009
2507.00,0.0009
2506.00,0.0008
2505.00,0.0008
2504.00,0.0008
2503.00,0.0009
2502.00,0.0010
2501.00,0.0010
2500.00,0.0011
2499.00,0.0011
2498.00,0.0011
2497.00,0.0011
2496.00,0.0011
2495.00,0.0010
2494.00,0.0010
2493.00,0.0009
2492.00,0.0009
2491.00,0.0009
2490.00,0.0009
2489.00,0.0009
2488.00,0.0008
2487.00,0.0008
2486.00,0.0008
2485.00,0.0009
2484.00,0.0009
2483.00,0.0010
2482.00,0.0009
2481.00,0.0009
2480.00,0.0008
2479.00,0.0008
2478.00,0.0007
2477.00,0.0008
2476.00,0.0008
2475.00,0.0008
2474.00,0.0008
2473.00,0.0007
2472.00,0.0007
2471.00,0.0007
2470.00,0.0007
2469.00,0.0007
2468.00,0.0007
2467.00,0.0007
2466.00,0.0007
2465.00,0.0007
2464.00,0.0008
2463.00,0.0008
2462.00,0.0008
2461.00,0.0007
2460.00,0.0007
2459.00,0.0007
2458.00,0.0008
2457.00,0.0008
2456.00,0.0009
2455.00,0.0009
2454.00,0.0009
2453.00,0.0009
2452.00,0.0009
2451.00,0.0009
2450.00,0.0010
2449.00,0.0010
2448.00,0.0009
2447.00,0.0009
2446.00,0.0009
2445.00,0.0009
2444.00,0.0009
2443.00,0.0009
2442.00,0.0009
2441.00,0.0008
2440.00,0.0008
2439.00,0.0008
2438.00,0.0008
2437.00,0.0009
2436.00,0.0010
2435.00,0.0010
2434.00,0.0011
2433.00,0.0011
2432.00,0.0011
2431.00,0.0010
2430.00,0.0010
2429.00,0.0009
2428.00,0.0009
2427.00,0.0009
2426.00,0.0009
2425.00,0.0009
2424.00,0.0009
2423.00,0.0009
2422.00,0.0009
2421.00,0.0008
2420.00,0.0008
2419.00,0.0007
2418.00,0.0007
2417.00,0.0007
2416.00,0.0007
2415.00,0.0007
2414.00,0.0008
2413.00,0.0009
2412.00,0.0009
2411.00,0.0009
2410.00,0.0009
2409.00,0.0009
2408.00,0.0009
2407.00,0.0009
2406.00,0.0008
2405.00,0.0008
2404.00,0.0008
2403.00,0.0008
2402.00,0.0007
2401.00,0.0007
2400.00,0.0007
2399.00,0.0007
2398.00,0.0007
2397.00,0.0008
2396.00,0.0007
2395.00,0.0007
2394.00,0.0007
2393.00,0.0006
2392.00,0.0006
2391.00,0.0005
2390.00,0.0005
2389.00,0.0004
2388.00,0.0004
2387.00,0.0004
2386.00,0.0003
2385.00,0.0002
2384.00,0.0001
2383.00,-0.0000
2382.00,-0.0001
2381.00,-0.0002
2380.00,-0.0003
2379.00,-0.0003
2378.00,-0.0002
2377.00,-0.0002
2376.00,-0.0001
2375.00,-0.0001
2374.00,-0.0000
2373.00,0.0000
2372.00,0.0000
2371.00,-0.0000
2370.00,-0.0001
2369.00,-0.0002
2368.00,-0.0002
2367.00,-0.0002
2366.00,-0.0003
2365.00,-0.0003
2364.00,-0.0003
2363.00,-0.0002
2362.00,-0.0001
2361.00,-0.0000
2360.00,0.0000
2359.00,0.0001
2358.00,0.0001
2357.00,0.0000
2356.00,0.0000
2355.00,-0.0000
2354.00,-0.0001
2353.00,-0.0001
2352.00,-0.0002
2351.00,-0.0001
2350.00,-0.0000
2349.00,0.0001
2348.00,0.0001
2347.00,0.0001
2346.00,0.0001
2345.00,0.0001
2344.00,0.0002
2343.00,0.0002
2342.00,0.0002
2341.00,0.0002
2340.00,0.0002
2339.00,0.0002
2338.00,0.0003
2337.00,0.0003
2336.00,0.0003
2335.00,0.0003
2334.00,0.0003
2333.00,0.0002
2332.00,0.0001
2331.00,0.0001
2330.00,0.0001
2329.00,0.0002
2328.00,0.0004
2327.00,0.0007
2326.00,0.0010
2325.00,0.0013
2324.00,0.0015
2323.00,0.0014
2322.00,0.0012
2321.00,0.0010
2320.00,0.0009
2319.00,0.0008
2318.00,0.0007
2317.00,0.0007
2316.00,0.0007
2315.00,0.0006
2314.00,0.0005
2313.00,0.0003
2312.00,0.0002
2311.00,0.0002
2310.00,0.0002
2309.00,0.0003
2308.00,0.0004
2307.00,0.0005
2306.00,0.0005
2305.00,0.0005
2304.00,0.0005
2303.00,0.0006
2302.00,0.0006
2301.00,0.0006
2300.00,0.0007
2299.00,0.0008
2298.00,0.0008
2297.00,0.0009
2296.00,0.0010
2295.00,0.0010
2294.00,0.0011
2293.00,0.0011
2292.00,0.0011
2291.00,0.0012
2290.00,0.0012
2289.00,0.0013
2288.00,0.0015
2287.00,0.0016
2286.00,0.0016
2285.00,0.0016
2284.00,0.0016
2283.00,0.0015
2282.00,0.0015
2281.00,0.0014
2280.00,0.0013
2279.00,0.0012
2278.00,0.0011
2277.00,0.0010
2276.00,0.0010
2275.00,0.0010
2274.00,0.0011
2273.00,0.0012
2272.00,0.0012
2271.00,0.0011
2270.00,0.0010
2269.00,0.0010
2268.00,0.0010
2267.00,0.0011
2266.00,0.0012
2265.00,0.0012
2264.00,0.0012
2263.00,0.0012
2262.00,0.0012
2261.00,0.0012
2260.00,0.0011
2259.00,0.0010
2258.00,0.0008
2257.00,0.0007
2256.00,0.0007
2255.00,0.0007
2254.00,0.0007
2253.00,0.0007
2252.00,0.0007
2251.00,0.0008
2250.00,0.0008
2249.00,0.0008
2248.00,0.0008
2247.00,0.0008
2246.00,0.0006
2245.00,0.0005
2244.00,0.0003
2243.00,0.0003
2242.00,0.0003
2241.00,0.0004
2240.00,0.0005
2239.00,0.0005
2238.00,0.0004
2237.00,0.0004
2236.00,0.0004
2235.00,0.0004
2234.00,0.0005
2233.00,0.0006
2232.00,0.0006
2231.00,0.0006
2230.00,0.0007
2229.00,0.0007
2228.00,0.0007
2227.00,0.0007
2226.00,0.0007
2225.00,0.0007
2224.00,0.0006
2223.00,0.0004
2222.00,0.0003
2221.00,0.0002
2220.00,0.0002
2219.00,0.0002
2218.00,0.0002
2217.00,0.0001
2216.00,0.0001
2215.00,0.0000
2214.00,0.0000
2213.00,0.0001
2212.00,0.0001
2211.00,0.0001
2210.00,0.0001
2209.00,0.0000
2208.00,-0.0001
2207.00,-0.0001
2206.00,-0.0001
2205.00,0.0001
2204.00,0.0003
2203.00,0.0006
2202.00,0.0006
2201.00,0.0005
2200.00,0.0004
2199.00,0.0003
2198.00,0.0005
2197.00,0.0007
2196.00,0.0009
2195.00,0.0010
2194.00,0.0010
2193.00,0.0008
2192.00,0.0007
2191.00,0.0006
2190.00,0.0007
2189.00,0.0009
2188.00,0.0010
2187.00,0.0010
2186.00,0.0009
2185.00,0.0007
2184.00,0.0007
2183.00,0.0007
2182.00,0.0008
2181.00,0.0009
2180.00,0.0010
2179.00,0.0011
2178.00,0.0011
2177.00,0.0009
2176.00,0.0007
2175.00,0.0004
2174.00,0.0003
2173.00,0.0005
2172.00,0.0007
2171.00,0.0010
2170.00,0.0012
2169.00,0.0014
2168.00,0.0015
2167.00,0.0016
2166.00,0.0017
2165.00,0.0017
2164.00,0.0016
2163.00,0.0016
2162.00,0.0016
2161.00,0.0012
2160.00,0.0002
2159.00,-0.0013
2158.00,-0.0026
2157.00,-0.0032
2156.00,-0.0031
2155.00,-0.0026
2154.00,-0.0021
2153.00,-0.0018
2152.00,-0.0017
2151.00,-0.0017
2150.00,-0.0017
2149.00,-0.0016
2148.00,-0.0015
2147.00,-0.0013
2146.00,-0.0012
2145.00,-0.0011
2144.00,-0.0010
2143.00,-0.0010
2142.00,-0.0010
2141.00,-0.0010
2140.00,-0.0010
2139.00,-0.0011
2138.00,-0.0012
2137.00,-0.0014
2136.00,-0.0016
2135.00,-0.0020
2134.00,-0.0023
2133.00,-0.0023
2132.00,-0.0020
2131.00,-0.0016
2130.00,-0.0012
2129.00,-0.0009
2128.00,-0.0007
2127.00,-0.0007
2126.00,-0.0007
2125.00,-0.0007
2124.00,-0.0007
2123.00,-0.0006
2122.00,-0.0005
2121.00,-0.0004
2120.00,-0.0003
2119.00,-0.0003
2118.00,-0.0002
2117.00,-0.0001
2116.00,0.0000
2115.00,0.0000
2114.00,-0.0000
2113.00,-0.0001
2112.00,-0.0002
2111.00,-0.0003
2110.00,-0.0002
2109.00,-0.0001
2108.00,-0.0001
2107.00,-0.0000
2106.00,0.0000
2105.00,0.0002
2104.00,0.0003
2103.00,0.0003
2102.00,0.0001
2101.00,-0.0000
2100.00,-0.0001
2099.00,-0.0001
2098.00,-0.0000
2097.00,-0.0001
2096.00,-0.0004
2095.00,-0.0006
2094.00,-0.0007
2093.00,-0.0006
2092.00,-0.0005
2091.00,-0.0005
2090.00,-0.0005
2089.00,-0.0005
2088.00,-0.0004
2087.00,-0.0003
2086.00,-0.0002
2085.00,-0.0001
2084.00,0.0000
2083.00,0.0001
2082.00,0.0001
2081.00,0.0001
2080.00,0.0002
2079.00,0.0002
2078.00,0.0003
2077.00,0.0004
2076.00,0.0004
2075.00,0.0004
2074.00,0.0003
2073.00,0.0001
2072.00,0.0000
2071.00,-0.0001
2070.00,-0.0001
2069.00,-0.0002
2068.00,-0.0003
2067.00,-0.0004
2066.00,-0.0004
2065.00,-0.0003
2064.00,-0.0002
2063.00,0.0000
2062.00,0.0002
2061.00,0.0002
2060.00,0.0001
2059.00,-0.0001
2058.00,-0.0002
2057.00,-0.0002
2056.00,-0.0003
2055.00,-0.0004
2054.00,-0.0004
2053.00,-0.0001
2052.00,0.0006
2051.00,0.0012
2050.00,0.0014
2049.00,0.0012
2048.00,0.0007
2047.00,0.0003
2046.00,0.0003
2045.00,0.0004
2044.00,0.0005
2043.00,0.0004
2042.00,0.0003
2041.00,0.0001
2040.00,0.0001
2039.00,-0.0001
2038.00,-0.0003
2037.00,-0.0006
2036.00,-0.0008
2035.00,-0.0008
2034.00,-0.0007
2033.00,-0.0005
2032.00,-0.0005
2031.00,-0.0006
2030.00,-0.0009
2029.00,-0.0011
2028.00,-0.0011
2027.00,-0.0011
2026.00,-0.0011
2025.00,-0.0013
2024.00,-0.0014
2023.00,-0.0016
2022.00,-0.0015
2021.00,-0.0013
2020.00,-0.0011
2019.00,-0.0011
2018.00,-0.0014
2017.00,-0.0016
2016.00,-0.0017
2015.00,-0.0016
2014.00,-0.0014
2013.00,-0.0013
2012.00,-0.0013
2011.00,-0.0013
2010.00,-0.0012
2009.00,-0.0011
2008.00,-0.0011
2007.00,-0.0013
2006.00,-0.0016
2005.00,-0.0018
2004.00,-0.0018
2003.00,-0.0018
2002.00,-0.0018
2001.00,-0.0018
2000.00,-0.0019
1999.00,-0.0019
1998.00,-0.0017
1997.00,-0.0014
1996.00,-0.0013
1995.00,-0.0013
1994.00,-0.0014
1993.00,-0.0014
1992.00,-0.0012
1991.00,-0.0010
1990.00,-0.0008
1989.00,-0.0007
1988.00,-0.0007
1987.00,-0.0006
1986.00,-0.0005
1985.00,-0.0003
1984.00,-0.0002
1983.00,-0.0001
1982.00,-0.0001
1981.00,0.0001
1980.00,0.0000
1979.00,-0.0003
1978.00,-0.0008
1977.00,-0.0012
1976.00,-0.0015
1975.00,-0.0016
1974.00,-0.0018
1973.00,-0.0019
1972.00,-0.0018
1971.00,-0.0016
1970.00,-0.0014
1969.00,-0.0013
1968.00,-0.0013
1967.00,-0.0015
1966.00,-0.0017
1965.00,-0.0018
1964.00,-0.0018
1963.00,-0.0016
1962.00,-0.0015
1961.00,-0.0014
1960.00,-0.0016
1959.00,-0.0020
1958.00,-0.0022
1957.00,-0.0021
1956.00,-0.0018
1955.00,-0.0015
1954.00,-0.0013
1953.00,-0.0014
1952.00,-0.0015
1951.00,-0.0017
1950.00,-0.0019
1949.00,-0.0020
1948.00,-0.0019
1947.00,-0.0017
1946.00,-0.0015
1945.00,-0.0014
1944.00,-0.0014
1943.00,-0.0015
1942.00,-0.0016
1941.00,-0.0016
1940.00,-0.0014
1939.00,-0.0012
1938.00,-0.0011
1937.00,-0.0011
1936.00,-0.0012
1935.00,-0.0014
1934.00,-0.0016
1933.00,-0.0017
1932.00,-0.0016
1931.00,-0.0014
1930.00,-0.0012
1929.00,-0.0011
1928.00,-0.0010
1927.00,-0.0009
1926.00,-0.0009
1925.00,-0.0008
1924.00,-0.0008
1923.00,-0.0008
1922.00,-0.0008
1921.00,-0.0007
1920.00,-0.0006
1919.00,-0.0005
1918.00,-0.0004
1917.00,-0.0004
1916.00,-0.0004
1915.00,-0.0004
1914.00,-0.0004
1913.00,-0.0005
1912.00,-0.0006
1911.00,-0.0008
1910.00,-0.0008
1909.00,-0.0008
1908.00,-0.0008
1907.00,-0.0007
1906.00,-0.0007
1905.00,-0.0007
1904.00,-0.0006
1903.00,-0.0006
1902.00,-0.0006
1901.00,-0.0006
1900.00,-0.0006
1899.00,-0.0006
1898.00,-0.0006
1897.00,-0.0006
1896.00,-0.0004
1895.00,-0.0003
1894.00,-0.0002
1893.00,-0.0002
1892.00,-0.0003
1891.00,-0.0004
1890.00,-0.0004
1889.00,-0.0004
1888.00,-0.0005
1887.00,-0.0005
1886.00,-0.0005
1885.00,-0.0004
1884.00,-0.0004
1883.00,-0.0004
1882.00,-0.0004
1881.00,-0.0004
1880.00,-0.0004
1879.00,-0.0004
1878.00,-0.0004
1877.00,-0.0004
1876.00,-0.0004
1875.00,-0.0003
1874.00,-0.0003
1873.00,-0.0002
1872.00,-0.0003
1871.00,-0.0004
1870.00,-0.0006
1869.00,-0.0006
1868.00,-0.0005
1867.00,-0.0004
1866.00,-0.0004
1865.00,-0.0003
1864.00,-0.0003
1863.00,-0.0004
1862.00,-0.0004
1861.00,-0.0004
1860.00,-0.0003
1859.00,-0.0002
1858.00,-0.0001
1857.00,-0.0001
1856.00,-0.0001
1855.00,-0.0002
1854.00,-0.0002
1853.00,-0.0001
1852.00,-0.0001
1851.00,-0.0001
1850.00,-0.0001
1849.00,-0.0001
1848.00,-0.0001
1847.00,-0.0002
1846.00,-0.0002
1845.00,-0.0002
1844.00,-0.0001
1843.00,-0.0001
1842.00,-0.0001
1841.00,-0.0001
1840.00,-0.0001
1839.00,-0.0001
1838.00,-0.0000
1837.00,0.0000
1836.00,-0.0000
1835.00,-0.0001
1834.00,-0.0001
1833.00,-0.0002
1832.00,-0.0001
1831.00,-0.0001
1830.00,-0.0000
1829.00,0.0000
1828.00,0.0001
1827.00,0.0001
1826.00,0.0001
1825.00,0.0001
1824.00,0.0002
1823.00,0.0002
1822.00,0.0002
1821.00,0.0001
1820.00,0.0000
1819.00,-0.0001
1818.00,-0.0002
1817.00,-0.0003
1816.00,-0.0002
1815.00,-0.0001
1814.00,-0.0001
1813.00,-0.0000
1812.00,0.0000
1811.00,0.0001
1810.00,0.0001
1809.00,0.0001
1808.00,0.0002
1807.00,0.0002
1806.00,0.0002
1805.00,0.0001
1804.00,0.0001
1803.00,0.0001
1802.00,0.0002
1801.00,0.0002
1800.00,0.0003
1799.00,0.0003
1798.00,0.0003
1797.00,0.0003
1796.00,0.0003
1795.00,0.0004
1794.00,0.0004
1793.00,0.0004
1792.00,0.0004
1791.00,0.0003
1790.00,0.0003
1789.00,0.0003
1788.00,0.0003
1787.00,0.0003
1786.00,0.0004
1785.00,0.0004
1784.00,0.0005
1783.00,0.0005
1782.00,0.0005
1781.00,0.0005
1780.00,0.0006
1779.00,0.0006
1778.00,0.0005
1777.00,0.0005
1776.00,0.0005
1775.00,0.0005
1774.00,0.0005
1773.00,0.0005
1772.00,0.0006
1771.00,0.0006
1770.00,0.0007
1769.00,0.0007
1768.00,0.0007
1767.00,0.0007
1766.00,0.0007
1765.00,0.0007
1764.00,0.0007
1763.00,0.0007
1762.00,0.0007
1761.00,0.0008
1760.00,0.0008
1759.00,0.0008
1758.00,0.0008
1757.00,0.0009
1756.00,0.0009
1755.00,0.0009
1754.00,0.0009
1753.00,0.0009
1752.00,0.0010
1751.00,0.0011
1750.00,0.0012
1749.00,0.0013
1748.00,0.0014
1747.00,0.0014
1746.00,0.0015
1745.00,0.0016
1744.00,0.0016
1743.00,0.0016
1742.00,0.0016
1741.00,0.0016
1740.00,0.0017
1739.00,0.0018
1738.00,0.0018
1737.00,0.0019
1736.00,0.0019
1735.00,0.0019
1734.00,0.0019
1733.00,0.0019
1732.00,0.0019
1731.00,0.0019
1730.00,0.0019
1729.00,0.0019
1728.00,0.0019
1727.00,0.0020
1726.00,0.0019
1725.00,0.0019
1724.00,0.0019
1723.00,0.0018
1722.00,0.0018
1721.00,0.0018
1720.00,0.0018
1719.00,0.0018
1718.00,0.0018
1717.00,0.0018
1716.00,0.0018
1715.00,0.0018
1714.00,0.0018
1713.00,0.0018
1712.00,0.0018
1711.00,0.0018
1710.00,0.0018
1709.00,0.0018
1708.00,0.0019
1707.00,0.0019
1706.00,0.0020
1705.00,0.0020
1704.00,0.0021
1703.00,0.0021
1702.00,0.0021
1701.00,0.0022
1700.00,0.0022
1699.00,0.0022
1698.00,0.0021
1697.00,0.0020
1696.00,0.0019
1695.00,0.0020
1694.00,0.0021
1693.00,0.0022
1692.00,0.0023
1691.00,0.0023
1690.00,0.0024
1689.00,0.0024
1688.00,0.0024
1687.00,0.0024
1686.00,0.0024
1685.00,0.0024
1684.00,0.0025
1683.00,0.0026
1682.00,0.0026
1681.00,0.0026
1680.00,0.0027
1679.00,0.0027
1678.00,0.0028
1677.00,0.0028
1676.00,0.0029
1675.00,0.0030
1674.00,0.0030
1673.00,0.0030
1672.00,0.0030
1671.00,0.0030
1670.00,0.0030
1669.00,0.0031
1668.00,0.0031
1667.00,0.0031
1666.00,0.0031
1665.00,0.0031
1664.00,0.0031
1663.00,0.0031
1662.00,0.0032
1661.00,0.0033
1660.00,0.0033
1659.00,0.0033
1658.00,0.0033
1657.00,0.0033
1656.00,0.0033
1655.00,0.0033
1654.00,0.0034
1653.00,0.0036
1652.00,0.0037
1651.00,0.0038
1650.00,0.0038
1649.00,0.0038
1648.00,0.0040
1647.00,0.0041
1646.00,0.0041
1645.00,0.0042
1644.00,0.0042
1643.00,0.0041
1642.00,0.0041
1641.00,0.0040
1640.00,0.0040
1639.00,0.0039
1638.00,0.0038
1637.00,0.0038
1636.00,0.0038
1635.00,0.0038
1634.00,0.0038
1633.00,0.0038
1632.00,0.0038
1631.00,0.0039
1630.00,0.0039
1629.00,0.0038
1628.00,0.0038
1627.00,0.0038
1626.00,0.0037
1625.00,0.0037
1624.00,0.0037
1623.00,0.0037
1622.00,0.0037
1621.00,0.0037
1620.00,0.0037
1619.00,0.0037
1618.00,0.0036
1617.00,0.0036
1616.00,0.0036
1615.00,0.0035
1614.00,0.0035
1613.00,0.0035
1612.00,0.0036
1611.00,0.0036
1610.00,0.0035
1609.00,0.0035
1608.00,0.0034
1607.00,0.0033
1606.00,0.0033
1605.00,0.0034
1604.00,0.0034
1603.00,0.0034
1602.00,0.0034
1601.00,0.0034
1600.00,0.0034
1599.00,0.0034
1598.00,0.0033
1597.00,0.0033
1596.00,0.0033
1595.00,0.0033
1594.00,0.0033
1593.00,0.0034
1592.00,0.0034
1591.00,0.0034
1590.00,0.0034
1589.00,0.0035
1588.00,0.0036
1587.00,0.0036
1586.00,0.0037
1585.00,0.0039
1584.00,0.0040
1583.00,0.0042
1582.00,0.0043
1581.00,0.0045
1580.00,0.0047
1579.00,0.0049
1578.00,0.0049
1577.00,0.0049
1576.00,0.0048
1575.00,0.0047
1574.00,0.0046
1573.00,0.0046
1572.00,0.0045
1571.00,0.0045
1570.00,0.0044
1569.00,0.0042
1568.00,0.0042
1567.00,0.0041
1566.00,0.0040
1565.00,0.0039
1564.00,0.0039
1563.00,0.0039
1562.00,0.0040
1561.00,0.0040
1560.00,0.0040
1559.00,0.0040
1558.00,0.0040
1557.00,0.0040
1556.00,0.0040
1555.00,0.0041
1554.00,0.0041
1553.00,0.0042
1552.00,0.0043
1551.00,0.0044
1550.00,0.0045
1549.00,0.0046
1548.00,0.0047
1547.00,0.0047
1546.00,0.0048
1545.00,0.0049
1544.00,0.0052
1543.00,0.0054
1542.00,0.0055
1541.00,0.0056
1540.00,0.0055
1539.00,0.0053
1538.00,0.0051
1537.00,0.0050
1536.00,0.0049
1535.00,0.0048
1534.00,0.0046
1533.00,0.0044
1532.00,0.0043
1531.00,0.0042
1530.00,0.0041
1529.00,0.0041
1528.00,0.0040
1527.00,0.0040
1526.00,0.0039
1525.00,0.0039
1524.00,0.0040
1523.00,0.0040
1522.00,0.0040
1521.00,0.0040
1520.00,0.0041
1519.00,0.0041
1518.00,0.0041
1517.00,0.0043
1516.00,0.0044
1515.00,0.0044
1514.00,0.0045
1513.00,0.0045
1512.00,0.0046
1511.00,0.0047
1510.00,0.0048
1509.00,0.0048
1508.00,0.0049
1507.00,0.0049
1506.00,0.0050
1505.00,0.0052
1504.00,0.0054
1503.00,0.0056
1502.00,0.0057
1501.00,0.0059
1500.00,0.0062
1499.00,0.0064
1498.00,0.0067
1497.00,0.0070
1496.00,0.0074
1495.00,0.0076
1494.00,0.0078
1493.00,0.0081
1492.00,0.0084
1491.00,0.0087
1490.00,0.0090
1489.00,0.0095
1488.00,0.0100
1487.00,0.0106
1486.00,0.0111
1485.00,0.0118
1484.00,0.0126
1483.00,0.0134
1482.00,0.0144
1481.00,0.0155
1480.00,0.0168
1479.00,0.0180
1478.00,0.0195
1477.00,0.0214
1476.00,0.0237
1475.00,0.0264
1474.00,0.0300
1473.00,0.0354
1472.00,0.0420
1471.00,0.0486
1470.00,0.0549
1469.00,0.0616
1468.00,0.0689
1467.00,0.0770
1466.00,0.0864
1465.00,0.0967
1464.00,0.1059
1463.00,0.1125
1462.00,0.1169
1461.00,0.1201
1460.00,0.1224
1459.00,0.1239
1458.00,0.1251
1457.00,0.1258
1456.00,0.1258
1455.00,0.1250
1454.00,0.1239
1453.00,0.1221
1452.00,0.1193
1451.00,0.1152
1450.00,0.1094
1449.00,0.1014
1448.00,0.0914
1447.00,0.0809
1446.00,0.0718
1445.00,0.0641
1444.00,0.0576
1443.00,0.0523
1442.00,0.0485
1441.00,0.0460
1440.00,0.0446
1439.00,0.0442
1438.00,0.0447
1437.00,0.0453
1436.00,0.0446
1435.00,0.0420
1434.00,0.0380
1433.00,0.0331
1432.00,0.0280
1431.00,0.0236
1430.00,0.0202
1429.00,0.0178
1428.00,0.0162
1427.00,0.0152
1426.00,0.0146
1425.00,0.0140
1424.00,0.0134
1423.00,0.0131
1422.00,0.0130
1421.00,0.0127
1420.00,0.0124
1419.00,0.0120
1418.00,0.0117
1417.00,0.0114
1416.00,0.0112
1415.00,0.0111
1414.00,0.0110
1413.00,0.0109
1412.00,0.0107
1411.00,0.0107
1410.00,0.0107
1409.00,0.0106
1408.00,0.0105
1407.00,0.0105
1406.00,0.0106
1405.00,0.0106
1404.00,0.0105
1403.00,0.0106
1402.00,0.0107
1401.00,0.0108
1400.00,0.0109
1399.00,0.0111
1398.00,0.0114
1397.00,0.0116
1396.00,0.0118
1395.00,0.0122
1394.00,0.0128
1393.00,0.0134
1392.00,0.0140
1391.00,0.0149
1390.00,0.0162
1389.00,0.0179
1388.00,0.0204
1387.00,0.0241
1386.00,0.0291
1385.00,0.0355
1384.00,0.0440
1383.00,0.0556
1382.00,0.0711
1381.00,0.0914
1380.00,0.1171
1379.00,0.1475
1378.00,0.1785
1377.00,0.2033
1376.00,0.2146
1375.00,0.2073
1374.00,0.1830
1373.00,0.1515
1372.00,0.1217
1371.00,0.0967
1370.00,0.0767
1369.00,0.0614
1368.00,0.0509
1367.00,0.0445
1366.00,0.0411
1365.00,0.0397
1364.00,0.0400
1363.00,0.0417
1362.00,0.0442
1361.00,0.0470
1360.00,0.0491
1359.00,0.0497
1358.00,0.0484
1357.00,0.0453
1356.00,0.0410
1355.00,0.0361
1354.00,0.0314
1353.00,0.0274
1352.00,0.0241
1351.00,0.0216
1350.00,0.0195
1349.00,0.0178
1348.00,0.0164
1347.00,0.0153
1346.00,0.0145
1345.00,0.0138
1344.00,0.0132
1343.00,0.0128
1342.00,0.0124
1341.00,0.0121
1340.00,0.0118
1339.00,0.0116
1338.00,0.0115
1337.00,0.0115
1336.00,0.0117
1335.00,0.0120
1334.00,0.0123
1333.00,0.0128
1332.00,0.0133
1331.00,0.0137
1330.00,0.0138
1329.00,0.0136
1328.00,0.0132
1327.00,0.0126
1326.00,0.0119
1325.00,0.0112
1324.00,0.0105
1323.00,0.0100
1322.00,0.0095
1321.00,0.0092
1320.00,0.0089
1319.00,0.0087
1318.00,0.0084
1317.00,0.0082
1316.00,0.0080
1315.00,0.0079
1314.00,0.0078
1313.00,0.0078
1312.00,0.0079
1311.00,0.0081
1310.00,0.0084
1309.00,0.0089
1308.00,0.0096
1307.00,0.0106
1306.00,0.0115
1305.00,0.0122
1304.00,0.0125
1303.00,0.0125
1302.00,0.0123
1301.00,0.0122
1300.00,0.0122
1299.00,0.0123
1298.00,0.0125
1297.00,0.0126
1296.00,0.0126
1295.00,0.0123
1294.00,0.0119
1293.00,0.0114
1292.00,0.0108
1291.00,0.0103
1290.00,0.0098
1289.00,0.0094
1288.00,0.0090
1287.00,0.0086
1286.00,0.0084
1285.00,0.0081
1284.00,0.0080
1283.00,0.0078
1282.00,0.0077
1281.00,0.0076
1280.00,0.0075
1279.00,0.0073
1278.00,0.0072
1277.00,0.0072
1276.00,0.0071
1275.00,0.0071
1274.00,0.0071
1273.00,0.0071
1272.00,0.0071
1271.00,0.0070
1270.00,0.0070
1269.00,0.0071
1268.00,0.0071
1267.00,0.0072
1266.00,0.0073
1265.00,0.0074
1264.00,0.0076
1263.00,0.0079
1262.00,0.0082
1261.00,0.0085
1260.00,0.0090
1259.00,0.0096
1258.00,0.0103
1257.00,0.0108
1256.00,0.0110
1255.00,0.0109
1254.00,0.0105
1253.00,0.0099
1252.00,0.0093
1251.00,0.0088
1250.00,0.0085
1249.00,0.0082
1248.00,0.0080
1247.00,0.0078
1246.00,0.0076
1245.00,0.0075
1244.00,0.0074
1243.00,0.0073
1242.00,0.0072
1241.00,0.0072
1240.00,0.0072
1239.00,0.0072
1238.00,0.0072
1237.00,0.0072
1236.00,0.0071
1235.00,0.0071
1234.00,0.0070
1233.00,0.0070
1232.00,0.0070
1231.00,0.0070
1230.00,0.0071
1229.00,0.0072
1228.00,0.0074
1227.00,0.0075
1226.00,0.0077
1225.00,0.0080
1224.00,0.0082
1223.00,0.0086
1222.00,0.0089
1221.00,0.0093
1220.00,0.0096
1219.00,0.0097
1218.00,0.0097
1217.00,0.0096
1216.00,0.0093
1215.00,0.0090
1214.00,0.0086
1213.00,0.0083
1212.00,0.0080
1211.00,0.0078
1210.00,0.0076
1209.00,0.0074
1208.00,0.0072
1207.00,0.0071
1206.00,0.0070
1205.00,0.0069
1204.00,0.0068
1203.00,0.0068
1202.00,0.0068
1201.00,0.0068
1200.00,0.0068
1199.00,0.0068
1198.00,0.0067
1197.00,0.0067
1196.00,0.0067
1195.00,0.0067
1194.00,0.0067
1193.00,0.0068
1192.00,0.0068
1191.00,0.0068
1190.00,0.0068
1189.00,0.0067
1188.00,0.0067
1187.00,0.0067
1186.00,0.0068
1185.00,0.0070
1184.00,0.0071
1183.00,0.0072
1182.00,0.0073
1181.00,0.0075
1180.00,0.0077
1179.00,0.0081
1178.00,0.0086
1177.00,0.0092
1176.00,0.0102
1175.00,0.0114
1174.00,0.0129
1173.00,0.0148
1172.00,0.0172
1171.00,0.0199
1170.00,0.0225
1169.00,0.0248
1168.00,0.0262
1167.00,0.0268
1166.00,0.0264
1165.00,0.0255
1164.00,0.0243
1163.00,0.0231
1162.00,0.0219
1161.00,0.0209
1160.00,0.0201
1159.00,0.0195
1158.00,0.0190
1157.00,0.0187
1156.00,0.0184
1155.00,0.0183
1154.00,0.0182
1153.00,0.0179
1152.00,0.0175
1151.00,0.0169
1150.00,0.0161
1149.00,0.0152
1148.00,0.0143
1147.00,0.0134
1146.00,0.0126
1145.00,0.0118
1144.00,0.0110
1143.00,0.0103
1142.00,0.0096
1141.00,0.0091
1140.00,0.0086
1139.00,0.0082
1138.00,0.0079
1137.00,0.0076
1136.00,0.0074
1135.00,0.0072
1134.00,0.0071
1133.00,0.0070
1132.00,0.0070
1131.00,0.0069
1130.00,0.0069
1129.00,0.0069
1128.00,0.0069
1127.00,0.0070
1126.00,0.0071
1125.00,0.0071
1124.00,0.0070
1123.00,0.0069
1122.00,0.0068
1121.00,0.0069
1120.00,0.0070
1119.00,0.0071
1118.00,0.0073
1117.00,0.0074
1116.00,0.0076
1115.00,0.0077
1114.00,0.0078
1113.00,0.0079
1112.00,0.0080
1111.00,0.0083
1110.00,0.0087
1109.00,0.0092
1108.00,0.0098
1107.00,0.0105
1106.00,0.0113
1105.00,0.0120
1104.00,0.0127
1103.00,0.0132
1102.00,0.0133
1101.00,0.0130
1100.00,0.0124
1099.00,0.0116
1098.00,0.0108
1097.00,0.0101
1096.00,0.0094
1095.00,0.0089
1094.00,0.0085
1093.00,0.0082
1092.00,0.0079
1091.00,0.0078
1090.00,0.0076
1089.00,0.0075
1088.00,0.0074
1087.00,0.0073
1086.00,0.0072
1085.00,0.0071
1084.00,0.0071
1083.00,0.0070
1082.00,0.0069
1081.00,0.0067
1080.00,0.0066
1079.00,0.0065
1078.00,0.0063
1077.00,0.0062
1076.00,0.0061
1075.00,0.0060
1074.00,0.0061
1073.00,0.0062
1072.00,0.0064
1071.00,0.0065
1070.00,0.0065
1069.00,0.0065
1068.00,0.0064
1067.00,0.0063
1066.00,0.0063
1065.00,0.0063
1064.00,0.0064
1063.00,0.0065
1062.00,0.0065
1061.00,0.0065
1060.00,0.0066
1059.00,0.0067
1058.00,0.0068
1057.00,0.0069
1056.00,0.0069
1055.00,0.0068
1054.00,0.0067
1053.00,0.0067
1052.00,0.0067
1051.00,0.0068
1050.00,0.0070
1049.00,0.0073
1048.00,0.0075
1047.00,0.0077
1046.00,0.0079
1045.00,0.0080
1044.00,0.0080
1043.00,0.0079
1042.00,0.0078
1041.00,0.0078
1040.00,0.0077
1039.00,0.0077
1038.00,0.0077
1037.00,0.0077
1036.00,0.0077
1035.00,0.0076
1034.00,0.0075
1033.00,0.0075
1032.00,0.0074
1031.00,0.0073
1030.00,0.0073
1029.00,0.0073
1028.00,0.0073
1027.00,0.0073
1026.00,0.0073
1025.00,0.0073
1024.00,0.0073
1023.00,0.0073
1022.00,0.0073
1021.00,0.0074
1020.00,0.0074
1019.00,0.0074
1018.00,0.0075
1017.00,0.0076
1016.00,0.0078
1015.00,0.0081
1014.00,0.0084
1013.00,0.0087
1012.00,0.0090
1011.00,0.0093
1010.00,0.0095
1009.00,0.0098
1008.00,0.0102
1007.00,0.0108
1006.00,0.0115
1005.00,0.0124
1004.00,0.0137
1003.00,0.0155
1002.00,0.0178
1001.00,0.0206
1000.00,0.0235
999.00,0.0259
998.00,0.0270
997.00,0.0264
996.00,0.0242
995.00,0.0212
994.00,0.0180
993.00,0.0154
992.00,0.0133
991.00,0.0119
990.00,0.0109
989.00,0.0102
988.00,0.0098
987.00,0.0096
986.00,0.0097
985.00,0.0100
984.00,0.0105
983.00,0.0112
982.00,0.0123
981.00,0.0138
980.00,0.0158
979.00,0.0184
978.00,0.0216
977.00,0.0251
976.00,0.0288
975.00,0.0322
974.00,0.0345
973.00,0.0351
972.00,0.0337
971.00,0.0305
970.00,0.0263
969.00,0.0221
968.00,0.0186
967.00,0.0158
966.00,0.0138
965.00,0.0123
964.00,0.0112
963.00,0.0104
962.00,0.0098
961.00,0.0092
960.00,0.0088
959.00,0.0084
958.00,0.0082
957.00,0.0080
956.00,0.0078
955.00,0.0077
954.00,0.0075
953.00,0.0074
952.00,0.0073
951.00,0.0073
950.00,0.0074
949.00,0.0075
948.00,0.0076
947.00,0.0078
946.00,0.0080
945.00,0.0083
944.00,0.0085
943.00,0.0088
942.00,0.0090
941.00,0.0091
940.00,0.0090
939.00,0.0088
938.00,0.0084
937.00,0.0080
936.00,0.0075
935.00,0.0071
934.00,0.0068
933.00,0.0065
932.00,0.0062
931.00,0.0059
930.00,0.0057
929.00,0.0056
928.00,0.0057
927.00,0.0057
926.00,0.0058
925.00,0.0058
924.00,0.0058
923.00,0.0059
922.00,0.0060
921.00,0.0061
920.00,0.0062
919.00,0.0063
918.00,0.0064
917.00,0.0066
916.00,0.0067
915.00,0.0067
914.00,0.0066
913.00,0.0066
912.00,0.0067
911.00,0.0068
910.00,0.0069
909.00,0.0070
908.00,0.0073
907.00,0.0077
906.00,0.0085
905.00,0.0098
904.00,0.0115
903.00,0.0135
902.00,0.0158
901.00,0.0179
900.00,0.0193
899.00,0.0197
898.00,0.0189
897.00,0.0172
896.00,0.0151
895.00,0.0129
894.00,0.0110
893.00,0.0096
892.00,0.0086
891.00,0.0080
890.00,0.0077
889.00,0.0074
888.00,0.0071
887.00,0.0069
886.00,0.0067
885.00,0.0066
884.00,0.0066
883.00,0.0065
882.00,0.0064
881.00,0.0064
880.00,0.0063
879.00,0.0064
878.00,0.0065
877.00,0.0066
876.00,0.0067
875.00,0.0068
874.00,0.0069
873.00,0.0069
872.00,0.0069
871.00,0.0068
870.00,0.0066
869.00,0.0065
868.00,0.0065
867.00,0.0065
866.00,0.0066
865.00,0.0068
864.00,0.0069
863.00,0.0070
862.00,0.0071
861.00,0.0072
860.00,0.0074
859.00,0.0076
858.00,0.0077
857.00,0.0079
856.00,0.0080
855.00,0.0082
854.00,0.0083
853.00,0.0084
852.00,0.0086
851.00,0.0090
850.00,0.0095
849.00,0.0101
848.00,0.0108
847.00,0.0119
846.00,0.0135
845.00,0.0159
844.00,0.0191
843.00,0.0225
842.00,0.0249
841.00,0.0254
840.00,0.0235
839.00,0.0204
838.00,0.0171
837.00,0.0145
836.00,0.0128
835.00,0.0119
834.00,0.0113
833.00,0.0109
832.00,0.0106
831.00,0.0103
830.00,0.0099
829.00,0.0097
828.00,0.0095
827.00,0.0094
826.00,0.0094
825.00,0.0094
824.00,0.0095
823.00,0.0095
822.00,0.0095
821.00,0.0096
820.00,0.0098
819.00,0.0101
818.00,0.0106
817.00,0.0113
816.00,0.0123
815.00,0.0135
814.00,0.0151
813.00,0.0169
812.00,0.0187
811.00,0.0205
810.00,0.0218
809.00,0.0224
808.00,0.0221
807.00,0.0210
806.00,0.0195
805.00,0.0177
804.00,0.0159
803.00,0.0143
802.00,0.0130
801.00,0.0119
800.00,0.0111
799.00,0.0105
798.00,0.0101
797.00,0.0096
796.00,0.0092
795.00,0.0088
794.00,0.0083
793.00,0.0080
792.00,0.0077
791.00,0.0076
790.00,0.0074
789.00,0.0072
788.00,0.0070
787.00,0.0069
786.00,0.0067
785.00,0.0065
784.00,0.0062
783.00,0.0060
782.00,0.0058
781.00,0.0056
780.00,0.0056
779.00,0.0056
778.00,0.0056
777.00,0.0057
776.00,0.0058
775.00,0.0059
774.00,0.0059
773.00,0.0058
772.00,0.0058
771.00,0.0059
770.00,0.0060
769.00,0.0061
768.00,0.0062
767.00,0.0062
766.00,0.0062
765.00,0.0061
764.00,0.0059
763.00,0.0058
762.00,0.0057
761.00,0.0056
760.00,0.0054
759.00,0.0052
758.00,0.0049
757.00,0.0048
756.00,0.0046
755.00,0.0046
754.00,0.0046
753.00,0.0047
752.00,0.0047
751.00,0.0048
750.00,0.0050
749.00,0.0050
748.00,0.0050
747.00,0.0050
746.00,0.0051
745.00,0.0051
744.00,0.0051
743.00,0.0051
742.00,0.0052
741.00,0.0054
740.00,0.0056
739.00,0.0058
738.00,0.0060
737.00,0.0062
736.00,0.0064
735.00,0.0066
734.00,0.0068
733.00,0.0070
732.00,0.0071
731.00,0.0070
730.00,0.0068
729.00,0.0067
728.00,0.0065
727.00,0.0064
726.00,0.0062
725.00,0.0060
724.00,0.0057
723.00,0.0056
722.00,0.0055
721.00,0.0054
720.00,0.0053
719.00,0.0053
718.00,0.0054
717.00,0.0054
716.00,0.0053
715.00,0.0051
714.00,0.0049
713.00,0.0047
712.00,0.0047
711.00,0.0048
710.00,0.0050
709.00,0.0051
708.00,0.0051
707.00,0.0051
706.00,0.0052
705.00,0.0052
704.00,0.0052
703.00,0.0052
702.00,0.0052
701.00,0.0051
700.00,0.0049
699.00,0.0048
698.00,0.0047
697.00,0.0046
696.00,0.0046
695.00,0.0045
694.00,0.0046
693.00,0.0045
692.00,0.0044
691.00,0.0042
690.00,0.0041
689.00,0.0040
688.00,0.0039
687.00,0.0039
686.00,0.0040
685.00,0.0042
684.00,0.0043
683.00,0.0044
682.00,0.0045
681.00,0.0045
680.00,0.0045
679.00,0.0045
678.00,0.0046
677.00,0.0046
676.00,0.0046
675.00,0.0046
674.00,0.0046
673.00,0.0046
672.00,0.0047
671.00,0.0049
670.00,0.0052
669.00,0.0054
668.00,0.0056
667.00,0.0055
666.00,0.0052
665.00,0.0051
664.00,0.0050
663.00,0.0049
662.00,0.0048
661.00,0.0048
660.00,0.0049
659.00,0.0050
658.00,0.0051
657.00,0.0052
656.00,0.0052
655.00,0.0051
654.00,0.0050
653.00,0.0049
652.00,0.0047
651.00,0.0044
650.00,0.0043
649.00,0.0043
648.00,0.0045
647.00,0.0047
646.00,0.0047
645.00,0.0045
644.00,0.0045
643.00,0.0045
642.00,0.0046
641.00,0.0047
640.00,0.0047
639.00,0.0046
638.00,0.0045
637.00,0.0045
636.00,0.0044
635.00,0.0045
634.00,0.0044
633.00,0.0044
632.00,0.0045
631.00,0.0047
630.00,0.0051
629.00,0.0053
628.00,0.0053
627.00,0.0051
626.00,0.0047
625.00,0.0045
624.00,0.0046
623.00,0.0047
622.00,0.0047
621.00,0.0046
620.00,0.0045
619.00,0.0043
618.00,0.0043
617.00,0.0043
616.00,0.0045
615.00,0.0048
614.00,0.0050
613.00,0.0050
612.00,0.0050
611.00,0.0051
610.00,0.0052
609.00,0.0052
608.00,0.0051
607.00,0.0050
606.00,0.0051
605.00,0.0051
604.00,0.0052
603.00,0.0053
602.00,0.0054
601.00,0.0053
600.00,0.0052
599.00,0.0051
598.00,0.0052
597.00,0.0051
596.00,0.0050
595.00,0.0048
594.00,0.0047
593.00,0.0047
592.00,0.0047
591.00,0.0047
590.00,0.0046
589.00,0.0046
588.00,0.0046
587.00,0.0047
586.00,0.0047
585.00,0.0045
584.00,0.0042
583.00,0.0040
582.00,0.0040
581.00,0.0041
580.00,0.0043
579.00,0.0047
578.00,0.0050
577.00,0.0051
576.00,0.0052
575.00,0.0052
574.00,0.0052
573.00,0.0052
572.00,0.0053
571.00,0.0054
570.00,0.0054
569.00,0.0054
568.00,0.0054
567.00,0.0054
566.00,0.0054
565.00,0.0053
564.00,0.0051
563.00,0.0052
562.00,0.0054
561.00,0.0056
560.00,0.0056
559.00,0.0054
558.00,0.0052
557.00,0.0050
556.00,0.0048
555.00,0.0048
554.00,0.0049
553.00,0.0051
552.00,0.0054
551.00,0.0059
550.00,0.0063
549.00,0.0063
548.00,0.0060
547.00,0.0057
546.00,0.0056
545.00,0.0059
544.00,0.0061
543.00,0.0064
542.00,0.0064
541.00,0.0064
540.00,0.0064
539.00,0.0064
538.00,0.0063
537.00,0.0061
536.00,0.0061
535.00,0.0065
534.00,0.0069
533.00,0.0071
532.00,0.0070
531.00,0.0069
530.00,0.0070
529.00,0.0073
528.00,0.0078
527.00,0.0083
526.00,0.0087
525.00,0.0085
524.00,0.0080
523.00,0.0076
522.00,0.0075
521.00,0.0075
520.00,0.0073
519.00,0.0070
518.00,0.0067
517.00,0.0066
516.00,0.0064
515.00,0.0064
514.00,0.0066
513.00,0.0067
512.00,0.0065
511.00,0.0060
510.00,0.0056
509.00,0.0052
508.00,0.0048
507.00,0.0044
506.00,0.0045
505.00,0.0050
504.00,0.0054
503.00,0.0053
502.00,0.0050
501.00,0.0046
500.00,0.0043
499.00,0.0041
498.00,0.0038
497.00,0.0037
496.00,0.0038
495.00,0.0044
494.00,0.0054
493.00,0.0063
492.00,0.0067
491.00,0.0066
490.00,0.0067
489.00,0.0072
488.00,0.0078
487.00,0.0083
486.00,0.0085
485.00,0.0084
484.00,0.0080
483.00,0.0075
482.00,0.0070
481.00,0.0065
480.00,0.0060
479.00,0.0053
478.00,0.0047
477.00,0.0040
476.00,0.0035
475.00,0.0031
474.00,0.0031
473.00,0.0038
472.00,0.0053
471.00,0.0069
470.00,0.0079
469.00,0.0079
468.00,0.0073
467.00,0.0068
466.00,0.0071
465.00,0.0083
464.00,0.0102
463.00,0.0123
462.00,0.0143
461.00,0.0160
460.00,0.0174
459.00,0.0182
458.00,0.0178
457.00,0.0161
456.00,0.0139
455.00,0.0121
454.00,0.0108
453.00,0.0098
452.00,0.0089
451.00,0.0082
450.00,0.0077
