Created as New Dataset,Sample 176 By Administrator Date Wednesday, September 10 2025
cm-1,A
4000.00,0.0008
3999.00,0.0008
3998.00,0.0008
3997.00,0.0008
3996.00,0.0008
3995.00,0.0008
3994.00,0.0008
3993.00,0.0008
3992.00,0.0008
3991.00,0.0007
3990.00,0.0008
3989.00,0.0008
3988.00,0.0008
3987.00,0.0008
3986.00,0.0008
3985.00,0.0008
3984.00,0.0007
3983.00,0.0007
3982.00,0.0007
3981.00,0.0007
3980.00,0.0007
3979.00,0.0007
3978.00,0.0007
3977.00,0.0007
3976.00,0.0006
3975.00,0.0006
3974.00,0.0006
3973.00,0.0007
3972.00,0.0007
3971.00,0.0007
3970.00,0.0007
3969.00,0.0007
3968.00,0.0007
3967.00,0.0006
3966.00,0.0006
3965.00,0.0006
3964.00,0.0006
3963.00,0.0007
3962.00,0.0007
3961.00,0.0007
3960.00,0.0007
3959.00,0.0006
3958.00,0.0006
3957.00,0.0006
3956.00,0.0006
3955.00,0.0007
3954.00,0.0007
3953.00,0.0006
3952.00,0.0006
3951.00,0.0006
3950.00,0.0006
3949.00,0.0006
3948.00,0.0006
3947.00,0.0006
3946.00,0.0006
3945.00,0.0006
3944.00,0.0006
3943.00,0.0006
3942.00,0.0006
3941.00,0.0006
3940.00,0.0007
3939.00,0.0007
3938.00,0.0007
3937.00,0.0007
3936.00,0.0007
3935.00,0.0007
3934.00,0.0007
3933.00,0.0007
3932.00,0.0007
3931.00,0.0007
3930.00,0.0007
3929.00,0.0007
3928.00,0.0007
3927.00,0.0007
3926.00,0.0007
3925.00,0.0006
3924.00,0.0006
3923.00,0.0006
3922.00,0.0006
3921.00,0.0006
3920.00,0.0006
3919.00,0.0006
3918.00,0.0006
3917.00,0.0006
3916.00,0.0006
3915.00,0.0006
3914.00,0.0006
3913.00,0.0006
3912.00,0.0006
3911.00,0.0006
3910.00,0.0006
3909.00,0.0006
3908.00,0.0006
3907.00,0.0006
3906.00,0.0006
3905.00,0.0006
3904.00,0.0006
3903.00,0.0006
3902.00,0.0005
3901.00,0.0005
3900.00,0.0005
3899.00,0.0005
3898.00,0.0005
3897.00,0.0005
3896.00,0.0006
3895.00,0.0006
3894.00,0.0006
3893.00,0.0007
3892.00,0.0007
3891.00,0.0007
3890.00,0.0007
3889.00,0.0007
3888.00,0.0006
3887.00,0.0006
3886.00,0.0006
3885.00,0.0005
3884.00,0.0005
3883.00,0.0006
3882.00,0.0006
3881.00,0.0006
3880.00,0.0006
3879.00,0.0006
3878.00,0.0006
3877.00,0.0007
3876.00,0.0007
3875.00,0.0007
3874.00,0.0007
3873.00,0.0006
3872.00,0.0006
3871.00,0.0006
3870.00,0.0006
3869.00,0.0006
3868.00,0.0005
3867.00,0.0005
3866.00,0.0006
3865.00,0.0006
3864.00,0.0006
3863.00,0.0006
3862.00,0.0005
3861.00,0.0005
3860.00,0.0005
3859.00,0.0005
3858.00,0.0005
3857.00,0.0004
3856.00,0.0004
3855.00,0.0004
3854.00,0.0004
3853.00,0.0004
3852.00,0.0004
3851.00,0.0004
3850.00,0.0004
3849.00,0.0005
3848.00,0.0005
3847.00,0.0005
3846.00,0.0006
3845.00,0.0006
3844.00,0.0006
3843.00,0.0006
3842.00,0.0006
3841.00,0.0006
3840.00,0.0005
3839.00,0.0005
3838.00,0.0005
3837.00,0.0005
3836.00,0.0005
3835.00,0.0005
3834.00,0.0005
3833.00,0.0005
3832.00,0.0006
3831.00,0.0006
3830.00,0.0006
3829.00,0.0006
3828.00,0.0005
3827.00,0.0005
3826.00,0.0005
3825.00,0.0004
3824.00,0.0004
3823.00,0.0004
3822.00,0.0004
3821.00,0.0004
3820.00,0.0004
3819.00,0.0004
3818.00,0.0005
3817.00,0.0006
3816.00,0.0007
3815.00,0.0007
3814.00,0.0007
3813.00,0.0006
3812.00,0.0006
3811.00,0.0006
3810.00,0.0006
3809.00,0.0005
3808.00,0.0005
3807.00,0.0005
3806.00,0.0005
3805.00,0.0005
3804.00,0.0005
3803.00,0.0005
3802.00,0.0005
3801.00,0.0006
3800.00,0.0005
3799.00,0.0006
3798.00,0.0006
3797.00,0.0006
3796.00,0.0007
3795.00,0.0007
3794.00,0.0007
3793.00,0.0007
3792.00,0.0007
3791.00,0.0007
3790.00,0.0007
3789.00,0.0007
3788.00,0.0007
3787.00,0.0006
3786.00,0.0006
3785.00,0.0006
3784.00,0.0006
3783.00,0.0006
3782.00,0.0006
3781.00,0.0006
3780.00,0.0006
3779.00,0.0006
3778.00,0.0006
3777.00,0.0006
3776.00,0.0006
3775.00,0.0007
3774.00,0.0007
3773.00,0.0007
3772.00,0.0006
3771.00,0.0006
3770.00,0.0006
3769.00,0.0006
3768.00,0.0006
3767.00,0.0006
3766.00,0.0007
3765.00,0.0007
3764.00,0.0007
3763.00,0.0006
3762.00,0.0006
3761.00,0.0006
3760.00,0.0006
3759.00,0.0006
3758.00,0.0006
3757.00,0.0006
3756.00,0.0005
3755.00,0.0005
3754.00,0.0004
3753.00,0.0004
3752.00,0.0004
3751.00,0.0004
3750.00,0.0005
3749.00,0.0005
3748.00,0.0005
3747.00,0.0005
3746.00,0.0005
3745.00,0.0005
3744.00,0.0004
3743.00,0.0004
3742.00,0.0003
3741.00,0.0003
3740.00,0.0003
3739.00,0.0003
3738.00,0.0003
3737.00,0.0003
3736.00,0.0003
3735.00,0.0004
3734.00,0.0004
3733.00,0.0004
3732.00,0.0004
3731.00,0.0004
3730.00,0.0005
3729.00,0.0006
3728.00,0.0006
3727.00,0.0007
3726.00,0.0006
3725.00,0.0006
3724.00,0.0005
3723.00,0.0005
3722.00,0.0004
3721.00,0.0004
3720.00,0.0004
3719.00,0.0004
3718.00,0.0004
3717.00,0.0004
3716.00,0.0004
3715.00,0.0004
3714.00,0.0004
3713.00,0.0004
3712.00,0.0004
3711.00,0.0004
3710.00,0.0005
3709.00,0.0005
3708.00,0.0005
3707.00,0.0005
3706.00,0.0005
3705.00,0.0005
3704.00,0.0005
3703.00,0.0005
3702.00,0.0005
3701.00,0.0005
3700.00,0.0005
3699.00,0.0005
3698.00,0.0005
3697.00,0.0004
3696.00,0.0004
3695.00,0.0004
3694.00,0.0004
3693.00,0.0003
3692.00,0.0003
3691.00,0.0003
3690.00,0.0003
3689.00,0.0003
3688.00,0.0004
3687.00,0.0004
3686.00,0.0004
3685.00,0.0004
3684.00,0.0004
3683.00,0.0004
3682.00,0.0004
3681.00,0.0004
3680.00,0.0004
3679.00,0.0004
3678.00,0.0004
3677.00,0.0005
3676.00,0.0006
3675.00,0.0006
3674.00,0.0006
3673.00,0.0005
3672.00,0.0005
3671.00,0.0005
3670.00,0.0005
3669.00,0.0004
3668.00,0.0004
3667.00,0.0004
3666.00,0.0004
3665.00,0.0005
3664.00,0.0005
3663.00,0.0005
3662.00,0.0005
3661.00,0.0005
3660.00,0.0004
3659.00,0.0004
3658.00,0.0004
3657.00,0.0004
3656.00,0.0004
3655.00,0.0004
3654.00,0.0005
3653.00,0.0005
3652.00,0.0005
3651.00,0.0005
3650.00,0.0005
3649.00,0.0005
3648.00,0.0004
3647.00,0.0004
3646.00,0.0004
3645.00,0.0004
3644.00,0.0004
3643.00,0.0004
3642.00,0.0004
3641.00,0.0004
3640.00,0.0004
3639.00,0.0004
3638.00,0.0005
3637.00,0.0005
3636.00,0.0006
3635.00,0.0006
3634.00,0.0006
3633.00,0.0005
3632.00,0.0005
3631.00,0.0004
3630.00,0.0004
3629.00,0.0005
3628.00,0.0005
3627.00,0.0005
3626.00,0.0005
3625.00,0.0006
3624.00,0.0006
3623.00,0.0006
3622.00,0.0006
3621.00,0.0007
3620.00,0.0007
3619.00,0.0007
3618.00,0.0007
3617.00,0.0007
3616.00,0.0007
3615.00,0.0008
3614.00,0.0009
3613.00,0.0009
3612.00,0.0009
3611.00,0.0009
3610.00,0.0009
3609.00,0.0008
3608.00,0.0008
3607.00,0.0008
3606.00,0.0008
3605.00,0.0008
3604.00,0.0008
3603.00,0.0008
3602.00,0.0009
3601.00,0.0009
3600.00,0.0010
3599.00,0.0010
3598.00,0.0010
3597.00,0.0009
3596.00,0.0009
3595.00,0.0009
3594.00,0.0009
3593.00,0.0009
3592.00,0.0009
3591.00,0.0010
3590.00,0.0010
3589.00,0.0010
3588.00,0.0011
3587.00,0.0012
3586.00,0.0012
3585.00,0.0012
3584.00,0.0012
3583.00,0.0012
3582.00,0.0012
3581.00,0.0012
3580.00,0.0012
3579.00,0.0012
3578.00,0.0012
3577.00,0.0012
3576.00,0.0013
3575.00,0.0013
3574.00,0.0013
3573.00,0.0014
3572.00,0.0014
3571.00,0.0013
3570.00,0.0013
3569.00,0.0013
3568.00,0.0014
3567.00,0.0014
3566.00,0.0015
3565.00,0.0015
3564.00,0.0016
3563.00,0.0016
3562.00,0.0017
3561.00,0.0018
3560.00,0.0018
3559.00,0.0018
3558.00,0.0018
3557.00,0.0018
3556.00,0.0018
3555.00,0.0018
3554.00,0.0018
3553.00,0.0018
3552.00,0.0019
3551.00,0.0019
3550.00,0.0019
3549.00,0.0019
3548.00,0.0020
3547.00,0.0020
3546.00,0.0021
3545.00,0.0021
3544.00,0.0021
3543.00,0.0021
3542.00,0.0021
3541.00,0.0021
3540.00,0.0021
3539.00,0.0022
3538.00,0.0022
3537.00,0.0023
3536.00,0.0023
3535.00,0.0023
3534.00,0.0023
3533.00,0.0023
3532.00,0.0023
3531.00,0.0023
3530.00,0.0023
3529.00,0.0024
3528.00,0.0024
3527.00,0.0024
3526.00,0.0024
3525.00,0.0024
3524.00,0.0025
3523.00,0.0025
3522.00,0.0025
3521.00,0.0025
3520.00,0.0025
3519.00,0.0026
3518.00,0.0026
3517.00,0.0026
3516.00,0.0027
3515.00,0.0027
3514.00,0.0027
3513.00,0.0027
3512.00,0.0027
3511.00,0.0028
3510.00,0.0028
3509.00,0.0028
3508.00,0.0029
3507.00,0.0029
3506.00,0.0029
3505.00,0.0029
3504.00,0.0030
3503.00,0.0030
3502.00,0.0030
3501.00,0.0030
3500.00,0.0030
3499.00,0.0030
3498.00,0.0031
3497.00,0.0031
3496.00,0.0032
3495.00,0.0032
3494.00,0.0032
3493.00,0.0032
3492.00,0.0033
3491.00,0.0033
3490.00,0.0033
3489.00,0.0034
3488.00,0.0034
3487.00,0.0034
3486.00,0.0034
3485.00,0.0033
3484.00,0.0033
3483.00,0.0033
3482.00,0.0033
3481.00,0.0033
3480.00,0.0033
3479.00,0.0034
3478.00,0.0034
3477.00,0.0034
3476.00,0.0035
3475.00,0.0035
3474.00,0.0035
3473.00,0.0035
3472.00,0.0034
3471.00,0.0035
3470.00,0.0035
3469.00,0.0035
3468.00,0.0036
3467.00,0.0037
3466.00,0.0037
3465.00,0.0037
3464.00,0.0037
3463.00,0.0038
3462.00,0.0038
3461.00,0.0038
3460.00,0.0038
3459.00,0.0038
3458.00,0.0038
3457.00,0.0039
3456.00,0.0039
3455.00,0.0040
3454.00,0.0040
3453.00,0.0040
3452.00,0.0040
3451.00,0.0039
3450.00,0.0039
3449.00,0.0039
3448.00,0.0039
3447.00,0.0040
3446.00,0.0040
3445.00,0.0041
3444.00,0.0041
3443.00,0.0041
3442.00,0.0042
3441.00,0.0042
3440.00,0.0042
3439.00,0.0043
3438.00,0.0043
3437.00,0.0043
3436.00,0.0043
3435.00,0.0043
3434.00,0.0043
3433.00,0.0043
3432.00,0.0044
3431.00,0.0044
3430.00,0.0044
3429.00,0.0044
3428.00,0.0045
3427.00,0.0045
3426.00,0.0045
3425.00,0.0045
3424.00,0.0045
3423.00,0.0046
3422.00,0.0046
3421.00,0.0046
3420.00,0.0047
3419.00,0.0047
3418.00,0.0047
3417.00,0.0047
3416.00,0.0047
3415.00,0.0047
3414.00,0.0047
3413.00,0.0047
3412.00,0.0048
3411.00,0.0049
3410.00,0.0049
3409.00,0.0050
3408.00,0.0050
3407.00,0.0050
3406.00,0.0050
3405.00,0.0050
3404.00,0.0050
3403.00,0.0051
3402.00,0.0051
3401.00,0.0051
3400.00,0.0052
3399.00,0.0052
3398.00,0.0052
3397.00,0.0052
3396.00,0.0052
3395.00,0.0052
3394.00,0.0051
3393.00,0.0051
3392.00,0.0052
3391.00,0.0052
3390.00,0.0052
3389.00,0.0051
3388.00,0.0051
3387.00,0.0051
3386.00,0.0051
3385.00,0.0050
3384.00,0.0050
3383.00,0.0050
3382.00,0.0050
3381.00,0.0051
3380.00,0.0051
3379.00,0.0051
3378.00,0.0051
3377.00,0.0051
3376.00,0.0051
3375.00,0.0051
3374.00,0.0051
3373.00,0.0051
3372.00,0.0051
3371.00,0.0051
3370.00,0.0051
3369.00,0.0051
3368.00,0.0051
3367.00,0.0051
3366.00,0.0051
3365.00,0.0051
3364.00,0.0051
3363.00,0.0051
3362.00,0.0051
3361.00,0.0052
3360.00,0.0052
3359.00,0.0052
3358.00,0.0052
3357.00,0.0052
3356.00,0.0052
3355.00,0.0051
3354.00,0.0051
3353.00,0.0051
3352.00,0.0052
3351.00,0.0052
3350.00,0.0052
3349.00,0.0052
3348.00,0.0052
3347.00,0.0052
3346.00,0.0052
3345.00,0.0052
3344.00,0.0052
3343.00,0.0051
3342.00,0.0051
3341.00,0.0051
3340.00,0.0051
3339.00,0.0051
3338.00,0.0051
3337.00,0.0051
3336.00,0.0051
3335.00,0.0051
3334.00,0.0051
3333.00,0.0051
3332.00,0.0051
3331.00,0.0051
3330.00,0.0051
3329.00,0.0050
3328.00,0.0050
3327.00,0.0050
3326.00,0.0050
3325.00,0.0050
3324.00,0.0050
3323.00,0.0050
3322.00,0.0049
3321.00,0.0049
3320.00,0.0048
3319.00,0.0048
3318.00,0.0048
3317.00,0.0048
3316.00,0.0048
3315.00,0.0049
3314.00,0.0049
3313.00,0.0049
3312.00,0.0049
3311.00,0.0049
3310.00,0.0049
3309.00,0.0049
3308.00,0.0049
3307.00,0.0048
3306.00,0.0048
3305.00,0.0047
3304.00,0.0047
3303.00,0.0048
3302.00,0.0048
3301.00,0.0048
3300.00,0.0048
3299.00,0.0048
3298.00,0.0048
3297.00,0.0047
3296.00,0.0047
3295.00,0.0047
3294.00,0.0047
3293.00,0.0047
3292.00,0.0047
3291.00,0.0047
3290.00,0.0047
3289.00,0.0047
3288.00,0.0047
3287.00,0.0047
3286.00,0.0047
3285.00,0.0047
3284.00,0.0046
3283.00,0.0046
3282.00,0.0046
3281.00,0.0046
3280.00,0.0045
3279.00,0.0045
3278.00,0.0045
3277.00,0.0045
3276.00,0.0045
3275.00,0.0044
3274.00,0.0044
3273.00,0.0044
3272.00,0.0043
3271.00,0.0043
3270.00,0.0043
3269.00,0.0043
3268.00,0.0043
3267.00,0.0043
3266.00,0.0043
3265.00,0.0043
3264.00,0.0043
3263.00,0.0043
3262.00,0.0043
3261.00,0.0043
3260.00,0.0043
3259.00,0.0043
3258.00,0.0042
3257.00,0.0042
3256.00,0.0042
3255.00,0.0041
3254.00,0.0041
3253.00,0.0041
3252.00,0.0040
3251.00,0.0040
3250.00,0.0040
3249.00,0.0039
3248.00,0.0039
3247.00,0.0039
3246.00,0.0039
3245.00,0.0039
3244.00,0.0039
3243.00,0.0040
3242.00,0.0040
3241.00,0.0040
3240.00,0.0041
3239.00,0.0041
3238.00,0.0041
3237.00,0.0041
3236.00,0.0041
3235.00,0.0041
3234.00,0.0041
3233.00,0.0041
3232.00,0.0041
3231.00,0.0042
3230.00,0.0042
3229.00,0.0042
3228.00,0.0042
3227.00,0.0042
3226.00,0.0041
3225.00,0.0041
3224.00,0.0041
3223.00,0.0042
3222.00,0.0042
3221.00,0.0042
3220.00,0.0042
3219.00,0.0042
3218.00,0.0042
3217.00,0.0043
3216.00,0.0043
3215.00,0.0043
3214.00,0.0044
3213.00,0.0044
3212.00,0.0045
3211.00,0.0045
3210.00,0.0045
3209.00,0.0046
3208.00,0.0046
3207.00,0.0046
3206.00,0.0046
3205.00,0.0046
3204.00,0.0046
3203.00,0.0046
3202.00,0.0046
3201.00,0.0046
3200.00,0.0046
3199.00,0.0046
3198.00,0.0046
3197.00,0.0046
3196.00,0.0046
3195.00,0.0046
3194.00,0.0046
3193.00,0.0046
3192.00,0.0047
3191.00,0.0047
3190.00,0.0047
3189.00,0.0047
3188.00,0.0047
3187.00,0.0046
3186.00,0.0046
3185.00,0.0045
3184.00,0.0045
3183.00,0.0045
3182.00,0.0044
3181.00,0.0044
3180.00,0.0044
3179.00,0.0044
3178.00,0.0044
3177.00,0.0044
3176.00,0.0044
3175.00,0.0044
3174.00,0.0044
3173.00,0.0043
3172.00,0.0043
3171.00,0.0042
3170.00,0.0042
3169.00,0.0041
3168.00,0.0041
3167.00,0.0041
3166.00,0.0041
3165.00,0.0041
3164.00,0.0041
3163.00,0.0041
3162.00,0.0041
3161.00,0.0040
3160.00,0.0040
3159.00,0.0039
3158.00,0.0039
3157.00,0.0039
3156.00,0.0039
3155.00,0.0039
3154.00,0.0039
3153.00,0.0039
3152.00,0.0039
3151.00,0.0039
3150.00,0.0039
3149.00,0.0038
3148.00,0.0039
3147.00,0.0039
3146.00,0.0039
3145.00,0.0039
3144.00,0.0039
3143.00,0.0038
3142.00,0.0038
3141.00,0.0037
3140.00,0.0037
3139.00,0.0037
3138.00,0.0037
3137.00,0.0037
3136.00,0.0037
3135.00,0.0037
3134.00,0.0037
3133.00,0.0037
3132.00,0.0037
3131.00,0.0037
3130.00,0.0037
3129.00,0.0036
3128.00,0.0036
3127.00,0.0035
3126.00,0.0034
3125.00,0.0034
3124.00,0.0033
3123.00,0.0033
3122.00,0.0033
3121.00,0.0033
3120.00,0.0033
3119.00,0.0033
3118.00,0.0032
3117.00,0.0032
3116.00,0.0032
3115.00,0.0032
3114.00,0.0032
3113.00,0.0032
3112.00,0.0032
3111.00,0.0032
3110.00,0.0031
3109.00,0.0031
3108.00,0.0031
3107.00,0.0031
3106.00,0.0031
3105.00,0.0031
3104.00,0.0030
3103.00,0.0030
3102.00,0.0029
3101.00,0.0029
3100.00,0.0030
3099.00,0.0030
3098.00,0.0030
3097.00,0.0030
3096.00,0.0030
3095.00,0.0029
3094.00,0.0029
3093.00,0.0029
3092.00,0.0028
3091.00,0.0028
3090.00,0.0029
3089.00,0.0029
3088.00,0.0029
3087.00,0.0029
3086.00,0.0028
3085.00,0.0028
3084.00,0.0027
3083.00,0.0027
3082.00,0.0027
3081.00,0.0027
3080.00,0.0027
3079.00,0.0028
3078.00,0.0028
3077.00,0.0028
3076.00,0.0029
3075.00,0.0029
3074.00,0.0029
3073.00,0.0029
3072.00,0.0029
3071.00,0.0028
3070.00,0.0028
3069.00,0.0029
3068.00,0.0029
3067.00,0.0029
3066.00,0.0030
3065.00,0.0030
3064.00,0.0030
3063.00,0.0030
3062.00,0.0030
3061.00,0.0030
3060.00,0.0030
3059.00,0.0030
3058.00,0.0030
3057.00,0.0030
3056.00,0.0031
3055.00,0.0031
3054.00,0.0032
3053.00,0.0031
3052.00,0.0031
3051.00,0.0031
3050.00,0.0031
3049.00,0.0031
3048.00,0.0031
3047.00,0.0032
3046.00,0.0032
3045.00,0.0033
3044.00,0.0033
3043.00,0.0034
3042.00,0.0034
3041.00,0.0034
3040.00,0.0034
3039.00,0.0035
3038.00,0.0035
3037.00,0.0035
3036.00,0.0035
3035.00,0.0035
3034.00,0.0035
3033.00,0.0035
3032.00,0.0036
3031.00,0.0036
3030.00,0.0037
3029.00,0.0037
3028.00,0.0038
3027.00,0.0039
3026.00,0.0039
3025.00,0.0039
3024.00,0.0040
3023.00,0.0040
3022.00,0.0041
3021.00,0.0043
3020.00,0.0044
3019.00,0.0045
3018.00,0.0046
3017.00,0.0047
3016.00,0.0048
3015.00,0.0049
3014.00,0.0050
3013.00,0.0051
3012.00,0.0052
3011.00,0.0053
3010.00,0.0055
3009.00,0.0056
3008.00,0.0058
3007.00,0.0060
3006.00,0.0061
3005.00,0.0063
3004.00,0.0065
3003.00,0.0068
3002.00,0.0070
3001.00,0.0073
3000.00,0.0076
2999.00,0.0079
2998.00,0.0082
2997.00,0.0085
2996.00,0.0089
2995.00,0.0093
2994.00,0.0098
2993.00,0.0103
2992.00,0.0109
2991.00,0.0115
2990.00,0.0122
2989.00,0.0130
2988.00,0.0139
2987.00,0.0148
2986.00,0.0159
2985.00,0.0171
2984.00,0.0184
2983.00,0.0200
2982.00,0.0217
2981.00,0.0236
2980.00,0.0258
2979.00,0.0282
2978.00,0.0310
2977.00,0.0342
2976.00,0.0378
2975.00,0.0420
2974.00,0.0467
2973.00,0.0521
2972.00,0.0581
2971.00,0.0650
2970.00,0.0727
2969.00,0.0812
2968.00,0.0907
2967.00,0.1009
2966.00,0.1120
2965.00,0.1238
2964.00,0.1359
2963.00,0.1479
2962.00,0.1593
2961.00,0.1695
2960.00,0.1779
2959.00,0.1844
2958.00,0.1890
2957.00,0.1920
2956.00,0.1941
2955.00,0.1958
2954.00,0.1975
2953.00,0.1992
2952.00,0.2005
2951.00,0.2007
2950.00,0.1989
2949.00,0.1944
2948.00,0.1870
2947.00,0.1769
2946.00,0.1648
2945.00,0.1518
2944.00,0.1393
2943.00,0.1281
2942.00,0.1190
2941.00,0.1123
2940.00,0.1080
2939.00,0.1060
2938.00,0.1061
2937.00,0.1079
2936.00,0.1113
2935.00,0.1161
2934.00,0.1223
2933.00,0.1296
2932.00,0.1378
2931.00,0.1467
2930.00,0.1560
2929.00,0.1654
2928.00,0.1746
2927.00,0.1834
2926.00,0.1916
2925.00,0.1993
2924.00,0.2065
2923.00,0.2135
2922.00,0.2202
2921.00,0.2265
2920.00,0.2321
2919.00,0.2365
2918.00,0.2391
2917.00,0.2393
2916.00,0.2372
2915.00,0.2329
2914.00,0.2269
2913.00,0.2201
2912.00,0.2130
2911.00,0.2064
2910.00,0.2004
2909.00,0.1949
2908.00,0.1897
2907.00,0.1845
2906.00,0.1792
2905.00,0.1734
2904.00,0.1673
2903.00,0.1609
2902.00,0.1542
2901.00,0.1475
2900.00,0.1408
2899.00,0.1345
2898.00,0.1285
2897.00,0.1230
2896.00,0.1182
2895.00,0.1140
2894.00,0.1106
2893.00,0.1078
2892.00,0.1057
2891.00,0.1042
2890.00,0.1032
2889.00,0.1027
2888.00,0.1027
2887.00,0.1030
2886.00,0.1036
2885.00,0.1045
2884.00,0.1058
2883.00,0.1074
2882.00,0.1094
2881.00,0.1115
2880.00,0.1136
2879.00,0.1152
2878.00,0.1162
2877.00,0.1164
2876.00,0.1159
2875.00,0.1151
2874.00,0.1144
2873.00,0.1142
2872.00,0.1147
2871.00,0.1158
2870.00,0.1174
2869.00,0.1190
2868.00,0.1199
2867.00,0.1194
2866.00,0.1168
2865.00,0.1119
2864.00,0.1050
2863.00,0.0970
2862.00,0.0887
2861.00,0.0811
2860.00,0.0746
2859.00,0.0694
2858.00,0.0656
2857.00,0.0629
2856.00,0.0612
2855.00,0.0602
2854.00,0.0600
2853.00,0.0605
2852.00,0.0616
2851.00,0.0632
2850.00,0.0654
2849.00,0.0682
2848.00,0.0717
2847.00,0.0759
2846.00,0.0810
2845.00,0.0870
2844.00,0.0939
2843.00,0.1014
2842.00,0.1090
2841.00,0.1163
2840.00,0.1224
2839.00,0.1263
2838.00,0.1271
2837.00,0.1244
2836.00,0.1182
2835.00,0.1090
2834.00,0.0980
2833.00,0.0865
2832.00,0.0755
2831.00,0.0658
2830.00,0.0575
2829.00,0.0508
2828.00,0.0453
2827.00,0.0409
2826.00,0.0373
2825.00,0.0344
2824.00,0.0319
2823.00,0.0298
2822.00,0.0280
2821.00,0.0264
2820.00,0.0250
2819.00,0.0238
2818.00,0.0228
2817.00,0.0219
2816.00,0.0211
2815.00,0.0204
2814.00,0.0198
2813.00,0.0193
2812.00,0.0187
2811.00,0.0182
2810.00,0.0177
2809.00,0.0171
2808.00,0.0166
2807.00,0.0160
2806.00,0.0154
2805.00,0.0147
2804.00,0.0141
2803.00,0.0135
2802.00,0.0130
2801.00,0.0125
2800.00,0.0121
2799.00,0.0118
2798.00,0.0116
2797.00,0.0113
2796.00,0.0111
2795.00,0.0109
2794.00,0.0106
2793.00,0.0103
2792.00,0.0099
2791.00,0.0096
2790.00,0.0092
2789.00,0.0088
2788.00,0.0085
2787.00,0.0082
2786.00,0.0079
2785.00,0.0076
2784.00,0.0073
2783.00,0.0071
2782.00,0.0069
2781.00,0.0067
2780.00,0.0065
2779.00,0.0063
2778.00,0.0062
2777.00,0.0061
2776.00,0.0059
2775.00,0.0058
2774.00,0.0057
2773.00,0.0056
2772.00,0.0056
2771.00,0.0055
2770.00,0.0055
2769.00,0.0055
2768.00,0.0055
2767.00,0.0054
2766.00,0.0054
2765.00,0.0053
2764.00,0.0053
2763.00,0.0052
2762.00,0.0052
2761.00,0.0052
2760.00,0.0051
2759.00,0.0051
2758.00,0.0051
2757.00,0.0050
2756.00,0.0050
2755.00,0.0050
2754.00,0.0050
2753.00,0.0050
2752.00,0.0050
2751.00,0.0050
2750.00,0.0049
2749.00,0.0049
2748.00,0.0050
2747.00,0.0050
2746.00,0.0051
2745.00,0.0052
2744.00,0.0053
2743.00,0.0054
2742.00,0.0055
2741.00,0.0056
2740.00,0.0057
2739.00,0.0058
2738.00,0.0060
2737.00,0.0061
2736.00,0.0063
2735.00,0.0064
2734.00,0.0065
2733.00,0.0066
2732.00,0.0067
2731.00,0.0069
2730.00,0.0072
2729.00,0.0074
2728.00,0.0077
2727.00,0.0079
2726.00,0.0082
2725.00,0.0084
2724.00,0.0086
2723.00,0.0086
2722.00,0.0085
2721.00,0.0084
2720.00,0.0081
2719.00,0.0078
2718.00,0.0075
2717.00,0.0072
2716.00,0.0069
2715.00,0.0066
2714.00,0.0063
2713.00,0.0061
2712.00,0.0059
2711.00,0.0057
2710.00,0.0055
2709.00,0.0054
2708.00,0.0053
2707.00,0.0052
2706.00,0.0051
2705.00,0.0050
2704.00,0.0049
2703.00,0.0049
2702.00,0.0048
2701.00,0.0047
2700.00,0.0047
2699.00,0.0046
2698.00,0.0045
2697.00,0.0045
2696.00,0.0045
2695.00,0.0044
2694.00,0.0044
2693.00,0.0044
2692.00,0.0044
2691.00,0.0044
2690.00,0.0043
2689.00,0.0043
2688.00,0.0043
2687.00,0.0043
2686.00,0.0043
2685.00,0.0044
2684.00,0.0044
2683.00,0.0044
2682.00,0.0044
2681.00,0.0044
2680.00,0.0044
2679.00,0.0044
2678.00,0.0044
2677.00,0.0044
2676.00,0.0044
2675.00,0.0044
2674.00,0.0044
2673.00,0.0044
2672.00,0.0044
2671.00,0.0043
2670.00,0.0043
2669.00,0.0043
2668.00,0.0043
2667.00,0.0043
2666.00,0.0044
2665.00,0.0044
2664.00,0.0045
2663.00,0.0046
2662.00,0.0046
2661.00,0.0047
2660.00,0.0047
2659.00,0.0047
2658.00,0.0047
2657.00,0.0047
2656.00,0.0046
2655.00,0.0046
2654.00,0.0045
2653.00,0.0044
2652.00,0.0043
2651.00,0.0043
2650.00,0.0043
2649.00,0.0042
2648.00,0.0042
2647.00,0.0041
2646.00,0.0041
2645.00,0.0041
2644.00,0.0040
2643.00,0.0040
2642.00,0.0040
2641.00,0.0040
2640.00,0.0039
2639.00,0.0038
2638.00,0.0038
2637.00,0.0037
2636.00,0.0037
2635.00,0.0037
2634.00,0.0037
2633.00,0.0037
2632.00,0.0037
2631.00,0.0037
2630.00,0.0037
2629.00,0.0037
2628.00,0.0038
2627.00,0.0038
2626.00,0.0038
2625.00,0.0038
2624.00,0.0038
2623.00,0.0039
2622.00,0.0039
2621.00,0.0040
2620.00,0.0040
2619.00,0.0040
2618.00,0.0040
2617.00,0.0040
2616.00,0.0039
2615.00,0.0039
2614.00,0.0039
2613.00,0.0039
2612.00,0.0038
2611.00,0.0037
2610.00,0.0037
2609.00,0.0036
2608.00,0.0035
2607.00,0.0034
2606.00,0.0033
2605.00,0.0032
2604.00,0.0032
2603.00,0.0031
2602.00,0.0031
2601.00,0.0030
2600.00,0.0031
2599.00,0.0031
2598.00,0.0031
2597.00,0.0031
2596.00,0.0031
2595.00,0.0031
2594.00,0.0031
2593.00,0.0031
2592.00,0.0032
2591.00,0.0032
2590.00,0.0033
2589.00,0.0033
2588.00,0.0034
2587.00,0.0034
2586.00,0.0035
2585.00,0.0036
2584.00,0.0037
2583.00,0.0038
2582.00,0.0038
2581.00,0.0038
2580.00,0.0036
2579.00,0.0035
2578.00,0.0034
2577.00,0.0033
2576.00,0.0033
2575.00,0.0032
2574.00,0.0032
2573.00,0.0031
2572.00,0.0030
2571.00,0.0029
2570.00,0.0028
2569.00,0.0027
2568.00,0.0026
2567.00,0.0025
2566.00,0.0024
2565.00,0.0024
2564.00,0.0024
2563.00,0.0024
2562.00,0.0024
2561.00,0.0024
2560.00,0.0024
2559.00,0.0023
2558.00,0.0023
2557.00,0.0022
2556.00,0.0022
2555.00,0.0022
2554.00,0.0022
2553.00,0.0022
2552.00,0.0020
2551.00,0.0019
2550.00,0.0018
2549.00,0.0018
2548.00,0.0018
2547.00,0.0018
2546.00,0.0017
2545.00,0.0017
2544.00,0.0016
2543.00,0.0016
2542.00,0.0016
2541.00,0.0016
2540.00,0.0016
2539.00,0.0016
2538.00,0.0016
2537.00,0.0016
2536.00,0.0016
2535.00,0.0016
2534.00,0.0016
2533.00,0.0015
2532.00,0.0016
2531.00,0.0016
2530.00,0.0016
2529.00,0.0016
2528.00,0.0016
2527.00,0.0015
2526.00,0.0015
2525.00,0.0014
2524.00,0.0013
2523.00,0.0013
2522.00,0.0013
2521.00,0.0013
2520.00,0.0013
2519.00,0.0012
2518.00,0.0012
2517.00,0.0011
2516.00,0.0011
2515.00,0.0011
2514.00,0.0011
2513.00,0.0010
2512.00,0.0010
2511.00,0.0010
2510.00,0.0011
2509.00,0.0011
2508.00,0.0011
2507.00,0.0010
2506.00,0.0010
2505.00,0.0010
2504.00,0.0010
2503.00,0.0011
2502.00,0.0011
2501.00,0.0011
2500.00,0.0011
2499.00,0.0010
2498.00,0.0010
2497.00,0.0010
2496.00,0.0010
2495.00,0.0010
2494.00,0.0010
2493.00,0.0010
2492.00,0.0010
2491.00,0.0010
2490.00,0.0010
2489.00,0.0010
2488.00,0.0010
2487.00,0.0010
2486.00,0.0010
2485.00,0.0010
2484.00,0.0009
2483.00,0.0009
2482.00,0.0009
2481.00,0.0009
2480.00,0.0008
2479.00,0.0008
2478.00,0.0008
2477.00,0.0008
2476.00,0.0008
2475.00,0.0008
2474.00,0.0008
2473.00,0.0009
2472.00,0.0009
2471.00,0.0009
2470.00,0.0010
2469.00,0.0009
2468.00,0.0009
2467.00,0.0009
2466.00,0.0008
2465.00,0.0009
2464.00,0.0010
2463.00,0.0010
2462.00,0.0011
2461.00,0.0010
2460.00,0.0010
2459.00,0.0010
2458.00,0.0009
2457.00,0.0009
2456.00,0.0010
2455.00,0.0010
2454.00,0.0010
2453.00,0.0010
2452.00,0.0011
2451.00,0.0011
2450.00,0.0012
2449.00,0.0012
2448.00,0.0011
2447.00,0.0011
2446.00,0.0010
2445.00,0.0009
2444.00,0.0009
2443.00,0.0009
2442.00,0.0009
2441.00,0.0010
2440.00,0.0010
2439.00,0.0011
2438.00,0.0011
2437.00,0.0011
2436.00,0.0011
2435.00,0.0011
2434.00,0.0012
2433.00,0.0012
2432.00,0.0012
2431.00,0.0012
2430.00,0.0012
2429.00,0.0012
2428.00,0.0012
2427.00,0.0012
2426.00,0.0012
2425.00,0.0012
2424.00,0.0011
2423.00,0.0011
2422.00,0.0011
2421.00,0.0010
2420.00,0.0010
2419.00,0.0009
2418.00,0.0008
2417.00,0.0008
2416.00,0.0008
2415.00,0.0008
2414.00,0.0008
2413.00,0.0009
2412.00,0.0010
2411.00,0.0011
2410.00,0.0011
2409.00,0.0011
2408.00,0.0010
2407.00,0.0009
2406.00,0.0008
2405.00,0.0008
2404.00,0.0008
2403.00,0.0008
2402.00,0.0008
2401.00,0.0008
2400.00,0.0008
2399.00,0.0008
2398.00,0.0008
2397.00,0.0008
2396.00,0.0008
2395.00,0.0007
2394.00,0.0007
2393.00,0.0007
2392.00,0.0006
2391.00,0.0006
2390.00,0.0006
2389.00,0.0006
2388.00,0.0006
2387.00,0.0006
2386.00,0.0006
2385.00,0.0005
2384.00,0.0004
2383.00,0.0003
2382.00,0.0003
2381.00,0.0002
2380.00,0.0001
2379.00,0.0001
2378.00,0.0001
2377.00,0.0001
2376.00,0.0002
2375.00,0.0002
2374.00,0.0003
2373.00,0.0004
2372.00,0.0004
2371.00,0.0003
2370.00,0.0003
2369.00,0.0002
2368.00,0.0002
2367.00,0.0002
2366.00,0.0001
2365.00,0.0001
2364.00,0.0002
2363.00,0.0003
2362.00,0.0005
2361.00,0.0007
2360.00,0.0007
2359.00,0.0007
2358.00,0.0007
2357.00,0.0006
2356.00,0.0005
2355.00,0.0004
2354.00,0.0003
2353.00,0.0002
2352.00,0.0003
2351.00,0.0004
2350.00,0.0005
2349.00,0.0005
2348.00,0.0005
2347.00,0.0005
2346.00,0.0005
2345.00,0.0006
2344.00,0.0006
2343.00,0.0007
2342.00,0.0007
2341.00,0.0007
2340.00,0.0007
2339.00,0.0007
2338.00,0.0007
2337.00,0.0008
2336.00,0.0008
2335.00,0.0008
2334.00,0.0007
2333.00,0.0006
2332.00,0.0006
2331.00,0.0005
2330.00,0.0005
2329.00,0.0006
2328.00,0.0008
2327.00,0.0011
2326.00,0.0015
2325.00,0.0018
2324.00,0.0019
2323.00,0.0018
2322.00,0.0016
2321.00,0.0015
2320.00,0.0013
2319.00,0.0013
2318.00,0.0012
2317.00,0.0012
2316.00,0.0011
2315.00,0.0009
2314.00,0.0008
2313.00,0.0006
2312.00,0.0006
2311.00,0.0006
2310.00,0.0006
2309.00,0.0007
2308.00,0.0007
2307.00,0.0008
2306.00,0.0008
2305.00,0.0008
2304.00,0.0008
2303.00,0.0008
2302.00,0.0008
2301.00,0.0008
2300.00,0.0009
2299.00,0.0010
2298.00,0.0010
2297.00,0.0011
2296.00,0.0012
2295.00,0.0012
2294.00,0.0013
2293.00,0.0013
2292.00,0.0014
2291.00,0.0015
2290.00,0.0016
2289.00,0.0017
2288.00,0.0018
2287.00,0.0018
2286.00,0.0018
2285.00,0.0018
2284.00,0.0017
2283.00,0.0017
2282.00,0.0016
2281.00,0.0016
2280.00,0.0015
2279.00,0.0014
2278.00,0.0013
2277.00,0.0011
2276.00,0.0011
2275.00,0.0011
2274.00,0.0012
2273.00,0.0012
2272.00,0.0013
2271.00,0.0012
2270.00,0.0012
2269.00,0.0011
2268.00,0.0011
2267.00,0.0011
2266.00,0.0011
2265.00,0.0012
2264.00,0.0012
2263.00,0.0012
2262.00,0.0012
2261.00,0.0012
2260.00,0.0012
2259.00,0.0012
2258.00,0.0010
2257.00,0.0009
2256.00,0.0009
2255.00,0.0008
2254.00,0.0008
2253.00,0.0008
2252.00,0.0009
2251.00,0.0009
2250.00,0.0010
2249.00,0.0010
2248.00,0.0010
2247.00,0.0010
2246.00,0.0009
2245.00,0.0008
2244.00,0.0007
2243.00,0.0006
2242.00,0.0007
2241.00,0.0008
2240.00,0.0008
2239.00,0.0007
2238.00,0.0006
2237.00,0.0006
2236.00,0.0007
2235.00,0.0008
2234.00,0.0008
2233.00,0.0008
2232.00,0.0009
2231.00,0.0009
2230.00,0.0009
2229.00,0.0008
2228.00,0.0007
2227.00,0.0005
2226.00,0.0004
2225.00,0.0005
2224.00,0.0006
2223.00,0.0006
2222.00,0.0004
2221.00,0.0002
2220.00,0.0001
2219.00,0.0001
2218.00,0.0001
2217.00,0.0002
2216.00,0.0003
2215.00,0.0004
2214.00,0.0006
2213.00,0.0007
2212.00,0.0006
2211.00,0.0004
2210.00,0.0003
2209.00,0.0002
2208.00,0.0001
2207.00,0.0001
2206.00,0.0002
2205.00,0.0004
2204.00,0.0007
2203.00,0.0009
2202.00,0.0010
2201.00,0.0009
2200.00,0.0007
2199.00,0.0008
2198.00,0.0010
2197.00,0.0012
2196.00,0.0014
2195.00,0.0014
2194.00,0.0013
2193.00,0.0011
2192.00,0.0010
2191.00,0.0010
2190.00,0.0011
2189.00,0.0013
2188.00,0.0016
2187.00,0.0016
2186.00,0.0016
2185.00,0.0013
2184.00,0.0011
2183.00,0.0008
2182.00,0.0006
2181.00,0.0004
2180.00,0.0003
2179.00,0.0004
2178.00,0.0005
2177.00,0.0006
2176.00,0.0007
2175.00,0.0006
2174.00,0.0006
2173.00,0.0007
2172.00,0.0008
2171.00,0.0011
2170.00,0.0013
2169.00,0.0015
2168.00,0.0017
2167.00,0.0019
2166.00,0.0019
2165.00,0.0018
2164.00,0.0017
2163.00,0.0016
2162.00,0.0014
2161.00,0.0010
2160.00,0.0000
2159.00,-0.0012
2158.00,-0.0023
2157.00,-0.0027
2156.00,-0.0025
2155.00,-0.0022
2154.00,-0.0018
2153.00,-0.0015
2152.00,-0.0013
2151.00,-0.0012
2150.00,-0.0012
2149.00,-0.0012
2148.00,-0.0011
2147.00,-0.0009
2146.00,-0.0008
2145.00,-0.0008
2144.00,-0.0008
2143.00,-0.0009
2142.00,-0.0010
2141.00,-0.0010
2140.00,-0.0011
2139.00,-0.0013
2138.00,-0.0014
2137.00,-0.0015
2136.00,-0.0016
2135.00,-0.0019
2134.00,-0.0020
2133.00,-0.0019
2132.00,-0.0016
2131.00,-0.0012
2130.00,-0.0010
2129.00,-0.0008
2128.00,-0.0006
2127.00,-0.0005
2126.00,-0.0004
2125.00,-0.0004
2124.00,-0.0005
2123.00,-0.0006
2122.00,-0.0006
2121.00,-0.0006
2120.00,-0.0005
2119.00,-0.0004
2118.00,-0.0003
2117.00,-0.0001
2116.00,0.0001
2115.00,0.0002
2114.00,0.0002
2113.00,0.0002
2112.00,0.0002
2111.00,0.0001
2110.00,0.0001
2109.00,0.0000
2108.00,0.0000
2107.00,0.0001
2106.00,0.0002
2105.00,0.0004
2104.00,0.0005
2103.00,0.0004
2102.00,0.0003
2101.00,0.0001
2100.00,0.0001
2099.00,0.0001
2098.00,0.0000
2097.00,-0.0002
2096.00,-0.0005
2095.00,-0.0007
2094.00,-0.0007
2093.00,-0.0006
2092.00,-0.0004
2091.00,-0.0004
2090.00,-0.0004
2089.00,-0.0004
2088.00,-0.0004
2087.00,-0.0002
2086.00,-0.0001
2085.00,0.0001
2084.00,0.0003
2083.00,0.0003
2082.00,0.0002
2081.00,0.0002
2080.00,0.0002
2079.00,0.0002
2078.00,0.0003
2077.00,0.0003
2076.00,0.0003
2075.00,0.0003
2074.00,0.0002
2073.00,0.0001
2072.00,0.0000
2071.00,0.0000
2070.00,0.0000
2069.00,-0.0001
2068.00,-0.0002
2067.00,-0.0003
2066.00,-0.0003
2065.00,-0.0002
2064.00,-0.0001
2063.00,0.0001
2062.00,0.0001
2061.00,0.0000
2060.00,-0.0001
2059.00,-0.0002
2058.00,-0.0002
2057.00,-0.0001
2056.00,-0.0002
2055.00,-0.0003
2054.00,-0.0002
2053.00,0.0001
2052.00,0.0006
2051.00,0.0011
2050.00,0.0013
2049.00,0.0012
2048.00,0.0009
2047.00,0.0007
2046.00,0.0006
2045.00,0.0007
2044.00,0.0007
2043.00,0.0006
2042.00,0.0006
2041.00,0.0006
2040.00,0.0007
2039.00,0.0007
2038.00,0.0005
2037.00,0.0001
2036.00,-0.0003
2035.00,-0.0006
2034.00,-0.0007
2033.00,-0.0008
2032.00,-0.0010
2031.00,-0.0013
2030.00,-0.0014
2029.00,-0.0014
2028.00,-0.0014
2027.00,-0.0013
2026.00,-0.0012
2025.00,-0.0012
2024.00,-0.0012
2023.00,-0.0012
2022.00,-0.0012
2021.00,-0.0010
2020.00,-0.0010
2019.00,-0.0010
2018.00,-0.0012
2017.00,-0.0012
2016.00,-0.0011
2015.00,-0.0009
2014.00,-0.0007
2013.00,-0.0007
2012.00,-0.0008
2011.00,-0.0010
2010.00,-0.0012
2009.00,-0.0014
2008.00,-0.0016
2007.00,-0.0018
2006.00,-0.0018
2005.00,-0.0016
2004.00,-0.0013
2003.00,-0.0011
2002.00,-0.0011
2001.00,-0.0014
2000.00,-0.0017
1999.00,-0.0019
1998.00,-0.0019
1997.00,-0.0017
1996.00,-0.0015
1995.00,-0.0014
1994.00,-0.0014
1993.00,-0.0013
1992.00,-0.0012
1991.00,-0.0009
1990.00,-0.0007
1989.00,-0.0005
1988.00,-0.0004
1987.00,-0.0004
1986.00,-0.0004
1985.00,-0.0003
1984.00,-0.0001
1983.00,0.0001
1982.00,0.0003
1981.00,0.0006
1980.00,0.0005
1979.00,0.0001
1978.00,-0.0005
1977.00,-0.0012
1976.00,-0.0015
1975.00,-0.0017
1974.00,-0.0017
1973.00,-0.0017
1972.00,-0.0016
1971.00,-0.0015
1970.00,-0.0015
1969.00,-0.0014
1968.00,-0.0014
1967.00,-0.0015
1966.00,-0.0018
1965.00,-0.0020
1964.00,-0.0020
1963.00,-0.0018
1962.00,-0.0017
1961.00,-0.0017
1960.00,-0.0019
1959.00,-0.0021
1958.00,-0.0022
1957.00,-0.0020
1956.00,-0.0017
1955.00,-0.0013
1954.00,-0.0012
1953.00,-0.0012
1952.00,-0.0014
1951.00,-0.0016
1950.00,-0.0018
1949.00,-0.0019
1948.00,-0.0020
1947.00,-0.0020
1946.00,-0.0019
1945.00,-0.0017
1944.00,-0.0016
1943.00,-0.0014
1942.00,-0.0014
1941.00,-0.0012
1940.00,-0.0011
1939.00,-0.0010
1938.00,-0.0010
1937.00,-0.0011
1936.00,-0.0011
1935.00,-0.0011
1934.00,-0.0011
1933.00,-0.0010
1932.00,-0.0010
1931.00,-0.0009
1930.00,-0.0008
1929.00,-0.0008
1928.00,-0.0008
1927.00,-0.0008
1926.00,-0.0008
1925.00,-0.0007
1924.00,-0.0006
1923.00,-0.0005
1922.00,-0.0004
1921.00,-0.0004
1920.00,-0.0003
1919.00,-0.0003
1918.00,-0.0004
1917.00,-0.0004
1916.00,-0.0004
1915.00,-0.0005
1914.00,-0.0006
1913.00,-0.0006
1912.00,-0.0006
1911.00,-0.0006
1910.00,-0.0005
1909.00,-0.0004
1908.00,-0.0004
1907.00,-0.0004
1906.00,-0.0004
1905.00,-0.0004
1904.00,-0.0004
1903.00,-0.0005
1902.00,-0.0005
1901.00,-0.0005
1900.00,-0.0005
1899.00,-0.0005
1898.00,-0.0005
1897.00,-0.0005
1896.00,-0.0003
1895.00,-0.0002
1894.00,-0.0002
1893.00,-0.0002
1892.00,-0.0001
1891.00,-0.0001
1890.00,-0.0001
1889.00,-0.0002
1888.00,-0.0003
1887.00,-0.0004
1886.00,-0.0005
1885.00,-0.0005
1884.00,-0.0005
1883.00,-0.0004
1882.00,-0.0004
1881.00,-0.0003
1880.00,-0.0003
1879.00,-0.0002
1878.00,-0.0003
1877.00,-0.0003
1876.00,-0.0003
1875.00,-0.0003
1874.00,-0.0003
1873.00,-0.0002
1872.00,-0.0002
1871.00,-0.0003
1870.00,-0.0004
1869.00,-0.0005
1868.00,-0.0005
1867.00,-0.0004
1866.00,-0.0002
1865.00,-0.0001
1864.00,-0.0001
1863.00,-0.0001
1862.00,-0.0002
1861.00,-0.0002
1860.00,-0.0001
1859.00,-0.0001
1858.00,-0.0001
1857.00,-0.0001
1856.00,-0.0002
1855.00,-0.0002
1854.00,-0.0002
1853.00,-0.0001
1852.00,-0.0000
1851.00,-0.0000
1850.00,-0.0000
1849.00,-0.0001
1848.00,-0.0001
1847.00,-0.0001
1846.00,-0.0000
1845.00,0.0000
1844.00,0.0001
1843.00,0.0001
1842.00,0.0001
1841.00,0.0002
1840.00,0.0002
1839.00,0.0002
1838.00,0.0003
1837.00,0.0003
1836.00,0.0003
1835.00,0.0002
1834.00,0.0001
1833.00,0.0001
1832.00,0.0000
1831.00,0.0000
1830.00,0.0000
1829.00,0.0000
1828.00,0.0001
1827.00,0.0001
1826.00,0.0001
1825.00,0.0001
1824.00,0.0001
1823.00,0.0001
1822.00,0.0001
1821.00,0.0001
1820.00,0.0000
1819.00,-0.0000
1818.00,-0.0001
1817.00,-0.0001
1816.00,-0.0000
1815.00,0.0000
1814.00,0.0001
1813.00,0.0002
1812.00,0.0002
1811.00,0.0002
1810.00,0.0002
1809.00,0.0003
1808.00,0.0003
1807.00,0.0003
1806.00,0.0003
1805.00,0.0003
1804.00,0.0003
1803.00,0.0003
1802.00,0.0003
1801.00,0.0004
1800.00,0.0004
1799.00,0.0004
1798.00,0.0005
1797.00,0.0005
1796.00,0.0005
1795.00,0.0004
1794.00,0.0004
1793.00,0.0004
1792.00,0.0005
1791.00,0.0005
1790.00,0.0005
1789.00,0.0005
1788.00,0.0005
1787.00,0.0006
1786.00,0.0007
1785.00,0.0007
1784.00,0.0007
1783.00,0.0007
1782.00,0.0007
1781.00,0.0007
1780.00,0.0007
1779.00,0.0007
1778.00,0.0007
1777.00,0.0007
1776.00,0.0007
1775.00,0.0007
1774.00,0.0007
1773.00,0.0008
1772.00,0.0008
1771.00,0.0008
1770.00,0.0008
1769.00,0.0008
1768.00,0.0008
1767.00,0.0008
1766.00,0.0008
1765.00,0.0009
1764.00,0.0009
1763.00,0.0010
1762.00,0.0011
1761.00,0.0011
1760.00,0.0011
1759.00,0.0011
1758.00,0.0011
1757.00,0.0011
1756.00,0.0011
1755.00,0.0011
1754.00,0.0012
1753.00,0.0012
1752.00,0.0014
1751.00,0.0014
1750.00,0.0015
1749.00,0.0016
1748.00,0.0017
1747.00,0.0018
1746.00,0.0019
1745.00,0.0019
1744.00,0.0020
1743.00,0.0021
1742.00,0.0021
1741.00,0.0021
1740.00,0.0022
1739.00,0.0023
1738.00,0.0023
1737.00,0.0024
1736.00,0.0024
1735.00,0.0024
1734.00,0.0024
1733.00,0.0025
1732.00,0.0025
1731.00,0.0025
1730.00,0.0025
1729.00,0.0025
1728.00,0.0025
1727.00,0.0025
1726.00,0.0025
1725.00,0.0025
1724.00,0.0024
1723.00,0.0024
1722.00,0.0023
1721.00,0.0022
1720.00,0.0022
1719.00,0.0022
1718.00,0.0023
1717.00,0.0023
1716.00,0.0023
1715.00,0.0023
1714.00,0.0022
1713.00,0.0022
1712.00,0.0022
1711.00,0.0022
1710.00,0.0022
1709.00,0.0022
1708.00,0.0023
1707.00,0.0023
1706.00,0.0024
1705.00,0.0025
1704.00,0.0026
1703.00,0.0026
1702.00,0.0027
1701.00,0.0027
1700.00,0.0027
1699.00,0.0026
1698.00,0.0026
1697.00,0.0026
1696.00,0.0027
1695.00,0.0029
1694.00,0.0030
1693.00,0.0032
1692.00,0.0033
1691.00,0.0034
1690.00,0.0036
1689.00,0.0037
1688.00,0.0038
1687.00,0.0039
1686.00,0.0040
1685.00,0.0041
1684.00,0.0043
1683.00,0.0044
1682.00,0.0045
1681.00,0.0047
1680.00,0.0048
1679.00,0.0049
1678.00,0.0051
1677.00,0.0053
1676.00,0.0055
1675.00,0.0057
1674.00,0.0058
1673.00,0.0059
1672.00,0.0059
1671.00,0.0060
1670.00,0.0060
1669.00,0.0061
1668.00,0.0062
1667.00,0.0062
1666.00,0.0063
1665.00,0.0063
1664.00,0.0063
1663.00,0.0063
1662.00,0.0063
1661.00,0.0064
1660.00,0.0065
1659.00,0.0065
1658.00,0.0065
1657.00,0.0064
1656.00,0.0064
1655.00,0.0063
1654.00,0.0062
1653.00,0.0064
1652.00,0.0066
1651.00,0.0067
1650.00,0.0067
1649.00,0.0068
1648.00,0.0069
1647.00,0.0070
1646.00,0.0071
1645.00,0.0071
1644.00,0.0071
1643.00,0.0070
1642.00,0.0069
1641.00,0.0068
1640.00,0.0066
1639.00,0.0065
1638.00,0.0064
1637.00,0.0064
1636.00,0.0064
1635.00,0.0064
1634.00,0.0063
1633.00,0.0063
1632.00,0.0063
1631.00,0.0063
1630.00,0.0063
1629.00,0.0062
1628.00,0.0062
1627.00,0.0061
1626.00,0.0060
1625.00,0.0059
1624.00,0.0058
1623.00,0.0058
1622.00,0.0058
1621.00,0.0058
1620.00,0.0058
1619.00,0.0057
1618.00,0.0057
1617.00,0.0056
1616.00,0.0057
1615.00,0.0057
1614.00,0.0056
1613.00,0.0057
1612.00,0.0057
1611.00,0.0057
1610.00,0.0056
1609.00,0.0056
1608.00,0.0056
1607.00,0.0055
1606.00,0.0055
1605.00,0.0055
1604.00,0.0055
1603.00,0.0055
1602.00,0.0055
1601.00,0.0055
1600.00,0.0055
1599.00,0.0055
1598.00,0.0055
1597.00,0.0055
1596.00,0.0055
1595.00,0.0055
1594.00,0.0055
1593.00,0.0055
1592.00,0.0056
1591.00,0.0056
1590.00,0.0056
1589.00,0.0057
1588.00,0.0058
1587.00,0.0059
1586.00,0.0060
1585.00,0.0062
1584.00,0.0064
1583.00,0.0065
1582.00,0.0067
1581.00,0.0069
1580.00,0.0071
1579.00,0.0073
1578.00,0.0074
1577.00,0.0075
1576.00,0.0075
1575.00,0.0074
1574.00,0.0073
1573.00,0.0072
1572.00,0.0071
1571.00,0.0069
1570.00,0.0067
1569.00,0.0066
1568.00,0.0064
1567.00,0.0063
1566.00,0.0062
1565.00,0.0062
1564.00,0.0062
1563.00,0.0062
1562.00,0.0062
1561.00,0.0062
1560.00,0.0062
1559.00,0.0063
1558.00,0.0063
1557.00,0.0063
1556.00,0.0064
1555.00,0.0065
1554.00,0.0066
1553.00,0.0067
1552.00,0.0068
1551.00,0.0069
1550.00,0.0071
1549.00,0.0072
1548.00,0.0073
1547.00,0.0074
1546.00,0.0076
1545.00,0.0078
1544.00,0.0080
1543.00,0.0082
1542.00,0.0082
1541.00,0.0082
1540.00,0.0082
1539.00,0.0080
1538.00,0.0077
1537.00,0.0076
1536.00,0.0074
1535.00,0.0072
1534.00,0.0068
1533.00,0.0065
1532.00,0.0063
1531.00,0.0061
1530.00,0.0060
1529.00,0.0059
1528.00,0.0058
1527.00,0.0057
1526.00,0.0055
1525.00,0.0055
1524.00,0.0055
1523.00,0.0054
1522.00,0.0054
1521.00,0.0054
1520.00,0.0055
1519.00,0.0055
1518.00,0.0055
1517.00,0.0056
1516.00,0.0057
1515.00,0.0057
1514.00,0.0057
1513.00,0.0058
1512.00,0.0059
1511.00,0.0059
1510.00,0.0059
1509.00,0.0060
1508.00,0.0061
1507.00,0.0061
1506.00,0.0062
1505.00,0.0064
1504.00,0.0066
1503.00,0.0068
1502.00,0.0070
1501.00,0.0072
1500.00,0.0075
1499.00,0.0078
1498.00,0.0080
1497.00,0.0083
1496.00,0.0087
1495.00,0.0090
1494.00,0.0092
1493.00,0.0096
1492.00,0.0099
1491.00,0.0103
1490.00,0.0106
1489.00,0.0112
1488.00,0.0118
1487.00,0.0123
1486.00,0.0128
1485.00,0.0135
1484.00,0.0143
1483.00,0.0151
1482.00,0.0160
1481.00,0.0172
1480.00,0.0184
1479.00,0.0197
1478.00,0.0211
1477.00,0.0230
1476.00,0.0253
1475.00,0.0278
1474.00,0.0313
1473.00,0.0365
1472.00,0.0429
1471.00,0.0490
1470.00,0.0549
1469.00,0.0610
1468.00,0.0676
1467.00,0.0749
1466.00,0.0834
1465.00,0.0927
1464.00,0.1010
1463.00,0.1071
1462.00,0.1113
1461.00,0.1146
1460.00,0.1172
1459.00,0.1194
1458.00,0.1216
1457.00,0.1240
1456.00,0.1255
1455.00,0.1259
1454.00,0.1259
1453.00,0.1252
1452.00,0.1236
1451.00,0.1205
1450.00,0.1156
1449.00,0.1083
1448.00,0.0985
1447.00,0.0880
1446.00,0.0784
1445.00,0.0702
1444.00,0.0631
1443.00,0.0573
1442.00,0.0530
1441.00,0.0499
1440.00,0.0480
1439.00,0.0470
1438.00,0.0467
1437.00,0.0464
1436.00,0.0449
1435.00,0.0421
1434.00,0.0383
1433.00,0.0338
1432.00,0.0293
1431.00,0.0253
1430.00,0.0222
1429.00,0.0201
1428.00,0.0186
1427.00,0.0177
1426.00,0.0171
1425.00,0.0166
1424.00,0.0160
1423.00,0.0157
1422.00,0.0155
1421.00,0.0153
1420.00,0.0149
1419.00,0.0145
1418.00,0.0142
1417.00,0.0138
1416.00,0.0135
1415.00,0.0133
1414.00,0.0131
1413.00,0.0129
1412.00,0.0127
1411.00,0.0126
1410.00,0.0126
1409.00,0.0125
1408.00,0.0123
1407.00,0.0123
1406.00,0.0123
1405.00,0.0122
1404.00,0.0122
1403.00,0.0121
1402.00,0.0122
1401.00,0.0122
1400.00,0.0123
1399.00,0.0126
1398.00,0.0129
1397.00,0.0131
1396.00,0.0133
1395.00,0.0137
1394.00,0.0142
1393.00,0.0147
1392.00,0.0153
1391.00,0.0162
1390.00,0.0173
1389.00,0.0190
1388.00,0.0215
1387.00,0.0252
1386.00,0.0301
1385.00,0.0364
1384.00,0.0446
1383.00,0.0557
1382.00,0.0702
1381.00,0.0883
1380.00,0.1100
1379.00,0.1341
1378.00,0.1568
1377.00,0.1731
1376.00,0.1785
1375.00,0.1700
1374.00,0.1499
1373.00,0.1252
1372.00,0.1022
1371.00,0.0830
1370.00,0.0673
1369.00,0.0552
1368.00,0.0467
1367.00,0.0413
1366.00,0.0384
1365.00,0.0372
1364.00,0.0374
1363.00,0.0386
1362.00,0.0405
1361.00,0.0426
1360.00,0.0442
1359.00,0.0446
1358.00,0.0435
1357.00,0.0410
1356.00,0.0375
1355.00,0.0335
1354.00,0.0296
1353.00,0.0262
1352.00,0.0235
1351.00,0.0213
1350.00,0.0195
1349.00,0.0181
1348.00,0.0169
1347.00,0.0159
1346.00,0.0151
1345.00,0.0145
1344.00,0.0140
1343.00,0.0137
1342.00,0.0133
1341.00,0.0130
1340.00,0.0127
1339.00,0.0125
1338.00,0.0124
1337.00,0.0124
1336.00,0.0125
1335.00,0.0127
1334.00,0.0130
1333.00,0.0134
1332.00,0.0138
1331.00,0.0141
1330.00,0.0142
1329.00,0.0141
1328.00,0.0139
1327.00,0.0135
1326.00,0.0129
1325.00,0.0123
1324.00,0.0117
1323.00,0.0111
1322.00,0.0107
1321.00,0.0104
1320.00,0.0101
1319.00,0.0099
1318.00,0.0097
1317.00,0.0095
1316.00,0.0093
1315.00,0.0092
1314.00,0.0091
1313.00,0.0091
1312.00,0.0093
1311.00,0.0097
1310.00,0.0103
1309.00,0.0112
1308.00,0.0125
1307.00,0.0140
1306.00,0.0154
1305.00,0.0165
1304.00,0.0168
1303.00,0.0165
1302.00,0.0158
1301.00,0.0150
1300.00,0.0145
1299.00,0.0142
1298.00,0.0141
1297.00,0.0140
1296.00,0.0138
1295.00,0.0136
1294.00,0.0132
1293.00,0.0127
1292.00,0.0122
1291.00,0.0117
1290.00,0.0113
1289.00,0.0109
1288.00,0.0105
1287.00,0.0101
1286.00,0.0098
1285.00,0.0096
1284.00,0.0093
1283.00,0.0092
1282.00,0.0090
1281.00,0.0089
1280.00,0.0089
1279.00,0.0088
1278.00,0.0087
1277.00,0.0086
1276.00,0.0085
1275.00,0.0084
1274.00,0.0084
1273.00,0.0084
1272.00,0.0084
1271.00,0.0085
1270.00,0.0085
1269.00,0.0086
1268.00,0.0088
1267.00,0.0090
1266.00,0.0092
1265.00,0.0094
1264.00,0.0096
1263.00,0.0100
1262.00,0.0104
1261.00,0.0110
1260.00,0.0118
1259.00,0.0128
1258.00,0.0138
1257.00,0.0147
1256.00,0.0151
1255.00,0.0149
1254.00,0.0141
1253.00,0.0131
1252.00,0.0120
1251.00,0.0111
1250.00,0.0105
1249.00,0.0100
1248.00,0.0097
1247.00,0.0094
1246.00,0.0092
1245.00,0.0090
1244.00,0.0089
1243.00,0.0088
1242.00,0.0088
1241.00,0.0088
1240.00,0.0087
1239.00,0.0086
1238.00,0.0085
1237.00,0.0084
1236.00,0.0083
1235.00,0.0083
1234.00,0.0082
1233.00,0.0082
1232.00,0.0082
1231.00,0.0082
1230.00,0.0083
1229.00,0.0084
1228.00,0.0085
1227.00,0.0086
1226.00,0.0087
1225.00,0.0089
1224.00,0.0091
1223.00,0.0094
1222.00,0.0097
1221.00,0.0100
1220.00,0.0102
1219.00,0.0103
1218.00,0.0104
1217.00,0.0103
1216.00,0.0102
1215.00,0.0099
1214.00,0.0096
1213.00,0.0093
1212.00,0.0090
1211.00,0.0088
1210.00,0.0086
1209.00,0.0085
1208.00,0.0084
1207.00,0.0082
1206.00,0.0081
1205.00,0.0080
1204.00,0.0080
1203.00,0.0080
1202.00,0.0080
1201.00,0.0080
1200.00,0.0080
1199.00,0.0080
1198.00,0.0079
1197.00,0.0079
1196.00,0.0079
1195.00,0.0080
1194.00,0.0081
1193.00,0.0081
1192.00,0.0081
1191.00,0.0081
1190.00,0.0081
1189.00,0.0082
1188.00,0.0083
1187.00,0.0084
1186.00,0.0086
1185.00,0.0087
1184.00,0.0089
1183.00,0.0091
1182.00,0.0093
1181.00,0.0097
1180.00,0.0101
1179.00,0.0107
1178.00,0.0116
1177.00,0.0127
1176.00,0.0142
1175.00,0.0161
1174.00,0.0186
1173.00,0.0217
1172.00,0.0255
1171.00,0.0298
1170.00,0.0341
1169.00,0.0377
1168.00,0.0401
1167.00,0.0409
1166.00,0.0402
1165.00,0.0382
1164.00,0.0357
1163.00,0.0330
1162.00,0.0306
1161.00,0.0285
1160.00,0.0268
1159.00,0.0253
1158.00,0.0242
1157.00,0.0233
1156.00,0.0227
1155.00,0.0222
1154.00,0.0218
1153.00,0.0213
1152.00,0.0207
1151.00,0.0198
1150.00,0.0189
1149.00,0.0179
1148.00,0.0169
1147.00,0.0159
1146.00,0.0151
1145.00,0.0143
1144.00,0.0135
1143.00,0.0127
1142.00,0.0120
1141.00,0.0114
1140.00,0.0108
1139.00,0.0104
1138.00,0.0101
1137.00,0.0098
1136.00,0.0095
1135.00,0.0093
1134.00,0.0091
1133.00,0.0089
1132.00,0.0088
1131.00,0.0088
1130.00,0.0089
1129.00,0.0090
1128.00,0.0091
1127.00,0.0092
1126.00,0.0093
1125.00,0.0093
1124.00,0.0093
1123.00,0.0092
1122.00,0.0092
1121.00,0.0092
1120.00,0.0093
1119.00,0.0095
1118.00,0.0096
1117.00,0.0098
1116.00,0.0100
1115.00,0.0101
1114.00,0.0102
1113.00,0.0103
1112.00,0.0104
1111.00,0.0106
1110.00,0.0109
1109.00,0.0113
1108.00,0.0118
1107.00,0.0124
1106.00,0.0130
1105.00,0.0137
1104.00,0.0142
1103.00,0.0147
1102.00,0.0148
1101.00,0.0146
1100.00,0.0141
1099.00,0.0134
1098.00,0.0127
1097.00,0.0120
1096.00,0.0114
1095.00,0.0109
1094.00,0.0106
1093.00,0.0103
1092.00,0.0101
1091.00,0.0099
1090.00,0.0098
1089.00,0.0097
1088.00,0.0096
1087.00,0.0094
1086.00,0.0092
1085.00,0.0091
1084.00,0.0090
1083.00,0.0089
1082.00,0.0088
1081.00,0.0086
1080.00,0.0085
1079.00,0.0084
1078.00,0.0083
1077.00,0.0082
1076.00,0.0081
1075.00,0.0081
1074.00,0.0081
1073.00,0.0081
1072.00,0.0082
1071.00,0.0082
1070.00,0.0082
1069.00,0.0082
1068.00,0.0082
1067.00,0.0081
1066.00,0.0081
1065.00,0.0081
1064.00,0.0082
1063.00,0.0082
1062.00,0.0082
1061.00,0.0083
1060.00,0.0084
1059.00,0.0085
1058.00,0.0087
1057.00,0.0088
1056.00,0.0088
1055.00,0.0088
1054.00,0.0088
1053.00,0.0088
1052.00,0.0090
1051.00,0.0092
1050.00,0.0096
1049.00,0.0100
1048.00,0.0104
1047.00,0.0108
1046.00,0.0111
1045.00,0.0112
1044.00,0.0112
1043.00,0.0110
1042.00,0.0107
1041.00,0.0104
1040.00,0.0102
1039.00,0.0100
1038.00,0.0099
1037.00,0.0099
1036.00,0.0098
1035.00,0.0097
1034.00,0.0097
1033.00,0.0096
1032.00,0.0095
1031.00,0.0095
1030.00,0.0094
1029.00,0.0094
1028.00,0.0093
1027.00,0.0093
1026.00,0.0092
1025.00,0.0092
1024.00,0.0092
1023.00,0.0093
1022.00,0.0094
1021.00,0.0095
1020.00,0.0095
1019.00,0.0096
1018.00,0.0098
1017.00,0.0100
1016.00,0.0102
1015.00,0.0106
1014.00,0.0110
1013.00,0.0114
1012.00,0.0118
1011.00,0.0121
1010.00,0.0125
1009.00,0.0130
1008.00,0.0136
1007.00,0.0145
1006.00,0.0157
1005.00,0.0172
1004.00,0.0193
1003.00,0.0221
1002.00,0.0260
1001.00,0.0308
1000.00,0.0359
999.00,0.0404
998.00,0.0430
997.00,0.0427
996.00,0.0396
995.00,0.0346
994.00,0.0291
993.00,0.0243
992.00,0.0205
991.00,0.0178
990.00,0.0159
989.00,0.0147
988.00,0.0139
987.00,0.0135
986.00,0.0134
985.00,0.0137
984.00,0.0142
983.00,0.0151
982.00,0.0165
981.00,0.0185
980.00,0.0210
979.00,0.0243
978.00,0.0284
977.00,0.0334
976.00,0.0391
975.00,0.0448
974.00,0.0495
973.00,0.0519
972.00,0.0509
971.00,0.0466
970.00,0.0402
969.00,0.0333
968.00,0.0271
967.00,0.0223
966.00,0.0188
965.00,0.0163
964.00,0.0145
963.00,0.0132
962.00,0.0122
961.00,0.0114
960.00,0.0108
959.00,0.0102
958.00,0.0098
957.00,0.0095
956.00,0.0092
955.00,0.0090
954.00,0.0088
953.00,0.0086
952.00,0.0085
951.00,0.0084
950.00,0.0083
949.00,0.0083
948.00,0.0083
947.00,0.0083
946.00,0.0085
945.00,0.0087
944.00,0.0090
943.00,0.0092
942.00,0.0094
941.00,0.0095
940.00,0.0095
939.00,0.0093
938.00,0.0090
937.00,0.0085
936.00,0.0080
935.00,0.0076
934.00,0.0073
933.00,0.0071
932.00,0.0069
931.00,0.0066
930.00,0.0064
929.00,0.0063
928.00,0.0062
927.00,0.0062
926.00,0.0062
925.00,0.0062
924.00,0.0063
923.00,0.0064
922.00,0.0066
921.00,0.0067
920.00,0.0067
919.00,0.0067
918.00,0.0068
917.00,0.0069
916.00,0.0070
915.00,0.0070
914.00,0.0070
913.00,0.0071
912.00,0.0071
911.00,0.0072
910.00,0.0073
909.00,0.0075
908.00,0.0077
907.00,0.0081
906.00,0.0088
905.00,0.0098
904.00,0.0112
903.00,0.0129
902.00,0.0147
901.00,0.0163
900.00,0.0174
899.00,0.0177
898.00,0.0170
897.00,0.0156
896.00,0.0140
895.00,0.0124
894.00,0.0111
893.00,0.0100
892.00,0.0091
891.00,0.0085
890.00,0.0081
889.00,0.0078
888.00,0.0077
887.00,0.0075
886.00,0.0074
885.00,0.0073
884.00,0.0073
883.00,0.0073
882.00,0.0074
881.00,0.0074
880.00,0.0074
879.00,0.0075
878.00,0.0076
877.00,0.0077
876.00,0.0079
875.00,0.0081
874.00,0.0083
873.00,0.0084
872.00,0.0084
871.00,0.0082
870.00,0.0080
869.00,0.0078
868.00,0.0076
867.00,0.0076
866.00,0.0077
865.00,0.0078
864.00,0.0079
863.00,0.0080
862.00,0.0082
861.00,0.0084
860.00,0.0087
859.00,0.0089
858.00,0.0090
857.00,0.0092
856.00,0.0094
855.00,0.0096
854.00,0.0099
853.00,0.0101
852.00,0.0104
851.00,0.0109
850.00,0.0117
849.00,0.0127
848.00,0.0141
847.00,0.0161
846.00,0.0190
845.00,0.0233
844.00,0.0292
843.00,0.0359
842.00,0.0414
841.00,0.0434
840.00,0.0410
839.00,0.0353
838.00,0.0288
837.00,0.0233
836.00,0.0195
835.00,0.0171
834.00,0.0157
833.00,0.0148
832.00,0.0142
831.00,0.0137
830.00,0.0131
829.00,0.0126
828.00,0.0121
827.00,0.0119
826.00,0.0117
825.00,0.0117
824.00,0.0116
823.00,0.0114
822.00,0.0112
821.00,0.0112
820.00,0.0112
819.00,0.0114
818.00,0.0118
817.00,0.0123
816.00,0.0130
815.00,0.0140
814.00,0.0152
813.00,0.0166
812.00,0.0180
811.00,0.0193
810.00,0.0203
809.00,0.0208
808.00,0.0207
807.00,0.0199
806.00,0.0187
805.00,0.0172
804.00,0.0157
803.00,0.0143
802.00,0.0132
801.00,0.0124
800.00,0.0118
799.00,0.0113
798.00,0.0109
797.00,0.0105
796.00,0.0102
795.00,0.0098
794.00,0.0094
793.00,0.0091
792.00,0.0090
791.00,0.0088
790.00,0.0086
789.00,0.0084
788.00,0.0081
787.00,0.0078
786.00,0.0074
785.00,0.0071
784.00,0.0069
783.00,0.0067
782.00,0.0065
781.00,0.0063
780.00,0.0062
779.00,0.0061
778.00,0.0063
777.00,0.0065
776.00,0.0066
775.00,0.0067
774.00,0.0067
773.00,0.0067
772.00,0.0069
771.00,0.0071
770.00,0.0074
769.00,0.0076
768.00,0.0078
767.00,0.0078
766.00,0.0077
765.00,0.0075
764.00,0.0071
763.00,0.0069
762.00,0.0067
761.00,0.0065
760.00,0.0064
759.00,0.0062
758.00,0.0060
757.00,0.0059
756.00,0.0058
755.00,0.0058
754.00,0.0058
753.00,0.0058
752.00,0.0058
751.00,0.0057
750.00,0.0057
749.00,0.0057
748.00,0.0057
747.00,0.0059
746.00,0.0061
745.00,0.0063
744.00,0.0064
743.00,0.0066
742.00,0.0067
741.00,0.0068
740.00,0.0068
739.00,0.0070
738.00,0.0071
737.00,0.0072
736.00,0.0074
735.00,0.0076
734.00,0.0079
733.00,0.0082
732.00,0.0083
731.00,0.0084
730.00,0.0084
729.00,0.0083
728.00,0.0083
727.00,0.0081
726.00,0.0079
725.00,0.0076
724.00,0.0073
723.00,0.0072
722.00,0.0071
721.00,0.0070
720.00,0.0069
719.00,0.0069
718.00,0.0068
717.00,0.0066
716.00,0.0064
715.00,0.0062
714.00,0.0060
713.00,0.0059
712.00,0.0059
711.00,0.0061
710.00,0.0063
709.00,0.0065
708.00,0.0065
707.00,0.0063
706.00,0.0062
705.00,0.0061
704.00,0.0062
703.00,0.0062
702.00,0.0062
701.00,0.0061
700.00,0.0058
699.00,0.0056
698.00,0.0056
697.00,0.0057
696.00,0.0058
695.00,0.0059
694.00,0.0060
693.00,0.0060
692.00,0.0059
691.00,0.0058
690.00,0.0056
689.00,0.0055
688.00,0.0055
687.00,0.0056
686.00,0.0057
685.00,0.0058
684.00,0.0058
683.00,0.0057
682.00,0.0057
681.00,0.0057
680.00,0.0058
679.00,0.0058
678.00,0.0058
677.00,0.0057
676.00,0.0056
675.00,0.0055
674.00,0.0055
673.00,0.0054
672.00,0.0055
671.00,0.0057
670.00,0.0060
669.00,0.0063
668.00,0.0066
667.00,0.0068
666.00,0.0068
665.00,0.0066
664.00,0.0063
663.00,0.0060
662.00,0.0058
661.00,0.0057
660.00,0.0058
659.00,0.0059
658.00,0.0060
657.00,0.0060
656.00,0.0060
655.00,0.0060
654.00,0.0060
653.00,0.0060
652.00,0.0059
651.00,0.0058
650.00,0.0058
649.00,0.0058
648.00,0.0058
647.00,0.0057
646.00,0.0055
645.00,0.0053
644.00,0.0053
643.00,0.0055
642.00,0.0058
641.00,0.0060
640.00,0.0062
639.00,0.0062
638.00,0.0061
637.00,0.0059
636.00,0.0057
635.00,0.0055
634.00,0.0055
633.00,0.0056
632.00,0.0059
631.00,0.0061
630.00,0.0063
629.00,0.0064
628.00,0.0064
627.00,0.0065
626.00,0.0064
625.00,0.0063
624.00,0.0062
623.00,0.0060
622.00,0.0060
621.00,0.0061
620.00,0.0061
619.00,0.0061
618.00,0.0059
617.00,0.0057
616.00,0.0056
615.00,0.0056
614.00,0.0057
613.00,0.0056
612.00,0.0055
611.00,0.0054
610.00,0.0053
609.00,0.0053
608.00,0.0052
607.00,0.0052
606.00,0.0056
605.00,0.0060
604.00,0.0063
603.00,0.0065
602.00,0.0065
601.00,0.0065
600.00,0.0064
599.00,0.0064
598.00,0.0065
597.00,0.0065
596.00,0.0063
595.00,0.0062
594.00,0.0061
593.00,0.0061
592.00,0.0061
591.00,0.0061
590.00,0.0061
589.00,0.0061
588.00,0.0062
587.00,0.0061
586.00,0.0059
585.00,0.0057
584.00,0.0055
583.00,0.0055
582.00,0.0056
581.00,0.0058
580.00,0.0060
579.00,0.0061
578.00,0.0060
577.00,0.0058
576.00,0.0058
575.00,0.0061
574.00,0.0064
573.00,0.0065
572.00,0.0063
571.00,0.0059
570.00,0.0057
569.00,0.0058
568.00,0.0062
567.00,0.0067
566.00,0.0070
565.00,0.0070
564.00,0.0068
563.00,0.0068
562.00,0.0068
561.00,0.0067
560.00,0.0065
559.00,0.0062
558.00,0.0060
557.00,0.0059
556.00,0.0059
555.00,0.0060
554.00,0.0062
553.00,0.0062
552.00,0.0063
551.00,0.0065
550.00,0.0069
549.00,0.0071
548.00,0.0069
547.00,0.0068
546.00,0.0067
545.00,0.0068
544.00,0.0069
543.00,0.0070
542.00,0.0070
541.00,0.0072
540.00,0.0074
539.00,0.0074
538.00,0.0072
537.00,0.0069
536.00,0.0069
535.00,0.0074
534.00,0.0081
533.00,0.0086
532.00,0.0087
531.00,0.0086
530.00,0.0086
529.00,0.0086
528.00,0.0086
527.00,0.0087
526.00,0.0086
525.00,0.0082
524.00,0.0078
523.00,0.0077
522.00,0.0081
521.00,0.0084
520.00,0.0083
519.00,0.0079
518.00,0.0077
517.00,0.0076
516.00,0.0074
515.00,0.0073
514.00,0.0073
513.00,0.0074
512.00,0.0073
511.00,0.0069
510.00,0.0066
509.00,0.0064
508.00,0.0063
507.00,0.0063
506.00,0.0065
505.00,0.0073
504.00,0.0081
503.00,0.0086
502.00,0.0083
501.00,0.0076
500.00,0.0070
499.00,0.0069
498.00,0.0073
497.00,0.0077
496.00,0.0077
495.00,0.0075
494.00,0.0075
493.00,0.0078
492.00,0.0080
491.00,0.0079
490.00,0.0076
489.00,0.0073
488.00,0.0069
487.00,0.0065
486.00,0.0063
485.00,0.0063
484.00,0.0064
483.00,0.0068
482.00,0.0075
481.00,0.0080
480.00,0.0082
479.00,0.0078
478.00,0.0071
477.00,0.0065
476.00,0.0060
475.00,0.0055
474.00,0.0052
473.00,0.0050
472.00,0.0050
471.00,0.0052
470.00,0.0054
469.00,0.0058
468.00,0.0064
467.00,0.0077
466.00,0.0096
465.00,0.0116
464.00,0.0134
463.00,0.0146
462.00,0.0155
461.00,0.0161
460.00,0.0166
459.00,0.0170
458.00,0.0174
457.00,0.0174
456.00,0.0169
455.00,0.0158
454.00,0.0147
453.00,0.0136
452.00,0.0125
451.00,0.0113
450.00,0.0101
